Data from 15c-100ul-ns-20ul-nr-full-exp-7ul-bp_Absorbance__185__03357.txt Node

Date: Mon Jan 15 11:21:20 CET 2024
User: Marek
Spectrometer: MAYP115816
Trigger mode: 0
Integration Time (sec): 2.000000E-1
Scans to average: 10
Electric dark correction enabled: true
Nonlinearity correction enabled: true
Boxcar width: 5
XAxis mode: Wavelengths
Number of Pixels in Spectrum: 2068
>>>>>Begin Spectral Data<<<<<
199	-2.04
199	-1.908
200	-1.764
200	-1.652
201	-1.578
201	-1.527
202	-1.455
202	-1.398
203	-1.347
203	-1.306
204	-1.277
204	-1.254
205	-1.233
205	-1.223
205	-1.22
206	-1.219
206	-1.217
207	-1.213
207	-1.209
208	-1.208
208	-1.203
209	-1.201
209	-1.199
210	-1.199
210	-1.197
211	-1.195
211	-1.193
212	-1.19
212	-1.19
213	-1.189
213	-1.187
213	-1.187
214	-1.186
214	-1.187
215	-1.186
215	-1.187
216	-1.186
216	-1.184
217	-1.184
217	-1.183
218	-1.182
218	-1.178
219	-1.176
219	-1.175
220	-1.17
220	-1.165
221	-1.161
221	-1.156
221	-1.151
222	-1.146
222	-1.141
223	-1.133
223	-1.129
224	-1.124
224	-1.116
225	-1.107
225	-1.095
226	-1.086
226	-1.075
227	-1.059
227	-1.043
228	-1.023
228	-1.003
229	-0.978
229	-0.949
229	-0.92
230	-0.888
230	-0.853
231	-0.814
231	-0.775
232	-0.733
232	-0.689
233	-0.644
233	-0.597
234	-0.55
234	-0.504
235	-0.457
235	-0.411
236	-0.366
236	-0.322
236	-0.279
237	-0.238
237	-0.199
238	-0.162
238	-0.128
239	-0.095
239	-0.064
240	-0.036
240	-0.01
241	0.014
241	0.037
242	0.057
242	0.077
243	0.094
243	0.11
243	0.125
244	0.139
244	0.152
245	0.163
245	0.174
246	0.184
246	0.193
247	0.201
247	0.209
248	0.216
248	0.223
249	0.229
249	0.235
250	0.24
250	0.245
250	0.25
251	0.254
251	0.259
252	0.263
252	0.267
253	0.27
253	0.273
254	0.276
254	0.279
255	0.281
255	0.284
256	0.286
256	0.288
257	0.289
257	0.291
258	0.292
258	0.294
258	0.295
259	0.296
259	0.296
260	0.297
260	0.298
261	0.298
261	0.298
262	0.298
262	0.298
263	0.298
263	0.298
264	0.298
264	0.298
265	0.298
265	0.297
265	0.297
266	0.296
266	0.296
267	0.295
267	0.294
268	0.293
268	0.292
269	0.291
269	0.29
270	0.289
270	0.288
271	0.286
271	0.285
272	0.283
272	0.282
272	0.281
273	0.28
273	0.278
274	0.277
274	0.276
275	0.274
275	0.273
276	0.271
276	0.27
277	0.268
277	0.266
278	0.264
278	0.263
278	0.261
279	0.259
279	0.257
280	0.256
280	0.254
281	0.253
281	0.252
282	0.25
282	0.249
283	0.248
283	0.247
284	0.246
284	0.245
285	0.244
285	0.242
285	0.241
286	0.24
286	0.239
287	0.238
287	0.237
288	0.235
288	0.234
289	0.233
289	0.232
290	0.231
290	0.23
291	0.229
291	0.228
292	0.227
292	0.226
292	0.225
293	0.224
293	0.223
294	0.222
294	0.221
295	0.22
295	0.219
296	0.218
296	0.218
297	0.217
297	0.216
298	0.215
298	0.214
298	0.214
299	0.213
299	0.212
300	0.212
300	0.211
301	0.21
301	0.209
302	0.208
302	0.208
303	0.207
303	0.207
304	0.206
304	0.206
305	0.205
305	0.204
305	0.203
306	0.203
306	0.202
307	0.201
307	0.201
308	0.2
308	0.199
309	0.198
309	0.197
310	0.196
310	0.196
311	0.195
311	0.194
311	0.193
312	0.192
312	0.192
313	0.191
313	0.19
314	0.19
314	0.189
315	0.188
315	0.187
316	0.187
316	0.186
317	0.185
317	0.184
318	0.184
318	0.183
318	0.182
319	0.181
319	0.181
320	0.18
320	0.179
321	0.178
321	0.177
322	0.176
322	0.176
323	0.175
323	0.174
324	0.173
324	0.172
324	0.172
325	0.171
325	0.17
326	0.17
326	0.169
327	0.168
327	0.168
328	0.167
328	0.166
329	0.166
329	0.165
330	0.164
330	0.163
330	0.163
331	0.162
331	0.161
332	0.16
332	0.16
333	0.159
333	0.158
334	0.157
334	0.156
335	0.156
335	0.155
336	0.154
336	0.154
336	0.153
337	0.152
337	0.152
338	0.151
338	0.15
339	0.15
339	0.149
340	0.149
340	0.148
341	0.147
341	0.147
342	0.146
342	0.145
342	0.145
343	0.144
343	0.144
344	0.143
344	0.143
345	0.142
345	0.142
346	0.141
346	0.14
347	0.14
347	0.139
348	0.139
348	0.138
348	0.138
349	0.137
349	0.136
350	0.136
350	0.135
351	0.134
351	0.134
352	0.133
352	0.132
353	0.131
353	0.131
354	0.13
354	0.129
354	0.128
355	0.127
355	0.126
356	0.126
356	0.126
357	0.126
357	0.126
358	0.126
358	0.126
359	0.126
359	0.127
360	0.127
360	0.127
360	0.127
361	0.128
361	0.128
362	0.128
362	0.127
363	0.127
363	0.127
364	0.126
364	0.126
365	0.126
365	0.125
366	0.125
366	0.125
366	0.125
367	0.125
367	0.124
368	0.124
368	0.123
369	0.123
369	0.123
370	0.122
370	0.122
371	0.121
371	0.121
372	0.12
372	0.12
372	0.12
373	0.12
373	0.12
374	0.12
374	0.12
375	0.12
375	0.12
376	0.12
376	0.12
377	0.12
377	0.12
378	0.12
378	0.12
378	0.12
379	0.12
379	0.12
380	0.12
380	0.12
381	0.12
381	0.119
382	0.119
382	0.119
383	0.118
383	0.118
383	0.118
384	0.117
384	0.117
385	0.116
385	0.116
386	0.116
386	0.116
387	0.116
387	0.116
388	0.115
388	0.115
389	0.115
389	0.115
389	0.115
390	0.115
390	0.116
391	0.116
391	0.116
392	0.116
392	0.116
393	0.116
393	0.116
394	0.116
394	0.115
394	0.115
395	0.114
395	0.114
396	0.114
396	0.114
397	0.114
397	0.114
398	0.114
398	0.114
399	0.114
399	0.113
400	0.113
400	0.113
400	0.113
401	0.112
401	0.111
402	0.11
402	0.11
403	0.109
403	0.109
404	0.109
404	0.109
405	0.108
405	0.108
405	0.108
406	0.108
406	0.107
407	0.107
407	0.107
408	0.107
408	0.106
409	0.106
409	0.105
410	0.105
410	0.105
411	0.105
411	0.105
411	0.104
412	0.104
412	0.103
413	0.103
413	0.103
414	0.102
414	0.102
415	0.101
415	0.101
416	0.101
416	0.1
416	0.1
417	0.099
417	0.099
418	0.099
418	0.099
419	0.1
419	0.1
420	0.101
420	0.101
421	0.102
421	0.102
421	0.102
422	0.103
422	0.103
423	0.103
423	0.103
424	0.102
424	0.101
425	0.101
425	0.1
426	0.099
426	0.099
427	0.098
427	0.098
427	0.098
428	0.099
428	0.099
429	0.1
429	0.1
430	0.1
430	0.1
431	0.1
431	0.099
432	0.099
432	0.098
432	0.097
433	0.096
433	0.095
434	0.094
434	0.094
435	0.094
435	0.094
436	0.094
436	0.094
437	0.094
437	0.094
437	0.094
438	0.094
438	0.094
439	0.094
439	0.093
440	0.093
440	0.093
441	0.093
441	0.093
442	0.094
442	0.094
442	0.094
443	0.094
443	0.094
444	0.095
444	0.095
445	0.095
445	0.095
446	0.095
446	0.095
447	0.094
447	0.094
447	0.094
448	0.094
448	0.094
449	0.093
449	0.093
450	0.093
450	0.092
451	0.092
451	0.091
452	0.091
452	0.091
452	0.09
453	0.09
453	0.089
454	0.089
454	0.088
455	0.088
455	0.088
456	0.088
456	0.088
457	0.088
457	0.087
458	0.088
458	0.088
458	0.088
459	0.088
459	0.088
460	0.088
460	0.087
461	0.087
461	0.086
462	0.086
462	0.086
463	0.086
463	0.087
463	0.087
464	0.087
464	0.087
465	0.087
465	0.087
466	0.087
466	0.087
467	0.087
467	0.087
467	0.086
468	0.084
468	0.083
469	0.081
469	0.08
470	0.08
470	0.079
471	0.079
471	0.079
472	0.079
472	0.079
472	0.08
473	0.081
473	0.082
474	0.083
474	0.084
475	0.084
475	0.085
476	0.085
476	0.085
477	0.085
477	0.085
477	0.086
478	0.086
478	0.086
479	0.086
479	0.087
480	0.087
480	0.088
481	0.089
481	0.09
482	0.091
482	0.092
482	0.093
483	0.095
483	0.098
484	0.1
484	0.102
485	0.104
485	0.105
486	0.106
486	0.107
487	0.107
487	0.108
487	0.108
488	0.108
488	0.106
489	0.105
489	0.104
490	0.103
490	0.102
491	0.102
491	0.103
492	0.103
492	0.104
492	0.104
493	0.105
493	0.107
494	0.109
494	0.111
495	0.113
495	0.114
496	0.115
496	0.116
496	0.118
497	0.119
497	0.12
498	0.121
498	0.121
499	0.121
499	0.121
500	0.122
500	0.123
501	0.124
501	0.126
501	0.127
502	0.128
502	0.129
503	0.13
503	0.132
504	0.133
504	0.133
505	0.134
505	0.134
506	0.135
506	0.135
506	0.135
507	0.136
507	0.136
508	0.137
508	0.138
509	0.138
509	0.139
510	0.14
510	0.141
511	0.141
511	0.142
511	0.142
512	0.142
512	0.142
513	0.142
513	0.142
514	0.142
514	0.142
515	0.141
515	0.14
515	0.139
516	0.139
516	0.138
517	0.139
517	0.14
518	0.14
518	0.141
519	0.14
519	0.14
520	0.138
520	0.137
520	0.136
521	0.134
521	0.132
522	0.129
522	0.126
523	0.124
523	0.122
524	0.121
524	0.121
524	0.122
525	0.123
525	0.125
526	0.128
526	0.13
527	0.134
527	0.136
528	0.139
528	0.142
529	0.143
529	0.145
529	0.145
530	0.146
530	0.147
531	0.147
531	0.147
532	0.147
532	0.147
533	0.147
533	0.146
533	0.146
534	0.145
534	0.144
535	0.143
535	0.143
536	0.143
536	0.142
537	0.142
537	0.141
538	0.14
538	0.139
538	0.138
539	0.137
539	0.137
540	0.136
540	0.134
541	0.132
541	0.131
542	0.129
542	0.128
542	0.126
543	0.125
543	0.124
544	0.122
544	0.121
545	0.12
545	0.119
546	0.119
546	0.118
547	0.117
547	0.115
547	0.113
548	0.111
548	0.109
549	0.107
549	0.106
550	0.104
550	0.102
551	0.099
551	0.097
551	0.095
552	0.094
552	0.093
553	0.092
553	0.091
554	0.091
554	0.089
555	0.088
555	0.086
556	0.083
556	0.081
556	0.078
557	0.076
557	0.074
558	0.072
558	0.07
559	0.069
559	0.068
560	0.067
560	0.066
560	0.066
561	0.065
561	0.065
562	0.065
562	0.064
563	0.062
563	0.06
564	0.058
564	0.056
564	0.053
565	0.052
565	0.051
566	0.049
566	0.048
567	0.048
567	0.048
568	0.049
568	0.05
568	0.051
569	0.053
569	0.054
570	0.054
570	0.054
571	0.055
571	0.056
572	0.056
572	0.055
573	0.055
573	0.055
573	0.053
574	0.053
574	0.052
575	0.052
575	0.053
576	0.053
576	0.053
577	0.051
577	0.05
577	0.049
578	0.048
578	0.048
579	0.049
579	0.05
580	0.049
580	0.046
581	0.043
581	0.042
581	0.041
582	0.041
582	0.041
583	0.042
583	0.041
584	0.038
584	0.035
585	0.033
585	0.033
585	0.033
586	0.033
586	0.032
587	0.031
587	0.029
588	0.027
588	0.025
589	0.024
589	0.024
590	0.023
590	0.022
590	0.023
591	0.024
591	0.023
592	0.023
592	0.022
593	0.022
593	0.022
594	0.021
594	0.02
594	0.019
595	0.019
595	0.018
596	0.017
596	0.018
597	0.02
597	0.021
598	0.022
598	0.024
598	0.025
599	0.025
599	0.025
600	0.024
600	0.023
601	0.022
601	0.02
602	0.018
602	0.017
602	0.015
603	0.015
603	0.015
604	0.015
604	0.016
605	0.017
605	0.018
606	0.019
606	0.018
606	0.018
607	0.017
607	0.017
608	0.017
608	0.016
609	0.015
609	0.014
610	0.013
610	0.012
610	0.012
611	0.013
611	0.014
612	0.015
612	0.016
613	0.018
613	0.019
614	0.019
614	0.018
614	0.019
615	0.018
615	0.017
616	0.017
616	0.016
617	0.016
617	0.015
618	0.013
618	0.012
618	0.012
619	0.012
619	0.013
620	0.015
620	0.016
621	0.016
621	0.017
622	0.018
622	0.018
622	0.018
623	0.019
623	0.019
624	0.02
624	0.02
625	0.019
625	0.02
626	0.02
626	0.02
626	0.02
627	0.021
627	0.022
628	0.023
628	0.023
629	0.024
629	0.024
630	0.024
630	0.024
630	0.025
631	0.026
631	0.026
632	0.026
632	0.026
633	0.026
633	0.027
634	0.028
634	0.03
634	0.032
635	0.034
635	0.035
636	0.036
636	0.037
637	0.039
637	0.04
638	0.041
638	0.042
638	0.043
639	0.044
639	0.044
640	0.045
640	0.046
641	0.047
641	0.048
642	0.05
642	0.051
642	0.053
643	0.054
643	0.056
644	0.057
644	0.059
645	0.06
645	0.062
646	0.064
646	0.066
646	0.069
647	0.071
647	0.073
648	0.076
648	0.078
649	0.08
649	0.082
650	0.085
650	0.087
650	0.089
651	0.091
651	0.094
652	0.096
652	0.098
653	0.101
653	0.109
653	0.122
654	0.102
654	0.086
655	0.09
655	0.092
656	0.094
656	0.095
657	0.097
657	0.099
657	0.1
658	0.098
658	0.089
659	0.11
659	0.138
660	0.141
660	0.143
661	0.144
661	0.146
661	0.148
662	0.151
662	0.154
663	0.157
663	0.16
664	0.162
664	0.164
665	0.167
665	0.169
665	0.172
666	0.174
666	0.177
667	0.179
667	0.182
668	0.184
668	0.187
669	0.189
669	0.193
669	0.197
670	0.201
670	0.204
671	0.206
671	0.208
672	0.21
672	0.212
672	0.214
673	0.215
673	0.217
674	0.218
674	0.219
675	0.22
675	0.221
676	0.223
676	0.224
676	0.226
677	0.228
677	0.23
678	0.231
678	0.233
679	0.234
679	0.235
680	0.237
680	0.238
680	0.238
681	0.239
681	0.24
682	0.24
682	0.242
683	0.243
683	0.245
684	0.247
684	0.247
684	0.248
685	0.249
685	0.25
686	0.251
686	0.252
687	0.252
687	0.252
687	0.252
688	0.252
688	0.252
689	0.252
689	0.254
690	0.254
690	0.253
691	0.253
691	0.253
691	0.252
692	0.251
692	0.25
693	0.249
693	0.249
694	0.247
694	0.245
695	0.245
695	0.245
695	0.246
696	0.245
696	0.245
697	0.244
697	0.244
698	0.243
698	0.242
698	0.24
699	0.24
699	0.237
700	0.235
700	0.233
701	0.231
701	0.229
702	0.227
702	0.226
702	0.224
703	0.222
703	0.221
704	0.219
704	0.218
705	0.217
705	0.216
705	0.214
706	0.213
706	0.212
707	0.21
707	0.208
708	0.206
708	0.205
709	0.203
709	0.201
709	0.198
710	0.195
710	0.193
711	0.191
711	0.189
712	0.187
712	0.186
713	0.184
713	0.183
713	0.181
714	0.179
714	0.177
715	0.175
715	0.173
716	0.171
716	0.169
716	0.167
717	0.165
717	0.163
718	0.16
718	0.157
719	0.155
719	0.153
720	0.15
720	0.148
720	0.145
721	0.141
721	0.138
722	0.135
722	0.132
723	0.13
723	0.128
723	0.126
724	0.124
724	0.122
725	0.119
725	0.118
726	0.116
726	0.114
727	0.112
727	0.111
727	0.109
728	0.107
728	0.105
729	0.105
729	0.104
730	0.102
730	0.101
730	0.1
731	0.098
731	0.097
732	0.095
732	0.093
733	0.091
733	0.089
734	0.086
734	0.084
734	0.081
735	0.08
735	0.077
736	0.075
736	0.073
737	0.071
737	0.069
737	0.067
738	0.064
738	0.061
739	0.059
739	0.057
740	0.054
740	0.052
741	0.05
741	0.047
741	0.044
742	0.04
742	0.037
743	0.035
743	0.034
744	0.032
744	0.031
744	0.029
745	0.027
745	0.026
746	0.025
746	0.024
747	0.023
747	0.023
748	0.022
748	0.021
748	0.02
749	0.019
749	0.018
750	0.017
750	0.016
751	0.016
751	0.015
751	0.015
752	0.014
752	0.013
753	0.012
753	0.012
754	0.011
754	0.011
754	0.011
755	0.01
755	0.011
756	0.01
756	0.009
757	0.008
757	0.007
758	0.006
758	0.004
758	0.003
759	0.002
759	-0
760	-0.002
760	-0.005
761	-0.007
761	-0.008
761	-0.009
762	-0.01
762	-0.011
763	-0.012
763	-0.013
764	-0.015
764	-0.017
764	-0.019
765	-0.021
765	-0.022
766	-0.023
766	-0.024
767	-0.024
767	-0.027
768	-0.029
768	-0.031
768	-0.032
769	-0.033
769	-0.033
770	-0.035
770	-0.036
771	-0.039
771	-0.042
771	-0.044
772	-0.047
772	-0.049
773	-0.051
773	-0.053
774	-0.057
774	-0.06
775	-0.063
775	-0.066
775	-0.069
776	-0.073
776	-0.077
777	-0.081
777	-0.085
778	-0.089
778	-0.093
778	-0.097
779	-0.099
779	-0.099
780	-0.1
780	-0.103
781	-0.104
781	-0.106
781	-0.107
782	-0.109
782	-0.111
783	-0.113
783	-0.114
784	-0.115
784	-0.118
784	-0.12
785	-0.121
785	-0.123
786	-0.124
786	-0.121
787	-0.117
787	-0.113
788	-0.112
788	-0.112
788	-0.113
789	-0.114
789	-0.113
790	-0.11
790	-0.108
791	-0.108
791	-0.11
791	-0.112
792	-0.107
792	-0.097
793	-0.091
793	-0.088
794	-0.087
794	-0.089
794	-0.093
795	-0.096
795	-0.096
796	-0.096
796	-0.099
797	-0.107
797	-0.117
797	-0.123
798	-0.128
798	-0.131
799	-0.131
799	-0.131
800	-0.131
800	-0.133
801	-0.136
801	-0.138
801	-0.138
802	-0.14
802	-0.141
803	-0.142
803	-0.142
804	-0.141
804	-0.136
804	-0.13
805	-0.126
805	-0.123
806	-0.121
806	-0.119
807	-0.118
807	-0.118
807	-0.118
808	-0.118
808	-0.119
809	-0.123
809	-0.129
810	-0.132
810	-0.135
810	-0.138
811	-0.14
811	-0.14
812	-0.136
812	-0.132
813	-0.131
813	-0.131
813	-0.132
814	-0.132
814	-0.131
815	-0.129
815	-0.126
816	-0.124
816	-0.125
817	-0.129
817	-0.133
817	-0.134
818	-0.133
818	-0.13
819	-0.125
819	-0.123
820	-0.124
820	-0.127
820	-0.128
821	-0.128
821	-0.127
822	-0.127
822	-0.125
823	-0.123
823	-0.123
823	-0.125
824	-0.124
824	-0.12
825	-0.114
825	-0.107
826	-0.101
826	-0.096
826	-0.09
827	-0.085
827	-0.081
828	-0.077
828	-0.074
829	-0.071
829	-0.069
829	-0.067
830	-0.066
830	-0.065
831	-0.063
831	-0.061
832	-0.06
832	-0.058
832	-0.057
833	-0.055
833	-0.053
834	-0.052
834	-0.05
835	-0.049
835	-0.047
835	-0.046
836	-0.045
836	-0.044
837	-0.043
837	-0.042
838	-0.042
838	-0.042
839	-0.042
839	-0.041
839	-0.041
840	-0.04
840	-0.04
841	-0.039
841	-0.038
842	-0.037
842	-0.036
842	-0.035
843	-0.034
843	-0.033
844	-0.032
844	-0.031
845	-0.031
845	-0.03
845	-0.03
846	-0.03
846	-0.029
847	-0.029
847	-0.029
848	-0.029
848	-0.029
848	-0.028
849	-0.028
849	-0.028
850	-0.028
850	-0.028
851	-0.028
851	-0.028
851	-0.028
852	-0.028
852	-0.027
853	-0.027
853	-0.027
854	-0.027
854	-0.026
854	-0.026
855	-0.026
855	-0.026
856	-0.026
856	-0.025
857	-0.025
857	-0.024
857	-0.024
858	-0.023
858	-0.023
859	-0.022
859	-0.022
860	-0.021
860	-0.02
860	-0.019
861	-0.018
861	-0.017
862	-0.017
862	-0.017
863	-0.016
863	-0.016
863	-0.017
864	-0.017
864	-0.018
865	-0.019
865	-0.019
866	-0.02
866	-0.021
866	-0.021
867	-0.021
867	-0.021
868	-0.021
868	-0.021
869	-0.02
869	-0.02
869	-0.02
870	-0.019
870	-0.019
871	-0.019
871	-0.02
872	-0.02
872	-0.021
872	-0.022
873	-0.023
873	-0.023
874	-0.024
874	-0.025
875	-0.025
875	-0.026
875	-0.026
876	-0.026
876	-0.027
877	-0.027
877	-0.028
878	-0.029
878	-0.029
878	-0.03
879	-0.03
879	-0.03
880	-0.03
880	-0.03
881	-0.029
881	-0.028
881	-0.027
882	-0.026
882	-0.024
883	-0.022
883	-0.021
884	-0.019
884	-0.018
884	-0.017
885	-0.016
885	-0.015
886	-0.014
886	-0.013
887	-0.012
887	-0.012
887	-0.012
888	-0.011
888	-0.011
889	-0.01
889	-0.009
890	-0.008
890	-0.008
890	-0.007
891	-0.007
891	-0.007
892	-0.007
892	-0.007
893	-0.007
893	-0.008
893	-0.009
894	-0.009
894	-0.011
895	-0.012
895	-0.013
895	-0.014
896	-0.015
896	-0.016
897	-0.016
897	-0.016
898	-0.016
898	-0.016
898	-0.016
899	-0.016
899	-0.016
900	-0.016
900	-0.016
901	-0.016
901	-0.016
901	-0.016
902	-0.016
902	-0.017
903	-0.017
903	-0.017
904	-0.017
904	-0.018
904	-0.018
905	-0.018
905	-0.018
906	-0.018
906	-0.018
907	-0.019
907	-0.019
907	-0.019
908	-0.019
908	-0.018
909	-0.018
909	-0.017
910	-0.017
910	-0.016
910	-0.015
911	-0.015
911	-0.014
912	-0.014
912	-0.014
913	-0.014
913	-0.014
913	-0.014
914	-0.015
914	-0.015
915	-0.016
915	-0.017
916	-0.018
916	-0.019
916	-0.019
917	-0.019
917	-0.019
918	-0.019
918	-0.019
918	-0.018
919	-0.017
919	-0.016
920	-0.015
920	-0.014
921	-0.013
921	-0.013
921	-0.012
922	-0.011
922	-0.01
923	-0.009
923	-0.009
924	-0.008
924	-0.008
924	-0.007
925	-0.007
925	-0.007
926	-0.006
926	-0.006
927	-0.007
927	-0.007
927	-0.007
928	-0.008
928	-0.008
929	-0.008
929	-0.008
930	-0.009
930	-0.009
930	-0.009
931	-0.01
931	-0.01
932	-0.011
932	-0.011
933	-0.011
933	-0.012
933	-0.012
934	-0.013
934	-0.013
935	-0.014
935	-0.014
935	-0.014
936	-0.015
936	-0.014
937	-0.014
937	-0.014
938	-0.013
938	-0.013
938	-0.012
939	-0.011
939	-0.01
940	-0.009
940	-0.008
941	-0.007
941	-0.006
941	-0.005
942	-0.004
942	-0.003
943	-0.003
943	-0.002
944	-0.002
944	-0.002
944	-0.001
945	-0.001
945	-0.001
946	-0.001
946	-0.001
946	-0.001
947	-0.001
947	-0.002
948	-0.002
948	-0.002
949	-0.003
949	-0.003
949	-0.003
950	-0.004
950	-0.004
951	-0.004
951	-0.004
952	-0.004
952	-0.004
952	-0.003
953	-0.003
953	-0.003
954	-0.003
954	-0.003
955	-0.003
955	-0.002
955	-0.002
956	-0.001
956	-0.001
957	-0.001
957	-0.001
957	-0.002
958	-0.002
958	-0.003
959	-0.003
959	-0.004
960	-0.005
960	-0.006
960	-0.008
961	-0.009
961	-0.01
962	-0.011
962	-0.012
963	-0.012
963	-0.012
963	-0.012
964	-0.011
964	-0.011
965	-0.01
965	-0.009
966	-0.009
966	-0.008
966	-0.007
967	-0.006
967	-0.005
968	-0.005
968	-0.005
968	-0.005
969	-0.005
969	-0.006
970	-0.006
970	-0.006
971	-0.006
971	-0.006
971	-0.006
972	-0.006
972	-0.006
973	-0.006
973	-0.006
974	-0.006
974	-0.006
974	-0.006
975	-0.006
975	-0.007
976	-0.008
976	-0.009
976	-0.01
977	-0.011
977	-0.012
978	-0.013
978	-0.014
979	-0.015
979	-0.015
979	-0.015
980	-0.015
980	-0.015
981	-0.014
981	-0.013
982	-0.012
982	-0.011
982	-0.01
983	-0.009
983	-0.009
984	-0.008
984	-0.007
984	-0.006
985	-0.006
985	-0.006
986	-0.006
986	-0.006
987	-0.006
987	-0.007
987	-0.007
988	-0.007
988	-0.008
989	-0.009
989	-0.01
990	-0.01
990	-0.011
990	-0.011
991	-0.012
991	-0.012
992	-0.013
992	-0.014
992	-0.014
993	-0.015
993	-0.016
994	-0.017
994	-0.019
995	-0.02
995	-0.02
995	-0.021
996	-0.022
996	-0.023
997	-0.023
997	-0.023
997	-0.022
998	-0.022
998	-0.021
999	-0.019
999	-0.018
1000	-0.017
1000	-0.016
1000	-0.015
1001	-0.014
1001	-0.013
1002	-0.012
1002	-0.011
1003	-0.01
1003	-0.009
1003	-0.009
1004	-0.009
1004	-0.008
1005	-0.008
1005	-0.008
1005	-0.009
1006	-0.009
1006	-0.009
1007	-0.009
1007	-0.01
1008	-0.01
1008	-0.01
1008	-0.01
1009	-0.01
1009	-0.01
1010	-0.009
1010	-0.009
1010	-0.009
1011	-0.009
1011	-0.009
1012	-0.009
1012	-0.01
1013	-0.01
1013	-0.011
1013	-0.012
1014	-0.012
1014	-0.014
1015	-0.014
1015	-0.015
1016	-0.016
1016	-0.017
1016	-0.018
1017	-0.018
1017	-0.019
1018	-0.019
1018	-0.02
1018	-0.019
1019	-0.019
1019	-0.019
1020	-0.019
1020	-0.019
1021	-0.019
1021	-0.019
1021	-0.019
1022	-0.018
1022	-0.018
1023	-0.018
1023	-0.018
1023	-0.019
1024	-0.019
1024	-0.02
1025	-0.02
1025	-0.021
1026	-0.021
1026	-0.022
1026	-0.022
1027	-0.022
1027	-0.022
1028	-0.021
1028	-0.02
1028	-0.019
1029	-0.018
1029	-0.017
1030	-0.016
1030	-0.015
1031	-0.013
1031	-0.012
1031	-0.011
1032	-0.01
1032	-0.009
1033	-0.008
1033	-0.008
1033	-0.008
1034	-0.009
1034	-0.01
1035	-0.01
1035	-0.011
1036	-0.012
1036	-0.013
1036	-0.014
1037	-0.015
1037	-0.016
1038	-0.017
1038	-0.018
1039	-0.018
1039	-0.018
1039	-0.018
1040	-0.018
1040	-0.018
1041	-0.018
1041	-0.019
1041	-0.019
1042	-0.019
1042	-0.019
1043	-0.019
1043	-0.02
1044	-0.02
1044	-0.02
1044	-0.02
1045	-0.02
1045	-0.02
1046	-0.02
1046	-0.019
1046	-0.019
1047	-0.018
1047	-0.016
1048	-0.015
1048	-0.014
1049	-0.014
1049	-0.014
1049	-0.014
1050	-0.013
1050	-0.013
1051	-0.012
1051	-0.012
1051	-0.011
1052	-0.011
1052	-0.01
1053	-0.01
1053	-0.009
1053	-0.008
1054	-0.007
1054	-0.006
1055	-0.005
1055	-0.004
1056	-0.004
1056	-0.004
1056	-0.005
1057	-0.005
1057	-0.005
1058	-0.005
1058	-0.005
1058	-0.005
1059	-0.005
1059	-0.005
1060	-0.005
1060	-0.004
1061	-0.004
1061	-0.003
1061	-0.002
1062	-0.002
1062	-0.001
1063	-0.001
1063	-0.001
1063	-0
1064	0
1064	0.001
1065	0.002
1065	0.002
1066	0.003
1066	0.004
1066	0.005
1067	0.006
1067	0.007
1068	0.008
1068	0.009
1068	0.009
1069	0.01
1069	0.01
1070	0.011
1070	0.012
1071	0.013
1071	0.014
1071	0.015
1072	0.016
1072	0.018
1073	0.02
1073	0.021
1073	0.023
1074	0.024
1074	0.026
1075	0.026
1075	0.027
1076	0.028
1076	0.029
1076	0.03
1077	0.031
1077	0.032
1078	0.033
1078	0.034
1078	0.035
1079	0.037
1079	0.039
1080	0.04
1080	0.042
1080	0.043
1081	0.044
1081	0.046
1082	0.048
1082	0.049
1083	0.05
1083	0.052
1083	0.055
1084	0.057
1084	0.06
1085	0.063
1085	0.066
1085	0.069
1086	0.071
1086	0.073
1087	0.076
1087	0.079
1088	0.082
1088	0.084
1088	0.087
1089	0.09
1089	0.094
1090	0.097
1090	0.102
1090	0.106
1091	0.112
1091	0.118
1092	0.124
1092	0.131
1092	0.137
1093	0.145
1093	0.154
1094	0.163
1094	0.173
1095	0.182
1095	0.192
1095	0.205
1096	0.219
1096	0.233
1097	0.251
1097	0.266
1097	0.285
1098	0.304
1098	0.326
1099	0.349
1099	0.376
1100	0.405
1100	0.438
1100	0.473
1101	0.514
1101	0.563
1102	0.628
1102	0.71
1102	0.815
1103	0.956
1103	1.186
1104	1.828
1104	-0
1104	-0
1105	-0
1105	-0
1106	-0
1106	-0
1107	-0
1107	-0
1107	-0
1108	-0
1108	-0
1109	-0
1109	-0
1109	-0
1110	-0
1110	-0
1111	-0
1111	-0
