Data from 15c-100ul-ns-20ul-nr-full-exp-7ul-bp_Absorbance__224__03396.txt Node

Date: Mon Jan 15 11:22:38 CET 2024
User: Marek
Spectrometer: MAYP115816
Trigger mode: 0
Integration Time (sec): 2.000000E-1
Scans to average: 10
Electric dark correction enabled: true
Nonlinearity correction enabled: true
Boxcar width: 5
XAxis mode: Wavelengths
Number of Pixels in Spectrum: 2068
>>>>>Begin Spectral Data<<<<<
199	-2.037
199	-1.906
200	-1.761
200	-1.65
201	-1.576
201	-1.525
202	-1.453
202	-1.396
203	-1.346
203	-1.305
204	-1.275
204	-1.253
205	-1.231
205	-1.222
205	-1.22
206	-1.218
206	-1.216
207	-1.212
207	-1.209
208	-1.207
208	-1.201
209	-1.2
209	-1.198
210	-1.198
210	-1.196
211	-1.194
211	-1.192
212	-1.189
212	-1.189
213	-1.188
213	-1.187
213	-1.187
214	-1.186
214	-1.187
215	-1.186
215	-1.186
216	-1.186
216	-1.185
217	-1.184
217	-1.183
218	-1.182
218	-1.178
219	-1.177
219	-1.175
220	-1.17
220	-1.166
221	-1.162
221	-1.157
221	-1.151
222	-1.147
222	-1.141
223	-1.134
223	-1.13
224	-1.124
224	-1.117
225	-1.108
225	-1.096
226	-1.086
226	-1.075
227	-1.06
227	-1.043
228	-1.024
228	-1.003
229	-0.978
229	-0.949
229	-0.92
230	-0.888
230	-0.853
231	-0.814
231	-0.775
232	-0.734
232	-0.689
233	-0.644
233	-0.597
234	-0.55
234	-0.504
235	-0.457
235	-0.411
236	-0.366
236	-0.322
236	-0.279
237	-0.238
237	-0.2
238	-0.163
238	-0.128
239	-0.095
239	-0.065
240	-0.037
240	-0.011
241	0.013
241	0.035
242	0.056
242	0.075
243	0.093
243	0.108
243	0.123
244	0.137
244	0.149
245	0.161
245	0.171
246	0.181
246	0.19
247	0.198
247	0.206
248	0.213
248	0.22
249	0.226
249	0.231
250	0.237
250	0.242
250	0.247
251	0.252
251	0.256
252	0.26
252	0.264
253	0.267
253	0.27
254	0.273
254	0.276
255	0.278
255	0.281
256	0.283
256	0.285
257	0.286
257	0.288
258	0.289
258	0.291
258	0.292
259	0.293
259	0.293
260	0.294
260	0.294
261	0.295
261	0.295
262	0.295
262	0.295
263	0.295
263	0.295
264	0.295
264	0.294
265	0.294
265	0.293
265	0.293
266	0.292
266	0.292
267	0.291
267	0.29
268	0.289
268	0.288
269	0.287
269	0.286
270	0.285
270	0.284
271	0.282
271	0.281
272	0.28
272	0.279
272	0.277
273	0.276
273	0.275
274	0.274
274	0.272
275	0.271
275	0.269
276	0.267
276	0.266
277	0.264
277	0.262
278	0.26
278	0.259
278	0.257
279	0.255
279	0.253
280	0.252
280	0.251
281	0.25
281	0.248
282	0.247
282	0.246
283	0.245
283	0.244
284	0.242
284	0.241
285	0.24
285	0.239
285	0.238
286	0.236
286	0.235
287	0.234
287	0.233
288	0.232
288	0.231
289	0.23
289	0.228
290	0.228
290	0.226
291	0.225
291	0.224
292	0.223
292	0.222
292	0.221
293	0.221
293	0.22
294	0.219
294	0.218
295	0.217
295	0.216
296	0.215
296	0.214
297	0.213
297	0.212
298	0.212
298	0.211
298	0.21
299	0.209
299	0.209
300	0.208
300	0.207
301	0.207
301	0.206
302	0.205
302	0.205
303	0.204
303	0.203
304	0.203
304	0.202
305	0.202
305	0.201
305	0.2
306	0.199
306	0.199
307	0.198
307	0.197
308	0.196
308	0.195
309	0.195
309	0.194
310	0.193
310	0.192
311	0.192
311	0.191
311	0.19
312	0.19
312	0.189
313	0.188
313	0.187
314	0.187
314	0.186
315	0.185
315	0.184
316	0.184
316	0.183
317	0.182
317	0.181
318	0.18
318	0.18
318	0.179
319	0.178
319	0.177
320	0.177
320	0.176
321	0.175
321	0.174
322	0.173
322	0.173
323	0.172
323	0.171
324	0.17
324	0.17
324	0.169
325	0.168
325	0.167
326	0.167
326	0.166
327	0.165
327	0.165
328	0.164
328	0.163
329	0.163
329	0.162
330	0.161
330	0.16
330	0.16
331	0.159
331	0.158
332	0.158
332	0.157
333	0.156
333	0.155
334	0.154
334	0.154
335	0.153
335	0.152
336	0.152
336	0.151
336	0.15
337	0.149
337	0.149
338	0.148
338	0.148
339	0.147
339	0.147
340	0.146
340	0.146
341	0.145
341	0.144
342	0.144
342	0.143
342	0.142
343	0.142
343	0.141
344	0.141
344	0.14
345	0.139
345	0.139
346	0.138
346	0.138
347	0.137
347	0.137
348	0.136
348	0.136
348	0.135
349	0.134
349	0.134
350	0.133
350	0.133
351	0.132
351	0.131
352	0.131
352	0.13
353	0.129
353	0.128
354	0.127
354	0.127
354	0.126
355	0.125
355	0.124
356	0.124
356	0.124
357	0.123
357	0.123
358	0.123
358	0.123
359	0.124
359	0.124
360	0.125
360	0.125
360	0.125
361	0.125
361	0.125
362	0.125
362	0.125
363	0.125
363	0.125
364	0.124
364	0.124
365	0.124
365	0.123
366	0.123
366	0.123
366	0.123
367	0.122
367	0.122
368	0.122
368	0.121
369	0.121
369	0.12
370	0.12
370	0.12
371	0.119
371	0.119
372	0.118
372	0.118
372	0.118
373	0.117
373	0.118
374	0.118
374	0.118
375	0.117
375	0.117
376	0.117
376	0.117
377	0.117
377	0.117
378	0.117
378	0.117
378	0.117
379	0.117
379	0.117
380	0.118
380	0.118
381	0.118
381	0.117
382	0.117
382	0.117
383	0.116
383	0.116
383	0.116
384	0.115
384	0.115
385	0.115
385	0.114
386	0.114
386	0.114
387	0.114
387	0.114
388	0.113
388	0.113
389	0.113
389	0.113
389	0.113
390	0.113
390	0.113
391	0.113
391	0.114
392	0.114
392	0.114
393	0.114
393	0.114
394	0.113
394	0.113
394	0.113
395	0.112
395	0.112
396	0.111
396	0.111
397	0.111
397	0.111
398	0.112
398	0.112
399	0.112
399	0.112
400	0.111
400	0.111
400	0.111
401	0.11
401	0.109
402	0.108
402	0.108
403	0.108
403	0.108
404	0.107
404	0.107
405	0.107
405	0.106
405	0.106
406	0.106
406	0.106
407	0.106
407	0.105
408	0.105
408	0.104
409	0.104
409	0.104
410	0.103
410	0.103
411	0.103
411	0.103
411	0.102
412	0.102
412	0.102
413	0.101
413	0.101
414	0.1
414	0.1
415	0.1
415	0.099
416	0.099
416	0.098
416	0.098
417	0.098
417	0.097
418	0.097
418	0.097
419	0.098
419	0.098
420	0.099
420	0.099
421	0.1
421	0.1
421	0.1
422	0.101
422	0.101
423	0.101
423	0.101
424	0.1
424	0.099
425	0.098
425	0.098
426	0.097
426	0.097
427	0.096
427	0.096
427	0.097
428	0.097
428	0.097
429	0.098
429	0.098
430	0.098
430	0.098
431	0.098
431	0.098
432	0.097
432	0.097
432	0.096
433	0.095
433	0.094
434	0.093
434	0.093
435	0.092
435	0.093
436	0.093
436	0.092
437	0.092
437	0.092
437	0.092
438	0.092
438	0.092
439	0.092
439	0.091
440	0.091
440	0.091
441	0.091
441	0.091
442	0.091
442	0.092
442	0.092
443	0.092
443	0.093
444	0.093
444	0.093
445	0.093
445	0.093
446	0.093
446	0.093
447	0.093
447	0.092
447	0.092
448	0.092
448	0.092
449	0.091
449	0.091
450	0.091
450	0.09
451	0.09
451	0.089
452	0.089
452	0.089
452	0.088
453	0.088
453	0.087
454	0.086
454	0.086
455	0.086
455	0.086
456	0.086
456	0.085
457	0.085
457	0.085
458	0.086
458	0.086
458	0.086
459	0.086
459	0.086
460	0.085
460	0.085
461	0.084
461	0.084
462	0.084
462	0.084
463	0.084
463	0.084
463	0.085
464	0.085
464	0.085
465	0.085
465	0.085
466	0.085
466	0.085
467	0.085
467	0.085
467	0.084
468	0.082
468	0.081
469	0.079
469	0.078
470	0.078
470	0.078
471	0.077
471	0.077
472	0.077
472	0.077
472	0.078
473	0.079
473	0.08
474	0.081
474	0.082
475	0.083
475	0.083
476	0.084
476	0.083
477	0.084
477	0.084
477	0.084
478	0.084
478	0.084
479	0.084
479	0.085
480	0.085
480	0.086
481	0.087
481	0.088
482	0.089
482	0.09
482	0.091
483	0.093
483	0.095
484	0.098
484	0.099
485	0.101
485	0.102
486	0.103
486	0.104
487	0.104
487	0.105
487	0.105
488	0.104
488	0.103
489	0.102
489	0.101
490	0.1
490	0.1
491	0.099
491	0.1
492	0.1
492	0.101
492	0.102
493	0.103
493	0.104
494	0.105
494	0.108
495	0.11
495	0.111
496	0.112
496	0.113
496	0.114
497	0.115
497	0.117
498	0.117
498	0.118
499	0.118
499	0.118
500	0.119
500	0.12
501	0.122
501	0.123
501	0.124
502	0.125
502	0.126
503	0.128
503	0.129
504	0.13
504	0.131
505	0.131
505	0.132
506	0.132
506	0.133
506	0.134
507	0.134
507	0.134
508	0.135
508	0.136
509	0.136
509	0.137
510	0.138
510	0.139
511	0.139
511	0.139
511	0.139
512	0.14
512	0.14
513	0.14
513	0.139
514	0.139
514	0.139
515	0.139
515	0.138
515	0.137
516	0.136
516	0.136
517	0.136
517	0.137
518	0.138
518	0.138
519	0.137
519	0.136
520	0.135
520	0.134
520	0.133
521	0.131
521	0.129
522	0.126
522	0.123
523	0.121
523	0.119
524	0.119
524	0.119
524	0.12
525	0.121
525	0.123
526	0.126
526	0.129
527	0.132
527	0.135
528	0.137
528	0.14
529	0.141
529	0.142
529	0.143
530	0.144
530	0.144
531	0.144
531	0.144
532	0.144
532	0.144
533	0.144
533	0.143
533	0.143
534	0.142
534	0.141
535	0.14
535	0.14
536	0.14
536	0.139
537	0.139
537	0.138
538	0.137
538	0.136
538	0.135
539	0.135
539	0.134
540	0.133
540	0.131
541	0.129
541	0.128
542	0.126
542	0.125
542	0.123
543	0.122
543	0.121
544	0.119
544	0.118
545	0.117
545	0.117
546	0.117
546	0.116
547	0.114
547	0.112
547	0.111
548	0.109
548	0.107
549	0.105
549	0.104
550	0.102
550	0.1
551	0.098
551	0.095
551	0.094
552	0.092
552	0.091
553	0.09
553	0.09
554	0.089
554	0.088
555	0.086
555	0.084
556	0.082
556	0.079
556	0.077
557	0.074
557	0.072
558	0.07
558	0.068
559	0.067
559	0.066
560	0.065
560	0.064
560	0.063
561	0.063
561	0.063
562	0.063
562	0.062
563	0.06
563	0.059
564	0.057
564	0.054
564	0.052
565	0.051
565	0.05
566	0.048
566	0.047
567	0.047
567	0.047
568	0.048
568	0.049
568	0.05
569	0.052
569	0.053
570	0.054
570	0.053
571	0.054
571	0.055
572	0.054
572	0.054
573	0.054
573	0.053
573	0.052
574	0.051
574	0.051
575	0.051
575	0.052
576	0.052
576	0.051
577	0.05
577	0.049
577	0.048
578	0.047
578	0.047
579	0.048
579	0.049
580	0.047
580	0.045
581	0.042
581	0.041
581	0.04
582	0.04
582	0.04
583	0.041
583	0.04
584	0.037
584	0.034
585	0.033
585	0.032
585	0.032
586	0.032
586	0.032
587	0.03
587	0.028
588	0.026
588	0.024
589	0.024
589	0.023
590	0.022
590	0.022
590	0.022
591	0.023
591	0.023
592	0.022
592	0.021
593	0.021
593	0.021
594	0.02
594	0.019
594	0.018
595	0.018
595	0.017
596	0.016
596	0.017
597	0.019
597	0.021
598	0.022
598	0.023
598	0.024
599	0.025
599	0.024
600	0.023
600	0.022
601	0.021
601	0.02
602	0.018
602	0.017
602	0.015
603	0.014
603	0.014
604	0.015
604	0.015
605	0.017
605	0.018
606	0.019
606	0.018
606	0.018
607	0.017
607	0.017
608	0.017
608	0.015
609	0.014
609	0.014
610	0.013
610	0.012
610	0.012
611	0.013
611	0.013
612	0.014
612	0.016
613	0.017
613	0.019
614	0.019
614	0.018
614	0.018
615	0.017
615	0.017
616	0.016
616	0.015
617	0.015
617	0.014
618	0.012
618	0.012
618	0.011
619	0.011
619	0.012
620	0.014
620	0.015
621	0.016
621	0.017
622	0.017
622	0.018
622	0.018
623	0.018
623	0.019
624	0.02
624	0.019
625	0.019
625	0.019
626	0.019
626	0.019
626	0.02
627	0.021
627	0.021
628	0.022
628	0.023
629	0.024
629	0.024
630	0.024
630	0.024
630	0.024
631	0.025
631	0.026
632	0.025
632	0.025
633	0.026
633	0.027
634	0.028
634	0.03
634	0.032
635	0.033
635	0.034
636	0.036
636	0.037
637	0.038
637	0.039
638	0.04
638	0.042
638	0.043
639	0.043
639	0.043
640	0.044
640	0.045
641	0.046
641	0.047
642	0.049
642	0.051
642	0.052
643	0.053
643	0.055
644	0.056
644	0.058
645	0.059
645	0.061
646	0.063
646	0.065
646	0.067
647	0.07
647	0.072
648	0.074
648	0.076
649	0.079
649	0.081
650	0.084
650	0.086
650	0.088
651	0.09
651	0.093
652	0.095
652	0.097
653	0.1
653	0.108
653	0.121
654	0.101
654	0.086
655	0.089
655	0.091
656	0.093
656	0.095
657	0.097
657	0.098
657	0.099
658	0.097
658	0.089
659	0.109
659	0.136
660	0.14
660	0.141
661	0.143
661	0.145
661	0.147
662	0.15
662	0.153
663	0.156
663	0.158
664	0.161
664	0.163
665	0.165
665	0.168
665	0.17
666	0.172
666	0.175
667	0.177
667	0.18
668	0.182
668	0.185
669	0.188
669	0.191
669	0.195
670	0.199
670	0.202
671	0.205
671	0.207
672	0.209
672	0.211
672	0.212
673	0.214
673	0.216
674	0.217
674	0.217
675	0.218
675	0.219
676	0.221
676	0.223
676	0.224
677	0.226
677	0.228
678	0.229
678	0.231
679	0.232
679	0.233
680	0.235
680	0.236
680	0.236
681	0.237
681	0.238
682	0.238
682	0.24
683	0.241
683	0.243
684	0.245
684	0.246
684	0.246
685	0.247
685	0.248
686	0.25
686	0.25
687	0.251
687	0.251
687	0.251
688	0.25
688	0.25
689	0.251
689	0.252
690	0.252
690	0.252
691	0.251
691	0.251
691	0.25
692	0.249
692	0.248
693	0.247
693	0.247
694	0.245
694	0.243
695	0.243
695	0.244
695	0.244
696	0.243
696	0.243
697	0.243
697	0.242
698	0.241
698	0.24
698	0.239
699	0.238
699	0.236
700	0.233
700	0.231
701	0.23
701	0.228
702	0.226
702	0.224
702	0.222
703	0.221
703	0.219
704	0.217
704	0.216
705	0.215
705	0.214
705	0.213
706	0.212
706	0.21
707	0.209
707	0.207
708	0.205
708	0.204
709	0.202
709	0.199
709	0.197
710	0.194
710	0.192
711	0.19
711	0.188
712	0.186
712	0.184
713	0.183
713	0.181
713	0.18
714	0.178
714	0.176
715	0.174
715	0.172
716	0.17
716	0.168
716	0.166
717	0.164
717	0.162
718	0.159
718	0.156
719	0.154
719	0.152
720	0.149
720	0.147
720	0.144
721	0.14
721	0.137
722	0.134
722	0.131
723	0.129
723	0.127
723	0.125
724	0.123
724	0.121
725	0.118
725	0.117
726	0.115
726	0.113
727	0.111
727	0.11
727	0.108
728	0.106
728	0.105
729	0.104
729	0.103
730	0.102
730	0.1
730	0.099
731	0.097
731	0.096
732	0.094
732	0.093
733	0.09
733	0.088
734	0.086
734	0.083
734	0.081
735	0.079
735	0.077
736	0.074
736	0.072
737	0.07
737	0.069
737	0.067
738	0.064
738	0.061
739	0.058
739	0.056
740	0.053
740	0.051
741	0.049
741	0.046
741	0.043
742	0.039
742	0.037
743	0.035
743	0.033
744	0.032
744	0.03
744	0.029
745	0.027
745	0.025
746	0.024
746	0.023
747	0.023
747	0.022
748	0.022
748	0.021
748	0.02
749	0.019
749	0.018
750	0.017
750	0.016
751	0.016
751	0.015
751	0.015
752	0.014
752	0.013
753	0.012
753	0.012
754	0.011
754	0.011
754	0.011
755	0.011
755	0.011
756	0.01
756	0.009
757	0.008
757	0.007
758	0.006
758	0.004
758	0.003
759	0.002
759	-0.001
760	-0.003
760	-0.006
761	-0.007
761	-0.008
761	-0.009
762	-0.011
762	-0.011
763	-0.012
763	-0.014
764	-0.016
764	-0.018
764	-0.02
765	-0.021
765	-0.023
766	-0.024
766	-0.024
767	-0.025
767	-0.027
768	-0.029
768	-0.031
768	-0.032
769	-0.033
769	-0.034
770	-0.035
770	-0.037
771	-0.039
771	-0.042
771	-0.045
772	-0.047
772	-0.049
773	-0.051
773	-0.054
774	-0.057
774	-0.06
775	-0.063
775	-0.066
775	-0.069
776	-0.073
776	-0.076
777	-0.08
777	-0.084
778	-0.088
778	-0.092
778	-0.096
779	-0.099
779	-0.098
780	-0.099
780	-0.102
781	-0.104
781	-0.106
781	-0.107
782	-0.108
782	-0.111
783	-0.113
783	-0.114
784	-0.115
784	-0.118
784	-0.12
785	-0.122
785	-0.123
786	-0.124
786	-0.122
787	-0.117
787	-0.113
788	-0.112
788	-0.112
788	-0.113
789	-0.114
789	-0.113
790	-0.11
790	-0.108
791	-0.108
791	-0.11
791	-0.112
792	-0.107
792	-0.097
793	-0.092
793	-0.088
794	-0.087
794	-0.089
794	-0.093
795	-0.096
795	-0.096
796	-0.096
796	-0.099
797	-0.107
797	-0.117
797	-0.123
798	-0.128
798	-0.131
799	-0.131
799	-0.131
800	-0.131
800	-0.133
801	-0.136
801	-0.138
801	-0.138
802	-0.14
802	-0.141
803	-0.142
803	-0.142
804	-0.141
804	-0.136
804	-0.13
805	-0.126
805	-0.123
806	-0.121
806	-0.12
807	-0.118
807	-0.118
807	-0.118
808	-0.118
808	-0.119
809	-0.123
809	-0.129
810	-0.132
810	-0.135
810	-0.138
811	-0.14
811	-0.14
812	-0.136
812	-0.132
813	-0.131
813	-0.131
813	-0.132
814	-0.132
814	-0.131
815	-0.129
815	-0.126
816	-0.124
816	-0.125
817	-0.13
817	-0.133
817	-0.134
818	-0.133
818	-0.13
819	-0.126
819	-0.123
820	-0.124
820	-0.127
820	-0.128
821	-0.128
821	-0.127
822	-0.127
822	-0.125
823	-0.123
823	-0.124
823	-0.125
824	-0.125
824	-0.12
825	-0.115
825	-0.108
826	-0.102
826	-0.097
826	-0.091
827	-0.087
827	-0.082
828	-0.078
828	-0.075
829	-0.072
829	-0.07
829	-0.068
830	-0.067
830	-0.065
831	-0.063
831	-0.061
832	-0.06
832	-0.059
832	-0.057
833	-0.055
833	-0.054
834	-0.052
834	-0.05
835	-0.049
835	-0.048
835	-0.046
836	-0.045
836	-0.044
837	-0.043
837	-0.042
838	-0.042
838	-0.042
839	-0.042
839	-0.042
839	-0.041
840	-0.041
840	-0.04
841	-0.039
841	-0.039
842	-0.037
842	-0.036
842	-0.035
843	-0.034
843	-0.033
844	-0.032
844	-0.031
845	-0.031
845	-0.03
845	-0.03
846	-0.029
846	-0.029
847	-0.029
847	-0.029
848	-0.029
848	-0.029
848	-0.028
849	-0.028
849	-0.028
850	-0.028
850	-0.028
851	-0.028
851	-0.028
851	-0.028
852	-0.028
852	-0.027
853	-0.027
853	-0.027
854	-0.027
854	-0.026
854	-0.026
855	-0.026
855	-0.026
856	-0.026
856	-0.025
857	-0.025
857	-0.024
857	-0.024
858	-0.024
858	-0.023
859	-0.023
859	-0.022
860	-0.021
860	-0.02
860	-0.019
861	-0.019
861	-0.018
862	-0.018
862	-0.017
863	-0.017
863	-0.017
863	-0.017
864	-0.018
864	-0.019
865	-0.019
865	-0.02
866	-0.021
866	-0.021
866	-0.021
867	-0.022
867	-0.022
868	-0.021
868	-0.021
869	-0.02
869	-0.02
869	-0.019
870	-0.019
870	-0.019
871	-0.019
871	-0.02
872	-0.02
872	-0.021
872	-0.022
873	-0.022
873	-0.023
874	-0.024
874	-0.025
875	-0.025
875	-0.026
875	-0.026
876	-0.027
876	-0.027
877	-0.028
877	-0.028
878	-0.029
878	-0.029
878	-0.03
879	-0.03
879	-0.03
880	-0.03
880	-0.03
881	-0.029
881	-0.028
881	-0.027
882	-0.026
882	-0.024
883	-0.022
883	-0.021
884	-0.019
884	-0.018
884	-0.017
885	-0.016
885	-0.015
886	-0.014
886	-0.013
887	-0.012
887	-0.012
887	-0.011
888	-0.011
888	-0.011
889	-0.01
889	-0.009
890	-0.008
890	-0.008
890	-0.008
891	-0.007
891	-0.007
892	-0.007
892	-0.007
893	-0.008
893	-0.008
893	-0.009
894	-0.01
894	-0.011
895	-0.012
895	-0.013
895	-0.015
896	-0.016
896	-0.016
897	-0.016
897	-0.016
898	-0.016
898	-0.016
898	-0.016
899	-0.016
899	-0.016
900	-0.016
900	-0.016
901	-0.016
901	-0.016
901	-0.016
902	-0.016
902	-0.017
903	-0.017
903	-0.017
904	-0.017
904	-0.017
904	-0.018
905	-0.018
905	-0.018
906	-0.018
906	-0.018
907	-0.019
907	-0.019
907	-0.019
908	-0.019
908	-0.019
909	-0.018
909	-0.017
910	-0.017
910	-0.016
910	-0.015
911	-0.015
911	-0.014
912	-0.014
912	-0.014
913	-0.014
913	-0.014
913	-0.014
914	-0.015
914	-0.016
915	-0.016
915	-0.017
916	-0.018
916	-0.019
916	-0.019
917	-0.019
917	-0.02
918	-0.019
918	-0.019
918	-0.018
919	-0.018
919	-0.017
920	-0.016
920	-0.015
921	-0.014
921	-0.013
921	-0.012
922	-0.011
922	-0.01
923	-0.01
923	-0.009
924	-0.008
924	-0.008
924	-0.007
925	-0.007
925	-0.007
926	-0.007
926	-0.007
927	-0.007
927	-0.007
927	-0.008
928	-0.008
928	-0.008
929	-0.008
929	-0.009
930	-0.009
930	-0.009
930	-0.01
931	-0.01
931	-0.011
932	-0.011
932	-0.012
933	-0.012
933	-0.012
933	-0.013
934	-0.013
934	-0.014
935	-0.014
935	-0.014
935	-0.015
936	-0.015
936	-0.015
937	-0.014
937	-0.014
938	-0.013
938	-0.013
938	-0.012
939	-0.012
939	-0.011
940	-0.009
940	-0.008
941	-0.007
941	-0.006
941	-0.005
942	-0.004
942	-0.004
943	-0.003
943	-0.003
944	-0.002
944	-0.002
944	-0.001
945	-0.001
945	-0.001
946	-0.001
946	-0.001
946	-0.001
947	-0.001
947	-0.002
948	-0.002
948	-0.002
949	-0.003
949	-0.003
949	-0.004
950	-0.004
950	-0.004
951	-0.004
951	-0.004
952	-0.004
952	-0.004
952	-0.004
953	-0.003
953	-0.003
954	-0.003
954	-0.003
955	-0.003
955	-0.002
955	-0.002
956	-0.001
956	-0.001
957	-0.001
957	-0.001
957	-0.002
958	-0.002
958	-0.003
959	-0.003
959	-0.004
960	-0.005
960	-0.006
960	-0.007
961	-0.009
961	-0.01
962	-0.011
962	-0.011
963	-0.012
963	-0.012
963	-0.012
964	-0.011
964	-0.011
965	-0.01
965	-0.01
966	-0.009
966	-0.008
966	-0.007
967	-0.006
967	-0.006
968	-0.006
968	-0.005
968	-0.005
969	-0.005
969	-0.006
970	-0.006
970	-0.006
971	-0.006
971	-0.006
971	-0.006
972	-0.006
972	-0.006
973	-0.006
973	-0.006
974	-0.006
974	-0.006
974	-0.006
975	-0.006
975	-0.007
976	-0.008
976	-0.008
976	-0.01
977	-0.011
977	-0.012
978	-0.013
978	-0.014
979	-0.015
979	-0.015
979	-0.015
980	-0.016
980	-0.015
981	-0.015
981	-0.014
982	-0.013
982	-0.012
982	-0.011
983	-0.01
983	-0.009
984	-0.008
984	-0.007
984	-0.007
985	-0.006
985	-0.006
986	-0.006
986	-0.006
987	-0.007
987	-0.007
987	-0.007
988	-0.007
988	-0.008
989	-0.009
989	-0.009
990	-0.01
990	-0.011
990	-0.011
991	-0.011
991	-0.012
992	-0.013
992	-0.013
992	-0.014
993	-0.015
993	-0.016
994	-0.017
994	-0.018
995	-0.019
995	-0.02
995	-0.021
996	-0.022
996	-0.022
997	-0.023
997	-0.023
997	-0.022
998	-0.021
998	-0.02
999	-0.019
999	-0.018
1000	-0.017
1000	-0.016
1000	-0.014
1001	-0.013
1001	-0.012
1002	-0.011
1002	-0.01
1003	-0.01
1003	-0.009
1003	-0.009
1004	-0.009
1004	-0.009
1005	-0.009
1005	-0.009
1005	-0.009
1006	-0.009
1006	-0.009
1007	-0.009
1007	-0.01
1008	-0.01
1008	-0.01
1008	-0.01
1009	-0.01
1009	-0.009
1010	-0.009
1010	-0.009
1010	-0.009
1011	-0.009
1011	-0.009
1012	-0.009
1012	-0.01
1013	-0.01
1013	-0.011
1013	-0.012
1014	-0.013
1014	-0.014
1015	-0.015
1015	-0.015
1016	-0.016
1016	-0.017
1016	-0.018
1017	-0.018
1017	-0.019
1018	-0.019
1018	-0.019
1018	-0.019
1019	-0.019
1019	-0.019
1020	-0.019
1020	-0.019
1021	-0.019
1021	-0.019
1021	-0.019
1022	-0.018
1022	-0.018
1023	-0.018
1023	-0.018
1023	-0.019
1024	-0.019
1024	-0.02
1025	-0.02
1025	-0.021
1026	-0.021
1026	-0.021
1026	-0.022
1027	-0.022
1027	-0.022
1028	-0.021
1028	-0.02
1028	-0.019
1029	-0.018
1029	-0.017
1030	-0.016
1030	-0.015
1031	-0.014
1031	-0.012
1031	-0.011
1032	-0.01
1032	-0.009
1033	-0.008
1033	-0.008
1033	-0.009
1034	-0.009
1034	-0.01
1035	-0.011
1035	-0.012
1036	-0.013
1036	-0.014
1036	-0.015
1037	-0.016
1037	-0.017
1038	-0.018
1038	-0.018
1039	-0.018
1039	-0.018
1039	-0.018
1040	-0.018
1040	-0.018
1041	-0.018
1041	-0.018
1041	-0.018
1042	-0.019
1042	-0.019
1043	-0.02
1043	-0.02
1044	-0.02
1044	-0.02
1044	-0.02
1045	-0.02
1045	-0.02
1046	-0.02
1046	-0.02
1046	-0.019
1047	-0.018
1047	-0.017
1048	-0.016
1048	-0.015
1049	-0.014
1049	-0.014
1049	-0.014
1050	-0.013
1050	-0.013
1051	-0.013
1051	-0.012
1051	-0.012
1052	-0.011
1052	-0.01
1053	-0.01
1053	-0.009
1053	-0.008
1054	-0.007
1054	-0.006
1055	-0.004
1055	-0.004
1056	-0.004
1056	-0.004
1056	-0.004
1057	-0.004
1057	-0.004
1058	-0.004
1058	-0.005
1058	-0.004
1059	-0.005
1059	-0.005
1060	-0.005
1060	-0.004
1061	-0.003
1061	-0.002
1061	-0.002
1062	-0.001
1062	-0.001
1063	-0.001
1063	-0.001
1063	-0.001
1064	0
1064	0.001
1065	0.002
1065	0.002
1066	0.003
1066	0.003
1066	0.004
1067	0.005
1067	0.006
1068	0.007
1068	0.008
1068	0.009
1069	0.009
1069	0.01
1070	0.011
1070	0.012
1071	0.013
1071	0.014
1071	0.015
1072	0.016
1072	0.017
1073	0.019
1073	0.021
1073	0.022
1074	0.024
1074	0.025
1075	0.026
1075	0.026
1076	0.027
1076	0.029
1076	0.03
1077	0.03
1077	0.032
1078	0.032
1078	0.033
1078	0.035
1079	0.036
1079	0.038
1080	0.039
1080	0.041
1080	0.041
1081	0.043
1081	0.045
1082	0.047
1082	0.048
1083	0.05
1083	0.052
1083	0.054
1084	0.056
1084	0.059
1085	0.061
1085	0.064
1085	0.067
1086	0.069
1086	0.07
1087	0.073
1087	0.077
1088	0.079
1088	0.082
1088	0.085
1089	0.087
1089	0.091
1090	0.094
1090	0.099
1090	0.103
1091	0.109
1091	0.115
1092	0.12
1092	0.128
1092	0.134
1093	0.141
1093	0.15
1094	0.159
1094	0.168
1095	0.178
1095	0.189
1095	0.202
1096	0.215
1096	0.229
1097	0.246
1097	0.262
1097	0.28
1098	0.299
1098	0.32
1099	0.343
1099	0.368
1100	0.397
1100	0.429
1100	0.465
1101	0.506
1101	0.552
1102	0.615
1102	0.689
1102	0.787
1103	0.919
1103	1.131
1104	1.619
1104	-0
1104	-0
1105	-0
1105	-0
1106	-0
1106	-0
1107	-0
1107	-0
1107	-0
1108	-0
1108	-0
1109	-0
1109	-0
1109	-0
1110	-0
1110	-0
1111	-0
1111	-0
