Data from 15c-100ul-ns-20ul-nr-full-exp-7ul-bp_Absorbance__173__03345.txt Node

Date: Mon Jan 15 11:20:56 CET 2024
User: Marek
Spectrometer: MAYP115816
Trigger mode: 0
Integration Time (sec): 2.000000E-1
Scans to average: 10
Electric dark correction enabled: true
Nonlinearity correction enabled: true
Boxcar width: 5
XAxis mode: Wavelengths
Number of Pixels in Spectrum: 2068
>>>>>Begin Spectral Data<<<<<
199	-2.041
199	-1.91
200	-1.766
200	-1.654
201	-1.58
201	-1.529
202	-1.457
202	-1.4
203	-1.35
203	-1.309
204	-1.28
204	-1.257
205	-1.236
205	-1.226
205	-1.224
206	-1.223
206	-1.221
207	-1.217
207	-1.213
208	-1.211
208	-1.206
209	-1.204
209	-1.203
210	-1.202
210	-1.2
211	-1.198
211	-1.196
212	-1.193
212	-1.193
213	-1.192
213	-1.19
213	-1.19
214	-1.189
214	-1.19
215	-1.189
215	-1.19
216	-1.189
216	-1.188
217	-1.187
217	-1.186
218	-1.185
218	-1.181
219	-1.179
219	-1.178
220	-1.173
220	-1.168
221	-1.164
221	-1.159
221	-1.154
222	-1.15
222	-1.144
223	-1.137
223	-1.134
224	-1.127
224	-1.119
225	-1.11
225	-1.099
226	-1.089
226	-1.078
227	-1.063
227	-1.047
228	-1.027
228	-1.007
229	-0.982
229	-0.953
229	-0.924
230	-0.892
230	-0.857
231	-0.818
231	-0.779
232	-0.737
232	-0.693
233	-0.648
233	-0.601
234	-0.554
234	-0.508
235	-0.461
235	-0.415
236	-0.37
236	-0.326
236	-0.284
237	-0.244
237	-0.205
238	-0.168
238	-0.134
239	-0.101
239	-0.071
240	-0.043
240	-0.017
241	0.007
241	0.029
242	0.05
242	0.068
243	0.086
243	0.102
243	0.116
244	0.13
244	0.142
245	0.153
245	0.164
246	0.174
246	0.183
247	0.191
247	0.199
248	0.206
248	0.213
249	0.219
249	0.225
250	0.23
250	0.235
250	0.24
251	0.244
251	0.248
252	0.252
252	0.256
253	0.259
253	0.262
254	0.265
254	0.268
255	0.27
255	0.273
256	0.274
256	0.277
257	0.278
257	0.28
258	0.281
258	0.282
258	0.284
259	0.285
259	0.285
260	0.286
260	0.286
261	0.287
261	0.287
262	0.287
262	0.287
263	0.288
263	0.287
264	0.287
264	0.287
265	0.286
265	0.286
265	0.285
266	0.285
266	0.284
267	0.283
267	0.282
268	0.281
268	0.28
269	0.279
269	0.278
270	0.277
270	0.276
271	0.274
271	0.273
272	0.272
272	0.271
272	0.269
273	0.268
273	0.266
274	0.265
274	0.264
275	0.262
275	0.261
276	0.259
276	0.258
277	0.256
277	0.254
278	0.253
278	0.251
278	0.249
279	0.247
279	0.246
280	0.244
280	0.243
281	0.242
281	0.24
282	0.239
282	0.238
283	0.237
283	0.236
284	0.235
284	0.234
285	0.233
285	0.231
285	0.23
286	0.229
286	0.228
287	0.226
287	0.225
288	0.224
288	0.223
289	0.222
289	0.221
290	0.22
290	0.219
291	0.218
291	0.217
292	0.216
292	0.215
292	0.214
293	0.213
293	0.212
294	0.211
294	0.21
295	0.209
295	0.208
296	0.208
296	0.207
297	0.206
297	0.205
298	0.204
298	0.204
298	0.203
299	0.202
299	0.201
300	0.201
300	0.2
301	0.199
301	0.198
302	0.198
302	0.197
303	0.197
303	0.196
304	0.196
304	0.195
305	0.194
305	0.194
305	0.193
306	0.192
306	0.192
307	0.191
307	0.19
308	0.189
308	0.188
309	0.187
309	0.187
310	0.186
310	0.185
311	0.185
311	0.184
311	0.183
312	0.182
312	0.182
313	0.181
313	0.18
314	0.179
314	0.179
315	0.178
315	0.177
316	0.176
316	0.176
317	0.175
317	0.174
318	0.173
318	0.173
318	0.172
319	0.171
319	0.171
320	0.17
320	0.169
321	0.168
321	0.167
322	0.167
322	0.166
323	0.165
323	0.164
324	0.164
324	0.163
324	0.162
325	0.161
325	0.161
326	0.16
326	0.159
327	0.159
327	0.158
328	0.157
328	0.157
329	0.156
329	0.155
330	0.154
330	0.154
330	0.153
331	0.152
331	0.152
332	0.151
332	0.15
333	0.15
333	0.149
334	0.148
334	0.147
335	0.147
335	0.146
336	0.145
336	0.145
336	0.144
337	0.143
337	0.143
338	0.142
338	0.141
339	0.141
339	0.14
340	0.14
340	0.139
341	0.138
341	0.138
342	0.137
342	0.137
342	0.136
343	0.135
343	0.135
344	0.134
344	0.134
345	0.133
345	0.133
346	0.132
346	0.131
347	0.131
347	0.13
348	0.13
348	0.129
348	0.129
349	0.128
349	0.127
350	0.127
350	0.126
351	0.125
351	0.125
352	0.124
352	0.124
353	0.123
353	0.122
354	0.121
354	0.12
354	0.12
355	0.119
355	0.118
356	0.118
356	0.117
357	0.117
357	0.117
358	0.117
358	0.117
359	0.118
359	0.118
360	0.118
360	0.119
360	0.119
361	0.119
361	0.119
362	0.119
362	0.118
363	0.119
363	0.118
364	0.118
364	0.118
365	0.118
365	0.117
366	0.117
366	0.117
366	0.117
367	0.116
367	0.116
368	0.116
368	0.115
369	0.115
369	0.114
370	0.114
370	0.114
371	0.113
371	0.113
372	0.112
372	0.112
372	0.112
373	0.111
373	0.111
374	0.111
374	0.111
375	0.111
375	0.111
376	0.111
376	0.111
377	0.111
377	0.111
378	0.111
378	0.111
378	0.111
379	0.111
379	0.111
380	0.111
380	0.111
381	0.111
381	0.111
382	0.111
382	0.11
383	0.11
383	0.109
383	0.109
384	0.109
384	0.108
385	0.108
385	0.108
386	0.108
386	0.108
387	0.108
387	0.107
388	0.107
388	0.107
389	0.107
389	0.107
389	0.107
390	0.107
390	0.107
391	0.107
391	0.108
392	0.108
392	0.108
393	0.108
393	0.108
394	0.107
394	0.107
394	0.107
395	0.106
395	0.106
396	0.105
396	0.105
397	0.105
397	0.105
398	0.105
398	0.105
399	0.105
399	0.105
400	0.105
400	0.105
400	0.105
401	0.104
401	0.103
402	0.102
402	0.101
403	0.101
403	0.101
404	0.101
404	0.1
405	0.1
405	0.1
405	0.099
406	0.099
406	0.099
407	0.099
407	0.099
408	0.098
408	0.098
409	0.098
409	0.097
410	0.097
410	0.097
411	0.097
411	0.097
411	0.096
412	0.096
412	0.095
413	0.095
413	0.095
414	0.094
414	0.094
415	0.094
415	0.094
416	0.093
416	0.093
416	0.092
417	0.092
417	0.092
418	0.092
418	0.092
419	0.092
419	0.093
420	0.093
420	0.094
421	0.094
421	0.094
421	0.095
422	0.095
422	0.095
423	0.095
423	0.095
424	0.094
424	0.093
425	0.092
425	0.092
426	0.091
426	0.091
427	0.091
427	0.09
427	0.091
428	0.091
428	0.091
429	0.092
429	0.092
430	0.092
430	0.092
431	0.092
431	0.092
432	0.091
432	0.091
432	0.09
433	0.089
433	0.088
434	0.087
434	0.087
435	0.087
435	0.087
436	0.087
436	0.087
437	0.087
437	0.087
437	0.087
438	0.087
438	0.087
439	0.086
439	0.086
440	0.086
440	0.086
441	0.086
441	0.086
442	0.086
442	0.086
442	0.087
443	0.087
443	0.087
444	0.087
444	0.087
445	0.088
445	0.088
446	0.088
446	0.087
447	0.087
447	0.087
447	0.086
448	0.086
448	0.086
449	0.086
449	0.085
450	0.085
450	0.085
451	0.084
451	0.084
452	0.084
452	0.083
452	0.083
453	0.082
453	0.082
454	0.081
454	0.081
455	0.081
455	0.08
456	0.08
456	0.08
457	0.08
457	0.08
458	0.08
458	0.08
458	0.08
459	0.08
459	0.08
460	0.08
460	0.079
461	0.079
461	0.078
462	0.078
462	0.078
463	0.078
463	0.078
463	0.079
464	0.079
464	0.079
465	0.079
465	0.079
466	0.079
466	0.079
467	0.079
467	0.079
467	0.078
468	0.076
468	0.075
469	0.074
469	0.073
470	0.072
470	0.072
471	0.072
471	0.072
472	0.072
472	0.072
472	0.073
473	0.074
473	0.075
474	0.076
474	0.077
475	0.078
475	0.078
476	0.078
476	0.078
477	0.078
477	0.078
477	0.079
478	0.079
478	0.079
479	0.079
479	0.079
480	0.08
480	0.08
481	0.081
481	0.082
482	0.083
482	0.084
482	0.085
483	0.087
483	0.09
484	0.092
484	0.094
485	0.096
485	0.097
486	0.097
486	0.098
487	0.099
487	0.099
487	0.099
488	0.099
488	0.097
489	0.096
489	0.095
490	0.094
490	0.094
491	0.094
491	0.094
492	0.094
492	0.095
492	0.095
493	0.096
493	0.097
494	0.099
494	0.102
495	0.103
495	0.105
496	0.106
496	0.107
496	0.108
497	0.109
497	0.11
498	0.111
498	0.112
499	0.112
499	0.112
500	0.112
500	0.114
501	0.115
501	0.116
501	0.117
502	0.119
502	0.12
503	0.121
503	0.122
504	0.123
504	0.124
505	0.124
505	0.124
506	0.125
506	0.125
506	0.126
507	0.126
507	0.127
508	0.127
508	0.128
509	0.129
509	0.129
510	0.13
510	0.131
511	0.131
511	0.132
511	0.132
512	0.132
512	0.132
513	0.132
513	0.132
514	0.132
514	0.132
515	0.131
515	0.131
515	0.13
516	0.129
516	0.129
517	0.13
517	0.13
518	0.131
518	0.131
519	0.13
519	0.13
520	0.128
520	0.127
520	0.126
521	0.124
521	0.122
522	0.119
522	0.117
523	0.114
523	0.113
524	0.113
524	0.113
524	0.114
525	0.115
525	0.117
526	0.119
526	0.122
527	0.125
527	0.127
528	0.13
528	0.132
529	0.134
529	0.135
529	0.135
530	0.136
530	0.137
531	0.137
531	0.137
532	0.137
532	0.137
533	0.136
533	0.136
533	0.136
534	0.135
534	0.134
535	0.134
535	0.133
536	0.133
536	0.132
537	0.132
537	0.131
538	0.131
538	0.129
538	0.128
539	0.127
539	0.127
540	0.126
540	0.124
541	0.122
541	0.121
542	0.119
542	0.118
542	0.116
543	0.115
543	0.114
544	0.113
544	0.112
545	0.111
545	0.11
546	0.11
546	0.109
547	0.108
547	0.106
547	0.104
548	0.102
548	0.1
549	0.099
549	0.097
550	0.095
550	0.093
551	0.091
551	0.089
551	0.087
552	0.086
552	0.085
553	0.084
553	0.084
554	0.083
554	0.082
555	0.08
555	0.078
556	0.076
556	0.074
556	0.071
557	0.069
557	0.067
558	0.065
558	0.063
559	0.062
559	0.061
560	0.06
560	0.059
560	0.059
561	0.058
561	0.058
562	0.058
562	0.057
563	0.055
563	0.054
564	0.052
564	0.049
564	0.047
565	0.046
565	0.045
566	0.043
566	0.042
567	0.042
567	0.043
568	0.043
568	0.044
568	0.046
569	0.047
569	0.048
570	0.049
570	0.049
571	0.05
571	0.05
572	0.05
572	0.05
573	0.05
573	0.049
573	0.048
574	0.047
574	0.047
575	0.047
575	0.048
576	0.048
576	0.047
577	0.046
577	0.045
577	0.044
578	0.043
578	0.043
579	0.044
579	0.045
580	0.044
580	0.041
581	0.039
581	0.037
581	0.036
582	0.036
582	0.036
583	0.037
583	0.036
584	0.033
584	0.03
585	0.029
585	0.029
585	0.029
586	0.028
586	0.028
587	0.027
587	0.025
588	0.022
588	0.021
589	0.02
589	0.02
590	0.019
590	0.018
590	0.019
591	0.019
591	0.019
592	0.019
592	0.018
593	0.018
593	0.018
594	0.017
594	0.016
594	0.015
595	0.015
595	0.014
596	0.013
596	0.014
597	0.017
597	0.018
598	0.019
598	0.02
598	0.021
599	0.022
599	0.021
600	0.02
600	0.019
601	0.018
601	0.017
602	0.015
602	0.014
602	0.012
603	0.011
603	0.011
604	0.012
604	0.012
605	0.013
605	0.015
606	0.016
606	0.015
606	0.015
607	0.014
607	0.014
608	0.014
608	0.012
609	0.012
609	0.011
610	0.01
610	0.009
610	0.009
611	0.01
611	0.011
612	0.012
612	0.013
613	0.015
613	0.016
614	0.016
614	0.016
614	0.016
615	0.015
615	0.014
616	0.014
616	0.013
617	0.012
617	0.011
618	0.01
618	0.009
618	0.009
619	0.009
619	0.01
620	0.012
620	0.013
621	0.013
621	0.014
622	0.015
622	0.015
622	0.016
623	0.016
623	0.017
624	0.017
624	0.017
625	0.017
625	0.017
626	0.017
626	0.017
626	0.018
627	0.018
627	0.019
628	0.02
628	0.021
629	0.021
629	0.021
630	0.021
630	0.021
630	0.022
631	0.023
631	0.023
632	0.023
632	0.023
633	0.023
633	0.024
634	0.025
634	0.027
634	0.029
635	0.03
635	0.032
636	0.033
636	0.034
637	0.036
637	0.037
638	0.038
638	0.039
638	0.04
639	0.041
639	0.041
640	0.042
640	0.043
641	0.044
641	0.045
642	0.046
642	0.048
642	0.049
643	0.051
643	0.052
644	0.053
644	0.055
645	0.056
645	0.058
646	0.06
646	0.062
646	0.064
647	0.067
647	0.069
648	0.071
648	0.073
649	0.075
649	0.078
650	0.08
650	0.082
650	0.085
651	0.087
651	0.089
652	0.091
652	0.093
653	0.097
653	0.105
653	0.117
654	0.098
654	0.083
655	0.086
655	0.088
656	0.09
656	0.092
657	0.094
657	0.095
657	0.096
658	0.094
658	0.086
659	0.106
659	0.132
660	0.135
660	0.137
661	0.138
661	0.14
661	0.142
662	0.145
662	0.148
663	0.151
663	0.154
664	0.156
664	0.158
665	0.16
665	0.163
665	0.165
666	0.167
666	0.17
667	0.172
667	0.175
668	0.177
668	0.18
669	0.183
669	0.186
669	0.19
670	0.193
670	0.197
671	0.199
671	0.201
672	0.203
672	0.205
672	0.206
673	0.208
673	0.209
674	0.211
674	0.211
675	0.212
675	0.213
676	0.215
676	0.217
676	0.218
677	0.22
677	0.222
678	0.223
678	0.225
679	0.226
679	0.227
680	0.229
680	0.23
680	0.23
681	0.231
681	0.231
682	0.232
682	0.233
683	0.235
683	0.237
684	0.239
684	0.239
684	0.24
685	0.24
685	0.242
686	0.243
686	0.244
687	0.244
687	0.244
687	0.244
688	0.243
688	0.243
689	0.244
689	0.245
690	0.245
690	0.245
691	0.244
691	0.244
691	0.244
692	0.243
692	0.241
693	0.241
693	0.24
694	0.239
694	0.236
695	0.236
695	0.237
695	0.237
696	0.237
696	0.236
697	0.236
697	0.235
698	0.235
698	0.233
698	0.232
699	0.231
699	0.229
700	0.226
700	0.224
701	0.223
701	0.221
702	0.219
702	0.217
702	0.215
703	0.214
703	0.212
704	0.21
704	0.209
705	0.209
705	0.207
705	0.206
706	0.205
706	0.204
707	0.202
707	0.201
708	0.199
708	0.197
709	0.196
709	0.193
709	0.19
710	0.187
710	0.185
711	0.183
711	0.181
712	0.18
712	0.178
713	0.176
713	0.175
713	0.173
714	0.172
714	0.17
715	0.168
715	0.166
716	0.164
716	0.162
716	0.16
717	0.158
717	0.156
718	0.153
718	0.15
719	0.148
719	0.146
720	0.144
720	0.141
720	0.138
721	0.135
721	0.132
722	0.129
722	0.126
723	0.124
723	0.122
723	0.12
724	0.117
724	0.115
725	0.113
725	0.111
726	0.11
726	0.108
727	0.106
727	0.105
727	0.103
728	0.101
728	0.1
729	0.099
729	0.098
730	0.097
730	0.095
730	0.094
731	0.093
731	0.091
732	0.09
732	0.088
733	0.086
733	0.084
734	0.081
734	0.078
734	0.076
735	0.074
735	0.072
736	0.07
736	0.068
737	0.066
737	0.064
737	0.062
738	0.06
738	0.057
739	0.054
739	0.052
740	0.049
740	0.047
741	0.045
741	0.043
741	0.039
742	0.036
742	0.033
743	0.031
743	0.03
744	0.028
744	0.027
744	0.025
745	0.024
745	0.022
746	0.021
746	0.02
747	0.019
747	0.019
748	0.018
748	0.017
748	0.016
749	0.015
749	0.015
750	0.014
750	0.013
751	0.012
751	0.012
751	0.012
752	0.011
752	0.01
753	0.009
753	0.009
754	0.008
754	0.008
754	0.007
755	0.007
755	0.008
756	0.007
756	0.006
757	0.004
757	0.004
758	0.003
758	0.001
758	0
759	-0.001
759	-0.003
760	-0.006
760	-0.008
761	-0.01
761	-0.011
761	-0.012
762	-0.013
762	-0.014
763	-0.014
763	-0.016
764	-0.018
764	-0.02
764	-0.022
765	-0.024
765	-0.025
766	-0.026
766	-0.026
767	-0.027
767	-0.029
768	-0.032
768	-0.033
768	-0.035
769	-0.035
769	-0.036
770	-0.037
770	-0.039
771	-0.041
771	-0.044
771	-0.047
772	-0.049
772	-0.051
773	-0.053
773	-0.056
774	-0.059
774	-0.062
775	-0.065
775	-0.068
775	-0.071
776	-0.075
776	-0.079
777	-0.082
777	-0.086
778	-0.09
778	-0.094
778	-0.098
779	-0.101
779	-0.1
780	-0.101
780	-0.103
781	-0.105
781	-0.106
781	-0.108
782	-0.109
782	-0.111
783	-0.113
783	-0.114
784	-0.115
784	-0.118
784	-0.12
785	-0.121
785	-0.123
786	-0.124
786	-0.121
787	-0.117
787	-0.113
788	-0.112
788	-0.112
788	-0.113
789	-0.114
789	-0.113
790	-0.11
790	-0.108
791	-0.108
791	-0.11
791	-0.112
792	-0.107
792	-0.097
793	-0.091
793	-0.088
794	-0.087
794	-0.089
794	-0.093
795	-0.096
795	-0.096
796	-0.096
796	-0.099
797	-0.107
797	-0.117
797	-0.123
798	-0.128
798	-0.131
799	-0.131
799	-0.131
800	-0.131
800	-0.133
801	-0.136
801	-0.138
801	-0.138
802	-0.14
802	-0.141
803	-0.142
803	-0.142
804	-0.141
804	-0.136
804	-0.13
805	-0.126
805	-0.123
806	-0.121
806	-0.119
807	-0.118
807	-0.118
807	-0.118
808	-0.117
808	-0.119
809	-0.123
809	-0.129
810	-0.132
810	-0.134
810	-0.137
811	-0.14
811	-0.14
812	-0.136
812	-0.132
813	-0.131
813	-0.131
813	-0.132
814	-0.132
814	-0.131
815	-0.129
815	-0.126
816	-0.124
816	-0.125
817	-0.129
817	-0.133
817	-0.134
818	-0.133
818	-0.13
819	-0.125
819	-0.123
820	-0.124
820	-0.127
820	-0.128
821	-0.128
821	-0.127
822	-0.127
822	-0.125
823	-0.124
823	-0.124
823	-0.126
824	-0.125
824	-0.121
825	-0.115
825	-0.109
826	-0.103
826	-0.098
826	-0.092
827	-0.087
827	-0.083
828	-0.079
828	-0.076
829	-0.073
829	-0.071
829	-0.069
830	-0.068
830	-0.066
831	-0.064
831	-0.062
832	-0.061
832	-0.06
832	-0.058
833	-0.056
833	-0.055
834	-0.053
834	-0.052
835	-0.05
835	-0.049
835	-0.048
836	-0.046
836	-0.045
837	-0.044
837	-0.044
838	-0.043
838	-0.043
839	-0.043
839	-0.043
839	-0.043
840	-0.042
840	-0.042
841	-0.041
841	-0.04
842	-0.039
842	-0.037
842	-0.036
843	-0.035
843	-0.034
844	-0.033
844	-0.032
845	-0.032
845	-0.031
845	-0.031
846	-0.031
846	-0.031
847	-0.03
847	-0.03
848	-0.03
848	-0.03
848	-0.029
849	-0.029
849	-0.029
850	-0.029
850	-0.029
851	-0.029
851	-0.029
851	-0.029
852	-0.029
852	-0.028
853	-0.028
853	-0.028
854	-0.027
854	-0.027
854	-0.027
855	-0.027
855	-0.026
856	-0.026
856	-0.026
857	-0.025
857	-0.025
857	-0.024
858	-0.024
858	-0.024
859	-0.023
859	-0.022
860	-0.021
860	-0.02
860	-0.02
861	-0.019
861	-0.018
862	-0.018
862	-0.018
863	-0.017
863	-0.017
863	-0.018
864	-0.018
864	-0.019
865	-0.019
865	-0.02
866	-0.021
866	-0.022
866	-0.022
867	-0.022
867	-0.022
868	-0.022
868	-0.022
869	-0.021
869	-0.021
869	-0.02
870	-0.02
870	-0.02
871	-0.02
871	-0.02
872	-0.021
872	-0.022
872	-0.023
873	-0.023
873	-0.024
874	-0.025
874	-0.026
875	-0.026
875	-0.027
875	-0.027
876	-0.027
876	-0.028
877	-0.028
877	-0.029
878	-0.03
878	-0.03
878	-0.03
879	-0.031
879	-0.031
880	-0.031
880	-0.031
881	-0.03
881	-0.029
881	-0.028
882	-0.026
882	-0.025
883	-0.023
883	-0.021
884	-0.02
884	-0.018
884	-0.017
885	-0.016
885	-0.015
886	-0.014
886	-0.013
887	-0.013
887	-0.013
887	-0.012
888	-0.012
888	-0.011
889	-0.011
889	-0.01
890	-0.009
890	-0.008
890	-0.008
891	-0.008
891	-0.007
892	-0.007
892	-0.008
893	-0.008
893	-0.009
893	-0.009
894	-0.01
894	-0.011
895	-0.012
895	-0.013
895	-0.015
896	-0.016
896	-0.016
897	-0.017
897	-0.016
898	-0.016
898	-0.016
898	-0.016
899	-0.016
899	-0.016
900	-0.017
900	-0.016
901	-0.016
901	-0.016
901	-0.017
902	-0.017
902	-0.017
903	-0.017
903	-0.018
904	-0.018
904	-0.018
904	-0.018
905	-0.019
905	-0.019
906	-0.019
906	-0.019
907	-0.019
907	-0.019
907	-0.019
908	-0.019
908	-0.019
909	-0.019
909	-0.018
910	-0.017
910	-0.016
910	-0.016
911	-0.015
911	-0.015
912	-0.014
912	-0.014
913	-0.014
913	-0.014
913	-0.015
914	-0.015
914	-0.016
915	-0.017
915	-0.018
916	-0.019
916	-0.019
916	-0.02
917	-0.02
917	-0.02
918	-0.02
918	-0.019
918	-0.019
919	-0.018
919	-0.017
920	-0.016
920	-0.015
921	-0.014
921	-0.013
921	-0.012
922	-0.011
922	-0.011
923	-0.01
923	-0.009
924	-0.009
924	-0.008
924	-0.008
925	-0.008
925	-0.007
926	-0.007
926	-0.007
927	-0.008
927	-0.008
927	-0.008
928	-0.009
928	-0.009
929	-0.009
929	-0.009
930	-0.01
930	-0.01
930	-0.011
931	-0.011
931	-0.011
932	-0.012
932	-0.012
933	-0.013
933	-0.013
933	-0.013
934	-0.014
934	-0.014
935	-0.014
935	-0.015
935	-0.015
936	-0.015
936	-0.015
937	-0.014
937	-0.014
938	-0.013
938	-0.013
938	-0.012
939	-0.011
939	-0.01
940	-0.009
940	-0.008
941	-0.007
941	-0.006
941	-0.005
942	-0.004
942	-0.003
943	-0.003
943	-0.002
944	-0.002
944	-0.002
944	-0.001
945	-0.001
945	-0.001
946	-0.001
946	-0.001
946	-0.002
947	-0.002
947	-0.002
948	-0.002
948	-0.003
949	-0.003
949	-0.004
949	-0.004
950	-0.004
950	-0.005
951	-0.005
951	-0.005
952	-0.005
952	-0.004
952	-0.004
953	-0.004
953	-0.004
954	-0.004
954	-0.003
955	-0.003
955	-0.003
955	-0.002
956	-0.002
956	-0.002
957	-0.002
957	-0.002
957	-0.002
958	-0.003
958	-0.003
959	-0.004
959	-0.005
960	-0.006
960	-0.007
960	-0.008
961	-0.01
961	-0.011
962	-0.012
962	-0.012
963	-0.013
963	-0.013
963	-0.013
964	-0.012
964	-0.012
965	-0.011
965	-0.01
966	-0.009
966	-0.008
966	-0.007
967	-0.007
967	-0.006
968	-0.006
968	-0.006
968	-0.006
969	-0.006
969	-0.006
970	-0.006
970	-0.007
971	-0.007
971	-0.007
971	-0.007
972	-0.006
972	-0.006
973	-0.006
973	-0.006
974	-0.007
974	-0.006
974	-0.006
975	-0.007
975	-0.007
976	-0.008
976	-0.009
976	-0.01
977	-0.011
977	-0.013
978	-0.014
978	-0.014
979	-0.015
979	-0.015
979	-0.015
980	-0.015
980	-0.015
981	-0.015
981	-0.014
982	-0.013
982	-0.012
982	-0.011
983	-0.01
983	-0.009
984	-0.008
984	-0.007
984	-0.007
985	-0.006
985	-0.006
986	-0.006
986	-0.007
987	-0.007
987	-0.007
987	-0.007
988	-0.008
988	-0.008
989	-0.009
989	-0.01
990	-0.01
990	-0.011
990	-0.011
991	-0.012
991	-0.012
992	-0.013
992	-0.014
992	-0.015
993	-0.016
993	-0.016
994	-0.018
994	-0.019
995	-0.02
995	-0.021
995	-0.022
996	-0.022
996	-0.023
997	-0.023
997	-0.023
997	-0.023
998	-0.022
998	-0.021
999	-0.02
999	-0.019
1000	-0.018
1000	-0.016
1000	-0.015
1001	-0.014
1001	-0.013
1002	-0.012
1002	-0.011
1003	-0.01
1003	-0.01
1003	-0.009
1004	-0.009
1004	-0.009
1005	-0.009
1005	-0.009
1005	-0.009
1006	-0.009
1006	-0.009
1007	-0.009
1007	-0.01
1008	-0.01
1008	-0.01
1008	-0.01
1009	-0.01
1009	-0.01
1010	-0.009
1010	-0.009
1010	-0.009
1011	-0.009
1011	-0.009
1012	-0.01
1012	-0.01
1013	-0.011
1013	-0.011
1013	-0.012
1014	-0.013
1014	-0.014
1015	-0.015
1015	-0.016
1016	-0.017
1016	-0.018
1016	-0.018
1017	-0.019
1017	-0.019
1018	-0.019
1018	-0.02
1018	-0.02
1019	-0.019
1019	-0.019
1020	-0.019
1020	-0.019
1021	-0.019
1021	-0.018
1021	-0.018
1022	-0.018
1022	-0.018
1023	-0.018
1023	-0.018
1023	-0.019
1024	-0.02
1024	-0.02
1025	-0.021
1025	-0.021
1026	-0.022
1026	-0.022
1026	-0.022
1027	-0.022
1027	-0.022
1028	-0.021
1028	-0.021
1028	-0.02
1029	-0.019
1029	-0.018
1030	-0.017
1030	-0.015
1031	-0.014
1031	-0.013
1031	-0.012
1032	-0.01
1032	-0.01
1033	-0.009
1033	-0.009
1033	-0.009
1034	-0.01
1034	-0.011
1035	-0.011
1035	-0.012
1036	-0.013
1036	-0.014
1036	-0.015
1037	-0.016
1037	-0.017
1038	-0.018
1038	-0.018
1039	-0.018
1039	-0.018
1039	-0.018
1040	-0.018
1040	-0.018
1041	-0.019
1041	-0.019
1041	-0.019
1042	-0.019
1042	-0.02
1043	-0.02
1043	-0.02
1044	-0.02
1044	-0.02
1044	-0.02
1045	-0.02
1045	-0.02
1046	-0.02
1046	-0.02
1046	-0.019
1047	-0.018
1047	-0.017
1048	-0.015
1048	-0.015
1049	-0.014
1049	-0.014
1049	-0.014
1050	-0.013
1050	-0.013
1051	-0.012
1051	-0.012
1051	-0.011
1052	-0.01
1052	-0.01
1053	-0.009
1053	-0.008
1053	-0.008
1054	-0.007
1054	-0.006
1055	-0.004
1055	-0.004
1056	-0.004
1056	-0.004
1056	-0.004
1057	-0.005
1057	-0.005
1058	-0.005
1058	-0.005
1058	-0.005
1059	-0.005
1059	-0.005
1060	-0.005
1060	-0.004
1061	-0.003
1061	-0.002
1061	-0.002
1062	-0.001
1062	-0.001
1063	-0.001
1063	-0.001
1063	-0
1064	0
1064	0.001
1065	0.002
1065	0.002
1066	0.003
1066	0.004
1066	0.005
1067	0.006
1067	0.007
1068	0.008
1068	0.009
1068	0.009
1069	0.01
1069	0.01
1070	0.011
1070	0.012
1071	0.013
1071	0.014
1071	0.015
1072	0.016
1072	0.018
1073	0.019
1073	0.021
1073	0.022
1074	0.024
1074	0.026
1075	0.027
1075	0.028
1076	0.028
1076	0.03
1076	0.03
1077	0.031
1077	0.032
1078	0.033
1078	0.035
1078	0.036
1079	0.038
1079	0.04
1080	0.041
1080	0.042
1080	0.043
1081	0.045
1081	0.047
1082	0.049
1082	0.05
1083	0.052
1083	0.053
1083	0.056
1084	0.058
1084	0.061
1085	0.063
1085	0.066
1085	0.069
1086	0.071
1086	0.073
1087	0.076
1087	0.079
1088	0.082
1088	0.084
1088	0.087
1089	0.09
1089	0.094
1090	0.097
1090	0.103
1090	0.107
1091	0.113
1091	0.119
1092	0.125
1092	0.132
1092	0.138
1093	0.145
1093	0.154
1094	0.163
1094	0.172
1095	0.181
1095	0.192
1095	0.204
1096	0.217
1096	0.231
1097	0.249
1097	0.264
1097	0.284
1098	0.303
1098	0.325
1099	0.35
1099	0.376
1100	0.405
1100	0.438
1100	0.476
1101	0.519
1101	0.569
1102	0.637
1102	0.716
1102	0.824
1103	0.967
1103	1.201
1104	1.901
1104	-0
1104	-0
1105	-0
1105	-0
1106	-0
1106	-0
1107	-0
1107	-0
1107	-0
1108	-0
1108	-0
1109	-0
1109	-0
1109	-0
1110	-0
1110	-0
1111	-0
1111	-0
