Data from 15c-100ul-ns-20ul-nr-full-exp-7ul-bp_Absorbance__55__03227.txt Node

Date: Mon Jan 15 11:17:00 CET 2024
User: Marek
Spectrometer: MAYP115816
Trigger mode: 0
Integration Time (sec): 2.000000E-1
Scans to average: 10
Electric dark correction enabled: true
Nonlinearity correction enabled: true
Boxcar width: 5
XAxis mode: Wavelengths
Number of Pixels in Spectrum: 2068
>>>>>Begin Spectral Data<<<<<
199	-2.12
199	-1.988
200	-1.843
200	-1.73
201	-1.656
201	-1.605
202	-1.532
202	-1.474
203	-1.422
203	-1.381
204	-1.351
204	-1.328
205	-1.306
205	-1.297
205	-1.294
206	-1.292
206	-1.29
207	-1.286
207	-1.283
208	-1.282
208	-1.276
209	-1.274
209	-1.272
210	-1.272
210	-1.27
211	-1.268
211	-1.266
212	-1.263
212	-1.263
213	-1.262
213	-1.26
213	-1.26
214	-1.259
214	-1.26
215	-1.259
215	-1.259
216	-1.258
216	-1.257
217	-1.256
217	-1.255
218	-1.254
218	-1.251
219	-1.249
219	-1.248
220	-1.243
220	-1.239
221	-1.234
221	-1.229
221	-1.223
222	-1.219
222	-1.213
223	-1.206
223	-1.201
224	-1.196
224	-1.188
225	-1.179
225	-1.168
226	-1.158
226	-1.147
227	-1.133
227	-1.116
228	-1.096
228	-1.076
229	-1.051
229	-1.022
229	-0.993
230	-0.961
230	-0.926
231	-0.887
231	-0.847
232	-0.805
232	-0.76
233	-0.715
233	-0.668
234	-0.621
234	-0.574
235	-0.527
235	-0.481
236	-0.436
236	-0.391
236	-0.348
237	-0.307
237	-0.268
238	-0.231
238	-0.195
239	-0.162
239	-0.131
240	-0.103
240	-0.076
241	-0.052
241	-0.029
242	-0.008
242	0.012
243	0.03
243	0.046
243	0.061
244	0.075
244	0.088
245	0.1
245	0.111
246	0.121
246	0.131
247	0.139
247	0.147
248	0.155
248	0.162
249	0.168
249	0.174
250	0.179
250	0.185
250	0.19
251	0.194
251	0.198
252	0.203
252	0.206
253	0.21
253	0.213
254	0.216
254	0.22
255	0.222
255	0.225
256	0.227
256	0.229
257	0.231
257	0.232
258	0.234
258	0.235
258	0.236
259	0.238
259	0.238
260	0.239
260	0.24
261	0.241
261	0.241
262	0.241
262	0.241
263	0.241
263	0.241
264	0.241
264	0.241
265	0.241
265	0.241
265	0.24
266	0.24
266	0.24
267	0.239
267	0.238
268	0.238
268	0.237
269	0.236
269	0.235
270	0.233
270	0.232
271	0.231
271	0.23
272	0.229
272	0.228
272	0.227
273	0.225
273	0.224
274	0.223
274	0.222
275	0.221
275	0.22
276	0.218
276	0.217
277	0.216
277	0.214
278	0.212
278	0.211
278	0.21
279	0.208
279	0.206
280	0.205
280	0.204
281	0.203
281	0.202
282	0.201
282	0.2
283	0.199
283	0.198
284	0.197
284	0.197
285	0.196
285	0.195
285	0.194
286	0.193
286	0.192
287	0.191
287	0.19
288	0.189
288	0.188
289	0.187
289	0.186
290	0.185
290	0.185
291	0.184
291	0.183
292	0.182
292	0.181
292	0.181
293	0.18
293	0.179
294	0.179
294	0.178
295	0.177
295	0.177
296	0.176
296	0.175
297	0.175
297	0.174
298	0.173
298	0.173
298	0.172
299	0.171
299	0.171
300	0.17
300	0.169
301	0.169
301	0.168
302	0.168
302	0.167
303	0.167
303	0.166
304	0.166
304	0.165
305	0.165
305	0.164
305	0.164
306	0.163
306	0.162
307	0.162
307	0.161
308	0.16
308	0.16
309	0.159
309	0.158
310	0.158
310	0.157
311	0.157
311	0.156
311	0.155
312	0.155
312	0.154
313	0.153
313	0.153
314	0.152
314	0.151
315	0.15
315	0.15
316	0.149
316	0.149
317	0.148
317	0.147
318	0.146
318	0.146
318	0.145
319	0.144
319	0.144
320	0.143
320	0.142
321	0.142
321	0.141
322	0.14
322	0.139
323	0.139
323	0.138
324	0.137
324	0.137
324	0.136
325	0.135
325	0.135
326	0.134
326	0.133
327	0.133
327	0.132
328	0.132
328	0.131
329	0.13
329	0.13
330	0.129
330	0.128
330	0.128
331	0.127
331	0.126
332	0.126
332	0.125
333	0.125
333	0.124
334	0.123
334	0.122
335	0.122
335	0.121
336	0.12
336	0.12
336	0.119
337	0.118
337	0.118
338	0.117
338	0.117
339	0.116
339	0.116
340	0.115
340	0.115
341	0.114
341	0.113
342	0.112
342	0.112
342	0.111
343	0.111
343	0.11
344	0.11
344	0.109
345	0.109
345	0.108
346	0.108
346	0.107
347	0.106
347	0.106
348	0.105
348	0.105
348	0.104
349	0.103
349	0.103
350	0.102
350	0.101
351	0.101
351	0.1
352	0.099
352	0.099
353	0.098
353	0.097
354	0.096
354	0.095
354	0.094
355	0.093
355	0.093
356	0.092
356	0.092
357	0.092
357	0.091
358	0.091
358	0.092
359	0.092
359	0.093
360	0.093
360	0.093
360	0.094
361	0.094
361	0.094
362	0.094
362	0.094
363	0.094
363	0.093
364	0.093
364	0.093
365	0.092
365	0.092
366	0.092
366	0.092
366	0.092
367	0.092
367	0.091
368	0.091
368	0.09
369	0.09
369	0.09
370	0.089
370	0.089
371	0.088
371	0.088
372	0.088
372	0.087
372	0.087
373	0.087
373	0.087
374	0.087
374	0.087
375	0.087
375	0.087
376	0.087
376	0.087
377	0.087
377	0.087
378	0.087
378	0.087
378	0.088
379	0.087
379	0.087
380	0.088
380	0.088
381	0.087
381	0.087
382	0.087
382	0.087
383	0.086
383	0.086
383	0.085
384	0.085
384	0.085
385	0.084
385	0.084
386	0.084
386	0.084
387	0.084
387	0.084
388	0.083
388	0.083
389	0.083
389	0.083
389	0.083
390	0.083
390	0.084
391	0.084
391	0.084
392	0.084
392	0.085
393	0.085
393	0.085
394	0.084
394	0.084
394	0.084
395	0.083
395	0.083
396	0.083
396	0.083
397	0.083
397	0.083
398	0.083
398	0.083
399	0.083
399	0.083
400	0.083
400	0.082
400	0.082
401	0.081
401	0.08
402	0.08
402	0.079
403	0.079
403	0.078
404	0.078
404	0.078
405	0.077
405	0.077
405	0.077
406	0.077
406	0.077
407	0.077
407	0.076
408	0.076
408	0.075
409	0.075
409	0.075
410	0.074
410	0.074
411	0.074
411	0.074
411	0.074
412	0.073
412	0.073
413	0.073
413	0.072
414	0.072
414	0.072
415	0.071
415	0.071
416	0.071
416	0.07
416	0.069
417	0.069
417	0.069
418	0.069
418	0.069
419	0.069
419	0.07
420	0.07
420	0.071
421	0.072
421	0.072
421	0.073
422	0.073
422	0.073
423	0.073
423	0.073
424	0.072
424	0.071
425	0.07
425	0.069
426	0.069
426	0.069
427	0.068
427	0.068
427	0.069
428	0.069
428	0.07
429	0.07
429	0.071
430	0.071
430	0.071
431	0.071
431	0.07
432	0.07
432	0.069
432	0.068
433	0.067
433	0.065
434	0.065
434	0.064
435	0.064
435	0.064
436	0.064
436	0.063
437	0.064
437	0.064
437	0.064
438	0.064
438	0.064
439	0.063
439	0.063
440	0.063
440	0.063
441	0.063
441	0.062
442	0.063
442	0.063
442	0.063
443	0.064
443	0.064
444	0.064
444	0.064
445	0.064
445	0.065
446	0.065
446	0.065
447	0.064
447	0.064
447	0.064
448	0.064
448	0.064
449	0.063
449	0.063
450	0.062
450	0.062
451	0.061
451	0.061
452	0.061
452	0.06
452	0.059
453	0.059
453	0.058
454	0.057
454	0.057
455	0.057
455	0.056
456	0.056
456	0.056
457	0.056
457	0.056
458	0.056
458	0.056
458	0.056
459	0.057
459	0.057
460	0.056
460	0.056
461	0.055
461	0.054
462	0.054
462	0.054
463	0.054
463	0.054
463	0.055
464	0.055
464	0.055
465	0.055
465	0.055
466	0.054
466	0.054
467	0.054
467	0.054
467	0.052
468	0.051
468	0.049
469	0.047
469	0.046
470	0.045
470	0.045
471	0.045
471	0.045
472	0.044
472	0.044
472	0.045
473	0.046
473	0.047
474	0.048
474	0.049
475	0.05
475	0.051
476	0.051
476	0.051
477	0.051
477	0.051
477	0.051
478	0.051
478	0.051
479	0.051
479	0.051
480	0.052
480	0.052
481	0.053
481	0.054
482	0.055
482	0.056
482	0.057
483	0.059
483	0.062
484	0.064
484	0.066
485	0.068
485	0.069
486	0.07
486	0.07
487	0.071
487	0.071
487	0.071
488	0.07
488	0.069
489	0.067
489	0.065
490	0.064
490	0.063
491	0.063
491	0.063
492	0.063
492	0.063
492	0.064
493	0.064
493	0.065
494	0.067
494	0.069
495	0.071
495	0.073
496	0.074
496	0.075
496	0.076
497	0.077
497	0.077
498	0.078
498	0.078
499	0.078
499	0.078
500	0.078
500	0.079
501	0.08
501	0.081
501	0.082
502	0.083
502	0.084
503	0.085
503	0.086
504	0.087
504	0.087
505	0.087
505	0.087
506	0.088
506	0.088
506	0.088
507	0.088
507	0.088
508	0.088
508	0.089
509	0.089
509	0.09
510	0.091
510	0.091
511	0.092
511	0.092
511	0.092
512	0.092
512	0.092
513	0.091
513	0.091
514	0.09
514	0.09
515	0.09
515	0.089
515	0.088
516	0.087
516	0.087
517	0.087
517	0.087
518	0.088
518	0.088
519	0.088
519	0.087
520	0.087
520	0.086
520	0.084
521	0.083
521	0.081
522	0.078
522	0.075
523	0.072
523	0.07
524	0.069
524	0.068
524	0.067
525	0.068
525	0.069
526	0.071
526	0.073
527	0.077
527	0.08
528	0.083
528	0.086
529	0.089
529	0.091
529	0.092
530	0.094
530	0.095
531	0.096
531	0.097
532	0.097
532	0.097
533	0.097
533	0.097
533	0.097
534	0.097
534	0.097
535	0.096
535	0.096
536	0.096
536	0.096
537	0.096
537	0.095
538	0.095
538	0.094
538	0.093
539	0.093
539	0.092
540	0.092
540	0.091
541	0.089
541	0.088
542	0.086
542	0.085
542	0.084
543	0.083
543	0.082
544	0.081
544	0.081
545	0.08
545	0.08
546	0.08
546	0.08
547	0.079
547	0.077
547	0.076
548	0.074
548	0.073
549	0.072
549	0.07
550	0.069
550	0.067
551	0.065
551	0.063
551	0.062
552	0.061
552	0.06
553	0.06
553	0.06
554	0.06
554	0.059
555	0.058
555	0.056
556	0.054
556	0.051
556	0.049
557	0.047
557	0.046
558	0.044
558	0.042
559	0.041
559	0.041
560	0.04
560	0.04
560	0.04
561	0.04
561	0.04
562	0.04
562	0.04
563	0.038
563	0.037
564	0.035
564	0.033
564	0.031
565	0.03
565	0.029
566	0.028
566	0.028
567	0.028
567	0.029
568	0.03
568	0.032
568	0.034
569	0.036
569	0.038
570	0.039
570	0.04
571	0.041
571	0.042
572	0.042
572	0.042
573	0.043
573	0.043
573	0.042
574	0.042
574	0.041
575	0.041
575	0.043
576	0.044
576	0.043
577	0.042
577	0.041
577	0.04
578	0.04
578	0.04
579	0.041
579	0.042
580	0.041
580	0.039
581	0.036
581	0.035
581	0.034
582	0.034
582	0.034
583	0.035
583	0.034
584	0.032
584	0.028
585	0.027
585	0.027
585	0.027
586	0.027
586	0.027
587	0.025
587	0.023
588	0.021
588	0.019
589	0.018
589	0.018
590	0.017
590	0.016
590	0.017
591	0.018
591	0.018
592	0.017
592	0.017
593	0.016
593	0.016
594	0.015
594	0.015
594	0.014
595	0.014
595	0.013
596	0.012
596	0.013
597	0.015
597	0.017
598	0.018
598	0.02
598	0.021
599	0.021
599	0.021
600	0.02
600	0.019
601	0.018
601	0.016
602	0.014
602	0.013
602	0.011
603	0.01
603	0.01
604	0.01
604	0.011
605	0.012
605	0.014
606	0.014
606	0.014
606	0.013
607	0.013
607	0.013
608	0.012
608	0.011
609	0.01
609	0.009
610	0.008
610	0.007
610	0.007
611	0.007
611	0.008
612	0.009
612	0.011
613	0.012
613	0.013
614	0.014
614	0.013
614	0.013
615	0.012
615	0.011
616	0.011
616	0.01
617	0.01
617	0.008
618	0.007
618	0.006
618	0.005
619	0.005
619	0.006
620	0.008
620	0.009
621	0.01
621	0.011
622	0.011
622	0.012
622	0.012
623	0.012
623	0.013
624	0.014
624	0.013
625	0.013
625	0.013
626	0.013
626	0.013
626	0.013
627	0.014
627	0.014
628	0.015
628	0.015
629	0.016
629	0.016
630	0.016
630	0.016
630	0.016
631	0.017
631	0.017
632	0.017
632	0.017
633	0.017
633	0.018
634	0.019
634	0.021
634	0.023
635	0.024
635	0.025
636	0.027
636	0.028
637	0.029
637	0.03
638	0.031
638	0.032
638	0.033
639	0.033
639	0.034
640	0.034
640	0.035
641	0.036
641	0.037
642	0.038
642	0.04
642	0.041
643	0.042
643	0.044
644	0.045
644	0.046
645	0.047
645	0.049
646	0.051
646	0.053
646	0.055
647	0.058
647	0.06
648	0.062
648	0.064
649	0.066
649	0.068
650	0.071
650	0.073
650	0.075
651	0.077
651	0.079
652	0.08
652	0.082
653	0.085
653	0.093
653	0.107
654	0.09
654	0.077
655	0.08
655	0.082
656	0.084
656	0.085
657	0.087
657	0.088
657	0.089
658	0.086
658	0.078
659	0.095
659	0.117
660	0.119
660	0.121
661	0.122
661	0.123
661	0.125
662	0.128
662	0.131
663	0.133
663	0.136
664	0.138
664	0.14
665	0.142
665	0.144
665	0.146
666	0.148
666	0.15
667	0.152
667	0.155
668	0.157
668	0.159
669	0.161
669	0.164
669	0.168
670	0.171
670	0.174
671	0.177
671	0.178
672	0.18
672	0.181
672	0.183
673	0.184
673	0.186
674	0.187
674	0.187
675	0.187
675	0.188
676	0.19
676	0.191
676	0.192
677	0.194
677	0.195
678	0.197
678	0.198
679	0.199
679	0.199
680	0.201
680	0.202
680	0.202
681	0.202
681	0.202
682	0.203
682	0.204
683	0.205
683	0.207
684	0.209
684	0.21
684	0.21
685	0.211
685	0.212
686	0.213
686	0.214
687	0.214
687	0.214
687	0.214
688	0.213
688	0.213
689	0.214
689	0.215
690	0.215
690	0.215
691	0.214
691	0.214
691	0.214
692	0.213
692	0.212
693	0.211
693	0.21
694	0.209
694	0.207
695	0.207
695	0.208
695	0.209
696	0.208
696	0.208
697	0.208
697	0.207
698	0.207
698	0.206
698	0.205
699	0.204
699	0.202
700	0.199
700	0.197
701	0.196
701	0.194
702	0.192
702	0.191
702	0.189
703	0.187
703	0.186
704	0.184
704	0.184
705	0.183
705	0.182
705	0.181
706	0.18
706	0.179
707	0.178
707	0.176
708	0.174
708	0.173
709	0.171
709	0.169
709	0.166
710	0.164
710	0.162
711	0.16
711	0.159
712	0.157
712	0.156
713	0.155
713	0.153
713	0.152
714	0.15
714	0.149
715	0.147
715	0.145
716	0.143
716	0.142
716	0.14
717	0.138
717	0.136
718	0.134
718	0.132
719	0.13
719	0.128
720	0.126
720	0.123
720	0.121
721	0.118
721	0.115
722	0.112
722	0.11
723	0.108
723	0.106
723	0.104
724	0.102
724	0.1
725	0.098
725	0.096
726	0.095
726	0.094
727	0.092
727	0.09
727	0.089
728	0.088
728	0.086
729	0.086
729	0.085
730	0.084
730	0.083
730	0.082
731	0.081
731	0.079
732	0.078
732	0.077
733	0.075
733	0.073
734	0.07
734	0.068
734	0.066
735	0.064
735	0.062
736	0.059
736	0.058
737	0.056
737	0.055
737	0.053
738	0.05
738	0.047
739	0.045
739	0.043
740	0.04
740	0.038
741	0.036
741	0.033
741	0.029
742	0.025
742	0.023
743	0.021
743	0.019
744	0.018
744	0.017
744	0.015
745	0.014
745	0.013
746	0.012
746	0.012
747	0.011
747	0.011
748	0.011
748	0.01
748	0.009
749	0.008
749	0.007
750	0.007
750	0.006
751	0.005
751	0.005
751	0.005
752	0.004
752	0.003
753	0.003
753	0.002
754	0.002
754	0.001
754	0.001
755	0.002
755	0.002
756	0.002
756	0.001
757	-0
757	-0.001
758	-0.002
758	-0.003
758	-0.004
759	-0.005
759	-0.007
760	-0.01
760	-0.013
761	-0.015
761	-0.016
761	-0.017
762	-0.018
762	-0.019
763	-0.02
763	-0.022
764	-0.024
764	-0.026
764	-0.028
765	-0.03
765	-0.032
766	-0.033
766	-0.033
767	-0.034
767	-0.036
768	-0.038
768	-0.04
768	-0.041
769	-0.042
769	-0.042
770	-0.043
770	-0.045
771	-0.047
771	-0.05
771	-0.053
772	-0.055
772	-0.058
773	-0.06
773	-0.063
774	-0.067
774	-0.071
775	-0.074
775	-0.078
775	-0.082
776	-0.087
776	-0.091
777	-0.096
777	-0.101
778	-0.105
778	-0.11
778	-0.115
779	-0.116
779	-0.114
780	-0.113
780	-0.114
781	-0.114
781	-0.114
781	-0.113
782	-0.113
782	-0.113
783	-0.113
783	-0.112
784	-0.113
784	-0.116
784	-0.118
785	-0.12
785	-0.122
786	-0.122
786	-0.12
787	-0.115
787	-0.111
788	-0.11
788	-0.11
788	-0.111
789	-0.112
789	-0.111
790	-0.108
790	-0.106
791	-0.106
791	-0.108
791	-0.11
792	-0.105
792	-0.095
793	-0.09
793	-0.086
794	-0.085
794	-0.087
794	-0.091
795	-0.094
795	-0.094
796	-0.095
796	-0.097
797	-0.105
797	-0.115
797	-0.121
798	-0.126
798	-0.129
799	-0.129
799	-0.129
800	-0.129
800	-0.131
801	-0.134
801	-0.136
801	-0.136
802	-0.138
802	-0.139
803	-0.14
803	-0.14
804	-0.139
804	-0.134
804	-0.128
805	-0.124
805	-0.121
806	-0.119
806	-0.118
807	-0.117
807	-0.116
807	-0.116
808	-0.116
808	-0.117
809	-0.121
809	-0.127
810	-0.13
810	-0.133
810	-0.136
811	-0.138
811	-0.138
812	-0.134
812	-0.13
813	-0.129
813	-0.129
813	-0.13
814	-0.13
814	-0.13
815	-0.127
815	-0.124
816	-0.123
816	-0.123
817	-0.128
817	-0.131
817	-0.132
818	-0.132
818	-0.128
819	-0.124
819	-0.121
820	-0.123
820	-0.125
820	-0.126
821	-0.127
821	-0.126
822	-0.125
822	-0.125
823	-0.124
823	-0.125
823	-0.127
824	-0.126
824	-0.123
825	-0.117
825	-0.111
826	-0.105
826	-0.1
826	-0.095
827	-0.089
827	-0.084
828	-0.08
828	-0.076
829	-0.073
829	-0.07
829	-0.068
830	-0.067
830	-0.066
831	-0.063
831	-0.061
832	-0.06
832	-0.058
832	-0.057
833	-0.055
833	-0.053
834	-0.051
834	-0.05
835	-0.048
835	-0.047
835	-0.046
836	-0.045
836	-0.044
837	-0.043
837	-0.043
838	-0.042
838	-0.042
839	-0.042
839	-0.041
839	-0.041
840	-0.04
840	-0.039
841	-0.038
841	-0.037
842	-0.035
842	-0.034
842	-0.032
843	-0.031
843	-0.03
844	-0.029
844	-0.028
845	-0.028
845	-0.027
845	-0.027
846	-0.027
846	-0.027
847	-0.027
847	-0.026
848	-0.026
848	-0.026
848	-0.026
849	-0.025
849	-0.025
850	-0.025
850	-0.025
851	-0.024
851	-0.024
851	-0.024
852	-0.024
852	-0.023
853	-0.023
853	-0.022
854	-0.022
854	-0.022
854	-0.021
855	-0.021
855	-0.021
856	-0.02
856	-0.019
857	-0.019
857	-0.018
857	-0.018
858	-0.018
858	-0.017
859	-0.017
859	-0.016
860	-0.015
860	-0.015
860	-0.014
861	-0.014
861	-0.013
862	-0.013
862	-0.012
863	-0.012
863	-0.012
863	-0.012
864	-0.013
864	-0.013
865	-0.014
865	-0.014
866	-0.015
866	-0.016
866	-0.016
867	-0.016
867	-0.016
868	-0.016
868	-0.015
869	-0.015
869	-0.014
869	-0.014
870	-0.014
870	-0.014
871	-0.014
871	-0.014
872	-0.015
872	-0.016
872	-0.016
873	-0.017
873	-0.018
874	-0.019
874	-0.019
875	-0.02
875	-0.02
875	-0.02
876	-0.021
876	-0.021
877	-0.022
877	-0.022
878	-0.023
878	-0.024
878	-0.024
879	-0.025
879	-0.025
880	-0.025
880	-0.025
881	-0.024
881	-0.023
881	-0.021
882	-0.02
882	-0.018
883	-0.016
883	-0.015
884	-0.013
884	-0.012
884	-0.01
885	-0.009
885	-0.008
886	-0.007
886	-0.006
887	-0.006
887	-0.006
887	-0.005
888	-0.005
888	-0.005
889	-0.004
889	-0.003
890	-0.002
890	-0.002
890	-0.002
891	-0.001
891	-0.001
892	-0
892	-0
893	-0.001
893	-0.001
893	-0.001
894	-0.002
894	-0.003
895	-0.004
895	-0.005
895	-0.006
896	-0.008
896	-0.008
897	-0.009
897	-0.009
898	-0.009
898	-0.009
898	-0.01
899	-0.01
899	-0.01
900	-0.01
900	-0.01
901	-0.01
901	-0.01
901	-0.01
902	-0.01
902	-0.011
903	-0.011
903	-0.011
904	-0.011
904	-0.011
904	-0.011
905	-0.012
905	-0.012
906	-0.012
906	-0.012
907	-0.012
907	-0.012
907	-0.012
908	-0.012
908	-0.012
909	-0.011
909	-0.011
910	-0.01
910	-0.009
910	-0.009
911	-0.008
911	-0.007
912	-0.007
912	-0.007
913	-0.007
913	-0.007
913	-0.007
914	-0.008
914	-0.009
915	-0.009
915	-0.01
916	-0.011
916	-0.012
916	-0.012
917	-0.012
917	-0.012
918	-0.012
918	-0.011
918	-0.011
919	-0.01
919	-0.009
920	-0.008
920	-0.007
921	-0.006
921	-0.005
921	-0.005
922	-0.004
922	-0.003
923	-0.003
923	-0.002
924	-0.002
924	-0.002
924	-0.001
925	-0.002
925	-0.001
926	-0.001
926	-0.001
927	-0.002
927	-0.002
927	-0.003
928	-0.003
928	-0.003
929	-0.003
929	-0.004
930	-0.004
930	-0.004
930	-0.004
931	-0.005
931	-0.005
932	-0.005
932	-0.005
933	-0.005
933	-0.006
933	-0.006
934	-0.006
934	-0.006
935	-0.007
935	-0.007
935	-0.007
936	-0.007
936	-0.007
937	-0.006
937	-0.006
938	-0.005
938	-0.005
938	-0.004
939	-0.003
939	-0.003
940	-0.001
940	-0.001
941	0.001
941	0.002
941	0.003
942	0.003
942	0.004
943	0.005
943	0.005
944	0.006
944	0.006
944	0.006
945	0.007
945	0.007
946	0.007
946	0.007
946	0.007
947	0.007
947	0.006
948	0.006
948	0.006
949	0.006
949	0.006
949	0.005
950	0.005
950	0.005
951	0.005
951	0.004
952	0.004
952	0.005
952	0.005
953	0.005
953	0.005
954	0.005
954	0.005
955	0.005
955	0.006
955	0.006
956	0.006
956	0.006
957	0.006
957	0.006
957	0.005
958	0.005
958	0.004
959	0.004
959	0.003
960	0.002
960	0.001
960	-0.001
961	-0.002
961	-0.003
962	-0.003
962	-0.004
963	-0.004
963	-0.004
963	-0.004
964	-0.004
964	-0.004
965	-0.003
965	-0.003
966	-0.002
966	-0.001
966	-0
967	0
967	0
968	0
968	0
968	0
969	0
969	0
970	0
970	0
971	0
971	0.001
971	0.001
972	0.001
972	0.002
973	0.002
973	0.002
974	0.002
974	0.002
974	0.002
975	0.001
975	0
976	-0
976	-0.001
976	-0.003
977	-0.004
977	-0.005
978	-0.005
978	-0.006
979	-0.007
979	-0.007
979	-0.007
980	-0.007
980	-0.007
981	-0.006
981	-0.005
982	-0.004
982	-0.003
982	-0.003
983	-0.002
983	-0.001
984	-0
984	0.001
984	0.001
985	0.002
985	0.002
986	0.001
986	0.001
987	0.001
987	0
987	0
988	-0
988	-0.001
989	-0.002
989	-0.003
990	-0.003
990	-0.004
990	-0.005
991	-0.005
991	-0.006
992	-0.006
992	-0.007
992	-0.008
993	-0.009
993	-0.01
994	-0.011
994	-0.012
995	-0.013
995	-0.014
995	-0.015
996	-0.016
996	-0.016
997	-0.017
997	-0.016
997	-0.016
998	-0.015
998	-0.014
999	-0.013
999	-0.012
1000	-0.011
1000	-0.009
1000	-0.008
1001	-0.007
1001	-0.006
1002	-0.005
1002	-0.004
1003	-0.003
1003	-0.002
1003	-0.002
1004	-0.001
1004	-0.001
1005	-0.001
1005	-0.001
1005	-0.001
1006	-0.001
1006	-0.001
1007	-0.001
1007	-0.002
1008	-0.002
1008	-0.002
1008	-0.002
1009	-0.002
1009	-0.002
1010	-0.002
1010	-0.002
1010	-0.002
1011	-0.002
1011	-0.002
1012	-0.002
1012	-0.002
1013	-0.002
1013	-0.003
1013	-0.004
1014	-0.004
1014	-0.005
1015	-0.006
1015	-0.007
1016	-0.008
1016	-0.009
1016	-0.01
1017	-0.01
1017	-0.011
1018	-0.011
1018	-0.012
1018	-0.012
1019	-0.012
1019	-0.012
1020	-0.012
1020	-0.011
1021	-0.011
1021	-0.011
1021	-0.011
1022	-0.011
1022	-0.011
1023	-0.011
1023	-0.011
1023	-0.011
1024	-0.012
1024	-0.013
1025	-0.013
1025	-0.014
1026	-0.014
1026	-0.015
1026	-0.015
1027	-0.015
1027	-0.015
1028	-0.014
1028	-0.013
1028	-0.013
1029	-0.012
1029	-0.01
1030	-0.009
1030	-0.008
1031	-0.007
1031	-0.006
1031	-0.004
1032	-0.003
1032	-0.002
1033	-0.001
1033	-0.001
1033	-0.001
1034	-0.001
1034	-0.002
1035	-0.003
1035	-0.003
1036	-0.004
1036	-0.005
1036	-0.005
1037	-0.006
1037	-0.007
1038	-0.008
1038	-0.008
1039	-0.008
1039	-0.008
1039	-0.008
1040	-0.008
1040	-0.008
1041	-0.008
1041	-0.008
1041	-0.008
1042	-0.009
1042	-0.009
1043	-0.009
1043	-0.009
1044	-0.009
1044	-0.009
1044	-0.009
1045	-0.009
1045	-0.009
1046	-0.008
1046	-0.007
1046	-0.006
1047	-0.005
1047	-0.004
1048	-0.002
1048	-0.002
1049	-0.001
1049	-0.001
1049	-0
1050	0
1050	0
1051	0.001
1051	0.001
1051	0.002
1052	0.002
1052	0.003
1053	0.003
1053	0.004
1053	0.005
1054	0.006
1054	0.007
1055	0.008
1055	0.009
1056	0.009
1056	0.009
1056	0.009
1057	0.009
1057	0.009
1058	0.009
1058	0.009
1058	0.009
1059	0.009
1059	0.009
1060	0.009
1060	0.01
1061	0.011
1061	0.012
1061	0.012
1062	0.013
1062	0.014
1063	0.015
1063	0.015
1063	0.015
1064	0.017
1064	0.018
1065	0.019
1065	0.019
1066	0.02
1066	0.021
1066	0.022
1067	0.023
1067	0.024
1068	0.025
1068	0.027
1068	0.027
1069	0.028
1069	0.028
1070	0.029
1070	0.031
1071	0.032
1071	0.033
1071	0.034
1072	0.036
1072	0.038
1073	0.04
1073	0.042
1073	0.044
1074	0.046
1074	0.048
1075	0.049
1075	0.05
1076	0.052
1076	0.054
1076	0.055
1077	0.056
1077	0.058
1078	0.06
1078	0.062
1078	0.064
1079	0.066
1079	0.068
1080	0.07
1080	0.073
1080	0.074
1081	0.077
1081	0.079
1082	0.082
1082	0.083
1083	0.086
1083	0.089
1083	0.093
1084	0.096
1084	0.099
1085	0.102
1085	0.107
1085	0.111
1086	0.114
1086	0.117
1087	0.121
1087	0.125
1088	0.128
1088	0.132
1088	0.137
1089	0.141
1089	0.146
1090	0.151
1090	0.157
1090	0.164
1091	0.171
1091	0.18
1092	0.189
1092	0.199
1092	0.209
1093	0.219
1093	0.233
1094	0.245
1094	0.259
1095	0.273
1095	0.29
1095	0.311
1096	0.331
1096	0.353
1097	0.379
1097	0.404
1097	0.436
1098	0.469
1098	0.509
1099	0.556
1099	0.609
1100	0.674
1100	0.751
1100	0.853
1101	1.002
1101	1.237
1102	2.029
1102	-0
1102	-0
1103	-0
1103	-0
1104	-0
1104	-0
1104	-0
1105	-0
1105	-0
1106	-0
1106	-0
1107	-0
1107	-0
1107	-0
1108	-0
1108	-0
1109	-0
1109	-0
1109	-0
1110	-0
1110	-0
1111	-0
1111	-0
