Data from 15c-100ul-ns-20ul-nr-full-exp-7ul-bp_Absorbance__212__03384.txt Node

Date: Mon Jan 15 11:22:14 CET 2024
User: Marek
Spectrometer: MAYP115816
Trigger mode: 0
Integration Time (sec): 2.000000E-1
Scans to average: 10
Electric dark correction enabled: true
Nonlinearity correction enabled: true
Boxcar width: 5
XAxis mode: Wavelengths
Number of Pixels in Spectrum: 2068
>>>>>Begin Spectral Data<<<<<
199	-2.038
199	-1.906
200	-1.762
200	-1.651
201	-1.576
201	-1.526
202	-1.453
202	-1.397
203	-1.346
203	-1.305
204	-1.276
204	-1.253
205	-1.231
205	-1.223
205	-1.22
206	-1.218
206	-1.216
207	-1.212
207	-1.209
208	-1.207
208	-1.201
209	-1.2
209	-1.198
210	-1.198
210	-1.196
211	-1.194
211	-1.192
212	-1.189
212	-1.189
213	-1.188
213	-1.187
213	-1.188
214	-1.187
214	-1.187
215	-1.186
215	-1.187
216	-1.186
216	-1.185
217	-1.184
217	-1.183
218	-1.182
218	-1.178
219	-1.177
219	-1.175
220	-1.17
220	-1.166
221	-1.162
221	-1.157
221	-1.152
222	-1.147
222	-1.142
223	-1.134
223	-1.13
224	-1.124
224	-1.116
225	-1.107
225	-1.096
226	-1.086
226	-1.074
227	-1.06
227	-1.043
228	-1.023
228	-1.003
229	-0.979
229	-0.95
229	-0.921
230	-0.889
230	-0.854
231	-0.814
231	-0.775
232	-0.734
232	-0.689
233	-0.644
233	-0.598
234	-0.551
234	-0.504
235	-0.457
235	-0.411
236	-0.366
236	-0.322
236	-0.28
237	-0.239
237	-0.2
238	-0.164
238	-0.129
239	-0.096
239	-0.065
240	-0.037
240	-0.012
241	0.012
241	0.035
242	0.055
242	0.075
243	0.092
243	0.108
243	0.123
244	0.136
244	0.149
245	0.16
245	0.171
246	0.181
246	0.19
247	0.198
247	0.205
248	0.212
248	0.219
249	0.225
249	0.231
250	0.236
250	0.241
250	0.246
251	0.25
251	0.255
252	0.259
252	0.262
253	0.266
253	0.269
254	0.272
254	0.275
255	0.277
255	0.279
256	0.281
256	0.283
257	0.285
257	0.286
258	0.287
258	0.289
258	0.29
259	0.291
259	0.292
260	0.292
260	0.293
261	0.293
261	0.294
262	0.294
262	0.294
263	0.294
263	0.294
264	0.293
264	0.293
265	0.293
265	0.292
265	0.292
266	0.291
266	0.29
267	0.29
267	0.289
268	0.288
268	0.287
269	0.286
269	0.285
270	0.283
270	0.282
271	0.281
271	0.279
272	0.278
272	0.277
272	0.276
273	0.275
273	0.273
274	0.272
274	0.271
275	0.269
275	0.268
276	0.266
276	0.265
277	0.263
277	0.261
278	0.259
278	0.258
278	0.256
279	0.254
279	0.252
280	0.251
280	0.249
281	0.248
281	0.247
282	0.245
282	0.244
283	0.243
283	0.242
284	0.241
284	0.24
285	0.239
285	0.237
285	0.236
286	0.235
286	0.234
287	0.232
287	0.231
288	0.23
288	0.229
289	0.228
289	0.227
290	0.226
290	0.225
291	0.224
291	0.223
292	0.222
292	0.221
292	0.22
293	0.219
293	0.218
294	0.217
294	0.216
295	0.215
295	0.214
296	0.214
296	0.213
297	0.212
297	0.211
298	0.21
298	0.209
298	0.209
299	0.208
299	0.207
300	0.207
300	0.206
301	0.205
301	0.205
302	0.204
302	0.203
303	0.203
303	0.202
304	0.201
304	0.201
305	0.2
305	0.199
305	0.199
306	0.198
306	0.197
307	0.196
307	0.195
308	0.195
308	0.194
309	0.193
309	0.192
310	0.191
310	0.191
311	0.19
311	0.189
311	0.188
312	0.188
312	0.187
313	0.186
313	0.186
314	0.185
314	0.184
315	0.183
315	0.183
316	0.182
316	0.181
317	0.181
317	0.18
318	0.179
318	0.178
318	0.177
319	0.177
319	0.176
320	0.175
320	0.174
321	0.173
321	0.172
322	0.172
322	0.171
323	0.17
323	0.169
324	0.168
324	0.168
324	0.167
325	0.166
325	0.166
326	0.165
326	0.164
327	0.164
327	0.163
328	0.162
328	0.162
329	0.161
329	0.16
330	0.159
330	0.159
330	0.158
331	0.157
331	0.156
332	0.156
332	0.155
333	0.154
333	0.153
334	0.153
334	0.152
335	0.151
335	0.151
336	0.15
336	0.149
336	0.148
337	0.148
337	0.147
338	0.147
338	0.146
339	0.146
339	0.145
340	0.144
340	0.144
341	0.143
341	0.142
342	0.142
342	0.141
342	0.141
343	0.14
343	0.14
344	0.139
344	0.138
345	0.138
345	0.137
346	0.136
346	0.136
347	0.135
347	0.135
348	0.134
348	0.134
348	0.133
349	0.132
349	0.132
350	0.131
350	0.13
351	0.13
351	0.129
352	0.128
352	0.128
353	0.127
353	0.126
354	0.125
354	0.125
354	0.124
355	0.123
355	0.122
356	0.122
356	0.122
357	0.122
357	0.122
358	0.122
358	0.122
359	0.122
359	0.123
360	0.123
360	0.123
360	0.123
361	0.124
361	0.124
362	0.123
362	0.123
363	0.123
363	0.123
364	0.123
364	0.122
365	0.122
365	0.121
366	0.121
366	0.121
366	0.12
367	0.12
367	0.12
368	0.12
368	0.119
369	0.119
369	0.118
370	0.118
370	0.118
371	0.117
371	0.117
372	0.117
372	0.116
372	0.116
373	0.116
373	0.116
374	0.116
374	0.116
375	0.116
375	0.115
376	0.115
376	0.115
377	0.115
377	0.116
378	0.116
378	0.116
378	0.116
379	0.116
379	0.116
380	0.116
380	0.116
381	0.116
381	0.115
382	0.115
382	0.115
383	0.115
383	0.114
383	0.114
384	0.114
384	0.113
385	0.113
385	0.113
386	0.113
386	0.112
387	0.112
387	0.112
388	0.112
388	0.111
389	0.111
389	0.111
389	0.111
390	0.111
390	0.111
391	0.111
391	0.112
392	0.112
392	0.112
393	0.112
393	0.112
394	0.111
394	0.111
394	0.111
395	0.11
395	0.11
396	0.11
396	0.109
397	0.11
397	0.11
398	0.11
398	0.11
399	0.11
399	0.11
400	0.109
400	0.109
400	0.109
401	0.108
401	0.107
402	0.106
402	0.106
403	0.106
403	0.105
404	0.105
404	0.105
405	0.105
405	0.104
405	0.104
406	0.104
406	0.104
407	0.104
407	0.104
408	0.103
408	0.103
409	0.102
409	0.102
410	0.102
410	0.101
411	0.101
411	0.101
411	0.101
412	0.1
412	0.1
413	0.099
413	0.099
414	0.099
414	0.098
415	0.098
415	0.098
416	0.097
416	0.097
416	0.096
417	0.096
417	0.096
418	0.096
418	0.096
419	0.096
419	0.097
420	0.097
420	0.098
421	0.098
421	0.098
421	0.099
422	0.099
422	0.099
423	0.099
423	0.099
424	0.098
424	0.097
425	0.096
425	0.095
426	0.095
426	0.095
427	0.094
427	0.094
427	0.094
428	0.095
428	0.095
429	0.096
429	0.096
430	0.096
430	0.096
431	0.096
431	0.096
432	0.095
432	0.095
432	0.094
433	0.093
433	0.092
434	0.091
434	0.091
435	0.091
435	0.091
436	0.09
436	0.091
437	0.091
437	0.091
437	0.091
438	0.091
438	0.09
439	0.09
439	0.09
440	0.089
440	0.089
441	0.089
441	0.089
442	0.09
442	0.09
442	0.09
443	0.09
443	0.091
444	0.091
444	0.091
445	0.091
445	0.091
446	0.091
446	0.091
447	0.091
447	0.09
447	0.09
448	0.09
448	0.09
449	0.09
449	0.089
450	0.089
450	0.089
451	0.088
451	0.088
452	0.087
452	0.087
452	0.086
453	0.086
453	0.085
454	0.085
454	0.085
455	0.084
455	0.084
456	0.084
456	0.084
457	0.084
457	0.084
458	0.084
458	0.084
458	0.084
459	0.084
459	0.084
460	0.084
460	0.083
461	0.083
461	0.082
462	0.082
462	0.082
463	0.082
463	0.083
463	0.083
464	0.083
464	0.083
465	0.083
465	0.083
466	0.083
466	0.083
467	0.083
467	0.083
467	0.082
468	0.08
468	0.079
469	0.077
469	0.076
470	0.076
470	0.075
471	0.075
471	0.075
472	0.075
472	0.075
472	0.076
473	0.077
473	0.078
474	0.079
474	0.08
475	0.081
475	0.081
476	0.081
476	0.081
477	0.081
477	0.081
477	0.081
478	0.081
478	0.082
479	0.082
479	0.082
480	0.083
480	0.084
481	0.085
481	0.085
482	0.086
482	0.087
482	0.089
483	0.091
483	0.093
484	0.096
484	0.098
485	0.099
485	0.101
486	0.101
486	0.102
487	0.103
487	0.103
487	0.103
488	0.103
488	0.101
489	0.1
489	0.099
490	0.098
490	0.098
491	0.098
491	0.098
492	0.099
492	0.099
492	0.1
493	0.101
493	0.102
494	0.104
494	0.106
495	0.108
495	0.109
496	0.111
496	0.112
496	0.113
497	0.114
497	0.115
498	0.116
498	0.116
499	0.117
499	0.117
500	0.117
500	0.118
501	0.119
501	0.121
501	0.122
502	0.123
502	0.124
503	0.126
503	0.127
504	0.128
504	0.128
505	0.129
505	0.129
506	0.13
506	0.13
506	0.13
507	0.131
507	0.131
508	0.132
508	0.133
509	0.133
509	0.134
510	0.135
510	0.136
511	0.136
511	0.137
511	0.137
512	0.137
512	0.137
513	0.137
513	0.137
514	0.136
514	0.136
515	0.135
515	0.134
515	0.134
516	0.133
516	0.133
517	0.134
517	0.134
518	0.135
518	0.135
519	0.134
519	0.133
520	0.133
520	0.131
520	0.13
521	0.127
521	0.125
522	0.122
522	0.12
523	0.118
523	0.116
524	0.116
524	0.116
524	0.117
525	0.119
525	0.121
526	0.123
526	0.126
527	0.13
527	0.132
528	0.135
528	0.137
529	0.138
529	0.14
529	0.141
530	0.141
530	0.141
531	0.142
531	0.142
532	0.141
532	0.141
533	0.141
533	0.141
533	0.141
534	0.14
534	0.139
535	0.138
535	0.138
536	0.137
536	0.137
537	0.136
537	0.136
538	0.135
538	0.134
538	0.133
539	0.132
539	0.131
540	0.13
540	0.129
541	0.127
541	0.125
542	0.124
542	0.122
542	0.121
543	0.12
543	0.118
544	0.117
544	0.116
545	0.115
545	0.114
546	0.114
546	0.113
547	0.112
547	0.11
547	0.108
548	0.106
548	0.105
549	0.103
549	0.101
550	0.099
550	0.097
551	0.095
551	0.093
551	0.091
552	0.09
552	0.089
553	0.088
553	0.087
554	0.087
554	0.085
555	0.084
555	0.082
556	0.079
556	0.077
556	0.074
557	0.072
557	0.07
558	0.069
558	0.067
559	0.065
559	0.064
560	0.063
560	0.062
560	0.062
561	0.062
561	0.062
562	0.062
562	0.06
563	0.059
563	0.057
564	0.055
564	0.053
564	0.051
565	0.049
565	0.048
566	0.047
566	0.046
567	0.045
567	0.046
568	0.046
568	0.047
568	0.049
569	0.05
569	0.052
570	0.052
570	0.052
571	0.053
571	0.053
572	0.053
572	0.053
573	0.053
573	0.052
573	0.051
574	0.05
574	0.05
575	0.05
575	0.051
576	0.051
576	0.05
577	0.049
577	0.047
577	0.047
578	0.046
578	0.046
579	0.046
579	0.047
580	0.046
580	0.044
581	0.041
581	0.039
581	0.039
582	0.039
582	0.039
583	0.039
583	0.038
584	0.035
584	0.032
585	0.031
585	0.031
585	0.031
586	0.031
586	0.031
587	0.029
587	0.027
588	0.025
588	0.023
589	0.022
589	0.022
590	0.021
590	0.02
590	0.021
591	0.021
591	0.021
592	0.021
592	0.02
593	0.02
593	0.019
594	0.019
594	0.017
594	0.017
595	0.017
595	0.016
596	0.015
596	0.016
597	0.018
597	0.02
598	0.021
598	0.022
598	0.023
599	0.024
599	0.023
600	0.022
600	0.021
601	0.02
601	0.019
602	0.017
602	0.015
602	0.014
603	0.013
603	0.013
604	0.013
604	0.014
605	0.015
605	0.017
606	0.017
606	0.017
606	0.016
607	0.016
607	0.016
608	0.015
608	0.014
609	0.013
609	0.013
610	0.012
610	0.01
610	0.01
611	0.011
611	0.012
612	0.013
612	0.015
613	0.016
613	0.018
614	0.018
614	0.017
614	0.017
615	0.016
615	0.016
616	0.015
616	0.015
617	0.014
617	0.013
618	0.012
618	0.011
618	0.011
619	0.011
619	0.012
620	0.013
620	0.014
621	0.015
621	0.016
622	0.016
622	0.017
622	0.017
623	0.017
623	0.018
624	0.019
624	0.019
625	0.018
625	0.019
626	0.018
626	0.018
626	0.019
627	0.02
627	0.02
628	0.021
628	0.022
629	0.022
629	0.023
630	0.023
630	0.022
630	0.023
631	0.024
631	0.024
632	0.024
632	0.024
633	0.025
633	0.025
634	0.027
634	0.028
634	0.03
635	0.032
635	0.033
636	0.034
636	0.036
637	0.037
637	0.038
638	0.039
638	0.04
638	0.041
639	0.042
639	0.042
640	0.043
640	0.044
641	0.045
641	0.046
642	0.048
642	0.049
642	0.051
643	0.052
643	0.054
644	0.055
644	0.057
645	0.058
645	0.06
646	0.062
646	0.064
646	0.066
647	0.069
647	0.071
648	0.073
648	0.075
649	0.077
649	0.079
650	0.082
650	0.084
650	0.087
651	0.089
651	0.091
652	0.093
652	0.095
653	0.099
653	0.107
653	0.12
654	0.1
654	0.085
655	0.088
655	0.09
656	0.092
656	0.093
657	0.095
657	0.097
657	0.098
658	0.095
658	0.088
659	0.108
659	0.135
660	0.138
660	0.14
661	0.141
661	0.143
661	0.145
662	0.148
662	0.151
663	0.154
663	0.156
664	0.159
664	0.161
665	0.163
665	0.166
665	0.168
666	0.171
666	0.173
667	0.176
667	0.178
668	0.181
668	0.183
669	0.186
669	0.189
669	0.193
670	0.197
670	0.2
671	0.203
671	0.204
672	0.206
672	0.208
672	0.21
673	0.211
673	0.213
674	0.214
674	0.215
675	0.216
675	0.217
676	0.218
676	0.22
676	0.222
677	0.224
677	0.225
678	0.227
678	0.229
679	0.23
679	0.231
680	0.233
680	0.234
680	0.235
681	0.235
681	0.236
682	0.236
682	0.238
683	0.239
683	0.241
684	0.243
684	0.243
684	0.243
685	0.244
685	0.246
686	0.247
686	0.247
687	0.248
687	0.248
687	0.248
688	0.248
688	0.247
689	0.248
689	0.249
690	0.25
690	0.249
691	0.249
691	0.248
691	0.248
692	0.247
692	0.245
693	0.244
693	0.244
694	0.243
694	0.241
695	0.24
695	0.241
695	0.242
696	0.241
696	0.241
697	0.24
697	0.24
698	0.239
698	0.238
698	0.237
699	0.236
699	0.234
700	0.231
700	0.229
701	0.227
701	0.225
702	0.223
702	0.221
702	0.219
703	0.218
703	0.216
704	0.214
704	0.213
705	0.213
705	0.211
705	0.21
706	0.209
706	0.208
707	0.207
707	0.205
708	0.203
708	0.201
709	0.2
709	0.197
709	0.194
710	0.191
710	0.189
711	0.187
711	0.185
712	0.184
712	0.182
713	0.18
713	0.179
713	0.177
714	0.175
714	0.174
715	0.172
715	0.17
716	0.168
716	0.166
716	0.164
717	0.162
717	0.159
718	0.157
718	0.154
719	0.152
719	0.15
720	0.148
720	0.145
720	0.142
721	0.138
721	0.135
722	0.132
722	0.129
723	0.127
723	0.125
723	0.123
724	0.12
724	0.118
725	0.116
725	0.114
726	0.113
726	0.111
727	0.109
727	0.108
727	0.106
728	0.104
728	0.103
729	0.102
729	0.101
730	0.1
730	0.098
730	0.097
731	0.096
731	0.095
732	0.093
732	0.091
733	0.089
733	0.087
734	0.084
734	0.082
734	0.079
735	0.078
735	0.075
736	0.073
736	0.071
737	0.069
737	0.067
737	0.065
738	0.062
738	0.059
739	0.057
739	0.054
740	0.052
740	0.05
741	0.048
741	0.045
741	0.042
742	0.038
742	0.036
743	0.034
743	0.032
744	0.031
744	0.029
744	0.028
745	0.026
745	0.024
746	0.023
746	0.022
747	0.022
747	0.021
748	0.021
748	0.02
748	0.019
749	0.018
749	0.017
750	0.016
750	0.015
751	0.014
751	0.014
751	0.014
752	0.013
752	0.011
753	0.011
753	0.01
754	0.01
754	0.009
754	0.009
755	0.009
755	0.01
756	0.009
756	0.008
757	0.006
757	0.006
758	0.005
758	0.003
758	0.002
759	0.001
759	-0.001
760	-0.004
760	-0.006
761	-0.008
761	-0.009
761	-0.01
762	-0.011
762	-0.012
763	-0.013
763	-0.015
764	-0.017
764	-0.019
764	-0.02
765	-0.022
765	-0.024
766	-0.024
766	-0.025
767	-0.026
767	-0.028
768	-0.03
768	-0.032
768	-0.033
769	-0.034
769	-0.035
770	-0.036
770	-0.038
771	-0.04
771	-0.043
771	-0.046
772	-0.048
772	-0.05
773	-0.052
773	-0.055
774	-0.058
774	-0.061
775	-0.064
775	-0.067
775	-0.07
776	-0.074
776	-0.077
777	-0.081
777	-0.085
778	-0.089
778	-0.093
778	-0.097
779	-0.099
779	-0.099
780	-0.1
780	-0.103
781	-0.104
781	-0.106
781	-0.107
782	-0.109
782	-0.111
783	-0.113
783	-0.114
784	-0.115
784	-0.118
784	-0.12
785	-0.121
785	-0.123
786	-0.124
786	-0.121
787	-0.117
787	-0.113
788	-0.112
788	-0.112
788	-0.113
789	-0.114
789	-0.113
790	-0.11
790	-0.108
791	-0.108
791	-0.11
791	-0.112
792	-0.107
792	-0.097
793	-0.091
793	-0.088
794	-0.087
794	-0.089
794	-0.093
795	-0.096
795	-0.096
796	-0.096
796	-0.099
797	-0.107
797	-0.117
797	-0.123
798	-0.128
798	-0.131
799	-0.131
799	-0.131
800	-0.131
800	-0.133
801	-0.136
801	-0.138
801	-0.138
802	-0.14
802	-0.141
803	-0.142
803	-0.142
804	-0.141
804	-0.136
804	-0.13
805	-0.126
805	-0.123
806	-0.121
806	-0.12
807	-0.118
807	-0.118
807	-0.118
808	-0.118
808	-0.119
809	-0.123
809	-0.129
810	-0.132
810	-0.135
810	-0.138
811	-0.14
811	-0.14
812	-0.136
812	-0.132
813	-0.131
813	-0.131
813	-0.132
814	-0.132
814	-0.131
815	-0.129
815	-0.126
816	-0.124
816	-0.125
817	-0.129
817	-0.133
817	-0.134
818	-0.133
818	-0.13
819	-0.125
819	-0.123
820	-0.124
820	-0.127
820	-0.128
821	-0.128
821	-0.127
822	-0.127
822	-0.125
823	-0.123
823	-0.124
823	-0.125
824	-0.125
824	-0.12
825	-0.115
825	-0.108
826	-0.102
826	-0.097
826	-0.092
827	-0.087
827	-0.083
828	-0.079
828	-0.075
829	-0.072
829	-0.07
829	-0.068
830	-0.067
830	-0.066
831	-0.063
831	-0.061
832	-0.06
832	-0.058
832	-0.057
833	-0.055
833	-0.054
834	-0.052
834	-0.051
835	-0.049
835	-0.048
835	-0.047
836	-0.046
836	-0.045
837	-0.044
837	-0.043
838	-0.043
838	-0.043
839	-0.042
839	-0.042
839	-0.042
840	-0.041
840	-0.04
841	-0.039
841	-0.038
842	-0.037
842	-0.036
842	-0.035
843	-0.034
843	-0.033
844	-0.032
844	-0.031
845	-0.031
845	-0.03
845	-0.03
846	-0.03
846	-0.03
847	-0.03
847	-0.029
848	-0.029
848	-0.029
848	-0.029
849	-0.029
849	-0.028
850	-0.028
850	-0.028
851	-0.028
851	-0.028
851	-0.028
852	-0.028
852	-0.028
853	-0.027
853	-0.027
854	-0.027
854	-0.027
854	-0.026
855	-0.026
855	-0.026
856	-0.026
856	-0.025
857	-0.025
857	-0.025
857	-0.024
858	-0.024
858	-0.023
859	-0.023
859	-0.022
860	-0.021
860	-0.02
860	-0.02
861	-0.019
861	-0.019
862	-0.018
862	-0.018
863	-0.018
863	-0.018
863	-0.018
864	-0.018
864	-0.019
865	-0.019
865	-0.02
866	-0.021
866	-0.021
866	-0.022
867	-0.022
867	-0.022
868	-0.022
868	-0.021
869	-0.021
869	-0.02
869	-0.02
870	-0.02
870	-0.02
871	-0.02
871	-0.02
872	-0.021
872	-0.021
872	-0.022
873	-0.023
873	-0.023
874	-0.024
874	-0.025
875	-0.025
875	-0.026
875	-0.026
876	-0.027
876	-0.027
877	-0.028
877	-0.028
878	-0.029
878	-0.03
878	-0.03
879	-0.03
879	-0.031
880	-0.031
880	-0.03
881	-0.03
881	-0.029
881	-0.027
882	-0.026
882	-0.024
883	-0.023
883	-0.021
884	-0.019
884	-0.018
884	-0.017
885	-0.016
885	-0.014
886	-0.014
886	-0.013
887	-0.012
887	-0.012
887	-0.011
888	-0.011
888	-0.011
889	-0.01
889	-0.009
890	-0.008
890	-0.008
890	-0.007
891	-0.007
891	-0.007
892	-0.007
892	-0.007
893	-0.008
893	-0.008
893	-0.009
894	-0.01
894	-0.011
895	-0.012
895	-0.013
895	-0.015
896	-0.016
896	-0.016
897	-0.016
897	-0.016
898	-0.016
898	-0.016
898	-0.016
899	-0.016
899	-0.016
900	-0.016
900	-0.016
901	-0.016
901	-0.016
901	-0.016
902	-0.017
902	-0.017
903	-0.017
903	-0.017
904	-0.017
904	-0.018
904	-0.018
905	-0.018
905	-0.018
906	-0.018
906	-0.018
907	-0.019
907	-0.019
907	-0.019
908	-0.019
908	-0.018
909	-0.018
909	-0.017
910	-0.016
910	-0.016
910	-0.015
911	-0.015
911	-0.014
912	-0.014
912	-0.013
913	-0.013
913	-0.013
913	-0.014
914	-0.014
914	-0.015
915	-0.016
915	-0.017
916	-0.018
916	-0.018
916	-0.019
917	-0.019
917	-0.019
918	-0.019
918	-0.019
918	-0.018
919	-0.017
919	-0.017
920	-0.015
920	-0.014
921	-0.013
921	-0.013
921	-0.012
922	-0.011
922	-0.01
923	-0.009
923	-0.009
924	-0.008
924	-0.008
924	-0.008
925	-0.007
925	-0.007
926	-0.007
926	-0.007
927	-0.007
927	-0.007
927	-0.008
928	-0.008
928	-0.008
929	-0.009
929	-0.009
930	-0.009
930	-0.01
930	-0.01
931	-0.011
931	-0.011
932	-0.012
932	-0.012
933	-0.012
933	-0.013
933	-0.013
934	-0.013
934	-0.014
935	-0.014
935	-0.015
935	-0.015
936	-0.015
936	-0.015
937	-0.014
937	-0.014
938	-0.014
938	-0.013
938	-0.013
939	-0.012
939	-0.011
940	-0.01
940	-0.009
941	-0.007
941	-0.007
941	-0.005
942	-0.005
942	-0.004
943	-0.003
943	-0.003
944	-0.003
944	-0.002
944	-0.002
945	-0.001
945	-0.001
946	-0.001
946	-0.001
946	-0.001
947	-0.001
947	-0.002
948	-0.002
948	-0.002
949	-0.003
949	-0.003
949	-0.003
950	-0.003
950	-0.004
951	-0.004
951	-0.004
952	-0.004
952	-0.003
952	-0.003
953	-0.003
953	-0.003
954	-0.003
954	-0.003
955	-0.002
955	-0.002
955	-0.002
956	-0.001
956	-0.001
957	-0.001
957	-0.001
957	-0.002
958	-0.002
958	-0.003
959	-0.003
959	-0.004
960	-0.005
960	-0.006
960	-0.007
961	-0.009
961	-0.01
962	-0.011
962	-0.011
963	-0.012
963	-0.012
963	-0.012
964	-0.012
964	-0.011
965	-0.01
965	-0.01
966	-0.009
966	-0.008
966	-0.007
967	-0.006
967	-0.006
968	-0.005
968	-0.005
968	-0.005
969	-0.005
969	-0.005
970	-0.005
970	-0.005
971	-0.006
971	-0.006
971	-0.006
972	-0.005
972	-0.005
973	-0.005
973	-0.005
974	-0.006
974	-0.005
974	-0.006
975	-0.006
975	-0.007
976	-0.008
976	-0.008
976	-0.01
977	-0.011
977	-0.012
978	-0.013
978	-0.014
979	-0.015
979	-0.015
979	-0.015
980	-0.015
980	-0.015
981	-0.015
981	-0.014
982	-0.013
982	-0.012
982	-0.011
983	-0.01
983	-0.009
984	-0.008
984	-0.007
984	-0.007
985	-0.006
985	-0.006
986	-0.006
986	-0.007
987	-0.007
987	-0.007
987	-0.007
988	-0.007
988	-0.008
989	-0.009
989	-0.009
990	-0.01
990	-0.011
990	-0.011
991	-0.012
991	-0.012
992	-0.013
992	-0.014
992	-0.014
993	-0.015
993	-0.016
994	-0.017
994	-0.018
995	-0.019
995	-0.02
995	-0.021
996	-0.022
996	-0.022
997	-0.023
997	-0.023
997	-0.023
998	-0.022
998	-0.021
999	-0.019
999	-0.018
1000	-0.017
1000	-0.016
1000	-0.015
1001	-0.014
1001	-0.013
1002	-0.012
1002	-0.011
1003	-0.01
1003	-0.009
1003	-0.009
1004	-0.009
1004	-0.009
1005	-0.009
1005	-0.009
1005	-0.009
1006	-0.009
1006	-0.009
1007	-0.009
1007	-0.01
1008	-0.01
1008	-0.01
1008	-0.01
1009	-0.009
1009	-0.009
1010	-0.009
1010	-0.009
1010	-0.009
1011	-0.008
1011	-0.009
1012	-0.009
1012	-0.009
1013	-0.01
1013	-0.011
1013	-0.011
1014	-0.012
1014	-0.013
1015	-0.014
1015	-0.015
1016	-0.016
1016	-0.017
1016	-0.018
1017	-0.018
1017	-0.019
1018	-0.019
1018	-0.019
1018	-0.019
1019	-0.019
1019	-0.019
1020	-0.019
1020	-0.019
1021	-0.019
1021	-0.018
1021	-0.018
1022	-0.018
1022	-0.018
1023	-0.018
1023	-0.018
1023	-0.019
1024	-0.019
1024	-0.02
1025	-0.021
1025	-0.021
1026	-0.022
1026	-0.022
1026	-0.022
1027	-0.022
1027	-0.022
1028	-0.021
1028	-0.02
1028	-0.019
1029	-0.018
1029	-0.017
1030	-0.016
1030	-0.015
1031	-0.013
1031	-0.012
1031	-0.011
1032	-0.01
1032	-0.009
1033	-0.008
1033	-0.008
1033	-0.008
1034	-0.009
1034	-0.009
1035	-0.01
1035	-0.011
1036	-0.012
1036	-0.013
1036	-0.014
1037	-0.016
1037	-0.016
1038	-0.017
1038	-0.018
1039	-0.018
1039	-0.018
1039	-0.018
1040	-0.018
1040	-0.018
1041	-0.018
1041	-0.018
1041	-0.018
1042	-0.019
1042	-0.019
1043	-0.019
1043	-0.02
1044	-0.02
1044	-0.02
1044	-0.02
1045	-0.02
1045	-0.02
1046	-0.02
1046	-0.019
1046	-0.018
1047	-0.017
1047	-0.016
1048	-0.015
1048	-0.014
1049	-0.014
1049	-0.013
1049	-0.013
1050	-0.013
1050	-0.012
1051	-0.012
1051	-0.012
1051	-0.011
1052	-0.01
1052	-0.01
1053	-0.009
1053	-0.008
1053	-0.007
1054	-0.006
1054	-0.005
1055	-0.004
1055	-0.003
1056	-0.003
1056	-0.003
1056	-0.004
1057	-0.004
1057	-0.004
1058	-0.004
1058	-0.004
1058	-0.004
1059	-0.005
1059	-0.005
1060	-0.005
1060	-0.004
1061	-0.004
1061	-0.003
1061	-0.003
1062	-0.002
1062	-0.001
1063	-0.001
1063	-0.001
1063	-0.001
1064	0
1064	0.001
1065	0.002
1065	0.002
1066	0.003
1066	0.004
1066	0.005
1067	0.006
1067	0.007
1068	0.007
1068	0.008
1068	0.009
1069	0.01
1069	0.01
1070	0.011
1070	0.012
1071	0.012
1071	0.014
1071	0.014
1072	0.015
1072	0.017
1073	0.018
1073	0.02
1073	0.021
1074	0.023
1074	0.024
1075	0.025
1075	0.027
1076	0.027
1076	0.029
1076	0.029
1077	0.03
1077	0.031
1078	0.032
1078	0.034
1078	0.035
1079	0.036
1079	0.038
1080	0.039
1080	0.041
1080	0.042
1081	0.044
1081	0.046
1082	0.048
1082	0.049
1083	0.05
1083	0.052
1083	0.055
1084	0.057
1084	0.061
1085	0.063
1085	0.067
1085	0.07
1086	0.072
1086	0.073
1087	0.077
1087	0.08
1088	0.081
1088	0.084
1088	0.086
1089	0.089
1089	0.092
1090	0.096
1090	0.101
1090	0.105
1091	0.11
1091	0.117
1092	0.122
1092	0.129
1092	0.136
1093	0.143
1093	0.152
1094	0.16
1094	0.169
1095	0.179
1095	0.19
1095	0.203
1096	0.215
1096	0.23
1097	0.247
1097	0.263
1097	0.281
1098	0.3
1098	0.321
1099	0.345
1099	0.371
1100	0.4
1100	0.433
1100	0.47
1101	0.512
1101	0.563
1102	0.626
1102	0.703
1102	0.808
1103	0.947
1103	1.167
1104	1.736
1104	-0
1104	-0
1105	-0
1105	-0
1106	-0
1106	-0
1107	-0
1107	-0
1107	-0
1108	-0
1108	-0
1109	-0
1109	-0
1109	-0
1110	-0
1110	-0
1111	-0
1111	-0
