Data from 15c-100ul-ns-20ul-nr-full-exp-7ul-bp_Absorbance__161__03333.txt Node

Date: Mon Jan 15 11:20:32 CET 2024
User: Marek
Spectrometer: MAYP115816
Trigger mode: 0
Integration Time (sec): 2.000000E-1
Scans to average: 10
Electric dark correction enabled: true
Nonlinearity correction enabled: true
Boxcar width: 5
XAxis mode: Wavelengths
Number of Pixels in Spectrum: 2068
>>>>>Begin Spectral Data<<<<<
199	-2.045
199	-1.913
200	-1.769
200	-1.657
201	-1.583
201	-1.532
202	-1.46
202	-1.403
203	-1.352
203	-1.311
204	-1.282
204	-1.259
205	-1.238
205	-1.228
205	-1.225
206	-1.223
206	-1.222
207	-1.218
207	-1.215
208	-1.213
208	-1.207
209	-1.206
209	-1.204
210	-1.203
210	-1.202
211	-1.2
211	-1.198
212	-1.195
212	-1.195
213	-1.194
213	-1.192
213	-1.193
214	-1.191
214	-1.192
215	-1.192
215	-1.192
216	-1.191
216	-1.19
217	-1.19
217	-1.189
218	-1.188
218	-1.184
219	-1.182
219	-1.181
220	-1.176
220	-1.171
221	-1.167
221	-1.162
221	-1.156
222	-1.152
222	-1.146
223	-1.139
223	-1.135
224	-1.129
224	-1.121
225	-1.113
225	-1.102
226	-1.092
226	-1.081
227	-1.066
227	-1.049
228	-1.029
228	-1.009
229	-0.984
229	-0.955
229	-0.926
230	-0.894
230	-0.859
231	-0.82
231	-0.781
232	-0.739
232	-0.694
233	-0.649
233	-0.603
234	-0.556
234	-0.509
235	-0.462
235	-0.417
236	-0.372
236	-0.328
236	-0.285
237	-0.244
237	-0.206
238	-0.169
238	-0.134
239	-0.101
239	-0.071
240	-0.043
240	-0.017
241	0.008
241	0.03
242	0.05
242	0.069
243	0.087
243	0.103
243	0.117
244	0.131
244	0.144
245	0.155
245	0.165
246	0.175
246	0.184
247	0.192
247	0.2
248	0.207
248	0.214
249	0.22
249	0.226
250	0.231
250	0.236
250	0.241
251	0.246
251	0.25
252	0.254
252	0.258
253	0.261
253	0.264
254	0.267
254	0.27
255	0.272
255	0.275
256	0.276
256	0.278
257	0.28
257	0.282
258	0.283
258	0.285
258	0.286
259	0.287
259	0.287
260	0.288
260	0.289
261	0.289
261	0.29
262	0.29
262	0.289
263	0.289
263	0.289
264	0.289
264	0.289
265	0.288
265	0.288
265	0.287
266	0.287
266	0.286
267	0.285
267	0.285
268	0.284
268	0.282
269	0.281
269	0.28
270	0.279
270	0.277
271	0.276
271	0.275
272	0.274
272	0.273
272	0.271
273	0.27
273	0.269
274	0.268
274	0.266
275	0.265
275	0.263
276	0.262
276	0.26
277	0.258
277	0.257
278	0.255
278	0.253
278	0.252
279	0.25
279	0.248
280	0.247
280	0.245
281	0.244
281	0.243
282	0.241
282	0.24
283	0.239
283	0.238
284	0.237
284	0.236
285	0.235
285	0.233
285	0.232
286	0.231
286	0.23
287	0.229
287	0.228
288	0.226
288	0.225
289	0.224
289	0.223
290	0.222
290	0.221
291	0.22
291	0.219
292	0.218
292	0.217
292	0.216
293	0.215
293	0.214
294	0.213
294	0.212
295	0.211
295	0.211
296	0.21
296	0.209
297	0.208
297	0.207
298	0.207
298	0.206
298	0.205
299	0.205
299	0.204
300	0.203
300	0.203
301	0.202
301	0.201
302	0.2
302	0.2
303	0.199
303	0.199
304	0.198
304	0.197
305	0.197
305	0.196
305	0.195
306	0.194
306	0.194
307	0.193
307	0.192
308	0.191
308	0.19
309	0.19
309	0.189
310	0.188
310	0.187
311	0.187
311	0.186
311	0.185
312	0.185
312	0.184
313	0.183
313	0.183
314	0.182
314	0.181
315	0.18
315	0.18
316	0.179
316	0.178
317	0.178
317	0.177
318	0.176
318	0.175
318	0.174
319	0.173
319	0.173
320	0.172
320	0.171
321	0.17
321	0.17
322	0.169
322	0.168
323	0.167
323	0.167
324	0.166
324	0.165
324	0.164
325	0.163
325	0.163
326	0.162
326	0.161
327	0.161
327	0.16
328	0.159
328	0.159
329	0.158
329	0.157
330	0.156
330	0.156
330	0.155
331	0.154
331	0.154
332	0.153
332	0.152
333	0.152
333	0.151
334	0.15
334	0.149
335	0.149
335	0.148
336	0.147
336	0.147
336	0.146
337	0.145
337	0.145
338	0.144
338	0.143
339	0.143
339	0.142
340	0.142
340	0.141
341	0.14
341	0.14
342	0.139
342	0.139
342	0.138
343	0.138
343	0.137
344	0.136
344	0.136
345	0.135
345	0.135
346	0.134
346	0.134
347	0.133
347	0.132
348	0.132
348	0.131
348	0.131
349	0.13
349	0.129
350	0.129
350	0.128
351	0.128
351	0.127
352	0.126
352	0.125
353	0.125
353	0.124
354	0.123
354	0.122
354	0.121
355	0.12
355	0.12
356	0.119
356	0.119
357	0.119
357	0.119
358	0.119
358	0.119
359	0.119
359	0.12
360	0.12
360	0.12
360	0.121
361	0.121
361	0.121
362	0.121
362	0.12
363	0.12
363	0.12
364	0.12
364	0.119
365	0.119
365	0.119
366	0.119
366	0.118
366	0.118
367	0.118
367	0.117
368	0.117
368	0.117
369	0.116
369	0.116
370	0.115
370	0.115
371	0.115
371	0.114
372	0.114
372	0.113
372	0.113
373	0.113
373	0.113
374	0.113
374	0.113
375	0.113
375	0.113
376	0.113
376	0.113
377	0.113
377	0.113
378	0.113
378	0.113
378	0.113
379	0.113
379	0.113
380	0.113
380	0.113
381	0.113
381	0.113
382	0.113
382	0.112
383	0.112
383	0.111
383	0.111
384	0.111
384	0.11
385	0.11
385	0.11
386	0.11
386	0.11
387	0.109
387	0.109
388	0.109
388	0.109
389	0.109
389	0.109
389	0.109
390	0.109
390	0.109
391	0.109
391	0.109
392	0.109
392	0.109
393	0.109
393	0.109
394	0.109
394	0.109
394	0.108
395	0.108
395	0.108
396	0.107
396	0.107
397	0.107
397	0.107
398	0.107
398	0.107
399	0.107
399	0.107
400	0.107
400	0.107
400	0.106
401	0.106
401	0.105
402	0.104
402	0.103
403	0.103
403	0.103
404	0.103
404	0.102
405	0.102
405	0.102
405	0.102
406	0.101
406	0.101
407	0.101
407	0.101
408	0.101
408	0.1
409	0.1
409	0.1
410	0.1
410	0.099
411	0.099
411	0.099
411	0.099
412	0.098
412	0.098
413	0.097
413	0.097
414	0.097
414	0.096
415	0.096
415	0.095
416	0.095
416	0.095
416	0.094
417	0.094
417	0.093
418	0.093
418	0.094
419	0.094
419	0.094
420	0.095
420	0.095
421	0.096
421	0.096
421	0.096
422	0.096
422	0.097
423	0.097
423	0.096
424	0.096
424	0.095
425	0.094
425	0.094
426	0.093
426	0.093
427	0.093
427	0.092
427	0.093
428	0.093
428	0.093
429	0.094
429	0.094
430	0.094
430	0.094
431	0.094
431	0.094
432	0.093
432	0.092
432	0.091
433	0.09
433	0.089
434	0.089
434	0.088
435	0.088
435	0.088
436	0.088
436	0.088
437	0.088
437	0.088
437	0.088
438	0.088
438	0.088
439	0.088
439	0.088
440	0.088
440	0.087
441	0.087
441	0.087
442	0.087
442	0.088
442	0.088
443	0.088
443	0.088
444	0.089
444	0.089
445	0.089
445	0.089
446	0.089
446	0.089
447	0.089
447	0.088
447	0.088
448	0.088
448	0.088
449	0.088
449	0.087
450	0.087
450	0.087
451	0.086
451	0.086
452	0.086
452	0.085
452	0.084
453	0.084
453	0.083
454	0.083
454	0.082
455	0.082
455	0.082
456	0.082
456	0.081
457	0.081
457	0.081
458	0.082
458	0.082
458	0.082
459	0.082
459	0.082
460	0.082
460	0.081
461	0.081
461	0.08
462	0.08
462	0.08
463	0.08
463	0.08
463	0.081
464	0.081
464	0.081
465	0.081
465	0.081
466	0.081
466	0.081
467	0.081
467	0.081
467	0.08
468	0.078
468	0.077
469	0.075
469	0.074
470	0.074
470	0.073
471	0.073
471	0.073
472	0.074
472	0.074
472	0.074
473	0.075
473	0.076
474	0.077
474	0.078
475	0.079
475	0.08
476	0.08
476	0.08
477	0.08
477	0.08
477	0.08
478	0.08
478	0.08
479	0.08
479	0.081
480	0.082
480	0.082
481	0.083
481	0.084
482	0.085
482	0.086
482	0.087
483	0.089
483	0.092
484	0.094
484	0.096
485	0.097
485	0.099
486	0.099
486	0.1
487	0.101
487	0.101
487	0.101
488	0.101
488	0.099
489	0.098
489	0.097
490	0.096
490	0.096
491	0.096
491	0.096
492	0.097
492	0.097
492	0.098
493	0.099
493	0.1
494	0.102
494	0.104
495	0.106
495	0.107
496	0.109
496	0.11
496	0.111
497	0.112
497	0.113
498	0.114
498	0.114
499	0.114
499	0.114
500	0.115
500	0.116
501	0.117
501	0.118
501	0.119
502	0.121
502	0.122
503	0.123
503	0.124
504	0.125
504	0.126
505	0.126
505	0.127
506	0.127
506	0.128
506	0.128
507	0.128
507	0.129
508	0.13
508	0.13
509	0.131
509	0.131
510	0.132
510	0.133
511	0.134
511	0.134
511	0.134
512	0.134
512	0.134
513	0.134
513	0.133
514	0.133
514	0.133
515	0.133
515	0.132
515	0.131
516	0.131
516	0.131
517	0.131
517	0.132
518	0.132
518	0.133
519	0.132
519	0.132
520	0.131
520	0.129
520	0.128
521	0.126
521	0.124
522	0.121
522	0.119
523	0.117
523	0.115
524	0.114
524	0.114
524	0.114
525	0.116
525	0.118
526	0.12
526	0.123
527	0.126
527	0.129
528	0.131
528	0.134
529	0.135
529	0.137
529	0.137
530	0.138
530	0.139
531	0.139
531	0.139
532	0.138
532	0.138
533	0.138
533	0.138
533	0.138
534	0.137
534	0.136
535	0.135
535	0.135
536	0.135
536	0.134
537	0.134
537	0.133
538	0.133
538	0.131
538	0.13
539	0.129
539	0.129
540	0.128
540	0.126
541	0.124
541	0.123
542	0.121
542	0.12
542	0.118
543	0.117
543	0.116
544	0.115
544	0.113
545	0.112
545	0.112
546	0.112
546	0.111
547	0.11
547	0.108
547	0.106
548	0.104
548	0.102
549	0.101
549	0.099
550	0.097
550	0.095
551	0.093
551	0.091
551	0.089
552	0.088
552	0.087
553	0.086
553	0.086
554	0.085
554	0.084
555	0.082
555	0.08
556	0.078
556	0.075
556	0.073
557	0.07
557	0.068
558	0.066
558	0.064
559	0.063
559	0.062
560	0.061
560	0.06
560	0.06
561	0.06
561	0.06
562	0.059
562	0.058
563	0.057
563	0.055
564	0.053
564	0.051
564	0.049
565	0.047
565	0.046
566	0.044
566	0.043
567	0.043
567	0.043
568	0.044
568	0.045
568	0.046
569	0.048
569	0.049
570	0.05
570	0.05
571	0.051
571	0.051
572	0.051
572	0.051
573	0.051
573	0.05
573	0.049
574	0.048
574	0.048
575	0.048
575	0.049
576	0.049
576	0.048
577	0.047
577	0.046
577	0.045
578	0.044
578	0.044
579	0.045
579	0.046
580	0.045
580	0.042
581	0.04
581	0.038
581	0.038
582	0.037
582	0.037
583	0.038
583	0.037
584	0.034
584	0.031
585	0.03
585	0.03
585	0.03
586	0.03
586	0.029
587	0.028
587	0.026
588	0.024
588	0.022
589	0.021
589	0.021
590	0.02
590	0.019
590	0.02
591	0.02
591	0.02
592	0.02
592	0.019
593	0.019
593	0.018
594	0.017
594	0.016
594	0.016
595	0.016
595	0.014
596	0.014
596	0.015
597	0.017
597	0.018
598	0.019
598	0.021
598	0.022
599	0.022
599	0.022
600	0.021
600	0.02
601	0.019
601	0.018
602	0.016
602	0.014
602	0.013
603	0.012
603	0.012
604	0.012
604	0.013
605	0.014
605	0.016
606	0.016
606	0.016
606	0.015
607	0.015
607	0.015
608	0.014
608	0.013
609	0.012
609	0.012
610	0.011
610	0.01
610	0.01
611	0.01
611	0.011
612	0.012
612	0.014
613	0.015
613	0.016
614	0.016
614	0.016
614	0.016
615	0.015
615	0.014
616	0.014
616	0.013
617	0.013
617	0.012
618	0.01
618	0.01
618	0.009
619	0.009
619	0.01
620	0.012
620	0.013
621	0.014
621	0.015
622	0.015
622	0.016
622	0.016
623	0.016
623	0.017
624	0.018
624	0.018
625	0.017
625	0.018
626	0.018
626	0.018
626	0.018
627	0.019
627	0.02
628	0.02
628	0.021
629	0.022
629	0.022
630	0.022
630	0.022
630	0.022
631	0.023
631	0.024
632	0.023
632	0.023
633	0.024
633	0.025
634	0.026
634	0.027
634	0.029
635	0.031
635	0.032
636	0.033
636	0.035
637	0.036
637	0.037
638	0.038
638	0.039
638	0.041
639	0.041
639	0.042
640	0.042
640	0.043
641	0.044
641	0.045
642	0.047
642	0.049
642	0.05
643	0.051
643	0.052
644	0.054
644	0.055
645	0.057
645	0.059
646	0.061
646	0.063
646	0.065
647	0.068
647	0.07
648	0.072
648	0.074
649	0.077
649	0.079
650	0.081
650	0.083
650	0.086
651	0.088
651	0.09
652	0.092
652	0.094
653	0.098
653	0.106
653	0.118
654	0.099
654	0.084
655	0.087
655	0.089
656	0.091
656	0.093
657	0.095
657	0.096
657	0.097
658	0.095
658	0.087
659	0.107
659	0.134
660	0.137
660	0.139
661	0.14
661	0.142
661	0.144
662	0.147
662	0.149
663	0.152
663	0.155
664	0.157
664	0.16
665	0.162
665	0.164
665	0.167
666	0.169
666	0.171
667	0.174
667	0.176
668	0.179
668	0.182
669	0.184
669	0.187
669	0.191
670	0.195
670	0.198
671	0.201
671	0.203
672	0.205
672	0.207
672	0.208
673	0.21
673	0.211
674	0.212
674	0.213
675	0.214
675	0.215
676	0.217
676	0.218
676	0.22
677	0.221
677	0.223
678	0.225
678	0.226
679	0.228
679	0.229
680	0.231
680	0.232
680	0.232
681	0.233
681	0.233
682	0.234
682	0.235
683	0.237
683	0.239
684	0.24
684	0.241
684	0.242
685	0.242
685	0.243
686	0.245
686	0.245
687	0.246
687	0.246
687	0.246
688	0.245
688	0.245
689	0.246
689	0.247
690	0.247
690	0.247
691	0.246
691	0.246
691	0.245
692	0.244
692	0.243
693	0.242
693	0.241
694	0.24
694	0.238
695	0.238
695	0.239
695	0.239
696	0.238
696	0.238
697	0.238
697	0.237
698	0.236
698	0.235
698	0.234
699	0.233
699	0.231
700	0.228
700	0.226
701	0.225
701	0.223
702	0.221
702	0.219
702	0.217
703	0.215
703	0.214
704	0.212
704	0.211
705	0.211
705	0.209
705	0.208
706	0.207
706	0.206
707	0.204
707	0.202
708	0.201
708	0.199
709	0.197
709	0.195
709	0.192
710	0.189
710	0.187
711	0.185
711	0.183
712	0.182
712	0.18
713	0.178
713	0.177
713	0.175
714	0.173
714	0.171
715	0.17
715	0.168
716	0.166
716	0.164
716	0.162
717	0.159
717	0.157
718	0.154
718	0.152
719	0.15
719	0.148
720	0.145
720	0.142
720	0.139
721	0.136
721	0.133
722	0.13
722	0.127
723	0.125
723	0.123
723	0.121
724	0.118
724	0.116
725	0.114
725	0.113
726	0.111
726	0.109
727	0.108
727	0.106
727	0.104
728	0.102
728	0.101
729	0.1
729	0.099
730	0.098
730	0.096
730	0.095
731	0.094
731	0.092
732	0.091
732	0.089
733	0.087
733	0.084
734	0.082
734	0.079
734	0.077
735	0.075
735	0.073
736	0.071
736	0.069
737	0.067
737	0.065
737	0.063
738	0.061
738	0.058
739	0.055
739	0.053
740	0.05
740	0.048
741	0.046
741	0.043
741	0.04
742	0.036
742	0.034
743	0.032
743	0.03
744	0.028
744	0.027
744	0.026
745	0.024
745	0.022
746	0.021
746	0.02
747	0.02
747	0.019
748	0.019
748	0.018
748	0.017
749	0.016
749	0.015
750	0.014
750	0.013
751	0.013
751	0.012
751	0.012
752	0.011
752	0.01
753	0.009
753	0.009
754	0.008
754	0.008
754	0.008
755	0.008
755	0.008
756	0.008
756	0.006
757	0.005
757	0.004
758	0.003
758	0.002
758	0.001
759	-0.001
759	-0.003
760	-0.005
760	-0.008
761	-0.009
761	-0.01
761	-0.011
762	-0.013
762	-0.013
763	-0.014
763	-0.016
764	-0.018
764	-0.02
764	-0.022
765	-0.023
765	-0.025
766	-0.026
766	-0.026
767	-0.027
767	-0.029
768	-0.032
768	-0.033
768	-0.034
769	-0.035
769	-0.036
770	-0.037
770	-0.039
771	-0.041
771	-0.044
771	-0.047
772	-0.049
772	-0.051
773	-0.053
773	-0.056
774	-0.059
774	-0.062
775	-0.065
775	-0.068
775	-0.072
776	-0.075
776	-0.079
777	-0.083
777	-0.087
778	-0.091
778	-0.095
778	-0.099
779	-0.102
779	-0.101
780	-0.102
780	-0.104
781	-0.105
781	-0.107
781	-0.108
782	-0.109
782	-0.111
783	-0.113
783	-0.114
784	-0.115
784	-0.118
784	-0.12
785	-0.121
785	-0.123
786	-0.124
786	-0.121
787	-0.117
787	-0.113
788	-0.112
788	-0.112
788	-0.113
789	-0.114
789	-0.113
790	-0.11
790	-0.108
791	-0.108
791	-0.11
791	-0.112
792	-0.107
792	-0.097
793	-0.091
793	-0.088
794	-0.087
794	-0.089
794	-0.093
795	-0.096
795	-0.096
796	-0.096
796	-0.099
797	-0.107
797	-0.117
797	-0.123
798	-0.128
798	-0.131
799	-0.131
799	-0.131
800	-0.131
800	-0.133
801	-0.136
801	-0.138
801	-0.138
802	-0.14
802	-0.141
803	-0.142
803	-0.142
804	-0.141
804	-0.136
804	-0.129
805	-0.125
805	-0.123
806	-0.121
806	-0.119
807	-0.118
807	-0.118
807	-0.118
808	-0.117
808	-0.118
809	-0.123
809	-0.128
810	-0.132
810	-0.134
810	-0.137
811	-0.14
811	-0.14
812	-0.135
812	-0.132
813	-0.131
813	-0.131
813	-0.131
814	-0.132
814	-0.131
815	-0.129
815	-0.126
816	-0.124
816	-0.125
817	-0.129
817	-0.133
817	-0.134
818	-0.133
818	-0.13
819	-0.125
819	-0.123
820	-0.124
820	-0.127
820	-0.128
821	-0.128
821	-0.127
822	-0.127
822	-0.125
823	-0.123
823	-0.124
823	-0.125
824	-0.125
824	-0.12
825	-0.115
825	-0.108
826	-0.102
826	-0.097
826	-0.092
827	-0.087
827	-0.082
828	-0.079
828	-0.075
829	-0.073
829	-0.07
829	-0.068
830	-0.067
830	-0.066
831	-0.064
831	-0.062
832	-0.061
832	-0.059
832	-0.058
833	-0.056
833	-0.054
834	-0.052
834	-0.051
835	-0.049
835	-0.048
835	-0.047
836	-0.046
836	-0.045
837	-0.044
837	-0.043
838	-0.043
838	-0.043
839	-0.043
839	-0.043
839	-0.042
840	-0.042
840	-0.041
841	-0.04
841	-0.039
842	-0.038
842	-0.037
842	-0.036
843	-0.035
843	-0.034
844	-0.033
844	-0.032
845	-0.032
845	-0.031
845	-0.031
846	-0.03
846	-0.03
847	-0.03
847	-0.03
848	-0.03
848	-0.03
848	-0.029
849	-0.029
849	-0.029
850	-0.029
850	-0.029
851	-0.028
851	-0.028
851	-0.028
852	-0.028
852	-0.028
853	-0.027
853	-0.027
854	-0.027
854	-0.026
854	-0.026
855	-0.026
855	-0.026
856	-0.026
856	-0.025
857	-0.025
857	-0.024
857	-0.024
858	-0.024
858	-0.023
859	-0.023
859	-0.022
860	-0.021
860	-0.02
860	-0.019
861	-0.019
861	-0.018
862	-0.018
862	-0.017
863	-0.017
863	-0.017
863	-0.017
864	-0.018
864	-0.019
865	-0.019
865	-0.02
866	-0.021
866	-0.021
866	-0.022
867	-0.022
867	-0.022
868	-0.022
868	-0.021
869	-0.021
869	-0.02
869	-0.02
870	-0.02
870	-0.02
871	-0.02
871	-0.02
872	-0.021
872	-0.022
872	-0.022
873	-0.023
873	-0.024
874	-0.024
874	-0.025
875	-0.025
875	-0.026
875	-0.026
876	-0.027
876	-0.027
877	-0.028
877	-0.028
878	-0.029
878	-0.03
878	-0.03
879	-0.03
879	-0.031
880	-0.031
880	-0.03
881	-0.03
881	-0.029
881	-0.028
882	-0.026
882	-0.024
883	-0.023
883	-0.021
884	-0.02
884	-0.018
884	-0.017
885	-0.016
885	-0.015
886	-0.014
886	-0.013
887	-0.013
887	-0.012
887	-0.012
888	-0.012
888	-0.011
889	-0.011
889	-0.01
890	-0.009
890	-0.008
890	-0.008
891	-0.007
891	-0.007
892	-0.007
892	-0.007
893	-0.008
893	-0.008
893	-0.009
894	-0.01
894	-0.011
895	-0.012
895	-0.013
895	-0.014
896	-0.015
896	-0.016
897	-0.016
897	-0.016
898	-0.016
898	-0.016
898	-0.016
899	-0.016
899	-0.016
900	-0.016
900	-0.016
901	-0.016
901	-0.016
901	-0.016
902	-0.017
902	-0.017
903	-0.017
903	-0.017
904	-0.017
904	-0.018
904	-0.018
905	-0.018
905	-0.018
906	-0.019
906	-0.019
907	-0.019
907	-0.019
907	-0.019
908	-0.019
908	-0.019
909	-0.018
909	-0.018
910	-0.017
910	-0.016
910	-0.016
911	-0.015
911	-0.015
912	-0.014
912	-0.014
913	-0.014
913	-0.014
913	-0.015
914	-0.015
914	-0.016
915	-0.016
915	-0.017
916	-0.018
916	-0.019
916	-0.019
917	-0.02
917	-0.019
918	-0.019
918	-0.019
918	-0.018
919	-0.018
919	-0.017
920	-0.016
920	-0.015
921	-0.014
921	-0.013
921	-0.012
922	-0.012
922	-0.011
923	-0.01
923	-0.009
924	-0.009
924	-0.008
924	-0.008
925	-0.008
925	-0.007
926	-0.007
926	-0.007
927	-0.007
927	-0.008
927	-0.008
928	-0.008
928	-0.009
929	-0.009
929	-0.009
930	-0.009
930	-0.01
930	-0.01
931	-0.01
931	-0.011
932	-0.011
932	-0.012
933	-0.012
933	-0.012
933	-0.013
934	-0.013
934	-0.014
935	-0.014
935	-0.014
935	-0.014
936	-0.014
936	-0.014
937	-0.014
937	-0.013
938	-0.013
938	-0.013
938	-0.012
939	-0.011
939	-0.01
940	-0.009
940	-0.008
941	-0.007
941	-0.006
941	-0.005
942	-0.004
942	-0.003
943	-0.002
943	-0.002
944	-0.002
944	-0.001
944	-0.001
945	-0
945	-0
946	-0
946	-0.001
946	-0.001
947	-0.001
947	-0.001
948	-0.002
948	-0.002
949	-0.003
949	-0.003
949	-0.003
950	-0.003
950	-0.004
951	-0.004
951	-0.004
952	-0.004
952	-0.004
952	-0.003
953	-0.003
953	-0.003
954	-0.003
954	-0.003
955	-0.002
955	-0.002
955	-0.002
956	-0.001
956	-0.001
957	-0.001
957	-0.001
957	-0.002
958	-0.002
958	-0.003
959	-0.004
959	-0.004
960	-0.005
960	-0.007
960	-0.008
961	-0.009
961	-0.01
962	-0.011
962	-0.012
963	-0.012
963	-0.012
963	-0.012
964	-0.011
964	-0.011
965	-0.01
965	-0.01
966	-0.009
966	-0.008
966	-0.007
967	-0.006
967	-0.006
968	-0.006
968	-0.005
968	-0.005
969	-0.006
969	-0.006
970	-0.006
970	-0.006
971	-0.006
971	-0.006
971	-0.006
972	-0.006
972	-0.006
973	-0.006
973	-0.006
974	-0.006
974	-0.006
974	-0.006
975	-0.006
975	-0.007
976	-0.008
976	-0.009
976	-0.01
977	-0.011
977	-0.012
978	-0.013
978	-0.014
979	-0.014
979	-0.015
979	-0.015
980	-0.015
980	-0.015
981	-0.015
981	-0.014
982	-0.013
982	-0.012
982	-0.011
983	-0.01
983	-0.009
984	-0.008
984	-0.007
984	-0.007
985	-0.006
985	-0.006
986	-0.006
986	-0.006
987	-0.007
987	-0.007
987	-0.007
988	-0.007
988	-0.008
989	-0.009
989	-0.009
990	-0.01
990	-0.011
990	-0.011
991	-0.012
991	-0.012
992	-0.013
992	-0.014
992	-0.015
993	-0.015
993	-0.016
994	-0.017
994	-0.019
995	-0.02
995	-0.02
995	-0.021
996	-0.022
996	-0.023
997	-0.023
997	-0.023
997	-0.023
998	-0.022
998	-0.021
999	-0.019
999	-0.018
1000	-0.017
1000	-0.016
1000	-0.014
1001	-0.013
1001	-0.012
1002	-0.011
1002	-0.01
1003	-0.009
1003	-0.009
1003	-0.009
1004	-0.008
1004	-0.008
1005	-0.008
1005	-0.008
1005	-0.008
1006	-0.009
1006	-0.009
1007	-0.009
1007	-0.01
1008	-0.01
1008	-0.01
1008	-0.01
1009	-0.01
1009	-0.01
1010	-0.009
1010	-0.009
1010	-0.009
1011	-0.009
1011	-0.009
1012	-0.009
1012	-0.01
1013	-0.01
1013	-0.011
1013	-0.011
1014	-0.013
1014	-0.013
1015	-0.014
1015	-0.015
1016	-0.016
1016	-0.017
1016	-0.018
1017	-0.018
1017	-0.019
1018	-0.019
1018	-0.019
1018	-0.019
1019	-0.019
1019	-0.019
1020	-0.019
1020	-0.019
1021	-0.018
1021	-0.018
1021	-0.018
1022	-0.018
1022	-0.018
1023	-0.018
1023	-0.018
1023	-0.019
1024	-0.019
1024	-0.02
1025	-0.02
1025	-0.021
1026	-0.021
1026	-0.021
1026	-0.022
1027	-0.022
1027	-0.022
1028	-0.021
1028	-0.02
1028	-0.02
1029	-0.019
1029	-0.018
1030	-0.017
1030	-0.015
1031	-0.014
1031	-0.013
1031	-0.011
1032	-0.01
1032	-0.009
1033	-0.008
1033	-0.008
1033	-0.008
1034	-0.009
1034	-0.01
1035	-0.011
1035	-0.011
1036	-0.013
1036	-0.014
1036	-0.015
1037	-0.016
1037	-0.017
1038	-0.017
1038	-0.018
1039	-0.018
1039	-0.018
1039	-0.018
1040	-0.018
1040	-0.018
1041	-0.018
1041	-0.019
1041	-0.019
1042	-0.019
1042	-0.019
1043	-0.02
1043	-0.02
1044	-0.02
1044	-0.02
1044	-0.02
1045	-0.02
1045	-0.02
1046	-0.02
1046	-0.019
1046	-0.018
1047	-0.017
1047	-0.016
1048	-0.014
1048	-0.014
1049	-0.013
1049	-0.013
1049	-0.013
1050	-0.012
1050	-0.012
1051	-0.012
1051	-0.011
1051	-0.011
1052	-0.01
1052	-0.01
1053	-0.009
1053	-0.008
1053	-0.007
1054	-0.006
1054	-0.005
1055	-0.004
1055	-0.003
1056	-0.003
1056	-0.003
1056	-0.003
1057	-0.003
1057	-0.003
1058	-0.003
1058	-0.003
1058	-0.003
1059	-0.003
1059	-0.003
1060	-0.003
1060	-0.003
1061	-0.002
1061	-0.002
1061	-0.001
1062	-0.001
1062	-0.001
1063	-0
1063	0
1063	0
1064	0.001
1064	0.002
1065	0.003
1065	0.003
1066	0.004
1066	0.005
1066	0.006
1067	0.007
1067	0.007
1068	0.008
1068	0.009
1068	0.01
1069	0.01
1069	0.01
1070	0.012
1070	0.012
1071	0.013
1071	0.015
1071	0.015
1072	0.017
1072	0.018
1073	0.02
1073	0.022
1073	0.023
1074	0.025
1074	0.027
1075	0.028
1075	0.028
1076	0.029
1076	0.031
1076	0.031
1077	0.032
1077	0.034
1078	0.035
1078	0.036
1078	0.037
1079	0.039
1079	0.041
1080	0.043
1080	0.045
1080	0.046
1081	0.047
1081	0.049
1082	0.051
1082	0.051
1083	0.053
1083	0.055
1083	0.058
1084	0.06
1084	0.063
1085	0.065
1085	0.068
1085	0.071
1086	0.074
1086	0.075
1087	0.08
1087	0.083
1088	0.085
1088	0.088
1088	0.092
1089	0.094
1089	0.098
1090	0.102
1090	0.106
1090	0.111
1091	0.116
1091	0.122
1092	0.128
1092	0.135
1092	0.142
1093	0.149
1093	0.159
1094	0.167
1094	0.177
1095	0.186
1095	0.197
1095	0.211
1096	0.224
1096	0.239
1097	0.256
1097	0.272
1097	0.293
1098	0.312
1098	0.335
1099	0.36
1099	0.39
1100	0.419
1100	0.454
1100	0.494
1101	0.54
1101	0.592
1102	0.664
1102	0.754
1102	0.873
1103	1.04
1103	1.361
1104	-0
1104	-0
1104	-0
1105	-0
1105	-0
1106	-0
1106	-0
1107	-0
1107	-0
1107	-0
1108	-0
1108	-0
1109	-0
1109	-0
1109	-0
1110	-0
1110	-0
1111	-0
1111	-0
