Data from 15c-100ul-ns-20ul-nr-full-exp-7ul-bp_Absorbance__83__03255.txt Node

Date: Mon Jan 15 11:17:56 CET 2024
User: Marek
Spectrometer: MAYP115816
Trigger mode: 0
Integration Time (sec): 2.000000E-1
Scans to average: 10
Electric dark correction enabled: true
Nonlinearity correction enabled: true
Boxcar width: 5
XAxis mode: Wavelengths
Number of Pixels in Spectrum: 2068
>>>>>Begin Spectral Data<<<<<
199	-2.057
199	-1.925
200	-1.78
200	-1.668
201	-1.594
201	-1.543
202	-1.47
202	-1.413
203	-1.363
203	-1.322
204	-1.292
204	-1.269
205	-1.247
205	-1.238
205	-1.236
206	-1.234
206	-1.232
207	-1.228
207	-1.224
208	-1.223
208	-1.217
209	-1.216
209	-1.214
210	-1.214
210	-1.212
211	-1.21
211	-1.208
212	-1.204
212	-1.204
213	-1.204
213	-1.202
213	-1.202
214	-1.201
214	-1.202
215	-1.201
215	-1.201
216	-1.2
216	-1.199
217	-1.199
217	-1.198
218	-1.197
218	-1.193
219	-1.192
219	-1.19
220	-1.185
220	-1.18
221	-1.176
221	-1.171
221	-1.166
222	-1.162
222	-1.156
223	-1.149
223	-1.145
224	-1.139
224	-1.131
225	-1.122
225	-1.111
226	-1.101
226	-1.09
227	-1.075
227	-1.058
228	-1.038
228	-1.018
229	-0.994
229	-0.965
229	-0.936
230	-0.904
230	-0.869
231	-0.83
231	-0.791
232	-0.75
232	-0.706
233	-0.661
233	-0.614
234	-0.568
234	-0.522
235	-0.475
235	-0.429
236	-0.385
236	-0.34
236	-0.298
237	-0.257
237	-0.219
238	-0.183
238	-0.148
239	-0.116
239	-0.085
240	-0.058
240	-0.032
241	-0.008
241	0.014
242	0.034
242	0.053
243	0.071
243	0.086
243	0.101
244	0.114
244	0.127
245	0.138
245	0.148
246	0.158
246	0.167
247	0.175
247	0.183
248	0.19
248	0.197
249	0.203
249	0.208
250	0.214
250	0.219
250	0.224
251	0.228
251	0.232
252	0.236
252	0.239
253	0.243
253	0.246
254	0.248
254	0.251
255	0.254
255	0.256
256	0.258
256	0.26
257	0.262
257	0.263
258	0.265
258	0.266
258	0.267
259	0.268
259	0.269
260	0.269
260	0.27
261	0.27
261	0.271
262	0.271
262	0.27
263	0.271
263	0.27
264	0.27
264	0.27
265	0.27
265	0.269
265	0.269
266	0.268
266	0.268
267	0.267
267	0.266
268	0.265
268	0.264
269	0.263
269	0.262
270	0.261
270	0.259
271	0.258
271	0.257
272	0.256
272	0.255
272	0.253
273	0.252
273	0.251
274	0.25
274	0.248
275	0.247
275	0.245
276	0.244
276	0.242
277	0.241
277	0.239
278	0.237
278	0.236
278	0.234
279	0.232
279	0.231
280	0.23
280	0.228
281	0.227
281	0.226
282	0.224
282	0.223
283	0.222
283	0.221
284	0.22
284	0.219
285	0.218
285	0.216
285	0.215
286	0.214
286	0.213
287	0.212
287	0.211
288	0.21
288	0.209
289	0.208
289	0.206
290	0.205
290	0.204
291	0.203
291	0.202
292	0.202
292	0.201
292	0.2
293	0.199
293	0.198
294	0.197
294	0.196
295	0.195
295	0.195
296	0.194
296	0.193
297	0.192
297	0.191
298	0.191
298	0.19
298	0.189
299	0.188
299	0.188
300	0.187
300	0.186
301	0.186
301	0.185
302	0.184
302	0.184
303	0.183
303	0.183
304	0.182
304	0.182
305	0.181
305	0.181
305	0.18
306	0.18
306	0.179
307	0.178
307	0.177
308	0.176
308	0.176
309	0.175
309	0.174
310	0.173
310	0.173
311	0.172
311	0.171
311	0.17
312	0.17
312	0.169
313	0.169
313	0.168
314	0.167
314	0.166
315	0.166
315	0.165
316	0.164
316	0.163
317	0.163
317	0.162
318	0.161
318	0.16
318	0.16
319	0.159
319	0.158
320	0.158
320	0.157
321	0.156
321	0.155
322	0.155
322	0.154
323	0.153
323	0.152
324	0.152
324	0.151
324	0.15
325	0.149
325	0.149
326	0.148
326	0.148
327	0.147
327	0.146
328	0.145
328	0.145
329	0.144
329	0.143
330	0.143
330	0.142
330	0.142
331	0.141
331	0.14
332	0.14
332	0.139
333	0.138
333	0.137
334	0.137
334	0.136
335	0.135
335	0.134
336	0.134
336	0.133
336	0.133
337	0.132
337	0.131
338	0.131
338	0.13
339	0.13
339	0.129
340	0.129
340	0.128
341	0.127
341	0.127
342	0.126
342	0.126
342	0.125
343	0.124
343	0.124
344	0.123
344	0.123
345	0.122
345	0.122
346	0.121
346	0.121
347	0.12
347	0.12
348	0.119
348	0.119
348	0.118
349	0.117
349	0.117
350	0.116
350	0.115
351	0.115
351	0.114
352	0.113
352	0.113
353	0.112
353	0.111
354	0.11
354	0.109
354	0.109
355	0.108
355	0.107
356	0.107
356	0.106
357	0.106
357	0.106
358	0.106
358	0.106
359	0.107
359	0.107
360	0.107
360	0.108
360	0.108
361	0.108
361	0.108
362	0.108
362	0.108
363	0.108
363	0.108
364	0.107
364	0.107
365	0.106
365	0.106
366	0.106
366	0.106
366	0.106
367	0.106
367	0.105
368	0.105
368	0.104
369	0.104
369	0.104
370	0.103
370	0.103
371	0.102
371	0.102
372	0.102
372	0.101
372	0.101
373	0.101
373	0.101
374	0.101
374	0.101
375	0.101
375	0.101
376	0.101
376	0.101
377	0.101
377	0.101
378	0.101
378	0.101
378	0.101
379	0.101
379	0.101
380	0.101
380	0.102
381	0.101
381	0.101
382	0.101
382	0.101
383	0.1
383	0.1
383	0.099
384	0.099
384	0.099
385	0.098
385	0.098
386	0.098
386	0.098
387	0.098
387	0.097
388	0.097
388	0.097
389	0.097
389	0.097
389	0.097
390	0.097
390	0.097
391	0.097
391	0.098
392	0.098
392	0.098
393	0.098
393	0.098
394	0.097
394	0.097
394	0.097
395	0.096
395	0.096
396	0.096
396	0.095
397	0.095
397	0.096
398	0.096
398	0.096
399	0.096
399	0.096
400	0.095
400	0.095
400	0.095
401	0.094
401	0.093
402	0.093
402	0.092
403	0.092
403	0.092
404	0.091
404	0.091
405	0.091
405	0.09
405	0.09
406	0.09
406	0.09
407	0.09
407	0.089
408	0.089
408	0.088
409	0.088
409	0.088
410	0.088
410	0.087
411	0.087
411	0.087
411	0.087
412	0.086
412	0.086
413	0.086
413	0.085
414	0.085
414	0.085
415	0.084
415	0.084
416	0.084
416	0.083
416	0.083
417	0.083
417	0.082
418	0.082
418	0.083
419	0.083
419	0.084
420	0.084
420	0.085
421	0.085
421	0.085
421	0.085
422	0.086
422	0.086
423	0.086
423	0.085
424	0.085
424	0.084
425	0.084
425	0.083
426	0.082
426	0.082
427	0.082
427	0.082
427	0.082
428	0.082
428	0.083
429	0.083
429	0.083
430	0.083
430	0.083
431	0.083
431	0.083
432	0.082
432	0.082
432	0.081
433	0.08
433	0.079
434	0.078
434	0.078
435	0.077
435	0.077
436	0.077
436	0.077
437	0.077
437	0.077
437	0.077
438	0.077
438	0.077
439	0.077
439	0.076
440	0.076
440	0.076
441	0.076
441	0.076
442	0.076
442	0.077
442	0.077
443	0.077
443	0.077
444	0.078
444	0.078
445	0.078
445	0.078
446	0.078
446	0.078
447	0.078
447	0.077
447	0.077
448	0.077
448	0.077
449	0.077
449	0.076
450	0.076
450	0.075
451	0.075
451	0.075
452	0.074
452	0.074
452	0.073
453	0.073
453	0.072
454	0.072
454	0.072
455	0.071
455	0.071
456	0.071
456	0.071
457	0.071
457	0.071
458	0.071
458	0.071
458	0.071
459	0.072
459	0.072
460	0.071
460	0.07
461	0.07
461	0.069
462	0.069
462	0.069
463	0.069
463	0.07
463	0.07
464	0.07
464	0.07
465	0.07
465	0.07
466	0.07
466	0.07
467	0.07
467	0.069
467	0.068
468	0.067
468	0.065
469	0.064
469	0.063
470	0.062
470	0.062
471	0.062
471	0.062
472	0.062
472	0.062
472	0.063
473	0.064
473	0.065
474	0.066
474	0.066
475	0.067
475	0.068
476	0.068
476	0.068
477	0.068
477	0.068
477	0.068
478	0.068
478	0.068
479	0.068
479	0.069
480	0.069
480	0.07
481	0.071
481	0.072
482	0.073
482	0.074
482	0.075
483	0.077
483	0.08
484	0.082
484	0.084
485	0.086
485	0.087
486	0.088
486	0.088
487	0.089
487	0.089
487	0.089
488	0.088
488	0.087
489	0.085
489	0.084
490	0.083
490	0.083
491	0.082
491	0.083
492	0.083
492	0.084
492	0.084
493	0.085
493	0.086
494	0.088
494	0.09
495	0.092
495	0.094
496	0.095
496	0.096
496	0.097
497	0.098
497	0.099
498	0.1
498	0.1
499	0.1
499	0.1
500	0.101
500	0.102
501	0.103
501	0.104
501	0.105
502	0.107
502	0.108
503	0.109
503	0.11
504	0.111
504	0.112
505	0.112
505	0.112
506	0.113
506	0.113
506	0.113
507	0.113
507	0.114
508	0.114
508	0.115
509	0.116
509	0.116
510	0.117
510	0.118
511	0.119
511	0.119
511	0.119
512	0.119
512	0.119
513	0.119
513	0.118
514	0.118
514	0.118
515	0.118
515	0.117
515	0.116
516	0.115
516	0.115
517	0.115
517	0.116
518	0.116
518	0.117
519	0.117
519	0.116
520	0.115
520	0.114
520	0.112
521	0.111
521	0.109
522	0.106
522	0.104
523	0.101
523	0.099
524	0.098
524	0.098
524	0.098
525	0.098
525	0.1
526	0.102
526	0.104
527	0.107
527	0.11
528	0.113
528	0.116
529	0.117
529	0.119
529	0.12
530	0.121
530	0.122
531	0.122
531	0.123
532	0.123
532	0.122
533	0.123
533	0.122
533	0.122
534	0.122
534	0.121
535	0.12
535	0.12
536	0.12
536	0.12
537	0.119
537	0.119
538	0.118
538	0.117
538	0.116
539	0.115
539	0.114
540	0.114
540	0.112
541	0.111
541	0.109
542	0.107
542	0.106
542	0.105
543	0.104
543	0.103
544	0.101
544	0.1
545	0.1
545	0.099
546	0.099
546	0.098
547	0.097
547	0.095
547	0.093
548	0.092
548	0.09
549	0.088
549	0.087
550	0.085
550	0.083
551	0.081
551	0.078
551	0.077
552	0.076
552	0.075
553	0.074
553	0.074
554	0.073
554	0.072
555	0.07
555	0.069
556	0.067
556	0.064
556	0.062
557	0.06
557	0.058
558	0.056
558	0.055
559	0.053
559	0.052
560	0.051
560	0.051
560	0.05
561	0.05
561	0.05
562	0.05
562	0.049
563	0.047
563	0.046
564	0.044
564	0.041
564	0.04
565	0.038
565	0.037
566	0.036
566	0.035
567	0.035
567	0.035
568	0.036
568	0.037
568	0.038
569	0.04
569	0.042
570	0.042
570	0.042
571	0.043
571	0.044
572	0.044
572	0.044
573	0.044
573	0.044
573	0.043
574	0.042
574	0.042
575	0.042
575	0.043
576	0.043
576	0.042
577	0.041
577	0.04
577	0.039
578	0.038
578	0.038
579	0.039
579	0.04
580	0.039
580	0.037
581	0.034
581	0.033
581	0.032
582	0.032
582	0.032
583	0.033
583	0.032
584	0.029
584	0.026
585	0.025
585	0.025
585	0.025
586	0.025
586	0.024
587	0.023
587	0.021
588	0.019
588	0.017
589	0.016
589	0.016
590	0.015
590	0.014
590	0.015
591	0.016
591	0.015
592	0.015
592	0.014
593	0.014
593	0.014
594	0.013
594	0.012
594	0.011
595	0.011
595	0.01
596	0.009
596	0.01
597	0.013
597	0.014
598	0.015
598	0.017
598	0.018
599	0.018
599	0.018
600	0.017
600	0.016
601	0.015
601	0.014
602	0.012
602	0.01
602	0.009
603	0.008
603	0.008
604	0.008
604	0.009
605	0.01
605	0.012
606	0.012
606	0.012
606	0.011
607	0.011
607	0.011
608	0.01
608	0.009
609	0.008
609	0.008
610	0.007
610	0.006
610	0.005
611	0.006
611	0.007
612	0.008
612	0.01
613	0.011
613	0.013
614	0.013
614	0.012
614	0.012
615	0.011
615	0.011
616	0.011
616	0.01
617	0.009
617	0.008
618	0.007
618	0.006
618	0.006
619	0.006
619	0.007
620	0.009
620	0.01
621	0.011
621	0.012
622	0.012
622	0.013
622	0.013
623	0.013
623	0.014
624	0.015
624	0.015
625	0.014
625	0.014
626	0.014
626	0.014
626	0.015
627	0.016
627	0.016
628	0.017
628	0.018
629	0.019
629	0.019
630	0.019
630	0.019
630	0.02
631	0.02
631	0.021
632	0.021
632	0.021
633	0.021
633	0.022
634	0.023
634	0.025
634	0.027
635	0.029
635	0.03
636	0.031
636	0.032
637	0.034
637	0.035
638	0.036
638	0.037
638	0.038
639	0.039
639	0.039
640	0.04
640	0.041
641	0.042
641	0.043
642	0.045
642	0.046
642	0.048
643	0.049
643	0.05
644	0.052
644	0.053
645	0.055
645	0.056
646	0.058
646	0.061
646	0.063
647	0.065
647	0.068
648	0.07
648	0.072
649	0.074
649	0.076
650	0.078
650	0.081
650	0.083
651	0.085
651	0.087
652	0.089
652	0.091
653	0.094
653	0.102
653	0.115
654	0.096
654	0.082
655	0.085
655	0.087
656	0.088
656	0.09
657	0.092
657	0.093
657	0.094
658	0.092
658	0.084
659	0.103
659	0.128
660	0.131
660	0.132
661	0.134
661	0.135
661	0.138
662	0.141
662	0.143
663	0.146
663	0.149
664	0.151
664	0.154
665	0.156
665	0.158
665	0.16
666	0.163
666	0.165
667	0.167
667	0.169
668	0.172
668	0.174
669	0.176
669	0.179
669	0.183
670	0.186
670	0.19
671	0.192
671	0.194
672	0.196
672	0.197
672	0.199
673	0.2
673	0.202
674	0.203
674	0.203
675	0.204
675	0.205
676	0.207
676	0.208
676	0.21
677	0.211
677	0.213
678	0.214
678	0.215
679	0.216
679	0.217
680	0.218
680	0.219
680	0.22
681	0.22
681	0.221
682	0.221
682	0.222
683	0.224
683	0.226
684	0.227
684	0.228
684	0.228
685	0.229
685	0.23
686	0.231
686	0.232
687	0.232
687	0.232
687	0.232
688	0.232
688	0.231
689	0.232
689	0.233
690	0.233
690	0.233
691	0.232
691	0.232
691	0.231
692	0.23
692	0.229
693	0.228
693	0.228
694	0.226
694	0.224
695	0.224
695	0.225
695	0.226
696	0.225
696	0.225
697	0.225
697	0.224
698	0.224
698	0.222
698	0.221
699	0.22
699	0.218
700	0.215
700	0.213
701	0.211
701	0.209
702	0.208
702	0.206
702	0.204
703	0.202
703	0.201
704	0.199
704	0.198
705	0.197
705	0.196
705	0.195
706	0.194
706	0.192
707	0.191
707	0.189
708	0.187
708	0.185
709	0.184
709	0.182
709	0.179
710	0.176
710	0.174
711	0.172
711	0.17
712	0.169
712	0.167
713	0.166
713	0.165
713	0.163
714	0.161
714	0.159
715	0.157
715	0.155
716	0.153
716	0.152
716	0.15
717	0.147
717	0.145
718	0.143
718	0.14
719	0.139
719	0.137
720	0.134
720	0.132
720	0.129
721	0.125
721	0.122
722	0.12
722	0.117
723	0.115
723	0.113
723	0.111
724	0.109
724	0.107
725	0.105
725	0.103
726	0.101
726	0.1
727	0.098
727	0.097
727	0.095
728	0.093
728	0.092
729	0.091
729	0.09
730	0.089
730	0.088
730	0.087
731	0.086
731	0.084
732	0.083
732	0.081
733	0.079
733	0.077
734	0.075
734	0.072
734	0.07
735	0.068
735	0.066
736	0.063
736	0.061
737	0.06
737	0.058
737	0.056
738	0.053
738	0.051
739	0.048
739	0.046
740	0.043
740	0.041
741	0.039
741	0.036
741	0.033
742	0.029
742	0.027
743	0.025
743	0.023
744	0.022
744	0.021
744	0.019
745	0.018
745	0.016
746	0.015
746	0.015
747	0.015
747	0.014
748	0.013
748	0.013
748	0.012
749	0.011
749	0.01
750	0.009
750	0.008
751	0.007
751	0.007
751	0.007
752	0.006
752	0.005
753	0.004
753	0.004
754	0.003
754	0.003
754	0.003
755	0.003
755	0.003
756	0.003
756	0.002
757	0
757	-0
758	-0.001
758	-0.003
758	-0.004
759	-0.005
759	-0.007
760	-0.009
760	-0.012
761	-0.013
761	-0.014
761	-0.015
762	-0.017
762	-0.018
763	-0.018
763	-0.02
764	-0.022
764	-0.025
764	-0.026
765	-0.028
765	-0.03
766	-0.031
766	-0.031
767	-0.032
767	-0.034
768	-0.036
768	-0.037
768	-0.038
769	-0.039
769	-0.039
770	-0.04
770	-0.042
771	-0.044
771	-0.047
771	-0.049
772	-0.052
772	-0.054
773	-0.056
773	-0.059
774	-0.062
774	-0.065
775	-0.068
775	-0.072
775	-0.076
776	-0.08
776	-0.084
777	-0.088
777	-0.092
778	-0.096
778	-0.101
778	-0.105
779	-0.107
779	-0.105
780	-0.106
780	-0.108
781	-0.109
781	-0.109
781	-0.11
782	-0.111
782	-0.112
783	-0.114
783	-0.113
784	-0.114
784	-0.117
784	-0.12
785	-0.121
785	-0.123
786	-0.123
786	-0.121
787	-0.117
787	-0.113
788	-0.111
788	-0.112
788	-0.112
789	-0.114
789	-0.113
790	-0.109
790	-0.108
791	-0.108
791	-0.109
791	-0.111
792	-0.106
792	-0.097
793	-0.091
793	-0.088
794	-0.087
794	-0.089
794	-0.093
795	-0.095
795	-0.096
796	-0.096
796	-0.099
797	-0.107
797	-0.117
797	-0.123
798	-0.128
798	-0.13
799	-0.131
799	-0.131
800	-0.131
800	-0.133
801	-0.136
801	-0.137
801	-0.138
802	-0.14
802	-0.141
803	-0.142
803	-0.142
804	-0.141
804	-0.136
804	-0.129
805	-0.125
805	-0.123
806	-0.121
806	-0.119
807	-0.118
807	-0.117
807	-0.117
808	-0.117
808	-0.118
809	-0.123
809	-0.128
810	-0.132
810	-0.134
810	-0.137
811	-0.14
811	-0.14
812	-0.135
812	-0.132
813	-0.131
813	-0.131
813	-0.131
814	-0.132
814	-0.131
815	-0.129
815	-0.126
816	-0.124
816	-0.125
817	-0.129
817	-0.133
817	-0.133
818	-0.133
818	-0.13
819	-0.125
819	-0.123
820	-0.124
820	-0.126
820	-0.128
821	-0.128
821	-0.127
822	-0.127
822	-0.125
823	-0.123
823	-0.123
823	-0.125
824	-0.124
824	-0.12
825	-0.114
825	-0.107
826	-0.101
826	-0.096
826	-0.091
827	-0.086
827	-0.081
828	-0.078
828	-0.075
829	-0.072
829	-0.069
829	-0.068
830	-0.067
830	-0.065
831	-0.063
831	-0.062
832	-0.06
832	-0.059
832	-0.057
833	-0.056
833	-0.054
834	-0.053
834	-0.052
835	-0.05
835	-0.049
835	-0.048
836	-0.047
836	-0.046
837	-0.046
837	-0.045
838	-0.045
838	-0.045
839	-0.044
839	-0.044
839	-0.044
840	-0.043
840	-0.042
841	-0.041
841	-0.04
842	-0.038
842	-0.037
842	-0.036
843	-0.034
843	-0.033
844	-0.032
844	-0.032
845	-0.031
845	-0.031
845	-0.03
846	-0.03
846	-0.03
847	-0.03
847	-0.03
848	-0.03
848	-0.03
848	-0.03
849	-0.03
849	-0.029
850	-0.029
850	-0.029
851	-0.029
851	-0.029
851	-0.029
852	-0.029
852	-0.028
853	-0.028
853	-0.028
854	-0.027
854	-0.027
854	-0.027
855	-0.026
855	-0.026
856	-0.026
856	-0.025
857	-0.024
857	-0.024
857	-0.024
858	-0.023
858	-0.023
859	-0.022
859	-0.022
860	-0.021
860	-0.02
860	-0.02
861	-0.019
861	-0.019
862	-0.019
862	-0.019
863	-0.018
863	-0.018
863	-0.019
864	-0.019
864	-0.02
865	-0.02
865	-0.021
866	-0.022
866	-0.022
866	-0.023
867	-0.023
867	-0.023
868	-0.022
868	-0.022
869	-0.021
869	-0.021
869	-0.021
870	-0.02
870	-0.02
871	-0.02
871	-0.021
872	-0.021
872	-0.022
872	-0.023
873	-0.024
873	-0.024
874	-0.025
874	-0.026
875	-0.026
875	-0.027
875	-0.027
876	-0.027
876	-0.028
877	-0.029
877	-0.029
878	-0.03
878	-0.03
878	-0.031
879	-0.031
879	-0.032
880	-0.032
880	-0.031
881	-0.03
881	-0.029
881	-0.028
882	-0.026
882	-0.025
883	-0.023
883	-0.021
884	-0.02
884	-0.018
884	-0.017
885	-0.016
885	-0.015
886	-0.014
886	-0.013
887	-0.013
887	-0.013
887	-0.012
888	-0.012
888	-0.012
889	-0.011
889	-0.01
890	-0.009
890	-0.009
890	-0.008
891	-0.008
891	-0.007
892	-0.007
892	-0.007
893	-0.007
893	-0.007
893	-0.008
894	-0.009
894	-0.01
895	-0.011
895	-0.012
895	-0.013
896	-0.014
896	-0.015
897	-0.016
897	-0.016
898	-0.016
898	-0.016
898	-0.016
899	-0.016
899	-0.016
900	-0.017
900	-0.016
901	-0.016
901	-0.016
901	-0.016
902	-0.016
902	-0.017
903	-0.017
903	-0.017
904	-0.017
904	-0.017
904	-0.017
905	-0.017
905	-0.018
906	-0.018
906	-0.018
907	-0.018
907	-0.018
907	-0.018
908	-0.018
908	-0.018
909	-0.017
909	-0.017
910	-0.016
910	-0.015
910	-0.015
911	-0.014
911	-0.014
912	-0.013
912	-0.013
913	-0.013
913	-0.014
913	-0.014
914	-0.015
914	-0.015
915	-0.016
915	-0.017
916	-0.018
916	-0.019
916	-0.019
917	-0.019
917	-0.019
918	-0.019
918	-0.018
918	-0.017
919	-0.016
919	-0.015
920	-0.014
920	-0.013
921	-0.012
921	-0.011
921	-0.011
922	-0.01
922	-0.009
923	-0.008
923	-0.008
924	-0.008
924	-0.007
924	-0.007
925	-0.008
925	-0.008
926	-0.008
926	-0.008
927	-0.008
927	-0.009
927	-0.009
928	-0.01
928	-0.01
929	-0.01
929	-0.01
930	-0.01
930	-0.011
930	-0.011
931	-0.011
931	-0.011
932	-0.012
932	-0.012
933	-0.012
933	-0.012
933	-0.012
934	-0.013
934	-0.013
935	-0.013
935	-0.013
935	-0.014
936	-0.014
936	-0.014
937	-0.014
937	-0.013
938	-0.013
938	-0.013
938	-0.012
939	-0.012
939	-0.011
940	-0.01
940	-0.009
941	-0.008
941	-0.007
941	-0.006
942	-0.005
942	-0.004
943	-0.003
943	-0.003
944	-0.003
944	-0.002
944	-0.002
945	-0.002
945	-0.001
946	-0.001
946	-0.001
946	-0.001
947	-0.001
947	-0.002
948	-0.002
948	-0.002
949	-0.003
949	-0.003
949	-0.003
950	-0.003
950	-0.003
951	-0.003
951	-0.003
952	-0.003
952	-0.003
952	-0.002
953	-0.002
953	-0.002
954	-0.002
954	-0.002
955	-0.002
955	-0.001
955	-0.001
956	-0.001
956	-0.001
957	-0.001
957	-0.002
957	-0.002
958	-0.003
958	-0.003
959	-0.004
959	-0.005
960	-0.006
960	-0.007
960	-0.008
961	-0.009
961	-0.01
962	-0.011
962	-0.012
963	-0.012
963	-0.012
963	-0.012
964	-0.011
964	-0.011
965	-0.01
965	-0.009
966	-0.009
966	-0.008
966	-0.007
967	-0.006
967	-0.006
968	-0.006
968	-0.006
968	-0.006
969	-0.006
969	-0.006
970	-0.006
970	-0.006
971	-0.006
971	-0.006
971	-0.006
972	-0.006
972	-0.005
973	-0.005
973	-0.005
974	-0.005
974	-0.005
974	-0.005
975	-0.006
975	-0.006
976	-0.007
976	-0.008
976	-0.009
977	-0.011
977	-0.012
978	-0.013
978	-0.013
979	-0.014
979	-0.014
979	-0.014
980	-0.014
980	-0.014
981	-0.014
981	-0.013
982	-0.012
982	-0.011
982	-0.01
983	-0.009
983	-0.008
984	-0.008
984	-0.007
984	-0.006
985	-0.006
985	-0.006
986	-0.006
986	-0.006
987	-0.007
987	-0.007
987	-0.007
988	-0.008
988	-0.008
989	-0.009
989	-0.01
990	-0.011
990	-0.011
990	-0.012
991	-0.012
991	-0.013
992	-0.013
992	-0.014
992	-0.015
993	-0.016
993	-0.017
994	-0.018
994	-0.019
995	-0.02
995	-0.021
995	-0.022
996	-0.022
996	-0.023
997	-0.023
997	-0.023
997	-0.023
998	-0.022
998	-0.021
999	-0.02
999	-0.019
1000	-0.018
1000	-0.016
1000	-0.015
1001	-0.014
1001	-0.013
1002	-0.012
1002	-0.011
1003	-0.01
1003	-0.009
1003	-0.009
1004	-0.009
1004	-0.008
1005	-0.008
1005	-0.008
1005	-0.008
1006	-0.008
1006	-0.009
1007	-0.009
1007	-0.009
1008	-0.009
1008	-0.01
1008	-0.009
1009	-0.01
1009	-0.009
1010	-0.009
1010	-0.009
1010	-0.009
1011	-0.009
1011	-0.009
1012	-0.009
1012	-0.009
1013	-0.009
1013	-0.01
1013	-0.011
1014	-0.011
1014	-0.012
1015	-0.013
1015	-0.014
1016	-0.015
1016	-0.016
1016	-0.017
1017	-0.017
1017	-0.018
1018	-0.019
1018	-0.019
1018	-0.019
1019	-0.019
1019	-0.019
1020	-0.019
1020	-0.019
1021	-0.019
1021	-0.019
1021	-0.019
1022	-0.019
1022	-0.019
1023	-0.019
1023	-0.019
1023	-0.019
1024	-0.02
1024	-0.02
1025	-0.021
1025	-0.021
1026	-0.022
1026	-0.022
1026	-0.022
1027	-0.022
1027	-0.022
1028	-0.021
1028	-0.021
1028	-0.02
1029	-0.019
1029	-0.018
1030	-0.017
1030	-0.016
1031	-0.015
1031	-0.013
1031	-0.012
1032	-0.011
1032	-0.01
1033	-0.009
1033	-0.009
1033	-0.009
1034	-0.01
1034	-0.01
1035	-0.011
1035	-0.012
1036	-0.012
1036	-0.013
1036	-0.014
1037	-0.015
1037	-0.016
1038	-0.017
1038	-0.017
1039	-0.017
1039	-0.017
1039	-0.017
1040	-0.017
1040	-0.017
1041	-0.017
1041	-0.017
1041	-0.017
1042	-0.017
1042	-0.018
1043	-0.018
1043	-0.018
1044	-0.018
1044	-0.018
1044	-0.018
1045	-0.018
1045	-0.018
1046	-0.018
1046	-0.017
1046	-0.016
1047	-0.015
1047	-0.014
1048	-0.013
1048	-0.012
1049	-0.012
1049	-0.011
1049	-0.011
1050	-0.01
1050	-0.01
1051	-0.01
1051	-0.01
1051	-0.009
1052	-0.009
1052	-0.008
1053	-0.008
1053	-0.007
1053	-0.006
1054	-0.006
1054	-0.005
1055	-0.004
1055	-0.003
1056	-0.003
1056	-0.004
1056	-0.004
1057	-0.004
1057	-0.004
1058	-0.004
1058	-0.004
1058	-0.004
1059	-0.004
1059	-0.003
1060	-0.003
1060	-0.003
1061	-0.002
1061	-0.001
1061	-0.001
1062	0
1062	0.001
1063	0.001
1063	0.001
1063	0.002
1064	0.002
1064	0.003
1065	0.004
1065	0.004
1066	0.005
1066	0.006
1066	0.007
1067	0.007
1067	0.008
1068	0.009
1068	0.01
1068	0.011
1069	0.011
1069	0.011
1070	0.012
1070	0.013
1071	0.014
1071	0.015
1071	0.015
1072	0.017
1072	0.019
1073	0.02
1073	0.022
1073	0.023
1074	0.025
1074	0.027
1075	0.028
1075	0.029
1076	0.03
1076	0.031
1076	0.032
1077	0.033
1077	0.035
1078	0.036
1078	0.037
1078	0.039
1079	0.041
1079	0.043
1080	0.044
1080	0.046
1080	0.047
1081	0.049
1081	0.051
1082	0.053
1082	0.055
1083	0.057
1083	0.059
1083	0.062
1084	0.064
1084	0.067
1085	0.07
1085	0.074
1085	0.077
1086	0.079
1086	0.081
1087	0.084
1087	0.088
1088	0.09
1088	0.092
1088	0.096
1089	0.098
1089	0.102
1090	0.105
1090	0.11
1090	0.114
1091	0.12
1091	0.126
1092	0.132
1092	0.14
1092	0.147
1093	0.154
1093	0.164
1094	0.172
1094	0.182
1095	0.191
1095	0.203
1095	0.216
1096	0.23
1096	0.245
1097	0.262
1097	0.279
1097	0.301
1098	0.32
1098	0.345
1099	0.373
1099	0.402
1100	0.435
1100	0.471
1100	0.514
1101	0.565
1101	0.623
1102	0.702
1102	0.799
1102	0.942
1103	1.158
1103	1.644
1104	-0
1104	-0
1104	-0
1105	-0
1105	-0
1106	-0
1106	-0
1107	-0
1107	-0
1107	-0
1108	-0
1108	-0
1109	-0
1109	-0
1109	-0
1110	-0
1110	-0
1111	-0
1111	-0
