Data from 15c-2a_Absorbance__75__01876.txt Node

Date: Wed Jan 17 11:12:16 CET 2024
User: Marek
Spectrometer: MAYP115816
Trigger mode: 0
Integration Time (sec): 2.000000E-1
Scans to average: 10
Electric dark correction enabled: true
Nonlinearity correction enabled: true
Boxcar width: 5
XAxis mode: Wavelengths
Number of Pixels in Spectrum: 2068
>>>>>Begin Spectral Data<<<<<
199	-2.009
199	-1.864
200	-1.699
200	-1.572
201	-1.492
201	-1.442
202	-1.366
202	-1.309
203	-1.258
203	-1.213
204	-1.187
204	-1.162
205	-1.138
205	-1.128
205	-1.125
206	-1.124
206	-1.12
207	-1.118
207	-1.114
208	-1.111
208	-1.111
209	-1.106
209	-1.104
210	-1.103
210	-1.103
211	-1.101
211	-1.1
212	-1.101
212	-1.099
213	-1.097
213	-1.097
213	-1.095
214	-1.094
214	-1.093
215	-1.091
215	-1.089
216	-1.09
216	-1.087
217	-1.082
217	-1.081
218	-1.081
218	-1.077
219	-1.074
219	-1.073
220	-1.07
220	-1.066
221	-1.062
221	-1.058
221	-1.053
222	-1.05
222	-1.044
223	-1.038
223	-1.035
224	-1.029
224	-1.021
225	-1.012
225	-1.005
226	-0.996
226	-0.983
227	-0.97
227	-0.956
228	-0.94
228	-0.921
229	-0.9
229	-0.875
229	-0.847
230	-0.817
230	-0.785
231	-0.748
231	-0.71
232	-0.671
232	-0.628
233	-0.582
233	-0.535
234	-0.488
234	-0.441
235	-0.395
235	-0.349
236	-0.304
236	-0.261
236	-0.219
237	-0.179
237	-0.142
238	-0.107
238	-0.074
239	-0.043
239	-0.014
240	0.012
240	0.036
241	0.059
241	0.08
242	0.099
242	0.116
243	0.132
243	0.147
243	0.16
244	0.172
244	0.183
245	0.193
245	0.202
246	0.211
246	0.218
247	0.226
247	0.232
248	0.239
248	0.245
249	0.25
249	0.255
250	0.26
250	0.264
250	0.268
251	0.272
251	0.276
252	0.279
252	0.282
253	0.285
253	0.287
254	0.289
254	0.292
255	0.294
255	0.297
256	0.298
256	0.3
257	0.301
257	0.303
258	0.304
258	0.305
258	0.306
259	0.307
259	0.307
260	0.308
260	0.308
261	0.309
261	0.309
262	0.309
262	0.309
263	0.309
263	0.309
264	0.309
264	0.309
265	0.309
265	0.308
265	0.308
266	0.307
266	0.307
267	0.306
267	0.305
268	0.304
268	0.303
269	0.302
269	0.301
270	0.3
270	0.299
271	0.298
271	0.297
272	0.296
272	0.294
272	0.294
273	0.292
273	0.291
274	0.29
274	0.289
275	0.288
275	0.286
276	0.285
276	0.284
277	0.283
277	0.281
278	0.28
278	0.278
278	0.277
279	0.275
279	0.273
280	0.272
280	0.271
281	0.269
281	0.268
282	0.267
282	0.266
283	0.265
283	0.264
284	0.264
284	0.263
285	0.262
285	0.262
285	0.261
286	0.26
286	0.259
287	0.258
287	0.257
288	0.256
288	0.256
289	0.255
289	0.254
290	0.253
290	0.252
291	0.251
291	0.25
292	0.25
292	0.249
292	0.248
293	0.248
293	0.247
294	0.247
294	0.246
295	0.245
295	0.245
296	0.244
296	0.244
297	0.243
297	0.243
298	0.242
298	0.242
298	0.241
299	0.241
299	0.241
300	0.24
300	0.24
301	0.24
301	0.239
302	0.239
302	0.238
303	0.238
303	0.238
304	0.237
304	0.237
305	0.237
305	0.236
305	0.235
306	0.235
306	0.235
307	0.234
307	0.234
308	0.233
308	0.233
309	0.232
309	0.232
310	0.231
310	0.231
311	0.23
311	0.23
311	0.229
312	0.229
312	0.228
313	0.228
313	0.227
314	0.227
314	0.226
315	0.226
315	0.225
316	0.224
316	0.224
317	0.223
317	0.223
318	0.222
318	0.222
318	0.221
319	0.22
319	0.22
320	0.219
320	0.218
321	0.218
321	0.217
322	0.216
322	0.216
323	0.215
323	0.214
324	0.213
324	0.213
324	0.212
325	0.211
325	0.211
326	0.21
326	0.21
327	0.209
327	0.208
328	0.208
328	0.207
329	0.207
329	0.206
330	0.205
330	0.205
330	0.204
331	0.203
331	0.203
332	0.202
332	0.201
333	0.201
333	0.2
334	0.199
334	0.199
335	0.198
335	0.197
336	0.197
336	0.196
336	0.195
337	0.195
337	0.194
338	0.194
338	0.193
339	0.193
339	0.192
340	0.192
340	0.191
341	0.19
341	0.19
342	0.189
342	0.189
342	0.188
343	0.188
343	0.187
344	0.187
344	0.186
345	0.186
345	0.185
346	0.185
346	0.184
347	0.184
347	0.183
348	0.182
348	0.182
348	0.181
349	0.181
349	0.18
350	0.179
350	0.179
351	0.178
351	0.177
352	0.177
352	0.176
353	0.176
353	0.175
354	0.174
354	0.174
354	0.173
355	0.172
355	0.171
356	0.171
356	0.17
357	0.169
357	0.169
358	0.169
358	0.169
359	0.169
359	0.17
360	0.17
360	0.171
360	0.171
361	0.171
361	0.171
362	0.172
362	0.172
363	0.172
363	0.171
364	0.171
364	0.171
365	0.171
365	0.17
366	0.17
366	0.17
366	0.17
367	0.169
367	0.169
368	0.169
368	0.169
369	0.168
369	0.168
370	0.168
370	0.168
371	0.167
371	0.167
372	0.167
372	0.166
372	0.166
373	0.166
373	0.166
374	0.166
374	0.166
375	0.166
375	0.165
376	0.166
376	0.166
377	0.166
377	0.166
378	0.166
378	0.166
378	0.167
379	0.167
379	0.167
380	0.167
380	0.167
381	0.167
381	0.167
382	0.166
382	0.166
383	0.166
383	0.165
383	0.165
384	0.165
384	0.165
385	0.164
385	0.164
386	0.165
386	0.165
387	0.165
387	0.165
388	0.165
388	0.165
389	0.165
389	0.165
389	0.165
390	0.165
390	0.165
391	0.165
391	0.166
392	0.166
392	0.165
393	0.165
393	0.165
394	0.165
394	0.165
394	0.165
395	0.164
395	0.164
396	0.164
396	0.164
397	0.164
397	0.164
398	0.165
398	0.164
399	0.164
399	0.165
400	0.164
400	0.164
400	0.163
401	0.163
401	0.162
402	0.161
402	0.161
403	0.16
403	0.16
404	0.161
404	0.16
405	0.16
405	0.16
405	0.16
406	0.16
406	0.16
407	0.16
407	0.159
408	0.159
408	0.158
409	0.158
409	0.157
410	0.157
410	0.157
411	0.157
411	0.157
411	0.157
412	0.157
412	0.156
413	0.156
413	0.156
414	0.155
414	0.155
415	0.155
415	0.155
416	0.154
416	0.154
416	0.154
417	0.153
417	0.153
418	0.153
418	0.154
419	0.154
419	0.155
420	0.156
420	0.156
421	0.157
421	0.157
421	0.158
422	0.158
422	0.158
423	0.158
423	0.158
424	0.157
424	0.157
425	0.156
425	0.155
426	0.155
426	0.154
427	0.154
427	0.154
427	0.154
428	0.154
428	0.155
429	0.155
429	0.155
430	0.156
430	0.155
431	0.155
431	0.155
432	0.154
432	0.154
432	0.153
433	0.152
433	0.151
434	0.15
434	0.15
435	0.15
435	0.15
436	0.15
436	0.151
437	0.151
437	0.151
437	0.151
438	0.151
438	0.151
439	0.151
439	0.151
440	0.15
440	0.151
441	0.151
441	0.15
442	0.15
442	0.15
442	0.151
443	0.151
443	0.151
444	0.151
444	0.152
445	0.152
445	0.152
446	0.152
446	0.152
447	0.152
447	0.152
447	0.151
448	0.151
448	0.151
449	0.151
449	0.15
450	0.15
450	0.15
451	0.15
451	0.149
452	0.149
452	0.148
452	0.148
453	0.148
453	0.147
454	0.147
454	0.147
455	0.147
455	0.147
456	0.146
456	0.146
457	0.146
457	0.146
458	0.146
458	0.146
458	0.146
459	0.146
459	0.146
460	0.145
460	0.145
461	0.144
461	0.144
462	0.144
462	0.144
463	0.144
463	0.144
463	0.145
464	0.145
464	0.144
465	0.144
465	0.144
466	0.145
466	0.145
467	0.145
467	0.144
467	0.144
468	0.142
468	0.141
469	0.14
469	0.139
470	0.138
470	0.137
471	0.137
471	0.136
472	0.136
472	0.136
472	0.136
473	0.137
473	0.138
474	0.139
474	0.14
475	0.141
475	0.141
476	0.141
476	0.141
477	0.141
477	0.141
477	0.141
478	0.141
478	0.141
479	0.141
479	0.141
480	0.142
480	0.142
481	0.143
481	0.144
482	0.145
482	0.146
482	0.147
483	0.149
483	0.151
484	0.153
484	0.154
485	0.155
485	0.156
486	0.156
486	0.157
487	0.157
487	0.158
487	0.158
488	0.157
488	0.156
489	0.155
489	0.154
490	0.154
490	0.153
491	0.153
491	0.154
492	0.154
492	0.154
492	0.154
493	0.154
493	0.155
494	0.156
494	0.157
495	0.159
495	0.16
496	0.161
496	0.162
496	0.163
497	0.164
497	0.165
498	0.166
498	0.166
499	0.167
499	0.167
500	0.167
500	0.168
501	0.169
501	0.17
501	0.171
502	0.172
502	0.173
503	0.175
503	0.176
504	0.176
504	0.177
505	0.177
505	0.177
506	0.178
506	0.178
506	0.178
507	0.178
507	0.178
508	0.179
508	0.18
509	0.18
509	0.181
510	0.182
510	0.183
511	0.184
511	0.184
511	0.184
512	0.184
512	0.184
513	0.184
513	0.184
514	0.183
514	0.183
515	0.183
515	0.183
515	0.182
516	0.182
516	0.183
517	0.183
517	0.183
518	0.184
518	0.184
519	0.184
519	0.183
520	0.182
520	0.181
520	0.18
521	0.179
521	0.177
522	0.175
522	0.173
523	0.172
523	0.171
524	0.171
524	0.171
524	0.171
525	0.172
525	0.173
526	0.175
526	0.176
527	0.178
527	0.18
528	0.182
528	0.183
529	0.184
529	0.185
529	0.186
530	0.187
530	0.187
531	0.188
531	0.189
532	0.189
532	0.189
533	0.189
533	0.19
533	0.19
534	0.19
534	0.19
535	0.19
535	0.19
536	0.19
536	0.19
537	0.19
537	0.19
538	0.19
538	0.19
538	0.189
539	0.189
539	0.189
540	0.188
540	0.187
541	0.186
541	0.185
542	0.184
542	0.183
542	0.182
543	0.182
543	0.181
544	0.18
544	0.18
545	0.18
545	0.18
546	0.18
546	0.18
547	0.179
547	0.178
547	0.176
548	0.175
548	0.174
549	0.173
549	0.172
550	0.171
550	0.17
551	0.168
551	0.167
551	0.167
552	0.167
552	0.167
553	0.167
553	0.167
554	0.168
554	0.167
555	0.166
555	0.164
556	0.162
556	0.161
556	0.159
557	0.157
557	0.156
558	0.155
558	0.154
559	0.153
559	0.153
560	0.153
560	0.153
560	0.154
561	0.154
561	0.155
562	0.155
562	0.155
563	0.153
563	0.152
564	0.15
564	0.148
564	0.146
565	0.145
565	0.144
566	0.143
566	0.142
567	0.142
567	0.143
568	0.145
568	0.146
568	0.148
569	0.15
569	0.153
570	0.155
570	0.155
571	0.156
571	0.157
572	0.157
572	0.157
573	0.158
573	0.157
573	0.157
574	0.156
574	0.156
575	0.156
575	0.158
576	0.159
576	0.158
577	0.157
577	0.157
577	0.157
578	0.156
578	0.156
579	0.157
579	0.158
580	0.157
580	0.155
581	0.152
581	0.15
581	0.149
582	0.149
582	0.148
583	0.149
583	0.148
584	0.146
584	0.142
585	0.14
585	0.14
585	0.14
586	0.14
586	0.139
587	0.138
587	0.135
588	0.133
588	0.131
589	0.13
589	0.129
590	0.129
590	0.128
590	0.129
591	0.13
591	0.13
592	0.13
592	0.129
593	0.129
593	0.129
594	0.128
594	0.126
594	0.125
595	0.124
595	0.123
596	0.121
596	0.121
597	0.123
597	0.124
598	0.125
598	0.127
598	0.128
599	0.129
599	0.129
600	0.128
600	0.127
601	0.126
601	0.124
602	0.122
602	0.122
602	0.12
603	0.12
603	0.121
604	0.121
604	0.122
605	0.124
605	0.126
606	0.126
606	0.125
606	0.125
607	0.124
607	0.123
608	0.122
608	0.119
609	0.118
609	0.117
610	0.115
610	0.113
610	0.113
611	0.114
611	0.115
612	0.116
612	0.117
613	0.119
613	0.12
614	0.119
614	0.118
614	0.117
615	0.116
615	0.115
616	0.114
616	0.112
617	0.11
617	0.108
618	0.106
618	0.104
618	0.102
619	0.102
619	0.102
620	0.104
620	0.104
621	0.104
621	0.105
622	0.104
622	0.105
622	0.105
623	0.104
623	0.105
624	0.105
624	0.104
625	0.103
625	0.102
626	0.102
626	0.101
626	0.101
627	0.101
627	0.101
628	0.101
628	0.102
629	0.102
629	0.102
630	0.101
630	0.1
630	0.1
631	0.1
631	0.101
632	0.1
632	0.1
633	0.1
633	0.101
634	0.102
634	0.103
634	0.105
635	0.106
635	0.107
636	0.108
636	0.109
637	0.109
637	0.109
638	0.11
638	0.11
638	0.111
639	0.111
639	0.111
640	0.111
640	0.112
641	0.113
641	0.114
642	0.115
642	0.117
642	0.118
643	0.119
643	0.12
644	0.121
644	0.123
645	0.124
645	0.125
646	0.127
646	0.13
646	0.132
647	0.135
647	0.137
648	0.139
648	0.141
649	0.143
649	0.146
650	0.148
650	0.15
650	0.152
651	0.154
651	0.156
652	0.157
652	0.158
653	0.161
653	0.169
653	0.184
654	0.148
654	0.121
655	0.124
655	0.126
656	0.127
656	0.128
657	0.129
657	0.131
657	0.132
658	0.128
658	0.115
659	0.144
659	0.186
660	0.19
660	0.191
661	0.192
661	0.194
661	0.196
662	0.199
662	0.202
663	0.205
663	0.208
664	0.211
664	0.213
665	0.216
665	0.218
665	0.22
666	0.222
666	0.224
667	0.226
667	0.227
668	0.229
668	0.231
669	0.233
669	0.235
669	0.239
670	0.242
670	0.245
671	0.247
671	0.249
672	0.251
672	0.252
672	0.254
673	0.255
673	0.256
674	0.257
674	0.257
675	0.257
675	0.257
676	0.259
676	0.261
676	0.262
677	0.263
677	0.265
678	0.266
678	0.268
679	0.269
679	0.271
680	0.273
680	0.274
680	0.275
681	0.276
681	0.277
682	0.278
682	0.279
683	0.28
683	0.283
684	0.285
684	0.285
684	0.285
685	0.286
685	0.287
686	0.288
686	0.288
687	0.289
687	0.289
687	0.289
688	0.288
688	0.287
689	0.288
689	0.289
690	0.289
690	0.288
691	0.287
691	0.287
691	0.286
692	0.285
692	0.284
693	0.283
693	0.283
694	0.282
694	0.28
695	0.281
695	0.283
695	0.284
696	0.283
696	0.283
697	0.283
697	0.282
698	0.282
698	0.281
698	0.28
699	0.28
699	0.279
700	0.276
700	0.275
701	0.275
701	0.275
702	0.274
702	0.273
702	0.272
703	0.271
703	0.27
704	0.268
704	0.267
705	0.267
705	0.266
705	0.264
706	0.263
706	0.262
707	0.26
707	0.258
708	0.256
708	0.254
709	0.253
709	0.251
709	0.248
710	0.245
710	0.244
711	0.242
711	0.241
712	0.24
712	0.239
713	0.238
713	0.237
713	0.236
714	0.234
714	0.232
715	0.231
715	0.229
716	0.227
716	0.225
716	0.223
717	0.222
717	0.22
718	0.218
718	0.216
719	0.216
719	0.215
720	0.213
720	0.212
720	0.21
721	0.208
721	0.206
722	0.204
722	0.202
723	0.201
723	0.2
723	0.198
724	0.197
724	0.195
725	0.193
725	0.191
726	0.189
726	0.188
727	0.186
727	0.184
727	0.183
728	0.18
728	0.179
729	0.179
729	0.178
730	0.177
730	0.175
730	0.174
731	0.173
731	0.172
732	0.171
732	0.17
733	0.168
733	0.166
734	0.164
734	0.162
734	0.16
735	0.16
735	0.158
736	0.157
736	0.156
737	0.155
737	0.155
737	0.154
738	0.151
738	0.149
739	0.146
739	0.143
740	0.14
740	0.137
741	0.135
741	0.131
741	0.127
742	0.122
742	0.119
743	0.116
743	0.114
744	0.113
744	0.111
744	0.11
745	0.108
745	0.106
746	0.105
746	0.104
747	0.103
747	0.103
748	0.103
748	0.102
748	0.101
749	0.1
749	0.099
750	0.099
750	0.098
751	0.099
751	0.099
751	0.1
752	0.099
752	0.098
753	0.098
753	0.098
754	0.098
754	0.097
754	0.097
755	0.097
755	0.097
756	0.097
756	0.094
757	0.093
757	0.092
758	0.091
758	0.089
758	0.088
759	0.087
759	0.085
760	0.082
760	0.079
761	0.076
761	0.075
761	0.074
762	0.071
762	0.071
763	0.07
763	0.068
764	0.065
764	0.062
764	0.06
765	0.057
765	0.054
766	0.053
766	0.051
767	0.049
767	0.046
768	0.041
768	0.038
768	0.036
769	0.034
769	0.033
770	0.031
770	0.028
771	0.025
771	0.021
771	0.017
772	0.013
772	0.01
773	0.006
773	0.002
774	-0.003
774	-0.008
775	-0.012
775	-0.016
775	-0.021
776	-0.026
776	-0.031
777	-0.036
777	-0.041
778	-0.047
778	-0.052
778	-0.058
779	-0.061
779	-0.065
780	-0.071
780	-0.077
781	-0.084
781	-0.092
781	-0.101
782	-0.11
782	-0.119
783	-0.128
783	-0.134
784	-0.141
784	-0.147
784	-0.152
785	-0.156
785	-0.16
786	-0.161
786	-0.158
787	-0.152
787	-0.148
788	-0.147
788	-0.147
788	-0.149
789	-0.151
789	-0.15
790	-0.147
790	-0.146
791	-0.146
791	-0.148
791	-0.151
792	-0.146
792	-0.135
793	-0.129
793	-0.125
794	-0.123
794	-0.126
794	-0.13
795	-0.132
795	-0.132
796	-0.133
796	-0.136
797	-0.145
797	-0.156
797	-0.162
798	-0.168
798	-0.17
799	-0.171
799	-0.17
800	-0.169
800	-0.171
801	-0.174
801	-0.174
801	-0.175
802	-0.176
802	-0.177
803	-0.178
803	-0.179
804	-0.178
804	-0.172
804	-0.166
805	-0.162
805	-0.16
806	-0.158
806	-0.157
807	-0.156
807	-0.155
807	-0.155
808	-0.155
808	-0.156
809	-0.161
809	-0.167
810	-0.171
810	-0.174
810	-0.177
811	-0.181
811	-0.181
812	-0.177
812	-0.174
813	-0.174
813	-0.175
813	-0.175
814	-0.176
814	-0.175
815	-0.172
815	-0.168
816	-0.165
816	-0.165
817	-0.169
817	-0.171
817	-0.171
818	-0.17
818	-0.167
819	-0.161
819	-0.158
820	-0.156
820	-0.154
820	-0.149
821	-0.143
821	-0.135
822	-0.126
822	-0.117
823	-0.108
823	-0.1
823	-0.094
824	-0.086
824	-0.077
825	-0.068
825	-0.06
826	-0.053
826	-0.047
826	-0.042
827	-0.037
827	-0.033
828	-0.028
828	-0.025
829	-0.021
829	-0.019
829	-0.017
830	-0.015
830	-0.013
831	-0.009
831	-0.006
832	-0.003
832	0
832	0.003
833	0.007
833	0.01
834	0.013
834	0.016
835	0.019
835	0.021
835	0.023
836	0.025
836	0.026
837	0.028
837	0.028
838	0.029
838	0.029
839	0.029
839	0.029
839	0.029
840	0.029
840	0.028
841	0.028
841	0.028
842	0.029
842	0.03
842	0.03
843	0.031
843	0.032
844	0.034
844	0.036
845	0.038
845	0.04
845	0.042
846	0.043
846	0.045
847	0.046
847	0.047
848	0.047
848	0.047
848	0.047
849	0.047
849	0.046
850	0.045
850	0.044
851	0.043
851	0.043
851	0.042
852	0.041
852	0.042
853	0.042
853	0.042
854	0.043
854	0.043
854	0.044
855	0.044
855	0.044
856	0.045
856	0.045
857	0.045
857	0.045
857	0.045
858	0.044
858	0.044
859	0.043
859	0.043
860	0.043
860	0.043
860	0.043
861	0.043
861	0.043
862	0.043
862	0.044
863	0.044
863	0.044
863	0.045
864	0.045
864	0.045
865	0.046
865	0.047
866	0.047
866	0.048
866	0.049
867	0.05
867	0.051
868	0.052
868	0.053
869	0.055
869	0.056
869	0.057
870	0.057
870	0.058
871	0.058
871	0.057
872	0.057
872	0.056
872	0.055
873	0.054
873	0.053
874	0.052
874	0.052
875	0.052
875	0.052
875	0.052
876	0.052
876	0.052
877	0.052
877	0.052
878	0.052
878	0.053
878	0.053
879	0.054
879	0.054
880	0.054
880	0.054
881	0.054
881	0.055
881	0.055
882	0.056
882	0.056
883	0.056
883	0.056
884	0.056
884	0.056
884	0.056
885	0.055
885	0.055
886	0.055
886	0.054
887	0.053
887	0.053
887	0.052
888	0.051
888	0.051
889	0.05
889	0.05
890	0.049
890	0.048
890	0.047
891	0.046
891	0.044
892	0.043
892	0.042
893	0.04
893	0.039
893	0.038
894	0.038
894	0.037
895	0.036
895	0.036
895	0.036
896	0.035
896	0.035
897	0.035
897	0.036
898	0.036
898	0.037
898	0.037
899	0.038
899	0.039
900	0.041
900	0.042
901	0.044
901	0.046
901	0.047
902	0.049
902	0.05
903	0.051
903	0.052
904	0.052
904	0.053
904	0.053
905	0.053
905	0.053
906	0.053
906	0.053
907	0.053
907	0.052
907	0.052
908	0.052
908	0.053
909	0.054
909	0.054
910	0.055
910	0.056
910	0.056
911	0.057
911	0.058
912	0.058
912	0.059
913	0.058
913	0.058
913	0.057
914	0.056
914	0.054
915	0.052
915	0.05
916	0.048
916	0.046
916	0.044
917	0.042
917	0.041
918	0.04
918	0.039
918	0.038
919	0.038
919	0.039
920	0.04
920	0.041
921	0.042
921	0.043
921	0.045
922	0.046
922	0.047
923	0.048
923	0.049
924	0.05
924	0.05
924	0.049
925	0.049
925	0.049
926	0.048
926	0.047
927	0.046
927	0.045
927	0.044
928	0.043
928	0.042
929	0.041
929	0.04
930	0.04
930	0.039
930	0.039
931	0.038
931	0.038
932	0.038
932	0.038
933	0.039
933	0.039
933	0.039
934	0.039
934	0.039
935	0.039
935	0.038
935	0.038
936	0.038
936	0.038
937	0.038
937	0.038
938	0.039
938	0.039
938	0.039
939	0.04
939	0.04
940	0.041
940	0.041
941	0.042
941	0.042
941	0.043
942	0.043
942	0.044
943	0.044
943	0.044
944	0.043
944	0.043
944	0.043
945	0.043
945	0.043
946	0.043
946	0.042
946	0.042
947	0.042
947	0.041
948	0.041
948	0.041
949	0.041
949	0.041
949	0.042
950	0.042
950	0.042
951	0.042
951	0.042
952	0.042
952	0.043
952	0.043
953	0.044
953	0.044
954	0.043
954	0.043
955	0.043
955	0.042
955	0.043
956	0.043
956	0.043
957	0.042
957	0.041
957	0.04
958	0.039
958	0.039
959	0.038
959	0.037
960	0.036
960	0.035
960	0.034
961	0.033
961	0.033
962	0.032
962	0.032
963	0.032
963	0.032
963	0.033
964	0.033
964	0.034
965	0.035
965	0.036
966	0.038
966	0.039
966	0.04
967	0.042
967	0.043
968	0.043
968	0.044
968	0.045
969	0.045
969	0.045
970	0.045
970	0.045
971	0.045
971	0.044
971	0.043
972	0.043
972	0.043
973	0.042
973	0.042
974	0.041
974	0.041
974	0.04
975	0.04
975	0.04
976	0.039
976	0.039
976	0.038
977	0.036
977	0.035
978	0.034
978	0.032
979	0.031
979	0.03
979	0.029
980	0.027
980	0.027
981	0.026
981	0.026
982	0.027
982	0.027
982	0.028
983	0.029
983	0.03
984	0.031
984	0.032
984	0.033
985	0.033
985	0.034
986	0.034
986	0.034
987	0.034
987	0.034
987	0.034
988	0.035
988	0.035
989	0.036
989	0.036
990	0.037
990	0.038
990	0.039
991	0.04
991	0.041
992	0.042
992	0.042
992	0.043
993	0.043
993	0.043
994	0.043
994	0.043
995	0.043
995	0.042
995	0.041
996	0.041
996	0.04
997	0.039
997	0.039
997	0.039
998	0.038
998	0.039
999	0.039
999	0.039
1000	0.04
1000	0.04
1000	0.041
1001	0.041
1001	0.042
1002	0.042
1002	0.042
1003	0.042
1003	0.041
1003	0.041
1004	0.041
1004	0.04
1005	0.04
1005	0.039
1005	0.038
1006	0.037
1006	0.036
1007	0.036
1007	0.035
1008	0.034
1008	0.033
1008	0.033
1009	0.032
1009	0.032
1010	0.031
1010	0.031
1010	0.031
1011	0.03
1011	0.029
1012	0.029
1012	0.028
1013	0.028
1013	0.027
1013	0.026
1014	0.025
1014	0.024
1015	0.023
1015	0.022
1016	0.022
1016	0.021
1016	0.02
1017	0.019
1017	0.019
1018	0.018
1018	0.018
1018	0.017
1019	0.017
1019	0.017
1020	0.016
1020	0.016
1021	0.015
1021	0.015
1021	0.015
1022	0.015
1022	0.016
1023	0.016
1023	0.017
1023	0.017
1024	0.017
1024	0.017
1025	0.017
1025	0.018
1026	0.018
1026	0.019
1026	0.019
1027	0.019
1027	0.02
1028	0.021
1028	0.022
1028	0.023
1029	0.023
1029	0.024
1030	0.025
1030	0.025
1031	0.025
1031	0.026
1031	0.026
1032	0.026
1032	0.026
1033	0.026
1033	0.025
1033	0.024
1034	0.023
1034	0.022
1035	0.021
1035	0.02
1036	0.019
1036	0.019
1036	0.018
1037	0.018
1037	0.018
1038	0.019
1038	0.019
1039	0.02
1039	0.021
1039	0.021
1040	0.022
1040	0.023
1041	0.023
1041	0.023
1041	0.022
1042	0.022
1042	0.021
1043	0.02
1043	0.02
1044	0.019
1044	0.018
1044	0.018
1045	0.017
1045	0.017
1046	0.016
1046	0.016
1046	0.017
1047	0.017
1047	0.018
1048	0.019
1048	0.019
1049	0.019
1049	0.019
1049	0.018
1050	0.018
1050	0.018
1051	0.018
1051	0.018
1051	0.018
1052	0.018
1052	0.017
1053	0.017
1053	0.017
1053	0.017
1054	0.017
1054	0.018
1055	0.018
1055	0.018
1056	0.017
1056	0.017
1056	0.016
1057	0.016
1057	0.016
1058	0.016
1058	0.015
1058	0.016
1059	0.016
1059	0.016
1060	0.017
1060	0.018
1061	0.02
1061	0.021
1061	0.023
1062	0.023
1062	0.024
1063	0.025
1063	0.025
1063	0.027
1064	0.028
1064	0.028
1065	0.029
1065	0.029
1066	0.03
1066	0.03
1066	0.031
1067	0.031
1067	0.032
1068	0.032
1068	0.032
1068	0.032
1069	0.032
1069	0.031
1070	0.031
1070	0.031
1071	0.032
1071	0.033
1071	0.032
1072	0.033
1072	0.034
1073	0.035
1073	0.036
1073	0.037
1074	0.038
1074	0.039
1075	0.039
1075	0.039
1076	0.039
1076	0.04
1076	0.04
1077	0.04
1077	0.041
1078	0.041
1078	0.042
1078	0.044
1079	0.046
1079	0.048
1080	0.049
1080	0.052
1080	0.053
1081	0.055
1081	0.057
1082	0.059
1082	0.061
1083	0.062
1083	0.063
1083	0.065
1084	0.067
1084	0.07
1085	0.072
1085	0.074
1085	0.077
1086	0.079
1086	0.08
1087	0.083
1087	0.085
1088	0.086
1088	0.088
1088	0.09
1089	0.092
1089	0.094
1090	0.096
1090	0.099
1090	0.102
1091	0.106
1091	0.11
1092	0.114
1092	0.12
1092	0.124
1093	0.129
1093	0.136
1094	0.142
1094	0.148
1095	0.154
1095	0.162
1095	0.171
1096	0.18
1096	0.189
1097	0.2
1097	0.211
1097	0.223
1098	0.235
1098	0.247
1099	0.263
1099	0.28
1100	0.298
1100	0.317
1100	0.339
1101	0.363
1101	0.39
1102	0.423
1102	0.459
1102	0.502
1103	0.553
1103	0.614
1104	0.69
1104	0.788
1104	0.933
1105	1.146
1105	1.574
1106	-0
1106	-0
1107	-0
1107	-0
1107	-0
1108	-0
1108	-0
1109	-0
1109	-0
1109	-0
1110	-0
1110	-0
1111	-0
1111	-0
