Data from 15c-2a_Absorbance__293__02094.txt Node

Date: Wed Jan 17 11:19:32 CET 2024
User: Marek
Spectrometer: MAYP115816
Trigger mode: 0
Integration Time (sec): 2.000000E-1
Scans to average: 10
Electric dark correction enabled: true
Nonlinearity correction enabled: true
Boxcar width: 5
XAxis mode: Wavelengths
Number of Pixels in Spectrum: 2068
>>>>>Begin Spectral Data<<<<<
199	-1.633
199	-1.495
200	-1.337
200	-1.214
201	-1.139
201	-1.091
202	-1.022
202	-0.97
203	-0.925
203	-0.887
204	-0.863
204	-0.839
205	-0.815
205	-0.805
205	-0.804
206	-0.803
206	-0.8
207	-0.797
207	-0.794
208	-0.793
208	-0.791
209	-0.786
209	-0.786
210	-0.786
210	-0.787
211	-0.785
211	-0.785
212	-0.786
212	-0.785
213	-0.784
213	-0.783
213	-0.783
214	-0.782
214	-0.782
215	-0.78
215	-0.779
216	-0.779
216	-0.776
217	-0.772
217	-0.771
218	-0.77
218	-0.766
219	-0.764
219	-0.763
220	-0.76
220	-0.757
221	-0.752
221	-0.748
221	-0.744
222	-0.741
222	-0.736
223	-0.731
223	-0.728
224	-0.722
224	-0.714
225	-0.706
225	-0.699
226	-0.691
226	-0.677
227	-0.664
227	-0.652
228	-0.636
228	-0.618
229	-0.597
229	-0.572
229	-0.545
230	-0.516
230	-0.484
231	-0.449
231	-0.413
232	-0.375
232	-0.333
233	-0.29
233	-0.246
234	-0.202
234	-0.159
235	-0.117
235	-0.076
236	-0.036
236	0.001
236	0.037
237	0.073
237	0.104
238	0.134
238	0.162
239	0.188
239	0.211
240	0.233
240	0.252
241	0.27
241	0.286
242	0.3
242	0.313
243	0.325
243	0.335
243	0.345
244	0.353
244	0.361
245	0.367
245	0.374
246	0.381
246	0.386
247	0.392
247	0.397
248	0.402
248	0.406
249	0.41
249	0.414
250	0.417
250	0.421
250	0.424
251	0.427
251	0.429
252	0.432
252	0.434
253	0.437
253	0.438
254	0.44
254	0.442
255	0.443
255	0.445
256	0.446
256	0.447
257	0.448
257	0.448
258	0.448
258	0.449
258	0.449
259	0.45
259	0.45
260	0.45
260	0.45
261	0.449
261	0.449
262	0.449
262	0.449
263	0.448
263	0.447
264	0.447
264	0.446
265	0.445
265	0.444
265	0.442
266	0.441
266	0.44
267	0.438
267	0.437
268	0.435
268	0.434
269	0.432
269	0.431
270	0.429
270	0.427
271	0.425
271	0.423
272	0.421
272	0.419
272	0.418
273	0.416
273	0.413
274	0.412
274	0.409
275	0.407
275	0.406
276	0.404
276	0.401
277	0.399
277	0.397
278	0.395
278	0.392
278	0.39
279	0.387
279	0.384
280	0.382
280	0.38
281	0.377
281	0.375
282	0.373
282	0.371
283	0.369
283	0.367
284	0.365
284	0.363
285	0.362
285	0.36
285	0.358
286	0.357
286	0.355
287	0.353
287	0.352
288	0.35
288	0.349
289	0.347
289	0.345
290	0.344
290	0.342
291	0.341
291	0.339
292	0.338
292	0.336
292	0.335
293	0.333
293	0.332
294	0.331
294	0.33
295	0.329
295	0.328
296	0.326
296	0.325
297	0.324
297	0.323
298	0.323
298	0.322
298	0.321
299	0.32
299	0.319
300	0.318
300	0.317
301	0.316
301	0.315
302	0.314
302	0.313
303	0.313
303	0.312
304	0.311
304	0.31
305	0.309
305	0.309
305	0.308
306	0.307
306	0.306
307	0.305
307	0.304
308	0.304
308	0.303
309	0.302
309	0.301
310	0.3
310	0.299
311	0.299
311	0.298
311	0.297
312	0.296
312	0.296
313	0.295
313	0.294
314	0.293
314	0.292
315	0.291
315	0.29
316	0.289
316	0.289
317	0.288
317	0.287
318	0.286
318	0.285
318	0.285
319	0.284
319	0.283
320	0.282
320	0.281
321	0.281
321	0.28
322	0.279
322	0.278
323	0.277
323	0.276
324	0.275
324	0.274
324	0.273
325	0.272
325	0.272
326	0.271
326	0.27
327	0.269
327	0.269
328	0.268
328	0.267
329	0.266
329	0.265
330	0.265
330	0.264
330	0.263
331	0.262
331	0.261
332	0.26
332	0.26
333	0.259
333	0.258
334	0.257
334	0.257
335	0.256
335	0.255
336	0.254
336	0.254
336	0.253
337	0.252
337	0.251
338	0.251
338	0.25
339	0.249
339	0.249
340	0.248
340	0.248
341	0.247
341	0.247
342	0.246
342	0.246
342	0.245
343	0.245
343	0.244
344	0.243
344	0.243
345	0.242
345	0.242
346	0.241
346	0.241
347	0.24
347	0.24
348	0.239
348	0.239
348	0.238
349	0.238
349	0.237
350	0.237
350	0.236
351	0.236
351	0.235
352	0.235
352	0.234
353	0.234
353	0.234
354	0.233
354	0.233
354	0.232
355	0.232
355	0.231
356	0.231
356	0.23
357	0.229
357	0.229
358	0.229
358	0.228
359	0.228
359	0.228
360	0.228
360	0.228
360	0.228
361	0.228
361	0.228
362	0.229
362	0.229
363	0.229
363	0.229
364	0.228
364	0.228
365	0.228
365	0.227
366	0.227
366	0.227
366	0.227
367	0.226
367	0.226
368	0.226
368	0.225
369	0.225
369	0.225
370	0.224
370	0.224
371	0.224
371	0.224
372	0.224
372	0.223
372	0.223
373	0.223
373	0.222
374	0.223
374	0.223
375	0.222
375	0.222
376	0.222
376	0.222
377	0.222
377	0.222
378	0.222
378	0.222
378	0.222
379	0.222
379	0.222
380	0.222
380	0.221
381	0.221
381	0.221
382	0.221
382	0.22
383	0.22
383	0.22
383	0.219
384	0.219
384	0.219
385	0.219
385	0.219
386	0.219
386	0.218
387	0.218
387	0.218
388	0.218
388	0.218
389	0.218
389	0.218
389	0.218
390	0.218
390	0.218
391	0.218
391	0.218
392	0.217
392	0.217
393	0.217
393	0.217
394	0.217
394	0.216
394	0.216
395	0.216
395	0.215
396	0.215
396	0.215
397	0.215
397	0.215
398	0.215
398	0.215
399	0.215
399	0.215
400	0.214
400	0.214
400	0.214
401	0.213
401	0.212
402	0.212
402	0.212
403	0.212
403	0.212
404	0.212
404	0.211
405	0.211
405	0.211
405	0.211
406	0.21
406	0.21
407	0.21
407	0.21
408	0.209
408	0.209
409	0.208
409	0.208
410	0.208
410	0.208
411	0.208
411	0.208
411	0.208
412	0.207
412	0.207
413	0.207
413	0.206
414	0.206
414	0.206
415	0.206
415	0.205
416	0.205
416	0.205
416	0.204
417	0.204
417	0.204
418	0.204
418	0.204
419	0.205
419	0.205
420	0.205
420	0.206
421	0.206
421	0.206
421	0.206
422	0.207
422	0.207
423	0.207
423	0.207
424	0.206
424	0.206
425	0.205
425	0.204
426	0.204
426	0.204
427	0.203
427	0.203
427	0.203
428	0.203
428	0.204
429	0.204
429	0.204
430	0.204
430	0.204
431	0.203
431	0.203
432	0.203
432	0.203
432	0.202
433	0.201
433	0.201
434	0.201
434	0.201
435	0.201
435	0.201
436	0.201
436	0.201
437	0.201
437	0.201
437	0.201
438	0.201
438	0.201
439	0.201
439	0.201
440	0.201
440	0.201
441	0.201
441	0.201
442	0.201
442	0.2
442	0.201
443	0.2
443	0.2
444	0.2
444	0.201
445	0.201
445	0.201
446	0.201
446	0.201
447	0.201
447	0.201
447	0.201
448	0.201
448	0.201
449	0.201
449	0.201
450	0.201
450	0.201
451	0.201
451	0.201
452	0.201
452	0.201
452	0.201
453	0.201
453	0.201
454	0.201
454	0.201
455	0.201
455	0.201
456	0.202
456	0.201
457	0.201
457	0.201
458	0.201
458	0.201
458	0.201
459	0.201
459	0.201
460	0.201
460	0.2
461	0.2
461	0.2
462	0.2
462	0.2
463	0.2
463	0.201
463	0.201
464	0.201
464	0.201
465	0.201
465	0.201
466	0.202
466	0.202
467	0.202
467	0.202
467	0.202
468	0.202
468	0.201
469	0.201
469	0.201
470	0.201
470	0.201
471	0.201
471	0.201
472	0.201
472	0.202
472	0.202
473	0.203
473	0.204
474	0.204
474	0.205
475	0.206
475	0.207
476	0.207
476	0.207
477	0.208
477	0.208
477	0.209
478	0.209
478	0.209
479	0.21
479	0.211
480	0.211
480	0.212
481	0.213
481	0.214
482	0.215
482	0.216
482	0.218
483	0.219
483	0.222
484	0.223
484	0.224
485	0.225
485	0.226
486	0.227
486	0.228
487	0.229
487	0.23
487	0.23
488	0.231
488	0.231
489	0.231
489	0.233
490	0.233
490	0.234
491	0.235
491	0.236
492	0.238
492	0.238
492	0.239
493	0.24
493	0.241
494	0.243
494	0.245
495	0.247
495	0.249
496	0.251
496	0.252
496	0.254
497	0.256
497	0.258
498	0.259
498	0.26
499	0.262
499	0.263
500	0.264
500	0.265
501	0.267
501	0.268
501	0.27
502	0.272
502	0.273
503	0.275
503	0.277
504	0.279
504	0.28
505	0.281
505	0.283
506	0.284
506	0.286
506	0.287
507	0.288
507	0.29
508	0.291
508	0.293
509	0.295
509	0.297
510	0.299
510	0.3
511	0.301
511	0.302
511	0.303
512	0.304
512	0.305
513	0.305
513	0.306
514	0.306
514	0.307
515	0.308
515	0.308
515	0.308
516	0.309
516	0.31
517	0.311
517	0.312
518	0.312
518	0.312
519	0.312
519	0.312
520	0.312
520	0.311
520	0.311
521	0.31
521	0.309
522	0.308
522	0.307
523	0.307
523	0.306
524	0.306
524	0.306
524	0.306
525	0.306
525	0.307
526	0.307
526	0.308
527	0.308
527	0.309
528	0.309
528	0.309
529	0.309
529	0.309
529	0.308
530	0.308
530	0.307
531	0.307
531	0.306
532	0.305
532	0.305
533	0.304
533	0.303
533	0.303
534	0.301
534	0.3
535	0.299
535	0.298
536	0.297
536	0.295
537	0.294
537	0.293
538	0.291
538	0.289
538	0.287
539	0.286
539	0.284
540	0.282
540	0.279
541	0.277
541	0.275
542	0.272
542	0.27
542	0.267
543	0.265
543	0.263
544	0.261
544	0.259
545	0.257
545	0.255
546	0.254
546	0.251
547	0.249
547	0.246
547	0.243
548	0.241
548	0.239
549	0.236
549	0.234
550	0.231
550	0.228
551	0.225
551	0.223
551	0.22
552	0.218
552	0.216
553	0.215
553	0.213
554	0.211
554	0.208
555	0.206
555	0.203
556	0.2
556	0.197
556	0.195
557	0.192
557	0.19
558	0.187
558	0.185
559	0.183
559	0.181
560	0.179
560	0.177
560	0.175
561	0.174
561	0.173
562	0.171
562	0.168
563	0.166
563	0.163
564	0.16
564	0.157
564	0.154
565	0.152
565	0.149
566	0.147
566	0.144
567	0.143
567	0.142
568	0.141
568	0.14
568	0.14
569	0.14
569	0.14
570	0.139
570	0.137
571	0.136
571	0.136
572	0.134
572	0.133
573	0.131
573	0.129
573	0.127
574	0.126
574	0.125
575	0.124
575	0.124
576	0.124
576	0.122
577	0.12
577	0.119
577	0.119
578	0.118
578	0.118
579	0.118
579	0.117
580	0.115
580	0.111
581	0.108
581	0.106
581	0.106
582	0.105
582	0.104
583	0.104
583	0.103
584	0.099
584	0.096
585	0.095
585	0.095
585	0.095
586	0.094
586	0.093
587	0.091
587	0.089
588	0.087
588	0.085
589	0.085
589	0.085
590	0.084
590	0.084
590	0.085
591	0.086
591	0.085
592	0.084
592	0.083
593	0.083
593	0.082
594	0.081
594	0.08
594	0.079
595	0.078
595	0.077
596	0.076
596	0.076
597	0.078
597	0.079
598	0.079
598	0.08
598	0.081
599	0.081
599	0.081
600	0.08
600	0.079
601	0.079
601	0.078
602	0.076
602	0.076
602	0.076
603	0.076
603	0.077
604	0.078
604	0.079
605	0.081
605	0.082
606	0.082
606	0.082
606	0.081
607	0.08
607	0.08
608	0.079
608	0.077
609	0.076
609	0.076
610	0.075
610	0.073
610	0.074
611	0.075
611	0.076
612	0.077
612	0.078
613	0.08
613	0.081
614	0.08
614	0.079
614	0.079
615	0.078
615	0.077
616	0.077
616	0.076
617	0.075
617	0.074
618	0.072
618	0.071
618	0.071
619	0.072
619	0.073
620	0.076
620	0.077
621	0.077
621	0.078
622	0.079
622	0.08
622	0.08
623	0.08
623	0.081
624	0.082
624	0.081
625	0.081
625	0.081
626	0.081
626	0.081
626	0.082
627	0.082
627	0.083
628	0.084
628	0.084
629	0.085
629	0.085
630	0.085
630	0.085
630	0.086
631	0.087
631	0.088
632	0.088
632	0.089
633	0.091
633	0.092
634	0.094
634	0.096
634	0.098
635	0.1
635	0.101
636	0.102
636	0.104
637	0.104
637	0.105
638	0.106
638	0.108
638	0.109
639	0.11
639	0.111
640	0.112
640	0.114
641	0.116
641	0.117
642	0.119
642	0.122
642	0.124
643	0.126
643	0.127
644	0.13
644	0.132
645	0.134
645	0.136
646	0.138
646	0.141
646	0.143
647	0.146
647	0.148
648	0.151
648	0.153
649	0.155
649	0.158
650	0.16
650	0.163
650	0.165
651	0.168
651	0.17
652	0.173
652	0.176
653	0.179
653	0.187
653	0.202
654	0.16
654	0.129
655	0.132
655	0.135
656	0.137
656	0.138
657	0.14
657	0.142
657	0.143
658	0.141
658	0.129
659	0.165
659	0.216
660	0.224
660	0.226
661	0.228
661	0.231
661	0.234
662	0.238
662	0.242
663	0.246
663	0.25
664	0.254
664	0.257
665	0.26
665	0.264
665	0.267
666	0.27
666	0.272
667	0.275
667	0.277
668	0.28
668	0.283
669	0.286
669	0.289
669	0.293
670	0.296
670	0.299
671	0.302
671	0.304
672	0.307
672	0.309
672	0.311
673	0.313
673	0.315
674	0.316
674	0.318
675	0.319
675	0.32
676	0.322
676	0.324
676	0.325
677	0.326
677	0.328
678	0.329
678	0.33
679	0.331
679	0.332
680	0.334
680	0.336
680	0.337
681	0.338
681	0.34
682	0.341
682	0.343
683	0.345
683	0.347
684	0.349
684	0.349
684	0.349
685	0.35
685	0.351
686	0.351
686	0.352
687	0.352
687	0.351
687	0.351
688	0.35
688	0.349
689	0.349
689	0.349
690	0.349
690	0.347
691	0.346
691	0.345
691	0.344
692	0.342
692	0.341
693	0.34
693	0.339
694	0.337
694	0.335
695	0.334
695	0.335
695	0.334
696	0.333
696	0.332
697	0.331
697	0.33
698	0.329
698	0.327
698	0.326
699	0.326
699	0.324
700	0.321
700	0.32
701	0.319
701	0.317
702	0.315
702	0.314
702	0.312
703	0.31
703	0.307
704	0.305
704	0.303
705	0.301
705	0.298
705	0.296
706	0.293
706	0.291
707	0.289
707	0.286
708	0.283
708	0.281
709	0.279
709	0.276
709	0.273
710	0.269
710	0.267
711	0.265
711	0.262
712	0.26
712	0.258
713	0.256
713	0.254
713	0.252
714	0.249
714	0.247
715	0.245
715	0.243
716	0.24
716	0.238
716	0.235
717	0.233
717	0.23
718	0.227
718	0.225
719	0.222
719	0.22
720	0.217
720	0.214
720	0.212
721	0.208
721	0.206
722	0.203
722	0.2
723	0.199
723	0.197
723	0.195
724	0.192
724	0.19
725	0.188
725	0.185
726	0.183
726	0.181
727	0.179
727	0.177
727	0.174
728	0.172
728	0.169
729	0.168
729	0.167
730	0.165
730	0.163
730	0.161
731	0.159
731	0.157
732	0.156
732	0.154
733	0.151
733	0.149
734	0.147
734	0.144
734	0.143
735	0.141
735	0.139
736	0.137
736	0.136
737	0.135
737	0.134
737	0.132
738	0.129
738	0.126
739	0.124
739	0.121
740	0.118
740	0.115
741	0.113
741	0.109
741	0.106
742	0.101
742	0.099
743	0.097
743	0.095
744	0.093
744	0.092
744	0.09
745	0.088
745	0.085
746	0.084
746	0.082
747	0.081
747	0.08
748	0.079
748	0.078
748	0.076
749	0.074
749	0.074
750	0.073
750	0.072
751	0.072
751	0.072
751	0.072
752	0.071
752	0.071
753	0.07
753	0.07
754	0.07
754	0.069
754	0.069
755	0.069
755	0.068
756	0.067
756	0.065
757	0.064
757	0.063
758	0.061
758	0.06
758	0.059
759	0.057
759	0.054
760	0.052
760	0.049
761	0.047
761	0.046
761	0.045
762	0.042
762	0.042
763	0.041
763	0.039
764	0.036
764	0.035
764	0.033
765	0.031
765	0.029
766	0.028
766	0.027
767	0.027
767	0.024
768	0.021
768	0.02
768	0.019
769	0.018
769	0.017
770	0.015
770	0.013
771	0.011
771	0.008
771	0.005
772	0.004
772	0.001
773	-0.001
773	-0.003
774	-0.006
774	-0.008
775	-0.01
775	-0.013
775	-0.016
776	-0.018
776	-0.021
777	-0.024
777	-0.026
778	-0.029
778	-0.032
778	-0.035
779	-0.037
779	-0.039
780	-0.043
780	-0.046
781	-0.05
781	-0.055
781	-0.06
782	-0.066
782	-0.072
783	-0.078
783	-0.084
784	-0.091
784	-0.097
784	-0.104
785	-0.11
785	-0.116
786	-0.122
786	-0.125
787	-0.125
787	-0.127
788	-0.132
788	-0.137
788	-0.141
789	-0.146
789	-0.148
790	-0.148
790	-0.149
791	-0.15
791	-0.152
791	-0.155
792	-0.149
792	-0.139
793	-0.133
793	-0.129
794	-0.127
794	-0.129
794	-0.134
795	-0.136
795	-0.136
796	-0.137
796	-0.14
797	-0.149
797	-0.16
797	-0.166
798	-0.172
798	-0.174
799	-0.175
799	-0.174
800	-0.173
800	-0.175
801	-0.178
801	-0.178
801	-0.179
802	-0.18
802	-0.181
803	-0.182
803	-0.182
804	-0.181
804	-0.176
804	-0.17
805	-0.166
805	-0.164
806	-0.162
806	-0.161
807	-0.16
807	-0.159
807	-0.159
808	-0.159
808	-0.16
809	-0.165
809	-0.171
810	-0.175
810	-0.178
810	-0.181
811	-0.185
811	-0.185
812	-0.181
812	-0.178
813	-0.178
813	-0.178
813	-0.179
814	-0.179
814	-0.179
815	-0.175
815	-0.172
816	-0.168
816	-0.165
817	-0.164
817	-0.161
817	-0.154
818	-0.146
818	-0.136
819	-0.126
819	-0.117
820	-0.11
820	-0.103
820	-0.095
821	-0.088
821	-0.081
822	-0.075
822	-0.07
823	-0.066
823	-0.063
823	-0.06
824	-0.056
824	-0.052
825	-0.048
825	-0.044
826	-0.042
826	-0.04
826	-0.038
827	-0.037
827	-0.036
828	-0.034
828	-0.033
829	-0.032
829	-0.032
829	-0.031
830	-0.032
830	-0.031
831	-0.029
831	-0.027
832	-0.026
832	-0.024
832	-0.023
833	-0.021
833	-0.019
834	-0.017
834	-0.015
835	-0.013
835	-0.011
835	-0.01
836	-0.008
836	-0.007
837	-0.006
837	-0.005
838	-0.004
838	-0.003
839	-0.003
839	-0.003
839	-0.003
840	-0.003
840	-0.003
841	-0.004
841	-0.004
842	-0.004
842	-0.004
842	-0.004
843	-0.004
843	-0.004
844	-0.003
844	-0.002
845	-0.001
845	-0
845	0.001
846	0.002
846	0.002
847	0.003
847	0.003
848	0.003
848	0.003
848	0.003
849	0.003
849	0.002
850	0.002
850	0.001
851	0.001
851	0.001
851	0.001
852	0.001
852	0.001
853	0.002
853	0.002
854	0.003
854	0.003
854	0.003
855	0.003
855	0.003
856	0.003
856	0.003
857	0.002
857	0.002
857	0.001
858	0
858	-0.001
859	-0.002
859	-0.002
860	-0.003
860	-0.003
860	-0.004
861	-0.004
861	-0.004
862	-0.004
862	-0.004
863	-0.004
863	-0.004
863	-0.004
864	-0.003
864	-0.003
865	-0.002
865	-0.001
866	-0.001
866	0
866	0.001
867	0.002
867	0.004
868	0.005
868	0.007
869	0.008
869	0.009
869	0.01
870	0.01
870	0.01
871	0.01
871	0.01
872	0.009
872	0.008
872	0.007
873	0.006
873	0.005
874	0.004
874	0.003
875	0.003
875	0.003
875	0.002
876	0.002
876	0.002
877	0.002
877	0.002
878	0.002
878	0.003
878	0.003
879	0.004
879	0.004
880	0.004
880	0.004
881	0.004
881	0.005
881	0.005
882	0.005
882	0.005
883	0.005
883	0.005
884	0.006
884	0.006
884	0.006
885	0.006
885	0.006
886	0.006
886	0.006
887	0.006
887	0.005
887	0.005
888	0.005
888	0.004
889	0.004
889	0.003
890	0.003
890	0.002
890	0.001
891	-0
891	-0.001
892	-0.003
892	-0.004
893	-0.005
893	-0.006
893	-0.006
894	-0.007
894	-0.007
895	-0.008
895	-0.008
895	-0.008
896	-0.008
896	-0.008
897	-0.008
897	-0.007
898	-0.007
898	-0.006
898	-0.005
899	-0.004
899	-0.003
900	-0.002
900	-0.001
901	0
901	0.002
901	0.003
902	0.005
902	0.006
903	0.006
903	0.007
904	0.007
904	0.006
904	0.006
905	0.006
905	0.006
906	0.006
906	0.005
907	0.005
907	0.004
907	0.004
908	0.004
908	0.004
909	0.004
909	0.005
910	0.005
910	0.006
910	0.006
911	0.007
911	0.007
912	0.008
912	0.008
913	0.009
913	0.009
913	0.009
914	0.008
914	0.007
915	0.006
915	0.005
916	0.003
916	0.002
916	-0
917	-0.002
917	-0.003
918	-0.004
918	-0.005
918	-0.006
919	-0.006
919	-0.006
920	-0.005
920	-0.005
921	-0.004
921	-0.004
921	-0.003
922	-0.002
922	-0.001
923	0
923	0.001
924	0.002
924	0.002
924	0.001
925	0.001
925	0
926	-0.001
926	-0.002
927	-0.003
927	-0.004
927	-0.005
928	-0.006
928	-0.008
929	-0.008
929	-0.009
930	-0.01
930	-0.01
930	-0.01
931	-0.01
931	-0.009
932	-0.009
932	-0.009
933	-0.008
933	-0.008
933	-0.008
934	-0.007
934	-0.007
935	-0.007
935	-0.007
935	-0.007
936	-0.007
936	-0.007
937	-0.007
937	-0.007
938	-0.007
938	-0.007
938	-0.007
939	-0.006
939	-0.006
940	-0.006
940	-0.006
941	-0.005
941	-0.005
941	-0.005
942	-0.005
942	-0.004
943	-0.005
943	-0.005
944	-0.005
944	-0.006
944	-0.006
945	-0.006
945	-0.007
946	-0.007
946	-0.007
946	-0.008
947	-0.007
947	-0.007
948	-0.007
948	-0.007
949	-0.006
949	-0.006
949	-0.005
950	-0.005
950	-0.004
951	-0.004
951	-0.003
952	-0.003
952	-0.003
952	-0.002
953	-0.002
953	-0.001
954	-0.001
954	-0.001
955	-0.001
955	-0.001
955	-0.001
956	-0.001
956	-0.001
957	-0.001
957	-0.002
957	-0.003
958	-0.003
958	-0.004
959	-0.004
959	-0.005
960	-0.006
960	-0.006
960	-0.007
961	-0.008
961	-0.009
962	-0.009
962	-0.01
963	-0.01
963	-0.01
963	-0.009
964	-0.009
964	-0.008
965	-0.007
965	-0.005
966	-0.004
966	-0.003
966	-0.001
967	0.001
967	0.002
968	0.003
968	0.004
968	0.004
969	0.004
969	0.004
970	0.004
970	0.004
971	0.003
971	0.003
971	0.002
972	0.002
972	0.002
973	0.001
973	0.001
974	0
974	-0
974	-0
975	-0.001
975	-0.001
976	-0.001
976	-0.002
976	-0.003
977	-0.004
977	-0.006
978	-0.007
978	-0.008
979	-0.009
979	-0.01
979	-0.011
980	-0.012
980	-0.013
981	-0.014
981	-0.014
982	-0.013
982	-0.013
982	-0.012
983	-0.012
983	-0.011
984	-0.011
984	-0.01
984	-0.01
985	-0.009
985	-0.009
986	-0.009
986	-0.01
987	-0.009
987	-0.009
987	-0.008
988	-0.008
988	-0.007
989	-0.007
989	-0.006
990	-0.005
990	-0.004
990	-0.003
991	-0.002
991	-0.001
992	0
992	0
992	0.001
993	0.001
993	0.001
994	0
994	-0
995	-0.001
995	-0.001
995	-0.002
996	-0.002
996	-0.003
997	-0.003
997	-0.004
997	-0.003
998	-0.003
998	-0.003
999	-0.002
999	-0.001
1000	-0.001
1000	0
1000	0.001
1001	0.001
1001	0.002
1002	0.002
1002	0.002
1003	0.002
1003	0.001
1003	0.001
1004	0
1004	-0.001
1005	-0.002
1005	-0.002
1005	-0.003
1006	-0.005
1006	-0.006
1007	-0.007
1007	-0.008
1008	-0.009
1008	-0.01
1008	-0.011
1009	-0.011
1009	-0.012
1010	-0.013
1010	-0.013
1010	-0.014
1011	-0.014
1011	-0.015
1012	-0.015
1012	-0.016
1013	-0.016
1013	-0.017
1013	-0.018
1014	-0.019
1014	-0.02
1015	-0.02
1015	-0.021
1016	-0.022
1016	-0.022
1016	-0.023
1017	-0.024
1017	-0.024
1018	-0.025
1018	-0.025
1018	-0.025
1019	-0.025
1019	-0.025
1020	-0.026
1020	-0.026
1021	-0.026
1021	-0.026
1021	-0.026
1022	-0.026
1022	-0.025
1023	-0.025
1023	-0.024
1023	-0.024
1024	-0.024
1024	-0.024
1025	-0.024
1025	-0.023
1026	-0.023
1026	-0.023
1026	-0.023
1027	-0.023
1027	-0.022
1028	-0.022
1028	-0.021
1028	-0.021
1029	-0.02
1029	-0.02
1030	-0.019
1030	-0.019
1031	-0.019
1031	-0.018
1031	-0.018
1032	-0.018
1032	-0.019
1033	-0.019
1033	-0.019
1033	-0.02
1034	-0.021
1034	-0.022
1035	-0.023
1035	-0.024
1036	-0.024
1036	-0.025
1036	-0.025
1037	-0.025
1037	-0.025
1038	-0.026
1038	-0.025
1039	-0.025
1039	-0.024
1039	-0.024
1040	-0.023
1040	-0.023
1041	-0.023
1041	-0.023
1041	-0.023
1042	-0.024
1042	-0.024
1043	-0.025
1043	-0.026
1044	-0.027
1044	-0.027
1044	-0.028
1045	-0.028
1045	-0.029
1046	-0.03
1046	-0.03
1046	-0.03
1047	-0.03
1047	-0.029
1048	-0.029
1048	-0.029
1049	-0.029
1049	-0.03
1049	-0.03
1050	-0.031
1050	-0.031
1051	-0.032
1051	-0.032
1051	-0.033
1052	-0.033
1052	-0.034
1053	-0.035
1053	-0.035
1053	-0.035
1054	-0.035
1054	-0.034
1055	-0.034
1055	-0.034
1056	-0.035
1056	-0.035
1056	-0.035
1057	-0.036
1057	-0.036
1058	-0.036
1058	-0.037
1058	-0.037
1059	-0.037
1059	-0.037
1060	-0.037
1060	-0.037
1061	-0.036
1061	-0.035
1061	-0.034
1062	-0.034
1062	-0.034
1063	-0.033
1063	-0.033
1063	-0.032
1064	-0.031
1064	-0.031
1065	-0.03
1065	-0.031
1066	-0.03
1066	-0.031
1066	-0.03
1067	-0.03
1067	-0.03
1068	-0.031
1068	-0.031
1068	-0.032
1069	-0.033
1069	-0.034
1070	-0.035
1070	-0.036
1071	-0.036
1071	-0.036
1071	-0.037
1072	-0.038
1072	-0.038
1073	-0.039
1073	-0.038
1073	-0.039
1074	-0.038
1074	-0.038
1075	-0.039
1075	-0.039
1076	-0.04
1076	-0.039
1076	-0.041
1077	-0.041
1077	-0.041
1078	-0.042
1078	-0.041
1078	-0.04
1079	-0.04
1079	-0.039
1080	-0.039
1080	-0.038
1080	-0.038
1081	-0.038
1081	-0.037
1082	-0.036
1082	-0.036
1083	-0.036
1083	-0.036
1083	-0.035
1084	-0.035
1084	-0.034
1085	-0.033
1085	-0.032
1085	-0.031
1086	-0.03
1086	-0.03
1087	-0.03
1087	-0.03
1088	-0.03
1088	-0.03
1088	-0.03
1089	-0.032
1089	-0.032
1090	-0.033
1090	-0.033
1090	-0.033
1091	-0.034
1091	-0.033
1092	-0.034
1092	-0.032
1092	-0.032
1093	-0.031
1093	-0.029
1094	-0.027
1094	-0.025
1095	-0.024
1095	-0.022
1095	-0.019
1096	-0.017
1096	-0.015
1097	-0.013
1097	-0.012
1097	-0.009
1098	-0.008
1098	-0.007
1099	-0.005
1099	-0.002
1100	-0
1100	0.001
1100	0.003
1101	0.005
1101	0.007
1102	0.011
1102	0.014
1102	0.019
1103	0.023
1103	0.028
1104	0.031
1104	0.037
1104	0.045
1105	0.051
1105	0.057
1106	0.061
1106	0.069
1107	0.076
1107	0.087
1107	0.1
1108	0.149
1108	0.218
1109	0.321
1109	0.509
1109	0.696
1110	1.384
1110	-0
1111	-0
1111	-0
