Data from 15c-2a_Absorbance__432__02233.txt Node

Date: Wed Jan 17 11:24:10 CET 2024
User: Marek
Spectrometer: MAYP115816
Trigger mode: 0
Integration Time (sec): 2.000000E-1
Scans to average: 10
Electric dark correction enabled: true
Nonlinearity correction enabled: true
Boxcar width: 5
XAxis mode: Wavelengths
Number of Pixels in Spectrum: 2068
>>>>>Begin Spectral Data<<<<<
199	-1.622
199	-1.484
200	-1.326
200	-1.203
201	-1.127
201	-1.08
202	-1.01
202	-0.96
203	-0.916
203	-0.877
204	-0.852
204	-0.828
205	-0.805
205	-0.796
205	-0.795
206	-0.795
206	-0.791
207	-0.789
207	-0.786
208	-0.784
208	-0.784
209	-0.78
209	-0.779
210	-0.778
210	-0.778
211	-0.776
211	-0.776
212	-0.777
212	-0.776
213	-0.776
213	-0.775
213	-0.775
214	-0.774
214	-0.773
215	-0.772
215	-0.771
216	-0.771
216	-0.769
217	-0.764
217	-0.762
218	-0.761
218	-0.757
219	-0.754
219	-0.753
220	-0.75
220	-0.748
221	-0.743
221	-0.739
221	-0.735
222	-0.732
222	-0.728
223	-0.722
223	-0.719
224	-0.714
224	-0.707
225	-0.698
225	-0.69
226	-0.681
226	-0.669
227	-0.656
227	-0.643
228	-0.627
228	-0.609
229	-0.588
229	-0.563
229	-0.536
230	-0.507
230	-0.476
231	-0.44
231	-0.404
232	-0.367
232	-0.325
233	-0.282
233	-0.238
234	-0.194
234	-0.151
235	-0.109
235	-0.068
236	-0.028
236	0.01
236	0.046
237	0.081
237	0.112
238	0.142
238	0.17
239	0.196
239	0.219
240	0.24
240	0.26
241	0.277
241	0.293
242	0.308
242	0.321
243	0.333
243	0.344
243	0.353
244	0.362
244	0.37
245	0.377
245	0.384
246	0.391
246	0.396
247	0.401
247	0.406
248	0.411
248	0.415
249	0.419
249	0.423
250	0.426
250	0.429
250	0.433
251	0.435
251	0.438
252	0.44
252	0.442
253	0.444
253	0.446
254	0.448
254	0.45
255	0.451
255	0.453
256	0.453
256	0.454
257	0.456
257	0.456
258	0.457
258	0.457
258	0.457
259	0.458
259	0.457
260	0.457
260	0.457
261	0.457
261	0.457
262	0.456
262	0.456
263	0.456
263	0.455
264	0.454
264	0.453
265	0.453
265	0.452
265	0.451
266	0.45
266	0.448
267	0.447
267	0.445
268	0.444
268	0.442
269	0.441
269	0.439
270	0.437
270	0.435
271	0.433
271	0.431
272	0.429
272	0.427
272	0.425
273	0.423
273	0.421
274	0.419
274	0.417
275	0.415
275	0.413
276	0.411
276	0.408
277	0.406
277	0.404
278	0.402
278	0.399
278	0.397
279	0.394
279	0.391
280	0.389
280	0.387
281	0.385
281	0.383
282	0.38
282	0.378
283	0.376
283	0.374
284	0.372
284	0.371
285	0.369
285	0.367
285	0.365
286	0.363
286	0.362
287	0.36
287	0.359
288	0.357
288	0.356
289	0.354
289	0.352
290	0.351
290	0.349
291	0.348
291	0.346
292	0.345
292	0.343
292	0.342
293	0.34
293	0.339
294	0.338
294	0.337
295	0.335
295	0.334
296	0.333
296	0.332
297	0.331
297	0.33
298	0.329
298	0.328
298	0.327
299	0.326
299	0.325
300	0.324
300	0.323
301	0.323
301	0.322
302	0.321
302	0.32
303	0.319
303	0.318
304	0.317
304	0.317
305	0.316
305	0.315
305	0.314
306	0.313
306	0.312
307	0.312
307	0.311
308	0.31
308	0.309
309	0.308
309	0.307
310	0.307
310	0.306
311	0.305
311	0.304
311	0.304
312	0.303
312	0.302
313	0.301
313	0.3
314	0.299
314	0.298
315	0.297
315	0.296
316	0.296
316	0.295
317	0.294
317	0.293
318	0.292
318	0.292
318	0.291
319	0.29
319	0.289
320	0.288
320	0.288
321	0.287
321	0.286
322	0.285
322	0.284
323	0.283
323	0.282
324	0.281
324	0.28
324	0.279
325	0.278
325	0.278
326	0.277
326	0.276
327	0.275
327	0.274
328	0.273
328	0.273
329	0.272
329	0.271
330	0.27
330	0.269
330	0.269
331	0.268
331	0.267
332	0.266
332	0.266
333	0.265
333	0.264
334	0.263
334	0.263
335	0.262
335	0.261
336	0.26
336	0.259
336	0.258
337	0.258
337	0.257
338	0.257
338	0.256
339	0.255
339	0.255
340	0.254
340	0.254
341	0.253
341	0.252
342	0.252
342	0.251
342	0.251
343	0.25
343	0.249
344	0.249
344	0.248
345	0.248
345	0.247
346	0.247
346	0.246
347	0.246
347	0.245
348	0.245
348	0.244
348	0.244
349	0.243
349	0.243
350	0.242
350	0.242
351	0.241
351	0.241
352	0.24
352	0.24
353	0.24
353	0.239
354	0.239
354	0.238
354	0.238
355	0.237
355	0.237
356	0.236
356	0.236
357	0.235
357	0.234
358	0.234
358	0.234
359	0.234
359	0.233
360	0.233
360	0.234
360	0.234
361	0.234
361	0.234
362	0.234
362	0.234
363	0.234
363	0.234
364	0.234
364	0.233
365	0.233
365	0.233
366	0.233
366	0.232
366	0.232
367	0.232
367	0.232
368	0.232
368	0.231
369	0.231
369	0.231
370	0.231
370	0.23
371	0.23
371	0.23
372	0.229
372	0.229
372	0.229
373	0.228
373	0.228
374	0.228
374	0.228
375	0.228
375	0.228
376	0.228
376	0.228
377	0.228
377	0.228
378	0.228
378	0.228
378	0.228
379	0.228
379	0.227
380	0.227
380	0.227
381	0.227
381	0.226
382	0.226
382	0.226
383	0.226
383	0.225
383	0.225
384	0.224
384	0.224
385	0.224
385	0.224
386	0.224
386	0.224
387	0.224
387	0.224
388	0.223
388	0.223
389	0.223
389	0.223
389	0.223
390	0.223
390	0.223
391	0.223
391	0.223
392	0.223
392	0.222
393	0.222
393	0.222
394	0.222
394	0.222
394	0.221
395	0.221
395	0.22
396	0.22
396	0.22
397	0.22
397	0.22
398	0.22
398	0.219
399	0.219
399	0.219
400	0.219
400	0.219
400	0.218
401	0.218
401	0.217
402	0.217
402	0.217
403	0.217
403	0.217
404	0.217
404	0.216
405	0.216
405	0.216
405	0.216
406	0.215
406	0.215
407	0.215
407	0.215
408	0.214
408	0.214
409	0.213
409	0.213
410	0.213
410	0.213
411	0.213
411	0.213
411	0.213
412	0.212
412	0.212
413	0.212
413	0.212
414	0.211
414	0.211
415	0.211
415	0.21
416	0.21
416	0.209
416	0.209
417	0.209
417	0.209
418	0.209
418	0.209
419	0.21
419	0.21
420	0.21
420	0.21
421	0.211
421	0.211
421	0.211
422	0.211
422	0.211
423	0.211
423	0.211
424	0.21
424	0.21
425	0.209
425	0.209
426	0.209
426	0.208
427	0.208
427	0.208
427	0.208
428	0.208
428	0.209
429	0.209
429	0.209
430	0.209
430	0.209
431	0.209
431	0.209
432	0.209
432	0.208
432	0.208
433	0.207
433	0.207
434	0.206
434	0.206
435	0.206
435	0.206
436	0.206
436	0.206
437	0.206
437	0.206
437	0.206
438	0.206
438	0.206
439	0.207
439	0.206
440	0.206
440	0.206
441	0.206
441	0.206
442	0.206
442	0.206
442	0.206
443	0.206
443	0.206
444	0.206
444	0.206
445	0.206
445	0.206
446	0.206
446	0.206
447	0.206
447	0.206
447	0.206
448	0.206
448	0.206
449	0.206
449	0.206
450	0.206
450	0.206
451	0.206
451	0.206
452	0.206
452	0.206
452	0.206
453	0.206
453	0.206
454	0.206
454	0.206
455	0.206
455	0.206
456	0.206
456	0.206
457	0.206
457	0.206
458	0.206
458	0.206
458	0.206
459	0.206
459	0.206
460	0.205
460	0.205
461	0.205
461	0.204
462	0.204
462	0.204
463	0.205
463	0.205
463	0.206
464	0.206
464	0.206
465	0.206
465	0.206
466	0.207
466	0.207
467	0.207
467	0.208
467	0.207
468	0.207
468	0.206
469	0.206
469	0.206
470	0.206
470	0.206
471	0.206
471	0.206
472	0.206
472	0.207
472	0.207
473	0.208
473	0.208
474	0.209
474	0.21
475	0.211
475	0.212
476	0.212
476	0.213
477	0.213
477	0.214
477	0.214
478	0.214
478	0.215
479	0.215
479	0.216
480	0.216
480	0.217
481	0.218
481	0.219
482	0.221
482	0.222
482	0.223
483	0.225
483	0.227
484	0.229
484	0.229
485	0.23
485	0.231
486	0.232
486	0.233
487	0.234
487	0.235
487	0.235
488	0.236
488	0.236
489	0.236
489	0.237
490	0.238
490	0.239
491	0.24
491	0.241
492	0.242
492	0.243
492	0.244
493	0.245
493	0.247
494	0.249
494	0.251
495	0.253
495	0.254
496	0.256
496	0.258
496	0.26
497	0.261
497	0.263
498	0.264
498	0.266
499	0.267
499	0.268
500	0.269
500	0.271
501	0.272
501	0.274
501	0.275
502	0.277
502	0.279
503	0.281
503	0.283
504	0.284
504	0.286
505	0.287
505	0.288
506	0.29
506	0.292
506	0.293
507	0.294
507	0.295
508	0.297
508	0.299
509	0.301
509	0.303
510	0.304
510	0.306
511	0.307
511	0.308
511	0.309
512	0.31
512	0.311
513	0.311
513	0.312
514	0.312
514	0.313
515	0.313
515	0.313
515	0.314
516	0.315
516	0.316
517	0.317
517	0.317
518	0.318
518	0.318
519	0.318
519	0.318
520	0.317
520	0.317
520	0.317
521	0.316
521	0.314
522	0.313
522	0.313
523	0.312
523	0.312
524	0.312
524	0.312
524	0.313
525	0.313
525	0.313
526	0.314
526	0.315
527	0.315
527	0.315
528	0.315
528	0.315
529	0.315
529	0.315
529	0.314
530	0.314
530	0.313
531	0.313
531	0.312
532	0.311
532	0.311
533	0.31
533	0.309
533	0.308
534	0.307
534	0.306
535	0.305
535	0.304
536	0.303
536	0.301
537	0.3
537	0.298
538	0.297
538	0.295
538	0.293
539	0.291
539	0.289
540	0.287
540	0.285
541	0.283
541	0.28
542	0.278
542	0.276
542	0.273
543	0.271
543	0.268
544	0.266
544	0.264
545	0.262
545	0.26
546	0.259
546	0.256
547	0.253
547	0.251
547	0.248
548	0.246
548	0.243
549	0.241
549	0.238
550	0.235
550	0.232
551	0.229
551	0.227
551	0.225
552	0.223
552	0.221
553	0.219
553	0.218
554	0.216
554	0.213
555	0.21
555	0.208
556	0.205
556	0.202
556	0.199
557	0.197
557	0.194
558	0.192
558	0.189
559	0.187
559	0.185
560	0.183
560	0.181
560	0.179
561	0.178
561	0.177
562	0.175
562	0.173
563	0.17
563	0.167
564	0.164
564	0.161
564	0.159
565	0.156
565	0.154
566	0.151
566	0.148
567	0.147
567	0.146
568	0.145
568	0.144
568	0.143
569	0.144
569	0.143
570	0.142
570	0.141
571	0.14
571	0.14
572	0.138
572	0.136
573	0.135
573	0.133
573	0.131
574	0.13
574	0.129
575	0.128
575	0.128
576	0.128
576	0.126
577	0.124
577	0.123
577	0.123
578	0.122
578	0.122
579	0.122
579	0.122
580	0.119
580	0.115
581	0.112
581	0.11
581	0.11
582	0.109
582	0.108
583	0.108
583	0.106
584	0.103
584	0.099
585	0.099
585	0.099
585	0.098
586	0.098
586	0.097
587	0.095
587	0.093
588	0.091
588	0.089
589	0.089
589	0.088
590	0.088
590	0.087
590	0.088
591	0.088
591	0.088
592	0.087
592	0.086
593	0.085
593	0.085
594	0.084
594	0.083
594	0.082
595	0.081
595	0.08
596	0.079
596	0.08
597	0.082
597	0.083
598	0.083
598	0.084
598	0.084
599	0.085
599	0.084
600	0.083
600	0.082
601	0.082
601	0.081
602	0.079
602	0.079
602	0.078
603	0.078
603	0.08
604	0.081
604	0.082
605	0.084
605	0.086
606	0.086
606	0.085
606	0.084
607	0.084
607	0.083
608	0.083
608	0.081
609	0.08
609	0.079
610	0.078
610	0.077
610	0.077
611	0.078
611	0.079
612	0.081
612	0.082
613	0.083
613	0.084
614	0.084
614	0.083
614	0.082
615	0.082
615	0.081
616	0.08
616	0.079
617	0.078
617	0.077
618	0.075
618	0.074
618	0.074
619	0.075
619	0.076
620	0.078
620	0.08
621	0.08
621	0.082
622	0.082
622	0.083
622	0.084
623	0.084
623	0.085
624	0.085
624	0.085
625	0.084
625	0.085
626	0.084
626	0.084
626	0.085
627	0.086
627	0.086
628	0.087
628	0.087
629	0.088
629	0.088
630	0.088
630	0.088
630	0.09
631	0.09
631	0.091
632	0.091
632	0.092
633	0.094
633	0.095
634	0.097
634	0.099
634	0.101
635	0.102
635	0.103
636	0.104
636	0.106
637	0.107
637	0.108
638	0.109
638	0.11
638	0.112
639	0.113
639	0.114
640	0.116
640	0.117
641	0.119
641	0.121
642	0.123
642	0.126
642	0.127
643	0.129
643	0.131
644	0.133
644	0.135
645	0.137
645	0.139
646	0.141
646	0.144
646	0.146
647	0.149
647	0.152
648	0.154
648	0.156
649	0.158
649	0.161
650	0.164
650	0.167
650	0.169
651	0.171
651	0.174
652	0.177
652	0.179
653	0.183
653	0.191
653	0.205
654	0.163
654	0.132
655	0.135
655	0.137
656	0.139
656	0.141
657	0.143
657	0.145
657	0.146
658	0.143
658	0.131
659	0.168
659	0.221
660	0.228
660	0.23
661	0.233
661	0.236
661	0.239
662	0.243
662	0.247
663	0.251
663	0.255
664	0.259
664	0.263
665	0.266
665	0.269
665	0.272
666	0.275
666	0.277
667	0.28
667	0.282
668	0.285
668	0.287
669	0.289
669	0.293
669	0.297
670	0.3
670	0.303
671	0.306
671	0.308
672	0.311
672	0.313
672	0.315
673	0.317
673	0.32
674	0.321
674	0.322
675	0.323
675	0.325
676	0.327
676	0.329
676	0.33
677	0.331
677	0.333
678	0.334
678	0.335
679	0.336
679	0.337
680	0.339
680	0.341
680	0.342
681	0.343
681	0.345
682	0.347
682	0.348
683	0.35
683	0.352
684	0.354
684	0.354
684	0.354
685	0.355
685	0.355
686	0.356
686	0.356
687	0.356
687	0.356
687	0.355
688	0.355
688	0.354
689	0.354
689	0.354
690	0.353
690	0.352
691	0.351
691	0.35
691	0.349
692	0.347
692	0.346
693	0.345
693	0.344
694	0.342
694	0.34
695	0.339
695	0.34
695	0.339
696	0.337
696	0.336
697	0.335
697	0.334
698	0.332
698	0.331
698	0.33
699	0.329
699	0.326
700	0.324
700	0.323
701	0.322
701	0.32
702	0.318
702	0.317
702	0.315
703	0.313
703	0.31
704	0.308
704	0.306
705	0.304
705	0.301
705	0.298
706	0.296
706	0.294
707	0.292
707	0.289
708	0.287
708	0.285
709	0.283
709	0.28
709	0.277
710	0.274
710	0.271
711	0.269
711	0.267
712	0.264
712	0.262
713	0.26
713	0.257
713	0.255
714	0.252
714	0.249
715	0.247
715	0.245
716	0.242
716	0.24
716	0.237
717	0.235
717	0.232
718	0.23
718	0.227
719	0.225
719	0.223
720	0.22
720	0.217
720	0.214
721	0.211
721	0.208
722	0.206
722	0.203
723	0.201
723	0.199
723	0.196
724	0.194
724	0.191
725	0.189
725	0.187
726	0.185
726	0.183
727	0.181
727	0.178
727	0.176
728	0.174
728	0.172
729	0.171
729	0.169
730	0.167
730	0.165
730	0.163
731	0.161
731	0.16
732	0.158
732	0.156
733	0.154
733	0.152
734	0.15
734	0.147
734	0.146
735	0.145
735	0.142
736	0.14
736	0.139
737	0.138
737	0.137
737	0.135
738	0.132
738	0.129
739	0.127
739	0.124
740	0.121
740	0.119
741	0.116
741	0.113
741	0.109
742	0.105
742	0.102
743	0.1
743	0.098
744	0.096
744	0.095
744	0.093
745	0.09
745	0.088
746	0.086
746	0.084
747	0.083
747	0.082
748	0.08
748	0.079
748	0.077
749	0.075
749	0.075
750	0.074
750	0.073
751	0.073
751	0.074
751	0.074
752	0.074
752	0.074
753	0.074
753	0.074
754	0.074
754	0.073
754	0.073
755	0.072
755	0.072
756	0.07
756	0.068
757	0.067
757	0.066
758	0.064
758	0.063
758	0.062
759	0.06
759	0.058
760	0.055
760	0.053
761	0.051
761	0.05
761	0.048
762	0.046
762	0.045
763	0.044
763	0.041
764	0.039
764	0.037
764	0.035
765	0.033
765	0.031
766	0.03
766	0.03
767	0.029
767	0.027
768	0.024
768	0.023
768	0.022
769	0.021
769	0.02
770	0.018
770	0.016
771	0.013
771	0.01
771	0.008
772	0.006
772	0.004
773	0.002
773	-0
774	-0.003
774	-0.005
775	-0.007
775	-0.009
775	-0.012
776	-0.015
776	-0.017
777	-0.02
777	-0.023
778	-0.026
778	-0.029
778	-0.032
779	-0.034
779	-0.036
780	-0.04
780	-0.043
781	-0.047
781	-0.051
781	-0.056
782	-0.062
782	-0.068
783	-0.073
783	-0.078
784	-0.085
784	-0.091
784	-0.098
785	-0.104
785	-0.11
786	-0.116
786	-0.119
787	-0.12
787	-0.123
788	-0.128
788	-0.134
788	-0.139
789	-0.144
789	-0.146
790	-0.147
790	-0.148
791	-0.15
791	-0.152
791	-0.155
792	-0.15
792	-0.139
793	-0.133
793	-0.129
794	-0.127
794	-0.129
794	-0.134
795	-0.136
795	-0.136
796	-0.137
796	-0.14
797	-0.149
797	-0.16
797	-0.166
798	-0.172
798	-0.174
799	-0.175
799	-0.174
800	-0.173
800	-0.175
801	-0.178
801	-0.178
801	-0.179
802	-0.18
802	-0.181
803	-0.182
803	-0.183
804	-0.181
804	-0.176
804	-0.17
805	-0.166
805	-0.164
806	-0.162
806	-0.161
807	-0.16
807	-0.159
807	-0.159
808	-0.159
808	-0.16
809	-0.165
809	-0.171
810	-0.175
810	-0.178
810	-0.181
811	-0.185
811	-0.185
812	-0.181
812	-0.178
813	-0.178
813	-0.179
813	-0.179
814	-0.18
814	-0.179
815	-0.176
815	-0.172
816	-0.168
816	-0.165
817	-0.164
817	-0.162
817	-0.155
818	-0.147
818	-0.138
819	-0.128
819	-0.119
820	-0.112
820	-0.104
820	-0.097
821	-0.089
821	-0.082
822	-0.076
822	-0.071
823	-0.066
823	-0.063
823	-0.059
824	-0.056
824	-0.051
825	-0.047
825	-0.043
826	-0.04
826	-0.039
826	-0.037
827	-0.036
827	-0.035
828	-0.034
828	-0.034
829	-0.033
829	-0.033
829	-0.033
830	-0.033
830	-0.032
831	-0.03
831	-0.028
832	-0.026
832	-0.024
832	-0.022
833	-0.02
833	-0.018
834	-0.016
834	-0.013
835	-0.011
835	-0.01
835	-0.008
836	-0.007
836	-0.005
837	-0.004
837	-0.004
838	-0.003
838	-0.003
839	-0.002
839	-0.002
839	-0.003
840	-0.003
840	-0.003
841	-0.003
841	-0.003
842	-0.003
842	-0.003
842	-0.002
843	-0.002
843	-0.002
844	-0.001
844	0
845	0.001
845	0.002
845	0.003
846	0.003
846	0.003
847	0.003
847	0.004
848	0.004
848	0.003
848	0.003
849	0.003
849	0.003
850	0.002
850	0.001
851	0.002
851	0.002
851	0.002
852	0.002
852	0.002
853	0.003
853	0.003
854	0.004
854	0.004
854	0.004
855	0.004
855	0.004
856	0.004
856	0.004
857	0.004
857	0.003
857	0.002
858	0.002
858	0.001
859	-0
859	-0.001
860	-0.002
860	-0.002
860	-0.002
861	-0.002
861	-0.002
862	-0.002
862	-0.002
863	-0.002
863	-0.002
863	-0.001
864	-0.001
864	-0
865	0.001
865	0.002
866	0.002
866	0.003
866	0.005
867	0.006
867	0.008
868	0.009
868	0.01
869	0.012
869	0.012
869	0.013
870	0.013
870	0.013
871	0.013
871	0.013
872	0.012
872	0.011
872	0.01
873	0.009
873	0.008
874	0.007
874	0.007
875	0.006
875	0.006
875	0.006
876	0.005
876	0.005
877	0.005
877	0.006
878	0.006
878	0.006
878	0.007
879	0.007
879	0.007
880	0.007
880	0.007
881	0.007
881	0.007
881	0.007
882	0.006
882	0.006
883	0.006
883	0.005
884	0.005
884	0.005
884	0.005
885	0.005
885	0.005
886	0.006
886	0.006
887	0.005
887	0.005
887	0.005
888	0.004
888	0.004
889	0.004
889	0.003
890	0.003
890	0.002
890	0.001
891	-0
891	-0.001
892	-0.002
892	-0.003
893	-0.004
893	-0.004
893	-0.005
894	-0.005
894	-0.006
895	-0.006
895	-0.006
895	-0.006
896	-0.006
896	-0.006
897	-0.005
897	-0.005
898	-0.004
898	-0.004
898	-0.003
899	-0.003
899	-0.002
900	-0.001
900	0
901	0.001
901	0.003
901	0.004
902	0.005
902	0.006
903	0.006
903	0.006
904	0.006
904	0.006
904	0.005
905	0.005
905	0.005
906	0.004
906	0.004
907	0.003
907	0.003
907	0.003
908	0.003
908	0.003
909	0.004
909	0.004
910	0.005
910	0.006
910	0.007
911	0.007
911	0.008
912	0.009
912	0.01
913	0.01
913	0.01
913	0.01
914	0.01
914	0.009
915	0.008
915	0.006
916	0.005
916	0.003
916	0.002
917	0
917	-0.001
918	-0.002
918	-0.003
918	-0.004
919	-0.004
919	-0.004
920	-0.003
920	-0.002
921	-0.002
921	-0.001
921	-0
922	0
922	0.001
923	0.002
923	0.002
924	0.003
924	0.003
924	0.002
925	0.001
925	0
926	-0.001
926	-0.002
927	-0.003
927	-0.004
927	-0.005
928	-0.007
928	-0.008
929	-0.009
929	-0.009
930	-0.009
930	-0.009
930	-0.009
931	-0.008
931	-0.008
932	-0.007
932	-0.007
933	-0.006
933	-0.006
933	-0.006
934	-0.005
934	-0.005
935	-0.005
935	-0.005
935	-0.005
936	-0.005
936	-0.005
937	-0.005
937	-0.005
938	-0.005
938	-0.005
938	-0.005
939	-0.005
939	-0.004
940	-0.004
940	-0.004
941	-0.003
941	-0.003
941	-0.002
942	-0.002
942	-0.002
943	-0.002
943	-0.003
944	-0.003
944	-0.004
944	-0.004
945	-0.005
945	-0.005
946	-0.005
946	-0.005
946	-0.006
947	-0.006
947	-0.006
948	-0.005
948	-0.005
949	-0.005
949	-0.005
949	-0.005
950	-0.005
950	-0.004
951	-0.003
951	-0.003
952	-0.003
952	-0.002
952	-0.001
953	-0
953	0
954	0.001
954	0.001
955	0.002
955	0.002
955	0.002
956	0.002
956	0.002
957	0.001
957	0.001
957	-0
958	-0.001
958	-0.002
959	-0.002
959	-0.003
960	-0.003
960	-0.003
960	-0.004
961	-0.004
961	-0.004
962	-0.004
962	-0.003
963	-0.003
963	-0.002
963	-0.002
964	-0.001
964	0
965	0.001
965	0.002
966	0.003
966	0.004
966	0.005
967	0.006
967	0.007
968	0.007
968	0.007
968	0.007
969	0.007
969	0.006
970	0.006
970	0.005
971	0.004
971	0.004
971	0.003
972	0.002
972	0.002
973	0.001
973	0
974	-0.001
974	-0.001
974	-0.002
975	-0.003
975	-0.003
976	-0.004
976	-0.004
976	-0.005
977	-0.006
977	-0.007
978	-0.008
978	-0.009
979	-0.01
979	-0.011
979	-0.011
980	-0.012
980	-0.013
981	-0.013
981	-0.013
982	-0.013
982	-0.013
982	-0.012
983	-0.012
983	-0.011
984	-0.011
984	-0.01
984	-0.01
985	-0.009
985	-0.009
986	-0.009
986	-0.009
987	-0.009
987	-0.009
987	-0.008
988	-0.008
988	-0.007
989	-0.007
989	-0.006
990	-0.005
990	-0.004
990	-0.003
991	-0.001
991	0
992	0.001
992	0.002
992	0.002
993	0.003
993	0.003
994	0.003
994	0.003
995	0.003
995	0.003
995	0.002
996	0.002
996	0.001
997	0.001
997	0.001
997	0.001
998	0.001
998	0.002
999	0.002
999	0.002
1000	0.003
1000	0.003
1000	0.004
1001	0.004
1001	0.005
1002	0.005
1002	0.005
1003	0.005
1003	0.005
1003	0.004
1004	0.004
1004	0.003
1005	0.002
1005	0.001
1005	0
1006	-0.001
1006	-0.002
1007	-0.003
1007	-0.005
1008	-0.006
1008	-0.007
1008	-0.008
1009	-0.009
1009	-0.01
1010	-0.01
1010	-0.01
1010	-0.011
1011	-0.012
1011	-0.012
1012	-0.013
1012	-0.013
1013	-0.014
1013	-0.015
1013	-0.016
1014	-0.017
1014	-0.018
1015	-0.018
1015	-0.019
1016	-0.02
1016	-0.02
1016	-0.021
1017	-0.021
1017	-0.022
1018	-0.022
1018	-0.022
1018	-0.021
1019	-0.022
1019	-0.022
1020	-0.022
1020	-0.022
1021	-0.022
1021	-0.022
1021	-0.022
1022	-0.022
1022	-0.021
1023	-0.021
1023	-0.021
1023	-0.021
1024	-0.021
1024	-0.02
1025	-0.021
1025	-0.02
1026	-0.02
1026	-0.02
1026	-0.02
1027	-0.02
1027	-0.02
1028	-0.02
1028	-0.019
1028	-0.018
1029	-0.018
1029	-0.017
1030	-0.017
1030	-0.017
1031	-0.016
1031	-0.016
1031	-0.016
1032	-0.016
1032	-0.016
1033	-0.016
1033	-0.017
1033	-0.017
1034	-0.019
1034	-0.02
1035	-0.021
1035	-0.022
1036	-0.023
1036	-0.023
1036	-0.024
1037	-0.024
1037	-0.025
1038	-0.025
1038	-0.025
1039	-0.024
1039	-0.024
1039	-0.023
1040	-0.023
1040	-0.022
1041	-0.022
1041	-0.022
1041	-0.023
1042	-0.023
1042	-0.024
1043	-0.024
1043	-0.025
1044	-0.026
1044	-0.027
1044	-0.027
1045	-0.028
1045	-0.028
1046	-0.029
1046	-0.029
1046	-0.029
1047	-0.029
1047	-0.028
1048	-0.028
1048	-0.027
1049	-0.028
1049	-0.029
1049	-0.029
1050	-0.03
1050	-0.031
1051	-0.032
1051	-0.032
1051	-0.033
1052	-0.034
1052	-0.034
1053	-0.035
1053	-0.035
1053	-0.035
1054	-0.035
1054	-0.034
1055	-0.034
1055	-0.033
1056	-0.034
1056	-0.034
1056	-0.035
1057	-0.035
1057	-0.034
1058	-0.035
1058	-0.035
1058	-0.035
1059	-0.035
1059	-0.036
1060	-0.036
1060	-0.035
1061	-0.034
1061	-0.033
1061	-0.033
1062	-0.032
1062	-0.032
1063	-0.031
1063	-0.031
1063	-0.03
1064	-0.03
1064	-0.029
1065	-0.029
1065	-0.029
1066	-0.029
1066	-0.03
1066	-0.03
1067	-0.029
1067	-0.029
1068	-0.03
1068	-0.03
1068	-0.031
1069	-0.032
1069	-0.033
1070	-0.033
1070	-0.034
1071	-0.035
1071	-0.035
1071	-0.037
1072	-0.038
1072	-0.038
1073	-0.039
1073	-0.039
1073	-0.04
1074	-0.04
1074	-0.039
1075	-0.04
1075	-0.04
1076	-0.041
1076	-0.04
1076	-0.041
1077	-0.041
1077	-0.041
1078	-0.041
1078	-0.04
1078	-0.039
1079	-0.039
1079	-0.037
1080	-0.037
1080	-0.036
1080	-0.036
1081	-0.035
1081	-0.034
1082	-0.033
1082	-0.033
1083	-0.033
1083	-0.034
1083	-0.034
1084	-0.034
1084	-0.033
1085	-0.033
1085	-0.032
1085	-0.032
1086	-0.031
1086	-0.031
1087	-0.031
1087	-0.03
1088	-0.031
1088	-0.031
1088	-0.031
1089	-0.032
1089	-0.033
1090	-0.034
1090	-0.034
1090	-0.035
1091	-0.035
1091	-0.035
1092	-0.035
1092	-0.034
1092	-0.033
1093	-0.032
1093	-0.029
1094	-0.028
1094	-0.026
1095	-0.025
1095	-0.024
1095	-0.021
1096	-0.019
1096	-0.018
1097	-0.015
1097	-0.014
1097	-0.012
1098	-0.011
1098	-0.01
1099	-0.009
1099	-0.006
1100	-0.003
1100	-0.002
1100	-0.001
1101	0.001
1101	0.002
1102	0.006
1102	0.009
1102	0.012
1103	0.016
1103	0.021
1104	0.025
1104	0.031
1104	0.04
1105	0.047
1105	0.053
1106	0.059
1106	0.067
1107	0.073
1107	0.085
1107	0.097
1108	0.146
1108	0.215
1109	0.314
1109	0.489
1109	0.655
1110	1.192
1110	-0
1111	-0
1111	-0
