Data from 15c-2a_Absorbance__370__02171.txt Node

Date: Wed Jan 17 11:22:06 CET 2024
User: Marek
Spectrometer: MAYP115816
Trigger mode: 0
Integration Time (sec): 2.000000E-1
Scans to average: 10
Electric dark correction enabled: true
Nonlinearity correction enabled: true
Boxcar width: 5
XAxis mode: Wavelengths
Number of Pixels in Spectrum: 2068
>>>>>Begin Spectral Data<<<<<
199	-1.621
199	-1.485
200	-1.326
200	-1.204
201	-1.129
201	-1.081
202	-1.012
202	-0.962
203	-0.917
203	-0.878
204	-0.854
204	-0.83
205	-0.807
205	-0.797
205	-0.796
206	-0.794
206	-0.791
207	-0.789
207	-0.785
208	-0.784
208	-0.784
209	-0.779
209	-0.779
210	-0.779
210	-0.779
211	-0.777
211	-0.777
212	-0.779
212	-0.778
213	-0.777
213	-0.777
213	-0.776
214	-0.774
214	-0.773
215	-0.771
215	-0.77
216	-0.77
216	-0.768
217	-0.763
217	-0.761
218	-0.76
218	-0.756
219	-0.752
219	-0.753
220	-0.75
220	-0.747
221	-0.742
221	-0.74
221	-0.735
222	-0.732
222	-0.728
223	-0.723
223	-0.72
224	-0.715
224	-0.708
225	-0.699
225	-0.692
226	-0.682
226	-0.67
227	-0.656
227	-0.643
228	-0.628
228	-0.609
229	-0.588
229	-0.564
229	-0.536
230	-0.507
230	-0.475
231	-0.44
231	-0.403
232	-0.366
232	-0.325
233	-0.283
233	-0.238
234	-0.195
234	-0.152
235	-0.111
235	-0.071
236	-0.031
236	0.007
236	0.043
237	0.078
237	0.109
238	0.139
238	0.167
239	0.193
239	0.216
240	0.237
240	0.256
241	0.274
241	0.29
242	0.304
242	0.317
243	0.329
243	0.339
243	0.348
244	0.357
244	0.365
245	0.372
245	0.379
246	0.386
246	0.391
247	0.396
247	0.401
248	0.406
248	0.41
249	0.414
249	0.418
250	0.421
250	0.424
250	0.427
251	0.43
251	0.432
252	0.435
252	0.436
253	0.439
253	0.44
254	0.442
254	0.444
255	0.445
255	0.447
256	0.448
256	0.448
257	0.449
257	0.45
258	0.451
258	0.451
258	0.451
259	0.452
259	0.451
260	0.452
260	0.452
261	0.451
261	0.451
262	0.451
262	0.45
263	0.45
263	0.45
264	0.449
264	0.448
265	0.448
265	0.446
265	0.445
266	0.444
266	0.443
267	0.441
267	0.44
268	0.438
268	0.436
269	0.434
269	0.433
270	0.431
270	0.429
271	0.427
271	0.425
272	0.423
272	0.421
272	0.419
273	0.417
273	0.415
274	0.413
274	0.411
275	0.409
275	0.407
276	0.405
276	0.403
277	0.401
277	0.398
278	0.396
278	0.394
278	0.391
279	0.389
279	0.386
280	0.383
280	0.381
281	0.379
281	0.376
282	0.374
282	0.372
283	0.37
283	0.368
284	0.366
284	0.365
285	0.363
285	0.361
285	0.36
286	0.358
286	0.356
287	0.354
287	0.353
288	0.351
288	0.349
289	0.348
289	0.346
290	0.345
290	0.343
291	0.342
291	0.34
292	0.339
292	0.337
292	0.336
293	0.335
293	0.333
294	0.332
294	0.331
295	0.33
295	0.329
296	0.327
296	0.326
297	0.325
297	0.324
298	0.323
298	0.322
298	0.321
299	0.32
299	0.32
300	0.319
300	0.318
301	0.317
301	0.316
302	0.315
302	0.314
303	0.314
303	0.313
304	0.312
304	0.311
305	0.31
305	0.31
305	0.309
306	0.308
306	0.307
307	0.306
307	0.305
308	0.304
308	0.304
309	0.303
309	0.302
310	0.301
310	0.3
311	0.299
311	0.299
311	0.298
312	0.297
312	0.296
313	0.295
313	0.295
314	0.294
314	0.293
315	0.292
315	0.291
316	0.291
316	0.29
317	0.289
317	0.288
318	0.287
318	0.287
318	0.286
319	0.285
319	0.284
320	0.283
320	0.283
321	0.282
321	0.281
322	0.28
322	0.279
323	0.278
323	0.277
324	0.276
324	0.275
324	0.274
325	0.273
325	0.272
326	0.271
326	0.271
327	0.27
327	0.269
328	0.268
328	0.268
329	0.267
329	0.266
330	0.265
330	0.265
330	0.264
331	0.263
331	0.262
332	0.261
332	0.26
333	0.259
333	0.259
334	0.258
334	0.257
335	0.256
335	0.255
336	0.255
336	0.254
336	0.253
337	0.253
337	0.252
338	0.252
338	0.251
339	0.25
339	0.25
340	0.249
340	0.248
341	0.248
341	0.247
342	0.247
342	0.246
342	0.246
343	0.245
343	0.245
344	0.244
344	0.243
345	0.243
345	0.242
346	0.242
346	0.241
347	0.241
347	0.24
348	0.24
348	0.239
348	0.239
349	0.238
349	0.238
350	0.237
350	0.237
351	0.236
351	0.236
352	0.235
352	0.235
353	0.235
353	0.235
354	0.234
354	0.234
354	0.233
355	0.233
355	0.232
356	0.232
356	0.231
357	0.231
357	0.23
358	0.23
358	0.23
359	0.229
359	0.229
360	0.229
360	0.23
360	0.23
361	0.23
361	0.23
362	0.23
362	0.23
363	0.23
363	0.23
364	0.229
364	0.229
365	0.229
365	0.228
366	0.228
366	0.228
366	0.228
367	0.228
367	0.228
368	0.227
368	0.227
369	0.226
369	0.226
370	0.226
370	0.226
371	0.225
371	0.225
372	0.225
372	0.224
372	0.224
373	0.224
373	0.224
374	0.224
374	0.224
375	0.224
375	0.223
376	0.223
376	0.223
377	0.223
377	0.223
378	0.223
378	0.223
378	0.223
379	0.223
379	0.222
380	0.222
380	0.222
381	0.222
381	0.222
382	0.221
382	0.221
383	0.221
383	0.221
383	0.22
384	0.22
384	0.22
385	0.22
385	0.219
386	0.219
386	0.219
387	0.219
387	0.219
388	0.219
388	0.219
389	0.219
389	0.218
389	0.218
390	0.218
390	0.218
391	0.218
391	0.218
392	0.218
392	0.218
393	0.218
393	0.217
394	0.217
394	0.217
394	0.217
395	0.217
395	0.216
396	0.216
396	0.216
397	0.216
397	0.216
398	0.215
398	0.215
399	0.215
399	0.215
400	0.215
400	0.214
400	0.214
401	0.214
401	0.213
402	0.213
402	0.212
403	0.212
403	0.212
404	0.213
404	0.212
405	0.212
405	0.212
405	0.211
406	0.211
406	0.211
407	0.211
407	0.21
408	0.21
408	0.21
409	0.209
409	0.209
410	0.209
410	0.209
411	0.209
411	0.209
411	0.208
412	0.208
412	0.208
413	0.207
413	0.207
414	0.207
414	0.207
415	0.206
415	0.206
416	0.205
416	0.205
416	0.205
417	0.205
417	0.205
418	0.205
418	0.205
419	0.205
419	0.206
420	0.206
420	0.206
421	0.207
421	0.207
421	0.207
422	0.207
422	0.207
423	0.207
423	0.207
424	0.207
424	0.206
425	0.205
425	0.205
426	0.205
426	0.204
427	0.204
427	0.204
427	0.204
428	0.204
428	0.205
429	0.205
429	0.205
430	0.205
430	0.205
431	0.205
431	0.205
432	0.204
432	0.204
432	0.204
433	0.203
433	0.202
434	0.202
434	0.202
435	0.202
435	0.202
436	0.202
436	0.202
437	0.202
437	0.203
437	0.203
438	0.203
438	0.203
439	0.203
439	0.202
440	0.202
440	0.202
441	0.202
441	0.202
442	0.202
442	0.202
442	0.201
443	0.201
443	0.201
444	0.201
444	0.202
445	0.202
445	0.202
446	0.202
446	0.202
447	0.202
447	0.202
447	0.202
448	0.202
448	0.202
449	0.202
449	0.202
450	0.202
450	0.202
451	0.202
451	0.202
452	0.202
452	0.202
452	0.202
453	0.202
453	0.202
454	0.202
454	0.202
455	0.202
455	0.203
456	0.203
456	0.202
457	0.202
457	0.202
458	0.202
458	0.202
458	0.202
459	0.202
459	0.202
460	0.201
460	0.201
461	0.201
461	0.2
462	0.2
462	0.201
463	0.201
463	0.201
463	0.202
464	0.202
464	0.202
465	0.202
465	0.203
466	0.203
466	0.203
467	0.204
467	0.204
467	0.203
468	0.203
468	0.202
469	0.202
469	0.202
470	0.202
470	0.202
471	0.202
471	0.202
472	0.203
472	0.203
472	0.203
473	0.204
473	0.205
474	0.205
474	0.206
475	0.207
475	0.208
476	0.208
476	0.208
477	0.209
477	0.209
477	0.209
478	0.21
478	0.21
479	0.211
479	0.211
480	0.212
480	0.213
481	0.214
481	0.215
482	0.216
482	0.217
482	0.219
483	0.22
483	0.222
484	0.224
484	0.225
485	0.226
485	0.227
486	0.228
486	0.229
487	0.23
487	0.231
487	0.231
488	0.232
488	0.232
489	0.233
489	0.234
490	0.235
490	0.236
491	0.236
491	0.237
492	0.239
492	0.239
492	0.24
493	0.241
493	0.243
494	0.245
494	0.247
495	0.248
495	0.25
496	0.252
496	0.254
496	0.256
497	0.258
497	0.259
498	0.261
498	0.262
499	0.263
499	0.264
500	0.266
500	0.268
501	0.269
501	0.27
501	0.272
502	0.274
502	0.275
503	0.277
503	0.279
504	0.281
504	0.282
505	0.283
505	0.284
506	0.286
506	0.288
506	0.289
507	0.29
507	0.292
508	0.293
508	0.295
509	0.297
509	0.299
510	0.301
510	0.302
511	0.303
511	0.304
511	0.305
512	0.306
512	0.307
513	0.307
513	0.308
514	0.309
514	0.309
515	0.309
515	0.31
515	0.31
516	0.311
516	0.312
517	0.313
517	0.313
518	0.314
518	0.314
519	0.314
519	0.314
520	0.313
520	0.313
520	0.313
521	0.311
521	0.311
522	0.309
522	0.308
523	0.308
523	0.308
524	0.308
524	0.308
524	0.308
525	0.308
525	0.309
526	0.31
526	0.31
527	0.311
527	0.311
528	0.312
528	0.311
529	0.311
529	0.311
529	0.311
530	0.31
530	0.309
531	0.308
531	0.308
532	0.307
532	0.307
533	0.306
533	0.305
533	0.304
534	0.303
534	0.301
535	0.3
535	0.3
536	0.299
536	0.297
537	0.296
537	0.294
538	0.293
538	0.291
538	0.289
539	0.287
539	0.286
540	0.284
540	0.281
541	0.279
541	0.276
542	0.274
542	0.272
542	0.269
543	0.267
543	0.265
544	0.263
544	0.261
545	0.259
545	0.257
546	0.255
546	0.253
547	0.25
547	0.247
547	0.244
548	0.242
548	0.24
549	0.237
549	0.235
550	0.232
550	0.23
551	0.227
551	0.224
551	0.222
552	0.22
552	0.218
553	0.217
553	0.215
554	0.213
554	0.21
555	0.207
555	0.205
556	0.202
556	0.199
556	0.196
557	0.194
557	0.191
558	0.189
558	0.186
559	0.184
559	0.182
560	0.18
560	0.178
560	0.177
561	0.176
561	0.175
562	0.173
562	0.17
563	0.167
563	0.164
564	0.161
564	0.158
564	0.156
565	0.153
565	0.15
566	0.148
566	0.145
567	0.144
567	0.143
568	0.142
568	0.141
568	0.14
569	0.14
569	0.14
570	0.139
570	0.137
571	0.137
571	0.136
572	0.134
572	0.133
573	0.132
573	0.13
573	0.128
574	0.127
574	0.126
575	0.125
575	0.125
576	0.125
576	0.123
577	0.121
577	0.12
577	0.12
578	0.119
578	0.118
579	0.118
579	0.118
580	0.115
580	0.112
581	0.109
581	0.107
581	0.106
582	0.106
582	0.105
583	0.105
583	0.103
584	0.1
584	0.096
585	0.096
585	0.096
585	0.095
586	0.095
586	0.094
587	0.092
587	0.09
588	0.087
588	0.086
589	0.085
589	0.085
590	0.085
590	0.084
590	0.085
591	0.086
591	0.085
592	0.084
592	0.083
593	0.083
593	0.083
594	0.082
594	0.08
594	0.079
595	0.079
595	0.077
596	0.076
596	0.077
597	0.079
597	0.079
598	0.08
598	0.08
598	0.081
599	0.081
599	0.081
600	0.08
600	0.079
601	0.079
601	0.078
602	0.076
602	0.076
602	0.076
603	0.076
603	0.078
604	0.079
604	0.08
605	0.081
605	0.083
606	0.083
606	0.082
606	0.082
607	0.081
607	0.08
608	0.08
608	0.078
609	0.076
609	0.076
610	0.075
610	0.074
610	0.074
611	0.075
611	0.077
612	0.078
612	0.079
613	0.081
613	0.082
614	0.081
614	0.08
614	0.08
615	0.079
615	0.078
616	0.078
616	0.077
617	0.076
617	0.074
618	0.073
618	0.072
618	0.072
619	0.072
619	0.074
620	0.076
620	0.077
621	0.078
621	0.079
622	0.08
622	0.081
622	0.081
623	0.081
623	0.083
624	0.083
624	0.083
625	0.082
625	0.082
626	0.082
626	0.082
626	0.083
627	0.083
627	0.084
628	0.085
628	0.085
629	0.085
629	0.086
630	0.086
630	0.086
630	0.087
631	0.088
631	0.089
632	0.089
632	0.09
633	0.092
633	0.093
634	0.096
634	0.098
634	0.1
635	0.101
635	0.102
636	0.103
636	0.105
637	0.105
637	0.106
638	0.107
638	0.109
638	0.11
639	0.111
639	0.112
640	0.113
640	0.115
641	0.116
641	0.118
642	0.12
642	0.123
642	0.125
643	0.126
643	0.128
644	0.13
644	0.132
645	0.134
645	0.136
646	0.139
646	0.142
646	0.144
647	0.147
647	0.149
648	0.151
648	0.154
649	0.156
649	0.159
650	0.161
650	0.164
650	0.166
651	0.169
651	0.171
652	0.174
652	0.177
653	0.18
653	0.189
653	0.203
654	0.161
654	0.13
655	0.133
655	0.135
656	0.137
656	0.139
657	0.141
657	0.143
657	0.144
658	0.141
658	0.129
659	0.165
659	0.217
660	0.225
660	0.227
661	0.229
661	0.232
661	0.236
662	0.24
662	0.244
663	0.248
663	0.252
664	0.256
664	0.259
665	0.263
665	0.266
665	0.269
666	0.272
666	0.275
667	0.277
667	0.28
668	0.282
668	0.285
669	0.288
669	0.291
669	0.295
670	0.298
670	0.301
671	0.303
671	0.306
672	0.308
672	0.311
672	0.313
673	0.315
673	0.317
674	0.318
674	0.32
675	0.321
675	0.322
676	0.325
676	0.326
676	0.327
677	0.328
677	0.33
678	0.331
678	0.332
679	0.333
679	0.334
680	0.336
680	0.338
680	0.339
681	0.34
681	0.342
682	0.344
682	0.345
683	0.347
683	0.35
684	0.351
684	0.351
684	0.351
685	0.352
685	0.353
686	0.353
686	0.353
687	0.353
687	0.353
687	0.352
688	0.351
688	0.35
689	0.35
689	0.35
690	0.35
690	0.349
691	0.348
691	0.346
691	0.345
692	0.343
692	0.342
693	0.341
693	0.34
694	0.339
694	0.337
695	0.336
695	0.337
695	0.336
696	0.335
696	0.334
697	0.333
697	0.332
698	0.331
698	0.33
698	0.329
699	0.328
699	0.326
700	0.323
700	0.321
701	0.321
701	0.319
702	0.317
702	0.315
702	0.313
703	0.311
703	0.309
704	0.307
704	0.305
705	0.303
705	0.3
705	0.297
706	0.295
706	0.293
707	0.29
707	0.287
708	0.285
708	0.282
709	0.28
709	0.277
709	0.274
710	0.271
710	0.269
711	0.267
711	0.264
712	0.262
712	0.26
713	0.258
713	0.255
713	0.253
714	0.25
714	0.248
715	0.246
715	0.244
716	0.241
716	0.239
716	0.236
717	0.234
717	0.231
718	0.228
718	0.226
719	0.224
719	0.221
720	0.219
720	0.215
720	0.213
721	0.209
721	0.207
722	0.204
722	0.201
723	0.199
723	0.198
723	0.195
724	0.193
724	0.191
725	0.188
725	0.186
726	0.184
726	0.182
727	0.18
727	0.178
727	0.176
728	0.173
728	0.171
729	0.17
729	0.168
730	0.166
730	0.164
730	0.162
731	0.16
731	0.158
732	0.156
732	0.154
733	0.152
733	0.15
734	0.148
734	0.145
734	0.143
735	0.142
735	0.14
736	0.138
736	0.137
737	0.135
737	0.135
737	0.133
738	0.13
738	0.127
739	0.124
739	0.121
740	0.118
740	0.115
741	0.113
741	0.109
741	0.106
742	0.101
742	0.099
743	0.097
743	0.095
744	0.094
744	0.092
744	0.091
745	0.089
745	0.087
746	0.085
746	0.084
747	0.082
747	0.081
748	0.08
748	0.079
748	0.077
749	0.075
749	0.074
750	0.074
750	0.073
751	0.073
751	0.072
751	0.073
752	0.072
752	0.071
753	0.071
753	0.071
754	0.071
754	0.07
754	0.07
755	0.069
755	0.069
756	0.068
756	0.066
757	0.065
757	0.064
758	0.063
758	0.061
758	0.06
759	0.058
759	0.056
760	0.053
760	0.05
761	0.048
761	0.047
761	0.046
762	0.043
762	0.043
763	0.042
763	0.04
764	0.038
764	0.036
764	0.034
765	0.032
765	0.031
766	0.03
766	0.029
767	0.028
767	0.026
768	0.023
768	0.022
768	0.02
769	0.019
769	0.018
770	0.016
770	0.015
771	0.012
771	0.009
771	0.007
772	0.005
772	0.003
773	0.001
773	-0.002
774	-0.004
774	-0.006
775	-0.008
775	-0.011
775	-0.014
776	-0.017
776	-0.019
777	-0.022
777	-0.024
778	-0.027
778	-0.03
778	-0.033
779	-0.035
779	-0.037
780	-0.041
780	-0.045
781	-0.048
781	-0.053
781	-0.058
782	-0.064
782	-0.07
783	-0.076
783	-0.081
784	-0.088
784	-0.095
784	-0.101
785	-0.107
785	-0.113
786	-0.119
786	-0.122
787	-0.122
787	-0.125
788	-0.13
788	-0.135
788	-0.14
789	-0.145
789	-0.147
790	-0.147
790	-0.148
791	-0.15
791	-0.152
791	-0.155
792	-0.15
792	-0.139
793	-0.133
793	-0.129
794	-0.127
794	-0.129
794	-0.134
795	-0.136
795	-0.136
796	-0.137
796	-0.14
797	-0.149
797	-0.16
797	-0.166
798	-0.172
798	-0.174
799	-0.175
799	-0.174
800	-0.173
800	-0.175
801	-0.178
801	-0.178
801	-0.179
802	-0.18
802	-0.181
803	-0.182
803	-0.183
804	-0.181
804	-0.176
804	-0.17
805	-0.166
805	-0.164
806	-0.162
806	-0.161
807	-0.16
807	-0.159
807	-0.159
808	-0.159
808	-0.16
809	-0.165
809	-0.171
810	-0.175
810	-0.178
810	-0.181
811	-0.185
811	-0.185
812	-0.181
812	-0.178
813	-0.178
813	-0.179
813	-0.179
814	-0.18
814	-0.179
815	-0.176
815	-0.172
816	-0.168
816	-0.165
817	-0.164
817	-0.161
817	-0.154
818	-0.146
818	-0.136
819	-0.126
819	-0.117
820	-0.11
820	-0.102
820	-0.095
821	-0.087
821	-0.081
822	-0.075
822	-0.07
823	-0.066
823	-0.062
823	-0.059
824	-0.055
824	-0.051
825	-0.047
825	-0.043
826	-0.04
826	-0.039
826	-0.037
827	-0.035
827	-0.034
828	-0.033
828	-0.032
829	-0.031
829	-0.031
829	-0.031
830	-0.031
830	-0.03
831	-0.028
831	-0.027
832	-0.026
832	-0.024
832	-0.022
833	-0.02
833	-0.018
834	-0.016
834	-0.014
835	-0.012
835	-0.01
835	-0.009
836	-0.007
836	-0.006
837	-0.005
837	-0.004
838	-0.003
838	-0.003
839	-0.002
839	-0.002
839	-0.003
840	-0.003
840	-0.003
841	-0.003
841	-0.003
842	-0.004
842	-0.004
842	-0.004
843	-0.004
843	-0.003
844	-0.003
844	-0.002
845	-0.001
845	-0
845	0.001
846	0.002
846	0.002
847	0.003
847	0.003
848	0.004
848	0.004
848	0.003
849	0.003
849	0.003
850	0.002
850	0.002
851	0.002
851	0.001
851	0.001
852	0.001
852	0.002
853	0.002
853	0.002
854	0.003
854	0.003
854	0.003
855	0.004
855	0.003
856	0.003
856	0.003
857	0.002
857	0.002
857	0.001
858	0.001
858	-0
859	-0.001
859	-0.002
860	-0.003
860	-0.003
860	-0.003
861	-0.003
861	-0.003
862	-0.003
862	-0.004
863	-0.004
863	-0.004
863	-0.003
864	-0.003
864	-0.003
865	-0.002
865	-0.001
866	-0.001
866	-0
866	0.001
867	0.002
867	0.004
868	0.005
868	0.007
869	0.009
869	0.01
869	0.01
870	0.011
870	0.011
871	0.011
871	0.011
872	0.01
872	0.009
872	0.008
873	0.007
873	0.006
874	0.004
874	0.004
875	0.003
875	0.003
875	0.002
876	0.002
876	0.002
877	0.002
877	0.002
878	0.002
878	0.002
878	0.003
879	0.003
879	0.003
880	0.003
880	0.003
881	0.003
881	0.004
881	0.004
882	0.004
882	0.004
883	0.005
883	0.005
884	0.005
884	0.005
884	0.005
885	0.006
885	0.006
886	0.006
886	0.006
887	0.006
887	0.006
887	0.006
888	0.006
888	0.005
889	0.005
889	0.005
890	0.004
890	0.003
890	0.002
891	0.001
891	0
892	-0.001
892	-0.002
893	-0.003
893	-0.004
893	-0.005
894	-0.006
894	-0.006
895	-0.006
895	-0.007
895	-0.007
896	-0.007
896	-0.007
897	-0.007
897	-0.006
898	-0.006
898	-0.006
898	-0.005
899	-0.004
899	-0.003
900	-0.002
900	-0.001
901	0
901	0.002
901	0.003
902	0.004
902	0.005
903	0.006
903	0.006
904	0.006
904	0.006
904	0.006
905	0.006
905	0.005
906	0.005
906	0.004
907	0.003
907	0.003
907	0.002
908	0.002
908	0.002
909	0.002
909	0.003
910	0.003
910	0.004
910	0.005
911	0.005
911	0.006
912	0.007
912	0.008
913	0.008
913	0.008
913	0.008
914	0.007
914	0.007
915	0.006
915	0.004
916	0.003
916	0.002
916	-0
917	-0.002
917	-0.003
918	-0.004
918	-0.005
918	-0.006
919	-0.006
919	-0.006
920	-0.005
920	-0.004
921	-0.004
921	-0.003
921	-0.002
922	-0.001
922	-0
923	0.001
923	0.001
924	0.002
924	0.002
924	0.002
925	0.001
925	0
926	-0
926	-0.001
927	-0.002
927	-0.004
927	-0.005
928	-0.006
928	-0.007
929	-0.008
929	-0.009
930	-0.01
930	-0.01
930	-0.01
931	-0.01
931	-0.01
932	-0.01
932	-0.01
933	-0.009
933	-0.009
933	-0.009
934	-0.009
934	-0.009
935	-0.009
935	-0.009
935	-0.009
936	-0.009
936	-0.008
937	-0.008
937	-0.008
938	-0.008
938	-0.008
938	-0.008
939	-0.008
939	-0.007
940	-0.007
940	-0.007
941	-0.006
941	-0.006
941	-0.005
942	-0.005
942	-0.005
943	-0.005
943	-0.005
944	-0.005
944	-0.006
944	-0.006
945	-0.006
945	-0.007
946	-0.007
946	-0.007
946	-0.008
947	-0.008
947	-0.008
948	-0.007
948	-0.007
949	-0.007
949	-0.007
949	-0.006
950	-0.006
950	-0.005
951	-0.005
951	-0.004
952	-0.004
952	-0.004
952	-0.003
953	-0.003
953	-0.002
954	-0.002
954	-0.002
955	-0.002
955	-0.002
955	-0.002
956	-0.001
956	-0.001
957	-0.002
957	-0.002
957	-0.003
958	-0.004
958	-0.004
959	-0.005
959	-0.006
960	-0.006
960	-0.007
960	-0.008
961	-0.009
961	-0.01
962	-0.011
962	-0.011
963	-0.011
963	-0.011
963	-0.011
964	-0.01
964	-0.009
965	-0.008
965	-0.006
966	-0.005
966	-0.003
966	-0.002
967	-0
967	0.001
968	0.002
968	0.003
968	0.003
969	0.004
969	0.004
970	0.004
970	0.003
971	0.003
971	0.002
971	0.002
972	0.002
972	0.001
973	0.001
973	0.001
974	0
974	-0
974	-0
975	-0
975	-0.001
976	-0.001
976	-0.002
976	-0.003
977	-0.004
977	-0.005
978	-0.007
978	-0.008
979	-0.009
979	-0.01
979	-0.011
980	-0.012
980	-0.013
981	-0.014
981	-0.014
982	-0.013
982	-0.013
982	-0.013
983	-0.012
983	-0.012
984	-0.012
984	-0.011
984	-0.011
985	-0.01
985	-0.01
986	-0.011
986	-0.011
987	-0.011
987	-0.01
987	-0.01
988	-0.009
988	-0.008
989	-0.008
989	-0.007
990	-0.006
990	-0.005
990	-0.003
991	-0.002
991	-0.001
992	-0
992	0
992	0.001
993	0
993	0.001
994	0
994	-0
995	-0
995	-0.001
995	-0.002
996	-0.002
996	-0.003
997	-0.003
997	-0.003
997	-0.003
998	-0.003
998	-0.002
999	-0.002
999	-0.001
1000	-0
1000	0.001
1000	0.001
1001	0.002
1001	0.002
1002	0.002
1002	0.002
1003	0.002
1003	0.002
1003	0.001
1004	0.001
1004	-0
1005	-0.001
1005	-0.002
1005	-0.003
1006	-0.004
1006	-0.005
1007	-0.006
1007	-0.007
1008	-0.008
1008	-0.009
1008	-0.01
1009	-0.01
1009	-0.011
1010	-0.012
1010	-0.012
1010	-0.013
1011	-0.013
1011	-0.014
1012	-0.014
1012	-0.015
1013	-0.016
1013	-0.016
1013	-0.017
1014	-0.018
1014	-0.019
1015	-0.019
1015	-0.02
1016	-0.021
1016	-0.021
1016	-0.022
1017	-0.023
1017	-0.023
1018	-0.023
1018	-0.024
1018	-0.024
1019	-0.024
1019	-0.024
1020	-0.025
1020	-0.025
1021	-0.026
1021	-0.026
1021	-0.026
1022	-0.025
1022	-0.025
1023	-0.025
1023	-0.024
1023	-0.024
1024	-0.024
1024	-0.024
1025	-0.024
1025	-0.023
1026	-0.023
1026	-0.023
1026	-0.023
1027	-0.023
1027	-0.022
1028	-0.022
1028	-0.021
1028	-0.021
1029	-0.02
1029	-0.02
1030	-0.019
1030	-0.019
1031	-0.019
1031	-0.018
1031	-0.018
1032	-0.018
1032	-0.019
1033	-0.019
1033	-0.019
1033	-0.02
1034	-0.021
1034	-0.022
1035	-0.023
1035	-0.024
1036	-0.025
1036	-0.026
1036	-0.026
1037	-0.026
1037	-0.026
1038	-0.026
1038	-0.026
1039	-0.026
1039	-0.025
1039	-0.024
1040	-0.024
1040	-0.024
1041	-0.024
1041	-0.024
1041	-0.024
1042	-0.025
1042	-0.025
1043	-0.026
1043	-0.026
1044	-0.027
1044	-0.027
1044	-0.028
1045	-0.028
1045	-0.029
1046	-0.029
1046	-0.029
1046	-0.029
1047	-0.029
1047	-0.029
1048	-0.028
1048	-0.028
1049	-0.029
1049	-0.029
1049	-0.03
1050	-0.03
1050	-0.031
1051	-0.032
1051	-0.033
1051	-0.033
1052	-0.033
1052	-0.034
1053	-0.035
1053	-0.035
1053	-0.035
1054	-0.035
1054	-0.035
1055	-0.034
1055	-0.034
1056	-0.034
1056	-0.035
1056	-0.036
1057	-0.036
1057	-0.036
1058	-0.036
1058	-0.037
1058	-0.036
1059	-0.037
1059	-0.037
1060	-0.037
1060	-0.037
1061	-0.036
1061	-0.035
1061	-0.034
1062	-0.034
1062	-0.034
1063	-0.033
1063	-0.033
1063	-0.032
1064	-0.032
1064	-0.032
1065	-0.032
1065	-0.032
1066	-0.032
1066	-0.032
1066	-0.031
1067	-0.032
1067	-0.031
1068	-0.032
1068	-0.033
1068	-0.033
1069	-0.034
1069	-0.035
1070	-0.036
1070	-0.036
1071	-0.037
1071	-0.038
1071	-0.039
1072	-0.039
1072	-0.039
1073	-0.04
1073	-0.04
1073	-0.04
1074	-0.04
1074	-0.04
1075	-0.041
1075	-0.041
1076	-0.042
1076	-0.041
1076	-0.042
1077	-0.043
1077	-0.043
1078	-0.043
1078	-0.043
1078	-0.042
1079	-0.041
1079	-0.039
1080	-0.039
1080	-0.038
1080	-0.037
1081	-0.037
1081	-0.035
1082	-0.034
1082	-0.034
1083	-0.034
1083	-0.035
1083	-0.034
1084	-0.034
1084	-0.034
1085	-0.033
1085	-0.032
1085	-0.031
1086	-0.031
1086	-0.031
1087	-0.03
1087	-0.03
1088	-0.03
1088	-0.03
1088	-0.03
1089	-0.032
1089	-0.032
1090	-0.033
1090	-0.034
1090	-0.034
1091	-0.034
1091	-0.034
1092	-0.034
1092	-0.033
1092	-0.032
1093	-0.031
1093	-0.029
1094	-0.027
1094	-0.026
1095	-0.025
1095	-0.023
1095	-0.02
1096	-0.019
1096	-0.017
1097	-0.014
1097	-0.013
1097	-0.012
1098	-0.011
1098	-0.01
1099	-0.008
1099	-0.005
1100	-0.004
1100	-0.002
1100	-0.001
1101	0.001
1101	0.002
1102	0.006
1102	0.009
1102	0.013
1103	0.018
1103	0.022
1104	0.027
1104	0.032
1104	0.04
1105	0.047
1105	0.052
1106	0.056
1106	0.065
1107	0.07
1107	0.08
1107	0.092
1108	0.139
1108	0.205
1109	0.301
1109	0.473
1109	0.636
1110	1.12
1110	-0
1111	-0
1111	-0
