Data from 15c-2a_Absorbance__59__01860.txt Node

Date: Wed Jan 17 11:11:44 CET 2024
User: Marek
Spectrometer: MAYP115816
Trigger mode: 0
Integration Time (sec): 2.000000E-1
Scans to average: 10
Electric dark correction enabled: true
Nonlinearity correction enabled: true
Boxcar width: 5
XAxis mode: Wavelengths
Number of Pixels in Spectrum: 2068
>>>>>Begin Spectral Data<<<<<
199	-2.153
199	-2.005
200	-1.84
200	-1.712
201	-1.631
201	-1.58
202	-1.503
202	-1.444
203	-1.391
203	-1.346
204	-1.318
204	-1.293
205	-1.269
205	-1.258
205	-1.255
206	-1.254
206	-1.249
207	-1.247
207	-1.242
208	-1.239
208	-1.239
209	-1.234
209	-1.231
210	-1.23
210	-1.23
211	-1.228
211	-1.227
212	-1.227
212	-1.226
213	-1.225
213	-1.224
213	-1.222
214	-1.221
214	-1.22
215	-1.219
215	-1.218
216	-1.218
216	-1.214
217	-1.21
217	-1.208
218	-1.207
218	-1.203
219	-1.201
219	-1.2
220	-1.196
220	-1.192
221	-1.187
221	-1.183
221	-1.178
222	-1.175
222	-1.17
223	-1.164
223	-1.16
224	-1.154
224	-1.147
225	-1.138
225	-1.131
226	-1.121
226	-1.109
227	-1.096
227	-1.082
228	-1.065
228	-1.046
229	-1.024
229	-0.999
229	-0.972
230	-0.941
230	-0.908
231	-0.872
231	-0.834
232	-0.793
232	-0.75
233	-0.703
233	-0.656
234	-0.608
234	-0.559
235	-0.512
235	-0.465
236	-0.419
236	-0.374
236	-0.331
237	-0.289
237	-0.251
238	-0.214
238	-0.179
239	-0.146
239	-0.116
240	-0.087
240	-0.061
241	-0.037
241	-0.015
242	0.005
242	0.023
243	0.041
243	0.056
243	0.07
244	0.084
244	0.095
245	0.106
245	0.116
246	0.126
246	0.134
247	0.142
247	0.15
248	0.157
248	0.163
249	0.169
249	0.174
250	0.18
250	0.185
250	0.189
251	0.193
251	0.197
252	0.201
252	0.204
253	0.208
253	0.211
254	0.213
254	0.216
255	0.219
255	0.221
256	0.223
256	0.225
257	0.227
257	0.228
258	0.23
258	0.231
258	0.232
259	0.233
259	0.234
260	0.234
260	0.235
261	0.236
261	0.236
262	0.236
262	0.237
263	0.237
263	0.237
264	0.237
264	0.237
265	0.238
265	0.238
265	0.237
266	0.237
266	0.237
267	0.236
267	0.236
268	0.235
268	0.235
269	0.234
269	0.233
270	0.232
270	0.232
271	0.231
271	0.23
272	0.229
272	0.229
272	0.228
273	0.227
273	0.226
274	0.226
274	0.225
275	0.224
275	0.223
276	0.223
276	0.222
277	0.221
277	0.22
278	0.218
278	0.217
278	0.216
279	0.215
279	0.213
280	0.213
280	0.212
281	0.211
281	0.21
282	0.21
282	0.209
283	0.209
283	0.208
284	0.208
284	0.208
285	0.208
285	0.207
285	0.207
286	0.206
286	0.206
287	0.205
287	0.205
288	0.204
288	0.204
289	0.203
289	0.203
290	0.203
290	0.202
291	0.202
291	0.201
292	0.201
292	0.201
292	0.2
293	0.2
293	0.2
294	0.199
294	0.199
295	0.199
295	0.199
296	0.198
296	0.198
297	0.198
297	0.198
298	0.197
298	0.197
298	0.197
299	0.197
299	0.197
300	0.196
300	0.196
301	0.196
301	0.196
302	0.196
302	0.195
303	0.195
303	0.195
304	0.195
304	0.195
305	0.195
305	0.194
305	0.194
306	0.194
306	0.193
307	0.193
307	0.193
308	0.192
308	0.192
309	0.192
309	0.192
310	0.191
310	0.191
311	0.191
311	0.191
311	0.19
312	0.19
312	0.19
313	0.189
313	0.189
314	0.188
314	0.188
315	0.188
315	0.187
316	0.187
316	0.186
317	0.186
317	0.186
318	0.185
318	0.185
318	0.184
319	0.184
319	0.183
320	0.183
320	0.182
321	0.181
321	0.181
322	0.18
322	0.18
323	0.179
323	0.178
324	0.178
324	0.177
324	0.176
325	0.176
325	0.176
326	0.175
326	0.175
327	0.174
327	0.174
328	0.173
328	0.173
329	0.172
329	0.172
330	0.171
330	0.171
330	0.17
331	0.169
331	0.169
332	0.168
332	0.167
333	0.167
333	0.166
334	0.166
334	0.165
335	0.164
335	0.164
336	0.163
336	0.163
336	0.162
337	0.162
337	0.161
338	0.161
338	0.16
339	0.16
339	0.159
340	0.159
340	0.158
341	0.158
341	0.157
342	0.157
342	0.156
342	0.156
343	0.155
343	0.155
344	0.154
344	0.154
345	0.153
345	0.153
346	0.152
346	0.151
347	0.151
347	0.15
348	0.149
348	0.149
348	0.148
349	0.148
349	0.147
350	0.146
350	0.146
351	0.145
351	0.144
352	0.144
352	0.143
353	0.142
353	0.142
354	0.141
354	0.14
354	0.139
355	0.138
355	0.137
356	0.137
356	0.136
357	0.135
357	0.135
358	0.135
358	0.135
359	0.135
359	0.136
360	0.137
360	0.137
360	0.138
361	0.138
361	0.138
362	0.139
362	0.139
363	0.139
363	0.139
364	0.138
364	0.138
365	0.138
365	0.137
366	0.137
366	0.137
366	0.137
367	0.137
367	0.137
368	0.136
368	0.136
369	0.136
369	0.136
370	0.135
370	0.135
371	0.134
371	0.134
372	0.134
372	0.133
372	0.133
373	0.133
373	0.133
374	0.133
374	0.133
375	0.133
375	0.133
376	0.133
376	0.133
377	0.134
377	0.134
378	0.135
378	0.135
378	0.135
379	0.135
379	0.135
380	0.136
380	0.136
381	0.136
381	0.135
382	0.135
382	0.135
383	0.135
383	0.135
383	0.134
384	0.134
384	0.134
385	0.134
385	0.134
386	0.134
386	0.134
387	0.134
387	0.134
388	0.134
388	0.134
389	0.134
389	0.134
389	0.134
390	0.135
390	0.135
391	0.135
391	0.136
392	0.136
392	0.136
393	0.136
393	0.135
394	0.135
394	0.135
394	0.135
395	0.135
395	0.134
396	0.134
396	0.134
397	0.134
397	0.135
398	0.135
398	0.135
399	0.135
399	0.135
400	0.135
400	0.135
400	0.135
401	0.134
401	0.133
402	0.132
402	0.132
403	0.131
403	0.131
404	0.131
404	0.131
405	0.131
405	0.131
405	0.13
406	0.13
406	0.13
407	0.13
407	0.13
408	0.129
408	0.129
409	0.128
409	0.127
410	0.127
410	0.127
411	0.128
411	0.127
411	0.127
412	0.127
412	0.127
413	0.127
413	0.126
414	0.126
414	0.126
415	0.126
415	0.125
416	0.125
416	0.125
416	0.124
417	0.124
417	0.124
418	0.124
418	0.124
419	0.125
419	0.126
420	0.126
420	0.127
421	0.128
421	0.129
421	0.129
422	0.129
422	0.13
423	0.13
423	0.129
424	0.129
424	0.128
425	0.127
425	0.126
426	0.125
426	0.125
427	0.124
427	0.124
427	0.125
428	0.125
428	0.126
429	0.126
429	0.127
430	0.127
430	0.127
431	0.127
431	0.126
432	0.126
432	0.126
432	0.125
433	0.123
433	0.122
434	0.121
434	0.121
435	0.121
435	0.121
436	0.121
436	0.122
437	0.122
437	0.122
437	0.122
438	0.122
438	0.122
439	0.122
439	0.122
440	0.121
440	0.121
441	0.121
441	0.121
442	0.121
442	0.121
442	0.121
443	0.121
443	0.122
444	0.122
444	0.123
445	0.123
445	0.123
446	0.123
446	0.123
447	0.123
447	0.122
447	0.122
448	0.122
448	0.122
449	0.121
449	0.121
450	0.12
450	0.12
451	0.12
451	0.119
452	0.118
452	0.118
452	0.117
453	0.117
453	0.117
454	0.116
454	0.116
455	0.116
455	0.115
456	0.115
456	0.115
457	0.115
457	0.114
458	0.114
458	0.114
458	0.114
459	0.114
459	0.114
460	0.113
460	0.112
461	0.111
461	0.111
462	0.11
462	0.11
463	0.11
463	0.111
463	0.111
464	0.111
464	0.111
465	0.111
465	0.111
466	0.111
466	0.111
467	0.111
467	0.11
467	0.109
468	0.108
468	0.106
469	0.104
469	0.103
470	0.101
470	0.101
471	0.1
471	0.1
472	0.099
472	0.099
472	0.099
473	0.1
473	0.101
474	0.102
474	0.103
475	0.103
475	0.104
476	0.104
476	0.103
477	0.103
477	0.103
477	0.103
478	0.102
478	0.102
479	0.102
479	0.102
480	0.102
480	0.103
481	0.103
481	0.104
482	0.104
482	0.105
482	0.106
483	0.108
483	0.11
484	0.112
484	0.114
485	0.115
485	0.116
486	0.116
486	0.117
487	0.117
487	0.117
487	0.117
488	0.116
488	0.114
489	0.112
489	0.111
490	0.11
490	0.109
491	0.108
491	0.108
492	0.108
492	0.107
492	0.107
493	0.107
493	0.107
494	0.109
494	0.11
495	0.111
495	0.112
496	0.113
496	0.113
496	0.114
497	0.114
497	0.115
498	0.115
498	0.115
499	0.115
499	0.114
500	0.114
500	0.115
501	0.115
501	0.116
501	0.117
502	0.117
502	0.118
503	0.119
503	0.12
504	0.12
504	0.12
505	0.12
505	0.12
506	0.12
506	0.12
506	0.12
507	0.119
507	0.119
508	0.119
508	0.12
509	0.12
509	0.12
510	0.121
510	0.121
511	0.121
511	0.121
511	0.121
512	0.12
512	0.12
513	0.119
513	0.119
514	0.118
514	0.118
515	0.118
515	0.117
515	0.116
516	0.116
516	0.116
517	0.116
517	0.117
518	0.117
518	0.117
519	0.116
519	0.115
520	0.115
520	0.113
520	0.112
521	0.11
521	0.108
522	0.106
522	0.104
523	0.102
523	0.1
524	0.1
524	0.1
524	0.1
525	0.101
525	0.102
526	0.104
526	0.107
527	0.11
527	0.112
528	0.115
528	0.117
529	0.119
529	0.12
529	0.122
530	0.123
530	0.124
531	0.125
531	0.126
532	0.127
532	0.128
533	0.129
533	0.13
533	0.131
534	0.131
534	0.131
535	0.131
535	0.132
536	0.133
536	0.134
537	0.135
537	0.135
538	0.136
538	0.136
538	0.136
539	0.136
539	0.137
540	0.137
540	0.137
541	0.136
541	0.136
542	0.135
542	0.135
542	0.135
543	0.135
543	0.135
544	0.135
544	0.135
545	0.136
545	0.137
546	0.138
546	0.139
547	0.139
547	0.138
547	0.137
548	0.137
548	0.136
549	0.136
549	0.135
550	0.135
550	0.134
551	0.134
551	0.134
551	0.134
552	0.134
552	0.135
553	0.136
553	0.138
554	0.139
554	0.139
555	0.139
555	0.138
556	0.136
556	0.135
556	0.134
557	0.133
557	0.132
558	0.132
558	0.131
559	0.131
559	0.132
560	0.133
560	0.134
560	0.135
561	0.137
561	0.139
562	0.14
562	0.14
563	0.14
563	0.139
564	0.137
564	0.136
564	0.134
565	0.134
565	0.133
566	0.133
566	0.133
567	0.134
567	0.136
568	0.138
568	0.141
568	0.144
569	0.148
569	0.152
570	0.155
570	0.156
571	0.158
571	0.16
572	0.162
572	0.163
573	0.164
573	0.165
573	0.165
574	0.165
574	0.165
575	0.166
575	0.168
576	0.17
576	0.171
577	0.171
577	0.17
577	0.171
578	0.17
578	0.171
579	0.172
579	0.174
580	0.174
580	0.172
581	0.169
581	0.167
581	0.166
582	0.166
582	0.166
583	0.167
583	0.167
584	0.164
584	0.16
585	0.158
585	0.158
585	0.158
586	0.158
586	0.158
587	0.156
587	0.154
588	0.151
588	0.149
589	0.147
589	0.146
590	0.146
590	0.145
590	0.146
591	0.147
591	0.148
592	0.148
592	0.147
593	0.147
593	0.147
594	0.146
594	0.145
594	0.144
595	0.143
595	0.141
596	0.139
596	0.139
597	0.141
597	0.143
598	0.144
598	0.146
598	0.147
599	0.149
599	0.149
600	0.148
600	0.147
601	0.146
601	0.144
602	0.142
602	0.141
602	0.139
603	0.138
603	0.138
604	0.139
604	0.14
605	0.142
605	0.144
606	0.145
606	0.144
606	0.143
607	0.142
607	0.141
608	0.139
608	0.137
609	0.135
609	0.133
610	0.131
610	0.129
610	0.128
611	0.128
611	0.129
612	0.13
612	0.131
613	0.132
613	0.134
614	0.133
614	0.132
614	0.131
615	0.129
615	0.128
616	0.126
616	0.124
617	0.123
617	0.12
618	0.117
618	0.114
618	0.112
619	0.111
619	0.111
620	0.112
620	0.112
621	0.112
621	0.112
622	0.112
622	0.112
622	0.111
623	0.111
623	0.111
624	0.111
624	0.11
625	0.108
625	0.107
626	0.106
626	0.105
626	0.105
627	0.105
627	0.104
628	0.104
628	0.104
629	0.103
629	0.103
630	0.102
630	0.1
630	0.1
631	0.099
631	0.099
632	0.097
632	0.097
633	0.096
633	0.096
634	0.097
634	0.098
634	0.1
635	0.101
635	0.102
636	0.102
636	0.103
637	0.103
637	0.103
638	0.103
638	0.103
638	0.103
639	0.102
639	0.101
640	0.101
640	0.101
641	0.102
641	0.102
642	0.103
642	0.104
642	0.105
643	0.106
643	0.106
644	0.107
644	0.108
645	0.109
645	0.11
646	0.112
646	0.114
646	0.116
647	0.119
647	0.121
648	0.123
648	0.125
649	0.126
649	0.128
650	0.13
650	0.132
650	0.134
651	0.135
651	0.136
652	0.137
652	0.137
653	0.139
653	0.147
653	0.164
654	0.134
654	0.111
655	0.113
655	0.115
656	0.116
656	0.117
657	0.118
657	0.119
657	0.12
658	0.116
658	0.102
659	0.126
659	0.16
660	0.162
660	0.162
661	0.163
661	0.164
661	0.165
662	0.168
662	0.171
663	0.173
663	0.176
664	0.178
664	0.181
665	0.183
665	0.185
665	0.186
666	0.188
666	0.19
667	0.191
667	0.192
668	0.194
668	0.195
669	0.196
669	0.199
669	0.202
670	0.206
670	0.208
671	0.21
671	0.212
672	0.213
672	0.215
672	0.216
673	0.217
673	0.218
674	0.218
674	0.218
675	0.217
675	0.218
676	0.219
676	0.221
676	0.222
677	0.223
677	0.225
678	0.227
678	0.228
679	0.229
679	0.231
680	0.233
680	0.235
680	0.235
681	0.236
681	0.237
682	0.238
682	0.239
683	0.241
683	0.243
684	0.246
684	0.246
684	0.247
685	0.247
685	0.249
686	0.25
686	0.251
687	0.251
687	0.251
687	0.252
688	0.251
688	0.25
689	0.251
689	0.252
690	0.252
690	0.252
691	0.251
691	0.251
691	0.251
692	0.25
692	0.249
693	0.249
693	0.25
694	0.249
694	0.248
695	0.248
695	0.251
695	0.252
696	0.253
696	0.253
697	0.253
697	0.253
698	0.253
698	0.252
698	0.252
699	0.252
699	0.251
700	0.249
700	0.249
701	0.249
701	0.249
702	0.249
702	0.249
702	0.248
703	0.248
703	0.247
704	0.246
704	0.246
705	0.246
705	0.246
705	0.245
706	0.244
706	0.244
707	0.243
707	0.241
708	0.24
708	0.239
709	0.238
709	0.237
709	0.235
710	0.232
710	0.23
711	0.229
711	0.229
712	0.228
712	0.228
713	0.227
713	0.227
713	0.226
714	0.224
714	0.223
715	0.222
715	0.22
716	0.219
716	0.218
716	0.217
717	0.215
717	0.214
718	0.213
718	0.211
719	0.211
719	0.21
720	0.209
720	0.208
720	0.207
721	0.205
721	0.204
722	0.202
722	0.201
723	0.2
723	0.199
723	0.198
724	0.197
724	0.195
725	0.193
725	0.192
726	0.19
726	0.189
727	0.188
727	0.187
727	0.186
728	0.184
728	0.183
729	0.183
729	0.183
730	0.183
730	0.181
730	0.181
731	0.18
731	0.179
732	0.179
732	0.178
733	0.176
733	0.174
734	0.172
734	0.17
734	0.169
735	0.168
735	0.167
736	0.165
736	0.164
737	0.163
737	0.163
737	0.163
738	0.161
738	0.158
739	0.155
739	0.153
740	0.149
740	0.147
741	0.144
741	0.141
741	0.136
742	0.131
742	0.126
743	0.123
743	0.121
744	0.119
744	0.118
744	0.116
745	0.114
745	0.112
746	0.111
746	0.11
747	0.11
747	0.111
748	0.111
748	0.111
748	0.11
749	0.109
749	0.109
750	0.109
750	0.109
751	0.109
751	0.11
751	0.111
752	0.111
752	0.11
753	0.11
753	0.11
754	0.11
754	0.109
754	0.11
755	0.11
755	0.111
756	0.111
756	0.109
757	0.107
757	0.106
758	0.105
758	0.104
758	0.103
759	0.102
759	0.099
760	0.096
760	0.092
761	0.089
761	0.087
761	0.085
762	0.083
762	0.082
763	0.081
763	0.078
764	0.075
764	0.072
764	0.068
765	0.065
765	0.062
766	0.06
766	0.059
767	0.057
767	0.053
768	0.048
768	0.044
768	0.041
769	0.039
769	0.038
770	0.035
770	0.033
771	0.029
771	0.024
771	0.019
772	0.015
772	0.011
773	0.006
773	0.001
774	-0.005
774	-0.011
775	-0.016
775	-0.022
775	-0.028
776	-0.035
776	-0.041
777	-0.048
777	-0.054
778	-0.061
778	-0.068
778	-0.075
779	-0.08
779	-0.085
780	-0.092
780	-0.1
781	-0.108
781	-0.115
781	-0.121
782	-0.128
782	-0.135
783	-0.141
783	-0.145
784	-0.149
784	-0.153
784	-0.155
785	-0.157
785	-0.158
786	-0.158
786	-0.155
787	-0.15
787	-0.145
788	-0.144
788	-0.145
788	-0.146
789	-0.148
789	-0.148
790	-0.144
790	-0.143
791	-0.144
791	-0.146
791	-0.148
792	-0.143
792	-0.132
793	-0.126
793	-0.122
794	-0.121
794	-0.123
794	-0.127
795	-0.13
795	-0.13
796	-0.13
796	-0.133
797	-0.142
797	-0.153
797	-0.16
798	-0.165
798	-0.168
799	-0.168
799	-0.167
800	-0.167
800	-0.168
801	-0.171
801	-0.172
801	-0.172
802	-0.174
802	-0.175
803	-0.176
803	-0.176
804	-0.175
804	-0.17
804	-0.163
805	-0.16
805	-0.158
806	-0.155
806	-0.154
807	-0.153
807	-0.153
807	-0.153
808	-0.153
808	-0.154
809	-0.159
809	-0.165
810	-0.168
810	-0.171
810	-0.175
811	-0.178
811	-0.179
812	-0.175
812	-0.172
813	-0.171
813	-0.172
813	-0.173
814	-0.173
814	-0.172
815	-0.169
815	-0.165
816	-0.163
816	-0.162
817	-0.166
817	-0.169
817	-0.169
818	-0.168
818	-0.164
819	-0.159
819	-0.156
820	-0.158
820	-0.158
820	-0.157
821	-0.153
821	-0.147
822	-0.141
822	-0.134
823	-0.126
823	-0.12
823	-0.116
824	-0.108
824	-0.096
825	-0.084
825	-0.073
826	-0.063
826	-0.056
826	-0.049
827	-0.041
827	-0.035
828	-0.029
828	-0.024
829	-0.019
829	-0.015
829	-0.012
830	-0.01
830	-0.007
831	-0.003
831	0.002
832	0.005
832	0.009
832	0.013
833	0.017
833	0.021
834	0.024
834	0.028
835	0.031
835	0.034
835	0.036
836	0.038
836	0.041
837	0.042
837	0.043
838	0.044
838	0.044
839	0.044
839	0.045
839	0.045
840	0.045
840	0.045
841	0.045
841	0.045
842	0.046
842	0.047
842	0.048
843	0.05
843	0.051
844	0.053
844	0.055
845	0.057
845	0.059
845	0.062
846	0.064
846	0.065
847	0.067
847	0.068
848	0.069
848	0.069
848	0.069
849	0.069
849	0.069
850	0.068
850	0.067
851	0.067
851	0.066
851	0.066
852	0.065
852	0.066
853	0.066
853	0.067
854	0.068
854	0.068
854	0.069
855	0.07
855	0.07
856	0.07
856	0.071
857	0.071
857	0.071
857	0.071
858	0.071
858	0.07
859	0.07
859	0.069
860	0.069
860	0.069
860	0.069
861	0.07
861	0.07
862	0.07
862	0.07
863	0.071
863	0.071
863	0.071
864	0.072
864	0.072
865	0.073
865	0.073
866	0.074
866	0.074
866	0.075
867	0.076
867	0.078
868	0.079
868	0.081
869	0.082
869	0.083
869	0.084
870	0.085
870	0.085
871	0.086
871	0.086
872	0.085
872	0.084
872	0.083
873	0.082
873	0.081
874	0.08
874	0.08
875	0.08
875	0.079
875	0.079
876	0.08
876	0.08
877	0.08
877	0.08
878	0.081
878	0.081
878	0.081
879	0.082
879	0.082
880	0.082
880	0.082
881	0.082
881	0.083
881	0.083
882	0.083
882	0.083
883	0.083
883	0.083
884	0.083
884	0.083
884	0.083
885	0.082
885	0.082
886	0.082
886	0.081
887	0.08
887	0.08
887	0.079
888	0.079
888	0.078
889	0.077
889	0.077
890	0.076
890	0.076
890	0.074
891	0.073
891	0.072
892	0.07
892	0.069
893	0.068
893	0.067
893	0.066
894	0.065
894	0.064
895	0.064
895	0.063
895	0.063
896	0.062
896	0.062
897	0.062
897	0.063
898	0.063
898	0.063
898	0.064
899	0.065
899	0.066
900	0.068
900	0.07
901	0.071
901	0.073
901	0.075
902	0.077
902	0.078
903	0.079
903	0.08
904	0.08
904	0.081
904	0.081
905	0.081
905	0.081
906	0.081
906	0.081
907	0.081
907	0.08
907	0.08
908	0.08
908	0.081
909	0.081
909	0.082
910	0.083
910	0.083
910	0.084
911	0.084
911	0.085
912	0.086
912	0.086
913	0.086
913	0.085
913	0.084
914	0.082
914	0.081
915	0.079
915	0.077
916	0.075
916	0.073
916	0.07
917	0.069
917	0.067
918	0.066
918	0.065
918	0.065
919	0.065
919	0.065
920	0.066
920	0.067
921	0.068
921	0.07
921	0.071
922	0.072
922	0.074
923	0.075
923	0.076
924	0.076
924	0.076
924	0.076
925	0.075
925	0.075
926	0.074
926	0.073
927	0.072
927	0.071
927	0.069
928	0.068
928	0.067
929	0.066
929	0.065
930	0.065
930	0.064
930	0.064
931	0.064
931	0.064
932	0.064
932	0.064
933	0.064
933	0.065
933	0.065
934	0.065
934	0.065
935	0.064
935	0.064
935	0.064
936	0.064
936	0.064
937	0.065
937	0.065
938	0.065
938	0.065
938	0.066
939	0.067
939	0.067
940	0.068
940	0.069
941	0.069
941	0.07
941	0.07
942	0.071
942	0.071
943	0.071
943	0.071
944	0.071
944	0.071
944	0.07
945	0.07
945	0.07
946	0.07
946	0.07
946	0.069
947	0.069
947	0.069
948	0.069
948	0.068
949	0.068
949	0.069
949	0.069
950	0.069
950	0.069
951	0.069
951	0.069
952	0.069
952	0.07
952	0.07
953	0.07
953	0.07
954	0.069
954	0.069
955	0.069
955	0.068
955	0.068
956	0.068
956	0.068
957	0.067
957	0.067
957	0.066
958	0.065
958	0.064
959	0.063
959	0.062
960	0.061
960	0.06
960	0.059
961	0.058
961	0.058
962	0.057
962	0.057
963	0.057
963	0.057
963	0.058
964	0.058
964	0.059
965	0.06
965	0.061
966	0.063
966	0.064
966	0.065
967	0.066
967	0.067
968	0.068
968	0.069
968	0.069
969	0.07
969	0.07
970	0.07
970	0.069
971	0.069
971	0.068
971	0.068
972	0.067
972	0.067
973	0.067
973	0.066
974	0.066
974	0.065
974	0.065
975	0.065
975	0.064
976	0.064
976	0.063
976	0.062
977	0.061
977	0.06
978	0.058
978	0.057
979	0.055
979	0.054
979	0.053
980	0.052
980	0.051
981	0.05
981	0.051
982	0.051
982	0.052
982	0.052
983	0.053
983	0.054
984	0.055
984	0.056
984	0.057
985	0.057
985	0.058
986	0.058
986	0.057
987	0.057
987	0.058
987	0.058
988	0.058
988	0.059
989	0.059
989	0.06
990	0.061
990	0.061
990	0.063
991	0.064
991	0.065
992	0.066
992	0.066
992	0.067
993	0.067
993	0.067
994	0.067
994	0.067
995	0.066
995	0.066
995	0.065
996	0.064
996	0.063
997	0.063
997	0.063
997	0.062
998	0.062
998	0.063
999	0.063
999	0.064
1000	0.064
1000	0.065
1000	0.065
1001	0.066
1001	0.066
1002	0.066
1002	0.066
1003	0.066
1003	0.066
1003	0.065
1004	0.065
1004	0.064
1005	0.064
1005	0.063
1005	0.063
1006	0.062
1006	0.061
1007	0.06
1007	0.059
1008	0.059
1008	0.058
1008	0.058
1009	0.057
1009	0.057
1010	0.056
1010	0.056
1010	0.055
1011	0.055
1011	0.054
1012	0.054
1012	0.053
1013	0.052
1013	0.051
1013	0.05
1014	0.049
1014	0.048
1015	0.047
1015	0.047
1016	0.046
1016	0.045
1016	0.044
1017	0.043
1017	0.043
1018	0.042
1018	0.042
1018	0.042
1019	0.041
1019	0.041
1020	0.041
1020	0.04
1021	0.04
1021	0.04
1021	0.04
1022	0.04
1022	0.041
1023	0.041
1023	0.041
1023	0.042
1024	0.042
1024	0.042
1025	0.043
1025	0.043
1026	0.044
1026	0.044
1026	0.045
1027	0.046
1027	0.047
1028	0.048
1028	0.049
1028	0.049
1029	0.05
1029	0.051
1030	0.052
1030	0.052
1031	0.053
1031	0.053
1031	0.053
1032	0.053
1032	0.053
1033	0.053
1033	0.052
1033	0.052
1034	0.051
1034	0.049
1035	0.049
1035	0.048
1036	0.047
1036	0.047
1036	0.046
1037	0.046
1037	0.047
1038	0.047
1038	0.048
1039	0.049
1039	0.049
1039	0.05
1040	0.051
1040	0.052
1041	0.052
1041	0.052
1041	0.052
1042	0.051
1042	0.051
1043	0.05
1043	0.05
1044	0.049
1044	0.049
1044	0.048
1045	0.048
1045	0.047
1046	0.047
1046	0.047
1046	0.048
1047	0.048
1047	0.049
1048	0.05
1048	0.051
1049	0.051
1049	0.051
1049	0.051
1050	0.052
1050	0.051
1051	0.051
1051	0.052
1051	0.052
1052	0.052
1052	0.051
1053	0.051
1053	0.052
1053	0.052
1054	0.052
1054	0.053
1055	0.053
1055	0.053
1056	0.053
1056	0.052
1056	0.052
1057	0.052
1057	0.052
1058	0.052
1058	0.052
1058	0.053
1059	0.053
1059	0.054
1060	0.055
1060	0.056
1061	0.058
1061	0.06
1061	0.062
1062	0.063
1062	0.064
1063	0.065
1063	0.066
1063	0.067
1064	0.068
1064	0.07
1065	0.071
1065	0.072
1066	0.073
1066	0.074
1066	0.075
1067	0.076
1067	0.077
1068	0.078
1068	0.078
1068	0.079
1069	0.079
1069	0.078
1070	0.078
1070	0.079
1071	0.08
1071	0.081
1071	0.081
1072	0.083
1072	0.084
1073	0.085
1073	0.087
1073	0.088
1074	0.09
1074	0.092
1075	0.093
1075	0.094
1076	0.094
1076	0.097
1076	0.097
1077	0.098
1077	0.1
1078	0.101
1078	0.104
1078	0.107
1079	0.109
1079	0.112
1080	0.114
1080	0.117
1080	0.119
1081	0.122
1081	0.125
1082	0.128
1082	0.13
1083	0.133
1083	0.136
1083	0.139
1084	0.142
1084	0.146
1085	0.15
1085	0.154
1085	0.158
1086	0.161
1086	0.164
1087	0.168
1087	0.172
1088	0.175
1088	0.179
1088	0.184
1089	0.188
1089	0.193
1090	0.198
1090	0.205
1090	0.212
1091	0.22
1091	0.23
1092	0.238
1092	0.249
1092	0.259
1093	0.27
1093	0.283
1094	0.295
1094	0.309
1095	0.322
1095	0.338
1095	0.359
1096	0.378
1096	0.401
1097	0.426
1097	0.453
1097	0.487
1098	0.52
1098	0.563
1099	0.614
1099	0.67
1100	0.743
1100	0.827
1100	0.941
1101	1.113
1101	1.429
1102	-0
1102	-0
1102	-0
1103	-0
1103	-0
1104	-0
1104	-0
1104	-0
1105	-0
1105	-0
1106	-0
1106	-0
1107	-0
1107	-0
1107	-0
1108	-0
1108	-0
1109	-0
1109	-0
1109	-0
1110	-0
1110	-0
1111	-0
1111	-0
