Data from 15c-2a_Absorbance__504__02305.txt Node

Date: Wed Jan 17 11:26:34 CET 2024
User: Marek
Spectrometer: MAYP115816
Trigger mode: 0
Integration Time (sec): 2.000000E-1
Scans to average: 10
Electric dark correction enabled: true
Nonlinearity correction enabled: true
Boxcar width: 5
XAxis mode: Wavelengths
Number of Pixels in Spectrum: 2068
>>>>>Begin Spectral Data<<<<<
199	-1.614
199	-1.477
200	-1.32
200	-1.197
201	-1.122
201	-1.075
202	-1.006
202	-0.956
203	-0.912
203	-0.874
204	-0.849
204	-0.825
205	-0.802
205	-0.791
205	-0.791
206	-0.789
206	-0.786
207	-0.784
207	-0.781
208	-0.779
208	-0.779
209	-0.775
209	-0.774
210	-0.773
210	-0.774
211	-0.773
211	-0.773
212	-0.774
212	-0.773
213	-0.771
213	-0.771
213	-0.77
214	-0.768
214	-0.768
215	-0.767
215	-0.766
216	-0.766
216	-0.764
217	-0.759
217	-0.757
218	-0.757
218	-0.752
219	-0.749
219	-0.749
220	-0.746
220	-0.743
221	-0.738
221	-0.734
221	-0.73
222	-0.726
222	-0.722
223	-0.717
223	-0.714
224	-0.709
224	-0.701
225	-0.693
225	-0.685
226	-0.677
226	-0.665
227	-0.651
227	-0.639
228	-0.623
228	-0.605
229	-0.584
229	-0.559
229	-0.532
230	-0.503
230	-0.471
231	-0.436
231	-0.399
232	-0.362
232	-0.321
233	-0.277
233	-0.233
234	-0.189
234	-0.145
235	-0.103
235	-0.062
236	-0.022
236	0.016
236	0.052
237	0.087
237	0.12
238	0.15
238	0.177
239	0.204
239	0.227
240	0.248
240	0.267
241	0.285
241	0.301
242	0.316
242	0.329
243	0.341
243	0.351
243	0.361
244	0.37
244	0.378
245	0.385
245	0.392
246	0.398
246	0.404
247	0.409
247	0.414
248	0.419
248	0.424
249	0.428
249	0.432
250	0.435
250	0.438
250	0.442
251	0.444
251	0.447
252	0.45
252	0.452
253	0.455
253	0.456
254	0.458
254	0.46
255	0.461
255	0.463
256	0.463
256	0.464
257	0.465
257	0.465
258	0.466
258	0.466
258	0.466
259	0.466
259	0.466
260	0.467
260	0.467
261	0.466
261	0.466
262	0.466
262	0.465
263	0.465
263	0.464
264	0.464
264	0.463
265	0.462
265	0.461
265	0.46
266	0.459
266	0.458
267	0.457
267	0.455
268	0.454
268	0.452
269	0.451
269	0.449
270	0.447
270	0.445
271	0.443
271	0.441
272	0.439
272	0.437
272	0.435
273	0.433
273	0.431
274	0.429
274	0.427
275	0.425
275	0.422
276	0.42
276	0.418
277	0.416
277	0.414
278	0.411
278	0.409
278	0.407
279	0.404
279	0.401
280	0.399
280	0.396
281	0.394
281	0.392
282	0.389
282	0.387
283	0.385
283	0.383
284	0.381
284	0.38
285	0.378
285	0.376
285	0.374
286	0.373
286	0.371
287	0.369
287	0.368
288	0.366
288	0.365
289	0.363
289	0.361
290	0.36
290	0.358
291	0.357
291	0.355
292	0.354
292	0.352
292	0.35
293	0.349
293	0.348
294	0.347
294	0.345
295	0.344
295	0.343
296	0.342
296	0.34
297	0.339
297	0.339
298	0.338
298	0.337
298	0.336
299	0.335
299	0.334
300	0.333
300	0.332
301	0.331
301	0.331
302	0.33
302	0.329
303	0.328
303	0.327
304	0.326
304	0.326
305	0.325
305	0.324
305	0.323
306	0.322
306	0.321
307	0.32
307	0.319
308	0.318
308	0.317
309	0.317
309	0.316
310	0.315
310	0.314
311	0.313
311	0.313
311	0.312
312	0.311
312	0.31
313	0.309
313	0.308
314	0.308
314	0.307
315	0.306
315	0.305
316	0.304
316	0.303
317	0.302
317	0.302
318	0.301
318	0.3
318	0.299
319	0.298
319	0.298
320	0.297
320	0.296
321	0.295
321	0.294
322	0.293
322	0.292
323	0.291
323	0.29
324	0.289
324	0.289
324	0.288
325	0.287
325	0.286
326	0.285
326	0.284
327	0.283
327	0.282
328	0.282
328	0.281
329	0.28
329	0.279
330	0.278
330	0.278
330	0.277
331	0.276
331	0.275
332	0.275
332	0.274
333	0.273
333	0.272
334	0.271
334	0.271
335	0.27
335	0.269
336	0.268
336	0.267
336	0.267
337	0.266
337	0.265
338	0.265
338	0.264
339	0.263
339	0.263
340	0.262
340	0.261
341	0.261
341	0.26
342	0.26
342	0.259
342	0.258
343	0.258
343	0.257
344	0.257
344	0.256
345	0.256
345	0.255
346	0.255
346	0.254
347	0.254
347	0.253
348	0.253
348	0.252
348	0.252
349	0.251
349	0.251
350	0.25
350	0.25
351	0.249
351	0.249
352	0.248
352	0.248
353	0.248
353	0.247
354	0.247
354	0.246
354	0.246
355	0.245
355	0.245
356	0.244
356	0.244
357	0.243
357	0.243
358	0.242
358	0.242
359	0.242
359	0.242
360	0.242
360	0.242
360	0.242
361	0.242
361	0.242
362	0.242
362	0.242
363	0.242
363	0.242
364	0.242
364	0.242
365	0.241
365	0.241
366	0.241
366	0.241
366	0.241
367	0.24
367	0.24
368	0.24
368	0.239
369	0.239
369	0.239
370	0.238
370	0.238
371	0.238
371	0.237
372	0.237
372	0.237
372	0.236
373	0.236
373	0.236
374	0.236
374	0.236
375	0.236
375	0.235
376	0.235
376	0.235
377	0.235
377	0.235
378	0.235
378	0.235
378	0.235
379	0.235
379	0.235
380	0.235
380	0.235
381	0.235
381	0.234
382	0.234
382	0.234
383	0.233
383	0.233
383	0.233
384	0.232
384	0.232
385	0.232
385	0.232
386	0.231
386	0.232
387	0.231
387	0.231
388	0.231
388	0.231
389	0.231
389	0.231
389	0.231
390	0.231
390	0.231
391	0.231
391	0.231
392	0.231
392	0.23
393	0.23
393	0.23
394	0.23
394	0.229
394	0.229
395	0.229
395	0.228
396	0.228
396	0.228
397	0.228
397	0.228
398	0.228
398	0.227
399	0.227
399	0.227
400	0.227
400	0.226
400	0.226
401	0.226
401	0.225
402	0.224
402	0.224
403	0.224
403	0.224
404	0.224
404	0.224
405	0.224
405	0.223
405	0.223
406	0.223
406	0.223
407	0.222
407	0.222
408	0.222
408	0.221
409	0.221
409	0.221
410	0.221
410	0.221
411	0.221
411	0.221
411	0.22
412	0.22
412	0.22
413	0.22
413	0.219
414	0.219
414	0.219
415	0.218
415	0.218
416	0.217
416	0.217
416	0.217
417	0.216
417	0.216
418	0.216
418	0.217
419	0.217
419	0.217
420	0.217
420	0.218
421	0.218
421	0.218
421	0.219
422	0.219
422	0.219
423	0.219
423	0.219
424	0.218
424	0.218
425	0.217
425	0.217
426	0.217
426	0.216
427	0.216
427	0.216
427	0.216
428	0.216
428	0.216
429	0.217
429	0.217
430	0.217
430	0.217
431	0.217
431	0.216
432	0.216
432	0.216
432	0.215
433	0.215
433	0.214
434	0.214
434	0.214
435	0.214
435	0.214
436	0.214
436	0.214
437	0.214
437	0.214
437	0.214
438	0.214
438	0.214
439	0.214
439	0.214
440	0.213
440	0.214
441	0.213
441	0.213
442	0.213
442	0.213
442	0.213
443	0.213
443	0.213
444	0.213
444	0.214
445	0.214
445	0.214
446	0.214
446	0.214
447	0.213
447	0.213
447	0.213
448	0.213
448	0.213
449	0.213
449	0.213
450	0.213
450	0.213
451	0.213
451	0.213
452	0.213
452	0.213
452	0.213
453	0.213
453	0.213
454	0.213
454	0.214
455	0.214
455	0.214
456	0.214
456	0.214
457	0.214
457	0.214
458	0.214
458	0.214
458	0.214
459	0.214
459	0.214
460	0.213
460	0.213
461	0.212
461	0.212
462	0.212
462	0.213
463	0.213
463	0.213
463	0.214
464	0.214
464	0.214
465	0.214
465	0.215
466	0.215
466	0.215
467	0.216
467	0.215
467	0.215
468	0.215
468	0.214
469	0.214
469	0.214
470	0.214
470	0.214
471	0.214
471	0.214
472	0.215
472	0.215
472	0.215
473	0.216
473	0.217
474	0.218
474	0.219
475	0.219
475	0.22
476	0.221
476	0.221
477	0.221
477	0.222
477	0.222
478	0.222
478	0.223
479	0.223
479	0.224
480	0.225
480	0.226
481	0.227
481	0.227
482	0.229
482	0.23
482	0.231
483	0.233
483	0.235
484	0.237
484	0.238
485	0.239
485	0.24
486	0.241
486	0.242
487	0.243
487	0.244
487	0.245
488	0.245
488	0.245
489	0.245
489	0.247
490	0.248
490	0.249
491	0.249
491	0.251
492	0.252
492	0.252
492	0.253
493	0.254
493	0.256
494	0.258
494	0.26
495	0.262
495	0.263
496	0.265
496	0.267
496	0.269
497	0.271
497	0.273
498	0.274
498	0.276
499	0.277
499	0.278
500	0.28
500	0.281
501	0.283
501	0.285
501	0.286
502	0.288
502	0.29
503	0.292
503	0.294
504	0.295
504	0.296
505	0.298
505	0.299
506	0.301
506	0.302
506	0.303
507	0.305
507	0.306
508	0.308
508	0.31
509	0.312
509	0.314
510	0.316
510	0.317
511	0.318
511	0.32
511	0.321
512	0.322
512	0.323
513	0.323
513	0.324
514	0.324
514	0.324
515	0.325
515	0.325
515	0.326
516	0.326
516	0.327
517	0.329
517	0.329
518	0.329
518	0.329
519	0.329
519	0.329
520	0.329
520	0.328
520	0.328
521	0.327
521	0.326
522	0.325
522	0.325
523	0.324
523	0.324
524	0.324
524	0.324
524	0.325
525	0.325
525	0.326
526	0.326
526	0.327
527	0.328
527	0.328
528	0.328
528	0.328
529	0.328
529	0.328
529	0.327
530	0.327
530	0.326
531	0.325
531	0.325
532	0.324
532	0.323
533	0.322
533	0.321
533	0.32
534	0.319
534	0.317
535	0.316
535	0.315
536	0.314
536	0.312
537	0.311
537	0.309
538	0.308
538	0.306
538	0.304
539	0.302
539	0.3
540	0.298
540	0.296
541	0.293
541	0.291
542	0.289
542	0.286
542	0.283
543	0.281
543	0.279
544	0.276
544	0.274
545	0.273
545	0.271
546	0.269
546	0.267
547	0.264
547	0.261
547	0.258
548	0.256
548	0.253
549	0.251
549	0.249
550	0.246
550	0.243
551	0.24
551	0.238
551	0.235
552	0.233
552	0.231
553	0.229
553	0.227
554	0.225
554	0.223
555	0.22
555	0.217
556	0.214
556	0.211
556	0.209
557	0.206
557	0.204
558	0.201
558	0.198
559	0.196
559	0.194
560	0.191
560	0.189
560	0.188
561	0.187
561	0.185
562	0.183
562	0.181
563	0.178
563	0.175
564	0.172
564	0.169
564	0.166
565	0.163
565	0.161
566	0.158
566	0.155
567	0.153
567	0.152
568	0.151
568	0.151
568	0.15
569	0.15
569	0.15
570	0.149
570	0.147
571	0.147
571	0.146
572	0.144
572	0.143
573	0.141
573	0.139
573	0.137
574	0.136
574	0.135
575	0.134
575	0.134
576	0.134
576	0.132
577	0.13
577	0.129
577	0.129
578	0.128
578	0.127
579	0.127
579	0.127
580	0.124
580	0.12
581	0.117
581	0.115
581	0.115
582	0.114
582	0.113
583	0.113
583	0.111
584	0.108
584	0.104
585	0.104
585	0.104
585	0.103
586	0.103
586	0.102
587	0.1
587	0.098
588	0.096
588	0.094
589	0.094
589	0.093
590	0.093
590	0.092
590	0.093
591	0.093
591	0.092
592	0.091
592	0.09
593	0.09
593	0.09
594	0.089
594	0.088
594	0.087
595	0.086
595	0.085
596	0.084
596	0.085
597	0.087
597	0.087
598	0.087
598	0.088
598	0.088
599	0.088
599	0.088
600	0.087
600	0.086
601	0.085
601	0.085
602	0.083
602	0.083
602	0.083
603	0.083
603	0.085
604	0.085
604	0.087
605	0.088
605	0.09
606	0.09
606	0.089
606	0.089
607	0.088
607	0.087
608	0.086
608	0.084
609	0.083
609	0.083
610	0.082
610	0.081
610	0.081
611	0.082
611	0.083
612	0.085
612	0.086
613	0.087
613	0.089
614	0.088
614	0.087
614	0.086
615	0.086
615	0.085
616	0.084
616	0.083
617	0.082
617	0.08
618	0.079
618	0.078
618	0.078
619	0.079
619	0.08
620	0.082
620	0.084
621	0.084
621	0.086
622	0.086
622	0.087
622	0.088
623	0.088
623	0.089
624	0.09
624	0.089
625	0.089
625	0.089
626	0.089
626	0.089
626	0.09
627	0.09
627	0.09
628	0.091
628	0.092
629	0.092
629	0.093
630	0.093
630	0.093
630	0.094
631	0.095
631	0.096
632	0.096
632	0.097
633	0.099
633	0.1
634	0.102
634	0.104
634	0.106
635	0.107
635	0.108
636	0.109
636	0.111
637	0.112
637	0.113
638	0.114
638	0.115
638	0.117
639	0.118
639	0.119
640	0.121
640	0.122
641	0.124
641	0.126
642	0.128
642	0.131
642	0.133
643	0.135
643	0.137
644	0.139
644	0.141
645	0.143
645	0.145
646	0.147
646	0.15
646	0.153
647	0.156
647	0.158
648	0.16
648	0.163
649	0.165
649	0.168
650	0.17
650	0.173
650	0.175
651	0.178
651	0.18
652	0.183
652	0.185
653	0.189
653	0.197
653	0.212
654	0.168
654	0.135
655	0.139
655	0.141
656	0.143
656	0.145
657	0.147
657	0.149
657	0.15
658	0.147
658	0.135
659	0.173
659	0.228
660	0.235
660	0.238
661	0.24
661	0.243
661	0.247
662	0.251
662	0.256
663	0.26
663	0.264
664	0.269
664	0.272
665	0.275
665	0.279
665	0.282
666	0.285
666	0.287
667	0.289
667	0.292
668	0.295
668	0.297
669	0.3
669	0.303
669	0.307
670	0.311
670	0.314
671	0.316
671	0.319
672	0.321
672	0.324
672	0.326
673	0.328
673	0.331
674	0.332
674	0.333
675	0.334
675	0.336
676	0.338
676	0.34
676	0.341
677	0.343
677	0.344
678	0.346
678	0.346
679	0.348
679	0.349
680	0.351
680	0.353
680	0.354
681	0.355
681	0.357
682	0.359
682	0.36
683	0.362
683	0.365
684	0.366
684	0.366
684	0.366
685	0.367
685	0.367
686	0.368
686	0.368
687	0.368
687	0.367
687	0.367
688	0.367
688	0.366
689	0.366
689	0.366
690	0.366
690	0.365
691	0.364
691	0.363
691	0.361
692	0.36
692	0.358
693	0.357
693	0.356
694	0.354
694	0.351
695	0.351
695	0.351
695	0.35
696	0.349
696	0.347
697	0.346
697	0.345
698	0.344
698	0.342
698	0.341
699	0.34
699	0.338
700	0.335
700	0.334
701	0.333
701	0.331
702	0.33
702	0.328
702	0.326
703	0.324
703	0.321
704	0.319
704	0.317
705	0.315
705	0.312
705	0.309
706	0.307
706	0.305
707	0.302
707	0.299
708	0.297
708	0.295
709	0.293
709	0.29
709	0.287
710	0.284
710	0.282
711	0.28
711	0.277
712	0.275
712	0.272
713	0.27
713	0.267
713	0.265
714	0.262
714	0.259
715	0.257
715	0.254
716	0.251
716	0.249
716	0.246
717	0.244
717	0.241
718	0.238
718	0.236
719	0.234
719	0.231
720	0.229
720	0.226
720	0.223
721	0.219
721	0.216
722	0.214
722	0.211
723	0.209
723	0.207
723	0.204
724	0.202
724	0.2
725	0.197
725	0.195
726	0.193
726	0.191
727	0.189
727	0.186
727	0.184
728	0.181
728	0.179
729	0.178
729	0.176
730	0.174
730	0.172
730	0.17
731	0.168
731	0.166
732	0.165
732	0.163
733	0.161
733	0.159
734	0.156
734	0.154
734	0.152
735	0.151
735	0.149
736	0.147
736	0.145
737	0.144
737	0.143
737	0.141
738	0.138
738	0.135
739	0.132
739	0.13
740	0.127
740	0.124
741	0.121
741	0.118
741	0.114
742	0.11
742	0.107
743	0.105
743	0.103
744	0.101
744	0.099
744	0.097
745	0.095
745	0.093
746	0.091
746	0.089
747	0.088
747	0.087
748	0.086
748	0.084
748	0.082
749	0.081
749	0.08
750	0.079
750	0.079
751	0.078
751	0.079
751	0.079
752	0.079
752	0.078
753	0.078
753	0.078
754	0.078
754	0.077
754	0.077
755	0.076
755	0.076
756	0.075
756	0.072
757	0.071
757	0.07
758	0.069
758	0.067
758	0.066
759	0.064
759	0.062
760	0.059
760	0.057
761	0.055
761	0.054
761	0.052
762	0.05
762	0.049
763	0.048
763	0.045
764	0.043
764	0.041
764	0.039
765	0.037
765	0.035
766	0.034
766	0.034
767	0.033
767	0.03
768	0.028
768	0.027
768	0.026
769	0.025
769	0.023
770	0.022
770	0.02
771	0.017
771	0.014
771	0.012
772	0.01
772	0.008
773	0.006
773	0.004
774	0.001
774	-0.001
775	-0.003
775	-0.005
775	-0.008
776	-0.011
776	-0.013
777	-0.016
777	-0.019
778	-0.022
778	-0.026
778	-0.028
779	-0.031
779	-0.033
780	-0.037
780	-0.04
781	-0.044
781	-0.049
781	-0.054
782	-0.059
782	-0.065
783	-0.07
783	-0.076
784	-0.082
784	-0.089
784	-0.095
785	-0.101
785	-0.107
786	-0.112
786	-0.116
787	-0.118
787	-0.12
788	-0.126
788	-0.132
788	-0.137
789	-0.143
789	-0.145
790	-0.146
790	-0.148
791	-0.151
791	-0.152
791	-0.155
792	-0.15
792	-0.139
793	-0.133
793	-0.129
794	-0.127
794	-0.13
794	-0.134
795	-0.136
795	-0.136
796	-0.137
796	-0.14
797	-0.149
797	-0.16
797	-0.166
798	-0.172
798	-0.174
799	-0.175
799	-0.174
800	-0.173
800	-0.175
801	-0.178
801	-0.178
801	-0.179
802	-0.18
802	-0.182
803	-0.182
803	-0.183
804	-0.182
804	-0.176
804	-0.17
805	-0.166
805	-0.164
806	-0.162
806	-0.161
807	-0.16
807	-0.159
807	-0.159
808	-0.159
808	-0.16
809	-0.165
809	-0.171
810	-0.175
810	-0.178
810	-0.181
811	-0.185
811	-0.185
812	-0.181
812	-0.178
813	-0.178
813	-0.179
813	-0.179
814	-0.18
814	-0.179
815	-0.176
815	-0.172
816	-0.168
816	-0.165
817	-0.164
817	-0.161
817	-0.154
818	-0.146
818	-0.136
819	-0.126
819	-0.117
820	-0.109
820	-0.102
820	-0.094
821	-0.086
821	-0.08
822	-0.074
822	-0.069
823	-0.064
823	-0.061
823	-0.057
824	-0.053
824	-0.049
825	-0.045
825	-0.041
826	-0.038
826	-0.037
826	-0.035
827	-0.034
827	-0.033
828	-0.032
828	-0.031
829	-0.03
829	-0.03
829	-0.03
830	-0.03
830	-0.029
831	-0.027
831	-0.026
832	-0.024
832	-0.022
832	-0.02
833	-0.018
833	-0.016
834	-0.014
834	-0.012
835	-0.01
835	-0.008
835	-0.007
836	-0.005
836	-0.004
837	-0.003
837	-0.002
838	-0.002
838	-0.001
839	-0.001
839	-0.001
839	-0.001
840	-0.001
840	-0.002
841	-0.002
841	-0.002
842	-0.002
842	-0.001
842	-0.001
843	-0
843	0
844	0.001
844	0.002
845	0.003
845	0.003
845	0.004
846	0.005
846	0.005
847	0.005
847	0.005
848	0.005
848	0.005
848	0.004
849	0.004
849	0.004
850	0.004
850	0.003
851	0.003
851	0.004
851	0.004
852	0.004
852	0.004
853	0.005
853	0.005
854	0.006
854	0.006
854	0.006
855	0.006
855	0.006
856	0.005
856	0.005
857	0.005
857	0.004
857	0.004
858	0.003
858	0.002
859	0.001
859	0
860	-0
860	-0.001
860	-0.001
861	-0.001
861	-0
862	-0.001
862	-0.001
863	-0.001
863	-0
863	-0
864	0
864	0.001
865	0.002
865	0.003
866	0.003
866	0.004
866	0.006
867	0.007
867	0.009
868	0.01
868	0.012
869	0.013
869	0.014
869	0.014
870	0.015
870	0.015
871	0.015
871	0.014
872	0.014
872	0.013
872	0.012
873	0.011
873	0.009
874	0.009
874	0.008
875	0.008
875	0.007
875	0.007
876	0.006
876	0.006
877	0.006
877	0.007
878	0.007
878	0.007
878	0.007
879	0.008
879	0.008
880	0.008
880	0.007
881	0.007
881	0.007
881	0.007
882	0.007
882	0.006
883	0.006
883	0.006
884	0.006
884	0.006
884	0.006
885	0.006
885	0.007
886	0.007
886	0.007
887	0.007
887	0.007
887	0.007
888	0.006
888	0.006
889	0.006
889	0.005
890	0.005
890	0.004
890	0.003
891	0.002
891	0.001
892	-0
892	-0.001
893	-0.002
893	-0.003
893	-0.003
894	-0.004
894	-0.004
895	-0.004
895	-0.004
895	-0.005
896	-0.004
896	-0.004
897	-0.004
897	-0.004
898	-0.003
898	-0.003
898	-0.002
899	-0.001
899	-0.001
900	0
900	0.001
901	0.002
901	0.004
901	0.005
902	0.006
902	0.006
903	0.006
903	0.006
904	0.006
904	0.006
904	0.006
905	0.005
905	0.005
906	0.004
906	0.004
907	0.003
907	0.003
907	0.003
908	0.003
908	0.003
909	0.004
909	0.005
910	0.005
910	0.006
910	0.007
911	0.007
911	0.008
912	0.009
912	0.009
913	0.01
913	0.01
913	0.01
914	0.009
914	0.008
915	0.007
915	0.006
916	0.004
916	0.003
916	0.002
917	0.001
917	-0.001
918	-0.002
918	-0.002
918	-0.003
919	-0.003
919	-0.003
920	-0.002
920	-0.001
921	-0.001
921	-0.001
921	0
922	0.001
922	0.002
923	0.002
923	0.003
924	0.003
924	0.003
924	0.003
925	0.002
925	0.001
926	-0
926	-0.002
927	-0.003
927	-0.004
927	-0.006
928	-0.007
928	-0.008
929	-0.009
929	-0.009
930	-0.009
930	-0.009
930	-0.009
931	-0.008
931	-0.008
932	-0.007
932	-0.007
933	-0.006
933	-0.006
933	-0.005
934	-0.005
934	-0.005
935	-0.005
935	-0.005
935	-0.005
936	-0.005
936	-0.004
937	-0.004
937	-0.004
938	-0.004
938	-0.004
938	-0.004
939	-0.004
939	-0.004
940	-0.003
940	-0.003
941	-0.002
941	-0.002
941	-0.001
942	-0.001
942	-0.001
943	-0.001
943	-0.002
944	-0.002
944	-0.003
944	-0.004
945	-0.004
945	-0.005
946	-0.005
946	-0.006
946	-0.006
947	-0.005
947	-0.006
948	-0.005
948	-0.005
949	-0.005
949	-0.005
949	-0.005
950	-0.004
950	-0.004
951	-0.003
951	-0.003
952	-0.003
952	-0.002
952	-0.002
953	-0.001
953	-0
954	0
954	0.001
955	0.001
955	0.001
955	0.001
956	0.001
956	0.001
957	0.001
957	0
957	-0.001
958	-0.001
958	-0.002
959	-0.002
959	-0.003
960	-0.003
960	-0.003
960	-0.004
961	-0.004
961	-0.004
962	-0.004
962	-0.004
963	-0.003
963	-0.003
963	-0.002
964	-0.001
964	-0
965	0.001
965	0.002
966	0.003
966	0.004
966	0.005
967	0.006
967	0.007
968	0.007
968	0.007
968	0.007
969	0.007
969	0.007
970	0.006
970	0.005
971	0.005
971	0.004
971	0.003
972	0.003
972	0.002
973	0.002
973	0.001
974	0
974	-0.001
974	-0.001
975	-0.002
975	-0.002
976	-0.003
976	-0.003
976	-0.004
977	-0.005
977	-0.006
978	-0.007
978	-0.008
979	-0.008
979	-0.009
979	-0.01
980	-0.011
980	-0.011
981	-0.012
981	-0.012
982	-0.012
982	-0.011
982	-0.011
983	-0.011
983	-0.011
984	-0.01
984	-0.01
984	-0.009
985	-0.009
985	-0.009
986	-0.009
986	-0.009
987	-0.009
987	-0.009
987	-0.008
988	-0.007
988	-0.006
989	-0.006
989	-0.005
990	-0.004
990	-0.003
990	-0.001
991	0.001
991	0.002
992	0.003
992	0.004
992	0.004
993	0.004
993	0.005
994	0.005
994	0.004
995	0.004
995	0.004
995	0.003
996	0.003
996	0.002
997	0.002
997	0.001
997	0.002
998	0.002
998	0.002
999	0.003
999	0.003
1000	0.004
1000	0.004
1000	0.004
1001	0.005
1001	0.005
1002	0.006
1002	0.005
1003	0.005
1003	0.005
1003	0.005
1004	0.004
1004	0.004
1005	0.003
1005	0.002
1005	0.001
1006	-0
1006	-0.001
1007	-0.003
1007	-0.004
1008	-0.005
1008	-0.006
1008	-0.007
1009	-0.008
1009	-0.009
1010	-0.01
1010	-0.01
1010	-0.011
1011	-0.011
1011	-0.012
1012	-0.013
1012	-0.013
1013	-0.014
1013	-0.015
1013	-0.016
1014	-0.016
1014	-0.017
1015	-0.018
1015	-0.018
1016	-0.019
1016	-0.019
1016	-0.02
1017	-0.02
1017	-0.021
1018	-0.021
1018	-0.021
1018	-0.021
1019	-0.021
1019	-0.021
1020	-0.021
1020	-0.021
1021	-0.022
1021	-0.022
1021	-0.021
1022	-0.021
1022	-0.021
1023	-0.021
1023	-0.02
1023	-0.02
1024	-0.02
1024	-0.02
1025	-0.02
1025	-0.02
1026	-0.02
1026	-0.02
1026	-0.019
1027	-0.019
1027	-0.019
1028	-0.018
1028	-0.018
1028	-0.017
1029	-0.017
1029	-0.016
1030	-0.016
1030	-0.015
1031	-0.015
1031	-0.015
1031	-0.014
1032	-0.014
1032	-0.014
1033	-0.015
1033	-0.015
1033	-0.016
1034	-0.017
1034	-0.019
1035	-0.019
1035	-0.021
1036	-0.022
1036	-0.023
1036	-0.023
1037	-0.024
1037	-0.024
1038	-0.024
1038	-0.024
1039	-0.024
1039	-0.023
1039	-0.023
1040	-0.023
1040	-0.022
1041	-0.022
1041	-0.022
1041	-0.022
1042	-0.023
1042	-0.023
1043	-0.024
1043	-0.025
1044	-0.025
1044	-0.026
1044	-0.026
1045	-0.026
1045	-0.027
1046	-0.028
1046	-0.028
1046	-0.028
1047	-0.028
1047	-0.027
1048	-0.027
1048	-0.027
1049	-0.027
1049	-0.028
1049	-0.029
1050	-0.029
1050	-0.03
1051	-0.031
1051	-0.031
1051	-0.032
1052	-0.032
1052	-0.033
1053	-0.033
1053	-0.034
1053	-0.034
1054	-0.033
1054	-0.033
1055	-0.032
1055	-0.032
1056	-0.033
1056	-0.033
1056	-0.034
1057	-0.034
1057	-0.034
1058	-0.034
1058	-0.035
1058	-0.035
1059	-0.036
1059	-0.036
1060	-0.036
1060	-0.035
1061	-0.034
1061	-0.033
1061	-0.032
1062	-0.032
1062	-0.031
1063	-0.03
1063	-0.03
1063	-0.029
1064	-0.029
1064	-0.028
1065	-0.028
1065	-0.028
1066	-0.028
1066	-0.029
1066	-0.029
1067	-0.029
1067	-0.029
1068	-0.029
1068	-0.03
1068	-0.031
1069	-0.032
1069	-0.033
1070	-0.034
1070	-0.035
1071	-0.035
1071	-0.036
1071	-0.037
1072	-0.038
1072	-0.038
1073	-0.039
1073	-0.039
1073	-0.039
1074	-0.039
1074	-0.039
1075	-0.04
1075	-0.04
1076	-0.04
1076	-0.04
1076	-0.04
1077	-0.041
1077	-0.04
1078	-0.041
1078	-0.04
1078	-0.039
1079	-0.039
1079	-0.037
1080	-0.037
1080	-0.036
1080	-0.036
1081	-0.035
1081	-0.034
1082	-0.033
1082	-0.033
1083	-0.034
1083	-0.034
1083	-0.033
1084	-0.034
1084	-0.033
1085	-0.033
1085	-0.032
1085	-0.031
1086	-0.031
1086	-0.031
1087	-0.031
1087	-0.03
1088	-0.031
1088	-0.032
1088	-0.032
1089	-0.033
1089	-0.034
1090	-0.035
1090	-0.035
1090	-0.035
1091	-0.036
1091	-0.036
1092	-0.036
1092	-0.034
1092	-0.034
1093	-0.033
1093	-0.03
1094	-0.028
1094	-0.027
1095	-0.026
1095	-0.025
1095	-0.021
1096	-0.02
1096	-0.018
1097	-0.016
1097	-0.015
1097	-0.013
1098	-0.013
1098	-0.012
1099	-0.01
1099	-0.008
1100	-0.007
1100	-0.005
1100	-0.004
1101	-0.002
1101	-0
1102	0.003
1102	0.006
1102	0.01
1103	0.013
1103	0.018
1104	0.023
1104	0.028
1104	0.035
1105	0.041
1105	0.046
1106	0.049
1106	0.058
1107	0.063
1107	0.074
1107	0.086
1108	0.132
1108	0.194
1109	0.287
1109	0.446
1109	0.586
1110	0.974
1110	-0
1111	-0
1111	-0
