Data from 15c-2a_Absorbance__514__02315.txt Node

Date: Wed Jan 17 11:26:54 CET 2024
User: Marek
Spectrometer: MAYP115816
Trigger mode: 0
Integration Time (sec): 2.000000E-1
Scans to average: 10
Electric dark correction enabled: true
Nonlinearity correction enabled: true
Boxcar width: 5
XAxis mode: Wavelengths
Number of Pixels in Spectrum: 2068
>>>>>Begin Spectral Data<<<<<
199	-1.619
199	-1.482
200	-1.324
200	-1.202
201	-1.126
201	-1.078
202	-1.01
202	-0.96
203	-0.915
203	-0.877
204	-0.852
204	-0.829
205	-0.806
205	-0.795
205	-0.794
206	-0.794
206	-0.79
207	-0.788
207	-0.783
208	-0.782
208	-0.782
209	-0.778
209	-0.776
210	-0.775
210	-0.776
211	-0.774
211	-0.774
212	-0.775
212	-0.774
213	-0.775
213	-0.773
213	-0.773
214	-0.771
214	-0.771
215	-0.77
215	-0.77
216	-0.77
216	-0.768
217	-0.762
217	-0.761
218	-0.759
218	-0.756
219	-0.753
219	-0.753
220	-0.75
220	-0.747
221	-0.742
221	-0.739
221	-0.734
222	-0.731
222	-0.727
223	-0.721
223	-0.718
224	-0.712
224	-0.704
225	-0.696
225	-0.688
226	-0.679
226	-0.667
227	-0.654
227	-0.641
228	-0.625
228	-0.608
229	-0.587
229	-0.562
229	-0.535
230	-0.505
230	-0.474
231	-0.439
231	-0.402
232	-0.365
232	-0.324
233	-0.28
233	-0.235
234	-0.191
234	-0.148
235	-0.105
235	-0.064
236	-0.023
236	0.015
236	0.051
237	0.086
237	0.117
238	0.147
238	0.174
239	0.2
239	0.224
240	0.245
240	0.265
241	0.282
241	0.298
242	0.313
242	0.327
243	0.339
243	0.35
243	0.36
244	0.369
244	0.377
245	0.384
245	0.391
246	0.397
246	0.403
247	0.408
247	0.413
248	0.418
248	0.423
249	0.427
249	0.43
250	0.434
250	0.438
250	0.441
251	0.444
251	0.446
252	0.449
252	0.451
253	0.454
253	0.455
254	0.456
254	0.459
255	0.46
255	0.461
256	0.463
256	0.463
257	0.464
257	0.465
258	0.465
258	0.466
258	0.466
259	0.466
259	0.466
260	0.466
260	0.466
261	0.465
261	0.465
262	0.465
262	0.465
263	0.464
263	0.464
264	0.463
264	0.462
265	0.462
265	0.461
265	0.459
266	0.459
266	0.457
267	0.456
267	0.454
268	0.453
268	0.451
269	0.45
269	0.448
270	0.446
270	0.444
271	0.442
271	0.44
272	0.438
272	0.436
272	0.434
273	0.432
273	0.429
274	0.427
274	0.425
275	0.423
275	0.421
276	0.419
276	0.417
277	0.415
277	0.412
278	0.41
278	0.408
278	0.405
279	0.403
279	0.4
280	0.397
280	0.395
281	0.393
281	0.391
282	0.388
282	0.386
283	0.384
283	0.382
284	0.381
284	0.379
285	0.378
285	0.376
285	0.374
286	0.372
286	0.37
287	0.369
287	0.367
288	0.365
288	0.364
289	0.362
289	0.36
290	0.358
290	0.357
291	0.355
291	0.354
292	0.352
292	0.351
292	0.349
293	0.348
293	0.347
294	0.346
294	0.344
295	0.343
295	0.342
296	0.341
296	0.34
297	0.339
297	0.338
298	0.337
298	0.336
298	0.335
299	0.334
299	0.333
300	0.332
300	0.331
301	0.331
301	0.33
302	0.329
302	0.328
303	0.327
303	0.326
304	0.325
304	0.324
305	0.324
305	0.323
305	0.322
306	0.321
306	0.32
307	0.319
307	0.318
308	0.317
308	0.316
309	0.316
309	0.315
310	0.314
310	0.313
311	0.312
311	0.311
311	0.311
312	0.31
312	0.309
313	0.308
313	0.307
314	0.306
314	0.306
315	0.305
315	0.304
316	0.303
316	0.302
317	0.302
317	0.301
318	0.3
318	0.299
318	0.298
319	0.297
319	0.297
320	0.296
320	0.295
321	0.294
321	0.293
322	0.292
322	0.291
323	0.29
323	0.289
324	0.288
324	0.287
324	0.286
325	0.285
325	0.284
326	0.284
326	0.283
327	0.282
327	0.281
328	0.28
328	0.28
329	0.279
329	0.278
330	0.277
330	0.277
330	0.276
331	0.275
331	0.274
332	0.274
332	0.273
333	0.272
333	0.272
334	0.271
334	0.27
335	0.269
335	0.268
336	0.267
336	0.267
336	0.266
337	0.265
337	0.264
338	0.264
338	0.263
339	0.262
339	0.262
340	0.261
340	0.26
341	0.26
341	0.259
342	0.259
342	0.258
342	0.258
343	0.257
343	0.256
344	0.256
344	0.255
345	0.255
345	0.254
346	0.254
346	0.253
347	0.253
347	0.252
348	0.252
348	0.252
348	0.251
349	0.25
349	0.25
350	0.249
350	0.249
351	0.248
351	0.248
352	0.247
352	0.247
353	0.247
353	0.246
354	0.246
354	0.245
354	0.245
355	0.244
355	0.244
356	0.243
356	0.243
357	0.242
357	0.242
358	0.241
358	0.241
359	0.241
359	0.241
360	0.242
360	0.242
360	0.242
361	0.242
361	0.242
362	0.242
362	0.242
363	0.242
363	0.242
364	0.242
364	0.241
365	0.241
365	0.241
366	0.24
366	0.24
366	0.24
367	0.239
367	0.239
368	0.239
368	0.238
369	0.238
369	0.237
370	0.237
370	0.237
371	0.236
371	0.236
372	0.236
372	0.236
372	0.236
373	0.235
373	0.235
374	0.235
374	0.235
375	0.235
375	0.235
376	0.234
376	0.235
377	0.235
377	0.234
378	0.235
378	0.235
378	0.235
379	0.235
379	0.235
380	0.235
380	0.235
381	0.235
381	0.235
382	0.234
382	0.234
383	0.234
383	0.233
383	0.233
384	0.232
384	0.232
385	0.231
385	0.231
386	0.231
386	0.231
387	0.231
387	0.23
388	0.23
388	0.23
389	0.23
389	0.23
389	0.23
390	0.23
390	0.23
391	0.23
391	0.23
392	0.23
392	0.23
393	0.23
393	0.23
394	0.229
394	0.229
394	0.229
395	0.229
395	0.228
396	0.228
396	0.228
397	0.228
397	0.228
398	0.228
398	0.227
399	0.227
399	0.227
400	0.227
400	0.226
400	0.226
401	0.226
401	0.225
402	0.225
402	0.224
403	0.224
403	0.224
404	0.224
404	0.223
405	0.223
405	0.223
405	0.223
406	0.222
406	0.222
407	0.222
407	0.222
408	0.221
408	0.221
409	0.221
409	0.221
410	0.221
410	0.221
411	0.221
411	0.221
411	0.22
412	0.22
412	0.22
413	0.22
413	0.22
414	0.219
414	0.219
415	0.219
415	0.218
416	0.218
416	0.218
416	0.218
417	0.217
417	0.217
418	0.217
418	0.217
419	0.217
419	0.218
420	0.218
420	0.218
421	0.218
421	0.218
421	0.218
422	0.218
422	0.219
423	0.219
423	0.218
424	0.218
424	0.218
425	0.217
425	0.217
426	0.217
426	0.216
427	0.216
427	0.216
427	0.216
428	0.216
428	0.217
429	0.217
429	0.217
430	0.217
430	0.217
431	0.217
431	0.217
432	0.216
432	0.216
432	0.216
433	0.215
433	0.215
434	0.214
434	0.214
435	0.214
435	0.214
436	0.214
436	0.214
437	0.214
437	0.214
437	0.214
438	0.214
438	0.214
439	0.214
439	0.214
440	0.213
440	0.214
441	0.214
441	0.214
442	0.213
442	0.213
442	0.213
443	0.213
443	0.213
444	0.213
444	0.214
445	0.214
445	0.214
446	0.214
446	0.214
447	0.214
447	0.214
447	0.214
448	0.214
448	0.214
449	0.214
449	0.214
450	0.214
450	0.214
451	0.213
451	0.213
452	0.213
452	0.213
452	0.213
453	0.214
453	0.213
454	0.213
454	0.213
455	0.213
455	0.213
456	0.213
456	0.213
457	0.213
457	0.213
458	0.213
458	0.213
458	0.213
459	0.213
459	0.213
460	0.212
460	0.212
461	0.212
461	0.212
462	0.212
462	0.212
463	0.212
463	0.213
463	0.213
464	0.213
464	0.213
465	0.213
465	0.214
466	0.214
466	0.215
467	0.215
467	0.215
467	0.215
468	0.214
468	0.214
469	0.214
469	0.214
470	0.214
470	0.214
471	0.214
471	0.214
472	0.214
472	0.214
472	0.215
473	0.216
473	0.216
474	0.217
474	0.217
475	0.218
475	0.219
476	0.219
476	0.219
477	0.22
477	0.22
477	0.221
478	0.221
478	0.222
479	0.222
479	0.223
480	0.224
480	0.224
481	0.225
481	0.226
482	0.227
482	0.229
482	0.23
483	0.232
483	0.234
484	0.236
484	0.237
485	0.239
485	0.24
486	0.241
486	0.242
487	0.243
487	0.244
487	0.245
488	0.245
488	0.245
489	0.246
489	0.247
490	0.248
490	0.249
491	0.25
491	0.251
492	0.252
492	0.253
492	0.254
493	0.255
493	0.257
494	0.259
494	0.261
495	0.263
495	0.264
496	0.266
496	0.268
496	0.27
497	0.271
497	0.273
498	0.275
498	0.276
499	0.277
499	0.279
500	0.28
500	0.282
501	0.284
501	0.285
501	0.287
502	0.289
502	0.29
503	0.292
503	0.294
504	0.296
504	0.297
505	0.298
505	0.299
506	0.301
506	0.303
506	0.304
507	0.305
507	0.307
508	0.308
508	0.31
509	0.311
509	0.313
510	0.314
510	0.316
511	0.317
511	0.318
511	0.319
512	0.32
512	0.321
513	0.321
513	0.322
514	0.322
514	0.323
515	0.324
515	0.325
515	0.325
516	0.326
516	0.327
517	0.328
517	0.329
518	0.33
518	0.329
519	0.329
519	0.329
520	0.329
520	0.328
520	0.328
521	0.326
521	0.325
522	0.324
522	0.324
523	0.323
523	0.324
524	0.324
524	0.325
524	0.325
525	0.326
525	0.326
526	0.327
526	0.328
527	0.329
527	0.329
528	0.328
528	0.328
529	0.328
529	0.327
529	0.327
530	0.327
530	0.326
531	0.325
531	0.325
532	0.324
532	0.323
533	0.322
533	0.321
533	0.32
534	0.319
534	0.317
535	0.316
535	0.315
536	0.314
536	0.312
537	0.311
537	0.309
538	0.307
538	0.305
538	0.303
539	0.301
539	0.299
540	0.297
540	0.295
541	0.292
541	0.29
542	0.288
542	0.286
542	0.283
543	0.281
543	0.279
544	0.277
544	0.275
545	0.273
545	0.272
546	0.27
546	0.268
547	0.265
547	0.262
547	0.26
548	0.257
548	0.255
549	0.252
549	0.249
550	0.247
550	0.244
551	0.241
551	0.238
551	0.235
552	0.233
552	0.231
553	0.229
553	0.227
554	0.225
554	0.222
555	0.219
555	0.216
556	0.213
556	0.21
556	0.207
557	0.205
557	0.203
558	0.2
558	0.197
559	0.195
559	0.193
560	0.191
560	0.189
560	0.187
561	0.186
561	0.185
562	0.183
562	0.18
563	0.178
563	0.175
564	0.173
564	0.17
564	0.168
565	0.166
565	0.163
566	0.161
566	0.158
567	0.156
567	0.155
568	0.154
568	0.152
568	0.152
569	0.151
569	0.15
570	0.149
570	0.147
571	0.146
571	0.145
572	0.143
572	0.142
573	0.14
573	0.138
573	0.136
574	0.135
574	0.135
575	0.134
575	0.134
576	0.134
576	0.132
577	0.131
577	0.13
577	0.129
578	0.129
578	0.128
579	0.128
579	0.128
580	0.126
580	0.122
581	0.119
581	0.117
581	0.116
582	0.116
582	0.115
583	0.115
583	0.113
584	0.109
584	0.105
585	0.104
585	0.104
585	0.104
586	0.103
586	0.102
587	0.1
587	0.098
588	0.096
588	0.095
589	0.095
589	0.094
590	0.094
590	0.094
590	0.095
591	0.096
591	0.094
592	0.093
592	0.092
593	0.092
593	0.091
594	0.09
594	0.088
594	0.087
595	0.086
595	0.084
596	0.083
596	0.083
597	0.086
597	0.086
598	0.086
598	0.087
598	0.088
599	0.088
599	0.088
600	0.087
600	0.087
601	0.086
601	0.085
602	0.084
602	0.084
602	0.083
603	0.083
603	0.085
604	0.086
604	0.087
605	0.089
605	0.09
606	0.091
606	0.09
606	0.089
607	0.089
607	0.088
608	0.087
608	0.085
609	0.084
609	0.084
610	0.082
610	0.081
610	0.081
611	0.082
611	0.083
612	0.085
612	0.086
613	0.087
613	0.089
614	0.088
614	0.086
614	0.086
615	0.085
615	0.084
616	0.084
616	0.082
617	0.082
617	0.08
618	0.079
618	0.079
618	0.079
619	0.08
619	0.082
620	0.084
620	0.085
621	0.086
621	0.087
622	0.088
622	0.088
622	0.088
623	0.089
623	0.09
624	0.09
624	0.09
625	0.089
625	0.09
626	0.09
626	0.09
626	0.092
627	0.093
627	0.093
628	0.094
628	0.095
629	0.095
629	0.096
630	0.095
630	0.095
630	0.096
631	0.097
631	0.097
632	0.097
632	0.098
633	0.099
633	0.101
634	0.103
634	0.105
634	0.107
635	0.109
635	0.11
636	0.111
636	0.113
637	0.114
637	0.116
638	0.117
638	0.119
638	0.121
639	0.122
639	0.123
640	0.125
640	0.127
641	0.128
641	0.13
642	0.131
642	0.133
642	0.134
643	0.136
643	0.137
644	0.14
644	0.142
645	0.144
645	0.146
646	0.149
646	0.152
646	0.155
647	0.159
647	0.162
648	0.164
648	0.167
649	0.17
649	0.173
650	0.176
650	0.179
650	0.181
651	0.183
651	0.186
652	0.188
652	0.191
653	0.194
653	0.203
653	0.217
654	0.171
654	0.138
655	0.141
655	0.143
656	0.145
656	0.147
657	0.149
657	0.151
657	0.152
658	0.149
658	0.137
659	0.176
659	0.232
660	0.239
660	0.241
661	0.244
661	0.247
661	0.25
662	0.254
662	0.258
663	0.262
663	0.265
664	0.269
664	0.272
665	0.275
665	0.278
665	0.281
666	0.284
666	0.286
667	0.289
667	0.291
668	0.294
668	0.297
669	0.3
669	0.304
669	0.308
670	0.312
670	0.315
671	0.317
671	0.32
672	0.323
672	0.325
672	0.327
673	0.329
673	0.331
674	0.332
674	0.333
675	0.334
675	0.336
676	0.339
676	0.341
676	0.342
677	0.344
677	0.346
678	0.348
678	0.35
679	0.351
679	0.353
680	0.356
680	0.357
680	0.358
681	0.359
681	0.361
682	0.362
682	0.363
683	0.365
683	0.367
684	0.369
684	0.369
684	0.369
685	0.369
685	0.37
686	0.371
686	0.371
687	0.371
687	0.371
687	0.371
688	0.37
688	0.37
689	0.37
689	0.37
690	0.37
690	0.369
691	0.368
691	0.367
691	0.366
692	0.365
692	0.364
693	0.363
693	0.362
694	0.36
694	0.358
695	0.357
695	0.357
695	0.356
696	0.354
696	0.352
697	0.35
697	0.349
698	0.347
698	0.344
698	0.343
699	0.341
699	0.338
700	0.336
700	0.334
701	0.333
701	0.332
702	0.33
702	0.329
702	0.327
703	0.326
703	0.324
704	0.322
704	0.321
705	0.319
705	0.317
705	0.314
706	0.312
706	0.31
707	0.308
707	0.305
708	0.302
708	0.3
709	0.298
709	0.295
709	0.292
710	0.288
710	0.286
711	0.284
711	0.281
712	0.279
712	0.277
713	0.274
713	0.272
713	0.269
714	0.266
714	0.263
715	0.26
715	0.257
716	0.254
716	0.251
716	0.248
717	0.246
717	0.243
718	0.241
718	0.238
719	0.236
719	0.234
720	0.232
720	0.229
720	0.226
721	0.223
721	0.221
722	0.218
722	0.215
723	0.214
723	0.212
723	0.21
724	0.208
724	0.205
725	0.203
725	0.201
726	0.199
726	0.196
727	0.194
727	0.191
727	0.188
728	0.185
728	0.183
729	0.182
729	0.18
730	0.178
730	0.176
730	0.175
731	0.173
731	0.171
732	0.17
732	0.168
733	0.166
733	0.164
734	0.161
734	0.159
734	0.157
735	0.155
735	0.153
736	0.151
736	0.149
737	0.147
737	0.146
737	0.144
738	0.141
738	0.138
739	0.135
739	0.133
740	0.13
740	0.127
741	0.125
741	0.122
741	0.119
742	0.115
742	0.112
743	0.111
743	0.109
744	0.107
744	0.106
744	0.104
745	0.101
745	0.099
746	0.097
746	0.096
747	0.095
747	0.094
748	0.093
748	0.091
748	0.089
749	0.088
749	0.087
750	0.086
750	0.085
751	0.084
751	0.084
751	0.084
752	0.083
752	0.082
753	0.082
753	0.081
754	0.081
754	0.08
754	0.08
755	0.08
755	0.079
756	0.078
756	0.076
757	0.074
757	0.073
758	0.072
758	0.07
758	0.068
759	0.067
759	0.064
760	0.061
760	0.058
761	0.056
761	0.056
761	0.054
762	0.052
762	0.052
763	0.051
763	0.049
764	0.047
764	0.045
764	0.043
765	0.042
765	0.04
766	0.038
766	0.037
767	0.036
767	0.033
768	0.03
768	0.029
768	0.027
769	0.026
769	0.025
770	0.023
770	0.022
771	0.02
771	0.017
771	0.015
772	0.013
772	0.011
773	0.009
773	0.007
774	0.004
774	0.002
775	-0.001
775	-0.004
775	-0.007
776	-0.011
776	-0.014
777	-0.017
777	-0.02
778	-0.023
778	-0.026
778	-0.029
779	-0.031
779	-0.033
780	-0.036
780	-0.039
781	-0.042
781	-0.046
781	-0.05
782	-0.055
782	-0.06
783	-0.065
783	-0.07
784	-0.076
784	-0.083
784	-0.088
785	-0.095
785	-0.101
786	-0.107
786	-0.112
787	-0.114
787	-0.117
788	-0.123
788	-0.129
788	-0.135
789	-0.141
789	-0.144
790	-0.145
790	-0.147
791	-0.15
791	-0.152
791	-0.155
792	-0.15
792	-0.139
793	-0.133
793	-0.129
794	-0.127
794	-0.13
794	-0.134
795	-0.136
795	-0.136
796	-0.137
796	-0.14
797	-0.149
797	-0.16
797	-0.166
798	-0.172
798	-0.174
799	-0.175
799	-0.174
800	-0.173
800	-0.175
801	-0.178
801	-0.178
801	-0.179
802	-0.18
802	-0.181
803	-0.182
803	-0.183
804	-0.182
804	-0.176
804	-0.17
805	-0.166
805	-0.164
806	-0.162
806	-0.161
807	-0.16
807	-0.159
807	-0.159
808	-0.159
808	-0.16
809	-0.165
809	-0.171
810	-0.175
810	-0.178
810	-0.181
811	-0.185
811	-0.185
812	-0.181
812	-0.178
813	-0.178
813	-0.179
813	-0.179
814	-0.18
814	-0.179
815	-0.176
815	-0.172
816	-0.168
816	-0.164
817	-0.163
817	-0.16
817	-0.153
818	-0.144
818	-0.134
819	-0.123
819	-0.113
820	-0.105
820	-0.096
820	-0.087
821	-0.079
821	-0.071
822	-0.064
822	-0.058
823	-0.053
823	-0.049
823	-0.046
824	-0.042
824	-0.038
825	-0.034
825	-0.031
826	-0.029
826	-0.028
826	-0.026
827	-0.025
827	-0.024
828	-0.023
828	-0.022
829	-0.02
829	-0.019
829	-0.018
830	-0.018
830	-0.016
831	-0.014
831	-0.012
832	-0.011
832	-0.009
832	-0.007
833	-0.005
833	-0.004
834	-0.002
834	-0
835	0.001
835	0.002
835	0.003
836	0.003
836	0.004
837	0.004
837	0.004
838	0.004
838	0.004
839	0.004
839	0.004
839	0.004
840	0.004
840	0.004
841	0.004
841	0.005
842	0.005
842	0.005
842	0.005
843	0.005
843	0.005
844	0.006
844	0.006
845	0.006
845	0.006
845	0.006
846	0.006
846	0.005
847	0.005
847	0.005
848	0.004
848	0.004
848	0.004
849	0.004
849	0.003
850	0.003
850	0.003
851	0.003
851	0.003
851	0.004
852	0.004
852	0.005
853	0.006
853	0.006
854	0.007
854	0.008
854	0.008
855	0.009
855	0.008
856	0.008
856	0.008
857	0.008
857	0.007
857	0.007
858	0.007
858	0.006
859	0.005
859	0.005
860	0.004
860	0.004
860	0.004
861	0.005
861	0.005
862	0.005
862	0.005
863	0.005
863	0.005
863	0.006
864	0.006
864	0.006
865	0.006
865	0.007
866	0.007
866	0.007
866	0.007
867	0.008
867	0.009
868	0.009
868	0.009
869	0.009
869	0.009
869	0.009
870	0.008
870	0.008
871	0.007
871	0.006
872	0.005
872	0.004
872	0.003
873	0.002
873	0.001
874	0.001
874	0.001
875	0.001
875	0.001
875	0.002
876	0.002
876	0.003
877	0.004
877	0.005
878	0.005
878	0.006
878	0.007
879	0.008
879	0.008
880	0.008
880	0.008
881	0.007
881	0.007
881	0.007
882	0.007
882	0.007
883	0.007
883	0.007
884	0.007
884	0.007
884	0.008
885	0.008
885	0.008
886	0.009
886	0.009
887	0.01
887	0.01
887	0.011
888	0.011
888	0.011
889	0.012
889	0.013
890	0.014
890	0.014
890	0.015
891	0.015
891	0.015
892	0.015
892	0.015
893	0.014
893	0.014
893	0.013
894	0.012
894	0.011
895	0.01
895	0.009
895	0.007
896	0.006
896	0.005
897	0.004
897	0.003
898	0.002
898	0.002
898	0.002
899	0.002
899	0.002
900	0.003
900	0.003
901	0.004
901	0.005
901	0.006
902	0.007
902	0.007
903	0.007
903	0.007
904	0.007
904	0.007
904	0.007
905	0.007
905	0.007
906	0.007
906	0.007
907	0.007
907	0.006
907	0.006
908	0.006
908	0.006
909	0.006
909	0.006
910	0.006
910	0.006
910	0.006
911	0.007
911	0.007
912	0.008
912	0.008
913	0.009
913	0.009
913	0.009
914	0.008
914	0.007
915	0.006
915	0.005
916	0.003
916	0.001
916	-0
917	-0.002
917	-0.004
918	-0.005
918	-0.006
918	-0.006
919	-0.006
919	-0.006
920	-0.005
920	-0.003
921	-0.002
921	-0.001
921	0.001
922	0.003
922	0.005
923	0.006
923	0.008
924	0.009
924	0.01
924	0.01
925	0.01
925	0.01
926	0.01
926	0.01
927	0.009
927	0.008
927	0.007
928	0.006
928	0.005
929	0.004
929	0.003
930	0.002
930	0.002
930	0.001
931	0.001
931	0.001
932	0.001
932	0.001
933	0.001
933	0.002
933	0.002
934	0.002
934	0.003
935	0.003
935	0.003
935	0.002
936	0.002
936	0.002
937	0.002
937	0.002
938	0.001
938	0.001
938	0.001
939	0.001
939	0.001
940	0.002
940	0.002
941	0.002
941	0.002
941	0.003
942	0.003
942	0.003
943	0.003
943	0.002
944	0.002
944	0.002
944	0.002
945	0.001
945	0.001
946	0.001
946	0.001
946	0.001
947	0.001
947	0
948	0
948	-0
949	-0
949	-0
949	0.001
950	0.001
950	0.001
951	0.002
951	0.002
952	0.002
952	0.003
952	0.004
953	0.004
953	0.005
954	0.004
954	0.004
955	0.004
955	0.003
955	0.003
956	0.003
956	0.003
957	0.002
957	0.002
957	0.001
958	0
958	0
959	-0
959	-0.001
960	-0.002
960	-0.003
960	-0.004
961	-0.005
961	-0.006
962	-0.007
962	-0.007
963	-0.008
963	-0.008
963	-0.008
964	-0.008
964	-0.008
965	-0.007
965	-0.006
966	-0.005
966	-0.004
966	-0.003
967	-0.002
967	-0.002
968	-0.002
968	-0.002
968	-0.002
969	-0.002
969	-0.003
970	-0.003
970	-0.004
971	-0.005
971	-0.006
971	-0.007
972	-0.007
972	-0.008
973	-0.008
973	-0.009
974	-0.009
974	-0.01
974	-0.01
975	-0.009
975	-0.009
976	-0.01
976	-0.01
976	-0.01
977	-0.011
977	-0.012
978	-0.013
978	-0.014
979	-0.014
979	-0.015
979	-0.016
980	-0.017
980	-0.017
981	-0.018
981	-0.018
982	-0.017
982	-0.017
982	-0.016
983	-0.015
983	-0.014
984	-0.013
984	-0.012
984	-0.01
985	-0.009
985	-0.008
986	-0.007
986	-0.007
987	-0.006
987	-0.005
987	-0.004
988	-0.004
988	-0.003
989	-0.003
989	-0.003
990	-0.003
990	-0.002
990	-0.002
991	-0.001
991	-0
992	0.001
992	0.001
992	0.002
993	0.002
993	0.003
994	0.003
994	0.003
995	0.004
995	0.004
995	0.004
996	0.003
996	0.003
997	0.003
997	0.002
997	0.002
998	0.002
998	0.003
999	0.003
999	0.003
1000	0.003
1000	0.003
1000	0.004
1001	0.004
1001	0.004
1002	0.004
1002	0.004
1003	0.004
1003	0.003
1003	0.003
1004	0.002
1004	0.001
1005	-0.001
1005	-0.002
1005	-0.004
1006	-0.006
1006	-0.007
1007	-0.009
1007	-0.011
1008	-0.012
1008	-0.013
1008	-0.014
1009	-0.015
1009	-0.015
1010	-0.014
1010	-0.014
1010	-0.014
1011	-0.013
1011	-0.013
1012	-0.012
1012	-0.011
1013	-0.011
1013	-0.01
1013	-0.01
1014	-0.011
1014	-0.011
1015	-0.011
1015	-0.012
1016	-0.012
1016	-0.012
1016	-0.013
1017	-0.014
1017	-0.014
1018	-0.014
1018	-0.014
1018	-0.014
1019	-0.014
1019	-0.014
1020	-0.015
1020	-0.015
1021	-0.015
1021	-0.016
1021	-0.016
1022	-0.016
1022	-0.017
1023	-0.017
1023	-0.018
1023	-0.018
1024	-0.019
1024	-0.02
1025	-0.02
1025	-0.021
1026	-0.021
1026	-0.021
1026	-0.021
1027	-0.022
1027	-0.021
1028	-0.021
1028	-0.021
1028	-0.02
1029	-0.02
1029	-0.019
1030	-0.019
1030	-0.018
1031	-0.018
1031	-0.018
1031	-0.018
1032	-0.018
1032	-0.018
1033	-0.019
1033	-0.019
1033	-0.02
1034	-0.021
1034	-0.022
1035	-0.023
1035	-0.024
1036	-0.025
1036	-0.026
1036	-0.026
1037	-0.027
1037	-0.027
1038	-0.027
1038	-0.027
1039	-0.027
1039	-0.026
1039	-0.026
1040	-0.026
1040	-0.025
1041	-0.025
1041	-0.025
1041	-0.025
1042	-0.025
1042	-0.025
1043	-0.026
1043	-0.027
1044	-0.027
1044	-0.028
1044	-0.028
1045	-0.028
1045	-0.029
1046	-0.03
1046	-0.031
1046	-0.031
1047	-0.031
1047	-0.031
1048	-0.03
1048	-0.03
1049	-0.03
1049	-0.031
1049	-0.031
1050	-0.031
1050	-0.031
1051	-0.032
1051	-0.032
1051	-0.033
1052	-0.033
1052	-0.033
1053	-0.033
1053	-0.034
1053	-0.034
1054	-0.034
1054	-0.034
1055	-0.034
1055	-0.034
1056	-0.035
1056	-0.035
1056	-0.036
1057	-0.037
1057	-0.038
1058	-0.039
1058	-0.039
1058	-0.04
1059	-0.041
1059	-0.042
1060	-0.043
1060	-0.043
1061	-0.043
1061	-0.043
1061	-0.043
1062	-0.043
1062	-0.043
1063	-0.043
1063	-0.043
1063	-0.042
1064	-0.042
1064	-0.041
1065	-0.041
1065	-0.04
1066	-0.04
1066	-0.04
1066	-0.039
1067	-0.038
1067	-0.038
1068	-0.038
1068	-0.038
1068	-0.037
1069	-0.037
1069	-0.038
1070	-0.038
1070	-0.038
1071	-0.038
1071	-0.038
1071	-0.038
1072	-0.038
1072	-0.037
1073	-0.037
1073	-0.036
1073	-0.037
1074	-0.036
1074	-0.036
1075	-0.036
1075	-0.037
1076	-0.037
1076	-0.037
1076	-0.038
1077	-0.039
1077	-0.039
1078	-0.04
1078	-0.04
1078	-0.039
1079	-0.039
1079	-0.038
1080	-0.038
1080	-0.037
1080	-0.037
1081	-0.036
1081	-0.035
1082	-0.034
1082	-0.034
1083	-0.034
1083	-0.034
1083	-0.034
1084	-0.034
1084	-0.033
1085	-0.033
1085	-0.032
1085	-0.032
1086	-0.032
1086	-0.032
1087	-0.032
1087	-0.032
1088	-0.032
1088	-0.032
1088	-0.032
1089	-0.033
1089	-0.033
1090	-0.034
1090	-0.033
1090	-0.033
1091	-0.033
1091	-0.031
1092	-0.031
1092	-0.029
1092	-0.028
1093	-0.026
1093	-0.023
1094	-0.021
1094	-0.02
1095	-0.019
1095	-0.017
1095	-0.015
1096	-0.013
1096	-0.012
1097	-0.01
1097	-0.009
1097	-0.008
1098	-0.008
1098	-0.007
1099	-0.005
1099	-0.003
1100	-0.001
1100	-0
1100	0.001
1101	0.002
1101	0.004
1102	0.007
1102	0.011
1102	0.015
1103	0.019
1103	0.025
1104	0.029
1104	0.035
1104	0.044
1105	0.05
1105	0.056
1106	0.06
1106	0.069
1107	0.073
1107	0.085
1107	0.097
1108	0.143
1108	0.21
1109	0.308
1109	0.476
1109	0.634
1110	1.16
1110	-0
1111	-0
1111	-0
