Data from 15c-2a_Absorbance__369__02170.txt Node

Date: Wed Jan 17 11:22:04 CET 2024
User: Marek
Spectrometer: MAYP115816
Trigger mode: 0
Integration Time (sec): 2.000000E-1
Scans to average: 10
Electric dark correction enabled: true
Nonlinearity correction enabled: true
Boxcar width: 5
XAxis mode: Wavelengths
Number of Pixels in Spectrum: 2068
>>>>>Begin Spectral Data<<<<<
199	-1.627
199	-1.489
200	-1.332
200	-1.208
201	-1.133
201	-1.085
202	-1.017
202	-0.966
203	-0.922
203	-0.883
204	-0.858
204	-0.835
205	-0.812
205	-0.801
205	-0.8
206	-0.799
206	-0.795
207	-0.793
207	-0.789
208	-0.788
208	-0.788
209	-0.784
209	-0.783
210	-0.782
210	-0.783
211	-0.781
211	-0.781
212	-0.782
212	-0.781
213	-0.78
213	-0.779
213	-0.778
214	-0.777
214	-0.776
215	-0.775
215	-0.775
216	-0.775
216	-0.773
217	-0.768
217	-0.767
218	-0.767
218	-0.763
219	-0.76
219	-0.759
220	-0.755
220	-0.753
221	-0.748
221	-0.745
221	-0.741
222	-0.737
222	-0.732
223	-0.727
223	-0.724
224	-0.719
224	-0.711
225	-0.702
225	-0.696
226	-0.687
226	-0.674
227	-0.66
227	-0.648
228	-0.633
228	-0.615
229	-0.594
229	-0.569
229	-0.542
230	-0.513
230	-0.48
231	-0.445
231	-0.408
232	-0.371
232	-0.329
233	-0.286
233	-0.241
234	-0.198
234	-0.154
235	-0.113
235	-0.072
236	-0.032
236	0.006
236	0.042
237	0.077
237	0.108
238	0.138
238	0.166
239	0.191
239	0.215
240	0.236
240	0.256
241	0.273
241	0.289
242	0.303
242	0.316
243	0.327
243	0.338
243	0.347
244	0.356
244	0.364
245	0.371
245	0.377
246	0.384
246	0.39
247	0.395
247	0.4
248	0.405
248	0.41
249	0.414
249	0.417
250	0.42
250	0.424
250	0.427
251	0.429
251	0.431
252	0.434
252	0.436
253	0.438
253	0.44
254	0.441
254	0.444
255	0.445
255	0.446
256	0.447
256	0.448
257	0.449
257	0.45
258	0.451
258	0.451
258	0.451
259	0.451
259	0.451
260	0.451
260	0.451
261	0.451
261	0.451
262	0.45
262	0.45
263	0.449
263	0.449
264	0.448
264	0.448
265	0.447
265	0.446
265	0.444
266	0.443
266	0.442
267	0.441
267	0.44
268	0.438
268	0.436
269	0.434
269	0.433
270	0.43
270	0.429
271	0.426
271	0.425
272	0.423
272	0.42
272	0.419
273	0.417
273	0.415
274	0.413
274	0.411
275	0.409
275	0.407
276	0.405
276	0.402
277	0.4
277	0.398
278	0.395
278	0.393
278	0.391
279	0.388
279	0.385
280	0.383
280	0.381
281	0.378
281	0.376
282	0.374
282	0.372
283	0.37
283	0.368
284	0.366
284	0.365
285	0.363
285	0.361
285	0.359
286	0.358
286	0.356
287	0.355
287	0.353
288	0.351
288	0.35
289	0.348
289	0.346
290	0.344
290	0.343
291	0.341
291	0.34
292	0.338
292	0.337
292	0.335
293	0.334
293	0.333
294	0.332
294	0.33
295	0.329
295	0.328
296	0.327
296	0.326
297	0.325
297	0.324
298	0.323
298	0.322
298	0.321
299	0.32
299	0.319
300	0.318
300	0.318
301	0.317
301	0.316
302	0.315
302	0.314
303	0.313
303	0.313
304	0.312
304	0.311
305	0.31
305	0.309
305	0.308
306	0.308
306	0.307
307	0.306
307	0.305
308	0.304
308	0.303
309	0.303
309	0.302
310	0.301
310	0.3
311	0.299
311	0.299
311	0.298
312	0.297
312	0.296
313	0.295
313	0.294
314	0.293
314	0.293
315	0.292
315	0.291
316	0.29
316	0.289
317	0.288
317	0.288
318	0.287
318	0.286
318	0.285
319	0.285
319	0.284
320	0.283
320	0.282
321	0.282
321	0.281
322	0.28
322	0.279
323	0.278
323	0.277
324	0.276
324	0.275
324	0.274
325	0.273
325	0.272
326	0.271
326	0.271
327	0.27
327	0.269
328	0.268
328	0.267
329	0.267
329	0.266
330	0.265
330	0.264
330	0.263
331	0.263
331	0.262
332	0.261
332	0.26
333	0.259
333	0.259
334	0.258
334	0.257
335	0.256
335	0.256
336	0.255
336	0.254
336	0.254
337	0.253
337	0.252
338	0.252
338	0.251
339	0.25
339	0.25
340	0.249
340	0.248
341	0.248
341	0.247
342	0.246
342	0.246
342	0.245
343	0.245
343	0.244
344	0.244
344	0.243
345	0.243
345	0.242
346	0.242
346	0.241
347	0.241
347	0.24
348	0.24
348	0.239
348	0.239
349	0.238
349	0.238
350	0.237
350	0.237
351	0.236
351	0.236
352	0.235
352	0.235
353	0.235
353	0.234
354	0.234
354	0.233
354	0.233
355	0.232
355	0.232
356	0.231
356	0.231
357	0.23
357	0.23
358	0.229
358	0.229
359	0.229
359	0.229
360	0.229
360	0.229
360	0.229
361	0.229
361	0.229
362	0.23
362	0.23
363	0.229
363	0.229
364	0.229
364	0.229
365	0.228
365	0.228
366	0.228
366	0.227
366	0.227
367	0.227
367	0.227
368	0.227
368	0.226
369	0.226
369	0.226
370	0.225
370	0.225
371	0.225
371	0.225
372	0.224
372	0.224
372	0.224
373	0.223
373	0.223
374	0.223
374	0.223
375	0.223
375	0.223
376	0.222
376	0.223
377	0.223
377	0.222
378	0.222
378	0.222
378	0.223
379	0.223
379	0.222
380	0.222
380	0.222
381	0.222
381	0.222
382	0.221
382	0.221
383	0.221
383	0.221
383	0.22
384	0.22
384	0.219
385	0.219
385	0.219
386	0.219
386	0.219
387	0.219
387	0.219
388	0.218
388	0.218
389	0.218
389	0.218
389	0.218
390	0.218
390	0.218
391	0.218
391	0.219
392	0.218
392	0.218
393	0.218
393	0.218
394	0.218
394	0.217
394	0.217
395	0.217
395	0.216
396	0.216
396	0.216
397	0.216
397	0.215
398	0.215
398	0.215
399	0.215
399	0.215
400	0.215
400	0.214
400	0.214
401	0.213
401	0.213
402	0.212
402	0.212
403	0.212
403	0.212
404	0.212
404	0.212
405	0.212
405	0.211
405	0.211
406	0.211
406	0.211
407	0.21
407	0.21
408	0.21
408	0.209
409	0.209
409	0.209
410	0.209
410	0.209
411	0.209
411	0.208
411	0.208
412	0.208
412	0.208
413	0.207
413	0.207
414	0.207
414	0.207
415	0.206
415	0.206
416	0.205
416	0.205
416	0.205
417	0.205
417	0.205
418	0.205
418	0.205
419	0.205
419	0.206
420	0.206
420	0.206
421	0.207
421	0.207
421	0.207
422	0.207
422	0.207
423	0.207
423	0.207
424	0.207
424	0.206
425	0.206
425	0.205
426	0.205
426	0.205
427	0.204
427	0.204
427	0.204
428	0.204
428	0.205
429	0.205
429	0.205
430	0.205
430	0.205
431	0.205
431	0.204
432	0.204
432	0.204
432	0.203
433	0.202
433	0.202
434	0.202
434	0.202
435	0.202
435	0.202
436	0.202
436	0.202
437	0.202
437	0.202
437	0.202
438	0.202
438	0.202
439	0.203
439	0.202
440	0.202
440	0.202
441	0.202
441	0.202
442	0.202
442	0.202
442	0.202
443	0.201
443	0.201
444	0.201
444	0.201
445	0.202
445	0.202
446	0.202
446	0.202
447	0.202
447	0.202
447	0.202
448	0.202
448	0.202
449	0.202
449	0.202
450	0.202
450	0.202
451	0.201
451	0.201
452	0.201
452	0.201
452	0.201
453	0.202
453	0.202
454	0.202
454	0.202
455	0.202
455	0.202
456	0.203
456	0.203
457	0.202
457	0.202
458	0.202
458	0.202
458	0.203
459	0.203
459	0.203
460	0.202
460	0.201
461	0.201
461	0.201
462	0.201
462	0.201
463	0.201
463	0.201
463	0.202
464	0.202
464	0.202
465	0.202
465	0.202
466	0.203
466	0.203
467	0.203
467	0.203
467	0.203
468	0.203
468	0.202
469	0.202
469	0.202
470	0.202
470	0.202
471	0.202
471	0.202
472	0.202
472	0.203
472	0.203
473	0.204
473	0.204
474	0.205
474	0.206
475	0.207
475	0.208
476	0.208
476	0.208
477	0.209
477	0.209
477	0.209
478	0.21
478	0.21
479	0.211
479	0.211
480	0.212
480	0.213
481	0.214
481	0.214
482	0.216
482	0.217
482	0.219
483	0.22
483	0.222
484	0.224
484	0.224
485	0.225
485	0.227
486	0.227
486	0.228
487	0.229
487	0.23
487	0.231
488	0.231
488	0.231
489	0.232
489	0.233
490	0.234
490	0.235
491	0.236
491	0.237
492	0.238
492	0.239
492	0.24
493	0.241
493	0.242
494	0.244
494	0.246
495	0.248
495	0.25
496	0.252
496	0.254
496	0.255
497	0.257
497	0.259
498	0.26
498	0.261
499	0.262
499	0.264
500	0.265
500	0.267
501	0.268
501	0.27
501	0.271
502	0.273
502	0.275
503	0.277
503	0.279
504	0.28
504	0.281
505	0.283
505	0.284
506	0.286
506	0.287
506	0.288
507	0.289
507	0.291
508	0.293
508	0.294
509	0.296
509	0.298
510	0.3
510	0.301
511	0.302
511	0.304
511	0.304
512	0.306
512	0.306
513	0.307
513	0.307
514	0.308
514	0.308
515	0.309
515	0.309
515	0.31
516	0.31
516	0.311
517	0.312
517	0.313
518	0.313
518	0.313
519	0.313
519	0.313
520	0.313
520	0.312
520	0.312
521	0.311
521	0.31
522	0.309
522	0.308
523	0.308
523	0.308
524	0.307
524	0.307
524	0.307
525	0.307
525	0.308
526	0.309
526	0.309
527	0.31
527	0.31
528	0.31
528	0.31
529	0.31
529	0.31
529	0.31
530	0.309
530	0.309
531	0.308
531	0.308
532	0.307
532	0.306
533	0.305
533	0.304
533	0.303
534	0.302
534	0.301
535	0.3
535	0.299
536	0.298
536	0.296
537	0.295
537	0.294
538	0.292
538	0.29
538	0.289
539	0.287
539	0.285
540	0.283
540	0.281
541	0.279
541	0.276
542	0.274
542	0.271
542	0.269
543	0.266
543	0.264
544	0.262
544	0.259
545	0.258
545	0.256
546	0.255
546	0.252
547	0.25
547	0.246
547	0.244
548	0.242
548	0.239
549	0.237
549	0.235
550	0.232
550	0.229
551	0.226
551	0.224
551	0.222
552	0.22
552	0.218
553	0.216
553	0.215
554	0.212
554	0.21
555	0.207
555	0.204
556	0.202
556	0.199
556	0.196
557	0.194
557	0.191
558	0.189
558	0.186
559	0.184
559	0.182
560	0.18
560	0.178
560	0.177
561	0.176
561	0.174
562	0.172
562	0.17
563	0.167
563	0.164
564	0.161
564	0.158
564	0.156
565	0.153
565	0.151
566	0.148
566	0.145
567	0.144
567	0.143
568	0.142
568	0.141
568	0.14
569	0.14
569	0.14
570	0.139
570	0.137
571	0.137
571	0.136
572	0.135
572	0.133
573	0.131
573	0.13
573	0.128
574	0.127
574	0.126
575	0.125
575	0.125
576	0.125
576	0.123
577	0.121
577	0.12
577	0.12
578	0.119
578	0.118
579	0.118
579	0.118
580	0.115
580	0.112
581	0.108
581	0.107
581	0.106
582	0.105
582	0.105
583	0.105
583	0.103
584	0.1
584	0.096
585	0.095
585	0.096
585	0.095
586	0.095
586	0.094
587	0.092
587	0.09
588	0.087
588	0.086
589	0.086
589	0.086
590	0.085
590	0.085
590	0.086
591	0.086
591	0.085
592	0.084
592	0.083
593	0.083
593	0.083
594	0.082
594	0.08
594	0.079
595	0.079
595	0.077
596	0.076
596	0.077
597	0.08
597	0.08
598	0.08
598	0.081
598	0.081
599	0.081
599	0.081
600	0.08
600	0.079
601	0.079
601	0.078
602	0.076
602	0.076
602	0.076
603	0.076
603	0.077
604	0.078
604	0.079
605	0.081
605	0.083
606	0.083
606	0.082
606	0.082
607	0.081
607	0.081
608	0.08
608	0.078
609	0.077
609	0.077
610	0.075
610	0.074
610	0.074
611	0.075
611	0.077
612	0.078
612	0.079
613	0.08
613	0.081
614	0.081
614	0.08
614	0.079
615	0.078
615	0.078
616	0.077
616	0.076
617	0.075
617	0.074
618	0.073
618	0.072
618	0.072
619	0.073
619	0.074
620	0.076
620	0.077
621	0.078
621	0.079
622	0.079
622	0.08
622	0.081
623	0.081
623	0.082
624	0.082
624	0.082
625	0.081
625	0.082
626	0.081
626	0.081
626	0.082
627	0.083
627	0.084
628	0.084
628	0.085
629	0.085
629	0.086
630	0.086
630	0.086
630	0.087
631	0.088
631	0.089
632	0.089
632	0.09
633	0.092
633	0.093
634	0.095
634	0.097
634	0.099
635	0.101
635	0.102
636	0.103
636	0.104
637	0.105
637	0.106
638	0.107
638	0.109
638	0.11
639	0.11
639	0.112
640	0.113
640	0.114
641	0.116
641	0.118
642	0.12
642	0.122
642	0.124
643	0.126
643	0.128
644	0.13
644	0.132
645	0.134
645	0.136
646	0.139
646	0.141
646	0.144
647	0.147
647	0.15
648	0.152
648	0.154
649	0.156
649	0.159
650	0.162
650	0.164
650	0.166
651	0.169
651	0.171
652	0.174
652	0.176
653	0.18
653	0.188
653	0.203
654	0.161
654	0.13
655	0.133
655	0.135
656	0.137
656	0.139
657	0.14
657	0.142
657	0.143
658	0.141
658	0.129
659	0.165
659	0.217
660	0.225
660	0.227
661	0.23
661	0.233
661	0.236
662	0.24
662	0.245
663	0.249
663	0.253
664	0.256
664	0.26
665	0.263
665	0.266
665	0.269
666	0.272
666	0.275
667	0.277
667	0.28
668	0.282
668	0.285
669	0.287
669	0.291
669	0.294
670	0.298
670	0.301
671	0.303
671	0.306
672	0.308
672	0.311
672	0.313
673	0.315
673	0.317
674	0.318
674	0.319
675	0.321
675	0.322
676	0.325
676	0.326
676	0.327
677	0.328
677	0.33
678	0.331
678	0.332
679	0.333
679	0.334
680	0.336
680	0.338
680	0.339
681	0.34
681	0.342
682	0.344
682	0.346
683	0.348
683	0.35
684	0.351
684	0.351
684	0.352
685	0.352
685	0.353
686	0.353
686	0.353
687	0.353
687	0.353
687	0.352
688	0.352
688	0.351
689	0.351
689	0.351
690	0.35
690	0.349
691	0.347
691	0.346
691	0.345
692	0.344
692	0.342
693	0.341
693	0.34
694	0.338
694	0.336
695	0.336
695	0.337
695	0.336
696	0.335
696	0.334
697	0.333
697	0.332
698	0.331
698	0.329
698	0.328
699	0.328
699	0.325
700	0.323
700	0.321
701	0.32
701	0.319
702	0.317
702	0.315
702	0.313
703	0.311
703	0.309
704	0.307
704	0.305
705	0.303
705	0.3
705	0.297
706	0.295
706	0.293
707	0.29
707	0.287
708	0.285
708	0.282
709	0.28
709	0.278
709	0.274
710	0.271
710	0.269
711	0.267
711	0.265
712	0.262
712	0.26
713	0.258
713	0.256
713	0.253
714	0.251
714	0.248
715	0.246
715	0.244
716	0.241
716	0.239
716	0.236
717	0.234
717	0.232
718	0.229
718	0.226
719	0.224
719	0.221
720	0.219
720	0.216
720	0.212
721	0.209
721	0.207
722	0.204
722	0.201
723	0.199
723	0.198
723	0.195
724	0.193
724	0.191
725	0.189
725	0.186
726	0.184
726	0.182
727	0.18
727	0.178
727	0.176
728	0.173
728	0.171
729	0.17
729	0.168
730	0.166
730	0.164
730	0.162
731	0.16
731	0.159
732	0.157
732	0.155
733	0.153
733	0.151
734	0.148
734	0.146
734	0.144
735	0.143
735	0.141
736	0.139
736	0.137
737	0.136
737	0.135
737	0.133
738	0.13
738	0.127
739	0.124
739	0.122
740	0.118
740	0.116
741	0.113
741	0.11
741	0.106
742	0.102
742	0.099
743	0.097
743	0.095
744	0.094
744	0.093
744	0.091
745	0.089
745	0.087
746	0.085
746	0.084
747	0.082
747	0.082
748	0.08
748	0.079
748	0.077
749	0.075
749	0.075
750	0.074
750	0.073
751	0.073
751	0.073
751	0.073
752	0.072
752	0.071
753	0.071
753	0.071
754	0.071
754	0.07
754	0.07
755	0.07
755	0.07
756	0.069
756	0.066
757	0.065
757	0.064
758	0.063
758	0.061
758	0.06
759	0.059
759	0.056
760	0.053
760	0.051
761	0.049
761	0.048
761	0.046
762	0.044
762	0.043
763	0.042
763	0.04
764	0.038
764	0.036
764	0.034
765	0.033
765	0.031
766	0.03
766	0.029
767	0.028
767	0.026
768	0.023
768	0.022
768	0.02
769	0.019
769	0.018
770	0.016
770	0.015
771	0.012
771	0.009
771	0.007
772	0.005
772	0.003
773	0.001
773	-0.001
774	-0.004
774	-0.006
775	-0.008
775	-0.011
775	-0.014
776	-0.016
776	-0.019
777	-0.022
777	-0.024
778	-0.027
778	-0.03
778	-0.033
779	-0.035
779	-0.037
780	-0.041
780	-0.045
781	-0.048
781	-0.053
781	-0.058
782	-0.064
782	-0.07
783	-0.075
783	-0.081
784	-0.087
784	-0.094
784	-0.1
785	-0.106
785	-0.113
786	-0.118
786	-0.122
787	-0.122
787	-0.124
788	-0.129
788	-0.135
788	-0.14
789	-0.145
789	-0.147
790	-0.147
790	-0.148
791	-0.15
791	-0.152
791	-0.155
792	-0.149
792	-0.139
793	-0.133
793	-0.129
794	-0.127
794	-0.129
794	-0.134
795	-0.136
795	-0.136
796	-0.137
796	-0.14
797	-0.149
797	-0.16
797	-0.166
798	-0.172
798	-0.174
799	-0.175
799	-0.174
800	-0.173
800	-0.175
801	-0.178
801	-0.178
801	-0.179
802	-0.18
802	-0.181
803	-0.182
803	-0.183
804	-0.181
804	-0.176
804	-0.17
805	-0.166
805	-0.164
806	-0.162
806	-0.161
807	-0.16
807	-0.159
807	-0.159
808	-0.159
808	-0.16
809	-0.165
809	-0.171
810	-0.175
810	-0.178
810	-0.181
811	-0.185
811	-0.185
812	-0.181
812	-0.178
813	-0.178
813	-0.178
813	-0.179
814	-0.179
814	-0.179
815	-0.176
815	-0.172
816	-0.168
816	-0.165
817	-0.164
817	-0.161
817	-0.154
818	-0.146
818	-0.136
819	-0.126
819	-0.117
820	-0.11
820	-0.102
820	-0.095
821	-0.087
821	-0.081
822	-0.075
822	-0.07
823	-0.065
823	-0.062
823	-0.059
824	-0.055
824	-0.051
825	-0.047
825	-0.043
826	-0.04
826	-0.039
826	-0.037
827	-0.035
827	-0.034
828	-0.033
828	-0.032
829	-0.031
829	-0.031
829	-0.031
830	-0.031
830	-0.03
831	-0.028
831	-0.027
832	-0.025
832	-0.023
832	-0.022
833	-0.02
833	-0.018
834	-0.016
834	-0.014
835	-0.012
835	-0.01
835	-0.009
836	-0.007
836	-0.006
837	-0.005
837	-0.004
838	-0.003
838	-0.003
839	-0.002
839	-0.002
839	-0.002
840	-0.002
840	-0.003
841	-0.003
841	-0.003
842	-0.004
842	-0.004
842	-0.004
843	-0.003
843	-0.003
844	-0.002
844	-0.002
845	-0.001
845	-0
845	0.001
846	0.002
846	0.002
847	0.003
847	0.004
848	0.004
848	0.004
848	0.004
849	0.003
849	0.003
850	0.002
850	0.002
851	0.002
851	0.002
851	0.001
852	0.001
852	0.002
853	0.002
853	0.002
854	0.003
854	0.003
854	0.004
855	0.004
855	0.003
856	0.003
856	0.003
857	0.003
857	0.002
857	0.002
858	0.001
858	-0
859	-0.001
859	-0.002
860	-0.002
860	-0.003
860	-0.003
861	-0.003
861	-0.003
862	-0.003
862	-0.003
863	-0.003
863	-0.003
863	-0.003
864	-0.003
864	-0.002
865	-0.002
865	-0.001
866	-0
866	0
866	0.001
867	0.003
867	0.004
868	0.006
868	0.007
869	0.009
869	0.01
869	0.011
870	0.011
870	0.012
871	0.012
871	0.011
872	0.011
872	0.009
872	0.008
873	0.007
873	0.006
874	0.004
874	0.004
875	0.003
875	0.003
875	0.002
876	0.002
876	0.002
877	0.002
877	0.002
878	0.002
878	0.002
878	0.003
879	0.003
879	0.003
880	0.003
880	0.003
881	0.004
881	0.004
881	0.004
882	0.004
882	0.005
883	0.005
883	0.005
884	0.005
884	0.005
884	0.005
885	0.006
885	0.006
886	0.006
886	0.006
887	0.006
887	0.006
887	0.006
888	0.006
888	0.005
889	0.005
889	0.005
890	0.004
890	0.004
890	0.003
891	0.001
891	0
892	-0.001
892	-0.002
893	-0.003
893	-0.004
893	-0.005
894	-0.005
894	-0.006
895	-0.006
895	-0.006
895	-0.006
896	-0.006
896	-0.006
897	-0.006
897	-0.006
898	-0.006
898	-0.005
898	-0.005
899	-0.004
899	-0.003
900	-0.002
900	-0.001
901	0
901	0.002
901	0.003
902	0.005
902	0.006
903	0.006
903	0.006
904	0.006
904	0.006
904	0.006
905	0.006
905	0.005
906	0.005
906	0.004
907	0.004
907	0.003
907	0.003
908	0.002
908	0.002
909	0.003
909	0.003
910	0.004
910	0.004
910	0.005
911	0.005
911	0.006
912	0.007
912	0.008
913	0.008
913	0.008
913	0.008
914	0.007
914	0.006
915	0.005
915	0.004
916	0.003
916	0.001
916	-0
917	-0.002
917	-0.003
918	-0.004
918	-0.005
918	-0.005
919	-0.006
919	-0.006
920	-0.005
920	-0.004
921	-0.004
921	-0.003
921	-0.003
922	-0.001
922	-0
923	0.001
923	0.001
924	0.002
924	0.002
924	0.002
925	0.001
925	0.001
926	0
926	-0.001
927	-0.002
927	-0.003
927	-0.004
928	-0.006
928	-0.007
929	-0.008
929	-0.009
930	-0.01
930	-0.01
930	-0.01
931	-0.01
931	-0.01
932	-0.01
932	-0.01
933	-0.009
933	-0.009
933	-0.009
934	-0.008
934	-0.008
935	-0.008
935	-0.008
935	-0.008
936	-0.008
936	-0.008
937	-0.008
937	-0.008
938	-0.008
938	-0.008
938	-0.007
939	-0.007
939	-0.007
940	-0.006
940	-0.006
941	-0.006
941	-0.005
941	-0.005
942	-0.004
942	-0.004
943	-0.004
943	-0.005
944	-0.005
944	-0.006
944	-0.006
945	-0.006
945	-0.006
946	-0.006
946	-0.007
946	-0.007
947	-0.007
947	-0.007
948	-0.007
948	-0.007
949	-0.007
949	-0.006
949	-0.006
950	-0.005
950	-0.005
951	-0.004
951	-0.004
952	-0.004
952	-0.004
952	-0.003
953	-0.003
953	-0.002
954	-0.002
954	-0.002
955	-0.002
955	-0.002
955	-0.002
956	-0.001
956	-0.001
957	-0.002
957	-0.002
957	-0.003
958	-0.003
958	-0.004
959	-0.005
959	-0.005
960	-0.006
960	-0.007
960	-0.008
961	-0.009
961	-0.01
962	-0.011
962	-0.011
963	-0.011
963	-0.011
963	-0.011
964	-0.01
964	-0.009
965	-0.008
965	-0.006
966	-0.005
966	-0.003
966	-0.001
967	0
967	0.001
968	0.002
968	0.003
968	0.004
969	0.004
969	0.004
970	0.004
970	0.003
971	0.003
971	0.002
971	0.002
972	0.002
972	0.001
973	0.001
973	0.001
974	0
974	0
974	-0
975	0
975	-0
976	-0.001
976	-0.001
976	-0.002
977	-0.004
977	-0.005
978	-0.006
978	-0.008
979	-0.009
979	-0.01
979	-0.011
980	-0.012
980	-0.013
981	-0.013
981	-0.014
982	-0.013
982	-0.013
982	-0.013
983	-0.012
983	-0.012
984	-0.012
984	-0.011
984	-0.011
985	-0.01
985	-0.01
986	-0.011
986	-0.011
987	-0.011
987	-0.01
987	-0.01
988	-0.009
988	-0.008
989	-0.007
989	-0.007
990	-0.006
990	-0.005
990	-0.003
991	-0.002
991	-0.001
992	-0
992	0
992	0.001
993	0.001
993	0.001
994	0.001
994	0
995	-0
995	-0.001
995	-0.002
996	-0.002
996	-0.003
997	-0.003
997	-0.003
997	-0.003
998	-0.003
998	-0.002
999	-0.002
999	-0.001
1000	-0
1000	0.001
1000	0.001
1001	0.001
1001	0.002
1002	0.002
1002	0.002
1003	0.002
1003	0.002
1003	0.001
1004	0.001
1004	-0
1005	-0.001
1005	-0.002
1005	-0.003
1006	-0.004
1006	-0.005
1007	-0.006
1007	-0.007
1008	-0.008
1008	-0.009
1008	-0.01
1009	-0.01
1009	-0.011
1010	-0.011
1010	-0.012
1010	-0.012
1011	-0.013
1011	-0.014
1012	-0.014
1012	-0.015
1013	-0.015
1013	-0.016
1013	-0.017
1014	-0.018
1014	-0.019
1015	-0.019
1015	-0.02
1016	-0.021
1016	-0.021
1016	-0.022
1017	-0.022
1017	-0.023
1018	-0.023
1018	-0.024
1018	-0.024
1019	-0.024
1019	-0.024
1020	-0.025
1020	-0.025
1021	-0.025
1021	-0.025
1021	-0.025
1022	-0.025
1022	-0.025
1023	-0.024
1023	-0.024
1023	-0.024
1024	-0.024
1024	-0.024
1025	-0.024
1025	-0.023
1026	-0.023
1026	-0.023
1026	-0.023
1027	-0.022
1027	-0.022
1028	-0.021
1028	-0.021
1028	-0.02
1029	-0.02
1029	-0.019
1030	-0.019
1030	-0.018
1031	-0.018
1031	-0.018
1031	-0.018
1032	-0.018
1032	-0.018
1033	-0.018
1033	-0.019
1033	-0.02
1034	-0.021
1034	-0.022
1035	-0.023
1035	-0.024
1036	-0.025
1036	-0.025
1036	-0.026
1037	-0.026
1037	-0.026
1038	-0.026
1038	-0.026
1039	-0.025
1039	-0.025
1039	-0.024
1040	-0.024
1040	-0.024
1041	-0.024
1041	-0.024
1041	-0.024
1042	-0.024
1042	-0.025
1043	-0.025
1043	-0.026
1044	-0.026
1044	-0.027
1044	-0.027
1045	-0.028
1045	-0.028
1046	-0.029
1046	-0.029
1046	-0.029
1047	-0.029
1047	-0.029
1048	-0.028
1048	-0.028
1049	-0.029
1049	-0.029
1049	-0.03
1050	-0.031
1050	-0.031
1051	-0.032
1051	-0.032
1051	-0.033
1052	-0.033
1052	-0.034
1053	-0.035
1053	-0.034
1053	-0.035
1054	-0.035
1054	-0.034
1055	-0.034
1055	-0.033
1056	-0.034
1056	-0.034
1056	-0.035
1057	-0.035
1057	-0.035
1058	-0.035
1058	-0.036
1058	-0.036
1059	-0.037
1059	-0.037
1060	-0.037
1060	-0.036
1061	-0.036
1061	-0.035
1061	-0.034
1062	-0.033
1062	-0.033
1063	-0.032
1063	-0.032
1063	-0.031
1064	-0.031
1064	-0.031
1065	-0.03
1065	-0.031
1066	-0.031
1066	-0.031
1066	-0.031
1067	-0.031
1067	-0.031
1068	-0.032
1068	-0.032
1068	-0.033
1069	-0.034
1069	-0.035
1070	-0.036
1070	-0.036
1071	-0.036
1071	-0.037
1071	-0.038
1072	-0.038
1072	-0.038
1073	-0.039
1073	-0.038
1073	-0.038
1074	-0.038
1074	-0.038
1075	-0.039
1075	-0.039
1076	-0.04
1076	-0.04
1076	-0.041
1077	-0.041
1077	-0.041
1078	-0.041
1078	-0.041
1078	-0.04
1079	-0.04
1079	-0.039
1080	-0.039
1080	-0.038
1080	-0.037
1081	-0.036
1081	-0.035
1082	-0.034
1082	-0.034
1083	-0.034
1083	-0.034
1083	-0.034
1084	-0.033
1084	-0.032
1085	-0.032
1085	-0.031
1085	-0.03
1086	-0.029
1086	-0.03
1087	-0.029
1087	-0.029
1088	-0.029
1088	-0.03
1088	-0.03
1089	-0.031
1089	-0.031
1090	-0.033
1090	-0.033
1090	-0.034
1091	-0.034
1091	-0.033
1092	-0.033
1092	-0.032
1092	-0.031
1093	-0.03
1093	-0.027
1094	-0.025
1094	-0.024
1095	-0.024
1095	-0.022
1095	-0.019
1096	-0.018
1096	-0.016
1097	-0.013
1097	-0.012
1097	-0.01
1098	-0.01
1098	-0.009
1099	-0.006
1099	-0.004
1100	-0.001
1100	0
1100	0.002
1101	0.004
1101	0.006
1102	0.009
1102	0.013
1102	0.017
1103	0.021
1103	0.026
1104	0.031
1104	0.036
1104	0.044
1105	0.05
1105	0.055
1106	0.061
1106	0.069
1107	0.075
1107	0.087
1107	0.1
1108	0.15
1108	0.219
1109	0.323
1109	0.512
1109	0.698
1110	1.403
1110	-0
1111	-0
1111	-0
