Data from 15c-2a_Absorbance__718__02519.txt Node

Date: Wed Jan 17 11:33:42 CET 2024
User: Marek
Spectrometer: MAYP115816
Trigger mode: 0
Integration Time (sec): 2.000000E-1
Scans to average: 10
Electric dark correction enabled: true
Nonlinearity correction enabled: true
Boxcar width: 5
XAxis mode: Wavelengths
Number of Pixels in Spectrum: 2068
>>>>>Begin Spectral Data<<<<<
199	-1.598
199	-1.463
200	-1.306
200	-1.184
201	-1.108
201	-1.061
202	-0.993
202	-0.944
203	-0.9
203	-0.862
204	-0.838
204	-0.815
205	-0.791
205	-0.78
205	-0.779
206	-0.779
206	-0.775
207	-0.773
207	-0.769
208	-0.767
208	-0.767
209	-0.762
209	-0.761
210	-0.761
210	-0.763
211	-0.76
211	-0.759
212	-0.761
212	-0.76
213	-0.759
213	-0.758
213	-0.757
214	-0.756
214	-0.756
215	-0.754
215	-0.753
216	-0.754
216	-0.753
217	-0.747
217	-0.746
218	-0.745
218	-0.741
219	-0.738
219	-0.738
220	-0.734
220	-0.732
221	-0.727
221	-0.724
221	-0.719
222	-0.716
222	-0.712
223	-0.706
223	-0.703
224	-0.698
224	-0.69
225	-0.682
225	-0.675
226	-0.666
226	-0.653
227	-0.64
227	-0.627
228	-0.611
228	-0.594
229	-0.573
229	-0.549
229	-0.522
230	-0.492
230	-0.461
231	-0.425
231	-0.389
232	-0.352
232	-0.311
233	-0.267
233	-0.223
234	-0.179
234	-0.135
235	-0.093
235	-0.052
236	-0.012
236	0.026
236	0.062
237	0.097
237	0.129
238	0.158
238	0.185
239	0.211
239	0.234
240	0.255
240	0.274
241	0.291
241	0.307
242	0.321
242	0.334
243	0.346
243	0.356
243	0.366
244	0.375
244	0.383
245	0.389
245	0.396
246	0.402
246	0.408
247	0.413
247	0.418
248	0.423
248	0.428
249	0.431
249	0.434
250	0.438
250	0.441
250	0.444
251	0.447
251	0.449
252	0.452
252	0.454
253	0.456
253	0.458
254	0.459
254	0.461
255	0.463
255	0.464
256	0.465
256	0.466
257	0.467
257	0.468
258	0.468
258	0.468
258	0.468
259	0.469
259	0.469
260	0.469
260	0.469
261	0.468
261	0.468
262	0.468
262	0.467
263	0.467
263	0.467
264	0.466
264	0.465
265	0.464
265	0.463
265	0.462
266	0.461
266	0.46
267	0.458
267	0.457
268	0.455
268	0.454
269	0.452
269	0.45
270	0.448
270	0.446
271	0.444
271	0.442
272	0.44
272	0.438
272	0.436
273	0.434
273	0.432
274	0.43
274	0.428
275	0.426
275	0.424
276	0.422
276	0.419
277	0.417
277	0.415
278	0.413
278	0.41
278	0.408
279	0.405
279	0.402
280	0.4
280	0.397
281	0.395
281	0.392
282	0.39
282	0.388
283	0.386
283	0.384
284	0.382
284	0.38
285	0.379
285	0.377
285	0.375
286	0.373
286	0.372
287	0.37
287	0.369
288	0.367
288	0.365
289	0.364
289	0.362
290	0.361
290	0.359
291	0.357
291	0.356
292	0.354
292	0.353
292	0.351
293	0.35
293	0.348
294	0.347
294	0.346
295	0.345
295	0.343
296	0.342
296	0.341
297	0.34
297	0.339
298	0.338
298	0.337
298	0.336
299	0.335
299	0.334
300	0.334
300	0.332
301	0.332
301	0.331
302	0.33
302	0.329
303	0.328
303	0.327
304	0.326
304	0.325
305	0.325
305	0.324
305	0.323
306	0.322
306	0.321
307	0.321
307	0.32
308	0.319
308	0.318
309	0.317
309	0.316
310	0.315
310	0.315
311	0.314
311	0.313
311	0.312
312	0.311
312	0.31
313	0.309
313	0.308
314	0.307
314	0.307
315	0.306
315	0.305
316	0.304
316	0.304
317	0.303
317	0.302
318	0.301
318	0.3
318	0.299
319	0.298
319	0.297
320	0.296
320	0.295
321	0.295
321	0.293
322	0.293
322	0.292
323	0.291
323	0.29
324	0.289
324	0.288
324	0.287
325	0.287
325	0.286
326	0.285
326	0.284
327	0.283
327	0.283
328	0.282
328	0.281
329	0.28
329	0.28
330	0.279
330	0.278
330	0.277
331	0.276
331	0.276
332	0.275
332	0.274
333	0.273
333	0.272
334	0.271
334	0.27
335	0.269
335	0.269
336	0.268
336	0.267
336	0.266
337	0.266
337	0.265
338	0.264
338	0.264
339	0.263
339	0.263
340	0.262
340	0.261
341	0.261
341	0.26
342	0.26
342	0.259
342	0.259
343	0.258
343	0.258
344	0.257
344	0.257
345	0.256
345	0.256
346	0.255
346	0.255
347	0.254
347	0.253
348	0.253
348	0.253
348	0.252
349	0.251
349	0.251
350	0.25
350	0.25
351	0.25
351	0.249
352	0.249
352	0.248
353	0.248
353	0.247
354	0.247
354	0.246
354	0.245
355	0.245
355	0.244
356	0.244
356	0.243
357	0.242
357	0.242
358	0.242
358	0.242
359	0.242
359	0.242
360	0.242
360	0.242
360	0.242
361	0.242
361	0.242
362	0.243
362	0.243
363	0.243
363	0.243
364	0.242
364	0.242
365	0.242
365	0.241
366	0.241
366	0.241
366	0.241
367	0.241
367	0.24
368	0.24
368	0.24
369	0.239
369	0.239
370	0.239
370	0.239
371	0.238
371	0.238
372	0.238
372	0.237
372	0.237
373	0.237
373	0.237
374	0.236
374	0.236
375	0.236
375	0.236
376	0.236
376	0.236
377	0.236
377	0.236
378	0.236
378	0.236
378	0.236
379	0.236
379	0.236
380	0.236
380	0.236
381	0.236
381	0.236
382	0.236
382	0.235
383	0.235
383	0.234
383	0.234
384	0.233
384	0.233
385	0.233
385	0.232
386	0.232
386	0.232
387	0.232
387	0.231
388	0.231
388	0.231
389	0.231
389	0.231
389	0.231
390	0.231
390	0.231
391	0.231
391	0.231
392	0.23
392	0.23
393	0.23
393	0.23
394	0.23
394	0.23
394	0.23
395	0.229
395	0.229
396	0.229
396	0.229
397	0.229
397	0.229
398	0.228
398	0.228
399	0.228
399	0.228
400	0.228
400	0.227
400	0.227
401	0.227
401	0.226
402	0.226
402	0.225
403	0.225
403	0.225
404	0.225
404	0.224
405	0.224
405	0.224
405	0.224
406	0.224
406	0.224
407	0.224
407	0.223
408	0.223
408	0.223
409	0.222
409	0.222
410	0.222
410	0.222
411	0.222
411	0.222
411	0.221
412	0.221
412	0.221
413	0.22
413	0.22
414	0.22
414	0.22
415	0.22
415	0.219
416	0.219
416	0.218
416	0.218
417	0.218
417	0.218
418	0.218
418	0.218
419	0.219
419	0.219
420	0.22
420	0.22
421	0.22
421	0.221
421	0.221
422	0.221
422	0.221
423	0.221
423	0.22
424	0.22
424	0.219
425	0.218
425	0.218
426	0.218
426	0.217
427	0.217
427	0.217
427	0.217
428	0.218
428	0.218
429	0.218
429	0.218
430	0.218
430	0.218
431	0.218
431	0.218
432	0.218
432	0.217
432	0.217
433	0.216
433	0.216
434	0.215
434	0.216
435	0.216
435	0.216
436	0.216
436	0.216
437	0.216
437	0.216
437	0.216
438	0.215
438	0.215
439	0.215
439	0.214
440	0.214
440	0.214
441	0.214
441	0.214
442	0.214
442	0.214
442	0.215
443	0.215
443	0.215
444	0.215
444	0.215
445	0.215
445	0.215
446	0.215
446	0.215
447	0.215
447	0.215
447	0.215
448	0.215
448	0.215
449	0.215
449	0.214
450	0.214
450	0.214
451	0.214
451	0.214
452	0.214
452	0.214
452	0.214
453	0.214
453	0.214
454	0.214
454	0.214
455	0.215
455	0.215
456	0.215
456	0.215
457	0.215
457	0.215
458	0.215
458	0.215
458	0.215
459	0.215
459	0.215
460	0.214
460	0.214
461	0.213
461	0.213
462	0.213
462	0.214
463	0.214
463	0.214
463	0.215
464	0.215
464	0.215
465	0.215
465	0.215
466	0.215
466	0.216
467	0.216
467	0.216
467	0.216
468	0.215
468	0.215
469	0.215
469	0.215
470	0.215
470	0.215
471	0.215
471	0.215
472	0.215
472	0.215
472	0.216
473	0.217
473	0.217
474	0.218
474	0.219
475	0.219
475	0.22
476	0.22
476	0.221
477	0.221
477	0.222
477	0.222
478	0.222
478	0.223
479	0.224
479	0.224
480	0.225
480	0.226
481	0.227
481	0.228
482	0.229
482	0.23
482	0.232
483	0.233
483	0.236
484	0.237
484	0.238
485	0.239
485	0.24
486	0.241
486	0.242
487	0.243
487	0.244
487	0.245
488	0.245
488	0.245
489	0.246
489	0.247
490	0.249
490	0.249
491	0.25
491	0.252
492	0.253
492	0.254
492	0.255
493	0.256
493	0.257
494	0.26
494	0.262
495	0.263
495	0.265
496	0.267
496	0.269
496	0.271
497	0.273
497	0.274
498	0.276
498	0.277
499	0.279
499	0.28
500	0.282
500	0.284
501	0.286
501	0.287
501	0.288
502	0.29
502	0.292
503	0.294
503	0.296
504	0.297
504	0.299
505	0.3
505	0.302
506	0.303
506	0.305
506	0.306
507	0.307
507	0.309
508	0.31
508	0.312
509	0.313
509	0.315
510	0.317
510	0.318
511	0.319
511	0.32
511	0.321
512	0.323
512	0.323
513	0.324
513	0.324
514	0.325
514	0.325
515	0.326
515	0.326
515	0.327
516	0.327
516	0.328
517	0.33
517	0.33
518	0.331
518	0.331
519	0.331
519	0.331
520	0.331
520	0.331
520	0.33
521	0.329
521	0.328
522	0.327
522	0.327
523	0.327
523	0.327
524	0.327
524	0.327
524	0.327
525	0.328
525	0.329
526	0.329
526	0.33
527	0.33
527	0.33
528	0.33
528	0.33
529	0.33
529	0.329
529	0.329
530	0.328
530	0.328
531	0.328
531	0.327
532	0.326
532	0.326
533	0.325
533	0.324
533	0.323
534	0.321
534	0.32
535	0.318
535	0.317
536	0.315
536	0.314
537	0.312
537	0.31
538	0.308
538	0.306
538	0.304
539	0.303
539	0.301
540	0.299
540	0.296
541	0.294
541	0.292
542	0.29
542	0.288
542	0.285
543	0.283
543	0.281
544	0.279
544	0.277
545	0.275
545	0.274
546	0.273
546	0.27
547	0.267
547	0.264
547	0.261
548	0.259
548	0.256
549	0.254
549	0.251
550	0.248
550	0.245
551	0.242
551	0.239
551	0.237
552	0.234
552	0.232
553	0.23
553	0.228
554	0.226
554	0.223
555	0.22
555	0.217
556	0.214
556	0.211
556	0.209
557	0.206
557	0.204
558	0.201
558	0.199
559	0.196
559	0.194
560	0.192
560	0.19
560	0.188
561	0.187
561	0.185
562	0.183
562	0.181
563	0.178
563	0.175
564	0.172
564	0.17
564	0.167
565	0.165
565	0.163
566	0.16
566	0.158
567	0.157
567	0.156
568	0.155
568	0.154
568	0.153
569	0.153
569	0.153
570	0.151
570	0.149
571	0.149
571	0.148
572	0.146
572	0.145
573	0.143
573	0.141
573	0.139
574	0.138
574	0.137
575	0.136
575	0.137
576	0.136
576	0.134
577	0.132
577	0.131
577	0.131
578	0.13
578	0.129
579	0.129
579	0.129
580	0.126
580	0.122
581	0.119
581	0.117
581	0.116
582	0.115
582	0.115
583	0.114
583	0.112
584	0.109
584	0.104
585	0.103
585	0.104
585	0.103
586	0.103
586	0.102
587	0.1
587	0.098
588	0.096
588	0.095
589	0.095
589	0.095
590	0.094
590	0.094
590	0.095
591	0.096
591	0.094
592	0.093
592	0.092
593	0.091
593	0.091
594	0.089
594	0.088
594	0.086
595	0.086
595	0.084
596	0.083
596	0.084
597	0.087
597	0.088
598	0.088
598	0.089
598	0.09
599	0.09
599	0.09
600	0.089
600	0.088
601	0.088
601	0.087
602	0.085
602	0.085
602	0.084
603	0.085
603	0.086
604	0.087
604	0.088
605	0.09
605	0.091
606	0.091
606	0.09
606	0.089
607	0.089
607	0.088
608	0.087
608	0.085
609	0.084
609	0.084
610	0.082
610	0.081
610	0.082
611	0.083
611	0.084
612	0.086
612	0.087
613	0.088
613	0.09
614	0.089
614	0.088
614	0.087
615	0.086
615	0.086
616	0.085
616	0.084
617	0.084
617	0.083
618	0.081
618	0.081
618	0.081
619	0.082
619	0.084
620	0.086
620	0.087
621	0.088
621	0.089
622	0.089
622	0.089
622	0.089
623	0.089
623	0.091
624	0.091
624	0.09
625	0.09
625	0.091
626	0.091
626	0.091
626	0.092
627	0.093
627	0.094
628	0.095
628	0.095
629	0.096
629	0.096
630	0.096
630	0.095
630	0.096
631	0.097
631	0.097
632	0.098
632	0.099
633	0.1
633	0.102
634	0.104
634	0.106
634	0.108
635	0.11
635	0.111
636	0.113
636	0.115
637	0.116
637	0.117
638	0.119
638	0.12
638	0.122
639	0.123
639	0.125
640	0.126
640	0.128
641	0.129
641	0.131
642	0.133
642	0.135
642	0.137
643	0.138
643	0.14
644	0.142
644	0.144
645	0.146
645	0.148
646	0.151
646	0.154
646	0.157
647	0.16
647	0.164
648	0.166
648	0.169
649	0.172
649	0.175
650	0.178
650	0.181
650	0.183
651	0.186
651	0.188
652	0.19
652	0.193
653	0.196
653	0.205
653	0.22
654	0.174
654	0.14
655	0.142
655	0.144
656	0.146
656	0.148
657	0.149
657	0.151
657	0.152
658	0.149
658	0.136
659	0.175
659	0.231
660	0.24
660	0.243
661	0.246
661	0.249
661	0.252
662	0.256
662	0.26
663	0.264
663	0.267
664	0.27
664	0.273
665	0.276
665	0.279
665	0.282
666	0.284
666	0.287
667	0.289
667	0.292
668	0.295
668	0.298
669	0.301
669	0.304
669	0.309
670	0.313
670	0.316
671	0.319
671	0.321
672	0.323
672	0.326
672	0.328
673	0.33
673	0.332
674	0.333
674	0.334
675	0.335
675	0.337
676	0.34
676	0.343
676	0.344
677	0.346
677	0.348
678	0.35
678	0.351
679	0.353
679	0.355
680	0.357
680	0.358
680	0.36
681	0.361
681	0.362
682	0.364
682	0.365
683	0.367
683	0.369
684	0.371
684	0.371
684	0.371
685	0.372
685	0.373
686	0.373
686	0.374
687	0.374
687	0.374
687	0.374
688	0.374
688	0.373
689	0.374
689	0.375
690	0.374
690	0.373
691	0.372
691	0.371
691	0.37
692	0.368
692	0.366
693	0.365
693	0.365
694	0.363
694	0.36
695	0.36
695	0.361
695	0.359
696	0.357
696	0.356
697	0.354
697	0.352
698	0.35
698	0.348
698	0.346
699	0.345
699	0.343
700	0.34
700	0.339
701	0.338
701	0.336
702	0.335
702	0.333
702	0.331
703	0.329
703	0.327
704	0.325
704	0.323
705	0.322
705	0.319
705	0.317
706	0.315
706	0.313
707	0.311
707	0.308
708	0.305
708	0.303
709	0.301
709	0.298
709	0.294
710	0.291
710	0.288
711	0.286
711	0.283
712	0.281
712	0.279
713	0.276
713	0.274
713	0.271
714	0.268
714	0.265
715	0.263
715	0.26
716	0.257
716	0.254
716	0.251
717	0.249
717	0.247
718	0.244
718	0.241
719	0.239
719	0.237
720	0.235
720	0.232
720	0.23
721	0.227
721	0.224
722	0.222
722	0.219
723	0.218
723	0.216
723	0.214
724	0.212
724	0.209
725	0.207
725	0.204
726	0.202
726	0.199
727	0.196
727	0.194
727	0.191
728	0.188
728	0.186
729	0.185
729	0.183
730	0.181
730	0.179
730	0.178
731	0.176
731	0.174
732	0.173
732	0.171
733	0.168
733	0.166
734	0.163
734	0.16
734	0.158
735	0.156
735	0.153
736	0.15
736	0.148
737	0.146
737	0.145
737	0.143
738	0.14
738	0.137
739	0.134
739	0.132
740	0.129
740	0.127
741	0.125
741	0.122
741	0.119
742	0.115
742	0.112
743	0.111
743	0.109
744	0.107
744	0.106
744	0.104
745	0.102
745	0.099
746	0.098
746	0.097
747	0.095
747	0.095
748	0.094
748	0.092
748	0.091
749	0.089
749	0.088
750	0.087
750	0.086
751	0.085
751	0.085
751	0.085
752	0.084
752	0.084
753	0.083
753	0.083
754	0.083
754	0.082
754	0.082
755	0.082
755	0.082
756	0.08
756	0.077
757	0.076
757	0.075
758	0.073
758	0.071
758	0.07
759	0.068
759	0.065
760	0.062
760	0.059
761	0.058
761	0.057
761	0.056
762	0.055
762	0.055
763	0.054
763	0.052
764	0.05
764	0.049
764	0.047
765	0.045
765	0.043
766	0.042
766	0.041
767	0.039
767	0.036
768	0.033
768	0.031
768	0.029
769	0.028
769	0.027
770	0.025
770	0.024
771	0.021
771	0.019
771	0.016
772	0.015
772	0.012
773	0.01
773	0.007
774	0.004
774	0.002
775	-0.001
775	-0.004
775	-0.007
776	-0.01
776	-0.012
777	-0.015
777	-0.017
778	-0.02
778	-0.022
778	-0.025
779	-0.026
779	-0.028
780	-0.031
780	-0.034
781	-0.037
781	-0.04
781	-0.045
782	-0.05
782	-0.055
783	-0.06
783	-0.065
784	-0.071
784	-0.078
784	-0.084
785	-0.09
785	-0.096
786	-0.102
786	-0.107
787	-0.109
787	-0.113
788	-0.119
788	-0.126
788	-0.132
789	-0.139
789	-0.142
790	-0.144
790	-0.147
791	-0.15
791	-0.152
791	-0.155
792	-0.15
792	-0.139
793	-0.133
793	-0.129
794	-0.127
794	-0.13
794	-0.134
795	-0.136
795	-0.136
796	-0.137
796	-0.14
797	-0.149
797	-0.16
797	-0.166
798	-0.172
798	-0.174
799	-0.175
799	-0.174
800	-0.173
800	-0.175
801	-0.178
801	-0.178
801	-0.179
802	-0.18
802	-0.182
803	-0.182
803	-0.183
804	-0.182
804	-0.176
804	-0.17
805	-0.166
805	-0.164
806	-0.162
806	-0.161
807	-0.16
807	-0.159
807	-0.159
808	-0.159
808	-0.16
809	-0.165
809	-0.171
810	-0.175
810	-0.178
810	-0.182
811	-0.185
811	-0.185
812	-0.181
812	-0.178
813	-0.178
813	-0.179
813	-0.179
814	-0.18
814	-0.179
815	-0.176
815	-0.172
816	-0.168
816	-0.164
817	-0.163
817	-0.159
817	-0.152
818	-0.143
818	-0.132
819	-0.121
819	-0.111
820	-0.103
820	-0.094
820	-0.085
821	-0.077
821	-0.07
822	-0.063
822	-0.058
823	-0.053
823	-0.05
823	-0.047
824	-0.043
824	-0.039
825	-0.036
825	-0.032
826	-0.029
826	-0.028
826	-0.027
827	-0.025
827	-0.024
828	-0.023
828	-0.021
829	-0.02
829	-0.019
829	-0.018
830	-0.018
830	-0.018
831	-0.016
831	-0.014
832	-0.013
832	-0.012
832	-0.01
833	-0.009
833	-0.007
834	-0.005
834	-0.004
835	-0.002
835	-0
835	0.001
836	0.002
836	0.003
837	0.004
837	0.005
838	0.005
838	0.005
839	0.005
839	0.005
839	0.005
840	0.005
840	0.005
841	0.005
841	0.006
842	0.006
842	0.006
842	0.007
843	0.007
843	0.007
844	0.007
844	0.007
845	0.007
845	0.007
845	0.007
846	0.006
846	0.006
847	0.005
847	0.005
848	0.005
848	0.004
848	0.004
849	0.003
849	0.003
850	0.003
850	0.002
851	0.002
851	0.002
851	0.002
852	0.002
852	0.003
853	0.003
853	0.003
854	0.003
854	0.004
854	0.004
855	0.004
855	0.004
856	0.004
856	0.004
857	0.004
857	0.004
857	0.004
858	0.004
858	0.003
859	0.002
859	0.002
860	0.002
860	0.003
860	0.003
861	0.004
861	0.004
862	0.004
862	0.005
863	0.005
863	0.006
863	0.006
864	0.007
864	0.007
865	0.008
865	0.008
866	0.008
866	0.008
866	0.008
867	0.009
867	0.009
868	0.01
868	0.01
869	0.011
869	0.011
869	0.011
870	0.012
870	0.012
871	0.012
871	0.011
872	0.011
872	0.009
872	0.008
873	0.007
873	0.006
874	0.005
874	0.004
875	0.003
875	0.003
875	0.002
876	0.002
876	0.003
877	0.003
877	0.004
878	0.005
878	0.005
878	0.006
879	0.007
879	0.007
880	0.008
880	0.008
881	0.008
881	0.008
881	0.008
882	0.007
882	0.007
883	0.007
883	0.007
884	0.007
884	0.007
884	0.007
885	0.007
885	0.008
886	0.009
886	0.009
887	0.01
887	0.01
887	0.01
888	0.011
888	0.011
889	0.012
889	0.013
890	0.013
890	0.013
890	0.013
891	0.013
891	0.012
892	0.012
892	0.011
893	0.01
893	0.01
893	0.009
894	0.008
894	0.006
895	0.005
895	0.004
895	0.002
896	0.001
896	0
897	-0.001
897	-0.001
898	-0.002
898	-0.002
898	-0.002
899	-0.002
899	-0.001
900	-0
900	0.001
901	0.002
901	0.003
901	0.004
902	0.005
902	0.005
903	0.005
903	0.006
904	0.006
904	0.006
904	0.006
905	0.006
905	0.006
906	0.006
906	0.006
907	0.006
907	0.006
907	0.006
908	0.006
908	0.006
909	0.006
909	0.005
910	0.005
910	0.005
910	0.005
911	0.005
911	0.006
912	0.006
912	0.006
913	0.006
913	0.006
913	0.006
914	0.005
914	0.004
915	0.003
915	0.002
916	0
916	-0.001
916	-0.002
917	-0.004
917	-0.004
918	-0.005
918	-0.006
918	-0.006
919	-0.006
919	-0.005
920	-0.004
920	-0.003
921	-0.002
921	-0.001
921	0
922	0.002
922	0.003
923	0.004
923	0.005
924	0.006
924	0.006
924	0.007
925	0.007
925	0.007
926	0.007
926	0.006
927	0.006
927	0.005
927	0.005
928	0.004
928	0.003
929	0.003
929	0.003
930	0.003
930	0.003
930	0.003
931	0.003
931	0.004
932	0.005
932	0.005
933	0.006
933	0.006
933	0.007
934	0.007
934	0.007
935	0.007
935	0.006
935	0.006
936	0.006
936	0.005
937	0.005
937	0.005
938	0.004
938	0.004
938	0.003
939	0.003
939	0.003
940	0.002
940	0.002
941	0.002
941	0.001
941	0.001
942	0.001
942	0.001
943	0.001
943	0.001
944	0
944	0
944	-0
945	-0
945	-0
946	-0
946	-0.001
946	-0.001
947	-0.001
947	-0.001
948	-0.001
948	-0.001
949	-0.001
949	-0
949	0
950	0.001
950	0.001
951	0.002
951	0.002
952	0.002
952	0.003
952	0.003
953	0.003
953	0.003
954	0.003
954	0.003
955	0.002
955	0.002
955	0.002
956	0.002
956	0.002
957	0.002
957	0.001
957	0.001
958	0
958	0
959	-0
959	-0.001
960	-0.001
960	-0.002
960	-0.004
961	-0.005
961	-0.005
962	-0.006
962	-0.007
963	-0.007
963	-0.008
963	-0.008
964	-0.007
964	-0.007
965	-0.006
965	-0.006
966	-0.005
966	-0.005
966	-0.004
967	-0.003
967	-0.003
968	-0.003
968	-0.003
968	-0.003
969	-0.004
969	-0.004
970	-0.005
970	-0.006
971	-0.006
971	-0.007
971	-0.009
972	-0.009
972	-0.01
973	-0.011
973	-0.012
974	-0.012
974	-0.013
974	-0.014
975	-0.014
975	-0.014
976	-0.014
976	-0.015
976	-0.015
977	-0.016
977	-0.017
978	-0.018
978	-0.019
979	-0.02
979	-0.021
979	-0.021
980	-0.022
980	-0.022
981	-0.023
981	-0.023
982	-0.022
982	-0.021
982	-0.02
983	-0.019
983	-0.018
984	-0.017
984	-0.016
984	-0.015
985	-0.014
985	-0.013
986	-0.012
986	-0.012
987	-0.011
987	-0.01
987	-0.01
988	-0.009
988	-0.009
989	-0.009
989	-0.009
990	-0.008
990	-0.008
990	-0.007
991	-0.006
991	-0.005
992	-0.004
992	-0.003
992	-0.002
993	-0.001
993	-0
994	0.001
994	0.001
995	0.002
995	0.002
995	0.002
996	0.002
996	0.002
997	0.002
997	0.002
997	0.002
998	0.003
998	0.003
999	0.004
999	0.004
1000	0.005
1000	0.005
1000	0.005
1001	0.006
1001	0.006
1002	0.007
1002	0.007
1003	0.007
1003	0.007
1003	0.006
1004	0.005
1004	0.004
1005	0.003
1005	0.001
1005	-0
1006	-0.002
1006	-0.004
1007	-0.006
1007	-0.008
1008	-0.01
1008	-0.011
1008	-0.012
1009	-0.013
1009	-0.013
1010	-0.014
1010	-0.014
1010	-0.014
1011	-0.014
1011	-0.014
1012	-0.014
1012	-0.014
1013	-0.013
1013	-0.014
1013	-0.014
1014	-0.014
1014	-0.014
1015	-0.014
1015	-0.014
1016	-0.015
1016	-0.015
1016	-0.015
1017	-0.015
1017	-0.016
1018	-0.016
1018	-0.016
1018	-0.016
1019	-0.016
1019	-0.016
1020	-0.016
1020	-0.016
1021	-0.016
1021	-0.016
1021	-0.016
1022	-0.016
1022	-0.016
1023	-0.016
1023	-0.016
1023	-0.016
1024	-0.017
1024	-0.017
1025	-0.017
1025	-0.017
1026	-0.017
1026	-0.017
1026	-0.018
1027	-0.018
1027	-0.018
1028	-0.018
1028	-0.017
1028	-0.017
1029	-0.017
1029	-0.017
1030	-0.017
1030	-0.017
1031	-0.017
1031	-0.017
1031	-0.017
1032	-0.018
1032	-0.018
1033	-0.018
1033	-0.019
1033	-0.02
1034	-0.02
1034	-0.022
1035	-0.022
1035	-0.023
1036	-0.024
1036	-0.025
1036	-0.025
1037	-0.025
1037	-0.026
1038	-0.026
1038	-0.026
1039	-0.026
1039	-0.025
1039	-0.025
1040	-0.025
1040	-0.025
1041	-0.025
1041	-0.025
1041	-0.025
1042	-0.025
1042	-0.026
1043	-0.026
1043	-0.027
1044	-0.028
1044	-0.029
1044	-0.029
1045	-0.03
1045	-0.031
1046	-0.032
1046	-0.033
1046	-0.033
1047	-0.033
1047	-0.033
1048	-0.033
1048	-0.033
1049	-0.033
1049	-0.033
1049	-0.033
1050	-0.033
1050	-0.034
1051	-0.034
1051	-0.034
1051	-0.034
1052	-0.034
1052	-0.035
1053	-0.035
1053	-0.035
1053	-0.035
1054	-0.035
1054	-0.035
1055	-0.035
1055	-0.036
1056	-0.037
1056	-0.037
1056	-0.038
1057	-0.039
1057	-0.04
1058	-0.041
1058	-0.042
1058	-0.043
1059	-0.044
1059	-0.046
1060	-0.046
1060	-0.047
1061	-0.047
1061	-0.047
1061	-0.047
1062	-0.047
1062	-0.048
1063	-0.048
1063	-0.048
1063	-0.048
1064	-0.047
1064	-0.047
1065	-0.047
1065	-0.046
1066	-0.046
1066	-0.046
1066	-0.045
1067	-0.045
1067	-0.044
1068	-0.043
1068	-0.043
1068	-0.043
1069	-0.043
1069	-0.044
1070	-0.044
1070	-0.043
1071	-0.043
1071	-0.043
1071	-0.043
1072	-0.043
1072	-0.043
1073	-0.043
1073	-0.043
1073	-0.043
1074	-0.042
1074	-0.042
1075	-0.043
1075	-0.043
1076	-0.044
1076	-0.044
1076	-0.045
1077	-0.045
1077	-0.046
1078	-0.046
1078	-0.046
1078	-0.045
1079	-0.045
1079	-0.044
1080	-0.044
1080	-0.043
1080	-0.043
1081	-0.042
1081	-0.041
1082	-0.041
1082	-0.041
1083	-0.041
1083	-0.041
1083	-0.04
1084	-0.04
1084	-0.039
1085	-0.039
1085	-0.038
1085	-0.037
1086	-0.037
1086	-0.037
1087	-0.036
1087	-0.035
1088	-0.036
1088	-0.036
1088	-0.036
1089	-0.036
1089	-0.036
1090	-0.037
1090	-0.037
1090	-0.037
1091	-0.037
1091	-0.035
1092	-0.035
1092	-0.033
1092	-0.032
1093	-0.03
1093	-0.028
1094	-0.025
1094	-0.023
1095	-0.022
1095	-0.021
1095	-0.018
1096	-0.017
1096	-0.015
1097	-0.013
1097	-0.012
1097	-0.011
1098	-0.011
1098	-0.011
1099	-0.01
1099	-0.008
1100	-0.006
1100	-0.005
1100	-0.005
1101	-0.003
1101	-0.002
1102	0.001
1102	0.003
1102	0.008
1103	0.01
1103	0.015
1104	0.019
1104	0.022
1104	0.029
1105	0.036
1105	0.039
1106	0.042
1106	0.05
1107	0.054
1107	0.064
1107	0.075
1108	0.118
1108	0.176
1109	0.262
1109	0.405
1109	0.53
1110	0.849
1110	-0
1111	-0
1111	-0
