Data from 15c-2a_Absorbance__83__01884.txt Node

Date: Wed Jan 17 11:12:32 CET 2024
User: Marek
Spectrometer: MAYP115816
Trigger mode: 0
Integration Time (sec): 2.000000E-1
Scans to average: 10
Electric dark correction enabled: true
Nonlinearity correction enabled: true
Boxcar width: 5
XAxis mode: Wavelengths
Number of Pixels in Spectrum: 2068
>>>>>Begin Spectral Data<<<<<
199	-1.899
199	-1.755
200	-1.592
200	-1.465
201	-1.387
201	-1.337
202	-1.263
202	-1.208
203	-1.158
203	-1.115
204	-1.088
204	-1.064
205	-1.04
205	-1.03
205	-1.029
206	-1.027
206	-1.023
207	-1.021
207	-1.016
208	-1.015
208	-1.014
209	-1.01
209	-1.008
210	-1.007
210	-1.007
211	-1.005
211	-1.004
212	-1.005
212	-1.004
213	-1.003
213	-1.002
213	-1.001
214	-1
214	-0.999
215	-0.998
215	-0.996
216	-0.996
216	-0.994
217	-0.989
217	-0.987
218	-0.986
218	-0.982
219	-0.98
219	-0.979
220	-0.975
220	-0.971
221	-0.966
221	-0.963
221	-0.959
222	-0.955
222	-0.95
223	-0.944
223	-0.941
224	-0.935
224	-0.927
225	-0.919
225	-0.911
226	-0.902
226	-0.89
227	-0.876
227	-0.863
228	-0.847
228	-0.828
229	-0.806
229	-0.782
229	-0.755
230	-0.724
230	-0.693
231	-0.657
231	-0.62
232	-0.581
232	-0.538
233	-0.493
233	-0.447
234	-0.401
234	-0.355
235	-0.31
235	-0.265
236	-0.221
236	-0.179
236	-0.139
237	-0.1
237	-0.065
238	-0.031
238	0.001
239	0.031
239	0.058
240	0.083
240	0.106
241	0.128
241	0.147
242	0.165
242	0.181
243	0.196
243	0.209
243	0.221
244	0.233
244	0.243
245	0.252
245	0.26
246	0.269
246	0.276
247	0.282
247	0.288
248	0.294
248	0.299
249	0.305
249	0.309
250	0.313
250	0.317
250	0.321
251	0.324
251	0.328
252	0.331
252	0.334
253	0.337
253	0.339
254	0.341
254	0.343
255	0.345
255	0.347
256	0.349
256	0.35
257	0.351
257	0.352
258	0.353
258	0.353
258	0.354
259	0.355
259	0.355
260	0.356
260	0.356
261	0.356
261	0.356
262	0.356
262	0.356
263	0.356
263	0.356
264	0.356
264	0.356
265	0.355
265	0.355
265	0.354
266	0.353
266	0.353
267	0.352
267	0.351
268	0.35
268	0.349
269	0.348
269	0.347
270	0.345
270	0.344
271	0.342
271	0.341
272	0.339
272	0.338
272	0.336
273	0.335
273	0.333
274	0.332
274	0.33
275	0.329
275	0.328
276	0.326
276	0.325
277	0.323
277	0.322
278	0.32
278	0.318
278	0.316
279	0.314
279	0.312
280	0.311
280	0.309
281	0.307
281	0.306
282	0.304
282	0.303
283	0.302
283	0.301
284	0.299
284	0.299
285	0.297
285	0.296
285	0.295
286	0.294
286	0.293
287	0.291
287	0.29
288	0.289
288	0.288
289	0.287
289	0.286
290	0.285
290	0.284
291	0.283
291	0.282
292	0.281
292	0.28
292	0.279
293	0.279
293	0.278
294	0.277
294	0.276
295	0.275
295	0.275
296	0.274
296	0.273
297	0.272
297	0.272
298	0.271
298	0.271
298	0.27
299	0.269
299	0.269
300	0.268
300	0.268
301	0.267
301	0.267
302	0.266
302	0.266
303	0.265
303	0.265
304	0.264
304	0.264
305	0.263
305	0.263
305	0.262
306	0.261
306	0.261
307	0.26
307	0.26
308	0.259
308	0.258
309	0.258
309	0.257
310	0.257
310	0.256
311	0.256
311	0.255
311	0.254
312	0.254
312	0.253
313	0.252
313	0.252
314	0.251
314	0.25
315	0.25
315	0.249
316	0.248
316	0.248
317	0.247
317	0.247
318	0.246
318	0.245
318	0.245
319	0.244
319	0.243
320	0.242
320	0.242
321	0.241
321	0.24
322	0.239
322	0.238
323	0.238
323	0.237
324	0.236
324	0.235
324	0.235
325	0.234
325	0.233
326	0.233
326	0.232
327	0.232
327	0.231
328	0.23
328	0.23
329	0.229
329	0.228
330	0.228
330	0.227
330	0.226
331	0.225
331	0.225
332	0.224
332	0.223
333	0.222
333	0.221
334	0.221
334	0.22
335	0.219
335	0.219
336	0.218
336	0.217
336	0.217
337	0.216
337	0.216
338	0.215
338	0.214
339	0.214
339	0.213
340	0.213
340	0.212
341	0.212
341	0.211
342	0.211
342	0.21
342	0.209
343	0.209
343	0.208
344	0.208
344	0.207
345	0.207
345	0.206
346	0.206
346	0.205
347	0.205
347	0.205
348	0.204
348	0.204
348	0.203
349	0.202
349	0.201
350	0.201
350	0.2
351	0.2
351	0.199
352	0.199
352	0.198
353	0.198
353	0.197
354	0.196
354	0.196
354	0.196
355	0.195
355	0.194
356	0.193
356	0.193
357	0.192
357	0.192
358	0.191
358	0.191
359	0.192
359	0.192
360	0.192
360	0.192
360	0.193
361	0.193
361	0.193
362	0.194
362	0.194
363	0.193
363	0.193
364	0.193
364	0.192
365	0.192
365	0.192
366	0.192
366	0.191
366	0.191
367	0.191
367	0.191
368	0.191
368	0.191
369	0.19
369	0.19
370	0.19
370	0.189
371	0.189
371	0.189
372	0.188
372	0.188
372	0.188
373	0.188
373	0.188
374	0.188
374	0.188
375	0.188
375	0.187
376	0.187
376	0.187
377	0.187
377	0.187
378	0.187
378	0.188
378	0.188
379	0.188
379	0.188
380	0.188
380	0.188
381	0.188
381	0.187
382	0.187
382	0.187
383	0.187
383	0.186
383	0.186
384	0.186
384	0.185
385	0.185
385	0.185
386	0.185
386	0.186
387	0.186
387	0.185
388	0.185
388	0.185
389	0.185
389	0.185
389	0.185
390	0.185
390	0.185
391	0.186
391	0.186
392	0.186
392	0.185
393	0.185
393	0.185
394	0.185
394	0.185
394	0.185
395	0.184
395	0.184
396	0.183
396	0.183
397	0.184
397	0.184
398	0.184
398	0.184
399	0.184
399	0.184
400	0.183
400	0.183
400	0.183
401	0.182
401	0.181
402	0.181
402	0.18
403	0.18
403	0.18
404	0.18
404	0.18
405	0.18
405	0.18
405	0.18
406	0.179
406	0.179
407	0.179
407	0.179
408	0.178
408	0.178
409	0.177
409	0.177
410	0.177
410	0.176
411	0.176
411	0.176
411	0.176
412	0.176
412	0.176
413	0.175
413	0.175
414	0.175
414	0.175
415	0.174
415	0.174
416	0.174
416	0.173
416	0.173
417	0.173
417	0.173
418	0.173
418	0.173
419	0.174
419	0.174
420	0.175
420	0.175
421	0.176
421	0.176
421	0.177
422	0.177
422	0.177
423	0.177
423	0.177
424	0.176
424	0.176
425	0.175
425	0.174
426	0.174
426	0.173
427	0.173
427	0.173
427	0.173
428	0.173
428	0.174
429	0.174
429	0.174
430	0.175
430	0.174
431	0.174
431	0.174
432	0.174
432	0.173
432	0.173
433	0.172
433	0.171
434	0.17
434	0.17
435	0.17
435	0.17
436	0.17
436	0.17
437	0.171
437	0.171
437	0.171
438	0.171
438	0.171
439	0.171
439	0.17
440	0.17
440	0.17
441	0.17
441	0.17
442	0.17
442	0.17
442	0.17
443	0.17
443	0.17
444	0.171
444	0.171
445	0.171
445	0.172
446	0.172
446	0.172
447	0.172
447	0.171
447	0.171
448	0.171
448	0.171
449	0.171
449	0.17
450	0.17
450	0.17
451	0.17
451	0.169
452	0.169
452	0.169
452	0.169
453	0.169
453	0.168
454	0.168
454	0.168
455	0.168
455	0.168
456	0.168
456	0.168
457	0.168
457	0.168
458	0.168
458	0.168
458	0.168
459	0.168
459	0.168
460	0.167
460	0.167
461	0.166
461	0.166
462	0.166
462	0.166
463	0.166
463	0.166
463	0.167
464	0.167
464	0.167
465	0.167
465	0.167
466	0.167
466	0.167
467	0.167
467	0.167
467	0.166
468	0.165
468	0.164
469	0.163
469	0.163
470	0.162
470	0.162
471	0.162
471	0.162
472	0.161
472	0.162
472	0.162
473	0.163
473	0.164
474	0.164
474	0.165
475	0.166
475	0.167
476	0.167
476	0.167
477	0.167
477	0.167
477	0.167
478	0.167
478	0.167
479	0.167
479	0.168
480	0.168
480	0.169
481	0.17
481	0.171
482	0.172
482	0.173
482	0.174
483	0.176
483	0.178
484	0.18
484	0.181
485	0.182
485	0.183
486	0.183
486	0.184
487	0.184
487	0.185
487	0.185
488	0.185
488	0.184
489	0.183
489	0.184
490	0.184
490	0.184
491	0.184
491	0.184
492	0.185
492	0.186
492	0.186
493	0.187
493	0.187
494	0.189
494	0.191
495	0.192
495	0.193
496	0.195
496	0.196
496	0.197
497	0.198
497	0.2
498	0.2
498	0.201
499	0.202
499	0.202
500	0.203
500	0.204
501	0.205
501	0.207
501	0.208
502	0.209
502	0.211
503	0.212
503	0.214
504	0.215
504	0.215
505	0.216
505	0.217
506	0.217
506	0.218
506	0.219
507	0.219
507	0.22
508	0.221
508	0.222
509	0.223
509	0.224
510	0.225
510	0.226
511	0.227
511	0.228
511	0.228
512	0.228
512	0.229
513	0.229
513	0.229
514	0.229
514	0.229
515	0.229
515	0.229
515	0.229
516	0.229
516	0.229
517	0.23
517	0.231
518	0.231
518	0.231
519	0.231
519	0.231
520	0.23
520	0.23
520	0.229
521	0.227
521	0.226
522	0.224
522	0.223
523	0.222
523	0.221
524	0.22
524	0.22
524	0.22
525	0.22
525	0.221
526	0.222
526	0.223
527	0.225
527	0.226
528	0.228
528	0.229
529	0.23
529	0.23
529	0.231
530	0.231
530	0.232
531	0.232
531	0.232
532	0.232
532	0.232
533	0.232
533	0.232
533	0.232
534	0.231
534	0.231
535	0.23
535	0.23
536	0.23
536	0.23
537	0.23
537	0.229
538	0.229
538	0.228
538	0.227
539	0.226
539	0.225
540	0.225
540	0.223
541	0.222
541	0.22
542	0.219
542	0.217
542	0.216
543	0.215
543	0.214
544	0.212
544	0.211
545	0.21
545	0.21
546	0.21
546	0.209
547	0.207
547	0.205
547	0.203
548	0.202
548	0.2
549	0.199
549	0.197
550	0.196
550	0.194
551	0.192
551	0.191
551	0.19
552	0.189
552	0.188
553	0.188
553	0.187
554	0.187
554	0.186
555	0.184
555	0.182
556	0.18
556	0.177
556	0.176
557	0.174
557	0.172
558	0.17
558	0.169
559	0.168
559	0.167
560	0.167
560	0.166
560	0.166
561	0.166
561	0.166
562	0.165
562	0.164
563	0.162
563	0.16
564	0.158
564	0.156
564	0.154
565	0.152
565	0.151
566	0.149
566	0.147
567	0.147
567	0.147
568	0.147
568	0.148
568	0.149
569	0.151
569	0.152
570	0.153
570	0.152
571	0.152
571	0.153
572	0.153
572	0.152
573	0.152
573	0.151
573	0.15
574	0.149
574	0.149
575	0.148
575	0.149
576	0.15
576	0.149
577	0.148
577	0.147
577	0.147
578	0.146
578	0.146
579	0.146
579	0.147
580	0.145
580	0.142
581	0.139
581	0.137
581	0.136
582	0.136
582	0.136
583	0.136
583	0.135
584	0.132
584	0.128
585	0.127
585	0.127
585	0.127
586	0.126
586	0.126
587	0.124
587	0.121
588	0.119
588	0.117
589	0.117
589	0.116
590	0.116
590	0.116
590	0.117
591	0.117
591	0.117
592	0.117
592	0.115
593	0.115
593	0.115
594	0.114
594	0.113
594	0.111
595	0.11
595	0.109
596	0.107
596	0.108
597	0.11
597	0.111
598	0.111
598	0.113
598	0.114
599	0.114
599	0.114
600	0.113
600	0.113
601	0.112
601	0.11
602	0.109
602	0.108
602	0.107
603	0.107
603	0.108
604	0.108
604	0.109
605	0.111
605	0.112
606	0.113
606	0.112
606	0.112
607	0.111
607	0.11
608	0.109
608	0.107
609	0.105
609	0.105
610	0.103
610	0.102
610	0.102
611	0.103
611	0.104
612	0.105
612	0.107
613	0.108
613	0.109
614	0.108
614	0.107
614	0.107
615	0.106
615	0.105
616	0.104
616	0.102
617	0.101
617	0.099
618	0.097
618	0.095
618	0.094
619	0.094
619	0.095
620	0.097
620	0.098
621	0.098
621	0.098
622	0.098
622	0.098
622	0.098
623	0.098
623	0.099
624	0.099
624	0.098
625	0.097
625	0.097
626	0.096
626	0.096
626	0.097
627	0.097
627	0.097
628	0.098
628	0.098
629	0.099
629	0.099
630	0.098
630	0.098
630	0.099
631	0.099
631	0.099
632	0.099
632	0.099
633	0.1
633	0.101
634	0.102
634	0.104
634	0.106
635	0.107
635	0.108
636	0.109
636	0.11
637	0.111
637	0.111
638	0.112
638	0.113
638	0.114
639	0.114
639	0.114
640	0.115
640	0.116
641	0.117
641	0.118
642	0.12
642	0.122
642	0.123
643	0.124
643	0.126
644	0.127
644	0.129
645	0.13
645	0.132
646	0.134
646	0.137
646	0.14
647	0.142
647	0.145
648	0.147
648	0.149
649	0.151
649	0.154
650	0.156
650	0.159
650	0.161
651	0.163
651	0.165
652	0.166
652	0.168
653	0.171
653	0.179
653	0.194
654	0.155
654	0.126
655	0.129
655	0.131
656	0.132
656	0.133
657	0.135
657	0.137
657	0.137
658	0.134
658	0.121
659	0.154
659	0.2
660	0.205
660	0.206
661	0.208
661	0.21
661	0.212
662	0.215
662	0.219
663	0.222
663	0.225
664	0.228
664	0.231
665	0.233
665	0.236
665	0.238
666	0.241
666	0.243
667	0.245
667	0.247
668	0.249
668	0.251
669	0.253
669	0.255
669	0.259
670	0.262
670	0.265
671	0.267
671	0.269
672	0.271
672	0.273
672	0.274
673	0.276
673	0.277
674	0.278
674	0.278
675	0.279
675	0.28
676	0.282
676	0.283
676	0.284
677	0.286
677	0.288
678	0.289
678	0.29
679	0.292
679	0.293
680	0.295
680	0.296
680	0.297
681	0.298
681	0.299
682	0.3
682	0.301
683	0.302
683	0.304
684	0.306
684	0.306
684	0.306
685	0.307
685	0.307
686	0.308
686	0.309
687	0.309
687	0.309
687	0.309
688	0.308
688	0.307
689	0.308
689	0.308
690	0.308
690	0.307
691	0.306
691	0.305
691	0.305
692	0.303
692	0.302
693	0.301
693	0.301
694	0.3
694	0.298
695	0.298
695	0.299
695	0.3
696	0.299
696	0.299
697	0.298
697	0.298
698	0.297
698	0.296
698	0.295
699	0.295
699	0.293
700	0.29
700	0.289
701	0.289
701	0.288
702	0.287
702	0.286
702	0.284
703	0.283
703	0.281
704	0.279
704	0.278
705	0.277
705	0.275
705	0.273
706	0.272
706	0.27
707	0.268
707	0.266
708	0.264
708	0.262
709	0.26
709	0.258
709	0.255
710	0.252
710	0.25
711	0.249
711	0.247
712	0.246
712	0.245
713	0.244
713	0.242
713	0.24
714	0.238
714	0.236
715	0.234
715	0.232
716	0.23
716	0.228
716	0.226
717	0.224
717	0.223
718	0.22
718	0.218
719	0.217
719	0.216
720	0.214
720	0.212
720	0.211
721	0.208
721	0.206
722	0.204
722	0.202
723	0.201
723	0.199
723	0.198
724	0.196
724	0.194
725	0.191
725	0.189
726	0.187
726	0.185
727	0.183
727	0.181
727	0.179
728	0.176
728	0.175
729	0.174
729	0.173
730	0.172
730	0.17
730	0.169
731	0.167
731	0.166
732	0.165
732	0.163
733	0.161
733	0.16
734	0.157
734	0.155
734	0.154
735	0.153
735	0.152
736	0.15
736	0.149
737	0.148
737	0.148
737	0.147
738	0.144
738	0.141
739	0.139
739	0.136
740	0.133
740	0.13
741	0.128
741	0.124
741	0.12
742	0.116
742	0.112
743	0.11
743	0.108
744	0.107
744	0.106
744	0.104
745	0.102
745	0.1
746	0.099
746	0.098
747	0.097
747	0.097
748	0.096
748	0.095
748	0.094
749	0.092
749	0.092
750	0.091
750	0.09
751	0.09
751	0.091
751	0.091
752	0.09
752	0.089
753	0.089
753	0.089
754	0.089
754	0.088
754	0.088
755	0.087
755	0.087
756	0.086
756	0.084
757	0.082
757	0.082
758	0.081
758	0.079
758	0.078
759	0.077
759	0.074
760	0.072
760	0.069
761	0.067
761	0.066
761	0.065
762	0.063
762	0.063
763	0.062
763	0.06
764	0.057
764	0.055
764	0.053
765	0.051
765	0.048
766	0.046
766	0.045
767	0.043
767	0.04
768	0.036
768	0.033
768	0.032
769	0.03
769	0.028
770	0.026
770	0.024
771	0.021
771	0.017
771	0.014
772	0.011
772	0.008
773	0.005
773	0.001
774	-0.003
774	-0.007
775	-0.01
775	-0.014
775	-0.018
776	-0.023
776	-0.027
777	-0.031
777	-0.035
778	-0.04
778	-0.045
778	-0.049
779	-0.052
779	-0.055
780	-0.06
780	-0.066
781	-0.071
781	-0.079
781	-0.087
782	-0.096
782	-0.105
783	-0.114
783	-0.122
784	-0.13
784	-0.138
784	-0.144
785	-0.15
785	-0.156
786	-0.158
786	-0.157
787	-0.152
787	-0.149
788	-0.148
788	-0.149
788	-0.15
789	-0.152
789	-0.152
790	-0.149
790	-0.147
791	-0.148
791	-0.15
791	-0.152
792	-0.147
792	-0.136
793	-0.13
793	-0.126
794	-0.125
794	-0.127
794	-0.131
795	-0.134
795	-0.134
796	-0.135
796	-0.138
797	-0.146
797	-0.157
797	-0.164
798	-0.169
798	-0.172
799	-0.172
799	-0.171
800	-0.171
800	-0.172
801	-0.175
801	-0.176
801	-0.176
802	-0.178
802	-0.179
803	-0.18
803	-0.18
804	-0.179
804	-0.174
804	-0.167
805	-0.164
805	-0.162
806	-0.16
806	-0.158
807	-0.157
807	-0.157
807	-0.157
808	-0.157
808	-0.158
809	-0.163
809	-0.169
810	-0.172
810	-0.175
810	-0.179
811	-0.182
811	-0.183
812	-0.179
812	-0.176
813	-0.175
813	-0.176
813	-0.177
814	-0.177
814	-0.176
815	-0.173
815	-0.17
816	-0.167
816	-0.167
817	-0.17
817	-0.172
817	-0.171
818	-0.167
818	-0.161
819	-0.154
819	-0.148
820	-0.144
820	-0.14
820	-0.133
821	-0.125
821	-0.116
822	-0.106
822	-0.098
823	-0.09
823	-0.084
823	-0.079
824	-0.072
824	-0.066
825	-0.059
825	-0.052
826	-0.047
826	-0.043
826	-0.039
827	-0.035
827	-0.032
828	-0.029
828	-0.026
829	-0.024
829	-0.021
829	-0.02
830	-0.019
830	-0.017
831	-0.014
831	-0.011
832	-0.009
832	-0.006
832	-0.004
833	-0.001
833	0.002
834	0.004
834	0.007
835	0.01
835	0.012
835	0.013
836	0.015
836	0.017
837	0.018
837	0.019
838	0.019
838	0.019
839	0.019
839	0.019
839	0.019
840	0.018
840	0.018
841	0.018
841	0.018
842	0.018
842	0.018
842	0.019
843	0.02
843	0.021
844	0.022
844	0.024
845	0.026
845	0.027
845	0.029
846	0.031
846	0.032
847	0.032
847	0.033
848	0.034
848	0.033
848	0.033
849	0.032
849	0.032
850	0.031
850	0.029
851	0.028
851	0.028
851	0.027
852	0.026
852	0.027
853	0.027
853	0.027
854	0.027
854	0.028
854	0.028
855	0.029
855	0.029
856	0.029
856	0.029
857	0.029
857	0.029
857	0.029
858	0.028
858	0.028
859	0.027
859	0.027
860	0.027
860	0.026
860	0.026
861	0.027
861	0.027
862	0.027
862	0.027
863	0.027
863	0.028
863	0.028
864	0.028
864	0.029
865	0.03
865	0.03
866	0.031
866	0.031
866	0.032
867	0.033
867	0.034
868	0.036
868	0.037
869	0.039
869	0.04
869	0.04
870	0.041
870	0.041
871	0.041
871	0.041
872	0.04
872	0.039
872	0.038
873	0.038
873	0.036
874	0.036
874	0.035
875	0.035
875	0.035
875	0.035
876	0.035
876	0.035
877	0.035
877	0.035
878	0.035
878	0.036
878	0.036
879	0.036
879	0.037
880	0.037
880	0.037
881	0.037
881	0.038
881	0.038
882	0.039
882	0.039
883	0.039
883	0.039
884	0.04
884	0.039
884	0.039
885	0.039
885	0.038
886	0.038
886	0.037
887	0.037
887	0.036
887	0.035
888	0.035
888	0.034
889	0.033
889	0.033
890	0.032
890	0.031
890	0.03
891	0.029
891	0.027
892	0.026
892	0.025
893	0.023
893	0.022
893	0.022
894	0.021
894	0.02
895	0.02
895	0.019
895	0.019
896	0.019
896	0.019
897	0.019
897	0.019
898	0.019
898	0.02
898	0.021
899	0.021
899	0.023
900	0.024
900	0.025
901	0.027
901	0.029
901	0.031
902	0.032
902	0.034
903	0.035
903	0.036
904	0.036
904	0.036
904	0.037
905	0.037
905	0.037
906	0.037
906	0.036
907	0.036
907	0.036
907	0.036
908	0.036
908	0.037
909	0.037
909	0.038
910	0.039
910	0.039
910	0.04
911	0.041
911	0.042
912	0.042
912	0.042
913	0.042
913	0.042
913	0.041
914	0.039
914	0.038
915	0.036
915	0.034
916	0.032
916	0.03
916	0.028
917	0.026
917	0.025
918	0.024
918	0.023
918	0.022
919	0.023
919	0.023
920	0.024
920	0.025
921	0.026
921	0.027
921	0.029
922	0.03
922	0.031
923	0.032
923	0.033
924	0.034
924	0.034
924	0.034
925	0.034
925	0.033
926	0.033
926	0.032
927	0.031
927	0.03
927	0.029
928	0.028
928	0.027
929	0.026
929	0.025
930	0.024
930	0.023
930	0.023
931	0.023
931	0.023
932	0.023
932	0.023
933	0.023
933	0.023
933	0.023
934	0.023
934	0.023
935	0.023
935	0.023
935	0.023
936	0.023
936	0.022
937	0.022
937	0.022
938	0.022
938	0.022
938	0.023
939	0.023
939	0.023
940	0.024
940	0.024
941	0.025
941	0.025
941	0.026
942	0.027
942	0.027
943	0.027
943	0.027
944	0.027
944	0.026
944	0.026
945	0.026
945	0.026
946	0.026
946	0.025
946	0.025
947	0.025
947	0.025
948	0.025
948	0.025
949	0.025
949	0.025
949	0.026
950	0.026
950	0.026
951	0.027
951	0.027
952	0.027
952	0.027
952	0.027
953	0.027
953	0.028
954	0.027
954	0.027
955	0.027
955	0.027
955	0.027
956	0.027
956	0.027
957	0.027
957	0.026
957	0.025
958	0.024
958	0.024
959	0.023
959	0.022
960	0.021
960	0.02
960	0.019
961	0.018
961	0.018
962	0.017
962	0.017
963	0.017
963	0.017
963	0.017
964	0.018
964	0.019
965	0.02
965	0.021
966	0.023
966	0.024
966	0.026
967	0.027
967	0.028
968	0.029
968	0.03
968	0.03
969	0.031
969	0.031
970	0.031
970	0.03
971	0.03
971	0.03
971	0.029
972	0.029
972	0.028
973	0.028
973	0.027
974	0.027
974	0.026
974	0.026
975	0.026
975	0.025
976	0.025
976	0.024
976	0.023
977	0.022
977	0.021
978	0.019
978	0.018
979	0.016
979	0.015
979	0.014
980	0.013
980	0.012
981	0.011
981	0.011
982	0.012
982	0.013
982	0.013
983	0.014
983	0.015
984	0.016
984	0.017
984	0.018
985	0.019
985	0.019
986	0.019
986	0.019
987	0.019
987	0.019
987	0.02
988	0.02
988	0.021
989	0.021
989	0.022
990	0.023
990	0.024
990	0.025
991	0.026
991	0.027
992	0.028
992	0.028
992	0.028
993	0.029
993	0.029
994	0.029
994	0.028
995	0.028
995	0.027
995	0.027
996	0.026
996	0.025
997	0.024
997	0.024
997	0.024
998	0.024
998	0.024
999	0.025
999	0.025
1000	0.025
1000	0.026
1000	0.026
1001	0.026
1001	0.027
1002	0.027
1002	0.027
1003	0.027
1003	0.026
1003	0.026
1004	0.026
1004	0.025
1005	0.024
1005	0.024
1005	0.023
1006	0.022
1006	0.022
1007	0.021
1007	0.02
1008	0.019
1008	0.019
1008	0.018
1009	0.018
1009	0.017
1010	0.017
1010	0.017
1010	0.016
1011	0.016
1011	0.015
1012	0.015
1012	0.014
1013	0.013
1013	0.012
1013	0.011
1014	0.01
1014	0.009
1015	0.009
1015	0.008
1016	0.007
1016	0.006
1016	0.005
1017	0.004
1017	0.004
1018	0.003
1018	0.003
1018	0.003
1019	0.002
1019	0.002
1020	0.001
1020	0.001
1021	0.001
1021	0.001
1021	0.001
1022	0.001
1022	0.001
1023	0.001
1023	0.002
1023	0.002
1024	0.002
1024	0.002
1025	0.002
1025	0.003
1026	0.003
1026	0.003
1026	0.004
1027	0.004
1027	0.005
1028	0.006
1028	0.007
1028	0.007
1029	0.008
1029	0.009
1030	0.009
1030	0.01
1031	0.01
1031	0.011
1031	0.011
1032	0.01
1032	0.01
1033	0.01
1033	0.009
1033	0.008
1034	0.007
1034	0.006
1035	0.005
1035	0.004
1036	0.003
1036	0.003
1036	0.002
1037	0.002
1037	0.002
1038	0.002
1038	0.003
1039	0.003
1039	0.004
1039	0.005
1040	0.005
1040	0.006
1041	0.006
1041	0.005
1041	0.005
1042	0.004
1042	0.004
1043	0.003
1043	0.002
1044	0.001
1044	0
1044	0
1045	-0.001
1045	-0.001
1046	-0.002
1046	-0.002
1046	-0.002
1047	-0.001
1047	-0
1048	-0
1048	0
1049	0
1049	0
1049	-0
1050	-0
1050	-0.001
1051	-0.001
1051	-0.001
1051	-0.002
1052	-0.002
1052	-0.002
1053	-0.002
1053	-0.002
1053	-0.003
1054	-0.003
1054	-0.002
1055	-0.002
1055	-0.002
1056	-0.003
1056	-0.003
1056	-0.004
1057	-0.005
1057	-0.005
1058	-0.005
1058	-0.006
1058	-0.005
1059	-0.005
1059	-0.006
1060	-0.005
1060	-0.004
1061	-0.003
1061	-0.001
1061	-0
1062	0
1062	0.001
1063	0.002
1063	0.002
1063	0.003
1064	0.004
1064	0.004
1065	0.005
1065	0.005
1066	0.006
1066	0.006
1066	0.007
1067	0.007
1067	0.007
1068	0.007
1068	0.007
1068	0.007
1069	0.006
1069	0.006
1070	0.006
1070	0.005
1071	0.005
1071	0.006
1071	0.005
1072	0.006
1072	0.006
1073	0.006
1073	0.007
1073	0.008
1074	0.008
1074	0.009
1075	0.009
1075	0.01
1076	0.009
1076	0.01
1076	0.009
1077	0.009
1077	0.01
1078	0.009
1078	0.01
1078	0.011
1079	0.012
1079	0.014
1080	0.015
1080	0.016
1080	0.017
1081	0.018
1081	0.02
1082	0.022
1082	0.023
1083	0.024
1083	0.025
1083	0.026
1084	0.027
1084	0.029
1085	0.031
1085	0.032
1085	0.034
1086	0.035
1086	0.036
1087	0.037
1087	0.039
1088	0.04
1088	0.041
1088	0.042
1089	0.042
1089	0.043
1090	0.045
1090	0.047
1090	0.048
1091	0.05
1091	0.053
1092	0.055
1092	0.058
1092	0.061
1093	0.064
1093	0.069
1094	0.073
1094	0.076
1095	0.079
1095	0.084
1095	0.091
1096	0.096
1096	0.101
1097	0.108
1097	0.115
1097	0.122
1098	0.128
1098	0.135
1099	0.144
1099	0.153
1100	0.163
1100	0.172
1100	0.182
1101	0.194
1101	0.206
1102	0.221
1102	0.237
1102	0.256
1103	0.275
1103	0.297
1104	0.322
1104	0.35
1104	0.386
1105	0.422
1105	0.461
1106	0.503
1106	0.564
1107	0.635
1107	0.752
1107	0.949
1108	-0
1108	-0
1109	-0
1109	-0
1109	-0
1110	-0
1110	-0
1111	-0
1111	-0
