Data from 15c-2a_Absorbance__429__02230.txt Node

Date: Wed Jan 17 11:24:04 CET 2024
User: Marek
Spectrometer: MAYP115816
Trigger mode: 0
Integration Time (sec): 2.000000E-1
Scans to average: 10
Electric dark correction enabled: true
Nonlinearity correction enabled: true
Boxcar width: 5
XAxis mode: Wavelengths
Number of Pixels in Spectrum: 2068
>>>>>Begin Spectral Data<<<<<
199	-1.622
199	-1.485
200	-1.326
200	-1.203
201	-1.127
201	-1.08
202	-1.011
202	-0.961
203	-0.916
203	-0.877
204	-0.852
204	-0.829
205	-0.805
205	-0.795
205	-0.795
206	-0.794
206	-0.791
207	-0.788
207	-0.784
208	-0.782
208	-0.783
209	-0.778
209	-0.777
210	-0.777
210	-0.778
211	-0.776
211	-0.776
212	-0.777
212	-0.776
213	-0.776
213	-0.775
213	-0.774
214	-0.773
214	-0.773
215	-0.772
215	-0.771
216	-0.771
216	-0.768
217	-0.763
217	-0.761
218	-0.761
218	-0.757
219	-0.754
219	-0.754
220	-0.75
220	-0.748
221	-0.743
221	-0.74
221	-0.736
222	-0.732
222	-0.728
223	-0.722
223	-0.719
224	-0.714
224	-0.706
225	-0.698
225	-0.69
226	-0.682
226	-0.669
227	-0.656
227	-0.644
228	-0.628
228	-0.61
229	-0.589
229	-0.564
229	-0.537
230	-0.508
230	-0.477
231	-0.441
231	-0.404
232	-0.366
232	-0.324
233	-0.281
233	-0.237
234	-0.193
234	-0.15
235	-0.108
235	-0.067
236	-0.027
236	0.011
236	0.047
237	0.082
237	0.114
238	0.144
238	0.171
239	0.197
239	0.22
240	0.242
240	0.261
241	0.279
241	0.295
242	0.309
242	0.322
243	0.334
243	0.344
243	0.354
244	0.363
244	0.37
245	0.378
245	0.384
246	0.391
246	0.396
247	0.401
247	0.406
248	0.41
248	0.415
249	0.419
249	0.422
250	0.426
250	0.429
250	0.432
251	0.435
251	0.438
252	0.44
252	0.443
253	0.445
253	0.447
254	0.448
254	0.45
255	0.451
255	0.453
256	0.454
256	0.455
257	0.456
257	0.457
258	0.457
258	0.457
258	0.458
259	0.458
259	0.458
260	0.458
260	0.458
261	0.458
261	0.458
262	0.457
262	0.457
263	0.456
263	0.456
264	0.455
264	0.454
265	0.454
265	0.452
265	0.451
266	0.451
266	0.449
267	0.448
267	0.446
268	0.445
268	0.443
269	0.441
269	0.44
270	0.438
270	0.436
271	0.434
271	0.432
272	0.43
272	0.428
272	0.426
273	0.424
273	0.422
274	0.42
274	0.418
275	0.416
275	0.414
276	0.412
276	0.41
277	0.408
277	0.405
278	0.403
278	0.401
278	0.399
279	0.396
279	0.393
280	0.39
280	0.388
281	0.386
281	0.383
282	0.381
282	0.378
283	0.377
283	0.375
284	0.373
284	0.371
285	0.37
285	0.368
285	0.366
286	0.364
286	0.363
287	0.361
287	0.359
288	0.358
288	0.356
289	0.354
289	0.353
290	0.351
290	0.35
291	0.348
291	0.347
292	0.345
292	0.344
292	0.342
293	0.341
293	0.34
294	0.338
294	0.337
295	0.336
295	0.335
296	0.334
296	0.333
297	0.332
297	0.331
298	0.33
298	0.329
298	0.328
299	0.327
299	0.326
300	0.326
300	0.325
301	0.324
301	0.323
302	0.322
302	0.321
303	0.32
303	0.32
304	0.319
304	0.318
305	0.317
305	0.316
305	0.315
306	0.314
306	0.313
307	0.313
307	0.312
308	0.311
308	0.31
309	0.309
309	0.308
310	0.307
310	0.307
311	0.306
311	0.305
311	0.305
312	0.304
312	0.303
313	0.302
313	0.301
314	0.3
314	0.299
315	0.299
315	0.298
316	0.297
316	0.296
317	0.295
317	0.294
318	0.294
318	0.293
318	0.292
319	0.291
319	0.291
320	0.29
320	0.289
321	0.288
321	0.287
322	0.286
322	0.285
323	0.284
323	0.283
324	0.282
324	0.281
324	0.28
325	0.28
325	0.279
326	0.278
326	0.277
327	0.276
327	0.276
328	0.275
328	0.274
329	0.273
329	0.272
330	0.272
330	0.271
330	0.27
331	0.269
331	0.268
332	0.268
332	0.267
333	0.266
333	0.265
334	0.265
334	0.264
335	0.263
335	0.262
336	0.261
336	0.26
336	0.26
337	0.259
337	0.258
338	0.258
338	0.257
339	0.256
339	0.256
340	0.255
340	0.255
341	0.254
341	0.254
342	0.253
342	0.253
342	0.252
343	0.251
343	0.251
344	0.25
344	0.249
345	0.249
345	0.248
346	0.248
346	0.248
347	0.247
347	0.246
348	0.246
348	0.245
348	0.245
349	0.244
349	0.244
350	0.243
350	0.243
351	0.243
351	0.242
352	0.242
352	0.241
353	0.241
353	0.241
354	0.24
354	0.24
354	0.239
355	0.239
355	0.238
356	0.238
356	0.237
357	0.236
357	0.236
358	0.235
358	0.235
359	0.235
359	0.235
360	0.235
360	0.235
360	0.235
361	0.235
361	0.235
362	0.236
362	0.236
363	0.236
363	0.235
364	0.235
364	0.235
365	0.234
365	0.234
366	0.234
366	0.234
366	0.234
367	0.234
367	0.234
368	0.233
368	0.233
369	0.233
369	0.233
370	0.232
370	0.232
371	0.232
371	0.232
372	0.231
372	0.231
372	0.23
373	0.23
373	0.23
374	0.23
374	0.229
375	0.229
375	0.229
376	0.229
376	0.229
377	0.229
377	0.229
378	0.229
378	0.229
378	0.229
379	0.229
379	0.229
380	0.229
380	0.229
381	0.228
381	0.228
382	0.228
382	0.228
383	0.227
383	0.227
383	0.226
384	0.226
384	0.226
385	0.225
385	0.225
386	0.225
386	0.225
387	0.225
387	0.225
388	0.225
388	0.224
389	0.224
389	0.224
389	0.224
390	0.224
390	0.224
391	0.224
391	0.224
392	0.224
392	0.224
393	0.224
393	0.224
394	0.223
394	0.223
394	0.223
395	0.223
395	0.222
396	0.222
396	0.222
397	0.222
397	0.222
398	0.222
398	0.221
399	0.221
399	0.221
400	0.221
400	0.22
400	0.22
401	0.22
401	0.219
402	0.218
402	0.218
403	0.218
403	0.218
404	0.218
404	0.218
405	0.218
405	0.217
405	0.217
406	0.217
406	0.217
407	0.217
407	0.216
408	0.216
408	0.215
409	0.215
409	0.215
410	0.214
410	0.214
411	0.214
411	0.214
411	0.214
412	0.214
412	0.214
413	0.213
413	0.213
414	0.213
414	0.213
415	0.213
415	0.212
416	0.212
416	0.211
416	0.211
417	0.211
417	0.211
418	0.21
418	0.211
419	0.211
419	0.211
420	0.212
420	0.212
421	0.212
421	0.212
421	0.212
422	0.213
422	0.213
423	0.213
423	0.213
424	0.212
424	0.212
425	0.211
425	0.211
426	0.21
426	0.21
427	0.21
427	0.21
427	0.21
428	0.21
428	0.21
429	0.211
429	0.211
430	0.211
430	0.211
431	0.211
431	0.21
432	0.21
432	0.21
432	0.21
433	0.209
433	0.208
434	0.208
434	0.208
435	0.208
435	0.208
436	0.208
436	0.208
437	0.208
437	0.208
437	0.208
438	0.209
438	0.208
439	0.208
439	0.208
440	0.208
440	0.208
441	0.208
441	0.208
442	0.207
442	0.207
442	0.207
443	0.207
443	0.207
444	0.207
444	0.208
445	0.208
445	0.208
446	0.208
446	0.208
447	0.208
447	0.207
447	0.207
448	0.207
448	0.207
449	0.207
449	0.207
450	0.207
450	0.207
451	0.207
451	0.207
452	0.208
452	0.208
452	0.208
453	0.208
453	0.208
454	0.208
454	0.208
455	0.208
455	0.209
456	0.209
456	0.208
457	0.208
457	0.208
458	0.208
458	0.208
458	0.208
459	0.208
459	0.208
460	0.207
460	0.207
461	0.207
461	0.207
462	0.207
462	0.207
463	0.207
463	0.208
463	0.208
464	0.208
464	0.208
465	0.208
465	0.208
466	0.209
466	0.209
467	0.209
467	0.209
467	0.209
468	0.208
468	0.208
469	0.208
469	0.207
470	0.208
470	0.208
471	0.208
471	0.207
472	0.208
472	0.208
472	0.208
473	0.209
473	0.21
474	0.211
474	0.212
475	0.213
475	0.213
476	0.214
476	0.214
477	0.215
477	0.215
477	0.216
478	0.216
478	0.216
479	0.217
479	0.217
480	0.218
480	0.219
481	0.22
481	0.221
482	0.222
482	0.223
482	0.224
483	0.226
483	0.228
484	0.23
484	0.231
485	0.232
485	0.233
486	0.234
486	0.235
487	0.236
487	0.237
487	0.238
488	0.238
488	0.238
489	0.239
489	0.24
490	0.241
490	0.242
491	0.242
491	0.243
492	0.245
492	0.245
492	0.246
493	0.247
493	0.249
494	0.251
494	0.253
495	0.255
495	0.256
496	0.258
496	0.26
496	0.262
497	0.264
497	0.265
498	0.266
498	0.268
499	0.269
499	0.27
500	0.271
500	0.273
501	0.275
501	0.276
501	0.278
502	0.279
502	0.281
503	0.283
503	0.285
504	0.286
504	0.288
505	0.289
505	0.29
506	0.292
506	0.293
506	0.295
507	0.296
507	0.297
508	0.299
508	0.301
509	0.303
509	0.305
510	0.306
510	0.308
511	0.309
511	0.31
511	0.311
512	0.312
512	0.313
513	0.313
513	0.313
514	0.314
514	0.314
515	0.315
515	0.315
515	0.316
516	0.317
516	0.318
517	0.319
517	0.319
518	0.32
518	0.32
519	0.32
519	0.32
520	0.319
520	0.319
520	0.319
521	0.318
521	0.316
522	0.315
522	0.315
523	0.314
523	0.314
524	0.314
524	0.314
524	0.314
525	0.315
525	0.315
526	0.316
526	0.317
527	0.317
527	0.318
528	0.317
528	0.318
529	0.317
529	0.317
529	0.316
530	0.316
530	0.315
531	0.314
531	0.314
532	0.313
532	0.312
533	0.311
533	0.31
533	0.31
534	0.308
534	0.307
535	0.306
535	0.305
536	0.304
536	0.302
537	0.301
537	0.3
538	0.298
538	0.296
538	0.294
539	0.293
539	0.291
540	0.289
540	0.287
541	0.284
541	0.282
542	0.28
542	0.277
542	0.275
543	0.272
543	0.27
544	0.267
544	0.265
545	0.264
545	0.262
546	0.261
546	0.258
547	0.255
547	0.253
547	0.25
548	0.248
548	0.246
549	0.243
549	0.241
550	0.238
550	0.235
551	0.232
551	0.23
551	0.228
552	0.225
552	0.224
553	0.222
553	0.22
554	0.218
554	0.216
555	0.213
555	0.21
556	0.207
556	0.204
556	0.202
557	0.199
557	0.197
558	0.195
558	0.192
559	0.189
559	0.187
560	0.185
560	0.184
560	0.182
561	0.181
561	0.18
562	0.178
562	0.175
563	0.173
563	0.17
564	0.167
564	0.164
564	0.161
565	0.159
565	0.156
566	0.153
566	0.151
567	0.149
567	0.148
568	0.147
568	0.146
568	0.146
569	0.146
569	0.146
570	0.145
570	0.143
571	0.143
571	0.142
572	0.14
572	0.139
573	0.137
573	0.135
573	0.133
574	0.132
574	0.131
575	0.13
575	0.131
576	0.13
576	0.128
577	0.127
577	0.126
577	0.125
578	0.125
578	0.124
579	0.124
579	0.124
580	0.121
580	0.118
581	0.114
581	0.113
581	0.112
582	0.111
582	0.11
583	0.11
583	0.108
584	0.105
584	0.101
585	0.101
585	0.101
585	0.1
586	0.1
586	0.099
587	0.097
587	0.095
588	0.093
588	0.091
589	0.091
589	0.09
590	0.09
590	0.089
590	0.09
591	0.091
591	0.09
592	0.089
592	0.088
593	0.087
593	0.087
594	0.086
594	0.085
594	0.084
595	0.084
595	0.082
596	0.082
596	0.083
597	0.085
597	0.085
598	0.085
598	0.086
598	0.086
599	0.087
599	0.086
600	0.085
600	0.085
601	0.084
601	0.083
602	0.082
602	0.082
602	0.081
603	0.081
603	0.083
604	0.083
604	0.085
605	0.086
605	0.088
606	0.088
606	0.087
606	0.087
607	0.086
607	0.086
608	0.085
608	0.083
609	0.082
609	0.082
610	0.08
610	0.079
610	0.079
611	0.08
611	0.082
612	0.083
612	0.084
613	0.086
613	0.087
614	0.086
614	0.085
614	0.084
615	0.084
615	0.083
616	0.082
616	0.081
617	0.08
617	0.079
618	0.077
618	0.076
618	0.076
619	0.077
619	0.078
620	0.08
620	0.082
621	0.082
621	0.083
622	0.084
622	0.085
622	0.085
623	0.086
623	0.087
624	0.087
624	0.087
625	0.086
625	0.086
626	0.086
626	0.086
626	0.087
627	0.088
627	0.088
628	0.089
628	0.089
629	0.09
629	0.09
630	0.09
630	0.091
630	0.092
631	0.093
631	0.093
632	0.094
632	0.095
633	0.097
633	0.098
634	0.1
634	0.102
634	0.104
635	0.105
635	0.106
636	0.107
636	0.109
637	0.11
637	0.111
638	0.112
638	0.113
638	0.114
639	0.115
639	0.116
640	0.118
640	0.119
641	0.121
641	0.123
642	0.125
642	0.128
642	0.13
643	0.132
643	0.134
644	0.136
644	0.138
645	0.14
645	0.142
646	0.145
646	0.147
646	0.15
647	0.152
647	0.155
648	0.157
648	0.159
649	0.161
649	0.164
650	0.166
650	0.169
650	0.172
651	0.174
651	0.177
652	0.179
652	0.182
653	0.185
653	0.194
653	0.208
654	0.165
654	0.133
655	0.136
655	0.139
656	0.141
656	0.142
657	0.144
657	0.146
657	0.147
658	0.145
658	0.133
659	0.17
659	0.224
660	0.23
660	0.233
661	0.235
661	0.238
661	0.241
662	0.246
662	0.25
663	0.254
663	0.258
664	0.262
664	0.265
665	0.268
665	0.272
665	0.275
666	0.278
666	0.28
667	0.282
667	0.285
668	0.288
668	0.29
669	0.293
669	0.296
669	0.3
670	0.304
670	0.307
671	0.309
671	0.311
672	0.314
672	0.317
672	0.319
673	0.321
673	0.323
674	0.325
674	0.326
675	0.327
675	0.328
676	0.331
676	0.332
676	0.333
677	0.334
677	0.336
678	0.336
678	0.337
679	0.338
679	0.34
680	0.342
680	0.344
680	0.345
681	0.346
681	0.348
682	0.35
682	0.352
683	0.354
683	0.356
684	0.357
684	0.358
684	0.358
685	0.358
685	0.358
686	0.359
686	0.359
687	0.359
687	0.358
687	0.358
688	0.357
688	0.357
689	0.357
689	0.357
690	0.357
690	0.356
691	0.355
691	0.353
691	0.352
692	0.351
692	0.349
693	0.348
693	0.347
694	0.345
694	0.342
695	0.342
695	0.342
695	0.341
696	0.34
696	0.339
697	0.338
697	0.337
698	0.336
698	0.334
698	0.333
699	0.333
699	0.33
700	0.327
700	0.326
701	0.325
701	0.323
702	0.322
702	0.32
702	0.318
703	0.316
703	0.313
704	0.311
704	0.309
705	0.307
705	0.304
705	0.302
706	0.299
706	0.297
707	0.295
707	0.292
708	0.289
708	0.287
709	0.285
709	0.283
709	0.28
710	0.277
710	0.274
711	0.272
711	0.27
712	0.267
712	0.265
713	0.263
713	0.26
713	0.258
714	0.255
714	0.252
715	0.25
715	0.248
716	0.245
716	0.243
716	0.24
717	0.238
717	0.236
718	0.233
718	0.23
719	0.228
719	0.226
720	0.223
720	0.22
720	0.217
721	0.214
721	0.211
722	0.208
722	0.206
723	0.204
723	0.202
723	0.2
724	0.198
724	0.195
725	0.193
725	0.191
726	0.189
726	0.187
727	0.185
727	0.183
727	0.18
728	0.178
728	0.175
729	0.174
729	0.173
730	0.17
730	0.168
730	0.166
731	0.165
731	0.163
732	0.161
732	0.159
733	0.157
733	0.155
734	0.153
734	0.15
734	0.149
735	0.147
735	0.145
736	0.143
736	0.142
737	0.14
737	0.139
737	0.138
738	0.135
738	0.132
739	0.129
739	0.127
740	0.123
740	0.121
741	0.118
741	0.115
741	0.111
742	0.107
742	0.104
743	0.102
743	0.1
744	0.098
744	0.097
744	0.095
745	0.093
745	0.09
746	0.089
746	0.087
747	0.086
747	0.085
748	0.083
748	0.082
748	0.08
749	0.078
749	0.077
750	0.076
750	0.075
751	0.075
751	0.075
751	0.076
752	0.076
752	0.075
753	0.075
753	0.075
754	0.075
754	0.074
754	0.074
755	0.074
755	0.074
756	0.073
756	0.07
757	0.069
757	0.068
758	0.067
758	0.065
758	0.064
759	0.063
759	0.06
760	0.058
760	0.055
761	0.053
761	0.052
761	0.05
762	0.048
762	0.047
763	0.046
763	0.044
764	0.041
764	0.039
764	0.037
765	0.036
765	0.034
766	0.033
766	0.032
767	0.032
767	0.029
768	0.027
768	0.026
768	0.025
769	0.024
769	0.022
770	0.021
770	0.019
771	0.016
771	0.013
771	0.011
772	0.009
772	0.007
773	0.005
773	0.003
774	0.001
774	-0.002
775	-0.004
775	-0.006
775	-0.009
776	-0.012
776	-0.014
777	-0.017
777	-0.02
778	-0.023
778	-0.026
778	-0.029
779	-0.031
779	-0.033
780	-0.037
780	-0.041
781	-0.044
781	-0.049
781	-0.054
782	-0.059
782	-0.065
783	-0.071
783	-0.076
784	-0.083
784	-0.09
784	-0.096
785	-0.102
785	-0.109
786	-0.114
786	-0.118
787	-0.119
787	-0.122
788	-0.127
788	-0.133
788	-0.138
789	-0.143
789	-0.146
790	-0.146
790	-0.148
791	-0.15
791	-0.152
791	-0.155
792	-0.15
792	-0.139
793	-0.133
793	-0.129
794	-0.127
794	-0.129
794	-0.134
795	-0.136
795	-0.136
796	-0.137
796	-0.14
797	-0.149
797	-0.16
797	-0.166
798	-0.172
798	-0.174
799	-0.175
799	-0.174
800	-0.173
800	-0.175
801	-0.178
801	-0.178
801	-0.179
802	-0.18
802	-0.181
803	-0.182
803	-0.183
804	-0.181
804	-0.176
804	-0.17
805	-0.166
805	-0.164
806	-0.162
806	-0.161
807	-0.16
807	-0.159
807	-0.159
808	-0.159
808	-0.16
809	-0.165
809	-0.171
810	-0.175
810	-0.178
810	-0.181
811	-0.185
811	-0.185
812	-0.181
812	-0.178
813	-0.178
813	-0.179
813	-0.179
814	-0.18
814	-0.179
815	-0.176
815	-0.172
816	-0.168
816	-0.165
817	-0.164
817	-0.161
817	-0.154
818	-0.146
818	-0.136
819	-0.126
819	-0.117
820	-0.11
820	-0.102
820	-0.094
821	-0.086
821	-0.08
822	-0.074
822	-0.068
823	-0.064
823	-0.06
823	-0.057
824	-0.053
824	-0.049
825	-0.045
825	-0.041
826	-0.038
826	-0.037
826	-0.035
827	-0.033
827	-0.033
828	-0.032
828	-0.031
829	-0.03
829	-0.03
829	-0.03
830	-0.03
830	-0.029
831	-0.027
831	-0.025
832	-0.024
832	-0.021
832	-0.02
833	-0.017
833	-0.015
834	-0.013
834	-0.011
835	-0.009
835	-0.008
835	-0.006
836	-0.004
836	-0.003
837	-0.002
837	-0.001
838	-0
838	0.001
839	0.001
839	0.001
839	0.001
840	0.001
840	0.001
841	0
841	0
842	0
842	0
842	0.001
843	0.001
843	0.001
844	0.002
844	0.002
845	0.003
845	0.004
845	0.005
846	0.005
846	0.006
847	0.006
847	0.006
848	0.006
848	0.006
848	0.006
849	0.006
849	0.006
850	0.006
850	0.005
851	0.005
851	0.005
851	0.005
852	0.005
852	0.006
853	0.006
853	0.007
854	0.007
854	0.008
854	0.008
855	0.008
855	0.008
856	0.007
856	0.007
857	0.007
857	0.006
857	0.005
858	0.005
858	0.004
859	0.002
859	0.002
860	0.001
860	0.001
860	0.001
861	0.001
861	0.002
862	0.001
862	0.001
863	0.001
863	0.001
863	0.002
864	0.002
864	0.002
865	0.003
865	0.004
866	0.004
866	0.005
866	0.006
867	0.008
867	0.009
868	0.011
868	0.012
869	0.014
869	0.015
869	0.015
870	0.016
870	0.016
871	0.016
871	0.016
872	0.015
872	0.014
872	0.013
873	0.012
873	0.011
874	0.01
874	0.01
875	0.009
875	0.009
875	0.009
876	0.008
876	0.008
877	0.008
877	0.008
878	0.008
878	0.009
878	0.009
879	0.009
879	0.009
880	0.009
880	0.009
881	0.009
881	0.009
881	0.009
882	0.009
882	0.009
883	0.008
883	0.008
884	0.008
884	0.008
884	0.009
885	0.009
885	0.009
886	0.01
886	0.01
887	0.01
887	0.01
887	0.01
888	0.009
888	0.009
889	0.009
889	0.008
890	0.008
890	0.007
890	0.006
891	0.005
891	0.004
892	0.003
892	0.002
893	0
893	-0
893	-0.001
894	-0.001
894	-0.002
895	-0.002
895	-0.002
895	-0.002
896	-0.002
896	-0.002
897	-0.001
897	-0.001
898	-0.001
898	-0
898	0.001
899	0.001
899	0.002
900	0.003
900	0.004
901	0.005
901	0.006
901	0.007
902	0.008
902	0.009
903	0.01
903	0.01
904	0.009
904	0.009
904	0.009
905	0.009
905	0.009
906	0.008
906	0.008
907	0.007
907	0.007
907	0.006
908	0.006
908	0.007
909	0.007
909	0.007
910	0.008
910	0.009
910	0.009
911	0.01
911	0.011
912	0.012
912	0.013
913	0.013
913	0.013
913	0.013
914	0.013
914	0.012
915	0.011
915	0.009
916	0.008
916	0.006
916	0.005
917	0.003
917	0.002
918	0.001
918	-0
918	-0.001
919	-0.001
919	-0
920	0
920	0.001
921	0.001
921	0.002
921	0.003
922	0.003
922	0.004
923	0.005
923	0.005
924	0.006
924	0.006
924	0.005
925	0.004
925	0.003
926	0.002
926	0.001
927	-0
927	-0.002
927	-0.003
928	-0.004
928	-0.005
929	-0.006
929	-0.007
930	-0.007
930	-0.007
930	-0.006
931	-0.006
931	-0.006
932	-0.005
932	-0.005
933	-0.004
933	-0.004
933	-0.003
934	-0.003
934	-0.003
935	-0.003
935	-0.003
935	-0.003
936	-0.003
936	-0.003
937	-0.003
937	-0.003
938	-0.003
938	-0.003
938	-0.003
939	-0.003
939	-0.003
940	-0.002
940	-0.002
941	-0.001
941	-0.001
941	-0
942	0
942	0
943	0
943	-0
944	-0.001
944	-0.001
944	-0.002
945	-0.002
945	-0.003
946	-0.003
946	-0.004
946	-0.004
947	-0.004
947	-0.004
948	-0.004
948	-0.004
949	-0.004
949	-0.003
949	-0.003
950	-0.003
950	-0.002
951	-0.001
951	-0.001
952	-0.001
952	0
952	0.001
953	0.002
953	0.002
954	0.003
954	0.003
955	0.003
955	0.003
955	0.003
956	0.004
956	0.004
957	0.003
957	0.002
957	0.002
958	0.001
958	0
959	-0
959	-0.001
960	-0.001
960	-0.002
960	-0.003
961	-0.003
961	-0.003
962	-0.004
962	-0.004
963	-0.003
963	-0.003
963	-0.002
964	-0.001
964	-0
965	0.001
965	0.002
966	0.003
966	0.005
966	0.006
967	0.007
967	0.008
968	0.009
968	0.009
968	0.009
969	0.009
969	0.009
970	0.009
970	0.008
971	0.007
971	0.007
971	0.006
972	0.006
972	0.005
973	0.005
973	0.004
974	0.004
974	0.003
974	0.003
975	0.002
975	0.002
976	0.001
976	0.001
976	-0
977	-0.001
977	-0.003
978	-0.004
978	-0.005
979	-0.005
979	-0.006
979	-0.007
980	-0.007
980	-0.008
981	-0.009
981	-0.009
982	-0.008
982	-0.008
982	-0.008
983	-0.008
983	-0.008
984	-0.007
984	-0.007
984	-0.007
985	-0.007
985	-0.007
986	-0.007
986	-0.008
987	-0.008
987	-0.007
987	-0.007
988	-0.006
988	-0.006
989	-0.005
989	-0.004
990	-0.003
990	-0.002
990	-0
991	0.001
991	0.002
992	0.003
992	0.004
992	0.004
993	0.005
993	0.005
994	0.005
994	0.004
995	0.004
995	0.004
995	0.003
996	0.003
996	0.002
997	0.002
997	0.002
997	0.002
998	0.002
998	0.003
999	0.003
999	0.004
1000	0.004
1000	0.005
1000	0.005
1001	0.006
1001	0.006
1002	0.006
1002	0.006
1003	0.006
1003	0.006
1003	0.006
1004	0.005
1004	0.004
1005	0.004
1005	0.003
1005	0.002
1006	0
1006	-0.001
1007	-0.002
1007	-0.003
1008	-0.004
1008	-0.006
1008	-0.007
1009	-0.007
1009	-0.008
1010	-0.009
1010	-0.009
1010	-0.01
1011	-0.011
1011	-0.011
1012	-0.012
1012	-0.012
1013	-0.013
1013	-0.014
1013	-0.015
1014	-0.015
1014	-0.016
1015	-0.017
1015	-0.017
1016	-0.018
1016	-0.018
1016	-0.019
1017	-0.019
1017	-0.019
1018	-0.019
1018	-0.019
1018	-0.019
1019	-0.019
1019	-0.019
1020	-0.02
1020	-0.02
1021	-0.02
1021	-0.02
1021	-0.019
1022	-0.019
1022	-0.019
1023	-0.019
1023	-0.019
1023	-0.019
1024	-0.019
1024	-0.019
1025	-0.019
1025	-0.019
1026	-0.019
1026	-0.019
1026	-0.019
1027	-0.019
1027	-0.019
1028	-0.018
1028	-0.018
1028	-0.018
1029	-0.017
1029	-0.016
1030	-0.016
1030	-0.016
1031	-0.015
1031	-0.015
1031	-0.015
1032	-0.015
1032	-0.015
1033	-0.015
1033	-0.016
1033	-0.017
1034	-0.018
1034	-0.019
1035	-0.02
1035	-0.021
1036	-0.021
1036	-0.022
1036	-0.022
1037	-0.022
1037	-0.022
1038	-0.023
1038	-0.022
1039	-0.021
1039	-0.021
1039	-0.02
1040	-0.02
1040	-0.02
1041	-0.02
1041	-0.02
1041	-0.02
1042	-0.021
1042	-0.021
1043	-0.022
1043	-0.023
1044	-0.024
1044	-0.024
1044	-0.024
1045	-0.025
1045	-0.025
1046	-0.026
1046	-0.026
1046	-0.026
1047	-0.026
1047	-0.026
1048	-0.025
1048	-0.025
1049	-0.025
1049	-0.026
1049	-0.027
1050	-0.028
1050	-0.028
1051	-0.029
1051	-0.029
1051	-0.03
1052	-0.03
1052	-0.031
1053	-0.032
1053	-0.032
1053	-0.032
1054	-0.032
1054	-0.031
1055	-0.03
1055	-0.03
1056	-0.031
1056	-0.031
1056	-0.032
1057	-0.032
1057	-0.032
1058	-0.033
1058	-0.033
1058	-0.033
1059	-0.033
1059	-0.034
1060	-0.034
1060	-0.033
1061	-0.032
1061	-0.031
1061	-0.03
1062	-0.029
1062	-0.029
1063	-0.029
1063	-0.028
1063	-0.028
1064	-0.027
1064	-0.027
1065	-0.027
1065	-0.027
1066	-0.027
1066	-0.028
1066	-0.027
1067	-0.028
1067	-0.028
1068	-0.029
1068	-0.029
1068	-0.03
1069	-0.031
1069	-0.032
1070	-0.032
1070	-0.033
1071	-0.034
1071	-0.034
1071	-0.035
1072	-0.036
1072	-0.036
1073	-0.037
1073	-0.037
1073	-0.037
1074	-0.037
1074	-0.037
1075	-0.038
1075	-0.038
1076	-0.038
1076	-0.038
1076	-0.039
1077	-0.039
1077	-0.039
1078	-0.04
1078	-0.039
1078	-0.038
1079	-0.037
1079	-0.036
1080	-0.036
1080	-0.035
1080	-0.035
1081	-0.034
1081	-0.032
1082	-0.032
1082	-0.032
1083	-0.032
1083	-0.032
1083	-0.032
1084	-0.032
1084	-0.031
1085	-0.03
1085	-0.03
1085	-0.029
1086	-0.029
1086	-0.029
1087	-0.028
1087	-0.028
1088	-0.029
1088	-0.029
1088	-0.029
1089	-0.03
1089	-0.03
1090	-0.031
1090	-0.031
1090	-0.031
1091	-0.032
1091	-0.031
1092	-0.032
1092	-0.03
1092	-0.029
1093	-0.028
1093	-0.025
1094	-0.024
1094	-0.022
1095	-0.021
1095	-0.02
1095	-0.016
1096	-0.014
1096	-0.012
1097	-0.01
1097	-0.009
1097	-0.008
1098	-0.007
1098	-0.006
1099	-0.004
1099	-0.002
1100	0
1100	0.001
1100	0.003
1101	0.005
1101	0.007
1102	0.011
1102	0.014
1102	0.017
1103	0.021
1103	0.026
1104	0.032
1104	0.038
1104	0.046
1105	0.052
1105	0.057
1106	0.06
1106	0.068
1107	0.074
1107	0.086
1107	0.099
1108	0.146
1108	0.212
1109	0.31
1109	0.486
1109	0.65
1110	1.183
1110	-0
1111	-0
1111	-0
