Data from 15c-2a_Absorbance__79__01880.txt Node

Date: Wed Jan 17 11:12:24 CET 2024
User: Marek
Spectrometer: MAYP115816
Trigger mode: 0
Integration Time (sec): 2.000000E-1
Scans to average: 10
Electric dark correction enabled: true
Nonlinearity correction enabled: true
Boxcar width: 5
XAxis mode: Wavelengths
Number of Pixels in Spectrum: 2068
>>>>>Begin Spectral Data<<<<<
199	-1.951
199	-1.806
200	-1.643
200	-1.516
201	-1.437
201	-1.387
202	-1.312
202	-1.256
203	-1.206
203	-1.162
204	-1.135
204	-1.11
205	-1.086
205	-1.075
205	-1.074
206	-1.073
206	-1.068
207	-1.067
207	-1.062
208	-1.06
208	-1.06
209	-1.056
209	-1.054
210	-1.053
210	-1.054
211	-1.052
211	-1.051
212	-1.051
212	-1.05
213	-1.049
213	-1.048
213	-1.047
214	-1.046
214	-1.044
215	-1.043
215	-1.042
216	-1.042
216	-1.039
217	-1.034
217	-1.032
218	-1.031
218	-1.027
219	-1.024
219	-1.024
220	-1.02
220	-1.017
221	-1.012
221	-1.008
221	-1.004
222	-1
222	-0.995
223	-0.989
223	-0.986
224	-0.98
224	-0.972
225	-0.963
225	-0.956
226	-0.947
226	-0.934
227	-0.921
227	-0.908
228	-0.891
228	-0.872
229	-0.85
229	-0.826
229	-0.799
230	-0.769
230	-0.736
231	-0.7
231	-0.662
232	-0.622
232	-0.58
233	-0.534
233	-0.487
234	-0.441
234	-0.395
235	-0.349
235	-0.303
236	-0.259
236	-0.217
236	-0.176
237	-0.137
237	-0.1
238	-0.065
238	-0.033
239	-0.002
239	0.025
240	0.051
240	0.075
241	0.097
241	0.117
242	0.134
242	0.151
243	0.166
243	0.18
243	0.192
244	0.204
244	0.215
245	0.224
245	0.233
246	0.241
246	0.248
247	0.255
247	0.262
248	0.267
248	0.273
249	0.278
249	0.283
250	0.287
250	0.292
250	0.296
251	0.299
251	0.303
252	0.306
252	0.309
253	0.312
253	0.315
254	0.317
254	0.319
255	0.321
255	0.323
256	0.325
256	0.326
257	0.328
257	0.329
258	0.33
258	0.331
258	0.331
259	0.332
259	0.332
260	0.333
260	0.333
261	0.333
261	0.334
262	0.334
262	0.334
263	0.334
263	0.334
264	0.333
264	0.333
265	0.333
265	0.332
265	0.332
266	0.331
266	0.33
267	0.33
267	0.329
268	0.328
268	0.327
269	0.326
269	0.325
270	0.324
270	0.323
271	0.321
271	0.32
272	0.319
272	0.317
272	0.316
273	0.315
273	0.313
274	0.312
274	0.311
275	0.31
275	0.308
276	0.307
276	0.305
277	0.304
277	0.303
278	0.301
278	0.299
278	0.297
279	0.295
279	0.293
280	0.292
280	0.291
281	0.289
281	0.288
282	0.286
282	0.285
283	0.284
283	0.283
284	0.282
284	0.281
285	0.281
285	0.279
285	0.278
286	0.277
286	0.276
287	0.275
287	0.275
288	0.274
288	0.273
289	0.272
289	0.271
290	0.27
290	0.269
291	0.268
291	0.267
292	0.266
292	0.266
292	0.265
293	0.264
293	0.263
294	0.262
294	0.262
295	0.261
295	0.261
296	0.26
296	0.259
297	0.259
297	0.258
298	0.258
298	0.257
298	0.256
299	0.256
299	0.256
300	0.255
300	0.254
301	0.254
301	0.254
302	0.253
302	0.252
303	0.252
303	0.252
304	0.251
304	0.251
305	0.25
305	0.25
305	0.249
306	0.248
306	0.248
307	0.247
307	0.247
308	0.246
308	0.246
309	0.245
309	0.245
310	0.244
310	0.243
311	0.243
311	0.242
311	0.242
312	0.241
312	0.241
313	0.24
313	0.24
314	0.239
314	0.239
315	0.238
315	0.238
316	0.237
316	0.236
317	0.236
317	0.235
318	0.234
318	0.234
318	0.233
319	0.232
319	0.232
320	0.231
320	0.23
321	0.23
321	0.229
322	0.228
322	0.227
323	0.227
323	0.226
324	0.225
324	0.225
324	0.224
325	0.223
325	0.223
326	0.222
326	0.222
327	0.221
327	0.22
328	0.22
328	0.219
329	0.218
329	0.218
330	0.217
330	0.217
330	0.216
331	0.215
331	0.214
332	0.214
332	0.213
333	0.212
333	0.211
334	0.211
334	0.21
335	0.209
335	0.208
336	0.208
336	0.207
336	0.206
337	0.206
337	0.205
338	0.204
338	0.204
339	0.203
339	0.203
340	0.202
340	0.202
341	0.201
341	0.201
342	0.2
342	0.2
342	0.199
343	0.199
343	0.198
344	0.198
344	0.197
345	0.197
345	0.196
346	0.196
346	0.195
347	0.195
347	0.194
348	0.194
348	0.193
348	0.193
349	0.192
349	0.191
350	0.19
350	0.19
351	0.189
351	0.189
352	0.188
352	0.188
353	0.187
353	0.187
354	0.186
354	0.185
354	0.185
355	0.184
355	0.183
356	0.182
356	0.182
357	0.181
357	0.181
358	0.18
358	0.18
359	0.181
359	0.181
360	0.181
360	0.182
360	0.182
361	0.182
361	0.183
362	0.183
362	0.183
363	0.183
363	0.183
364	0.183
364	0.183
365	0.182
365	0.182
366	0.182
366	0.182
366	0.181
367	0.181
367	0.181
368	0.181
368	0.18
369	0.18
369	0.18
370	0.179
370	0.179
371	0.179
371	0.179
372	0.178
372	0.178
372	0.178
373	0.178
373	0.177
374	0.178
374	0.177
375	0.177
375	0.177
376	0.177
376	0.177
377	0.177
377	0.177
378	0.178
378	0.178
378	0.178
379	0.178
379	0.178
380	0.178
380	0.178
381	0.178
381	0.178
382	0.178
382	0.177
383	0.177
383	0.177
383	0.176
384	0.176
384	0.176
385	0.176
385	0.176
386	0.176
386	0.176
387	0.176
387	0.176
388	0.176
388	0.176
389	0.176
389	0.176
389	0.176
390	0.176
390	0.176
391	0.176
391	0.176
392	0.176
392	0.176
393	0.176
393	0.176
394	0.175
394	0.175
394	0.175
395	0.175
395	0.174
396	0.174
396	0.174
397	0.174
397	0.175
398	0.175
398	0.175
399	0.175
399	0.175
400	0.174
400	0.174
400	0.173
401	0.173
401	0.172
402	0.171
402	0.171
403	0.17
403	0.17
404	0.171
404	0.17
405	0.17
405	0.17
405	0.17
406	0.169
406	0.169
407	0.169
407	0.169
408	0.169
408	0.168
409	0.168
409	0.168
410	0.167
410	0.167
411	0.167
411	0.167
411	0.167
412	0.167
412	0.166
413	0.166
413	0.166
414	0.166
414	0.165
415	0.165
415	0.165
416	0.164
416	0.164
416	0.164
417	0.164
417	0.164
418	0.164
418	0.164
419	0.165
419	0.165
420	0.166
420	0.166
421	0.167
421	0.167
421	0.167
422	0.167
422	0.168
423	0.168
423	0.168
424	0.167
424	0.166
425	0.165
425	0.165
426	0.164
426	0.164
427	0.164
427	0.164
427	0.164
428	0.164
428	0.164
429	0.165
429	0.165
430	0.165
430	0.165
431	0.165
431	0.165
432	0.164
432	0.164
432	0.163
433	0.162
433	0.161
434	0.16
434	0.16
435	0.16
435	0.161
436	0.161
436	0.161
437	0.161
437	0.161
437	0.162
438	0.162
438	0.162
439	0.162
439	0.161
440	0.161
440	0.161
441	0.161
441	0.161
442	0.161
442	0.161
442	0.161
443	0.161
443	0.161
444	0.161
444	0.162
445	0.162
445	0.162
446	0.162
446	0.162
447	0.162
447	0.162
447	0.161
448	0.161
448	0.161
449	0.161
449	0.16
450	0.16
450	0.16
451	0.16
451	0.159
452	0.159
452	0.159
452	0.159
453	0.159
453	0.158
454	0.158
454	0.158
455	0.158
455	0.158
456	0.158
456	0.158
457	0.158
457	0.158
458	0.158
458	0.158
458	0.158
459	0.158
459	0.158
460	0.157
460	0.156
461	0.156
461	0.155
462	0.155
462	0.155
463	0.155
463	0.155
463	0.156
464	0.156
464	0.156
465	0.156
465	0.156
466	0.156
466	0.156
467	0.156
467	0.156
467	0.155
468	0.154
468	0.153
469	0.152
469	0.151
470	0.151
470	0.151
471	0.15
471	0.15
472	0.15
472	0.15
472	0.15
473	0.151
473	0.152
474	0.152
474	0.153
475	0.154
475	0.155
476	0.155
476	0.155
477	0.155
477	0.155
477	0.155
478	0.155
478	0.155
479	0.155
479	0.156
480	0.156
480	0.156
481	0.157
481	0.158
482	0.159
482	0.16
482	0.161
483	0.163
483	0.165
484	0.167
484	0.168
485	0.169
485	0.17
486	0.17
486	0.171
487	0.171
487	0.172
487	0.172
488	0.172
488	0.171
489	0.17
489	0.17
490	0.17
490	0.169
491	0.169
491	0.17
492	0.17
492	0.17
492	0.17
493	0.171
493	0.172
494	0.173
494	0.175
495	0.176
495	0.177
496	0.179
496	0.18
496	0.181
497	0.182
497	0.183
498	0.184
498	0.185
499	0.185
499	0.185
500	0.186
500	0.187
501	0.188
501	0.189
501	0.19
502	0.191
502	0.193
503	0.194
503	0.195
504	0.196
504	0.196
505	0.197
505	0.197
506	0.198
506	0.198
506	0.199
507	0.199
507	0.2
508	0.2
508	0.201
509	0.202
509	0.203
510	0.204
510	0.205
511	0.206
511	0.206
511	0.207
512	0.207
512	0.207
513	0.207
513	0.207
514	0.207
514	0.207
515	0.207
515	0.207
515	0.207
516	0.207
516	0.207
517	0.208
517	0.208
518	0.209
518	0.209
519	0.209
519	0.208
520	0.207
520	0.206
520	0.206
521	0.204
521	0.202
522	0.201
522	0.199
523	0.198
523	0.197
524	0.197
524	0.197
524	0.197
525	0.198
525	0.199
526	0.2
526	0.202
527	0.204
527	0.205
528	0.206
528	0.208
529	0.208
529	0.209
529	0.21
530	0.21
530	0.21
531	0.211
531	0.211
532	0.211
532	0.211
533	0.212
533	0.212
533	0.212
534	0.212
534	0.212
535	0.211
535	0.211
536	0.211
536	0.211
537	0.212
537	0.211
538	0.211
538	0.21
538	0.209
539	0.209
539	0.208
540	0.208
540	0.207
541	0.205
541	0.204
542	0.203
542	0.201
542	0.2
543	0.199
543	0.198
544	0.197
544	0.196
545	0.196
545	0.196
546	0.196
546	0.196
547	0.195
547	0.193
547	0.191
548	0.19
548	0.188
549	0.187
549	0.186
550	0.184
550	0.183
551	0.181
551	0.18
551	0.179
552	0.179
552	0.179
553	0.179
553	0.179
554	0.178
554	0.177
555	0.176
555	0.174
556	0.172
556	0.17
556	0.168
557	0.167
557	0.165
558	0.164
558	0.163
559	0.162
559	0.161
560	0.161
560	0.161
560	0.161
561	0.161
561	0.162
562	0.161
562	0.16
563	0.159
563	0.158
564	0.156
564	0.153
564	0.152
565	0.15
565	0.149
566	0.147
566	0.146
567	0.146
567	0.146
568	0.147
568	0.148
568	0.149
569	0.151
569	0.153
570	0.154
570	0.154
571	0.155
571	0.156
572	0.156
572	0.156
573	0.156
573	0.155
573	0.154
574	0.154
574	0.153
575	0.153
575	0.154
576	0.155
576	0.154
577	0.153
577	0.152
577	0.152
578	0.152
578	0.152
579	0.152
579	0.153
580	0.152
580	0.149
581	0.146
581	0.145
581	0.144
582	0.143
582	0.143
583	0.143
583	0.143
584	0.14
584	0.136
585	0.134
585	0.134
585	0.134
586	0.134
586	0.133
587	0.131
587	0.129
588	0.127
588	0.125
589	0.124
589	0.123
590	0.123
590	0.122
590	0.123
591	0.124
591	0.124
592	0.124
592	0.123
593	0.123
593	0.122
594	0.122
594	0.12
594	0.119
595	0.118
595	0.116
596	0.115
596	0.115
597	0.117
597	0.118
598	0.119
598	0.12
598	0.121
599	0.122
599	0.122
600	0.121
600	0.12
601	0.119
601	0.118
602	0.116
602	0.116
602	0.115
603	0.114
603	0.115
604	0.115
604	0.116
605	0.118
605	0.12
606	0.12
606	0.119
606	0.119
607	0.118
607	0.117
608	0.116
608	0.114
609	0.112
609	0.111
610	0.11
610	0.108
610	0.108
611	0.109
611	0.11
612	0.111
612	0.112
613	0.114
613	0.115
614	0.114
614	0.113
614	0.112
615	0.111
615	0.11
616	0.109
616	0.107
617	0.106
617	0.104
618	0.102
618	0.1
618	0.099
619	0.098
619	0.099
620	0.1
620	0.101
621	0.101
621	0.102
622	0.102
622	0.102
622	0.102
623	0.102
623	0.102
624	0.103
624	0.102
625	0.1
625	0.1
626	0.099
626	0.099
626	0.099
627	0.1
627	0.1
628	0.1
628	0.1
629	0.1
629	0.1
630	0.1
630	0.099
630	0.1
631	0.1
631	0.1
632	0.1
632	0.1
633	0.1
633	0.101
634	0.102
634	0.104
634	0.106
635	0.107
635	0.108
636	0.109
636	0.109
637	0.11
637	0.11
638	0.111
638	0.112
638	0.112
639	0.112
639	0.112
640	0.113
640	0.114
641	0.115
641	0.116
642	0.118
642	0.119
642	0.12
643	0.121
643	0.123
644	0.124
644	0.126
645	0.127
645	0.129
646	0.131
646	0.134
646	0.136
647	0.139
647	0.142
648	0.144
648	0.146
649	0.148
649	0.151
650	0.153
650	0.155
650	0.157
651	0.159
651	0.161
652	0.162
652	0.164
653	0.166
653	0.174
653	0.19
654	0.152
654	0.124
655	0.127
655	0.128
656	0.13
656	0.131
657	0.133
657	0.134
657	0.135
658	0.132
658	0.118
659	0.15
659	0.194
660	0.198
660	0.199
661	0.201
661	0.203
661	0.205
662	0.208
662	0.211
663	0.214
663	0.217
664	0.22
664	0.222
665	0.225
665	0.227
665	0.23
666	0.232
666	0.234
667	0.235
667	0.237
668	0.239
668	0.241
669	0.243
669	0.246
669	0.25
670	0.253
670	0.256
671	0.258
671	0.259
672	0.261
672	0.263
672	0.264
673	0.265
673	0.267
674	0.268
674	0.268
675	0.268
675	0.269
676	0.27
676	0.272
676	0.273
677	0.275
677	0.277
678	0.278
678	0.28
679	0.281
679	0.283
680	0.285
680	0.286
680	0.287
681	0.287
681	0.288
682	0.289
682	0.29
683	0.292
683	0.294
684	0.295
684	0.296
684	0.296
685	0.296
685	0.297
686	0.298
686	0.299
687	0.299
687	0.299
687	0.299
688	0.298
688	0.297
689	0.298
689	0.299
690	0.298
690	0.297
691	0.297
691	0.296
691	0.295
692	0.294
692	0.293
693	0.292
693	0.292
694	0.291
694	0.289
695	0.289
695	0.291
695	0.292
696	0.291
696	0.291
697	0.29
697	0.29
698	0.289
698	0.288
698	0.288
699	0.287
699	0.286
700	0.283
700	0.282
701	0.282
701	0.281
702	0.28
702	0.279
702	0.278
703	0.277
703	0.275
704	0.274
704	0.273
705	0.272
705	0.271
705	0.269
706	0.268
706	0.266
707	0.265
707	0.262
708	0.26
708	0.258
709	0.257
709	0.255
709	0.252
710	0.249
710	0.247
711	0.246
711	0.245
712	0.243
712	0.242
713	0.241
713	0.24
713	0.239
714	0.237
714	0.235
715	0.233
715	0.231
716	0.229
716	0.227
716	0.225
717	0.223
717	0.222
718	0.22
718	0.218
719	0.217
719	0.216
720	0.214
720	0.212
720	0.211
721	0.209
721	0.207
722	0.205
722	0.203
723	0.201
723	0.2
723	0.199
724	0.197
724	0.195
725	0.192
725	0.19
726	0.188
726	0.187
727	0.184
727	0.183
727	0.181
728	0.179
728	0.177
729	0.177
729	0.176
730	0.174
730	0.173
730	0.172
731	0.17
731	0.169
732	0.168
732	0.167
733	0.165
733	0.163
734	0.161
734	0.159
734	0.157
735	0.157
735	0.156
736	0.154
736	0.153
737	0.152
737	0.152
737	0.151
738	0.148
738	0.145
739	0.143
739	0.14
740	0.137
740	0.134
741	0.132
741	0.128
741	0.124
742	0.119
742	0.116
743	0.114
743	0.112
744	0.11
744	0.109
744	0.107
745	0.105
745	0.104
746	0.102
746	0.101
747	0.1
747	0.1
748	0.1
748	0.099
748	0.098
749	0.096
749	0.096
750	0.095
750	0.095
751	0.095
751	0.095
751	0.096
752	0.095
752	0.094
753	0.094
753	0.093
754	0.093
754	0.092
754	0.093
755	0.093
755	0.093
756	0.092
756	0.089
757	0.088
757	0.088
758	0.086
758	0.085
758	0.084
759	0.083
759	0.08
760	0.078
760	0.074
761	0.072
761	0.071
761	0.07
762	0.068
762	0.067
763	0.067
763	0.064
764	0.062
764	0.059
764	0.057
765	0.054
765	0.052
766	0.05
766	0.049
767	0.047
767	0.043
768	0.039
768	0.037
768	0.034
769	0.033
769	0.031
770	0.029
770	0.027
771	0.024
771	0.02
771	0.016
772	0.013
772	0.009
773	0.006
773	0.002
774	-0.002
774	-0.006
775	-0.01
775	-0.014
775	-0.019
776	-0.024
776	-0.028
777	-0.033
777	-0.038
778	-0.042
778	-0.048
778	-0.052
779	-0.056
779	-0.059
780	-0.064
780	-0.07
781	-0.076
781	-0.084
781	-0.093
782	-0.102
782	-0.112
783	-0.122
783	-0.129
784	-0.136
784	-0.143
784	-0.149
785	-0.154
785	-0.159
786	-0.161
786	-0.158
787	-0.153
787	-0.149
788	-0.147
788	-0.148
788	-0.149
789	-0.152
789	-0.151
790	-0.148
790	-0.147
791	-0.147
791	-0.149
791	-0.152
792	-0.146
792	-0.136
793	-0.13
793	-0.126
794	-0.124
794	-0.126
794	-0.131
795	-0.133
795	-0.133
796	-0.134
796	-0.137
797	-0.146
797	-0.157
797	-0.163
798	-0.168
798	-0.171
799	-0.172
799	-0.171
800	-0.17
800	-0.172
801	-0.174
801	-0.175
801	-0.175
802	-0.177
802	-0.178
803	-0.179
803	-0.179
804	-0.178
804	-0.173
804	-0.167
805	-0.163
805	-0.161
806	-0.159
806	-0.158
807	-0.157
807	-0.156
807	-0.156
808	-0.156
808	-0.157
809	-0.162
809	-0.168
810	-0.172
810	-0.175
810	-0.178
811	-0.181
811	-0.182
812	-0.178
812	-0.175
813	-0.175
813	-0.175
813	-0.176
814	-0.176
814	-0.176
815	-0.172
815	-0.169
816	-0.166
816	-0.166
817	-0.17
817	-0.172
817	-0.172
818	-0.17
818	-0.165
819	-0.159
819	-0.154
820	-0.152
820	-0.148
820	-0.143
821	-0.135
821	-0.127
822	-0.117
822	-0.108
823	-0.099
823	-0.093
823	-0.086
824	-0.079
824	-0.071
825	-0.064
825	-0.056
826	-0.05
826	-0.045
826	-0.041
827	-0.036
827	-0.032
828	-0.028
828	-0.025
829	-0.022
829	-0.02
829	-0.018
830	-0.017
830	-0.015
831	-0.011
831	-0.008
832	-0.005
832	-0.003
832	0
833	0.003
833	0.006
834	0.009
834	0.011
835	0.014
835	0.016
835	0.018
836	0.02
836	0.022
837	0.023
837	0.024
838	0.024
838	0.024
839	0.025
839	0.025
839	0.024
840	0.024
840	0.024
841	0.024
841	0.024
842	0.024
842	0.024
842	0.025
843	0.026
843	0.027
844	0.028
844	0.03
845	0.032
845	0.034
845	0.036
846	0.037
846	0.038
847	0.039
847	0.04
848	0.041
848	0.04
848	0.04
849	0.04
849	0.039
850	0.038
850	0.036
851	0.036
851	0.035
851	0.034
852	0.034
852	0.034
853	0.034
853	0.034
854	0.035
854	0.035
854	0.036
855	0.036
855	0.036
856	0.036
856	0.037
857	0.037
857	0.037
857	0.036
858	0.036
858	0.036
859	0.035
859	0.035
860	0.035
860	0.034
860	0.034
861	0.035
861	0.035
862	0.035
862	0.035
863	0.035
863	0.036
863	0.036
864	0.036
864	0.037
865	0.038
865	0.038
866	0.039
866	0.039
866	0.04
867	0.041
867	0.042
868	0.044
868	0.045
869	0.047
869	0.048
869	0.048
870	0.049
870	0.049
871	0.049
871	0.049
872	0.049
872	0.048
872	0.047
873	0.046
873	0.045
874	0.044
874	0.043
875	0.043
875	0.043
875	0.043
876	0.043
876	0.043
877	0.043
877	0.044
878	0.044
878	0.044
878	0.045
879	0.045
879	0.045
880	0.046
880	0.046
881	0.046
881	0.046
881	0.047
882	0.047
882	0.047
883	0.048
883	0.048
884	0.048
884	0.048
884	0.047
885	0.047
885	0.046
886	0.046
886	0.046
887	0.045
887	0.044
887	0.044
888	0.043
888	0.042
889	0.042
889	0.041
890	0.04
890	0.039
890	0.038
891	0.037
891	0.036
892	0.034
892	0.033
893	0.032
893	0.031
893	0.03
894	0.029
894	0.028
895	0.028
895	0.027
895	0.027
896	0.027
896	0.027
897	0.027
897	0.027
898	0.027
898	0.028
898	0.029
899	0.03
899	0.031
900	0.032
900	0.034
901	0.036
901	0.037
901	0.039
902	0.041
902	0.042
903	0.043
903	0.044
904	0.044
904	0.044
904	0.045
905	0.045
905	0.045
906	0.045
906	0.044
907	0.044
907	0.044
907	0.044
908	0.044
908	0.045
909	0.045
909	0.046
910	0.047
910	0.048
910	0.048
911	0.049
911	0.05
912	0.05
912	0.05
913	0.05
913	0.049
913	0.048
914	0.047
914	0.046
915	0.044
915	0.042
916	0.04
916	0.038
916	0.036
917	0.034
917	0.032
918	0.031
918	0.031
918	0.03
919	0.03
919	0.031
920	0.032
920	0.033
921	0.034
921	0.035
921	0.036
922	0.038
922	0.039
923	0.04
923	0.041
924	0.042
924	0.042
924	0.042
925	0.041
925	0.041
926	0.04
926	0.04
927	0.039
927	0.038
927	0.037
928	0.035
928	0.034
929	0.033
929	0.032
930	0.032
930	0.031
930	0.03
931	0.03
931	0.03
932	0.03
932	0.03
933	0.03
933	0.03
933	0.03
934	0.03
934	0.03
935	0.03
935	0.03
935	0.03
936	0.03
936	0.03
937	0.03
937	0.03
938	0.03
938	0.03
938	0.03
939	0.031
939	0.031
940	0.032
940	0.032
941	0.033
941	0.033
941	0.034
942	0.034
942	0.035
943	0.035
943	0.035
944	0.035
944	0.035
944	0.034
945	0.034
945	0.034
946	0.034
946	0.033
946	0.033
947	0.033
947	0.033
948	0.033
948	0.033
949	0.033
949	0.033
949	0.034
950	0.034
950	0.034
951	0.034
951	0.034
952	0.034
952	0.035
952	0.035
953	0.035
953	0.036
954	0.035
954	0.035
955	0.035
955	0.034
955	0.034
956	0.034
956	0.035
957	0.034
957	0.033
957	0.032
958	0.031
958	0.031
959	0.03
959	0.029
960	0.029
960	0.027
960	0.027
961	0.026
961	0.025
962	0.024
962	0.024
963	0.024
963	0.024
963	0.025
964	0.025
964	0.027
965	0.028
965	0.029
966	0.03
966	0.031
966	0.033
967	0.034
967	0.035
968	0.036
968	0.036
968	0.037
969	0.037
969	0.038
970	0.038
970	0.037
971	0.037
971	0.037
971	0.036
972	0.036
972	0.035
973	0.035
973	0.034
974	0.033
974	0.033
974	0.032
975	0.032
975	0.032
976	0.031
976	0.031
976	0.03
977	0.029
977	0.027
978	0.026
978	0.024
979	0.023
979	0.022
979	0.021
980	0.02
980	0.019
981	0.018
981	0.018
982	0.019
982	0.019
982	0.02
983	0.021
983	0.022
984	0.023
984	0.024
984	0.025
985	0.025
985	0.026
986	0.026
986	0.026
987	0.026
987	0.026
987	0.026
988	0.027
988	0.027
989	0.028
989	0.029
990	0.029
990	0.03
990	0.031
991	0.033
991	0.033
992	0.034
992	0.035
992	0.035
993	0.035
993	0.035
994	0.035
994	0.035
995	0.035
995	0.034
995	0.033
996	0.033
996	0.032
997	0.031
997	0.031
997	0.031
998	0.031
998	0.031
999	0.031
999	0.032
1000	0.032
1000	0.033
1000	0.033
1001	0.033
1001	0.034
1002	0.034
1002	0.034
1003	0.034
1003	0.034
1003	0.033
1004	0.033
1004	0.032
1005	0.032
1005	0.031
1005	0.03
1006	0.029
1006	0.029
1007	0.028
1007	0.027
1008	0.026
1008	0.026
1008	0.025
1009	0.025
1009	0.024
1010	0.024
1010	0.023
1010	0.023
1011	0.022
1011	0.022
1012	0.021
1012	0.021
1013	0.02
1013	0.019
1013	0.018
1014	0.017
1014	0.016
1015	0.016
1015	0.015
1016	0.014
1016	0.013
1016	0.012
1017	0.011
1017	0.011
1018	0.01
1018	0.01
1018	0.009
1019	0.009
1019	0.009
1020	0.008
1020	0.008
1021	0.008
1021	0.008
1021	0.008
1022	0.008
1022	0.008
1023	0.009
1023	0.009
1023	0.009
1024	0.009
1024	0.01
1025	0.01
1025	0.01
1026	0.011
1026	0.011
1026	0.012
1027	0.012
1027	0.013
1028	0.013
1028	0.014
1028	0.015
1029	0.016
1029	0.017
1030	0.017
1030	0.017
1031	0.018
1031	0.018
1031	0.018
1032	0.018
1032	0.018
1033	0.017
1033	0.016
1033	0.016
1034	0.015
1034	0.014
1035	0.013
1035	0.012
1036	0.011
1036	0.01
1036	0.01
1037	0.01
1037	0.01
1038	0.01
1038	0.01
1039	0.011
1039	0.012
1039	0.012
1040	0.013
1040	0.013
1041	0.013
1041	0.013
1041	0.013
1042	0.012
1042	0.012
1043	0.011
1043	0.01
1044	0.009
1044	0.009
1044	0.008
1045	0.008
1045	0.007
1046	0.007
1046	0.007
1046	0.007
1047	0.007
1047	0.008
1048	0.009
1048	0.009
1049	0.009
1049	0.009
1049	0.009
1050	0.009
1050	0.008
1051	0.008
1051	0.008
1051	0.008
1052	0.008
1052	0.007
1053	0.007
1053	0.007
1053	0.007
1054	0.006
1054	0.007
1055	0.007
1055	0.007
1056	0.006
1056	0.006
1056	0.005
1057	0.005
1057	0.005
1058	0.005
1058	0.004
1058	0.005
1059	0.004
1059	0.004
1060	0.005
1060	0.006
1061	0.007
1061	0.008
1061	0.01
1062	0.01
1062	0.011
1063	0.012
1063	0.012
1063	0.013
1064	0.014
1064	0.015
1065	0.016
1065	0.016
1066	0.017
1066	0.017
1066	0.018
1067	0.018
1067	0.019
1068	0.018
1068	0.018
1068	0.018
1069	0.018
1069	0.017
1070	0.017
1070	0.017
1071	0.017
1071	0.017
1071	0.017
1072	0.017
1072	0.018
1073	0.019
1073	0.02
1073	0.021
1074	0.022
1074	0.023
1075	0.023
1075	0.023
1076	0.023
1076	0.024
1076	0.024
1077	0.023
1077	0.024
1078	0.024
1078	0.025
1078	0.026
1079	0.028
1079	0.029
1080	0.031
1080	0.032
1080	0.033
1081	0.035
1081	0.037
1082	0.038
1082	0.039
1083	0.041
1083	0.042
1083	0.043
1084	0.045
1084	0.046
1085	0.048
1085	0.05
1085	0.052
1086	0.053
1086	0.054
1087	0.056
1087	0.058
1088	0.059
1088	0.06
1088	0.062
1089	0.063
1089	0.064
1090	0.066
1090	0.069
1090	0.071
1091	0.073
1091	0.077
1092	0.08
1092	0.084
1092	0.088
1093	0.092
1093	0.098
1094	0.103
1094	0.108
1095	0.112
1095	0.118
1095	0.126
1096	0.133
1096	0.141
1097	0.149
1097	0.157
1097	0.166
1098	0.173
1098	0.182
1099	0.193
1099	0.206
1100	0.218
1100	0.231
1100	0.244
1101	0.259
1101	0.275
1102	0.297
1102	0.318
1102	0.346
1103	0.374
1103	0.409
1104	0.449
1104	0.495
1104	0.551
1105	0.616
1105	0.693
1106	0.785
1106	0.933
1107	1.17
1107	2.544
1107	-0
1108	-0
1108	-0
1109	-0
1109	-0
1109	-0
1110	-0
1110	-0
1111	-0
1111	-0
