Data from 15c-2a_Absorbance__174__01975.txt Node

Date: Wed Jan 17 11:15:34 CET 2024
User: Marek
Spectrometer: MAYP115816
Trigger mode: 0
Integration Time (sec): 2.000000E-1
Scans to average: 10
Electric dark correction enabled: true
Nonlinearity correction enabled: true
Boxcar width: 5
XAxis mode: Wavelengths
Number of Pixels in Spectrum: 2068
>>>>>Begin Spectral Data<<<<<
199	-1.642
199	-1.504
200	-1.344
200	-1.221
201	-1.145
201	-1.098
202	-1.029
202	-0.978
203	-0.932
203	-0.893
204	-0.868
204	-0.845
205	-0.821
205	-0.811
205	-0.81
206	-0.809
206	-0.805
207	-0.803
207	-0.798
208	-0.797
208	-0.797
209	-0.792
209	-0.791
210	-0.79
210	-0.79
211	-0.789
211	-0.789
212	-0.791
212	-0.789
213	-0.789
213	-0.789
213	-0.789
214	-0.788
214	-0.787
215	-0.786
215	-0.785
216	-0.785
216	-0.782
217	-0.777
217	-0.776
218	-0.776
218	-0.772
219	-0.768
219	-0.767
220	-0.763
220	-0.761
221	-0.756
221	-0.753
221	-0.748
222	-0.744
222	-0.739
223	-0.733
223	-0.73
224	-0.725
224	-0.718
225	-0.709
225	-0.702
226	-0.693
226	-0.681
227	-0.668
227	-0.656
228	-0.64
228	-0.622
229	-0.601
229	-0.577
229	-0.55
230	-0.52
230	-0.489
231	-0.453
231	-0.417
232	-0.38
232	-0.338
233	-0.294
233	-0.25
234	-0.206
234	-0.163
235	-0.121
235	-0.079
236	-0.039
236	-0.001
236	0.035
237	0.071
237	0.102
238	0.131
238	0.159
239	0.185
239	0.209
240	0.23
240	0.249
241	0.267
241	0.283
242	0.297
242	0.31
243	0.323
243	0.333
243	0.343
244	0.352
244	0.36
245	0.367
245	0.374
246	0.38
246	0.386
247	0.391
247	0.396
248	0.401
248	0.406
249	0.41
249	0.413
250	0.417
250	0.42
250	0.423
251	0.426
251	0.428
252	0.431
252	0.433
253	0.435
253	0.437
254	0.438
254	0.44
255	0.442
255	0.444
256	0.445
256	0.445
257	0.446
257	0.447
258	0.447
258	0.447
258	0.448
259	0.448
259	0.448
260	0.447
260	0.447
261	0.447
261	0.447
262	0.447
262	0.446
263	0.446
263	0.445
264	0.445
264	0.444
265	0.443
265	0.442
265	0.441
266	0.44
266	0.439
267	0.437
267	0.436
268	0.434
268	0.433
269	0.432
269	0.43
270	0.428
270	0.426
271	0.424
271	0.422
272	0.42
272	0.418
272	0.416
273	0.414
273	0.412
274	0.41
274	0.408
275	0.406
275	0.404
276	0.402
276	0.4
277	0.398
277	0.396
278	0.394
278	0.392
278	0.389
279	0.387
279	0.384
280	0.382
280	0.379
281	0.377
281	0.375
282	0.372
282	0.37
283	0.368
283	0.366
284	0.364
284	0.363
285	0.361
285	0.359
285	0.357
286	0.356
286	0.354
287	0.353
287	0.351
288	0.35
288	0.348
289	0.346
289	0.345
290	0.343
290	0.342
291	0.34
291	0.339
292	0.337
292	0.336
292	0.334
293	0.333
293	0.331
294	0.33
294	0.329
295	0.328
295	0.327
296	0.326
296	0.325
297	0.324
297	0.323
298	0.322
298	0.321
298	0.32
299	0.319
299	0.318
300	0.318
300	0.317
301	0.316
301	0.315
302	0.314
302	0.313
303	0.312
303	0.311
304	0.311
304	0.31
305	0.309
305	0.308
305	0.307
306	0.306
306	0.306
307	0.305
307	0.304
308	0.303
308	0.302
309	0.301
309	0.301
310	0.3
310	0.299
311	0.298
311	0.297
311	0.296
312	0.296
312	0.295
313	0.294
313	0.293
314	0.292
314	0.291
315	0.291
315	0.29
316	0.289
316	0.288
317	0.288
317	0.287
318	0.286
318	0.285
318	0.284
319	0.283
319	0.283
320	0.282
320	0.281
321	0.28
321	0.279
322	0.278
322	0.277
323	0.276
323	0.275
324	0.274
324	0.274
324	0.273
325	0.272
325	0.271
326	0.27
326	0.27
327	0.269
327	0.268
328	0.268
328	0.267
329	0.266
329	0.265
330	0.264
330	0.264
330	0.263
331	0.262
331	0.261
332	0.26
332	0.259
333	0.259
333	0.258
334	0.257
334	0.256
335	0.255
335	0.255
336	0.254
336	0.253
336	0.253
337	0.252
337	0.251
338	0.251
338	0.25
339	0.249
339	0.249
340	0.248
340	0.248
341	0.247
341	0.246
342	0.246
342	0.245
342	0.245
343	0.244
343	0.244
344	0.243
344	0.243
345	0.242
345	0.242
346	0.241
346	0.241
347	0.24
347	0.239
348	0.239
348	0.239
348	0.238
349	0.237
349	0.237
350	0.236
350	0.236
351	0.235
351	0.235
352	0.235
352	0.234
353	0.234
353	0.233
354	0.233
354	0.232
354	0.232
355	0.231
355	0.23
356	0.23
356	0.23
357	0.229
357	0.229
358	0.229
358	0.228
359	0.229
359	0.229
360	0.229
360	0.229
360	0.229
361	0.229
361	0.229
362	0.229
362	0.229
363	0.229
363	0.229
364	0.228
364	0.228
365	0.228
365	0.227
366	0.227
366	0.227
366	0.227
367	0.227
367	0.227
368	0.226
368	0.226
369	0.226
369	0.225
370	0.225
370	0.225
371	0.224
371	0.224
372	0.224
372	0.223
372	0.223
373	0.223
373	0.223
374	0.223
374	0.222
375	0.222
375	0.222
376	0.222
376	0.222
377	0.222
377	0.222
378	0.222
378	0.222
378	0.222
379	0.222
379	0.222
380	0.222
380	0.222
381	0.222
381	0.221
382	0.221
382	0.221
383	0.22
383	0.22
383	0.219
384	0.219
384	0.219
385	0.219
385	0.219
386	0.219
386	0.219
387	0.219
387	0.218
388	0.218
388	0.218
389	0.218
389	0.218
389	0.218
390	0.218
390	0.218
391	0.218
391	0.218
392	0.218
392	0.217
393	0.217
393	0.217
394	0.217
394	0.216
394	0.216
395	0.216
395	0.215
396	0.215
396	0.215
397	0.215
397	0.215
398	0.215
398	0.214
399	0.214
399	0.214
400	0.214
400	0.214
400	0.213
401	0.213
401	0.212
402	0.211
402	0.211
403	0.211
403	0.211
404	0.211
404	0.211
405	0.21
405	0.21
405	0.21
406	0.21
406	0.21
407	0.209
407	0.209
408	0.209
408	0.208
409	0.208
409	0.207
410	0.207
410	0.207
411	0.207
411	0.207
411	0.207
412	0.207
412	0.206
413	0.206
413	0.206
414	0.206
414	0.206
415	0.205
415	0.205
416	0.205
416	0.204
416	0.204
417	0.204
417	0.204
418	0.204
418	0.204
419	0.205
419	0.205
420	0.205
420	0.206
421	0.206
421	0.206
421	0.206
422	0.207
422	0.207
423	0.207
423	0.206
424	0.206
424	0.205
425	0.205
425	0.204
426	0.204
426	0.203
427	0.203
427	0.203
427	0.203
428	0.203
428	0.203
429	0.204
429	0.204
430	0.204
430	0.204
431	0.203
431	0.203
432	0.203
432	0.203
432	0.202
433	0.201
433	0.201
434	0.201
434	0.201
435	0.201
435	0.201
436	0.201
436	0.201
437	0.201
437	0.202
437	0.202
438	0.202
438	0.202
439	0.202
439	0.201
440	0.201
440	0.201
441	0.201
441	0.201
442	0.2
442	0.2
442	0.2
443	0.2
443	0.201
444	0.201
444	0.201
445	0.201
445	0.202
446	0.202
446	0.202
447	0.202
447	0.202
447	0.202
448	0.202
448	0.201
449	0.201
449	0.201
450	0.201
450	0.201
451	0.201
451	0.2
452	0.2
452	0.2
452	0.2
453	0.2
453	0.2
454	0.2
454	0.2
455	0.201
455	0.201
456	0.201
456	0.201
457	0.201
457	0.201
458	0.201
458	0.201
458	0.201
459	0.201
459	0.201
460	0.2
460	0.2
461	0.2
461	0.2
462	0.2
462	0.2
463	0.2
463	0.201
463	0.201
464	0.201
464	0.201
465	0.202
465	0.202
466	0.202
466	0.202
467	0.203
467	0.203
467	0.202
468	0.202
468	0.201
469	0.201
469	0.2
470	0.201
470	0.2
471	0.201
471	0.201
472	0.201
472	0.201
472	0.202
473	0.203
473	0.204
474	0.204
474	0.205
475	0.206
475	0.207
476	0.207
476	0.208
477	0.208
477	0.208
477	0.209
478	0.209
478	0.209
479	0.21
479	0.21
480	0.211
480	0.212
481	0.213
481	0.213
482	0.215
482	0.216
482	0.218
483	0.219
483	0.222
484	0.223
484	0.224
485	0.225
485	0.226
486	0.227
486	0.228
487	0.229
487	0.23
487	0.23
488	0.231
488	0.231
489	0.231
489	0.232
490	0.233
490	0.234
491	0.235
491	0.236
492	0.237
492	0.238
492	0.238
493	0.239
493	0.24
494	0.242
494	0.244
495	0.246
495	0.248
496	0.25
496	0.251
496	0.253
497	0.255
497	0.257
498	0.258
498	0.259
499	0.26
499	0.262
500	0.263
500	0.265
501	0.267
501	0.268
501	0.27
502	0.272
502	0.274
503	0.276
503	0.278
504	0.279
504	0.281
505	0.282
505	0.283
506	0.285
506	0.286
506	0.287
507	0.288
507	0.29
508	0.291
508	0.293
509	0.294
509	0.296
510	0.298
510	0.3
511	0.301
511	0.302
511	0.303
512	0.304
512	0.304
513	0.305
513	0.306
514	0.306
514	0.306
515	0.307
515	0.307
515	0.308
516	0.308
516	0.309
517	0.311
517	0.311
518	0.312
518	0.312
519	0.312
519	0.312
520	0.312
520	0.311
520	0.311
521	0.31
521	0.309
522	0.307
522	0.307
523	0.306
523	0.306
524	0.305
524	0.305
524	0.305
525	0.305
525	0.306
526	0.306
526	0.307
527	0.308
527	0.308
528	0.309
528	0.309
529	0.309
529	0.308
529	0.308
530	0.308
530	0.307
531	0.306
531	0.306
532	0.305
532	0.304
533	0.304
533	0.303
533	0.302
534	0.301
534	0.3
535	0.299
535	0.298
536	0.297
536	0.295
537	0.294
537	0.293
538	0.292
538	0.29
538	0.288
539	0.286
539	0.285
540	0.283
540	0.281
541	0.278
541	0.276
542	0.273
542	0.271
542	0.268
543	0.266
543	0.264
544	0.261
544	0.259
545	0.258
545	0.256
546	0.254
546	0.251
547	0.249
547	0.246
547	0.243
548	0.241
548	0.238
549	0.236
549	0.233
550	0.231
550	0.228
551	0.225
551	0.223
551	0.221
552	0.219
552	0.217
553	0.215
553	0.214
554	0.212
554	0.209
555	0.206
555	0.204
556	0.201
556	0.198
556	0.195
557	0.193
557	0.19
558	0.188
558	0.185
559	0.183
559	0.181
560	0.179
560	0.177
560	0.176
561	0.175
561	0.173
562	0.171
562	0.169
563	0.166
563	0.164
564	0.161
564	0.158
564	0.156
565	0.153
565	0.151
566	0.148
566	0.146
567	0.144
567	0.143
568	0.142
568	0.141
568	0.141
569	0.141
569	0.14
570	0.139
570	0.137
571	0.137
571	0.136
572	0.135
572	0.133
573	0.132
573	0.13
573	0.128
574	0.127
574	0.126
575	0.125
575	0.125
576	0.125
576	0.122
577	0.121
577	0.119
577	0.119
578	0.118
578	0.118
579	0.118
579	0.117
580	0.115
580	0.111
581	0.108
581	0.106
581	0.106
582	0.105
582	0.105
583	0.105
583	0.103
584	0.1
584	0.096
585	0.095
585	0.095
585	0.095
586	0.094
586	0.093
587	0.091
587	0.089
588	0.086
588	0.085
589	0.084
589	0.084
590	0.084
590	0.084
590	0.085
591	0.086
591	0.085
592	0.084
592	0.083
593	0.083
593	0.083
594	0.081
594	0.08
594	0.078
595	0.078
595	0.076
596	0.075
596	0.076
597	0.078
597	0.078
598	0.079
598	0.08
598	0.08
599	0.081
599	0.081
600	0.08
600	0.079
601	0.078
601	0.078
602	0.076
602	0.076
602	0.076
603	0.076
603	0.077
604	0.078
604	0.079
605	0.081
605	0.082
606	0.082
606	0.081
606	0.081
607	0.08
607	0.08
608	0.079
608	0.077
609	0.076
609	0.076
610	0.075
610	0.073
610	0.074
611	0.075
611	0.076
612	0.078
612	0.079
613	0.08
613	0.082
614	0.081
614	0.08
614	0.08
615	0.079
615	0.079
616	0.078
616	0.077
617	0.076
617	0.075
618	0.074
618	0.073
618	0.072
619	0.073
619	0.074
620	0.076
620	0.077
621	0.077
621	0.078
622	0.079
622	0.08
622	0.08
623	0.08
623	0.081
624	0.082
624	0.081
625	0.081
625	0.081
626	0.081
626	0.081
626	0.082
627	0.083
627	0.083
628	0.084
628	0.085
629	0.086
629	0.086
630	0.087
630	0.087
630	0.088
631	0.089
631	0.089
632	0.09
632	0.091
633	0.092
633	0.093
634	0.095
634	0.097
634	0.099
635	0.101
635	0.102
636	0.103
636	0.105
637	0.106
637	0.106
638	0.107
638	0.109
638	0.11
639	0.11
639	0.111
640	0.113
640	0.114
641	0.116
641	0.117
642	0.119
642	0.122
642	0.123
643	0.125
643	0.127
644	0.13
644	0.132
645	0.134
645	0.136
646	0.139
646	0.141
646	0.144
647	0.147
647	0.15
648	0.152
648	0.154
649	0.157
649	0.16
650	0.163
650	0.165
650	0.168
651	0.171
651	0.173
652	0.176
652	0.178
653	0.182
653	0.19
653	0.204
654	0.162
654	0.131
655	0.133
655	0.135
656	0.137
656	0.139
657	0.141
657	0.142
657	0.144
658	0.141
658	0.129
659	0.166
659	0.218
660	0.225
660	0.228
661	0.23
661	0.233
661	0.237
662	0.241
662	0.245
663	0.248
663	0.252
664	0.255
664	0.258
665	0.262
665	0.265
665	0.268
666	0.27
666	0.273
667	0.275
667	0.278
668	0.28
668	0.283
669	0.286
669	0.289
669	0.293
670	0.297
670	0.3
671	0.302
671	0.304
672	0.307
672	0.309
672	0.311
673	0.313
673	0.315
674	0.316
674	0.318
675	0.319
675	0.32
676	0.323
676	0.325
676	0.326
677	0.327
677	0.329
678	0.33
678	0.331
679	0.333
679	0.334
680	0.336
680	0.338
680	0.339
681	0.339
681	0.341
682	0.342
682	0.343
683	0.345
683	0.347
684	0.348
684	0.348
684	0.348
685	0.349
685	0.35
686	0.351
686	0.351
687	0.351
687	0.351
687	0.351
688	0.35
688	0.349
689	0.35
689	0.35
690	0.349
690	0.348
691	0.347
691	0.346
691	0.344
692	0.342
692	0.341
693	0.34
693	0.339
694	0.337
694	0.335
695	0.335
695	0.336
695	0.336
696	0.334
696	0.333
697	0.332
697	0.331
698	0.33
698	0.329
698	0.328
699	0.327
699	0.325
700	0.322
700	0.321
701	0.32
701	0.318
702	0.317
702	0.315
702	0.312
703	0.31
703	0.308
704	0.305
704	0.303
705	0.301
705	0.299
705	0.296
706	0.294
706	0.292
707	0.289
707	0.287
708	0.284
708	0.282
709	0.28
709	0.277
709	0.274
710	0.271
710	0.268
711	0.266
711	0.264
712	0.262
712	0.259
713	0.257
713	0.255
713	0.252
714	0.249
714	0.247
715	0.245
715	0.242
716	0.239
716	0.237
716	0.234
717	0.232
717	0.23
718	0.227
718	0.224
719	0.223
719	0.221
720	0.218
720	0.216
720	0.214
721	0.211
721	0.208
722	0.206
722	0.203
723	0.201
723	0.199
723	0.197
724	0.194
724	0.192
725	0.189
725	0.187
726	0.184
726	0.182
727	0.179
727	0.177
727	0.175
728	0.172
728	0.17
729	0.169
729	0.167
730	0.165
730	0.163
730	0.161
731	0.159
731	0.158
732	0.156
732	0.154
733	0.152
733	0.15
734	0.147
734	0.144
734	0.143
735	0.142
735	0.14
736	0.138
736	0.136
737	0.135
737	0.134
737	0.133
738	0.13
738	0.127
739	0.124
739	0.122
740	0.118
740	0.116
741	0.113
741	0.109
741	0.105
742	0.101
742	0.098
743	0.097
743	0.095
744	0.093
744	0.092
744	0.09
745	0.088
745	0.086
746	0.085
746	0.084
747	0.082
747	0.082
748	0.081
748	0.079
748	0.077
749	0.075
749	0.074
750	0.073
750	0.072
751	0.072
751	0.072
751	0.072
752	0.071
752	0.07
753	0.069
753	0.069
754	0.069
754	0.068
754	0.068
755	0.067
755	0.067
756	0.066
756	0.064
757	0.062
757	0.062
758	0.06
758	0.059
758	0.058
759	0.056
759	0.054
760	0.051
760	0.049
761	0.047
761	0.047
761	0.046
762	0.044
762	0.044
763	0.043
763	0.041
764	0.039
764	0.037
764	0.036
765	0.034
765	0.032
766	0.031
766	0.03
767	0.028
767	0.025
768	0.022
768	0.021
768	0.019
769	0.018
769	0.017
770	0.015
770	0.013
771	0.01
771	0.008
771	0.005
772	0.003
772	0.001
773	-0.001
773	-0.003
774	-0.006
774	-0.009
775	-0.011
775	-0.013
775	-0.016
776	-0.019
776	-0.021
777	-0.024
777	-0.027
778	-0.029
778	-0.032
778	-0.035
779	-0.037
779	-0.039
780	-0.042
780	-0.046
781	-0.049
781	-0.054
781	-0.059
782	-0.065
782	-0.071
783	-0.077
783	-0.083
784	-0.09
784	-0.097
784	-0.103
785	-0.11
785	-0.116
786	-0.122
786	-0.125
787	-0.125
787	-0.127
788	-0.132
788	-0.137
788	-0.141
789	-0.146
789	-0.148
790	-0.148
790	-0.149
791	-0.15
791	-0.152
791	-0.155
792	-0.149
792	-0.139
793	-0.133
793	-0.129
794	-0.127
794	-0.129
794	-0.134
795	-0.136
795	-0.136
796	-0.137
796	-0.14
797	-0.149
797	-0.16
797	-0.166
798	-0.171
798	-0.174
799	-0.175
799	-0.174
800	-0.173
800	-0.175
801	-0.177
801	-0.178
801	-0.178
802	-0.18
802	-0.181
803	-0.182
803	-0.182
804	-0.181
804	-0.176
804	-0.17
805	-0.166
805	-0.164
806	-0.162
806	-0.161
807	-0.16
807	-0.159
807	-0.159
808	-0.159
808	-0.16
809	-0.165
809	-0.171
810	-0.175
810	-0.178
810	-0.181
811	-0.184
811	-0.185
812	-0.181
812	-0.178
813	-0.178
813	-0.178
813	-0.179
814	-0.179
814	-0.179
815	-0.175
815	-0.172
816	-0.168
816	-0.165
817	-0.164
817	-0.161
817	-0.154
818	-0.146
818	-0.136
819	-0.126
819	-0.117
820	-0.109
820	-0.102
820	-0.094
821	-0.087
821	-0.08
822	-0.075
822	-0.07
823	-0.066
823	-0.064
823	-0.061
824	-0.058
824	-0.054
825	-0.05
825	-0.047
826	-0.044
826	-0.042
826	-0.04
827	-0.039
827	-0.037
828	-0.036
828	-0.034
829	-0.033
829	-0.032
829	-0.032
830	-0.032
830	-0.03
831	-0.028
831	-0.026
832	-0.025
832	-0.022
832	-0.02
833	-0.018
833	-0.016
834	-0.014
834	-0.012
835	-0.009
835	-0.008
835	-0.006
836	-0.004
836	-0.003
837	-0.002
837	-0.001
838	-0.001
838	-0.001
839	-0
839	-0.001
839	-0.001
840	-0.002
840	-0.002
841	-0.002
841	-0.003
842	-0.003
842	-0.003
842	-0.003
843	-0.002
843	-0.002
844	-0.001
844	-0
845	0.001
845	0.002
845	0.003
846	0.004
846	0.005
847	0.006
847	0.006
848	0.007
848	0.006
848	0.006
849	0.005
849	0.004
850	0.003
850	0.001
851	0.001
851	-0
851	-0.001
852	-0.001
852	-0.001
853	-0.001
853	-0.001
854	0
854	0.001
854	0.001
855	0.002
855	0.002
856	0.002
856	0.002
857	0.002
857	0.002
857	0.001
858	0.001
858	0
859	-0.001
859	-0.001
860	-0.002
860	-0.002
860	-0.002
861	-0.002
861	-0.002
862	-0.002
862	-0.002
863	-0.002
863	-0.002
863	-0.002
864	-0.002
864	-0.002
865	-0.001
865	-0
866	-0
866	0
866	0.001
867	0.002
867	0.003
868	0.004
868	0.006
869	0.007
869	0.008
869	0.008
870	0.009
870	0.009
871	0.009
871	0.009
872	0.009
872	0.008
872	0.007
873	0.006
873	0.005
874	0.005
874	0.004
875	0.004
875	0.004
875	0.004
876	0.004
876	0.004
877	0.004
877	0.005
878	0.005
878	0.005
878	0.006
879	0.006
879	0.006
880	0.006
880	0.006
881	0.007
881	0.007
881	0.008
882	0.008
882	0.009
883	0.009
883	0.009
884	0.01
884	0.01
884	0.009
885	0.009
885	0.009
886	0.008
886	0.008
887	0.007
887	0.007
887	0.006
888	0.005
888	0.005
889	0.004
889	0.003
890	0.003
890	0.002
890	0.001
891	-0.001
891	-0.002
892	-0.003
892	-0.005
893	-0.006
893	-0.007
893	-0.008
894	-0.009
894	-0.01
895	-0.01
895	-0.011
895	-0.011
896	-0.011
896	-0.012
897	-0.011
897	-0.011
898	-0.011
898	-0.01
898	-0.009
899	-0.008
899	-0.007
900	-0.005
900	-0.003
901	-0.001
901	0.001
901	0.003
902	0.004
902	0.006
903	0.007
903	0.008
904	0.008
904	0.008
904	0.009
905	0.009
905	0.009
906	0.008
906	0.008
907	0.008
907	0.007
907	0.007
908	0.007
908	0.007
909	0.008
909	0.008
910	0.009
910	0.009
910	0.01
911	0.011
911	0.012
912	0.012
912	0.013
913	0.013
913	0.013
913	0.012
914	0.011
914	0.01
915	0.008
915	0.007
916	0.005
916	0.003
916	0.001
917	-0
917	-0.002
918	-0.003
918	-0.004
918	-0.005
919	-0.005
919	-0.004
920	-0.003
920	-0.002
921	-0.001
921	-0
921	0.001
922	0.002
922	0.004
923	0.005
923	0.006
924	0.006
924	0.006
924	0.006
925	0.006
925	0.005
926	0.004
926	0.004
927	0.003
927	0.001
927	0
928	-0.001
928	-0.002
929	-0.003
929	-0.004
930	-0.004
930	-0.005
930	-0.005
931	-0.005
931	-0.005
932	-0.005
932	-0.005
933	-0.004
933	-0.004
933	-0.004
934	-0.004
934	-0.004
935	-0.004
935	-0.004
935	-0.004
936	-0.005
936	-0.005
937	-0.005
937	-0.005
938	-0.005
938	-0.006
938	-0.006
939	-0.005
939	-0.005
940	-0.005
940	-0.005
941	-0.004
941	-0.004
941	-0.004
942	-0.003
942	-0.003
943	-0.003
943	-0.002
944	-0.002
944	-0.003
944	-0.002
945	-0.002
945	-0.002
946	-0.002
946	-0.003
946	-0.003
947	-0.002
947	-0.003
948	-0.003
948	-0.003
949	-0.002
949	-0.002
949	-0.002
950	-0.001
950	-0.001
951	-0
951	-0
952	0
952	0.001
952	0.002
953	0.002
953	0.002
954	0.002
954	0.002
955	0.002
955	0.002
955	0.002
956	0.002
956	0.002
957	0.002
957	0.001
957	-0
958	-0.001
958	-0.002
959	-0.003
959	-0.003
960	-0.004
960	-0.005
960	-0.006
961	-0.007
961	-0.008
962	-0.008
962	-0.009
963	-0.009
963	-0.009
963	-0.008
964	-0.007
964	-0.006
965	-0.005
965	-0.004
966	-0.002
966	-0
966	0.001
967	0.003
967	0.005
968	0.006
968	0.007
968	0.008
969	0.008
969	0.009
970	0.008
970	0.008
971	0.007
971	0.007
971	0.006
972	0.005
972	0.005
973	0.004
973	0.003
974	0.003
974	0.002
974	0.002
975	0.002
975	0.001
976	0.001
976	0
976	-0
977	-0.002
977	-0.003
978	-0.005
978	-0.006
979	-0.008
979	-0.009
979	-0.01
980	-0.011
980	-0.012
981	-0.013
981	-0.013
982	-0.013
982	-0.012
982	-0.012
983	-0.011
983	-0.01
984	-0.01
984	-0.009
984	-0.008
985	-0.008
985	-0.007
986	-0.008
986	-0.008
987	-0.008
987	-0.008
987	-0.007
988	-0.007
988	-0.006
989	-0.005
989	-0.005
990	-0.004
990	-0.003
990	-0.002
991	-0
991	0.001
992	0.001
992	0.002
992	0.002
993	0.002
993	0.002
994	0.002
994	0.002
995	0.002
995	0.001
995	0.001
996	0
996	-0.001
997	-0.001
997	-0.001
997	-0.001
998	-0.001
998	-0.001
999	-0
999	0
1000	0.001
1000	0.001
1000	0.002
1001	0.002
1001	0.002
1002	0.002
1002	0.002
1003	0.002
1003	0.001
1003	0.001
1004	0
1004	-0.001
1005	-0.001
1005	-0.002
1005	-0.003
1006	-0.004
1006	-0.004
1007	-0.005
1007	-0.006
1008	-0.007
1008	-0.008
1008	-0.009
1009	-0.01
1009	-0.011
1010	-0.011
1010	-0.012
1010	-0.013
1011	-0.013
1011	-0.014
1012	-0.015
1012	-0.015
1013	-0.015
1013	-0.016
1013	-0.017
1014	-0.018
1014	-0.019
1015	-0.019
1015	-0.02
1016	-0.02
1016	-0.021
1016	-0.022
1017	-0.022
1017	-0.023
1018	-0.023
1018	-0.024
1018	-0.024
1019	-0.024
1019	-0.024
1020	-0.025
1020	-0.025
1021	-0.025
1021	-0.025
1021	-0.025
1022	-0.025
1022	-0.024
1023	-0.024
1023	-0.024
1023	-0.023
1024	-0.023
1024	-0.023
1025	-0.023
1025	-0.023
1026	-0.022
1026	-0.022
1026	-0.022
1027	-0.021
1027	-0.021
1028	-0.02
1028	-0.02
1028	-0.019
1029	-0.019
1029	-0.018
1030	-0.018
1030	-0.018
1031	-0.017
1031	-0.017
1031	-0.017
1032	-0.017
1032	-0.017
1033	-0.017
1033	-0.018
1033	-0.019
1034	-0.02
1034	-0.021
1035	-0.021
1035	-0.022
1036	-0.023
1036	-0.024
1036	-0.024
1037	-0.024
1037	-0.024
1038	-0.024
1038	-0.024
1039	-0.023
1039	-0.023
1039	-0.022
1040	-0.022
1040	-0.022
1041	-0.022
1041	-0.022
1041	-0.023
1042	-0.023
1042	-0.024
1043	-0.024
1043	-0.026
1044	-0.027
1044	-0.028
1044	-0.028
1045	-0.029
1045	-0.03
1046	-0.031
1046	-0.031
1046	-0.031
1047	-0.031
1047	-0.03
1048	-0.03
1048	-0.03
1049	-0.03
1049	-0.03
1049	-0.03
1050	-0.031
1050	-0.031
1051	-0.032
1051	-0.032
1051	-0.033
1052	-0.033
1052	-0.034
1053	-0.035
1053	-0.035
1053	-0.035
1054	-0.036
1054	-0.036
1055	-0.035
1055	-0.036
1056	-0.036
1056	-0.037
1056	-0.038
1057	-0.038
1057	-0.038
1058	-0.039
1058	-0.039
1058	-0.039
1059	-0.039
1059	-0.039
1060	-0.039
1060	-0.038
1061	-0.038
1061	-0.036
1061	-0.035
1062	-0.035
1062	-0.034
1063	-0.034
1063	-0.033
1063	-0.033
1064	-0.032
1064	-0.031
1065	-0.031
1065	-0.031
1066	-0.031
1066	-0.031
1066	-0.031
1067	-0.031
1067	-0.031
1068	-0.031
1068	-0.032
1068	-0.032
1069	-0.033
1069	-0.034
1070	-0.035
1070	-0.036
1071	-0.036
1071	-0.036
1071	-0.037
1072	-0.037
1072	-0.037
1073	-0.037
1073	-0.037
1073	-0.037
1074	-0.037
1074	-0.037
1075	-0.038
1075	-0.038
1076	-0.039
1076	-0.039
1076	-0.04
1077	-0.041
1077	-0.041
1078	-0.041
1078	-0.041
1078	-0.04
1079	-0.04
1079	-0.038
1080	-0.038
1080	-0.037
1080	-0.036
1081	-0.035
1081	-0.034
1082	-0.033
1082	-0.033
1083	-0.032
1083	-0.032
1083	-0.031
1084	-0.031
1084	-0.03
1085	-0.03
1085	-0.028
1085	-0.028
1086	-0.028
1086	-0.027
1087	-0.027
1087	-0.026
1088	-0.027
1088	-0.027
1088	-0.027
1089	-0.027
1089	-0.028
1090	-0.029
1090	-0.029
1090	-0.029
1091	-0.03
1091	-0.029
1092	-0.029
1092	-0.028
1092	-0.028
1093	-0.026
1093	-0.024
1094	-0.022
1094	-0.021
1095	-0.021
1095	-0.019
1095	-0.017
1096	-0.015
1096	-0.013
1097	-0.011
1097	-0.009
1097	-0.007
1098	-0.006
1098	-0.005
1099	-0.003
1099	0
1100	0.003
1100	0.005
1100	0.007
1101	0.01
1101	0.011
1102	0.015
1102	0.018
1102	0.021
1103	0.025
1103	0.031
1104	0.035
1104	0.041
1104	0.048
1105	0.056
1105	0.062
1106	0.066
1106	0.076
1107	0.085
1107	0.1
1107	0.114
1108	0.167
1108	0.242
1109	0.356
1109	0.573
1109	0.801
1110	-0
1110	-0
1111	-0
1111	-0
