Data from 17c-2-2a_Absorbance__396__02832.txt Node

Date: Fri Jan 26 14:38:05 CET 2024
User: Marek
Spectrometer: MAYP115816
Trigger mode: 0
Integration Time (sec): 2.000000E-1
Scans to average: 10
Electric dark correction enabled: true
Nonlinearity correction enabled: true
Boxcar width: 5
XAxis mode: Wavelengths
Number of Pixels in Spectrum: 2068
>>>>>Begin Spectral Data<<<<<
199	-1.763
199	-1.617
200	-1.465
200	-1.35
201	-1.277
201	-1.232
202	-1.163
202	-1.107
203	-1.06
203	-1.019
204	-0.992
204	-0.969
205	-0.948
205	-0.938
205	-0.936
206	-0.931
206	-0.927
207	-0.922
207	-0.921
208	-0.92
208	-0.918
209	-0.915
209	-0.911
210	-0.912
210	-0.911
211	-0.912
211	-0.913
212	-0.913
212	-0.912
213	-0.91
213	-0.906
213	-0.906
214	-0.904
214	-0.902
215	-0.896
215	-0.894
216	-0.89
216	-0.889
217	-0.886
217	-0.884
218	-0.881
218	-0.879
219	-0.875
219	-0.874
220	-0.873
220	-0.873
221	-0.871
221	-0.868
221	-0.864
222	-0.859
222	-0.855
223	-0.85
223	-0.847
224	-0.841
224	-0.834
225	-0.827
225	-0.819
226	-0.81
226	-0.799
227	-0.789
227	-0.777
228	-0.76
228	-0.744
229	-0.723
229	-0.703
229	-0.679
230	-0.651
230	-0.621
231	-0.589
231	-0.555
232	-0.52
232	-0.482
233	-0.442
233	-0.402
234	-0.362
234	-0.322
235	-0.283
235	-0.247
236	-0.211
236	-0.176
236	-0.143
237	-0.113
237	-0.085
238	-0.059
238	-0.036
239	-0.014
239	0.006
240	0.023
240	0.039
241	0.054
241	0.067
242	0.079
242	0.09
243	0.099
243	0.108
243	0.116
244	0.123
244	0.13
245	0.135
245	0.141
246	0.146
246	0.151
247	0.155
247	0.16
248	0.164
248	0.168
249	0.171
249	0.174
250	0.177
250	0.18
250	0.183
251	0.186
251	0.188
252	0.191
252	0.193
253	0.196
253	0.198
254	0.2
254	0.202
255	0.204
255	0.206
256	0.207
256	0.209
257	0.21
257	0.212
258	0.212
258	0.213
258	0.214
259	0.215
259	0.215
260	0.216
260	0.216
261	0.217
261	0.217
262	0.217
262	0.217
263	0.217
263	0.217
264	0.217
264	0.217
265	0.217
265	0.216
265	0.215
266	0.215
266	0.214
267	0.213
267	0.212
268	0.211
268	0.21
269	0.209
269	0.207
270	0.206
270	0.205
271	0.203
271	0.202
272	0.201
272	0.199
272	0.198
273	0.196
273	0.195
274	0.193
274	0.191
275	0.19
275	0.188
276	0.187
276	0.185
277	0.183
277	0.182
278	0.18
278	0.178
278	0.176
279	0.174
279	0.172
280	0.17
280	0.168
281	0.167
281	0.165
282	0.164
282	0.162
283	0.161
283	0.159
284	0.158
284	0.157
285	0.156
285	0.154
285	0.153
286	0.151
286	0.15
287	0.149
287	0.148
288	0.146
288	0.145
289	0.144
289	0.143
290	0.142
290	0.141
291	0.14
291	0.139
292	0.138
292	0.137
292	0.136
293	0.135
293	0.134
294	0.133
294	0.133
295	0.132
295	0.131
296	0.131
296	0.13
297	0.129
297	0.129
298	0.128
298	0.128
298	0.128
299	0.127
299	0.127
300	0.126
300	0.126
301	0.126
301	0.125
302	0.125
302	0.124
303	0.124
303	0.124
304	0.123
304	0.123
305	0.123
305	0.122
305	0.122
306	0.122
306	0.121
307	0.121
307	0.121
308	0.12
308	0.12
309	0.12
309	0.119
310	0.119
310	0.118
311	0.118
311	0.118
311	0.118
312	0.117
312	0.117
313	0.116
313	0.116
314	0.116
314	0.115
315	0.115
315	0.114
316	0.114
316	0.113
317	0.113
317	0.112
318	0.112
318	0.112
318	0.111
319	0.111
319	0.111
320	0.11
320	0.11
321	0.109
321	0.109
322	0.108
322	0.108
323	0.107
323	0.107
324	0.106
324	0.106
324	0.105
325	0.105
325	0.105
326	0.104
326	0.104
327	0.104
327	0.103
328	0.103
328	0.102
329	0.102
329	0.102
330	0.101
330	0.101
330	0.101
331	0.1
331	0.1
332	0.099
332	0.099
333	0.099
333	0.098
334	0.098
334	0.098
335	0.097
335	0.097
336	0.097
336	0.097
336	0.096
337	0.096
337	0.096
338	0.095
338	0.095
339	0.095
339	0.095
340	0.094
340	0.094
341	0.094
341	0.093
342	0.093
342	0.092
342	0.092
343	0.092
343	0.091
344	0.091
344	0.09
345	0.09
345	0.09
346	0.09
346	0.089
347	0.089
347	0.089
348	0.088
348	0.088
348	0.088
349	0.088
349	0.088
350	0.087
350	0.087
351	0.087
351	0.086
352	0.086
352	0.086
353	0.086
353	0.085
354	0.085
354	0.085
354	0.084
355	0.084
355	0.084
356	0.083
356	0.083
357	0.083
357	0.083
358	0.083
358	0.083
359	0.083
359	0.083
360	0.083
360	0.083
360	0.083
361	0.083
361	0.084
362	0.084
362	0.084
363	0.084
363	0.084
364	0.084
364	0.083
365	0.083
365	0.083
366	0.084
366	0.084
366	0.084
367	0.083
367	0.083
368	0.083
368	0.083
369	0.083
369	0.082
370	0.082
370	0.082
371	0.082
371	0.081
372	0.081
372	0.081
372	0.081
373	0.081
373	0.081
374	0.081
374	0.081
375	0.081
375	0.081
376	0.082
376	0.082
377	0.082
377	0.082
378	0.082
378	0.082
378	0.082
379	0.082
379	0.082
380	0.082
380	0.082
381	0.082
381	0.082
382	0.082
382	0.082
383	0.082
383	0.081
383	0.081
384	0.081
384	0.081
385	0.081
385	0.081
386	0.08
386	0.08
387	0.08
387	0.08
388	0.08
388	0.08
389	0.08
389	0.08
389	0.08
390	0.08
390	0.081
391	0.081
391	0.081
392	0.081
392	0.081
393	0.081
393	0.081
394	0.081
394	0.081
394	0.081
395	0.081
395	0.081
396	0.08
396	0.08
397	0.08
397	0.08
398	0.08
398	0.08
399	0.08
399	0.08
400	0.08
400	0.079
400	0.079
401	0.079
401	0.078
402	0.078
402	0.078
403	0.078
403	0.077
404	0.077
404	0.077
405	0.077
405	0.077
405	0.077
406	0.077
406	0.077
407	0.077
407	0.077
408	0.077
408	0.077
409	0.076
409	0.076
410	0.076
410	0.076
411	0.076
411	0.076
411	0.076
412	0.076
412	0.076
413	0.076
413	0.076
414	0.076
414	0.076
415	0.075
415	0.075
416	0.075
416	0.075
416	0.074
417	0.074
417	0.074
418	0.074
418	0.074
419	0.074
419	0.075
420	0.075
420	0.075
421	0.075
421	0.076
421	0.076
422	0.076
422	0.076
423	0.076
423	0.076
424	0.075
424	0.075
425	0.075
425	0.075
426	0.075
426	0.074
427	0.074
427	0.074
427	0.074
428	0.074
428	0.075
429	0.075
429	0.075
430	0.075
430	0.075
431	0.075
431	0.075
432	0.075
432	0.074
432	0.074
433	0.074
433	0.073
434	0.073
434	0.073
435	0.073
435	0.073
436	0.073
436	0.073
437	0.073
437	0.073
437	0.073
438	0.073
438	0.073
439	0.073
439	0.072
440	0.072
440	0.072
441	0.072
441	0.072
442	0.072
442	0.072
442	0.072
443	0.072
443	0.072
444	0.073
444	0.073
445	0.073
445	0.073
446	0.073
446	0.073
447	0.073
447	0.073
447	0.073
448	0.073
448	0.073
449	0.073
449	0.073
450	0.072
450	0.072
451	0.072
451	0.072
452	0.072
452	0.072
452	0.072
453	0.071
453	0.071
454	0.07
454	0.07
455	0.07
455	0.07
456	0.069
456	0.069
457	0.069
457	0.069
458	0.069
458	0.069
458	0.07
459	0.07
459	0.07
460	0.07
460	0.069
461	0.069
461	0.069
462	0.069
462	0.069
463	0.07
463	0.07
463	0.07
464	0.07
464	0.07
465	0.07
465	0.071
466	0.071
466	0.071
467	0.071
467	0.07
467	0.07
468	0.069
468	0.069
469	0.068
469	0.067
470	0.067
470	0.067
471	0.067
471	0.067
472	0.067
472	0.067
472	0.068
473	0.068
473	0.069
474	0.069
474	0.07
475	0.07
475	0.071
476	0.071
476	0.071
477	0.071
477	0.071
477	0.071
478	0.071
478	0.071
479	0.071
479	0.072
480	0.072
480	0.072
481	0.073
481	0.073
482	0.074
482	0.074
482	0.075
483	0.076
483	0.078
484	0.079
484	0.08
485	0.081
485	0.082
486	0.082
486	0.082
487	0.083
487	0.083
487	0.083
488	0.082
488	0.082
489	0.081
489	0.081
490	0.08
490	0.08
491	0.08
491	0.081
492	0.081
492	0.081
492	0.082
493	0.082
493	0.083
494	0.084
494	0.085
495	0.087
495	0.087
496	0.088
496	0.089
496	0.09
497	0.09
497	0.091
498	0.092
498	0.093
499	0.093
499	0.093
500	0.093
500	0.094
501	0.095
501	0.096
501	0.096
502	0.097
502	0.098
503	0.098
503	0.099
504	0.099
504	0.1
505	0.101
505	0.101
506	0.102
506	0.102
506	0.103
507	0.103
507	0.104
508	0.104
508	0.105
509	0.105
509	0.106
510	0.107
510	0.107
511	0.108
511	0.108
511	0.108
512	0.109
512	0.109
513	0.109
513	0.109
514	0.108
514	0.108
515	0.108
515	0.108
515	0.108
516	0.108
516	0.108
517	0.108
517	0.109
518	0.109
518	0.109
519	0.109
519	0.108
520	0.108
520	0.107
520	0.106
521	0.105
521	0.103
522	0.102
522	0.101
523	0.099
523	0.099
524	0.099
524	0.099
524	0.1
525	0.1
525	0.102
526	0.103
526	0.104
527	0.106
527	0.107
528	0.108
528	0.109
529	0.109
529	0.109
529	0.11
530	0.11
530	0.11
531	0.11
531	0.109
532	0.109
532	0.108
533	0.108
533	0.107
533	0.106
534	0.105
534	0.104
535	0.104
535	0.103
536	0.102
536	0.101
537	0.1
537	0.1
538	0.099
538	0.098
538	0.097
539	0.097
539	0.097
540	0.096
540	0.095
541	0.094
541	0.093
542	0.092
542	0.091
542	0.09
543	0.089
543	0.088
544	0.086
544	0.086
545	0.085
545	0.085
546	0.084
546	0.083
547	0.082
547	0.081
547	0.08
548	0.079
548	0.078
549	0.078
549	0.077
550	0.076
550	0.075
551	0.074
551	0.073
551	0.072
552	0.072
552	0.071
553	0.071
553	0.07
554	0.069
554	0.068
555	0.066
555	0.065
556	0.063
556	0.061
556	0.06
557	0.058
557	0.058
558	0.057
558	0.055
559	0.055
559	0.054
560	0.054
560	0.053
560	0.053
561	0.053
561	0.053
562	0.052
562	0.051
563	0.05
563	0.049
564	0.047
564	0.046
564	0.045
565	0.044
565	0.043
566	0.042
566	0.041
567	0.041
567	0.041
568	0.041
568	0.042
568	0.042
569	0.043
569	0.044
570	0.045
570	0.045
571	0.046
571	0.046
572	0.046
572	0.046
573	0.046
573	0.046
573	0.045
574	0.045
574	0.044
575	0.044
575	0.045
576	0.045
576	0.044
577	0.043
577	0.042
577	0.042
578	0.041
578	0.041
579	0.042
579	0.043
580	0.042
580	0.04
581	0.038
581	0.037
581	0.037
582	0.037
582	0.037
583	0.037
583	0.037
584	0.035
584	0.032
585	0.032
585	0.032
585	0.032
586	0.032
586	0.032
587	0.03
587	0.029
588	0.027
588	0.027
589	0.026
589	0.026
590	0.026
590	0.026
590	0.028
591	0.028
591	0.029
592	0.029
592	0.028
593	0.028
593	0.028
594	0.027
594	0.026
594	0.026
595	0.025
595	0.024
596	0.024
596	0.024
597	0.026
597	0.026
598	0.026
598	0.027
598	0.028
599	0.028
599	0.028
600	0.028
600	0.027
601	0.027
601	0.026
602	0.025
602	0.025
602	0.024
603	0.024
603	0.025
604	0.025
604	0.026
605	0.027
605	0.028
606	0.028
606	0.027
606	0.027
607	0.027
607	0.026
608	0.026
608	0.024
609	0.023
609	0.023
610	0.022
610	0.021
610	0.021
611	0.022
611	0.023
612	0.024
612	0.025
613	0.026
613	0.027
614	0.028
614	0.028
614	0.028
615	0.028
615	0.027
616	0.027
616	0.027
617	0.027
617	0.026
618	0.025
618	0.024
618	0.024
619	0.024
619	0.024
620	0.025
620	0.026
621	0.026
621	0.026
622	0.026
622	0.026
622	0.026
623	0.026
623	0.027
624	0.027
624	0.027
625	0.027
625	0.027
626	0.027
626	0.028
626	0.028
627	0.029
627	0.029
628	0.03
628	0.031
629	0.031
629	0.031
630	0.031
630	0.03
630	0.031
631	0.031
631	0.031
632	0.031
632	0.031
633	0.031
633	0.031
634	0.032
634	0.033
634	0.034
635	0.036
635	0.036
636	0.037
636	0.038
637	0.038
637	0.039
638	0.04
638	0.041
638	0.042
639	0.043
639	0.043
640	0.044
640	0.044
641	0.045
641	0.046
642	0.047
642	0.048
642	0.049
643	0.05
643	0.051
644	0.052
644	0.053
645	0.053
645	0.055
646	0.056
646	0.059
646	0.061
647	0.063
647	0.065
648	0.066
648	0.068
649	0.07
649	0.072
650	0.074
650	0.076
650	0.077
651	0.079
651	0.08
652	0.081
652	0.082
653	0.084
653	0.09
653	0.095
654	0.078
654	0.065
655	0.066
655	0.067
656	0.069
656	0.07
657	0.072
657	0.073
657	0.074
658	0.072
658	0.069
659	0.085
659	0.107
660	0.113
660	0.114
661	0.115
661	0.117
661	0.118
662	0.12
662	0.121
663	0.123
663	0.124
664	0.126
664	0.127
665	0.128
665	0.129
665	0.131
666	0.132
666	0.133
667	0.135
667	0.136
668	0.138
668	0.139
669	0.141
669	0.143
669	0.145
670	0.147
670	0.149
671	0.15
671	0.151
672	0.152
672	0.153
672	0.154
673	0.155
673	0.157
674	0.158
674	0.159
675	0.16
675	0.161
676	0.163
676	0.165
676	0.167
677	0.168
677	0.17
678	0.171
678	0.172
679	0.173
679	0.174
680	0.175
680	0.176
680	0.176
681	0.177
681	0.178
682	0.178
682	0.179
683	0.18
683	0.182
684	0.183
684	0.183
684	0.182
685	0.183
685	0.182
686	0.182
686	0.182
687	0.181
687	0.18
687	0.179
688	0.178
688	0.178
689	0.178
689	0.179
690	0.18
690	0.18
691	0.181
691	0.182
691	0.182
692	0.182
692	0.182
693	0.182
693	0.183
694	0.182
694	0.181
695	0.182
695	0.182
695	0.182
696	0.181
696	0.18
697	0.179
697	0.178
698	0.177
698	0.175
698	0.174
699	0.173
699	0.171
700	0.168
700	0.167
701	0.166
701	0.165
702	0.164
702	0.162
702	0.161
703	0.16
703	0.158
704	0.157
704	0.156
705	0.155
705	0.154
705	0.153
706	0.152
706	0.151
707	0.15
707	0.149
708	0.148
708	0.147
709	0.146
709	0.144
709	0.142
710	0.141
710	0.139
711	0.138
711	0.137
712	0.136
712	0.135
713	0.134
713	0.133
713	0.132
714	0.131
714	0.129
715	0.128
715	0.126
716	0.125
716	0.123
716	0.122
717	0.12
717	0.118
718	0.116
718	0.114
719	0.113
719	0.111
720	0.109
720	0.107
720	0.105
721	0.103
721	0.101
722	0.099
722	0.097
723	0.095
723	0.095
723	0.093
724	0.092
724	0.091
725	0.09
725	0.09
726	0.089
726	0.089
727	0.088
727	0.087
727	0.086
728	0.084
728	0.083
729	0.083
729	0.082
730	0.081
730	0.079
730	0.078
731	0.076
731	0.075
732	0.075
732	0.074
733	0.073
733	0.072
734	0.071
734	0.07
734	0.069
735	0.069
735	0.068
736	0.067
736	0.066
737	0.065
737	0.065
737	0.064
738	0.062
738	0.06
739	0.058
739	0.056
740	0.054
740	0.053
741	0.051
741	0.049
741	0.047
742	0.044
742	0.042
743	0.04
743	0.039
744	0.038
744	0.037
744	0.036
745	0.034
745	0.033
746	0.032
746	0.032
747	0.031
747	0.031
748	0.031
748	0.031
748	0.03
749	0.03
749	0.029
750	0.029
750	0.029
751	0.029
751	0.029
751	0.029
752	0.028
752	0.027
753	0.026
753	0.025
754	0.024
754	0.023
754	0.023
755	0.023
755	0.023
756	0.023
756	0.021
757	0.021
757	0.022
758	0.022
758	0.022
758	0.022
759	0.022
759	0.021
760	0.019
760	0.018
761	0.017
761	0.016
761	0.015
762	0.014
762	0.013
763	0.012
763	0.011
764	0.009
764	0.008
764	0.007
765	0.005
765	0.004
766	0.003
766	0.003
767	0.002
767	-0.001
768	-0.003
768	-0.004
768	-0.005
769	-0.006
769	-0.007
770	-0.008
770	-0.009
771	-0.011
771	-0.013
771	-0.015
772	-0.017
772	-0.018
773	-0.02
773	-0.022
774	-0.025
774	-0.027
775	-0.029
775	-0.031
775	-0.033
776	-0.035
776	-0.036
777	-0.038
777	-0.04
778	-0.042
778	-0.044
778	-0.046
779	-0.047
779	-0.049
780	-0.051
780	-0.054
781	-0.057
781	-0.062
781	-0.067
782	-0.074
782	-0.08
783	-0.086
783	-0.092
784	-0.099
784	-0.104
784	-0.109
785	-0.114
785	-0.119
786	-0.122
786	-0.12
787	-0.117
787	-0.113
788	-0.113
788	-0.114
788	-0.115
789	-0.117
789	-0.117
790	-0.114
790	-0.113
791	-0.114
791	-0.116
791	-0.118
792	-0.114
792	-0.103
793	-0.097
793	-0.093
794	-0.091
794	-0.094
794	-0.098
795	-0.1
795	-0.101
796	-0.101
796	-0.104
797	-0.113
797	-0.124
797	-0.13
798	-0.136
798	-0.139
799	-0.14
799	-0.139
800	-0.138
800	-0.14
801	-0.143
801	-0.143
801	-0.143
802	-0.144
802	-0.145
803	-0.146
803	-0.146
804	-0.145
804	-0.14
804	-0.133
805	-0.129
805	-0.128
806	-0.126
806	-0.125
807	-0.125
807	-0.125
807	-0.125
808	-0.125
808	-0.126
809	-0.131
809	-0.137
810	-0.141
810	-0.144
810	-0.147
811	-0.15
811	-0.15
812	-0.146
812	-0.143
813	-0.143
813	-0.144
813	-0.145
814	-0.146
814	-0.147
815	-0.145
815	-0.142
816	-0.14
816	-0.141
817	-0.146
817	-0.149
817	-0.149
818	-0.146
818	-0.141
819	-0.136
819	-0.131
820	-0.129
820	-0.126
820	-0.122
821	-0.115
821	-0.108
822	-0.1
822	-0.093
823	-0.087
823	-0.082
823	-0.077
824	-0.072
824	-0.066
825	-0.059
825	-0.053
826	-0.048
826	-0.044
826	-0.039
827	-0.036
827	-0.032
828	-0.03
828	-0.027
829	-0.025
829	-0.023
829	-0.022
830	-0.022
830	-0.021
831	-0.019
831	-0.018
832	-0.017
832	-0.016
832	-0.015
833	-0.014
833	-0.012
834	-0.011
834	-0.01
835	-0.009
835	-0.009
835	-0.008
836	-0.008
836	-0.007
837	-0.007
837	-0.006
838	-0.006
838	-0.006
839	-0.006
839	-0.007
839	-0.007
840	-0.007
840	-0.008
841	-0.008
841	-0.008
842	-0.008
842	-0.008
842	-0.008
843	-0.007
843	-0.007
844	-0.007
844	-0.007
845	-0.006
845	-0.006
845	-0.006
846	-0.005
846	-0.005
847	-0.005
847	-0.005
848	-0.005
848	-0.004
848	-0.004
849	-0.003
849	-0.003
850	-0.002
850	-0.002
851	-0.001
851	-0
851	0
852	0
852	0.001
853	0.001
853	0.001
854	0.001
854	0.001
854	0.001
855	0.001
855	0.001
856	0.001
856	0.001
857	0
857	0
857	0
858	-0
858	-0
859	-0
859	-0
860	-0
860	0
860	0
861	0.001
861	0.002
862	0.002
862	0.002
863	0.003
863	0.003
863	0.004
864	0.004
864	0.004
865	0.005
865	0.006
866	0.006
866	0.007
866	0.008
867	0.009
867	0.01
868	0.011
868	0.011
869	0.012
869	0.012
869	0.012
870	0.012
870	0.012
871	0.012
871	0.012
872	0.012
872	0.011
872	0.01
873	0.01
873	0.009
874	0.008
874	0.008
875	0.007
875	0.007
875	0.006
876	0.006
876	0.005
877	0.005
877	0.005
878	0.004
878	0.004
878	0.004
879	0.004
879	0.004
880	0.004
880	0.004
881	0.004
881	0.005
881	0.005
882	0.005
882	0.005
883	0.005
883	0.005
884	0.005
884	0.005
884	0.005
885	0.005
885	0.005
886	0.005
886	0.005
887	0.006
887	0.006
887	0.006
888	0.006
888	0.006
889	0.006
889	0.006
890	0.006
890	0.006
890	0.006
891	0.006
891	0.007
892	0.007
892	0.008
893	0.009
893	0.01
893	0.011
894	0.012
894	0.013
895	0.013
895	0.013
895	0.013
896	0.013
896	0.013
897	0.012
897	0.012
898	0.011
898	0.01
898	0.008
899	0.007
899	0.006
900	0.005
900	0.004
901	0.003
901	0.002
901	0.001
902	0.001
902	0.001
903	0.001
903	0.001
904	0.001
904	0.001
904	0.001
905	0.001
905	0.002
906	0.002
906	0.002
907	0.002
907	0.002
907	0.002
908	0.002
908	0.002
909	0.003
909	0.004
910	0.004
910	0.005
910	0.005
911	0.005
911	0.006
912	0.006
912	0.007
913	0.007
913	0.007
913	0.007
914	0.007
914	0.007
915	0.007
915	0.008
916	0.008
916	0.008
916	0.008
917	0.008
917	0.007
918	0.007
918	0.007
918	0.006
919	0.005
919	0.005
920	0.005
920	0.004
921	0.005
921	0.005
921	0.005
922	0.006
922	0.006
923	0.007
923	0.007
924	0.008
924	0.009
924	0.009
925	0.01
925	0.01
926	0.011
926	0.011
927	0.012
927	0.012
927	0.012
928	0.013
928	0.013
929	0.013
929	0.014
930	0.013
930	0.013
930	0.013
931	0.012
931	0.012
932	0.011
932	0.011
933	0.01
933	0.009
933	0.008
934	0.007
934	0.006
935	0.005
935	0.005
935	0.004
936	0.003
936	0.003
937	0.002
937	0.002
938	0.002
938	0.001
938	0.001
939	0.001
939	0.001
940	0.002
940	0.002
941	0.003
941	0.003
941	0.004
942	0.006
942	0.007
943	0.008
943	0.009
944	0.011
944	0.012
944	0.013
945	0.014
945	0.016
946	0.016
946	0.017
946	0.018
947	0.019
947	0.019
948	0.02
948	0.02
949	0.02
949	0.02
949	0.02
950	0.02
950	0.019
951	0.019
951	0.019
952	0.019
952	0.018
952	0.018
953	0.018
953	0.018
954	0.017
954	0.017
955	0.017
955	0.017
955	0.017
956	0.017
956	0.018
957	0.018
957	0.018
957	0.018
958	0.018
958	0.018
959	0.019
959	0.019
960	0.019
960	0.019
960	0.019
961	0.019
961	0.02
962	0.02
962	0.021
963	0.021
963	0.022
963	0.022
964	0.022
964	0.023
965	0.023
965	0.023
966	0.024
966	0.024
966	0.023
967	0.023
967	0.021
968	0.02
968	0.019
968	0.018
969	0.016
969	0.015
970	0.014
970	0.013
971	0.012
971	0.011
971	0.011
972	0.01
972	0.01
973	0.01
973	0.01
974	0.01
974	0.01
974	0.011
975	0.011
975	0.012
976	0.012
976	0.012
976	0.013
977	0.012
977	0.012
978	0.012
978	0.011
979	0.011
979	0.01
979	0.009
980	0.008
980	0.007
981	0.006
981	0.006
982	0.005
982	0.005
982	0.004
983	0.004
983	0.004
984	0.003
984	0.003
984	0.003
985	0.003
985	0.003
986	0.002
986	0.002
987	0.001
987	0.001
987	0.001
988	0.001
988	0.001
989	0.001
989	0.001
990	0.001
990	0.002
990	0.002
991	0.003
991	0.004
992	0.005
992	0.005
992	0.006
993	0.006
993	0.007
994	0.007
994	0.007
995	0.007
995	0.007
995	0.007
996	0.006
996	0.005
997	0.004
997	0.003
997	0.003
998	0.002
998	0.002
999	0.002
999	0.002
1000	0.002
1000	0.003
1000	0.004
1001	0.005
1001	0.006
1002	0.007
1002	0.007
1003	0.008
1003	0.009
1003	0.009
1004	0.01
1004	0.01
1005	0.01
1005	0.01
1005	0.009
1006	0.009
1006	0.009
1007	0.009
1007	0.008
1008	0.008
1008	0.008
1008	0.008
1009	0.008
1009	0.009
1010	0.009
1010	0.01
1010	0.01
1011	0.011
1011	0.012
1012	0.012
1012	0.013
1013	0.013
1013	0.014
1013	0.014
1014	0.013
1014	0.013
1015	0.013
1015	0.012
1016	0.011
1016	0.011
1016	0.01
1017	0.01
1017	0.009
1018	0.008
1018	0.008
1018	0.007
1019	0.007
1019	0.006
1020	0.006
1020	0.005
1021	0.004
1021	0.004
1021	0.003
1022	0.002
1022	0.002
1023	0.001
1023	0.001
1023	0
1024	-0
1024	-0
1025	-0.001
1025	-0
1026	0
1026	0
1026	0.001
1027	0.001
1027	0.002
1028	0.002
1028	0.003
1028	0.003
1029	0.003
1029	0.003
1030	0.003
1030	0.003
1031	0.004
1031	0.004
1031	0.004
1032	0.004
1032	0.004
1033	0.004
1033	0.004
1033	0.004
1034	0.004
1034	0.004
1035	0.004
1035	0.004
1036	0.003
1036	0.004
1036	0.004
1037	0.005
1037	0.005
1038	0.005
1038	0.006
1039	0.007
1039	0.007
1039	0.008
1040	0.008
1040	0.009
1041	0.009
1041	0.009
1041	0.009
1042	0.009
1042	0.009
1043	0.008
1043	0.008
1044	0.008
1044	0.007
1044	0.007
1045	0.007
1045	0.006
1046	0.006
1046	0.005
1046	0.005
1047	0.006
1047	0.006
1048	0.006
1048	0.006
1049	0.006
1049	0.006
1049	0.006
1050	0.006
1050	0.006
1051	0.007
1051	0.007
1051	0.007
1052	0.007
1052	0.007
1053	0.007
1053	0.008
1053	0.008
1054	0.008
1054	0.009
1055	0.009
1055	0.009
1056	0.009
1056	0.009
1056	0.009
1057	0.009
1057	0.009
1058	0.009
1058	0.009
1058	0.009
1059	0.009
1059	0.009
1060	0.009
1060	0.01
1061	0.01
1061	0.011
1061	0.011
1062	0.011
1062	0.011
1063	0.011
1063	0.01
1063	0.01
1064	0.011
1064	0.011
1065	0.011
1065	0.011
1066	0.01
1066	0.01
1066	0.01
1067	0.01
1067	0.01
1068	0.009
1068	0.008
1068	0.008
1069	0.007
1069	0.006
1070	0.005
1070	0.005
1071	0.004
1071	0.004
1071	0.003
1072	0.003
1072	0.003
1073	0.003
1073	0.004
1073	0.004
1074	0.004
1074	0.005
1075	0.004
1075	0.004
1076	0.004
1076	0.005
1076	0.005
1077	0.005
1077	0.006
1078	0.006
1078	0.007
1078	0.009
1079	0.009
1079	0.011
1080	0.012
1080	0.013
1080	0.014
1081	0.015
1081	0.016
1082	0.017
1082	0.018
1083	0.019
1083	0.02
1083	0.021
1084	0.022
1084	0.024
1085	0.025
1085	0.026
1085	0.028
1086	0.029
1086	0.03
1087	0.032
1087	0.034
1088	0.034
1088	0.035
1088	0.037
1089	0.037
1089	0.038
1090	0.039
1090	0.04
1090	0.04
1091	0.041
1091	0.043
1092	0.044
1092	0.046
1092	0.048
1093	0.05
1093	0.053
1094	0.055
1094	0.057
1095	0.06
1095	0.063
1095	0.068
1096	0.072
1096	0.076
1097	0.08
1097	0.084
1097	0.089
1098	0.094
1098	0.1
1099	0.106
1099	0.112
1100	0.119
1100	0.125
1100	0.133
1101	0.14
1101	0.15
1102	0.161
1102	0.171
1102	0.183
1103	0.196
1103	0.209
1104	0.226
1104	0.242
1104	0.263
1105	0.284
1105	0.306
1106	0.329
1106	0.358
1107	0.391
1107	0.436
1107	0.497
1108	0.72
1108	1.459
1109	-0
1109	-0
1109	-0
1110	-0
1110	-0
1111	-0
1111	-0
