Data from 17c-2-2a_Absorbance__601__03037.txt Node

Date: Fri Jan 26 14:44:55 CET 2024
User: Marek
Spectrometer: MAYP115816
Trigger mode: 0
Integration Time (sec): 2.000000E-1
Scans to average: 10
Electric dark correction enabled: true
Nonlinearity correction enabled: true
Boxcar width: 5
XAxis mode: Wavelengths
Number of Pixels in Spectrum: 2068
>>>>>Begin Spectral Data<<<<<
199	-1.769
199	-1.624
200	-1.471
200	-1.357
201	-1.284
201	-1.238
202	-1.169
202	-1.112
203	-1.065
203	-1.024
204	-0.997
204	-0.973
205	-0.952
205	-0.943
205	-0.94
206	-0.935
206	-0.931
207	-0.927
207	-0.926
208	-0.925
208	-0.922
209	-0.92
209	-0.916
210	-0.916
210	-0.915
211	-0.916
211	-0.917
212	-0.917
212	-0.917
213	-0.914
213	-0.91
213	-0.911
214	-0.908
214	-0.907
215	-0.902
215	-0.899
216	-0.895
216	-0.894
217	-0.89
217	-0.888
218	-0.885
218	-0.883
219	-0.879
219	-0.877
220	-0.876
220	-0.876
221	-0.872
221	-0.871
221	-0.866
222	-0.861
222	-0.857
223	-0.853
223	-0.85
224	-0.845
224	-0.837
225	-0.83
225	-0.823
226	-0.814
226	-0.802
227	-0.792
227	-0.78
228	-0.764
228	-0.747
229	-0.727
229	-0.705
229	-0.682
230	-0.653
230	-0.622
231	-0.591
231	-0.557
232	-0.521
232	-0.482
233	-0.441
233	-0.399
234	-0.358
234	-0.316
235	-0.275
235	-0.237
236	-0.199
236	-0.162
236	-0.127
237	-0.095
237	-0.065
238	-0.037
238	-0.012
239	0.012
239	0.033
240	0.053
240	0.071
241	0.087
241	0.102
242	0.115
242	0.127
243	0.138
243	0.147
243	0.156
244	0.164
244	0.171
245	0.178
245	0.184
246	0.19
246	0.195
247	0.2
247	0.205
248	0.209
248	0.213
249	0.217
249	0.221
250	0.224
250	0.228
250	0.231
251	0.234
251	0.237
252	0.24
252	0.243
253	0.245
253	0.247
254	0.249
254	0.251
255	0.253
255	0.255
256	0.257
256	0.258
257	0.26
257	0.261
258	0.262
258	0.263
258	0.264
259	0.265
259	0.266
260	0.266
260	0.267
261	0.267
261	0.267
262	0.268
262	0.268
263	0.268
263	0.268
264	0.267
264	0.267
265	0.267
265	0.266
265	0.266
266	0.265
266	0.264
267	0.263
267	0.262
268	0.261
268	0.26
269	0.258
269	0.257
270	0.256
270	0.255
271	0.253
271	0.252
272	0.25
272	0.249
272	0.247
273	0.246
273	0.244
274	0.243
274	0.241
275	0.239
275	0.238
276	0.236
276	0.234
277	0.232
277	0.23
278	0.228
278	0.226
278	0.224
279	0.222
279	0.22
280	0.218
280	0.216
281	0.214
281	0.212
282	0.211
282	0.209
283	0.208
283	0.206
284	0.205
284	0.204
285	0.202
285	0.201
285	0.199
286	0.198
286	0.196
287	0.195
287	0.194
288	0.192
288	0.191
289	0.19
289	0.189
290	0.187
290	0.186
291	0.185
291	0.184
292	0.183
292	0.182
292	0.181
293	0.18
293	0.179
294	0.179
294	0.178
295	0.177
295	0.176
296	0.175
296	0.174
297	0.174
297	0.173
298	0.173
298	0.172
298	0.172
299	0.171
299	0.171
300	0.17
300	0.169
301	0.169
301	0.168
302	0.168
302	0.167
303	0.167
303	0.167
304	0.166
304	0.166
305	0.165
305	0.165
305	0.164
306	0.164
306	0.163
307	0.163
307	0.162
308	0.162
308	0.161
309	0.161
309	0.16
310	0.16
310	0.16
311	0.159
311	0.159
311	0.158
312	0.158
312	0.158
313	0.157
313	0.157
314	0.156
314	0.156
315	0.155
315	0.154
316	0.154
316	0.153
317	0.153
317	0.152
318	0.152
318	0.151
318	0.151
319	0.15
319	0.15
320	0.149
320	0.149
321	0.148
321	0.148
322	0.147
322	0.147
323	0.146
323	0.146
324	0.145
324	0.145
324	0.144
325	0.144
325	0.143
326	0.143
326	0.142
327	0.142
327	0.142
328	0.141
328	0.14
329	0.14
329	0.14
330	0.139
330	0.139
330	0.138
331	0.138
331	0.137
332	0.137
332	0.136
333	0.136
333	0.136
334	0.135
334	0.135
335	0.134
335	0.134
336	0.133
336	0.133
336	0.133
337	0.132
337	0.132
338	0.132
338	0.131
339	0.131
339	0.131
340	0.13
340	0.13
341	0.129
341	0.129
342	0.129
342	0.128
342	0.128
343	0.128
343	0.127
344	0.127
344	0.126
345	0.126
345	0.126
346	0.125
346	0.125
347	0.124
347	0.124
348	0.124
348	0.123
348	0.123
349	0.123
349	0.122
350	0.122
350	0.122
351	0.122
351	0.121
352	0.121
352	0.121
353	0.121
353	0.12
354	0.12
354	0.12
354	0.119
355	0.119
355	0.119
356	0.118
356	0.118
357	0.117
357	0.117
358	0.117
358	0.117
359	0.117
359	0.117
360	0.117
360	0.118
360	0.118
361	0.118
361	0.118
362	0.118
362	0.118
363	0.118
363	0.118
364	0.118
364	0.117
365	0.117
365	0.117
366	0.117
366	0.117
366	0.117
367	0.117
367	0.117
368	0.117
368	0.117
369	0.117
369	0.116
370	0.116
370	0.116
371	0.116
371	0.115
372	0.115
372	0.115
372	0.115
373	0.115
373	0.115
374	0.115
374	0.115
375	0.115
375	0.115
376	0.116
376	0.116
377	0.116
377	0.116
378	0.116
378	0.116
378	0.116
379	0.116
379	0.116
380	0.116
380	0.116
381	0.116
381	0.115
382	0.115
382	0.115
383	0.115
383	0.114
383	0.114
384	0.114
384	0.114
385	0.113
385	0.113
386	0.113
386	0.113
387	0.113
387	0.113
388	0.113
388	0.113
389	0.113
389	0.113
389	0.113
390	0.113
390	0.113
391	0.113
391	0.114
392	0.114
392	0.114
393	0.114
393	0.114
394	0.114
394	0.113
394	0.113
395	0.113
395	0.113
396	0.112
396	0.112
397	0.112
397	0.112
398	0.112
398	0.112
399	0.112
399	0.112
400	0.111
400	0.111
400	0.111
401	0.111
401	0.11
402	0.11
402	0.11
403	0.109
403	0.109
404	0.109
404	0.109
405	0.109
405	0.109
405	0.109
406	0.109
406	0.109
407	0.109
407	0.109
408	0.109
408	0.108
409	0.108
409	0.108
410	0.108
410	0.108
411	0.108
411	0.108
411	0.108
412	0.107
412	0.107
413	0.107
413	0.107
414	0.107
414	0.107
415	0.106
415	0.106
416	0.106
416	0.105
416	0.105
417	0.105
417	0.105
418	0.105
418	0.105
419	0.105
419	0.105
420	0.106
420	0.106
421	0.106
421	0.106
421	0.106
422	0.107
422	0.107
423	0.107
423	0.106
424	0.106
424	0.106
425	0.106
425	0.105
426	0.105
426	0.105
427	0.105
427	0.105
427	0.105
428	0.105
428	0.105
429	0.106
429	0.106
430	0.106
430	0.106
431	0.106
431	0.106
432	0.105
432	0.105
432	0.105
433	0.104
433	0.104
434	0.104
434	0.103
435	0.103
435	0.103
436	0.103
436	0.103
437	0.103
437	0.103
437	0.103
438	0.103
438	0.103
439	0.103
439	0.102
440	0.102
440	0.102
441	0.102
441	0.102
442	0.102
442	0.102
442	0.102
443	0.102
443	0.103
444	0.103
444	0.103
445	0.103
445	0.104
446	0.104
446	0.104
447	0.104
447	0.103
447	0.104
448	0.103
448	0.103
449	0.103
449	0.103
450	0.103
450	0.103
451	0.102
451	0.102
452	0.102
452	0.102
452	0.102
453	0.101
453	0.101
454	0.1
454	0.1
455	0.1
455	0.1
456	0.099
456	0.099
457	0.099
457	0.099
458	0.1
458	0.1
458	0.1
459	0.101
459	0.101
460	0.1
460	0.1
461	0.1
461	0.1
462	0.1
462	0.1
463	0.1
463	0.1
463	0.1
464	0.101
464	0.101
465	0.101
465	0.101
466	0.101
466	0.101
467	0.101
467	0.101
467	0.1
468	0.099
468	0.099
469	0.098
469	0.098
470	0.097
470	0.097
471	0.097
471	0.097
472	0.097
472	0.098
472	0.098
473	0.099
473	0.1
474	0.1
474	0.101
475	0.102
475	0.102
476	0.102
476	0.102
477	0.102
477	0.103
477	0.103
478	0.103
478	0.103
479	0.103
479	0.103
480	0.104
480	0.104
481	0.105
481	0.105
482	0.106
482	0.106
482	0.107
483	0.109
483	0.11
484	0.112
484	0.113
485	0.114
485	0.115
486	0.115
486	0.116
487	0.116
487	0.117
487	0.117
488	0.117
488	0.116
489	0.116
489	0.116
490	0.115
490	0.115
491	0.116
491	0.116
492	0.117
492	0.117
492	0.118
493	0.118
493	0.119
494	0.121
494	0.122
495	0.123
495	0.124
496	0.125
496	0.126
496	0.127
497	0.128
497	0.128
498	0.129
498	0.13
499	0.13
499	0.131
500	0.131
500	0.132
501	0.134
501	0.135
501	0.135
502	0.136
502	0.137
503	0.139
503	0.14
504	0.14
504	0.141
505	0.141
505	0.142
506	0.143
506	0.144
506	0.144
507	0.145
507	0.145
508	0.146
508	0.147
509	0.148
509	0.149
510	0.149
510	0.15
511	0.151
511	0.151
511	0.151
512	0.152
512	0.153
513	0.153
513	0.153
514	0.152
514	0.152
515	0.152
515	0.152
515	0.152
516	0.152
516	0.153
517	0.153
517	0.153
518	0.154
518	0.153
519	0.153
519	0.153
520	0.153
520	0.152
520	0.151
521	0.149
521	0.148
522	0.146
522	0.145
523	0.144
523	0.144
524	0.144
524	0.145
524	0.145
525	0.146
525	0.148
526	0.149
526	0.15
527	0.152
527	0.153
528	0.154
528	0.154
529	0.155
529	0.155
529	0.155
530	0.155
530	0.155
531	0.155
531	0.154
532	0.153
532	0.153
533	0.152
533	0.151
533	0.151
534	0.15
534	0.148
535	0.147
535	0.146
536	0.145
536	0.144
537	0.144
537	0.143
538	0.142
538	0.141
538	0.14
539	0.139
539	0.139
540	0.138
540	0.137
541	0.135
541	0.134
542	0.133
542	0.131
542	0.13
543	0.129
543	0.128
544	0.126
544	0.125
545	0.124
545	0.123
546	0.123
546	0.122
547	0.12
547	0.119
547	0.117
548	0.116
548	0.115
549	0.114
549	0.112
550	0.111
550	0.11
551	0.108
551	0.107
551	0.106
552	0.105
552	0.104
553	0.103
553	0.102
554	0.101
554	0.1
555	0.098
555	0.096
556	0.094
556	0.092
556	0.09
557	0.089
557	0.088
558	0.086
558	0.085
559	0.084
559	0.083
560	0.082
560	0.081
560	0.08
561	0.08
561	0.08
562	0.079
562	0.078
563	0.076
563	0.075
564	0.073
564	0.072
564	0.07
565	0.069
565	0.068
566	0.066
566	0.065
567	0.064
567	0.064
568	0.065
568	0.065
568	0.066
569	0.066
569	0.067
570	0.067
570	0.067
571	0.068
571	0.068
572	0.068
572	0.068
573	0.068
573	0.067
573	0.066
574	0.066
574	0.065
575	0.065
575	0.066
576	0.066
576	0.064
577	0.063
577	0.062
577	0.062
578	0.061
578	0.061
579	0.061
579	0.062
580	0.061
580	0.059
581	0.057
581	0.055
581	0.055
582	0.055
582	0.055
583	0.055
583	0.054
584	0.052
584	0.05
585	0.049
585	0.049
585	0.049
586	0.049
586	0.049
587	0.047
587	0.046
588	0.045
588	0.044
589	0.043
589	0.043
590	0.043
590	0.043
590	0.044
591	0.044
591	0.044
592	0.044
592	0.044
593	0.044
593	0.043
594	0.043
594	0.042
594	0.041
595	0.041
595	0.039
596	0.038
596	0.039
597	0.04
597	0.041
598	0.041
598	0.042
598	0.042
599	0.043
599	0.043
600	0.042
600	0.041
601	0.041
601	0.04
602	0.039
602	0.039
602	0.038
603	0.038
603	0.039
604	0.04
604	0.04
605	0.041
605	0.042
606	0.043
606	0.042
606	0.042
607	0.041
607	0.041
608	0.04
608	0.039
609	0.038
609	0.037
610	0.036
610	0.035
610	0.036
611	0.036
611	0.037
612	0.038
612	0.039
613	0.04
613	0.041
614	0.041
614	0.041
614	0.041
615	0.041
615	0.041
616	0.041
616	0.041
617	0.041
617	0.04
618	0.039
618	0.038
618	0.038
619	0.038
619	0.038
620	0.039
620	0.04
621	0.04
621	0.04
622	0.04
622	0.04
622	0.04
623	0.04
623	0.041
624	0.041
624	0.041
625	0.041
625	0.042
626	0.042
626	0.042
626	0.043
627	0.044
627	0.045
628	0.045
628	0.046
629	0.046
629	0.046
630	0.046
630	0.045
630	0.046
631	0.046
631	0.046
632	0.046
632	0.046
633	0.046
633	0.046
634	0.047
634	0.048
634	0.05
635	0.051
635	0.052
636	0.053
636	0.054
637	0.055
637	0.056
638	0.057
638	0.058
638	0.059
639	0.06
639	0.061
640	0.062
640	0.063
641	0.064
641	0.065
642	0.066
642	0.067
642	0.068
643	0.069
643	0.07
644	0.071
644	0.072
645	0.074
645	0.075
646	0.077
646	0.079
646	0.081
647	0.084
647	0.086
648	0.087
648	0.089
649	0.091
649	0.094
650	0.096
650	0.098
650	0.1
651	0.102
651	0.103
652	0.104
652	0.105
653	0.107
653	0.114
653	0.119
654	0.097
654	0.081
655	0.082
655	0.084
656	0.085
656	0.087
657	0.089
657	0.09
657	0.092
658	0.09
658	0.086
659	0.107
659	0.135
660	0.141
660	0.143
661	0.144
661	0.146
661	0.148
662	0.15
662	0.152
663	0.154
663	0.155
664	0.157
664	0.158
665	0.159
665	0.161
665	0.162
666	0.164
666	0.166
667	0.167
667	0.169
668	0.171
668	0.173
669	0.175
669	0.177
669	0.18
670	0.183
670	0.185
671	0.186
671	0.188
672	0.189
672	0.191
672	0.192
673	0.193
673	0.195
674	0.196
674	0.197
675	0.198
675	0.199
676	0.202
676	0.204
676	0.205
677	0.207
677	0.209
678	0.21
678	0.211
679	0.212
679	0.213
680	0.215
680	0.216
680	0.216
681	0.217
681	0.218
682	0.218
682	0.219
683	0.22
683	0.222
684	0.223
684	0.223
684	0.222
685	0.222
685	0.222
686	0.222
686	0.222
687	0.221
687	0.22
687	0.22
688	0.219
688	0.218
689	0.219
689	0.22
690	0.22
690	0.22
691	0.221
691	0.222
691	0.222
692	0.222
692	0.222
693	0.222
693	0.223
694	0.222
694	0.221
695	0.221
695	0.222
695	0.221
696	0.22
696	0.219
697	0.218
697	0.216
698	0.215
698	0.213
698	0.211
699	0.209
699	0.207
700	0.204
700	0.202
701	0.201
701	0.2
702	0.199
702	0.197
702	0.196
703	0.194
703	0.193
704	0.192
704	0.191
705	0.189
705	0.188
705	0.187
706	0.186
706	0.185
707	0.184
707	0.182
708	0.181
708	0.18
709	0.179
709	0.177
709	0.175
710	0.173
710	0.172
711	0.171
711	0.169
712	0.168
712	0.167
713	0.165
713	0.164
713	0.163
714	0.161
714	0.159
715	0.158
715	0.156
716	0.154
716	0.152
716	0.15
717	0.148
717	0.146
718	0.144
718	0.141
719	0.139
719	0.138
720	0.136
720	0.133
720	0.131
721	0.129
721	0.126
722	0.124
722	0.122
723	0.12
723	0.119
723	0.118
724	0.116
724	0.115
725	0.113
725	0.112
726	0.111
726	0.111
727	0.109
727	0.109
727	0.108
728	0.106
728	0.105
729	0.105
729	0.104
730	0.102
730	0.1
730	0.099
731	0.098
731	0.097
732	0.096
732	0.095
733	0.094
733	0.092
734	0.091
734	0.09
734	0.089
735	0.089
735	0.088
736	0.087
736	0.085
737	0.084
737	0.084
737	0.082
738	0.08
738	0.078
739	0.076
739	0.074
740	0.072
740	0.07
741	0.069
741	0.066
741	0.064
742	0.06
742	0.058
743	0.056
743	0.055
744	0.053
744	0.052
744	0.051
745	0.049
745	0.047
746	0.046
746	0.046
747	0.045
747	0.045
748	0.045
748	0.044
748	0.044
749	0.043
749	0.043
750	0.043
750	0.043
751	0.043
751	0.043
751	0.043
752	0.042
752	0.04
753	0.039
753	0.038
754	0.038
754	0.037
754	0.036
755	0.036
755	0.036
756	0.036
756	0.035
757	0.034
757	0.035
758	0.035
758	0.035
758	0.035
759	0.035
759	0.034
760	0.033
760	0.031
761	0.03
761	0.029
761	0.028
762	0.026
762	0.025
763	0.024
763	0.022
764	0.021
764	0.019
764	0.018
765	0.016
765	0.015
766	0.014
766	0.013
767	0.012
767	0.01
768	0.008
768	0.006
768	0.005
769	0.004
769	0.004
770	0.002
770	0.001
771	-0.001
771	-0.003
771	-0.006
772	-0.008
772	-0.009
773	-0.011
773	-0.014
774	-0.017
774	-0.019
775	-0.021
775	-0.023
775	-0.025
776	-0.027
776	-0.029
777	-0.03
777	-0.032
778	-0.034
778	-0.036
778	-0.039
779	-0.04
779	-0.042
780	-0.044
780	-0.047
781	-0.051
781	-0.055
781	-0.061
782	-0.067
782	-0.074
783	-0.08
783	-0.086
784	-0.093
784	-0.098
784	-0.104
785	-0.11
785	-0.116
786	-0.119
786	-0.118
787	-0.115
787	-0.112
788	-0.113
788	-0.114
788	-0.115
789	-0.117
789	-0.117
790	-0.114
790	-0.113
791	-0.113
791	-0.116
791	-0.118
792	-0.114
792	-0.103
793	-0.097
793	-0.093
794	-0.091
794	-0.094
794	-0.098
795	-0.1
795	-0.101
796	-0.101
796	-0.104
797	-0.112
797	-0.124
797	-0.13
798	-0.136
798	-0.139
799	-0.14
799	-0.139
800	-0.138
800	-0.14
801	-0.143
801	-0.143
801	-0.143
802	-0.144
802	-0.145
803	-0.146
803	-0.146
804	-0.145
804	-0.14
804	-0.133
805	-0.129
805	-0.128
806	-0.126
806	-0.125
807	-0.125
807	-0.125
807	-0.125
808	-0.125
808	-0.126
809	-0.131
809	-0.137
810	-0.141
810	-0.143
810	-0.147
811	-0.15
811	-0.15
812	-0.146
812	-0.143
813	-0.143
813	-0.144
813	-0.145
814	-0.146
814	-0.147
815	-0.145
815	-0.142
816	-0.14
816	-0.141
817	-0.146
817	-0.149
817	-0.149
818	-0.146
818	-0.142
819	-0.136
819	-0.132
820	-0.129
820	-0.126
820	-0.121
821	-0.115
821	-0.107
822	-0.099
822	-0.091
823	-0.084
823	-0.079
823	-0.074
824	-0.069
824	-0.062
825	-0.056
825	-0.05
826	-0.044
826	-0.04
826	-0.036
827	-0.032
827	-0.028
828	-0.026
828	-0.023
829	-0.021
829	-0.019
829	-0.019
830	-0.018
830	-0.017
831	-0.016
831	-0.015
832	-0.014
832	-0.013
832	-0.011
833	-0.01
833	-0.009
834	-0.007
834	-0.006
835	-0.005
835	-0.004
835	-0.004
836	-0.003
836	-0.002
837	-0.002
837	-0.001
838	-0.001
838	-0.002
839	-0.002
839	-0.002
839	-0.003
840	-0.003
840	-0.004
841	-0.004
841	-0.004
842	-0.004
842	-0.004
842	-0.004
843	-0.003
843	-0.003
844	-0.002
844	-0.002
845	-0.001
845	-0.001
845	0
846	0
846	0
847	0
847	0.001
848	0.001
848	0.001
848	0.001
849	0.002
849	0.002
850	0.003
850	0.003
851	0.004
851	0.005
851	0.005
852	0.005
852	0.005
853	0.006
853	0.006
854	0.006
854	0.007
854	0.007
855	0.007
855	0.007
856	0.006
856	0.006
857	0.006
857	0.005
857	0.005
858	0.005
858	0.005
859	0.005
859	0.005
860	0.005
860	0.005
860	0.006
861	0.006
861	0.007
862	0.008
862	0.008
863	0.008
863	0.009
863	0.009
864	0.009
864	0.01
865	0.01
865	0.011
866	0.012
866	0.012
866	0.013
867	0.014
867	0.015
868	0.016
868	0.017
869	0.017
869	0.018
869	0.018
870	0.018
870	0.018
871	0.018
871	0.018
872	0.017
872	0.017
872	0.016
873	0.016
873	0.015
874	0.014
874	0.014
875	0.013
875	0.012
875	0.012
876	0.011
876	0.01
877	0.01
877	0.009
878	0.009
878	0.008
878	0.009
879	0.008
879	0.008
880	0.008
880	0.008
881	0.009
881	0.009
881	0.009
882	0.009
882	0.009
883	0.009
883	0.009
884	0.01
884	0.01
884	0.01
885	0.01
885	0.011
886	0.011
886	0.011
887	0.011
887	0.011
887	0.011
888	0.011
888	0.011
889	0.011
889	0.011
890	0.011
890	0.01
890	0.01
891	0.01
891	0.011
892	0.011
892	0.012
893	0.013
893	0.014
893	0.015
894	0.016
894	0.016
895	0.017
895	0.017
895	0.017
896	0.017
896	0.017
897	0.017
897	0.016
898	0.015
898	0.014
898	0.013
899	0.012
899	0.011
900	0.01
900	0.009
901	0.008
901	0.007
901	0.006
902	0.006
902	0.006
903	0.006
903	0.006
904	0.006
904	0.006
904	0.006
905	0.006
905	0.007
906	0.007
906	0.007
907	0.006
907	0.006
907	0.006
908	0.006
908	0.007
909	0.008
909	0.008
910	0.008
910	0.009
910	0.009
911	0.009
911	0.01
912	0.01
912	0.011
913	0.011
913	0.011
913	0.011
914	0.011
914	0.011
915	0.012
915	0.012
916	0.012
916	0.012
916	0.012
917	0.012
917	0.012
918	0.012
918	0.011
918	0.011
919	0.011
919	0.01
920	0.01
920	0.009
921	0.009
921	0.009
921	0.009
922	0.009
922	0.01
923	0.01
923	0.01
924	0.011
924	0.011
924	0.012
925	0.012
925	0.013
926	0.013
926	0.014
927	0.014
927	0.015
927	0.015
928	0.016
928	0.016
929	0.017
929	0.017
930	0.017
930	0.017
930	0.016
931	0.016
931	0.016
932	0.015
932	0.015
933	0.014
933	0.013
933	0.012
934	0.011
934	0.011
935	0.01
935	0.009
935	0.009
936	0.008
936	0.007
937	0.006
937	0.005
938	0.005
938	0.004
938	0.004
939	0.004
939	0.004
940	0.004
940	0.004
941	0.005
941	0.006
941	0.007
942	0.008
942	0.01
943	0.011
943	0.012
944	0.014
944	0.015
944	0.016
945	0.017
945	0.019
946	0.02
946	0.021
946	0.022
947	0.023
947	0.024
948	0.024
948	0.024
949	0.024
949	0.024
949	0.024
950	0.023
950	0.023
951	0.023
951	0.022
952	0.022
952	0.021
952	0.021
953	0.021
953	0.021
954	0.021
954	0.021
955	0.021
955	0.021
955	0.022
956	0.022
956	0.022
957	0.022
957	0.022
957	0.022
958	0.023
958	0.023
959	0.023
959	0.024
960	0.024
960	0.024
960	0.024
961	0.024
961	0.025
962	0.025
962	0.025
963	0.026
963	0.026
963	0.026
964	0.027
964	0.027
965	0.027
965	0.027
966	0.027
966	0.027
966	0.027
967	0.026
967	0.025
968	0.024
968	0.023
968	0.022
969	0.02
969	0.019
970	0.018
970	0.017
971	0.016
971	0.015
971	0.014
972	0.014
972	0.014
973	0.013
973	0.013
974	0.013
974	0.013
974	0.014
975	0.014
975	0.015
976	0.015
976	0.016
976	0.016
977	0.016
977	0.016
978	0.016
978	0.015
979	0.015
979	0.014
979	0.014
980	0.013
980	0.012
981	0.011
981	0.01
982	0.01
982	0.009
982	0.009
983	0.008
983	0.008
984	0.008
984	0.007
984	0.007
985	0.007
985	0.007
986	0.006
986	0.006
987	0.006
987	0.005
987	0.006
988	0.006
988	0.006
989	0.006
989	0.006
990	0.007
990	0.007
990	0.008
991	0.009
991	0.009
992	0.01
992	0.01
992	0.011
993	0.011
993	0.011
994	0.011
994	0.011
995	0.011
995	0.011
995	0.01
996	0.009
996	0.008
997	0.007
997	0.007
997	0.006
998	0.006
998	0.005
999	0.005
999	0.005
1000	0.005
1000	0.006
1000	0.006
1001	0.007
1001	0.008
1002	0.009
1002	0.009
1003	0.01
1003	0.011
1003	0.011
1004	0.011
1004	0.011
1005	0.011
1005	0.011
1005	0.011
1006	0.011
1006	0.011
1007	0.01
1007	0.01
1008	0.01
1008	0.01
1008	0.01
1009	0.01
1009	0.011
1010	0.012
1010	0.013
1010	0.013
1011	0.014
1011	0.015
1012	0.016
1012	0.017
1013	0.018
1013	0.018
1013	0.019
1014	0.018
1014	0.018
1015	0.018
1015	0.017
1016	0.017
1016	0.016
1016	0.015
1017	0.015
1017	0.014
1018	0.013
1018	0.012
1018	0.012
1019	0.011
1019	0.011
1020	0.01
1020	0.009
1021	0.009
1021	0.008
1021	0.007
1022	0.007
1022	0.006
1023	0.005
1023	0.005
1023	0.005
1024	0.005
1024	0.004
1025	0.004
1025	0.005
1026	0.005
1026	0.005
1026	0.005
1027	0.006
1027	0.006
1028	0.007
1028	0.008
1028	0.008
1029	0.009
1029	0.009
1030	0.01
1030	0.01
1031	0.01
1031	0.01
1031	0.01
1032	0.011
1032	0.011
1033	0.011
1033	0.011
1033	0.01
1034	0.01
1034	0.01
1035	0.01
1035	0.009
1036	0.009
1036	0.009
1036	0.01
1037	0.01
1037	0.01
1038	0.01
1038	0.01
1039	0.011
1039	0.011
1039	0.012
1040	0.012
1040	0.012
1041	0.013
1041	0.013
1041	0.012
1042	0.012
1042	0.012
1043	0.012
1043	0.012
1044	0.012
1044	0.012
1044	0.012
1045	0.011
1045	0.011
1046	0.011
1046	0.011
1046	0.011
1047	0.011
1047	0.011
1048	0.011
1048	0.011
1049	0.011
1049	0.01
1049	0.01
1050	0.01
1050	0.01
1051	0.01
1051	0.01
1051	0.01
1052	0.01
1052	0.01
1053	0.01
1053	0.01
1053	0.01
1054	0.011
1054	0.011
1055	0.011
1055	0.011
1056	0.011
1056	0.011
1056	0.011
1057	0.011
1057	0.011
1058	0.011
1058	0.012
1058	0.012
1059	0.013
1059	0.013
1060	0.013
1060	0.014
1061	0.014
1061	0.014
1061	0.015
1062	0.015
1062	0.015
1063	0.014
1063	0.014
1063	0.013
1064	0.014
1064	0.013
1065	0.013
1065	0.013
1066	0.012
1066	0.012
1066	0.012
1067	0.012
1067	0.012
1068	0.012
1068	0.011
1068	0.01
1069	0.01
1069	0.009
1070	0.009
1070	0.008
1071	0.008
1071	0.008
1071	0.007
1072	0.007
1072	0.007
1073	0.007
1073	0.007
1073	0.007
1074	0.007
1074	0.008
1075	0.008
1075	0.008
1076	0.008
1076	0.008
1076	0.008
1077	0.009
1077	0.01
1078	0.01
1078	0.011
1078	0.013
1079	0.013
1079	0.015
1080	0.016
1080	0.017
1080	0.018
1081	0.02
1081	0.021
1082	0.023
1082	0.023
1083	0.024
1083	0.026
1083	0.027
1084	0.027
1084	0.029
1085	0.03
1085	0.032
1085	0.033
1086	0.034
1086	0.034
1087	0.036
1087	0.037
1088	0.038
1088	0.039
1088	0.04
1089	0.041
1089	0.042
1090	0.043
1090	0.045
1090	0.046
1091	0.047
1091	0.05
1092	0.051
1092	0.053
1092	0.055
1093	0.057
1093	0.06
1094	0.062
1094	0.064
1095	0.065
1095	0.068
1095	0.073
1096	0.077
1096	0.081
1097	0.086
1097	0.091
1097	0.096
1098	0.101
1098	0.106
1099	0.113
1099	0.121
1100	0.129
1100	0.136
1100	0.144
1101	0.151
1101	0.16
1102	0.17
1102	0.181
1102	0.194
1103	0.207
1103	0.223
1104	0.239
1104	0.257
1104	0.277
1105	0.298
1105	0.321
1106	0.345
1106	0.375
1107	0.411
1107	0.46
1107	0.527
1108	0.774
1108	1.933
1109	-0
1109	-0
1109	-0
1110	-0
1110	-0
1111	-0
1111	-0
