Data from 17c-2-2a_Absorbance__26__02462.txt Node

Date: Fri Jan 26 14:25:45 CET 2024
User: Marek
Spectrometer: MAYP115816
Trigger mode: 0
Integration Time (sec): 2.000000E-1
Scans to average: 10
Electric dark correction enabled: true
Nonlinearity correction enabled: true
Boxcar width: 5
XAxis mode: Wavelengths
Number of Pixels in Spectrum: 2068
>>>>>Begin Spectral Data<<<<<
199	-1.828
199	-1.682
200	-1.529
200	-1.414
201	-1.34
201	-1.295
202	-1.224
202	-1.168
203	-1.12
203	-1.079
204	-1.052
204	-1.027
205	-1.006
205	-0.996
205	-0.993
206	-0.988
206	-0.984
207	-0.981
207	-0.98
208	-0.979
208	-0.976
209	-0.973
209	-0.969
210	-0.969
210	-0.969
211	-0.969
211	-0.97
212	-0.97
212	-0.968
213	-0.966
213	-0.962
213	-0.962
214	-0.96
214	-0.958
215	-0.953
215	-0.951
216	-0.947
216	-0.946
217	-0.943
217	-0.941
218	-0.936
218	-0.936
219	-0.932
219	-0.931
220	-0.929
220	-0.929
221	-0.926
221	-0.924
221	-0.92
222	-0.914
222	-0.911
223	-0.907
223	-0.903
224	-0.897
224	-0.891
225	-0.884
225	-0.876
226	-0.868
226	-0.856
227	-0.846
227	-0.835
228	-0.818
228	-0.802
229	-0.781
229	-0.76
229	-0.736
230	-0.708
230	-0.678
231	-0.647
231	-0.613
232	-0.577
232	-0.539
233	-0.499
233	-0.459
234	-0.419
234	-0.379
235	-0.34
235	-0.302
236	-0.266
236	-0.231
236	-0.198
237	-0.167
237	-0.139
238	-0.113
238	-0.09
239	-0.068
239	-0.048
240	-0.03
240	-0.014
241	0
241	0.014
242	0.025
242	0.036
243	0.046
243	0.055
243	0.063
244	0.07
244	0.077
245	0.083
245	0.089
246	0.094
246	0.099
247	0.103
247	0.107
248	0.111
248	0.115
249	0.119
249	0.122
250	0.125
250	0.128
250	0.131
251	0.134
251	0.137
252	0.14
252	0.142
253	0.145
253	0.147
254	0.148
254	0.15
255	0.152
255	0.154
256	0.156
256	0.157
257	0.158
257	0.16
258	0.16
258	0.162
258	0.163
259	0.163
259	0.164
260	0.165
260	0.165
261	0.166
261	0.166
262	0.166
262	0.166
263	0.166
263	0.166
264	0.166
264	0.166
265	0.166
265	0.165
265	0.165
266	0.164
266	0.164
267	0.163
267	0.162
268	0.161
268	0.16
269	0.159
269	0.158
270	0.157
270	0.156
271	0.155
271	0.154
272	0.153
272	0.151
272	0.15
273	0.149
273	0.147
274	0.146
274	0.145
275	0.144
275	0.142
276	0.141
276	0.139
277	0.138
277	0.136
278	0.135
278	0.133
278	0.131
279	0.129
279	0.128
280	0.126
280	0.124
281	0.123
281	0.121
282	0.12
282	0.119
283	0.118
283	0.116
284	0.116
284	0.115
285	0.114
285	0.112
285	0.111
286	0.11
286	0.109
287	0.108
287	0.107
288	0.106
288	0.105
289	0.104
289	0.103
290	0.102
290	0.101
291	0.1
291	0.099
292	0.099
292	0.098
292	0.097
293	0.096
293	0.096
294	0.095
294	0.095
295	0.094
295	0.093
296	0.093
296	0.092
297	0.092
297	0.092
298	0.091
298	0.091
298	0.091
299	0.09
299	0.09
300	0.09
300	0.089
301	0.089
301	0.089
302	0.089
302	0.088
303	0.088
303	0.088
304	0.088
304	0.087
305	0.087
305	0.087
305	0.087
306	0.086
306	0.086
307	0.086
307	0.085
308	0.085
308	0.085
309	0.085
309	0.084
310	0.084
310	0.084
311	0.084
311	0.083
311	0.083
312	0.083
312	0.083
313	0.082
313	0.082
314	0.082
314	0.081
315	0.081
315	0.081
316	0.08
316	0.08
317	0.08
317	0.079
318	0.079
318	0.079
318	0.079
319	0.078
319	0.078
320	0.078
320	0.077
321	0.077
321	0.077
322	0.076
322	0.076
323	0.076
323	0.075
324	0.075
324	0.075
324	0.074
325	0.074
325	0.074
326	0.073
326	0.073
327	0.073
327	0.073
328	0.072
328	0.072
329	0.072
329	0.071
330	0.071
330	0.071
330	0.07
331	0.07
331	0.07
332	0.07
332	0.069
333	0.069
333	0.069
334	0.069
334	0.068
335	0.068
335	0.068
336	0.068
336	0.067
336	0.067
337	0.067
337	0.066
338	0.066
338	0.065
339	0.065
339	0.065
340	0.065
340	0.064
341	0.064
341	0.064
342	0.064
342	0.064
342	0.063
343	0.063
343	0.063
344	0.063
344	0.062
345	0.062
345	0.062
346	0.062
346	0.061
347	0.061
347	0.061
348	0.06
348	0.06
348	0.06
349	0.06
349	0.059
350	0.059
350	0.059
351	0.059
351	0.058
352	0.058
352	0.058
353	0.057
353	0.057
354	0.057
354	0.057
354	0.056
355	0.056
355	0.056
356	0.055
356	0.055
357	0.055
357	0.055
358	0.055
358	0.055
359	0.055
359	0.055
360	0.055
360	0.055
360	0.056
361	0.056
361	0.056
362	0.056
362	0.056
363	0.056
363	0.056
364	0.056
364	0.056
365	0.056
365	0.056
366	0.056
366	0.056
366	0.056
367	0.056
367	0.056
368	0.056
368	0.056
369	0.055
369	0.055
370	0.055
370	0.055
371	0.055
371	0.054
372	0.054
372	0.054
372	0.054
373	0.054
373	0.054
374	0.054
374	0.054
375	0.054
375	0.054
376	0.055
376	0.055
377	0.055
377	0.055
378	0.056
378	0.056
378	0.056
379	0.056
379	0.056
380	0.056
380	0.056
381	0.056
381	0.055
382	0.055
382	0.055
383	0.055
383	0.054
383	0.054
384	0.054
384	0.054
385	0.054
385	0.054
386	0.054
386	0.054
387	0.054
387	0.054
388	0.054
388	0.054
389	0.054
389	0.054
389	0.054
390	0.055
390	0.055
391	0.055
391	0.055
392	0.055
392	0.055
393	0.055
393	0.055
394	0.055
394	0.055
394	0.055
395	0.055
395	0.055
396	0.054
396	0.054
397	0.054
397	0.054
398	0.054
398	0.054
399	0.054
399	0.054
400	0.054
400	0.054
400	0.054
401	0.054
401	0.053
402	0.053
402	0.053
403	0.053
403	0.052
404	0.052
404	0.052
405	0.052
405	0.052
405	0.052
406	0.052
406	0.052
407	0.052
407	0.052
408	0.052
408	0.052
409	0.052
409	0.052
410	0.052
410	0.052
411	0.052
411	0.052
411	0.052
412	0.052
412	0.052
413	0.052
413	0.051
414	0.051
414	0.051
415	0.051
415	0.051
416	0.05
416	0.05
416	0.05
417	0.05
417	0.05
418	0.05
418	0.05
419	0.05
419	0.05
420	0.051
420	0.051
421	0.051
421	0.052
421	0.052
422	0.052
422	0.052
423	0.052
423	0.052
424	0.052
424	0.052
425	0.051
425	0.051
426	0.051
426	0.051
427	0.05
427	0.05
427	0.051
428	0.051
428	0.051
429	0.051
429	0.051
430	0.052
430	0.052
431	0.051
431	0.051
432	0.051
432	0.051
432	0.05
433	0.049
433	0.049
434	0.049
434	0.049
435	0.049
435	0.049
436	0.049
436	0.049
437	0.049
437	0.049
437	0.049
438	0.049
438	0.049
439	0.049
439	0.048
440	0.048
440	0.048
441	0.048
441	0.048
442	0.048
442	0.048
442	0.048
443	0.049
443	0.049
444	0.049
444	0.049
445	0.049
445	0.049
446	0.05
446	0.05
447	0.05
447	0.05
447	0.049
448	0.049
448	0.049
449	0.049
449	0.049
450	0.049
450	0.049
451	0.048
451	0.048
452	0.048
452	0.048
452	0.047
453	0.047
453	0.046
454	0.046
454	0.046
455	0.045
455	0.045
456	0.045
456	0.045
457	0.045
457	0.045
458	0.045
458	0.045
458	0.046
459	0.046
459	0.046
460	0.046
460	0.045
461	0.045
461	0.045
462	0.045
462	0.045
463	0.045
463	0.045
463	0.045
464	0.045
464	0.045
465	0.045
465	0.045
466	0.045
466	0.045
467	0.045
467	0.045
467	0.044
468	0.043
468	0.042
469	0.042
469	0.041
470	0.041
470	0.041
471	0.04
471	0.04
472	0.04
472	0.041
472	0.041
473	0.042
473	0.042
474	0.043
474	0.044
475	0.044
475	0.045
476	0.045
476	0.045
477	0.045
477	0.045
477	0.045
478	0.045
478	0.045
479	0.045
479	0.045
480	0.045
480	0.045
481	0.046
481	0.046
482	0.046
482	0.047
482	0.047
483	0.049
483	0.05
484	0.052
484	0.053
485	0.053
485	0.054
486	0.054
486	0.055
487	0.055
487	0.055
487	0.055
488	0.054
488	0.053
489	0.052
489	0.051
490	0.051
490	0.05
491	0.05
491	0.05
492	0.051
492	0.051
492	0.051
493	0.051
493	0.052
494	0.053
494	0.054
495	0.055
495	0.056
496	0.056
496	0.057
496	0.057
497	0.058
497	0.058
498	0.059
498	0.059
499	0.059
499	0.059
500	0.059
500	0.059
501	0.06
501	0.06
501	0.06
502	0.061
502	0.062
503	0.062
503	0.063
504	0.063
504	0.064
505	0.064
505	0.065
506	0.065
506	0.065
506	0.065
507	0.065
507	0.066
508	0.066
508	0.067
509	0.067
509	0.068
510	0.068
510	0.068
511	0.069
511	0.069
511	0.069
512	0.069
512	0.069
513	0.068
513	0.068
514	0.068
514	0.068
515	0.068
515	0.067
515	0.067
516	0.066
516	0.066
517	0.067
517	0.067
518	0.067
518	0.067
519	0.067
519	0.067
520	0.067
520	0.067
520	0.066
521	0.065
521	0.064
522	0.062
522	0.061
523	0.059
523	0.058
524	0.058
524	0.057
524	0.057
525	0.057
525	0.058
526	0.059
526	0.06
527	0.062
527	0.063
528	0.065
528	0.066
529	0.067
529	0.068
529	0.068
530	0.069
530	0.069
531	0.069
531	0.069
532	0.069
532	0.068
533	0.068
533	0.068
533	0.068
534	0.067
534	0.066
535	0.066
535	0.065
536	0.065
536	0.064
537	0.064
537	0.063
538	0.063
538	0.062
538	0.061
539	0.061
539	0.061
540	0.061
540	0.06
541	0.059
541	0.059
542	0.059
542	0.058
542	0.058
543	0.057
543	0.057
544	0.056
544	0.056
545	0.055
545	0.056
546	0.055
546	0.055
547	0.054
547	0.054
547	0.053
548	0.052
548	0.051
549	0.051
549	0.05
550	0.05
550	0.049
551	0.048
551	0.047
551	0.047
552	0.046
552	0.046
553	0.046
553	0.046
554	0.045
554	0.044
555	0.043
555	0.042
556	0.041
556	0.04
556	0.039
557	0.038
557	0.037
558	0.036
558	0.036
559	0.036
559	0.035
560	0.035
560	0.035
560	0.035
561	0.035
561	0.036
562	0.035
562	0.035
563	0.034
563	0.033
564	0.032
564	0.031
564	0.03
565	0.029
565	0.028
566	0.027
566	0.027
567	0.027
567	0.027
568	0.028
568	0.029
568	0.03
569	0.032
569	0.033
570	0.034
570	0.034
571	0.035
571	0.036
572	0.037
572	0.037
573	0.037
573	0.037
573	0.036
574	0.036
574	0.036
575	0.036
575	0.037
576	0.038
576	0.037
577	0.036
577	0.035
577	0.035
578	0.035
578	0.036
579	0.036
579	0.037
580	0.037
580	0.035
581	0.033
581	0.032
581	0.032
582	0.032
582	0.032
583	0.033
583	0.032
584	0.03
584	0.028
585	0.027
585	0.028
585	0.028
586	0.028
586	0.028
587	0.027
587	0.026
588	0.024
588	0.023
589	0.023
589	0.023
590	0.023
590	0.023
590	0.024
591	0.025
591	0.025
592	0.025
592	0.024
593	0.025
593	0.024
594	0.024
594	0.023
594	0.022
595	0.022
595	0.02
596	0.02
596	0.02
597	0.022
597	0.022
598	0.023
598	0.023
598	0.024
599	0.025
599	0.025
600	0.024
600	0.024
601	0.023
601	0.023
602	0.022
602	0.021
602	0.021
603	0.021
603	0.022
604	0.022
604	0.023
605	0.024
605	0.026
606	0.026
606	0.025
606	0.025
607	0.025
607	0.024
608	0.024
608	0.023
609	0.022
609	0.021
610	0.02
610	0.019
610	0.019
611	0.02
611	0.02
612	0.021
612	0.021
613	0.022
613	0.023
614	0.023
614	0.023
614	0.023
615	0.023
615	0.022
616	0.022
616	0.022
617	0.022
617	0.021
618	0.02
618	0.019
618	0.019
619	0.019
619	0.019
620	0.02
620	0.02
621	0.02
621	0.02
622	0.02
622	0.02
622	0.02
623	0.02
623	0.02
624	0.02
624	0.02
625	0.02
625	0.021
626	0.021
626	0.021
626	0.021
627	0.022
627	0.023
628	0.023
628	0.024
629	0.024
629	0.024
630	0.023
630	0.023
630	0.023
631	0.023
631	0.022
632	0.022
632	0.022
633	0.022
633	0.022
634	0.022
634	0.023
634	0.024
635	0.025
635	0.025
636	0.026
636	0.027
637	0.027
637	0.028
638	0.029
638	0.03
638	0.031
639	0.031
639	0.031
640	0.032
640	0.032
641	0.033
641	0.034
642	0.034
642	0.035
642	0.036
643	0.036
643	0.037
644	0.037
644	0.038
645	0.039
645	0.04
646	0.042
646	0.044
646	0.046
647	0.048
647	0.049
648	0.051
648	0.052
649	0.054
649	0.056
650	0.058
650	0.059
650	0.061
651	0.062
651	0.063
652	0.063
652	0.064
653	0.066
653	0.071
653	0.075
654	0.063
654	0.053
655	0.053
655	0.054
656	0.055
656	0.056
657	0.058
657	0.059
657	0.06
658	0.058
658	0.055
659	0.067
659	0.084
660	0.089
660	0.09
661	0.091
661	0.092
661	0.093
662	0.094
662	0.095
663	0.096
663	0.097
664	0.098
664	0.099
665	0.1
665	0.1
665	0.101
666	0.102
666	0.103
667	0.104
667	0.105
668	0.106
668	0.108
669	0.109
669	0.11
669	0.112
670	0.114
670	0.116
671	0.116
671	0.117
672	0.118
672	0.119
672	0.12
673	0.12
673	0.122
674	0.122
674	0.123
675	0.123
675	0.124
676	0.126
676	0.128
676	0.129
677	0.131
677	0.132
678	0.133
678	0.134
679	0.135
679	0.136
680	0.137
680	0.138
680	0.138
681	0.139
681	0.139
682	0.14
682	0.14
683	0.142
683	0.143
684	0.144
684	0.144
684	0.143
685	0.143
685	0.143
686	0.143
686	0.142
687	0.141
687	0.141
687	0.14
688	0.14
688	0.14
689	0.14
689	0.142
690	0.142
690	0.143
691	0.144
691	0.145
691	0.145
692	0.145
692	0.145
693	0.146
693	0.146
694	0.145
694	0.144
695	0.144
695	0.145
695	0.145
696	0.144
696	0.143
697	0.142
697	0.142
698	0.141
698	0.139
698	0.139
699	0.138
699	0.136
700	0.135
700	0.134
701	0.133
701	0.133
702	0.131
702	0.13
702	0.129
703	0.128
703	0.127
704	0.126
704	0.125
705	0.124
705	0.123
705	0.123
706	0.122
706	0.121
707	0.121
707	0.12
708	0.119
708	0.119
709	0.118
709	0.117
709	0.115
710	0.114
710	0.113
711	0.112
711	0.111
712	0.11
712	0.109
713	0.109
713	0.108
713	0.107
714	0.106
714	0.104
715	0.103
715	0.102
716	0.101
716	0.1
716	0.099
717	0.098
717	0.097
718	0.095
718	0.094
719	0.093
719	0.091
720	0.09
720	0.088
720	0.087
721	0.085
721	0.083
722	0.081
722	0.08
723	0.078
723	0.077
723	0.076
724	0.075
724	0.074
725	0.073
725	0.073
726	0.072
726	0.071
727	0.071
727	0.07
727	0.069
728	0.068
728	0.068
729	0.068
729	0.067
730	0.066
730	0.065
730	0.064
731	0.063
731	0.062
732	0.061
732	0.061
733	0.06
733	0.059
734	0.058
734	0.057
734	0.057
735	0.057
735	0.056
736	0.055
736	0.054
737	0.053
737	0.053
737	0.052
738	0.05
738	0.048
739	0.047
739	0.045
740	0.044
740	0.042
741	0.041
741	0.039
741	0.037
742	0.034
742	0.032
743	0.03
743	0.029
744	0.028
744	0.027
744	0.026
745	0.025
745	0.024
746	0.024
746	0.024
747	0.024
747	0.025
748	0.025
748	0.025
748	0.025
749	0.024
749	0.025
750	0.025
750	0.024
751	0.025
751	0.025
751	0.025
752	0.024
752	0.023
753	0.022
753	0.022
754	0.021
754	0.021
754	0.021
755	0.021
755	0.021
756	0.02
756	0.019
757	0.019
757	0.019
758	0.019
758	0.019
758	0.019
759	0.018
759	0.017
760	0.015
760	0.013
761	0.012
761	0.011
761	0.01
762	0.009
762	0.008
763	0.008
763	0.006
764	0.004
764	0.003
764	0.002
765	0.001
765	-0.001
766	-0.001
766	-0.002
767	-0.002
767	-0.004
768	-0.006
768	-0.008
768	-0.008
769	-0.009
769	-0.009
770	-0.01
770	-0.011
771	-0.013
771	-0.015
771	-0.017
772	-0.019
772	-0.021
773	-0.023
773	-0.026
774	-0.029
774	-0.032
775	-0.035
775	-0.037
775	-0.04
776	-0.042
776	-0.044
777	-0.046
777	-0.048
778	-0.05
778	-0.053
778	-0.055
779	-0.056
779	-0.058
780	-0.061
780	-0.064
781	-0.069
781	-0.075
781	-0.081
782	-0.088
782	-0.095
783	-0.102
783	-0.107
784	-0.112
784	-0.117
784	-0.12
785	-0.124
785	-0.127
786	-0.127
786	-0.124
787	-0.119
787	-0.114
788	-0.113
788	-0.113
788	-0.114
789	-0.116
789	-0.116
790	-0.113
790	-0.112
791	-0.113
791	-0.115
791	-0.118
792	-0.113
792	-0.102
793	-0.096
793	-0.092
794	-0.091
794	-0.093
794	-0.097
795	-0.1
795	-0.1
796	-0.1
796	-0.103
797	-0.112
797	-0.123
797	-0.13
798	-0.135
798	-0.138
799	-0.139
799	-0.138
800	-0.138
800	-0.139
801	-0.142
801	-0.143
801	-0.142
802	-0.144
802	-0.145
803	-0.145
803	-0.145
804	-0.144
804	-0.139
804	-0.133
805	-0.129
805	-0.127
806	-0.125
806	-0.124
807	-0.124
807	-0.124
807	-0.124
808	-0.125
808	-0.126
809	-0.131
809	-0.137
810	-0.14
810	-0.143
810	-0.146
811	-0.149
811	-0.15
812	-0.146
812	-0.142
813	-0.142
813	-0.143
813	-0.145
814	-0.146
814	-0.146
815	-0.144
815	-0.141
816	-0.14
816	-0.14
817	-0.145
817	-0.149
817	-0.148
818	-0.146
818	-0.142
819	-0.136
819	-0.132
820	-0.13
820	-0.127
820	-0.123
821	-0.116
821	-0.109
822	-0.101
822	-0.094
823	-0.087
823	-0.082
823	-0.078
824	-0.072
824	-0.065
825	-0.059
825	-0.053
826	-0.047
826	-0.043
826	-0.039
827	-0.035
827	-0.031
828	-0.028
828	-0.026
829	-0.024
829	-0.022
829	-0.022
830	-0.021
830	-0.021
831	-0.019
831	-0.018
832	-0.017
832	-0.016
832	-0.015
833	-0.014
833	-0.013
834	-0.011
834	-0.01
835	-0.009
835	-0.008
835	-0.008
836	-0.007
836	-0.006
837	-0.005
837	-0.005
838	-0.004
838	-0.004
839	-0.004
839	-0.003
839	-0.003
840	-0.003
840	-0.003
841	-0.003
841	-0.003
842	-0.003
842	-0.003
842	-0.002
843	-0.002
843	-0.002
844	-0.002
844	-0.001
845	-0.001
845	-0.001
845	-0
846	0
846	0
847	0.001
847	0.001
848	0.002
848	0.002
848	0.002
849	0.002
849	0.003
850	0.003
850	0.003
851	0.003
851	0.003
851	0.003
852	0.002
852	0.002
853	0.002
853	0.002
854	0.002
854	0.002
854	0.002
855	0.003
855	0.003
856	0.003
856	0.003
857	0.003
857	0.003
857	0.002
858	0.003
858	0.002
859	0.002
859	0.002
860	0.002
860	0.002
860	0.002
861	0.003
861	0.003
862	0.004
862	0.004
863	0.005
863	0.005
863	0.006
864	0.007
864	0.007
865	0.008
865	0.009
866	0.01
866	0.011
866	0.012
867	0.013
867	0.014
868	0.015
868	0.016
869	0.017
869	0.017
869	0.017
870	0.017
870	0.016
871	0.016
871	0.015
872	0.015
872	0.014
872	0.013
873	0.013
873	0.012
874	0.012
874	0.011
875	0.011
875	0.01
875	0.01
876	0.01
876	0.01
877	0.009
877	0.009
878	0.009
878	0.008
878	0.008
879	0.008
879	0.008
880	0.008
880	0.008
881	0.008
881	0.008
881	0.008
882	0.009
882	0.009
883	0.009
883	0.009
884	0.01
884	0.01
884	0.011
885	0.011
885	0.012
886	0.012
886	0.013
887	0.013
887	0.014
887	0.014
888	0.014
888	0.015
889	0.015
889	0.015
890	0.015
890	0.014
890	0.014
891	0.014
891	0.013
892	0.013
892	0.014
893	0.014
893	0.014
893	0.015
894	0.015
894	0.015
895	0.015
895	0.015
895	0.015
896	0.015
896	0.014
897	0.013
897	0.013
898	0.012
898	0.011
898	0.01
899	0.009
899	0.009
900	0.008
900	0.007
901	0.007
901	0.006
901	0.006
902	0.006
902	0.006
903	0.006
903	0.006
904	0.006
904	0.006
904	0.007
905	0.007
905	0.007
906	0.007
906	0.007
907	0.007
907	0.007
907	0.007
908	0.008
908	0.008
909	0.009
909	0.009
910	0.01
910	0.01
910	0.01
911	0.01
911	0.011
912	0.011
912	0.012
913	0.012
913	0.012
913	0.012
914	0.012
914	0.012
915	0.012
915	0.012
916	0.012
916	0.011
916	0.011
917	0.01
917	0.01
918	0.01
918	0.009
918	0.009
919	0.009
919	0.009
920	0.009
920	0.009
921	0.01
921	0.01
921	0.011
922	0.012
922	0.013
923	0.013
923	0.014
924	0.015
924	0.016
924	0.016
925	0.017
925	0.018
926	0.018
926	0.018
927	0.018
927	0.018
927	0.018
928	0.018
928	0.018
929	0.018
929	0.018
930	0.017
930	0.017
930	0.017
931	0.016
931	0.016
932	0.015
932	0.015
933	0.014
933	0.013
933	0.012
934	0.011
934	0.011
935	0.01
935	0.009
935	0.009
936	0.008
936	0.008
937	0.008
937	0.009
938	0.009
938	0.009
938	0.009
939	0.009
939	0.009
940	0.01
940	0.01
941	0.01
941	0.01
941	0.011
942	0.011
942	0.012
943	0.013
943	0.013
944	0.014
944	0.014
944	0.015
945	0.016
945	0.017
946	0.018
946	0.019
946	0.019
947	0.02
947	0.021
948	0.021
948	0.021
949	0.022
949	0.022
949	0.022
950	0.022
950	0.022
951	0.022
951	0.022
952	0.022
952	0.022
952	0.022
953	0.022
953	0.021
954	0.021
954	0.021
955	0.021
955	0.021
955	0.021
956	0.022
956	0.022
957	0.021
957	0.021
957	0.021
958	0.021
958	0.021
959	0.022
959	0.022
960	0.022
960	0.022
960	0.022
961	0.022
961	0.022
962	0.022
962	0.023
963	0.024
963	0.024
963	0.025
964	0.025
964	0.025
965	0.026
965	0.026
966	0.026
966	0.027
966	0.027
967	0.026
967	0.025
968	0.024
968	0.023
968	0.022
969	0.021
969	0.019
970	0.018
970	0.017
971	0.016
971	0.015
971	0.014
972	0.014
972	0.014
973	0.013
973	0.013
974	0.013
974	0.013
974	0.014
975	0.014
975	0.014
976	0.015
976	0.015
976	0.014
977	0.014
977	0.014
978	0.013
978	0.013
979	0.012
979	0.011
979	0.01
980	0.009
980	0.008
981	0.007
981	0.007
982	0.006
982	0.006
982	0.006
983	0.006
983	0.005
984	0.005
984	0.005
984	0.005
985	0.005
985	0.005
986	0.004
986	0.004
987	0.003
987	0.003
987	0.003
988	0.003
988	0.003
989	0.003
989	0.003
990	0.004
990	0.004
990	0.005
991	0.006
991	0.007
992	0.008
992	0.009
992	0.01
993	0.011
993	0.011
994	0.012
994	0.012
995	0.012
995	0.012
995	0.012
996	0.012
996	0.011
997	0.01
997	0.01
997	0.009
998	0.009
998	0.009
999	0.009
999	0.009
1000	0.01
1000	0.01
1000	0.011
1001	0.012
1001	0.013
1002	0.014
1002	0.015
1003	0.016
1003	0.016
1003	0.017
1004	0.017
1004	0.017
1005	0.016
1005	0.016
1005	0.016
1006	0.015
1006	0.015
1007	0.014
1007	0.014
1008	0.014
1008	0.013
1008	0.013
1009	0.013
1009	0.013
1010	0.014
1010	0.014
1010	0.015
1011	0.015
1011	0.016
1012	0.016
1012	0.017
1013	0.017
1013	0.017
1013	0.017
1014	0.017
1014	0.017
1015	0.017
1015	0.017
1016	0.016
1016	0.016
1016	0.015
1017	0.015
1017	0.015
1018	0.014
1018	0.014
1018	0.014
1019	0.013
1019	0.013
1020	0.013
1020	0.012
1021	0.012
1021	0.011
1021	0.01
1022	0.01
1022	0.01
1023	0.01
1023	0.009
1023	0.009
1024	0.009
1024	0.008
1025	0.008
1025	0.008
1026	0.008
1026	0.009
1026	0.008
1027	0.008
1027	0.009
1028	0.009
1028	0.009
1028	0.009
1029	0.01
1029	0.01
1030	0.009
1030	0.009
1031	0.009
1031	0.009
1031	0.009
1032	0.008
1032	0.008
1033	0.008
1033	0.007
1033	0.007
1034	0.007
1034	0.006
1035	0.006
1035	0.005
1036	0.005
1036	0.006
1036	0.006
1037	0.006
1037	0.007
1038	0.008
1038	0.008
1039	0.009
1039	0.01
1039	0.011
1040	0.012
1040	0.013
1041	0.013
1041	0.014
1041	0.014
1042	0.014
1042	0.014
1043	0.014
1043	0.014
1044	0.014
1044	0.014
1044	0.014
1045	0.013
1045	0.013
1046	0.013
1046	0.012
1046	0.013
1047	0.013
1047	0.013
1048	0.014
1048	0.014
1049	0.014
1049	0.013
1049	0.014
1050	0.014
1050	0.014
1051	0.014
1051	0.014
1051	0.015
1052	0.015
1052	0.015
1053	0.015
1053	0.015
1053	0.016
1054	0.016
1054	0.016
1055	0.016
1055	0.017
1056	0.016
1056	0.016
1056	0.016
1057	0.016
1057	0.016
1058	0.016
1058	0.016
1058	0.017
1059	0.017
1059	0.017
1060	0.017
1060	0.017
1061	0.018
1061	0.018
1061	0.019
1062	0.018
1062	0.018
1063	0.018
1063	0.018
1063	0.018
1064	0.018
1064	0.019
1065	0.018
1065	0.018
1066	0.018
1066	0.018
1066	0.019
1067	0.019
1067	0.019
1068	0.019
1068	0.018
1068	0.017
1069	0.017
1069	0.016
1070	0.016
1070	0.015
1071	0.014
1071	0.014
1071	0.014
1072	0.014
1072	0.013
1073	0.014
1073	0.014
1073	0.015
1074	0.015
1074	0.016
1075	0.016
1075	0.016
1076	0.016
1076	0.017
1076	0.018
1077	0.018
1077	0.02
1078	0.02
1078	0.021
1078	0.023
1079	0.024
1079	0.026
1080	0.027
1080	0.029
1080	0.029
1081	0.031
1081	0.032
1082	0.033
1082	0.034
1083	0.036
1083	0.036
1083	0.037
1084	0.038
1084	0.04
1085	0.041
1085	0.043
1085	0.044
1086	0.046
1086	0.046
1087	0.047
1087	0.049
1088	0.05
1088	0.051
1088	0.053
1089	0.054
1089	0.055
1090	0.056
1090	0.058
1090	0.058
1091	0.06
1091	0.063
1092	0.064
1092	0.066
1092	0.069
1093	0.071
1093	0.075
1094	0.078
1094	0.08
1095	0.083
1095	0.088
1095	0.093
1096	0.097
1096	0.104
1097	0.109
1097	0.115
1097	0.122
1098	0.128
1098	0.136
1099	0.144
1099	0.154
1100	0.162
1100	0.171
1100	0.181
1101	0.191
1101	0.203
1102	0.218
1102	0.233
1102	0.249
1103	0.267
1103	0.287
1104	0.309
1104	0.337
1104	0.367
1105	0.399
1105	0.436
1106	0.474
1106	0.52
1107	0.581
1107	0.671
1107	0.803
1108	2.054
1108	-0
1109	-0
1109	-0
1109	-0
1110	-0
1110	-0
1111	-0
1111	-0
