Data from 17c-2-2a_Absorbance__758__03194.txt Node

Date: Fri Jan 26 14:50:09 CET 2024
User: Marek
Spectrometer: MAYP115816
Trigger mode: 0
Integration Time (sec): 2.000000E-1
Scans to average: 10
Electric dark correction enabled: true
Nonlinearity correction enabled: true
Boxcar width: 5
XAxis mode: Wavelengths
Number of Pixels in Spectrum: 2068
>>>>>Begin Spectral Data<<<<<
199	-1.81
199	-1.665
200	-1.511
200	-1.395
201	-1.322
201	-1.276
202	-1.205
202	-1.147
203	-1.099
203	-1.057
204	-1.03
204	-1.006
205	-0.985
205	-0.975
205	-0.972
206	-0.967
206	-0.963
207	-0.959
207	-0.958
208	-0.957
208	-0.955
209	-0.951
209	-0.948
210	-0.948
210	-0.948
211	-0.948
211	-0.949
212	-0.949
212	-0.948
213	-0.946
213	-0.942
213	-0.942
214	-0.94
214	-0.938
215	-0.933
215	-0.93
216	-0.926
216	-0.925
217	-0.922
217	-0.92
218	-0.916
218	-0.915
219	-0.91
219	-0.909
220	-0.908
220	-0.908
221	-0.905
221	-0.903
221	-0.899
222	-0.892
222	-0.888
223	-0.884
223	-0.88
224	-0.874
224	-0.867
225	-0.86
225	-0.852
226	-0.843
226	-0.831
227	-0.821
227	-0.809
228	-0.792
228	-0.774
229	-0.754
229	-0.732
229	-0.708
230	-0.678
230	-0.647
231	-0.614
231	-0.579
232	-0.541
232	-0.5
233	-0.458
233	-0.415
234	-0.371
234	-0.328
235	-0.284
235	-0.242
236	-0.201
236	-0.161
236	-0.123
237	-0.087
237	-0.054
238	-0.024
238	0.005
239	0.031
239	0.056
240	0.079
240	0.099
241	0.118
241	0.135
242	0.15
242	0.164
243	0.177
243	0.188
243	0.199
244	0.209
244	0.217
245	0.225
245	0.232
246	0.239
246	0.245
247	0.251
247	0.257
248	0.262
248	0.267
249	0.271
249	0.275
250	0.279
250	0.283
250	0.287
251	0.29
251	0.293
252	0.297
252	0.3
253	0.303
253	0.305
254	0.308
254	0.31
255	0.312
255	0.314
256	0.316
256	0.318
257	0.319
257	0.32
258	0.322
258	0.323
258	0.324
259	0.325
259	0.325
260	0.326
260	0.326
261	0.327
261	0.327
262	0.327
262	0.327
263	0.327
263	0.327
264	0.327
264	0.327
265	0.327
265	0.326
265	0.326
266	0.325
266	0.324
267	0.323
267	0.323
268	0.321
268	0.32
269	0.319
269	0.318
270	0.316
270	0.315
271	0.313
271	0.312
272	0.31
272	0.308
272	0.307
273	0.305
273	0.304
274	0.302
274	0.3
275	0.298
275	0.297
276	0.295
276	0.293
277	0.291
277	0.289
278	0.287
278	0.285
278	0.283
279	0.28
279	0.278
280	0.276
280	0.275
281	0.273
281	0.271
282	0.269
282	0.268
283	0.266
283	0.265
284	0.263
284	0.262
285	0.261
285	0.259
285	0.258
286	0.256
286	0.255
287	0.253
287	0.252
288	0.25
288	0.249
289	0.247
289	0.246
290	0.245
290	0.243
291	0.242
291	0.241
292	0.24
292	0.239
292	0.238
293	0.237
293	0.236
294	0.235
294	0.234
295	0.233
295	0.232
296	0.231
296	0.23
297	0.229
297	0.229
298	0.228
298	0.228
298	0.227
299	0.226
299	0.226
300	0.225
300	0.224
301	0.224
301	0.223
302	0.222
302	0.222
303	0.221
303	0.221
304	0.22
304	0.22
305	0.219
305	0.218
305	0.218
306	0.217
306	0.217
307	0.216
307	0.215
308	0.214
308	0.214
309	0.213
309	0.213
310	0.212
310	0.211
311	0.211
311	0.21
311	0.21
312	0.209
312	0.209
313	0.208
313	0.208
314	0.207
314	0.206
315	0.206
315	0.205
316	0.204
316	0.204
317	0.203
317	0.203
318	0.202
318	0.201
318	0.201
319	0.2
319	0.199
320	0.199
320	0.198
321	0.197
321	0.197
322	0.196
322	0.195
323	0.194
323	0.194
324	0.193
324	0.192
324	0.192
325	0.191
325	0.191
326	0.19
326	0.19
327	0.189
327	0.189
328	0.188
328	0.188
329	0.187
329	0.187
330	0.186
330	0.185
330	0.185
331	0.184
331	0.184
332	0.183
332	0.183
333	0.182
333	0.181
334	0.181
334	0.18
335	0.18
335	0.179
336	0.179
336	0.178
336	0.178
337	0.177
337	0.177
338	0.176
338	0.176
339	0.175
339	0.175
340	0.175
340	0.174
341	0.174
341	0.173
342	0.173
342	0.172
342	0.172
343	0.171
343	0.171
344	0.171
344	0.17
345	0.17
345	0.169
346	0.169
346	0.169
347	0.168
347	0.168
348	0.167
348	0.167
348	0.166
349	0.166
349	0.166
350	0.165
350	0.165
351	0.164
351	0.164
352	0.164
352	0.163
353	0.163
353	0.163
354	0.162
354	0.162
354	0.161
355	0.161
355	0.16
356	0.16
356	0.159
357	0.159
357	0.159
358	0.159
358	0.159
359	0.159
359	0.159
360	0.159
360	0.159
360	0.16
361	0.16
361	0.16
362	0.16
362	0.16
363	0.16
363	0.16
364	0.159
364	0.159
365	0.159
365	0.159
366	0.159
366	0.159
366	0.159
367	0.158
367	0.158
368	0.158
368	0.158
369	0.157
369	0.157
370	0.157
370	0.157
371	0.156
371	0.156
372	0.156
372	0.155
372	0.155
373	0.155
373	0.155
374	0.155
374	0.155
375	0.155
375	0.155
376	0.155
376	0.156
377	0.156
377	0.156
378	0.156
378	0.156
378	0.156
379	0.156
379	0.156
380	0.156
380	0.156
381	0.155
381	0.155
382	0.155
382	0.154
383	0.154
383	0.154
383	0.153
384	0.153
384	0.153
385	0.153
385	0.153
386	0.152
386	0.152
387	0.152
387	0.152
388	0.152
388	0.152
389	0.152
389	0.152
389	0.152
390	0.152
390	0.152
391	0.152
391	0.153
392	0.153
392	0.153
393	0.153
393	0.152
394	0.152
394	0.152
394	0.152
395	0.151
395	0.151
396	0.151
396	0.15
397	0.15
397	0.15
398	0.15
398	0.15
399	0.149
399	0.149
400	0.149
400	0.149
400	0.149
401	0.148
401	0.148
402	0.148
402	0.147
403	0.147
403	0.147
404	0.147
404	0.147
405	0.146
405	0.146
405	0.146
406	0.146
406	0.146
407	0.146
407	0.145
408	0.145
408	0.145
409	0.145
409	0.144
410	0.144
410	0.144
411	0.144
411	0.144
411	0.144
412	0.144
412	0.144
413	0.143
413	0.143
414	0.143
414	0.143
415	0.142
415	0.142
416	0.142
416	0.141
416	0.141
417	0.141
417	0.141
418	0.141
418	0.141
419	0.141
419	0.141
420	0.141
420	0.141
421	0.142
421	0.142
421	0.142
422	0.143
422	0.143
423	0.143
423	0.142
424	0.142
424	0.142
425	0.141
425	0.141
426	0.141
426	0.14
427	0.14
427	0.14
427	0.14
428	0.14
428	0.141
429	0.141
429	0.141
430	0.141
430	0.141
431	0.141
431	0.141
432	0.14
432	0.14
432	0.139
433	0.139
433	0.139
434	0.138
434	0.138
435	0.138
435	0.138
436	0.138
436	0.138
437	0.138
437	0.138
437	0.138
438	0.137
438	0.137
439	0.137
439	0.136
440	0.136
440	0.136
441	0.136
441	0.136
442	0.136
442	0.136
442	0.136
443	0.137
443	0.137
444	0.137
444	0.137
445	0.137
445	0.138
446	0.138
446	0.138
447	0.137
447	0.137
447	0.137
448	0.137
448	0.137
449	0.137
449	0.136
450	0.136
450	0.136
451	0.136
451	0.136
452	0.136
452	0.135
452	0.135
453	0.135
453	0.134
454	0.134
454	0.133
455	0.133
455	0.133
456	0.133
456	0.133
457	0.133
457	0.133
458	0.133
458	0.133
458	0.134
459	0.134
459	0.134
460	0.134
460	0.133
461	0.133
461	0.133
462	0.133
462	0.133
463	0.133
463	0.134
463	0.134
464	0.134
464	0.134
465	0.134
465	0.135
466	0.135
466	0.134
467	0.134
467	0.134
467	0.134
468	0.133
468	0.132
469	0.131
469	0.13
470	0.13
470	0.13
471	0.13
471	0.13
472	0.13
472	0.13
472	0.131
473	0.132
473	0.132
474	0.133
474	0.134
475	0.134
475	0.135
476	0.135
476	0.136
477	0.136
477	0.136
477	0.136
478	0.136
478	0.137
479	0.137
479	0.138
480	0.138
480	0.139
481	0.139
481	0.14
482	0.141
482	0.141
482	0.142
483	0.144
483	0.145
484	0.147
484	0.148
485	0.15
485	0.151
486	0.151
486	0.152
487	0.152
487	0.153
487	0.153
488	0.153
488	0.152
489	0.152
489	0.151
490	0.151
490	0.151
491	0.151
491	0.152
492	0.153
492	0.153
492	0.154
493	0.155
493	0.156
494	0.158
494	0.159
495	0.161
495	0.162
496	0.163
496	0.164
496	0.165
497	0.166
497	0.168
498	0.168
498	0.169
499	0.17
499	0.17
500	0.171
500	0.172
501	0.173
501	0.174
501	0.175
502	0.176
502	0.177
503	0.179
503	0.18
504	0.181
504	0.182
505	0.182
505	0.183
506	0.184
506	0.185
506	0.186
507	0.187
507	0.187
508	0.188
508	0.189
509	0.19
509	0.191
510	0.192
510	0.193
511	0.193
511	0.194
511	0.194
512	0.195
512	0.195
513	0.195
513	0.195
514	0.195
514	0.194
515	0.194
515	0.194
515	0.194
516	0.194
516	0.195
517	0.195
517	0.195
518	0.195
518	0.195
519	0.195
519	0.195
520	0.194
520	0.193
520	0.192
521	0.191
521	0.189
522	0.188
522	0.187
523	0.186
523	0.186
524	0.186
524	0.187
524	0.188
525	0.189
525	0.191
526	0.192
526	0.193
527	0.195
527	0.196
528	0.197
528	0.198
529	0.198
529	0.198
529	0.198
530	0.198
530	0.198
531	0.198
531	0.197
532	0.196
532	0.195
533	0.195
533	0.194
533	0.193
534	0.192
534	0.191
535	0.189
535	0.188
536	0.187
536	0.186
537	0.185
537	0.184
538	0.183
538	0.181
538	0.18
539	0.179
539	0.178
540	0.177
540	0.176
541	0.175
541	0.173
542	0.172
542	0.17
542	0.169
543	0.168
543	0.166
544	0.164
544	0.163
545	0.162
545	0.162
546	0.161
546	0.16
547	0.158
547	0.156
547	0.154
548	0.152
548	0.151
549	0.149
549	0.148
550	0.147
550	0.145
551	0.143
551	0.141
551	0.139
552	0.138
552	0.137
553	0.136
553	0.135
554	0.134
554	0.132
555	0.13
555	0.128
556	0.126
556	0.123
556	0.121
557	0.119
557	0.117
558	0.116
558	0.114
559	0.113
559	0.112
560	0.111
560	0.109
560	0.109
561	0.108
561	0.108
562	0.107
562	0.105
563	0.104
563	0.102
564	0.1
564	0.098
564	0.096
565	0.094
565	0.093
566	0.091
566	0.09
567	0.089
567	0.089
568	0.089
568	0.089
568	0.09
569	0.091
569	0.091
570	0.092
570	0.092
571	0.092
571	0.092
572	0.092
572	0.092
573	0.091
573	0.091
573	0.09
574	0.089
574	0.088
575	0.088
575	0.088
576	0.089
576	0.087
577	0.086
577	0.085
577	0.084
578	0.084
578	0.083
579	0.084
579	0.084
580	0.083
580	0.081
581	0.079
581	0.078
581	0.077
582	0.076
582	0.076
583	0.076
583	0.075
584	0.073
584	0.07
585	0.07
585	0.07
585	0.069
586	0.069
586	0.069
587	0.068
587	0.067
588	0.065
588	0.064
589	0.063
589	0.063
590	0.062
590	0.062
590	0.062
591	0.062
591	0.062
592	0.062
592	0.061
593	0.061
593	0.06
594	0.059
594	0.058
594	0.057
595	0.057
595	0.055
596	0.054
596	0.055
597	0.056
597	0.056
598	0.057
598	0.057
598	0.058
599	0.058
599	0.058
600	0.058
600	0.057
601	0.057
601	0.056
602	0.055
602	0.055
602	0.054
603	0.054
603	0.055
604	0.056
604	0.056
605	0.058
605	0.059
606	0.059
606	0.059
606	0.058
607	0.058
607	0.058
608	0.057
608	0.056
609	0.055
609	0.054
610	0.053
610	0.052
610	0.052
611	0.052
611	0.053
612	0.053
612	0.054
613	0.055
613	0.056
614	0.056
614	0.056
614	0.056
615	0.056
615	0.055
616	0.056
616	0.055
617	0.055
617	0.055
618	0.054
618	0.054
618	0.053
619	0.053
619	0.054
620	0.054
620	0.055
621	0.055
621	0.055
622	0.055
622	0.056
622	0.055
623	0.055
623	0.056
624	0.057
624	0.057
625	0.057
625	0.058
626	0.058
626	0.058
626	0.059
627	0.06
627	0.06
628	0.061
628	0.061
629	0.062
629	0.062
630	0.061
630	0.061
630	0.062
631	0.062
631	0.062
632	0.062
632	0.062
633	0.062
633	0.063
634	0.064
634	0.065
634	0.067
635	0.068
635	0.069
636	0.07
636	0.071
637	0.072
637	0.073
638	0.075
638	0.076
638	0.077
639	0.078
639	0.079
640	0.08
640	0.081
641	0.082
641	0.083
642	0.085
642	0.086
642	0.087
643	0.088
643	0.089
644	0.091
644	0.092
645	0.094
645	0.095
646	0.097
646	0.1
646	0.102
647	0.105
647	0.107
648	0.109
648	0.111
649	0.114
649	0.116
650	0.119
650	0.122
650	0.124
651	0.126
651	0.128
652	0.129
652	0.13
653	0.133
653	0.139
653	0.145
654	0.118
654	0.097
655	0.1
655	0.102
656	0.103
656	0.105
657	0.107
657	0.109
657	0.11
658	0.108
658	0.104
659	0.129
659	0.164
660	0.169
660	0.171
661	0.172
661	0.174
661	0.176
662	0.178
662	0.18
663	0.182
663	0.184
664	0.186
664	0.188
665	0.189
665	0.191
665	0.194
666	0.195
666	0.197
667	0.199
667	0.202
668	0.204
668	0.206
669	0.208
669	0.211
669	0.214
670	0.217
670	0.219
671	0.22
671	0.222
672	0.224
672	0.225
672	0.227
673	0.228
673	0.23
674	0.231
674	0.233
675	0.234
675	0.236
676	0.238
676	0.241
676	0.243
677	0.245
677	0.247
678	0.248
678	0.249
679	0.251
679	0.252
680	0.254
680	0.255
680	0.256
681	0.256
681	0.257
682	0.258
682	0.259
683	0.26
683	0.262
684	0.263
684	0.262
684	0.262
685	0.262
685	0.262
686	0.262
686	0.261
687	0.26
687	0.259
687	0.259
688	0.258
688	0.258
689	0.258
689	0.259
690	0.259
690	0.26
691	0.26
691	0.261
691	0.261
692	0.261
692	0.26
693	0.261
693	0.261
694	0.26
694	0.259
695	0.258
695	0.258
695	0.257
696	0.256
696	0.255
697	0.254
697	0.252
698	0.251
698	0.248
698	0.247
699	0.245
699	0.243
700	0.24
700	0.238
701	0.237
701	0.236
702	0.234
702	0.233
702	0.231
703	0.23
703	0.228
704	0.227
704	0.226
705	0.225
705	0.224
705	0.223
706	0.222
706	0.221
707	0.22
707	0.218
708	0.217
708	0.215
709	0.214
709	0.212
709	0.21
710	0.207
710	0.205
711	0.203
711	0.201
712	0.2
712	0.198
713	0.197
713	0.195
713	0.194
714	0.192
714	0.19
715	0.188
715	0.186
716	0.184
716	0.182
716	0.18
717	0.177
717	0.175
718	0.172
718	0.17
719	0.168
719	0.166
720	0.163
720	0.161
720	0.159
721	0.156
721	0.153
722	0.151
722	0.148
723	0.146
723	0.144
723	0.142
724	0.14
724	0.139
725	0.137
725	0.136
726	0.135
726	0.134
727	0.133
727	0.132
727	0.131
728	0.129
728	0.128
729	0.127
729	0.126
730	0.125
730	0.123
730	0.121
731	0.119
731	0.118
732	0.117
732	0.115
733	0.114
733	0.112
734	0.111
734	0.109
734	0.108
735	0.108
735	0.106
736	0.105
736	0.103
737	0.102
737	0.101
737	0.099
738	0.097
738	0.095
739	0.093
739	0.091
740	0.088
740	0.086
741	0.084
741	0.082
741	0.079
742	0.076
742	0.073
743	0.072
743	0.07
744	0.068
744	0.066
744	0.065
745	0.063
745	0.061
746	0.059
746	0.059
747	0.058
747	0.058
748	0.058
748	0.058
748	0.058
749	0.057
749	0.057
750	0.057
750	0.057
751	0.057
751	0.057
751	0.057
752	0.056
752	0.055
753	0.054
753	0.053
754	0.052
754	0.051
754	0.05
755	0.05
755	0.05
756	0.049
756	0.048
757	0.047
757	0.047
758	0.047
758	0.047
758	0.047
759	0.046
759	0.045
760	0.043
760	0.041
761	0.039
761	0.038
761	0.037
762	0.035
762	0.034
763	0.033
763	0.031
764	0.028
764	0.027
764	0.025
765	0.023
765	0.022
766	0.021
766	0.02
767	0.019
767	0.017
768	0.014
768	0.013
768	0.011
769	0.01
769	0.009
770	0.008
770	0.006
771	0.004
771	0.002
771	-0.001
772	-0.003
772	-0.005
773	-0.007
773	-0.01
774	-0.012
774	-0.015
775	-0.018
775	-0.02
775	-0.022
776	-0.025
776	-0.026
777	-0.028
777	-0.03
778	-0.032
778	-0.035
778	-0.037
779	-0.038
779	-0.04
780	-0.043
780	-0.046
781	-0.049
781	-0.054
781	-0.059
782	-0.065
782	-0.072
783	-0.079
783	-0.086
784	-0.092
784	-0.098
784	-0.104
785	-0.11
785	-0.116
786	-0.119
786	-0.118
787	-0.115
787	-0.113
788	-0.113
788	-0.113
788	-0.114
789	-0.116
789	-0.116
790	-0.113
790	-0.112
791	-0.113
791	-0.115
791	-0.118
792	-0.113
792	-0.102
793	-0.096
793	-0.093
794	-0.091
794	-0.093
794	-0.097
795	-0.1
795	-0.1
796	-0.101
796	-0.103
797	-0.112
797	-0.123
797	-0.13
798	-0.135
798	-0.138
799	-0.139
799	-0.139
800	-0.138
800	-0.14
801	-0.142
801	-0.143
801	-0.143
802	-0.144
802	-0.145
803	-0.145
803	-0.145
804	-0.144
804	-0.139
804	-0.133
805	-0.129
805	-0.127
806	-0.125
806	-0.125
807	-0.124
807	-0.124
807	-0.125
808	-0.125
808	-0.126
809	-0.131
809	-0.137
810	-0.14
810	-0.143
810	-0.147
811	-0.149
811	-0.15
812	-0.146
812	-0.143
813	-0.143
813	-0.144
813	-0.145
814	-0.146
814	-0.146
815	-0.144
815	-0.142
816	-0.14
816	-0.141
817	-0.145
817	-0.149
817	-0.15
818	-0.148
818	-0.145
819	-0.139
819	-0.136
820	-0.133
820	-0.131
820	-0.127
821	-0.121
821	-0.114
822	-0.106
822	-0.097
823	-0.089
823	-0.083
823	-0.079
824	-0.073
824	-0.066
825	-0.059
825	-0.052
826	-0.046
826	-0.042
826	-0.037
827	-0.033
827	-0.029
828	-0.026
828	-0.023
829	-0.021
829	-0.019
829	-0.019
830	-0.018
830	-0.018
831	-0.016
831	-0.015
832	-0.015
832	-0.014
832	-0.013
833	-0.011
833	-0.01
834	-0.009
834	-0.007
835	-0.005
835	-0.004
835	-0.003
836	-0.002
836	-0.001
837	-0
837	0
838	0.001
838	0.001
839	0.001
839	0
839	-0
840	-0.001
840	-0.001
841	-0.002
841	-0.002
842	-0.002
842	-0.002
842	-0.002
843	-0.001
843	-0.001
844	-0.001
844	-0
845	0.001
845	0.001
845	0.002
846	0.002
846	0.002
847	0.003
847	0.003
848	0.003
848	0.004
848	0.004
849	0.005
849	0.005
850	0.005
850	0.005
851	0.006
851	0.007
851	0.007
852	0.007
852	0.007
853	0.007
853	0.007
854	0.007
854	0.008
854	0.008
855	0.008
855	0.008
856	0.008
856	0.008
857	0.008
857	0.008
857	0.008
858	0.008
858	0.007
859	0.007
859	0.007
860	0.007
860	0.007
860	0.007
861	0.007
861	0.007
862	0.007
862	0.008
863	0.008
863	0.009
863	0.01
864	0.011
864	0.012
865	0.013
865	0.014
866	0.015
866	0.016
866	0.017
867	0.018
867	0.019
868	0.019
868	0.019
869	0.02
869	0.02
869	0.02
870	0.02
870	0.02
871	0.019
871	0.019
872	0.019
872	0.019
872	0.018
873	0.018
873	0.017
874	0.017
874	0.016
875	0.015
875	0.014
875	0.014
876	0.013
876	0.012
877	0.012
877	0.011
878	0.01
878	0.01
878	0.01
879	0.009
879	0.009
880	0.01
880	0.01
881	0.01
881	0.011
881	0.011
882	0.012
882	0.012
883	0.012
883	0.013
884	0.014
884	0.014
884	0.014
885	0.015
885	0.015
886	0.016
886	0.017
887	0.017
887	0.018
887	0.018
888	0.018
888	0.018
889	0.018
889	0.018
890	0.017
890	0.017
890	0.016
891	0.016
891	0.015
892	0.015
892	0.016
893	0.016
893	0.016
893	0.017
894	0.017
894	0.018
895	0.018
895	0.018
895	0.018
896	0.017
896	0.017
897	0.016
897	0.015
898	0.015
898	0.013
898	0.012
899	0.011
899	0.01
900	0.009
900	0.009
901	0.008
901	0.008
901	0.008
902	0.008
902	0.008
903	0.008
903	0.009
904	0.009
904	0.009
904	0.01
905	0.01
905	0.01
906	0.01
906	0.01
907	0.01
907	0.01
907	0.009
908	0.009
908	0.01
909	0.01
909	0.011
910	0.011
910	0.012
910	0.012
911	0.012
911	0.013
912	0.013
912	0.014
913	0.014
913	0.014
913	0.013
914	0.013
914	0.013
915	0.013
915	0.013
916	0.013
916	0.013
916	0.013
917	0.013
917	0.012
918	0.012
918	0.012
918	0.012
919	0.012
919	0.011
920	0.011
920	0.011
921	0.011
921	0.011
921	0.012
922	0.012
922	0.013
923	0.013
923	0.014
924	0.015
924	0.015
924	0.016
925	0.017
925	0.017
926	0.018
926	0.018
927	0.018
927	0.019
927	0.019
928	0.019
928	0.019
929	0.019
929	0.019
930	0.019
930	0.019
930	0.018
931	0.018
931	0.018
932	0.017
932	0.016
933	0.015
933	0.014
933	0.013
934	0.012
934	0.012
935	0.011
935	0.01
935	0.01
936	0.009
936	0.008
937	0.008
937	0.008
938	0.008
938	0.008
938	0.008
939	0.008
939	0.008
940	0.009
940	0.009
941	0.01
941	0.011
941	0.012
942	0.013
942	0.013
943	0.014
943	0.015
944	0.015
944	0.016
944	0.017
945	0.017
945	0.018
946	0.019
946	0.02
946	0.02
947	0.021
947	0.021
948	0.022
948	0.022
949	0.022
949	0.021
949	0.021
950	0.021
950	0.021
951	0.021
951	0.02
952	0.02
952	0.02
952	0.019
953	0.019
953	0.019
954	0.019
954	0.019
955	0.02
955	0.02
955	0.02
956	0.02
956	0.02
957	0.02
957	0.02
957	0.02
958	0.02
958	0.02
959	0.021
959	0.021
960	0.021
960	0.022
960	0.023
961	0.023
961	0.024
962	0.024
962	0.025
963	0.026
963	0.026
963	0.026
964	0.027
964	0.027
965	0.027
965	0.027
966	0.027
966	0.027
966	0.026
967	0.026
967	0.025
968	0.024
968	0.023
968	0.022
969	0.021
969	0.02
970	0.019
970	0.018
971	0.017
971	0.016
971	0.015
972	0.015
972	0.014
973	0.014
973	0.013
974	0.013
974	0.013
974	0.013
975	0.014
975	0.014
976	0.015
976	0.015
976	0.016
977	0.016
977	0.016
978	0.016
978	0.016
979	0.016
979	0.015
979	0.015
980	0.014
980	0.013
981	0.013
981	0.012
982	0.012
982	0.011
982	0.011
983	0.01
983	0.01
984	0.01
984	0.009
984	0.009
985	0.009
985	0.008
986	0.008
986	0.007
987	0.007
987	0.007
987	0.007
988	0.007
988	0.008
989	0.008
989	0.008
990	0.009
990	0.01
990	0.011
991	0.012
991	0.013
992	0.014
992	0.014
992	0.015
993	0.015
993	0.015
994	0.015
994	0.015
995	0.014
995	0.014
995	0.014
996	0.013
996	0.012
997	0.011
997	0.011
997	0.01
998	0.01
998	0.01
999	0.01
999	0.01
1000	0.011
1000	0.011
1000	0.011
1001	0.012
1001	0.013
1002	0.013
1002	0.014
1003	0.014
1003	0.015
1003	0.015
1004	0.015
1004	0.015
1005	0.015
1005	0.015
1005	0.015
1006	0.015
1006	0.015
1007	0.015
1007	0.014
1008	0.014
1008	0.014
1008	0.014
1009	0.014
1009	0.014
1010	0.015
1010	0.015
1010	0.016
1011	0.017
1011	0.018
1012	0.018
1012	0.019
1013	0.02
1013	0.02
1013	0.021
1014	0.021
1014	0.021
1015	0.021
1015	0.02
1016	0.02
1016	0.019
1016	0.019
1017	0.018
1017	0.017
1018	0.016
1018	0.016
1018	0.015
1019	0.014
1019	0.013
1020	0.012
1020	0.011
1021	0.011
1021	0.01
1021	0.009
1022	0.009
1022	0.009
1023	0.008
1023	0.008
1023	0.008
1024	0.008
1024	0.008
1025	0.008
1025	0.008
1026	0.008
1026	0.008
1026	0.008
1027	0.008
1027	0.008
1028	0.009
1028	0.009
1028	0.009
1029	0.01
1029	0.01
1030	0.01
1030	0.01
1031	0.011
1031	0.011
1031	0.011
1032	0.011
1032	0.011
1033	0.011
1033	0.011
1033	0.011
1034	0.01
1034	0.01
1035	0.01
1035	0.01
1036	0.01
1036	0.01
1036	0.01
1037	0.01
1037	0.01
1038	0.01
1038	0.011
1039	0.011
1039	0.012
1039	0.012
1040	0.012
1040	0.013
1041	0.013
1041	0.013
1041	0.013
1042	0.013
1042	0.013
1043	0.013
1043	0.013
1044	0.014
1044	0.014
1044	0.014
1045	0.014
1045	0.013
1046	0.013
1046	0.013
1046	0.013
1047	0.013
1047	0.013
1048	0.013
1048	0.012
1049	0.012
1049	0.011
1049	0.011
1050	0.01
1050	0.01
1051	0.01
1051	0.01
1051	0.01
1052	0.009
1052	0.009
1053	0.009
1053	0.009
1053	0.009
1054	0.009
1054	0.01
1055	0.01
1055	0.011
1056	0.01
1056	0.011
1056	0.011
1057	0.011
1057	0.011
1058	0.012
1058	0.012
1058	0.013
1059	0.013
1059	0.014
1060	0.014
1060	0.015
1061	0.016
1061	0.016
1061	0.017
1062	0.017
1062	0.017
1063	0.017
1063	0.016
1063	0.016
1064	0.016
1064	0.015
1065	0.015
1065	0.015
1066	0.015
1066	0.015
1066	0.015
1067	0.015
1067	0.015
1068	0.015
1068	0.014
1068	0.014
1069	0.013
1069	0.013
1070	0.012
1070	0.012
1071	0.012
1071	0.012
1071	0.011
1072	0.011
1072	0.011
1073	0.011
1073	0.011
1073	0.011
1074	0.012
1074	0.012
1075	0.012
1075	0.011
1076	0.011
1076	0.011
1076	0.011
1077	0.012
1077	0.013
1078	0.013
1078	0.014
1078	0.015
1079	0.016
1079	0.017
1080	0.019
1080	0.021
1080	0.022
1081	0.023
1081	0.025
1082	0.026
1082	0.027
1083	0.029
1083	0.03
1083	0.031
1084	0.032
1084	0.034
1085	0.035
1085	0.036
1085	0.038
1086	0.039
1086	0.04
1087	0.042
1087	0.043
1088	0.044
1088	0.045
1088	0.047
1089	0.047
1089	0.049
1090	0.05
1090	0.052
1090	0.053
1091	0.055
1091	0.058
1092	0.06
1092	0.062
1092	0.065
1093	0.067
1093	0.071
1094	0.073
1094	0.076
1095	0.078
1095	0.082
1095	0.087
1096	0.091
1096	0.096
1097	0.101
1097	0.107
1097	0.113
1098	0.119
1098	0.126
1099	0.133
1099	0.143
1100	0.151
1100	0.159
1100	0.168
1101	0.178
1101	0.189
1102	0.203
1102	0.216
1102	0.231
1103	0.249
1103	0.269
1104	0.292
1104	0.315
1104	0.345
1105	0.375
1105	0.408
1106	0.439
1106	0.482
1107	0.533
1107	0.611
1107	0.721
1108	1.329
1108	-0
1109	-0
1109	-0
1109	-0
1110	-0
1110	-0
1111	-0
1111	-0
