Data from 17c-2-2a_Absorbance__1018__03454.txt Node

Date: Fri Jan 26 14:58:49 CET 2024
User: Marek
Spectrometer: MAYP115816
Trigger mode: 0
Integration Time (sec): 2.000000E-1
Scans to average: 10
Electric dark correction enabled: true
Nonlinearity correction enabled: true
Boxcar width: 5
XAxis mode: Wavelengths
Number of Pixels in Spectrum: 2068
>>>>>Begin Spectral Data<<<<<
199	-1.82
199	-1.674
200	-1.52
200	-1.404
201	-1.33
201	-1.285
202	-1.214
202	-1.157
203	-1.109
203	-1.068
204	-1.04
204	-1.016
205	-0.995
205	-0.985
205	-0.982
206	-0.977
206	-0.973
207	-0.969
207	-0.968
208	-0.967
208	-0.964
209	-0.961
209	-0.957
210	-0.957
210	-0.957
211	-0.957
211	-0.958
212	-0.958
212	-0.957
213	-0.955
213	-0.951
213	-0.95
214	-0.948
214	-0.946
215	-0.942
215	-0.939
216	-0.935
216	-0.934
217	-0.931
217	-0.929
218	-0.924
218	-0.923
219	-0.919
219	-0.917
220	-0.916
220	-0.915
221	-0.912
221	-0.91
221	-0.906
222	-0.9
222	-0.896
223	-0.891
223	-0.888
224	-0.882
224	-0.875
225	-0.867
225	-0.86
226	-0.85
226	-0.839
227	-0.828
227	-0.816
228	-0.8
228	-0.782
229	-0.762
229	-0.739
229	-0.714
230	-0.685
230	-0.653
231	-0.62
231	-0.584
232	-0.545
232	-0.504
233	-0.461
233	-0.416
234	-0.372
234	-0.328
235	-0.283
235	-0.241
236	-0.199
236	-0.158
236	-0.119
237	-0.082
237	-0.048
238	-0.016
238	0.014
239	0.043
239	0.068
240	0.092
240	0.113
241	0.133
241	0.151
242	0.167
242	0.182
243	0.196
243	0.208
243	0.22
244	0.23
244	0.239
245	0.248
245	0.256
246	0.263
246	0.27
247	0.276
247	0.282
248	0.287
248	0.292
249	0.297
249	0.301
250	0.306
250	0.31
250	0.314
251	0.318
251	0.321
252	0.325
252	0.328
253	0.331
253	0.333
254	0.335
254	0.338
255	0.34
255	0.342
256	0.344
256	0.346
257	0.348
257	0.349
258	0.35
258	0.351
258	0.353
259	0.353
259	0.354
260	0.355
260	0.355
261	0.355
261	0.356
262	0.356
262	0.356
263	0.356
263	0.356
264	0.356
264	0.356
265	0.356
265	0.355
265	0.355
266	0.354
266	0.353
267	0.352
267	0.352
268	0.35
268	0.349
269	0.348
269	0.346
270	0.345
270	0.344
271	0.342
271	0.341
272	0.339
272	0.337
272	0.336
273	0.334
273	0.332
274	0.33
274	0.329
275	0.327
275	0.325
276	0.323
276	0.321
277	0.319
277	0.317
278	0.315
278	0.313
278	0.31
279	0.308
279	0.306
280	0.304
280	0.302
281	0.3
281	0.298
282	0.296
282	0.295
283	0.293
283	0.292
284	0.291
284	0.289
285	0.288
285	0.286
285	0.285
286	0.283
286	0.281
287	0.28
287	0.278
288	0.277
288	0.275
289	0.274
289	0.272
290	0.271
290	0.27
291	0.269
291	0.267
292	0.266
292	0.265
292	0.264
293	0.263
293	0.262
294	0.261
294	0.259
295	0.259
295	0.257
296	0.257
296	0.256
297	0.255
297	0.254
298	0.253
298	0.252
298	0.252
299	0.251
299	0.25
300	0.249
300	0.249
301	0.248
301	0.247
302	0.246
302	0.246
303	0.245
303	0.245
304	0.244
304	0.243
305	0.243
305	0.242
305	0.241
306	0.241
306	0.24
307	0.24
307	0.239
308	0.238
308	0.237
309	0.237
309	0.236
310	0.235
310	0.235
311	0.234
311	0.233
311	0.233
312	0.232
312	0.232
313	0.231
313	0.23
314	0.23
314	0.229
315	0.228
315	0.228
316	0.227
316	0.226
317	0.226
317	0.225
318	0.224
318	0.223
318	0.223
319	0.222
319	0.221
320	0.22
320	0.22
321	0.219
321	0.218
322	0.217
322	0.217
323	0.216
323	0.215
324	0.214
324	0.214
324	0.213
325	0.212
325	0.212
326	0.211
326	0.211
327	0.21
327	0.209
328	0.209
328	0.208
329	0.208
329	0.207
330	0.207
330	0.206
330	0.205
331	0.205
331	0.204
332	0.203
332	0.203
333	0.202
333	0.202
334	0.201
334	0.201
335	0.2
335	0.199
336	0.199
336	0.198
336	0.198
337	0.197
337	0.197
338	0.196
338	0.196
339	0.195
339	0.195
340	0.194
340	0.194
341	0.193
341	0.193
342	0.192
342	0.192
342	0.191
343	0.191
343	0.191
344	0.19
344	0.19
345	0.189
345	0.189
346	0.188
346	0.188
347	0.187
347	0.187
348	0.186
348	0.186
348	0.185
349	0.185
349	0.185
350	0.184
350	0.184
351	0.183
351	0.183
352	0.182
352	0.182
353	0.182
353	0.181
354	0.181
354	0.18
354	0.18
355	0.179
355	0.179
356	0.178
356	0.178
357	0.177
357	0.177
358	0.177
358	0.177
359	0.177
359	0.177
360	0.177
360	0.177
360	0.178
361	0.178
361	0.178
362	0.178
362	0.178
363	0.178
363	0.178
364	0.178
364	0.178
365	0.178
365	0.177
366	0.177
366	0.177
366	0.177
367	0.177
367	0.177
368	0.176
368	0.176
369	0.176
369	0.175
370	0.175
370	0.175
371	0.174
371	0.174
372	0.173
372	0.173
372	0.173
373	0.173
373	0.173
374	0.173
374	0.173
375	0.173
375	0.173
376	0.173
376	0.173
377	0.173
377	0.173
378	0.173
378	0.173
378	0.173
379	0.173
379	0.173
380	0.173
380	0.173
381	0.172
381	0.172
382	0.172
382	0.171
383	0.171
383	0.17
383	0.17
384	0.17
384	0.17
385	0.169
385	0.169
386	0.169
386	0.169
387	0.169
387	0.169
388	0.169
388	0.169
389	0.169
389	0.169
389	0.169
390	0.169
390	0.169
391	0.169
391	0.169
392	0.169
392	0.169
393	0.169
393	0.169
394	0.169
394	0.168
394	0.168
395	0.168
395	0.167
396	0.167
396	0.167
397	0.166
397	0.166
398	0.166
398	0.166
399	0.166
399	0.166
400	0.165
400	0.165
400	0.165
401	0.165
401	0.164
402	0.164
402	0.163
403	0.163
403	0.163
404	0.163
404	0.163
405	0.162
405	0.162
405	0.162
406	0.162
406	0.161
407	0.161
407	0.161
408	0.161
408	0.16
409	0.16
409	0.16
410	0.16
410	0.16
411	0.16
411	0.16
411	0.16
412	0.159
412	0.159
413	0.159
413	0.158
414	0.158
414	0.158
415	0.157
415	0.157
416	0.157
416	0.156
416	0.156
417	0.156
417	0.156
418	0.155
418	0.156
419	0.156
419	0.156
420	0.156
420	0.157
421	0.157
421	0.157
421	0.157
422	0.157
422	0.158
423	0.158
423	0.157
424	0.157
424	0.157
425	0.156
425	0.156
426	0.155
426	0.155
427	0.155
427	0.155
427	0.155
428	0.155
428	0.156
429	0.156
429	0.156
430	0.156
430	0.156
431	0.156
431	0.156
432	0.155
432	0.155
432	0.154
433	0.154
433	0.153
434	0.153
434	0.153
435	0.153
435	0.153
436	0.152
436	0.153
437	0.153
437	0.153
437	0.153
438	0.152
438	0.152
439	0.152
439	0.151
440	0.151
440	0.15
441	0.15
441	0.15
442	0.15
442	0.15
442	0.15
443	0.151
443	0.151
444	0.151
444	0.151
445	0.152
445	0.152
446	0.152
446	0.152
447	0.152
447	0.151
447	0.151
448	0.151
448	0.151
449	0.151
449	0.151
450	0.151
450	0.151
451	0.151
451	0.15
452	0.15
452	0.15
452	0.149
453	0.149
453	0.148
454	0.148
454	0.148
455	0.147
455	0.147
456	0.147
456	0.147
457	0.147
457	0.147
458	0.147
458	0.147
458	0.147
459	0.148
459	0.148
460	0.147
460	0.147
461	0.147
461	0.147
462	0.147
462	0.147
463	0.148
463	0.148
463	0.148
464	0.148
464	0.149
465	0.149
465	0.149
466	0.149
466	0.149
467	0.149
467	0.149
467	0.148
468	0.147
468	0.146
469	0.145
469	0.145
470	0.144
470	0.144
471	0.144
471	0.144
472	0.144
472	0.144
472	0.145
473	0.146
473	0.147
474	0.147
474	0.148
475	0.149
475	0.15
476	0.15
476	0.15
477	0.151
477	0.151
477	0.151
478	0.151
478	0.152
479	0.152
479	0.152
480	0.153
480	0.154
481	0.154
481	0.155
482	0.156
482	0.156
482	0.157
483	0.159
483	0.161
484	0.163
484	0.164
485	0.166
485	0.167
486	0.168
486	0.168
487	0.169
487	0.17
487	0.17
488	0.17
488	0.169
489	0.168
489	0.168
490	0.168
490	0.168
491	0.168
491	0.169
492	0.17
492	0.171
492	0.171
493	0.172
493	0.173
494	0.175
494	0.177
495	0.179
495	0.18
496	0.181
496	0.182
496	0.183
497	0.184
497	0.185
498	0.186
498	0.187
499	0.188
499	0.189
500	0.189
500	0.19
501	0.192
501	0.193
501	0.194
502	0.196
502	0.197
503	0.199
503	0.2
504	0.201
504	0.202
505	0.203
505	0.204
506	0.205
506	0.206
506	0.206
507	0.207
507	0.207
508	0.208
508	0.209
509	0.21
509	0.211
510	0.212
510	0.213
511	0.214
511	0.214
511	0.215
512	0.215
512	0.216
513	0.216
513	0.215
514	0.215
514	0.215
515	0.215
515	0.215
515	0.215
516	0.215
516	0.215
517	0.216
517	0.217
518	0.217
518	0.217
519	0.217
519	0.216
520	0.215
520	0.214
520	0.213
521	0.211
521	0.21
522	0.208
522	0.207
523	0.206
523	0.206
524	0.207
524	0.208
524	0.209
525	0.21
525	0.212
526	0.213
526	0.214
527	0.216
527	0.217
528	0.218
528	0.219
529	0.218
529	0.218
529	0.218
530	0.218
530	0.217
531	0.217
531	0.217
532	0.216
532	0.215
533	0.215
533	0.214
533	0.213
534	0.212
534	0.211
535	0.209
535	0.208
536	0.207
536	0.205
537	0.205
537	0.203
538	0.202
538	0.201
538	0.2
539	0.199
539	0.198
540	0.197
540	0.195
541	0.194
541	0.192
542	0.191
542	0.189
542	0.188
543	0.186
543	0.185
544	0.183
544	0.181
545	0.18
545	0.179
546	0.178
546	0.177
547	0.175
547	0.173
547	0.171
548	0.169
548	0.167
549	0.165
549	0.164
550	0.162
550	0.16
551	0.158
551	0.156
551	0.155
552	0.153
552	0.152
553	0.151
553	0.15
554	0.148
554	0.146
555	0.144
555	0.142
556	0.139
556	0.137
556	0.134
557	0.132
557	0.13
558	0.128
558	0.126
559	0.125
559	0.124
560	0.123
560	0.122
560	0.121
561	0.12
561	0.119
562	0.118
562	0.117
563	0.115
563	0.113
564	0.111
564	0.109
564	0.107
565	0.105
565	0.103
566	0.102
566	0.1
567	0.099
567	0.099
568	0.099
568	0.099
568	0.1
569	0.101
569	0.102
570	0.102
570	0.101
571	0.102
571	0.102
572	0.102
572	0.101
573	0.101
573	0.1
573	0.099
574	0.098
574	0.098
575	0.097
575	0.098
576	0.098
576	0.097
577	0.095
577	0.094
577	0.094
578	0.092
578	0.092
579	0.092
579	0.093
580	0.091
580	0.089
581	0.087
581	0.085
581	0.084
582	0.084
582	0.084
583	0.084
583	0.083
584	0.08
584	0.078
585	0.077
585	0.077
585	0.076
586	0.077
586	0.076
587	0.075
587	0.074
588	0.072
588	0.07
589	0.069
589	0.069
590	0.068
590	0.068
590	0.068
591	0.068
591	0.068
592	0.067
592	0.066
593	0.066
593	0.066
594	0.065
594	0.064
594	0.063
595	0.062
595	0.061
596	0.06
596	0.06
597	0.062
597	0.062
598	0.062
598	0.063
598	0.063
599	0.064
599	0.064
600	0.063
600	0.063
601	0.062
601	0.061
602	0.06
602	0.06
602	0.059
603	0.059
603	0.06
604	0.061
604	0.061
605	0.063
605	0.064
606	0.064
606	0.064
606	0.063
607	0.063
607	0.063
608	0.063
608	0.061
609	0.06
609	0.06
610	0.059
610	0.058
610	0.057
611	0.057
611	0.058
612	0.058
612	0.059
613	0.059
613	0.06
614	0.06
614	0.06
614	0.06
615	0.06
615	0.06
616	0.06
616	0.06
617	0.06
617	0.059
618	0.059
618	0.059
618	0.058
619	0.058
619	0.059
620	0.06
620	0.06
621	0.06
621	0.061
622	0.061
622	0.061
622	0.061
623	0.061
623	0.062
624	0.062
624	0.062
625	0.062
625	0.063
626	0.063
626	0.063
626	0.064
627	0.065
627	0.066
628	0.066
628	0.067
629	0.067
629	0.068
630	0.067
630	0.067
630	0.068
631	0.068
631	0.068
632	0.068
632	0.068
633	0.069
633	0.069
634	0.07
634	0.072
634	0.073
635	0.074
635	0.075
636	0.076
636	0.077
637	0.078
637	0.079
638	0.08
638	0.082
638	0.083
639	0.084
639	0.085
640	0.086
640	0.087
641	0.088
641	0.089
642	0.091
642	0.093
642	0.094
643	0.095
643	0.097
644	0.098
644	0.099
645	0.101
645	0.103
646	0.105
646	0.107
646	0.11
647	0.113
647	0.116
648	0.118
648	0.12
649	0.122
649	0.125
650	0.128
650	0.131
650	0.134
651	0.136
651	0.138
652	0.139
652	0.141
653	0.143
653	0.15
653	0.156
654	0.127
654	0.104
655	0.108
655	0.109
656	0.111
656	0.113
657	0.115
657	0.117
657	0.118
658	0.116
658	0.111
659	0.139
659	0.177
660	0.182
660	0.184
661	0.186
661	0.187
661	0.189
662	0.191
662	0.193
663	0.196
663	0.198
664	0.2
664	0.202
665	0.204
665	0.206
665	0.208
666	0.211
666	0.213
667	0.215
667	0.217
668	0.22
668	0.222
669	0.225
669	0.227
669	0.23
670	0.234
670	0.236
671	0.238
671	0.24
672	0.241
672	0.243
672	0.244
673	0.246
673	0.247
674	0.249
674	0.25
675	0.251
675	0.252
676	0.255
676	0.257
676	0.259
677	0.262
677	0.264
678	0.266
678	0.267
679	0.269
679	0.27
680	0.272
680	0.274
680	0.274
681	0.275
681	0.276
682	0.277
682	0.278
683	0.279
683	0.28
684	0.281
684	0.281
684	0.281
685	0.281
685	0.281
686	0.281
686	0.28
687	0.279
687	0.279
687	0.278
688	0.277
688	0.276
689	0.277
689	0.278
690	0.278
690	0.279
691	0.279
691	0.279
691	0.28
692	0.279
692	0.279
693	0.279
693	0.279
694	0.278
694	0.277
695	0.277
695	0.277
695	0.276
696	0.275
696	0.273
697	0.272
697	0.271
698	0.269
698	0.267
698	0.265
699	0.263
699	0.261
700	0.258
700	0.256
701	0.254
701	0.253
702	0.251
702	0.25
702	0.248
703	0.246
703	0.245
704	0.244
704	0.243
705	0.242
705	0.241
705	0.24
706	0.238
706	0.238
707	0.236
707	0.235
708	0.233
708	0.232
709	0.23
709	0.228
709	0.226
710	0.223
710	0.221
711	0.219
711	0.217
712	0.215
712	0.213
713	0.212
713	0.21
713	0.208
714	0.206
714	0.203
715	0.201
715	0.199
716	0.197
716	0.194
716	0.192
717	0.19
717	0.187
718	0.184
718	0.181
719	0.179
719	0.177
720	0.175
720	0.173
720	0.17
721	0.168
721	0.165
722	0.163
722	0.16
723	0.158
723	0.156
723	0.154
724	0.152
724	0.15
725	0.148
725	0.147
726	0.146
726	0.145
727	0.144
727	0.143
727	0.141
728	0.14
728	0.138
729	0.137
729	0.136
730	0.134
730	0.132
730	0.13
731	0.128
731	0.126
732	0.125
732	0.124
733	0.122
733	0.121
734	0.119
734	0.117
734	0.116
735	0.115
735	0.114
736	0.112
736	0.11
737	0.109
737	0.107
737	0.106
738	0.104
738	0.102
739	0.1
739	0.098
740	0.095
740	0.093
741	0.092
741	0.09
741	0.087
742	0.084
742	0.081
743	0.079
743	0.077
744	0.075
744	0.073
744	0.071
745	0.069
745	0.067
746	0.065
746	0.064
747	0.063
747	0.063
748	0.063
748	0.063
748	0.063
749	0.062
749	0.062
750	0.062
750	0.062
751	0.061
751	0.061
751	0.061
752	0.06
752	0.059
753	0.057
753	0.056
754	0.055
754	0.054
754	0.054
755	0.054
755	0.054
756	0.054
756	0.053
757	0.052
757	0.052
758	0.052
758	0.051
758	0.051
759	0.051
759	0.049
760	0.047
760	0.044
761	0.042
761	0.041
761	0.04
762	0.038
762	0.036
763	0.035
763	0.033
764	0.031
764	0.029
764	0.028
765	0.026
765	0.024
766	0.023
766	0.022
767	0.022
767	0.019
768	0.017
768	0.015
768	0.013
769	0.012
769	0.011
770	0.01
770	0.008
771	0.006
771	0.003
771	0
772	-0.002
772	-0.004
773	-0.006
773	-0.009
774	-0.011
774	-0.014
775	-0.016
775	-0.018
775	-0.021
776	-0.023
776	-0.025
777	-0.027
777	-0.028
778	-0.031
778	-0.033
778	-0.036
779	-0.037
779	-0.039
780	-0.041
780	-0.045
781	-0.048
781	-0.052
781	-0.058
782	-0.064
782	-0.072
783	-0.079
783	-0.085
784	-0.092
784	-0.098
784	-0.104
785	-0.11
785	-0.116
786	-0.119
786	-0.119
787	-0.116
787	-0.113
788	-0.113
788	-0.113
788	-0.114
789	-0.116
789	-0.116
790	-0.113
790	-0.112
791	-0.113
791	-0.115
791	-0.118
792	-0.113
792	-0.102
793	-0.096
793	-0.092
794	-0.091
794	-0.093
794	-0.097
795	-0.1
795	-0.1
796	-0.101
796	-0.103
797	-0.112
797	-0.123
797	-0.13
798	-0.135
798	-0.138
799	-0.139
799	-0.138
800	-0.138
800	-0.139
801	-0.142
801	-0.143
801	-0.143
802	-0.144
802	-0.145
803	-0.145
803	-0.145
804	-0.144
804	-0.139
804	-0.133
805	-0.129
805	-0.127
806	-0.125
806	-0.124
807	-0.124
807	-0.124
807	-0.124
808	-0.125
808	-0.126
809	-0.131
809	-0.137
810	-0.14
810	-0.143
810	-0.146
811	-0.149
811	-0.15
812	-0.146
812	-0.142
813	-0.142
813	-0.143
813	-0.145
814	-0.146
814	-0.146
815	-0.144
815	-0.141
816	-0.14
816	-0.14
817	-0.145
817	-0.149
817	-0.15
818	-0.148
818	-0.145
819	-0.139
819	-0.136
820	-0.134
820	-0.131
820	-0.127
821	-0.121
821	-0.114
822	-0.106
822	-0.098
823	-0.09
823	-0.084
823	-0.079
824	-0.073
824	-0.067
825	-0.06
825	-0.053
826	-0.047
826	-0.042
826	-0.038
827	-0.034
827	-0.03
828	-0.027
828	-0.024
829	-0.022
829	-0.02
829	-0.019
830	-0.019
830	-0.019
831	-0.017
831	-0.016
832	-0.015
832	-0.014
832	-0.013
833	-0.012
833	-0.011
834	-0.009
834	-0.007
835	-0.005
835	-0.004
835	-0.003
836	-0.001
836	-0
837	0.001
837	0.002
838	0.002
838	0.002
839	0.002
839	0.002
839	0.001
840	0
840	-0
841	-0.001
841	-0.001
842	-0.001
842	-0.002
842	-0.002
843	-0.001
843	-0.001
844	-0.001
844	0
845	0.001
845	0.001
845	0.002
846	0.003
846	0.003
847	0.003
847	0.004
848	0.004
848	0.005
848	0.005
849	0.006
849	0.006
850	0.007
850	0.007
851	0.007
851	0.008
851	0.008
852	0.008
852	0.008
853	0.008
853	0.008
854	0.008
854	0.008
854	0.009
855	0.009
855	0.009
856	0.009
856	0.009
857	0.009
857	0.008
857	0.008
858	0.008
858	0.008
859	0.007
859	0.007
860	0.007
860	0.007
860	0.007
861	0.007
861	0.007
862	0.007
862	0.007
863	0.008
863	0.009
863	0.01
864	0.01
864	0.012
865	0.013
865	0.014
866	0.015
866	0.016
866	0.017
867	0.018
867	0.019
868	0.019
868	0.019
869	0.02
869	0.02
869	0.02
870	0.02
870	0.02
871	0.019
871	0.019
872	0.019
872	0.019
872	0.018
873	0.018
873	0.018
874	0.017
874	0.016
875	0.015
875	0.014
875	0.014
876	0.013
876	0.012
877	0.011
877	0.011
878	0.01
878	0.009
878	0.009
879	0.009
879	0.009
880	0.009
880	0.01
881	0.01
881	0.01
881	0.011
882	0.011
882	0.012
883	0.012
883	0.013
884	0.013
884	0.014
884	0.014
885	0.015
885	0.016
886	0.017
886	0.017
887	0.018
887	0.018
887	0.019
888	0.019
888	0.019
889	0.019
889	0.019
890	0.018
890	0.018
890	0.017
891	0.017
891	0.016
892	0.016
892	0.016
893	0.016
893	0.017
893	0.017
894	0.017
894	0.017
895	0.017
895	0.017
895	0.017
896	0.016
896	0.016
897	0.015
897	0.014
898	0.013
898	0.012
898	0.011
899	0.01
899	0.009
900	0.008
900	0.008
901	0.008
901	0.008
901	0.008
902	0.008
902	0.009
903	0.009
903	0.01
904	0.01
904	0.011
904	0.011
905	0.012
905	0.012
906	0.012
906	0.012
907	0.011
907	0.011
907	0.011
908	0.011
908	0.011
909	0.012
909	0.012
910	0.012
910	0.013
910	0.013
911	0.014
911	0.014
912	0.015
912	0.015
913	0.015
913	0.014
913	0.014
914	0.013
914	0.013
915	0.013
915	0.012
916	0.012
916	0.012
916	0.012
917	0.012
917	0.012
918	0.011
918	0.012
918	0.011
919	0.011
919	0.011
920	0.011
920	0.012
921	0.012
921	0.012
921	0.013
922	0.014
922	0.014
923	0.015
923	0.015
924	0.016
924	0.017
924	0.017
925	0.018
925	0.018
926	0.018
926	0.018
927	0.018
927	0.018
927	0.019
928	0.019
928	0.019
929	0.019
929	0.018
930	0.018
930	0.018
930	0.017
931	0.016
931	0.016
932	0.015
932	0.015
933	0.014
933	0.013
933	0.012
934	0.011
934	0.01
935	0.01
935	0.009
935	0.009
936	0.008
936	0.008
937	0.007
937	0.007
938	0.007
938	0.008
938	0.008
939	0.008
939	0.009
940	0.01
940	0.011
941	0.011
941	0.012
941	0.013
942	0.014
942	0.015
943	0.015
943	0.016
944	0.016
944	0.016
944	0.016
945	0.017
945	0.017
946	0.018
946	0.018
946	0.019
947	0.019
947	0.019
948	0.02
948	0.02
949	0.019
949	0.019
949	0.019
950	0.019
950	0.019
951	0.019
951	0.018
952	0.018
952	0.018
952	0.018
953	0.018
953	0.018
954	0.018
954	0.018
955	0.018
955	0.018
955	0.019
956	0.019
956	0.019
957	0.019
957	0.019
957	0.019
958	0.019
958	0.02
959	0.02
959	0.021
960	0.021
960	0.021
960	0.022
961	0.022
961	0.023
962	0.024
962	0.024
963	0.025
963	0.025
963	0.025
964	0.025
964	0.025
965	0.025
965	0.025
966	0.025
966	0.025
966	0.025
967	0.024
967	0.023
968	0.023
968	0.022
968	0.021
969	0.02
969	0.019
970	0.018
970	0.017
971	0.016
971	0.015
971	0.015
972	0.014
972	0.014
973	0.014
973	0.013
974	0.013
974	0.013
974	0.013
975	0.014
975	0.014
976	0.015
976	0.015
976	0.016
977	0.016
977	0.016
978	0.016
978	0.016
979	0.016
979	0.016
979	0.015
980	0.015
980	0.014
981	0.013
981	0.013
982	0.013
982	0.013
982	0.012
983	0.012
983	0.011
984	0.011
984	0.011
984	0.011
985	0.01
985	0.01
986	0.009
986	0.009
987	0.008
987	0.008
987	0.009
988	0.009
988	0.009
989	0.009
989	0.01
990	0.011
990	0.011
990	0.013
991	0.014
991	0.015
992	0.016
992	0.016
992	0.017
993	0.017
993	0.017
994	0.017
994	0.016
995	0.016
995	0.015
995	0.015
996	0.014
996	0.013
997	0.012
997	0.011
997	0.011
998	0.011
998	0.011
999	0.011
999	0.011
1000	0.011
1000	0.012
1000	0.012
1001	0.013
1001	0.014
1002	0.015
1002	0.015
1003	0.016
1003	0.016
1003	0.016
1004	0.017
1004	0.017
1005	0.017
1005	0.017
1005	0.016
1006	0.016
1006	0.016
1007	0.015
1007	0.015
1008	0.015
1008	0.015
1008	0.015
1009	0.015
1009	0.015
1010	0.015
1010	0.016
1010	0.016
1011	0.017
1011	0.018
1012	0.018
1012	0.019
1013	0.02
1013	0.02
1013	0.021
1014	0.021
1014	0.021
1015	0.021
1015	0.02
1016	0.02
1016	0.019
1016	0.018
1017	0.018
1017	0.017
1018	0.016
1018	0.015
1018	0.014
1019	0.013
1019	0.012
1020	0.012
1020	0.011
1021	0.01
1021	0.01
1021	0.009
1022	0.009
1022	0.009
1023	0.008
1023	0.008
1023	0.008
1024	0.008
1024	0.008
1025	0.007
1025	0.008
1026	0.008
1026	0.008
1026	0.007
1027	0.007
1027	0.008
1028	0.008
1028	0.008
1028	0.009
1029	0.009
1029	0.009
1030	0.01
1030	0.01
1031	0.01
1031	0.01
1031	0.01
1032	0.01
1032	0.01
1033	0.01
1033	0.01
1033	0.01
1034	0.01
1034	0.009
1035	0.009
1035	0.009
1036	0.009
1036	0.009
1036	0.009
1037	0.01
1037	0.01
1038	0.01
1038	0.01
1039	0.011
1039	0.012
1039	0.012
1040	0.012
1040	0.013
1041	0.013
1041	0.013
1041	0.013
1042	0.013
1042	0.013
1043	0.013
1043	0.013
1044	0.013
1044	0.013
1044	0.013
1045	0.013
1045	0.013
1046	0.013
1046	0.013
1046	0.012
1047	0.012
1047	0.012
1048	0.012
1048	0.011
1049	0.011
1049	0.01
1049	0.009
1050	0.008
1050	0.008
1051	0.007
1051	0.007
1051	0.007
1052	0.006
1052	0.006
1053	0.006
1053	0.006
1053	0.007
1054	0.007
1054	0.008
1055	0.009
1055	0.009
1056	0.009
1056	0.009
1056	0.01
1057	0.01
1057	0.01
1058	0.011
1058	0.011
1058	0.012
1059	0.013
1059	0.013
1060	0.014
1060	0.015
1061	0.016
1061	0.017
1061	0.017
1062	0.018
1062	0.018
1063	0.018
1063	0.017
1063	0.017
1064	0.017
1064	0.017
1065	0.017
1065	0.017
1066	0.017
1066	0.017
1066	0.017
1067	0.017
1067	0.017
1068	0.017
1068	0.017
1068	0.016
1069	0.016
1069	0.016
1070	0.015
1070	0.015
1071	0.014
1071	0.014
1071	0.014
1072	0.013
1072	0.013
1073	0.013
1073	0.013
1073	0.013
1074	0.013
1074	0.013
1075	0.013
1075	0.013
1076	0.012
1076	0.013
1076	0.013
1077	0.013
1077	0.014
1078	0.014
1078	0.015
1078	0.017
1079	0.017
1079	0.019
1080	0.021
1080	0.022
1080	0.023
1081	0.025
1081	0.026
1082	0.027
1082	0.029
1083	0.03
1083	0.031
1083	0.032
1084	0.033
1084	0.035
1085	0.036
1085	0.037
1085	0.039
1086	0.04
1086	0.041
1087	0.043
1087	0.045
1088	0.046
1088	0.047
1088	0.049
1089	0.05
1089	0.051
1090	0.053
1090	0.055
1090	0.057
1091	0.059
1091	0.062
1092	0.063
1092	0.066
1092	0.069
1093	0.072
1093	0.075
1094	0.078
1094	0.081
1095	0.084
1095	0.088
1095	0.093
1096	0.097
1096	0.102
1097	0.108
1097	0.114
1097	0.12
1098	0.127
1098	0.135
1099	0.143
1099	0.152
1100	0.16
1100	0.168
1100	0.178
1101	0.188
1101	0.2
1102	0.213
1102	0.227
1102	0.244
1103	0.261
1103	0.282
1104	0.304
1104	0.33
1104	0.361
1105	0.394
1105	0.428
1106	0.465
1106	0.512
1107	0.57
1107	0.655
1107	0.785
1108	1.724
1108	-0
1109	-0
1109	-0
1109	-0
1110	-0
1110	-0
1111	-0
1111	-0
