Data from 17c-2-2a_Absorbance__1855__04291.txt Node

Date: Fri Jan 26 15:26:43 CET 2024
User: Marek
Spectrometer: MAYP115816
Trigger mode: 0
Integration Time (sec): 2.000000E-1
Scans to average: 10
Electric dark correction enabled: true
Nonlinearity correction enabled: true
Boxcar width: 5
XAxis mode: Wavelengths
Number of Pixels in Spectrum: 2068
>>>>>Begin Spectral Data<<<<<
199	-1.843
199	-1.697
200	-1.543
200	-1.428
201	-1.354
201	-1.307
202	-1.236
202	-1.178
203	-1.129
203	-1.087
204	-1.06
204	-1.036
205	-1.014
205	-1.004
205	-1
206	-0.995
206	-0.991
207	-0.987
207	-0.986
208	-0.985
208	-0.982
209	-0.979
209	-0.976
210	-0.976
210	-0.975
211	-0.976
211	-0.977
212	-0.977
212	-0.976
213	-0.974
213	-0.97
213	-0.969
214	-0.966
214	-0.965
215	-0.96
215	-0.957
216	-0.954
216	-0.953
217	-0.949
217	-0.947
218	-0.943
218	-0.942
219	-0.937
219	-0.936
220	-0.935
220	-0.935
221	-0.932
221	-0.929
221	-0.925
222	-0.919
222	-0.915
223	-0.911
223	-0.907
224	-0.902
224	-0.894
225	-0.887
225	-0.878
226	-0.868
226	-0.857
227	-0.846
227	-0.834
228	-0.817
228	-0.799
229	-0.778
229	-0.755
229	-0.73
230	-0.701
230	-0.669
231	-0.636
231	-0.599
232	-0.559
232	-0.517
233	-0.473
233	-0.428
234	-0.383
234	-0.337
235	-0.291
235	-0.246
236	-0.202
236	-0.16
236	-0.118
237	-0.079
237	-0.043
238	-0.008
238	0.024
239	0.055
239	0.082
240	0.109
240	0.132
241	0.154
241	0.174
242	0.192
242	0.209
243	0.225
243	0.238
243	0.251
244	0.263
244	0.274
245	0.283
245	0.292
246	0.301
246	0.309
247	0.316
247	0.322
248	0.329
248	0.335
249	0.34
249	0.345
250	0.35
250	0.355
250	0.359
251	0.363
251	0.367
252	0.371
252	0.374
253	0.378
253	0.381
254	0.384
254	0.387
255	0.389
255	0.391
256	0.393
256	0.395
257	0.397
257	0.398
258	0.4
258	0.401
258	0.402
259	0.403
259	0.404
260	0.405
260	0.405
261	0.405
261	0.406
262	0.407
262	0.407
263	0.407
263	0.407
264	0.407
264	0.406
265	0.406
265	0.406
265	0.405
266	0.405
266	0.403
267	0.403
267	0.402
268	0.401
268	0.399
269	0.398
269	0.397
270	0.395
270	0.394
271	0.392
271	0.39
272	0.389
272	0.387
272	0.386
273	0.384
273	0.382
274	0.38
274	0.379
275	0.377
275	0.375
276	0.373
276	0.371
277	0.369
277	0.367
278	0.364
278	0.362
278	0.359
279	0.357
279	0.355
280	0.353
280	0.351
281	0.349
281	0.347
282	0.345
282	0.344
283	0.342
283	0.341
284	0.339
284	0.338
285	0.336
285	0.334
285	0.333
286	0.331
286	0.329
287	0.327
287	0.326
288	0.324
288	0.322
289	0.321
289	0.319
290	0.318
290	0.317
291	0.315
291	0.314
292	0.313
292	0.312
292	0.31
293	0.309
293	0.308
294	0.307
294	0.306
295	0.305
295	0.303
296	0.302
296	0.301
297	0.3
297	0.299
298	0.299
298	0.298
298	0.297
299	0.296
299	0.295
300	0.294
300	0.293
301	0.292
301	0.292
302	0.291
302	0.29
303	0.289
303	0.289
304	0.288
304	0.287
305	0.286
305	0.285
305	0.285
306	0.284
306	0.283
307	0.282
307	0.281
308	0.28
308	0.28
309	0.279
309	0.278
310	0.277
310	0.276
311	0.276
311	0.275
311	0.274
312	0.274
312	0.273
313	0.272
313	0.271
314	0.27
314	0.27
315	0.269
315	0.268
316	0.267
316	0.266
317	0.266
317	0.265
318	0.264
318	0.263
318	0.262
319	0.262
319	0.261
320	0.26
320	0.259
321	0.258
321	0.257
322	0.256
322	0.255
323	0.254
323	0.254
324	0.253
324	0.252
324	0.251
325	0.25
325	0.25
326	0.249
326	0.248
327	0.248
327	0.247
328	0.246
328	0.246
329	0.245
329	0.244
330	0.243
330	0.243
330	0.242
331	0.241
331	0.24
332	0.24
332	0.239
333	0.238
333	0.238
334	0.237
334	0.237
335	0.236
335	0.235
336	0.235
336	0.234
336	0.234
337	0.233
337	0.233
338	0.232
338	0.231
339	0.23
339	0.23
340	0.229
340	0.229
341	0.228
341	0.228
342	0.227
342	0.227
342	0.226
343	0.225
343	0.225
344	0.224
344	0.224
345	0.223
345	0.223
346	0.222
346	0.222
347	0.221
347	0.22
348	0.22
348	0.22
348	0.219
349	0.219
349	0.218
350	0.218
350	0.217
351	0.217
351	0.216
352	0.216
352	0.215
353	0.215
353	0.215
354	0.214
354	0.213
354	0.213
355	0.212
355	0.211
356	0.211
356	0.21
357	0.21
357	0.209
358	0.209
358	0.209
359	0.21
359	0.21
360	0.21
360	0.21
360	0.211
361	0.211
361	0.211
362	0.211
362	0.211
363	0.211
363	0.211
364	0.21
364	0.21
365	0.21
365	0.21
366	0.21
366	0.21
366	0.209
367	0.209
367	0.209
368	0.208
368	0.208
369	0.208
369	0.208
370	0.207
370	0.207
371	0.206
371	0.206
372	0.205
372	0.205
372	0.205
373	0.205
373	0.205
374	0.205
374	0.205
375	0.205
375	0.204
376	0.204
376	0.205
377	0.205
377	0.205
378	0.205
378	0.205
378	0.205
379	0.205
379	0.205
380	0.205
380	0.205
381	0.204
381	0.204
382	0.203
382	0.203
383	0.203
383	0.202
383	0.202
384	0.202
384	0.201
385	0.201
385	0.201
386	0.201
386	0.201
387	0.201
387	0.2
388	0.2
388	0.2
389	0.2
389	0.2
389	0.2
390	0.2
390	0.2
391	0.2
391	0.2
392	0.2
392	0.2
393	0.2
393	0.2
394	0.2
394	0.199
394	0.199
395	0.199
395	0.199
396	0.198
396	0.198
397	0.197
397	0.197
398	0.197
398	0.197
399	0.197
399	0.196
400	0.196
400	0.196
400	0.195
401	0.195
401	0.194
402	0.194
402	0.193
403	0.193
403	0.193
404	0.192
404	0.192
405	0.192
405	0.192
405	0.191
406	0.191
406	0.191
407	0.191
407	0.191
408	0.19
408	0.19
409	0.189
409	0.189
410	0.189
410	0.189
411	0.189
411	0.189
411	0.189
412	0.189
412	0.188
413	0.188
413	0.188
414	0.188
414	0.187
415	0.187
415	0.186
416	0.186
416	0.185
416	0.185
417	0.185
417	0.184
418	0.184
418	0.185
419	0.185
419	0.185
420	0.185
420	0.186
421	0.186
421	0.187
421	0.187
422	0.187
422	0.187
423	0.187
423	0.187
424	0.186
424	0.186
425	0.186
425	0.185
426	0.185
426	0.184
427	0.184
427	0.184
427	0.184
428	0.184
428	0.184
429	0.185
429	0.185
430	0.185
430	0.185
431	0.185
431	0.185
432	0.184
432	0.184
432	0.183
433	0.182
433	0.182
434	0.181
434	0.181
435	0.181
435	0.181
436	0.181
436	0.181
437	0.181
437	0.181
437	0.181
438	0.181
438	0.18
439	0.18
439	0.18
440	0.179
440	0.179
441	0.179
441	0.179
442	0.179
442	0.179
442	0.179
443	0.179
443	0.18
444	0.18
444	0.18
445	0.18
445	0.18
446	0.18
446	0.18
447	0.18
447	0.18
447	0.18
448	0.18
448	0.18
449	0.18
449	0.179
450	0.179
450	0.179
451	0.179
451	0.179
452	0.178
452	0.178
452	0.177
453	0.177
453	0.176
454	0.176
454	0.176
455	0.176
455	0.175
456	0.175
456	0.175
457	0.175
457	0.175
458	0.175
458	0.175
458	0.176
459	0.176
459	0.176
460	0.175
460	0.175
461	0.175
461	0.175
462	0.175
462	0.175
463	0.175
463	0.175
463	0.176
464	0.176
464	0.176
465	0.177
465	0.177
466	0.177
466	0.177
467	0.178
467	0.177
467	0.177
468	0.176
468	0.175
469	0.174
469	0.174
470	0.173
470	0.173
471	0.173
471	0.173
472	0.173
472	0.174
472	0.174
473	0.175
473	0.176
474	0.177
474	0.178
475	0.179
475	0.179
476	0.18
476	0.18
477	0.18
477	0.181
477	0.181
478	0.181
478	0.182
479	0.182
479	0.183
480	0.183
480	0.184
481	0.185
481	0.186
482	0.186
482	0.187
482	0.189
483	0.191
483	0.193
484	0.195
484	0.197
485	0.199
485	0.2
486	0.201
486	0.202
487	0.203
487	0.204
487	0.204
488	0.204
488	0.203
489	0.203
489	0.203
490	0.202
490	0.202
491	0.203
491	0.204
492	0.205
492	0.206
492	0.207
493	0.208
493	0.209
494	0.211
494	0.213
495	0.215
495	0.217
496	0.218
496	0.22
496	0.221
497	0.222
497	0.223
498	0.224
498	0.225
499	0.226
499	0.227
500	0.228
500	0.229
501	0.231
501	0.232
501	0.234
502	0.236
502	0.237
503	0.239
503	0.241
504	0.242
504	0.243
505	0.244
505	0.245
506	0.246
506	0.247
506	0.249
507	0.249
507	0.25
508	0.251
508	0.252
509	0.253
509	0.255
510	0.256
510	0.256
511	0.257
511	0.258
511	0.259
512	0.26
512	0.261
513	0.261
513	0.261
514	0.26
514	0.26
515	0.26
515	0.26
515	0.26
516	0.26
516	0.261
517	0.262
517	0.262
518	0.262
518	0.262
519	0.262
519	0.261
520	0.26
520	0.259
520	0.258
521	0.256
521	0.254
522	0.252
522	0.251
523	0.25
523	0.25
524	0.251
524	0.252
524	0.254
525	0.256
525	0.257
526	0.259
526	0.26
527	0.262
527	0.264
528	0.264
528	0.265
529	0.265
529	0.265
529	0.265
530	0.264
530	0.264
531	0.263
531	0.263
532	0.262
532	0.261
533	0.261
533	0.26
533	0.259
534	0.258
534	0.257
535	0.255
535	0.254
536	0.253
536	0.251
537	0.25
537	0.249
538	0.247
538	0.246
538	0.244
539	0.243
539	0.242
540	0.24
540	0.238
541	0.237
541	0.235
542	0.233
542	0.231
542	0.229
543	0.227
543	0.225
544	0.223
544	0.221
545	0.22
545	0.218
546	0.217
546	0.215
547	0.214
547	0.211
547	0.208
548	0.206
548	0.204
549	0.202
549	0.2
550	0.198
550	0.196
551	0.193
551	0.19
551	0.188
552	0.186
552	0.185
553	0.183
553	0.182
554	0.18
554	0.177
555	0.175
555	0.172
556	0.169
556	0.166
556	0.164
557	0.161
557	0.159
558	0.156
558	0.154
559	0.152
559	0.151
560	0.149
560	0.148
560	0.146
561	0.146
561	0.145
562	0.143
562	0.142
563	0.139
563	0.137
564	0.135
564	0.132
564	0.13
565	0.127
565	0.126
566	0.123
566	0.122
567	0.121
567	0.12
568	0.12
568	0.12
568	0.121
569	0.121
569	0.122
570	0.122
570	0.121
571	0.122
571	0.122
572	0.121
572	0.121
573	0.12
573	0.119
573	0.118
574	0.117
574	0.116
575	0.115
575	0.115
576	0.115
576	0.113
577	0.112
577	0.111
577	0.11
578	0.109
578	0.108
579	0.109
579	0.109
580	0.108
580	0.105
581	0.103
581	0.101
581	0.1
582	0.1
582	0.099
583	0.099
583	0.098
584	0.095
584	0.092
585	0.091
585	0.09
585	0.09
586	0.089
586	0.089
587	0.088
587	0.086
588	0.084
588	0.083
589	0.082
589	0.081
590	0.08
590	0.08
590	0.08
591	0.08
591	0.08
592	0.079
592	0.078
593	0.078
593	0.077
594	0.076
594	0.075
594	0.074
595	0.073
595	0.071
596	0.07
596	0.07
597	0.071
597	0.071
598	0.072
598	0.072
598	0.073
599	0.073
599	0.073
600	0.073
600	0.072
601	0.072
601	0.071
602	0.07
602	0.07
602	0.069
603	0.069
603	0.07
604	0.07
604	0.071
605	0.072
605	0.073
606	0.074
606	0.073
606	0.073
607	0.072
607	0.072
608	0.071
608	0.07
609	0.069
609	0.069
610	0.068
610	0.066
610	0.066
611	0.066
611	0.067
612	0.067
612	0.068
613	0.069
613	0.07
614	0.07
614	0.07
614	0.07
615	0.07
615	0.07
616	0.07
616	0.07
617	0.07
617	0.069
618	0.069
618	0.068
618	0.067
619	0.067
619	0.067
620	0.068
620	0.069
621	0.069
621	0.069
622	0.069
622	0.069
622	0.07
623	0.069
623	0.07
624	0.071
624	0.071
625	0.071
625	0.072
626	0.073
626	0.073
626	0.074
627	0.075
627	0.076
628	0.077
628	0.078
629	0.079
629	0.079
630	0.079
630	0.079
630	0.08
631	0.08
631	0.08
632	0.08
632	0.08
633	0.08
633	0.081
634	0.082
634	0.083
634	0.085
635	0.086
635	0.087
636	0.088
636	0.089
637	0.091
637	0.092
638	0.094
638	0.095
638	0.097
639	0.098
639	0.099
640	0.1
640	0.101
641	0.103
641	0.104
642	0.106
642	0.107
642	0.109
643	0.11
643	0.111
644	0.112
644	0.114
645	0.116
645	0.118
646	0.12
646	0.123
646	0.126
647	0.13
647	0.133
648	0.136
648	0.139
649	0.142
649	0.146
650	0.149
650	0.153
650	0.156
651	0.159
651	0.161
652	0.163
652	0.165
653	0.168
653	0.175
653	0.182
654	0.146
654	0.12
655	0.124
655	0.126
656	0.128
656	0.13
657	0.132
657	0.134
657	0.136
658	0.134
658	0.128
659	0.161
659	0.207
660	0.211
660	0.214
661	0.216
661	0.218
661	0.221
662	0.224
662	0.226
663	0.229
663	0.231
664	0.234
664	0.236
665	0.239
665	0.241
665	0.244
666	0.246
666	0.248
667	0.251
667	0.253
668	0.255
668	0.258
669	0.261
669	0.264
669	0.267
670	0.271
670	0.274
671	0.276
671	0.279
672	0.281
672	0.283
672	0.285
673	0.287
673	0.29
674	0.292
674	0.293
675	0.295
675	0.296
676	0.299
676	0.302
676	0.303
677	0.306
677	0.308
678	0.31
678	0.311
679	0.312
679	0.314
680	0.316
680	0.318
680	0.319
681	0.319
681	0.32
682	0.321
682	0.322
683	0.324
683	0.326
684	0.327
684	0.327
684	0.327
685	0.327
685	0.327
686	0.327
686	0.326
687	0.325
687	0.324
687	0.324
688	0.323
688	0.322
689	0.322
689	0.324
690	0.324
690	0.325
691	0.325
691	0.326
691	0.326
692	0.325
692	0.325
693	0.325
693	0.325
694	0.324
694	0.322
695	0.322
695	0.322
695	0.321
696	0.319
696	0.318
697	0.317
697	0.315
698	0.313
698	0.311
698	0.308
699	0.306
699	0.303
700	0.3
700	0.298
701	0.296
701	0.295
702	0.293
702	0.291
702	0.29
703	0.288
703	0.286
704	0.285
704	0.283
705	0.282
705	0.281
705	0.279
706	0.277
706	0.276
707	0.274
707	0.272
708	0.27
708	0.268
709	0.266
709	0.264
709	0.261
710	0.258
710	0.256
711	0.254
711	0.252
712	0.25
712	0.248
713	0.246
713	0.245
713	0.243
714	0.241
714	0.238
715	0.236
715	0.233
716	0.23
716	0.227
716	0.224
717	0.221
717	0.218
718	0.215
718	0.211
719	0.209
719	0.206
720	0.204
720	0.201
720	0.199
721	0.196
721	0.193
722	0.191
722	0.188
723	0.185
723	0.183
723	0.181
724	0.179
724	0.177
725	0.174
725	0.173
726	0.171
726	0.169
727	0.167
727	0.165
727	0.163
728	0.161
728	0.159
729	0.157
729	0.156
730	0.154
730	0.151
730	0.15
731	0.147
731	0.145
732	0.144
732	0.142
733	0.14
733	0.139
734	0.137
734	0.134
734	0.133
735	0.133
735	0.131
736	0.13
736	0.128
737	0.127
737	0.126
737	0.124
738	0.122
738	0.119
739	0.117
739	0.115
740	0.111
740	0.109
741	0.107
741	0.104
741	0.1
742	0.096
742	0.093
743	0.09
743	0.088
744	0.086
744	0.084
744	0.082
745	0.079
745	0.077
746	0.075
746	0.074
747	0.073
747	0.072
748	0.072
748	0.072
748	0.071
749	0.071
749	0.07
750	0.07
750	0.07
751	0.07
751	0.07
751	0.07
752	0.07
752	0.068
753	0.067
753	0.066
754	0.065
754	0.063
754	0.063
755	0.063
755	0.063
756	0.062
756	0.06
757	0.059
757	0.059
758	0.058
758	0.058
758	0.057
759	0.056
759	0.054
760	0.051
760	0.049
761	0.046
761	0.045
761	0.043
762	0.041
762	0.04
763	0.039
763	0.037
764	0.035
764	0.033
764	0.032
765	0.031
765	0.029
766	0.028
766	0.028
767	0.027
767	0.025
768	0.022
768	0.02
768	0.019
769	0.017
769	0.016
770	0.015
770	0.013
771	0.011
771	0.008
771	0.005
772	0.003
772	0.001
773	-0.001
773	-0.003
774	-0.006
774	-0.009
775	-0.011
775	-0.013
775	-0.016
776	-0.018
776	-0.02
777	-0.022
777	-0.024
778	-0.026
778	-0.029
778	-0.032
779	-0.034
779	-0.036
780	-0.039
780	-0.042
781	-0.046
781	-0.051
781	-0.056
782	-0.063
782	-0.07
783	-0.078
783	-0.085
784	-0.092
784	-0.098
784	-0.103
785	-0.11
785	-0.115
786	-0.119
786	-0.118
787	-0.115
787	-0.112
788	-0.112
788	-0.113
788	-0.114
789	-0.116
789	-0.116
790	-0.113
790	-0.112
791	-0.113
791	-0.115
791	-0.117
792	-0.113
792	-0.102
793	-0.096
793	-0.092
794	-0.091
794	-0.093
794	-0.097
795	-0.099
795	-0.1
796	-0.1
796	-0.103
797	-0.112
797	-0.123
797	-0.129
798	-0.135
798	-0.138
799	-0.139
799	-0.138
800	-0.138
800	-0.139
801	-0.142
801	-0.143
801	-0.142
802	-0.143
802	-0.144
803	-0.145
803	-0.145
804	-0.144
804	-0.139
804	-0.132
805	-0.129
805	-0.127
806	-0.125
806	-0.124
807	-0.124
807	-0.124
807	-0.124
808	-0.124
808	-0.126
809	-0.13
809	-0.136
810	-0.14
810	-0.143
810	-0.146
811	-0.149
811	-0.15
812	-0.146
812	-0.142
813	-0.142
813	-0.143
813	-0.144
814	-0.146
814	-0.146
815	-0.144
815	-0.141
816	-0.139
816	-0.14
817	-0.145
817	-0.149
817	-0.149
818	-0.149
818	-0.145
819	-0.14
819	-0.136
820	-0.135
820	-0.133
820	-0.13
821	-0.124
821	-0.118
822	-0.11
822	-0.103
823	-0.095
823	-0.089
823	-0.085
824	-0.079
824	-0.072
825	-0.065
825	-0.058
826	-0.052
826	-0.047
826	-0.042
827	-0.037
827	-0.033
828	-0.03
828	-0.027
829	-0.024
829	-0.022
829	-0.021
830	-0.021
830	-0.02
831	-0.018
831	-0.017
832	-0.016
832	-0.015
832	-0.014
833	-0.013
833	-0.012
834	-0.01
834	-0.008
835	-0.007
835	-0.006
835	-0.005
836	-0.003
836	-0.002
837	-0.001
837	0
838	0.001
838	0.001
839	0.002
839	0.001
839	0.001
840	0
840	-0
841	-0.001
841	-0.001
842	-0.001
842	-0.001
842	-0.001
843	-0
843	0
844	0.001
844	0.002
845	0.002
845	0.003
845	0.004
846	0.004
846	0.004
847	0.004
847	0.005
848	0.005
848	0.006
848	0.006
849	0.007
849	0.007
850	0.008
850	0.008
851	0.008
851	0.009
851	0.009
852	0.009
852	0.009
853	0.009
853	0.009
854	0.009
854	0.009
854	0.009
855	0.01
855	0.009
856	0.009
856	0.009
857	0.009
857	0.009
857	0.009
858	0.009
858	0.009
859	0.009
859	0.009
860	0.009
860	0.009
860	0.009
861	0.01
861	0.011
862	0.011
862	0.011
863	0.012
863	0.013
863	0.013
864	0.014
864	0.015
865	0.016
865	0.017
866	0.018
866	0.019
866	0.02
867	0.021
867	0.021
868	0.022
868	0.022
869	0.022
869	0.021
869	0.021
870	0.02
870	0.019
871	0.019
871	0.018
872	0.018
872	0.017
872	0.017
873	0.016
873	0.015
874	0.015
874	0.014
875	0.013
875	0.013
875	0.012
876	0.012
876	0.011
877	0.011
877	0.01
878	0.01
878	0.01
878	0.01
879	0.01
879	0.01
880	0.01
880	0.01
881	0.011
881	0.011
881	0.011
882	0.011
882	0.012
883	0.012
883	0.012
884	0.013
884	0.013
884	0.014
885	0.014
885	0.014
886	0.015
886	0.015
887	0.016
887	0.016
887	0.016
888	0.015
888	0.015
889	0.015
889	0.015
890	0.015
890	0.014
890	0.014
891	0.013
891	0.013
892	0.013
892	0.014
893	0.014
893	0.014
893	0.015
894	0.015
894	0.015
895	0.015
895	0.015
895	0.015
896	0.015
896	0.014
897	0.013
897	0.012
898	0.012
898	0.011
898	0.01
899	0.009
899	0.008
900	0.008
900	0.007
901	0.007
901	0.006
901	0.007
902	0.007
902	0.007
903	0.008
903	0.008
904	0.009
904	0.009
904	0.01
905	0.01
905	0.011
906	0.011
906	0.011
907	0.011
907	0.01
907	0.01
908	0.01
908	0.011
909	0.011
909	0.012
910	0.012
910	0.013
910	0.013
911	0.013
911	0.014
912	0.014
912	0.014
913	0.014
913	0.013
913	0.013
914	0.012
914	0.012
915	0.011
915	0.011
916	0.011
916	0.01
916	0.01
917	0.01
917	0.009
918	0.009
918	0.01
918	0.01
919	0.01
919	0.011
920	0.011
920	0.012
921	0.013
921	0.014
921	0.014
922	0.015
922	0.016
923	0.017
923	0.017
924	0.017
924	0.017
924	0.018
925	0.018
925	0.018
926	0.018
926	0.018
927	0.018
927	0.018
927	0.018
928	0.018
928	0.018
929	0.018
929	0.018
930	0.018
930	0.018
930	0.017
931	0.017
931	0.016
932	0.016
932	0.015
933	0.014
933	0.013
933	0.012
934	0.011
934	0.011
935	0.01
935	0.009
935	0.009
936	0.008
936	0.007
937	0.007
937	0.007
938	0.007
938	0.007
938	0.008
939	0.009
939	0.009
940	0.011
940	0.011
941	0.012
941	0.014
941	0.015
942	0.016
942	0.017
943	0.017
943	0.018
944	0.018
944	0.018
944	0.019
945	0.019
945	0.019
946	0.02
946	0.02
946	0.02
947	0.021
947	0.021
948	0.021
948	0.021
949	0.021
949	0.021
949	0.021
950	0.021
950	0.021
951	0.02
951	0.02
952	0.02
952	0.019
952	0.019
953	0.019
953	0.019
954	0.019
954	0.019
955	0.019
955	0.02
955	0.02
956	0.02
956	0.021
957	0.021
957	0.021
957	0.021
958	0.021
958	0.021
959	0.022
959	0.022
960	0.022
960	0.022
960	0.023
961	0.023
961	0.024
962	0.024
962	0.025
963	0.026
963	0.027
963	0.027
964	0.028
964	0.029
965	0.029
965	0.03
966	0.03
966	0.03
966	0.03
967	0.03
967	0.03
968	0.029
968	0.028
968	0.028
969	0.027
969	0.026
970	0.025
970	0.024
971	0.023
971	0.023
971	0.022
972	0.022
972	0.021
973	0.021
973	0.021
974	0.02
974	0.02
974	0.02
975	0.02
975	0.021
976	0.021
976	0.021
976	0.021
977	0.021
977	0.02
978	0.02
978	0.02
979	0.02
979	0.019
979	0.019
980	0.018
980	0.018
981	0.017
981	0.016
982	0.016
982	0.016
982	0.015
983	0.014
983	0.013
984	0.013
984	0.012
984	0.011
985	0.01
985	0.009
986	0.008
986	0.007
987	0.006
987	0.006
987	0.006
988	0.005
988	0.006
989	0.006
989	0.006
990	0.007
990	0.008
990	0.009
991	0.01
991	0.011
992	0.012
992	0.013
992	0.014
993	0.014
993	0.015
994	0.015
994	0.015
995	0.015
995	0.014
995	0.014
996	0.013
996	0.013
997	0.012
997	0.011
997	0.011
998	0.011
998	0.011
999	0.011
999	0.011
1000	0.011
1000	0.012
1000	0.012
1001	0.013
1001	0.013
1002	0.014
1002	0.014
1003	0.014
1003	0.015
1003	0.015
1004	0.016
1004	0.016
1005	0.016
1005	0.017
1005	0.017
1006	0.017
1006	0.017
1007	0.017
1007	0.017
1008	0.017
1008	0.017
1008	0.018
1009	0.017
1009	0.018
1010	0.018
1010	0.018
1010	0.018
1011	0.019
1011	0.019
1012	0.02
1012	0.02
1013	0.02
1013	0.02
1013	0.02
1014	0.02
1014	0.02
1015	0.02
1015	0.019
1016	0.019
1016	0.018
1016	0.017
1017	0.017
1017	0.016
1018	0.015
1018	0.015
1018	0.014
1019	0.013
1019	0.013
1020	0.012
1020	0.011
1021	0.011
1021	0.01
1021	0.009
1022	0.009
1022	0.009
1023	0.009
1023	0.009
1023	0.009
1024	0.009
1024	0.008
1025	0.008
1025	0.008
1026	0.008
1026	0.008
1026	0.008
1027	0.008
1027	0.008
1028	0.008
1028	0.008
1028	0.008
1029	0.008
1029	0.008
1030	0.009
1030	0.009
1031	0.009
1031	0.009
1031	0.009
1032	0.009
1032	0.009
1033	0.009
1033	0.009
1033	0.009
1034	0.009
1034	0.009
1035	0.009
1035	0.009
1036	0.009
1036	0.009
1036	0.01
1037	0.011
1037	0.011
1038	0.012
1038	0.013
1039	0.014
1039	0.015
1039	0.016
1040	0.017
1040	0.018
1041	0.019
1041	0.019
1041	0.019
1042	0.019
1042	0.02
1043	0.02
1043	0.02
1044	0.02
1044	0.02
1044	0.02
1045	0.02
1045	0.019
1046	0.019
1046	0.019
1046	0.018
1047	0.018
1047	0.018
1048	0.018
1048	0.018
1049	0.017
1049	0.016
1049	0.016
1050	0.015
1050	0.015
1051	0.015
1051	0.015
1051	0.015
1052	0.015
1052	0.015
1053	0.015
1053	0.015
1053	0.016
1054	0.016
1054	0.016
1055	0.017
1055	0.017
1056	0.017
1056	0.016
1056	0.016
1057	0.016
1057	0.016
1058	0.017
1058	0.017
1058	0.018
1059	0.018
1059	0.018
1060	0.019
1060	0.019
1061	0.02
1061	0.02
1061	0.02
1062	0.02
1062	0.02
1063	0.019
1063	0.018
1063	0.018
1064	0.018
1064	0.018
1065	0.018
1065	0.017
1066	0.017
1066	0.017
1066	0.018
1067	0.018
1067	0.019
1068	0.019
1068	0.019
1068	0.019
1069	0.018
1069	0.018
1070	0.017
1070	0.017
1071	0.017
1071	0.016
1071	0.016
1072	0.016
1072	0.015
1073	0.015
1073	0.016
1073	0.016
1074	0.016
1074	0.016
1075	0.016
1075	0.016
1076	0.016
1076	0.016
1076	0.016
1077	0.017
1077	0.017
1078	0.018
1078	0.019
1078	0.02
1079	0.021
1079	0.022
1080	0.024
1080	0.025
1080	0.027
1081	0.028
1081	0.03
1082	0.031
1082	0.032
1083	0.033
1083	0.034
1083	0.035
1084	0.037
1084	0.039
1085	0.041
1085	0.042
1085	0.044
1086	0.046
1086	0.047
1087	0.049
1087	0.052
1088	0.053
1088	0.055
1088	0.056
1089	0.057
1089	0.058
1090	0.059
1090	0.062
1090	0.063
1091	0.065
1091	0.067
1092	0.069
1092	0.071
1092	0.073
1093	0.076
1093	0.08
1094	0.083
1094	0.086
1095	0.089
1095	0.092
1095	0.098
1096	0.103
1096	0.108
1097	0.115
1097	0.121
1097	0.128
1098	0.135
1098	0.143
1099	0.151
1099	0.161
1100	0.172
1100	0.181
1100	0.191
1101	0.204
1101	0.216
1102	0.232
1102	0.248
1102	0.265
1103	0.284
1103	0.306
1104	0.332
1104	0.356
1104	0.391
1105	0.428
1105	0.463
1106	0.507
1106	0.561
1107	0.633
1107	0.743
1107	0.913
1108	-0
1108	-0
1109	-0
1109	-0
1109	-0
1110	-0
1110	-0
1111	-0
1111	-0
