Data from 17c-2-2a_Absorbance__1132__03568.txt Node

Date: Fri Jan 26 15:02:37 CET 2024
User: Marek
Spectrometer: MAYP115816
Trigger mode: 0
Integration Time (sec): 2.000000E-1
Scans to average: 10
Electric dark correction enabled: true
Nonlinearity correction enabled: true
Boxcar width: 5
XAxis mode: Wavelengths
Number of Pixels in Spectrum: 2068
>>>>>Begin Spectral Data<<<<<
199	-1.822
199	-1.677
200	-1.523
200	-1.407
201	-1.333
201	-1.287
202	-1.216
202	-1.158
203	-1.11
203	-1.068
204	-1.041
204	-1.017
205	-0.995
205	-0.985
205	-0.982
206	-0.977
206	-0.973
207	-0.969
207	-0.968
208	-0.967
208	-0.964
209	-0.962
209	-0.958
210	-0.958
210	-0.958
211	-0.958
211	-0.959
212	-0.959
212	-0.958
213	-0.956
213	-0.952
213	-0.953
214	-0.95
214	-0.948
215	-0.943
215	-0.94
216	-0.936
216	-0.935
217	-0.932
217	-0.929
218	-0.925
218	-0.923
219	-0.919
219	-0.917
220	-0.915
220	-0.915
221	-0.913
221	-0.91
221	-0.907
222	-0.901
222	-0.897
223	-0.893
223	-0.889
224	-0.884
224	-0.877
225	-0.869
225	-0.861
226	-0.852
226	-0.84
227	-0.829
227	-0.817
228	-0.801
228	-0.783
229	-0.762
229	-0.739
229	-0.714
230	-0.685
230	-0.653
231	-0.62
231	-0.584
232	-0.545
232	-0.504
233	-0.46
233	-0.415
234	-0.371
234	-0.326
235	-0.281
235	-0.238
236	-0.195
236	-0.154
236	-0.115
237	-0.077
237	-0.042
238	-0.01
238	0.02
239	0.049
239	0.075
240	0.1
240	0.121
241	0.141
241	0.16
242	0.176
242	0.192
243	0.206
243	0.219
243	0.23
244	0.241
244	0.25
245	0.259
245	0.267
246	0.274
246	0.281
247	0.288
247	0.294
248	0.299
248	0.305
249	0.309
249	0.314
250	0.318
250	0.322
250	0.326
251	0.33
251	0.334
252	0.337
252	0.34
253	0.344
253	0.346
254	0.349
254	0.351
255	0.353
255	0.356
256	0.358
256	0.359
257	0.361
257	0.362
258	0.363
258	0.364
258	0.365
259	0.366
259	0.367
260	0.368
260	0.368
261	0.369
261	0.369
262	0.37
262	0.37
263	0.37
263	0.369
264	0.369
264	0.369
265	0.369
265	0.368
265	0.368
266	0.367
266	0.366
267	0.365
267	0.364
268	0.363
268	0.362
269	0.361
269	0.36
270	0.358
270	0.357
271	0.355
271	0.354
272	0.352
272	0.351
272	0.349
273	0.347
273	0.346
274	0.344
274	0.342
275	0.34
275	0.338
276	0.337
276	0.335
277	0.333
277	0.33
278	0.328
278	0.326
278	0.324
279	0.321
279	0.319
280	0.317
280	0.315
281	0.313
281	0.311
282	0.31
282	0.308
283	0.306
283	0.305
284	0.303
284	0.302
285	0.3
285	0.298
285	0.297
286	0.295
286	0.294
287	0.292
287	0.29
288	0.289
288	0.287
289	0.286
289	0.284
290	0.283
290	0.282
291	0.281
291	0.28
292	0.279
292	0.278
292	0.276
293	0.275
293	0.274
294	0.273
294	0.272
295	0.271
295	0.27
296	0.269
296	0.268
297	0.267
297	0.266
298	0.265
298	0.265
298	0.264
299	0.263
299	0.262
300	0.261
300	0.261
301	0.26
301	0.259
302	0.259
302	0.258
303	0.257
303	0.256
304	0.256
304	0.255
305	0.254
305	0.254
305	0.253
306	0.252
306	0.252
307	0.251
307	0.25
308	0.249
308	0.249
309	0.248
309	0.247
310	0.247
310	0.246
311	0.245
311	0.244
311	0.244
312	0.243
312	0.242
313	0.241
313	0.241
314	0.24
314	0.239
315	0.238
315	0.238
316	0.237
316	0.237
317	0.236
317	0.235
318	0.234
318	0.234
318	0.233
319	0.232
319	0.232
320	0.231
320	0.23
321	0.229
321	0.228
322	0.228
322	0.227
323	0.226
323	0.225
324	0.225
324	0.224
324	0.223
325	0.223
325	0.222
326	0.221
326	0.221
327	0.22
327	0.22
328	0.219
328	0.219
329	0.218
329	0.217
330	0.217
330	0.216
330	0.215
331	0.215
331	0.214
332	0.213
332	0.213
333	0.212
333	0.212
334	0.211
334	0.21
335	0.21
335	0.209
336	0.209
336	0.208
336	0.208
337	0.207
337	0.207
338	0.206
338	0.205
339	0.205
339	0.205
340	0.204
340	0.203
341	0.203
341	0.202
342	0.202
342	0.201
342	0.201
343	0.2
343	0.2
344	0.199
344	0.199
345	0.199
345	0.198
346	0.198
346	0.197
347	0.197
347	0.196
348	0.196
348	0.195
348	0.195
349	0.194
349	0.194
350	0.193
350	0.193
351	0.192
351	0.192
352	0.191
352	0.191
353	0.191
353	0.19
354	0.19
354	0.189
354	0.189
355	0.188
355	0.188
356	0.187
356	0.187
357	0.186
357	0.186
358	0.186
358	0.186
359	0.186
359	0.186
360	0.187
360	0.187
360	0.187
361	0.187
361	0.187
362	0.187
362	0.187
363	0.187
363	0.187
364	0.186
364	0.186
365	0.186
365	0.186
366	0.186
366	0.186
366	0.185
367	0.185
367	0.185
368	0.185
368	0.185
369	0.185
369	0.184
370	0.184
370	0.184
371	0.183
371	0.183
372	0.183
372	0.182
372	0.182
373	0.182
373	0.182
374	0.182
374	0.182
375	0.182
375	0.182
376	0.182
376	0.182
377	0.182
377	0.182
378	0.182
378	0.182
378	0.182
379	0.182
379	0.182
380	0.182
380	0.182
381	0.182
381	0.181
382	0.181
382	0.18
383	0.18
383	0.18
383	0.18
384	0.179
384	0.179
385	0.179
385	0.178
386	0.178
386	0.178
387	0.178
387	0.178
388	0.177
388	0.177
389	0.177
389	0.177
389	0.177
390	0.177
390	0.177
391	0.177
391	0.177
392	0.177
392	0.177
393	0.177
393	0.177
394	0.177
394	0.177
394	0.176
395	0.176
395	0.176
396	0.175
396	0.175
397	0.175
397	0.175
398	0.175
398	0.174
399	0.174
399	0.174
400	0.174
400	0.173
400	0.173
401	0.173
401	0.172
402	0.172
402	0.171
403	0.171
403	0.171
404	0.171
404	0.171
405	0.171
405	0.17
405	0.17
406	0.17
406	0.17
407	0.17
407	0.17
408	0.169
408	0.169
409	0.169
409	0.168
410	0.168
410	0.168
411	0.168
411	0.167
411	0.167
412	0.167
412	0.167
413	0.167
413	0.166
414	0.166
414	0.166
415	0.166
415	0.165
416	0.165
416	0.164
416	0.164
417	0.163
417	0.164
418	0.164
418	0.164
419	0.164
419	0.164
420	0.165
420	0.165
421	0.166
421	0.166
421	0.166
422	0.166
422	0.166
423	0.167
423	0.166
424	0.166
424	0.165
425	0.165
425	0.164
426	0.164
426	0.164
427	0.163
427	0.163
427	0.163
428	0.163
428	0.164
429	0.164
429	0.164
430	0.164
430	0.164
431	0.164
431	0.163
432	0.163
432	0.163
432	0.162
433	0.161
433	0.161
434	0.16
434	0.16
435	0.16
435	0.16
436	0.16
436	0.161
437	0.16
437	0.16
437	0.16
438	0.16
438	0.16
439	0.16
439	0.159
440	0.159
440	0.159
441	0.158
441	0.158
442	0.158
442	0.159
442	0.159
443	0.159
443	0.159
444	0.159
444	0.16
445	0.16
445	0.16
446	0.16
446	0.16
447	0.16
447	0.16
447	0.16
448	0.16
448	0.16
449	0.159
449	0.159
450	0.159
450	0.159
451	0.159
451	0.159
452	0.158
452	0.158
452	0.158
453	0.157
453	0.157
454	0.156
454	0.156
455	0.155
455	0.155
456	0.155
456	0.155
457	0.155
457	0.155
458	0.155
458	0.155
458	0.155
459	0.156
459	0.156
460	0.155
460	0.155
461	0.155
461	0.155
462	0.155
462	0.155
463	0.156
463	0.156
463	0.156
464	0.156
464	0.157
465	0.157
465	0.157
466	0.157
466	0.157
467	0.157
467	0.156
467	0.156
468	0.155
468	0.154
469	0.153
469	0.153
470	0.152
470	0.152
471	0.152
471	0.152
472	0.152
472	0.153
472	0.153
473	0.154
473	0.155
474	0.156
474	0.157
475	0.157
475	0.158
476	0.158
476	0.159
477	0.159
477	0.159
477	0.159
478	0.16
478	0.16
479	0.161
479	0.161
480	0.162
480	0.162
481	0.163
481	0.164
482	0.165
482	0.166
482	0.167
483	0.169
483	0.17
484	0.172
484	0.174
485	0.175
485	0.177
486	0.177
486	0.178
487	0.179
487	0.179
487	0.179
488	0.179
488	0.179
489	0.178
489	0.178
490	0.177
490	0.177
491	0.178
491	0.179
492	0.18
492	0.18
492	0.181
493	0.182
493	0.183
494	0.185
494	0.187
495	0.188
495	0.19
496	0.191
496	0.192
496	0.193
497	0.193
497	0.194
498	0.195
498	0.196
499	0.197
499	0.197
500	0.198
500	0.2
501	0.201
501	0.203
501	0.204
502	0.206
502	0.207
503	0.209
503	0.21
504	0.211
504	0.212
505	0.214
505	0.215
506	0.216
506	0.217
506	0.218
507	0.218
507	0.219
508	0.219
508	0.22
509	0.221
509	0.222
510	0.223
510	0.224
511	0.225
511	0.225
511	0.226
512	0.227
512	0.228
513	0.228
513	0.228
514	0.228
514	0.227
515	0.227
515	0.227
515	0.227
516	0.227
516	0.228
517	0.229
517	0.229
518	0.23
518	0.229
519	0.229
519	0.229
520	0.228
520	0.227
520	0.226
521	0.224
521	0.222
522	0.221
522	0.219
523	0.218
523	0.219
524	0.219
524	0.22
524	0.221
525	0.223
525	0.224
526	0.226
526	0.227
527	0.229
527	0.23
528	0.231
528	0.231
529	0.231
529	0.231
529	0.231
530	0.231
530	0.23
531	0.23
531	0.23
532	0.229
532	0.228
533	0.227
533	0.227
533	0.226
534	0.225
534	0.224
535	0.222
535	0.222
536	0.22
536	0.219
537	0.218
537	0.217
538	0.216
538	0.214
538	0.213
539	0.212
539	0.211
540	0.21
540	0.208
541	0.207
541	0.205
542	0.203
542	0.202
542	0.2
543	0.198
543	0.196
544	0.194
544	0.193
545	0.191
545	0.19
546	0.189
546	0.188
547	0.186
547	0.184
547	0.182
548	0.18
548	0.178
549	0.176
549	0.175
550	0.173
550	0.171
551	0.169
551	0.167
551	0.165
552	0.164
552	0.162
553	0.161
553	0.159
554	0.158
554	0.156
555	0.153
555	0.151
556	0.149
556	0.146
556	0.143
557	0.141
557	0.139
558	0.137
558	0.135
559	0.133
559	0.132
560	0.13
560	0.129
560	0.128
561	0.127
561	0.126
562	0.125
562	0.124
563	0.122
563	0.12
564	0.118
564	0.116
564	0.114
565	0.112
565	0.11
566	0.108
566	0.107
567	0.106
567	0.106
568	0.106
568	0.106
568	0.107
569	0.107
569	0.108
570	0.109
570	0.108
571	0.109
571	0.109
572	0.108
572	0.108
573	0.107
573	0.107
573	0.105
574	0.105
574	0.104
575	0.103
575	0.104
576	0.104
576	0.102
577	0.101
577	0.1
577	0.099
578	0.098
578	0.097
579	0.098
579	0.098
580	0.097
580	0.094
581	0.091
581	0.09
581	0.089
582	0.089
582	0.089
583	0.089
583	0.088
584	0.085
584	0.082
585	0.082
585	0.082
585	0.081
586	0.081
586	0.081
587	0.079
587	0.077
588	0.075
588	0.074
589	0.073
589	0.072
590	0.071
590	0.07
590	0.071
591	0.071
591	0.07
592	0.07
592	0.069
593	0.069
593	0.069
594	0.068
594	0.067
594	0.067
595	0.066
595	0.065
596	0.064
596	0.065
597	0.066
597	0.067
598	0.067
598	0.068
598	0.068
599	0.068
599	0.068
600	0.067
600	0.066
601	0.066
601	0.065
602	0.063
602	0.063
602	0.062
603	0.062
603	0.063
604	0.064
604	0.065
605	0.066
605	0.068
606	0.068
606	0.068
606	0.067
607	0.067
607	0.067
608	0.066
608	0.065
609	0.064
609	0.063
610	0.062
610	0.061
610	0.061
611	0.061
611	0.061
612	0.062
612	0.063
613	0.064
613	0.065
614	0.065
614	0.065
614	0.066
615	0.066
615	0.066
616	0.066
616	0.066
617	0.065
617	0.065
618	0.064
618	0.063
618	0.062
619	0.062
619	0.062
620	0.063
620	0.063
621	0.063
621	0.063
622	0.064
622	0.064
622	0.064
623	0.064
623	0.065
624	0.066
624	0.066
625	0.067
625	0.067
626	0.068
626	0.068
626	0.069
627	0.07
627	0.07
628	0.071
628	0.071
629	0.072
629	0.072
630	0.072
630	0.071
630	0.072
631	0.072
631	0.072
632	0.072
632	0.072
633	0.072
633	0.073
634	0.074
634	0.075
634	0.076
635	0.078
635	0.078
636	0.079
636	0.08
637	0.081
637	0.082
638	0.083
638	0.084
638	0.085
639	0.086
639	0.087
640	0.088
640	0.089
641	0.091
641	0.092
642	0.094
642	0.096
642	0.098
643	0.1
643	0.101
644	0.103
644	0.105
645	0.106
645	0.108
646	0.11
646	0.112
646	0.115
647	0.118
647	0.12
648	0.122
648	0.125
649	0.128
649	0.131
650	0.134
650	0.137
650	0.14
651	0.142
651	0.145
652	0.146
652	0.148
653	0.151
653	0.158
653	0.166
654	0.134
654	0.11
655	0.113
655	0.115
656	0.116
656	0.118
657	0.12
657	0.122
657	0.123
658	0.121
658	0.115
659	0.144
659	0.184
660	0.189
660	0.191
661	0.192
661	0.194
661	0.197
662	0.199
662	0.201
663	0.204
663	0.206
664	0.209
664	0.211
665	0.213
665	0.215
665	0.218
666	0.22
666	0.222
667	0.224
667	0.227
668	0.229
668	0.231
669	0.234
669	0.237
669	0.24
670	0.244
670	0.246
671	0.249
671	0.251
672	0.253
672	0.254
672	0.256
673	0.257
673	0.258
674	0.259
674	0.26
675	0.26
675	0.262
676	0.264
676	0.266
676	0.268
677	0.27
677	0.272
678	0.274
678	0.276
679	0.277
679	0.279
680	0.281
680	0.283
680	0.283
681	0.284
681	0.285
682	0.286
682	0.287
683	0.288
683	0.29
684	0.291
684	0.291
684	0.291
685	0.291
685	0.291
686	0.291
686	0.291
687	0.29
687	0.29
687	0.289
688	0.289
688	0.288
689	0.288
689	0.289
690	0.289
690	0.289
691	0.289
691	0.289
691	0.29
692	0.29
692	0.289
693	0.289
693	0.29
694	0.289
694	0.288
695	0.288
695	0.289
695	0.288
696	0.287
696	0.286
697	0.285
697	0.284
698	0.282
698	0.28
698	0.278
699	0.277
699	0.274
700	0.271
700	0.269
701	0.268
701	0.267
702	0.265
702	0.263
702	0.262
703	0.26
703	0.259
704	0.257
704	0.256
705	0.255
705	0.253
705	0.252
706	0.25
706	0.249
707	0.247
707	0.246
708	0.244
708	0.242
709	0.241
709	0.239
709	0.236
710	0.234
710	0.232
711	0.23
711	0.228
712	0.226
712	0.224
713	0.222
713	0.22
713	0.218
714	0.215
714	0.212
715	0.21
715	0.207
716	0.204
716	0.201
716	0.198
717	0.195
717	0.193
718	0.19
718	0.187
719	0.185
719	0.184
720	0.182
720	0.18
720	0.178
721	0.175
721	0.173
722	0.171
722	0.168
723	0.166
723	0.165
723	0.163
724	0.161
724	0.159
725	0.157
725	0.155
726	0.154
726	0.153
727	0.151
727	0.15
727	0.149
728	0.147
728	0.145
729	0.144
729	0.143
730	0.141
730	0.139
730	0.137
731	0.136
731	0.134
732	0.133
732	0.132
733	0.13
733	0.128
734	0.126
734	0.124
734	0.123
735	0.122
735	0.12
736	0.118
736	0.117
737	0.115
737	0.113
737	0.112
738	0.109
738	0.107
739	0.104
739	0.102
740	0.099
740	0.098
741	0.096
741	0.093
741	0.091
742	0.088
742	0.085
743	0.083
743	0.081
744	0.08
744	0.078
744	0.076
745	0.074
745	0.072
746	0.07
746	0.069
747	0.068
747	0.067
748	0.067
748	0.066
748	0.066
749	0.065
749	0.065
750	0.064
750	0.064
751	0.063
751	0.063
751	0.063
752	0.063
752	0.061
753	0.06
753	0.06
754	0.059
754	0.059
754	0.059
755	0.059
755	0.059
756	0.059
756	0.058
757	0.057
757	0.057
758	0.056
758	0.056
758	0.055
759	0.054
759	0.052
760	0.049
760	0.047
761	0.045
761	0.043
761	0.042
762	0.04
762	0.038
763	0.037
763	0.035
764	0.032
764	0.031
764	0.029
765	0.028
765	0.026
766	0.026
766	0.025
767	0.025
767	0.023
768	0.02
768	0.019
768	0.017
769	0.016
769	0.015
770	0.013
770	0.011
771	0.009
771	0.006
771	0.003
772	0
772	-0.002
773	-0.004
773	-0.006
774	-0.009
774	-0.011
775	-0.014
775	-0.016
775	-0.018
776	-0.02
776	-0.022
777	-0.024
777	-0.026
778	-0.028
778	-0.031
778	-0.034
779	-0.036
779	-0.038
780	-0.041
780	-0.044
781	-0.048
781	-0.052
781	-0.058
782	-0.064
782	-0.072
783	-0.079
783	-0.085
784	-0.092
784	-0.098
784	-0.104
785	-0.11
785	-0.116
786	-0.119
786	-0.119
787	-0.116
787	-0.113
788	-0.113
788	-0.113
788	-0.114
789	-0.116
789	-0.116
790	-0.113
790	-0.112
791	-0.113
791	-0.115
791	-0.118
792	-0.113
792	-0.102
793	-0.096
793	-0.092
794	-0.091
794	-0.093
794	-0.097
795	-0.1
795	-0.1
796	-0.101
796	-0.103
797	-0.112
797	-0.123
797	-0.13
798	-0.135
798	-0.138
799	-0.139
799	-0.138
800	-0.138
800	-0.139
801	-0.142
801	-0.143
801	-0.143
802	-0.144
802	-0.145
803	-0.145
803	-0.145
804	-0.144
804	-0.139
804	-0.133
805	-0.129
805	-0.127
806	-0.125
806	-0.124
807	-0.124
807	-0.124
807	-0.124
808	-0.125
808	-0.126
809	-0.131
809	-0.137
810	-0.14
810	-0.143
810	-0.146
811	-0.149
811	-0.15
812	-0.146
812	-0.142
813	-0.142
813	-0.143
813	-0.145
814	-0.146
814	-0.146
815	-0.144
815	-0.141
816	-0.14
816	-0.14
817	-0.145
817	-0.149
817	-0.15
818	-0.148
818	-0.145
819	-0.139
819	-0.135
820	-0.133
820	-0.13
820	-0.126
821	-0.12
821	-0.113
822	-0.105
822	-0.096
823	-0.088
823	-0.082
823	-0.077
824	-0.071
824	-0.064
825	-0.057
825	-0.05
826	-0.044
826	-0.039
826	-0.035
827	-0.031
827	-0.027
828	-0.024
828	-0.021
829	-0.019
829	-0.017
829	-0.016
830	-0.016
830	-0.015
831	-0.014
831	-0.013
832	-0.013
832	-0.012
832	-0.012
833	-0.011
833	-0.011
834	-0.01
834	-0.009
835	-0.007
835	-0.007
835	-0.006
836	-0.005
836	-0.003
837	-0.002
837	-0.001
838	-0
838	0
839	0.001
839	0
839	0
840	-0
840	-0.001
841	-0.002
841	-0.002
842	-0.003
842	-0.003
842	-0.003
843	-0.003
843	-0.003
844	-0.003
844	-0.002
845	-0.002
845	-0.001
845	-0
846	0.001
846	0.001
847	0.001
847	0.002
848	0.003
848	0.004
848	0.004
849	0.005
849	0.005
850	0.006
850	0.006
851	0.007
851	0.008
851	0.009
852	0.009
852	0.009
853	0.009
853	0.01
854	0.01
854	0.01
854	0.011
855	0.011
855	0.011
856	0.011
856	0.011
857	0.011
857	0.011
857	0.011
858	0.011
858	0.01
859	0.01
859	0.01
860	0.01
860	0.009
860	0.01
861	0.01
861	0.01
862	0.01
862	0.011
863	0.011
863	0.012
863	0.013
864	0.014
864	0.015
865	0.017
865	0.018
866	0.019
866	0.02
866	0.021
867	0.021
867	0.022
868	0.022
868	0.022
869	0.022
869	0.022
869	0.021
870	0.02
870	0.02
871	0.019
871	0.018
872	0.018
872	0.018
872	0.017
873	0.017
873	0.017
874	0.016
874	0.016
875	0.016
875	0.016
875	0.015
876	0.015
876	0.015
877	0.014
877	0.014
878	0.013
878	0.013
878	0.012
879	0.012
879	0.011
880	0.011
880	0.011
881	0.011
881	0.011
881	0.011
882	0.012
882	0.012
883	0.013
883	0.013
884	0.014
884	0.014
884	0.015
885	0.016
885	0.016
886	0.017
886	0.017
887	0.017
887	0.017
887	0.017
888	0.017
888	0.016
889	0.016
889	0.016
890	0.016
890	0.016
890	0.015
891	0.015
891	0.015
892	0.016
892	0.016
893	0.017
893	0.017
893	0.018
894	0.018
894	0.018
895	0.018
895	0.018
895	0.017
896	0.017
896	0.016
897	0.015
897	0.014
898	0.014
898	0.013
898	0.013
899	0.012
899	0.012
900	0.012
900	0.012
901	0.012
901	0.013
901	0.013
902	0.013
902	0.014
903	0.014
903	0.015
904	0.015
904	0.016
904	0.016
905	0.016
905	0.017
906	0.017
906	0.017
907	0.017
907	0.017
907	0.018
908	0.018
908	0.018
909	0.019
909	0.019
910	0.02
910	0.02
910	0.021
911	0.021
911	0.021
912	0.021
912	0.02
913	0.02
913	0.02
913	0.019
914	0.019
914	0.019
915	0.018
915	0.018
916	0.018
916	0.017
916	0.017
917	0.016
917	0.015
918	0.015
918	0.014
918	0.013
919	0.013
919	0.012
920	0.012
920	0.012
921	0.012
921	0.012
921	0.012
922	0.012
922	0.013
923	0.013
923	0.014
924	0.014
924	0.014
924	0.015
925	0.015
925	0.015
926	0.016
926	0.016
927	0.016
927	0.016
927	0.016
928	0.016
928	0.015
929	0.015
929	0.015
930	0.014
930	0.014
930	0.013
931	0.012
931	0.012
932	0.012
932	0.011
933	0.011
933	0.01
933	0.009
934	0.009
934	0.008
935	0.008
935	0.007
935	0.007
936	0.007
936	0.007
937	0.007
937	0.007
938	0.007
938	0.008
938	0.009
939	0.01
939	0.011
940	0.013
940	0.014
941	0.015
941	0.017
941	0.018
942	0.019
942	0.02
943	0.02
943	0.021
944	0.021
944	0.021
944	0.021
945	0.021
945	0.02
946	0.02
946	0.02
946	0.019
947	0.019
947	0.019
948	0.019
948	0.019
949	0.019
949	0.02
949	0.02
950	0.02
950	0.021
951	0.021
951	0.021
952	0.02
952	0.02
952	0.02
953	0.019
953	0.019
954	0.018
954	0.018
955	0.018
955	0.019
955	0.019
956	0.019
956	0.02
957	0.02
957	0.02
957	0.021
958	0.021
958	0.021
959	0.022
959	0.022
960	0.022
960	0.022
960	0.022
961	0.022
961	0.022
962	0.023
962	0.023
963	0.024
963	0.024
963	0.025
964	0.025
964	0.025
965	0.025
965	0.025
966	0.026
966	0.026
966	0.025
967	0.025
967	0.024
968	0.023
968	0.022
968	0.021
969	0.02
969	0.019
970	0.018
970	0.018
971	0.017
971	0.016
971	0.015
972	0.015
972	0.015
973	0.015
973	0.014
974	0.015
974	0.015
974	0.015
975	0.016
975	0.017
976	0.018
976	0.019
976	0.02
977	0.02
977	0.021
978	0.021
978	0.022
979	0.022
979	0.022
979	0.022
980	0.021
980	0.02
981	0.02
981	0.019
982	0.019
982	0.018
982	0.017
983	0.017
983	0.016
984	0.015
984	0.015
984	0.014
985	0.014
985	0.013
986	0.012
986	0.012
987	0.011
987	0.011
987	0.011
988	0.011
988	0.011
989	0.011
989	0.012
990	0.012
990	0.013
990	0.014
991	0.014
991	0.015
992	0.016
992	0.016
992	0.016
993	0.016
993	0.016
994	0.016
994	0.016
995	0.015
995	0.015
995	0.014
996	0.013
996	0.013
997	0.012
997	0.011
997	0.011
998	0.011
998	0.011
999	0.011
999	0.011
1000	0.011
1000	0.012
1000	0.013
1001	0.013
1001	0.014
1002	0.015
1002	0.016
1003	0.017
1003	0.017
1003	0.018
1004	0.018
1004	0.018
1005	0.018
1005	0.018
1005	0.018
1006	0.018
1006	0.018
1007	0.018
1007	0.018
1008	0.018
1008	0.017
1008	0.018
1009	0.018
1009	0.018
1010	0.018
1010	0.019
1010	0.02
1011	0.02
1011	0.021
1012	0.021
1012	0.021
1013	0.022
1013	0.022
1013	0.022
1014	0.022
1014	0.021
1015	0.021
1015	0.02
1016	0.02
1016	0.019
1016	0.018
1017	0.018
1017	0.017
1018	0.016
1018	0.016
1018	0.015
1019	0.015
1019	0.014
1020	0.014
1020	0.013
1021	0.013
1021	0.012
1021	0.012
1022	0.012
1022	0.011
1023	0.011
1023	0.01
1023	0.01
1024	0.009
1024	0.009
1025	0.009
1025	0.009
1026	0.009
1026	0.009
1026	0.009
1027	0.009
1027	0.009
1028	0.009
1028	0.009
1028	0.009
1029	0.009
1029	0.009
1030	0.009
1030	0.009
1031	0.008
1031	0.008
1031	0.008
1032	0.008
1032	0.007
1033	0.007
1033	0.006
1033	0.006
1034	0.006
1034	0.006
1035	0.006
1035	0.005
1036	0.005
1036	0.006
1036	0.006
1037	0.007
1037	0.008
1038	0.008
1038	0.009
1039	0.01
1039	0.011
1039	0.011
1040	0.012
1040	0.013
1041	0.013
1041	0.014
1041	0.014
1042	0.014
1042	0.015
1043	0.015
1043	0.015
1044	0.016
1044	0.016
1044	0.017
1045	0.017
1045	0.017
1046	0.017
1046	0.017
1046	0.018
1047	0.018
1047	0.018
1048	0.018
1048	0.018
1049	0.018
1049	0.017
1049	0.017
1050	0.017
1050	0.016
1051	0.016
1051	0.016
1051	0.016
1052	0.016
1052	0.016
1053	0.016
1053	0.016
1053	0.016
1054	0.016
1054	0.016
1055	0.016
1055	0.016
1056	0.015
1056	0.015
1056	0.015
1057	0.014
1057	0.015
1058	0.015
1058	0.015
1058	0.016
1059	0.016
1059	0.017
1060	0.017
1060	0.018
1061	0.019
1061	0.02
1061	0.021
1062	0.021
1062	0.021
1063	0.021
1063	0.021
1063	0.021
1064	0.021
1064	0.021
1065	0.021
1065	0.021
1066	0.021
1066	0.021
1066	0.021
1067	0.022
1067	0.022
1068	0.022
1068	0.022
1068	0.021
1069	0.021
1069	0.02
1070	0.02
1070	0.019
1071	0.018
1071	0.019
1071	0.018
1072	0.018
1072	0.018
1073	0.018
1073	0.018
1073	0.018
1074	0.018
1074	0.018
1075	0.018
1075	0.018
1076	0.017
1076	0.018
1076	0.017
1077	0.017
1077	0.018
1078	0.018
1078	0.019
1078	0.02
1079	0.021
1079	0.022
1080	0.023
1080	0.025
1080	0.025
1081	0.027
1081	0.028
1082	0.029
1082	0.03
1083	0.031
1083	0.031
1083	0.033
1084	0.033
1084	0.035
1085	0.036
1085	0.038
1085	0.039
1086	0.041
1086	0.042
1087	0.045
1087	0.047
1088	0.049
1088	0.05
1088	0.052
1089	0.054
1089	0.055
1090	0.057
1090	0.06
1090	0.061
1091	0.063
1091	0.066
1092	0.067
1092	0.071
1092	0.074
1093	0.077
1093	0.08
1094	0.083
1094	0.086
1095	0.089
1095	0.092
1095	0.098
1096	0.102
1096	0.108
1097	0.113
1097	0.118
1097	0.125
1098	0.131
1098	0.137
1099	0.145
1099	0.154
1100	0.163
1100	0.172
1100	0.181
1101	0.192
1101	0.204
1102	0.219
1102	0.232
1102	0.249
1103	0.267
1103	0.288
1104	0.312
1104	0.338
1104	0.369
1105	0.4
1105	0.433
1106	0.469
1106	0.516
1107	0.575
1107	0.661
1107	0.794
1108	1.85
1108	-0
1109	-0
1109	-0
1109	-0
1110	-0
1110	-0
1111	-0
1111	-0
