Data from 17c-2-2a_Absorbance__772__03208.txt Node

Date: Fri Jan 26 14:50:37 CET 2024
User: Marek
Spectrometer: MAYP115816
Trigger mode: 0
Integration Time (sec): 2.000000E-1
Scans to average: 10
Electric dark correction enabled: true
Nonlinearity correction enabled: true
Boxcar width: 5
XAxis mode: Wavelengths
Number of Pixels in Spectrum: 2068
>>>>>Begin Spectral Data<<<<<
199	-1.812
199	-1.666
200	-1.513
200	-1.397
201	-1.324
201	-1.278
202	-1.207
202	-1.15
203	-1.101
203	-1.059
204	-1.032
204	-1.008
205	-0.986
205	-0.976
205	-0.973
206	-0.968
206	-0.963
207	-0.96
207	-0.96
208	-0.958
208	-0.956
209	-0.954
209	-0.95
210	-0.95
210	-0.95
211	-0.95
211	-0.951
212	-0.95
212	-0.949
213	-0.947
213	-0.942
213	-0.942
214	-0.939
214	-0.937
215	-0.933
215	-0.93
216	-0.926
216	-0.924
217	-0.921
217	-0.919
218	-0.915
218	-0.914
219	-0.91
219	-0.909
220	-0.907
220	-0.907
221	-0.904
221	-0.903
221	-0.899
222	-0.893
222	-0.889
223	-0.885
223	-0.881
224	-0.876
224	-0.869
225	-0.861
225	-0.853
226	-0.843
226	-0.832
227	-0.821
227	-0.81
228	-0.793
228	-0.775
229	-0.754
229	-0.732
229	-0.707
230	-0.678
230	-0.647
231	-0.614
231	-0.578
232	-0.54
232	-0.5
233	-0.457
233	-0.414
234	-0.371
234	-0.327
235	-0.283
235	-0.241
236	-0.2
236	-0.161
236	-0.123
237	-0.087
237	-0.053
238	-0.022
238	0.007
239	0.034
239	0.058
240	0.081
240	0.1
241	0.119
241	0.136
242	0.151
242	0.165
243	0.178
243	0.19
243	0.2
244	0.21
244	0.218
245	0.226
245	0.234
246	0.241
246	0.247
247	0.253
247	0.259
248	0.264
248	0.269
249	0.273
249	0.277
250	0.281
250	0.285
250	0.289
251	0.293
251	0.296
252	0.299
252	0.302
253	0.305
253	0.307
254	0.31
254	0.312
255	0.314
255	0.316
256	0.318
256	0.32
257	0.322
257	0.323
258	0.324
258	0.325
258	0.326
259	0.327
259	0.328
260	0.329
260	0.329
261	0.329
261	0.33
262	0.33
262	0.33
263	0.33
263	0.33
264	0.33
264	0.33
265	0.329
265	0.329
265	0.328
266	0.327
266	0.326
267	0.326
267	0.325
268	0.324
268	0.322
269	0.321
269	0.32
270	0.318
270	0.317
271	0.316
271	0.314
272	0.313
272	0.311
272	0.309
273	0.308
273	0.306
274	0.304
274	0.303
275	0.301
275	0.299
276	0.297
276	0.296
277	0.294
277	0.292
278	0.289
278	0.287
278	0.285
279	0.283
279	0.281
280	0.279
280	0.277
281	0.275
281	0.273
282	0.271
282	0.27
283	0.268
283	0.267
284	0.266
284	0.264
285	0.263
285	0.261
285	0.26
286	0.258
286	0.257
287	0.255
287	0.254
288	0.252
288	0.251
289	0.25
289	0.248
290	0.247
290	0.246
291	0.245
291	0.243
292	0.242
292	0.241
292	0.24
293	0.239
293	0.238
294	0.237
294	0.236
295	0.235
295	0.234
296	0.233
296	0.233
297	0.232
297	0.231
298	0.23
298	0.23
298	0.229
299	0.228
299	0.228
300	0.227
300	0.226
301	0.226
301	0.225
302	0.225
302	0.224
303	0.223
303	0.223
304	0.222
304	0.222
305	0.221
305	0.22
305	0.22
306	0.219
306	0.219
307	0.218
307	0.217
308	0.217
308	0.216
309	0.216
309	0.215
310	0.214
310	0.214
311	0.213
311	0.213
311	0.212
312	0.211
312	0.211
313	0.21
313	0.21
314	0.209
314	0.209
315	0.208
315	0.207
316	0.206
316	0.206
317	0.205
317	0.205
318	0.204
318	0.203
318	0.203
319	0.202
319	0.201
320	0.201
320	0.2
321	0.2
321	0.199
322	0.198
322	0.197
323	0.197
323	0.196
324	0.195
324	0.195
324	0.194
325	0.194
325	0.193
326	0.192
326	0.192
327	0.191
327	0.191
328	0.19
328	0.19
329	0.189
329	0.189
330	0.188
330	0.188
330	0.187
331	0.187
331	0.186
332	0.185
332	0.185
333	0.184
333	0.184
334	0.183
334	0.183
335	0.182
335	0.182
336	0.181
336	0.181
336	0.18
337	0.18
337	0.179
338	0.179
338	0.178
339	0.178
339	0.177
340	0.176
340	0.176
341	0.176
341	0.175
342	0.175
342	0.174
342	0.174
343	0.173
343	0.173
344	0.172
344	0.172
345	0.172
345	0.171
346	0.171
346	0.17
347	0.17
347	0.17
348	0.169
348	0.169
348	0.168
349	0.168
349	0.168
350	0.167
350	0.167
351	0.167
351	0.166
352	0.166
352	0.165
353	0.165
353	0.164
354	0.164
354	0.163
354	0.163
355	0.162
355	0.162
356	0.162
356	0.161
357	0.161
357	0.161
358	0.161
358	0.161
359	0.161
359	0.161
360	0.161
360	0.161
360	0.161
361	0.161
361	0.161
362	0.162
362	0.162
363	0.162
363	0.161
364	0.161
364	0.161
365	0.161
365	0.161
366	0.161
366	0.161
366	0.161
367	0.161
367	0.16
368	0.16
368	0.16
369	0.16
369	0.159
370	0.159
370	0.159
371	0.158
371	0.158
372	0.158
372	0.158
372	0.157
373	0.157
373	0.157
374	0.157
374	0.157
375	0.157
375	0.157
376	0.157
376	0.157
377	0.157
377	0.158
378	0.158
378	0.158
378	0.158
379	0.158
379	0.158
380	0.158
380	0.157
381	0.157
381	0.157
382	0.157
382	0.156
383	0.156
383	0.155
383	0.155
384	0.155
384	0.155
385	0.154
385	0.154
386	0.154
386	0.154
387	0.154
387	0.154
388	0.154
388	0.154
389	0.154
389	0.154
389	0.154
390	0.154
390	0.153
391	0.154
391	0.154
392	0.154
392	0.154
393	0.154
393	0.154
394	0.154
394	0.153
394	0.153
395	0.153
395	0.153
396	0.153
396	0.152
397	0.152
397	0.152
398	0.152
398	0.152
399	0.151
399	0.151
400	0.151
400	0.151
400	0.151
401	0.15
401	0.15
402	0.149
402	0.149
403	0.149
403	0.149
404	0.148
404	0.148
405	0.148
405	0.148
405	0.148
406	0.148
406	0.147
407	0.147
407	0.147
408	0.147
408	0.147
409	0.146
409	0.146
410	0.146
410	0.146
411	0.146
411	0.146
411	0.146
412	0.145
412	0.145
413	0.145
413	0.145
414	0.145
414	0.144
415	0.144
415	0.144
416	0.143
416	0.143
416	0.143
417	0.142
417	0.142
418	0.142
418	0.143
419	0.143
419	0.143
420	0.143
420	0.144
421	0.144
421	0.144
421	0.144
422	0.144
422	0.144
423	0.144
423	0.144
424	0.144
424	0.143
425	0.143
425	0.142
426	0.142
426	0.142
427	0.142
427	0.142
427	0.142
428	0.142
428	0.142
429	0.143
429	0.143
430	0.143
430	0.143
431	0.143
431	0.143
432	0.142
432	0.142
432	0.141
433	0.141
433	0.14
434	0.14
434	0.14
435	0.139
435	0.139
436	0.139
436	0.14
437	0.139
437	0.139
437	0.139
438	0.139
438	0.139
439	0.139
439	0.138
440	0.138
440	0.137
441	0.137
441	0.137
442	0.138
442	0.138
442	0.138
443	0.138
443	0.139
444	0.139
444	0.139
445	0.139
445	0.14
446	0.14
446	0.14
447	0.139
447	0.139
447	0.139
448	0.139
448	0.139
449	0.139
449	0.138
450	0.138
450	0.138
451	0.138
451	0.138
452	0.137
452	0.137
452	0.137
453	0.136
453	0.136
454	0.135
454	0.135
455	0.135
455	0.135
456	0.135
456	0.134
457	0.134
457	0.134
458	0.135
458	0.135
458	0.135
459	0.136
459	0.135
460	0.135
460	0.135
461	0.134
461	0.134
462	0.134
462	0.135
463	0.135
463	0.135
463	0.135
464	0.135
464	0.136
465	0.136
465	0.136
466	0.136
466	0.136
467	0.136
467	0.136
467	0.136
468	0.135
468	0.134
469	0.133
469	0.133
470	0.132
470	0.132
471	0.132
471	0.132
472	0.132
472	0.132
472	0.133
473	0.134
473	0.134
474	0.135
474	0.136
475	0.137
475	0.137
476	0.137
476	0.138
477	0.138
477	0.138
477	0.138
478	0.139
478	0.139
479	0.139
479	0.14
480	0.14
480	0.141
481	0.141
481	0.142
482	0.142
482	0.143
482	0.144
483	0.146
483	0.148
484	0.149
484	0.151
485	0.152
485	0.153
486	0.154
486	0.154
487	0.155
487	0.155
487	0.156
488	0.155
488	0.154
489	0.154
489	0.153
490	0.153
490	0.153
491	0.153
491	0.154
492	0.155
492	0.155
492	0.156
493	0.157
493	0.158
494	0.159
494	0.161
495	0.163
495	0.164
496	0.165
496	0.166
496	0.167
497	0.168
497	0.169
498	0.17
498	0.171
499	0.171
499	0.172
500	0.172
500	0.173
501	0.175
501	0.176
501	0.177
502	0.178
502	0.18
503	0.181
503	0.182
504	0.183
504	0.184
505	0.184
505	0.185
506	0.186
506	0.187
506	0.188
507	0.188
507	0.188
508	0.189
508	0.19
509	0.191
509	0.193
510	0.194
510	0.195
511	0.195
511	0.195
511	0.196
512	0.197
512	0.197
513	0.197
513	0.197
514	0.197
514	0.196
515	0.196
515	0.196
515	0.196
516	0.196
516	0.197
517	0.197
517	0.198
518	0.198
518	0.198
519	0.198
519	0.198
520	0.197
520	0.196
520	0.196
521	0.194
521	0.192
522	0.191
522	0.189
523	0.188
523	0.188
524	0.188
524	0.189
524	0.19
525	0.191
525	0.192
526	0.193
526	0.195
527	0.196
527	0.197
528	0.198
528	0.199
529	0.2
529	0.2
529	0.2
530	0.2
530	0.199
531	0.199
531	0.199
532	0.198
532	0.197
533	0.196
533	0.195
533	0.195
534	0.194
534	0.192
535	0.191
535	0.19
536	0.189
536	0.188
537	0.187
537	0.186
538	0.185
538	0.183
538	0.182
539	0.181
539	0.18
540	0.179
540	0.178
541	0.176
541	0.175
542	0.174
542	0.172
542	0.171
543	0.17
543	0.168
544	0.166
544	0.165
545	0.164
545	0.163
546	0.163
546	0.161
547	0.16
547	0.158
547	0.156
548	0.154
548	0.152
549	0.151
549	0.149
550	0.148
550	0.146
551	0.144
551	0.142
551	0.141
552	0.139
552	0.138
553	0.137
553	0.136
554	0.135
554	0.133
555	0.131
555	0.129
556	0.127
556	0.125
556	0.122
557	0.12
557	0.119
558	0.117
558	0.115
559	0.114
559	0.113
560	0.112
560	0.111
560	0.11
561	0.109
561	0.109
562	0.108
562	0.107
563	0.105
563	0.103
564	0.101
564	0.099
564	0.097
565	0.096
565	0.094
566	0.092
566	0.091
567	0.09
567	0.09
568	0.09
568	0.091
568	0.091
569	0.092
569	0.093
570	0.093
570	0.093
571	0.094
571	0.094
572	0.094
572	0.093
573	0.093
573	0.092
573	0.091
574	0.09
574	0.09
575	0.089
575	0.09
576	0.09
576	0.089
577	0.087
577	0.086
577	0.086
578	0.085
578	0.085
579	0.085
579	0.086
580	0.084
580	0.082
581	0.08
581	0.079
581	0.078
582	0.077
582	0.077
583	0.077
583	0.076
584	0.074
584	0.071
585	0.071
585	0.071
585	0.071
586	0.071
586	0.07
587	0.069
587	0.068
588	0.066
588	0.065
589	0.064
589	0.064
590	0.063
590	0.062
590	0.063
591	0.063
591	0.063
592	0.063
592	0.062
593	0.062
593	0.062
594	0.061
594	0.06
594	0.059
595	0.058
595	0.057
596	0.056
596	0.056
597	0.057
597	0.058
598	0.058
598	0.059
598	0.059
599	0.06
599	0.06
600	0.059
600	0.059
601	0.058
601	0.058
602	0.057
602	0.056
602	0.055
603	0.055
603	0.056
604	0.057
604	0.058
605	0.059
605	0.06
606	0.06
606	0.059
606	0.059
607	0.059
607	0.059
608	0.058
608	0.057
609	0.056
609	0.055
610	0.054
610	0.053
610	0.053
611	0.053
611	0.054
612	0.054
612	0.055
613	0.056
613	0.057
614	0.057
614	0.057
614	0.057
615	0.057
615	0.056
616	0.057
616	0.057
617	0.056
617	0.056
618	0.055
618	0.055
618	0.054
619	0.054
619	0.055
620	0.056
620	0.056
621	0.056
621	0.056
622	0.056
622	0.057
622	0.056
623	0.056
623	0.057
624	0.058
624	0.058
625	0.058
625	0.058
626	0.059
626	0.059
626	0.06
627	0.06
627	0.061
628	0.062
628	0.062
629	0.063
629	0.063
630	0.063
630	0.062
630	0.062
631	0.063
631	0.063
632	0.063
632	0.063
633	0.063
633	0.064
634	0.065
634	0.066
634	0.068
635	0.069
635	0.07
636	0.071
636	0.072
637	0.073
637	0.074
638	0.075
638	0.077
638	0.078
639	0.079
639	0.08
640	0.081
640	0.082
641	0.083
641	0.084
642	0.085
642	0.087
642	0.088
643	0.089
643	0.09
644	0.092
644	0.093
645	0.095
645	0.096
646	0.098
646	0.101
646	0.103
647	0.106
647	0.108
648	0.11
648	0.113
649	0.115
649	0.118
650	0.12
650	0.123
650	0.125
651	0.127
651	0.129
652	0.13
652	0.132
653	0.134
653	0.141
653	0.146
654	0.119
654	0.098
655	0.101
655	0.103
656	0.104
656	0.106
657	0.108
657	0.11
657	0.111
658	0.11
658	0.105
659	0.131
659	0.166
660	0.171
660	0.172
661	0.174
661	0.176
661	0.178
662	0.18
662	0.182
663	0.184
663	0.186
664	0.187
664	0.189
665	0.191
665	0.193
665	0.195
666	0.197
666	0.199
667	0.201
667	0.203
668	0.205
668	0.208
669	0.21
669	0.212
669	0.215
670	0.218
670	0.22
671	0.222
671	0.224
672	0.225
672	0.227
672	0.228
673	0.23
673	0.231
674	0.233
674	0.234
675	0.235
675	0.237
676	0.24
676	0.242
676	0.244
677	0.246
677	0.248
678	0.25
678	0.251
679	0.253
679	0.254
680	0.256
680	0.257
680	0.258
681	0.258
681	0.259
682	0.26
682	0.261
683	0.262
683	0.263
684	0.264
684	0.264
684	0.263
685	0.263
685	0.263
686	0.263
686	0.262
687	0.262
687	0.261
687	0.26
688	0.26
688	0.259
689	0.259
689	0.26
690	0.261
690	0.261
691	0.262
691	0.262
691	0.263
692	0.262
692	0.262
693	0.262
693	0.262
694	0.261
694	0.26
695	0.26
695	0.26
695	0.259
696	0.258
696	0.256
697	0.255
697	0.254
698	0.252
698	0.25
698	0.248
699	0.247
699	0.244
700	0.241
700	0.24
701	0.238
701	0.237
702	0.236
702	0.234
702	0.233
703	0.231
703	0.23
704	0.228
704	0.227
705	0.227
705	0.225
705	0.224
706	0.223
706	0.222
707	0.221
707	0.219
708	0.218
708	0.216
709	0.215
709	0.213
709	0.211
710	0.208
710	0.206
711	0.205
711	0.203
712	0.201
712	0.2
713	0.198
713	0.197
713	0.196
714	0.194
714	0.191
715	0.19
715	0.188
716	0.185
716	0.184
716	0.181
717	0.179
717	0.177
718	0.174
718	0.171
719	0.169
719	0.167
720	0.165
720	0.163
720	0.16
721	0.157
721	0.155
722	0.152
722	0.149
723	0.147
723	0.145
723	0.143
724	0.142
724	0.14
725	0.138
725	0.137
726	0.137
726	0.136
727	0.135
727	0.134
727	0.133
728	0.131
728	0.13
729	0.129
729	0.128
730	0.127
730	0.125
730	0.123
731	0.121
731	0.12
732	0.119
732	0.117
733	0.116
733	0.114
734	0.113
734	0.111
734	0.11
735	0.109
735	0.108
736	0.106
736	0.105
737	0.103
737	0.102
737	0.1
738	0.098
738	0.096
739	0.094
739	0.092
740	0.089
740	0.087
741	0.086
741	0.083
741	0.08
742	0.077
742	0.074
743	0.072
743	0.071
744	0.069
744	0.068
744	0.066
745	0.064
745	0.062
746	0.061
746	0.06
747	0.059
747	0.059
748	0.059
748	0.059
748	0.059
749	0.058
749	0.058
750	0.058
750	0.058
751	0.058
751	0.058
751	0.058
752	0.057
752	0.056
753	0.054
753	0.053
754	0.052
754	0.051
754	0.051
755	0.051
755	0.051
756	0.05
756	0.049
757	0.048
757	0.048
758	0.048
758	0.048
758	0.048
759	0.047
759	0.045
760	0.043
760	0.041
761	0.04
761	0.039
761	0.038
762	0.036
762	0.035
763	0.033
763	0.031
764	0.029
764	0.027
764	0.026
765	0.024
765	0.023
766	0.022
766	0.021
767	0.02
767	0.018
768	0.015
768	0.013
768	0.012
769	0.011
769	0.01
770	0.009
770	0.007
771	0.005
771	0.002
771	-0
772	-0.002
772	-0.004
773	-0.007
773	-0.009
774	-0.012
774	-0.015
775	-0.017
775	-0.02
775	-0.022
776	-0.024
776	-0.026
777	-0.028
777	-0.03
778	-0.032
778	-0.035
778	-0.037
779	-0.039
779	-0.04
780	-0.043
780	-0.046
781	-0.05
781	-0.054
781	-0.06
782	-0.066
782	-0.074
783	-0.08
783	-0.087
784	-0.094
784	-0.1
784	-0.105
785	-0.111
785	-0.117
786	-0.12
786	-0.119
787	-0.116
787	-0.113
788	-0.113
788	-0.113
788	-0.114
789	-0.116
789	-0.116
790	-0.113
790	-0.112
791	-0.113
791	-0.115
791	-0.118
792	-0.113
792	-0.102
793	-0.096
793	-0.092
794	-0.091
794	-0.093
794	-0.097
795	-0.1
795	-0.1
796	-0.101
796	-0.103
797	-0.112
797	-0.123
797	-0.13
798	-0.135
798	-0.138
799	-0.139
799	-0.138
800	-0.138
800	-0.139
801	-0.142
801	-0.143
801	-0.143
802	-0.144
802	-0.145
803	-0.145
803	-0.145
804	-0.144
804	-0.139
804	-0.133
805	-0.129
805	-0.127
806	-0.125
806	-0.124
807	-0.124
807	-0.124
807	-0.125
808	-0.125
808	-0.126
809	-0.131
809	-0.137
810	-0.14
810	-0.143
810	-0.146
811	-0.149
811	-0.15
812	-0.146
812	-0.143
813	-0.143
813	-0.144
813	-0.145
814	-0.146
814	-0.146
815	-0.144
815	-0.141
816	-0.14
816	-0.141
817	-0.145
817	-0.149
817	-0.15
818	-0.148
818	-0.144
819	-0.139
819	-0.135
820	-0.132
820	-0.13
820	-0.126
821	-0.119
821	-0.112
822	-0.104
822	-0.095
823	-0.088
823	-0.082
823	-0.077
824	-0.071
824	-0.064
825	-0.057
825	-0.051
826	-0.045
826	-0.04
826	-0.036
827	-0.032
827	-0.028
828	-0.025
828	-0.022
829	-0.02
829	-0.018
829	-0.017
830	-0.017
830	-0.016
831	-0.015
831	-0.014
832	-0.013
832	-0.012
832	-0.011
833	-0.01
833	-0.009
834	-0.008
834	-0.006
835	-0.005
835	-0.003
835	-0.002
836	-0.001
836	-0
837	0
837	0.001
838	0.001
838	0.001
839	0.001
839	0
839	-0
840	-0.001
840	-0.002
841	-0.002
841	-0.002
842	-0.002
842	-0.002
842	-0.001
843	-0.001
843	-0
844	0
844	0.001
845	0.001
845	0.002
845	0.003
846	0.003
846	0.003
847	0.003
847	0.004
848	0.004
848	0.004
848	0.005
849	0.005
849	0.005
850	0.006
850	0.006
851	0.006
851	0.007
851	0.007
852	0.007
852	0.007
853	0.007
853	0.007
854	0.008
854	0.008
854	0.008
855	0.009
855	0.009
856	0.008
856	0.008
857	0.009
857	0.008
857	0.008
858	0.009
858	0.008
859	0.008
859	0.008
860	0.008
860	0.008
860	0.008
861	0.008
861	0.009
862	0.009
862	0.009
863	0.009
863	0.01
863	0.011
864	0.012
864	0.012
865	0.013
865	0.014
866	0.015
866	0.016
866	0.017
867	0.018
867	0.019
868	0.019
868	0.02
869	0.02
869	0.021
869	0.02
870	0.02
870	0.02
871	0.02
871	0.02
872	0.02
872	0.019
872	0.019
873	0.018
873	0.018
874	0.017
874	0.016
875	0.016
875	0.015
875	0.014
876	0.014
876	0.013
877	0.012
877	0.012
878	0.011
878	0.011
878	0.01
879	0.01
879	0.01
880	0.01
880	0.011
881	0.011
881	0.012
881	0.012
882	0.012
882	0.013
883	0.013
883	0.014
884	0.014
884	0.015
884	0.015
885	0.016
885	0.016
886	0.017
886	0.017
887	0.018
887	0.018
887	0.018
888	0.018
888	0.018
889	0.018
889	0.018
890	0.018
890	0.017
890	0.017
891	0.016
891	0.016
892	0.016
892	0.016
893	0.017
893	0.017
893	0.018
894	0.018
894	0.019
895	0.019
895	0.019
895	0.019
896	0.018
896	0.018
897	0.017
897	0.017
898	0.016
898	0.015
898	0.014
899	0.013
899	0.012
900	0.011
900	0.01
901	0.009
901	0.009
901	0.008
902	0.008
902	0.008
903	0.008
903	0.009
904	0.009
904	0.01
904	0.01
905	0.01
905	0.011
906	0.011
906	0.011
907	0.01
907	0.01
907	0.01
908	0.01
908	0.01
909	0.011
909	0.011
910	0.012
910	0.012
910	0.013
911	0.013
911	0.014
912	0.015
912	0.015
913	0.015
913	0.015
913	0.015
914	0.014
914	0.014
915	0.014
915	0.014
916	0.014
916	0.014
916	0.014
917	0.014
917	0.013
918	0.013
918	0.013
918	0.013
919	0.013
919	0.012
920	0.012
920	0.012
921	0.012
921	0.012
921	0.012
922	0.013
922	0.013
923	0.014
923	0.014
924	0.015
924	0.016
924	0.016
925	0.017
925	0.017
926	0.018
926	0.018
927	0.019
927	0.019
927	0.02
928	0.02
928	0.02
929	0.02
929	0.02
930	0.02
930	0.02
930	0.02
931	0.019
931	0.019
932	0.019
932	0.018
933	0.017
933	0.016
933	0.015
934	0.014
934	0.013
935	0.012
935	0.011
935	0.011
936	0.01
936	0.009
937	0.009
937	0.008
938	0.008
938	0.008
938	0.008
939	0.008
939	0.009
940	0.009
940	0.01
941	0.011
941	0.011
941	0.012
942	0.013
942	0.014
943	0.015
943	0.016
944	0.017
944	0.017
944	0.018
945	0.019
945	0.02
946	0.02
946	0.021
946	0.022
947	0.022
947	0.022
948	0.023
948	0.023
949	0.023
949	0.023
949	0.022
950	0.022
950	0.022
951	0.022
951	0.021
952	0.021
952	0.021
952	0.021
953	0.021
953	0.021
954	0.02
954	0.02
955	0.021
955	0.021
955	0.021
956	0.021
956	0.021
957	0.021
957	0.021
957	0.021
958	0.021
958	0.022
959	0.022
959	0.022
960	0.023
960	0.023
960	0.024
961	0.024
961	0.025
962	0.025
962	0.026
963	0.026
963	0.027
963	0.027
964	0.027
964	0.028
965	0.028
965	0.028
966	0.028
966	0.028
966	0.027
967	0.027
967	0.026
968	0.025
968	0.024
968	0.023
969	0.022
969	0.021
970	0.02
970	0.019
971	0.017
971	0.017
971	0.016
972	0.015
972	0.015
973	0.015
973	0.014
974	0.014
974	0.014
974	0.015
975	0.015
975	0.016
976	0.016
976	0.017
976	0.017
977	0.017
977	0.017
978	0.017
978	0.017
979	0.017
979	0.016
979	0.016
980	0.015
980	0.014
981	0.013
981	0.013
982	0.012
982	0.012
982	0.012
983	0.011
983	0.011
984	0.01
984	0.01
984	0.01
985	0.01
985	0.009
986	0.008
986	0.008
987	0.008
987	0.008
987	0.008
988	0.008
988	0.008
989	0.009
989	0.009
990	0.01
990	0.011
990	0.011
991	0.012
991	0.013
992	0.014
992	0.014
992	0.015
993	0.015
993	0.015
994	0.015
994	0.015
995	0.014
995	0.014
995	0.014
996	0.013
996	0.012
997	0.012
997	0.011
997	0.011
998	0.01
998	0.01
999	0.01
999	0.01
1000	0.01
1000	0.011
1000	0.011
1001	0.012
1001	0.012
1002	0.013
1002	0.014
1003	0.014
1003	0.014
1003	0.015
1004	0.015
1004	0.015
1005	0.015
1005	0.015
1005	0.015
1006	0.015
1006	0.014
1007	0.014
1007	0.014
1008	0.014
1008	0.014
1008	0.014
1009	0.014
1009	0.015
1010	0.015
1010	0.016
1010	0.017
1011	0.017
1011	0.018
1012	0.019
1012	0.02
1013	0.021
1013	0.021
1013	0.022
1014	0.022
1014	0.022
1015	0.022
1015	0.022
1016	0.021
1016	0.02
1016	0.02
1017	0.019
1017	0.019
1018	0.018
1018	0.017
1018	0.017
1019	0.016
1019	0.015
1020	0.014
1020	0.013
1021	0.012
1021	0.012
1021	0.011
1022	0.01
1022	0.01
1023	0.01
1023	0.009
1023	0.009
1024	0.009
1024	0.009
1025	0.009
1025	0.009
1026	0.009
1026	0.009
1026	0.009
1027	0.009
1027	0.01
1028	0.01
1028	0.011
1028	0.011
1029	0.012
1029	0.012
1030	0.012
1030	0.012
1031	0.013
1031	0.013
1031	0.013
1032	0.013
1032	0.013
1033	0.013
1033	0.013
1033	0.013
1034	0.012
1034	0.012
1035	0.012
1035	0.011
1036	0.011
1036	0.011
1036	0.012
1037	0.012
1037	0.012
1038	0.012
1038	0.012
1039	0.013
1039	0.013
1039	0.014
1040	0.014
1040	0.015
1041	0.015
1041	0.015
1041	0.014
1042	0.014
1042	0.014
1043	0.014
1043	0.014
1044	0.015
1044	0.014
1044	0.015
1045	0.014
1045	0.014
1046	0.014
1046	0.014
1046	0.013
1047	0.013
1047	0.013
1048	0.013
1048	0.013
1049	0.012
1049	0.012
1049	0.011
1050	0.011
1050	0.011
1051	0.011
1051	0.011
1051	0.011
1052	0.011
1052	0.01
1053	0.011
1053	0.011
1053	0.011
1054	0.011
1054	0.012
1055	0.012
1055	0.013
1056	0.013
1056	0.013
1056	0.013
1057	0.013
1057	0.013
1058	0.014
1058	0.014
1058	0.015
1059	0.015
1059	0.016
1060	0.016
1060	0.017
1061	0.017
1061	0.018
1061	0.018
1062	0.018
1062	0.018
1063	0.018
1063	0.017
1063	0.017
1064	0.017
1064	0.017
1065	0.017
1065	0.016
1066	0.016
1066	0.016
1066	0.016
1067	0.016
1067	0.016
1068	0.016
1068	0.016
1068	0.015
1069	0.015
1069	0.014
1070	0.014
1070	0.013
1071	0.013
1071	0.013
1071	0.013
1072	0.013
1072	0.012
1073	0.012
1073	0.012
1073	0.012
1074	0.013
1074	0.013
1075	0.013
1075	0.013
1076	0.012
1076	0.013
1076	0.013
1077	0.013
1077	0.014
1078	0.014
1078	0.015
1078	0.017
1079	0.018
1079	0.02
1080	0.021
1080	0.023
1080	0.024
1081	0.025
1081	0.027
1082	0.029
1082	0.03
1083	0.031
1083	0.032
1083	0.033
1084	0.034
1084	0.036
1085	0.037
1085	0.038
1085	0.04
1086	0.041
1086	0.042
1087	0.043
1087	0.045
1088	0.046
1088	0.047
1088	0.048
1089	0.049
1089	0.05
1090	0.052
1090	0.053
1090	0.055
1091	0.057
1091	0.06
1092	0.062
1092	0.065
1092	0.068
1093	0.071
1093	0.074
1094	0.078
1094	0.081
1095	0.084
1095	0.088
1095	0.093
1096	0.096
1096	0.1
1097	0.106
1097	0.111
1097	0.117
1098	0.124
1098	0.13
1099	0.137
1099	0.146
1100	0.154
1100	0.164
1100	0.174
1101	0.186
1101	0.197
1102	0.211
1102	0.225
1102	0.242
1103	0.259
1103	0.28
1104	0.303
1104	0.326
1104	0.354
1105	0.383
1105	0.416
1106	0.45
1106	0.497
1107	0.549
1107	0.629
1107	0.746
1108	1.457
1108	-0
1109	-0
1109	-0
1109	-0
1110	-0
1110	-0
1111	-0
1111	-0
