Data from 17c-2-2a_Absorbance__1346__03782.txt Node

Date: Fri Jan 26 15:09:45 CET 2024
User: Marek
Spectrometer: MAYP115816
Trigger mode: 0
Integration Time (sec): 2.000000E-1
Scans to average: 10
Electric dark correction enabled: true
Nonlinearity correction enabled: true
Boxcar width: 5
XAxis mode: Wavelengths
Number of Pixels in Spectrum: 2068
>>>>>Begin Spectral Data<<<<<
199	-1.838
199	-1.691
200	-1.537
200	-1.421
201	-1.347
201	-1.301
202	-1.23
202	-1.172
203	-1.124
203	-1.082
204	-1.054
204	-1.03
205	-1.008
205	-0.999
205	-0.995
206	-0.99
206	-0.986
207	-0.982
207	-0.981
208	-0.98
208	-0.977
209	-0.974
209	-0.971
210	-0.971
210	-0.97
211	-0.972
211	-0.973
212	-0.972
212	-0.971
213	-0.968
213	-0.964
213	-0.964
214	-0.961
214	-0.96
215	-0.955
215	-0.952
216	-0.948
216	-0.946
217	-0.943
217	-0.941
218	-0.937
218	-0.936
219	-0.932
219	-0.931
220	-0.929
220	-0.929
221	-0.926
221	-0.925
221	-0.92
222	-0.915
222	-0.911
223	-0.907
223	-0.903
224	-0.897
224	-0.891
225	-0.883
225	-0.874
226	-0.865
226	-0.853
227	-0.843
227	-0.831
228	-0.814
228	-0.797
229	-0.776
229	-0.753
229	-0.727
230	-0.698
230	-0.666
231	-0.633
231	-0.596
232	-0.557
232	-0.516
233	-0.472
233	-0.427
234	-0.382
234	-0.337
235	-0.292
235	-0.248
236	-0.205
236	-0.163
236	-0.123
237	-0.084
237	-0.048
238	-0.015
238	0.016
239	0.046
239	0.072
240	0.098
240	0.12
241	0.142
241	0.161
242	0.179
242	0.195
243	0.21
243	0.223
243	0.235
244	0.247
244	0.257
245	0.266
245	0.274
246	0.282
246	0.29
247	0.296
247	0.303
248	0.309
248	0.314
249	0.319
249	0.324
250	0.329
250	0.333
250	0.337
251	0.341
251	0.345
252	0.349
252	0.352
253	0.355
253	0.357
254	0.36
254	0.363
255	0.365
255	0.368
256	0.369
256	0.371
257	0.373
257	0.374
258	0.375
258	0.376
258	0.378
259	0.379
259	0.379
260	0.38
260	0.38
261	0.381
261	0.381
262	0.382
262	0.382
263	0.382
263	0.382
264	0.382
264	0.382
265	0.382
265	0.381
265	0.381
266	0.38
266	0.379
267	0.378
267	0.377
268	0.376
268	0.375
269	0.374
269	0.372
270	0.371
270	0.369
271	0.368
271	0.366
272	0.365
272	0.363
272	0.362
273	0.36
273	0.358
274	0.357
274	0.355
275	0.353
275	0.351
276	0.349
276	0.347
277	0.345
277	0.343
278	0.34
278	0.338
278	0.336
279	0.334
279	0.331
280	0.329
280	0.327
281	0.325
281	0.323
282	0.322
282	0.32
283	0.319
283	0.317
284	0.315
284	0.314
285	0.312
285	0.311
285	0.309
286	0.308
286	0.306
287	0.305
287	0.303
288	0.302
288	0.3
289	0.299
289	0.297
290	0.296
290	0.295
291	0.294
291	0.292
292	0.291
292	0.289
292	0.288
293	0.287
293	0.285
294	0.284
294	0.283
295	0.282
295	0.281
296	0.28
296	0.279
297	0.278
297	0.277
298	0.276
298	0.276
298	0.275
299	0.274
299	0.274
300	0.273
300	0.272
301	0.271
301	0.271
302	0.27
302	0.269
303	0.268
303	0.268
304	0.267
304	0.266
305	0.265
305	0.265
305	0.264
306	0.263
306	0.262
307	0.262
307	0.261
308	0.26
308	0.259
309	0.258
309	0.258
310	0.257
310	0.256
311	0.255
311	0.255
311	0.254
312	0.253
312	0.253
313	0.252
313	0.251
314	0.251
314	0.25
315	0.249
315	0.248
316	0.248
316	0.247
317	0.246
317	0.245
318	0.244
318	0.244
318	0.243
319	0.242
319	0.242
320	0.241
320	0.24
321	0.239
321	0.238
322	0.238
322	0.237
323	0.236
323	0.235
324	0.234
324	0.234
324	0.233
325	0.232
325	0.232
326	0.231
326	0.23
327	0.229
327	0.229
328	0.228
328	0.227
329	0.227
329	0.226
330	0.225
330	0.225
330	0.224
331	0.224
331	0.223
332	0.222
332	0.222
333	0.221
333	0.221
334	0.22
334	0.219
335	0.219
335	0.218
336	0.217
336	0.217
336	0.216
337	0.216
337	0.215
338	0.215
338	0.214
339	0.213
339	0.213
340	0.212
340	0.212
341	0.211
341	0.21
342	0.21
342	0.209
342	0.209
343	0.208
343	0.208
344	0.207
344	0.207
345	0.207
345	0.206
346	0.206
346	0.205
347	0.205
347	0.204
348	0.204
348	0.203
348	0.203
349	0.202
349	0.202
350	0.201
350	0.201
351	0.2
351	0.2
352	0.199
352	0.199
353	0.198
353	0.198
354	0.197
354	0.197
354	0.196
355	0.196
355	0.196
356	0.195
356	0.195
357	0.194
357	0.194
358	0.194
358	0.194
359	0.194
359	0.194
360	0.194
360	0.194
360	0.194
361	0.194
361	0.195
362	0.195
362	0.195
363	0.195
363	0.194
364	0.194
364	0.194
365	0.194
365	0.193
366	0.193
366	0.193
366	0.193
367	0.193
367	0.193
368	0.192
368	0.192
369	0.192
369	0.192
370	0.191
370	0.191
371	0.19
371	0.19
372	0.189
372	0.189
372	0.189
373	0.189
373	0.189
374	0.189
374	0.189
375	0.189
375	0.189
376	0.189
376	0.189
377	0.189
377	0.189
378	0.189
378	0.189
378	0.189
379	0.189
379	0.188
380	0.188
380	0.188
381	0.188
381	0.188
382	0.188
382	0.187
383	0.187
383	0.187
383	0.186
384	0.186
384	0.186
385	0.186
385	0.186
386	0.185
386	0.185
387	0.185
387	0.185
388	0.184
388	0.184
389	0.184
389	0.184
389	0.184
390	0.184
390	0.184
391	0.184
391	0.184
392	0.184
392	0.184
393	0.184
393	0.184
394	0.184
394	0.183
394	0.183
395	0.183
395	0.183
396	0.182
396	0.182
397	0.182
397	0.181
398	0.181
398	0.181
399	0.181
399	0.181
400	0.18
400	0.18
400	0.179
401	0.179
401	0.178
402	0.178
402	0.177
403	0.177
403	0.177
404	0.176
404	0.176
405	0.176
405	0.176
405	0.176
406	0.176
406	0.176
407	0.176
407	0.175
408	0.175
408	0.175
409	0.174
409	0.174
410	0.174
410	0.174
411	0.174
411	0.174
411	0.174
412	0.173
412	0.173
413	0.173
413	0.173
414	0.173
414	0.172
415	0.172
415	0.171
416	0.171
416	0.171
416	0.171
417	0.17
417	0.17
418	0.17
418	0.17
419	0.171
419	0.171
420	0.171
420	0.172
421	0.172
421	0.172
421	0.172
422	0.172
422	0.172
423	0.172
423	0.172
424	0.171
424	0.171
425	0.17
425	0.17
426	0.17
426	0.169
427	0.169
427	0.169
427	0.169
428	0.169
428	0.17
429	0.17
429	0.17
430	0.17
430	0.17
431	0.17
431	0.169
432	0.169
432	0.168
432	0.168
433	0.167
433	0.167
434	0.166
434	0.166
435	0.166
435	0.166
436	0.166
436	0.167
437	0.167
437	0.166
437	0.167
438	0.166
438	0.166
439	0.166
439	0.165
440	0.165
440	0.165
441	0.165
441	0.165
442	0.165
442	0.165
442	0.165
443	0.165
443	0.166
444	0.166
444	0.166
445	0.166
445	0.166
446	0.166
446	0.165
447	0.165
447	0.165
447	0.165
448	0.165
448	0.165
449	0.165
449	0.164
450	0.164
450	0.164
451	0.164
451	0.164
452	0.164
452	0.164
452	0.163
453	0.163
453	0.162
454	0.162
454	0.161
455	0.161
455	0.161
456	0.161
456	0.161
457	0.161
457	0.161
458	0.161
458	0.161
458	0.162
459	0.162
459	0.162
460	0.161
460	0.161
461	0.161
461	0.161
462	0.161
462	0.161
463	0.161
463	0.161
463	0.162
464	0.162
464	0.162
465	0.162
465	0.162
466	0.163
466	0.163
467	0.163
467	0.162
467	0.162
468	0.161
468	0.16
469	0.159
469	0.159
470	0.159
470	0.158
471	0.158
471	0.158
472	0.158
472	0.159
472	0.159
473	0.16
473	0.161
474	0.162
474	0.162
475	0.163
475	0.163
476	0.164
476	0.164
477	0.164
477	0.165
477	0.165
478	0.165
478	0.166
479	0.166
479	0.167
480	0.168
480	0.168
481	0.169
481	0.17
482	0.17
482	0.171
482	0.173
483	0.174
483	0.177
484	0.179
484	0.18
485	0.182
485	0.183
486	0.184
486	0.185
487	0.186
487	0.186
487	0.186
488	0.186
488	0.185
489	0.185
489	0.184
490	0.184
490	0.184
491	0.185
491	0.186
492	0.186
492	0.187
492	0.188
493	0.189
493	0.191
494	0.192
494	0.194
495	0.196
495	0.197
496	0.198
496	0.199
496	0.2
497	0.201
497	0.203
498	0.204
498	0.205
499	0.205
499	0.207
500	0.208
500	0.209
501	0.211
501	0.213
501	0.214
502	0.216
502	0.217
503	0.219
503	0.22
504	0.222
504	0.223
505	0.223
505	0.224
506	0.225
506	0.226
506	0.227
507	0.228
507	0.228
508	0.229
508	0.23
509	0.231
509	0.232
510	0.233
510	0.234
511	0.234
511	0.235
511	0.236
512	0.237
512	0.238
513	0.238
513	0.237
514	0.237
514	0.237
515	0.237
515	0.237
515	0.237
516	0.237
516	0.238
517	0.238
517	0.239
518	0.24
518	0.24
519	0.24
519	0.239
520	0.238
520	0.236
520	0.235
521	0.233
521	0.231
522	0.23
522	0.228
523	0.228
523	0.228
524	0.228
524	0.229
524	0.231
525	0.233
525	0.234
526	0.236
526	0.237
527	0.239
527	0.24
528	0.241
528	0.242
529	0.242
529	0.242
529	0.242
530	0.241
530	0.241
531	0.24
531	0.24
532	0.239
532	0.238
533	0.237
533	0.236
533	0.235
534	0.234
534	0.233
535	0.232
535	0.231
536	0.23
536	0.229
537	0.228
537	0.227
538	0.225
538	0.224
538	0.222
539	0.221
539	0.22
540	0.218
540	0.217
541	0.215
541	0.213
542	0.211
542	0.209
542	0.207
543	0.205
543	0.203
544	0.202
544	0.2
545	0.199
545	0.197
546	0.196
546	0.195
547	0.193
547	0.191
547	0.189
548	0.187
548	0.185
549	0.184
549	0.182
550	0.18
550	0.178
551	0.176
551	0.173
551	0.171
552	0.17
552	0.168
553	0.167
553	0.166
554	0.165
554	0.162
555	0.16
555	0.158
556	0.155
556	0.152
556	0.149
557	0.147
557	0.144
558	0.142
558	0.139
559	0.137
559	0.136
560	0.135
560	0.133
560	0.132
561	0.132
561	0.132
562	0.131
562	0.129
563	0.128
563	0.126
564	0.123
564	0.121
564	0.119
565	0.117
565	0.116
566	0.114
566	0.112
567	0.111
567	0.111
568	0.111
568	0.111
568	0.111
569	0.112
569	0.113
570	0.113
570	0.112
571	0.113
571	0.113
572	0.112
572	0.112
573	0.111
573	0.11
573	0.109
574	0.108
574	0.107
575	0.106
575	0.107
576	0.107
576	0.105
577	0.104
577	0.102
577	0.102
578	0.1
578	0.1
579	0.101
579	0.101
580	0.1
580	0.097
581	0.095
581	0.093
581	0.092
582	0.092
582	0.092
583	0.092
583	0.09
584	0.087
584	0.084
585	0.083
585	0.082
585	0.082
586	0.081
586	0.081
587	0.079
587	0.077
588	0.075
588	0.073
589	0.072
589	0.072
590	0.071
590	0.07
590	0.071
591	0.071
591	0.071
592	0.071
592	0.071
593	0.071
593	0.071
594	0.07
594	0.069
594	0.069
595	0.068
595	0.067
596	0.066
596	0.066
597	0.068
597	0.068
598	0.068
598	0.069
598	0.07
599	0.07
599	0.069
600	0.069
600	0.068
601	0.067
601	0.067
602	0.065
602	0.064
602	0.063
603	0.063
603	0.063
604	0.063
604	0.064
605	0.065
605	0.066
606	0.065
606	0.065
606	0.064
607	0.064
607	0.064
608	0.063
608	0.062
609	0.061
609	0.061
610	0.059
610	0.058
610	0.058
611	0.059
611	0.06
612	0.061
612	0.062
613	0.063
613	0.064
614	0.065
614	0.065
614	0.065
615	0.065
615	0.065
616	0.065
616	0.064
617	0.064
617	0.063
618	0.062
618	0.062
618	0.062
619	0.062
619	0.062
620	0.063
620	0.064
621	0.064
621	0.065
622	0.065
622	0.065
622	0.065
623	0.065
623	0.066
624	0.067
624	0.067
625	0.067
625	0.067
626	0.067
626	0.067
626	0.068
627	0.069
627	0.069
628	0.07
628	0.071
629	0.071
629	0.071
630	0.071
630	0.071
630	0.071
631	0.072
631	0.072
632	0.072
632	0.072
633	0.072
633	0.073
634	0.074
634	0.076
634	0.078
635	0.079
635	0.08
636	0.081
636	0.082
637	0.083
637	0.084
638	0.085
638	0.087
638	0.088
639	0.088
639	0.089
640	0.09
640	0.091
641	0.092
641	0.094
642	0.096
642	0.098
642	0.099
643	0.101
643	0.103
644	0.104
644	0.106
645	0.108
645	0.11
646	0.113
646	0.115
646	0.119
647	0.122
647	0.125
648	0.127
648	0.13
649	0.133
649	0.136
650	0.139
650	0.142
650	0.144
651	0.147
651	0.149
652	0.151
652	0.153
653	0.155
653	0.163
653	0.171
654	0.138
654	0.113
655	0.116
655	0.118
656	0.119
656	0.121
657	0.123
657	0.124
657	0.126
658	0.123
658	0.117
659	0.146
659	0.187
660	0.193
660	0.195
661	0.197
661	0.199
661	0.201
662	0.204
662	0.207
663	0.21
663	0.213
664	0.216
664	0.218
665	0.221
665	0.223
665	0.226
666	0.229
666	0.231
667	0.233
667	0.236
668	0.238
668	0.241
669	0.243
669	0.246
669	0.25
670	0.253
670	0.256
671	0.258
671	0.26
672	0.262
672	0.263
672	0.265
673	0.266
673	0.267
674	0.268
674	0.269
675	0.27
675	0.272
676	0.274
676	0.276
676	0.278
677	0.28
677	0.282
678	0.284
678	0.285
679	0.286
679	0.288
680	0.29
680	0.291
680	0.292
681	0.293
681	0.294
682	0.295
682	0.297
683	0.299
683	0.301
684	0.303
684	0.303
684	0.303
685	0.303
685	0.304
686	0.304
686	0.303
687	0.302
687	0.301
687	0.3
688	0.299
688	0.298
689	0.299
689	0.299
690	0.3
690	0.3
691	0.3
691	0.301
691	0.301
692	0.301
692	0.301
693	0.301
693	0.301
694	0.3
694	0.298
695	0.297
695	0.298
695	0.297
696	0.296
696	0.295
697	0.294
697	0.292
698	0.291
698	0.289
698	0.287
699	0.286
699	0.283
700	0.28
700	0.279
701	0.277
701	0.276
702	0.274
702	0.273
702	0.271
703	0.269
703	0.267
704	0.265
704	0.264
705	0.263
705	0.262
705	0.26
706	0.259
706	0.257
707	0.256
707	0.254
708	0.253
708	0.251
709	0.249
709	0.248
709	0.245
710	0.242
710	0.24
711	0.238
711	0.236
712	0.234
712	0.232
713	0.23
713	0.228
713	0.226
714	0.223
714	0.22
715	0.217
715	0.214
716	0.211
716	0.208
716	0.205
717	0.202
717	0.199
718	0.196
718	0.193
719	0.191
719	0.189
720	0.187
720	0.184
720	0.182
721	0.179
721	0.177
722	0.175
722	0.172
723	0.17
723	0.168
723	0.166
724	0.164
724	0.162
725	0.16
725	0.158
726	0.156
726	0.155
727	0.154
727	0.152
727	0.151
728	0.149
728	0.148
729	0.147
729	0.146
730	0.144
730	0.141
730	0.14
731	0.138
731	0.136
732	0.134
732	0.132
733	0.13
733	0.128
734	0.126
734	0.124
734	0.123
735	0.122
735	0.12
736	0.119
736	0.117
737	0.116
737	0.115
737	0.113
738	0.111
738	0.109
739	0.107
739	0.105
740	0.102
740	0.1
741	0.099
741	0.096
741	0.093
742	0.09
742	0.087
743	0.084
743	0.082
744	0.08
744	0.078
744	0.075
745	0.073
745	0.071
746	0.069
746	0.068
747	0.067
747	0.067
748	0.066
748	0.066
748	0.066
749	0.065
749	0.065
750	0.064
750	0.064
751	0.063
751	0.063
751	0.063
752	0.062
752	0.06
753	0.059
753	0.058
754	0.058
754	0.057
754	0.057
755	0.057
755	0.057
756	0.057
756	0.055
757	0.055
757	0.055
758	0.054
758	0.054
758	0.053
759	0.052
759	0.05
760	0.047
760	0.045
761	0.042
761	0.041
761	0.039
762	0.037
762	0.036
763	0.034
763	0.032
764	0.029
764	0.028
764	0.026
765	0.024
765	0.023
766	0.022
766	0.021
767	0.02
767	0.018
768	0.016
768	0.014
768	0.013
769	0.013
769	0.012
770	0.011
770	0.01
771	0.008
771	0.005
771	0.003
772	0
772	-0.002
773	-0.004
773	-0.006
774	-0.009
774	-0.012
775	-0.014
775	-0.017
775	-0.019
776	-0.021
776	-0.023
777	-0.024
777	-0.026
778	-0.028
778	-0.031
778	-0.034
779	-0.036
779	-0.038
780	-0.041
780	-0.045
781	-0.048
781	-0.053
781	-0.058
782	-0.064
782	-0.072
783	-0.078
783	-0.085
784	-0.092
784	-0.097
784	-0.103
785	-0.109
785	-0.115
786	-0.118
786	-0.118
787	-0.115
787	-0.112
788	-0.112
788	-0.113
788	-0.114
789	-0.116
789	-0.116
790	-0.113
790	-0.112
791	-0.113
791	-0.115
791	-0.118
792	-0.113
792	-0.102
793	-0.096
793	-0.092
794	-0.091
794	-0.093
794	-0.097
795	-0.1
795	-0.1
796	-0.1
796	-0.103
797	-0.112
797	-0.123
797	-0.13
798	-0.135
798	-0.138
799	-0.139
799	-0.138
800	-0.138
800	-0.139
801	-0.142
801	-0.143
801	-0.142
802	-0.143
802	-0.144
803	-0.145
803	-0.145
804	-0.144
804	-0.139
804	-0.132
805	-0.129
805	-0.127
806	-0.125
806	-0.124
807	-0.124
807	-0.124
807	-0.124
808	-0.124
808	-0.126
809	-0.13
809	-0.136
810	-0.14
810	-0.143
810	-0.146
811	-0.149
811	-0.15
812	-0.146
812	-0.142
813	-0.142
813	-0.143
813	-0.145
814	-0.146
814	-0.146
815	-0.144
815	-0.141
816	-0.14
816	-0.14
817	-0.145
817	-0.149
817	-0.149
818	-0.149
818	-0.145
819	-0.14
819	-0.137
820	-0.135
820	-0.133
820	-0.129
821	-0.124
821	-0.117
822	-0.11
822	-0.102
823	-0.094
823	-0.088
823	-0.083
824	-0.077
824	-0.07
825	-0.063
825	-0.056
826	-0.049
826	-0.044
826	-0.04
827	-0.035
827	-0.031
828	-0.028
828	-0.025
829	-0.022
829	-0.02
829	-0.019
830	-0.018
830	-0.017
831	-0.015
831	-0.013
832	-0.012
832	-0.011
832	-0.01
833	-0.01
833	-0.009
834	-0.009
834	-0.008
835	-0.008
835	-0.007
835	-0.007
836	-0.006
836	-0.005
837	-0.004
837	-0.003
838	-0.002
838	-0.001
839	0.001
839	0.001
839	0.001
840	0.002
840	0.002
841	0.002
841	0.002
842	0.003
842	0.003
842	0.003
843	0.003
843	0.003
844	0.004
844	0.004
845	0.005
845	0.005
845	0.006
846	0.006
846	0.006
847	0.006
847	0.007
848	0.008
848	0.009
848	0.01
849	0.011
849	0.012
850	0.012
850	0.013
851	0.013
851	0.014
851	0.014
852	0.014
852	0.014
853	0.014
853	0.013
854	0.013
854	0.013
854	0.013
855	0.013
855	0.013
856	0.012
856	0.012
857	0.012
857	0.012
857	0.012
858	0.012
858	0.012
859	0.012
859	0.012
860	0.012
860	0.012
860	0.013
861	0.013
861	0.014
862	0.014
862	0.014
863	0.015
863	0.015
863	0.016
864	0.016
864	0.017
865	0.017
865	0.018
866	0.018
866	0.018
866	0.019
867	0.02
867	0.02
868	0.021
868	0.021
869	0.022
869	0.022
869	0.021
870	0.021
870	0.021
871	0.02
871	0.02
872	0.019
872	0.018
872	0.018
873	0.017
873	0.017
874	0.016
874	0.015
875	0.014
875	0.014
875	0.013
876	0.012
876	0.011
877	0.011
877	0.01
878	0.009
878	0.009
878	0.009
879	0.008
879	0.008
880	0.008
880	0.008
881	0.008
881	0.008
881	0.009
882	0.009
882	0.009
883	0.009
883	0.009
884	0.009
884	0.009
884	0.009
885	0.009
885	0.009
886	0.009
886	0.009
887	0.008
887	0.008
887	0.009
888	0.009
888	0.009
889	0.01
889	0.01
890	0.011
890	0.011
890	0.012
891	0.012
891	0.012
892	0.013
892	0.013
893	0.013
893	0.014
893	0.014
894	0.014
894	0.014
895	0.013
895	0.013
895	0.013
896	0.012
896	0.012
897	0.012
897	0.011
898	0.011
898	0.011
898	0.012
899	0.012
899	0.012
900	0.012
900	0.013
901	0.013
901	0.013
901	0.013
902	0.013
902	0.014
903	0.013
903	0.014
904	0.014
904	0.014
904	0.014
905	0.014
905	0.015
906	0.015
906	0.015
907	0.015
907	0.015
907	0.015
908	0.015
908	0.015
909	0.016
909	0.016
910	0.016
910	0.017
910	0.017
911	0.017
911	0.017
912	0.017
912	0.017
913	0.017
913	0.017
913	0.017
914	0.016
914	0.016
915	0.016
915	0.016
916	0.015
916	0.015
916	0.014
917	0.012
917	0.011
918	0.01
918	0.009
918	0.008
919	0.006
919	0.005
920	0.005
920	0.004
921	0.004
921	0.004
921	0.004
922	0.004
922	0.004
923	0.004
923	0.004
924	0.004
924	0.004
924	0.004
925	0.004
925	0.004
926	0.004
926	0.004
927	0.004
927	0.004
927	0.004
928	0.004
928	0.005
929	0.005
929	0.005
930	0.006
930	0.006
930	0.006
931	0.006
931	0.006
932	0.006
932	0.006
933	0.006
933	0.005
933	0.005
934	0.005
934	0.004
935	0.004
935	0.004
935	0.004
936	0.004
936	0.004
937	0.004
937	0.004
938	0.004
938	0.005
938	0.005
939	0.006
939	0.007
940	0.009
940	0.01
941	0.012
941	0.013
941	0.015
942	0.016
942	0.018
943	0.019
943	0.02
944	0.021
944	0.021
944	0.022
945	0.023
945	0.023
946	0.023
946	0.023
946	0.024
947	0.024
947	0.024
948	0.025
948	0.025
949	0.025
949	0.025
949	0.025
950	0.025
950	0.026
951	0.026
951	0.025
952	0.025
952	0.024
952	0.023
953	0.023
953	0.022
954	0.021
954	0.02
955	0.019
955	0.019
955	0.019
956	0.019
956	0.019
957	0.02
957	0.02
957	0.02
958	0.021
958	0.021
959	0.022
959	0.022
960	0.022
960	0.022
960	0.022
961	0.022
961	0.022
962	0.022
962	0.022
963	0.022
963	0.022
963	0.022
964	0.022
964	0.022
965	0.022
965	0.022
966	0.022
966	0.021
966	0.021
967	0.02
967	0.019
968	0.019
968	0.018
968	0.017
969	0.017
969	0.017
970	0.016
970	0.016
971	0.016
971	0.016
971	0.016
972	0.017
972	0.017
973	0.017
973	0.017
974	0.018
974	0.018
974	0.018
975	0.019
975	0.02
976	0.02
976	0.021
976	0.022
977	0.022
977	0.023
978	0.023
978	0.023
979	0.023
979	0.023
979	0.022
980	0.022
980	0.021
981	0.02
981	0.019
982	0.018
982	0.017
982	0.016
983	0.015
983	0.014
984	0.013
984	0.012
984	0.011
985	0.01
985	0.009
986	0.008
986	0.007
987	0.006
987	0.006
987	0.005
988	0.005
988	0.004
989	0.004
989	0.004
990	0.004
990	0.004
990	0.005
991	0.005
991	0.006
992	0.007
992	0.008
992	0.008
993	0.009
993	0.01
994	0.01
994	0.011
995	0.011
995	0.011
995	0.011
996	0.011
996	0.01
997	0.01
997	0.009
997	0.009
998	0.008
998	0.008
999	0.008
999	0.008
1000	0.009
1000	0.009
1000	0.01
1001	0.011
1001	0.012
1002	0.013
1002	0.014
1003	0.015
1003	0.016
1003	0.016
1004	0.017
1004	0.017
1005	0.018
1005	0.018
1005	0.018
1006	0.018
1006	0.017
1007	0.017
1007	0.017
1008	0.017
1008	0.017
1008	0.017
1009	0.017
1009	0.017
1010	0.018
1010	0.018
1010	0.018
1011	0.018
1011	0.018
1012	0.018
1012	0.017
1013	0.017
1013	0.016
1013	0.015
1014	0.014
1014	0.013
1015	0.011
1015	0.01
1016	0.009
1016	0.007
1016	0.006
1017	0.005
1017	0.004
1018	0.004
1018	0.003
1018	0.003
1019	0.003
1019	0.003
1020	0.003
1020	0.003
1021	0.003
1021	0.003
1021	0.003
1022	0.004
1022	0.004
1023	0.004
1023	0.004
1023	0.004
1024	0.004
1024	0.004
1025	0.004
1025	0.004
1026	0.003
1026	0.003
1026	0.003
1027	0.003
1027	0.003
1028	0.003
1028	0.004
1028	0.004
1029	0.004
1029	0.004
1030	0.005
1030	0.005
1031	0.005
1031	0.006
1031	0.006
1032	0.006
1032	0.006
1033	0.006
1033	0.006
1033	0.007
1034	0.007
1034	0.007
1035	0.007
1035	0.007
1036	0.008
1036	0.008
1036	0.009
1037	0.009
1037	0.01
1038	0.01
1038	0.011
1039	0.012
1039	0.012
1039	0.013
1040	0.014
1040	0.015
1041	0.015
1041	0.016
1041	0.017
1042	0.018
1042	0.018
1043	0.019
1043	0.02
1044	0.021
1044	0.022
1044	0.023
1045	0.024
1045	0.025
1046	0.025
1046	0.025
1046	0.026
1047	0.026
1047	0.027
1048	0.027
1048	0.027
1049	0.026
1049	0.026
1049	0.025
1050	0.025
1050	0.024
1051	0.024
1051	0.024
1051	0.023
1052	0.022
1052	0.022
1053	0.021
1053	0.021
1053	0.02
1054	0.02
1054	0.02
1055	0.02
1055	0.02
1056	0.019
1056	0.018
1056	0.018
1057	0.017
1057	0.017
1058	0.017
1058	0.016
1058	0.017
1059	0.016
1059	0.016
1060	0.016
1060	0.016
1061	0.016
1061	0.016
1061	0.016
1062	0.016
1062	0.016
1063	0.015
1063	0.015
1063	0.015
1064	0.015
1064	0.015
1065	0.015
1065	0.015
1066	0.016
1066	0.016
1066	0.017
1067	0.017
1067	0.018
1068	0.019
1068	0.019
1068	0.019
1069	0.019
1069	0.019
1070	0.018
1070	0.018
1071	0.017
1071	0.017
1071	0.017
1072	0.016
1072	0.016
1073	0.015
1073	0.015
1073	0.015
1074	0.015
1074	0.015
1075	0.015
1075	0.015
1076	0.014
1076	0.014
1076	0.014
1077	0.015
1077	0.016
1078	0.016
1078	0.016
1078	0.017
1079	0.018
1079	0.019
1080	0.02
1080	0.021
1080	0.022
1081	0.024
1081	0.025
1082	0.026
1082	0.027
1083	0.028
1083	0.029
1083	0.031
1084	0.032
1084	0.034
1085	0.036
1085	0.037
1085	0.039
1086	0.041
1086	0.042
1087	0.044
1087	0.047
1088	0.048
1088	0.049
1088	0.051
1089	0.052
1089	0.054
1090	0.056
1090	0.058
1090	0.059
1091	0.061
1091	0.064
1092	0.066
1092	0.069
1092	0.073
1093	0.075
1093	0.079
1094	0.082
1094	0.085
1095	0.088
1095	0.092
1095	0.098
1096	0.103
1096	0.108
1097	0.114
1097	0.12
1097	0.127
1098	0.134
1098	0.141
1099	0.149
1099	0.159
1100	0.168
1100	0.178
1100	0.188
1101	0.199
1101	0.21
1102	0.224
1102	0.238
1102	0.254
1103	0.273
1103	0.294
1104	0.317
1104	0.343
1104	0.373
1105	0.407
1105	0.442
1106	0.479
1106	0.526
1107	0.59
1107	0.686
1107	0.824
1108	-0
1108	-0
1109	-0
1109	-0
1109	-0
1110	-0
1110	-0
1111	-0
1111	-0
