Data from 17c-2-2a_Absorbance__1382__03818.txt Node

Date: Fri Jan 26 15:10:57 CET 2024
User: Marek
Spectrometer: MAYP115816
Trigger mode: 0
Integration Time (sec): 2.000000E-1
Scans to average: 10
Electric dark correction enabled: true
Nonlinearity correction enabled: true
Boxcar width: 5
XAxis mode: Wavelengths
Number of Pixels in Spectrum: 2068
>>>>>Begin Spectral Data<<<<<
199	-1.831
199	-1.685
200	-1.532
200	-1.415
201	-1.342
201	-1.296
202	-1.225
202	-1.167
203	-1.118
203	-1.076
204	-1.049
204	-1.025
205	-1.003
205	-0.993
205	-0.99
206	-0.985
206	-0.981
207	-0.977
207	-0.976
208	-0.975
208	-0.972
209	-0.969
209	-0.965
210	-0.965
210	-0.965
211	-0.966
211	-0.967
212	-0.967
212	-0.966
213	-0.963
213	-0.96
213	-0.96
214	-0.957
214	-0.955
215	-0.95
215	-0.947
216	-0.943
216	-0.941
217	-0.938
217	-0.936
218	-0.932
218	-0.931
219	-0.927
219	-0.925
220	-0.924
220	-0.924
221	-0.921
221	-0.92
221	-0.916
222	-0.91
222	-0.906
223	-0.902
223	-0.898
224	-0.892
224	-0.885
225	-0.878
225	-0.869
226	-0.861
226	-0.849
227	-0.838
227	-0.825
228	-0.809
228	-0.791
229	-0.77
229	-0.747
229	-0.722
230	-0.692
230	-0.661
231	-0.628
231	-0.591
232	-0.552
232	-0.51
233	-0.466
233	-0.421
234	-0.376
234	-0.332
235	-0.286
235	-0.243
236	-0.199
236	-0.157
236	-0.117
237	-0.078
237	-0.042
238	-0.009
238	0.022
239	0.052
239	0.079
240	0.104
240	0.127
241	0.148
241	0.168
242	0.185
242	0.201
243	0.215
243	0.228
243	0.241
244	0.251
244	0.261
245	0.27
245	0.279
246	0.287
246	0.294
247	0.3
247	0.307
248	0.312
248	0.318
249	0.323
249	0.328
250	0.333
250	0.337
250	0.341
251	0.345
251	0.349
252	0.353
252	0.356
253	0.359
253	0.362
254	0.364
254	0.367
255	0.369
255	0.371
256	0.373
256	0.375
257	0.377
257	0.378
258	0.379
258	0.381
258	0.382
259	0.383
259	0.383
260	0.384
260	0.384
261	0.385
261	0.385
262	0.385
262	0.385
263	0.385
263	0.386
264	0.385
264	0.385
265	0.385
265	0.385
265	0.384
266	0.383
266	0.383
267	0.382
267	0.381
268	0.38
268	0.378
269	0.377
269	0.376
270	0.374
270	0.373
271	0.371
271	0.37
272	0.368
272	0.367
272	0.365
273	0.364
273	0.362
274	0.36
274	0.358
275	0.357
275	0.355
276	0.353
276	0.351
277	0.349
277	0.347
278	0.344
278	0.342
278	0.339
279	0.337
279	0.335
280	0.333
280	0.33
281	0.329
281	0.327
282	0.325
282	0.323
283	0.322
283	0.32
284	0.319
284	0.317
285	0.316
285	0.314
285	0.312
286	0.311
286	0.309
287	0.308
287	0.306
288	0.305
288	0.303
289	0.302
289	0.3
290	0.299
290	0.297
291	0.296
291	0.295
292	0.293
292	0.292
292	0.291
293	0.29
293	0.288
294	0.287
294	0.286
295	0.285
295	0.284
296	0.283
296	0.282
297	0.281
297	0.28
298	0.28
298	0.279
298	0.278
299	0.278
299	0.277
300	0.276
300	0.275
301	0.274
301	0.273
302	0.273
302	0.272
303	0.271
303	0.27
304	0.27
304	0.269
305	0.268
305	0.267
305	0.267
306	0.266
306	0.265
307	0.264
307	0.263
308	0.262
308	0.262
309	0.261
309	0.26
310	0.259
310	0.259
311	0.258
311	0.257
311	0.257
312	0.256
312	0.255
313	0.255
313	0.254
314	0.253
314	0.253
315	0.252
315	0.251
316	0.25
316	0.249
317	0.249
317	0.248
318	0.247
318	0.246
318	0.245
319	0.245
319	0.244
320	0.243
320	0.243
321	0.242
321	0.241
322	0.24
322	0.239
323	0.238
323	0.238
324	0.237
324	0.236
324	0.235
325	0.235
325	0.234
326	0.233
326	0.233
327	0.232
327	0.231
328	0.23
328	0.23
329	0.229
329	0.228
330	0.228
330	0.227
330	0.226
331	0.226
331	0.225
332	0.224
332	0.224
333	0.223
333	0.223
334	0.222
334	0.222
335	0.221
335	0.22
336	0.22
336	0.219
336	0.218
337	0.218
337	0.217
338	0.217
338	0.216
339	0.215
339	0.215
340	0.214
340	0.214
341	0.213
341	0.213
342	0.212
342	0.212
342	0.211
343	0.211
343	0.21
344	0.21
344	0.209
345	0.209
345	0.208
346	0.208
346	0.207
347	0.207
347	0.206
348	0.206
348	0.205
348	0.205
349	0.204
349	0.204
350	0.203
350	0.203
351	0.202
351	0.202
352	0.201
352	0.201
353	0.201
353	0.2
354	0.2
354	0.199
354	0.198
355	0.198
355	0.197
356	0.197
356	0.196
357	0.196
357	0.196
358	0.195
358	0.196
359	0.196
359	0.196
360	0.196
360	0.197
360	0.197
361	0.197
361	0.197
362	0.197
362	0.197
363	0.197
363	0.197
364	0.196
364	0.196
365	0.196
365	0.196
366	0.196
366	0.196
366	0.196
367	0.195
367	0.195
368	0.195
368	0.194
369	0.194
369	0.194
370	0.194
370	0.193
371	0.193
371	0.192
372	0.192
372	0.192
372	0.191
373	0.191
373	0.191
374	0.191
374	0.191
375	0.191
375	0.191
376	0.191
376	0.191
377	0.191
377	0.192
378	0.192
378	0.192
378	0.192
379	0.192
379	0.191
380	0.191
380	0.191
381	0.191
381	0.19
382	0.19
382	0.19
383	0.189
383	0.189
383	0.188
384	0.188
384	0.188
385	0.188
385	0.187
386	0.187
386	0.187
387	0.187
387	0.187
388	0.187
388	0.187
389	0.186
389	0.186
389	0.186
390	0.186
390	0.186
391	0.186
391	0.186
392	0.186
392	0.186
393	0.186
393	0.186
394	0.186
394	0.186
394	0.185
395	0.185
395	0.185
396	0.184
396	0.184
397	0.184
397	0.184
398	0.183
398	0.183
399	0.183
399	0.183
400	0.183
400	0.182
400	0.182
401	0.181
401	0.181
402	0.18
402	0.18
403	0.179
403	0.179
404	0.179
404	0.179
405	0.179
405	0.179
405	0.178
406	0.178
406	0.178
407	0.178
407	0.178
408	0.177
408	0.177
409	0.177
409	0.176
410	0.176
410	0.176
411	0.176
411	0.176
411	0.176
412	0.176
412	0.176
413	0.175
413	0.175
414	0.175
414	0.175
415	0.174
415	0.174
416	0.173
416	0.173
416	0.173
417	0.172
417	0.172
418	0.172
418	0.172
419	0.172
419	0.173
420	0.173
420	0.174
421	0.174
421	0.174
421	0.174
422	0.175
422	0.175
423	0.175
423	0.174
424	0.174
424	0.173
425	0.173
425	0.172
426	0.172
426	0.171
427	0.171
427	0.171
427	0.171
428	0.171
428	0.172
429	0.172
429	0.172
430	0.172
430	0.172
431	0.172
431	0.172
432	0.171
432	0.171
432	0.17
433	0.169
433	0.169
434	0.169
434	0.168
435	0.168
435	0.168
436	0.168
436	0.168
437	0.168
437	0.168
437	0.168
438	0.168
438	0.168
439	0.168
439	0.167
440	0.167
440	0.167
441	0.167
441	0.167
442	0.167
442	0.167
442	0.167
443	0.167
443	0.167
444	0.167
444	0.168
445	0.168
445	0.168
446	0.168
446	0.167
447	0.167
447	0.167
447	0.167
448	0.167
448	0.167
449	0.166
449	0.166
450	0.166
450	0.166
451	0.166
451	0.166
452	0.166
452	0.166
452	0.165
453	0.165
453	0.164
454	0.164
454	0.164
455	0.163
455	0.163
456	0.163
456	0.163
457	0.163
457	0.163
458	0.163
458	0.163
458	0.164
459	0.164
459	0.164
460	0.163
460	0.163
461	0.163
461	0.163
462	0.163
462	0.163
463	0.163
463	0.163
463	0.164
464	0.164
464	0.164
465	0.164
465	0.165
466	0.165
466	0.165
467	0.165
467	0.165
467	0.164
468	0.163
468	0.162
469	0.161
469	0.161
470	0.16
470	0.16
471	0.16
471	0.16
472	0.16
472	0.16
472	0.161
473	0.162
473	0.162
474	0.163
474	0.164
475	0.164
475	0.165
476	0.165
476	0.166
477	0.166
477	0.166
477	0.167
478	0.167
478	0.168
479	0.168
479	0.169
480	0.17
480	0.17
481	0.171
481	0.172
482	0.172
482	0.174
482	0.175
483	0.177
483	0.179
484	0.181
484	0.182
485	0.184
485	0.185
486	0.186
486	0.187
487	0.187
487	0.188
487	0.188
488	0.188
488	0.187
489	0.187
489	0.187
490	0.186
490	0.186
491	0.187
491	0.188
492	0.189
492	0.19
492	0.191
493	0.192
493	0.193
494	0.195
494	0.197
495	0.199
495	0.2
496	0.201
496	0.202
496	0.204
497	0.205
497	0.206
498	0.207
498	0.208
499	0.209
499	0.209
500	0.211
500	0.212
501	0.214
501	0.216
501	0.217
502	0.219
502	0.22
503	0.222
503	0.224
504	0.225
504	0.226
505	0.227
505	0.228
506	0.229
506	0.23
506	0.23
507	0.231
507	0.231
508	0.232
508	0.233
509	0.235
509	0.236
510	0.237
510	0.238
511	0.238
511	0.239
511	0.239
512	0.241
512	0.241
513	0.241
513	0.241
514	0.241
514	0.241
515	0.241
515	0.241
515	0.241
516	0.242
516	0.242
517	0.243
517	0.244
518	0.244
518	0.244
519	0.243
519	0.243
520	0.241
520	0.24
520	0.239
521	0.237
521	0.235
522	0.233
522	0.232
523	0.231
523	0.232
524	0.232
524	0.234
524	0.235
525	0.237
525	0.238
526	0.24
526	0.241
527	0.243
527	0.244
528	0.245
528	0.246
529	0.246
529	0.245
529	0.245
530	0.245
530	0.244
531	0.244
531	0.243
532	0.242
532	0.242
533	0.241
533	0.24
533	0.239
534	0.238
534	0.237
535	0.236
535	0.235
536	0.234
536	0.232
537	0.231
537	0.23
538	0.229
538	0.227
538	0.225
539	0.225
539	0.223
540	0.222
540	0.22
541	0.218
541	0.216
542	0.214
542	0.212
542	0.21
543	0.208
543	0.207
544	0.204
544	0.203
545	0.201
545	0.2
546	0.199
546	0.197
547	0.196
547	0.193
547	0.191
548	0.19
548	0.188
549	0.186
549	0.184
550	0.183
550	0.18
551	0.178
551	0.176
551	0.174
552	0.173
552	0.172
553	0.17
553	0.169
554	0.168
554	0.165
555	0.163
555	0.161
556	0.158
556	0.155
556	0.152
557	0.149
557	0.147
558	0.144
558	0.142
559	0.14
559	0.138
560	0.137
560	0.135
560	0.134
561	0.134
561	0.133
562	0.133
562	0.131
563	0.129
563	0.127
564	0.125
564	0.123
564	0.121
565	0.119
565	0.118
566	0.116
566	0.114
567	0.113
567	0.112
568	0.112
568	0.112
568	0.113
569	0.113
569	0.114
570	0.114
570	0.114
571	0.114
571	0.114
572	0.113
572	0.113
573	0.112
573	0.111
573	0.11
574	0.109
574	0.108
575	0.107
575	0.108
576	0.108
576	0.106
577	0.105
577	0.104
577	0.103
578	0.102
578	0.101
579	0.102
579	0.102
580	0.101
580	0.099
581	0.096
581	0.095
581	0.094
582	0.093
582	0.093
583	0.093
583	0.091
584	0.089
584	0.085
585	0.084
585	0.083
585	0.083
586	0.083
586	0.082
587	0.08
587	0.078
588	0.076
588	0.075
589	0.074
589	0.073
590	0.072
590	0.071
590	0.072
591	0.072
591	0.072
592	0.072
592	0.071
593	0.072
593	0.072
594	0.071
594	0.07
594	0.069
595	0.069
595	0.068
596	0.067
596	0.067
597	0.068
597	0.069
598	0.069
598	0.07
598	0.07
599	0.07
599	0.07
600	0.069
600	0.068
601	0.068
601	0.067
602	0.065
602	0.065
602	0.064
603	0.063
603	0.064
604	0.064
604	0.064
605	0.065
605	0.066
606	0.066
606	0.066
606	0.065
607	0.065
607	0.065
608	0.064
608	0.063
609	0.062
609	0.061
610	0.06
610	0.059
610	0.059
611	0.06
611	0.06
612	0.061
612	0.062
613	0.064
613	0.065
614	0.066
614	0.066
614	0.066
615	0.066
615	0.066
616	0.066
616	0.066
617	0.066
617	0.065
618	0.064
618	0.064
618	0.063
619	0.063
619	0.063
620	0.064
620	0.065
621	0.065
621	0.065
622	0.065
622	0.066
622	0.066
623	0.066
623	0.067
624	0.067
624	0.067
625	0.067
625	0.068
626	0.068
626	0.068
626	0.069
627	0.07
627	0.07
628	0.071
628	0.072
629	0.072
629	0.072
630	0.072
630	0.072
630	0.072
631	0.072
631	0.072
632	0.072
632	0.073
633	0.073
633	0.074
634	0.075
634	0.077
634	0.079
635	0.08
635	0.081
636	0.082
636	0.083
637	0.084
637	0.085
638	0.086
638	0.088
638	0.089
639	0.089
639	0.09
640	0.091
640	0.092
641	0.093
641	0.095
642	0.096
642	0.098
642	0.1
643	0.102
643	0.103
644	0.105
644	0.107
645	0.109
645	0.111
646	0.114
646	0.117
646	0.12
647	0.124
647	0.127
648	0.129
648	0.132
649	0.135
649	0.138
650	0.141
650	0.144
650	0.146
651	0.149
651	0.151
652	0.152
652	0.154
653	0.157
653	0.164
653	0.172
654	0.139
654	0.114
655	0.117
655	0.119
656	0.12
656	0.122
657	0.124
657	0.126
657	0.127
658	0.125
658	0.118
659	0.148
659	0.189
660	0.194
660	0.196
661	0.198
661	0.2
661	0.203
662	0.206
662	0.209
663	0.212
663	0.214
664	0.217
664	0.22
665	0.222
665	0.225
665	0.228
666	0.23
666	0.233
667	0.235
667	0.237
668	0.24
668	0.243
669	0.245
669	0.248
669	0.252
670	0.256
670	0.258
671	0.261
671	0.262
672	0.264
672	0.266
672	0.267
673	0.268
673	0.27
674	0.271
674	0.272
675	0.273
675	0.274
676	0.277
676	0.279
676	0.281
677	0.283
677	0.285
678	0.287
678	0.288
679	0.289
679	0.29
680	0.293
680	0.294
680	0.295
681	0.296
681	0.297
682	0.298
682	0.299
683	0.301
683	0.304
684	0.305
684	0.306
684	0.306
685	0.306
685	0.306
686	0.306
686	0.306
687	0.305
687	0.304
687	0.303
688	0.302
688	0.301
689	0.301
689	0.302
690	0.302
690	0.303
691	0.303
691	0.303
691	0.304
692	0.304
692	0.303
693	0.303
693	0.303
694	0.302
694	0.301
695	0.3
695	0.301
695	0.301
696	0.3
696	0.299
697	0.298
697	0.296
698	0.295
698	0.293
698	0.291
699	0.29
699	0.287
700	0.284
700	0.282
701	0.281
701	0.279
702	0.277
702	0.276
702	0.274
703	0.272
703	0.27
704	0.268
704	0.267
705	0.266
705	0.264
705	0.262
706	0.261
706	0.259
707	0.258
707	0.256
708	0.254
708	0.252
709	0.251
709	0.249
709	0.246
710	0.243
710	0.241
711	0.239
711	0.237
712	0.235
712	0.234
713	0.232
713	0.23
713	0.228
714	0.225
714	0.222
715	0.219
715	0.216
716	0.213
716	0.21
716	0.206
717	0.203
717	0.2
718	0.197
718	0.194
719	0.192
719	0.19
720	0.188
720	0.186
720	0.184
721	0.181
721	0.179
722	0.177
722	0.174
723	0.172
723	0.17
723	0.167
724	0.165
724	0.163
725	0.161
725	0.159
726	0.157
726	0.156
727	0.154
727	0.153
727	0.152
728	0.15
728	0.148
729	0.147
729	0.146
730	0.144
730	0.142
730	0.14
731	0.138
731	0.136
732	0.134
732	0.133
733	0.131
733	0.129
734	0.127
734	0.125
734	0.124
735	0.123
735	0.121
736	0.12
736	0.118
737	0.117
737	0.116
737	0.114
738	0.112
738	0.11
739	0.107
739	0.105
740	0.103
740	0.101
741	0.099
741	0.097
741	0.094
742	0.09
742	0.087
743	0.085
743	0.083
744	0.081
744	0.079
744	0.076
745	0.074
745	0.072
746	0.071
746	0.07
747	0.069
747	0.069
748	0.069
748	0.068
748	0.068
749	0.067
749	0.067
750	0.067
750	0.066
751	0.066
751	0.065
751	0.065
752	0.064
752	0.063
753	0.062
753	0.061
754	0.061
754	0.059
754	0.059
755	0.059
755	0.059
756	0.059
756	0.057
757	0.056
757	0.056
758	0.055
758	0.054
758	0.054
759	0.053
759	0.051
760	0.048
760	0.046
761	0.044
761	0.042
761	0.04
762	0.038
762	0.037
763	0.036
763	0.033
764	0.031
764	0.029
764	0.027
765	0.025
765	0.023
766	0.022
766	0.022
767	0.021
767	0.019
768	0.016
768	0.015
768	0.014
769	0.013
769	0.013
770	0.011
770	0.01
771	0.008
771	0.005
771	0.003
772	0
772	-0.002
773	-0.004
773	-0.007
774	-0.01
774	-0.013
775	-0.015
775	-0.017
775	-0.02
776	-0.022
776	-0.023
777	-0.025
777	-0.026
778	-0.028
778	-0.031
778	-0.034
779	-0.036
779	-0.038
780	-0.041
780	-0.044
781	-0.048
781	-0.053
781	-0.058
782	-0.065
782	-0.072
783	-0.079
783	-0.086
784	-0.092
784	-0.098
784	-0.103
785	-0.11
785	-0.115
786	-0.119
786	-0.118
787	-0.115
787	-0.113
788	-0.112
788	-0.113
788	-0.114
789	-0.116
789	-0.116
790	-0.113
790	-0.112
791	-0.113
791	-0.115
791	-0.118
792	-0.113
792	-0.102
793	-0.096
793	-0.092
794	-0.091
794	-0.093
794	-0.097
795	-0.1
795	-0.1
796	-0.1
796	-0.103
797	-0.112
797	-0.123
797	-0.13
798	-0.135
798	-0.138
799	-0.139
799	-0.138
800	-0.138
800	-0.139
801	-0.142
801	-0.143
801	-0.142
802	-0.144
802	-0.144
803	-0.145
803	-0.145
804	-0.144
804	-0.139
804	-0.133
805	-0.129
805	-0.127
806	-0.125
806	-0.124
807	-0.124
807	-0.124
807	-0.124
808	-0.125
808	-0.126
809	-0.131
809	-0.136
810	-0.14
810	-0.143
810	-0.146
811	-0.149
811	-0.15
812	-0.146
812	-0.142
813	-0.142
813	-0.143
813	-0.145
814	-0.146
814	-0.146
815	-0.144
815	-0.141
816	-0.14
816	-0.14
817	-0.145
817	-0.149
817	-0.149
818	-0.149
818	-0.145
819	-0.14
819	-0.136
820	-0.134
820	-0.132
820	-0.129
821	-0.123
821	-0.117
822	-0.109
822	-0.101
823	-0.093
823	-0.087
823	-0.083
824	-0.077
824	-0.07
825	-0.063
825	-0.056
826	-0.05
826	-0.045
826	-0.041
827	-0.036
827	-0.033
828	-0.029
828	-0.026
829	-0.023
829	-0.021
829	-0.019
830	-0.018
830	-0.017
831	-0.015
831	-0.013
832	-0.012
832	-0.011
832	-0.01
833	-0.009
833	-0.008
834	-0.008
834	-0.007
835	-0.007
835	-0.006
835	-0.006
836	-0.005
836	-0.004
837	-0.003
837	-0.001
838	-0
838	0.001
839	0.002
839	0.002
839	0.003
840	0.003
840	0.003
841	0.003
841	0.003
842	0.003
842	0.003
842	0.003
843	0.003
843	0.003
844	0.004
844	0.004
845	0.005
845	0.005
845	0.006
846	0.006
846	0.006
847	0.007
847	0.007
848	0.008
848	0.009
848	0.009
849	0.01
849	0.011
850	0.011
850	0.012
851	0.012
851	0.013
851	0.013
852	0.013
852	0.013
853	0.013
853	0.013
854	0.013
854	0.013
854	0.013
855	0.013
855	0.013
856	0.013
856	0.013
857	0.012
857	0.012
857	0.012
858	0.012
858	0.012
859	0.011
859	0.012
860	0.012
860	0.012
860	0.012
861	0.013
861	0.014
862	0.014
862	0.014
863	0.015
863	0.015
863	0.016
864	0.016
864	0.017
865	0.017
865	0.018
866	0.018
866	0.019
866	0.02
867	0.02
867	0.021
868	0.022
868	0.022
869	0.023
869	0.022
869	0.022
870	0.022
870	0.021
871	0.021
871	0.02
872	0.019
872	0.018
872	0.018
873	0.017
873	0.016
874	0.015
874	0.014
875	0.014
875	0.013
875	0.012
876	0.011
876	0.011
877	0.01
877	0.009
878	0.009
878	0.008
878	0.008
879	0.008
879	0.007
880	0.007
880	0.007
881	0.008
881	0.008
881	0.008
882	0.009
882	0.009
883	0.009
883	0.009
884	0.009
884	0.009
884	0.009
885	0.008
885	0.008
886	0.008
886	0.008
887	0.008
887	0.008
887	0.008
888	0.008
888	0.009
889	0.009
889	0.01
890	0.01
890	0.011
890	0.011
891	0.011
891	0.011
892	0.012
892	0.013
893	0.013
893	0.013
893	0.014
894	0.014
894	0.014
895	0.013
895	0.013
895	0.013
896	0.012
896	0.012
897	0.012
897	0.011
898	0.011
898	0.012
898	0.012
899	0.012
899	0.013
900	0.013
900	0.013
901	0.014
901	0.014
901	0.014
902	0.015
902	0.015
903	0.015
903	0.015
904	0.015
904	0.015
904	0.015
905	0.015
905	0.015
906	0.015
906	0.015
907	0.015
907	0.014
907	0.014
908	0.014
908	0.014
909	0.014
909	0.014
910	0.015
910	0.015
910	0.015
911	0.015
911	0.016
912	0.016
912	0.017
913	0.017
913	0.017
913	0.017
914	0.017
914	0.017
915	0.016
915	0.016
916	0.016
916	0.015
916	0.014
917	0.013
917	0.012
918	0.01
918	0.009
918	0.008
919	0.007
919	0.006
920	0.005
920	0.004
921	0.004
921	0.004
921	0.004
922	0.004
922	0.005
923	0.005
923	0.005
924	0.005
924	0.005
924	0.005
925	0.005
925	0.005
926	0.005
926	0.005
927	0.005
927	0.005
927	0.005
928	0.005
928	0.005
929	0.005
929	0.005
930	0.005
930	0.005
930	0.005
931	0.005
931	0.006
932	0.006
932	0.006
933	0.006
933	0.005
933	0.005
934	0.005
934	0.005
935	0.005
935	0.004
935	0.004
936	0.004
936	0.004
937	0.004
937	0.004
938	0.004
938	0.004
938	0.005
939	0.006
939	0.007
940	0.008
940	0.009
941	0.011
941	0.012
941	0.014
942	0.015
942	0.017
943	0.018
943	0.019
944	0.02
944	0.02
944	0.021
945	0.021
945	0.022
946	0.022
946	0.022
946	0.023
947	0.023
947	0.024
948	0.024
948	0.025
949	0.025
949	0.025
949	0.026
950	0.026
950	0.026
951	0.026
951	0.026
952	0.025
952	0.025
952	0.024
953	0.023
953	0.022
954	0.021
954	0.02
955	0.019
955	0.019
955	0.019
956	0.019
956	0.019
957	0.02
957	0.02
957	0.021
958	0.021
958	0.022
959	0.023
959	0.023
960	0.023
960	0.023
960	0.022
961	0.022
961	0.022
962	0.022
962	0.022
963	0.022
963	0.021
963	0.021
964	0.021
964	0.021
965	0.021
965	0.021
966	0.021
966	0.02
966	0.02
967	0.019
967	0.018
968	0.018
968	0.017
968	0.017
969	0.016
969	0.016
970	0.016
970	0.016
971	0.016
971	0.016
971	0.017
972	0.017
972	0.017
973	0.017
973	0.017
974	0.018
974	0.018
974	0.018
975	0.019
975	0.019
976	0.02
976	0.021
976	0.022
977	0.022
977	0.023
978	0.023
978	0.023
979	0.023
979	0.023
979	0.022
980	0.021
980	0.021
981	0.02
981	0.019
982	0.018
982	0.017
982	0.016
983	0.015
983	0.013
984	0.012
984	0.011
984	0.01
985	0.009
985	0.008
986	0.007
986	0.006
987	0.006
987	0.005
987	0.005
988	0.004
988	0.004
989	0.004
989	0.004
990	0.004
990	0.004
990	0.005
991	0.006
991	0.007
992	0.008
992	0.008
992	0.009
993	0.01
993	0.011
994	0.011
994	0.011
995	0.011
995	0.012
995	0.011
996	0.011
996	0.01
997	0.01
997	0.009
997	0.008
998	0.008
998	0.008
999	0.008
999	0.008
1000	0.008
1000	0.009
1000	0.009
1001	0.01
1001	0.011
1002	0.012
1002	0.013
1003	0.013
1003	0.014
1003	0.015
1004	0.015
1004	0.015
1005	0.015
1005	0.016
1005	0.015
1006	0.015
1006	0.015
1007	0.015
1007	0.016
1008	0.016
1008	0.016
1008	0.016
1009	0.016
1009	0.016
1010	0.016
1010	0.017
1010	0.017
1011	0.017
1011	0.017
1012	0.016
1012	0.015
1013	0.015
1013	0.014
1013	0.013
1014	0.012
1014	0.01
1015	0.009
1015	0.008
1016	0.006
1016	0.005
1016	0.004
1017	0.003
1017	0.003
1018	0.002
1018	0.002
1018	0.002
1019	0.002
1019	0.002
1020	0.002
1020	0.002
1021	0.002
1021	0.003
1021	0.003
1022	0.003
1022	0.003
1023	0.004
1023	0.004
1023	0.003
1024	0.003
1024	0.003
1025	0.003
1025	0.003
1026	0.002
1026	0.002
1026	0.002
1027	0.002
1027	0.002
1028	0.003
1028	0.003
1028	0.004
1029	0.004
1029	0.004
1030	0.004
1030	0.005
1031	0.005
1031	0.005
1031	0.005
1032	0.006
1032	0.006
1033	0.006
1033	0.006
1033	0.006
1034	0.006
1034	0.006
1035	0.006
1035	0.007
1036	0.007
1036	0.007
1036	0.008
1037	0.008
1037	0.009
1038	0.009
1038	0.01
1039	0.011
1039	0.011
1039	0.012
1040	0.013
1040	0.013
1041	0.014
1041	0.015
1041	0.015
1042	0.016
1042	0.017
1043	0.018
1043	0.019
1044	0.02
1044	0.02
1044	0.021
1045	0.022
1045	0.022
1046	0.023
1046	0.023
1046	0.024
1047	0.024
1047	0.025
1048	0.025
1048	0.025
1049	0.025
1049	0.024
1049	0.024
1050	0.023
1050	0.023
1051	0.022
1051	0.022
1051	0.022
1052	0.021
1052	0.02
1053	0.02
1053	0.02
1053	0.02
1054	0.02
1054	0.019
1055	0.019
1055	0.019
1056	0.019
1056	0.018
1056	0.017
1057	0.017
1057	0.016
1058	0.016
1058	0.015
1058	0.015
1059	0.015
1059	0.015
1060	0.015
1060	0.015
1061	0.015
1061	0.015
1061	0.015
1062	0.015
1062	0.015
1063	0.015
1063	0.014
1063	0.014
1064	0.014
1064	0.014
1065	0.015
1065	0.015
1066	0.015
1066	0.016
1066	0.016
1067	0.017
1067	0.017
1068	0.017
1068	0.017
1068	0.017
1069	0.017
1069	0.016
1070	0.016
1070	0.015
1071	0.015
1071	0.015
1071	0.014
1072	0.014
1072	0.014
1073	0.014
1073	0.014
1073	0.013
1074	0.014
1074	0.014
1075	0.014
1075	0.013
1076	0.013
1076	0.013
1076	0.013
1077	0.013
1077	0.014
1078	0.014
1078	0.015
1078	0.017
1079	0.017
1079	0.018
1080	0.02
1080	0.021
1080	0.022
1081	0.023
1081	0.024
1082	0.025
1082	0.026
1083	0.028
1083	0.028
1083	0.03
1084	0.031
1084	0.033
1085	0.035
1085	0.037
1085	0.039
1086	0.04
1086	0.041
1087	0.043
1087	0.046
1088	0.047
1088	0.048
1088	0.049
1089	0.05
1089	0.052
1090	0.053
1090	0.055
1090	0.056
1091	0.058
1091	0.061
1092	0.063
1092	0.066
1092	0.069
1093	0.071
1093	0.075
1094	0.078
1094	0.081
1095	0.084
1095	0.087
1095	0.092
1096	0.097
1096	0.102
1097	0.107
1097	0.113
1097	0.119
1098	0.126
1098	0.133
1099	0.141
1099	0.151
1100	0.16
1100	0.169
1100	0.179
1101	0.189
1101	0.201
1102	0.214
1102	0.228
1102	0.243
1103	0.26
1103	0.278
1104	0.299
1104	0.325
1104	0.355
1105	0.384
1105	0.419
1106	0.454
1106	0.5
1107	0.557
1107	0.639
1107	0.77
1108	1.756
1108	-0
1109	-0
1109	-0
1109	-0
1110	-0
1110	-0
1111	-0
1111	-0
