Data from 17c-2-2a_Absorbance__1608__04044.txt Node

Date: Fri Jan 26 15:18:29 CET 2024
User: Marek
Spectrometer: MAYP115816
Trigger mode: 0
Integration Time (sec): 2.000000E-1
Scans to average: 10
Electric dark correction enabled: true
Nonlinearity correction enabled: true
Boxcar width: 5
XAxis mode: Wavelengths
Number of Pixels in Spectrum: 2068
>>>>>Begin Spectral Data<<<<<
199	-1.832
199	-1.685
200	-1.531
200	-1.416
201	-1.342
201	-1.296
202	-1.225
202	-1.168
203	-1.12
203	-1.078
204	-1.05
204	-1.026
205	-1.005
205	-0.995
205	-0.992
206	-0.987
206	-0.983
207	-0.979
207	-0.978
208	-0.976
208	-0.974
209	-0.971
209	-0.967
210	-0.968
210	-0.968
211	-0.968
211	-0.968
212	-0.968
212	-0.967
213	-0.965
213	-0.961
213	-0.961
214	-0.959
214	-0.957
215	-0.951
215	-0.948
216	-0.945
216	-0.944
217	-0.94
217	-0.938
218	-0.934
218	-0.933
219	-0.928
219	-0.927
220	-0.925
220	-0.925
221	-0.922
221	-0.921
221	-0.916
222	-0.911
222	-0.907
223	-0.903
223	-0.899
224	-0.894
224	-0.887
225	-0.879
225	-0.871
226	-0.862
226	-0.85
227	-0.839
227	-0.827
228	-0.809
228	-0.792
229	-0.771
229	-0.748
229	-0.723
230	-0.693
230	-0.661
231	-0.628
231	-0.591
232	-0.552
232	-0.51
233	-0.467
233	-0.422
234	-0.376
234	-0.331
235	-0.285
235	-0.241
236	-0.198
236	-0.156
236	-0.115
237	-0.076
237	-0.039
238	-0.005
238	0.026
239	0.056
239	0.083
240	0.109
240	0.132
241	0.153
241	0.173
242	0.191
242	0.207
243	0.222
243	0.235
243	0.248
244	0.259
244	0.269
245	0.278
245	0.287
246	0.295
246	0.302
247	0.309
247	0.316
248	0.322
248	0.327
249	0.332
249	0.338
250	0.342
250	0.347
250	0.351
251	0.355
251	0.359
252	0.362
252	0.366
253	0.369
253	0.372
254	0.374
254	0.377
255	0.379
255	0.382
256	0.383
256	0.385
257	0.387
257	0.389
258	0.39
258	0.391
258	0.392
259	0.394
259	0.394
260	0.395
260	0.396
261	0.396
261	0.397
262	0.397
262	0.397
263	0.397
263	0.397
264	0.397
264	0.397
265	0.397
265	0.396
265	0.396
266	0.395
266	0.394
267	0.393
267	0.392
268	0.391
268	0.39
269	0.388
269	0.387
270	0.385
270	0.384
271	0.382
271	0.38
272	0.379
272	0.377
272	0.376
273	0.374
273	0.372
274	0.37
274	0.369
275	0.367
275	0.365
276	0.363
276	0.361
277	0.359
277	0.357
278	0.355
278	0.353
278	0.35
279	0.348
279	0.346
280	0.343
280	0.341
281	0.339
281	0.338
282	0.336
282	0.334
283	0.332
283	0.331
284	0.33
284	0.328
285	0.327
285	0.325
285	0.323
286	0.321
286	0.32
287	0.318
287	0.317
288	0.315
288	0.313
289	0.312
289	0.31
290	0.309
290	0.307
291	0.306
291	0.305
292	0.304
292	0.302
292	0.301
293	0.3
293	0.299
294	0.297
294	0.296
295	0.295
295	0.294
296	0.293
296	0.292
297	0.291
297	0.29
298	0.289
298	0.288
298	0.287
299	0.287
299	0.286
300	0.285
300	0.284
301	0.283
301	0.282
302	0.282
302	0.281
303	0.28
303	0.279
304	0.279
304	0.278
305	0.277
305	0.277
305	0.276
306	0.275
306	0.274
307	0.274
307	0.273
308	0.272
308	0.271
309	0.27
309	0.27
310	0.269
310	0.268
311	0.267
311	0.267
311	0.266
312	0.265
312	0.264
313	0.264
313	0.263
314	0.262
314	0.261
315	0.26
315	0.259
316	0.258
316	0.258
317	0.257
317	0.256
318	0.255
318	0.254
318	0.254
319	0.253
319	0.252
320	0.251
320	0.251
321	0.25
321	0.249
322	0.248
322	0.247
323	0.246
323	0.246
324	0.245
324	0.244
324	0.243
325	0.242
325	0.242
326	0.241
326	0.24
327	0.239
327	0.239
328	0.238
328	0.238
329	0.237
329	0.236
330	0.236
330	0.235
330	0.234
331	0.234
331	0.233
332	0.232
332	0.232
333	0.231
333	0.231
334	0.23
334	0.229
335	0.228
335	0.228
336	0.227
336	0.227
336	0.226
337	0.225
337	0.225
338	0.224
338	0.223
339	0.223
339	0.222
340	0.222
340	0.221
341	0.221
341	0.22
342	0.22
342	0.219
342	0.218
343	0.218
343	0.217
344	0.217
344	0.216
345	0.216
345	0.215
346	0.215
346	0.214
347	0.214
347	0.213
348	0.213
348	0.213
348	0.212
349	0.212
349	0.211
350	0.211
350	0.21
351	0.21
351	0.209
352	0.209
352	0.208
353	0.208
353	0.207
354	0.207
354	0.206
354	0.206
355	0.205
355	0.204
356	0.204
356	0.203
357	0.203
357	0.203
358	0.203
358	0.203
359	0.203
359	0.203
360	0.204
360	0.204
360	0.204
361	0.204
361	0.204
362	0.204
362	0.204
363	0.204
363	0.204
364	0.204
364	0.203
365	0.203
365	0.203
366	0.203
366	0.203
366	0.203
367	0.202
367	0.202
368	0.201
368	0.201
369	0.2
369	0.2
370	0.2
370	0.2
371	0.199
371	0.199
372	0.198
372	0.198
372	0.198
373	0.198
373	0.198
374	0.198
374	0.198
375	0.197
375	0.197
376	0.197
376	0.197
377	0.198
377	0.198
378	0.198
378	0.198
378	0.198
379	0.198
379	0.197
380	0.197
380	0.197
381	0.197
381	0.197
382	0.196
382	0.196
383	0.196
383	0.195
383	0.195
384	0.195
384	0.195
385	0.194
385	0.194
386	0.194
386	0.194
387	0.194
387	0.194
388	0.193
388	0.193
389	0.193
389	0.193
389	0.193
390	0.193
390	0.193
391	0.193
391	0.193
392	0.193
392	0.193
393	0.193
393	0.193
394	0.193
394	0.192
394	0.192
395	0.192
395	0.191
396	0.191
396	0.191
397	0.191
397	0.191
398	0.19
398	0.19
399	0.19
399	0.19
400	0.189
400	0.189
400	0.189
401	0.188
401	0.188
402	0.187
402	0.186
403	0.186
403	0.186
404	0.186
404	0.185
405	0.185
405	0.185
405	0.185
406	0.184
406	0.184
407	0.184
407	0.184
408	0.184
408	0.183
409	0.183
409	0.183
410	0.183
410	0.183
411	0.183
411	0.183
411	0.183
412	0.182
412	0.182
413	0.182
413	0.182
414	0.181
414	0.181
415	0.18
415	0.18
416	0.18
416	0.179
416	0.179
417	0.178
417	0.178
418	0.178
418	0.178
419	0.178
419	0.179
420	0.179
420	0.18
421	0.18
421	0.18
421	0.18
422	0.18
422	0.181
423	0.181
423	0.181
424	0.18
424	0.18
425	0.179
425	0.179
426	0.178
426	0.178
427	0.178
427	0.177
427	0.177
428	0.177
428	0.178
429	0.178
429	0.178
430	0.178
430	0.178
431	0.178
431	0.178
432	0.177
432	0.177
432	0.176
433	0.176
433	0.175
434	0.175
434	0.175
435	0.175
435	0.175
436	0.174
436	0.175
437	0.174
437	0.174
437	0.174
438	0.174
438	0.174
439	0.173
439	0.173
440	0.172
440	0.172
441	0.172
441	0.172
442	0.172
442	0.172
442	0.173
443	0.173
443	0.173
444	0.173
444	0.174
445	0.174
445	0.174
446	0.174
446	0.174
447	0.174
447	0.174
447	0.174
448	0.173
448	0.173
449	0.173
449	0.173
450	0.173
450	0.173
451	0.172
451	0.172
452	0.172
452	0.172
452	0.171
453	0.171
453	0.17
454	0.17
454	0.17
455	0.169
455	0.169
456	0.169
456	0.169
457	0.169
457	0.169
458	0.169
458	0.169
458	0.169
459	0.17
459	0.17
460	0.169
460	0.169
461	0.169
461	0.169
462	0.169
462	0.169
463	0.169
463	0.169
463	0.17
464	0.17
464	0.17
465	0.17
465	0.171
466	0.171
466	0.171
467	0.171
467	0.17
467	0.17
468	0.169
468	0.168
469	0.168
469	0.167
470	0.167
470	0.166
471	0.166
471	0.166
472	0.166
472	0.167
472	0.167
473	0.168
473	0.169
474	0.17
474	0.171
475	0.172
475	0.173
476	0.173
476	0.174
477	0.174
477	0.174
477	0.175
478	0.175
478	0.175
479	0.175
479	0.176
480	0.176
480	0.177
481	0.178
481	0.179
482	0.18
482	0.181
482	0.182
483	0.184
483	0.186
484	0.189
484	0.19
485	0.192
485	0.193
486	0.194
486	0.195
487	0.195
487	0.196
487	0.196
488	0.196
488	0.196
489	0.195
489	0.195
490	0.195
490	0.195
491	0.195
491	0.196
492	0.197
492	0.198
492	0.199
493	0.2
493	0.201
494	0.203
494	0.205
495	0.207
495	0.208
496	0.21
496	0.211
496	0.212
497	0.214
497	0.215
498	0.216
498	0.217
499	0.218
499	0.219
500	0.22
500	0.221
501	0.223
501	0.224
501	0.225
502	0.226
502	0.228
503	0.23
503	0.231
504	0.232
504	0.234
505	0.235
505	0.236
506	0.237
506	0.238
506	0.239
507	0.24
507	0.241
508	0.242
508	0.243
509	0.244
509	0.246
510	0.247
510	0.248
511	0.248
511	0.249
511	0.25
512	0.251
512	0.251
513	0.251
513	0.251
514	0.251
514	0.251
515	0.251
515	0.251
515	0.251
516	0.251
516	0.252
517	0.253
517	0.253
518	0.253
518	0.253
519	0.253
519	0.252
520	0.25
520	0.249
520	0.248
521	0.247
521	0.245
522	0.243
522	0.243
523	0.242
523	0.243
524	0.243
524	0.245
524	0.246
525	0.248
525	0.249
526	0.251
526	0.252
527	0.253
527	0.254
528	0.255
528	0.256
529	0.256
529	0.255
529	0.255
530	0.254
530	0.254
531	0.254
531	0.253
532	0.252
532	0.252
533	0.251
533	0.25
533	0.25
534	0.249
534	0.247
535	0.246
535	0.245
536	0.244
536	0.242
537	0.241
537	0.239
538	0.238
538	0.236
538	0.235
539	0.234
539	0.233
540	0.231
540	0.229
541	0.228
541	0.226
542	0.224
542	0.222
542	0.221
543	0.219
543	0.217
544	0.215
544	0.213
545	0.211
545	0.21
546	0.208
546	0.207
547	0.205
547	0.203
547	0.2
548	0.198
548	0.196
549	0.194
549	0.193
550	0.191
550	0.189
551	0.186
551	0.184
551	0.182
552	0.18
552	0.178
553	0.177
553	0.176
554	0.174
554	0.172
555	0.169
555	0.167
556	0.164
556	0.161
556	0.158
557	0.155
557	0.153
558	0.151
558	0.148
559	0.146
559	0.145
560	0.143
560	0.142
560	0.141
561	0.14
561	0.139
562	0.138
562	0.136
563	0.134
563	0.132
564	0.13
564	0.127
564	0.125
565	0.123
565	0.121
566	0.119
566	0.118
567	0.116
567	0.116
568	0.116
568	0.116
568	0.116
569	0.117
569	0.118
570	0.118
570	0.117
571	0.117
571	0.117
572	0.117
572	0.117
573	0.116
573	0.115
573	0.113
574	0.112
574	0.111
575	0.11
575	0.111
576	0.111
576	0.109
577	0.108
577	0.106
577	0.105
578	0.104
578	0.104
579	0.104
579	0.104
580	0.103
580	0.101
581	0.098
581	0.097
581	0.096
582	0.095
582	0.095
583	0.095
583	0.094
584	0.091
584	0.088
585	0.087
585	0.087
585	0.086
586	0.086
586	0.085
587	0.084
587	0.082
588	0.08
588	0.078
589	0.077
589	0.077
590	0.076
590	0.076
590	0.076
591	0.077
591	0.076
592	0.076
592	0.075
593	0.075
593	0.074
594	0.073
594	0.072
594	0.071
595	0.07
595	0.068
596	0.067
596	0.067
597	0.068
597	0.069
598	0.069
598	0.07
598	0.07
599	0.071
599	0.071
600	0.07
600	0.07
601	0.069
601	0.068
602	0.067
602	0.067
602	0.066
603	0.066
603	0.067
604	0.068
604	0.068
605	0.07
605	0.071
606	0.071
606	0.07
606	0.07
607	0.07
607	0.069
608	0.069
608	0.068
609	0.066
609	0.066
610	0.065
610	0.063
610	0.063
611	0.063
611	0.064
612	0.064
612	0.065
613	0.066
613	0.067
614	0.067
614	0.067
614	0.067
615	0.067
615	0.067
616	0.067
616	0.067
617	0.067
617	0.066
618	0.065
618	0.065
618	0.065
619	0.065
619	0.065
620	0.066
620	0.067
621	0.067
621	0.067
622	0.067
622	0.068
622	0.068
623	0.068
623	0.069
624	0.069
624	0.069
625	0.069
625	0.07
626	0.07
626	0.071
626	0.072
627	0.073
627	0.074
628	0.075
628	0.075
629	0.076
629	0.076
630	0.076
630	0.076
630	0.076
631	0.077
631	0.076
632	0.076
632	0.076
633	0.076
633	0.077
634	0.078
634	0.079
634	0.081
635	0.082
635	0.083
636	0.085
636	0.086
637	0.087
637	0.089
638	0.09
638	0.092
638	0.093
639	0.094
639	0.095
640	0.097
640	0.098
641	0.099
641	0.1
642	0.102
642	0.103
642	0.105
643	0.106
643	0.107
644	0.108
644	0.11
645	0.112
645	0.114
646	0.116
646	0.119
646	0.123
647	0.126
647	0.129
648	0.132
648	0.135
649	0.138
649	0.141
650	0.144
650	0.147
650	0.15
651	0.153
651	0.155
652	0.157
652	0.159
653	0.161
653	0.169
653	0.176
654	0.142
654	0.116
655	0.12
655	0.122
656	0.124
656	0.126
657	0.128
657	0.13
657	0.132
658	0.13
658	0.124
659	0.155
659	0.199
660	0.205
660	0.207
661	0.209
661	0.211
661	0.214
662	0.217
662	0.219
663	0.222
663	0.224
664	0.227
664	0.229
665	0.231
665	0.233
665	0.236
666	0.238
666	0.24
667	0.242
667	0.245
668	0.248
668	0.25
669	0.253
669	0.256
669	0.259
670	0.263
670	0.266
671	0.268
671	0.27
672	0.272
672	0.274
672	0.276
673	0.278
673	0.28
674	0.281
674	0.283
675	0.284
675	0.286
676	0.289
676	0.291
676	0.293
677	0.296
677	0.298
678	0.3
678	0.301
679	0.302
679	0.304
680	0.306
680	0.307
680	0.308
681	0.308
681	0.309
682	0.31
682	0.311
683	0.312
683	0.313
684	0.314
684	0.315
684	0.314
685	0.314
685	0.314
686	0.314
686	0.314
687	0.313
687	0.312
687	0.311
688	0.311
688	0.31
689	0.31
689	0.311
690	0.312
690	0.313
691	0.313
691	0.314
691	0.314
692	0.314
692	0.314
693	0.314
693	0.314
694	0.314
694	0.312
695	0.312
695	0.312
695	0.311
696	0.31
696	0.308
697	0.307
697	0.305
698	0.304
698	0.301
698	0.299
699	0.297
699	0.295
700	0.291
700	0.289
701	0.288
701	0.286
702	0.285
702	0.283
702	0.281
703	0.279
703	0.278
704	0.276
704	0.274
705	0.273
705	0.272
705	0.27
706	0.268
706	0.267
707	0.265
707	0.263
708	0.261
708	0.26
709	0.258
709	0.256
709	0.253
710	0.251
710	0.248
711	0.246
711	0.244
712	0.242
712	0.24
713	0.238
713	0.237
713	0.235
714	0.232
714	0.23
715	0.227
715	0.225
716	0.222
716	0.22
716	0.217
717	0.214
717	0.211
718	0.208
718	0.205
719	0.203
719	0.201
720	0.199
720	0.196
720	0.194
721	0.191
721	0.188
722	0.186
722	0.183
723	0.181
723	0.179
723	0.177
724	0.174
724	0.172
725	0.17
725	0.168
726	0.166
726	0.164
727	0.162
727	0.16
727	0.158
728	0.156
728	0.154
729	0.153
729	0.151
730	0.149
730	0.146
730	0.144
731	0.142
731	0.14
732	0.139
732	0.137
733	0.135
733	0.133
734	0.131
734	0.129
734	0.128
735	0.127
735	0.126
736	0.124
736	0.122
737	0.121
737	0.12
737	0.118
738	0.116
738	0.114
739	0.112
739	0.109
740	0.107
740	0.104
741	0.102
741	0.099
741	0.096
742	0.092
742	0.089
743	0.086
743	0.084
744	0.082
744	0.079
744	0.077
745	0.075
745	0.072
746	0.07
746	0.069
747	0.068
747	0.067
748	0.067
748	0.067
748	0.066
749	0.066
749	0.066
750	0.066
750	0.067
751	0.067
751	0.068
751	0.068
752	0.067
752	0.066
753	0.065
753	0.064
754	0.063
754	0.062
754	0.062
755	0.061
755	0.061
756	0.061
756	0.059
757	0.058
757	0.058
758	0.058
758	0.057
758	0.057
759	0.056
759	0.054
760	0.051
760	0.049
761	0.047
761	0.045
761	0.044
762	0.042
762	0.041
763	0.04
763	0.037
764	0.035
764	0.033
764	0.032
765	0.03
765	0.028
766	0.027
766	0.026
767	0.025
767	0.023
768	0.02
768	0.017
768	0.016
769	0.015
769	0.014
770	0.012
770	0.01
771	0.008
771	0.005
771	0.003
772	0.001
772	-0.001
773	-0.003
773	-0.005
774	-0.007
774	-0.01
775	-0.012
775	-0.014
775	-0.017
776	-0.019
776	-0.02
777	-0.022
777	-0.024
778	-0.026
778	-0.029
778	-0.031
779	-0.033
779	-0.035
780	-0.038
780	-0.042
781	-0.045
781	-0.05
781	-0.055
782	-0.062
782	-0.069
783	-0.076
783	-0.083
784	-0.09
784	-0.096
784	-0.102
785	-0.108
785	-0.114
786	-0.118
786	-0.117
787	-0.115
787	-0.112
788	-0.112
788	-0.113
788	-0.114
789	-0.116
789	-0.116
790	-0.113
790	-0.112
791	-0.113
791	-0.115
791	-0.118
792	-0.113
792	-0.102
793	-0.096
793	-0.092
794	-0.091
794	-0.093
794	-0.097
795	-0.1
795	-0.1
796	-0.1
796	-0.103
797	-0.112
797	-0.123
797	-0.13
798	-0.135
798	-0.138
799	-0.139
799	-0.138
800	-0.138
800	-0.139
801	-0.142
801	-0.143
801	-0.142
802	-0.144
802	-0.144
803	-0.145
803	-0.145
804	-0.144
804	-0.139
804	-0.133
805	-0.129
805	-0.127
806	-0.125
806	-0.124
807	-0.124
807	-0.124
807	-0.124
808	-0.125
808	-0.126
809	-0.131
809	-0.136
810	-0.14
810	-0.143
810	-0.146
811	-0.149
811	-0.15
812	-0.146
812	-0.142
813	-0.142
813	-0.143
813	-0.145
814	-0.146
814	-0.146
815	-0.144
815	-0.141
816	-0.14
816	-0.14
817	-0.145
817	-0.149
817	-0.149
818	-0.149
818	-0.145
819	-0.14
819	-0.137
820	-0.135
820	-0.133
820	-0.13
821	-0.125
821	-0.118
822	-0.111
822	-0.103
823	-0.095
823	-0.089
823	-0.085
824	-0.079
824	-0.072
825	-0.065
825	-0.057
826	-0.05
826	-0.045
826	-0.04
827	-0.036
827	-0.032
828	-0.028
828	-0.025
829	-0.023
829	-0.021
829	-0.02
830	-0.02
830	-0.019
831	-0.017
831	-0.016
832	-0.015
832	-0.014
832	-0.013
833	-0.012
833	-0.011
834	-0.01
834	-0.009
835	-0.007
835	-0.006
835	-0.005
836	-0.004
836	-0.003
837	-0.003
837	-0.002
838	-0.001
838	-0.002
839	-0.002
839	-0.002
839	-0.003
840	-0.004
840	-0.004
841	-0.005
841	-0.005
842	-0.005
842	-0.005
842	-0.005
843	-0.004
843	-0.003
844	-0.002
844	-0.001
845	-0.001
845	0
845	0.001
846	0.001
846	0.001
847	0.001
847	0.002
848	0.002
848	0.002
848	0.003
849	0.003
849	0.004
850	0.005
850	0.005
851	0.006
851	0.007
851	0.008
852	0.008
852	0.008
853	0.008
853	0.008
854	0.009
854	0.009
854	0.009
855	0.009
855	0.009
856	0.008
856	0.008
857	0.008
857	0.008
857	0.008
858	0.008
858	0.008
859	0.007
859	0.007
860	0.008
860	0.008
860	0.008
861	0.009
861	0.009
862	0.009
862	0.009
863	0.009
863	0.01
863	0.01
864	0.011
864	0.011
865	0.012
865	0.013
866	0.014
866	0.015
866	0.016
867	0.016
867	0.017
868	0.018
868	0.018
869	0.018
869	0.018
869	0.017
870	0.017
870	0.016
871	0.016
871	0.015
872	0.014
872	0.014
872	0.014
873	0.013
873	0.013
874	0.012
874	0.011
875	0.011
875	0.011
875	0.011
876	0.011
876	0.01
877	0.01
877	0.01
878	0.01
878	0.01
878	0.01
879	0.01
879	0.01
880	0.01
880	0.01
881	0.01
881	0.01
881	0.01
882	0.01
882	0.01
883	0.009
883	0.01
884	0.01
884	0.01
884	0.01
885	0.011
885	0.011
886	0.011
886	0.012
887	0.012
887	0.012
887	0.012
888	0.011
888	0.011
889	0.011
889	0.011
890	0.011
890	0.01
890	0.01
891	0.009
891	0.009
892	0.01
892	0.01
893	0.01
893	0.011
893	0.011
894	0.011
894	0.012
895	0.012
895	0.012
895	0.012
896	0.012
896	0.012
897	0.012
897	0.011
898	0.011
898	0.011
898	0.01
899	0.01
899	0.009
900	0.009
900	0.008
901	0.008
901	0.008
901	0.008
902	0.008
902	0.008
903	0.009
903	0.009
904	0.009
904	0.009
904	0.01
905	0.01
905	0.01
906	0.011
906	0.011
907	0.011
907	0.011
907	0.011
908	0.011
908	0.012
909	0.013
909	0.013
910	0.014
910	0.014
910	0.015
911	0.015
911	0.015
912	0.015
912	0.016
913	0.015
913	0.015
913	0.015
914	0.014
914	0.014
915	0.014
915	0.014
916	0.014
916	0.013
916	0.013
917	0.013
917	0.013
918	0.013
918	0.013
918	0.013
919	0.013
919	0.013
920	0.013
920	0.014
921	0.014
921	0.015
921	0.016
922	0.016
922	0.017
923	0.017
923	0.018
924	0.018
924	0.018
924	0.018
925	0.018
925	0.018
926	0.018
926	0.018
927	0.017
927	0.017
927	0.017
928	0.016
928	0.016
929	0.016
929	0.016
930	0.015
930	0.014
930	0.014
931	0.013
931	0.012
932	0.012
932	0.011
933	0.01
933	0.009
933	0.008
934	0.007
934	0.007
935	0.006
935	0.006
935	0.005
936	0.005
936	0.005
937	0.005
937	0.005
938	0.005
938	0.005
938	0.006
939	0.007
939	0.008
940	0.009
940	0.01
941	0.011
941	0.013
941	0.014
942	0.016
942	0.017
943	0.018
943	0.019
944	0.02
944	0.02
944	0.021
945	0.021
945	0.021
946	0.021
946	0.021
946	0.021
947	0.021
947	0.021
948	0.021
948	0.021
949	0.021
949	0.021
949	0.021
950	0.021
950	0.021
951	0.021
951	0.02
952	0.02
952	0.019
952	0.019
953	0.019
953	0.019
954	0.019
954	0.019
955	0.019
955	0.019
955	0.02
956	0.02
956	0.02
957	0.02
957	0.02
957	0.02
958	0.02
958	0.02
959	0.02
959	0.02
960	0.02
960	0.02
960	0.02
961	0.021
961	0.021
962	0.022
962	0.023
963	0.023
963	0.024
963	0.025
964	0.026
964	0.027
965	0.027
965	0.028
966	0.028
966	0.028
966	0.029
967	0.029
967	0.028
968	0.028
968	0.027
968	0.027
969	0.026
969	0.025
970	0.024
970	0.023
971	0.022
971	0.021
971	0.02
972	0.02
972	0.019
973	0.019
973	0.018
974	0.017
974	0.017
974	0.017
975	0.017
975	0.017
976	0.017
976	0.017
976	0.017
977	0.016
977	0.016
978	0.016
978	0.016
979	0.016
979	0.015
979	0.015
980	0.014
980	0.014
981	0.013
981	0.013
982	0.013
982	0.012
982	0.012
983	0.011
983	0.011
984	0.01
984	0.01
984	0.009
985	0.008
985	0.008
986	0.006
986	0.006
987	0.005
987	0.004
987	0.004
988	0.004
988	0.004
989	0.004
989	0.004
990	0.004
990	0.005
990	0.005
991	0.006
991	0.006
992	0.007
992	0.008
992	0.008
993	0.008
993	0.009
994	0.009
994	0.009
995	0.008
995	0.008
995	0.008
996	0.007
996	0.007
997	0.006
997	0.005
997	0.005
998	0.005
998	0.005
999	0.006
999	0.006
1000	0.007
1000	0.007
1000	0.008
1001	0.01
1001	0.011
1002	0.012
1002	0.013
1003	0.014
1003	0.015
1003	0.015
1004	0.016
1004	0.016
1005	0.017
1005	0.017
1005	0.017
1006	0.017
1006	0.017
1007	0.017
1007	0.016
1008	0.016
1008	0.016
1008	0.016
1009	0.016
1009	0.016
1010	0.016
1010	0.016
1010	0.017
1011	0.017
1011	0.017
1012	0.017
1012	0.018
1013	0.018
1013	0.018
1013	0.019
1014	0.018
1014	0.018
1015	0.018
1015	0.018
1016	0.017
1016	0.017
1016	0.016
1017	0.015
1017	0.015
1018	0.014
1018	0.013
1018	0.013
1019	0.013
1019	0.012
1020	0.012
1020	0.011
1021	0.011
1021	0.01
1021	0.01
1022	0.01
1022	0.01
1023	0.009
1023	0.009
1023	0.009
1024	0.009
1024	0.008
1025	0.008
1025	0.008
1026	0.008
1026	0.007
1026	0.007
1027	0.007
1027	0.007
1028	0.008
1028	0.008
1028	0.008
1029	0.009
1029	0.009
1030	0.009
1030	0.009
1031	0.009
1031	0.009
1031	0.008
1032	0.008
1032	0.008
1033	0.007
1033	0.006
1033	0.006
1034	0.005
1034	0.004
1035	0.004
1035	0.004
1036	0.004
1036	0.004
1036	0.004
1037	0.004
1037	0.005
1038	0.005
1038	0.006
1039	0.007
1039	0.008
1039	0.009
1040	0.01
1040	0.011
1041	0.012
1041	0.013
1041	0.013
1042	0.014
1042	0.015
1043	0.015
1043	0.016
1044	0.016
1044	0.016
1044	0.017
1045	0.017
1045	0.017
1046	0.016
1046	0.016
1046	0.016
1047	0.016
1047	0.017
1048	0.017
1048	0.017
1049	0.017
1049	0.016
1049	0.016
1050	0.016
1050	0.016
1051	0.016
1051	0.016
1051	0.016
1052	0.016
1052	0.016
1053	0.016
1053	0.016
1053	0.016
1054	0.016
1054	0.016
1055	0.016
1055	0.017
1056	0.016
1056	0.016
1056	0.015
1057	0.015
1057	0.015
1058	0.015
1058	0.015
1058	0.016
1059	0.016
1059	0.016
1060	0.015
1060	0.016
1061	0.016
1061	0.016
1061	0.016
1062	0.016
1062	0.016
1063	0.015
1063	0.014
1063	0.014
1064	0.014
1064	0.014
1065	0.013
1065	0.013
1066	0.013
1066	0.013
1066	0.013
1067	0.013
1067	0.014
1068	0.014
1068	0.013
1068	0.013
1069	0.012
1069	0.011
1070	0.011
1070	0.01
1071	0.01
1071	0.01
1071	0.01
1072	0.01
1072	0.01
1073	0.009
1073	0.01
1073	0.01
1074	0.011
1074	0.011
1075	0.011
1075	0.011
1076	0.011
1076	0.011
1076	0.011
1077	0.011
1077	0.012
1078	0.013
1078	0.013
1078	0.015
1079	0.015
1079	0.017
1080	0.018
1080	0.02
1080	0.021
1081	0.023
1081	0.024
1082	0.025
1082	0.026
1083	0.028
1083	0.029
1083	0.03
1084	0.032
1084	0.034
1085	0.036
1085	0.037
1085	0.039
1086	0.041
1086	0.041
1087	0.044
1087	0.046
1088	0.046
1088	0.048
1088	0.049
1089	0.05
1089	0.052
1090	0.053
1090	0.055
1090	0.056
1091	0.059
1091	0.061
1092	0.063
1092	0.066
1092	0.068
1093	0.071
1093	0.074
1094	0.076
1094	0.079
1095	0.081
1095	0.085
1095	0.089
1096	0.093
1096	0.097
1097	0.102
1097	0.108
1097	0.114
1098	0.119
1098	0.127
1099	0.134
1099	0.143
1100	0.152
1100	0.161
1100	0.17
1101	0.181
1101	0.193
1102	0.206
1102	0.22
1102	0.237
1103	0.254
1103	0.273
1104	0.294
1104	0.319
1104	0.347
1105	0.377
1105	0.409
1106	0.443
1106	0.489
1107	0.546
1107	0.63
1107	0.753
1108	1.587
1108	-0
1109	-0
1109	-0
1109	-0
1110	-0
1110	-0
1111	-0
1111	-0
