Data from 17c-2-2a_Absorbance__1763__04199.txt Node

Date: Fri Jan 26 15:23:39 CET 2024
User: Marek
Spectrometer: MAYP115816
Trigger mode: 0
Integration Time (sec): 2.000000E-1
Scans to average: 10
Electric dark correction enabled: true
Nonlinearity correction enabled: true
Boxcar width: 5
XAxis mode: Wavelengths
Number of Pixels in Spectrum: 2068
>>>>>Begin Spectral Data<<<<<
199	-1.845
199	-1.699
200	-1.545
200	-1.428
201	-1.355
201	-1.308
202	-1.237
202	-1.179
203	-1.131
203	-1.088
204	-1.06
204	-1.036
205	-1.014
205	-1.004
205	-1.002
206	-0.997
206	-0.993
207	-0.989
207	-0.988
208	-0.987
208	-0.985
209	-0.982
209	-0.979
210	-0.979
210	-0.979
211	-0.979
211	-0.98
212	-0.98
212	-0.979
213	-0.977
213	-0.973
213	-0.973
214	-0.97
214	-0.968
215	-0.963
215	-0.96
216	-0.956
216	-0.954
217	-0.951
217	-0.949
218	-0.945
218	-0.944
219	-0.939
219	-0.938
220	-0.937
220	-0.937
221	-0.934
221	-0.932
221	-0.928
222	-0.922
222	-0.918
223	-0.914
223	-0.91
224	-0.905
224	-0.896
225	-0.889
225	-0.881
226	-0.871
226	-0.859
227	-0.849
227	-0.837
228	-0.82
228	-0.802
229	-0.781
229	-0.758
229	-0.733
230	-0.704
230	-0.672
231	-0.638
231	-0.602
232	-0.563
232	-0.521
233	-0.477
233	-0.431
234	-0.386
234	-0.341
235	-0.294
235	-0.249
236	-0.205
236	-0.163
236	-0.122
237	-0.082
237	-0.045
238	-0.011
238	0.021
239	0.052
239	0.08
240	0.106
240	0.13
241	0.151
241	0.171
242	0.189
242	0.206
243	0.221
243	0.235
243	0.248
244	0.26
244	0.27
245	0.279
245	0.288
246	0.296
246	0.304
247	0.311
247	0.318
248	0.324
248	0.33
249	0.335
249	0.34
250	0.345
250	0.35
250	0.354
251	0.358
251	0.362
252	0.366
252	0.37
253	0.373
253	0.375
254	0.378
254	0.381
255	0.384
255	0.386
256	0.389
256	0.39
257	0.392
257	0.394
258	0.395
258	0.397
258	0.398
259	0.399
259	0.4
260	0.4
260	0.4
261	0.401
261	0.401
262	0.401
262	0.402
263	0.401
263	0.402
264	0.401
264	0.401
265	0.401
265	0.4
265	0.4
266	0.4
266	0.399
267	0.398
267	0.397
268	0.396
268	0.394
269	0.393
269	0.391
270	0.39
270	0.388
271	0.387
271	0.385
272	0.384
272	0.382
272	0.381
273	0.379
273	0.377
274	0.375
274	0.373
275	0.372
275	0.37
276	0.368
276	0.366
277	0.364
277	0.362
278	0.359
278	0.357
278	0.355
279	0.352
279	0.35
280	0.348
280	0.346
281	0.344
281	0.342
282	0.341
282	0.339
283	0.337
283	0.336
284	0.334
284	0.333
285	0.331
285	0.33
285	0.328
286	0.326
286	0.325
287	0.323
287	0.321
288	0.32
288	0.318
289	0.317
289	0.315
290	0.314
290	0.312
291	0.311
291	0.31
292	0.309
292	0.307
292	0.306
293	0.305
293	0.304
294	0.302
294	0.301
295	0.3
295	0.299
296	0.298
296	0.297
297	0.296
297	0.295
298	0.294
298	0.293
298	0.292
299	0.292
299	0.291
300	0.29
300	0.289
301	0.288
301	0.287
302	0.287
302	0.286
303	0.285
303	0.284
304	0.283
304	0.283
305	0.282
305	0.281
305	0.28
306	0.28
306	0.279
307	0.278
307	0.277
308	0.276
308	0.275
309	0.275
309	0.274
310	0.273
310	0.272
311	0.272
311	0.271
311	0.27
312	0.27
312	0.269
313	0.268
313	0.267
314	0.267
314	0.266
315	0.265
315	0.264
316	0.263
316	0.262
317	0.262
317	0.261
318	0.26
318	0.259
318	0.258
319	0.258
319	0.257
320	0.256
320	0.255
321	0.254
321	0.253
322	0.252
322	0.251
323	0.251
323	0.25
324	0.249
324	0.248
324	0.247
325	0.247
325	0.246
326	0.245
326	0.245
327	0.244
327	0.243
328	0.243
328	0.242
329	0.241
329	0.241
330	0.24
330	0.239
330	0.238
331	0.238
331	0.237
332	0.236
332	0.236
333	0.235
333	0.234
334	0.234
334	0.233
335	0.232
335	0.232
336	0.231
336	0.23
336	0.23
337	0.229
337	0.229
338	0.228
338	0.227
339	0.227
339	0.226
340	0.226
340	0.225
341	0.225
341	0.224
342	0.224
342	0.223
342	0.223
343	0.222
343	0.222
344	0.221
344	0.22
345	0.22
345	0.22
346	0.219
346	0.218
347	0.218
347	0.217
348	0.217
348	0.216
348	0.216
349	0.215
349	0.215
350	0.214
350	0.214
351	0.213
351	0.213
352	0.212
352	0.212
353	0.211
353	0.211
354	0.211
354	0.21
354	0.209
355	0.209
355	0.208
356	0.208
356	0.207
357	0.207
357	0.207
358	0.207
358	0.207
359	0.207
359	0.207
360	0.208
360	0.208
360	0.208
361	0.208
361	0.209
362	0.208
362	0.208
363	0.208
363	0.208
364	0.207
364	0.207
365	0.207
365	0.207
366	0.207
366	0.206
366	0.206
367	0.206
367	0.206
368	0.205
368	0.205
369	0.205
369	0.204
370	0.204
370	0.204
371	0.203
371	0.203
372	0.202
372	0.202
372	0.202
373	0.202
373	0.202
374	0.202
374	0.202
375	0.201
375	0.201
376	0.201
376	0.202
377	0.201
377	0.202
378	0.202
378	0.202
378	0.202
379	0.202
379	0.201
380	0.201
380	0.201
381	0.201
381	0.201
382	0.2
382	0.2
383	0.2
383	0.199
383	0.199
384	0.198
384	0.198
385	0.198
385	0.197
386	0.197
386	0.197
387	0.197
387	0.197
388	0.196
388	0.196
389	0.196
389	0.196
389	0.196
390	0.196
390	0.196
391	0.196
391	0.196
392	0.196
392	0.196
393	0.196
393	0.196
394	0.196
394	0.196
394	0.196
395	0.195
395	0.195
396	0.195
396	0.194
397	0.194
397	0.194
398	0.194
398	0.194
399	0.193
399	0.193
400	0.193
400	0.193
400	0.192
401	0.192
401	0.191
402	0.191
402	0.19
403	0.19
403	0.19
404	0.189
404	0.189
405	0.189
405	0.189
405	0.188
406	0.188
406	0.188
407	0.188
407	0.188
408	0.187
408	0.187
409	0.187
409	0.187
410	0.187
410	0.187
411	0.186
411	0.186
411	0.186
412	0.186
412	0.186
413	0.185
413	0.185
414	0.185
414	0.185
415	0.184
415	0.184
416	0.183
416	0.183
416	0.182
417	0.182
417	0.182
418	0.182
418	0.182
419	0.182
419	0.182
420	0.182
420	0.183
421	0.183
421	0.184
421	0.184
422	0.184
422	0.184
423	0.184
423	0.184
424	0.183
424	0.183
425	0.183
425	0.182
426	0.182
426	0.181
427	0.181
427	0.181
427	0.181
428	0.181
428	0.181
429	0.182
429	0.182
430	0.182
430	0.182
431	0.181
431	0.181
432	0.181
432	0.18
432	0.179
433	0.179
433	0.178
434	0.178
434	0.177
435	0.177
435	0.177
436	0.177
436	0.178
437	0.177
437	0.177
437	0.178
438	0.177
438	0.177
439	0.177
439	0.176
440	0.176
440	0.175
441	0.175
441	0.175
442	0.175
442	0.176
442	0.176
443	0.176
443	0.176
444	0.176
444	0.177
445	0.177
445	0.177
446	0.177
446	0.177
447	0.177
447	0.177
447	0.177
448	0.177
448	0.177
449	0.176
449	0.176
450	0.176
450	0.176
451	0.175
451	0.175
452	0.175
452	0.175
452	0.174
453	0.174
453	0.173
454	0.173
454	0.173
455	0.172
455	0.172
456	0.172
456	0.172
457	0.172
457	0.172
458	0.172
458	0.172
458	0.173
459	0.173
459	0.173
460	0.173
460	0.172
461	0.172
461	0.172
462	0.172
462	0.172
463	0.172
463	0.173
463	0.173
464	0.173
464	0.173
465	0.174
465	0.174
466	0.174
466	0.174
467	0.175
467	0.175
467	0.174
468	0.173
468	0.172
469	0.171
469	0.171
470	0.17
470	0.17
471	0.17
471	0.17
472	0.17
472	0.171
472	0.171
473	0.172
473	0.173
474	0.174
474	0.174
475	0.175
475	0.176
476	0.176
476	0.177
477	0.177
477	0.177
477	0.178
478	0.178
478	0.179
479	0.179
479	0.18
480	0.181
480	0.181
481	0.182
481	0.183
482	0.184
482	0.185
482	0.186
483	0.188
483	0.19
484	0.192
484	0.194
485	0.196
485	0.197
486	0.198
486	0.199
487	0.2
487	0.201
487	0.201
488	0.201
488	0.2
489	0.2
489	0.2
490	0.199
490	0.199
491	0.2
491	0.201
492	0.202
492	0.202
492	0.204
493	0.204
493	0.206
494	0.208
494	0.21
495	0.211
495	0.213
496	0.214
496	0.215
496	0.216
497	0.218
497	0.219
498	0.22
498	0.221
499	0.222
499	0.222
500	0.224
500	0.225
501	0.227
501	0.228
501	0.23
502	0.232
502	0.233
503	0.235
503	0.237
504	0.238
504	0.239
505	0.24
505	0.241
506	0.243
506	0.244
506	0.244
507	0.245
507	0.246
508	0.247
508	0.248
509	0.249
509	0.25
510	0.251
510	0.252
511	0.253
511	0.254
511	0.255
512	0.256
512	0.256
513	0.256
513	0.256
514	0.255
514	0.255
515	0.256
515	0.256
515	0.256
516	0.257
516	0.257
517	0.258
517	0.259
518	0.259
518	0.259
519	0.259
519	0.258
520	0.257
520	0.256
520	0.254
521	0.253
521	0.251
522	0.249
522	0.248
523	0.247
523	0.248
524	0.249
524	0.25
524	0.252
525	0.253
525	0.255
526	0.256
526	0.257
527	0.259
527	0.26
528	0.261
528	0.261
529	0.261
529	0.261
529	0.26
530	0.26
530	0.26
531	0.259
531	0.259
532	0.258
532	0.257
533	0.257
533	0.256
533	0.255
534	0.254
534	0.253
535	0.251
535	0.25
536	0.249
536	0.247
537	0.246
537	0.245
538	0.243
538	0.241
538	0.24
539	0.239
539	0.237
540	0.236
540	0.234
541	0.232
541	0.231
542	0.229
542	0.227
542	0.225
543	0.223
543	0.221
544	0.219
544	0.217
545	0.215
545	0.214
546	0.213
546	0.211
547	0.21
547	0.207
547	0.205
548	0.203
548	0.201
549	0.199
549	0.197
550	0.195
550	0.193
551	0.19
551	0.188
551	0.186
552	0.184
552	0.182
553	0.181
553	0.18
554	0.178
554	0.176
555	0.173
555	0.17
556	0.167
556	0.165
556	0.162
557	0.159
557	0.157
558	0.154
558	0.152
559	0.15
559	0.148
560	0.147
560	0.145
560	0.144
561	0.143
561	0.142
562	0.141
562	0.139
563	0.137
563	0.135
564	0.132
564	0.13
564	0.128
565	0.125
565	0.124
566	0.122
566	0.12
567	0.119
567	0.118
568	0.119
568	0.119
568	0.119
569	0.12
569	0.12
570	0.12
570	0.12
571	0.12
571	0.12
572	0.12
572	0.119
573	0.118
573	0.117
573	0.116
574	0.115
574	0.114
575	0.113
575	0.114
576	0.114
576	0.112
577	0.111
577	0.109
577	0.109
578	0.107
578	0.107
579	0.107
579	0.107
580	0.106
580	0.104
581	0.101
581	0.1
581	0.099
582	0.098
582	0.098
583	0.097
583	0.096
584	0.094
584	0.091
585	0.09
585	0.089
585	0.088
586	0.088
586	0.087
587	0.086
587	0.084
588	0.082
588	0.08
589	0.079
589	0.078
590	0.078
590	0.077
590	0.078
591	0.078
591	0.077
592	0.077
592	0.076
593	0.076
593	0.076
594	0.075
594	0.074
594	0.073
595	0.072
595	0.071
596	0.069
596	0.069
597	0.071
597	0.071
598	0.071
598	0.072
598	0.072
599	0.073
599	0.072
600	0.072
600	0.071
601	0.071
601	0.07
602	0.069
602	0.068
602	0.067
603	0.067
603	0.068
604	0.069
604	0.069
605	0.071
605	0.072
606	0.072
606	0.072
606	0.071
607	0.071
607	0.071
608	0.07
608	0.069
609	0.068
609	0.067
610	0.066
610	0.065
610	0.065
611	0.065
611	0.065
612	0.066
612	0.066
613	0.067
613	0.069
614	0.069
614	0.068
614	0.068
615	0.068
615	0.068
616	0.068
616	0.068
617	0.068
617	0.068
618	0.067
618	0.066
618	0.066
619	0.066
619	0.066
620	0.067
620	0.068
621	0.068
621	0.068
622	0.068
622	0.069
622	0.069
623	0.069
623	0.07
624	0.07
624	0.07
625	0.071
625	0.071
626	0.072
626	0.072
626	0.073
627	0.074
627	0.075
628	0.076
628	0.077
629	0.077
629	0.078
630	0.077
630	0.077
630	0.077
631	0.078
631	0.078
632	0.078
632	0.078
633	0.078
633	0.078
634	0.079
634	0.081
634	0.082
635	0.084
635	0.085
636	0.086
636	0.087
637	0.088
637	0.089
638	0.091
638	0.093
638	0.094
639	0.095
639	0.096
640	0.097
640	0.098
641	0.099
641	0.101
642	0.103
642	0.104
642	0.105
643	0.107
643	0.108
644	0.11
644	0.111
645	0.113
645	0.115
646	0.118
646	0.12
646	0.124
647	0.127
647	0.13
648	0.133
648	0.136
649	0.139
649	0.143
650	0.146
650	0.149
650	0.152
651	0.155
651	0.157
652	0.159
652	0.161
653	0.164
653	0.172
653	0.18
654	0.145
654	0.118
655	0.123
655	0.125
656	0.127
656	0.129
657	0.131
657	0.133
657	0.134
658	0.132
658	0.126
659	0.159
659	0.204
660	0.208
660	0.21
661	0.212
661	0.214
661	0.217
662	0.219
662	0.222
663	0.225
663	0.228
664	0.23
664	0.233
665	0.235
665	0.238
665	0.241
666	0.243
666	0.246
667	0.248
667	0.25
668	0.253
668	0.255
669	0.258
669	0.26
669	0.264
670	0.268
670	0.271
671	0.273
671	0.275
672	0.278
672	0.279
672	0.281
673	0.283
673	0.285
674	0.287
674	0.289
675	0.29
675	0.291
676	0.293
676	0.296
676	0.298
677	0.3
677	0.302
678	0.304
678	0.306
679	0.307
679	0.309
680	0.311
680	0.313
680	0.314
681	0.315
681	0.316
682	0.317
682	0.318
683	0.32
683	0.321
684	0.322
684	0.322
684	0.322
685	0.322
685	0.322
686	0.321
686	0.321
687	0.32
687	0.319
687	0.319
688	0.318
688	0.317
689	0.318
689	0.319
690	0.32
690	0.32
691	0.321
691	0.322
691	0.322
692	0.322
692	0.321
693	0.321
693	0.321
694	0.32
694	0.318
695	0.317
695	0.317
695	0.316
696	0.315
696	0.313
697	0.312
697	0.311
698	0.309
698	0.307
698	0.305
699	0.303
699	0.3
700	0.297
700	0.295
701	0.293
701	0.292
702	0.29
702	0.288
702	0.287
703	0.285
703	0.283
704	0.281
704	0.28
705	0.279
705	0.278
705	0.276
706	0.275
706	0.273
707	0.271
707	0.269
708	0.267
708	0.265
709	0.263
709	0.26
709	0.257
710	0.255
710	0.252
711	0.25
711	0.248
712	0.246
712	0.244
713	0.243
713	0.241
713	0.239
714	0.237
714	0.234
715	0.231
715	0.229
716	0.226
716	0.223
716	0.22
717	0.217
717	0.214
718	0.21
718	0.207
719	0.204
719	0.202
720	0.2
720	0.198
720	0.196
721	0.193
721	0.19
722	0.188
722	0.185
723	0.183
723	0.182
723	0.18
724	0.177
724	0.175
725	0.173
725	0.171
726	0.169
726	0.167
727	0.165
727	0.163
727	0.161
728	0.158
728	0.156
729	0.155
729	0.153
730	0.151
730	0.149
730	0.147
731	0.145
731	0.143
732	0.142
732	0.14
733	0.138
733	0.136
734	0.134
734	0.132
734	0.131
735	0.13
735	0.129
736	0.127
736	0.125
737	0.124
737	0.123
737	0.122
738	0.12
738	0.117
739	0.115
739	0.113
740	0.11
740	0.108
741	0.106
741	0.104
741	0.101
742	0.097
742	0.094
743	0.091
743	0.089
744	0.086
744	0.084
744	0.082
745	0.079
745	0.076
746	0.074
746	0.072
747	0.071
747	0.07
748	0.07
748	0.069
748	0.069
749	0.068
749	0.068
750	0.067
750	0.067
751	0.067
751	0.068
751	0.068
752	0.068
752	0.067
753	0.066
753	0.065
754	0.064
754	0.063
754	0.063
755	0.062
755	0.062
756	0.062
756	0.06
757	0.059
757	0.058
758	0.058
758	0.057
758	0.056
759	0.055
759	0.052
760	0.05
760	0.047
761	0.045
761	0.043
761	0.042
762	0.04
762	0.039
763	0.038
763	0.036
764	0.034
764	0.032
764	0.031
765	0.03
765	0.028
766	0.027
766	0.027
767	0.026
767	0.023
768	0.021
768	0.019
768	0.017
769	0.016
769	0.015
770	0.013
770	0.012
771	0.009
771	0.007
771	0.004
772	0.002
772	-0
773	-0.002
773	-0.004
774	-0.007
774	-0.01
775	-0.012
775	-0.014
775	-0.016
776	-0.018
776	-0.02
777	-0.022
777	-0.024
778	-0.026
778	-0.029
778	-0.032
779	-0.034
779	-0.035
780	-0.038
780	-0.042
781	-0.045
781	-0.05
781	-0.055
782	-0.062
782	-0.069
783	-0.076
783	-0.083
784	-0.09
784	-0.096
784	-0.102
785	-0.109
785	-0.115
786	-0.118
786	-0.118
787	-0.115
787	-0.112
788	-0.112
788	-0.113
788	-0.114
789	-0.116
789	-0.116
790	-0.113
790	-0.112
791	-0.113
791	-0.115
791	-0.117
792	-0.113
792	-0.102
793	-0.096
793	-0.092
794	-0.091
794	-0.093
794	-0.097
795	-0.099
795	-0.1
796	-0.1
796	-0.103
797	-0.112
797	-0.123
797	-0.129
798	-0.135
798	-0.138
799	-0.139
799	-0.138
800	-0.138
800	-0.139
801	-0.142
801	-0.143
801	-0.142
802	-0.143
802	-0.144
803	-0.145
803	-0.145
804	-0.144
804	-0.139
804	-0.132
805	-0.129
805	-0.127
806	-0.125
806	-0.124
807	-0.124
807	-0.124
807	-0.124
808	-0.124
808	-0.126
809	-0.13
809	-0.136
810	-0.14
810	-0.143
810	-0.146
811	-0.149
811	-0.15
812	-0.145
812	-0.142
813	-0.142
813	-0.143
813	-0.144
814	-0.146
814	-0.146
815	-0.144
815	-0.141
816	-0.139
816	-0.14
817	-0.145
817	-0.149
817	-0.149
818	-0.149
818	-0.145
819	-0.14
819	-0.137
820	-0.135
820	-0.133
820	-0.13
821	-0.125
821	-0.119
822	-0.111
822	-0.104
823	-0.096
823	-0.09
823	-0.086
824	-0.08
824	-0.073
825	-0.066
825	-0.059
826	-0.052
826	-0.047
826	-0.043
827	-0.038
827	-0.034
828	-0.031
828	-0.028
829	-0.025
829	-0.023
829	-0.022
830	-0.021
830	-0.02
831	-0.018
831	-0.017
832	-0.016
832	-0.015
832	-0.013
833	-0.012
833	-0.011
834	-0.01
834	-0.008
835	-0.007
835	-0.006
835	-0.005
836	-0.004
836	-0.003
837	-0.002
837	-0.001
838	-0
838	0
839	0
839	0
839	-0
840	-0.001
840	-0.001
841	-0.002
841	-0.002
842	-0.002
842	-0.002
842	-0.002
843	-0.002
843	-0.002
844	-0.001
844	-0
845	0.001
845	0.002
845	0.003
846	0.003
846	0.004
847	0.004
847	0.005
848	0.005
848	0.006
848	0.007
849	0.007
849	0.008
850	0.008
850	0.008
851	0.009
851	0.009
851	0.01
852	0.009
852	0.01
853	0.009
853	0.009
854	0.01
854	0.01
854	0.01
855	0.01
855	0.01
856	0.01
856	0.009
857	0.009
857	0.009
857	0.009
858	0.009
858	0.009
859	0.009
859	0.008
860	0.008
860	0.008
860	0.008
861	0.008
861	0.009
862	0.009
862	0.009
863	0.01
863	0.011
863	0.012
864	0.013
864	0.015
865	0.016
865	0.017
866	0.019
866	0.02
866	0.021
867	0.022
867	0.022
868	0.022
868	0.022
869	0.022
869	0.021
869	0.02
870	0.019
870	0.018
871	0.018
871	0.017
872	0.017
872	0.016
872	0.016
873	0.016
873	0.015
874	0.014
874	0.014
875	0.013
875	0.012
875	0.012
876	0.011
876	0.01
877	0.01
877	0.009
878	0.008
878	0.008
878	0.008
879	0.009
879	0.009
880	0.009
880	0.009
881	0.01
881	0.01
881	0.011
882	0.011
882	0.012
883	0.012
883	0.012
884	0.013
884	0.013
884	0.013
885	0.013
885	0.014
886	0.014
886	0.014
887	0.014
887	0.014
887	0.014
888	0.014
888	0.014
889	0.014
889	0.014
890	0.014
890	0.013
890	0.013
891	0.012
891	0.012
892	0.011
892	0.011
893	0.011
893	0.011
893	0.011
894	0.011
894	0.011
895	0.011
895	0.011
895	0.011
896	0.011
896	0.01
897	0.01
897	0.009
898	0.009
898	0.009
898	0.008
899	0.008
899	0.008
900	0.007
900	0.008
901	0.008
901	0.008
901	0.008
902	0.009
902	0.01
903	0.01
903	0.011
904	0.012
904	0.012
904	0.013
905	0.013
905	0.013
906	0.013
906	0.013
907	0.013
907	0.013
907	0.012
908	0.012
908	0.013
909	0.013
909	0.014
910	0.014
910	0.015
910	0.015
911	0.015
911	0.016
912	0.016
912	0.016
913	0.016
913	0.015
913	0.015
914	0.014
914	0.013
915	0.013
915	0.012
916	0.012
916	0.012
916	0.011
917	0.011
917	0.011
918	0.01
918	0.01
918	0.01
919	0.01
919	0.01
920	0.011
920	0.011
921	0.012
921	0.013
921	0.013
922	0.014
922	0.015
923	0.015
923	0.016
924	0.016
924	0.017
924	0.017
925	0.017
925	0.017
926	0.017
926	0.018
927	0.017
927	0.017
927	0.017
928	0.017
928	0.017
929	0.017
929	0.017
930	0.016
930	0.016
930	0.015
931	0.014
931	0.014
932	0.014
932	0.013
933	0.012
933	0.011
933	0.01
934	0.01
934	0.009
935	0.009
935	0.008
935	0.007
936	0.007
936	0.006
937	0.006
937	0.006
938	0.006
938	0.007
938	0.008
939	0.009
939	0.01
940	0.011
940	0.013
941	0.014
941	0.015
941	0.016
942	0.018
942	0.019
943	0.019
943	0.02
944	0.02
944	0.02
944	0.02
945	0.021
945	0.021
946	0.021
946	0.021
946	0.021
947	0.021
947	0.021
948	0.021
948	0.021
949	0.021
949	0.021
949	0.02
950	0.02
950	0.02
951	0.02
951	0.019
952	0.019
952	0.019
952	0.018
953	0.018
953	0.018
954	0.018
954	0.018
955	0.018
955	0.018
955	0.018
956	0.019
956	0.019
957	0.019
957	0.019
957	0.02
958	0.02
958	0.021
959	0.021
959	0.021
960	0.021
960	0.022
960	0.022
961	0.022
961	0.022
962	0.023
962	0.023
963	0.023
963	0.024
963	0.024
964	0.024
964	0.025
965	0.025
965	0.025
966	0.026
966	0.026
966	0.026
967	0.026
967	0.025
968	0.025
968	0.024
968	0.023
969	0.023
969	0.022
970	0.022
970	0.021
971	0.02
971	0.02
971	0.019
972	0.019
972	0.019
973	0.018
973	0.017
974	0.017
974	0.017
974	0.017
975	0.017
975	0.017
976	0.018
976	0.018
976	0.018
977	0.018
977	0.018
978	0.018
978	0.019
979	0.019
979	0.019
979	0.018
980	0.018
980	0.017
981	0.017
981	0.017
982	0.017
982	0.016
982	0.016
983	0.015
983	0.014
984	0.014
984	0.013
984	0.012
985	0.012
985	0.011
986	0.01
986	0.009
987	0.009
987	0.008
987	0.008
988	0.008
988	0.009
989	0.009
989	0.009
990	0.01
990	0.011
990	0.012
991	0.013
991	0.014
992	0.015
992	0.016
992	0.017
993	0.017
993	0.017
994	0.017
994	0.017
995	0.017
995	0.016
995	0.015
996	0.015
996	0.014
997	0.013
997	0.012
997	0.011
998	0.011
998	0.011
999	0.011
999	0.011
1000	0.011
1000	0.011
1000	0.012
1001	0.012
1001	0.013
1002	0.014
1002	0.014
1003	0.015
1003	0.015
1003	0.015
1004	0.016
1004	0.016
1005	0.017
1005	0.017
1005	0.017
1006	0.017
1006	0.017
1007	0.017
1007	0.017
1008	0.018
1008	0.018
1008	0.018
1009	0.018
1009	0.018
1010	0.018
1010	0.019
1010	0.019
1011	0.019
1011	0.02
1012	0.02
1012	0.02
1013	0.02
1013	0.02
1013	0.02
1014	0.02
1014	0.019
1015	0.019
1015	0.019
1016	0.018
1016	0.017
1016	0.017
1017	0.016
1017	0.015
1018	0.014
1018	0.013
1018	0.012
1019	0.012
1019	0.011
1020	0.01
1020	0.01
1021	0.009
1021	0.008
1021	0.008
1022	0.008
1022	0.008
1023	0.008
1023	0.008
1023	0.008
1024	0.008
1024	0.008
1025	0.008
1025	0.008
1026	0.008
1026	0.008
1026	0.008
1027	0.008
1027	0.008
1028	0.008
1028	0.008
1028	0.008
1029	0.008
1029	0.009
1030	0.009
1030	0.009
1031	0.009
1031	0.009
1031	0.008
1032	0.009
1032	0.008
1033	0.008
1033	0.008
1033	0.008
1034	0.007
1034	0.007
1035	0.007
1035	0.007
1036	0.007
1036	0.007
1036	0.008
1037	0.008
1037	0.009
1038	0.009
1038	0.01
1039	0.011
1039	0.012
1039	0.013
1040	0.013
1040	0.014
1041	0.015
1041	0.015
1041	0.015
1042	0.015
1042	0.016
1043	0.016
1043	0.016
1044	0.016
1044	0.016
1044	0.017
1045	0.017
1045	0.017
1046	0.016
1046	0.016
1046	0.016
1047	0.017
1047	0.017
1048	0.017
1048	0.017
1049	0.016
1049	0.016
1049	0.015
1050	0.014
1050	0.014
1051	0.013
1051	0.013
1051	0.013
1052	0.013
1052	0.013
1053	0.013
1053	0.013
1053	0.014
1054	0.014
1054	0.014
1055	0.015
1055	0.015
1056	0.015
1056	0.015
1056	0.015
1057	0.015
1057	0.016
1058	0.016
1058	0.016
1058	0.017
1059	0.017
1059	0.017
1060	0.017
1060	0.018
1061	0.018
1061	0.018
1061	0.019
1062	0.018
1062	0.018
1063	0.018
1063	0.018
1063	0.018
1064	0.018
1064	0.018
1065	0.018
1065	0.018
1066	0.018
1066	0.019
1066	0.019
1067	0.019
1067	0.02
1068	0.019
1068	0.019
1068	0.019
1069	0.018
1069	0.017
1070	0.016
1070	0.016
1071	0.015
1071	0.015
1071	0.015
1072	0.014
1072	0.014
1073	0.014
1073	0.014
1073	0.014
1074	0.015
1074	0.015
1075	0.015
1075	0.015
1076	0.015
1076	0.015
1076	0.016
1077	0.016
1077	0.017
1078	0.017
1078	0.019
1078	0.02
1079	0.021
1079	0.022
1080	0.023
1080	0.025
1080	0.026
1081	0.027
1081	0.029
1082	0.03
1082	0.031
1083	0.032
1083	0.033
1083	0.034
1084	0.036
1084	0.037
1085	0.039
1085	0.04
1085	0.041
1086	0.043
1086	0.044
1087	0.046
1087	0.048
1088	0.049
1088	0.051
1088	0.052
1089	0.053
1089	0.055
1090	0.057
1090	0.059
1090	0.061
1091	0.063
1091	0.066
1092	0.068
1092	0.071
1092	0.073
1093	0.075
1093	0.079
1094	0.082
1094	0.085
1095	0.088
1095	0.092
1095	0.097
1096	0.102
1096	0.107
1097	0.113
1097	0.119
1097	0.126
1098	0.133
1098	0.14
1099	0.148
1099	0.157
1100	0.166
1100	0.176
1100	0.186
1101	0.198
1101	0.211
1102	0.226
1102	0.241
1102	0.259
1103	0.279
1103	0.3
1104	0.325
1104	0.351
1104	0.384
1105	0.419
1105	0.457
1106	0.495
1106	0.547
1107	0.612
1107	0.713
1107	0.871
1108	-0
1108	-0
1109	-0
1109	-0
1109	-0
1110	-0
1110	-0
1111	-0
1111	-0
