Data from 17c-2-2a_Absorbance__119__02555.txt Node

Date: Fri Jan 26 14:28:51 CET 2024
User: Marek
Spectrometer: MAYP115816
Trigger mode: 0
Integration Time (sec): 2.000000E-1
Scans to average: 10
Electric dark correction enabled: true
Nonlinearity correction enabled: true
Boxcar width: 5
XAxis mode: Wavelengths
Number of Pixels in Spectrum: 2068
>>>>>Begin Spectral Data<<<<<
199	-1.772
199	-1.628
200	-1.475
200	-1.361
201	-1.288
201	-1.242
202	-1.172
202	-1.116
203	-1.069
203	-1.028
204	-1.002
204	-0.978
205	-0.957
205	-0.947
205	-0.944
206	-0.939
206	-0.935
207	-0.932
207	-0.931
208	-0.929
208	-0.927
209	-0.924
209	-0.92
210	-0.921
210	-0.92
211	-0.92
211	-0.922
212	-0.921
212	-0.92
213	-0.918
213	-0.914
213	-0.914
214	-0.912
214	-0.91
215	-0.905
215	-0.903
216	-0.899
216	-0.898
217	-0.895
217	-0.893
218	-0.89
218	-0.888
219	-0.884
219	-0.883
220	-0.881
220	-0.881
221	-0.879
221	-0.877
221	-0.872
222	-0.867
222	-0.863
223	-0.859
223	-0.855
224	-0.85
224	-0.843
225	-0.836
225	-0.828
226	-0.82
226	-0.808
227	-0.798
227	-0.787
228	-0.771
228	-0.754
229	-0.734
229	-0.713
229	-0.69
230	-0.662
230	-0.632
231	-0.601
231	-0.567
232	-0.531
232	-0.493
233	-0.454
233	-0.414
234	-0.374
234	-0.335
235	-0.296
235	-0.259
236	-0.223
236	-0.19
236	-0.157
237	-0.127
237	-0.099
238	-0.073
238	-0.05
239	-0.029
239	-0.01
240	0.008
240	0.023
241	0.038
241	0.05
242	0.062
242	0.072
243	0.082
243	0.09
243	0.097
244	0.105
244	0.111
245	0.116
245	0.122
246	0.127
246	0.132
247	0.136
247	0.14
248	0.144
248	0.148
249	0.151
249	0.155
250	0.158
250	0.161
250	0.164
251	0.167
251	0.17
252	0.172
252	0.175
253	0.177
253	0.179
254	0.181
254	0.183
255	0.185
255	0.187
256	0.188
256	0.189
257	0.191
257	0.192
258	0.192
258	0.193
258	0.195
259	0.195
259	0.196
260	0.196
260	0.197
261	0.197
261	0.197
262	0.198
262	0.198
263	0.198
263	0.198
264	0.197
264	0.197
265	0.197
265	0.196
265	0.196
266	0.195
266	0.194
267	0.194
267	0.193
268	0.192
268	0.191
269	0.19
269	0.188
270	0.187
270	0.186
271	0.184
271	0.183
272	0.182
272	0.18
272	0.179
273	0.178
273	0.176
274	0.175
274	0.173
275	0.172
275	0.17
276	0.169
276	0.167
277	0.166
277	0.164
278	0.162
278	0.16
278	0.158
279	0.156
279	0.154
280	0.153
280	0.151
281	0.15
281	0.148
282	0.146
282	0.145
283	0.144
283	0.142
284	0.141
284	0.14
285	0.139
285	0.138
285	0.137
286	0.135
286	0.134
287	0.133
287	0.132
288	0.13
288	0.129
289	0.128
289	0.127
290	0.126
290	0.125
291	0.124
291	0.123
292	0.123
292	0.122
292	0.121
293	0.12
293	0.119
294	0.118
294	0.117
295	0.117
295	0.116
296	0.115
296	0.115
297	0.114
297	0.114
298	0.114
298	0.113
298	0.113
299	0.113
299	0.112
300	0.112
300	0.111
301	0.111
301	0.111
302	0.11
302	0.11
303	0.11
303	0.109
304	0.109
304	0.109
305	0.108
305	0.108
305	0.107
306	0.107
306	0.107
307	0.106
307	0.106
308	0.106
308	0.105
309	0.105
309	0.105
310	0.104
310	0.104
311	0.104
311	0.104
311	0.103
312	0.103
312	0.103
313	0.102
313	0.102
314	0.102
314	0.101
315	0.101
315	0.101
316	0.1
316	0.1
317	0.099
317	0.099
318	0.099
318	0.098
318	0.098
319	0.098
319	0.097
320	0.097
320	0.096
321	0.096
321	0.096
322	0.095
322	0.095
323	0.094
323	0.094
324	0.093
324	0.093
324	0.093
325	0.092
325	0.092
326	0.092
326	0.091
327	0.091
327	0.091
328	0.09
328	0.09
329	0.09
329	0.09
330	0.089
330	0.089
330	0.088
331	0.088
331	0.088
332	0.087
332	0.087
333	0.087
333	0.087
334	0.086
334	0.086
335	0.085
335	0.085
336	0.085
336	0.085
336	0.084
337	0.084
337	0.084
338	0.083
338	0.083
339	0.083
339	0.083
340	0.082
340	0.082
341	0.082
341	0.081
342	0.081
342	0.081
342	0.08
343	0.08
343	0.08
344	0.079
344	0.079
345	0.079
345	0.079
346	0.078
346	0.078
347	0.078
347	0.077
348	0.077
348	0.077
348	0.076
349	0.076
349	0.076
350	0.076
350	0.075
351	0.075
351	0.075
352	0.075
352	0.074
353	0.074
353	0.074
354	0.074
354	0.073
354	0.073
355	0.073
355	0.073
356	0.072
356	0.072
357	0.071
357	0.071
358	0.071
358	0.071
359	0.072
359	0.072
360	0.072
360	0.072
360	0.072
361	0.072
361	0.072
362	0.073
362	0.073
363	0.073
363	0.073
364	0.072
364	0.072
365	0.072
365	0.072
366	0.072
366	0.072
366	0.072
367	0.072
367	0.072
368	0.072
368	0.072
369	0.072
369	0.072
370	0.071
370	0.071
371	0.071
371	0.071
372	0.07
372	0.07
372	0.07
373	0.07
373	0.07
374	0.07
374	0.071
375	0.071
375	0.071
376	0.071
376	0.071
377	0.071
377	0.072
378	0.072
378	0.072
378	0.072
379	0.072
379	0.072
380	0.072
380	0.072
381	0.072
381	0.072
382	0.071
382	0.071
383	0.071
383	0.071
383	0.07
384	0.07
384	0.07
385	0.07
385	0.07
386	0.07
386	0.07
387	0.07
387	0.07
388	0.07
388	0.07
389	0.07
389	0.07
389	0.07
390	0.07
390	0.07
391	0.07
391	0.071
392	0.071
392	0.071
393	0.071
393	0.071
394	0.071
394	0.071
394	0.071
395	0.07
395	0.07
396	0.07
396	0.07
397	0.07
397	0.07
398	0.07
398	0.07
399	0.07
399	0.07
400	0.07
400	0.069
400	0.069
401	0.069
401	0.069
402	0.068
402	0.068
403	0.068
403	0.068
404	0.068
404	0.067
405	0.067
405	0.067
405	0.067
406	0.067
406	0.067
407	0.067
407	0.067
408	0.067
408	0.067
409	0.067
409	0.067
410	0.067
410	0.067
411	0.067
411	0.067
411	0.067
412	0.067
412	0.067
413	0.067
413	0.066
414	0.066
414	0.066
415	0.066
415	0.066
416	0.065
416	0.065
416	0.065
417	0.064
417	0.065
418	0.064
418	0.065
419	0.065
419	0.065
420	0.066
420	0.066
421	0.066
421	0.066
421	0.067
422	0.067
422	0.067
423	0.067
423	0.067
424	0.067
424	0.066
425	0.066
425	0.066
426	0.066
426	0.066
427	0.065
427	0.065
427	0.065
428	0.066
428	0.066
429	0.066
429	0.066
430	0.066
430	0.066
431	0.066
431	0.066
432	0.066
432	0.065
432	0.065
433	0.064
433	0.064
434	0.064
434	0.064
435	0.064
435	0.064
436	0.064
436	0.064
437	0.064
437	0.064
437	0.064
438	0.064
438	0.064
439	0.063
439	0.063
440	0.063
440	0.062
441	0.063
441	0.063
442	0.063
442	0.063
442	0.063
443	0.064
443	0.064
444	0.064
444	0.064
445	0.064
445	0.064
446	0.064
446	0.064
447	0.064
447	0.064
447	0.064
448	0.064
448	0.064
449	0.064
449	0.064
450	0.064
450	0.063
451	0.063
451	0.063
452	0.063
452	0.063
452	0.063
453	0.062
453	0.062
454	0.061
454	0.061
455	0.061
455	0.061
456	0.061
456	0.061
457	0.061
457	0.061
458	0.061
458	0.061
458	0.061
459	0.062
459	0.062
460	0.061
460	0.061
461	0.061
461	0.061
462	0.061
462	0.061
463	0.061
463	0.061
463	0.061
464	0.062
464	0.061
465	0.062
465	0.062
466	0.062
466	0.062
467	0.062
467	0.061
467	0.061
468	0.06
468	0.059
469	0.059
469	0.058
470	0.058
470	0.058
471	0.058
471	0.058
472	0.058
472	0.058
472	0.059
473	0.059
473	0.06
474	0.06
474	0.061
475	0.061
475	0.062
476	0.062
476	0.062
477	0.062
477	0.062
477	0.062
478	0.062
478	0.062
479	0.062
479	0.062
480	0.063
480	0.063
481	0.063
481	0.063
482	0.064
482	0.065
482	0.065
483	0.067
483	0.068
484	0.069
484	0.07
485	0.071
485	0.071
486	0.072
486	0.072
487	0.072
487	0.073
487	0.073
488	0.072
488	0.071
489	0.071
489	0.07
490	0.07
490	0.07
491	0.07
491	0.07
492	0.071
492	0.071
492	0.071
493	0.072
493	0.072
494	0.074
494	0.075
495	0.076
495	0.077
496	0.077
496	0.078
496	0.079
497	0.079
497	0.08
498	0.081
498	0.081
499	0.081
499	0.081
500	0.082
500	0.082
501	0.083
501	0.083
501	0.084
502	0.085
502	0.086
503	0.086
503	0.087
504	0.087
504	0.088
505	0.088
505	0.089
506	0.09
506	0.09
506	0.09
507	0.091
507	0.091
508	0.092
508	0.092
509	0.093
509	0.094
510	0.094
510	0.095
511	0.095
511	0.096
511	0.096
512	0.096
512	0.096
513	0.096
513	0.096
514	0.096
514	0.096
515	0.096
515	0.095
515	0.095
516	0.094
516	0.095
517	0.095
517	0.095
518	0.095
518	0.096
519	0.096
519	0.095
520	0.095
520	0.095
520	0.094
521	0.093
521	0.092
522	0.091
522	0.089
523	0.088
523	0.087
524	0.086
524	0.086
524	0.086
525	0.086
525	0.087
526	0.088
526	0.089
527	0.091
527	0.092
528	0.093
528	0.095
529	0.095
529	0.096
529	0.096
530	0.097
530	0.097
531	0.097
531	0.097
532	0.096
532	0.096
533	0.095
533	0.094
533	0.094
534	0.093
534	0.092
535	0.092
535	0.091
536	0.09
536	0.089
537	0.089
537	0.088
538	0.088
538	0.087
538	0.086
539	0.086
539	0.085
540	0.084
540	0.084
541	0.083
541	0.082
542	0.081
542	0.08
542	0.08
543	0.079
543	0.078
544	0.077
544	0.076
545	0.076
545	0.076
546	0.075
546	0.075
547	0.074
547	0.072
547	0.071
548	0.07
548	0.069
549	0.069
549	0.068
550	0.067
550	0.066
551	0.065
551	0.064
551	0.063
552	0.063
552	0.062
553	0.062
553	0.062
554	0.061
554	0.06
555	0.058
555	0.057
556	0.055
556	0.054
556	0.052
557	0.051
557	0.05
558	0.049
558	0.048
559	0.047
559	0.047
560	0.046
560	0.046
560	0.046
561	0.046
561	0.046
562	0.045
562	0.045
563	0.043
563	0.042
564	0.041
564	0.04
564	0.038
565	0.037
565	0.037
566	0.036
566	0.035
567	0.034
567	0.034
568	0.035
568	0.035
568	0.036
569	0.038
569	0.039
570	0.039
570	0.039
571	0.04
571	0.041
572	0.041
572	0.041
573	0.041
573	0.041
573	0.04
574	0.039
574	0.039
575	0.039
575	0.039
576	0.04
576	0.039
577	0.038
577	0.037
577	0.037
578	0.036
578	0.037
579	0.037
579	0.038
580	0.037
580	0.035
581	0.034
581	0.033
581	0.032
582	0.032
582	0.032
583	0.033
583	0.032
584	0.03
584	0.028
585	0.027
585	0.027
585	0.027
586	0.027
586	0.027
587	0.026
587	0.025
588	0.024
588	0.023
589	0.023
589	0.023
590	0.022
590	0.022
590	0.024
591	0.025
591	0.025
592	0.025
592	0.024
593	0.024
593	0.024
594	0.023
594	0.022
594	0.022
595	0.021
595	0.02
596	0.019
596	0.02
597	0.021
597	0.021
598	0.022
598	0.022
598	0.023
599	0.024
599	0.024
600	0.023
600	0.023
601	0.023
601	0.022
602	0.021
602	0.021
602	0.021
603	0.021
603	0.022
604	0.022
604	0.023
605	0.024
605	0.025
606	0.025
606	0.025
606	0.024
607	0.024
607	0.024
608	0.023
608	0.022
609	0.021
609	0.02
610	0.02
610	0.019
610	0.019
611	0.019
611	0.02
612	0.021
612	0.022
613	0.022
613	0.023
614	0.023
614	0.023
614	0.023
615	0.023
615	0.023
616	0.023
616	0.023
617	0.022
617	0.022
618	0.021
618	0.021
618	0.02
619	0.02
619	0.021
620	0.022
620	0.022
621	0.022
621	0.022
622	0.022
622	0.022
622	0.022
623	0.021
623	0.022
624	0.022
624	0.022
625	0.022
625	0.022
626	0.022
626	0.023
626	0.024
627	0.024
627	0.025
628	0.026
628	0.026
629	0.026
629	0.026
630	0.026
630	0.025
630	0.025
631	0.025
631	0.025
632	0.025
632	0.025
633	0.025
633	0.025
634	0.025
634	0.026
634	0.028
635	0.028
635	0.029
636	0.03
636	0.03
637	0.031
637	0.032
638	0.033
638	0.034
638	0.035
639	0.035
639	0.036
640	0.037
640	0.037
641	0.038
641	0.039
642	0.04
642	0.04
642	0.041
643	0.042
643	0.042
644	0.043
644	0.044
645	0.044
645	0.046
646	0.047
646	0.049
646	0.051
647	0.053
647	0.055
648	0.056
648	0.058
649	0.059
649	0.061
650	0.063
650	0.065
650	0.067
651	0.068
651	0.069
652	0.07
652	0.07
653	0.072
653	0.078
653	0.082
654	0.068
654	0.057
655	0.058
655	0.059
656	0.06
656	0.061
657	0.063
657	0.064
657	0.065
658	0.063
658	0.06
659	0.074
659	0.093
660	0.098
660	0.099
661	0.1
661	0.102
661	0.103
662	0.105
662	0.106
663	0.107
663	0.109
664	0.11
664	0.111
665	0.112
665	0.113
665	0.114
666	0.115
666	0.116
667	0.117
667	0.118
668	0.12
668	0.121
669	0.123
669	0.125
669	0.127
670	0.129
670	0.13
671	0.131
671	0.132
672	0.133
672	0.134
672	0.135
673	0.136
673	0.137
674	0.138
674	0.138
675	0.139
675	0.141
676	0.143
676	0.144
676	0.146
677	0.148
677	0.149
678	0.15
678	0.151
679	0.152
679	0.153
680	0.155
680	0.156
680	0.156
681	0.156
681	0.157
682	0.157
682	0.158
683	0.159
683	0.16
684	0.161
684	0.161
684	0.161
685	0.161
685	0.161
686	0.16
686	0.16
687	0.159
687	0.158
687	0.158
688	0.157
688	0.157
689	0.158
689	0.159
690	0.159
690	0.16
691	0.161
691	0.161
691	0.162
692	0.162
692	0.162
693	0.162
693	0.162
694	0.162
694	0.161
695	0.161
695	0.162
695	0.161
696	0.16
696	0.159
697	0.159
697	0.158
698	0.157
698	0.156
698	0.154
699	0.153
699	0.151
700	0.149
700	0.148
701	0.148
701	0.147
702	0.145
702	0.144
702	0.143
703	0.142
703	0.141
704	0.14
704	0.139
705	0.138
705	0.137
705	0.136
706	0.135
706	0.135
707	0.134
707	0.132
708	0.131
708	0.131
709	0.13
709	0.128
709	0.127
710	0.125
710	0.124
711	0.123
711	0.122
712	0.121
712	0.12
713	0.119
713	0.118
713	0.117
714	0.116
714	0.114
715	0.113
715	0.112
716	0.11
716	0.11
716	0.108
717	0.107
717	0.105
718	0.104
718	0.102
719	0.101
719	0.099
720	0.098
720	0.096
720	0.094
721	0.092
721	0.09
722	0.088
722	0.086
723	0.085
723	0.083
723	0.082
724	0.081
724	0.08
725	0.079
725	0.079
726	0.078
726	0.077
727	0.077
727	0.076
727	0.075
728	0.074
728	0.073
729	0.073
729	0.072
730	0.071
730	0.069
730	0.068
731	0.067
731	0.066
732	0.065
732	0.064
733	0.063
733	0.062
734	0.062
734	0.061
734	0.06
735	0.06
735	0.059
736	0.058
736	0.057
737	0.056
737	0.056
737	0.055
738	0.053
738	0.051
739	0.049
739	0.048
740	0.046
740	0.045
741	0.043
741	0.041
741	0.039
742	0.036
742	0.034
743	0.033
743	0.032
744	0.031
744	0.03
744	0.029
745	0.028
745	0.027
746	0.027
746	0.026
747	0.026
747	0.027
748	0.027
748	0.026
748	0.026
749	0.025
749	0.025
750	0.025
750	0.025
751	0.025
751	0.025
751	0.025
752	0.024
752	0.023
753	0.022
753	0.022
754	0.021
754	0.021
754	0.021
755	0.02
755	0.02
756	0.02
756	0.019
757	0.018
757	0.019
758	0.019
758	0.019
758	0.018
759	0.018
759	0.016
760	0.015
760	0.013
761	0.012
761	0.011
761	0.01
762	0.009
762	0.008
763	0.008
763	0.006
764	0.005
764	0.004
764	0.003
765	0.002
765	0
766	-0
766	-0.001
767	-0.001
767	-0.003
768	-0.006
768	-0.007
768	-0.008
769	-0.008
769	-0.009
770	-0.01
770	-0.011
771	-0.013
771	-0.015
771	-0.017
772	-0.019
772	-0.021
773	-0.023
773	-0.025
774	-0.028
774	-0.03
775	-0.033
775	-0.035
775	-0.037
776	-0.039
776	-0.041
777	-0.043
777	-0.044
778	-0.046
778	-0.049
778	-0.051
779	-0.051
779	-0.053
780	-0.055
780	-0.058
781	-0.062
781	-0.068
781	-0.074
782	-0.08
782	-0.087
783	-0.094
783	-0.099
784	-0.105
784	-0.11
784	-0.114
785	-0.119
785	-0.123
786	-0.124
786	-0.122
787	-0.117
787	-0.114
788	-0.113
788	-0.114
788	-0.115
789	-0.117
789	-0.117
790	-0.114
790	-0.112
791	-0.113
791	-0.116
791	-0.118
792	-0.113
792	-0.103
793	-0.097
793	-0.093
794	-0.091
794	-0.093
794	-0.098
795	-0.1
795	-0.1
796	-0.101
796	-0.104
797	-0.112
797	-0.124
797	-0.13
798	-0.136
798	-0.139
799	-0.139
799	-0.139
800	-0.138
800	-0.14
801	-0.143
801	-0.143
801	-0.143
802	-0.144
802	-0.145
803	-0.146
803	-0.146
804	-0.145
804	-0.14
804	-0.133
805	-0.129
805	-0.127
806	-0.126
806	-0.125
807	-0.124
807	-0.124
807	-0.125
808	-0.125
808	-0.126
809	-0.131
809	-0.137
810	-0.141
810	-0.143
810	-0.147
811	-0.15
811	-0.15
812	-0.146
812	-0.143
813	-0.143
813	-0.144
813	-0.145
814	-0.146
814	-0.147
815	-0.145
815	-0.142
816	-0.14
816	-0.141
817	-0.146
817	-0.148
817	-0.147
818	-0.144
818	-0.139
819	-0.133
819	-0.129
820	-0.126
820	-0.122
820	-0.117
821	-0.111
821	-0.103
822	-0.095
822	-0.088
823	-0.082
823	-0.077
823	-0.073
824	-0.067
824	-0.061
825	-0.055
825	-0.05
826	-0.045
826	-0.041
826	-0.037
827	-0.034
827	-0.031
828	-0.029
828	-0.027
829	-0.025
829	-0.023
829	-0.023
830	-0.022
830	-0.022
831	-0.02
831	-0.019
832	-0.018
832	-0.017
832	-0.016
833	-0.015
833	-0.013
834	-0.012
834	-0.011
835	-0.01
835	-0.009
835	-0.009
836	-0.008
836	-0.007
837	-0.007
837	-0.006
838	-0.006
838	-0.006
839	-0.006
839	-0.007
839	-0.007
840	-0.007
840	-0.007
841	-0.007
841	-0.007
842	-0.007
842	-0.007
842	-0.007
843	-0.006
843	-0.006
844	-0.006
844	-0.005
845	-0.005
845	-0.004
845	-0.004
846	-0.004
846	-0.004
847	-0.003
847	-0.003
848	-0.003
848	-0.003
848	-0.002
849	-0.002
849	-0.002
850	-0.001
850	-0.001
851	-0.001
851	-0.001
851	-0.001
852	-0.001
852	-0.001
853	-0.001
853	-0.001
854	-0.001
854	-0
854	-0
855	0
855	0
856	0
856	0
857	0
857	-0
857	-0
858	-0
858	-0
859	-0.001
859	-0.001
860	-0.001
860	-0
860	-0
861	0
861	0.001
862	0.001
862	0.001
863	0.001
863	0.002
863	0.002
864	0.002
864	0.002
865	0.003
865	0.003
866	0.004
866	0.005
866	0.006
867	0.007
867	0.008
868	0.008
868	0.009
869	0.01
869	0.01
869	0.011
870	0.011
870	0.011
871	0.011
871	0.011
872	0.01
872	0.01
872	0.009
873	0.009
873	0.008
874	0.007
874	0.007
875	0.006
875	0.006
875	0.005
876	0.005
876	0.004
877	0.004
877	0.004
878	0.003
878	0.003
878	0.003
879	0.003
879	0.003
880	0.003
880	0.003
881	0.003
881	0.003
881	0.003
882	0.003
882	0.004
883	0.004
883	0.004
884	0.004
884	0.004
884	0.004
885	0.005
885	0.005
886	0.005
886	0.006
887	0.006
887	0.007
887	0.007
888	0.007
888	0.007
889	0.007
889	0.007
890	0.007
890	0.007
890	0.006
891	0.006
891	0.006
892	0.007
892	0.007
893	0.008
893	0.009
893	0.009
894	0.01
894	0.011
895	0.011
895	0.011
895	0.011
896	0.011
896	0.011
897	0.01
897	0.009
898	0.008
898	0.007
898	0.006
899	0.005
899	0.004
900	0.003
900	0.002
901	0.002
901	0.001
901	0.001
902	0.001
902	0.001
903	0.001
903	0.001
904	0.001
904	0.002
904	0.002
905	0.002
905	0.002
906	0.002
906	0.002
907	0.002
907	0.002
907	0.002
908	0.002
908	0.003
909	0.003
909	0.004
910	0.004
910	0.005
910	0.005
911	0.005
911	0.006
912	0.006
912	0.006
913	0.006
913	0.006
913	0.006
914	0.006
914	0.007
915	0.007
915	0.007
916	0.007
916	0.007
916	0.007
917	0.007
917	0.007
918	0.007
918	0.006
918	0.006
919	0.006
919	0.005
920	0.005
920	0.005
921	0.006
921	0.006
921	0.007
922	0.007
922	0.008
923	0.009
923	0.009
924	0.01
924	0.011
924	0.011
925	0.012
925	0.012
926	0.013
926	0.013
927	0.013
927	0.013
927	0.013
928	0.013
928	0.014
929	0.014
929	0.014
930	0.014
930	0.013
930	0.013
931	0.013
931	0.012
932	0.012
932	0.011
933	0.011
933	0.01
933	0.009
934	0.008
934	0.008
935	0.007
935	0.007
935	0.006
936	0.005
936	0.005
937	0.004
937	0.004
938	0.004
938	0.004
938	0.004
939	0.004
939	0.004
940	0.004
940	0.004
941	0.005
941	0.005
941	0.006
942	0.007
942	0.008
943	0.009
943	0.01
944	0.011
944	0.012
944	0.013
945	0.014
945	0.015
946	0.016
946	0.016
946	0.017
947	0.018
947	0.018
948	0.019
948	0.019
949	0.019
949	0.019
949	0.019
950	0.019
950	0.019
951	0.019
951	0.019
952	0.018
952	0.018
952	0.018
953	0.018
953	0.018
954	0.018
954	0.018
955	0.018
955	0.018
955	0.018
956	0.019
956	0.019
957	0.019
957	0.019
957	0.019
958	0.019
958	0.019
959	0.02
959	0.02
960	0.02
960	0.02
960	0.02
961	0.02
961	0.02
962	0.02
962	0.021
963	0.021
963	0.022
963	0.022
964	0.022
964	0.022
965	0.022
965	0.023
966	0.023
966	0.023
966	0.022
967	0.022
967	0.02
968	0.019
968	0.018
968	0.017
969	0.015
969	0.014
970	0.013
970	0.012
971	0.011
971	0.01
971	0.009
972	0.009
972	0.009
973	0.009
973	0.009
974	0.009
974	0.009
974	0.01
975	0.01
975	0.011
976	0.011
976	0.012
976	0.012
977	0.011
977	0.011
978	0.011
978	0.01
979	0.009
979	0.009
979	0.008
980	0.007
980	0.006
981	0.005
981	0.004
982	0.004
982	0.004
982	0.003
983	0.003
983	0.003
984	0.003
984	0.002
984	0.003
985	0.002
985	0.002
986	0.001
986	0.001
987	0.001
987	0
987	0
988	0
988	0
989	0
989	0
990	0
990	0.001
990	0.001
991	0.002
991	0.003
992	0.004
992	0.004
992	0.005
993	0.005
993	0.006
994	0.006
994	0.006
995	0.007
995	0.007
995	0.006
996	0.006
996	0.005
997	0.004
997	0.004
997	0.003
998	0.003
998	0.003
999	0.003
999	0.003
1000	0.003
1000	0.004
1000	0.004
1001	0.005
1001	0.006
1002	0.007
1002	0.008
1003	0.009
1003	0.01
1003	0.01
1004	0.01
1004	0.01
1005	0.01
1005	0.01
1005	0.01
1006	0.009
1006	0.009
1007	0.009
1007	0.009
1008	0.009
1008	0.008
1008	0.009
1009	0.009
1009	0.009
1010	0.009
1010	0.01
1010	0.011
1011	0.011
1011	0.012
1012	0.013
1012	0.013
1013	0.014
1013	0.014
1013	0.015
1014	0.015
1014	0.014
1015	0.014
1015	0.014
1016	0.013
1016	0.013
1016	0.012
1017	0.012
1017	0.011
1018	0.011
1018	0.01
1018	0.01
1019	0.009
1019	0.009
1020	0.008
1020	0.008
1021	0.007
1021	0.007
1021	0.006
1022	0.006
1022	0.005
1023	0.005
1023	0.004
1023	0.004
1024	0.003
1024	0.003
1025	0.003
1025	0.003
1026	0.003
1026	0.003
1026	0.004
1027	0.004
1027	0.004
1028	0.005
1028	0.006
1028	0.006
1029	0.006
1029	0.006
1030	0.006
1030	0.006
1031	0.006
1031	0.006
1031	0.006
1032	0.006
1032	0.005
1033	0.005
1033	0.005
1033	0.005
1034	0.004
1034	0.004
1035	0.004
1035	0.003
1036	0.003
1036	0.003
1036	0.004
1037	0.004
1037	0.005
1038	0.005
1038	0.005
1039	0.006
1039	0.007
1039	0.007
1040	0.008
1040	0.009
1041	0.009
1041	0.009
1041	0.009
1042	0.009
1042	0.009
1043	0.009
1043	0.009
1044	0.009
1044	0.008
1044	0.008
1045	0.008
1045	0.007
1046	0.007
1046	0.006
1046	0.006
1047	0.006
1047	0.007
1048	0.007
1048	0.007
1049	0.007
1049	0.007
1049	0.007
1050	0.007
1050	0.007
1051	0.007
1051	0.007
1051	0.007
1052	0.007
1052	0.007
1053	0.007
1053	0.007
1053	0.008
1054	0.008
1054	0.008
1055	0.009
1055	0.009
1056	0.009
1056	0.009
1056	0.009
1057	0.009
1057	0.009
1058	0.009
1058	0.009
1058	0.01
1059	0.01
1059	0.01
1060	0.01
1060	0.01
1061	0.01
1061	0.011
1061	0.012
1062	0.012
1062	0.012
1063	0.011
1063	0.011
1063	0.011
1064	0.011
1064	0.011
1065	0.011
1065	0.011
1066	0.011
1066	0.01
1066	0.01
1067	0.01
1067	0.01
1068	0.01
1068	0.009
1068	0.008
1069	0.008
1069	0.007
1070	0.007
1070	0.006
1071	0.005
1071	0.005
1071	0.005
1072	0.005
1072	0.005
1073	0.005
1073	0.005
1073	0.006
1074	0.006
1074	0.007
1075	0.007
1075	0.007
1076	0.007
1076	0.008
1076	0.008
1077	0.009
1077	0.009
1078	0.01
1078	0.01
1078	0.012
1079	0.012
1079	0.014
1080	0.015
1080	0.016
1080	0.017
1081	0.018
1081	0.019
1082	0.02
1082	0.021
1083	0.023
1083	0.024
1083	0.025
1084	0.026
1084	0.028
1085	0.029
1085	0.03
1085	0.031
1086	0.033
1086	0.033
1087	0.034
1087	0.036
1088	0.036
1088	0.037
1088	0.038
1089	0.038
1089	0.039
1090	0.04
1090	0.041
1090	0.042
1091	0.044
1091	0.046
1092	0.047
1092	0.049
1092	0.051
1093	0.053
1093	0.056
1094	0.059
1094	0.062
1095	0.064
1095	0.067
1095	0.071
1096	0.074
1096	0.079
1097	0.082
1097	0.087
1097	0.092
1098	0.097
1098	0.103
1099	0.109
1099	0.116
1100	0.122
1100	0.13
1100	0.138
1101	0.146
1101	0.157
1102	0.168
1102	0.18
1102	0.193
1103	0.207
1103	0.223
1104	0.24
1104	0.26
1104	0.281
1105	0.304
1105	0.327
1106	0.351
1106	0.381
1107	0.416
1107	0.468
1107	0.533
1108	0.787
1108	2.422
1109	-0
1109	-0
1109	-0
1110	-0
1110	-0
1111	-0
1111	-0
