Data from 17c-2-2a_Absorbance__707__03143.txt Node

Date: Fri Jan 26 14:48:27 CET 2024
User: Marek
Spectrometer: MAYP115816
Trigger mode: 0
Integration Time (sec): 2.000000E-1
Scans to average: 10
Electric dark correction enabled: true
Nonlinearity correction enabled: true
Boxcar width: 5
XAxis mode: Wavelengths
Number of Pixels in Spectrum: 2068
>>>>>Begin Spectral Data<<<<<
199	-1.811
199	-1.665
200	-1.512
200	-1.397
201	-1.323
201	-1.278
202	-1.208
202	-1.151
203	-1.102
203	-1.06
204	-1.033
204	-1.009
205	-0.987
205	-0.978
205	-0.974
206	-0.969
206	-0.964
207	-0.96
207	-0.959
208	-0.958
208	-0.955
209	-0.952
209	-0.949
210	-0.949
210	-0.949
211	-0.949
211	-0.951
212	-0.95
212	-0.95
213	-0.947
213	-0.943
213	-0.943
214	-0.94
214	-0.938
215	-0.933
215	-0.93
216	-0.926
216	-0.924
217	-0.921
217	-0.919
218	-0.915
218	-0.914
219	-0.91
219	-0.909
220	-0.907
220	-0.907
221	-0.904
221	-0.902
221	-0.898
222	-0.892
222	-0.888
223	-0.883
223	-0.88
224	-0.874
224	-0.867
225	-0.86
225	-0.852
226	-0.843
226	-0.832
227	-0.821
227	-0.809
228	-0.793
228	-0.776
229	-0.755
229	-0.733
229	-0.709
230	-0.68
230	-0.648
231	-0.616
231	-0.581
232	-0.542
232	-0.501
233	-0.459
233	-0.416
234	-0.372
234	-0.33
235	-0.285
235	-0.244
236	-0.203
236	-0.164
236	-0.126
237	-0.091
237	-0.058
238	-0.027
238	0
239	0.027
239	0.051
240	0.073
240	0.093
241	0.112
241	0.128
242	0.143
242	0.157
243	0.17
243	0.181
243	0.192
244	0.201
244	0.209
245	0.217
245	0.224
246	0.231
246	0.237
247	0.243
247	0.248
248	0.253
248	0.258
249	0.263
249	0.267
250	0.271
250	0.275
250	0.278
251	0.282
251	0.285
252	0.288
252	0.291
253	0.294
253	0.296
254	0.298
254	0.301
255	0.303
255	0.305
256	0.307
256	0.308
257	0.31
257	0.311
258	0.313
258	0.314
258	0.315
259	0.315
259	0.316
260	0.317
260	0.317
261	0.317
261	0.318
262	0.318
262	0.318
263	0.318
263	0.318
264	0.318
264	0.318
265	0.317
265	0.317
265	0.316
266	0.315
266	0.315
267	0.314
267	0.313
268	0.312
268	0.311
269	0.309
269	0.308
270	0.307
270	0.305
271	0.304
271	0.303
272	0.301
272	0.299
272	0.298
273	0.296
273	0.294
274	0.293
274	0.291
275	0.289
275	0.288
276	0.286
276	0.284
277	0.282
277	0.28
278	0.278
278	0.276
278	0.274
279	0.271
279	0.27
280	0.267
280	0.266
281	0.264
281	0.262
282	0.26
282	0.259
283	0.257
283	0.256
284	0.254
284	0.253
285	0.252
285	0.25
285	0.249
286	0.247
286	0.246
287	0.244
287	0.243
288	0.241
288	0.24
289	0.239
289	0.237
290	0.236
290	0.235
291	0.233
291	0.232
292	0.231
292	0.23
292	0.229
293	0.228
293	0.227
294	0.226
294	0.225
295	0.224
295	0.223
296	0.222
296	0.221
297	0.221
297	0.22
298	0.22
298	0.219
298	0.218
299	0.218
299	0.217
300	0.217
300	0.216
301	0.215
301	0.215
302	0.214
302	0.214
303	0.213
303	0.212
304	0.212
304	0.211
305	0.21
305	0.21
305	0.209
306	0.209
306	0.208
307	0.208
307	0.207
308	0.206
308	0.206
309	0.205
309	0.205
310	0.204
310	0.203
311	0.203
311	0.202
311	0.202
312	0.201
312	0.201
313	0.2
313	0.199
314	0.199
314	0.198
315	0.197
315	0.197
316	0.196
316	0.196
317	0.195
317	0.194
318	0.194
318	0.193
318	0.193
319	0.192
319	0.191
320	0.191
320	0.19
321	0.189
321	0.189
322	0.188
322	0.188
323	0.187
323	0.186
324	0.185
324	0.185
324	0.184
325	0.184
325	0.183
326	0.183
326	0.182
327	0.182
327	0.181
328	0.181
328	0.18
329	0.18
329	0.179
330	0.179
330	0.178
330	0.177
331	0.177
331	0.176
332	0.176
332	0.175
333	0.175
333	0.174
334	0.174
334	0.173
335	0.173
335	0.172
336	0.172
336	0.171
336	0.171
337	0.17
337	0.17
338	0.169
338	0.168
339	0.168
339	0.168
340	0.167
340	0.167
341	0.166
341	0.166
342	0.165
342	0.165
342	0.165
343	0.164
343	0.164
344	0.163
344	0.163
345	0.162
345	0.162
346	0.162
346	0.161
347	0.161
347	0.16
348	0.16
348	0.159
348	0.159
349	0.159
349	0.158
350	0.158
350	0.157
351	0.157
351	0.157
352	0.156
352	0.156
353	0.156
353	0.155
354	0.155
354	0.154
354	0.154
355	0.154
355	0.153
356	0.153
356	0.152
357	0.152
357	0.152
358	0.152
358	0.152
359	0.152
359	0.152
360	0.152
360	0.152
360	0.153
361	0.153
361	0.153
362	0.153
362	0.153
363	0.153
363	0.153
364	0.152
364	0.152
365	0.152
365	0.152
366	0.152
366	0.152
366	0.152
367	0.151
367	0.151
368	0.151
368	0.151
369	0.151
369	0.151
370	0.15
370	0.15
371	0.15
371	0.149
372	0.149
372	0.149
372	0.149
373	0.149
373	0.149
374	0.149
374	0.149
375	0.148
375	0.148
376	0.148
376	0.148
377	0.149
377	0.149
378	0.149
378	0.149
378	0.149
379	0.149
379	0.149
380	0.149
380	0.149
381	0.148
381	0.148
382	0.148
382	0.147
383	0.147
383	0.147
383	0.147
384	0.146
384	0.146
385	0.146
385	0.146
386	0.146
386	0.146
387	0.146
387	0.145
388	0.145
388	0.145
389	0.145
389	0.145
389	0.145
390	0.145
390	0.145
391	0.145
391	0.146
392	0.146
392	0.146
393	0.146
393	0.145
394	0.145
394	0.145
394	0.145
395	0.144
395	0.144
396	0.144
396	0.143
397	0.143
397	0.143
398	0.143
398	0.143
399	0.143
399	0.143
400	0.143
400	0.143
400	0.142
401	0.142
401	0.141
402	0.141
402	0.14
403	0.14
403	0.14
404	0.14
404	0.14
405	0.139
405	0.139
405	0.139
406	0.139
406	0.139
407	0.139
407	0.139
408	0.138
408	0.138
409	0.138
409	0.138
410	0.138
410	0.138
411	0.138
411	0.138
411	0.138
412	0.137
412	0.137
413	0.137
413	0.137
414	0.137
414	0.136
415	0.136
415	0.136
416	0.135
416	0.135
416	0.134
417	0.134
417	0.134
418	0.134
418	0.134
419	0.134
419	0.134
420	0.135
420	0.135
421	0.135
421	0.136
421	0.136
422	0.136
422	0.136
423	0.136
423	0.136
424	0.136
424	0.136
425	0.135
425	0.135
426	0.135
426	0.134
427	0.134
427	0.134
427	0.134
428	0.134
428	0.134
429	0.135
429	0.135
430	0.135
430	0.135
431	0.135
431	0.135
432	0.134
432	0.134
432	0.133
433	0.133
433	0.132
434	0.132
434	0.132
435	0.132
435	0.131
436	0.131
436	0.132
437	0.132
437	0.132
437	0.132
438	0.131
438	0.131
439	0.131
439	0.13
440	0.13
440	0.13
441	0.129
441	0.129
442	0.129
442	0.13
442	0.13
443	0.13
443	0.13
444	0.13
444	0.131
445	0.131
445	0.131
446	0.131
446	0.131
447	0.131
447	0.131
447	0.131
448	0.131
448	0.131
449	0.131
449	0.131
450	0.13
450	0.13
451	0.13
451	0.13
452	0.13
452	0.129
452	0.129
453	0.128
453	0.128
454	0.127
454	0.127
455	0.127
455	0.127
456	0.127
456	0.126
457	0.126
457	0.126
458	0.126
458	0.127
458	0.127
459	0.127
459	0.127
460	0.127
460	0.127
461	0.127
461	0.127
462	0.127
462	0.127
463	0.127
463	0.127
463	0.127
464	0.128
464	0.127
465	0.128
465	0.128
466	0.128
466	0.128
467	0.128
467	0.128
467	0.127
468	0.126
468	0.126
469	0.125
469	0.124
470	0.124
470	0.124
471	0.124
471	0.124
472	0.124
472	0.124
472	0.125
473	0.125
473	0.126
474	0.127
474	0.128
475	0.129
475	0.129
476	0.129
476	0.129
477	0.13
477	0.13
477	0.13
478	0.13
478	0.13
479	0.131
479	0.131
480	0.131
480	0.132
481	0.133
481	0.133
482	0.134
482	0.135
482	0.136
483	0.137
483	0.139
484	0.141
484	0.142
485	0.143
485	0.145
486	0.145
486	0.146
487	0.146
487	0.147
487	0.147
488	0.147
488	0.146
489	0.145
489	0.145
490	0.145
490	0.144
491	0.145
491	0.145
492	0.146
492	0.147
492	0.147
493	0.148
493	0.149
494	0.151
494	0.152
495	0.154
495	0.155
496	0.156
496	0.157
496	0.158
497	0.159
497	0.16
498	0.161
498	0.162
499	0.162
499	0.163
500	0.163
500	0.164
501	0.165
501	0.166
501	0.167
502	0.169
502	0.169
503	0.171
503	0.172
504	0.173
504	0.174
505	0.175
505	0.176
506	0.177
506	0.177
506	0.178
507	0.179
507	0.179
508	0.18
508	0.181
509	0.182
509	0.183
510	0.184
510	0.185
511	0.185
511	0.185
511	0.186
512	0.186
512	0.187
513	0.187
513	0.187
514	0.187
514	0.187
515	0.186
515	0.186
515	0.186
516	0.186
516	0.187
517	0.187
517	0.188
518	0.189
518	0.189
519	0.189
519	0.188
520	0.187
520	0.186
520	0.185
521	0.183
521	0.182
522	0.18
522	0.178
523	0.177
523	0.177
524	0.177
524	0.178
524	0.179
525	0.18
525	0.181
526	0.183
526	0.184
527	0.186
527	0.187
528	0.189
528	0.19
529	0.19
529	0.19
529	0.19
530	0.19
530	0.189
531	0.189
531	0.188
532	0.187
532	0.187
533	0.186
533	0.185
533	0.184
534	0.183
534	0.182
535	0.181
535	0.18
536	0.179
536	0.178
537	0.177
537	0.176
538	0.175
538	0.173
538	0.172
539	0.171
539	0.171
540	0.17
540	0.168
541	0.167
541	0.165
542	0.164
542	0.163
542	0.162
543	0.161
543	0.159
544	0.157
544	0.156
545	0.155
545	0.154
546	0.154
546	0.153
547	0.151
547	0.149
547	0.147
548	0.145
548	0.144
549	0.142
549	0.141
550	0.14
550	0.138
551	0.136
551	0.134
551	0.133
552	0.131
552	0.13
553	0.129
553	0.128
554	0.127
554	0.125
555	0.123
555	0.121
556	0.119
556	0.116
556	0.114
557	0.112
557	0.111
558	0.109
558	0.108
559	0.107
559	0.105
560	0.104
560	0.103
560	0.103
561	0.103
561	0.102
562	0.101
562	0.1
563	0.098
563	0.096
564	0.094
564	0.093
564	0.091
565	0.089
565	0.088
566	0.086
566	0.085
567	0.084
567	0.084
568	0.084
568	0.084
568	0.084
569	0.085
569	0.086
570	0.086
570	0.086
571	0.086
571	0.087
572	0.087
572	0.086
573	0.086
573	0.085
573	0.084
574	0.084
574	0.083
575	0.083
575	0.083
576	0.084
576	0.082
577	0.081
577	0.08
577	0.08
578	0.079
578	0.079
579	0.079
579	0.08
580	0.079
580	0.076
581	0.074
581	0.073
581	0.072
582	0.072
582	0.072
583	0.072
583	0.071
584	0.068
584	0.066
585	0.065
585	0.065
585	0.065
586	0.065
586	0.065
587	0.064
587	0.062
588	0.061
588	0.059
589	0.059
589	0.058
590	0.058
590	0.057
590	0.058
591	0.058
591	0.058
592	0.057
592	0.057
593	0.056
593	0.056
594	0.055
594	0.054
594	0.053
595	0.053
595	0.051
596	0.05
596	0.05
597	0.051
597	0.052
598	0.052
598	0.053
598	0.054
599	0.054
599	0.054
600	0.054
600	0.053
601	0.053
601	0.052
602	0.051
602	0.051
602	0.05
603	0.05
603	0.051
604	0.052
604	0.052
605	0.053
605	0.055
606	0.055
606	0.054
606	0.054
607	0.054
607	0.053
608	0.053
608	0.052
609	0.051
609	0.05
610	0.049
610	0.048
610	0.048
611	0.048
611	0.049
612	0.05
612	0.051
613	0.051
613	0.053
614	0.053
614	0.052
614	0.053
615	0.052
615	0.052
616	0.052
616	0.052
617	0.052
617	0.051
618	0.05
618	0.05
618	0.05
619	0.05
619	0.05
620	0.051
620	0.051
621	0.051
621	0.051
622	0.051
622	0.052
622	0.052
623	0.052
623	0.052
624	0.053
624	0.053
625	0.053
625	0.054
626	0.054
626	0.054
626	0.055
627	0.056
627	0.056
628	0.057
628	0.057
629	0.058
629	0.058
630	0.058
630	0.057
630	0.058
631	0.058
631	0.058
632	0.058
632	0.058
633	0.059
633	0.059
634	0.06
634	0.062
634	0.063
635	0.065
635	0.066
636	0.067
636	0.068
637	0.069
637	0.069
638	0.07
638	0.072
638	0.073
639	0.074
639	0.074
640	0.076
640	0.077
641	0.078
641	0.079
642	0.08
642	0.082
642	0.083
643	0.084
643	0.085
644	0.086
644	0.088
645	0.089
645	0.091
646	0.093
646	0.095
646	0.098
647	0.1
647	0.103
648	0.105
648	0.107
649	0.109
649	0.112
650	0.114
650	0.117
650	0.119
651	0.121
651	0.123
652	0.124
652	0.125
653	0.127
653	0.134
653	0.14
654	0.113
654	0.094
655	0.096
655	0.098
656	0.1
656	0.101
657	0.103
657	0.105
657	0.107
658	0.105
658	0.1
659	0.125
659	0.159
660	0.164
660	0.166
661	0.167
661	0.169
661	0.171
662	0.173
662	0.175
663	0.176
663	0.178
664	0.18
664	0.181
665	0.183
665	0.185
665	0.187
666	0.189
666	0.191
667	0.193
667	0.195
668	0.198
668	0.2
669	0.202
669	0.204
669	0.207
670	0.21
670	0.212
671	0.214
671	0.216
672	0.217
672	0.219
672	0.22
673	0.222
673	0.223
674	0.225
674	0.226
675	0.228
675	0.23
676	0.232
676	0.234
676	0.236
677	0.238
677	0.24
678	0.242
678	0.243
679	0.244
679	0.246
680	0.247
680	0.248
680	0.249
681	0.25
681	0.251
682	0.251
682	0.252
683	0.253
683	0.255
684	0.256
684	0.256
684	0.255
685	0.255
685	0.255
686	0.254
686	0.254
687	0.253
687	0.252
687	0.252
688	0.251
688	0.25
689	0.251
689	0.252
690	0.252
690	0.253
691	0.253
691	0.254
691	0.254
692	0.254
692	0.253
693	0.253
693	0.254
694	0.253
694	0.251
695	0.251
695	0.251
695	0.251
696	0.249
696	0.248
697	0.247
697	0.246
698	0.244
698	0.242
698	0.24
699	0.239
699	0.236
700	0.233
700	0.232
701	0.23
701	0.229
702	0.227
702	0.226
702	0.224
703	0.223
703	0.221
704	0.22
704	0.219
705	0.218
705	0.217
705	0.216
706	0.215
706	0.214
707	0.213
707	0.212
708	0.21
708	0.209
709	0.208
709	0.206
709	0.203
710	0.201
710	0.199
711	0.197
711	0.195
712	0.194
712	0.192
713	0.19
713	0.189
713	0.187
714	0.185
714	0.183
715	0.182
715	0.18
716	0.177
716	0.176
716	0.174
717	0.171
717	0.169
718	0.166
718	0.164
719	0.162
719	0.16
720	0.158
720	0.155
720	0.153
721	0.15
721	0.147
722	0.145
722	0.142
723	0.14
723	0.139
723	0.136
724	0.135
724	0.133
725	0.131
725	0.13
726	0.129
726	0.128
727	0.127
727	0.126
727	0.125
728	0.123
728	0.122
729	0.122
729	0.12
730	0.119
730	0.117
730	0.116
731	0.114
731	0.113
732	0.112
732	0.11
733	0.109
733	0.108
734	0.106
734	0.105
734	0.104
735	0.103
735	0.102
736	0.1
736	0.099
737	0.097
737	0.096
737	0.095
738	0.093
738	0.09
739	0.088
739	0.086
740	0.083
740	0.081
741	0.08
741	0.077
741	0.075
742	0.071
742	0.069
743	0.067
743	0.065
744	0.063
744	0.062
744	0.06
745	0.059
745	0.057
746	0.056
746	0.055
747	0.054
747	0.055
748	0.055
748	0.055
748	0.054
749	0.054
749	0.053
750	0.053
750	0.053
751	0.053
751	0.053
751	0.053
752	0.052
752	0.051
753	0.05
753	0.049
754	0.048
754	0.047
754	0.046
755	0.046
755	0.046
756	0.046
756	0.044
757	0.044
757	0.044
758	0.044
758	0.043
758	0.043
759	0.043
759	0.041
760	0.039
760	0.037
761	0.035
761	0.034
761	0.033
762	0.031
762	0.03
763	0.029
763	0.027
764	0.024
764	0.023
764	0.021
765	0.02
765	0.018
766	0.017
766	0.016
767	0.015
767	0.013
768	0.011
768	0.009
768	0.008
769	0.007
769	0.006
770	0.004
770	0.003
771	0.001
771	-0.002
771	-0.004
772	-0.007
772	-0.009
773	-0.011
773	-0.013
774	-0.016
774	-0.019
775	-0.021
775	-0.023
775	-0.026
776	-0.028
776	-0.03
777	-0.032
777	-0.034
778	-0.036
778	-0.039
778	-0.041
779	-0.042
779	-0.044
780	-0.047
780	-0.05
781	-0.053
781	-0.058
781	-0.063
782	-0.07
782	-0.077
783	-0.084
783	-0.09
784	-0.097
784	-0.102
784	-0.107
785	-0.113
785	-0.119
786	-0.121
786	-0.12
787	-0.117
787	-0.113
788	-0.113
788	-0.113
788	-0.114
789	-0.116
789	-0.116
790	-0.113
790	-0.112
791	-0.113
791	-0.115
791	-0.118
792	-0.113
792	-0.102
793	-0.096
793	-0.092
794	-0.091
794	-0.093
794	-0.097
795	-0.1
795	-0.1
796	-0.101
796	-0.103
797	-0.112
797	-0.123
797	-0.13
798	-0.135
798	-0.138
799	-0.139
799	-0.138
800	-0.138
800	-0.139
801	-0.142
801	-0.143
801	-0.143
802	-0.144
802	-0.145
803	-0.145
803	-0.145
804	-0.144
804	-0.139
804	-0.133
805	-0.129
805	-0.127
806	-0.125
806	-0.124
807	-0.124
807	-0.124
807	-0.125
808	-0.125
808	-0.126
809	-0.131
809	-0.137
810	-0.14
810	-0.143
810	-0.146
811	-0.149
811	-0.15
812	-0.146
812	-0.143
813	-0.143
813	-0.144
813	-0.145
814	-0.146
814	-0.146
815	-0.144
815	-0.141
816	-0.14
816	-0.141
817	-0.145
817	-0.149
817	-0.149
818	-0.148
818	-0.144
819	-0.138
819	-0.135
820	-0.132
820	-0.13
820	-0.126
821	-0.12
821	-0.112
822	-0.104
822	-0.096
823	-0.088
823	-0.082
823	-0.078
824	-0.072
824	-0.065
825	-0.058
825	-0.051
826	-0.045
826	-0.041
826	-0.037
827	-0.033
827	-0.029
828	-0.026
828	-0.024
829	-0.022
829	-0.02
829	-0.02
830	-0.019
830	-0.019
831	-0.018
831	-0.017
832	-0.017
832	-0.016
832	-0.015
833	-0.014
833	-0.012
834	-0.011
834	-0.009
835	-0.008
835	-0.007
835	-0.006
836	-0.005
836	-0.004
837	-0.003
837	-0.002
838	-0.002
838	-0.002
839	-0.002
839	-0.002
839	-0.003
840	-0.003
840	-0.004
841	-0.004
841	-0.004
842	-0.004
842	-0.003
842	-0.003
843	-0.003
843	-0.003
844	-0.002
844	-0.002
845	-0.001
845	-0
845	0
846	0.001
846	0.001
847	0.001
847	0.001
848	0.002
848	0.002
848	0.003
849	0.003
849	0.004
850	0.004
850	0.005
851	0.005
851	0.006
851	0.006
852	0.006
852	0.006
853	0.006
853	0.006
854	0.007
854	0.007
854	0.007
855	0.007
855	0.007
856	0.007
856	0.007
857	0.007
857	0.006
857	0.006
858	0.006
858	0.006
859	0.005
859	0.005
860	0.005
860	0.005
860	0.005
861	0.005
861	0.005
862	0.005
862	0.006
863	0.006
863	0.007
863	0.008
864	0.009
864	0.01
865	0.011
865	0.012
866	0.013
866	0.014
866	0.015
867	0.016
867	0.017
868	0.017
868	0.017
869	0.018
869	0.018
869	0.018
870	0.018
870	0.017
871	0.017
871	0.017
872	0.017
872	0.017
872	0.016
873	0.016
873	0.015
874	0.015
874	0.014
875	0.013
875	0.012
875	0.011
876	0.011
876	0.01
877	0.009
877	0.008
878	0.008
878	0.007
878	0.007
879	0.007
879	0.007
880	0.007
880	0.008
881	0.008
881	0.008
881	0.009
882	0.009
882	0.01
883	0.01
883	0.011
884	0.012
884	0.012
884	0.013
885	0.013
885	0.014
886	0.014
886	0.015
887	0.016
887	0.016
887	0.016
888	0.016
888	0.016
889	0.016
889	0.016
890	0.016
890	0.015
890	0.015
891	0.014
891	0.014
892	0.014
892	0.014
893	0.015
893	0.015
893	0.016
894	0.017
894	0.017
895	0.017
895	0.017
895	0.017
896	0.017
896	0.016
897	0.015
897	0.014
898	0.013
898	0.012
898	0.011
899	0.01
899	0.009
900	0.008
900	0.007
901	0.007
901	0.006
901	0.006
902	0.006
902	0.007
903	0.007
903	0.007
904	0.008
904	0.008
904	0.008
905	0.009
905	0.009
906	0.009
906	0.009
907	0.008
907	0.008
907	0.008
908	0.007
908	0.008
909	0.008
909	0.009
910	0.01
910	0.01
910	0.011
911	0.011
911	0.012
912	0.012
912	0.012
913	0.013
913	0.012
913	0.012
914	0.012
914	0.012
915	0.011
915	0.012
916	0.012
916	0.012
916	0.011
917	0.011
917	0.011
918	0.011
918	0.011
918	0.01
919	0.01
919	0.01
920	0.009
920	0.009
921	0.009
921	0.009
921	0.01
922	0.01
922	0.011
923	0.011
923	0.012
924	0.012
924	0.013
924	0.014
925	0.014
925	0.015
926	0.015
926	0.016
927	0.016
927	0.016
927	0.017
928	0.017
928	0.017
929	0.018
929	0.018
930	0.017
930	0.017
930	0.017
931	0.016
931	0.016
932	0.015
932	0.015
933	0.014
933	0.013
933	0.012
934	0.011
934	0.011
935	0.01
935	0.009
935	0.009
936	0.008
936	0.008
937	0.007
937	0.007
938	0.007
938	0.007
938	0.007
939	0.007
939	0.007
940	0.008
940	0.008
941	0.009
941	0.009
941	0.01
942	0.011
942	0.012
943	0.012
943	0.013
944	0.013
944	0.014
944	0.015
945	0.016
945	0.017
946	0.017
946	0.018
946	0.019
947	0.02
947	0.02
948	0.02
948	0.021
949	0.02
949	0.02
949	0.02
950	0.02
950	0.019
951	0.019
951	0.018
952	0.018
952	0.018
952	0.018
953	0.018
953	0.018
954	0.017
954	0.017
955	0.017
955	0.018
955	0.018
956	0.018
956	0.018
957	0.018
957	0.018
957	0.018
958	0.018
958	0.019
959	0.019
959	0.02
960	0.02
960	0.021
960	0.021
961	0.021
961	0.022
962	0.023
962	0.023
963	0.024
963	0.024
963	0.024
964	0.025
964	0.025
965	0.025
965	0.025
966	0.025
966	0.025
966	0.024
967	0.024
967	0.023
968	0.023
968	0.022
968	0.021
969	0.02
969	0.019
970	0.018
970	0.017
971	0.016
971	0.015
971	0.014
972	0.014
972	0.013
973	0.013
973	0.012
974	0.012
974	0.012
974	0.012
975	0.013
975	0.013
976	0.013
976	0.014
976	0.014
977	0.014
977	0.015
978	0.015
978	0.015
979	0.015
979	0.014
979	0.014
980	0.013
980	0.013
981	0.012
981	0.012
982	0.011
982	0.011
982	0.01
983	0.01
983	0.009
984	0.009
984	0.008
984	0.008
985	0.008
985	0.007
986	0.007
986	0.006
987	0.006
987	0.006
987	0.006
988	0.007
988	0.007
989	0.007
989	0.008
990	0.008
990	0.009
990	0.01
991	0.011
991	0.012
992	0.013
992	0.013
992	0.014
993	0.014
993	0.014
994	0.014
994	0.014
995	0.013
995	0.013
995	0.013
996	0.012
996	0.011
997	0.01
997	0.01
997	0.009
998	0.009
998	0.009
999	0.009
999	0.009
1000	0.01
1000	0.01
1000	0.01
1001	0.011
1001	0.012
1002	0.012
1002	0.013
1003	0.013
1003	0.014
1003	0.014
1004	0.014
1004	0.014
1005	0.014
1005	0.014
1005	0.014
1006	0.013
1006	0.013
1007	0.013
1007	0.013
1008	0.013
1008	0.013
1008	0.013
1009	0.013
1009	0.013
1010	0.014
1010	0.014
1010	0.014
1011	0.015
1011	0.016
1012	0.016
1012	0.016
1013	0.017
1013	0.017
1013	0.018
1014	0.018
1014	0.018
1015	0.017
1015	0.017
1016	0.017
1016	0.016
1016	0.015
1017	0.015
1017	0.014
1018	0.014
1018	0.013
1018	0.012
1019	0.011
1019	0.01
1020	0.01
1020	0.009
1021	0.009
1021	0.008
1021	0.007
1022	0.007
1022	0.007
1023	0.007
1023	0.006
1023	0.006
1024	0.006
1024	0.006
1025	0.006
1025	0.006
1026	0.006
1026	0.006
1026	0.006
1027	0.006
1027	0.006
1028	0.007
1028	0.007
1028	0.007
1029	0.008
1029	0.008
1030	0.008
1030	0.008
1031	0.009
1031	0.009
1031	0.009
1032	0.009
1032	0.009
1033	0.009
1033	0.009
1033	0.009
1034	0.008
1034	0.008
1035	0.008
1035	0.008
1036	0.008
1036	0.008
1036	0.008
1037	0.008
1037	0.009
1038	0.009
1038	0.009
1039	0.01
1039	0.011
1039	0.011
1040	0.011
1040	0.012
1041	0.012
1041	0.012
1041	0.013
1042	0.013
1042	0.013
1043	0.013
1043	0.013
1044	0.013
1044	0.013
1044	0.013
1045	0.013
1045	0.013
1046	0.012
1046	0.012
1046	0.012
1047	0.012
1047	0.012
1048	0.012
1048	0.011
1049	0.01
1049	0.01
1049	0.009
1050	0.009
1050	0.009
1051	0.009
1051	0.009
1051	0.009
1052	0.008
1052	0.008
1053	0.008
1053	0.009
1053	0.009
1054	0.009
1054	0.009
1055	0.01
1055	0.01
1056	0.01
1056	0.01
1056	0.01
1057	0.01
1057	0.011
1058	0.011
1058	0.012
1058	0.012
1059	0.013
1059	0.013
1060	0.014
1060	0.014
1061	0.015
1061	0.016
1061	0.017
1062	0.017
1062	0.016
1063	0.016
1063	0.016
1063	0.016
1064	0.016
1064	0.016
1065	0.016
1065	0.015
1066	0.015
1066	0.015
1066	0.015
1067	0.015
1067	0.016
1068	0.015
1068	0.014
1068	0.014
1069	0.013
1069	0.013
1070	0.012
1070	0.012
1071	0.011
1071	0.011
1071	0.011
1072	0.01
1072	0.01
1073	0.01
1073	0.011
1073	0.011
1074	0.011
1074	0.011
1075	0.011
1075	0.011
1076	0.01
1076	0.011
1076	0.011
1077	0.012
1077	0.012
1078	0.013
1078	0.014
1078	0.015
1079	0.016
1079	0.018
1080	0.02
1080	0.021
1080	0.022
1081	0.024
1081	0.026
1082	0.027
1082	0.028
1083	0.029
1083	0.031
1083	0.032
1084	0.033
1084	0.035
1085	0.036
1085	0.037
1085	0.038
1086	0.04
1086	0.041
1087	0.042
1087	0.044
1088	0.045
1088	0.046
1088	0.048
1089	0.048
1089	0.05
1090	0.052
1090	0.053
1090	0.055
1091	0.056
1091	0.059
1092	0.061
1092	0.063
1092	0.065
1093	0.068
1093	0.071
1094	0.074
1094	0.077
1095	0.08
1095	0.083
1095	0.089
1096	0.093
1096	0.098
1097	0.104
1097	0.109
1097	0.115
1098	0.122
1098	0.129
1099	0.137
1099	0.145
1100	0.154
1100	0.163
1100	0.173
1101	0.184
1101	0.195
1102	0.209
1102	0.223
1102	0.239
1103	0.256
1103	0.275
1104	0.298
1104	0.323
1104	0.352
1105	0.382
1105	0.411
1106	0.446
1106	0.488
1107	0.541
1107	0.618
1107	0.735
1108	1.417
1108	-0
1109	-0
1109	-0
1109	-0
1110	-0
1110	-0
1111	-0
1111	-0
