Data from 17c-2-2a_Absorbance__1827__04263.txt Node

Date: Fri Jan 26 15:25:47 CET 2024
User: Marek
Spectrometer: MAYP115816
Trigger mode: 0
Integration Time (sec): 2.000000E-1
Scans to average: 10
Electric dark correction enabled: true
Nonlinearity correction enabled: true
Boxcar width: 5
XAxis mode: Wavelengths
Number of Pixels in Spectrum: 2068
>>>>>Begin Spectral Data<<<<<
199	-1.844
199	-1.699
200	-1.545
200	-1.429
201	-1.355
201	-1.309
202	-1.238
202	-1.18
203	-1.132
203	-1.089
204	-1.062
204	-1.038
205	-1.016
205	-1.005
205	-1.002
206	-0.997
206	-0.992
207	-0.988
207	-0.987
208	-0.986
208	-0.983
209	-0.981
209	-0.977
210	-0.977
210	-0.977
211	-0.978
211	-0.979
212	-0.979
212	-0.978
213	-0.976
213	-0.972
213	-0.971
214	-0.968
214	-0.966
215	-0.962
215	-0.959
216	-0.955
216	-0.953
217	-0.95
217	-0.947
218	-0.943
218	-0.941
219	-0.938
219	-0.937
220	-0.935
220	-0.935
221	-0.932
221	-0.93
221	-0.925
222	-0.92
222	-0.916
223	-0.912
223	-0.908
224	-0.902
224	-0.895
225	-0.887
225	-0.879
226	-0.87
226	-0.858
227	-0.847
227	-0.835
228	-0.818
228	-0.8
229	-0.78
229	-0.757
229	-0.731
230	-0.702
230	-0.67
231	-0.637
231	-0.6
232	-0.561
232	-0.518
233	-0.474
233	-0.429
234	-0.383
234	-0.338
235	-0.293
235	-0.248
236	-0.203
236	-0.161
236	-0.119
237	-0.08
237	-0.044
238	-0.01
238	0.023
239	0.054
239	0.082
240	0.108
240	0.132
241	0.154
241	0.174
242	0.192
242	0.209
243	0.225
243	0.239
243	0.252
244	0.263
244	0.273
245	0.283
245	0.292
246	0.3
246	0.308
247	0.315
247	0.321
248	0.328
248	0.334
249	0.339
249	0.344
250	0.349
250	0.353
250	0.358
251	0.362
251	0.365
252	0.369
252	0.373
253	0.376
253	0.378
254	0.381
254	0.384
255	0.386
255	0.389
256	0.391
256	0.393
257	0.395
257	0.397
258	0.398
258	0.399
258	0.401
259	0.402
259	0.403
260	0.403
260	0.404
261	0.404
261	0.405
262	0.405
262	0.405
263	0.405
263	0.405
264	0.405
264	0.405
265	0.405
265	0.404
265	0.404
266	0.403
266	0.402
267	0.401
267	0.4
268	0.399
268	0.398
269	0.397
269	0.395
270	0.393
270	0.392
271	0.39
271	0.389
272	0.388
272	0.386
272	0.384
273	0.383
273	0.381
274	0.379
274	0.377
275	0.375
275	0.374
276	0.372
276	0.37
277	0.368
277	0.365
278	0.363
278	0.361
278	0.358
279	0.356
279	0.354
280	0.352
280	0.35
281	0.348
281	0.346
282	0.344
282	0.342
283	0.341
283	0.339
284	0.338
284	0.336
285	0.334
285	0.333
285	0.331
286	0.329
286	0.328
287	0.326
287	0.324
288	0.323
288	0.321
289	0.32
289	0.318
290	0.317
290	0.315
291	0.314
291	0.313
292	0.311
292	0.31
292	0.309
293	0.308
293	0.306
294	0.305
294	0.304
295	0.303
295	0.302
296	0.301
296	0.3
297	0.299
297	0.298
298	0.297
298	0.296
298	0.295
299	0.294
299	0.294
300	0.293
300	0.292
301	0.291
301	0.29
302	0.29
302	0.289
303	0.288
303	0.287
304	0.286
304	0.286
305	0.285
305	0.284
305	0.283
306	0.282
306	0.282
307	0.281
307	0.28
308	0.279
308	0.278
309	0.278
309	0.277
310	0.276
310	0.275
311	0.274
311	0.274
311	0.273
312	0.272
312	0.271
313	0.271
313	0.27
314	0.269
314	0.268
315	0.267
315	0.266
316	0.266
316	0.265
317	0.264
317	0.263
318	0.262
318	0.262
318	0.261
319	0.26
319	0.259
320	0.259
320	0.258
321	0.257
321	0.256
322	0.255
322	0.254
323	0.254
323	0.253
324	0.252
324	0.251
324	0.25
325	0.25
325	0.249
326	0.248
326	0.248
327	0.247
327	0.246
328	0.245
328	0.245
329	0.244
329	0.243
330	0.242
330	0.241
330	0.241
331	0.24
331	0.239
332	0.238
332	0.238
333	0.237
333	0.237
334	0.236
334	0.235
335	0.235
335	0.234
336	0.234
336	0.233
336	0.232
337	0.232
337	0.231
338	0.231
338	0.23
339	0.23
339	0.229
340	0.229
340	0.228
341	0.227
341	0.227
342	0.226
342	0.226
342	0.225
343	0.224
343	0.224
344	0.223
344	0.223
345	0.222
345	0.222
346	0.221
346	0.221
347	0.22
347	0.22
348	0.219
348	0.219
348	0.219
349	0.218
349	0.217
350	0.217
350	0.216
351	0.216
351	0.215
352	0.214
352	0.214
353	0.214
353	0.213
354	0.213
354	0.212
354	0.211
355	0.211
355	0.21
356	0.21
356	0.209
357	0.209
357	0.209
358	0.208
358	0.208
359	0.209
359	0.209
360	0.209
360	0.209
360	0.209
361	0.209
361	0.21
362	0.21
362	0.21
363	0.21
363	0.209
364	0.209
364	0.209
365	0.209
365	0.209
366	0.209
366	0.209
366	0.208
367	0.208
367	0.208
368	0.208
368	0.207
369	0.207
369	0.207
370	0.206
370	0.206
371	0.205
371	0.205
372	0.204
372	0.204
372	0.204
373	0.204
373	0.204
374	0.204
374	0.204
375	0.203
375	0.203
376	0.203
376	0.203
377	0.204
377	0.204
378	0.204
378	0.204
378	0.204
379	0.204
379	0.203
380	0.203
380	0.203
381	0.203
381	0.203
382	0.202
382	0.202
383	0.201
383	0.201
383	0.201
384	0.2
384	0.2
385	0.2
385	0.2
386	0.199
386	0.199
387	0.199
387	0.199
388	0.199
388	0.199
389	0.199
389	0.198
389	0.198
390	0.198
390	0.198
391	0.198
391	0.198
392	0.198
392	0.198
393	0.198
393	0.198
394	0.198
394	0.198
394	0.198
395	0.197
395	0.197
396	0.197
396	0.196
397	0.196
397	0.196
398	0.196
398	0.196
399	0.196
399	0.195
400	0.195
400	0.195
400	0.195
401	0.194
401	0.193
402	0.193
402	0.193
403	0.192
403	0.192
404	0.192
404	0.192
405	0.192
405	0.191
405	0.191
406	0.191
406	0.19
407	0.19
407	0.19
408	0.19
408	0.189
409	0.189
409	0.189
410	0.189
410	0.189
411	0.188
411	0.188
411	0.188
412	0.188
412	0.187
413	0.187
413	0.187
414	0.187
414	0.186
415	0.186
415	0.185
416	0.185
416	0.185
416	0.184
417	0.184
417	0.184
418	0.184
418	0.184
419	0.184
419	0.184
420	0.185
420	0.185
421	0.185
421	0.185
421	0.186
422	0.186
422	0.186
423	0.186
423	0.186
424	0.185
424	0.185
425	0.184
425	0.184
426	0.184
426	0.183
427	0.183
427	0.183
427	0.183
428	0.183
428	0.183
429	0.184
429	0.184
430	0.184
430	0.184
431	0.184
431	0.183
432	0.183
432	0.183
432	0.182
433	0.181
433	0.181
434	0.18
434	0.18
435	0.18
435	0.18
436	0.18
436	0.18
437	0.18
437	0.179
437	0.18
438	0.179
438	0.179
439	0.179
439	0.178
440	0.178
440	0.177
441	0.177
441	0.177
442	0.177
442	0.177
442	0.177
443	0.178
443	0.178
444	0.178
444	0.179
445	0.179
445	0.179
446	0.179
446	0.179
447	0.179
447	0.179
447	0.179
448	0.179
448	0.179
449	0.179
449	0.178
450	0.178
450	0.178
451	0.178
451	0.177
452	0.177
452	0.177
452	0.176
453	0.176
453	0.175
454	0.174
454	0.174
455	0.174
455	0.174
456	0.174
456	0.174
457	0.173
457	0.173
458	0.174
458	0.174
458	0.175
459	0.175
459	0.175
460	0.175
460	0.174
461	0.174
461	0.174
462	0.174
462	0.174
463	0.174
463	0.174
463	0.175
464	0.175
464	0.175
465	0.175
465	0.176
466	0.176
466	0.176
467	0.177
467	0.176
467	0.176
468	0.175
468	0.174
469	0.173
469	0.172
470	0.172
470	0.172
471	0.171
471	0.171
472	0.171
472	0.172
472	0.173
473	0.173
473	0.174
474	0.175
474	0.176
475	0.177
475	0.178
476	0.178
476	0.179
477	0.179
477	0.18
477	0.18
478	0.18
478	0.181
479	0.181
479	0.182
480	0.182
480	0.183
481	0.184
481	0.185
482	0.186
482	0.187
482	0.188
483	0.19
483	0.192
484	0.194
484	0.196
485	0.198
485	0.199
486	0.2
486	0.201
487	0.202
487	0.202
487	0.203
488	0.203
488	0.202
489	0.201
489	0.201
490	0.201
490	0.201
491	0.201
491	0.202
492	0.203
492	0.204
492	0.205
493	0.206
493	0.207
494	0.209
494	0.211
495	0.213
495	0.214
496	0.216
496	0.217
496	0.218
497	0.22
497	0.221
498	0.222
498	0.223
499	0.224
499	0.225
500	0.226
500	0.227
501	0.229
501	0.231
501	0.232
502	0.234
502	0.235
503	0.237
503	0.239
504	0.24
504	0.241
505	0.242
505	0.243
506	0.245
506	0.246
506	0.247
507	0.247
507	0.248
508	0.249
508	0.25
509	0.251
509	0.253
510	0.254
510	0.255
511	0.255
511	0.256
511	0.256
512	0.258
512	0.258
513	0.258
513	0.258
514	0.258
514	0.258
515	0.258
515	0.258
515	0.258
516	0.259
516	0.259
517	0.26
517	0.26
518	0.261
518	0.26
519	0.26
519	0.259
520	0.258
520	0.256
520	0.255
521	0.254
521	0.252
522	0.25
522	0.249
523	0.249
523	0.249
524	0.25
524	0.251
524	0.253
525	0.255
525	0.256
526	0.258
526	0.259
527	0.261
527	0.262
528	0.263
528	0.264
529	0.264
529	0.263
529	0.263
530	0.263
530	0.262
531	0.262
531	0.261
532	0.26
532	0.259
533	0.258
533	0.257
533	0.257
534	0.256
534	0.255
535	0.253
535	0.252
536	0.25
536	0.249
537	0.248
537	0.246
538	0.245
538	0.243
538	0.242
539	0.241
539	0.239
540	0.238
540	0.236
541	0.235
541	0.233
542	0.231
542	0.229
542	0.227
543	0.225
543	0.223
544	0.221
544	0.219
545	0.218
545	0.216
546	0.215
546	0.214
547	0.212
547	0.21
547	0.207
548	0.205
548	0.203
549	0.201
549	0.199
550	0.197
550	0.195
551	0.192
551	0.19
551	0.187
552	0.186
552	0.184
553	0.182
553	0.181
554	0.179
554	0.177
555	0.175
555	0.172
556	0.169
556	0.166
556	0.163
557	0.161
557	0.158
558	0.156
558	0.154
559	0.152
559	0.15
560	0.149
560	0.147
560	0.146
561	0.145
561	0.144
562	0.143
562	0.141
563	0.139
563	0.136
564	0.134
564	0.132
564	0.129
565	0.127
565	0.125
566	0.123
566	0.121
567	0.12
567	0.12
568	0.12
568	0.12
568	0.12
569	0.121
569	0.122
570	0.122
570	0.121
571	0.121
571	0.121
572	0.121
572	0.12
573	0.119
573	0.119
573	0.117
574	0.116
574	0.115
575	0.115
575	0.115
576	0.115
576	0.113
577	0.112
577	0.111
577	0.11
578	0.108
578	0.108
579	0.108
579	0.108
580	0.107
580	0.105
581	0.102
581	0.101
581	0.1
582	0.099
582	0.099
583	0.098
583	0.097
584	0.095
584	0.092
585	0.09
585	0.09
585	0.089
586	0.089
586	0.088
587	0.087
587	0.085
588	0.083
588	0.082
589	0.081
589	0.08
590	0.08
590	0.079
590	0.079
591	0.079
591	0.079
592	0.078
592	0.078
593	0.077
593	0.077
594	0.076
594	0.075
594	0.074
595	0.073
595	0.071
596	0.07
596	0.07
597	0.071
597	0.071
598	0.071
598	0.072
598	0.072
599	0.073
599	0.073
600	0.072
600	0.072
601	0.071
601	0.071
602	0.069
602	0.069
602	0.068
603	0.068
603	0.069
604	0.07
604	0.07
605	0.072
605	0.073
606	0.073
606	0.073
606	0.072
607	0.072
607	0.072
608	0.071
608	0.07
609	0.069
609	0.069
610	0.067
610	0.066
610	0.066
611	0.066
611	0.067
612	0.067
612	0.068
613	0.069
613	0.07
614	0.07
614	0.07
614	0.07
615	0.07
615	0.07
616	0.07
616	0.07
617	0.069
617	0.069
618	0.068
618	0.067
618	0.067
619	0.067
619	0.067
620	0.068
620	0.068
621	0.068
621	0.069
622	0.069
622	0.069
622	0.069
623	0.069
623	0.07
624	0.071
624	0.071
625	0.071
625	0.072
626	0.072
626	0.073
626	0.074
627	0.075
627	0.076
628	0.077
628	0.077
629	0.078
629	0.078
630	0.078
630	0.078
630	0.079
631	0.079
631	0.079
632	0.079
632	0.079
633	0.079
633	0.08
634	0.081
634	0.082
634	0.084
635	0.085
635	0.086
636	0.088
636	0.089
637	0.09
637	0.092
638	0.093
638	0.095
638	0.097
639	0.098
639	0.098
640	0.1
640	0.101
641	0.102
641	0.103
642	0.105
642	0.107
642	0.108
643	0.109
643	0.11
644	0.112
644	0.114
645	0.115
645	0.117
646	0.12
646	0.123
646	0.126
647	0.129
647	0.132
648	0.135
648	0.138
649	0.142
649	0.145
650	0.148
650	0.152
650	0.155
651	0.158
651	0.16
652	0.162
652	0.164
653	0.166
653	0.174
653	0.181
654	0.146
654	0.119
655	0.124
655	0.126
656	0.127
656	0.129
657	0.132
657	0.134
657	0.135
658	0.134
658	0.127
659	0.16
659	0.206
660	0.21
660	0.212
661	0.214
661	0.217
661	0.219
662	0.222
662	0.225
663	0.228
663	0.23
664	0.233
664	0.235
665	0.238
665	0.241
665	0.243
666	0.246
666	0.248
667	0.25
667	0.253
668	0.255
668	0.258
669	0.261
669	0.263
669	0.267
670	0.271
670	0.273
671	0.276
671	0.278
672	0.28
672	0.282
672	0.285
673	0.286
673	0.289
674	0.29
674	0.292
675	0.293
675	0.295
676	0.297
676	0.3
676	0.301
677	0.304
677	0.306
678	0.308
678	0.309
679	0.311
679	0.312
680	0.314
680	0.316
680	0.317
681	0.318
681	0.319
682	0.32
682	0.321
683	0.322
683	0.324
684	0.325
684	0.326
684	0.325
685	0.325
685	0.325
686	0.325
686	0.325
687	0.324
687	0.323
687	0.322
688	0.322
688	0.321
689	0.321
689	0.322
690	0.323
690	0.323
691	0.324
691	0.324
691	0.325
692	0.324
692	0.324
693	0.324
693	0.324
694	0.323
694	0.321
695	0.321
695	0.321
695	0.32
696	0.318
696	0.317
697	0.316
697	0.314
698	0.312
698	0.31
698	0.307
699	0.305
699	0.303
700	0.299
700	0.297
701	0.295
701	0.294
702	0.292
702	0.29
702	0.289
703	0.287
703	0.285
704	0.284
704	0.282
705	0.281
705	0.28
705	0.278
706	0.276
706	0.275
707	0.273
707	0.271
708	0.269
708	0.267
709	0.265
709	0.263
709	0.26
710	0.257
710	0.255
711	0.253
711	0.251
712	0.249
712	0.247
713	0.246
713	0.244
713	0.242
714	0.24
714	0.237
715	0.235
715	0.232
716	0.229
716	0.226
716	0.223
717	0.22
717	0.217
718	0.213
718	0.21
719	0.207
719	0.205
720	0.203
720	0.2
720	0.198
721	0.195
721	0.192
722	0.19
722	0.187
723	0.185
723	0.183
723	0.181
724	0.179
724	0.177
725	0.174
725	0.172
726	0.17
726	0.168
727	0.166
727	0.164
727	0.162
728	0.16
728	0.158
729	0.157
729	0.155
730	0.153
730	0.151
730	0.149
731	0.147
731	0.145
732	0.143
732	0.142
733	0.14
733	0.138
734	0.136
734	0.134
734	0.132
735	0.132
735	0.13
736	0.129
736	0.128
737	0.126
737	0.125
737	0.124
738	0.122
738	0.119
739	0.117
739	0.115
740	0.112
740	0.109
741	0.107
741	0.104
741	0.101
742	0.097
742	0.094
743	0.091
743	0.089
744	0.087
744	0.085
744	0.082
745	0.08
745	0.077
746	0.075
746	0.074
747	0.072
747	0.072
748	0.071
748	0.071
748	0.07
749	0.069
749	0.069
750	0.069
750	0.069
751	0.069
751	0.069
751	0.07
752	0.069
752	0.068
753	0.067
753	0.066
754	0.065
754	0.064
754	0.063
755	0.063
755	0.063
756	0.062
756	0.06
757	0.059
757	0.059
758	0.058
758	0.057
758	0.057
759	0.056
759	0.053
760	0.051
760	0.048
761	0.046
761	0.044
761	0.043
762	0.041
762	0.039
763	0.038
763	0.036
764	0.034
764	0.033
764	0.032
765	0.03
765	0.029
766	0.028
766	0.027
767	0.026
767	0.024
768	0.022
768	0.019
768	0.018
769	0.017
769	0.016
770	0.014
770	0.012
771	0.01
771	0.007
771	0.004
772	0.002
772	0
773	-0.002
773	-0.004
774	-0.007
774	-0.009
775	-0.011
775	-0.013
775	-0.016
776	-0.018
776	-0.02
777	-0.022
777	-0.024
778	-0.027
778	-0.029
778	-0.032
779	-0.034
779	-0.036
780	-0.039
780	-0.042
781	-0.046
781	-0.051
781	-0.056
782	-0.063
782	-0.07
783	-0.077
783	-0.084
784	-0.091
784	-0.097
784	-0.103
785	-0.109
785	-0.115
786	-0.119
786	-0.118
787	-0.115
787	-0.113
788	-0.112
788	-0.113
788	-0.114
789	-0.116
789	-0.116
790	-0.113
790	-0.112
791	-0.113
791	-0.115
791	-0.117
792	-0.113
792	-0.102
793	-0.096
793	-0.092
794	-0.091
794	-0.093
794	-0.097
795	-0.099
795	-0.1
796	-0.1
796	-0.103
797	-0.112
797	-0.123
797	-0.129
798	-0.135
798	-0.138
799	-0.139
799	-0.138
800	-0.138
800	-0.139
801	-0.142
801	-0.143
801	-0.142
802	-0.143
802	-0.144
803	-0.145
803	-0.145
804	-0.144
804	-0.139
804	-0.132
805	-0.129
805	-0.127
806	-0.125
806	-0.124
807	-0.124
807	-0.124
807	-0.124
808	-0.124
808	-0.126
809	-0.13
809	-0.136
810	-0.14
810	-0.143
810	-0.146
811	-0.149
811	-0.15
812	-0.146
812	-0.142
813	-0.142
813	-0.143
813	-0.144
814	-0.146
814	-0.146
815	-0.144
815	-0.141
816	-0.139
816	-0.14
817	-0.145
817	-0.149
817	-0.149
818	-0.149
818	-0.145
819	-0.14
819	-0.137
820	-0.135
820	-0.133
820	-0.13
821	-0.124
821	-0.118
822	-0.11
822	-0.103
823	-0.095
823	-0.089
823	-0.085
824	-0.079
824	-0.072
825	-0.065
825	-0.058
826	-0.052
826	-0.047
826	-0.042
827	-0.038
827	-0.034
828	-0.03
828	-0.027
829	-0.025
829	-0.023
829	-0.022
830	-0.021
830	-0.02
831	-0.019
831	-0.017
832	-0.017
832	-0.016
832	-0.014
833	-0.013
833	-0.012
834	-0.01
834	-0.009
835	-0.007
835	-0.006
835	-0.005
836	-0.003
836	-0.002
837	-0.001
837	0
838	0.001
838	0.001
839	0.001
839	0.001
839	0
840	-0
840	-0.001
841	-0.001
841	-0.002
842	-0.001
842	-0.001
842	-0.001
843	-0.001
843	-0
844	0
844	0.001
845	0.002
845	0.003
845	0.004
846	0.004
846	0.004
847	0.004
847	0.005
848	0.005
848	0.006
848	0.007
849	0.007
849	0.008
850	0.008
850	0.008
851	0.008
851	0.009
851	0.009
852	0.009
852	0.009
853	0.009
853	0.009
854	0.009
854	0.009
854	0.009
855	0.01
855	0.009
856	0.009
856	0.009
857	0.009
857	0.009
857	0.009
858	0.009
858	0.009
859	0.009
859	0.009
860	0.009
860	0.009
860	0.009
861	0.009
861	0.01
862	0.01
862	0.01
863	0.011
863	0.012
863	0.013
864	0.014
864	0.015
865	0.016
865	0.017
866	0.018
866	0.019
866	0.02
867	0.021
867	0.022
868	0.022
868	0.022
869	0.022
869	0.021
869	0.021
870	0.02
870	0.019
871	0.018
871	0.018
872	0.017
872	0.017
872	0.016
873	0.016
873	0.015
874	0.015
874	0.014
875	0.013
875	0.012
875	0.012
876	0.011
876	0.011
877	0.01
877	0.01
878	0.009
878	0.009
878	0.009
879	0.009
879	0.009
880	0.01
880	0.01
881	0.01
881	0.01
881	0.011
882	0.011
882	0.012
883	0.012
883	0.012
884	0.013
884	0.013
884	0.014
885	0.014
885	0.014
886	0.015
886	0.015
887	0.015
887	0.015
887	0.015
888	0.015
888	0.015
889	0.015
889	0.015
890	0.014
890	0.014
890	0.014
891	0.013
891	0.013
892	0.013
892	0.013
893	0.013
893	0.013
893	0.014
894	0.014
894	0.014
895	0.014
895	0.013
895	0.013
896	0.012
896	0.012
897	0.011
897	0.011
898	0.01
898	0.009
898	0.008
899	0.008
899	0.007
900	0.007
900	0.007
901	0.007
901	0.007
901	0.007
902	0.007
902	0.008
903	0.009
903	0.009
904	0.01
904	0.01
904	0.011
905	0.011
905	0.012
906	0.012
906	0.012
907	0.012
907	0.011
907	0.011
908	0.011
908	0.012
909	0.012
909	0.013
910	0.013
910	0.014
910	0.014
911	0.014
911	0.015
912	0.015
912	0.015
913	0.014
913	0.014
913	0.013
914	0.012
914	0.012
915	0.011
915	0.011
916	0.01
916	0.01
916	0.01
917	0.009
917	0.009
918	0.009
918	0.009
918	0.009
919	0.01
919	0.01
920	0.011
920	0.012
921	0.012
921	0.013
921	0.014
922	0.015
922	0.016
923	0.016
923	0.017
924	0.017
924	0.017
924	0.018
925	0.018
925	0.018
926	0.018
926	0.018
927	0.018
927	0.018
927	0.018
928	0.018
928	0.018
929	0.018
929	0.018
930	0.018
930	0.017
930	0.017
931	0.016
931	0.016
932	0.015
932	0.014
933	0.014
933	0.013
933	0.012
934	0.011
934	0.01
935	0.01
935	0.009
935	0.009
936	0.008
936	0.008
937	0.007
937	0.007
938	0.008
938	0.008
938	0.009
939	0.009
939	0.01
940	0.011
940	0.012
941	0.014
941	0.015
941	0.016
942	0.017
942	0.018
943	0.018
943	0.019
944	0.019
944	0.019
944	0.019
945	0.02
945	0.02
946	0.02
946	0.02
946	0.02
947	0.021
947	0.021
948	0.021
948	0.021
949	0.021
949	0.021
949	0.021
950	0.02
950	0.02
951	0.02
951	0.019
952	0.019
952	0.019
952	0.018
953	0.018
953	0.018
954	0.018
954	0.018
955	0.018
955	0.019
955	0.019
956	0.019
956	0.02
957	0.02
957	0.02
957	0.02
958	0.02
958	0.021
959	0.021
959	0.022
960	0.022
960	0.022
960	0.022
961	0.022
961	0.023
962	0.023
962	0.024
963	0.025
963	0.025
963	0.026
964	0.026
964	0.027
965	0.027
965	0.028
966	0.028
966	0.029
966	0.029
967	0.028
967	0.028
968	0.027
968	0.027
968	0.026
969	0.025
969	0.024
970	0.024
970	0.023
971	0.022
971	0.021
971	0.021
972	0.021
972	0.02
973	0.02
973	0.02
974	0.02
974	0.019
974	0.019
975	0.02
975	0.02
976	0.02
976	0.02
976	0.02
977	0.02
977	0.02
978	0.02
978	0.02
979	0.02
979	0.02
979	0.019
980	0.019
980	0.018
981	0.017
981	0.017
982	0.017
982	0.016
982	0.016
983	0.015
983	0.014
984	0.013
984	0.012
984	0.012
985	0.011
985	0.01
986	0.009
986	0.008
987	0.008
987	0.007
987	0.007
988	0.007
988	0.008
989	0.008
989	0.008
990	0.009
990	0.01
990	0.011
991	0.012
991	0.013
992	0.014
992	0.015
992	0.015
993	0.016
993	0.016
994	0.016
994	0.016
995	0.016
995	0.015
995	0.015
996	0.014
996	0.013
997	0.013
997	0.012
997	0.012
998	0.011
998	0.011
999	0.011
999	0.011
1000	0.011
1000	0.011
1000	0.012
1001	0.012
1001	0.013
1002	0.013
1002	0.014
1003	0.014
1003	0.015
1003	0.015
1004	0.015
1004	0.016
1005	0.016
1005	0.017
1005	0.017
1006	0.017
1006	0.017
1007	0.017
1007	0.017
1008	0.018
1008	0.018
1008	0.018
1009	0.018
1009	0.018
1010	0.018
1010	0.019
1010	0.019
1011	0.02
1011	0.02
1012	0.02
1012	0.02
1013	0.021
1013	0.021
1013	0.021
1014	0.021
1014	0.02
1015	0.02
1015	0.02
1016	0.019
1016	0.018
1016	0.018
1017	0.017
1017	0.016
1018	0.016
1018	0.015
1018	0.014
1019	0.014
1019	0.013
1020	0.012
1020	0.011
1021	0.011
1021	0.01
1021	0.01
1022	0.009
1022	0.009
1023	0.009
1023	0.009
1023	0.008
1024	0.008
1024	0.008
1025	0.008
1025	0.008
1026	0.008
1026	0.007
1026	0.007
1027	0.007
1027	0.007
1028	0.007
1028	0.008
1028	0.008
1029	0.008
1029	0.008
1030	0.008
1030	0.008
1031	0.009
1031	0.009
1031	0.008
1032	0.008
1032	0.008
1033	0.008
1033	0.008
1033	0.008
1034	0.008
1034	0.008
1035	0.008
1035	0.008
1036	0.008
1036	0.008
1036	0.009
1037	0.01
1037	0.011
1038	0.011
1038	0.012
1039	0.013
1039	0.014
1039	0.015
1040	0.015
1040	0.016
1041	0.017
1041	0.017
1041	0.018
1042	0.018
1042	0.018
1043	0.018
1043	0.019
1044	0.019
1044	0.019
1044	0.019
1045	0.019
1045	0.019
1046	0.018
1046	0.018
1046	0.018
1047	0.018
1047	0.018
1048	0.017
1048	0.017
1049	0.017
1049	0.016
1049	0.015
1050	0.014
1050	0.014
1051	0.014
1051	0.014
1051	0.014
1052	0.014
1052	0.014
1053	0.014
1053	0.014
1053	0.015
1054	0.015
1054	0.015
1055	0.016
1055	0.016
1056	0.016
1056	0.016
1056	0.016
1057	0.016
1057	0.016
1058	0.017
1058	0.017
1058	0.017
1059	0.018
1059	0.018
1060	0.018
1060	0.019
1061	0.019
1061	0.02
1061	0.02
1062	0.019
1062	0.019
1063	0.019
1063	0.018
1063	0.018
1064	0.018
1064	0.018
1065	0.018
1065	0.018
1066	0.018
1066	0.018
1066	0.018
1067	0.019
1067	0.019
1068	0.019
1068	0.019
1068	0.019
1069	0.018
1069	0.018
1070	0.017
1070	0.017
1071	0.016
1071	0.016
1071	0.016
1072	0.015
1072	0.015
1073	0.015
1073	0.015
1073	0.015
1074	0.016
1074	0.016
1075	0.016
1075	0.015
1076	0.015
1076	0.015
1076	0.015
1077	0.016
1077	0.017
1078	0.017
1078	0.018
1078	0.02
1079	0.02
1079	0.022
1080	0.024
1080	0.026
1080	0.026
1081	0.028
1081	0.03
1082	0.031
1082	0.032
1083	0.034
1083	0.034
1083	0.036
1084	0.037
1084	0.038
1085	0.039
1085	0.041
1085	0.042
1086	0.044
1086	0.044
1087	0.046
1087	0.048
1088	0.05
1088	0.051
1088	0.053
1089	0.054
1089	0.056
1090	0.057
1090	0.06
1090	0.062
1091	0.064
1091	0.067
1092	0.069
1092	0.072
1092	0.074
1093	0.077
1093	0.08
1094	0.084
1094	0.087
1095	0.089
1095	0.093
1095	0.098
1096	0.103
1096	0.108
1097	0.114
1097	0.12
1097	0.127
1098	0.135
1098	0.143
1099	0.151
1099	0.161
1100	0.171
1100	0.181
1100	0.192
1101	0.204
1101	0.217
1102	0.233
1102	0.247
1102	0.265
1103	0.284
1103	0.305
1104	0.33
1104	0.356
1104	0.389
1105	0.425
1105	0.462
1106	0.502
1106	0.554
1107	0.622
1107	0.729
1107	0.892
1108	-0
1108	-0
1109	-0
1109	-0
1109	-0
1110	-0
1110	-0
1111	-0
1111	-0
