Data from 17c-2-2a_Absorbance__1361__03797.txt Node

Date: Fri Jan 26 15:10:15 CET 2024
User: Marek
Spectrometer: MAYP115816
Trigger mode: 0
Integration Time (sec): 2.000000E-1
Scans to average: 10
Electric dark correction enabled: true
Nonlinearity correction enabled: true
Boxcar width: 5
XAxis mode: Wavelengths
Number of Pixels in Spectrum: 2068
>>>>>Begin Spectral Data<<<<<
199	-1.837
199	-1.691
200	-1.537
200	-1.421
201	-1.347
201	-1.301
202	-1.23
202	-1.172
203	-1.124
203	-1.082
204	-1.055
204	-1.031
205	-1.009
205	-1
205	-0.996
206	-0.991
206	-0.986
207	-0.982
207	-0.982
208	-0.98
208	-0.977
209	-0.974
209	-0.97
210	-0.97
210	-0.97
211	-0.97
211	-0.972
212	-0.972
212	-0.971
213	-0.969
213	-0.964
213	-0.964
214	-0.962
214	-0.96
215	-0.955
215	-0.952
216	-0.948
216	-0.946
217	-0.943
217	-0.941
218	-0.937
218	-0.936
219	-0.932
219	-0.93
220	-0.928
220	-0.929
221	-0.926
221	-0.924
221	-0.919
222	-0.914
222	-0.91
223	-0.906
223	-0.901
224	-0.895
224	-0.888
225	-0.881
225	-0.873
226	-0.863
226	-0.852
227	-0.841
227	-0.829
228	-0.812
228	-0.795
229	-0.774
229	-0.751
229	-0.726
230	-0.697
230	-0.665
231	-0.631
231	-0.595
232	-0.556
232	-0.514
233	-0.471
233	-0.425
234	-0.38
234	-0.336
235	-0.29
235	-0.246
236	-0.203
236	-0.161
236	-0.121
237	-0.082
237	-0.046
238	-0.012
238	0.018
239	0.048
239	0.075
240	0.1
240	0.122
241	0.143
241	0.163
242	0.18
242	0.196
243	0.211
243	0.225
243	0.237
244	0.248
244	0.258
245	0.267
245	0.276
246	0.284
246	0.291
247	0.298
247	0.304
248	0.309
248	0.315
249	0.32
249	0.325
250	0.33
250	0.334
250	0.339
251	0.343
251	0.346
252	0.35
252	0.354
253	0.357
253	0.359
254	0.362
254	0.365
255	0.367
255	0.37
256	0.372
256	0.373
257	0.375
257	0.376
258	0.377
258	0.378
258	0.38
259	0.381
259	0.381
260	0.382
260	0.382
261	0.383
261	0.383
262	0.383
262	0.383
263	0.384
263	0.384
264	0.384
264	0.383
265	0.383
265	0.383
265	0.382
266	0.381
266	0.381
267	0.38
267	0.379
268	0.378
268	0.376
269	0.375
269	0.374
270	0.372
270	0.371
271	0.369
271	0.368
272	0.366
272	0.364
272	0.363
273	0.361
273	0.36
274	0.358
274	0.356
275	0.354
275	0.352
276	0.351
276	0.349
277	0.346
277	0.344
278	0.342
278	0.34
278	0.337
279	0.335
279	0.333
280	0.331
280	0.329
281	0.327
281	0.325
282	0.323
282	0.322
283	0.32
283	0.319
284	0.317
284	0.316
285	0.314
285	0.313
285	0.311
286	0.309
286	0.308
287	0.306
287	0.304
288	0.303
288	0.301
289	0.3
289	0.298
290	0.297
290	0.296
291	0.294
291	0.293
292	0.292
292	0.291
292	0.289
293	0.288
293	0.287
294	0.286
294	0.285
295	0.284
295	0.283
296	0.282
296	0.281
297	0.28
297	0.279
298	0.278
298	0.277
298	0.276
299	0.276
299	0.275
300	0.274
300	0.273
301	0.272
301	0.272
302	0.271
302	0.27
303	0.27
303	0.269
304	0.268
304	0.267
305	0.267
305	0.266
305	0.265
306	0.264
306	0.263
307	0.263
307	0.262
308	0.261
308	0.26
309	0.259
309	0.259
310	0.258
310	0.257
311	0.256
311	0.256
311	0.255
312	0.255
312	0.254
313	0.253
313	0.253
314	0.252
314	0.251
315	0.25
315	0.25
316	0.249
316	0.248
317	0.247
317	0.246
318	0.246
318	0.245
318	0.244
319	0.243
319	0.243
320	0.242
320	0.241
321	0.24
321	0.239
322	0.239
322	0.238
323	0.237
323	0.236
324	0.235
324	0.235
324	0.234
325	0.233
325	0.233
326	0.232
326	0.231
327	0.23
327	0.23
328	0.229
328	0.228
329	0.227
329	0.227
330	0.226
330	0.226
330	0.225
331	0.224
331	0.224
332	0.223
332	0.223
333	0.222
333	0.222
334	0.221
334	0.22
335	0.22
335	0.219
336	0.218
336	0.218
336	0.217
337	0.217
337	0.216
338	0.215
338	0.215
339	0.214
339	0.214
340	0.213
340	0.212
341	0.212
341	0.211
342	0.211
342	0.21
342	0.21
343	0.209
343	0.209
344	0.209
344	0.209
345	0.208
345	0.208
346	0.207
346	0.207
347	0.206
347	0.205
348	0.205
348	0.204
348	0.204
349	0.203
349	0.202
350	0.202
350	0.202
351	0.201
351	0.201
352	0.2
352	0.2
353	0.199
353	0.199
354	0.199
354	0.198
354	0.197
355	0.197
355	0.196
356	0.196
356	0.195
357	0.195
357	0.194
358	0.194
358	0.194
359	0.194
359	0.195
360	0.195
360	0.195
360	0.195
361	0.196
361	0.196
362	0.196
362	0.196
363	0.196
363	0.195
364	0.195
364	0.195
365	0.195
365	0.195
366	0.195
366	0.194
366	0.194
367	0.194
367	0.194
368	0.193
368	0.193
369	0.193
369	0.193
370	0.192
370	0.192
371	0.191
371	0.191
372	0.19
372	0.19
372	0.19
373	0.19
373	0.19
374	0.19
374	0.19
375	0.189
375	0.19
376	0.19
376	0.19
377	0.19
377	0.19
378	0.19
378	0.19
378	0.19
379	0.19
379	0.19
380	0.19
380	0.19
381	0.19
381	0.189
382	0.189
382	0.188
383	0.188
383	0.188
383	0.187
384	0.187
384	0.187
385	0.187
385	0.186
386	0.186
386	0.186
387	0.186
387	0.186
388	0.185
388	0.185
389	0.185
389	0.185
389	0.185
390	0.185
390	0.185
391	0.185
391	0.185
392	0.185
392	0.185
393	0.185
393	0.185
394	0.185
394	0.185
394	0.184
395	0.184
395	0.184
396	0.184
396	0.183
397	0.183
397	0.183
398	0.182
398	0.182
399	0.182
399	0.182
400	0.181
400	0.181
400	0.181
401	0.18
401	0.179
402	0.179
402	0.178
403	0.178
403	0.178
404	0.178
404	0.178
405	0.177
405	0.177
405	0.177
406	0.177
406	0.177
407	0.177
407	0.176
408	0.176
408	0.176
409	0.176
409	0.175
410	0.175
410	0.175
411	0.175
411	0.175
411	0.175
412	0.174
412	0.174
413	0.174
413	0.174
414	0.174
414	0.173
415	0.173
415	0.172
416	0.172
416	0.172
416	0.172
417	0.171
417	0.171
418	0.171
418	0.171
419	0.171
419	0.172
420	0.172
420	0.173
421	0.173
421	0.173
421	0.173
422	0.173
422	0.173
423	0.173
423	0.173
424	0.172
424	0.172
425	0.171
425	0.171
426	0.17
426	0.17
427	0.17
427	0.17
427	0.17
428	0.17
428	0.17
429	0.17
429	0.171
430	0.171
430	0.171
431	0.17
431	0.17
432	0.17
432	0.169
432	0.169
433	0.168
433	0.168
434	0.168
434	0.167
435	0.167
435	0.167
436	0.167
436	0.167
437	0.167
437	0.167
437	0.167
438	0.167
438	0.167
439	0.166
439	0.166
440	0.165
440	0.165
441	0.165
441	0.165
442	0.166
442	0.166
442	0.166
443	0.166
443	0.166
444	0.166
444	0.167
445	0.167
445	0.167
446	0.167
446	0.167
447	0.166
447	0.166
447	0.166
448	0.166
448	0.166
449	0.165
449	0.165
450	0.165
450	0.165
451	0.165
451	0.165
452	0.165
452	0.164
452	0.164
453	0.164
453	0.163
454	0.163
454	0.162
455	0.162
455	0.162
456	0.162
456	0.162
457	0.161
457	0.161
458	0.162
458	0.162
458	0.163
459	0.163
459	0.163
460	0.162
460	0.162
461	0.162
461	0.162
462	0.162
462	0.162
463	0.162
463	0.163
463	0.163
464	0.163
464	0.163
465	0.163
465	0.164
466	0.164
466	0.164
467	0.164
467	0.163
467	0.163
468	0.162
468	0.161
469	0.16
469	0.16
470	0.159
470	0.159
471	0.159
471	0.159
472	0.159
472	0.159
472	0.16
473	0.16
473	0.161
474	0.162
474	0.163
475	0.163
475	0.164
476	0.164
476	0.165
477	0.165
477	0.165
477	0.166
478	0.166
478	0.166
479	0.167
479	0.167
480	0.168
480	0.169
481	0.17
481	0.17
482	0.171
482	0.172
482	0.173
483	0.175
483	0.177
484	0.18
484	0.181
485	0.183
485	0.184
486	0.185
486	0.185
487	0.186
487	0.187
487	0.187
488	0.187
488	0.186
489	0.186
489	0.185
490	0.185
490	0.185
491	0.186
491	0.187
492	0.188
492	0.189
492	0.189
493	0.19
493	0.191
494	0.193
494	0.195
495	0.197
495	0.198
496	0.199
496	0.2
496	0.201
497	0.202
497	0.203
498	0.205
498	0.206
499	0.206
499	0.207
500	0.209
500	0.21
501	0.212
501	0.214
501	0.215
502	0.217
502	0.219
503	0.22
503	0.222
504	0.223
504	0.224
505	0.225
505	0.226
506	0.227
506	0.228
506	0.228
507	0.229
507	0.23
508	0.231
508	0.232
509	0.233
509	0.233
510	0.234
510	0.235
511	0.236
511	0.237
511	0.237
512	0.238
512	0.239
513	0.239
513	0.238
514	0.238
514	0.238
515	0.238
515	0.238
515	0.238
516	0.239
516	0.239
517	0.24
517	0.24
518	0.241
518	0.241
519	0.24
519	0.24
520	0.239
520	0.238
520	0.236
521	0.234
521	0.233
522	0.231
522	0.23
523	0.23
523	0.23
524	0.23
524	0.231
524	0.232
525	0.233
525	0.235
526	0.237
526	0.238
527	0.24
527	0.241
528	0.242
528	0.243
529	0.243
529	0.243
529	0.243
530	0.242
530	0.242
531	0.241
531	0.241
532	0.24
532	0.239
533	0.238
533	0.237
533	0.237
534	0.235
534	0.234
535	0.233
535	0.232
536	0.231
536	0.23
537	0.229
537	0.228
538	0.227
538	0.225
538	0.223
539	0.222
539	0.221
540	0.22
540	0.218
541	0.216
541	0.214
542	0.212
542	0.21
542	0.208
543	0.207
543	0.205
544	0.203
544	0.201
545	0.199
545	0.198
546	0.197
546	0.196
547	0.194
547	0.192
547	0.189
548	0.188
548	0.186
549	0.184
549	0.182
550	0.181
550	0.179
551	0.177
551	0.174
551	0.172
552	0.171
552	0.17
553	0.168
553	0.167
554	0.166
554	0.164
555	0.161
555	0.159
556	0.156
556	0.153
556	0.151
557	0.148
557	0.145
558	0.143
558	0.14
559	0.138
559	0.137
560	0.135
560	0.134
560	0.133
561	0.133
561	0.132
562	0.131
562	0.13
563	0.128
563	0.126
564	0.124
564	0.122
564	0.12
565	0.118
565	0.116
566	0.115
566	0.113
567	0.112
567	0.112
568	0.112
568	0.112
568	0.112
569	0.113
569	0.114
570	0.114
570	0.113
571	0.113
571	0.113
572	0.113
572	0.112
573	0.112
573	0.111
573	0.109
574	0.108
574	0.108
575	0.107
575	0.107
576	0.107
576	0.106
577	0.104
577	0.103
577	0.102
578	0.101
578	0.101
579	0.101
579	0.102
580	0.1
580	0.098
581	0.095
581	0.094
581	0.093
582	0.093
582	0.092
583	0.092
583	0.091
584	0.088
584	0.085
585	0.083
585	0.083
585	0.082
586	0.082
586	0.081
587	0.08
587	0.078
588	0.076
588	0.074
589	0.073
589	0.072
590	0.072
590	0.071
590	0.071
591	0.072
591	0.072
592	0.071
592	0.071
593	0.071
593	0.071
594	0.071
594	0.07
594	0.069
595	0.069
595	0.067
596	0.066
596	0.066
597	0.068
597	0.068
598	0.069
598	0.069
598	0.07
599	0.07
599	0.07
600	0.069
600	0.068
601	0.068
601	0.067
602	0.065
602	0.064
602	0.063
603	0.063
603	0.063
604	0.063
604	0.064
605	0.065
605	0.066
606	0.065
606	0.065
606	0.064
607	0.064
607	0.064
608	0.063
608	0.062
609	0.061
609	0.06
610	0.059
610	0.058
610	0.058
611	0.059
611	0.06
612	0.061
612	0.062
613	0.063
613	0.064
614	0.065
614	0.065
614	0.065
615	0.065
615	0.065
616	0.065
616	0.065
617	0.065
617	0.064
618	0.063
618	0.063
618	0.062
619	0.062
619	0.063
620	0.064
620	0.064
621	0.064
621	0.065
622	0.065
622	0.065
622	0.065
623	0.065
623	0.066
624	0.067
624	0.067
625	0.067
625	0.067
626	0.067
626	0.068
626	0.068
627	0.069
627	0.07
628	0.071
628	0.071
629	0.071
629	0.072
630	0.071
630	0.071
630	0.072
631	0.072
631	0.072
632	0.072
632	0.072
633	0.072
633	0.073
634	0.074
634	0.076
634	0.078
635	0.079
635	0.08
636	0.081
636	0.083
637	0.084
637	0.084
638	0.086
638	0.087
638	0.088
639	0.088
639	0.089
640	0.09
640	0.092
641	0.093
641	0.094
642	0.096
642	0.098
642	0.1
643	0.101
643	0.103
644	0.105
644	0.106
645	0.108
645	0.11
646	0.113
646	0.116
646	0.119
647	0.122
647	0.125
648	0.128
648	0.13
649	0.133
649	0.136
650	0.14
650	0.143
650	0.145
651	0.148
651	0.15
652	0.151
652	0.153
653	0.156
653	0.163
653	0.171
654	0.138
654	0.113
655	0.116
655	0.118
656	0.12
656	0.121
657	0.123
657	0.125
657	0.126
658	0.124
658	0.117
659	0.147
659	0.188
660	0.193
660	0.195
661	0.197
661	0.199
661	0.202
662	0.204
662	0.207
663	0.21
663	0.213
664	0.216
664	0.218
665	0.221
665	0.224
665	0.227
666	0.229
666	0.231
667	0.234
667	0.236
668	0.239
668	0.241
669	0.244
669	0.247
669	0.251
670	0.254
670	0.257
671	0.259
671	0.261
672	0.263
672	0.264
672	0.266
673	0.267
673	0.268
674	0.269
674	0.27
675	0.271
675	0.273
676	0.275
676	0.277
676	0.279
677	0.281
677	0.283
678	0.285
678	0.286
679	0.287
679	0.288
680	0.29
680	0.292
680	0.292
681	0.293
681	0.294
682	0.296
682	0.297
683	0.299
683	0.302
684	0.303
684	0.304
684	0.304
685	0.304
685	0.305
686	0.305
686	0.304
687	0.303
687	0.302
687	0.301
688	0.3
688	0.299
689	0.299
689	0.3
690	0.301
690	0.301
691	0.301
691	0.302
691	0.302
692	0.302
692	0.302
693	0.302
693	0.302
694	0.301
694	0.299
695	0.298
695	0.299
695	0.298
696	0.297
696	0.296
697	0.295
697	0.294
698	0.293
698	0.291
698	0.289
699	0.288
699	0.285
700	0.282
700	0.28
701	0.279
701	0.277
702	0.276
702	0.274
702	0.272
703	0.27
703	0.268
704	0.266
704	0.265
705	0.264
705	0.262
705	0.261
706	0.259
706	0.258
707	0.256
707	0.254
708	0.252
708	0.251
709	0.249
709	0.247
709	0.245
710	0.242
710	0.24
711	0.238
711	0.236
712	0.234
712	0.232
713	0.23
713	0.228
713	0.226
714	0.223
714	0.22
715	0.218
715	0.215
716	0.211
716	0.208
716	0.205
717	0.202
717	0.199
718	0.196
718	0.193
719	0.191
719	0.189
720	0.187
720	0.185
720	0.182
721	0.18
721	0.177
722	0.175
722	0.172
723	0.17
723	0.168
723	0.166
724	0.164
724	0.162
725	0.159
725	0.158
726	0.156
726	0.155
727	0.153
727	0.152
727	0.151
728	0.149
728	0.148
729	0.147
729	0.145
730	0.144
730	0.141
730	0.14
731	0.137
731	0.135
732	0.134
732	0.132
733	0.13
733	0.128
734	0.126
734	0.124
734	0.123
735	0.122
735	0.121
736	0.119
736	0.117
737	0.116
737	0.115
737	0.114
738	0.111
738	0.109
739	0.107
739	0.105
740	0.102
740	0.1
741	0.099
741	0.096
741	0.093
742	0.09
742	0.087
743	0.085
743	0.082
744	0.08
744	0.078
744	0.076
745	0.073
745	0.071
746	0.069
746	0.068
747	0.068
747	0.068
748	0.067
748	0.067
748	0.066
749	0.066
749	0.065
750	0.065
750	0.064
751	0.064
751	0.063
751	0.063
752	0.062
752	0.061
753	0.06
753	0.059
754	0.059
754	0.058
754	0.058
755	0.058
755	0.058
756	0.057
756	0.056
757	0.055
757	0.055
758	0.054
758	0.054
758	0.053
759	0.052
759	0.05
760	0.048
760	0.045
761	0.043
761	0.041
761	0.039
762	0.037
762	0.036
763	0.035
763	0.032
764	0.03
764	0.028
764	0.026
765	0.024
765	0.023
766	0.022
766	0.021
767	0.02
767	0.018
768	0.016
768	0.014
768	0.013
769	0.013
769	0.012
770	0.011
770	0.01
771	0.008
771	0.005
771	0.003
772	0
772	-0.002
773	-0.004
773	-0.007
774	-0.01
774	-0.013
775	-0.015
775	-0.017
775	-0.02
776	-0.022
776	-0.024
777	-0.025
777	-0.027
778	-0.029
778	-0.032
778	-0.034
779	-0.036
779	-0.038
780	-0.041
780	-0.045
781	-0.049
781	-0.053
781	-0.059
782	-0.065
782	-0.072
783	-0.079
783	-0.086
784	-0.092
784	-0.098
784	-0.103
785	-0.11
785	-0.115
786	-0.118
786	-0.118
787	-0.115
787	-0.112
788	-0.112
788	-0.113
788	-0.114
789	-0.116
789	-0.116
790	-0.113
790	-0.112
791	-0.113
791	-0.115
791	-0.118
792	-0.113
792	-0.102
793	-0.096
793	-0.092
794	-0.091
794	-0.093
794	-0.097
795	-0.1
795	-0.1
796	-0.1
796	-0.103
797	-0.112
797	-0.123
797	-0.13
798	-0.135
798	-0.138
799	-0.139
799	-0.138
800	-0.138
800	-0.139
801	-0.142
801	-0.143
801	-0.142
802	-0.143
802	-0.144
803	-0.145
803	-0.145
804	-0.144
804	-0.139
804	-0.132
805	-0.129
805	-0.127
806	-0.125
806	-0.124
807	-0.124
807	-0.124
807	-0.124
808	-0.124
808	-0.126
809	-0.13
809	-0.136
810	-0.14
810	-0.143
810	-0.146
811	-0.149
811	-0.15
812	-0.146
812	-0.142
813	-0.142
813	-0.143
813	-0.145
814	-0.146
814	-0.146
815	-0.144
815	-0.141
816	-0.14
816	-0.14
817	-0.145
817	-0.149
817	-0.149
818	-0.149
818	-0.145
819	-0.14
819	-0.136
820	-0.135
820	-0.133
820	-0.129
821	-0.124
821	-0.117
822	-0.11
822	-0.101
823	-0.093
823	-0.087
823	-0.083
824	-0.077
824	-0.07
825	-0.063
825	-0.056
826	-0.05
826	-0.045
826	-0.04
827	-0.036
827	-0.032
828	-0.029
828	-0.026
829	-0.023
829	-0.02
829	-0.019
830	-0.018
830	-0.017
831	-0.015
831	-0.013
832	-0.012
832	-0.011
832	-0.01
833	-0.009
833	-0.009
834	-0.008
834	-0.008
835	-0.007
835	-0.007
835	-0.006
836	-0.006
836	-0.004
837	-0.003
837	-0.002
838	-0.001
838	0
839	0.001
839	0.002
839	0.002
840	0.002
840	0.003
841	0.003
841	0.003
842	0.003
842	0.003
842	0.003
843	0.003
843	0.003
844	0.004
844	0.004
845	0.004
845	0.005
845	0.005
846	0.006
846	0.006
847	0.006
847	0.007
848	0.008
848	0.009
848	0.01
849	0.01
849	0.011
850	0.012
850	0.012
851	0.013
851	0.014
851	0.014
852	0.014
852	0.014
853	0.013
853	0.013
854	0.013
854	0.013
854	0.013
855	0.013
855	0.013
856	0.013
856	0.013
857	0.013
857	0.013
857	0.012
858	0.012
858	0.012
859	0.012
859	0.012
860	0.012
860	0.012
860	0.013
861	0.013
861	0.014
862	0.014
862	0.014
863	0.015
863	0.015
863	0.016
864	0.016
864	0.017
865	0.017
865	0.018
866	0.018
866	0.019
866	0.02
867	0.02
867	0.021
868	0.022
868	0.022
869	0.022
869	0.022
869	0.022
870	0.022
870	0.021
871	0.02
871	0.02
872	0.019
872	0.018
872	0.017
873	0.017
873	0.016
874	0.015
874	0.014
875	0.014
875	0.013
875	0.012
876	0.012
876	0.011
877	0.01
877	0.01
878	0.009
878	0.009
878	0.009
879	0.008
879	0.008
880	0.008
880	0.008
881	0.008
881	0.009
881	0.009
882	0.009
882	0.009
883	0.009
883	0.01
884	0.01
884	0.009
884	0.009
885	0.009
885	0.009
886	0.009
886	0.009
887	0.009
887	0.008
887	0.009
888	0.009
888	0.009
889	0.009
889	0.01
890	0.011
890	0.011
890	0.011
891	0.011
891	0.012
892	0.012
892	0.013
893	0.013
893	0.014
893	0.014
894	0.014
894	0.014
895	0.014
895	0.013
895	0.013
896	0.012
896	0.012
897	0.012
897	0.011
898	0.011
898	0.011
898	0.012
899	0.012
899	0.012
900	0.012
900	0.013
901	0.013
901	0.013
901	0.014
902	0.014
902	0.014
903	0.014
903	0.014
904	0.014
904	0.014
904	0.014
905	0.015
905	0.015
906	0.015
906	0.015
907	0.015
907	0.015
907	0.015
908	0.015
908	0.015
909	0.015
909	0.016
910	0.016
910	0.016
910	0.016
911	0.016
911	0.017
912	0.017
912	0.017
913	0.017
913	0.017
913	0.017
914	0.016
914	0.016
915	0.016
915	0.016
916	0.015
916	0.014
916	0.013
917	0.012
917	0.011
918	0.01
918	0.008
918	0.007
919	0.006
919	0.005
920	0.004
920	0.004
921	0.004
921	0.004
921	0.004
922	0.004
922	0.004
923	0.005
923	0.005
924	0.005
924	0.005
924	0.005
925	0.005
925	0.005
926	0.005
926	0.005
927	0.004
927	0.004
927	0.004
928	0.005
928	0.005
929	0.005
929	0.005
930	0.006
930	0.006
930	0.006
931	0.006
931	0.006
932	0.006
932	0.006
933	0.006
933	0.006
933	0.005
934	0.005
934	0.005
935	0.005
935	0.004
935	0.004
936	0.004
936	0.004
937	0.004
937	0.004
938	0.004
938	0.004
938	0.005
939	0.006
939	0.007
940	0.009
940	0.01
941	0.011
941	0.013
941	0.015
942	0.016
942	0.017
943	0.019
943	0.02
944	0.02
944	0.021
944	0.022
945	0.022
945	0.022
946	0.023
946	0.023
946	0.023
947	0.024
947	0.024
948	0.024
948	0.024
949	0.025
949	0.025
949	0.025
950	0.026
950	0.026
951	0.026
951	0.026
952	0.025
952	0.025
952	0.024
953	0.023
953	0.022
954	0.021
954	0.02
955	0.02
955	0.019
955	0.019
956	0.019
956	0.02
957	0.02
957	0.02
957	0.021
958	0.021
958	0.022
959	0.023
959	0.023
960	0.023
960	0.023
960	0.022
961	0.022
961	0.022
962	0.022
962	0.022
963	0.022
963	0.022
963	0.022
964	0.022
964	0.022
965	0.022
965	0.022
966	0.022
966	0.021
966	0.021
967	0.02
967	0.019
968	0.019
968	0.018
968	0.017
969	0.017
969	0.017
970	0.017
970	0.016
971	0.016
971	0.016
971	0.017
972	0.017
972	0.017
973	0.018
973	0.018
974	0.018
974	0.018
974	0.019
975	0.019
975	0.02
976	0.021
976	0.022
976	0.022
977	0.022
977	0.023
978	0.023
978	0.023
979	0.023
979	0.023
979	0.023
980	0.022
980	0.021
981	0.02
981	0.019
982	0.018
982	0.017
982	0.016
983	0.015
983	0.014
984	0.013
984	0.012
984	0.011
985	0.01
985	0.009
986	0.008
986	0.007
987	0.006
987	0.005
987	0.005
988	0.005
988	0.004
989	0.004
989	0.004
990	0.004
990	0.004
990	0.005
991	0.006
991	0.006
992	0.007
992	0.008
992	0.009
993	0.01
993	0.01
994	0.011
994	0.011
995	0.011
995	0.011
995	0.011
996	0.011
996	0.01
997	0.01
997	0.009
997	0.008
998	0.008
998	0.008
999	0.008
999	0.008
1000	0.008
1000	0.009
1000	0.009
1001	0.01
1001	0.011
1002	0.012
1002	0.013
1003	0.014
1003	0.014
1003	0.015
1004	0.016
1004	0.016
1005	0.016
1005	0.016
1005	0.016
1006	0.016
1006	0.016
1007	0.017
1007	0.016
1008	0.017
1008	0.017
1008	0.017
1009	0.017
1009	0.017
1010	0.017
1010	0.018
1010	0.018
1011	0.018
1011	0.018
1012	0.017
1012	0.016
1013	0.016
1013	0.015
1013	0.014
1014	0.012
1014	0.011
1015	0.01
1015	0.009
1016	0.007
1016	0.006
1016	0.005
1017	0.004
1017	0.003
1018	0.003
1018	0.002
1018	0.002
1019	0.002
1019	0.002
1020	0.003
1020	0.003
1021	0.003
1021	0.003
1021	0.003
1022	0.003
1022	0.004
1023	0.004
1023	0.003
1023	0.003
1024	0.003
1024	0.003
1025	0.002
1025	0.002
1026	0.002
1026	0.002
1026	0.002
1027	0.002
1027	0.002
1028	0.002
1028	0.003
1028	0.003
1029	0.003
1029	0.004
1030	0.004
1030	0.004
1031	0.005
1031	0.005
1031	0.005
1032	0.006
1032	0.006
1033	0.006
1033	0.006
1033	0.006
1034	0.006
1034	0.006
1035	0.007
1035	0.007
1036	0.007
1036	0.007
1036	0.008
1037	0.009
1037	0.009
1038	0.01
1038	0.01
1039	0.011
1039	0.012
1039	0.013
1040	0.013
1040	0.014
1041	0.015
1041	0.016
1041	0.017
1042	0.017
1042	0.018
1043	0.019
1043	0.02
1044	0.021
1044	0.022
1044	0.023
1045	0.023
1045	0.024
1046	0.024
1046	0.024
1046	0.025
1047	0.025
1047	0.026
1048	0.026
1048	0.026
1049	0.026
1049	0.025
1049	0.025
1050	0.025
1050	0.024
1051	0.024
1051	0.023
1051	0.023
1052	0.022
1052	0.022
1053	0.021
1053	0.021
1053	0.021
1054	0.02
1054	0.02
1055	0.02
1055	0.019
1056	0.018
1056	0.018
1056	0.017
1057	0.016
1057	0.016
1058	0.016
1058	0.016
1058	0.016
1059	0.016
1059	0.015
1060	0.016
1060	0.016
1061	0.016
1061	0.016
1061	0.017
1062	0.016
1062	0.016
1063	0.015
1063	0.015
1063	0.015
1064	0.015
1064	0.015
1065	0.015
1065	0.015
1066	0.015
1066	0.016
1066	0.017
1067	0.018
1067	0.019
1068	0.019
1068	0.019
1068	0.019
1069	0.018
1069	0.018
1070	0.017
1070	0.017
1071	0.016
1071	0.016
1071	0.015
1072	0.014
1072	0.014
1073	0.014
1073	0.014
1073	0.014
1074	0.015
1074	0.015
1075	0.015
1075	0.014
1076	0.014
1076	0.014
1076	0.014
1077	0.015
1077	0.015
1078	0.015
1078	0.017
1078	0.018
1079	0.018
1079	0.02
1080	0.021
1080	0.023
1080	0.023
1081	0.025
1081	0.026
1082	0.027
1082	0.028
1083	0.029
1083	0.03
1083	0.031
1084	0.033
1084	0.035
1085	0.036
1085	0.038
1085	0.04
1086	0.042
1086	0.043
1087	0.046
1087	0.048
1088	0.05
1088	0.051
1088	0.053
1089	0.054
1089	0.055
1090	0.056
1090	0.058
1090	0.06
1091	0.062
1091	0.064
1092	0.066
1092	0.069
1092	0.072
1093	0.074
1093	0.078
1094	0.081
1094	0.085
1095	0.087
1095	0.092
1095	0.098
1096	0.103
1096	0.107
1097	0.113
1097	0.119
1097	0.126
1098	0.133
1098	0.141
1099	0.15
1099	0.159
1100	0.168
1100	0.177
1100	0.186
1101	0.197
1101	0.21
1102	0.225
1102	0.238
1102	0.256
1103	0.273
1103	0.293
1104	0.317
1104	0.343
1104	0.373
1105	0.406
1105	0.442
1106	0.478
1106	0.526
1107	0.588
1107	0.68
1107	0.829
1108	-0
1108	-0
1109	-0
1109	-0
1109	-0
1110	-0
1110	-0
1111	-0
1111	-0
