Data from 17c-2-2a_Absorbance__1728__04164.txt Node

Date: Fri Jan 26 15:22:29 CET 2024
User: Marek
Spectrometer: MAYP115816
Trigger mode: 0
Integration Time (sec): 2.000000E-1
Scans to average: 10
Electric dark correction enabled: true
Nonlinearity correction enabled: true
Boxcar width: 5
XAxis mode: Wavelengths
Number of Pixels in Spectrum: 2068
>>>>>Begin Spectral Data<<<<<
199	-1.836
199	-1.69
200	-1.536
200	-1.421
201	-1.347
201	-1.301
202	-1.23
202	-1.173
203	-1.125
203	-1.083
204	-1.055
204	-1.031
205	-1.01
205	-1
205	-0.997
206	-0.992
206	-0.987
207	-0.984
207	-0.983
208	-0.981
208	-0.979
209	-0.976
209	-0.973
210	-0.972
210	-0.972
211	-0.972
211	-0.973
212	-0.973
212	-0.972
213	-0.97
213	-0.966
213	-0.966
214	-0.963
214	-0.961
215	-0.956
215	-0.953
216	-0.949
216	-0.948
217	-0.945
217	-0.942
218	-0.938
218	-0.937
219	-0.933
219	-0.931
220	-0.93
220	-0.93
221	-0.927
221	-0.925
221	-0.921
222	-0.915
222	-0.911
223	-0.906
223	-0.902
224	-0.896
224	-0.889
225	-0.882
225	-0.874
226	-0.865
226	-0.853
227	-0.843
227	-0.83
228	-0.814
228	-0.797
229	-0.776
229	-0.753
229	-0.728
230	-0.698
230	-0.666
231	-0.633
231	-0.596
232	-0.557
232	-0.516
233	-0.471
233	-0.426
234	-0.381
234	-0.335
235	-0.289
235	-0.245
236	-0.2
236	-0.158
236	-0.117
237	-0.077
237	-0.041
238	-0.007
238	0.025
239	0.056
239	0.083
240	0.108
240	0.132
241	0.153
241	0.173
242	0.191
242	0.207
243	0.223
243	0.236
243	0.249
244	0.26
244	0.271
245	0.28
245	0.289
246	0.298
246	0.305
247	0.312
247	0.319
248	0.325
248	0.331
249	0.336
249	0.341
250	0.346
250	0.35
250	0.354
251	0.358
251	0.362
252	0.366
252	0.369
253	0.372
253	0.375
254	0.378
254	0.381
255	0.383
255	0.385
256	0.388
256	0.39
257	0.392
257	0.393
258	0.395
258	0.396
258	0.397
259	0.398
259	0.398
260	0.399
260	0.4
261	0.4
261	0.4
262	0.401
262	0.4
263	0.401
263	0.401
264	0.401
264	0.401
265	0.4
265	0.4
265	0.399
266	0.398
266	0.398
267	0.397
267	0.396
268	0.395
268	0.393
269	0.392
269	0.39
270	0.389
270	0.388
271	0.386
271	0.385
272	0.383
272	0.382
272	0.38
273	0.378
273	0.377
274	0.375
274	0.373
275	0.372
275	0.37
276	0.368
276	0.366
277	0.364
277	0.361
278	0.359
278	0.356
278	0.354
279	0.351
279	0.349
280	0.347
280	0.345
281	0.343
281	0.341
282	0.34
282	0.338
283	0.336
283	0.335
284	0.334
284	0.332
285	0.331
285	0.329
285	0.327
286	0.326
286	0.324
287	0.322
287	0.321
288	0.319
288	0.318
289	0.316
289	0.314
290	0.313
290	0.311
291	0.31
291	0.309
292	0.308
292	0.306
292	0.305
293	0.304
293	0.302
294	0.301
294	0.3
295	0.299
295	0.298
296	0.297
296	0.296
297	0.295
297	0.294
298	0.293
298	0.292
298	0.291
299	0.291
299	0.29
300	0.289
300	0.288
301	0.287
301	0.286
302	0.286
302	0.285
303	0.284
303	0.283
304	0.283
304	0.282
305	0.281
305	0.28
305	0.279
306	0.279
306	0.278
307	0.277
307	0.276
308	0.275
308	0.274
309	0.274
309	0.273
310	0.272
310	0.271
311	0.271
311	0.27
311	0.269
312	0.268
312	0.268
313	0.267
313	0.266
314	0.265
314	0.264
315	0.264
315	0.263
316	0.262
316	0.261
317	0.26
317	0.26
318	0.259
318	0.258
318	0.257
319	0.257
319	0.256
320	0.255
320	0.254
321	0.253
321	0.252
322	0.252
322	0.251
323	0.25
323	0.249
324	0.248
324	0.247
324	0.247
325	0.246
325	0.245
326	0.245
326	0.244
327	0.243
327	0.243
328	0.242
328	0.241
329	0.241
329	0.24
330	0.239
330	0.238
330	0.238
331	0.237
331	0.236
332	0.235
332	0.235
333	0.234
333	0.233
334	0.233
334	0.232
335	0.231
335	0.231
336	0.23
336	0.23
336	0.229
337	0.228
337	0.228
338	0.227
338	0.227
339	0.226
339	0.226
340	0.225
340	0.224
341	0.224
341	0.223
342	0.223
342	0.222
342	0.222
343	0.221
343	0.221
344	0.22
344	0.22
345	0.219
345	0.219
346	0.218
346	0.218
347	0.217
347	0.217
348	0.216
348	0.216
348	0.215
349	0.215
349	0.214
350	0.214
350	0.213
351	0.213
351	0.212
352	0.212
352	0.211
353	0.211
353	0.21
354	0.21
354	0.209
354	0.209
355	0.208
355	0.207
356	0.207
356	0.206
357	0.206
357	0.206
358	0.206
358	0.206
359	0.206
359	0.206
360	0.206
360	0.207
360	0.207
361	0.207
361	0.207
362	0.207
362	0.207
363	0.207
363	0.207
364	0.206
364	0.206
365	0.206
365	0.206
366	0.206
366	0.206
366	0.206
367	0.205
367	0.205
368	0.205
368	0.204
369	0.204
369	0.204
370	0.203
370	0.203
371	0.202
371	0.202
372	0.201
372	0.201
372	0.201
373	0.201
373	0.201
374	0.201
374	0.201
375	0.201
375	0.201
376	0.201
376	0.201
377	0.201
377	0.201
378	0.201
378	0.201
378	0.201
379	0.2
379	0.2
380	0.2
380	0.2
381	0.2
381	0.2
382	0.199
382	0.199
383	0.199
383	0.198
383	0.198
384	0.198
384	0.197
385	0.197
385	0.197
386	0.196
386	0.196
387	0.196
387	0.196
388	0.196
388	0.196
389	0.196
389	0.195
389	0.195
390	0.196
390	0.196
391	0.196
391	0.196
392	0.196
392	0.196
393	0.196
393	0.196
394	0.196
394	0.195
394	0.195
395	0.195
395	0.194
396	0.194
396	0.194
397	0.193
397	0.193
398	0.193
398	0.193
399	0.192
399	0.192
400	0.192
400	0.192
400	0.192
401	0.191
401	0.191
402	0.19
402	0.19
403	0.189
403	0.189
404	0.189
404	0.189
405	0.189
405	0.188
405	0.188
406	0.188
406	0.188
407	0.188
407	0.187
408	0.187
408	0.187
409	0.186
409	0.186
410	0.186
410	0.186
411	0.186
411	0.186
411	0.185
412	0.185
412	0.185
413	0.185
413	0.184
414	0.184
414	0.184
415	0.183
415	0.183
416	0.182
416	0.182
416	0.182
417	0.181
417	0.181
418	0.181
418	0.181
419	0.181
419	0.182
420	0.182
420	0.182
421	0.183
421	0.183
421	0.183
422	0.183
422	0.183
423	0.183
423	0.183
424	0.183
424	0.182
425	0.182
425	0.182
426	0.181
426	0.181
427	0.18
427	0.18
427	0.18
428	0.181
428	0.181
429	0.181
429	0.181
430	0.181
430	0.181
431	0.181
431	0.181
432	0.181
432	0.18
432	0.179
433	0.178
433	0.178
434	0.177
434	0.177
435	0.177
435	0.177
436	0.177
436	0.177
437	0.177
437	0.177
437	0.177
438	0.177
438	0.177
439	0.176
439	0.176
440	0.175
440	0.175
441	0.175
441	0.175
442	0.175
442	0.175
442	0.175
443	0.176
443	0.176
444	0.176
444	0.176
445	0.177
445	0.177
446	0.177
446	0.177
447	0.177
447	0.176
447	0.176
448	0.176
448	0.176
449	0.176
449	0.175
450	0.175
450	0.175
451	0.175
451	0.175
452	0.174
452	0.174
452	0.174
453	0.173
453	0.173
454	0.172
454	0.172
455	0.172
455	0.172
456	0.171
456	0.171
457	0.171
457	0.171
458	0.171
458	0.172
458	0.172
459	0.173
459	0.172
460	0.172
460	0.172
461	0.172
461	0.171
462	0.171
462	0.171
463	0.172
463	0.172
463	0.172
464	0.173
464	0.173
465	0.173
465	0.174
466	0.174
466	0.174
467	0.174
467	0.174
467	0.174
468	0.173
468	0.172
469	0.171
469	0.17
470	0.17
470	0.17
471	0.17
471	0.169
472	0.17
472	0.17
472	0.171
473	0.172
473	0.173
474	0.173
474	0.174
475	0.175
475	0.176
476	0.176
476	0.177
477	0.177
477	0.177
477	0.178
478	0.178
478	0.178
479	0.179
479	0.179
480	0.18
480	0.181
481	0.181
481	0.182
482	0.183
482	0.184
482	0.185
483	0.187
483	0.189
484	0.191
484	0.193
485	0.195
485	0.196
486	0.197
486	0.198
487	0.199
487	0.2
487	0.2
488	0.2
488	0.199
489	0.199
489	0.198
490	0.198
490	0.198
491	0.199
491	0.2
492	0.201
492	0.202
492	0.203
493	0.204
493	0.205
494	0.207
494	0.209
495	0.211
495	0.212
496	0.213
496	0.215
496	0.216
497	0.217
497	0.218
498	0.22
498	0.22
499	0.221
499	0.222
500	0.223
500	0.224
501	0.226
501	0.227
501	0.229
502	0.231
502	0.232
503	0.234
503	0.236
504	0.237
504	0.238
505	0.239
505	0.241
506	0.242
506	0.243
506	0.244
507	0.245
507	0.245
508	0.246
508	0.248
509	0.249
509	0.25
510	0.251
510	0.252
511	0.253
511	0.254
511	0.254
512	0.255
512	0.256
513	0.256
513	0.256
514	0.255
514	0.255
515	0.255
515	0.256
515	0.256
516	0.256
516	0.257
517	0.257
517	0.258
518	0.258
518	0.258
519	0.258
519	0.257
520	0.256
520	0.255
520	0.253
521	0.252
521	0.25
522	0.248
522	0.247
523	0.246
523	0.246
524	0.247
524	0.249
524	0.25
525	0.252
525	0.254
526	0.255
526	0.257
527	0.258
527	0.259
528	0.26
528	0.261
529	0.261
529	0.261
529	0.26
530	0.26
530	0.259
531	0.259
531	0.258
532	0.257
532	0.257
533	0.256
533	0.255
533	0.254
534	0.253
534	0.252
535	0.251
535	0.249
536	0.248
536	0.247
537	0.246
537	0.244
538	0.243
538	0.241
538	0.24
539	0.238
539	0.237
540	0.236
540	0.234
541	0.232
541	0.23
542	0.228
542	0.226
542	0.224
543	0.222
543	0.221
544	0.219
544	0.217
545	0.215
545	0.214
546	0.213
546	0.212
547	0.21
547	0.207
547	0.205
548	0.203
548	0.201
549	0.199
549	0.197
550	0.195
550	0.192
551	0.19
551	0.187
551	0.186
552	0.184
552	0.182
553	0.181
553	0.179
554	0.177
554	0.175
555	0.173
555	0.17
556	0.167
556	0.164
556	0.161
557	0.159
557	0.156
558	0.154
558	0.152
559	0.15
559	0.148
560	0.146
560	0.145
560	0.144
561	0.143
561	0.142
562	0.141
562	0.139
563	0.137
563	0.135
564	0.132
564	0.13
564	0.128
565	0.126
565	0.124
566	0.121
566	0.12
567	0.119
567	0.118
568	0.118
568	0.119
568	0.119
569	0.12
569	0.12
570	0.12
570	0.12
571	0.12
571	0.12
572	0.119
572	0.119
573	0.118
573	0.117
573	0.116
574	0.115
574	0.114
575	0.113
575	0.114
576	0.113
576	0.112
577	0.11
577	0.109
577	0.108
578	0.107
578	0.107
579	0.107
579	0.107
580	0.105
580	0.103
581	0.101
581	0.099
581	0.098
582	0.098
582	0.097
583	0.097
583	0.096
584	0.093
584	0.09
585	0.089
585	0.089
585	0.088
586	0.088
586	0.087
587	0.086
587	0.084
588	0.082
588	0.08
589	0.079
589	0.079
590	0.078
590	0.077
590	0.078
591	0.078
591	0.077
592	0.077
592	0.076
593	0.076
593	0.075
594	0.074
594	0.073
594	0.072
595	0.072
595	0.07
596	0.069
596	0.069
597	0.07
597	0.071
598	0.071
598	0.071
598	0.072
599	0.072
599	0.072
600	0.072
600	0.071
601	0.07
601	0.07
602	0.068
602	0.068
602	0.067
603	0.067
603	0.068
604	0.068
604	0.069
605	0.07
605	0.072
606	0.072
606	0.071
606	0.071
607	0.071
607	0.07
608	0.07
608	0.069
609	0.068
609	0.067
610	0.066
610	0.065
610	0.064
611	0.065
611	0.065
612	0.066
612	0.066
613	0.067
613	0.068
614	0.068
614	0.068
614	0.068
615	0.068
615	0.068
616	0.068
616	0.068
617	0.068
617	0.067
618	0.067
618	0.066
618	0.066
619	0.066
619	0.066
620	0.067
620	0.068
621	0.068
621	0.068
622	0.068
622	0.069
622	0.069
623	0.069
623	0.07
624	0.07
624	0.071
625	0.071
625	0.072
626	0.072
626	0.073
626	0.074
627	0.075
627	0.075
628	0.076
628	0.077
629	0.078
629	0.078
630	0.078
630	0.077
630	0.078
631	0.078
631	0.078
632	0.078
632	0.078
633	0.078
633	0.079
634	0.08
634	0.081
634	0.083
635	0.084
635	0.085
636	0.086
636	0.088
637	0.089
637	0.09
638	0.091
638	0.093
638	0.095
639	0.095
639	0.096
640	0.097
640	0.099
641	0.1
641	0.101
642	0.103
642	0.105
642	0.106
643	0.107
643	0.108
644	0.11
644	0.112
645	0.113
645	0.115
646	0.118
646	0.12
646	0.124
647	0.127
647	0.13
648	0.133
648	0.136
649	0.139
649	0.142
650	0.145
650	0.149
650	0.152
651	0.154
651	0.157
652	0.159
652	0.161
653	0.164
653	0.171
653	0.179
654	0.144
654	0.118
655	0.122
655	0.124
656	0.126
656	0.128
657	0.13
657	0.132
657	0.134
658	0.132
658	0.126
659	0.158
659	0.203
660	0.208
660	0.21
661	0.212
661	0.214
661	0.217
662	0.22
662	0.222
663	0.225
663	0.227
664	0.23
664	0.232
665	0.235
665	0.238
665	0.24
666	0.243
666	0.245
667	0.247
667	0.25
668	0.252
668	0.255
669	0.257
669	0.26
669	0.264
670	0.267
670	0.27
671	0.273
671	0.275
672	0.277
672	0.279
672	0.28
673	0.282
673	0.284
674	0.286
674	0.288
675	0.289
675	0.29
676	0.293
676	0.295
676	0.297
677	0.299
677	0.302
678	0.303
678	0.305
679	0.306
679	0.308
680	0.31
680	0.312
680	0.313
681	0.314
681	0.315
682	0.316
682	0.317
683	0.318
683	0.32
684	0.321
684	0.321
684	0.321
685	0.321
685	0.32
686	0.32
686	0.32
687	0.319
687	0.318
687	0.317
688	0.316
688	0.316
689	0.316
689	0.317
690	0.318
690	0.319
691	0.319
691	0.32
691	0.321
692	0.32
692	0.32
693	0.32
693	0.32
694	0.318
694	0.317
695	0.316
695	0.316
695	0.315
696	0.314
696	0.312
697	0.311
697	0.31
698	0.308
698	0.306
698	0.304
699	0.302
699	0.3
700	0.296
700	0.294
701	0.293
701	0.291
702	0.289
702	0.288
702	0.286
703	0.284
703	0.282
704	0.28
704	0.279
705	0.278
705	0.277
705	0.275
706	0.273
706	0.272
707	0.27
707	0.268
708	0.266
708	0.264
709	0.262
709	0.26
709	0.257
710	0.254
710	0.251
711	0.249
711	0.247
712	0.245
712	0.244
713	0.242
713	0.241
713	0.239
714	0.236
714	0.234
715	0.231
715	0.228
716	0.225
716	0.223
716	0.22
717	0.217
717	0.214
718	0.21
718	0.207
719	0.204
719	0.202
720	0.2
720	0.198
720	0.195
721	0.192
721	0.19
722	0.187
722	0.185
723	0.183
723	0.181
723	0.179
724	0.177
724	0.175
725	0.172
725	0.17
726	0.168
726	0.166
727	0.164
727	0.162
727	0.16
728	0.158
728	0.155
729	0.154
729	0.152
730	0.15
730	0.148
730	0.146
731	0.144
731	0.142
732	0.141
732	0.139
733	0.137
733	0.136
734	0.134
734	0.132
734	0.13
735	0.129
735	0.128
736	0.126
736	0.125
737	0.124
737	0.123
737	0.121
738	0.119
738	0.117
739	0.115
739	0.113
740	0.11
740	0.108
741	0.106
741	0.103
741	0.1
742	0.096
742	0.093
743	0.091
743	0.088
744	0.086
744	0.084
744	0.082
745	0.079
745	0.076
746	0.074
746	0.072
747	0.071
747	0.07
748	0.07
748	0.069
748	0.069
749	0.068
749	0.067
750	0.067
750	0.067
751	0.067
751	0.068
751	0.068
752	0.067
752	0.066
753	0.065
753	0.065
754	0.064
754	0.063
754	0.063
755	0.063
755	0.063
756	0.062
756	0.06
757	0.059
757	0.059
758	0.058
758	0.057
758	0.056
759	0.055
759	0.053
760	0.05
760	0.048
761	0.045
761	0.044
761	0.042
762	0.04
762	0.039
763	0.038
763	0.036
764	0.034
764	0.032
764	0.031
765	0.03
765	0.028
766	0.027
766	0.027
767	0.026
767	0.024
768	0.021
768	0.019
768	0.018
769	0.016
769	0.015
770	0.013
770	0.012
771	0.009
771	0.006
771	0.004
772	0.002
772	-0
773	-0.002
773	-0.004
774	-0.007
774	-0.01
775	-0.012
775	-0.014
775	-0.016
776	-0.018
776	-0.02
777	-0.022
777	-0.023
778	-0.026
778	-0.029
778	-0.031
779	-0.033
779	-0.035
780	-0.038
780	-0.041
781	-0.045
781	-0.049
781	-0.055
782	-0.061
782	-0.069
783	-0.076
783	-0.083
784	-0.09
784	-0.096
784	-0.102
785	-0.108
785	-0.114
786	-0.118
786	-0.118
787	-0.115
787	-0.112
788	-0.112
788	-0.113
788	-0.114
789	-0.116
789	-0.116
790	-0.113
790	-0.112
791	-0.113
791	-0.115
791	-0.118
792	-0.113
792	-0.102
793	-0.096
793	-0.092
794	-0.091
794	-0.093
794	-0.097
795	-0.1
795	-0.1
796	-0.1
796	-0.103
797	-0.112
797	-0.123
797	-0.13
798	-0.135
798	-0.138
799	-0.139
799	-0.138
800	-0.138
800	-0.139
801	-0.142
801	-0.143
801	-0.142
802	-0.143
802	-0.144
803	-0.145
803	-0.145
804	-0.144
804	-0.139
804	-0.132
805	-0.129
805	-0.127
806	-0.125
806	-0.124
807	-0.124
807	-0.124
807	-0.124
808	-0.124
808	-0.126
809	-0.131
809	-0.136
810	-0.14
810	-0.143
810	-0.146
811	-0.149
811	-0.15
812	-0.146
812	-0.142
813	-0.142
813	-0.143
813	-0.145
814	-0.146
814	-0.146
815	-0.144
815	-0.141
816	-0.14
816	-0.14
817	-0.145
817	-0.149
817	-0.149
818	-0.149
818	-0.145
819	-0.14
819	-0.136
820	-0.135
820	-0.133
820	-0.129
821	-0.124
821	-0.117
822	-0.11
822	-0.102
823	-0.094
823	-0.088
823	-0.084
824	-0.078
824	-0.071
825	-0.064
825	-0.057
826	-0.051
826	-0.046
826	-0.042
827	-0.037
827	-0.033
828	-0.03
828	-0.027
829	-0.025
829	-0.023
829	-0.022
830	-0.021
830	-0.02
831	-0.018
831	-0.017
832	-0.016
832	-0.015
832	-0.014
833	-0.013
833	-0.012
834	-0.01
834	-0.009
835	-0.007
835	-0.006
835	-0.005
836	-0.004
836	-0.003
837	-0.002
837	-0.001
838	-0
838	0
839	0
839	0
839	-0
840	-0.001
840	-0.001
841	-0.002
841	-0.002
842	-0.002
842	-0.002
842	-0.002
843	-0.002
843	-0.001
844	-0.001
844	-0
845	0.001
845	0.002
845	0.002
846	0.003
846	0.003
847	0.004
847	0.005
848	0.005
848	0.006
848	0.006
849	0.007
849	0.008
850	0.008
850	0.008
851	0.009
851	0.009
851	0.009
852	0.009
852	0.009
853	0.009
853	0.009
854	0.009
854	0.009
854	0.009
855	0.01
855	0.009
856	0.009
856	0.009
857	0.009
857	0.009
857	0.009
858	0.009
858	0.009
859	0.008
859	0.008
860	0.008
860	0.008
860	0.008
861	0.008
861	0.009
862	0.009
862	0.009
863	0.01
863	0.01
863	0.012
864	0.013
864	0.014
865	0.016
865	0.017
866	0.018
866	0.019
866	0.02
867	0.021
867	0.022
868	0.022
868	0.021
869	0.021
869	0.021
869	0.02
870	0.019
870	0.018
871	0.018
871	0.017
872	0.017
872	0.016
872	0.016
873	0.016
873	0.015
874	0.014
874	0.014
875	0.013
875	0.013
875	0.012
876	0.011
876	0.01
877	0.01
877	0.009
878	0.009
878	0.009
878	0.009
879	0.009
879	0.009
880	0.009
880	0.009
881	0.01
881	0.01
881	0.01
882	0.011
882	0.011
883	0.011
883	0.012
884	0.012
884	0.013
884	0.013
885	0.013
885	0.014
886	0.014
886	0.014
887	0.014
887	0.014
887	0.015
888	0.014
888	0.014
889	0.014
889	0.014
890	0.014
890	0.014
890	0.013
891	0.012
891	0.012
892	0.011
892	0.011
893	0.011
893	0.011
893	0.011
894	0.011
894	0.011
895	0.011
895	0.011
895	0.011
896	0.01
896	0.01
897	0.01
897	0.009
898	0.008
898	0.008
898	0.007
899	0.007
899	0.007
900	0.007
900	0.006
901	0.006
901	0.007
901	0.007
902	0.008
902	0.008
903	0.009
903	0.01
904	0.011
904	0.011
904	0.012
905	0.012
905	0.013
906	0.013
906	0.013
907	0.013
907	0.012
907	0.012
908	0.012
908	0.012
909	0.013
909	0.013
910	0.014
910	0.015
910	0.015
911	0.015
911	0.015
912	0.016
912	0.016
913	0.015
913	0.015
913	0.014
914	0.013
914	0.013
915	0.012
915	0.012
916	0.012
916	0.011
916	0.011
917	0.011
917	0.01
918	0.01
918	0.01
918	0.01
919	0.01
919	0.01
920	0.011
920	0.011
921	0.012
921	0.013
921	0.013
922	0.014
922	0.015
923	0.015
923	0.016
924	0.016
924	0.017
924	0.017
925	0.017
925	0.017
926	0.017
926	0.017
927	0.017
927	0.017
927	0.017
928	0.017
928	0.017
929	0.017
929	0.016
930	0.016
930	0.015
930	0.015
931	0.014
931	0.014
932	0.013
932	0.012
933	0.012
933	0.011
933	0.01
934	0.009
934	0.009
935	0.008
935	0.007
935	0.007
936	0.006
936	0.006
937	0.006
937	0.005
938	0.006
938	0.006
938	0.007
939	0.008
939	0.009
940	0.01
940	0.012
941	0.013
941	0.014
941	0.016
942	0.017
942	0.018
943	0.019
943	0.019
944	0.02
944	0.02
944	0.02
945	0.02
945	0.021
946	0.021
946	0.021
946	0.021
947	0.021
947	0.021
948	0.021
948	0.021
949	0.021
949	0.02
949	0.02
950	0.02
950	0.019
951	0.019
951	0.019
952	0.018
952	0.018
952	0.018
953	0.017
953	0.017
954	0.017
954	0.017
955	0.017
955	0.018
955	0.018
956	0.018
956	0.019
957	0.019
957	0.019
957	0.019
958	0.019
958	0.02
959	0.021
959	0.021
960	0.021
960	0.021
960	0.021
961	0.021
961	0.022
962	0.022
962	0.023
963	0.023
963	0.023
963	0.024
964	0.024
964	0.025
965	0.025
965	0.025
966	0.026
966	0.026
966	0.026
967	0.026
967	0.025
968	0.025
968	0.024
968	0.023
969	0.022
969	0.022
970	0.021
970	0.021
971	0.02
971	0.019
971	0.019
972	0.019
972	0.018
973	0.018
973	0.017
974	0.017
974	0.017
974	0.017
975	0.017
975	0.017
976	0.017
976	0.018
976	0.018
977	0.018
977	0.018
978	0.018
978	0.018
979	0.018
979	0.018
979	0.018
980	0.018
980	0.017
981	0.017
981	0.017
982	0.016
982	0.016
982	0.016
983	0.015
983	0.014
984	0.013
984	0.012
984	0.012
985	0.011
985	0.01
986	0.009
986	0.008
987	0.008
987	0.008
987	0.008
988	0.008
988	0.008
989	0.008
989	0.009
990	0.009
990	0.01
990	0.011
991	0.012
991	0.013
992	0.014
992	0.015
992	0.016
993	0.016
993	0.016
994	0.016
994	0.016
995	0.016
995	0.015
995	0.015
996	0.014
996	0.013
997	0.012
997	0.011
997	0.011
998	0.01
998	0.01
999	0.011
999	0.011
1000	0.011
1000	0.011
1000	0.011
1001	0.012
1001	0.012
1002	0.013
1002	0.014
1003	0.014
1003	0.014
1003	0.015
1004	0.015
1004	0.016
1005	0.016
1005	0.016
1005	0.017
1006	0.017
1006	0.017
1007	0.017
1007	0.017
1008	0.017
1008	0.017
1008	0.018
1009	0.018
1009	0.018
1010	0.018
1010	0.018
1010	0.019
1011	0.019
1011	0.019
1012	0.019
1012	0.019
1013	0.019
1013	0.019
1013	0.019
1014	0.019
1014	0.019
1015	0.018
1015	0.018
1016	0.017
1016	0.017
1016	0.016
1017	0.015
1017	0.015
1018	0.014
1018	0.013
1018	0.012
1019	0.011
1019	0.01
1020	0.01
1020	0.009
1021	0.008
1021	0.008
1021	0.007
1022	0.007
1022	0.007
1023	0.007
1023	0.007
1023	0.007
1024	0.007
1024	0.007
1025	0.007
1025	0.007
1026	0.007
1026	0.007
1026	0.007
1027	0.007
1027	0.007
1028	0.008
1028	0.008
1028	0.008
1029	0.008
1029	0.008
1030	0.008
1030	0.007
1031	0.008
1031	0.007
1031	0.007
1032	0.007
1032	0.007
1033	0.007
1033	0.007
1033	0.006
1034	0.006
1034	0.006
1035	0.006
1035	0.006
1036	0.006
1036	0.006
1036	0.007
1037	0.008
1037	0.008
1038	0.009
1038	0.009
1039	0.01
1039	0.011
1039	0.012
1040	0.013
1040	0.013
1041	0.014
1041	0.014
1041	0.014
1042	0.014
1042	0.015
1043	0.015
1043	0.015
1044	0.016
1044	0.016
1044	0.016
1045	0.016
1045	0.016
1046	0.016
1046	0.016
1046	0.016
1047	0.016
1047	0.016
1048	0.016
1048	0.016
1049	0.015
1049	0.014
1049	0.014
1050	0.013
1050	0.013
1051	0.013
1051	0.013
1051	0.013
1052	0.012
1052	0.012
1053	0.012
1053	0.012
1053	0.013
1054	0.013
1054	0.013
1055	0.014
1055	0.014
1056	0.014
1056	0.014
1056	0.014
1057	0.014
1057	0.014
1058	0.015
1058	0.015
1058	0.016
1059	0.016
1059	0.016
1060	0.016
1060	0.017
1061	0.017
1061	0.018
1061	0.018
1062	0.018
1062	0.017
1063	0.017
1063	0.016
1063	0.016
1064	0.016
1064	0.016
1065	0.016
1065	0.016
1066	0.016
1066	0.017
1066	0.017
1067	0.018
1067	0.019
1068	0.019
1068	0.018
1068	0.018
1069	0.017
1069	0.016
1070	0.016
1070	0.015
1071	0.015
1071	0.015
1071	0.014
1072	0.014
1072	0.013
1073	0.013
1073	0.013
1073	0.013
1074	0.014
1074	0.014
1075	0.014
1075	0.014
1076	0.013
1076	0.013
1076	0.013
1077	0.014
1077	0.014
1078	0.014
1078	0.015
1078	0.017
1079	0.017
1079	0.019
1080	0.02
1080	0.022
1080	0.023
1081	0.025
1081	0.026
1082	0.027
1082	0.029
1083	0.03
1083	0.031
1083	0.033
1084	0.034
1084	0.035
1085	0.036
1085	0.038
1085	0.04
1086	0.041
1086	0.042
1087	0.044
1087	0.046
1088	0.047
1088	0.048
1088	0.05
1089	0.051
1089	0.052
1090	0.054
1090	0.056
1090	0.058
1091	0.06
1091	0.063
1092	0.064
1092	0.067
1092	0.07
1093	0.072
1093	0.076
1094	0.079
1094	0.082
1095	0.085
1095	0.088
1095	0.093
1096	0.097
1096	0.102
1097	0.108
1097	0.114
1097	0.121
1098	0.128
1098	0.135
1099	0.143
1099	0.152
1100	0.161
1100	0.17
1100	0.18
1101	0.19
1101	0.201
1102	0.215
1102	0.229
1102	0.246
1103	0.264
1103	0.285
1104	0.308
1104	0.333
1104	0.361
1105	0.392
1105	0.427
1106	0.464
1106	0.509
1107	0.568
1107	0.653
1107	0.786
1108	1.88
1108	-0
1109	-0
1109	-0
1109	-0
1110	-0
1110	-0
1111	-0
1111	-0
