Data from 17c-2-2a_Absorbance__1411__03847.txt Node

Date: Fri Jan 26 15:11:55 CET 2024
User: Marek
Spectrometer: MAYP115816
Trigger mode: 0
Integration Time (sec): 2.000000E-1
Scans to average: 10
Electric dark correction enabled: true
Nonlinearity correction enabled: true
Boxcar width: 5
XAxis mode: Wavelengths
Number of Pixels in Spectrum: 2068
>>>>>Begin Spectral Data<<<<<
199	-1.831
199	-1.685
200	-1.532
200	-1.416
201	-1.342
201	-1.296
202	-1.226
202	-1.167
203	-1.118
203	-1.076
204	-1.049
204	-1.024
205	-1.002
205	-0.992
205	-0.988
206	-0.983
206	-0.979
207	-0.975
207	-0.975
208	-0.974
208	-0.972
209	-0.97
209	-0.966
210	-0.966
210	-0.966
211	-0.966
211	-0.967
212	-0.967
212	-0.966
213	-0.964
213	-0.959
213	-0.959
214	-0.956
214	-0.954
215	-0.95
215	-0.947
216	-0.944
216	-0.943
217	-0.94
217	-0.938
218	-0.934
218	-0.933
219	-0.929
219	-0.927
220	-0.925
220	-0.925
221	-0.922
221	-0.92
221	-0.916
222	-0.91
222	-0.906
223	-0.901
223	-0.898
224	-0.892
224	-0.885
225	-0.878
225	-0.87
226	-0.86
226	-0.848
227	-0.837
227	-0.825
228	-0.808
228	-0.791
229	-0.77
229	-0.747
229	-0.722
230	-0.692
230	-0.661
231	-0.628
231	-0.592
232	-0.552
232	-0.511
233	-0.467
233	-0.421
234	-0.376
234	-0.331
235	-0.286
235	-0.242
236	-0.199
236	-0.157
236	-0.116
237	-0.078
237	-0.042
238	-0.008
238	0.023
239	0.052
239	0.079
240	0.105
240	0.127
241	0.149
241	0.168
242	0.185
242	0.201
243	0.216
243	0.23
243	0.242
244	0.253
244	0.263
245	0.272
245	0.28
246	0.288
246	0.295
247	0.302
247	0.308
248	0.314
248	0.319
249	0.324
249	0.329
250	0.334
250	0.338
250	0.343
251	0.346
251	0.35
252	0.354
252	0.357
253	0.36
253	0.362
254	0.365
254	0.368
255	0.37
255	0.372
256	0.374
256	0.376
257	0.378
257	0.379
258	0.381
258	0.382
258	0.383
259	0.384
259	0.385
260	0.386
260	0.387
261	0.387
261	0.388
262	0.388
262	0.388
263	0.388
263	0.388
264	0.387
264	0.387
265	0.387
265	0.386
265	0.385
266	0.385
266	0.384
267	0.383
267	0.382
268	0.381
268	0.38
269	0.379
269	0.377
270	0.376
270	0.374
271	0.373
271	0.371
272	0.37
272	0.368
272	0.366
273	0.365
273	0.363
274	0.361
274	0.36
275	0.358
275	0.356
276	0.354
276	0.352
277	0.35
277	0.348
278	0.346
278	0.343
278	0.341
279	0.339
279	0.336
280	0.334
280	0.332
281	0.331
281	0.329
282	0.327
282	0.325
283	0.324
283	0.322
284	0.321
284	0.32
285	0.318
285	0.316
285	0.315
286	0.313
286	0.311
287	0.309
287	0.308
288	0.306
288	0.305
289	0.303
289	0.301
290	0.3
290	0.299
291	0.297
291	0.296
292	0.295
292	0.293
292	0.292
293	0.291
293	0.29
294	0.289
294	0.288
295	0.287
295	0.285
296	0.285
296	0.284
297	0.283
297	0.282
298	0.281
298	0.281
298	0.28
299	0.279
299	0.278
300	0.277
300	0.277
301	0.276
301	0.275
302	0.274
302	0.273
303	0.272
303	0.272
304	0.271
304	0.27
305	0.269
305	0.269
305	0.268
306	0.267
306	0.266
307	0.266
307	0.265
308	0.264
308	0.263
309	0.263
309	0.262
310	0.261
310	0.26
311	0.259
311	0.259
311	0.258
312	0.257
312	0.257
313	0.256
313	0.255
314	0.254
314	0.253
315	0.253
315	0.252
316	0.251
316	0.25
317	0.25
317	0.249
318	0.248
318	0.248
318	0.247
319	0.246
319	0.246
320	0.245
320	0.244
321	0.243
321	0.242
322	0.242
322	0.241
323	0.24
323	0.239
324	0.238
324	0.238
324	0.237
325	0.236
325	0.235
326	0.235
326	0.234
327	0.233
327	0.233
328	0.232
328	0.231
329	0.231
329	0.23
330	0.229
330	0.228
330	0.228
331	0.227
331	0.226
332	0.226
332	0.225
333	0.224
333	0.224
334	0.223
334	0.223
335	0.222
335	0.221
336	0.221
336	0.22
336	0.219
337	0.219
337	0.219
338	0.218
338	0.217
339	0.217
339	0.216
340	0.216
340	0.215
341	0.214
341	0.214
342	0.213
342	0.213
342	0.212
343	0.211
343	0.211
344	0.211
344	0.21
345	0.21
345	0.209
346	0.209
346	0.208
347	0.208
347	0.208
348	0.207
348	0.206
348	0.206
349	0.205
349	0.205
350	0.204
350	0.204
351	0.203
351	0.203
352	0.203
352	0.202
353	0.202
353	0.201
354	0.201
354	0.2
354	0.2
355	0.199
355	0.199
356	0.198
356	0.198
357	0.197
357	0.197
358	0.197
358	0.197
359	0.197
359	0.197
360	0.198
360	0.198
360	0.198
361	0.198
361	0.198
362	0.198
362	0.198
363	0.198
363	0.198
364	0.198
364	0.197
365	0.197
365	0.197
366	0.197
366	0.197
366	0.197
367	0.196
367	0.196
368	0.196
368	0.195
369	0.195
369	0.195
370	0.194
370	0.194
371	0.194
371	0.193
372	0.193
372	0.193
372	0.192
373	0.192
373	0.192
374	0.192
374	0.192
375	0.192
375	0.192
376	0.192
376	0.192
377	0.192
377	0.192
378	0.192
378	0.192
378	0.192
379	0.192
379	0.192
380	0.192
380	0.192
381	0.192
381	0.191
382	0.191
382	0.191
383	0.19
383	0.19
383	0.19
384	0.189
384	0.189
385	0.189
385	0.188
386	0.188
386	0.188
387	0.188
387	0.188
388	0.187
388	0.187
389	0.187
389	0.187
389	0.187
390	0.187
390	0.187
391	0.187
391	0.187
392	0.187
392	0.187
393	0.187
393	0.187
394	0.187
394	0.187
394	0.187
395	0.187
395	0.186
396	0.186
396	0.186
397	0.185
397	0.185
398	0.185
398	0.185
399	0.184
399	0.184
400	0.184
400	0.183
400	0.183
401	0.182
401	0.181
402	0.181
402	0.18
403	0.18
403	0.18
404	0.18
404	0.18
405	0.179
405	0.179
405	0.179
406	0.179
406	0.179
407	0.179
407	0.178
408	0.178
408	0.178
409	0.178
409	0.177
410	0.177
410	0.177
411	0.177
411	0.177
411	0.177
412	0.177
412	0.177
413	0.177
413	0.176
414	0.176
414	0.176
415	0.175
415	0.175
416	0.175
416	0.174
416	0.174
417	0.173
417	0.173
418	0.173
418	0.173
419	0.174
419	0.174
420	0.174
420	0.175
421	0.175
421	0.175
421	0.175
422	0.176
422	0.175
423	0.175
423	0.175
424	0.175
424	0.174
425	0.174
425	0.173
426	0.173
426	0.172
427	0.172
427	0.172
427	0.172
428	0.172
428	0.172
429	0.173
429	0.173
430	0.173
430	0.173
431	0.173
431	0.172
432	0.172
432	0.172
432	0.171
433	0.171
433	0.17
434	0.17
434	0.17
435	0.169
435	0.169
436	0.169
436	0.17
437	0.17
437	0.17
437	0.169
438	0.169
438	0.169
439	0.169
439	0.168
440	0.168
440	0.168
441	0.168
441	0.167
442	0.168
442	0.168
442	0.168
443	0.168
443	0.168
444	0.168
444	0.168
445	0.169
445	0.169
446	0.169
446	0.169
447	0.168
447	0.168
447	0.168
448	0.168
448	0.168
449	0.168
449	0.168
450	0.168
450	0.168
451	0.167
451	0.167
452	0.167
452	0.167
452	0.166
453	0.166
453	0.165
454	0.165
454	0.165
455	0.164
455	0.164
456	0.164
456	0.164
457	0.164
457	0.164
458	0.164
458	0.164
458	0.165
459	0.165
459	0.165
460	0.164
460	0.164
461	0.164
461	0.164
462	0.164
462	0.164
463	0.164
463	0.164
463	0.164
464	0.165
464	0.165
465	0.165
465	0.165
466	0.166
466	0.166
467	0.166
467	0.165
467	0.165
468	0.164
468	0.163
469	0.162
469	0.161
470	0.161
470	0.161
471	0.16
471	0.16
472	0.16
472	0.161
472	0.162
473	0.163
473	0.163
474	0.164
474	0.165
475	0.166
475	0.166
476	0.166
476	0.167
477	0.167
477	0.168
477	0.168
478	0.168
478	0.169
479	0.169
479	0.17
480	0.171
480	0.171
481	0.172
481	0.173
482	0.174
482	0.175
482	0.176
483	0.178
483	0.18
484	0.182
484	0.184
485	0.186
485	0.187
486	0.188
486	0.189
487	0.189
487	0.19
487	0.19
488	0.19
488	0.189
489	0.189
489	0.188
490	0.188
490	0.188
491	0.188
491	0.189
492	0.19
492	0.191
492	0.192
493	0.193
493	0.194
494	0.196
494	0.198
495	0.2
495	0.201
496	0.203
496	0.204
496	0.205
497	0.206
497	0.207
498	0.208
498	0.209
499	0.21
499	0.21
500	0.211
500	0.213
501	0.214
501	0.216
501	0.217
502	0.219
502	0.22
503	0.222
503	0.223
504	0.224
504	0.225
505	0.227
505	0.228
506	0.229
506	0.23
506	0.231
507	0.232
507	0.233
508	0.233
508	0.235
509	0.236
509	0.237
510	0.238
510	0.239
511	0.239
511	0.24
511	0.24
512	0.241
512	0.242
513	0.242
513	0.242
514	0.242
514	0.241
515	0.241
515	0.241
515	0.241
516	0.242
516	0.242
517	0.243
517	0.244
518	0.244
518	0.244
519	0.244
519	0.243
520	0.242
520	0.241
520	0.24
521	0.238
521	0.237
522	0.235
522	0.234
523	0.233
523	0.233
524	0.234
524	0.235
524	0.236
525	0.238
525	0.239
526	0.241
526	0.242
527	0.244
527	0.245
528	0.245
528	0.246
529	0.246
529	0.246
529	0.245
530	0.245
530	0.245
531	0.244
531	0.244
532	0.243
532	0.242
533	0.242
533	0.241
533	0.24
534	0.239
534	0.238
535	0.237
535	0.236
536	0.235
536	0.234
537	0.233
537	0.232
538	0.23
538	0.229
538	0.227
539	0.226
539	0.225
540	0.223
540	0.221
541	0.22
541	0.218
542	0.216
542	0.214
542	0.212
543	0.21
543	0.208
544	0.206
544	0.204
545	0.203
545	0.202
546	0.201
546	0.199
547	0.198
547	0.195
547	0.193
548	0.191
548	0.19
549	0.188
549	0.186
550	0.184
550	0.181
551	0.179
551	0.176
551	0.175
552	0.173
552	0.171
553	0.17
553	0.169
554	0.167
554	0.165
555	0.163
555	0.16
556	0.158
556	0.155
556	0.152
557	0.15
557	0.148
558	0.145
558	0.143
559	0.141
559	0.139
560	0.138
560	0.137
560	0.136
561	0.135
561	0.134
562	0.133
562	0.132
563	0.13
563	0.128
564	0.126
564	0.124
564	0.122
565	0.12
565	0.118
566	0.116
566	0.114
567	0.113
567	0.113
568	0.113
568	0.113
568	0.113
569	0.114
569	0.115
570	0.114
570	0.114
571	0.114
571	0.114
572	0.114
572	0.113
573	0.113
573	0.112
573	0.11
574	0.109
574	0.108
575	0.107
575	0.107
576	0.107
576	0.105
577	0.104
577	0.103
577	0.102
578	0.101
578	0.1
579	0.101
579	0.102
580	0.1
580	0.098
581	0.096
581	0.095
581	0.094
582	0.093
582	0.093
583	0.093
583	0.092
584	0.089
584	0.086
585	0.084
585	0.084
585	0.083
586	0.083
586	0.082
587	0.081
587	0.079
588	0.077
588	0.075
589	0.074
589	0.073
590	0.073
590	0.072
590	0.073
591	0.073
591	0.073
592	0.073
592	0.072
593	0.072
593	0.072
594	0.071
594	0.07
594	0.07
595	0.069
595	0.068
596	0.067
596	0.067
597	0.069
597	0.069
598	0.07
598	0.07
598	0.071
599	0.071
599	0.071
600	0.07
600	0.069
601	0.069
601	0.068
602	0.066
602	0.066
602	0.065
603	0.064
603	0.065
604	0.065
604	0.066
605	0.067
605	0.068
606	0.068
606	0.068
606	0.067
607	0.067
607	0.066
608	0.065
608	0.064
609	0.063
609	0.062
610	0.061
610	0.059
610	0.059
611	0.059
611	0.06
612	0.06
612	0.061
613	0.063
613	0.064
614	0.065
614	0.065
614	0.066
615	0.066
615	0.066
616	0.066
616	0.066
617	0.066
617	0.066
618	0.065
618	0.064
618	0.063
619	0.063
619	0.063
620	0.064
620	0.065
621	0.065
621	0.065
622	0.065
622	0.065
622	0.066
623	0.066
623	0.067
624	0.067
624	0.067
625	0.067
625	0.068
626	0.068
626	0.069
626	0.069
627	0.07
627	0.071
628	0.072
628	0.072
629	0.073
629	0.073
630	0.072
630	0.072
630	0.073
631	0.073
631	0.073
632	0.073
632	0.073
633	0.073
633	0.074
634	0.075
634	0.077
634	0.079
635	0.081
635	0.082
636	0.083
636	0.085
637	0.085
637	0.086
638	0.087
638	0.089
638	0.09
639	0.09
639	0.09
640	0.091
640	0.092
641	0.094
641	0.095
642	0.097
642	0.099
642	0.101
643	0.103
643	0.104
644	0.106
644	0.108
645	0.11
645	0.112
646	0.114
646	0.117
646	0.12
647	0.123
647	0.126
648	0.129
648	0.131
649	0.134
649	0.137
650	0.14
650	0.143
650	0.146
651	0.148
651	0.151
652	0.152
652	0.154
653	0.157
653	0.164
653	0.173
654	0.139
654	0.114
655	0.117
655	0.119
656	0.12
656	0.122
657	0.124
657	0.126
657	0.127
658	0.125
658	0.118
659	0.148
659	0.189
660	0.195
660	0.197
661	0.199
661	0.201
661	0.204
662	0.207
662	0.21
663	0.213
663	0.216
664	0.218
664	0.221
665	0.223
665	0.226
665	0.228
666	0.231
666	0.233
667	0.235
667	0.238
668	0.24
668	0.243
669	0.246
669	0.249
669	0.253
670	0.256
670	0.259
671	0.261
671	0.263
672	0.265
672	0.267
672	0.268
673	0.27
673	0.271
674	0.273
674	0.274
675	0.274
675	0.276
676	0.278
676	0.28
676	0.282
677	0.284
677	0.286
678	0.288
678	0.289
679	0.29
679	0.291
680	0.293
680	0.294
680	0.295
681	0.296
681	0.297
682	0.298
682	0.299
683	0.301
683	0.304
684	0.305
684	0.306
684	0.306
685	0.306
685	0.307
686	0.307
686	0.307
687	0.306
687	0.305
687	0.304
688	0.303
688	0.302
689	0.303
689	0.304
690	0.305
690	0.305
691	0.305
691	0.306
691	0.306
692	0.306
692	0.306
693	0.306
693	0.306
694	0.305
694	0.303
695	0.303
695	0.303
695	0.303
696	0.302
696	0.301
697	0.299
697	0.298
698	0.297
698	0.295
698	0.293
699	0.292
699	0.289
700	0.286
700	0.284
701	0.282
701	0.281
702	0.279
702	0.277
702	0.276
703	0.273
703	0.271
704	0.269
704	0.268
705	0.266
705	0.265
705	0.263
706	0.261
706	0.26
707	0.258
707	0.256
708	0.255
708	0.253
709	0.252
709	0.25
709	0.247
710	0.244
710	0.242
711	0.24
711	0.238
712	0.237
712	0.235
713	0.233
713	0.231
713	0.229
714	0.226
714	0.223
715	0.221
715	0.218
716	0.215
716	0.212
716	0.208
717	0.205
717	0.202
718	0.199
718	0.196
719	0.194
719	0.192
720	0.19
720	0.188
720	0.185
721	0.183
721	0.181
722	0.178
722	0.176
723	0.173
723	0.172
723	0.169
724	0.167
724	0.165
725	0.163
725	0.161
726	0.16
726	0.158
727	0.157
727	0.155
727	0.154
728	0.152
728	0.15
729	0.149
729	0.148
730	0.146
730	0.144
730	0.142
731	0.14
731	0.138
732	0.137
732	0.135
733	0.133
733	0.131
734	0.129
734	0.127
734	0.126
735	0.125
735	0.124
736	0.122
736	0.12
737	0.119
737	0.117
737	0.116
738	0.114
738	0.111
739	0.109
739	0.106
740	0.103
740	0.101
741	0.099
741	0.097
741	0.093
742	0.09
742	0.086
743	0.084
743	0.082
744	0.08
744	0.077
744	0.075
745	0.073
745	0.071
746	0.069
746	0.069
747	0.068
747	0.068
748	0.068
748	0.068
748	0.068
749	0.067
749	0.067
750	0.066
750	0.066
751	0.065
751	0.065
751	0.065
752	0.064
752	0.063
753	0.062
753	0.061
754	0.061
754	0.06
754	0.06
755	0.06
755	0.06
756	0.059
756	0.058
757	0.057
757	0.056
758	0.056
758	0.055
758	0.054
759	0.053
759	0.051
760	0.049
760	0.046
761	0.044
761	0.043
761	0.042
762	0.04
762	0.039
763	0.037
763	0.035
764	0.032
764	0.03
764	0.028
765	0.026
765	0.024
766	0.023
766	0.022
767	0.021
767	0.019
768	0.016
768	0.015
768	0.014
769	0.014
769	0.013
770	0.012
770	0.011
771	0.008
771	0.006
771	0.003
772	0.001
772	-0.002
773	-0.004
773	-0.007
774	-0.01
774	-0.013
775	-0.016
775	-0.018
775	-0.021
776	-0.023
776	-0.025
777	-0.026
777	-0.028
778	-0.03
778	-0.033
778	-0.036
779	-0.038
779	-0.039
780	-0.042
780	-0.046
781	-0.049
781	-0.054
781	-0.059
782	-0.066
782	-0.073
783	-0.08
783	-0.086
784	-0.093
784	-0.099
784	-0.104
785	-0.11
785	-0.116
786	-0.119
786	-0.119
787	-0.115
787	-0.113
788	-0.112
788	-0.113
788	-0.114
789	-0.116
789	-0.116
790	-0.113
790	-0.112
791	-0.113
791	-0.115
791	-0.118
792	-0.113
792	-0.102
793	-0.096
793	-0.092
794	-0.091
794	-0.093
794	-0.097
795	-0.1
795	-0.1
796	-0.1
796	-0.103
797	-0.112
797	-0.123
797	-0.13
798	-0.135
798	-0.138
799	-0.139
799	-0.138
800	-0.138
800	-0.139
801	-0.142
801	-0.143
801	-0.142
802	-0.143
802	-0.144
803	-0.145
803	-0.145
804	-0.144
804	-0.139
804	-0.133
805	-0.129
805	-0.127
806	-0.125
806	-0.124
807	-0.124
807	-0.124
807	-0.124
808	-0.125
808	-0.126
809	-0.131
809	-0.136
810	-0.14
810	-0.143
810	-0.146
811	-0.149
811	-0.15
812	-0.146
812	-0.142
813	-0.142
813	-0.143
813	-0.145
814	-0.146
814	-0.146
815	-0.144
815	-0.141
816	-0.14
816	-0.14
817	-0.145
817	-0.149
817	-0.149
818	-0.149
818	-0.145
819	-0.14
819	-0.136
820	-0.134
820	-0.132
820	-0.129
821	-0.124
821	-0.117
822	-0.109
822	-0.101
823	-0.093
823	-0.087
823	-0.083
824	-0.077
824	-0.07
825	-0.063
825	-0.056
826	-0.05
826	-0.045
826	-0.041
827	-0.036
827	-0.033
828	-0.029
828	-0.026
829	-0.024
829	-0.021
829	-0.02
830	-0.019
830	-0.018
831	-0.016
831	-0.014
832	-0.014
832	-0.012
832	-0.011
833	-0.011
833	-0.01
834	-0.009
834	-0.008
835	-0.007
835	-0.007
835	-0.007
836	-0.006
836	-0.005
837	-0.004
837	-0.003
838	-0.002
838	-0.001
839	-0.001
839	-0
839	-0
840	0
840	0
841	0
841	-0
842	-0
842	-0
842	-0
843	-0
843	0
844	0.001
844	0.001
845	0.002
845	0.002
845	0.003
846	0.003
846	0.004
847	0.004
847	0.005
848	0.005
848	0.006
848	0.007
849	0.008
849	0.008
850	0.009
850	0.009
851	0.01
851	0.011
851	0.012
852	0.012
852	0.012
853	0.012
853	0.012
854	0.012
854	0.013
854	0.013
855	0.013
855	0.013
856	0.013
856	0.013
857	0.013
857	0.013
857	0.013
858	0.013
858	0.012
859	0.012
859	0.011
860	0.011
860	0.011
860	0.011
861	0.011
861	0.012
862	0.012
862	0.012
863	0.012
863	0.013
863	0.013
864	0.014
864	0.014
865	0.015
865	0.016
866	0.017
866	0.018
866	0.019
867	0.021
867	0.022
868	0.022
868	0.023
869	0.023
869	0.023
869	0.023
870	0.022
870	0.021
871	0.021
871	0.02
872	0.019
872	0.019
872	0.018
873	0.018
873	0.017
874	0.016
874	0.016
875	0.015
875	0.015
875	0.014
876	0.013
876	0.012
877	0.011
877	0.01
878	0.009
878	0.009
878	0.008
879	0.008
879	0.007
880	0.007
880	0.007
881	0.007
881	0.007
881	0.008
882	0.008
882	0.009
883	0.009
883	0.01
884	0.01
884	0.01
884	0.01
885	0.01
885	0.01
886	0.01
886	0.01
887	0.009
887	0.009
887	0.008
888	0.008
888	0.008
889	0.008
889	0.008
890	0.008
890	0.008
890	0.008
891	0.008
891	0.008
892	0.009
892	0.009
893	0.01
893	0.011
893	0.011
894	0.012
894	0.012
895	0.012
895	0.012
895	0.012
896	0.011
896	0.011
897	0.011
897	0.011
898	0.011
898	0.011
898	0.011
899	0.011
899	0.011
900	0.012
900	0.012
901	0.013
901	0.014
901	0.014
902	0.015
902	0.016
903	0.016
903	0.016
904	0.017
904	0.017
904	0.017
905	0.017
905	0.017
906	0.017
906	0.016
907	0.016
907	0.015
907	0.015
908	0.015
908	0.015
909	0.016
909	0.016
910	0.016
910	0.017
910	0.017
911	0.017
911	0.018
912	0.018
912	0.019
913	0.019
913	0.019
913	0.02
914	0.02
914	0.02
915	0.02
915	0.02
916	0.019
916	0.019
916	0.018
917	0.017
917	0.015
918	0.014
918	0.012
918	0.011
919	0.009
919	0.008
920	0.007
920	0.007
921	0.006
921	0.006
921	0.006
922	0.006
922	0.007
923	0.007
923	0.007
924	0.007
924	0.007
924	0.007
925	0.007
925	0.007
926	0.007
926	0.007
927	0.006
927	0.006
927	0.006
928	0.006
928	0.005
929	0.005
929	0.005
930	0.005
930	0.005
930	0.004
931	0.004
931	0.004
932	0.004
932	0.004
933	0.004
933	0.004
933	0.004
934	0.003
934	0.003
935	0.003
935	0.003
935	0.003
936	0.003
936	0.003
937	0.003
937	0.004
938	0.004
938	0.005
938	0.006
939	0.007
939	0.008
940	0.01
940	0.011
941	0.013
941	0.014
941	0.015
942	0.017
942	0.018
943	0.019
943	0.02
944	0.02
944	0.021
944	0.021
945	0.021
945	0.021
946	0.021
946	0.02
946	0.021
947	0.021
947	0.021
948	0.021
948	0.022
949	0.022
949	0.023
949	0.023
950	0.024
950	0.024
951	0.024
951	0.024
952	0.024
952	0.023
952	0.022
953	0.022
953	0.021
954	0.02
954	0.019
955	0.018
955	0.018
955	0.018
956	0.018
956	0.018
957	0.018
957	0.018
957	0.019
958	0.019
958	0.02
959	0.02
959	0.02
960	0.02
960	0.02
960	0.02
961	0.02
961	0.02
962	0.02
962	0.021
963	0.021
963	0.021
963	0.021
964	0.021
964	0.021
965	0.021
965	0.021
966	0.021
966	0.02
966	0.019
967	0.019
967	0.018
968	0.017
968	0.016
968	0.016
969	0.015
969	0.015
970	0.015
970	0.015
971	0.014
971	0.014
971	0.015
972	0.015
972	0.015
973	0.015
973	0.015
974	0.015
974	0.016
974	0.016
975	0.017
975	0.018
976	0.018
976	0.019
976	0.02
977	0.021
977	0.021
978	0.022
978	0.023
979	0.023
979	0.023
979	0.023
980	0.022
980	0.021
981	0.02
981	0.02
982	0.019
982	0.018
982	0.017
983	0.016
983	0.014
984	0.013
984	0.012
984	0.012
985	0.011
985	0.01
986	0.009
986	0.008
987	0.007
987	0.007
987	0.006
988	0.006
988	0.006
989	0.006
989	0.006
990	0.006
990	0.006
990	0.007
991	0.007
991	0.008
992	0.009
992	0.009
992	0.01
993	0.01
993	0.011
994	0.011
994	0.011
995	0.011
995	0.011
995	0.011
996	0.01
996	0.01
997	0.009
997	0.009
997	0.009
998	0.008
998	0.008
999	0.009
999	0.009
1000	0.009
1000	0.01
1000	0.011
1001	0.012
1001	0.013
1002	0.014
1002	0.014
1003	0.015
1003	0.016
1003	0.016
1004	0.017
1004	0.017
1005	0.017
1005	0.017
1005	0.017
1006	0.017
1006	0.017
1007	0.017
1007	0.017
1008	0.018
1008	0.018
1008	0.018
1009	0.018
1009	0.019
1010	0.019
1010	0.019
1010	0.019
1011	0.019
1011	0.019
1012	0.018
1012	0.017
1013	0.017
1013	0.016
1013	0.015
1014	0.013
1014	0.012
1015	0.011
1015	0.01
1016	0.008
1016	0.007
1016	0.006
1017	0.006
1017	0.005
1018	0.005
1018	0.004
1018	0.004
1019	0.004
1019	0.004
1020	0.005
1020	0.005
1021	0.005
1021	0.005
1021	0.006
1022	0.006
1022	0.006
1023	0.006
1023	0.006
1023	0.006
1024	0.005
1024	0.005
1025	0.005
1025	0.005
1026	0.005
1026	0.005
1026	0.005
1027	0.005
1027	0.005
1028	0.005
1028	0.005
1028	0.006
1029	0.006
1029	0.006
1030	0.006
1030	0.006
1031	0.006
1031	0.006
1031	0.006
1032	0.006
1032	0.006
1033	0.005
1033	0.005
1033	0.005
1034	0.005
1034	0.005
1035	0.005
1035	0.005
1036	0.005
1036	0.005
1036	0.006
1037	0.006
1037	0.007
1038	0.007
1038	0.007
1039	0.008
1039	0.009
1039	0.01
1040	0.01
1040	0.011
1041	0.012
1041	0.013
1041	0.013
1042	0.014
1042	0.014
1043	0.015
1043	0.016
1044	0.017
1044	0.018
1044	0.019
1045	0.02
1045	0.021
1046	0.021
1046	0.022
1046	0.023
1047	0.023
1047	0.024
1048	0.024
1048	0.025
1049	0.024
1049	0.024
1049	0.024
1050	0.023
1050	0.023
1051	0.023
1051	0.023
1051	0.022
1052	0.022
1052	0.022
1053	0.021
1053	0.021
1053	0.022
1054	0.021
1054	0.021
1055	0.021
1055	0.021
1056	0.02
1056	0.019
1056	0.019
1057	0.018
1057	0.017
1058	0.017
1058	0.016
1058	0.016
1059	0.016
1059	0.016
1060	0.015
1060	0.015
1061	0.015
1061	0.016
1061	0.016
1062	0.015
1062	0.015
1063	0.014
1063	0.014
1063	0.014
1064	0.014
1064	0.015
1065	0.015
1065	0.015
1066	0.015
1066	0.016
1066	0.017
1067	0.017
1067	0.018
1068	0.018
1068	0.018
1068	0.018
1069	0.017
1069	0.017
1070	0.016
1070	0.015
1071	0.015
1071	0.015
1071	0.014
1072	0.014
1072	0.013
1073	0.013
1073	0.013
1073	0.012
1074	0.012
1074	0.013
1075	0.013
1075	0.012
1076	0.012
1076	0.012
1076	0.012
1077	0.013
1077	0.014
1078	0.014
1078	0.015
1078	0.016
1079	0.017
1079	0.018
1080	0.019
1080	0.02
1080	0.021
1081	0.022
1081	0.023
1082	0.024
1082	0.025
1083	0.026
1083	0.027
1083	0.028
1084	0.029
1084	0.03
1085	0.032
1085	0.034
1085	0.035
1086	0.037
1086	0.038
1087	0.04
1087	0.043
1088	0.044
1088	0.046
1088	0.048
1089	0.05
1089	0.051
1090	0.053
1090	0.055
1090	0.057
1091	0.059
1091	0.062
1092	0.063
1092	0.066
1092	0.068
1093	0.07
1093	0.073
1094	0.076
1094	0.079
1095	0.082
1095	0.085
1095	0.09
1096	0.094
1096	0.1
1097	0.105
1097	0.11
1097	0.117
1098	0.123
1098	0.13
1099	0.137
1099	0.146
1100	0.155
1100	0.163
1100	0.172
1101	0.182
1101	0.194
1102	0.208
1102	0.221
1102	0.238
1103	0.255
1103	0.275
1104	0.298
1104	0.322
1104	0.352
1105	0.383
1105	0.415
1106	0.448
1106	0.492
1107	0.545
1107	0.625
1107	0.744
1108	1.532
1108	-0
1109	-0
1109	-0
1109	-0
1110	-0
1110	-0
1111	-0
1111	-0
