Data from 17c-2-2a_Absorbance__684__03120.txt Node

Date: Fri Jan 26 14:47:41 CET 2024
User: Marek
Spectrometer: MAYP115816
Trigger mode: 0
Integration Time (sec): 2.000000E-1
Scans to average: 10
Electric dark correction enabled: true
Nonlinearity correction enabled: true
Boxcar width: 5
XAxis mode: Wavelengths
Number of Pixels in Spectrum: 2068
>>>>>Begin Spectral Data<<<<<
199	-1.812
199	-1.666
200	-1.513
200	-1.397
201	-1.324
201	-1.278
202	-1.207
202	-1.15
203	-1.102
203	-1.06
204	-1.033
204	-1.009
205	-0.987
205	-0.978
205	-0.975
206	-0.969
206	-0.965
207	-0.961
207	-0.96
208	-0.959
208	-0.957
209	-0.954
209	-0.951
210	-0.951
210	-0.951
211	-0.952
211	-0.953
212	-0.953
212	-0.952
213	-0.95
213	-0.946
213	-0.945
214	-0.942
214	-0.941
215	-0.936
215	-0.933
216	-0.929
216	-0.927
217	-0.924
217	-0.921
218	-0.917
218	-0.916
219	-0.912
219	-0.911
220	-0.909
220	-0.909
221	-0.906
221	-0.904
221	-0.899
222	-0.893
222	-0.889
223	-0.886
223	-0.882
224	-0.876
224	-0.869
225	-0.862
225	-0.854
226	-0.845
226	-0.833
227	-0.823
227	-0.811
228	-0.795
228	-0.778
229	-0.757
229	-0.735
229	-0.71
230	-0.681
230	-0.65
231	-0.617
231	-0.582
232	-0.544
232	-0.504
233	-0.461
233	-0.418
234	-0.375
234	-0.332
235	-0.289
235	-0.247
236	-0.206
236	-0.166
236	-0.128
237	-0.093
237	-0.06
238	-0.03
238	-0.002
239	0.025
239	0.049
240	0.071
240	0.091
241	0.109
241	0.125
242	0.14
242	0.154
243	0.167
243	0.178
243	0.188
244	0.197
244	0.206
245	0.214
245	0.221
246	0.228
246	0.234
247	0.239
247	0.245
248	0.249
248	0.254
249	0.259
249	0.263
250	0.267
250	0.27
250	0.274
251	0.277
251	0.28
252	0.284
252	0.287
253	0.289
253	0.292
254	0.294
254	0.297
255	0.299
255	0.301
256	0.303
256	0.304
257	0.306
257	0.307
258	0.308
258	0.309
258	0.31
259	0.311
259	0.312
260	0.312
260	0.313
261	0.313
261	0.314
262	0.314
262	0.314
263	0.314
263	0.314
264	0.314
264	0.314
265	0.314
265	0.313
265	0.312
266	0.312
266	0.311
267	0.31
267	0.309
268	0.308
268	0.307
269	0.306
269	0.304
270	0.303
270	0.302
271	0.3
271	0.299
272	0.297
272	0.296
272	0.294
273	0.292
273	0.291
274	0.289
274	0.287
275	0.286
275	0.284
276	0.282
276	0.28
277	0.278
277	0.276
278	0.274
278	0.272
278	0.27
279	0.268
279	0.266
280	0.264
280	0.262
281	0.26
281	0.258
282	0.256
282	0.255
283	0.253
283	0.252
284	0.251
284	0.249
285	0.248
285	0.246
285	0.245
286	0.243
286	0.242
287	0.241
287	0.239
288	0.238
288	0.236
289	0.235
289	0.233
290	0.232
290	0.231
291	0.23
291	0.229
292	0.228
292	0.226
292	0.225
293	0.224
293	0.223
294	0.222
294	0.221
295	0.22
295	0.219
296	0.219
296	0.218
297	0.217
297	0.216
298	0.216
298	0.215
298	0.214
299	0.214
299	0.213
300	0.213
300	0.212
301	0.211
301	0.211
302	0.21
302	0.21
303	0.209
303	0.209
304	0.208
304	0.207
305	0.207
305	0.206
305	0.206
306	0.205
306	0.204
307	0.204
307	0.203
308	0.203
308	0.202
309	0.202
309	0.201
310	0.2
310	0.2
311	0.199
311	0.198
311	0.198
312	0.197
312	0.197
313	0.196
313	0.196
314	0.195
314	0.194
315	0.194
315	0.193
316	0.193
316	0.192
317	0.191
317	0.191
318	0.19
318	0.189
318	0.189
319	0.188
319	0.188
320	0.187
320	0.186
321	0.185
321	0.185
322	0.184
322	0.184
323	0.183
323	0.183
324	0.182
324	0.181
324	0.181
325	0.18
325	0.18
326	0.179
326	0.179
327	0.178
327	0.178
328	0.177
328	0.177
329	0.176
329	0.176
330	0.175
330	0.174
330	0.174
331	0.173
331	0.173
332	0.172
332	0.171
333	0.171
333	0.171
334	0.17
334	0.169
335	0.169
335	0.169
336	0.168
336	0.168
336	0.167
337	0.167
337	0.166
338	0.166
338	0.165
339	0.165
339	0.164
340	0.164
340	0.163
341	0.163
341	0.162
342	0.162
342	0.161
342	0.161
343	0.161
343	0.16
344	0.16
344	0.159
345	0.159
345	0.159
346	0.158
346	0.158
347	0.158
347	0.157
348	0.157
348	0.156
348	0.156
349	0.155
349	0.155
350	0.154
350	0.154
351	0.154
351	0.153
352	0.153
352	0.153
353	0.152
353	0.152
354	0.152
354	0.151
354	0.151
355	0.15
355	0.15
356	0.149
356	0.149
357	0.148
357	0.148
358	0.148
358	0.148
359	0.148
359	0.149
360	0.149
360	0.149
360	0.149
361	0.149
361	0.149
362	0.149
362	0.149
363	0.149
363	0.149
364	0.149
364	0.149
365	0.149
365	0.149
366	0.149
366	0.149
366	0.149
367	0.148
367	0.148
368	0.148
368	0.148
369	0.147
369	0.147
370	0.147
370	0.147
371	0.146
371	0.146
372	0.145
372	0.145
372	0.145
373	0.145
373	0.145
374	0.145
374	0.145
375	0.145
375	0.145
376	0.145
376	0.145
377	0.145
377	0.145
378	0.146
378	0.146
378	0.145
379	0.145
379	0.145
380	0.145
380	0.145
381	0.145
381	0.145
382	0.144
382	0.144
383	0.144
383	0.143
383	0.143
384	0.143
384	0.143
385	0.142
385	0.142
386	0.142
386	0.142
387	0.142
387	0.142
388	0.142
388	0.142
389	0.142
389	0.142
389	0.142
390	0.142
390	0.142
391	0.142
391	0.142
392	0.142
392	0.142
393	0.142
393	0.142
394	0.142
394	0.141
394	0.141
395	0.141
395	0.141
396	0.14
396	0.14
397	0.14
397	0.14
398	0.14
398	0.14
399	0.139
399	0.139
400	0.139
400	0.139
400	0.139
401	0.138
401	0.138
402	0.137
402	0.137
403	0.137
403	0.137
404	0.137
404	0.137
405	0.136
405	0.136
405	0.136
406	0.136
406	0.136
407	0.136
407	0.136
408	0.136
408	0.136
409	0.135
409	0.135
410	0.135
410	0.135
411	0.135
411	0.135
411	0.135
412	0.135
412	0.134
413	0.134
413	0.134
414	0.134
414	0.133
415	0.133
415	0.133
416	0.132
416	0.132
416	0.132
417	0.131
417	0.131
418	0.131
418	0.131
419	0.131
419	0.132
420	0.132
420	0.132
421	0.132
421	0.133
421	0.133
422	0.133
422	0.133
423	0.133
423	0.133
424	0.132
424	0.132
425	0.131
425	0.131
426	0.131
426	0.131
427	0.13
427	0.13
427	0.131
428	0.131
428	0.131
429	0.132
429	0.132
430	0.132
430	0.132
431	0.132
431	0.131
432	0.131
432	0.131
432	0.13
433	0.129
433	0.129
434	0.129
434	0.129
435	0.129
435	0.128
436	0.128
436	0.128
437	0.128
437	0.128
437	0.128
438	0.128
438	0.128
439	0.128
439	0.127
440	0.127
440	0.127
441	0.127
441	0.127
442	0.127
442	0.127
442	0.127
443	0.128
443	0.128
444	0.128
444	0.128
445	0.129
445	0.129
446	0.129
446	0.129
447	0.129
447	0.128
447	0.128
448	0.128
448	0.128
449	0.128
449	0.128
450	0.127
450	0.127
451	0.127
451	0.127
452	0.127
452	0.126
452	0.126
453	0.126
453	0.125
454	0.125
454	0.125
455	0.124
455	0.124
456	0.124
456	0.124
457	0.124
457	0.124
458	0.124
458	0.124
458	0.124
459	0.124
459	0.124
460	0.124
460	0.123
461	0.123
461	0.123
462	0.124
462	0.124
463	0.124
463	0.124
463	0.124
464	0.125
464	0.125
465	0.125
465	0.125
466	0.125
466	0.125
467	0.125
467	0.125
467	0.125
468	0.124
468	0.123
469	0.122
469	0.121
470	0.121
470	0.121
471	0.121
471	0.121
472	0.121
472	0.121
472	0.122
473	0.122
473	0.123
474	0.124
474	0.125
475	0.125
475	0.126
476	0.126
476	0.126
477	0.126
477	0.127
477	0.127
478	0.127
478	0.127
479	0.127
479	0.128
480	0.128
480	0.129
481	0.13
481	0.13
482	0.131
482	0.131
482	0.133
483	0.134
483	0.136
484	0.138
484	0.139
485	0.141
485	0.142
486	0.142
486	0.143
487	0.143
487	0.144
487	0.144
488	0.144
488	0.143
489	0.142
489	0.142
490	0.141
490	0.141
491	0.141
491	0.142
492	0.143
492	0.143
492	0.144
493	0.145
493	0.146
494	0.147
494	0.149
495	0.15
495	0.151
496	0.153
496	0.153
496	0.154
497	0.155
497	0.157
498	0.157
498	0.158
499	0.159
499	0.159
500	0.16
500	0.161
501	0.162
501	0.163
501	0.164
502	0.165
502	0.166
503	0.167
503	0.168
504	0.169
504	0.17
505	0.171
505	0.172
506	0.173
506	0.173
506	0.174
507	0.175
507	0.175
508	0.176
508	0.177
509	0.178
509	0.179
510	0.18
510	0.181
511	0.181
511	0.182
511	0.182
512	0.183
512	0.184
513	0.184
513	0.184
514	0.184
514	0.183
515	0.183
515	0.183
515	0.183
516	0.183
516	0.184
517	0.184
517	0.185
518	0.185
518	0.185
519	0.185
519	0.184
520	0.183
520	0.182
520	0.181
521	0.18
521	0.178
522	0.176
522	0.174
523	0.174
523	0.173
524	0.174
524	0.174
524	0.176
525	0.177
525	0.178
526	0.18
526	0.182
527	0.183
527	0.185
528	0.186
528	0.186
529	0.187
529	0.187
529	0.187
530	0.186
530	0.186
531	0.186
531	0.185
532	0.184
532	0.183
533	0.183
533	0.182
533	0.181
534	0.18
534	0.179
535	0.177
535	0.176
536	0.175
536	0.174
537	0.173
537	0.172
538	0.171
538	0.17
538	0.168
539	0.168
539	0.167
540	0.166
540	0.165
541	0.163
541	0.162
542	0.16
542	0.159
542	0.158
543	0.157
543	0.155
544	0.153
544	0.152
545	0.151
545	0.15
546	0.15
546	0.149
547	0.147
547	0.145
547	0.143
548	0.142
548	0.14
549	0.139
549	0.138
550	0.136
550	0.135
551	0.133
551	0.131
551	0.13
552	0.129
552	0.128
553	0.127
553	0.126
554	0.124
554	0.122
555	0.12
555	0.118
556	0.116
556	0.114
556	0.112
557	0.11
557	0.108
558	0.106
558	0.105
559	0.103
559	0.102
560	0.101
560	0.1
560	0.1
561	0.099
561	0.099
562	0.098
562	0.097
563	0.095
563	0.093
564	0.092
564	0.09
564	0.088
565	0.087
565	0.085
566	0.084
566	0.083
567	0.082
567	0.081
568	0.082
568	0.082
568	0.082
569	0.083
569	0.084
570	0.084
570	0.084
571	0.084
571	0.085
572	0.085
572	0.085
573	0.084
573	0.083
573	0.082
574	0.082
574	0.081
575	0.081
575	0.081
576	0.081
576	0.08
577	0.079
577	0.078
577	0.077
578	0.076
578	0.076
579	0.077
579	0.077
580	0.076
580	0.074
581	0.072
581	0.07
581	0.07
582	0.069
582	0.069
583	0.069
583	0.069
584	0.066
584	0.064
585	0.063
585	0.063
585	0.063
586	0.063
586	0.063
587	0.061
587	0.06
588	0.058
588	0.057
589	0.057
589	0.056
590	0.056
590	0.055
590	0.056
591	0.056
591	0.056
592	0.055
592	0.055
593	0.055
593	0.054
594	0.053
594	0.052
594	0.051
595	0.051
595	0.049
596	0.049
596	0.049
597	0.05
597	0.051
598	0.051
598	0.052
598	0.052
599	0.053
599	0.053
600	0.052
600	0.052
601	0.051
601	0.051
602	0.049
602	0.049
602	0.048
603	0.048
603	0.049
604	0.05
604	0.05
605	0.052
605	0.053
606	0.053
606	0.052
606	0.052
607	0.052
607	0.052
608	0.051
608	0.05
609	0.049
609	0.048
610	0.047
610	0.046
610	0.046
611	0.046
611	0.047
612	0.048
612	0.049
613	0.05
613	0.051
614	0.051
614	0.051
614	0.051
615	0.051
615	0.05
616	0.05
616	0.05
617	0.05
617	0.049
618	0.048
618	0.048
618	0.047
619	0.047
619	0.048
620	0.049
620	0.049
621	0.049
621	0.049
622	0.049
622	0.05
622	0.05
623	0.05
623	0.051
624	0.051
624	0.051
625	0.052
625	0.052
626	0.052
626	0.053
626	0.054
627	0.054
627	0.055
628	0.055
628	0.056
629	0.056
629	0.056
630	0.056
630	0.056
630	0.056
631	0.056
631	0.056
632	0.056
632	0.056
633	0.057
633	0.057
634	0.058
634	0.059
634	0.061
635	0.062
635	0.063
636	0.064
636	0.065
637	0.066
637	0.067
638	0.069
638	0.07
638	0.071
639	0.072
639	0.073
640	0.074
640	0.075
641	0.076
641	0.077
642	0.079
642	0.08
642	0.081
643	0.082
643	0.083
644	0.085
644	0.086
645	0.088
645	0.089
646	0.091
646	0.094
646	0.096
647	0.099
647	0.101
648	0.103
648	0.105
649	0.107
649	0.11
650	0.112
650	0.115
650	0.117
651	0.119
651	0.12
652	0.122
652	0.123
653	0.125
653	0.132
653	0.137
654	0.111
654	0.092
655	0.095
655	0.096
656	0.098
656	0.1
657	0.102
657	0.103
657	0.105
658	0.103
658	0.099
659	0.123
659	0.156
660	0.161
660	0.163
661	0.165
661	0.166
661	0.168
662	0.17
662	0.172
663	0.174
663	0.176
664	0.178
664	0.179
665	0.181
665	0.182
665	0.184
666	0.186
666	0.188
667	0.19
667	0.192
668	0.194
668	0.196
669	0.198
669	0.201
669	0.204
670	0.206
670	0.209
671	0.21
671	0.212
672	0.214
672	0.215
672	0.217
673	0.218
673	0.22
674	0.222
674	0.223
675	0.225
675	0.227
676	0.229
676	0.231
676	0.233
677	0.235
677	0.237
678	0.239
678	0.24
679	0.241
679	0.242
680	0.244
680	0.245
680	0.246
681	0.246
681	0.247
682	0.248
682	0.248
683	0.25
683	0.251
684	0.252
684	0.252
684	0.251
685	0.251
685	0.251
686	0.251
686	0.25
687	0.249
687	0.249
687	0.248
688	0.248
688	0.247
689	0.247
689	0.248
690	0.249
690	0.249
691	0.25
691	0.25
691	0.251
692	0.25
692	0.25
693	0.25
693	0.25
694	0.249
694	0.248
695	0.248
695	0.248
695	0.247
696	0.246
696	0.245
697	0.243
697	0.242
698	0.241
698	0.239
698	0.237
699	0.235
699	0.233
700	0.23
700	0.228
701	0.227
701	0.225
702	0.224
702	0.222
702	0.221
703	0.219
703	0.218
704	0.216
704	0.215
705	0.215
705	0.214
705	0.213
706	0.212
706	0.211
707	0.21
707	0.208
708	0.207
708	0.205
709	0.204
709	0.202
709	0.2
710	0.197
710	0.195
711	0.193
711	0.191
712	0.19
712	0.188
713	0.187
713	0.186
713	0.184
714	0.182
714	0.181
715	0.179
715	0.177
716	0.175
716	0.173
716	0.171
717	0.169
717	0.166
718	0.164
718	0.161
719	0.159
719	0.157
720	0.155
720	0.152
720	0.15
721	0.147
721	0.144
722	0.142
722	0.14
723	0.138
723	0.136
723	0.134
724	0.132
724	0.131
725	0.129
725	0.128
726	0.127
726	0.126
727	0.125
727	0.124
727	0.123
728	0.122
728	0.12
729	0.12
729	0.118
730	0.117
730	0.115
730	0.114
731	0.112
731	0.111
732	0.11
732	0.109
733	0.107
733	0.106
734	0.105
734	0.103
734	0.102
735	0.101
735	0.1
736	0.098
736	0.097
737	0.095
737	0.094
737	0.093
738	0.091
738	0.088
739	0.086
739	0.084
740	0.082
740	0.08
741	0.078
741	0.076
741	0.073
742	0.07
742	0.067
743	0.065
743	0.063
744	0.062
744	0.06
744	0.059
745	0.057
745	0.055
746	0.054
746	0.053
747	0.053
747	0.053
748	0.053
748	0.053
748	0.052
749	0.052
749	0.051
750	0.051
750	0.051
751	0.051
751	0.051
751	0.051
752	0.05
752	0.049
753	0.048
753	0.047
754	0.046
754	0.045
754	0.045
755	0.044
755	0.044
756	0.044
756	0.042
757	0.042
757	0.042
758	0.042
758	0.041
758	0.041
759	0.041
759	0.04
760	0.038
760	0.036
761	0.034
761	0.034
761	0.032
762	0.031
762	0.03
763	0.028
763	0.026
764	0.024
764	0.022
764	0.021
765	0.019
765	0.017
766	0.016
766	0.015
767	0.014
767	0.012
768	0.01
768	0.008
768	0.007
769	0.006
769	0.005
770	0.003
770	0.002
771	-0
771	-0.003
771	-0.005
772	-0.008
772	-0.01
773	-0.012
773	-0.014
774	-0.017
774	-0.02
775	-0.022
775	-0.024
775	-0.026
776	-0.028
776	-0.03
777	-0.032
777	-0.034
778	-0.036
778	-0.039
778	-0.041
779	-0.042
779	-0.044
780	-0.047
780	-0.05
781	-0.053
781	-0.057
781	-0.063
782	-0.069
782	-0.076
783	-0.083
783	-0.089
784	-0.096
784	-0.101
784	-0.106
785	-0.112
785	-0.118
786	-0.121
786	-0.12
787	-0.116
787	-0.113
788	-0.113
788	-0.113
788	-0.114
789	-0.116
789	-0.116
790	-0.113
790	-0.112
791	-0.113
791	-0.115
791	-0.118
792	-0.113
792	-0.102
793	-0.096
793	-0.092
794	-0.091
794	-0.093
794	-0.097
795	-0.1
795	-0.1
796	-0.101
796	-0.103
797	-0.112
797	-0.123
797	-0.13
798	-0.135
798	-0.138
799	-0.139
799	-0.138
800	-0.138
800	-0.139
801	-0.142
801	-0.143
801	-0.143
802	-0.144
802	-0.145
803	-0.145
803	-0.145
804	-0.144
804	-0.139
804	-0.133
805	-0.129
805	-0.127
806	-0.125
806	-0.125
807	-0.124
807	-0.124
807	-0.125
808	-0.125
808	-0.126
809	-0.131
809	-0.137
810	-0.14
810	-0.143
810	-0.147
811	-0.149
811	-0.15
812	-0.146
812	-0.143
813	-0.143
813	-0.144
813	-0.145
814	-0.146
814	-0.146
815	-0.144
815	-0.141
816	-0.14
816	-0.141
817	-0.145
817	-0.149
817	-0.15
818	-0.149
818	-0.145
819	-0.14
819	-0.136
820	-0.134
820	-0.132
820	-0.128
821	-0.122
821	-0.115
822	-0.107
822	-0.099
823	-0.091
823	-0.085
823	-0.08
824	-0.074
824	-0.067
825	-0.06
825	-0.054
826	-0.047
826	-0.043
826	-0.038
827	-0.034
827	-0.031
828	-0.028
828	-0.025
829	-0.023
829	-0.021
829	-0.021
830	-0.021
830	-0.02
831	-0.019
831	-0.018
832	-0.017
832	-0.016
832	-0.015
833	-0.014
833	-0.013
834	-0.012
834	-0.01
835	-0.009
835	-0.008
835	-0.007
836	-0.006
836	-0.005
837	-0.005
837	-0.004
838	-0.004
838	-0.004
839	-0.004
839	-0.004
839	-0.005
840	-0.005
840	-0.005
841	-0.006
841	-0.006
842	-0.006
842	-0.005
842	-0.005
843	-0.005
843	-0.004
844	-0.004
844	-0.003
845	-0.003
845	-0.002
845	-0.001
846	-0.001
846	-0.001
847	-0
847	0
848	0
848	0.001
848	0.002
849	0.002
849	0.003
850	0.003
850	0.004
851	0.004
851	0.005
851	0.006
852	0.006
852	0.006
853	0.006
853	0.006
854	0.006
854	0.007
854	0.007
855	0.007
855	0.007
856	0.007
856	0.006
857	0.006
857	0.006
857	0.006
858	0.006
858	0.005
859	0.005
859	0.005
860	0.005
860	0.005
860	0.005
861	0.005
861	0.005
862	0.005
862	0.006
863	0.006
863	0.007
863	0.008
864	0.008
864	0.009
865	0.01
865	0.011
866	0.012
866	0.013
866	0.014
867	0.015
867	0.016
868	0.016
868	0.017
869	0.017
869	0.017
869	0.017
870	0.017
870	0.017
871	0.017
871	0.017
872	0.016
872	0.016
872	0.016
873	0.015
873	0.015
874	0.014
874	0.013
875	0.012
875	0.012
875	0.011
876	0.01
876	0.009
877	0.009
877	0.008
878	0.007
878	0.007
878	0.007
879	0.007
879	0.007
880	0.007
880	0.007
881	0.008
881	0.008
881	0.009
882	0.009
882	0.009
883	0.01
883	0.01
884	0.011
884	0.011
884	0.012
885	0.012
885	0.013
886	0.014
886	0.014
887	0.015
887	0.015
887	0.015
888	0.015
888	0.015
889	0.015
889	0.015
890	0.015
890	0.014
890	0.014
891	0.014
891	0.014
892	0.014
892	0.014
893	0.015
893	0.016
893	0.016
894	0.017
894	0.018
895	0.018
895	0.018
895	0.018
896	0.018
896	0.017
897	0.017
897	0.016
898	0.015
898	0.014
898	0.013
899	0.012
899	0.011
900	0.01
900	0.009
901	0.008
901	0.007
901	0.007
902	0.007
902	0.007
903	0.007
903	0.007
904	0.007
904	0.008
904	0.008
905	0.008
905	0.008
906	0.008
906	0.008
907	0.007
907	0.007
907	0.007
908	0.007
908	0.007
909	0.008
909	0.008
910	0.009
910	0.01
910	0.01
911	0.011
911	0.011
912	0.012
912	0.012
913	0.012
913	0.012
913	0.012
914	0.012
914	0.012
915	0.012
915	0.012
916	0.013
916	0.012
916	0.012
917	0.012
917	0.012
918	0.011
918	0.011
918	0.01
919	0.01
919	0.009
920	0.009
920	0.009
921	0.009
921	0.009
921	0.009
922	0.009
922	0.01
923	0.01
923	0.01
924	0.011
924	0.011
924	0.012
925	0.012
925	0.013
926	0.013
926	0.014
927	0.014
927	0.015
927	0.015
928	0.016
928	0.016
929	0.017
929	0.017
930	0.017
930	0.017
930	0.017
931	0.017
931	0.016
932	0.016
932	0.015
933	0.014
933	0.013
933	0.013
934	0.012
934	0.011
935	0.01
935	0.01
935	0.009
936	0.008
936	0.007
937	0.007
937	0.007
938	0.006
938	0.006
938	0.006
939	0.006
939	0.006
940	0.007
940	0.007
941	0.007
941	0.008
941	0.009
942	0.01
942	0.011
943	0.012
943	0.012
944	0.013
944	0.014
944	0.015
945	0.016
945	0.017
946	0.018
946	0.019
946	0.02
947	0.021
947	0.021
948	0.022
948	0.022
949	0.022
949	0.022
949	0.021
950	0.021
950	0.021
951	0.02
951	0.02
952	0.019
952	0.019
952	0.019
953	0.018
953	0.018
954	0.018
954	0.018
955	0.018
955	0.018
955	0.018
956	0.019
956	0.019
957	0.019
957	0.019
957	0.019
958	0.019
958	0.019
959	0.02
959	0.02
960	0.02
960	0.021
960	0.021
961	0.022
961	0.022
962	0.023
962	0.023
963	0.024
963	0.024
963	0.024
964	0.025
964	0.025
965	0.025
965	0.025
966	0.025
966	0.025
966	0.025
967	0.024
967	0.024
968	0.023
968	0.022
968	0.021
969	0.02
969	0.019
970	0.018
970	0.017
971	0.016
971	0.016
971	0.015
972	0.014
972	0.014
973	0.013
973	0.013
974	0.013
974	0.013
974	0.013
975	0.013
975	0.013
976	0.014
976	0.014
976	0.014
977	0.014
977	0.015
978	0.015
978	0.015
979	0.015
979	0.015
979	0.014
980	0.014
980	0.013
981	0.012
981	0.012
982	0.011
982	0.011
982	0.011
983	0.01
983	0.009
984	0.009
984	0.009
984	0.008
985	0.008
985	0.007
986	0.007
986	0.006
987	0.006
987	0.006
987	0.006
988	0.006
988	0.007
989	0.007
989	0.007
990	0.008
990	0.009
990	0.009
991	0.01
991	0.011
992	0.012
992	0.012
992	0.012
993	0.013
993	0.013
994	0.013
994	0.013
995	0.012
995	0.012
995	0.012
996	0.011
996	0.01
997	0.01
997	0.009
997	0.008
998	0.008
998	0.008
999	0.008
999	0.008
1000	0.008
1000	0.008
1000	0.009
1001	0.009
1001	0.01
1002	0.011
1002	0.011
1003	0.012
1003	0.012
1003	0.012
1004	0.013
1004	0.013
1005	0.013
1005	0.013
1005	0.013
1006	0.012
1006	0.012
1007	0.012
1007	0.012
1008	0.012
1008	0.012
1008	0.012
1009	0.013
1009	0.013
1010	0.013
1010	0.014
1010	0.015
1011	0.015
1011	0.016
1012	0.016
1012	0.017
1013	0.017
1013	0.017
1013	0.018
1014	0.017
1014	0.017
1015	0.017
1015	0.016
1016	0.016
1016	0.015
1016	0.015
1017	0.014
1017	0.013
1018	0.013
1018	0.012
1018	0.012
1019	0.011
1019	0.01
1020	0.009
1020	0.009
1021	0.008
1021	0.007
1021	0.007
1022	0.006
1022	0.006
1023	0.006
1023	0.006
1023	0.005
1024	0.005
1024	0.005
1025	0.005
1025	0.006
1026	0.006
1026	0.006
1026	0.006
1027	0.006
1027	0.006
1028	0.006
1028	0.007
1028	0.007
1029	0.007
1029	0.008
1030	0.008
1030	0.008
1031	0.008
1031	0.009
1031	0.009
1032	0.009
1032	0.009
1033	0.009
1033	0.009
1033	0.009
1034	0.009
1034	0.009
1035	0.009
1035	0.009
1036	0.009
1036	0.009
1036	0.009
1037	0.009
1037	0.009
1038	0.01
1038	0.01
1039	0.01
1039	0.011
1039	0.011
1040	0.012
1040	0.012
1041	0.012
1041	0.013
1041	0.013
1042	0.013
1042	0.013
1043	0.013
1043	0.013
1044	0.013
1044	0.013
1044	0.014
1045	0.014
1045	0.013
1046	0.013
1046	0.013
1046	0.012
1047	0.012
1047	0.012
1048	0.012
1048	0.012
1049	0.012
1049	0.011
1049	0.011
1050	0.01
1050	0.01
1051	0.01
1051	0.01
1051	0.01
1052	0.01
1052	0.009
1053	0.009
1053	0.01
1053	0.01
1054	0.01
1054	0.011
1055	0.011
1055	0.011
1056	0.011
1056	0.011
1056	0.011
1057	0.011
1057	0.012
1058	0.012
1058	0.012
1058	0.013
1059	0.013
1059	0.014
1060	0.014
1060	0.015
1061	0.015
1061	0.016
1061	0.017
1062	0.017
1062	0.017
1063	0.017
1063	0.016
1063	0.016
1064	0.016
1064	0.016
1065	0.016
1065	0.016
1066	0.015
1066	0.015
1066	0.015
1067	0.015
1067	0.015
1068	0.015
1068	0.014
1068	0.014
1069	0.013
1069	0.012
1070	0.012
1070	0.011
1071	0.011
1071	0.011
1071	0.011
1072	0.01
1072	0.01
1073	0.01
1073	0.01
1073	0.01
1074	0.01
1074	0.011
1075	0.011
1075	0.01
1076	0.01
1076	0.011
1076	0.011
1077	0.012
1077	0.013
1078	0.014
1078	0.015
1078	0.017
1079	0.018
1079	0.019
1080	0.021
1080	0.022
1080	0.024
1081	0.026
1081	0.027
1082	0.028
1082	0.029
1083	0.03
1083	0.031
1083	0.032
1084	0.034
1084	0.035
1085	0.037
1085	0.038
1085	0.039
1086	0.04
1086	0.04
1087	0.042
1087	0.043
1088	0.044
1088	0.045
1088	0.047
1089	0.047
1089	0.049
1090	0.05
1090	0.052
1090	0.053
1091	0.055
1091	0.058
1092	0.06
1092	0.063
1092	0.065
1093	0.069
1093	0.072
1094	0.074
1094	0.078
1095	0.08
1095	0.084
1095	0.088
1096	0.092
1096	0.097
1097	0.102
1097	0.108
1097	0.113
1098	0.12
1098	0.126
1099	0.134
1099	0.143
1100	0.152
1100	0.161
1100	0.171
1101	0.181
1101	0.191
1102	0.205
1102	0.22
1102	0.236
1103	0.253
1103	0.272
1104	0.296
1104	0.318
1104	0.346
1105	0.375
1105	0.406
1106	0.441
1106	0.483
1107	0.534
1107	0.612
1107	0.723
1108	1.334
1108	-0
1109	-0
1109	-0
1109	-0
1110	-0
1110	-0
1111	-0
1111	-0
