Data from 17c-2-2a_Absorbance__1060__03496.txt Node

Date: Fri Jan 26 15:00:13 CET 2024
User: Marek
Spectrometer: MAYP115816
Trigger mode: 0
Integration Time (sec): 2.000000E-1
Scans to average: 10
Electric dark correction enabled: true
Nonlinearity correction enabled: true
Boxcar width: 5
XAxis mode: Wavelengths
Number of Pixels in Spectrum: 2068
>>>>>Begin Spectral Data<<<<<
199	-1.819
199	-1.674
200	-1.519
200	-1.403
201	-1.33
201	-1.284
202	-1.213
202	-1.156
203	-1.108
203	-1.066
204	-1.039
204	-1.015
205	-0.992
205	-0.983
205	-0.98
206	-0.975
206	-0.971
207	-0.967
207	-0.965
208	-0.964
208	-0.962
209	-0.958
209	-0.954
210	-0.954
210	-0.954
211	-0.955
211	-0.956
212	-0.955
212	-0.954
213	-0.952
213	-0.948
213	-0.948
214	-0.946
214	-0.944
215	-0.939
215	-0.936
216	-0.933
216	-0.931
217	-0.928
217	-0.925
218	-0.922
218	-0.92
219	-0.916
219	-0.914
220	-0.912
220	-0.912
221	-0.909
221	-0.906
221	-0.902
222	-0.896
222	-0.892
223	-0.888
223	-0.884
224	-0.879
224	-0.872
225	-0.865
225	-0.857
226	-0.848
226	-0.837
227	-0.827
227	-0.815
228	-0.798
228	-0.781
229	-0.76
229	-0.738
229	-0.713
230	-0.683
230	-0.651
231	-0.618
231	-0.581
232	-0.543
232	-0.502
233	-0.459
233	-0.414
234	-0.37
234	-0.325
235	-0.281
235	-0.238
236	-0.196
236	-0.156
236	-0.116
237	-0.079
237	-0.045
238	-0.012
238	0.018
239	0.046
239	0.071
240	0.096
240	0.118
241	0.137
241	0.156
242	0.172
242	0.187
243	0.201
243	0.213
243	0.225
244	0.235
244	0.245
245	0.253
245	0.261
246	0.268
246	0.275
247	0.281
247	0.287
248	0.292
248	0.298
249	0.303
249	0.307
250	0.312
250	0.316
250	0.319
251	0.323
251	0.327
252	0.33
252	0.333
253	0.336
253	0.338
254	0.341
254	0.343
255	0.345
255	0.348
256	0.35
256	0.351
257	0.353
257	0.354
258	0.356
258	0.357
258	0.358
259	0.359
259	0.359
260	0.36
260	0.36
261	0.361
261	0.361
262	0.361
262	0.361
263	0.361
263	0.362
264	0.361
264	0.361
265	0.361
265	0.361
265	0.36
266	0.359
266	0.358
267	0.358
267	0.357
268	0.356
268	0.354
269	0.353
269	0.352
270	0.35
270	0.349
271	0.347
271	0.346
272	0.344
272	0.343
272	0.341
273	0.339
273	0.337
274	0.335
274	0.334
275	0.332
275	0.33
276	0.328
276	0.326
277	0.324
277	0.322
278	0.32
278	0.318
278	0.316
279	0.313
279	0.311
280	0.309
280	0.307
281	0.306
281	0.304
282	0.302
282	0.3
283	0.299
283	0.297
284	0.296
284	0.295
285	0.293
285	0.291
285	0.29
286	0.288
286	0.286
287	0.285
287	0.283
288	0.282
288	0.28
289	0.279
289	0.277
290	0.276
290	0.275
291	0.273
291	0.272
292	0.271
292	0.27
292	0.269
293	0.268
293	0.267
294	0.265
294	0.264
295	0.263
295	0.262
296	0.261
296	0.261
297	0.26
297	0.259
298	0.258
298	0.257
298	0.256
299	0.256
299	0.255
300	0.254
300	0.253
301	0.253
301	0.252
302	0.251
302	0.251
303	0.25
303	0.249
304	0.249
304	0.248
305	0.248
305	0.247
305	0.246
306	0.245
306	0.245
307	0.244
307	0.243
308	0.242
308	0.242
309	0.241
309	0.24
310	0.24
310	0.239
311	0.238
311	0.238
311	0.237
312	0.236
312	0.236
313	0.235
313	0.235
314	0.234
314	0.233
315	0.232
315	0.232
316	0.231
316	0.231
317	0.23
317	0.229
318	0.228
318	0.228
318	0.227
319	0.226
319	0.226
320	0.225
320	0.224
321	0.223
321	0.222
322	0.222
322	0.221
323	0.22
323	0.219
324	0.219
324	0.218
324	0.217
325	0.217
325	0.216
326	0.216
326	0.215
327	0.214
327	0.214
328	0.213
328	0.213
329	0.212
329	0.212
330	0.211
330	0.21
330	0.209
331	0.209
331	0.208
332	0.207
332	0.207
333	0.206
333	0.206
334	0.205
334	0.205
335	0.204
335	0.203
336	0.203
336	0.202
336	0.202
337	0.201
337	0.201
338	0.2
338	0.2
339	0.199
339	0.198
340	0.198
340	0.197
341	0.197
341	0.196
342	0.196
342	0.195
342	0.195
343	0.194
343	0.194
344	0.194
344	0.193
345	0.193
345	0.192
346	0.192
346	0.192
347	0.191
347	0.191
348	0.19
348	0.19
348	0.19
349	0.189
349	0.189
350	0.188
350	0.188
351	0.187
351	0.187
352	0.186
352	0.186
353	0.185
353	0.185
354	0.184
354	0.184
354	0.183
355	0.183
355	0.183
356	0.182
356	0.182
357	0.181
357	0.181
358	0.181
358	0.181
359	0.181
359	0.181
360	0.181
360	0.181
360	0.182
361	0.182
361	0.182
362	0.182
362	0.182
363	0.182
363	0.182
364	0.182
364	0.181
365	0.181
365	0.181
366	0.181
366	0.181
366	0.181
367	0.18
367	0.18
368	0.18
368	0.18
369	0.179
369	0.179
370	0.179
370	0.178
371	0.178
371	0.178
372	0.177
372	0.177
372	0.177
373	0.177
373	0.177
374	0.177
374	0.177
375	0.177
375	0.177
376	0.177
376	0.177
377	0.177
377	0.177
378	0.177
378	0.177
378	0.177
379	0.177
379	0.176
380	0.177
380	0.176
381	0.176
381	0.176
382	0.176
382	0.175
383	0.175
383	0.175
383	0.174
384	0.174
384	0.174
385	0.173
385	0.173
386	0.173
386	0.173
387	0.173
387	0.173
388	0.173
388	0.172
389	0.172
389	0.172
389	0.172
390	0.172
390	0.172
391	0.172
391	0.173
392	0.173
392	0.173
393	0.172
393	0.172
394	0.172
394	0.172
394	0.172
395	0.171
395	0.171
396	0.171
396	0.17
397	0.17
397	0.17
398	0.17
398	0.17
399	0.17
399	0.169
400	0.169
400	0.169
400	0.169
401	0.168
401	0.168
402	0.167
402	0.167
403	0.167
403	0.166
404	0.166
404	0.166
405	0.166
405	0.166
405	0.165
406	0.165
406	0.165
407	0.165
407	0.165
408	0.165
408	0.164
409	0.164
409	0.164
410	0.164
410	0.164
411	0.164
411	0.163
411	0.163
412	0.163
412	0.163
413	0.162
413	0.162
414	0.162
414	0.162
415	0.161
415	0.161
416	0.16
416	0.16
416	0.16
417	0.159
417	0.159
418	0.159
418	0.159
419	0.159
419	0.16
420	0.16
420	0.161
421	0.161
421	0.161
421	0.161
422	0.161
422	0.161
423	0.162
423	0.161
424	0.161
424	0.16
425	0.16
425	0.159
426	0.159
426	0.159
427	0.159
427	0.159
427	0.159
428	0.159
428	0.159
429	0.16
429	0.16
430	0.16
430	0.16
431	0.16
431	0.159
432	0.159
432	0.159
432	0.158
433	0.157
433	0.157
434	0.157
434	0.156
435	0.157
435	0.157
436	0.157
436	0.157
437	0.157
437	0.156
437	0.157
438	0.156
438	0.156
439	0.156
439	0.155
440	0.155
440	0.154
441	0.154
441	0.154
442	0.154
442	0.154
442	0.154
443	0.155
443	0.155
444	0.155
444	0.155
445	0.155
445	0.156
446	0.156
446	0.156
447	0.155
447	0.155
447	0.155
448	0.155
448	0.155
449	0.155
449	0.155
450	0.155
450	0.154
451	0.154
451	0.154
452	0.154
452	0.153
452	0.153
453	0.153
453	0.152
454	0.152
454	0.151
455	0.151
455	0.151
456	0.151
456	0.151
457	0.151
457	0.151
458	0.151
458	0.151
458	0.151
459	0.152
459	0.152
460	0.151
460	0.151
461	0.15
461	0.151
462	0.15
462	0.151
463	0.151
463	0.151
463	0.151
464	0.152
464	0.152
465	0.152
465	0.153
466	0.153
466	0.153
467	0.153
467	0.153
467	0.152
468	0.151
468	0.15
469	0.15
469	0.149
470	0.148
470	0.148
471	0.148
471	0.148
472	0.148
472	0.148
472	0.149
473	0.15
473	0.151
474	0.152
474	0.152
475	0.153
475	0.154
476	0.154
476	0.155
477	0.155
477	0.155
477	0.156
478	0.156
478	0.156
479	0.157
479	0.157
480	0.158
480	0.158
481	0.159
481	0.159
482	0.16
482	0.161
482	0.162
483	0.163
483	0.165
484	0.167
484	0.169
485	0.17
485	0.171
486	0.172
486	0.173
487	0.174
487	0.174
487	0.175
488	0.174
488	0.174
489	0.173
489	0.173
490	0.173
490	0.173
491	0.173
491	0.173
492	0.174
492	0.175
492	0.176
493	0.177
493	0.178
494	0.179
494	0.181
495	0.183
495	0.184
496	0.186
496	0.187
496	0.188
497	0.189
497	0.19
498	0.191
498	0.192
499	0.192
499	0.193
500	0.194
500	0.195
501	0.197
501	0.198
501	0.199
502	0.201
502	0.202
503	0.203
503	0.205
504	0.206
504	0.207
505	0.208
505	0.209
506	0.21
506	0.211
506	0.211
507	0.212
507	0.213
508	0.214
508	0.215
509	0.216
509	0.217
510	0.218
510	0.219
511	0.219
511	0.22
511	0.22
512	0.221
512	0.222
513	0.221
513	0.221
514	0.221
514	0.221
515	0.22
515	0.22
515	0.22
516	0.22
516	0.221
517	0.222
517	0.222
518	0.223
518	0.223
519	0.223
519	0.222
520	0.222
520	0.221
520	0.22
521	0.218
521	0.217
522	0.215
522	0.214
523	0.213
523	0.213
524	0.213
524	0.214
524	0.215
525	0.216
525	0.218
526	0.219
526	0.22
527	0.222
527	0.223
528	0.224
528	0.225
529	0.225
529	0.225
529	0.225
530	0.224
530	0.224
531	0.224
531	0.223
532	0.222
532	0.221
533	0.221
533	0.22
533	0.219
534	0.218
534	0.217
535	0.215
535	0.214
536	0.213
536	0.212
537	0.211
537	0.21
538	0.208
538	0.207
538	0.205
539	0.204
539	0.203
540	0.202
540	0.201
541	0.199
541	0.198
542	0.196
542	0.194
542	0.193
543	0.191
543	0.19
544	0.188
544	0.186
545	0.185
545	0.184
546	0.183
546	0.182
547	0.18
547	0.178
547	0.176
548	0.174
548	0.172
549	0.171
549	0.169
550	0.168
550	0.166
551	0.164
551	0.161
551	0.16
552	0.158
552	0.157
553	0.156
553	0.154
554	0.153
554	0.151
555	0.149
555	0.146
556	0.143
556	0.141
556	0.138
557	0.136
557	0.134
558	0.133
558	0.131
559	0.129
559	0.128
560	0.127
560	0.126
560	0.125
561	0.124
561	0.123
562	0.122
562	0.121
563	0.119
563	0.117
564	0.114
564	0.112
564	0.11
565	0.108
565	0.106
566	0.105
566	0.103
567	0.102
567	0.102
568	0.102
568	0.102
568	0.103
569	0.104
569	0.105
570	0.105
570	0.104
571	0.105
571	0.105
572	0.104
572	0.104
573	0.103
573	0.103
573	0.102
574	0.101
574	0.1
575	0.1
575	0.101
576	0.101
576	0.099
577	0.098
577	0.097
577	0.096
578	0.095
578	0.095
579	0.095
579	0.095
580	0.094
580	0.091
581	0.089
581	0.087
581	0.087
582	0.086
582	0.086
583	0.086
583	0.085
584	0.083
584	0.08
585	0.079
585	0.079
585	0.079
586	0.079
586	0.078
587	0.077
587	0.076
588	0.074
588	0.072
589	0.071
589	0.071
590	0.07
590	0.069
590	0.07
591	0.07
591	0.07
592	0.069
592	0.068
593	0.068
593	0.068
594	0.067
594	0.066
594	0.065
595	0.065
595	0.063
596	0.062
596	0.063
597	0.064
597	0.065
598	0.065
598	0.066
598	0.066
599	0.066
599	0.066
600	0.066
600	0.065
601	0.064
601	0.063
602	0.062
602	0.061
602	0.061
603	0.061
603	0.062
604	0.062
604	0.063
605	0.065
605	0.066
606	0.066
606	0.066
606	0.066
607	0.065
607	0.065
608	0.065
608	0.063
609	0.062
609	0.062
610	0.061
610	0.059
610	0.059
611	0.059
611	0.06
612	0.06
612	0.061
613	0.062
613	0.062
614	0.063
614	0.062
614	0.062
615	0.062
615	0.062
616	0.062
616	0.062
617	0.062
617	0.061
618	0.061
618	0.06
618	0.06
619	0.06
619	0.06
620	0.062
620	0.062
621	0.062
621	0.062
622	0.063
622	0.063
622	0.063
623	0.063
623	0.064
624	0.064
624	0.064
625	0.064
625	0.065
626	0.065
626	0.065
626	0.066
627	0.067
627	0.068
628	0.068
628	0.069
629	0.069
629	0.069
630	0.069
630	0.069
630	0.07
631	0.07
631	0.07
632	0.07
632	0.07
633	0.071
633	0.071
634	0.072
634	0.074
634	0.075
635	0.076
635	0.077
636	0.078
636	0.079
637	0.08
637	0.081
638	0.082
638	0.084
638	0.085
639	0.086
639	0.087
640	0.088
640	0.089
641	0.09
641	0.092
642	0.093
642	0.095
642	0.097
643	0.098
643	0.099
644	0.1
644	0.102
645	0.103
645	0.105
646	0.107
646	0.11
646	0.112
647	0.115
647	0.118
648	0.12
648	0.122
649	0.125
649	0.128
650	0.131
650	0.134
650	0.136
651	0.139
651	0.141
652	0.142
652	0.144
653	0.147
653	0.154
653	0.161
654	0.13
654	0.107
655	0.11
655	0.112
656	0.114
656	0.115
657	0.117
657	0.119
657	0.121
658	0.119
658	0.113
659	0.142
659	0.181
660	0.186
660	0.188
661	0.189
661	0.191
661	0.194
662	0.196
662	0.198
663	0.2
663	0.202
664	0.205
664	0.207
665	0.209
665	0.211
665	0.214
666	0.216
666	0.218
667	0.22
667	0.223
668	0.225
668	0.228
669	0.23
669	0.233
669	0.236
670	0.239
670	0.241
671	0.243
671	0.245
672	0.247
672	0.248
672	0.25
673	0.251
673	0.253
674	0.254
674	0.255
675	0.256
675	0.258
676	0.26
676	0.263
676	0.265
677	0.267
677	0.269
678	0.271
678	0.272
679	0.274
679	0.275
680	0.277
680	0.279
680	0.279
681	0.28
681	0.281
682	0.282
682	0.283
683	0.284
683	0.285
684	0.286
684	0.286
684	0.286
685	0.285
685	0.286
686	0.285
686	0.285
687	0.284
687	0.283
687	0.283
688	0.282
688	0.281
689	0.282
689	0.283
690	0.283
690	0.283
691	0.284
691	0.284
691	0.285
692	0.284
692	0.284
693	0.284
693	0.285
694	0.284
694	0.283
695	0.283
695	0.283
695	0.282
696	0.28
696	0.279
697	0.278
697	0.276
698	0.275
698	0.272
698	0.27
699	0.268
699	0.266
700	0.263
700	0.261
701	0.259
701	0.258
702	0.256
702	0.254
702	0.253
703	0.251
703	0.25
704	0.248
704	0.247
705	0.247
705	0.246
705	0.244
706	0.243
706	0.243
707	0.241
707	0.24
708	0.238
708	0.237
709	0.235
709	0.233
709	0.231
710	0.228
710	0.226
711	0.224
711	0.222
712	0.22
712	0.218
713	0.217
713	0.215
713	0.213
714	0.211
714	0.208
715	0.206
715	0.203
716	0.2
716	0.198
716	0.195
717	0.193
717	0.19
718	0.187
718	0.184
719	0.182
719	0.18
720	0.178
720	0.176
720	0.173
721	0.17
721	0.168
722	0.166
722	0.163
723	0.161
723	0.16
723	0.158
724	0.156
724	0.154
725	0.152
725	0.151
726	0.15
726	0.149
727	0.148
727	0.147
727	0.145
728	0.143
728	0.142
729	0.141
729	0.139
730	0.137
730	0.135
730	0.133
731	0.131
731	0.129
732	0.128
732	0.126
733	0.125
733	0.123
734	0.121
734	0.12
734	0.118
735	0.117
735	0.116
736	0.114
736	0.113
737	0.111
737	0.11
737	0.109
738	0.106
738	0.104
739	0.102
739	0.1
740	0.098
740	0.096
741	0.094
741	0.092
741	0.089
742	0.086
742	0.083
743	0.081
743	0.079
744	0.078
744	0.076
744	0.074
745	0.072
745	0.07
746	0.068
746	0.067
747	0.066
747	0.066
748	0.066
748	0.065
748	0.065
749	0.064
749	0.064
750	0.063
750	0.063
751	0.063
751	0.063
751	0.063
752	0.062
752	0.06
753	0.059
753	0.058
754	0.057
754	0.056
754	0.056
755	0.056
755	0.057
756	0.056
756	0.055
757	0.054
757	0.054
758	0.054
758	0.054
758	0.054
759	0.053
759	0.051
760	0.049
760	0.046
761	0.044
761	0.043
761	0.041
762	0.039
762	0.038
763	0.037
763	0.035
764	0.032
764	0.031
764	0.029
765	0.028
765	0.026
766	0.025
766	0.025
767	0.024
767	0.021
768	0.019
768	0.017
768	0.015
769	0.014
769	0.013
770	0.011
770	0.009
771	0.007
771	0.004
771	0.001
772	-0.001
772	-0.003
773	-0.005
773	-0.007
774	-0.01
774	-0.013
775	-0.015
775	-0.017
775	-0.019
776	-0.021
776	-0.023
777	-0.024
777	-0.026
778	-0.028
778	-0.031
778	-0.034
779	-0.035
779	-0.037
780	-0.04
780	-0.043
781	-0.046
781	-0.051
781	-0.056
782	-0.063
782	-0.07
783	-0.077
783	-0.084
784	-0.091
784	-0.097
784	-0.103
785	-0.109
785	-0.115
786	-0.119
786	-0.118
787	-0.115
787	-0.113
788	-0.113
788	-0.113
788	-0.114
789	-0.116
789	-0.116
790	-0.113
790	-0.112
791	-0.113
791	-0.115
791	-0.118
792	-0.113
792	-0.102
793	-0.096
793	-0.092
794	-0.091
794	-0.093
794	-0.097
795	-0.1
795	-0.1
796	-0.101
796	-0.103
797	-0.112
797	-0.123
797	-0.13
798	-0.135
798	-0.138
799	-0.139
799	-0.138
800	-0.138
800	-0.139
801	-0.142
801	-0.143
801	-0.143
802	-0.144
802	-0.145
803	-0.145
803	-0.145
804	-0.144
804	-0.139
804	-0.133
805	-0.129
805	-0.127
806	-0.125
806	-0.124
807	-0.124
807	-0.124
807	-0.124
808	-0.125
808	-0.126
809	-0.131
809	-0.137
810	-0.14
810	-0.143
810	-0.146
811	-0.149
811	-0.15
812	-0.146
812	-0.143
813	-0.143
813	-0.144
813	-0.145
814	-0.146
814	-0.146
815	-0.144
815	-0.141
816	-0.14
816	-0.14
817	-0.145
817	-0.149
817	-0.15
818	-0.148
818	-0.145
819	-0.139
819	-0.135
820	-0.133
820	-0.131
820	-0.127
821	-0.121
821	-0.113
822	-0.105
822	-0.097
823	-0.089
823	-0.083
823	-0.078
824	-0.072
824	-0.065
825	-0.058
825	-0.051
826	-0.046
826	-0.041
826	-0.037
827	-0.033
827	-0.029
828	-0.026
828	-0.023
829	-0.021
829	-0.019
829	-0.018
830	-0.018
830	-0.017
831	-0.016
831	-0.015
832	-0.014
832	-0.013
832	-0.012
833	-0.011
833	-0.01
834	-0.008
834	-0.006
835	-0.005
835	-0.004
835	-0.002
836	-0.001
836	0
837	0.001
837	0.002
838	0.002
838	0.002
839	0.002
839	0.002
839	0.001
840	0
840	-0
841	-0.001
841	-0.002
842	-0.002
842	-0.002
842	-0.002
843	-0.002
843	-0.002
844	-0.001
844	-0
845	0.001
845	0.001
845	0.002
846	0.003
846	0.003
847	0.004
847	0.004
848	0.005
848	0.005
848	0.006
849	0.006
849	0.007
850	0.007
850	0.007
851	0.008
851	0.009
851	0.009
852	0.009
852	0.009
853	0.009
853	0.009
854	0.009
854	0.01
854	0.01
855	0.01
855	0.01
856	0.01
856	0.01
857	0.01
857	0.01
857	0.01
858	0.009
858	0.009
859	0.009
859	0.008
860	0.008
860	0.008
860	0.008
861	0.008
861	0.008
862	0.008
862	0.008
863	0.009
863	0.01
863	0.01
864	0.011
864	0.012
865	0.014
865	0.015
866	0.016
866	0.017
866	0.018
867	0.019
867	0.019
868	0.02
868	0.02
869	0.02
869	0.02
869	0.02
870	0.02
870	0.02
871	0.019
871	0.019
872	0.019
872	0.018
872	0.018
873	0.018
873	0.017
874	0.016
874	0.015
875	0.015
875	0.014
875	0.013
876	0.013
876	0.012
877	0.012
877	0.011
878	0.01
878	0.01
878	0.01
879	0.01
879	0.009
880	0.009
880	0.009
881	0.01
881	0.01
881	0.011
882	0.011
882	0.011
883	0.012
883	0.012
884	0.013
884	0.014
884	0.014
885	0.015
885	0.016
886	0.017
886	0.017
887	0.018
887	0.018
887	0.019
888	0.019
888	0.019
889	0.019
889	0.018
890	0.018
890	0.018
890	0.017
891	0.016
891	0.016
892	0.016
892	0.016
893	0.016
893	0.017
893	0.017
894	0.017
894	0.017
895	0.017
895	0.017
895	0.017
896	0.017
896	0.016
897	0.015
897	0.014
898	0.013
898	0.012
898	0.012
899	0.011
899	0.01
900	0.009
900	0.009
901	0.009
901	0.009
901	0.009
902	0.009
902	0.009
903	0.01
903	0.011
904	0.011
904	0.012
904	0.012
905	0.013
905	0.013
906	0.013
906	0.013
907	0.013
907	0.013
907	0.013
908	0.013
908	0.013
909	0.013
909	0.014
910	0.014
910	0.015
910	0.015
911	0.015
911	0.015
912	0.015
912	0.016
913	0.015
913	0.015
913	0.014
914	0.014
914	0.013
915	0.013
915	0.013
916	0.013
916	0.012
916	0.012
917	0.012
917	0.012
918	0.012
918	0.012
918	0.012
919	0.012
919	0.012
920	0.012
920	0.012
921	0.012
921	0.013
921	0.013
922	0.014
922	0.015
923	0.015
923	0.015
924	0.016
924	0.017
924	0.017
925	0.018
925	0.018
926	0.018
926	0.019
927	0.019
927	0.019
927	0.019
928	0.019
928	0.019
929	0.018
929	0.018
930	0.017
930	0.017
930	0.016
931	0.015
931	0.015
932	0.014
932	0.013
933	0.013
933	0.012
933	0.011
934	0.01
934	0.01
935	0.009
935	0.009
935	0.008
936	0.008
936	0.008
937	0.007
937	0.007
938	0.008
938	0.008
938	0.008
939	0.009
939	0.01
940	0.01
940	0.011
941	0.012
941	0.013
941	0.014
942	0.015
942	0.016
943	0.017
943	0.017
944	0.018
944	0.018
944	0.018
945	0.019
945	0.019
946	0.019
946	0.02
946	0.02
947	0.02
947	0.02
948	0.02
948	0.02
949	0.02
949	0.02
949	0.019
950	0.019
950	0.019
951	0.018
951	0.018
952	0.018
952	0.018
952	0.017
953	0.018
953	0.018
954	0.018
954	0.018
955	0.018
955	0.019
955	0.019
956	0.019
956	0.02
957	0.02
957	0.02
957	0.02
958	0.02
958	0.021
959	0.021
959	0.021
960	0.022
960	0.022
960	0.022
961	0.023
961	0.023
962	0.024
962	0.024
963	0.025
963	0.025
963	0.025
964	0.025
964	0.026
965	0.025
965	0.025
966	0.025
966	0.025
966	0.025
967	0.025
967	0.024
968	0.023
968	0.022
968	0.021
969	0.02
969	0.019
970	0.018
970	0.017
971	0.016
971	0.015
971	0.014
972	0.014
972	0.013
973	0.013
973	0.013
974	0.013
974	0.013
974	0.013
975	0.014
975	0.014
976	0.015
976	0.016
976	0.016
977	0.016
977	0.016
978	0.016
978	0.016
979	0.016
979	0.016
979	0.015
980	0.014
980	0.014
981	0.013
981	0.013
982	0.013
982	0.013
982	0.012
983	0.012
983	0.012
984	0.012
984	0.011
984	0.011
985	0.011
985	0.01
986	0.01
986	0.009
987	0.009
987	0.008
987	0.009
988	0.009
988	0.009
989	0.01
989	0.01
990	0.011
990	0.012
990	0.012
991	0.013
991	0.014
992	0.015
992	0.016
992	0.016
993	0.016
993	0.016
994	0.016
994	0.016
995	0.015
995	0.015
995	0.014
996	0.014
996	0.013
997	0.012
997	0.012
997	0.011
998	0.011
998	0.011
999	0.011
999	0.011
1000	0.011
1000	0.012
1000	0.012
1001	0.013
1001	0.014
1002	0.015
1002	0.015
1003	0.016
1003	0.016
1003	0.017
1004	0.017
1004	0.017
1005	0.017
1005	0.017
1005	0.017
1006	0.016
1006	0.016
1007	0.016
1007	0.016
1008	0.016
1008	0.016
1008	0.016
1009	0.016
1009	0.016
1010	0.017
1010	0.017
1010	0.018
1011	0.019
1011	0.019
1012	0.02
1012	0.02
1013	0.021
1013	0.022
1013	0.022
1014	0.022
1014	0.022
1015	0.022
1015	0.022
1016	0.021
1016	0.02
1016	0.02
1017	0.019
1017	0.018
1018	0.017
1018	0.016
1018	0.016
1019	0.015
1019	0.014
1020	0.013
1020	0.013
1021	0.012
1021	0.011
1021	0.01
1022	0.01
1022	0.01
1023	0.009
1023	0.009
1023	0.009
1024	0.009
1024	0.008
1025	0.008
1025	0.008
1026	0.008
1026	0.008
1026	0.008
1027	0.009
1027	0.009
1028	0.009
1028	0.009
1028	0.01
1029	0.01
1029	0.01
1030	0.01
1030	0.01
1031	0.01
1031	0.011
1031	0.01
1032	0.011
1032	0.011
1033	0.01
1033	0.01
1033	0.01
1034	0.01
1034	0.009
1035	0.009
1035	0.009
1036	0.009
1036	0.009
1036	0.01
1037	0.01
1037	0.011
1038	0.011
1038	0.011
1039	0.012
1039	0.012
1039	0.013
1040	0.013
1040	0.014
1041	0.014
1041	0.014
1041	0.014
1042	0.014
1042	0.014
1043	0.014
1043	0.014
1044	0.014
1044	0.014
1044	0.014
1045	0.014
1045	0.014
1046	0.014
1046	0.014
1046	0.014
1047	0.014
1047	0.014
1048	0.014
1048	0.013
1049	0.013
1049	0.012
1049	0.011
1050	0.01
1050	0.01
1051	0.009
1051	0.009
1051	0.009
1052	0.009
1052	0.009
1053	0.008
1053	0.008
1053	0.009
1054	0.009
1054	0.01
1055	0.01
1055	0.011
1056	0.011
1056	0.011
1056	0.011
1057	0.011
1057	0.012
1058	0.013
1058	0.013
1058	0.014
1059	0.014
1059	0.015
1060	0.015
1060	0.016
1061	0.017
1061	0.018
1061	0.018
1062	0.018
1062	0.018
1063	0.018
1063	0.018
1063	0.018
1064	0.018
1064	0.018
1065	0.018
1065	0.017
1066	0.017
1066	0.018
1066	0.018
1067	0.018
1067	0.018
1068	0.018
1068	0.018
1068	0.018
1069	0.017
1069	0.017
1070	0.017
1070	0.016
1071	0.015
1071	0.016
1071	0.015
1072	0.015
1072	0.015
1073	0.014
1073	0.015
1073	0.014
1074	0.014
1074	0.015
1075	0.015
1075	0.014
1076	0.014
1076	0.014
1076	0.014
1077	0.014
1077	0.015
1078	0.015
1078	0.016
1078	0.017
1079	0.018
1079	0.019
1080	0.021
1080	0.022
1080	0.023
1081	0.024
1081	0.025
1082	0.026
1082	0.027
1083	0.028
1083	0.029
1083	0.03
1084	0.031
1084	0.032
1085	0.034
1085	0.035
1085	0.037
1086	0.038
1086	0.039
1087	0.041
1087	0.043
1088	0.044
1088	0.046
1088	0.048
1089	0.049
1089	0.051
1090	0.052
1090	0.054
1090	0.056
1091	0.058
1091	0.061
1092	0.063
1092	0.067
1092	0.069
1093	0.072
1093	0.075
1094	0.078
1094	0.081
1095	0.084
1095	0.087
1095	0.092
1096	0.096
1096	0.101
1097	0.107
1097	0.113
1097	0.118
1098	0.125
1098	0.132
1099	0.14
1099	0.149
1100	0.159
1100	0.168
1100	0.178
1101	0.188
1101	0.2
1102	0.213
1102	0.228
1102	0.245
1103	0.264
1103	0.284
1104	0.305
1104	0.329
1104	0.359
1105	0.389
1105	0.424
1106	0.459
1106	0.507
1107	0.563
1107	0.648
1107	0.765
1108	1.604
1108	-0
1109	-0
1109	-0
1109	-0
1110	-0
1110	-0
1111	-0
1111	-0
