Data from 17c-2-2a_Absorbance__1644__04080.txt Node

Date: Fri Jan 26 15:19:41 CET 2024
User: Marek
Spectrometer: MAYP115816
Trigger mode: 0
Integration Time (sec): 2.000000E-1
Scans to average: 10
Electric dark correction enabled: true
Nonlinearity correction enabled: true
Boxcar width: 5
XAxis mode: Wavelengths
Number of Pixels in Spectrum: 2068
>>>>>Begin Spectral Data<<<<<
199	-1.837
199	-1.691
200	-1.536
200	-1.421
201	-1.347
201	-1.301
202	-1.231
202	-1.173
203	-1.124
203	-1.082
204	-1.055
204	-1.031
205	-1.009
205	-0.999
205	-0.996
206	-0.991
206	-0.987
207	-0.983
207	-0.981
208	-0.981
208	-0.978
209	-0.975
209	-0.971
210	-0.971
210	-0.971
211	-0.972
211	-0.973
212	-0.973
212	-0.972
213	-0.971
213	-0.966
213	-0.966
214	-0.963
214	-0.962
215	-0.957
215	-0.954
216	-0.95
216	-0.949
217	-0.945
217	-0.942
218	-0.938
218	-0.937
219	-0.932
219	-0.931
220	-0.93
220	-0.929
221	-0.927
221	-0.924
221	-0.919
222	-0.914
222	-0.91
223	-0.906
223	-0.902
224	-0.897
224	-0.889
225	-0.882
225	-0.874
226	-0.864
226	-0.852
227	-0.842
227	-0.83
228	-0.812
228	-0.794
229	-0.773
229	-0.751
229	-0.726
230	-0.696
230	-0.664
231	-0.631
231	-0.594
232	-0.555
232	-0.514
233	-0.47
233	-0.425
234	-0.38
234	-0.335
235	-0.289
235	-0.245
236	-0.201
236	-0.159
236	-0.118
237	-0.078
237	-0.042
238	-0.008
238	0.024
239	0.054
239	0.081
240	0.107
240	0.131
241	0.152
241	0.172
242	0.19
242	0.206
243	0.221
243	0.235
243	0.248
244	0.259
244	0.269
245	0.278
245	0.287
246	0.295
246	0.303
247	0.31
247	0.316
248	0.322
248	0.328
249	0.333
249	0.338
250	0.343
250	0.347
250	0.352
251	0.356
251	0.36
252	0.364
252	0.367
253	0.37
253	0.373
254	0.375
254	0.378
255	0.381
255	0.383
256	0.385
256	0.387
257	0.389
257	0.39
258	0.391
258	0.393
258	0.394
259	0.395
259	0.395
260	0.396
260	0.397
261	0.397
261	0.398
262	0.398
262	0.398
263	0.399
263	0.399
264	0.399
264	0.398
265	0.398
265	0.397
265	0.397
266	0.396
266	0.395
267	0.394
267	0.394
268	0.392
268	0.391
269	0.39
269	0.388
270	0.387
270	0.385
271	0.384
271	0.382
272	0.38
272	0.379
272	0.377
273	0.375
273	0.374
274	0.372
274	0.37
275	0.369
275	0.367
276	0.365
276	0.363
277	0.361
277	0.358
278	0.356
278	0.354
278	0.352
279	0.349
279	0.347
280	0.345
280	0.343
281	0.341
281	0.339
282	0.337
282	0.336
283	0.334
283	0.333
284	0.331
284	0.33
285	0.328
285	0.327
285	0.325
286	0.323
286	0.321
287	0.319
287	0.318
288	0.316
288	0.315
289	0.313
289	0.312
290	0.31
290	0.309
291	0.307
291	0.306
292	0.305
292	0.304
292	0.302
293	0.301
293	0.3
294	0.299
294	0.298
295	0.297
295	0.296
296	0.295
296	0.294
297	0.293
297	0.292
298	0.291
298	0.29
298	0.289
299	0.289
299	0.288
300	0.287
300	0.286
301	0.285
301	0.284
302	0.283
302	0.283
303	0.282
303	0.281
304	0.281
304	0.28
305	0.279
305	0.278
305	0.277
306	0.276
306	0.276
307	0.275
307	0.274
308	0.273
308	0.272
309	0.271
309	0.27
310	0.27
310	0.269
311	0.268
311	0.268
311	0.267
312	0.266
312	0.265
313	0.265
313	0.264
314	0.263
314	0.262
315	0.261
315	0.26
316	0.26
316	0.259
317	0.258
317	0.257
318	0.257
318	0.256
318	0.255
319	0.254
319	0.254
320	0.253
320	0.252
321	0.251
321	0.25
322	0.249
322	0.248
323	0.248
323	0.247
324	0.246
324	0.245
324	0.245
325	0.244
325	0.243
326	0.242
326	0.242
327	0.241
327	0.24
328	0.24
328	0.239
329	0.238
329	0.237
330	0.237
330	0.236
330	0.235
331	0.235
331	0.234
332	0.233
332	0.233
333	0.232
333	0.232
334	0.231
334	0.23
335	0.23
335	0.229
336	0.229
336	0.228
336	0.227
337	0.227
337	0.226
338	0.225
338	0.225
339	0.224
339	0.223
340	0.223
340	0.222
341	0.222
341	0.221
342	0.221
342	0.22
342	0.22
343	0.219
343	0.219
344	0.218
344	0.218
345	0.217
345	0.217
346	0.216
346	0.216
347	0.215
347	0.215
348	0.214
348	0.214
348	0.213
349	0.213
349	0.212
350	0.212
350	0.211
351	0.211
351	0.211
352	0.21
352	0.209
353	0.209
353	0.208
354	0.208
354	0.207
354	0.207
355	0.206
355	0.205
356	0.205
356	0.204
357	0.204
357	0.204
358	0.203
358	0.203
359	0.204
359	0.204
360	0.204
360	0.204
360	0.205
361	0.205
361	0.205
362	0.205
362	0.205
363	0.205
363	0.205
364	0.205
364	0.204
365	0.204
365	0.204
366	0.204
366	0.204
366	0.204
367	0.203
367	0.203
368	0.203
368	0.202
369	0.202
369	0.202
370	0.201
370	0.201
371	0.2
371	0.2
372	0.2
372	0.199
372	0.199
373	0.199
373	0.199
374	0.199
374	0.199
375	0.199
375	0.199
376	0.199
376	0.199
377	0.199
377	0.199
378	0.199
378	0.199
378	0.199
379	0.199
379	0.199
380	0.199
380	0.198
381	0.198
381	0.198
382	0.198
382	0.197
383	0.197
383	0.196
383	0.196
384	0.196
384	0.195
385	0.195
385	0.195
386	0.195
386	0.195
387	0.195
387	0.195
388	0.194
388	0.194
389	0.194
389	0.194
389	0.194
390	0.194
390	0.194
391	0.194
391	0.194
392	0.194
392	0.194
393	0.194
393	0.194
394	0.194
394	0.194
394	0.193
395	0.193
395	0.193
396	0.192
396	0.192
397	0.192
397	0.192
398	0.192
398	0.191
399	0.191
399	0.191
400	0.19
400	0.19
400	0.19
401	0.189
401	0.189
402	0.188
402	0.187
403	0.187
403	0.187
404	0.187
404	0.187
405	0.186
405	0.186
405	0.186
406	0.186
406	0.186
407	0.186
407	0.185
408	0.185
408	0.185
409	0.185
409	0.184
410	0.184
410	0.184
411	0.184
411	0.184
411	0.184
412	0.184
412	0.184
413	0.183
413	0.183
414	0.183
414	0.182
415	0.182
415	0.182
416	0.181
416	0.181
416	0.18
417	0.18
417	0.18
418	0.18
418	0.18
419	0.18
419	0.18
420	0.18
420	0.181
421	0.181
421	0.181
421	0.181
422	0.182
422	0.182
423	0.182
423	0.181
424	0.181
424	0.181
425	0.18
425	0.18
426	0.179
426	0.179
427	0.179
427	0.179
427	0.179
428	0.179
428	0.179
429	0.179
429	0.179
430	0.18
430	0.179
431	0.179
431	0.179
432	0.179
432	0.178
432	0.177
433	0.177
433	0.176
434	0.176
434	0.176
435	0.176
435	0.176
436	0.176
436	0.176
437	0.176
437	0.176
437	0.176
438	0.175
438	0.175
439	0.175
439	0.175
440	0.174
440	0.174
441	0.173
441	0.173
442	0.174
442	0.174
442	0.174
443	0.174
443	0.174
444	0.174
444	0.175
445	0.175
445	0.175
446	0.175
446	0.175
447	0.175
447	0.175
447	0.175
448	0.174
448	0.174
449	0.174
449	0.174
450	0.174
450	0.174
451	0.173
451	0.173
452	0.173
452	0.173
452	0.172
453	0.172
453	0.171
454	0.171
454	0.17
455	0.17
455	0.17
456	0.17
456	0.17
457	0.169
457	0.169
458	0.17
458	0.17
458	0.17
459	0.171
459	0.171
460	0.17
460	0.17
461	0.17
461	0.17
462	0.17
462	0.17
463	0.17
463	0.17
463	0.17
464	0.171
464	0.171
465	0.171
465	0.172
466	0.172
466	0.172
467	0.172
467	0.172
467	0.172
468	0.171
468	0.17
469	0.169
469	0.168
470	0.168
470	0.167
471	0.167
471	0.167
472	0.167
472	0.168
472	0.169
473	0.17
473	0.171
474	0.171
474	0.172
475	0.173
475	0.174
476	0.174
476	0.174
477	0.175
477	0.175
477	0.175
478	0.176
478	0.176
479	0.176
479	0.177
480	0.178
480	0.179
481	0.179
481	0.18
482	0.181
482	0.182
482	0.183
483	0.185
483	0.187
484	0.189
484	0.191
485	0.193
485	0.194
486	0.195
486	0.196
487	0.197
487	0.197
487	0.197
488	0.197
488	0.197
489	0.196
489	0.196
490	0.195
490	0.196
491	0.196
491	0.197
492	0.198
492	0.199
492	0.2
493	0.201
493	0.202
494	0.204
494	0.206
495	0.208
495	0.21
496	0.211
496	0.212
496	0.214
497	0.215
497	0.216
498	0.217
498	0.219
499	0.219
499	0.22
500	0.221
500	0.222
501	0.223
501	0.225
501	0.226
502	0.228
502	0.229
503	0.231
503	0.232
504	0.234
504	0.235
505	0.236
505	0.237
506	0.239
506	0.24
506	0.241
507	0.241
507	0.242
508	0.243
508	0.245
509	0.246
509	0.247
510	0.248
510	0.249
511	0.249
511	0.25
511	0.251
512	0.252
512	0.253
513	0.252
513	0.252
514	0.252
514	0.252
515	0.252
515	0.252
515	0.252
516	0.252
516	0.253
517	0.253
517	0.254
518	0.254
518	0.254
519	0.254
519	0.253
520	0.252
520	0.251
520	0.25
521	0.248
521	0.247
522	0.245
522	0.244
523	0.243
523	0.244
524	0.245
524	0.246
524	0.247
525	0.249
525	0.25
526	0.252
526	0.253
527	0.255
527	0.256
528	0.257
528	0.257
529	0.257
529	0.257
529	0.257
530	0.256
530	0.256
531	0.256
531	0.255
532	0.254
532	0.254
533	0.253
533	0.252
533	0.251
534	0.25
534	0.249
535	0.248
535	0.246
536	0.245
536	0.244
537	0.242
537	0.241
538	0.239
538	0.237
538	0.236
539	0.235
539	0.234
540	0.232
540	0.23
541	0.228
541	0.227
542	0.225
542	0.223
542	0.221
543	0.22
543	0.218
544	0.216
544	0.214
545	0.212
545	0.211
546	0.21
546	0.209
547	0.207
547	0.204
547	0.202
548	0.2
548	0.198
549	0.196
549	0.194
550	0.192
550	0.19
551	0.187
551	0.185
551	0.183
552	0.182
552	0.18
553	0.179
553	0.177
554	0.176
554	0.174
555	0.171
555	0.168
556	0.166
556	0.163
556	0.16
557	0.157
557	0.155
558	0.152
558	0.15
559	0.148
559	0.146
560	0.145
560	0.143
560	0.142
561	0.141
561	0.14
562	0.139
562	0.137
563	0.135
563	0.133
564	0.13
564	0.128
564	0.126
565	0.124
565	0.122
566	0.12
566	0.118
567	0.117
567	0.117
568	0.117
568	0.117
568	0.117
569	0.118
569	0.118
570	0.118
570	0.118
571	0.118
571	0.118
572	0.117
572	0.117
573	0.116
573	0.115
573	0.114
574	0.113
574	0.112
575	0.111
575	0.111
576	0.111
576	0.11
577	0.108
577	0.107
577	0.106
578	0.104
578	0.104
579	0.104
579	0.105
580	0.103
580	0.101
581	0.098
581	0.097
581	0.096
582	0.096
582	0.095
583	0.095
583	0.094
584	0.092
584	0.089
585	0.088
585	0.088
585	0.087
586	0.087
586	0.086
587	0.085
587	0.083
588	0.081
588	0.079
589	0.078
589	0.078
590	0.077
590	0.077
590	0.077
591	0.077
591	0.077
592	0.076
592	0.076
593	0.075
593	0.075
594	0.074
594	0.072
594	0.071
595	0.07
595	0.068
596	0.067
596	0.067
597	0.068
597	0.069
598	0.069
598	0.07
598	0.07
599	0.071
599	0.071
600	0.07
600	0.07
601	0.069
601	0.068
602	0.067
602	0.067
602	0.066
603	0.066
603	0.067
604	0.068
604	0.068
605	0.07
605	0.071
606	0.071
606	0.071
606	0.07
607	0.07
607	0.07
608	0.069
608	0.068
609	0.067
609	0.066
610	0.065
610	0.064
610	0.063
611	0.064
611	0.064
612	0.065
612	0.065
613	0.066
613	0.068
614	0.068
614	0.067
614	0.068
615	0.068
615	0.067
616	0.068
616	0.068
617	0.068
617	0.067
618	0.066
618	0.066
618	0.065
619	0.065
619	0.066
620	0.067
620	0.067
621	0.067
621	0.067
622	0.067
622	0.068
622	0.068
623	0.068
623	0.069
624	0.069
624	0.069
625	0.07
625	0.07
626	0.071
626	0.071
626	0.072
627	0.073
627	0.074
628	0.075
628	0.075
629	0.076
629	0.076
630	0.076
630	0.076
630	0.077
631	0.077
631	0.077
632	0.077
632	0.077
633	0.077
633	0.077
634	0.078
634	0.08
634	0.081
635	0.083
635	0.084
636	0.085
636	0.086
637	0.088
637	0.089
638	0.09
638	0.092
638	0.094
639	0.095
639	0.095
640	0.097
640	0.098
641	0.099
641	0.1
642	0.102
642	0.104
642	0.105
643	0.106
643	0.107
644	0.109
644	0.11
645	0.112
645	0.114
646	0.117
646	0.119
646	0.123
647	0.126
647	0.129
648	0.132
648	0.135
649	0.138
649	0.141
650	0.144
650	0.148
650	0.151
651	0.153
651	0.156
652	0.157
652	0.159
653	0.162
653	0.17
653	0.177
654	0.143
654	0.117
655	0.121
655	0.123
656	0.125
656	0.127
657	0.129
657	0.131
657	0.133
658	0.131
658	0.124
659	0.157
659	0.201
660	0.206
660	0.208
661	0.21
661	0.212
661	0.215
662	0.217
662	0.22
663	0.223
663	0.225
664	0.227
664	0.23
665	0.232
665	0.235
665	0.237
666	0.239
666	0.242
667	0.244
667	0.246
668	0.249
668	0.252
669	0.254
669	0.257
669	0.261
670	0.264
670	0.267
671	0.269
671	0.272
672	0.274
672	0.275
672	0.277
673	0.279
673	0.281
674	0.283
674	0.284
675	0.286
675	0.287
676	0.29
676	0.293
676	0.295
677	0.297
677	0.299
678	0.301
678	0.302
679	0.304
679	0.305
680	0.307
680	0.308
680	0.309
681	0.31
681	0.311
682	0.311
682	0.312
683	0.314
683	0.315
684	0.316
684	0.317
684	0.316
685	0.316
685	0.316
686	0.316
686	0.316
687	0.315
687	0.314
687	0.313
688	0.312
688	0.312
689	0.312
689	0.313
690	0.314
690	0.315
691	0.315
691	0.315
691	0.316
692	0.316
692	0.315
693	0.316
693	0.316
694	0.315
694	0.314
695	0.313
695	0.314
695	0.313
696	0.311
696	0.31
697	0.309
697	0.307
698	0.305
698	0.303
698	0.3
699	0.298
699	0.296
700	0.292
700	0.29
701	0.289
701	0.287
702	0.286
702	0.284
702	0.283
703	0.281
703	0.279
704	0.278
704	0.277
705	0.275
705	0.274
705	0.273
706	0.271
706	0.27
707	0.268
707	0.266
708	0.264
708	0.262
709	0.26
709	0.258
709	0.255
710	0.252
710	0.249
711	0.247
711	0.245
712	0.243
712	0.241
713	0.24
713	0.238
713	0.236
714	0.234
714	0.231
715	0.229
715	0.226
716	0.223
716	0.221
716	0.218
717	0.215
717	0.213
718	0.209
718	0.206
719	0.204
719	0.202
720	0.2
720	0.197
720	0.195
721	0.192
721	0.189
722	0.187
722	0.184
723	0.182
723	0.18
723	0.178
724	0.175
724	0.173
725	0.171
725	0.169
726	0.167
726	0.165
727	0.162
727	0.161
727	0.159
728	0.156
728	0.154
729	0.153
729	0.151
730	0.149
730	0.146
730	0.145
731	0.143
731	0.141
732	0.139
732	0.137
733	0.135
733	0.134
734	0.132
734	0.129
734	0.128
735	0.127
735	0.126
736	0.124
736	0.123
737	0.122
737	0.121
737	0.119
738	0.117
738	0.115
739	0.113
739	0.11
740	0.107
740	0.105
741	0.103
741	0.1
741	0.097
742	0.093
742	0.09
743	0.087
743	0.085
744	0.083
744	0.081
744	0.079
745	0.076
745	0.074
746	0.072
746	0.07
747	0.069
747	0.069
748	0.068
748	0.068
748	0.067
749	0.067
749	0.067
750	0.067
750	0.067
751	0.068
751	0.068
751	0.068
752	0.068
752	0.067
753	0.066
753	0.065
754	0.064
754	0.063
754	0.063
755	0.062
755	0.062
756	0.062
756	0.06
757	0.059
757	0.059
758	0.058
758	0.058
758	0.057
759	0.056
759	0.054
760	0.051
760	0.049
761	0.047
761	0.045
761	0.044
762	0.042
762	0.04
763	0.039
763	0.037
764	0.035
764	0.034
764	0.032
765	0.03
765	0.029
766	0.028
766	0.027
767	0.026
767	0.023
768	0.02
768	0.018
768	0.017
769	0.016
769	0.014
770	0.013
770	0.011
771	0.009
771	0.006
771	0.003
772	0.001
772	-0.001
773	-0.002
773	-0.005
774	-0.007
774	-0.01
775	-0.012
775	-0.014
775	-0.017
776	-0.019
776	-0.021
777	-0.023
777	-0.024
778	-0.027
778	-0.029
778	-0.032
779	-0.034
779	-0.036
780	-0.039
780	-0.042
781	-0.046
781	-0.051
781	-0.056
782	-0.063
782	-0.07
783	-0.077
783	-0.084
784	-0.091
784	-0.097
784	-0.103
785	-0.109
785	-0.115
786	-0.118
786	-0.118
787	-0.115
787	-0.112
788	-0.112
788	-0.113
788	-0.114
789	-0.116
789	-0.116
790	-0.113
790	-0.112
791	-0.113
791	-0.115
791	-0.118
792	-0.113
792	-0.102
793	-0.096
793	-0.092
794	-0.091
794	-0.093
794	-0.097
795	-0.1
795	-0.1
796	-0.1
796	-0.103
797	-0.112
797	-0.123
797	-0.13
798	-0.135
798	-0.138
799	-0.139
799	-0.138
800	-0.138
800	-0.139
801	-0.142
801	-0.143
801	-0.142
802	-0.143
802	-0.144
803	-0.145
803	-0.145
804	-0.144
804	-0.139
804	-0.132
805	-0.129
805	-0.127
806	-0.125
806	-0.124
807	-0.124
807	-0.124
807	-0.124
808	-0.124
808	-0.126
809	-0.131
809	-0.136
810	-0.14
810	-0.143
810	-0.146
811	-0.149
811	-0.15
812	-0.146
812	-0.142
813	-0.142
813	-0.143
813	-0.145
814	-0.146
814	-0.146
815	-0.144
815	-0.141
816	-0.14
816	-0.14
817	-0.145
817	-0.149
817	-0.149
818	-0.149
818	-0.145
819	-0.14
819	-0.137
820	-0.135
820	-0.133
820	-0.13
821	-0.124
821	-0.118
822	-0.111
822	-0.103
823	-0.095
823	-0.089
823	-0.085
824	-0.079
824	-0.072
825	-0.065
825	-0.057
826	-0.051
826	-0.046
826	-0.041
827	-0.037
827	-0.033
828	-0.03
828	-0.027
829	-0.024
829	-0.022
829	-0.021
830	-0.021
830	-0.02
831	-0.019
831	-0.018
832	-0.017
832	-0.016
832	-0.015
833	-0.014
833	-0.013
834	-0.011
834	-0.01
835	-0.009
835	-0.008
835	-0.007
836	-0.005
836	-0.004
837	-0.003
837	-0.002
838	-0.002
838	-0.001
839	-0.001
839	-0.002
839	-0.002
840	-0.003
840	-0.003
841	-0.003
841	-0.004
842	-0.004
842	-0.003
842	-0.003
843	-0.003
843	-0.002
844	-0.001
844	-0.001
845	0
845	0.001
845	0.002
846	0.002
846	0.002
847	0.002
847	0.003
848	0.003
848	0.003
848	0.004
849	0.005
849	0.005
850	0.006
850	0.006
851	0.007
851	0.008
851	0.008
852	0.008
852	0.008
853	0.008
853	0.008
854	0.009
854	0.009
854	0.009
855	0.009
855	0.009
856	0.008
856	0.008
857	0.008
857	0.008
857	0.008
858	0.008
858	0.007
859	0.007
859	0.007
860	0.007
860	0.007
860	0.007
861	0.007
861	0.008
862	0.008
862	0.008
863	0.009
863	0.01
863	0.01
864	0.011
864	0.012
865	0.013
865	0.014
866	0.015
866	0.016
866	0.017
867	0.018
867	0.018
868	0.019
868	0.019
869	0.019
869	0.018
869	0.017
870	0.017
870	0.016
871	0.015
871	0.015
872	0.014
872	0.014
872	0.014
873	0.013
873	0.013
874	0.012
874	0.012
875	0.011
875	0.011
875	0.01
876	0.01
876	0.009
877	0.009
877	0.009
878	0.008
878	0.008
878	0.008
879	0.008
879	0.008
880	0.009
880	0.009
881	0.009
881	0.009
881	0.009
882	0.009
882	0.009
883	0.01
883	0.01
884	0.01
884	0.011
884	0.011
885	0.011
885	0.011
886	0.012
886	0.012
887	0.012
887	0.012
887	0.013
888	0.013
888	0.012
889	0.013
889	0.012
890	0.012
890	0.012
890	0.012
891	0.011
891	0.011
892	0.011
892	0.011
893	0.011
893	0.011
893	0.011
894	0.011
894	0.011
895	0.011
895	0.012
895	0.011
896	0.011
896	0.011
897	0.011
897	0.011
898	0.01
898	0.01
898	0.009
899	0.009
899	0.008
900	0.008
900	0.007
901	0.007
901	0.007
901	0.007
902	0.007
902	0.007
903	0.008
903	0.008
904	0.009
904	0.009
904	0.009
905	0.01
905	0.01
906	0.011
906	0.011
907	0.011
907	0.011
907	0.011
908	0.011
908	0.011
909	0.012
909	0.013
910	0.013
910	0.014
910	0.014
911	0.014
911	0.014
912	0.015
912	0.015
913	0.014
913	0.014
913	0.014
914	0.013
914	0.013
915	0.013
915	0.013
916	0.013
916	0.013
916	0.012
917	0.012
917	0.012
918	0.012
918	0.012
918	0.012
919	0.012
919	0.012
920	0.013
920	0.013
921	0.014
921	0.015
921	0.015
922	0.016
922	0.017
923	0.017
923	0.018
924	0.018
924	0.018
924	0.018
925	0.018
925	0.018
926	0.018
926	0.018
927	0.018
927	0.017
927	0.017
928	0.017
928	0.017
929	0.017
929	0.017
930	0.016
930	0.016
930	0.015
931	0.014
931	0.014
932	0.013
932	0.012
933	0.011
933	0.01
933	0.009
934	0.008
934	0.008
935	0.007
935	0.006
935	0.005
936	0.005
936	0.004
937	0.004
937	0.004
938	0.004
938	0.005
938	0.005
939	0.006
939	0.007
940	0.008
940	0.009
941	0.011
941	0.012
941	0.013
942	0.015
942	0.016
943	0.017
943	0.018
944	0.018
944	0.019
944	0.019
945	0.02
945	0.02
946	0.02
946	0.021
946	0.021
947	0.022
947	0.022
948	0.022
948	0.022
949	0.022
949	0.022
949	0.021
950	0.021
950	0.021
951	0.02
951	0.02
952	0.019
952	0.019
952	0.019
953	0.019
953	0.018
954	0.018
954	0.018
955	0.018
955	0.019
955	0.019
956	0.019
956	0.019
957	0.019
957	0.019
957	0.019
958	0.019
958	0.02
959	0.02
959	0.02
960	0.02
960	0.02
960	0.021
961	0.021
961	0.021
962	0.022
962	0.023
963	0.024
963	0.024
963	0.025
964	0.026
964	0.027
965	0.027
965	0.027
966	0.028
966	0.028
966	0.028
967	0.028
967	0.028
968	0.027
968	0.026
968	0.026
969	0.025
969	0.024
970	0.023
970	0.022
971	0.021
971	0.021
971	0.02
972	0.019
972	0.019
973	0.018
973	0.018
974	0.017
974	0.017
974	0.017
975	0.017
975	0.017
976	0.017
976	0.017
976	0.016
977	0.016
977	0.016
978	0.016
978	0.015
979	0.015
979	0.015
979	0.015
980	0.014
980	0.013
981	0.013
981	0.013
982	0.013
982	0.013
982	0.012
983	0.012
983	0.011
984	0.01
984	0.01
984	0.009
985	0.008
985	0.007
986	0.006
986	0.005
987	0.005
987	0.004
987	0.004
988	0.004
988	0.004
989	0.004
989	0.004
990	0.005
990	0.005
990	0.006
991	0.007
991	0.008
992	0.009
992	0.01
992	0.01
993	0.011
993	0.011
994	0.011
994	0.011
995	0.011
995	0.011
995	0.011
996	0.01
996	0.01
997	0.009
997	0.008
997	0.008
998	0.008
998	0.008
999	0.008
999	0.008
1000	0.009
1000	0.009
1000	0.01
1001	0.011
1001	0.012
1002	0.013
1002	0.013
1003	0.014
1003	0.015
1003	0.015
1004	0.016
1004	0.016
1005	0.016
1005	0.017
1005	0.017
1006	0.017
1006	0.017
1007	0.017
1007	0.017
1008	0.017
1008	0.016
1008	0.017
1009	0.017
1009	0.017
1010	0.017
1010	0.017
1010	0.017
1011	0.017
1011	0.017
1012	0.018
1012	0.018
1013	0.018
1013	0.018
1013	0.018
1014	0.018
1014	0.017
1015	0.017
1015	0.016
1016	0.016
1016	0.015
1016	0.015
1017	0.014
1017	0.013
1018	0.013
1018	0.012
1018	0.012
1019	0.011
1019	0.011
1020	0.01
1020	0.01
1021	0.009
1021	0.009
1021	0.008
1022	0.008
1022	0.008
1023	0.008
1023	0.008
1023	0.008
1024	0.007
1024	0.007
1025	0.007
1025	0.007
1026	0.007
1026	0.007
1026	0.007
1027	0.007
1027	0.007
1028	0.007
1028	0.007
1028	0.007
1029	0.007
1029	0.007
1030	0.007
1030	0.007
1031	0.007
1031	0.006
1031	0.006
1032	0.006
1032	0.006
1033	0.005
1033	0.005
1033	0.005
1034	0.004
1034	0.004
1035	0.004
1035	0.004
1036	0.004
1036	0.004
1036	0.004
1037	0.005
1037	0.006
1038	0.006
1038	0.007
1039	0.008
1039	0.009
1039	0.01
1040	0.011
1040	0.012
1041	0.013
1041	0.013
1041	0.014
1042	0.014
1042	0.015
1043	0.016
1043	0.016
1044	0.016
1044	0.016
1044	0.017
1045	0.016
1045	0.016
1046	0.016
1046	0.016
1046	0.016
1047	0.016
1047	0.016
1048	0.016
1048	0.016
1049	0.016
1049	0.016
1049	0.016
1050	0.016
1050	0.015
1051	0.015
1051	0.015
1051	0.015
1052	0.015
1052	0.015
1053	0.015
1053	0.015
1053	0.015
1054	0.015
1054	0.015
1055	0.016
1055	0.016
1056	0.016
1056	0.015
1056	0.015
1057	0.015
1057	0.015
1058	0.015
1058	0.016
1058	0.016
1059	0.016
1059	0.016
1060	0.016
1060	0.016
1061	0.017
1061	0.017
1061	0.017
1062	0.017
1062	0.016
1063	0.016
1063	0.015
1063	0.015
1064	0.015
1064	0.015
1065	0.015
1065	0.014
1066	0.014
1066	0.015
1066	0.015
1067	0.015
1067	0.016
1068	0.016
1068	0.016
1068	0.016
1069	0.015
1069	0.014
1070	0.014
1070	0.013
1071	0.013
1071	0.012
1071	0.012
1072	0.012
1072	0.011
1073	0.011
1073	0.011
1073	0.012
1074	0.012
1074	0.012
1075	0.012
1075	0.012
1076	0.012
1076	0.013
1076	0.013
1077	0.013
1077	0.014
1078	0.014
1078	0.015
1078	0.016
1079	0.017
1079	0.019
1080	0.02
1080	0.022
1080	0.023
1081	0.025
1081	0.027
1082	0.028
1082	0.029
1083	0.031
1083	0.032
1083	0.034
1084	0.035
1084	0.036
1085	0.038
1085	0.039
1085	0.041
1086	0.042
1086	0.043
1087	0.044
1087	0.046
1088	0.047
1088	0.049
1088	0.051
1089	0.052
1089	0.054
1090	0.055
1090	0.057
1090	0.059
1091	0.06
1091	0.063
1092	0.065
1092	0.068
1092	0.07
1093	0.072
1093	0.075
1094	0.077
1094	0.081
1095	0.083
1095	0.086
1095	0.092
1096	0.096
1096	0.1
1097	0.107
1097	0.112
1097	0.118
1098	0.125
1098	0.132
1099	0.139
1099	0.149
1100	0.158
1100	0.166
1100	0.176
1101	0.187
1101	0.197
1102	0.212
1102	0.225
1102	0.241
1103	0.259
1103	0.279
1104	0.301
1104	0.325
1104	0.354
1105	0.385
1105	0.418
1106	0.456
1106	0.504
1107	0.564
1107	0.655
1107	0.789
1108	1.944
1108	-0
1109	-0
1109	-0
1109	-0
1110	-0
1110	-0
1111	-0
1111	-0
