Data from 17c-2-2a_Absorbance__1494__03930.txt Node

Date: Fri Jan 26 15:14:41 CET 2024
User: Marek
Spectrometer: MAYP115816
Trigger mode: 0
Integration Time (sec): 2.000000E-1
Scans to average: 10
Electric dark correction enabled: true
Nonlinearity correction enabled: true
Boxcar width: 5
XAxis mode: Wavelengths
Number of Pixels in Spectrum: 2068
>>>>>Begin Spectral Data<<<<<
199	-1.832
199	-1.686
200	-1.532
200	-1.416
201	-1.343
201	-1.297
202	-1.226
202	-1.168
203	-1.12
203	-1.078
204	-1.051
204	-1.027
205	-1.005
205	-0.995
205	-0.992
206	-0.987
206	-0.982
207	-0.978
207	-0.977
208	-0.975
208	-0.972
209	-0.969
209	-0.965
210	-0.966
210	-0.965
211	-0.966
211	-0.967
212	-0.966
212	-0.965
213	-0.964
213	-0.96
213	-0.96
214	-0.958
214	-0.956
215	-0.951
215	-0.948
216	-0.944
216	-0.942
217	-0.94
217	-0.937
218	-0.933
218	-0.931
219	-0.927
219	-0.925
220	-0.924
220	-0.924
221	-0.921
221	-0.919
221	-0.915
222	-0.909
222	-0.905
223	-0.901
223	-0.897
224	-0.891
224	-0.884
225	-0.877
225	-0.868
226	-0.859
226	-0.847
227	-0.837
227	-0.824
228	-0.808
228	-0.79
229	-0.769
229	-0.746
229	-0.721
230	-0.691
230	-0.66
231	-0.627
231	-0.591
232	-0.551
232	-0.51
233	-0.466
233	-0.421
234	-0.375
234	-0.33
235	-0.284
235	-0.241
236	-0.197
236	-0.155
236	-0.114
237	-0.076
237	-0.039
238	-0.006
238	0.026
239	0.055
239	0.082
240	0.107
240	0.131
241	0.151
241	0.171
242	0.188
242	0.205
243	0.219
243	0.233
243	0.245
244	0.256
244	0.267
245	0.275
245	0.284
246	0.292
246	0.299
247	0.306
247	0.312
248	0.318
248	0.323
249	0.328
249	0.333
250	0.338
250	0.342
250	0.347
251	0.35
251	0.354
252	0.358
252	0.362
253	0.365
253	0.368
254	0.37
254	0.373
255	0.375
255	0.378
256	0.38
256	0.382
257	0.383
257	0.385
258	0.386
258	0.387
258	0.388
259	0.389
259	0.39
260	0.39
260	0.391
261	0.391
261	0.392
262	0.392
262	0.392
263	0.392
263	0.392
264	0.392
264	0.392
265	0.392
265	0.391
265	0.391
266	0.39
266	0.389
267	0.388
267	0.387
268	0.386
268	0.385
269	0.383
269	0.382
270	0.381
270	0.379
271	0.378
271	0.376
272	0.374
272	0.373
272	0.371
273	0.37
273	0.368
274	0.366
274	0.364
275	0.363
275	0.361
276	0.359
276	0.357
277	0.355
277	0.353
278	0.35
278	0.348
278	0.346
279	0.343
279	0.341
280	0.339
280	0.337
281	0.335
281	0.333
282	0.331
282	0.33
283	0.328
283	0.327
284	0.325
284	0.324
285	0.322
285	0.321
285	0.319
286	0.317
286	0.315
287	0.314
287	0.312
288	0.31
288	0.309
289	0.307
289	0.306
290	0.304
290	0.303
291	0.302
291	0.301
292	0.299
292	0.298
292	0.297
293	0.296
293	0.295
294	0.293
294	0.292
295	0.291
295	0.29
296	0.289
296	0.288
297	0.287
297	0.286
298	0.285
298	0.284
298	0.283
299	0.282
299	0.282
300	0.281
300	0.28
301	0.279
301	0.279
302	0.278
302	0.277
303	0.276
303	0.276
304	0.275
304	0.274
305	0.273
305	0.272
305	0.272
306	0.271
306	0.27
307	0.269
307	0.269
308	0.268
308	0.267
309	0.266
309	0.266
310	0.265
310	0.264
311	0.264
311	0.263
311	0.262
312	0.262
312	0.261
313	0.26
313	0.259
314	0.258
314	0.258
315	0.257
315	0.256
316	0.255
316	0.254
317	0.253
317	0.253
318	0.252
318	0.251
318	0.25
319	0.25
319	0.249
320	0.248
320	0.247
321	0.247
321	0.246
322	0.245
322	0.244
323	0.243
323	0.243
324	0.242
324	0.241
324	0.24
325	0.239
325	0.239
326	0.238
326	0.237
327	0.236
327	0.236
328	0.235
328	0.234
329	0.234
329	0.233
330	0.232
330	0.232
330	0.231
331	0.231
331	0.23
332	0.229
332	0.229
333	0.228
333	0.227
334	0.227
334	0.226
335	0.225
335	0.225
336	0.224
336	0.223
336	0.223
337	0.222
337	0.222
338	0.221
338	0.22
339	0.22
339	0.219
340	0.219
340	0.218
341	0.218
341	0.217
342	0.217
342	0.216
342	0.216
343	0.215
343	0.215
344	0.214
344	0.214
345	0.213
345	0.213
346	0.213
346	0.212
347	0.211
347	0.211
348	0.21
348	0.21
348	0.209
349	0.209
349	0.208
350	0.207
350	0.207
351	0.206
351	0.206
352	0.206
352	0.205
353	0.205
353	0.204
354	0.204
354	0.203
354	0.203
355	0.202
355	0.202
356	0.201
356	0.201
357	0.2
357	0.2
358	0.2
358	0.2
359	0.2
359	0.201
360	0.201
360	0.201
360	0.201
361	0.202
361	0.202
362	0.202
362	0.201
363	0.201
363	0.201
364	0.201
364	0.2
365	0.2
365	0.2
366	0.2
366	0.2
366	0.2
367	0.199
367	0.199
368	0.199
368	0.199
369	0.198
369	0.198
370	0.198
370	0.197
371	0.197
371	0.197
372	0.196
372	0.196
372	0.196
373	0.195
373	0.195
374	0.195
374	0.195
375	0.195
375	0.195
376	0.195
376	0.195
377	0.195
377	0.195
378	0.195
378	0.195
378	0.195
379	0.195
379	0.195
380	0.195
380	0.195
381	0.195
381	0.194
382	0.194
382	0.193
383	0.193
383	0.193
383	0.192
384	0.192
384	0.191
385	0.191
385	0.191
386	0.191
386	0.191
387	0.191
387	0.191
388	0.19
388	0.19
389	0.19
389	0.19
389	0.19
390	0.19
390	0.19
391	0.19
391	0.19
392	0.19
392	0.19
393	0.19
393	0.19
394	0.19
394	0.19
394	0.19
395	0.189
395	0.189
396	0.189
396	0.188
397	0.188
397	0.188
398	0.188
398	0.187
399	0.187
399	0.187
400	0.187
400	0.186
400	0.186
401	0.185
401	0.185
402	0.184
402	0.184
403	0.184
403	0.183
404	0.183
404	0.183
405	0.183
405	0.182
405	0.182
406	0.182
406	0.182
407	0.182
407	0.182
408	0.181
408	0.181
409	0.181
409	0.181
410	0.181
410	0.18
411	0.18
411	0.18
411	0.18
412	0.18
412	0.179
413	0.179
413	0.179
414	0.179
414	0.178
415	0.178
415	0.177
416	0.177
416	0.177
416	0.176
417	0.176
417	0.176
418	0.176
418	0.176
419	0.176
419	0.176
420	0.177
420	0.177
421	0.178
421	0.178
421	0.178
422	0.178
422	0.178
423	0.178
423	0.178
424	0.177
424	0.177
425	0.176
425	0.176
426	0.176
426	0.175
427	0.175
427	0.175
427	0.175
428	0.175
428	0.175
429	0.176
429	0.176
430	0.176
430	0.176
431	0.175
431	0.175
432	0.175
432	0.174
432	0.173
433	0.173
433	0.172
434	0.172
434	0.172
435	0.172
435	0.172
436	0.172
436	0.172
437	0.172
437	0.172
437	0.172
438	0.172
438	0.172
439	0.172
439	0.171
440	0.171
440	0.17
441	0.17
441	0.17
442	0.17
442	0.17
442	0.17
443	0.17
443	0.171
444	0.171
444	0.171
445	0.172
445	0.172
446	0.172
446	0.172
447	0.172
447	0.171
447	0.171
448	0.171
448	0.171
449	0.171
449	0.171
450	0.171
450	0.17
451	0.17
451	0.17
452	0.17
452	0.17
452	0.169
453	0.169
453	0.168
454	0.168
454	0.167
455	0.167
455	0.167
456	0.167
456	0.166
457	0.166
457	0.166
458	0.166
458	0.167
458	0.167
459	0.167
459	0.167
460	0.167
460	0.166
461	0.166
461	0.166
462	0.166
462	0.166
463	0.166
463	0.167
463	0.167
464	0.167
464	0.167
465	0.168
465	0.168
466	0.168
466	0.168
467	0.169
467	0.168
467	0.168
468	0.167
468	0.166
469	0.166
469	0.165
470	0.165
470	0.164
471	0.164
471	0.164
472	0.164
472	0.165
472	0.165
473	0.166
473	0.167
474	0.168
474	0.169
475	0.17
475	0.17
476	0.171
476	0.171
477	0.171
477	0.172
477	0.172
478	0.172
478	0.173
479	0.173
479	0.174
480	0.174
480	0.175
481	0.176
481	0.176
482	0.177
482	0.178
482	0.18
483	0.182
483	0.184
484	0.186
484	0.188
485	0.189
485	0.191
486	0.192
486	0.192
487	0.193
487	0.194
487	0.194
488	0.193
488	0.193
489	0.192
489	0.192
490	0.191
490	0.191
491	0.192
491	0.193
492	0.194
492	0.195
492	0.196
493	0.197
493	0.198
494	0.2
494	0.202
495	0.204
495	0.205
496	0.207
496	0.208
496	0.209
497	0.21
497	0.211
498	0.212
498	0.213
499	0.214
499	0.215
500	0.216
500	0.217
501	0.218
501	0.22
501	0.221
502	0.223
502	0.224
503	0.226
503	0.228
504	0.229
504	0.23
505	0.231
505	0.232
506	0.233
506	0.234
506	0.235
507	0.236
507	0.237
508	0.238
508	0.239
509	0.24
509	0.241
510	0.242
510	0.243
511	0.244
511	0.245
511	0.246
512	0.247
512	0.247
513	0.247
513	0.247
514	0.247
514	0.247
515	0.247
515	0.247
515	0.247
516	0.247
516	0.248
517	0.248
517	0.249
518	0.249
518	0.249
519	0.249
519	0.248
520	0.247
520	0.246
520	0.244
521	0.242
521	0.241
522	0.239
522	0.238
523	0.237
523	0.238
524	0.238
524	0.24
524	0.241
525	0.243
525	0.244
526	0.246
526	0.247
527	0.249
527	0.25
528	0.251
528	0.251
529	0.251
529	0.251
529	0.25
530	0.25
530	0.249
531	0.249
531	0.249
532	0.248
532	0.247
533	0.247
533	0.246
533	0.245
534	0.244
534	0.243
535	0.241
535	0.24
536	0.239
536	0.238
537	0.236
537	0.235
538	0.234
538	0.232
538	0.23
539	0.23
539	0.229
540	0.228
540	0.226
541	0.224
541	0.222
542	0.221
542	0.219
542	0.217
543	0.215
543	0.214
544	0.211
544	0.21
545	0.208
545	0.207
546	0.206
546	0.205
547	0.203
547	0.2
547	0.198
548	0.196
548	0.194
549	0.193
549	0.191
550	0.189
550	0.186
551	0.184
551	0.182
551	0.18
552	0.178
552	0.176
553	0.175
553	0.174
554	0.172
554	0.17
555	0.167
555	0.165
556	0.162
556	0.159
556	0.156
557	0.153
557	0.151
558	0.148
558	0.146
559	0.144
559	0.142
560	0.141
560	0.139
560	0.138
561	0.138
561	0.137
562	0.136
562	0.135
563	0.133
563	0.131
564	0.128
564	0.126
564	0.124
565	0.122
565	0.121
566	0.119
566	0.117
567	0.116
567	0.115
568	0.116
568	0.116
568	0.116
569	0.117
569	0.117
570	0.117
570	0.117
571	0.117
571	0.117
572	0.116
572	0.115
573	0.115
573	0.114
573	0.112
574	0.111
574	0.11
575	0.109
575	0.109
576	0.109
576	0.108
577	0.106
577	0.105
577	0.104
578	0.103
578	0.103
579	0.103
579	0.103
580	0.101
580	0.099
581	0.097
581	0.095
581	0.095
582	0.094
582	0.094
583	0.094
583	0.093
584	0.091
584	0.088
585	0.087
585	0.087
585	0.086
586	0.086
586	0.085
587	0.083
587	0.081
588	0.079
588	0.077
589	0.076
589	0.076
590	0.075
590	0.074
590	0.074
591	0.074
591	0.074
592	0.073
592	0.073
593	0.072
593	0.072
594	0.071
594	0.07
594	0.07
595	0.069
595	0.068
596	0.066
596	0.067
597	0.068
597	0.069
598	0.069
598	0.07
598	0.071
599	0.071
599	0.071
600	0.071
600	0.07
601	0.069
601	0.069
602	0.067
602	0.067
602	0.066
603	0.066
603	0.066
604	0.067
604	0.068
605	0.069
605	0.07
606	0.07
606	0.07
606	0.07
607	0.07
607	0.069
608	0.069
608	0.068
609	0.066
609	0.066
610	0.064
610	0.063
610	0.063
611	0.062
611	0.063
612	0.063
612	0.064
613	0.065
613	0.066
614	0.066
614	0.066
614	0.066
615	0.066
615	0.066
616	0.066
616	0.066
617	0.066
617	0.065
618	0.064
618	0.064
618	0.063
619	0.063
619	0.064
620	0.065
620	0.065
621	0.065
621	0.065
622	0.066
622	0.066
622	0.066
623	0.067
623	0.068
624	0.068
624	0.068
625	0.069
625	0.069
626	0.07
626	0.07
626	0.071
627	0.072
627	0.072
628	0.073
628	0.073
629	0.074
629	0.074
630	0.074
630	0.073
630	0.073
631	0.074
631	0.074
632	0.073
632	0.073
633	0.074
633	0.074
634	0.075
634	0.077
634	0.079
635	0.08
635	0.081
636	0.082
636	0.083
637	0.085
637	0.086
638	0.087
638	0.089
638	0.09
639	0.091
639	0.092
640	0.093
640	0.094
641	0.096
641	0.097
642	0.099
642	0.101
642	0.103
643	0.104
643	0.106
644	0.107
644	0.109
645	0.111
645	0.113
646	0.115
646	0.118
646	0.121
647	0.124
647	0.127
648	0.13
648	0.133
649	0.136
649	0.139
650	0.142
650	0.145
650	0.148
651	0.151
651	0.153
652	0.155
652	0.157
653	0.16
653	0.168
653	0.176
654	0.142
654	0.116
655	0.12
655	0.121
656	0.123
656	0.125
657	0.127
657	0.129
657	0.13
658	0.128
658	0.121
659	0.153
659	0.196
660	0.201
660	0.204
661	0.206
661	0.208
661	0.211
662	0.214
662	0.216
663	0.219
663	0.222
664	0.224
664	0.226
665	0.228
665	0.231
665	0.233
666	0.235
666	0.238
667	0.24
667	0.242
668	0.244
668	0.247
669	0.25
669	0.252
669	0.256
670	0.259
670	0.262
671	0.264
671	0.266
672	0.268
672	0.27
672	0.272
673	0.274
673	0.276
674	0.277
674	0.279
675	0.28
675	0.281
676	0.284
676	0.286
676	0.288
677	0.29
677	0.292
678	0.293
678	0.294
679	0.295
679	0.297
680	0.299
680	0.3
680	0.301
681	0.301
681	0.302
682	0.303
682	0.304
683	0.306
683	0.308
684	0.309
684	0.309
684	0.309
685	0.309
685	0.31
686	0.31
686	0.31
687	0.309
687	0.309
687	0.308
688	0.308
688	0.307
689	0.308
689	0.309
690	0.31
690	0.31
691	0.31
691	0.311
691	0.311
692	0.311
692	0.31
693	0.31
693	0.31
694	0.309
694	0.307
695	0.307
695	0.307
695	0.306
696	0.304
696	0.303
697	0.302
697	0.3
698	0.299
698	0.297
698	0.295
699	0.293
699	0.291
700	0.288
700	0.286
701	0.285
701	0.283
702	0.282
702	0.28
702	0.279
703	0.277
703	0.275
704	0.273
704	0.272
705	0.27
705	0.268
705	0.266
706	0.264
706	0.263
707	0.261
707	0.259
708	0.257
708	0.255
709	0.254
709	0.251
709	0.249
710	0.246
710	0.244
711	0.243
711	0.241
712	0.239
712	0.237
713	0.236
713	0.234
713	0.232
714	0.229
714	0.227
715	0.224
715	0.221
716	0.218
716	0.215
716	0.212
717	0.209
717	0.206
718	0.203
718	0.2
719	0.198
719	0.196
720	0.194
720	0.192
720	0.19
721	0.188
721	0.186
722	0.183
722	0.181
723	0.179
723	0.177
723	0.175
724	0.173
724	0.171
725	0.168
725	0.166
726	0.164
726	0.163
727	0.161
727	0.159
727	0.157
728	0.155
728	0.153
729	0.152
729	0.15
730	0.148
730	0.146
730	0.144
731	0.142
731	0.14
732	0.139
732	0.137
733	0.135
733	0.134
734	0.132
734	0.13
734	0.128
735	0.127
735	0.126
736	0.124
736	0.123
737	0.121
737	0.12
737	0.118
738	0.116
738	0.114
739	0.111
739	0.109
740	0.106
740	0.104
741	0.102
741	0.1
741	0.096
742	0.093
742	0.089
743	0.087
743	0.084
744	0.082
744	0.079
744	0.077
745	0.074
745	0.071
746	0.069
746	0.068
747	0.066
747	0.066
748	0.065
748	0.065
748	0.065
749	0.064
749	0.064
750	0.064
750	0.064
751	0.065
751	0.065
751	0.065
752	0.065
752	0.064
753	0.063
753	0.063
754	0.062
754	0.062
754	0.062
755	0.062
755	0.062
756	0.061
756	0.06
757	0.059
757	0.059
758	0.058
758	0.057
758	0.056
759	0.055
759	0.053
760	0.051
760	0.048
761	0.046
761	0.045
761	0.043
762	0.041
762	0.04
763	0.038
763	0.036
764	0.034
764	0.032
764	0.03
765	0.029
765	0.027
766	0.025
766	0.024
767	0.023
767	0.021
768	0.018
768	0.016
768	0.015
769	0.014
769	0.013
770	0.011
770	0.009
771	0.007
771	0.005
771	0.002
772	-0
772	-0.002
773	-0.003
773	-0.006
774	-0.008
774	-0.011
775	-0.013
775	-0.015
775	-0.017
776	-0.019
776	-0.021
777	-0.022
777	-0.024
778	-0.027
778	-0.03
778	-0.032
779	-0.034
779	-0.036
780	-0.039
780	-0.042
781	-0.046
781	-0.05
781	-0.055
782	-0.062
782	-0.069
783	-0.076
783	-0.083
784	-0.089
784	-0.095
784	-0.101
785	-0.108
785	-0.114
786	-0.118
786	-0.118
787	-0.115
787	-0.112
788	-0.112
788	-0.113
788	-0.114
789	-0.116
789	-0.116
790	-0.113
790	-0.112
791	-0.113
791	-0.115
791	-0.118
792	-0.113
792	-0.102
793	-0.096
793	-0.092
794	-0.091
794	-0.093
794	-0.097
795	-0.1
795	-0.1
796	-0.1
796	-0.103
797	-0.112
797	-0.123
797	-0.13
798	-0.135
798	-0.138
799	-0.139
799	-0.138
800	-0.138
800	-0.139
801	-0.142
801	-0.143
801	-0.142
802	-0.143
802	-0.144
803	-0.145
803	-0.145
804	-0.144
804	-0.139
804	-0.132
805	-0.129
805	-0.127
806	-0.125
806	-0.124
807	-0.124
807	-0.124
807	-0.124
808	-0.124
808	-0.126
809	-0.131
809	-0.136
810	-0.14
810	-0.143
810	-0.146
811	-0.149
811	-0.15
812	-0.146
812	-0.142
813	-0.142
813	-0.143
813	-0.145
814	-0.146
814	-0.146
815	-0.144
815	-0.141
816	-0.14
816	-0.14
817	-0.145
817	-0.149
817	-0.149
818	-0.149
818	-0.145
819	-0.14
819	-0.137
820	-0.135
820	-0.133
820	-0.13
821	-0.124
821	-0.118
822	-0.11
822	-0.102
823	-0.094
823	-0.088
823	-0.084
824	-0.078
824	-0.071
825	-0.064
825	-0.057
826	-0.05
826	-0.046
826	-0.041
827	-0.037
827	-0.033
828	-0.03
828	-0.027
829	-0.024
829	-0.022
829	-0.021
830	-0.021
830	-0.02
831	-0.018
831	-0.016
832	-0.015
832	-0.014
832	-0.013
833	-0.012
833	-0.011
834	-0.01
834	-0.009
835	-0.008
835	-0.007
835	-0.007
836	-0.006
836	-0.006
837	-0.005
837	-0.005
838	-0.005
838	-0.005
839	-0.005
839	-0.005
839	-0.006
840	-0.006
840	-0.006
841	-0.006
841	-0.007
842	-0.006
842	-0.006
842	-0.005
843	-0.005
843	-0.004
844	-0.003
844	-0.002
845	-0.001
845	-0
845	0
846	0.001
846	0.001
847	0.001
847	0.002
848	0.003
848	0.003
848	0.004
849	0.005
849	0.005
850	0.006
850	0.006
851	0.007
851	0.008
851	0.009
852	0.009
852	0.01
853	0.01
853	0.01
854	0.01
854	0.011
854	0.011
855	0.012
855	0.012
856	0.011
856	0.011
857	0.011
857	0.011
857	0.011
858	0.011
858	0.011
859	0.01
859	0.01
860	0.009
860	0.009
860	0.009
861	0.008
861	0.009
862	0.008
862	0.008
863	0.009
863	0.009
863	0.01
864	0.011
864	0.012
865	0.013
865	0.014
866	0.015
866	0.016
866	0.017
867	0.017
867	0.018
868	0.018
868	0.018
869	0.018
869	0.017
869	0.016
870	0.015
870	0.014
871	0.013
871	0.013
872	0.012
872	0.012
872	0.012
873	0.012
873	0.012
874	0.011
874	0.011
875	0.011
875	0.011
875	0.011
876	0.011
876	0.01
877	0.01
877	0.01
878	0.009
878	0.009
878	0.009
879	0.009
879	0.009
880	0.009
880	0.009
881	0.009
881	0.009
881	0.009
882	0.009
882	0.009
883	0.009
883	0.009
884	0.01
884	0.01
884	0.01
885	0.01
885	0.011
886	0.011
886	0.011
887	0.011
887	0.011
887	0.01
888	0.01
888	0.01
889	0.01
889	0.009
890	0.009
890	0.009
890	0.008
891	0.008
891	0.008
892	0.008
892	0.008
893	0.008
893	0.009
893	0.009
894	0.009
894	0.01
895	0.01
895	0.01
895	0.01
896	0.01
896	0.01
897	0.01
897	0.01
898	0.01
898	0.01
898	0.01
899	0.01
899	0.01
900	0.01
900	0.01
901	0.01
901	0.01
901	0.01
902	0.011
902	0.011
903	0.012
903	0.012
904	0.013
904	0.013
904	0.013
905	0.013
905	0.013
906	0.014
906	0.014
907	0.013
907	0.013
907	0.013
908	0.013
908	0.014
909	0.014
909	0.015
910	0.016
910	0.016
910	0.016
911	0.016
911	0.017
912	0.017
912	0.017
913	0.017
913	0.017
913	0.016
914	0.016
914	0.015
915	0.015
915	0.015
916	0.015
916	0.015
916	0.014
917	0.014
917	0.013
918	0.012
918	0.012
918	0.011
919	0.011
919	0.01
920	0.01
920	0.01
921	0.01
921	0.011
921	0.011
922	0.012
922	0.012
923	0.013
923	0.013
924	0.013
924	0.014
924	0.014
925	0.014
925	0.014
926	0.014
926	0.014
927	0.014
927	0.014
927	0.013
928	0.013
928	0.012
929	0.012
929	0.011
930	0.01
930	0.01
930	0.009
931	0.008
931	0.007
932	0.007
932	0.006
933	0.005
933	0.005
933	0.004
934	0.004
934	0.003
935	0.003
935	0.003
935	0.003
936	0.003
936	0.003
937	0.003
937	0.004
938	0.005
938	0.005
938	0.007
939	0.008
939	0.009
940	0.011
940	0.012
941	0.014
941	0.016
941	0.017
942	0.019
942	0.02
943	0.021
943	0.022
944	0.022
944	0.023
944	0.023
945	0.023
945	0.023
946	0.022
946	0.022
946	0.021
947	0.021
947	0.021
948	0.02
948	0.02
949	0.02
949	0.02
949	0.02
950	0.02
950	0.02
951	0.02
951	0.02
952	0.019
952	0.019
952	0.018
953	0.018
953	0.017
954	0.017
954	0.016
955	0.016
955	0.016
955	0.016
956	0.017
956	0.017
957	0.017
957	0.017
957	0.017
958	0.017
958	0.017
959	0.018
959	0.018
960	0.018
960	0.017
960	0.017
961	0.018
961	0.018
962	0.019
962	0.019
963	0.02
963	0.021
963	0.021
964	0.022
964	0.023
965	0.024
965	0.024
966	0.025
966	0.025
966	0.025
967	0.024
967	0.023
968	0.023
968	0.022
968	0.021
969	0.02
969	0.019
970	0.019
970	0.018
971	0.017
971	0.017
971	0.016
972	0.016
972	0.016
973	0.016
973	0.015
974	0.015
974	0.015
974	0.015
975	0.015
975	0.015
976	0.015
976	0.016
976	0.016
977	0.016
977	0.016
978	0.017
978	0.017
979	0.017
979	0.017
979	0.017
980	0.017
980	0.016
981	0.016
981	0.016
982	0.015
982	0.015
982	0.015
983	0.014
983	0.013
984	0.012
984	0.012
984	0.011
985	0.011
985	0.01
986	0.009
986	0.008
987	0.007
987	0.007
987	0.007
988	0.007
988	0.007
989	0.007
989	0.007
990	0.008
990	0.008
990	0.008
991	0.009
991	0.009
992	0.01
992	0.01
992	0.01
993	0.01
993	0.01
994	0.01
994	0.01
995	0.009
995	0.009
995	0.009
996	0.008
996	0.008
997	0.007
997	0.007
997	0.007
998	0.007
998	0.007
999	0.008
999	0.009
1000	0.009
1000	0.01
1000	0.011
1001	0.013
1001	0.014
1002	0.015
1002	0.016
1003	0.017
1003	0.017
1003	0.018
1004	0.018
1004	0.019
1005	0.019
1005	0.019
1005	0.019
1006	0.019
1006	0.019
1007	0.019
1007	0.019
1008	0.019
1008	0.019
1008	0.019
1009	0.018
1009	0.018
1010	0.018
1010	0.019
1010	0.019
1011	0.019
1011	0.019
1012	0.019
1012	0.018
1013	0.019
1013	0.019
1013	0.019
1014	0.018
1014	0.018
1015	0.017
1015	0.017
1016	0.017
1016	0.016
1016	0.016
1017	0.015
1017	0.015
1018	0.014
1018	0.013
1018	0.013
1019	0.013
1019	0.012
1020	0.012
1020	0.012
1021	0.011
1021	0.011
1021	0.01
1022	0.01
1022	0.01
1023	0.01
1023	0.01
1023	0.01
1024	0.01
1024	0.009
1025	0.009
1025	0.009
1026	0.009
1026	0.009
1026	0.009
1027	0.009
1027	0.009
1028	0.009
1028	0.01
1028	0.009
1029	0.009
1029	0.009
1030	0.009
1030	0.009
1031	0.008
1031	0.008
1031	0.007
1032	0.007
1032	0.006
1033	0.005
1033	0.005
1033	0.004
1034	0.003
1034	0.003
1035	0.002
1035	0.002
1036	0.001
1036	0.002
1036	0.002
1037	0.002
1037	0.003
1038	0.004
1038	0.004
1039	0.005
1039	0.006
1039	0.007
1040	0.008
1040	0.009
1041	0.01
1041	0.011
1041	0.011
1042	0.012
1042	0.012
1043	0.013
1043	0.013
1044	0.014
1044	0.015
1044	0.016
1045	0.016
1045	0.016
1046	0.017
1046	0.017
1046	0.017
1047	0.018
1047	0.019
1048	0.019
1048	0.019
1049	0.018
1049	0.018
1049	0.017
1050	0.017
1050	0.017
1051	0.017
1051	0.017
1051	0.017
1052	0.017
1052	0.017
1053	0.017
1053	0.017
1053	0.017
1054	0.017
1054	0.017
1055	0.017
1055	0.017
1056	0.017
1056	0.017
1056	0.016
1057	0.015
1057	0.015
1058	0.015
1058	0.015
1058	0.016
1059	0.016
1059	0.015
1060	0.015
1060	0.016
1061	0.016
1061	0.017
1061	0.017
1062	0.017
1062	0.016
1063	0.016
1063	0.015
1063	0.015
1064	0.015
1064	0.016
1065	0.016
1065	0.016
1066	0.016
1066	0.017
1066	0.017
1067	0.018
1067	0.018
1068	0.018
1068	0.018
1068	0.018
1069	0.017
1069	0.016
1070	0.016
1070	0.015
1071	0.015
1071	0.014
1071	0.014
1072	0.014
1072	0.013
1073	0.013
1073	0.013
1073	0.013
1074	0.013
1074	0.014
1075	0.013
1075	0.013
1076	0.012
1076	0.012
1076	0.012
1077	0.013
1077	0.013
1078	0.014
1078	0.014
1078	0.015
1079	0.016
1079	0.018
1080	0.019
1080	0.02
1080	0.021
1081	0.023
1081	0.024
1082	0.026
1082	0.027
1083	0.028
1083	0.029
1083	0.03
1084	0.031
1084	0.033
1085	0.035
1085	0.036
1085	0.038
1086	0.039
1086	0.04
1087	0.042
1087	0.045
1088	0.046
1088	0.047
1088	0.05
1089	0.05
1089	0.052
1090	0.054
1090	0.056
1090	0.058
1091	0.06
1091	0.063
1092	0.065
1092	0.068
1092	0.07
1093	0.073
1093	0.077
1094	0.079
1094	0.082
1095	0.084
1095	0.087
1095	0.092
1096	0.096
1096	0.1
1097	0.105
1097	0.11
1097	0.116
1098	0.122
1098	0.129
1099	0.136
1099	0.144
1100	0.153
1100	0.162
1100	0.171
1101	0.183
1101	0.195
1102	0.209
1102	0.222
1102	0.24
1103	0.256
1103	0.277
1104	0.299
1104	0.324
1104	0.355
1105	0.386
1105	0.416
1106	0.45
1106	0.496
1107	0.552
1107	0.633
1107	0.758
1108	1.576
1108	-0
1109	-0
1109	-0
1109	-0
1110	-0
1110	-0
1111	-0
1111	-0
