Data from 17c-2-2a_Absorbance__900__03336.txt Node

Date: Fri Jan 26 14:54:53 CET 2024
User: Marek
Spectrometer: MAYP115816
Trigger mode: 0
Integration Time (sec): 2.000000E-1
Scans to average: 10
Electric dark correction enabled: true
Nonlinearity correction enabled: true
Boxcar width: 5
XAxis mode: Wavelengths
Number of Pixels in Spectrum: 2068
>>>>>Begin Spectral Data<<<<<
199	-1.813
199	-1.667
200	-1.513
200	-1.397
201	-1.324
201	-1.278
202	-1.208
202	-1.151
203	-1.102
203	-1.06
204	-1.032
204	-1.008
205	-0.987
205	-0.977
205	-0.974
206	-0.969
206	-0.964
207	-0.96
207	-0.96
208	-0.959
208	-0.956
209	-0.953
209	-0.95
210	-0.95
210	-0.95
211	-0.95
211	-0.951
212	-0.951
212	-0.951
213	-0.948
213	-0.944
213	-0.944
214	-0.942
214	-0.94
215	-0.935
215	-0.932
216	-0.928
216	-0.927
217	-0.924
217	-0.921
218	-0.918
218	-0.916
219	-0.912
219	-0.911
220	-0.91
220	-0.91
221	-0.907
221	-0.905
221	-0.9
222	-0.894
222	-0.89
223	-0.885
223	-0.882
224	-0.876
224	-0.868
225	-0.861
225	-0.853
226	-0.844
226	-0.833
227	-0.823
227	-0.811
228	-0.795
228	-0.778
229	-0.757
229	-0.734
229	-0.709
230	-0.68
230	-0.649
231	-0.615
231	-0.579
232	-0.541
232	-0.5
233	-0.457
233	-0.413
234	-0.369
234	-0.326
235	-0.282
235	-0.239
236	-0.197
236	-0.157
236	-0.119
237	-0.082
237	-0.049
238	-0.017
238	0.012
239	0.04
239	0.065
240	0.088
240	0.109
241	0.128
241	0.146
242	0.162
242	0.177
243	0.19
243	0.202
243	0.214
244	0.223
244	0.232
245	0.241
245	0.248
246	0.255
246	0.262
247	0.268
247	0.274
248	0.279
248	0.284
249	0.289
249	0.293
250	0.297
250	0.301
250	0.305
251	0.308
251	0.312
252	0.315
252	0.318
253	0.321
253	0.323
254	0.326
254	0.328
255	0.331
255	0.333
256	0.335
256	0.336
257	0.338
257	0.339
258	0.341
258	0.342
258	0.343
259	0.344
259	0.344
260	0.345
260	0.345
261	0.346
261	0.346
262	0.346
262	0.346
263	0.346
263	0.346
264	0.346
264	0.346
265	0.346
265	0.345
265	0.345
266	0.344
266	0.343
267	0.342
267	0.341
268	0.34
268	0.339
269	0.338
269	0.336
270	0.335
270	0.334
271	0.332
271	0.331
272	0.329
272	0.327
272	0.326
273	0.324
273	0.322
274	0.321
274	0.319
275	0.317
275	0.316
276	0.314
276	0.312
277	0.31
277	0.308
278	0.306
278	0.304
278	0.301
279	0.299
279	0.297
280	0.295
280	0.293
281	0.291
281	0.289
282	0.288
282	0.286
283	0.285
283	0.283
284	0.282
284	0.28
285	0.279
285	0.277
285	0.276
286	0.274
286	0.272
287	0.271
287	0.269
288	0.268
288	0.266
289	0.265
289	0.264
290	0.262
290	0.261
291	0.26
291	0.259
292	0.257
292	0.256
292	0.255
293	0.254
293	0.253
294	0.252
294	0.251
295	0.25
295	0.249
296	0.248
296	0.247
297	0.246
297	0.245
298	0.245
298	0.244
298	0.243
299	0.243
299	0.242
300	0.241
300	0.241
301	0.24
301	0.24
302	0.239
302	0.238
303	0.237
303	0.237
304	0.236
304	0.236
305	0.235
305	0.234
305	0.234
306	0.233
306	0.232
307	0.232
307	0.231
308	0.23
308	0.23
309	0.229
309	0.228
310	0.228
310	0.227
311	0.227
311	0.226
311	0.225
312	0.225
312	0.224
313	0.224
313	0.223
314	0.222
314	0.221
315	0.221
315	0.22
316	0.219
316	0.219
317	0.218
317	0.217
318	0.217
318	0.216
318	0.215
319	0.215
319	0.214
320	0.213
320	0.213
321	0.212
321	0.211
322	0.21
322	0.21
323	0.209
323	0.208
324	0.208
324	0.207
324	0.206
325	0.206
325	0.205
326	0.205
326	0.204
327	0.203
327	0.203
328	0.202
328	0.202
329	0.201
329	0.201
330	0.2
330	0.199
330	0.199
331	0.198
331	0.198
332	0.197
332	0.196
333	0.196
333	0.195
334	0.195
334	0.194
335	0.194
335	0.193
336	0.192
336	0.192
336	0.191
337	0.191
337	0.19
338	0.19
338	0.189
339	0.189
339	0.188
340	0.188
340	0.187
341	0.187
341	0.186
342	0.186
342	0.185
342	0.185
343	0.184
343	0.184
344	0.184
344	0.183
345	0.183
345	0.182
346	0.182
346	0.182
347	0.181
347	0.181
348	0.18
348	0.18
348	0.179
349	0.179
349	0.178
350	0.178
350	0.178
351	0.177
351	0.177
352	0.176
352	0.176
353	0.176
353	0.175
354	0.175
354	0.175
354	0.174
355	0.174
355	0.173
356	0.173
356	0.172
357	0.172
357	0.171
358	0.171
358	0.171
359	0.172
359	0.172
360	0.172
360	0.172
360	0.172
361	0.172
361	0.172
362	0.173
362	0.173
363	0.173
363	0.172
364	0.172
364	0.172
365	0.172
365	0.171
366	0.171
366	0.171
366	0.171
367	0.171
367	0.171
368	0.17
368	0.17
369	0.17
369	0.17
370	0.169
370	0.169
371	0.169
371	0.168
372	0.168
372	0.168
372	0.168
373	0.168
373	0.167
374	0.167
374	0.167
375	0.167
375	0.167
376	0.167
376	0.167
377	0.167
377	0.168
378	0.168
378	0.168
378	0.168
379	0.168
379	0.168
380	0.168
380	0.167
381	0.167
381	0.167
382	0.167
382	0.166
383	0.166
383	0.165
383	0.165
384	0.165
384	0.165
385	0.164
385	0.164
386	0.164
386	0.164
387	0.164
387	0.164
388	0.164
388	0.164
389	0.163
389	0.163
389	0.163
390	0.163
390	0.163
391	0.164
391	0.164
392	0.164
392	0.164
393	0.164
393	0.163
394	0.163
394	0.163
394	0.163
395	0.162
395	0.162
396	0.162
396	0.161
397	0.161
397	0.161
398	0.161
398	0.161
399	0.161
399	0.161
400	0.161
400	0.16
400	0.16
401	0.16
401	0.159
402	0.159
402	0.158
403	0.158
403	0.158
404	0.158
404	0.157
405	0.157
405	0.157
405	0.157
406	0.157
406	0.157
407	0.157
407	0.156
408	0.156
408	0.156
409	0.155
409	0.155
410	0.155
410	0.155
411	0.155
411	0.155
411	0.155
412	0.155
412	0.155
413	0.154
413	0.154
414	0.154
414	0.154
415	0.153
415	0.153
416	0.152
416	0.152
416	0.152
417	0.151
417	0.151
418	0.151
418	0.151
419	0.152
419	0.152
420	0.152
420	0.153
421	0.153
421	0.153
421	0.153
422	0.153
422	0.153
423	0.154
423	0.153
424	0.153
424	0.152
425	0.152
425	0.151
426	0.151
426	0.151
427	0.151
427	0.151
427	0.151
428	0.151
428	0.151
429	0.152
429	0.152
430	0.152
430	0.152
431	0.152
431	0.151
432	0.151
432	0.151
432	0.15
433	0.149
433	0.149
434	0.148
434	0.148
435	0.148
435	0.148
436	0.148
436	0.148
437	0.148
437	0.148
437	0.148
438	0.148
438	0.148
439	0.147
439	0.147
440	0.146
440	0.146
441	0.146
441	0.146
442	0.146
442	0.146
442	0.147
443	0.147
443	0.147
444	0.147
444	0.148
445	0.148
445	0.148
446	0.148
446	0.148
447	0.148
447	0.148
447	0.148
448	0.147
448	0.147
449	0.147
449	0.146
450	0.146
450	0.146
451	0.146
451	0.146
452	0.146
452	0.146
452	0.145
453	0.145
453	0.144
454	0.144
454	0.144
455	0.143
455	0.143
456	0.143
456	0.143
457	0.143
457	0.142
458	0.143
458	0.143
458	0.144
459	0.144
459	0.144
460	0.144
460	0.143
461	0.143
461	0.143
462	0.143
462	0.143
463	0.143
463	0.144
463	0.144
464	0.144
464	0.144
465	0.144
465	0.145
466	0.145
466	0.145
467	0.145
467	0.144
467	0.144
468	0.143
468	0.142
469	0.141
469	0.141
470	0.14
470	0.14
471	0.14
471	0.14
472	0.14
472	0.14
472	0.141
473	0.142
473	0.143
474	0.143
474	0.144
475	0.145
475	0.145
476	0.146
476	0.146
477	0.146
477	0.147
477	0.147
478	0.147
478	0.147
479	0.148
479	0.148
480	0.148
480	0.149
481	0.15
481	0.15
482	0.151
482	0.152
482	0.153
483	0.154
483	0.156
484	0.158
484	0.16
485	0.161
485	0.162
486	0.162
486	0.163
487	0.164
487	0.164
487	0.164
488	0.164
488	0.163
489	0.163
489	0.162
490	0.162
490	0.162
491	0.163
491	0.163
492	0.164
492	0.165
492	0.166
493	0.166
493	0.167
494	0.169
494	0.171
495	0.173
495	0.174
496	0.175
496	0.176
496	0.177
497	0.178
497	0.179
498	0.18
498	0.181
499	0.181
499	0.182
500	0.183
500	0.184
501	0.185
501	0.186
501	0.187
502	0.189
502	0.19
503	0.191
503	0.192
504	0.193
504	0.194
505	0.195
505	0.196
506	0.197
506	0.198
506	0.198
507	0.199
507	0.2
508	0.201
508	0.202
509	0.203
509	0.204
510	0.205
510	0.206
511	0.206
511	0.207
511	0.207
512	0.208
512	0.208
513	0.208
513	0.208
514	0.208
514	0.207
515	0.207
515	0.207
515	0.207
516	0.207
516	0.207
517	0.208
517	0.209
518	0.209
518	0.209
519	0.209
519	0.208
520	0.208
520	0.207
520	0.206
521	0.204
521	0.202
522	0.2
522	0.199
523	0.198
523	0.198
524	0.199
524	0.199
524	0.2
525	0.201
525	0.203
526	0.205
526	0.206
527	0.208
527	0.209
528	0.21
528	0.21
529	0.211
529	0.211
529	0.211
530	0.211
530	0.211
531	0.211
531	0.21
532	0.209
532	0.209
533	0.208
533	0.207
533	0.206
534	0.205
534	0.204
535	0.202
535	0.201
536	0.2
536	0.199
537	0.198
537	0.197
538	0.196
538	0.194
538	0.193
539	0.192
539	0.191
540	0.19
540	0.189
541	0.188
541	0.186
542	0.184
542	0.183
542	0.181
543	0.18
543	0.179
544	0.177
544	0.176
545	0.175
545	0.174
546	0.173
546	0.172
547	0.17
547	0.168
547	0.166
548	0.164
548	0.162
549	0.16
549	0.159
550	0.157
550	0.156
551	0.154
551	0.152
551	0.15
552	0.149
552	0.147
553	0.146
553	0.145
554	0.144
554	0.142
555	0.14
555	0.137
556	0.135
556	0.133
556	0.13
557	0.128
557	0.127
558	0.125
558	0.123
559	0.122
559	0.121
560	0.12
560	0.119
560	0.118
561	0.117
561	0.117
562	0.116
562	0.114
563	0.113
563	0.111
564	0.109
564	0.107
564	0.105
565	0.103
565	0.101
566	0.1
566	0.098
567	0.097
567	0.097
568	0.097
568	0.097
568	0.098
569	0.099
569	0.099
570	0.099
570	0.099
571	0.1
571	0.1
572	0.099
572	0.099
573	0.099
573	0.098
573	0.097
574	0.096
574	0.096
575	0.095
575	0.095
576	0.095
576	0.094
577	0.093
577	0.092
577	0.091
578	0.09
578	0.09
579	0.09
579	0.091
580	0.09
580	0.087
581	0.085
581	0.084
581	0.083
582	0.082
582	0.082
583	0.082
583	0.081
584	0.079
584	0.076
585	0.075
585	0.075
585	0.075
586	0.075
586	0.075
587	0.074
587	0.072
588	0.07
588	0.069
589	0.068
589	0.068
590	0.067
590	0.067
590	0.067
591	0.068
591	0.067
592	0.067
592	0.066
593	0.066
593	0.066
594	0.065
594	0.064
594	0.063
595	0.062
595	0.061
596	0.059
596	0.06
597	0.061
597	0.061
598	0.062
598	0.062
598	0.063
599	0.063
599	0.063
600	0.063
600	0.062
601	0.062
601	0.061
602	0.06
602	0.059
602	0.059
603	0.059
603	0.059
604	0.06
604	0.061
605	0.062
605	0.063
606	0.064
606	0.063
606	0.063
607	0.062
607	0.062
608	0.061
608	0.06
609	0.059
609	0.059
610	0.057
610	0.056
610	0.056
611	0.056
611	0.057
612	0.058
612	0.058
613	0.059
613	0.06
614	0.06
614	0.06
614	0.06
615	0.06
615	0.06
616	0.06
616	0.06
617	0.059
617	0.059
618	0.058
618	0.058
618	0.057
619	0.058
619	0.058
620	0.059
620	0.06
621	0.06
621	0.06
622	0.06
622	0.061
622	0.06
623	0.06
623	0.061
624	0.061
624	0.061
625	0.061
625	0.062
626	0.062
626	0.062
626	0.063
627	0.064
627	0.065
628	0.065
628	0.066
629	0.066
629	0.067
630	0.066
630	0.066
630	0.066
631	0.067
631	0.067
632	0.067
632	0.067
633	0.067
633	0.068
634	0.069
634	0.07
634	0.072
635	0.073
635	0.074
636	0.075
636	0.076
637	0.077
637	0.078
638	0.08
638	0.081
638	0.082
639	0.083
639	0.084
640	0.085
640	0.086
641	0.087
641	0.089
642	0.09
642	0.092
642	0.093
643	0.094
643	0.095
644	0.096
644	0.098
645	0.1
645	0.101
646	0.103
646	0.106
646	0.108
647	0.111
647	0.113
648	0.115
648	0.118
649	0.12
649	0.123
650	0.125
650	0.128
650	0.13
651	0.132
651	0.134
652	0.135
652	0.137
653	0.139
653	0.146
653	0.153
654	0.124
654	0.102
655	0.105
655	0.107
656	0.109
656	0.11
657	0.112
657	0.114
657	0.116
658	0.114
658	0.108
659	0.136
659	0.172
660	0.177
660	0.179
661	0.181
661	0.182
661	0.185
662	0.187
662	0.189
663	0.191
663	0.194
664	0.196
664	0.197
665	0.199
665	0.201
665	0.203
666	0.205
666	0.207
667	0.209
667	0.212
668	0.214
668	0.216
669	0.218
669	0.221
669	0.224
670	0.227
670	0.229
671	0.231
671	0.233
672	0.234
672	0.236
672	0.237
673	0.239
673	0.24
674	0.242
674	0.243
675	0.245
675	0.247
676	0.249
676	0.251
676	0.253
677	0.255
677	0.258
678	0.259
678	0.261
679	0.262
679	0.263
680	0.265
680	0.267
680	0.267
681	0.268
681	0.269
682	0.27
682	0.271
683	0.272
683	0.273
684	0.274
684	0.274
684	0.274
685	0.274
685	0.274
686	0.273
686	0.273
687	0.272
687	0.271
687	0.27
688	0.27
688	0.269
689	0.269
689	0.27
690	0.271
690	0.271
691	0.272
691	0.272
691	0.272
692	0.272
692	0.272
693	0.272
693	0.272
694	0.272
694	0.27
695	0.27
695	0.27
695	0.269
696	0.268
696	0.266
697	0.265
697	0.264
698	0.262
698	0.26
698	0.258
699	0.256
699	0.254
700	0.251
700	0.249
701	0.248
701	0.246
702	0.245
702	0.243
702	0.242
703	0.24
703	0.239
704	0.237
704	0.236
705	0.235
705	0.234
705	0.233
706	0.232
706	0.231
707	0.229
707	0.228
708	0.226
708	0.225
709	0.224
709	0.222
709	0.219
710	0.216
710	0.214
711	0.212
711	0.21
712	0.209
712	0.207
713	0.206
713	0.204
713	0.202
714	0.2
714	0.198
715	0.197
715	0.195
716	0.192
716	0.19
716	0.188
717	0.186
717	0.183
718	0.181
718	0.178
719	0.176
719	0.174
720	0.172
720	0.169
720	0.167
721	0.164
721	0.161
722	0.159
722	0.156
723	0.154
723	0.152
723	0.15
724	0.148
724	0.146
725	0.145
725	0.144
726	0.143
726	0.142
727	0.141
727	0.14
727	0.139
728	0.138
728	0.136
729	0.135
729	0.134
730	0.132
730	0.13
730	0.128
731	0.127
731	0.125
732	0.124
732	0.122
733	0.121
733	0.119
734	0.117
734	0.116
734	0.114
735	0.114
735	0.112
736	0.11
736	0.109
737	0.107
737	0.106
737	0.104
738	0.102
738	0.1
739	0.098
739	0.096
740	0.093
740	0.091
741	0.089
741	0.087
741	0.084
742	0.08
742	0.078
743	0.076
743	0.074
744	0.072
744	0.071
744	0.069
745	0.067
745	0.066
746	0.064
746	0.064
747	0.063
747	0.063
748	0.063
748	0.063
748	0.062
749	0.061
749	0.061
750	0.061
750	0.061
751	0.061
751	0.061
751	0.061
752	0.06
752	0.058
753	0.057
753	0.056
754	0.055
754	0.054
754	0.054
755	0.053
755	0.053
756	0.053
756	0.052
757	0.051
757	0.051
758	0.051
758	0.05
758	0.05
759	0.05
759	0.048
760	0.046
760	0.044
761	0.042
761	0.041
761	0.04
762	0.038
762	0.037
763	0.036
763	0.034
764	0.032
764	0.03
764	0.029
765	0.027
765	0.025
766	0.024
766	0.024
767	0.022
767	0.02
768	0.017
768	0.016
768	0.014
769	0.013
769	0.012
770	0.011
770	0.009
771	0.007
771	0.004
771	0.001
772	-0.001
772	-0.003
773	-0.005
773	-0.008
774	-0.011
774	-0.014
775	-0.016
775	-0.019
775	-0.021
776	-0.023
776	-0.025
777	-0.027
777	-0.029
778	-0.031
778	-0.033
778	-0.036
779	-0.037
779	-0.039
780	-0.042
780	-0.045
781	-0.049
781	-0.054
781	-0.06
782	-0.066
782	-0.074
783	-0.081
783	-0.087
784	-0.094
784	-0.1
784	-0.105
785	-0.111
785	-0.117
786	-0.12
786	-0.119
787	-0.116
787	-0.113
788	-0.113
788	-0.113
788	-0.114
789	-0.116
789	-0.116
790	-0.113
790	-0.112
791	-0.113
791	-0.115
791	-0.118
792	-0.113
792	-0.102
793	-0.096
793	-0.092
794	-0.091
794	-0.093
794	-0.097
795	-0.1
795	-0.1
796	-0.101
796	-0.103
797	-0.112
797	-0.123
797	-0.13
798	-0.135
798	-0.138
799	-0.139
799	-0.138
800	-0.138
800	-0.139
801	-0.142
801	-0.143
801	-0.143
802	-0.144
802	-0.145
803	-0.145
803	-0.145
804	-0.144
804	-0.139
804	-0.133
805	-0.129
805	-0.127
806	-0.125
806	-0.124
807	-0.124
807	-0.124
807	-0.124
808	-0.125
808	-0.126
809	-0.131
809	-0.137
810	-0.14
810	-0.143
810	-0.146
811	-0.149
811	-0.15
812	-0.146
812	-0.143
813	-0.143
813	-0.144
813	-0.145
814	-0.146
814	-0.146
815	-0.144
815	-0.141
816	-0.14
816	-0.141
817	-0.145
817	-0.149
817	-0.149
818	-0.148
818	-0.144
819	-0.138
819	-0.134
820	-0.132
820	-0.129
820	-0.125
821	-0.119
821	-0.111
822	-0.103
822	-0.094
823	-0.086
823	-0.08
823	-0.075
824	-0.069
824	-0.063
825	-0.056
825	-0.049
826	-0.043
826	-0.039
826	-0.034
827	-0.03
827	-0.027
828	-0.024
828	-0.021
829	-0.019
829	-0.017
829	-0.016
830	-0.016
830	-0.015
831	-0.014
831	-0.013
832	-0.012
832	-0.011
832	-0.01
833	-0.009
833	-0.008
834	-0.006
834	-0.004
835	-0.003
835	-0.002
835	-0.001
836	0
836	0.001
837	0.002
837	0.003
838	0.003
838	0.002
839	0.002
839	0.002
839	0.001
840	0
840	-0
841	-0.001
841	-0.001
842	-0.001
842	-0.001
842	-0
843	-0
843	0
844	0.001
844	0.002
845	0.002
845	0.003
845	0.003
846	0.004
846	0.004
847	0.004
847	0.004
848	0.005
848	0.005
848	0.005
849	0.006
849	0.006
850	0.006
850	0.006
851	0.007
851	0.008
851	0.008
852	0.008
852	0.008
853	0.008
853	0.008
854	0.009
854	0.009
854	0.01
855	0.01
855	0.01
856	0.01
856	0.01
857	0.01
857	0.01
857	0.01
858	0.01
858	0.009
859	0.009
859	0.009
860	0.009
860	0.009
860	0.009
861	0.009
861	0.009
862	0.009
862	0.009
863	0.01
863	0.01
863	0.011
864	0.012
864	0.012
865	0.013
865	0.014
866	0.015
866	0.016
866	0.017
867	0.018
867	0.019
868	0.019
868	0.02
869	0.02
869	0.02
869	0.02
870	0.02
870	0.02
871	0.02
871	0.02
872	0.02
872	0.019
872	0.019
873	0.018
873	0.018
874	0.017
874	0.017
875	0.016
875	0.015
875	0.015
876	0.014
876	0.013
877	0.013
877	0.012
878	0.011
878	0.011
878	0.011
879	0.011
879	0.01
880	0.011
880	0.011
881	0.011
881	0.012
881	0.012
882	0.012
882	0.013
883	0.013
883	0.014
884	0.015
884	0.015
884	0.016
885	0.016
885	0.017
886	0.018
886	0.018
887	0.019
887	0.019
887	0.019
888	0.019
888	0.019
889	0.019
889	0.018
890	0.018
890	0.017
890	0.017
891	0.016
891	0.016
892	0.016
892	0.016
893	0.017
893	0.017
893	0.018
894	0.018
894	0.019
895	0.019
895	0.019
895	0.019
896	0.019
896	0.019
897	0.018
897	0.017
898	0.016
898	0.015
898	0.014
899	0.013
899	0.012
900	0.011
900	0.01
901	0.01
901	0.009
901	0.009
902	0.009
902	0.009
903	0.009
903	0.01
904	0.01
904	0.011
904	0.011
905	0.011
905	0.011
906	0.012
906	0.012
907	0.011
907	0.011
907	0.011
908	0.011
908	0.011
909	0.012
909	0.012
910	0.013
910	0.014
910	0.014
911	0.014
911	0.015
912	0.015
912	0.016
913	0.016
913	0.016
913	0.015
914	0.015
914	0.015
915	0.014
915	0.015
916	0.015
916	0.014
916	0.014
917	0.014
917	0.014
918	0.014
918	0.014
918	0.013
919	0.013
919	0.013
920	0.013
920	0.013
921	0.013
921	0.013
921	0.013
922	0.013
922	0.014
923	0.014
923	0.015
924	0.015
924	0.016
924	0.016
925	0.017
925	0.018
926	0.018
926	0.019
927	0.019
927	0.019
927	0.02
928	0.02
928	0.02
929	0.02
929	0.02
930	0.02
930	0.02
930	0.02
931	0.019
931	0.019
932	0.018
932	0.018
933	0.017
933	0.016
933	0.015
934	0.014
934	0.013
935	0.012
935	0.012
935	0.011
936	0.01
936	0.009
937	0.009
937	0.008
938	0.008
938	0.008
938	0.008
939	0.008
939	0.009
940	0.009
940	0.01
941	0.011
941	0.012
941	0.013
942	0.014
942	0.015
943	0.016
943	0.017
944	0.018
944	0.018
944	0.019
945	0.02
945	0.021
946	0.021
946	0.022
946	0.022
947	0.023
947	0.023
948	0.024
948	0.024
949	0.023
949	0.023
949	0.023
950	0.023
950	0.022
951	0.022
951	0.022
952	0.021
952	0.021
952	0.021
953	0.021
953	0.021
954	0.021
954	0.021
955	0.022
955	0.022
955	0.022
956	0.023
956	0.023
957	0.023
957	0.023
957	0.023
958	0.023
958	0.023
959	0.024
959	0.024
960	0.024
960	0.024
960	0.024
961	0.025
961	0.025
962	0.025
962	0.026
963	0.026
963	0.027
963	0.027
964	0.027
964	0.028
965	0.027
965	0.027
966	0.027
966	0.027
966	0.027
967	0.027
967	0.026
968	0.025
968	0.024
968	0.023
969	0.022
969	0.021
970	0.02
970	0.019
971	0.018
971	0.017
971	0.016
972	0.016
972	0.015
973	0.015
973	0.014
974	0.014
974	0.015
974	0.015
975	0.015
975	0.016
976	0.016
976	0.017
976	0.017
977	0.017
977	0.017
978	0.017
978	0.017
979	0.017
979	0.016
979	0.015
980	0.014
980	0.014
981	0.013
981	0.012
982	0.012
982	0.012
982	0.011
983	0.011
983	0.011
984	0.01
984	0.01
984	0.01
985	0.01
985	0.01
986	0.009
986	0.009
987	0.008
987	0.008
987	0.008
988	0.008
988	0.009
989	0.009
989	0.01
990	0.01
990	0.011
990	0.012
991	0.013
991	0.014
992	0.015
992	0.015
992	0.016
993	0.016
993	0.016
994	0.016
994	0.016
995	0.015
995	0.015
995	0.015
996	0.014
996	0.013
997	0.012
997	0.012
997	0.011
998	0.011
998	0.011
999	0.011
999	0.011
1000	0.011
1000	0.011
1000	0.012
1001	0.013
1001	0.013
1002	0.014
1002	0.014
1003	0.015
1003	0.015
1003	0.015
1004	0.016
1004	0.016
1005	0.016
1005	0.015
1005	0.015
1006	0.015
1006	0.015
1007	0.014
1007	0.014
1008	0.014
1008	0.014
1008	0.014
1009	0.014
1009	0.015
1010	0.016
1010	0.016
1010	0.017
1011	0.018
1011	0.019
1012	0.02
1012	0.021
1013	0.022
1013	0.022
1013	0.023
1014	0.023
1014	0.023
1015	0.023
1015	0.023
1016	0.023
1016	0.022
1016	0.022
1017	0.021
1017	0.02
1018	0.02
1018	0.019
1018	0.018
1019	0.017
1019	0.016
1020	0.015
1020	0.014
1021	0.014
1021	0.013
1021	0.012
1022	0.011
1022	0.011
1023	0.011
1023	0.01
1023	0.01
1024	0.01
1024	0.01
1025	0.01
1025	0.01
1026	0.01
1026	0.01
1026	0.01
1027	0.01
1027	0.011
1028	0.011
1028	0.011
1028	0.012
1029	0.012
1029	0.013
1030	0.013
1030	0.013
1031	0.013
1031	0.013
1031	0.013
1032	0.013
1032	0.013
1033	0.013
1033	0.013
1033	0.013
1034	0.012
1034	0.012
1035	0.012
1035	0.011
1036	0.011
1036	0.011
1036	0.011
1037	0.012
1037	0.012
1038	0.012
1038	0.012
1039	0.013
1039	0.013
1039	0.014
1040	0.014
1040	0.014
1041	0.014
1041	0.015
1041	0.014
1042	0.014
1042	0.014
1043	0.015
1043	0.015
1044	0.015
1044	0.015
1044	0.015
1045	0.015
1045	0.015
1046	0.014
1046	0.014
1046	0.014
1047	0.014
1047	0.014
1048	0.014
1048	0.014
1049	0.013
1049	0.013
1049	0.012
1050	0.012
1050	0.012
1051	0.012
1051	0.012
1051	0.012
1052	0.011
1052	0.011
1053	0.011
1053	0.011
1053	0.012
1054	0.012
1054	0.012
1055	0.013
1055	0.013
1056	0.013
1056	0.013
1056	0.013
1057	0.013
1057	0.013
1058	0.014
1058	0.014
1058	0.015
1059	0.015
1059	0.015
1060	0.016
1060	0.016
1061	0.017
1061	0.018
1061	0.018
1062	0.018
1062	0.018
1063	0.018
1063	0.017
1063	0.017
1064	0.017
1064	0.017
1065	0.017
1065	0.017
1066	0.016
1066	0.016
1066	0.016
1067	0.017
1067	0.017
1068	0.017
1068	0.016
1068	0.016
1069	0.015
1069	0.015
1070	0.014
1070	0.014
1071	0.014
1071	0.014
1071	0.013
1072	0.013
1072	0.013
1073	0.013
1073	0.014
1073	0.014
1074	0.014
1074	0.014
1075	0.014
1075	0.013
1076	0.013
1076	0.014
1076	0.014
1077	0.014
1077	0.015
1078	0.015
1078	0.016
1078	0.017
1079	0.018
1079	0.02
1080	0.022
1080	0.023
1080	0.024
1081	0.025
1081	0.027
1082	0.029
1082	0.03
1083	0.031
1083	0.032
1083	0.033
1084	0.034
1084	0.036
1085	0.037
1085	0.038
1085	0.039
1086	0.041
1086	0.041
1087	0.043
1087	0.045
1088	0.046
1088	0.047
1088	0.049
1089	0.049
1089	0.051
1090	0.052
1090	0.054
1090	0.056
1091	0.058
1091	0.061
1092	0.063
1092	0.066
1092	0.068
1093	0.071
1093	0.074
1094	0.077
1094	0.08
1095	0.083
1095	0.086
1095	0.092
1096	0.096
1096	0.101
1097	0.107
1097	0.113
1097	0.119
1098	0.126
1098	0.133
1099	0.141
1099	0.15
1100	0.159
1100	0.168
1100	0.178
1101	0.189
1101	0.201
1102	0.216
1102	0.229
1102	0.246
1103	0.263
1103	0.283
1104	0.307
1104	0.331
1104	0.36
1105	0.39
1105	0.422
1106	0.455
1106	0.497
1107	0.552
1107	0.633
1107	0.757
1108	1.495
1108	-0
1109	-0
1109	-0
1109	-0
1110	-0
1110	-0
1111	-0
1111	-0
