Data from 17c-2-2a_Absorbance__1806__04242.txt Node

Date: Fri Jan 26 15:25:05 CET 2024
User: Marek
Spectrometer: MAYP115816
Trigger mode: 0
Integration Time (sec): 2.000000E-1
Scans to average: 10
Electric dark correction enabled: true
Nonlinearity correction enabled: true
Boxcar width: 5
XAxis mode: Wavelengths
Number of Pixels in Spectrum: 2068
>>>>>Begin Spectral Data<<<<<
199	-1.849
199	-1.703
200	-1.549
200	-1.433
201	-1.359
201	-1.312
202	-1.241
202	-1.183
203	-1.135
203	-1.092
204	-1.065
204	-1.04
205	-1.018
205	-1.008
205	-1.004
206	-1
206	-0.995
207	-0.991
207	-0.99
208	-0.989
208	-0.987
209	-0.985
209	-0.981
210	-0.981
210	-0.981
211	-0.981
211	-0.982
212	-0.981
212	-0.981
213	-0.978
213	-0.974
213	-0.974
214	-0.971
214	-0.969
215	-0.964
215	-0.961
216	-0.958
216	-0.956
217	-0.953
217	-0.951
218	-0.947
218	-0.946
219	-0.941
219	-0.94
220	-0.938
220	-0.938
221	-0.935
221	-0.933
221	-0.929
222	-0.923
222	-0.919
223	-0.915
223	-0.911
224	-0.905
224	-0.898
225	-0.89
225	-0.882
226	-0.872
226	-0.861
227	-0.85
227	-0.838
228	-0.821
228	-0.803
229	-0.782
229	-0.759
229	-0.734
230	-0.704
230	-0.673
231	-0.639
231	-0.603
232	-0.563
232	-0.521
233	-0.478
233	-0.432
234	-0.387
234	-0.341
235	-0.295
235	-0.25
236	-0.206
236	-0.163
236	-0.122
237	-0.083
237	-0.046
238	-0.012
238	0.02
239	0.051
239	0.079
240	0.105
240	0.129
241	0.15
241	0.17
242	0.189
242	0.206
243	0.221
243	0.235
243	0.248
244	0.26
244	0.271
245	0.28
245	0.289
246	0.298
246	0.306
247	0.313
247	0.319
248	0.326
248	0.332
249	0.337
249	0.342
250	0.347
250	0.351
250	0.356
251	0.36
251	0.364
252	0.368
252	0.371
253	0.375
253	0.377
254	0.38
254	0.383
255	0.385
255	0.388
256	0.39
256	0.391
257	0.393
257	0.394
258	0.396
258	0.397
258	0.398
259	0.399
259	0.4
260	0.401
260	0.401
261	0.402
261	0.402
262	0.403
262	0.403
263	0.403
263	0.403
264	0.403
264	0.403
265	0.403
265	0.402
265	0.402
266	0.401
266	0.4
267	0.4
267	0.399
268	0.398
268	0.396
269	0.395
269	0.394
270	0.392
270	0.391
271	0.389
271	0.388
272	0.386
272	0.384
272	0.383
273	0.381
273	0.379
274	0.377
274	0.376
275	0.374
275	0.372
276	0.37
276	0.368
277	0.365
277	0.363
278	0.361
278	0.359
278	0.356
279	0.354
279	0.352
280	0.35
280	0.348
281	0.346
281	0.344
282	0.342
282	0.341
283	0.339
283	0.338
284	0.336
284	0.335
285	0.333
285	0.332
285	0.33
286	0.328
286	0.326
287	0.324
287	0.323
288	0.321
288	0.319
289	0.318
289	0.316
290	0.315
290	0.314
291	0.312
291	0.311
292	0.31
292	0.309
292	0.307
293	0.306
293	0.305
294	0.304
294	0.303
295	0.301
295	0.3
296	0.299
296	0.298
297	0.297
297	0.297
298	0.296
298	0.295
298	0.294
299	0.293
299	0.292
300	0.291
300	0.291
301	0.29
301	0.289
302	0.288
302	0.287
303	0.287
303	0.286
304	0.285
304	0.284
305	0.284
305	0.283
305	0.282
306	0.281
306	0.28
307	0.28
307	0.279
308	0.278
308	0.277
309	0.276
309	0.275
310	0.275
310	0.274
311	0.273
311	0.272
311	0.272
312	0.271
312	0.27
313	0.269
313	0.269
314	0.268
314	0.267
315	0.266
315	0.265
316	0.265
316	0.264
317	0.263
317	0.262
318	0.261
318	0.261
318	0.26
319	0.259
319	0.258
320	0.257
320	0.256
321	0.255
321	0.255
322	0.254
322	0.253
323	0.252
323	0.251
324	0.25
324	0.25
324	0.249
325	0.248
325	0.248
326	0.247
326	0.246
327	0.245
327	0.245
328	0.244
328	0.244
329	0.243
329	0.242
330	0.241
330	0.241
330	0.24
331	0.239
331	0.238
332	0.238
332	0.237
333	0.236
333	0.236
334	0.235
334	0.235
335	0.234
335	0.233
336	0.233
336	0.232
336	0.231
337	0.231
337	0.23
338	0.229
338	0.229
339	0.228
339	0.228
340	0.227
340	0.226
341	0.226
341	0.225
342	0.224
342	0.224
342	0.224
343	0.223
343	0.223
344	0.222
344	0.222
345	0.221
345	0.221
346	0.22
346	0.22
347	0.219
347	0.219
348	0.218
348	0.217
348	0.217
349	0.216
349	0.216
350	0.215
350	0.215
351	0.214
351	0.214
352	0.213
352	0.213
353	0.213
353	0.212
354	0.212
354	0.211
354	0.21
355	0.21
355	0.209
356	0.209
356	0.208
357	0.207
357	0.207
358	0.207
358	0.207
359	0.207
359	0.208
360	0.208
360	0.208
360	0.208
361	0.209
361	0.209
362	0.209
362	0.209
363	0.209
363	0.209
364	0.208
364	0.208
365	0.208
365	0.208
366	0.208
366	0.207
366	0.207
367	0.207
367	0.206
368	0.206
368	0.206
369	0.205
369	0.205
370	0.205
370	0.204
371	0.204
371	0.204
372	0.203
372	0.203
372	0.203
373	0.202
373	0.202
374	0.202
374	0.202
375	0.202
375	0.202
376	0.202
376	0.202
377	0.203
377	0.203
378	0.203
378	0.203
378	0.203
379	0.203
379	0.202
380	0.202
380	0.202
381	0.202
381	0.202
382	0.201
382	0.201
383	0.201
383	0.2
383	0.2
384	0.2
384	0.199
385	0.199
385	0.199
386	0.198
386	0.198
387	0.198
387	0.198
388	0.198
388	0.198
389	0.198
389	0.198
389	0.198
390	0.198
390	0.198
391	0.198
391	0.198
392	0.198
392	0.198
393	0.197
393	0.197
394	0.197
394	0.197
394	0.197
395	0.196
395	0.196
396	0.196
396	0.195
397	0.195
397	0.195
398	0.195
398	0.194
399	0.194
399	0.194
400	0.194
400	0.194
400	0.193
401	0.193
401	0.192
402	0.192
402	0.191
403	0.191
403	0.191
404	0.191
404	0.19
405	0.19
405	0.19
405	0.19
406	0.19
406	0.19
407	0.189
407	0.189
408	0.189
408	0.189
409	0.188
409	0.188
410	0.188
410	0.188
411	0.187
411	0.187
411	0.187
412	0.187
412	0.187
413	0.186
413	0.186
414	0.186
414	0.185
415	0.185
415	0.185
416	0.184
416	0.184
416	0.183
417	0.183
417	0.183
418	0.183
418	0.183
419	0.183
419	0.184
420	0.184
420	0.185
421	0.185
421	0.185
421	0.185
422	0.186
422	0.186
423	0.186
423	0.185
424	0.185
424	0.184
425	0.184
425	0.183
426	0.183
426	0.183
427	0.182
427	0.182
427	0.182
428	0.182
428	0.182
429	0.183
429	0.183
430	0.183
430	0.183
431	0.183
431	0.182
432	0.182
432	0.181
432	0.181
433	0.18
433	0.179
434	0.179
434	0.179
435	0.179
435	0.179
436	0.179
436	0.179
437	0.179
437	0.179
437	0.179
438	0.178
438	0.178
439	0.178
439	0.178
440	0.177
440	0.177
441	0.177
441	0.176
442	0.176
442	0.177
442	0.177
443	0.177
443	0.177
444	0.178
444	0.178
445	0.178
445	0.178
446	0.179
446	0.179
447	0.178
447	0.178
447	0.178
448	0.178
448	0.178
449	0.178
449	0.178
450	0.178
450	0.177
451	0.177
451	0.177
452	0.176
452	0.176
452	0.175
453	0.175
453	0.174
454	0.174
454	0.174
455	0.173
455	0.173
456	0.173
456	0.173
457	0.173
457	0.173
458	0.174
458	0.174
458	0.174
459	0.175
459	0.174
460	0.174
460	0.174
461	0.174
461	0.173
462	0.173
462	0.173
463	0.173
463	0.174
463	0.174
464	0.174
464	0.175
465	0.175
465	0.175
466	0.176
466	0.176
467	0.176
467	0.176
467	0.175
468	0.174
468	0.173
469	0.173
469	0.172
470	0.171
470	0.171
471	0.171
471	0.171
472	0.171
472	0.171
472	0.172
473	0.173
473	0.174
474	0.175
474	0.175
475	0.176
475	0.177
476	0.177
476	0.178
477	0.178
477	0.179
477	0.179
478	0.179
478	0.18
479	0.18
479	0.181
480	0.181
480	0.182
481	0.183
481	0.184
482	0.184
482	0.185
482	0.187
483	0.188
483	0.191
484	0.193
484	0.195
485	0.197
485	0.198
486	0.199
486	0.2
487	0.201
487	0.202
487	0.202
488	0.202
488	0.201
489	0.201
489	0.2
490	0.2
490	0.2
491	0.2
491	0.201
492	0.202
492	0.203
492	0.204
493	0.205
493	0.207
494	0.209
494	0.211
495	0.213
495	0.214
496	0.216
496	0.217
496	0.218
497	0.219
497	0.221
498	0.222
498	0.223
499	0.224
499	0.225
500	0.226
500	0.227
501	0.229
501	0.23
501	0.232
502	0.234
502	0.235
503	0.237
503	0.239
504	0.24
504	0.241
505	0.242
505	0.243
506	0.244
506	0.245
506	0.246
507	0.247
507	0.247
508	0.248
508	0.25
509	0.251
509	0.252
510	0.253
510	0.254
511	0.255
511	0.256
511	0.256
512	0.257
512	0.258
513	0.258
513	0.258
514	0.258
514	0.257
515	0.257
515	0.257
515	0.257
516	0.258
516	0.259
517	0.259
517	0.26
518	0.26
518	0.26
519	0.259
519	0.259
520	0.257
520	0.256
520	0.255
521	0.253
521	0.251
522	0.249
522	0.248
523	0.247
523	0.248
524	0.249
524	0.25
524	0.251
525	0.253
525	0.255
526	0.256
526	0.258
527	0.26
527	0.261
528	0.262
528	0.263
529	0.263
529	0.263
529	0.262
530	0.262
530	0.262
531	0.261
531	0.261
532	0.26
532	0.259
533	0.258
533	0.257
533	0.256
534	0.255
534	0.254
535	0.252
535	0.251
536	0.25
536	0.248
537	0.247
537	0.246
538	0.245
538	0.243
538	0.241
539	0.24
539	0.239
540	0.238
540	0.236
541	0.234
541	0.233
542	0.231
542	0.229
542	0.227
543	0.225
543	0.223
544	0.221
544	0.219
545	0.217
545	0.216
546	0.215
546	0.213
547	0.211
547	0.209
547	0.207
548	0.204
548	0.202
549	0.2
549	0.198
550	0.196
550	0.194
551	0.192
551	0.189
551	0.187
552	0.185
552	0.183
553	0.182
553	0.181
554	0.179
554	0.177
555	0.174
555	0.171
556	0.168
556	0.165
556	0.162
557	0.16
557	0.158
558	0.155
558	0.153
559	0.151
559	0.149
560	0.147
560	0.146
560	0.145
561	0.144
561	0.143
562	0.142
562	0.14
563	0.138
563	0.135
564	0.133
564	0.131
564	0.128
565	0.126
565	0.124
566	0.122
566	0.121
567	0.12
567	0.119
568	0.119
568	0.119
568	0.12
569	0.121
569	0.121
570	0.121
570	0.121
571	0.121
571	0.121
572	0.121
572	0.12
573	0.119
573	0.119
573	0.117
574	0.116
574	0.115
575	0.114
575	0.115
576	0.115
576	0.113
577	0.111
577	0.11
577	0.109
578	0.108
578	0.108
579	0.108
579	0.108
580	0.107
580	0.105
581	0.102
581	0.101
581	0.1
582	0.099
582	0.099
583	0.099
583	0.097
584	0.095
584	0.092
585	0.091
585	0.09
585	0.089
586	0.089
586	0.088
587	0.087
587	0.085
588	0.083
588	0.081
589	0.08
589	0.079
590	0.079
590	0.078
590	0.078
591	0.078
591	0.078
592	0.078
592	0.077
593	0.077
593	0.076
594	0.075
594	0.074
594	0.073
595	0.073
595	0.071
596	0.07
596	0.07
597	0.071
597	0.071
598	0.071
598	0.072
598	0.072
599	0.073
599	0.073
600	0.072
600	0.071
601	0.071
601	0.07
602	0.069
602	0.069
602	0.068
603	0.068
603	0.069
604	0.069
604	0.07
605	0.071
605	0.073
606	0.073
606	0.072
606	0.072
607	0.072
607	0.071
608	0.071
608	0.07
609	0.069
609	0.068
610	0.067
610	0.066
610	0.065
611	0.066
611	0.066
612	0.066
612	0.067
613	0.068
613	0.069
614	0.069
614	0.069
614	0.069
615	0.069
615	0.069
616	0.069
616	0.069
617	0.069
617	0.068
618	0.067
618	0.067
618	0.067
619	0.067
619	0.067
620	0.068
620	0.068
621	0.068
621	0.069
622	0.069
622	0.069
622	0.069
623	0.069
623	0.07
624	0.071
624	0.071
625	0.071
625	0.072
626	0.072
626	0.073
626	0.074
627	0.075
627	0.076
628	0.077
628	0.077
629	0.078
629	0.078
630	0.078
630	0.078
630	0.078
631	0.079
631	0.079
632	0.079
632	0.079
633	0.079
633	0.08
634	0.08
634	0.082
634	0.083
635	0.085
635	0.086
636	0.087
636	0.089
637	0.09
637	0.091
638	0.092
638	0.094
638	0.096
639	0.096
639	0.097
640	0.098
640	0.1
641	0.101
641	0.102
642	0.104
642	0.106
642	0.107
643	0.108
643	0.11
644	0.111
644	0.113
645	0.115
645	0.117
646	0.119
646	0.122
646	0.125
647	0.128
647	0.132
648	0.134
648	0.137
649	0.14
649	0.144
650	0.147
650	0.151
650	0.154
651	0.156
651	0.159
652	0.161
652	0.163
653	0.166
653	0.173
653	0.181
654	0.146
654	0.119
655	0.123
655	0.125
656	0.127
656	0.129
657	0.131
657	0.133
657	0.135
658	0.133
658	0.127
659	0.16
659	0.205
660	0.209
660	0.211
661	0.213
661	0.216
661	0.218
662	0.221
662	0.224
663	0.227
663	0.229
664	0.232
664	0.234
665	0.237
665	0.24
665	0.243
666	0.245
666	0.247
667	0.25
667	0.252
668	0.255
668	0.257
669	0.26
669	0.263
669	0.266
670	0.269
670	0.272
671	0.275
671	0.277
672	0.279
672	0.281
672	0.283
673	0.285
673	0.287
674	0.289
674	0.29
675	0.292
675	0.293
676	0.296
676	0.298
676	0.3
677	0.302
677	0.305
678	0.306
678	0.308
679	0.309
679	0.311
680	0.313
680	0.315
680	0.316
681	0.317
681	0.318
682	0.319
682	0.32
683	0.321
683	0.323
684	0.324
684	0.325
684	0.324
685	0.324
685	0.324
686	0.324
686	0.323
687	0.323
687	0.322
687	0.321
688	0.32
688	0.319
689	0.32
689	0.321
690	0.321
690	0.322
691	0.322
691	0.323
691	0.323
692	0.323
692	0.323
693	0.323
693	0.323
694	0.321
694	0.32
695	0.319
695	0.319
695	0.318
696	0.317
696	0.316
697	0.314
697	0.313
698	0.311
698	0.309
698	0.307
699	0.305
699	0.302
700	0.299
700	0.297
701	0.295
701	0.293
702	0.291
702	0.29
702	0.288
703	0.286
703	0.284
704	0.283
704	0.281
705	0.28
705	0.279
705	0.277
706	0.276
706	0.274
707	0.272
707	0.27
708	0.268
708	0.266
709	0.265
709	0.262
709	0.259
710	0.256
710	0.254
711	0.252
711	0.25
712	0.248
712	0.246
713	0.244
713	0.243
713	0.241
714	0.238
714	0.236
715	0.233
715	0.23
716	0.227
716	0.225
716	0.222
717	0.219
717	0.216
718	0.212
718	0.209
719	0.206
719	0.204
720	0.202
720	0.199
720	0.197
721	0.194
721	0.191
722	0.189
722	0.186
723	0.184
723	0.183
723	0.181
724	0.178
724	0.176
725	0.174
725	0.172
726	0.17
726	0.168
727	0.166
727	0.164
727	0.162
728	0.159
728	0.157
729	0.156
729	0.154
730	0.152
730	0.15
730	0.148
731	0.146
731	0.144
732	0.143
732	0.141
733	0.14
733	0.138
734	0.136
734	0.134
734	0.132
735	0.131
735	0.13
736	0.128
736	0.127
737	0.126
737	0.125
737	0.123
738	0.121
738	0.119
739	0.116
739	0.114
740	0.111
740	0.109
741	0.107
741	0.104
741	0.101
742	0.097
742	0.094
743	0.091
743	0.089
744	0.087
744	0.085
744	0.082
745	0.08
745	0.077
746	0.075
746	0.074
747	0.072
747	0.072
748	0.071
748	0.071
748	0.07
749	0.069
749	0.069
750	0.069
750	0.069
751	0.069
751	0.069
751	0.069
752	0.068
752	0.067
753	0.066
753	0.066
754	0.065
754	0.064
754	0.064
755	0.063
755	0.063
756	0.062
756	0.061
757	0.059
757	0.059
758	0.058
758	0.057
758	0.056
759	0.055
759	0.053
760	0.05
760	0.047
761	0.045
761	0.044
761	0.042
762	0.04
762	0.039
763	0.038
763	0.036
764	0.034
764	0.032
764	0.031
765	0.03
765	0.028
766	0.028
766	0.027
767	0.026
767	0.024
768	0.021
768	0.019
768	0.018
769	0.016
769	0.015
770	0.013
770	0.012
771	0.009
771	0.006
771	0.004
772	0.002
772	-0
773	-0.002
773	-0.004
774	-0.007
774	-0.009
775	-0.012
775	-0.014
775	-0.016
776	-0.018
776	-0.02
777	-0.022
777	-0.024
778	-0.027
778	-0.03
778	-0.032
779	-0.034
779	-0.036
780	-0.039
780	-0.043
781	-0.046
781	-0.051
781	-0.057
782	-0.063
782	-0.071
783	-0.078
783	-0.085
784	-0.092
784	-0.098
784	-0.104
785	-0.11
785	-0.116
786	-0.119
786	-0.119
787	-0.116
787	-0.113
788	-0.112
788	-0.113
788	-0.114
789	-0.116
789	-0.116
790	-0.113
790	-0.112
791	-0.113
791	-0.115
791	-0.117
792	-0.113
792	-0.102
793	-0.096
793	-0.092
794	-0.091
794	-0.093
794	-0.097
795	-0.099
795	-0.1
796	-0.1
796	-0.103
797	-0.112
797	-0.123
797	-0.129
798	-0.135
798	-0.138
799	-0.139
799	-0.138
800	-0.138
800	-0.139
801	-0.142
801	-0.143
801	-0.142
802	-0.143
802	-0.144
803	-0.145
803	-0.145
804	-0.144
804	-0.139
804	-0.132
805	-0.129
805	-0.127
806	-0.125
806	-0.124
807	-0.124
807	-0.124
807	-0.124
808	-0.124
808	-0.126
809	-0.13
809	-0.136
810	-0.14
810	-0.143
810	-0.146
811	-0.149
811	-0.15
812	-0.146
812	-0.142
813	-0.142
813	-0.143
813	-0.144
814	-0.146
814	-0.146
815	-0.144
815	-0.141
816	-0.139
816	-0.14
817	-0.145
817	-0.149
817	-0.149
818	-0.149
818	-0.145
819	-0.14
819	-0.137
820	-0.135
820	-0.133
820	-0.13
821	-0.124
821	-0.118
822	-0.111
822	-0.103
823	-0.094
823	-0.089
823	-0.085
824	-0.079
824	-0.072
825	-0.065
825	-0.058
826	-0.051
826	-0.047
826	-0.042
827	-0.038
827	-0.034
828	-0.031
828	-0.028
829	-0.025
829	-0.023
829	-0.022
830	-0.021
830	-0.02
831	-0.019
831	-0.017
832	-0.016
832	-0.015
832	-0.014
833	-0.013
833	-0.012
834	-0.01
834	-0.009
835	-0.007
835	-0.006
835	-0.005
836	-0.004
836	-0.002
837	-0.001
837	-0
838	0
838	0.001
839	0.001
839	0.001
839	0
840	-0
840	-0.001
841	-0.001
841	-0.002
842	-0.002
842	-0.002
842	-0.002
843	-0.001
843	-0.001
844	-0
844	0
845	0.001
845	0.002
845	0.003
846	0.004
846	0.004
847	0.004
847	0.005
848	0.006
848	0.006
848	0.007
849	0.008
849	0.008
850	0.008
850	0.008
851	0.009
851	0.009
851	0.01
852	0.01
852	0.01
853	0.01
853	0.009
854	0.009
854	0.01
854	0.01
855	0.01
855	0.009
856	0.009
856	0.009
857	0.009
857	0.009
857	0.009
858	0.009
858	0.009
859	0.008
859	0.008
860	0.008
860	0.008
860	0.009
861	0.009
861	0.01
862	0.01
862	0.01
863	0.011
863	0.012
863	0.013
864	0.014
864	0.015
865	0.017
865	0.018
866	0.019
866	0.02
866	0.021
867	0.022
867	0.022
868	0.022
868	0.022
869	0.022
869	0.021
869	0.02
870	0.02
870	0.019
871	0.018
871	0.018
872	0.017
872	0.017
872	0.017
873	0.016
873	0.016
874	0.015
874	0.014
875	0.013
875	0.013
875	0.012
876	0.011
876	0.011
877	0.01
877	0.009
878	0.009
878	0.009
878	0.009
879	0.009
879	0.009
880	0.01
880	0.01
881	0.01
881	0.011
881	0.011
882	0.011
882	0.012
883	0.012
883	0.013
884	0.013
884	0.013
884	0.014
885	0.014
885	0.014
886	0.015
886	0.015
887	0.015
887	0.015
887	0.015
888	0.015
888	0.015
889	0.015
889	0.015
890	0.014
890	0.014
890	0.013
891	0.013
891	0.012
892	0.012
892	0.012
893	0.012
893	0.012
893	0.012
894	0.013
894	0.013
895	0.012
895	0.012
895	0.012
896	0.011
896	0.011
897	0.01
897	0.01
898	0.009
898	0.008
898	0.008
899	0.007
899	0.007
900	0.007
900	0.007
901	0.007
901	0.007
901	0.007
902	0.008
902	0.009
903	0.009
903	0.01
904	0.011
904	0.011
904	0.012
905	0.012
905	0.013
906	0.013
906	0.013
907	0.012
907	0.012
907	0.012
908	0.012
908	0.012
909	0.013
909	0.013
910	0.014
910	0.014
910	0.014
911	0.015
911	0.015
912	0.015
912	0.015
913	0.015
913	0.014
913	0.014
914	0.013
914	0.012
915	0.012
915	0.011
916	0.011
916	0.01
916	0.01
917	0.01
917	0.009
918	0.009
918	0.009
918	0.009
919	0.01
919	0.01
920	0.011
920	0.011
921	0.012
921	0.013
921	0.014
922	0.014
922	0.015
923	0.016
923	0.016
924	0.017
924	0.017
924	0.018
925	0.018
925	0.018
926	0.018
926	0.018
927	0.018
927	0.018
927	0.018
928	0.018
928	0.018
929	0.018
929	0.018
930	0.017
930	0.017
930	0.016
931	0.016
931	0.015
932	0.015
932	0.014
933	0.013
933	0.012
933	0.011
934	0.011
934	0.01
935	0.009
935	0.009
935	0.008
936	0.007
936	0.007
937	0.007
937	0.006
938	0.007
938	0.007
938	0.007
939	0.008
939	0.009
940	0.011
940	0.012
941	0.013
941	0.014
941	0.016
942	0.017
942	0.017
943	0.018
943	0.019
944	0.019
944	0.019
944	0.019
945	0.02
945	0.02
946	0.02
946	0.02
946	0.021
947	0.021
947	0.021
948	0.021
948	0.021
949	0.021
949	0.021
949	0.021
950	0.02
950	0.02
951	0.02
951	0.019
952	0.019
952	0.019
952	0.019
953	0.018
953	0.018
954	0.018
954	0.018
955	0.018
955	0.019
955	0.019
956	0.019
956	0.02
957	0.02
957	0.02
957	0.02
958	0.02
958	0.021
959	0.021
959	0.022
960	0.022
960	0.022
960	0.022
961	0.022
961	0.023
962	0.023
962	0.024
963	0.024
963	0.025
963	0.025
964	0.025
964	0.026
965	0.026
965	0.027
966	0.027
966	0.027
966	0.027
967	0.027
967	0.027
968	0.026
968	0.025
968	0.025
969	0.024
969	0.023
970	0.023
970	0.022
971	0.021
971	0.021
971	0.02
972	0.02
972	0.02
973	0.019
973	0.019
974	0.019
974	0.019
974	0.019
975	0.019
975	0.019
976	0.019
976	0.019
976	0.019
977	0.019
977	0.02
978	0.02
978	0.019
979	0.019
979	0.019
979	0.019
980	0.019
980	0.018
981	0.017
981	0.017
982	0.017
982	0.016
982	0.016
983	0.015
983	0.015
984	0.014
984	0.013
984	0.013
985	0.012
985	0.011
986	0.01
986	0.01
987	0.009
987	0.009
987	0.009
988	0.009
988	0.009
989	0.009
989	0.01
990	0.01
990	0.011
990	0.012
991	0.013
991	0.014
992	0.015
992	0.016
992	0.017
993	0.017
993	0.017
994	0.017
994	0.017
995	0.017
995	0.016
995	0.016
996	0.015
996	0.014
997	0.013
997	0.012
997	0.012
998	0.012
998	0.012
999	0.012
999	0.011
1000	0.012
1000	0.012
1000	0.012
1001	0.013
1001	0.013
1002	0.014
1002	0.014
1003	0.014
1003	0.015
1003	0.015
1004	0.016
1004	0.016
1005	0.016
1005	0.017
1005	0.017
1006	0.017
1006	0.017
1007	0.017
1007	0.017
1008	0.018
1008	0.018
1008	0.018
1009	0.018
1009	0.018
1010	0.018
1010	0.019
1010	0.019
1011	0.019
1011	0.02
1012	0.02
1012	0.02
1013	0.02
1013	0.02
1013	0.02
1014	0.02
1014	0.019
1015	0.019
1015	0.019
1016	0.018
1016	0.017
1016	0.017
1017	0.016
1017	0.015
1018	0.015
1018	0.014
1018	0.013
1019	0.012
1019	0.011
1020	0.011
1020	0.01
1021	0.009
1021	0.009
1021	0.008
1022	0.008
1022	0.008
1023	0.008
1023	0.008
1023	0.008
1024	0.008
1024	0.008
1025	0.008
1025	0.008
1026	0.008
1026	0.008
1026	0.007
1027	0.007
1027	0.007
1028	0.007
1028	0.008
1028	0.008
1029	0.008
1029	0.008
1030	0.008
1030	0.008
1031	0.008
1031	0.008
1031	0.008
1032	0.008
1032	0.008
1033	0.008
1033	0.008
1033	0.008
1034	0.008
1034	0.008
1035	0.007
1035	0.007
1036	0.008
1036	0.008
1036	0.008
1037	0.009
1037	0.01
1038	0.01
1038	0.011
1039	0.012
1039	0.013
1039	0.014
1040	0.014
1040	0.015
1041	0.016
1041	0.016
1041	0.017
1042	0.017
1042	0.017
1043	0.017
1043	0.017
1044	0.017
1044	0.017
1044	0.018
1045	0.018
1045	0.017
1046	0.017
1046	0.017
1046	0.017
1047	0.017
1047	0.017
1048	0.017
1048	0.017
1049	0.016
1049	0.016
1049	0.015
1050	0.014
1050	0.014
1051	0.013
1051	0.013
1051	0.013
1052	0.013
1052	0.013
1053	0.013
1053	0.014
1053	0.014
1054	0.014
1054	0.015
1055	0.015
1055	0.016
1056	0.016
1056	0.016
1056	0.016
1057	0.016
1057	0.015
1058	0.016
1058	0.016
1058	0.017
1059	0.017
1059	0.017
1060	0.017
1060	0.018
1061	0.018
1061	0.019
1061	0.019
1062	0.019
1062	0.019
1063	0.018
1063	0.018
1063	0.018
1064	0.018
1064	0.018
1065	0.018
1065	0.018
1066	0.018
1066	0.018
1066	0.018
1067	0.019
1067	0.019
1068	0.019
1068	0.019
1068	0.019
1069	0.018
1069	0.017
1070	0.017
1070	0.016
1071	0.016
1071	0.015
1071	0.015
1072	0.014
1072	0.014
1073	0.014
1073	0.014
1073	0.014
1074	0.015
1074	0.016
1075	0.015
1075	0.015
1076	0.016
1076	0.016
1076	0.016
1077	0.017
1077	0.018
1078	0.018
1078	0.019
1078	0.021
1079	0.021
1079	0.023
1080	0.024
1080	0.025
1080	0.026
1081	0.027
1081	0.029
1082	0.03
1082	0.031
1083	0.032
1083	0.033
1083	0.034
1084	0.036
1084	0.037
1085	0.039
1085	0.04
1085	0.041
1086	0.043
1086	0.044
1087	0.046
1087	0.048
1088	0.049
1088	0.051
1088	0.052
1089	0.053
1089	0.055
1090	0.056
1090	0.059
1090	0.06
1091	0.062
1091	0.065
1092	0.067
1092	0.07
1092	0.073
1093	0.075
1093	0.078
1094	0.082
1094	0.085
1095	0.087
1095	0.091
1095	0.097
1096	0.101
1096	0.105
1097	0.111
1097	0.117
1097	0.125
1098	0.133
1098	0.14
1099	0.148
1099	0.158
1100	0.167
1100	0.177
1100	0.189
1101	0.201
1101	0.214
1102	0.229
1102	0.244
1102	0.261
1103	0.28
1103	0.303
1104	0.328
1104	0.354
1104	0.387
1105	0.42
1105	0.457
1106	0.498
1106	0.55
1107	0.615
1107	0.717
1107	0.879
1108	-0
1108	-0
1109	-0
1109	-0
1109	-0
1110	-0
1110	-0
1111	-0
1111	-0
