Data from 17c-2-2a_Absorbance__1432__03868.txt Node

Date: Fri Jan 26 15:12:37 CET 2024
User: Marek
Spectrometer: MAYP115816
Trigger mode: 0
Integration Time (sec): 2.000000E-1
Scans to average: 10
Electric dark correction enabled: true
Nonlinearity correction enabled: true
Boxcar width: 5
XAxis mode: Wavelengths
Number of Pixels in Spectrum: 2068
>>>>>Begin Spectral Data<<<<<
199	-1.839
199	-1.693
200	-1.539
200	-1.423
201	-1.349
201	-1.302
202	-1.231
202	-1.173
203	-1.124
203	-1.082
204	-1.055
204	-1.03
205	-1.009
205	-0.999
205	-0.996
206	-0.991
206	-0.986
207	-0.983
207	-0.982
208	-0.98
208	-0.978
209	-0.975
209	-0.971
210	-0.971
210	-0.971
211	-0.972
211	-0.973
212	-0.973
212	-0.972
213	-0.97
213	-0.966
213	-0.965
214	-0.963
214	-0.961
215	-0.956
215	-0.953
216	-0.949
216	-0.948
217	-0.945
217	-0.942
218	-0.939
218	-0.937
219	-0.933
219	-0.932
220	-0.93
220	-0.93
221	-0.927
221	-0.925
221	-0.92
222	-0.914
222	-0.91
223	-0.906
223	-0.901
224	-0.896
224	-0.888
225	-0.881
225	-0.873
226	-0.864
226	-0.851
227	-0.841
227	-0.829
228	-0.812
228	-0.794
229	-0.773
229	-0.75
229	-0.725
230	-0.696
230	-0.664
231	-0.631
231	-0.594
232	-0.555
232	-0.513
233	-0.47
233	-0.425
234	-0.379
234	-0.335
235	-0.289
235	-0.245
236	-0.202
236	-0.16
236	-0.119
237	-0.081
237	-0.045
238	-0.011
238	0.02
239	0.05
239	0.077
240	0.102
240	0.126
241	0.147
241	0.167
242	0.184
242	0.201
243	0.216
243	0.229
243	0.241
244	0.252
244	0.262
245	0.271
245	0.28
246	0.288
246	0.295
247	0.302
247	0.308
248	0.314
248	0.32
249	0.325
249	0.329
250	0.334
250	0.338
250	0.343
251	0.346
251	0.35
252	0.354
252	0.357
253	0.361
253	0.363
254	0.366
254	0.369
255	0.371
255	0.374
256	0.376
256	0.377
257	0.379
257	0.381
258	0.382
258	0.383
258	0.384
259	0.385
259	0.386
260	0.386
260	0.387
261	0.387
261	0.388
262	0.388
262	0.388
263	0.388
263	0.388
264	0.388
264	0.388
265	0.388
265	0.387
265	0.387
266	0.386
266	0.385
267	0.384
267	0.383
268	0.382
268	0.381
269	0.38
269	0.378
270	0.377
270	0.376
271	0.374
271	0.373
272	0.371
272	0.37
272	0.368
273	0.366
273	0.364
274	0.362
274	0.361
275	0.359
275	0.357
276	0.355
276	0.353
277	0.351
277	0.348
278	0.346
278	0.344
278	0.342
279	0.339
279	0.337
280	0.335
280	0.333
281	0.331
281	0.329
282	0.328
282	0.326
283	0.325
283	0.323
284	0.322
284	0.32
285	0.319
285	0.317
285	0.315
286	0.313
286	0.312
287	0.31
287	0.309
288	0.307
288	0.305
289	0.304
289	0.302
290	0.301
290	0.3
291	0.299
291	0.297
292	0.296
292	0.295
292	0.294
293	0.292
293	0.291
294	0.29
294	0.289
295	0.288
295	0.287
296	0.286
296	0.285
297	0.284
297	0.283
298	0.282
298	0.281
298	0.281
299	0.28
299	0.279
300	0.278
300	0.277
301	0.276
301	0.275
302	0.275
302	0.274
303	0.273
303	0.272
304	0.271
304	0.271
305	0.27
305	0.269
305	0.269
306	0.268
306	0.267
307	0.266
307	0.266
308	0.265
308	0.264
309	0.263
309	0.263
310	0.262
310	0.261
311	0.26
311	0.26
311	0.259
312	0.258
312	0.258
313	0.257
313	0.256
314	0.255
314	0.255
315	0.254
315	0.253
316	0.252
316	0.252
317	0.251
317	0.25
318	0.249
318	0.249
318	0.248
319	0.247
319	0.247
320	0.246
320	0.245
321	0.244
321	0.243
322	0.242
322	0.242
323	0.241
323	0.24
324	0.239
324	0.238
324	0.237
325	0.237
325	0.236
326	0.235
326	0.235
327	0.234
327	0.233
328	0.233
328	0.232
329	0.231
329	0.231
330	0.23
330	0.229
330	0.229
331	0.228
331	0.228
332	0.227
332	0.226
333	0.226
333	0.225
334	0.224
334	0.224
335	0.223
335	0.222
336	0.222
336	0.221
336	0.221
337	0.22
337	0.219
338	0.219
338	0.218
339	0.218
339	0.217
340	0.216
340	0.216
341	0.215
341	0.215
342	0.214
342	0.214
342	0.213
343	0.212
343	0.212
344	0.211
344	0.211
345	0.211
345	0.21
346	0.21
346	0.209
347	0.209
347	0.208
348	0.208
348	0.207
348	0.207
349	0.206
349	0.205
350	0.205
350	0.204
351	0.204
351	0.203
352	0.203
352	0.202
353	0.202
353	0.202
354	0.201
354	0.201
354	0.2
355	0.2
355	0.199
356	0.199
356	0.198
357	0.198
357	0.198
358	0.197
358	0.197
359	0.197
359	0.198
360	0.198
360	0.198
360	0.198
361	0.198
361	0.199
362	0.199
362	0.199
363	0.199
363	0.198
364	0.198
364	0.198
365	0.198
365	0.198
366	0.198
366	0.197
366	0.197
367	0.197
367	0.197
368	0.197
368	0.196
369	0.196
369	0.196
370	0.195
370	0.195
371	0.194
371	0.194
372	0.193
372	0.193
372	0.193
373	0.193
373	0.192
374	0.192
374	0.192
375	0.192
375	0.192
376	0.192
376	0.192
377	0.192
377	0.193
378	0.193
378	0.193
378	0.193
379	0.193
379	0.193
380	0.193
380	0.192
381	0.192
381	0.192
382	0.192
382	0.191
383	0.191
383	0.19
383	0.19
384	0.19
384	0.189
385	0.189
385	0.189
386	0.189
386	0.189
387	0.189
387	0.188
388	0.188
388	0.188
389	0.188
389	0.188
389	0.188
390	0.188
390	0.188
391	0.188
391	0.188
392	0.188
392	0.188
393	0.188
393	0.188
394	0.188
394	0.187
394	0.187
395	0.187
395	0.186
396	0.186
396	0.186
397	0.186
397	0.185
398	0.185
398	0.185
399	0.185
399	0.185
400	0.184
400	0.184
400	0.184
401	0.183
401	0.182
402	0.182
402	0.181
403	0.181
403	0.181
404	0.18
404	0.18
405	0.18
405	0.18
405	0.18
406	0.179
406	0.179
407	0.179
407	0.179
408	0.179
408	0.179
409	0.179
409	0.178
410	0.178
410	0.178
411	0.178
411	0.178
411	0.178
412	0.178
412	0.177
413	0.177
413	0.177
414	0.177
414	0.177
415	0.176
415	0.175
416	0.175
416	0.175
416	0.174
417	0.174
417	0.174
418	0.174
418	0.174
419	0.174
419	0.174
420	0.175
420	0.175
421	0.175
421	0.176
421	0.176
422	0.176
422	0.176
423	0.176
423	0.176
424	0.175
424	0.174
425	0.174
425	0.173
426	0.173
426	0.173
427	0.172
427	0.172
427	0.172
428	0.173
428	0.173
429	0.173
429	0.173
430	0.173
430	0.173
431	0.173
431	0.173
432	0.172
432	0.172
432	0.171
433	0.17
433	0.17
434	0.17
434	0.169
435	0.169
435	0.169
436	0.169
436	0.17
437	0.17
437	0.17
437	0.17
438	0.17
438	0.17
439	0.169
439	0.169
440	0.168
440	0.168
441	0.168
441	0.168
442	0.168
442	0.168
442	0.168
443	0.168
443	0.169
444	0.169
444	0.169
445	0.169
445	0.169
446	0.169
446	0.169
447	0.169
447	0.169
447	0.169
448	0.169
448	0.169
449	0.169
449	0.168
450	0.168
450	0.168
451	0.168
451	0.168
452	0.168
452	0.167
452	0.167
453	0.167
453	0.166
454	0.166
454	0.165
455	0.165
455	0.165
456	0.165
456	0.165
457	0.165
457	0.165
458	0.165
458	0.165
458	0.165
459	0.165
459	0.165
460	0.165
460	0.164
461	0.164
461	0.164
462	0.164
462	0.165
463	0.165
463	0.165
463	0.166
464	0.166
464	0.166
465	0.166
465	0.166
466	0.167
466	0.166
467	0.166
467	0.166
467	0.166
468	0.165
468	0.164
469	0.163
469	0.162
470	0.162
470	0.162
471	0.161
471	0.161
472	0.161
472	0.162
472	0.162
473	0.163
473	0.164
474	0.165
474	0.166
475	0.167
475	0.167
476	0.168
476	0.168
477	0.169
477	0.169
477	0.17
478	0.17
478	0.17
479	0.171
479	0.171
480	0.172
480	0.172
481	0.173
481	0.174
482	0.175
482	0.176
482	0.177
483	0.18
483	0.182
484	0.184
484	0.186
485	0.187
485	0.188
486	0.189
486	0.19
487	0.191
487	0.191
487	0.191
488	0.191
488	0.19
489	0.189
489	0.189
490	0.188
490	0.188
491	0.189
491	0.19
492	0.191
492	0.192
492	0.193
493	0.194
493	0.195
494	0.197
494	0.199
495	0.201
495	0.202
496	0.204
496	0.205
496	0.206
497	0.207
497	0.208
498	0.209
498	0.21
499	0.211
499	0.212
500	0.213
500	0.214
501	0.216
501	0.217
501	0.219
502	0.22
502	0.222
503	0.223
503	0.225
504	0.226
504	0.227
505	0.228
505	0.229
506	0.23
506	0.231
506	0.232
507	0.233
507	0.234
508	0.235
508	0.236
509	0.237
509	0.238
510	0.239
510	0.24
511	0.24
511	0.241
511	0.241
512	0.242
512	0.243
513	0.243
513	0.243
514	0.242
514	0.242
515	0.243
515	0.242
515	0.243
516	0.243
516	0.244
517	0.245
517	0.245
518	0.245
518	0.246
519	0.245
519	0.245
520	0.244
520	0.243
520	0.241
521	0.239
521	0.238
522	0.236
522	0.235
523	0.234
523	0.234
524	0.235
524	0.236
524	0.237
525	0.239
525	0.24
526	0.242
526	0.243
527	0.245
527	0.246
528	0.247
528	0.247
529	0.247
529	0.247
529	0.246
530	0.246
530	0.246
531	0.245
531	0.245
532	0.244
532	0.243
533	0.243
533	0.242
533	0.242
534	0.241
534	0.24
535	0.239
535	0.238
536	0.236
536	0.235
537	0.234
537	0.233
538	0.232
538	0.23
538	0.229
539	0.227
539	0.226
540	0.225
540	0.223
541	0.221
541	0.219
542	0.218
542	0.216
542	0.214
543	0.212
543	0.21
544	0.208
544	0.206
545	0.205
545	0.204
546	0.203
546	0.201
547	0.2
547	0.197
547	0.195
548	0.193
548	0.191
549	0.189
549	0.187
550	0.185
550	0.183
551	0.18
551	0.178
551	0.176
552	0.174
552	0.173
553	0.171
553	0.17
554	0.168
554	0.166
555	0.164
555	0.161
556	0.159
556	0.156
556	0.153
557	0.15
557	0.148
558	0.146
558	0.144
559	0.142
559	0.14
560	0.138
560	0.137
560	0.136
561	0.136
561	0.135
562	0.134
562	0.133
563	0.131
563	0.128
564	0.126
564	0.124
564	0.122
565	0.12
565	0.119
566	0.117
566	0.115
567	0.114
567	0.114
568	0.114
568	0.114
568	0.114
569	0.115
569	0.116
570	0.116
570	0.115
571	0.115
571	0.115
572	0.114
572	0.114
573	0.113
573	0.112
573	0.11
574	0.109
574	0.108
575	0.107
575	0.107
576	0.107
576	0.106
577	0.104
577	0.103
577	0.102
578	0.101
578	0.101
579	0.101
579	0.102
580	0.1
580	0.098
581	0.096
581	0.094
581	0.094
582	0.093
582	0.093
583	0.093
583	0.092
584	0.089
584	0.087
585	0.085
585	0.085
585	0.084
586	0.084
586	0.083
587	0.082
587	0.08
588	0.078
588	0.077
589	0.076
589	0.075
590	0.074
590	0.073
590	0.074
591	0.074
591	0.073
592	0.073
592	0.072
593	0.072
593	0.072
594	0.071
594	0.07
594	0.07
595	0.069
595	0.068
596	0.067
596	0.067
597	0.069
597	0.07
598	0.07
598	0.071
598	0.071
599	0.072
599	0.072
600	0.071
600	0.07
601	0.07
601	0.069
602	0.067
602	0.067
602	0.066
603	0.065
603	0.066
604	0.067
604	0.067
605	0.068
605	0.069
606	0.07
606	0.069
606	0.069
607	0.068
607	0.068
608	0.067
608	0.065
609	0.064
609	0.063
610	0.062
610	0.061
610	0.06
611	0.06
611	0.061
612	0.061
612	0.062
613	0.064
613	0.065
614	0.065
614	0.066
614	0.066
615	0.066
615	0.067
616	0.067
616	0.067
617	0.067
617	0.066
618	0.065
618	0.064
618	0.064
619	0.063
619	0.063
620	0.064
620	0.065
621	0.065
621	0.065
622	0.065
622	0.066
622	0.066
623	0.066
623	0.067
624	0.068
624	0.068
625	0.068
625	0.068
626	0.069
626	0.069
626	0.07
627	0.07
627	0.071
628	0.072
628	0.072
629	0.073
629	0.073
630	0.072
630	0.072
630	0.072
631	0.073
631	0.073
632	0.073
632	0.073
633	0.073
633	0.074
634	0.075
634	0.077
634	0.079
635	0.081
635	0.082
636	0.083
636	0.084
637	0.085
637	0.086
638	0.087
638	0.089
638	0.09
639	0.09
639	0.09
640	0.091
640	0.093
641	0.094
641	0.096
642	0.098
642	0.1
642	0.102
643	0.104
643	0.105
644	0.107
644	0.109
645	0.11
645	0.112
646	0.114
646	0.117
646	0.12
647	0.123
647	0.126
648	0.128
648	0.131
649	0.134
649	0.137
650	0.14
650	0.144
650	0.146
651	0.149
651	0.151
652	0.153
652	0.155
653	0.158
653	0.165
653	0.174
654	0.14
654	0.115
655	0.118
655	0.12
656	0.121
656	0.123
657	0.125
657	0.127
657	0.128
658	0.126
658	0.119
659	0.15
659	0.191
660	0.197
660	0.199
661	0.201
661	0.204
661	0.206
662	0.209
662	0.212
663	0.215
663	0.218
664	0.22
664	0.222
665	0.225
665	0.227
665	0.23
666	0.232
666	0.234
667	0.237
667	0.239
668	0.241
668	0.244
669	0.247
669	0.25
669	0.254
670	0.258
670	0.26
671	0.263
671	0.265
672	0.267
672	0.268
672	0.27
673	0.272
673	0.273
674	0.275
674	0.276
675	0.276
675	0.278
676	0.28
676	0.282
676	0.284
677	0.286
677	0.288
678	0.289
678	0.29
679	0.291
679	0.292
680	0.294
680	0.296
680	0.296
681	0.297
681	0.298
682	0.299
682	0.301
683	0.303
683	0.305
684	0.306
684	0.307
684	0.307
685	0.307
685	0.307
686	0.307
686	0.307
687	0.306
687	0.306
687	0.305
688	0.305
688	0.304
689	0.305
689	0.306
690	0.306
690	0.307
691	0.307
691	0.307
691	0.308
692	0.307
692	0.307
693	0.307
693	0.307
694	0.306
694	0.304
695	0.303
695	0.304
695	0.303
696	0.302
696	0.301
697	0.3
697	0.298
698	0.297
698	0.295
698	0.293
699	0.292
699	0.289
700	0.286
700	0.284
701	0.283
701	0.281
702	0.279
702	0.278
702	0.276
703	0.274
703	0.272
704	0.27
704	0.269
705	0.267
705	0.266
705	0.264
706	0.262
706	0.261
707	0.259
707	0.257
708	0.255
708	0.254
709	0.252
709	0.25
709	0.248
710	0.245
710	0.243
711	0.241
711	0.239
712	0.237
712	0.235
713	0.234
713	0.232
713	0.23
714	0.227
714	0.224
715	0.221
715	0.219
716	0.215
716	0.213
716	0.209
717	0.207
717	0.204
718	0.201
718	0.198
719	0.196
719	0.195
720	0.193
720	0.19
720	0.188
721	0.186
721	0.183
722	0.181
722	0.178
723	0.176
723	0.174
723	0.172
724	0.17
724	0.167
725	0.165
725	0.163
726	0.162
726	0.16
727	0.158
727	0.157
727	0.155
728	0.153
728	0.152
729	0.151
729	0.149
730	0.147
730	0.145
730	0.143
731	0.141
731	0.14
732	0.138
732	0.137
733	0.135
733	0.133
734	0.131
734	0.128
734	0.127
735	0.126
735	0.125
736	0.123
736	0.122
737	0.12
737	0.119
737	0.117
738	0.114
738	0.112
739	0.109
739	0.107
740	0.104
740	0.101
741	0.099
741	0.097
741	0.094
742	0.09
742	0.087
743	0.084
743	0.082
744	0.08
744	0.078
744	0.075
745	0.073
745	0.071
746	0.069
746	0.068
747	0.068
747	0.067
748	0.067
748	0.067
748	0.067
749	0.066
749	0.065
750	0.065
750	0.064
751	0.064
751	0.064
751	0.064
752	0.063
752	0.062
753	0.061
753	0.06
754	0.06
754	0.059
754	0.06
755	0.06
755	0.06
756	0.06
756	0.058
757	0.057
757	0.057
758	0.056
758	0.056
758	0.055
759	0.054
759	0.052
760	0.049
760	0.047
761	0.045
761	0.044
761	0.042
762	0.04
762	0.039
763	0.038
763	0.035
764	0.033
764	0.031
764	0.029
765	0.027
765	0.025
766	0.024
766	0.023
767	0.022
767	0.02
768	0.017
768	0.015
768	0.014
769	0.014
769	0.013
770	0.012
770	0.01
771	0.008
771	0.005
771	0.002
772	0
772	-0.002
773	-0.004
773	-0.007
774	-0.01
774	-0.013
775	-0.015
775	-0.018
775	-0.02
776	-0.022
776	-0.023
777	-0.025
777	-0.027
778	-0.029
778	-0.032
778	-0.035
779	-0.037
779	-0.039
780	-0.042
780	-0.045
781	-0.049
781	-0.053
781	-0.059
782	-0.065
782	-0.073
783	-0.079
783	-0.086
784	-0.092
784	-0.098
784	-0.104
785	-0.11
785	-0.116
786	-0.119
786	-0.119
787	-0.115
787	-0.113
788	-0.112
788	-0.113
788	-0.114
789	-0.116
789	-0.116
790	-0.113
790	-0.112
791	-0.113
791	-0.115
791	-0.118
792	-0.113
792	-0.102
793	-0.096
793	-0.092
794	-0.091
794	-0.093
794	-0.097
795	-0.1
795	-0.1
796	-0.1
796	-0.103
797	-0.112
797	-0.123
797	-0.13
798	-0.135
798	-0.138
799	-0.139
799	-0.138
800	-0.138
800	-0.139
801	-0.142
801	-0.143
801	-0.142
802	-0.143
802	-0.144
803	-0.145
803	-0.145
804	-0.144
804	-0.139
804	-0.132
805	-0.129
805	-0.127
806	-0.125
806	-0.124
807	-0.124
807	-0.124
807	-0.124
808	-0.124
808	-0.126
809	-0.13
809	-0.136
810	-0.14
810	-0.143
810	-0.146
811	-0.149
811	-0.15
812	-0.146
812	-0.142
813	-0.142
813	-0.143
813	-0.145
814	-0.146
814	-0.146
815	-0.144
815	-0.141
816	-0.14
816	-0.14
817	-0.145
817	-0.149
817	-0.149
818	-0.149
818	-0.145
819	-0.14
819	-0.137
820	-0.135
820	-0.133
820	-0.129
821	-0.124
821	-0.117
822	-0.11
822	-0.102
823	-0.093
823	-0.087
823	-0.083
824	-0.077
824	-0.07
825	-0.063
825	-0.056
826	-0.049
826	-0.044
826	-0.04
827	-0.036
827	-0.032
828	-0.029
828	-0.026
829	-0.023
829	-0.021
829	-0.02
830	-0.019
830	-0.018
831	-0.016
831	-0.015
832	-0.014
832	-0.013
832	-0.012
833	-0.011
833	-0.01
834	-0.009
834	-0.008
835	-0.007
835	-0.007
835	-0.007
836	-0.006
836	-0.006
837	-0.005
837	-0.004
838	-0.004
838	-0.003
839	-0.003
839	-0.003
839	-0.003
840	-0.003
840	-0.003
841	-0.003
841	-0.003
842	-0.003
842	-0.003
842	-0.003
843	-0.003
843	-0.003
844	-0.002
844	-0.002
845	-0.001
845	-0
845	0.001
846	0.001
846	0.001
847	0.002
847	0.003
848	0.003
848	0.004
848	0.005
849	0.006
849	0.007
850	0.008
850	0.008
851	0.009
851	0.01
851	0.011
852	0.011
852	0.011
853	0.011
853	0.011
854	0.012
854	0.012
854	0.013
855	0.013
855	0.013
856	0.013
856	0.013
857	0.013
857	0.013
857	0.013
858	0.013
858	0.012
859	0.012
859	0.011
860	0.011
860	0.011
860	0.011
861	0.01
861	0.011
862	0.01
862	0.011
863	0.011
863	0.012
863	0.012
864	0.013
864	0.014
865	0.015
865	0.016
866	0.017
866	0.018
866	0.02
867	0.021
867	0.021
868	0.022
868	0.022
869	0.022
869	0.022
869	0.021
870	0.02
870	0.019
871	0.018
871	0.017
872	0.016
872	0.016
872	0.016
873	0.015
873	0.015
874	0.015
874	0.014
875	0.014
875	0.014
875	0.013
876	0.013
876	0.012
877	0.011
877	0.011
878	0.01
878	0.009
878	0.009
879	0.009
879	0.008
880	0.008
880	0.008
881	0.008
881	0.008
881	0.008
882	0.008
882	0.009
883	0.009
883	0.01
884	0.01
884	0.01
884	0.01
885	0.011
885	0.011
886	0.011
886	0.011
887	0.01
887	0.009
887	0.009
888	0.008
888	0.008
889	0.007
889	0.007
890	0.007
890	0.007
890	0.006
891	0.006
891	0.007
892	0.007
892	0.008
893	0.008
893	0.009
893	0.009
894	0.01
894	0.01
895	0.011
895	0.011
895	0.011
896	0.011
896	0.011
897	0.011
897	0.011
898	0.01
898	0.011
898	0.011
899	0.011
899	0.011
900	0.011
900	0.012
901	0.012
901	0.013
901	0.014
902	0.015
902	0.015
903	0.016
903	0.016
904	0.016
904	0.017
904	0.017
905	0.017
905	0.017
906	0.017
906	0.017
907	0.016
907	0.016
907	0.016
908	0.016
908	0.016
909	0.016
909	0.017
910	0.017
910	0.017
910	0.018
911	0.018
911	0.019
912	0.019
912	0.02
913	0.02
913	0.02
913	0.02
914	0.021
914	0.021
915	0.021
915	0.021
916	0.02
916	0.02
916	0.019
917	0.018
917	0.016
918	0.015
918	0.013
918	0.012
919	0.011
919	0.01
920	0.009
920	0.008
921	0.008
921	0.008
921	0.007
922	0.008
922	0.008
923	0.008
923	0.008
924	0.008
924	0.008
924	0.009
925	0.009
925	0.009
926	0.009
926	0.009
927	0.008
927	0.008
927	0.008
928	0.007
928	0.007
929	0.006
929	0.006
930	0.006
930	0.005
930	0.005
931	0.005
931	0.005
932	0.004
932	0.004
933	0.004
933	0.004
933	0.004
934	0.003
934	0.003
935	0.003
935	0.003
935	0.003
936	0.003
936	0.004
937	0.004
937	0.004
938	0.005
938	0.006
938	0.007
939	0.009
939	0.01
940	0.011
940	0.013
941	0.014
941	0.016
941	0.017
942	0.019
942	0.02
943	0.02
943	0.021
944	0.021
944	0.022
944	0.022
945	0.021
945	0.021
946	0.021
946	0.02
946	0.02
947	0.02
947	0.02
948	0.02
948	0.02
949	0.02
949	0.02
949	0.021
950	0.021
950	0.022
951	0.022
951	0.022
952	0.021
952	0.021
952	0.02
953	0.02
953	0.019
954	0.018
954	0.017
955	0.017
955	0.017
955	0.016
956	0.017
956	0.017
957	0.017
957	0.017
957	0.017
958	0.018
958	0.018
959	0.019
959	0.019
960	0.019
960	0.019
960	0.019
961	0.019
961	0.019
962	0.02
962	0.02
963	0.021
963	0.021
963	0.021
964	0.021
964	0.022
965	0.022
965	0.022
966	0.022
966	0.021
966	0.02
967	0.02
967	0.019
968	0.018
968	0.017
968	0.016
969	0.015
969	0.015
970	0.014
970	0.014
971	0.014
971	0.014
971	0.014
972	0.014
972	0.014
973	0.014
973	0.014
974	0.014
974	0.014
974	0.014
975	0.015
975	0.015
976	0.016
976	0.017
976	0.018
977	0.019
977	0.02
978	0.02
978	0.021
979	0.021
979	0.021
979	0.021
980	0.021
980	0.02
981	0.02
981	0.019
982	0.018
982	0.018
982	0.017
983	0.016
983	0.015
984	0.014
984	0.013
984	0.012
985	0.011
985	0.01
986	0.009
986	0.009
987	0.008
987	0.008
987	0.008
988	0.008
988	0.008
989	0.007
989	0.007
990	0.008
990	0.008
990	0.008
991	0.009
991	0.009
992	0.01
992	0.01
992	0.01
993	0.01
993	0.01
994	0.01
994	0.01
995	0.01
995	0.01
995	0.01
996	0.009
996	0.009
997	0.008
997	0.008
997	0.008
998	0.008
998	0.008
999	0.009
999	0.009
1000	0.009
1000	0.01
1000	0.011
1001	0.012
1001	0.013
1002	0.014
1002	0.015
1003	0.016
1003	0.016
1003	0.017
1004	0.018
1004	0.018
1005	0.018
1005	0.018
1005	0.018
1006	0.018
1006	0.018
1007	0.018
1007	0.018
1008	0.018
1008	0.018
1008	0.018
1009	0.018
1009	0.018
1010	0.018
1010	0.018
1010	0.018
1011	0.018
1011	0.018
1012	0.018
1012	0.017
1013	0.017
1013	0.016
1013	0.016
1014	0.014
1014	0.014
1015	0.013
1015	0.012
1016	0.011
1016	0.01
1016	0.01
1017	0.009
1017	0.008
1018	0.008
1018	0.008
1018	0.008
1019	0.008
1019	0.008
1020	0.008
1020	0.008
1021	0.008
1021	0.008
1021	0.008
1022	0.008
1022	0.008
1023	0.008
1023	0.008
1023	0.008
1024	0.007
1024	0.007
1025	0.007
1025	0.007
1026	0.007
1026	0.007
1026	0.007
1027	0.007
1027	0.007
1028	0.007
1028	0.007
1028	0.008
1029	0.007
1029	0.007
1030	0.007
1030	0.007
1031	0.007
1031	0.007
1031	0.006
1032	0.006
1032	0.006
1033	0.005
1033	0.005
1033	0.005
1034	0.004
1034	0.004
1035	0.004
1035	0.004
1036	0.004
1036	0.004
1036	0.005
1037	0.006
1037	0.006
1038	0.006
1038	0.007
1039	0.008
1039	0.009
1039	0.009
1040	0.01
1040	0.011
1041	0.011
1041	0.012
1041	0.012
1042	0.013
1042	0.014
1043	0.014
1043	0.015
1044	0.016
1044	0.017
1044	0.017
1045	0.018
1045	0.019
1046	0.019
1046	0.02
1046	0.02
1047	0.021
1047	0.022
1048	0.022
1048	0.022
1049	0.022
1049	0.022
1049	0.022
1050	0.021
1050	0.021
1051	0.021
1051	0.021
1051	0.021
1052	0.021
1052	0.021
1053	0.021
1053	0.021
1053	0.021
1054	0.021
1054	0.021
1055	0.021
1055	0.021
1056	0.02
1056	0.019
1056	0.019
1057	0.018
1057	0.018
1058	0.018
1058	0.017
1058	0.017
1059	0.017
1059	0.017
1060	0.017
1060	0.017
1061	0.017
1061	0.017
1061	0.017
1062	0.017
1062	0.017
1063	0.016
1063	0.016
1063	0.016
1064	0.016
1064	0.016
1065	0.016
1065	0.016
1066	0.017
1066	0.018
1066	0.018
1067	0.018
1067	0.019
1068	0.019
1068	0.019
1068	0.019
1069	0.018
1069	0.017
1070	0.017
1070	0.016
1071	0.016
1071	0.016
1071	0.015
1072	0.015
1072	0.014
1073	0.014
1073	0.014
1073	0.014
1074	0.015
1074	0.015
1075	0.015
1075	0.015
1076	0.014
1076	0.014
1076	0.014
1077	0.014
1077	0.015
1078	0.015
1078	0.016
1078	0.017
1079	0.017
1079	0.019
1080	0.02
1080	0.022
1080	0.023
1081	0.024
1081	0.026
1082	0.026
1082	0.027
1083	0.028
1083	0.029
1083	0.03
1084	0.031
1084	0.032
1085	0.033
1085	0.035
1085	0.037
1086	0.038
1086	0.04
1087	0.043
1087	0.045
1088	0.047
1088	0.048
1088	0.05
1089	0.051
1089	0.054
1090	0.056
1090	0.058
1090	0.06
1091	0.062
1091	0.065
1092	0.067
1092	0.07
1092	0.073
1093	0.075
1093	0.079
1094	0.081
1094	0.083
1095	0.086
1095	0.089
1095	0.093
1096	0.097
1096	0.101
1097	0.106
1097	0.112
1097	0.117
1098	0.124
1098	0.131
1099	0.139
1099	0.147
1100	0.156
1100	0.166
1100	0.176
1101	0.187
1101	0.199
1102	0.212
1102	0.227
1102	0.242
1103	0.26
1103	0.282
1104	0.307
1104	0.33
1104	0.36
1105	0.391
1105	0.425
1106	0.462
1106	0.511
1107	0.567
1107	0.655
1107	0.786
1108	1.903
1108	-0
1109	-0
1109	-0
1109	-0
1110	-0
1110	-0
1111	-0
1111	-0
