Data from 17c-2-2a_Absorbance__428__02864.txt Node

Date: Fri Jan 26 14:39:09 CET 2024
User: Marek
Spectrometer: MAYP115816
Trigger mode: 0
Integration Time (sec): 2.000000E-1
Scans to average: 10
Electric dark correction enabled: true
Nonlinearity correction enabled: true
Boxcar width: 5
XAxis mode: Wavelengths
Number of Pixels in Spectrum: 2068
>>>>>Begin Spectral Data<<<<<
199	-1.764
199	-1.618
200	-1.465
200	-1.351
201	-1.278
201	-1.233
202	-1.163
202	-1.107
203	-1.06
203	-1.019
204	-0.993
204	-0.969
205	-0.948
205	-0.939
205	-0.936
206	-0.931
206	-0.926
207	-0.922
207	-0.921
208	-0.92
208	-0.918
209	-0.915
209	-0.912
210	-0.912
210	-0.912
211	-0.913
211	-0.914
212	-0.914
212	-0.914
213	-0.912
213	-0.908
213	-0.908
214	-0.905
214	-0.904
215	-0.899
215	-0.896
216	-0.892
216	-0.89
217	-0.886
217	-0.883
218	-0.88
218	-0.878
219	-0.874
219	-0.872
220	-0.871
220	-0.871
221	-0.868
221	-0.866
221	-0.863
222	-0.858
222	-0.854
223	-0.85
223	-0.847
224	-0.842
224	-0.835
225	-0.828
225	-0.82
226	-0.811
226	-0.8
227	-0.79
227	-0.778
228	-0.762
228	-0.745
229	-0.725
229	-0.703
229	-0.679
230	-0.652
230	-0.622
231	-0.59
231	-0.556
232	-0.52
232	-0.482
233	-0.442
233	-0.402
234	-0.362
234	-0.323
235	-0.284
235	-0.246
236	-0.209
236	-0.175
236	-0.142
237	-0.112
237	-0.084
238	-0.058
238	-0.034
239	-0.012
239	0.008
240	0.027
240	0.043
241	0.057
241	0.07
242	0.082
242	0.093
243	0.103
243	0.112
243	0.12
244	0.127
244	0.134
245	0.14
245	0.145
246	0.151
246	0.155
247	0.16
247	0.164
248	0.168
248	0.172
249	0.175
249	0.179
250	0.182
250	0.185
250	0.188
251	0.191
251	0.194
252	0.196
252	0.199
253	0.201
253	0.203
254	0.205
254	0.207
255	0.209
255	0.211
256	0.213
256	0.214
257	0.216
257	0.217
258	0.218
258	0.218
258	0.22
259	0.22
259	0.221
260	0.221
260	0.222
261	0.222
261	0.223
262	0.223
262	0.222
263	0.222
263	0.222
264	0.222
264	0.222
265	0.222
265	0.221
265	0.22
266	0.22
266	0.219
267	0.218
267	0.217
268	0.216
268	0.215
269	0.214
269	0.213
270	0.211
270	0.21
271	0.209
271	0.207
272	0.206
272	0.204
272	0.203
273	0.201
273	0.2
274	0.198
274	0.197
275	0.195
275	0.194
276	0.192
276	0.19
277	0.189
277	0.187
278	0.185
278	0.183
278	0.181
279	0.179
279	0.177
280	0.175
280	0.173
281	0.172
281	0.17
282	0.168
282	0.167
283	0.165
283	0.164
284	0.163
284	0.162
285	0.16
285	0.159
285	0.158
286	0.156
286	0.155
287	0.154
287	0.152
288	0.151
288	0.15
289	0.149
289	0.148
290	0.147
290	0.146
291	0.145
291	0.144
292	0.143
292	0.142
292	0.141
293	0.14
293	0.139
294	0.138
294	0.138
295	0.137
295	0.136
296	0.135
296	0.135
297	0.134
297	0.134
298	0.133
298	0.133
298	0.133
299	0.132
299	0.132
300	0.131
300	0.131
301	0.13
301	0.13
302	0.13
302	0.129
303	0.129
303	0.128
304	0.128
304	0.127
305	0.127
305	0.127
305	0.126
306	0.126
306	0.126
307	0.125
307	0.125
308	0.124
308	0.124
309	0.124
309	0.123
310	0.123
310	0.123
311	0.122
311	0.122
311	0.122
312	0.121
312	0.121
313	0.12
313	0.12
314	0.12
314	0.119
315	0.119
315	0.118
316	0.118
316	0.117
317	0.117
317	0.117
318	0.116
318	0.116
318	0.115
319	0.115
319	0.114
320	0.114
320	0.114
321	0.113
321	0.113
322	0.112
322	0.111
323	0.111
323	0.111
324	0.11
324	0.11
324	0.109
325	0.109
325	0.109
326	0.108
326	0.108
327	0.108
327	0.107
328	0.107
328	0.106
329	0.106
329	0.106
330	0.106
330	0.105
330	0.105
331	0.104
331	0.104
332	0.103
332	0.103
333	0.103
333	0.102
334	0.102
334	0.102
335	0.101
335	0.101
336	0.101
336	0.101
336	0.1
337	0.1
337	0.099
338	0.099
338	0.099
339	0.098
339	0.098
340	0.098
340	0.097
341	0.097
341	0.097
342	0.096
342	0.096
342	0.096
343	0.096
343	0.095
344	0.095
344	0.095
345	0.095
345	0.094
346	0.094
346	0.093
347	0.093
347	0.093
348	0.092
348	0.092
348	0.092
349	0.091
349	0.091
350	0.091
350	0.091
351	0.09
351	0.09
352	0.09
352	0.089
353	0.089
353	0.089
354	0.089
354	0.088
354	0.088
355	0.088
355	0.087
356	0.087
356	0.087
357	0.086
357	0.086
358	0.086
358	0.086
359	0.086
359	0.087
360	0.087
360	0.087
360	0.087
361	0.087
361	0.087
362	0.087
362	0.087
363	0.087
363	0.087
364	0.087
364	0.087
365	0.087
365	0.087
366	0.087
366	0.087
366	0.087
367	0.087
367	0.087
368	0.087
368	0.087
369	0.086
369	0.086
370	0.086
370	0.086
371	0.086
371	0.085
372	0.085
372	0.085
372	0.085
373	0.085
373	0.085
374	0.085
374	0.085
375	0.085
375	0.085
376	0.085
376	0.085
377	0.085
377	0.086
378	0.086
378	0.086
378	0.086
379	0.086
379	0.086
380	0.086
380	0.086
381	0.086
381	0.085
382	0.085
382	0.085
383	0.084
383	0.084
383	0.084
384	0.084
384	0.084
385	0.084
385	0.084
386	0.083
386	0.083
387	0.083
387	0.083
388	0.083
388	0.083
389	0.083
389	0.083
389	0.083
390	0.083
390	0.084
391	0.084
391	0.084
392	0.084
392	0.084
393	0.084
393	0.084
394	0.084
394	0.084
394	0.084
395	0.084
395	0.084
396	0.083
396	0.083
397	0.083
397	0.083
398	0.083
398	0.083
399	0.083
399	0.083
400	0.083
400	0.083
400	0.082
401	0.082
401	0.082
402	0.081
402	0.081
403	0.081
403	0.081
404	0.081
404	0.081
405	0.08
405	0.08
405	0.08
406	0.08
406	0.08
407	0.08
407	0.08
408	0.08
408	0.08
409	0.08
409	0.08
410	0.08
410	0.08
411	0.08
411	0.08
411	0.08
412	0.079
412	0.079
413	0.079
413	0.079
414	0.079
414	0.079
415	0.078
415	0.078
416	0.078
416	0.078
416	0.078
417	0.077
417	0.077
418	0.077
418	0.078
419	0.078
419	0.078
420	0.078
420	0.079
421	0.079
421	0.079
421	0.079
422	0.079
422	0.079
423	0.079
423	0.079
424	0.079
424	0.078
425	0.078
425	0.078
426	0.078
426	0.078
427	0.078
427	0.077
427	0.078
428	0.078
428	0.078
429	0.078
429	0.078
430	0.079
430	0.079
431	0.079
431	0.078
432	0.078
432	0.078
432	0.077
433	0.077
433	0.077
434	0.076
434	0.076
435	0.076
435	0.076
436	0.076
436	0.076
437	0.076
437	0.076
437	0.076
438	0.076
438	0.076
439	0.076
439	0.075
440	0.075
440	0.075
441	0.075
441	0.075
442	0.075
442	0.075
442	0.075
443	0.076
443	0.076
444	0.076
444	0.076
445	0.076
445	0.076
446	0.077
446	0.077
447	0.076
447	0.076
447	0.076
448	0.076
448	0.076
449	0.076
449	0.076
450	0.076
450	0.076
451	0.076
451	0.075
452	0.075
452	0.075
452	0.074
453	0.074
453	0.074
454	0.073
454	0.073
455	0.073
455	0.073
456	0.073
456	0.073
457	0.072
457	0.073
458	0.073
458	0.073
458	0.073
459	0.074
459	0.074
460	0.073
460	0.073
461	0.073
461	0.073
462	0.073
462	0.073
463	0.073
463	0.073
463	0.073
464	0.073
464	0.073
465	0.073
465	0.074
466	0.074
466	0.074
467	0.074
467	0.073
467	0.073
468	0.072
468	0.071
469	0.071
469	0.07
470	0.07
470	0.07
471	0.07
471	0.07
472	0.07
472	0.07
472	0.071
473	0.071
473	0.072
474	0.072
474	0.073
475	0.074
475	0.074
476	0.074
476	0.075
477	0.075
477	0.075
477	0.075
478	0.075
478	0.075
479	0.075
479	0.075
480	0.075
480	0.075
481	0.076
481	0.076
482	0.077
482	0.077
482	0.078
483	0.08
483	0.081
484	0.083
484	0.084
485	0.085
485	0.085
486	0.086
486	0.086
487	0.086
487	0.087
487	0.087
488	0.086
488	0.085
489	0.085
489	0.085
490	0.085
490	0.084
491	0.084
491	0.085
492	0.085
492	0.085
492	0.086
493	0.086
493	0.087
494	0.088
494	0.09
495	0.091
495	0.091
496	0.092
496	0.093
496	0.094
497	0.095
497	0.095
498	0.096
498	0.096
499	0.096
499	0.097
500	0.097
500	0.098
501	0.098
501	0.099
501	0.1
502	0.101
502	0.101
503	0.102
503	0.103
504	0.104
504	0.104
505	0.105
505	0.105
506	0.106
506	0.106
506	0.107
507	0.107
507	0.108
508	0.108
508	0.109
509	0.109
509	0.11
510	0.111
510	0.112
511	0.112
511	0.112
511	0.112
512	0.113
512	0.113
513	0.113
513	0.113
514	0.113
514	0.113
515	0.113
515	0.113
515	0.112
516	0.112
516	0.112
517	0.113
517	0.113
518	0.114
518	0.114
519	0.114
519	0.113
520	0.113
520	0.112
520	0.111
521	0.11
521	0.109
522	0.107
522	0.106
523	0.105
523	0.104
524	0.104
524	0.104
524	0.105
525	0.105
525	0.106
526	0.108
526	0.109
527	0.11
527	0.112
528	0.113
528	0.114
529	0.114
529	0.115
529	0.115
530	0.115
530	0.115
531	0.115
531	0.114
532	0.113
532	0.113
533	0.112
533	0.112
533	0.111
534	0.11
534	0.109
535	0.108
535	0.107
536	0.107
536	0.106
537	0.105
537	0.104
538	0.104
538	0.102
538	0.102
539	0.101
539	0.101
540	0.1
540	0.099
541	0.098
541	0.097
542	0.096
542	0.095
542	0.095
543	0.094
543	0.092
544	0.091
544	0.09
545	0.09
545	0.089
546	0.089
546	0.088
547	0.087
547	0.086
547	0.084
548	0.083
548	0.083
549	0.082
549	0.081
550	0.08
550	0.079
551	0.078
551	0.077
551	0.076
552	0.075
552	0.075
553	0.074
553	0.073
554	0.073
554	0.071
555	0.07
555	0.068
556	0.067
556	0.065
556	0.064
557	0.062
557	0.061
558	0.06
558	0.059
559	0.058
559	0.057
560	0.057
560	0.056
560	0.056
561	0.056
561	0.055
562	0.055
562	0.054
563	0.053
563	0.052
564	0.05
564	0.049
564	0.048
565	0.046
565	0.045
566	0.044
566	0.043
567	0.042
567	0.042
568	0.043
568	0.043
568	0.044
569	0.045
569	0.046
570	0.047
570	0.047
571	0.047
571	0.048
572	0.048
572	0.048
573	0.048
573	0.048
573	0.047
574	0.047
574	0.046
575	0.046
575	0.047
576	0.047
576	0.046
577	0.045
577	0.044
577	0.044
578	0.043
578	0.044
579	0.044
579	0.045
580	0.044
580	0.042
581	0.04
581	0.039
581	0.039
582	0.039
582	0.039
583	0.039
583	0.039
584	0.037
584	0.034
585	0.034
585	0.034
585	0.034
586	0.034
586	0.034
587	0.033
587	0.032
588	0.03
588	0.029
589	0.029
589	0.029
590	0.029
590	0.028
590	0.03
591	0.03
591	0.03
592	0.03
592	0.029
593	0.029
593	0.029
594	0.028
594	0.028
594	0.027
595	0.027
595	0.025
596	0.024
596	0.025
597	0.026
597	0.027
598	0.027
598	0.028
598	0.029
599	0.029
599	0.029
600	0.029
600	0.028
601	0.028
601	0.027
602	0.026
602	0.026
602	0.025
603	0.025
603	0.026
604	0.027
604	0.027
605	0.028
605	0.029
606	0.03
606	0.029
606	0.029
607	0.028
607	0.028
608	0.028
608	0.026
609	0.025
609	0.025
610	0.024
610	0.023
610	0.023
611	0.024
611	0.025
612	0.026
612	0.027
613	0.028
613	0.029
614	0.029
614	0.029
614	0.029
615	0.029
615	0.029
616	0.029
616	0.028
617	0.028
617	0.027
618	0.027
618	0.026
618	0.026
619	0.026
619	0.026
620	0.027
620	0.027
621	0.027
621	0.027
622	0.027
622	0.028
622	0.027
623	0.027
623	0.028
624	0.029
624	0.028
625	0.029
625	0.029
626	0.029
626	0.029
626	0.03
627	0.031
627	0.031
628	0.032
628	0.032
629	0.033
629	0.033
630	0.032
630	0.032
630	0.032
631	0.032
631	0.032
632	0.032
632	0.032
633	0.032
633	0.033
634	0.033
634	0.035
634	0.036
635	0.037
635	0.037
636	0.038
636	0.039
637	0.04
637	0.04
638	0.041
638	0.043
638	0.044
639	0.044
639	0.045
640	0.046
640	0.046
641	0.047
641	0.048
642	0.049
642	0.051
642	0.052
643	0.052
643	0.053
644	0.054
644	0.055
645	0.056
645	0.057
646	0.059
646	0.06
646	0.063
647	0.065
647	0.067
648	0.068
648	0.07
649	0.072
649	0.074
650	0.076
650	0.078
650	0.08
651	0.081
651	0.082
652	0.083
652	0.084
653	0.086
653	0.092
653	0.096
654	0.08
654	0.066
655	0.067
655	0.069
656	0.07
656	0.072
657	0.073
657	0.075
657	0.076
658	0.074
658	0.071
659	0.088
659	0.111
660	0.116
660	0.117
661	0.119
661	0.12
661	0.121
662	0.123
662	0.124
663	0.126
663	0.127
664	0.128
664	0.13
665	0.131
665	0.132
665	0.134
666	0.135
666	0.136
667	0.138
667	0.139
668	0.141
668	0.143
669	0.144
669	0.146
669	0.148
670	0.15
670	0.152
671	0.153
671	0.155
672	0.156
672	0.157
672	0.158
673	0.159
673	0.161
674	0.162
674	0.163
675	0.164
675	0.166
676	0.168
676	0.17
676	0.171
677	0.173
677	0.175
678	0.176
678	0.177
679	0.178
679	0.179
680	0.18
680	0.181
680	0.181
681	0.182
681	0.183
682	0.183
682	0.184
683	0.185
683	0.186
684	0.187
684	0.187
684	0.187
685	0.187
685	0.186
686	0.186
686	0.186
687	0.185
687	0.184
687	0.183
688	0.182
688	0.182
689	0.183
689	0.184
690	0.184
690	0.185
691	0.186
691	0.186
691	0.187
692	0.187
692	0.187
693	0.187
693	0.187
694	0.186
694	0.185
695	0.185
695	0.186
695	0.185
696	0.184
696	0.183
697	0.183
697	0.182
698	0.18
698	0.179
698	0.177
699	0.176
699	0.174
700	0.172
700	0.171
701	0.17
701	0.168
702	0.167
702	0.166
702	0.164
703	0.163
703	0.161
704	0.16
704	0.159
705	0.158
705	0.157
705	0.156
706	0.155
706	0.155
707	0.154
707	0.152
708	0.151
708	0.15
709	0.149
709	0.148
709	0.146
710	0.144
710	0.143
711	0.142
711	0.14
712	0.139
712	0.138
713	0.137
713	0.136
713	0.135
714	0.133
714	0.132
715	0.13
715	0.129
716	0.127
716	0.126
716	0.125
717	0.123
717	0.122
718	0.12
718	0.118
719	0.116
719	0.115
720	0.113
720	0.111
720	0.108
721	0.106
721	0.104
722	0.102
722	0.1
723	0.098
723	0.097
723	0.096
724	0.095
724	0.093
725	0.092
725	0.092
726	0.091
726	0.09
727	0.089
727	0.088
727	0.087
728	0.086
728	0.085
729	0.084
729	0.084
730	0.082
730	0.081
730	0.079
731	0.078
731	0.077
732	0.076
732	0.076
733	0.074
733	0.073
734	0.072
734	0.071
734	0.071
735	0.07
735	0.07
736	0.069
736	0.068
737	0.067
737	0.066
737	0.065
738	0.063
738	0.061
739	0.059
739	0.058
740	0.055
740	0.054
741	0.052
741	0.05
741	0.048
742	0.044
742	0.042
743	0.041
743	0.039
744	0.038
744	0.037
744	0.036
745	0.035
745	0.034
746	0.033
746	0.033
747	0.033
747	0.033
748	0.033
748	0.033
748	0.032
749	0.032
749	0.031
750	0.031
750	0.031
751	0.031
751	0.031
751	0.031
752	0.03
752	0.029
753	0.027
753	0.027
754	0.026
754	0.025
754	0.025
755	0.025
755	0.025
756	0.024
756	0.023
757	0.022
757	0.023
758	0.023
758	0.023
758	0.023
759	0.023
759	0.021
760	0.02
760	0.018
761	0.017
761	0.016
761	0.015
762	0.014
762	0.014
763	0.013
763	0.011
764	0.01
764	0.008
764	0.007
765	0.006
765	0.004
766	0.003
766	0.003
767	0.002
767	-0
768	-0.002
768	-0.004
768	-0.004
769	-0.005
769	-0.006
770	-0.007
770	-0.008
771	-0.009
771	-0.012
771	-0.014
772	-0.015
772	-0.017
773	-0.019
773	-0.021
774	-0.024
774	-0.027
775	-0.029
775	-0.031
775	-0.033
776	-0.035
776	-0.037
777	-0.039
777	-0.04
778	-0.042
778	-0.044
778	-0.046
779	-0.048
779	-0.049
780	-0.051
780	-0.054
781	-0.057
781	-0.062
781	-0.067
782	-0.073
782	-0.08
783	-0.086
783	-0.092
784	-0.098
784	-0.103
784	-0.108
785	-0.114
785	-0.119
786	-0.121
786	-0.12
787	-0.116
787	-0.113
788	-0.113
788	-0.114
788	-0.115
789	-0.117
789	-0.117
790	-0.114
790	-0.113
791	-0.114
791	-0.116
791	-0.118
792	-0.114
792	-0.103
793	-0.097
793	-0.093
794	-0.091
794	-0.094
794	-0.098
795	-0.1
795	-0.101
796	-0.101
796	-0.104
797	-0.113
797	-0.124
797	-0.13
798	-0.136
798	-0.139
799	-0.14
799	-0.139
800	-0.138
800	-0.14
801	-0.143
801	-0.143
801	-0.143
802	-0.144
802	-0.145
803	-0.146
803	-0.146
804	-0.145
804	-0.14
804	-0.133
805	-0.129
805	-0.128
806	-0.126
806	-0.125
807	-0.125
807	-0.125
807	-0.125
808	-0.125
808	-0.126
809	-0.131
809	-0.137
810	-0.141
810	-0.144
810	-0.147
811	-0.15
811	-0.15
812	-0.146
812	-0.143
813	-0.143
813	-0.144
813	-0.145
814	-0.146
814	-0.147
815	-0.145
815	-0.142
816	-0.14
816	-0.141
817	-0.146
817	-0.149
817	-0.149
818	-0.146
818	-0.141
819	-0.136
819	-0.131
820	-0.129
820	-0.126
820	-0.121
821	-0.115
821	-0.107
822	-0.1
822	-0.092
823	-0.086
823	-0.081
823	-0.076
824	-0.071
824	-0.065
825	-0.058
825	-0.052
826	-0.047
826	-0.043
826	-0.039
827	-0.035
827	-0.032
828	-0.029
828	-0.027
829	-0.025
829	-0.024
829	-0.023
830	-0.023
830	-0.022
831	-0.021
831	-0.02
832	-0.019
832	-0.018
832	-0.017
833	-0.016
833	-0.015
834	-0.014
834	-0.012
835	-0.012
835	-0.011
835	-0.01
836	-0.01
836	-0.009
837	-0.008
837	-0.008
838	-0.008
838	-0.008
839	-0.007
839	-0.007
839	-0.008
840	-0.008
840	-0.008
841	-0.008
841	-0.008
842	-0.007
842	-0.007
842	-0.007
843	-0.006
843	-0.006
844	-0.006
844	-0.005
845	-0.005
845	-0.005
845	-0.004
846	-0.004
846	-0.004
847	-0.004
847	-0.004
848	-0.004
848	-0.003
848	-0.003
849	-0.003
849	-0.002
850	-0.002
850	-0.002
851	-0.001
851	-0
851	-0
852	-0
852	-0
853	-0
853	-0
854	0
854	0
854	0.001
855	0.001
855	0.001
856	0
856	-0
857	-0
857	-0
857	-0
858	-0
858	-0.001
859	-0.001
859	-0.001
860	-0.001
860	-0.001
860	-0.001
861	-0
861	0
862	0.001
862	0.001
863	0.001
863	0.002
863	0.002
864	0.003
864	0.003
865	0.004
865	0.005
866	0.006
866	0.006
866	0.007
867	0.008
867	0.009
868	0.01
868	0.01
869	0.011
869	0.011
869	0.011
870	0.011
870	0.011
871	0.011
871	0.011
872	0.011
872	0.01
872	0.01
873	0.009
873	0.009
874	0.008
874	0.007
875	0.007
875	0.006
875	0.006
876	0.005
876	0.005
877	0.004
877	0.004
878	0.003
878	0.003
878	0.003
879	0.003
879	0.002
880	0.003
880	0.003
881	0.003
881	0.003
881	0.003
882	0.003
882	0.004
883	0.004
883	0.004
884	0.005
884	0.005
884	0.005
885	0.006
885	0.006
886	0.007
886	0.007
887	0.008
887	0.008
887	0.008
888	0.009
888	0.009
889	0.009
889	0.009
890	0.009
890	0.009
890	0.009
891	0.008
891	0.009
892	0.009
892	0.009
893	0.01
893	0.011
893	0.012
894	0.012
894	0.012
895	0.013
895	0.013
895	0.013
896	0.012
896	0.012
897	0.011
897	0.01
898	0.009
898	0.008
898	0.007
899	0.006
899	0.005
900	0.004
900	0.003
901	0.002
901	0.002
901	0.001
902	0.001
902	0.001
903	0.001
903	0.001
904	0.001
904	0.001
904	0.001
905	0.001
905	0.001
906	0.001
906	0.001
907	0.001
907	0.001
907	0.001
908	0.001
908	0.001
909	0.002
909	0.003
910	0.004
910	0.004
910	0.004
911	0.005
911	0.005
912	0.006
912	0.006
913	0.006
913	0.006
913	0.006
914	0.006
914	0.006
915	0.006
915	0.007
916	0.007
916	0.007
916	0.006
917	0.006
917	0.006
918	0.006
918	0.005
918	0.005
919	0.005
919	0.004
920	0.004
920	0.004
921	0.004
921	0.005
921	0.005
922	0.006
922	0.006
923	0.007
923	0.008
924	0.009
924	0.009
924	0.01
925	0.011
925	0.011
926	0.012
926	0.012
927	0.012
927	0.012
927	0.013
928	0.013
928	0.013
929	0.013
929	0.013
930	0.013
930	0.013
930	0.013
931	0.012
931	0.012
932	0.011
932	0.011
933	0.01
933	0.009
933	0.008
934	0.008
934	0.007
935	0.007
935	0.006
935	0.006
936	0.005
936	0.005
937	0.004
937	0.004
938	0.004
938	0.004
938	0.003
939	0.003
939	0.003
940	0.003
940	0.003
941	0.004
941	0.004
941	0.005
942	0.005
942	0.006
943	0.007
943	0.008
944	0.009
944	0.01
944	0.011
945	0.012
945	0.013
946	0.014
946	0.014
946	0.015
947	0.016
947	0.017
948	0.017
948	0.017
949	0.018
949	0.018
949	0.018
950	0.018
950	0.018
951	0.018
951	0.018
952	0.017
952	0.017
952	0.017
953	0.017
953	0.017
954	0.017
954	0.016
955	0.016
955	0.017
955	0.017
956	0.017
956	0.017
957	0.017
957	0.017
957	0.017
958	0.017
958	0.017
959	0.017
959	0.018
960	0.018
960	0.018
960	0.018
961	0.019
961	0.019
962	0.02
962	0.02
963	0.021
963	0.021
963	0.022
964	0.022
964	0.022
965	0.022
965	0.022
966	0.023
966	0.022
966	0.022
967	0.021
967	0.02
968	0.019
968	0.018
968	0.017
969	0.015
969	0.014
970	0.013
970	0.012
971	0.011
971	0.011
971	0.01
972	0.01
972	0.01
973	0.01
973	0.01
974	0.01
974	0.01
974	0.01
975	0.011
975	0.011
976	0.012
976	0.012
976	0.012
977	0.012
977	0.011
978	0.011
978	0.011
979	0.01
979	0.009
979	0.008
980	0.007
980	0.006
981	0.006
981	0.005
982	0.005
982	0.004
982	0.004
983	0.004
983	0.003
984	0.003
984	0.003
984	0.003
985	0.003
985	0.003
986	0.002
986	0.002
987	0.001
987	0.001
987	0.001
988	0.001
988	0.001
989	0.001
989	0.001
990	0.002
990	0.002
990	0.003
991	0.004
991	0.004
992	0.005
992	0.006
992	0.006
993	0.007
993	0.007
994	0.007
994	0.007
995	0.007
995	0.007
995	0.007
996	0.006
996	0.006
997	0.005
997	0.004
997	0.003
998	0.003
998	0.003
999	0.003
999	0.003
1000	0.003
1000	0.003
1000	0.004
1001	0.005
1001	0.006
1002	0.007
1002	0.008
1003	0.008
1003	0.009
1003	0.009
1004	0.01
1004	0.01
1005	0.01
1005	0.01
1005	0.009
1006	0.009
1006	0.009
1007	0.009
1007	0.008
1008	0.008
1008	0.008
1008	0.008
1009	0.008
1009	0.008
1010	0.008
1010	0.009
1010	0.01
1011	0.01
1011	0.011
1012	0.011
1012	0.012
1013	0.013
1013	0.013
1013	0.013
1014	0.013
1014	0.012
1015	0.012
1015	0.011
1016	0.011
1016	0.01
1016	0.01
1017	0.009
1017	0.008
1018	0.008
1018	0.007
1018	0.007
1019	0.007
1019	0.006
1020	0.006
1020	0.005
1021	0.004
1021	0.004
1021	0.003
1022	0.003
1022	0.002
1023	0.002
1023	0.001
1023	0.001
1024	0.001
1024	0.001
1025	0.001
1025	0.001
1026	0.001
1026	0.001
1026	0.001
1027	0.002
1027	0.002
1028	0.002
1028	0.002
1028	0.003
1029	0.003
1029	0.003
1030	0.003
1030	0.003
1031	0.003
1031	0.003
1031	0.003
1032	0.002
1032	0.002
1033	0.002
1033	0.002
1033	0.002
1034	0.002
1034	0.001
1035	0.001
1035	0.001
1036	0.001
1036	0.001
1036	0.002
1037	0.002
1037	0.003
1038	0.003
1038	0.003
1039	0.004
1039	0.005
1039	0.005
1040	0.006
1040	0.007
1041	0.007
1041	0.007
1041	0.007
1042	0.007
1042	0.007
1043	0.007
1043	0.007
1044	0.007
1044	0.006
1044	0.006
1045	0.006
1045	0.005
1046	0.005
1046	0.004
1046	0.004
1047	0.004
1047	0.005
1048	0.005
1048	0.005
1049	0.005
1049	0.005
1049	0.005
1050	0.005
1050	0.004
1051	0.005
1051	0.005
1051	0.005
1052	0.005
1052	0.005
1053	0.005
1053	0.005
1053	0.006
1054	0.006
1054	0.006
1055	0.007
1055	0.007
1056	0.007
1056	0.007
1056	0.007
1057	0.007
1057	0.007
1058	0.008
1058	0.008
1058	0.008
1059	0.008
1059	0.008
1060	0.008
1060	0.009
1061	0.009
1061	0.01
1061	0.01
1062	0.01
1062	0.01
1063	0.01
1063	0.01
1063	0.01
1064	0.01
1064	0.01
1065	0.01
1065	0.009
1066	0.009
1066	0.009
1066	0.009
1067	0.009
1067	0.009
1068	0.008
1068	0.007
1068	0.007
1069	0.006
1069	0.005
1070	0.004
1070	0.004
1071	0.003
1071	0.003
1071	0.002
1072	0.002
1072	0.002
1073	0.002
1073	0.003
1073	0.003
1074	0.003
1074	0.004
1075	0.003
1075	0.004
1076	0.003
1076	0.004
1076	0.004
1077	0.005
1077	0.006
1078	0.006
1078	0.007
1078	0.008
1079	0.009
1079	0.011
1080	0.012
1080	0.013
1080	0.014
1081	0.016
1081	0.017
1082	0.018
1082	0.019
1083	0.02
1083	0.021
1083	0.022
1084	0.022
1084	0.024
1085	0.025
1085	0.026
1085	0.027
1086	0.028
1086	0.029
1087	0.03
1087	0.032
1088	0.032
1088	0.033
1088	0.034
1089	0.034
1089	0.036
1090	0.036
1090	0.038
1090	0.039
1091	0.04
1091	0.042
1092	0.044
1092	0.046
1092	0.048
1093	0.05
1093	0.052
1094	0.054
1094	0.057
1095	0.059
1095	0.062
1095	0.066
1096	0.069
1096	0.072
1097	0.077
1097	0.082
1097	0.087
1098	0.093
1098	0.098
1099	0.104
1099	0.11
1100	0.117
1100	0.124
1100	0.132
1101	0.141
1101	0.151
1102	0.161
1102	0.171
1102	0.184
1103	0.197
1103	0.211
1104	0.228
1104	0.245
1104	0.266
1105	0.286
1105	0.307
1106	0.33
1106	0.357
1107	0.392
1107	0.437
1107	0.5
1108	0.724
1108	1.495
1109	-0
1109	-0
1109	-0
1110	-0
1110	-0
1111	-0
1111	-0
