Data from 17c-100ul-ns-20ul-nr-full-exp'4ul'bp_Absorbance__15__01386.txt Node

Date: Mon Jan 15 10:13:58 CET 2024
User: Marek
Spectrometer: MAYP115816
Trigger mode: 0
Integration Time (sec): 2.000000E-1
Scans to average: 10
Electric dark correction enabled: true
Nonlinearity correction enabled: true
Boxcar width: 5
XAxis mode: Wavelengths
Number of Pixels in Spectrum: 2068
>>>>>Begin Spectral Data<<<<<
199	-0.508
199	-0.483
200	-0.41
200	-0.347
201	-0.31
201	-0.286
202	-0.262
202	-0.258
203	-0.25
203	-0.247
204	-0.232
204	-0.218
205	-0.204
205	-0.198
205	-0.201
206	-0.202
206	-0.207
207	-0.204
207	-0.205
208	-0.207
208	-0.207
209	-0.205
209	-0.209
210	-0.213
210	-0.214
211	-0.213
211	-0.215
212	-0.216
212	-0.219
213	-0.22
213	-0.22
213	-0.223
214	-0.223
214	-0.223
215	-0.222
215	-0.226
216	-0.228
216	-0.229
217	-0.227
217	-0.227
218	-0.229
218	-0.225
219	-0.221
219	-0.223
220	-0.223
220	-0.222
221	-0.219
221	-0.218
221	-0.214
222	-0.211
222	-0.208
223	-0.201
223	-0.202
224	-0.201
224	-0.193
225	-0.183
225	-0.176
226	-0.171
226	-0.16
227	-0.148
227	-0.14
228	-0.126
228	-0.113
229	-0.095
229	-0.072
229	-0.051
230	-0.03
230	-0.006
231	0.021
231	0.046
232	0.068
232	0.093
233	0.118
233	0.141
234	0.162
234	0.182
235	0.2
235	0.216
236	0.23
236	0.245
236	0.258
237	0.27
237	0.28
238	0.29
238	0.298
239	0.306
239	0.312
240	0.317
240	0.322
241	0.327
241	0.331
242	0.334
242	0.337
243	0.341
243	0.343
243	0.346
244	0.348
244	0.351
245	0.353
245	0.355
246	0.357
246	0.359
247	0.36
247	0.362
248	0.364
248	0.366
249	0.367
249	0.368
250	0.369
250	0.371
250	0.372
251	0.373
251	0.374
252	0.376
252	0.376
253	0.377
253	0.378
254	0.379
254	0.38
255	0.38
255	0.381
256	0.381
256	0.382
257	0.382
257	0.382
258	0.382
258	0.382
258	0.382
259	0.382
259	0.381
260	0.381
260	0.381
261	0.38
261	0.38
262	0.379
262	0.378
263	0.377
263	0.376
264	0.375
264	0.374
265	0.372
265	0.371
265	0.37
266	0.369
266	0.367
267	0.365
267	0.364
268	0.362
268	0.36
269	0.358
269	0.356
270	0.355
270	0.352
271	0.35
271	0.348
272	0.346
272	0.344
272	0.342
273	0.34
273	0.338
274	0.336
274	0.334
275	0.332
275	0.33
276	0.327
276	0.325
277	0.323
277	0.321
278	0.319
278	0.317
278	0.315
279	0.312
279	0.309
280	0.307
280	0.305
281	0.302
281	0.3
282	0.297
282	0.295
283	0.293
283	0.29
284	0.288
284	0.286
285	0.284
285	0.282
285	0.28
286	0.278
286	0.277
287	0.275
287	0.273
288	0.272
288	0.27
289	0.268
289	0.267
290	0.265
290	0.264
291	0.262
291	0.261
292	0.259
292	0.258
292	0.256
293	0.255
293	0.254
294	0.253
294	0.252
295	0.251
295	0.25
296	0.249
296	0.248
297	0.247
297	0.246
298	0.245
298	0.244
298	0.243
299	0.242
299	0.241
300	0.241
300	0.24
301	0.239
301	0.238
302	0.238
302	0.237
303	0.237
303	0.236
304	0.236
304	0.235
305	0.235
305	0.234
305	0.233
306	0.233
306	0.232
307	0.232
307	0.231
308	0.231
308	0.23
309	0.229
309	0.228
310	0.228
310	0.227
311	0.227
311	0.226
311	0.225
312	0.225
312	0.224
313	0.224
313	0.223
314	0.223
314	0.222
315	0.221
315	0.221
316	0.22
316	0.22
317	0.219
317	0.219
318	0.218
318	0.218
318	0.217
319	0.217
319	0.216
320	0.216
320	0.215
321	0.215
321	0.214
322	0.214
322	0.213
323	0.213
323	0.212
324	0.211
324	0.211
324	0.21
325	0.21
325	0.209
326	0.209
326	0.208
327	0.208
327	0.207
328	0.206
328	0.206
329	0.206
329	0.205
330	0.204
330	0.204
330	0.204
331	0.203
331	0.203
332	0.202
332	0.202
333	0.201
333	0.201
334	0.2
334	0.2
335	0.199
335	0.199
336	0.198
336	0.198
336	0.197
337	0.197
337	0.196
338	0.196
338	0.195
339	0.195
339	0.195
340	0.194
340	0.194
341	0.193
341	0.193
342	0.192
342	0.192
342	0.192
343	0.191
343	0.191
344	0.191
344	0.19
345	0.19
345	0.189
346	0.189
346	0.189
347	0.189
347	0.189
348	0.188
348	0.188
348	0.188
349	0.187
349	0.187
350	0.187
350	0.187
351	0.187
351	0.187
352	0.186
352	0.186
353	0.186
353	0.186
354	0.186
354	0.185
354	0.185
355	0.185
355	0.185
356	0.185
356	0.185
357	0.185
357	0.184
358	0.184
358	0.184
359	0.184
359	0.184
360	0.184
360	0.184
360	0.183
361	0.183
361	0.182
362	0.182
362	0.182
363	0.182
363	0.182
364	0.182
364	0.182
365	0.182
365	0.182
366	0.182
366	0.182
366	0.182
367	0.182
367	0.182
368	0.182
368	0.181
369	0.181
369	0.181
370	0.181
370	0.181
371	0.181
371	0.181
372	0.181
372	0.18
372	0.18
373	0.18
373	0.181
374	0.181
374	0.181
375	0.18
375	0.18
376	0.18
376	0.18
377	0.18
377	0.179
378	0.179
378	0.179
378	0.179
379	0.179
379	0.179
380	0.179
380	0.178
381	0.178
381	0.178
382	0.178
382	0.178
383	0.178
383	0.178
383	0.177
384	0.177
384	0.177
385	0.176
385	0.176
386	0.176
386	0.176
387	0.176
387	0.175
388	0.175
388	0.175
389	0.175
389	0.175
389	0.175
390	0.175
390	0.175
391	0.175
391	0.175
392	0.175
392	0.175
393	0.175
393	0.175
394	0.175
394	0.174
394	0.174
395	0.174
395	0.174
396	0.174
396	0.173
397	0.173
397	0.173
398	0.173
398	0.173
399	0.173
399	0.173
400	0.172
400	0.172
400	0.172
401	0.172
401	0.171
402	0.171
402	0.171
403	0.171
403	0.171
404	0.171
404	0.17
405	0.17
405	0.17
405	0.17
406	0.17
406	0.17
407	0.17
407	0.17
408	0.169
408	0.169
409	0.169
409	0.169
410	0.169
410	0.169
411	0.169
411	0.168
411	0.168
412	0.168
412	0.168
413	0.168
413	0.167
414	0.167
414	0.167
415	0.167
415	0.167
416	0.166
416	0.166
416	0.166
417	0.165
417	0.165
418	0.165
418	0.165
419	0.165
419	0.165
420	0.165
420	0.165
421	0.165
421	0.165
421	0.165
422	0.165
422	0.165
423	0.165
423	0.165
424	0.165
424	0.164
425	0.164
425	0.164
426	0.164
426	0.164
427	0.164
427	0.163
427	0.163
428	0.164
428	0.164
429	0.164
429	0.164
430	0.164
430	0.164
431	0.164
431	0.164
432	0.163
432	0.163
432	0.163
433	0.162
433	0.162
434	0.162
434	0.162
435	0.162
435	0.162
436	0.161
436	0.161
437	0.161
437	0.161
437	0.161
438	0.161
438	0.161
439	0.161
439	0.161
440	0.161
440	0.161
441	0.16
441	0.16
442	0.16
442	0.16
442	0.16
443	0.16
443	0.16
444	0.16
444	0.16
445	0.16
445	0.16
446	0.16
446	0.16
447	0.16
447	0.16
447	0.16
448	0.16
448	0.16
449	0.16
449	0.16
450	0.159
450	0.159
451	0.159
451	0.159
452	0.159
452	0.159
452	0.159
453	0.159
453	0.159
454	0.159
454	0.159
455	0.159
455	0.159
456	0.159
456	0.159
457	0.159
457	0.159
458	0.159
458	0.159
458	0.16
459	0.16
459	0.16
460	0.159
460	0.159
461	0.16
461	0.159
462	0.159
462	0.16
463	0.16
463	0.16
463	0.16
464	0.16
464	0.16
465	0.16
465	0.16
466	0.16
466	0.16
467	0.16
467	0.16
467	0.16
468	0.16
468	0.159
469	0.16
469	0.16
470	0.16
470	0.161
471	0.161
471	0.161
472	0.161
472	0.162
472	0.162
473	0.163
473	0.163
474	0.163
474	0.164
475	0.164
475	0.164
476	0.164
476	0.164
477	0.165
477	0.165
477	0.165
478	0.165
478	0.165
479	0.165
479	0.166
480	0.166
480	0.166
481	0.167
481	0.168
482	0.169
482	0.169
482	0.17
483	0.171
483	0.172
484	0.173
484	0.173
485	0.173
485	0.174
486	0.174
486	0.175
487	0.175
487	0.176
487	0.176
488	0.177
488	0.177
489	0.178
489	0.18
490	0.181
490	0.181
491	0.182
491	0.183
492	0.184
492	0.185
492	0.186
493	0.187
493	0.188
494	0.19
494	0.191
495	0.193
495	0.194
496	0.195
496	0.197
496	0.199
497	0.2
497	0.201
498	0.202
498	0.203
499	0.204
499	0.205
500	0.206
500	0.208
501	0.209
501	0.21
501	0.211
502	0.212
502	0.213
503	0.215
503	0.216
504	0.217
504	0.218
505	0.219
505	0.22
506	0.222
506	0.223
506	0.224
507	0.225
507	0.227
508	0.228
508	0.23
509	0.231
509	0.233
510	0.234
510	0.236
511	0.237
511	0.238
511	0.239
512	0.24
512	0.241
513	0.242
513	0.243
514	0.244
514	0.245
515	0.246
515	0.246
515	0.247
516	0.248
516	0.249
517	0.25
517	0.25
518	0.251
518	0.252
519	0.252
519	0.252
520	0.253
520	0.254
520	0.254
521	0.254
521	0.254
522	0.254
522	0.255
523	0.255
523	0.256
524	0.256
524	0.256
524	0.257
525	0.257
525	0.257
526	0.257
526	0.257
527	0.257
527	0.257
528	0.257
528	0.257
529	0.256
529	0.256
529	0.256
530	0.256
530	0.255
531	0.255
531	0.255
532	0.254
532	0.254
533	0.253
533	0.252
533	0.252
534	0.251
534	0.25
535	0.25
535	0.249
536	0.249
536	0.248
537	0.248
537	0.247
538	0.247
538	0.246
538	0.245
539	0.245
539	0.244
540	0.243
540	0.242
541	0.24
541	0.24
542	0.239
542	0.238
542	0.237
543	0.236
543	0.235
544	0.235
544	0.234
545	0.233
545	0.233
546	0.232
546	0.231
547	0.229
547	0.228
547	0.227
548	0.226
548	0.225
549	0.224
549	0.223
550	0.222
550	0.22
551	0.219
551	0.218
551	0.217
552	0.216
552	0.215
553	0.214
553	0.213
554	0.212
554	0.21
555	0.209
555	0.208
556	0.207
556	0.206
556	0.205
557	0.204
557	0.203
558	0.202
558	0.201
559	0.199
559	0.198
560	0.197
560	0.196
560	0.195
561	0.194
561	0.193
562	0.192
562	0.191
563	0.189
563	0.188
564	0.187
564	0.186
564	0.185
565	0.185
565	0.184
566	0.182
566	0.181
567	0.18
567	0.18
568	0.179
568	0.178
568	0.178
569	0.177
569	0.176
570	0.175
570	0.174
571	0.173
571	0.173
572	0.171
572	0.171
573	0.169
573	0.168
573	0.167
574	0.166
574	0.166
575	0.166
575	0.166
576	0.166
576	0.164
577	0.163
577	0.162
577	0.162
578	0.162
578	0.162
579	0.162
579	0.162
580	0.16
580	0.157
581	0.156
581	0.155
581	0.155
582	0.155
582	0.155
583	0.155
583	0.154
584	0.151
584	0.149
585	0.15
585	0.15
585	0.15
586	0.15
586	0.149
587	0.148
587	0.147
588	0.146
588	0.146
589	0.146
589	0.146
590	0.146
590	0.146
590	0.147
591	0.147
591	0.146
592	0.145
592	0.144
593	0.144
593	0.143
594	0.142
594	0.141
594	0.141
595	0.141
595	0.14
596	0.14
596	0.141
597	0.143
597	0.143
598	0.143
598	0.143
598	0.143
599	0.143
599	0.142
600	0.141
600	0.14
601	0.139
601	0.138
602	0.136
602	0.136
602	0.134
603	0.134
603	0.134
604	0.134
604	0.134
605	0.134
605	0.134
606	0.134
606	0.133
606	0.133
607	0.133
607	0.133
608	0.133
608	0.132
609	0.132
609	0.132
610	0.132
610	0.131
610	0.132
611	0.133
611	0.133
612	0.134
612	0.134
613	0.135
613	0.135
614	0.134
614	0.133
614	0.133
615	0.132
615	0.132
616	0.132
616	0.131
617	0.131
617	0.13
618	0.13
618	0.13
618	0.131
619	0.132
619	0.133
620	0.135
620	0.135
621	0.136
621	0.136
622	0.136
622	0.136
622	0.136
623	0.136
623	0.136
624	0.136
624	0.136
625	0.135
625	0.135
626	0.135
626	0.135
626	0.136
627	0.137
627	0.138
628	0.139
628	0.14
629	0.141
629	0.142
630	0.142
630	0.143
630	0.144
631	0.145
631	0.146
632	0.146
632	0.147
633	0.147
633	0.148
634	0.15
634	0.151
634	0.152
635	0.152
635	0.153
636	0.153
636	0.154
637	0.154
637	0.155
638	0.156
638	0.157
638	0.157
639	0.158
639	0.159
640	0.16
640	0.161
641	0.162
641	0.163
642	0.165
642	0.166
642	0.167
643	0.168
643	0.169
644	0.17
644	0.171
645	0.172
645	0.173
646	0.175
646	0.177
646	0.178
647	0.18
647	0.182
648	0.183
648	0.184
649	0.186
649	0.188
650	0.19
650	0.192
650	0.193
651	0.195
651	0.196
652	0.198
652	0.201
653	0.203
653	0.21
653	0.212
654	0.168
654	0.135
655	0.138
655	0.14
656	0.141
656	0.142
657	0.144
657	0.145
657	0.146
658	0.144
658	0.138
659	0.177
659	0.23
660	0.237
660	0.239
661	0.242
661	0.245
661	0.248
662	0.251
662	0.253
663	0.256
663	0.258
664	0.26
664	0.262
665	0.264
665	0.266
665	0.268
666	0.27
666	0.272
667	0.274
667	0.277
668	0.279
668	0.282
669	0.285
669	0.288
669	0.291
670	0.293
670	0.295
671	0.297
671	0.298
672	0.3
672	0.302
672	0.304
673	0.306
673	0.308
674	0.31
674	0.311
675	0.313
675	0.315
676	0.317
676	0.319
676	0.319
677	0.321
677	0.321
678	0.322
678	0.322
679	0.323
679	0.324
680	0.325
680	0.325
680	0.325
681	0.326
681	0.327
682	0.327
682	0.328
683	0.33
683	0.331
684	0.331
684	0.331
684	0.331
685	0.332
685	0.333
686	0.333
686	0.333
687	0.334
687	0.334
687	0.334
688	0.334
688	0.335
689	0.336
689	0.336
690	0.336
690	0.335
691	0.335
691	0.334
691	0.333
692	0.333
692	0.332
693	0.331
693	0.33
694	0.329
694	0.328
695	0.328
695	0.329
695	0.328
696	0.327
696	0.327
697	0.326
697	0.325
698	0.324
698	0.323
698	0.322
699	0.321
699	0.319
700	0.317
700	0.316
701	0.314
701	0.312
702	0.31
702	0.309
702	0.307
703	0.305
703	0.303
704	0.301
704	0.299
705	0.298
705	0.296
705	0.295
706	0.294
706	0.293
707	0.291
707	0.29
708	0.289
708	0.288
709	0.286
709	0.284
709	0.283
710	0.281
710	0.28
711	0.279
711	0.277
712	0.275
712	0.273
713	0.272
713	0.27
713	0.269
714	0.267
714	0.265
715	0.264
715	0.262
716	0.261
716	0.259
716	0.258
717	0.256
717	0.255
718	0.253
718	0.251
719	0.249
719	0.247
720	0.245
720	0.243
720	0.24
721	0.238
721	0.235
722	0.233
722	0.23
723	0.228
723	0.227
723	0.224
724	0.223
724	0.221
725	0.219
725	0.218
726	0.217
726	0.216
727	0.214
727	0.213
727	0.212
728	0.21
728	0.209
729	0.208
729	0.207
730	0.206
730	0.204
730	0.203
731	0.202
731	0.2
732	0.199
732	0.198
733	0.196
733	0.195
734	0.194
734	0.192
734	0.191
735	0.19
735	0.188
736	0.187
736	0.186
737	0.185
737	0.184
737	0.182
738	0.179
738	0.177
739	0.176
739	0.174
740	0.172
740	0.171
741	0.169
741	0.167
741	0.165
742	0.163
742	0.163
743	0.162
743	0.161
744	0.16
744	0.159
744	0.158
745	0.157
745	0.156
746	0.155
746	0.155
747	0.154
747	0.153
748	0.152
748	0.151
748	0.15
749	0.149
749	0.148
750	0.147
750	0.146
751	0.146
751	0.145
751	0.145
752	0.143
752	0.143
753	0.142
753	0.142
754	0.141
754	0.14
754	0.139
755	0.138
755	0.137
756	0.136
756	0.134
757	0.133
757	0.132
758	0.131
758	0.13
758	0.129
759	0.128
759	0.127
760	0.126
760	0.125
761	0.125
761	0.126
761	0.126
762	0.126
762	0.126
763	0.126
763	0.125
764	0.124
764	0.124
764	0.123
765	0.123
765	0.122
766	0.122
766	0.121
767	0.12
767	0.119
768	0.118
768	0.117
768	0.117
769	0.116
769	0.116
770	0.115
770	0.114
771	0.113
771	0.112
771	0.111
772	0.111
772	0.11
773	0.11
773	0.109
774	0.108
774	0.108
775	0.107
775	0.106
775	0.104
776	0.103
776	0.102
777	0.101
777	0.1
778	0.099
778	0.098
778	0.097
779	0.097
779	0.097
780	0.096
780	0.095
781	0.095
781	0.094
781	0.094
782	0.093
782	0.092
783	0.092
783	0.091
784	0.09
784	0.089
784	0.088
785	0.087
785	0.087
786	0.087
786	0.087
787	0.087
787	0.086
788	0.086
788	0.085
788	0.085
789	0.085
789	0.085
790	0.085
790	0.085
791	0.085
791	0.085
791	0.085
792	0.086
792	0.085
793	0.085
793	0.084
794	0.084
794	0.084
794	0.084
795	0.084
795	0.084
796	0.084
796	0.083
797	0.082
797	0.082
797	0.081
798	0.081
798	0.08
799	0.079
799	0.078
800	0.076
800	0.074
801	0.073
801	0.072
801	0.071
802	0.07
802	0.069
803	0.068
803	0.067
804	0.067
804	0.067
804	0.066
805	0.066
805	0.066
806	0.067
806	0.067
807	0.067
807	0.068
807	0.068
808	0.069
808	0.069
809	0.069
809	0.07
810	0.071
810	0.071
810	0.071
811	0.072
811	0.073
812	0.073
812	0.073
813	0.074
813	0.074
813	0.073
814	0.073
814	0.073
815	0.073
815	0.072
816	0.071
816	0.07
817	0.068
817	0.068
817	0.067
818	0.067
818	0.066
819	0.065
819	0.064
820	0.063
820	0.063
820	0.062
821	0.062
821	0.062
822	0.061
822	0.061
823	0.06
823	0.06
823	0.06
824	0.06
824	0.06
825	0.061
825	0.061
826	0.06
826	0.06
826	0.06
827	0.06
827	0.059
828	0.058
828	0.058
829	0.057
829	0.057
829	0.057
830	0.056
830	0.056
831	0.056
831	0.056
832	0.056
832	0.056
832	0.056
833	0.056
833	0.055
834	0.055
834	0.054
835	0.054
835	0.053
835	0.053
836	0.052
836	0.051
837	0.051
837	0.05
838	0.05
838	0.05
839	0.05
839	0.05
839	0.05
840	0.05
840	0.05
841	0.05
841	0.051
842	0.052
842	0.052
842	0.052
843	0.052
843	0.052
844	0.052
844	0.052
845	0.051
845	0.05
845	0.05
846	0.049
846	0.048
847	0.047
847	0.047
848	0.046
848	0.046
848	0.045
849	0.045
849	0.044
850	0.044
850	0.044
851	0.044
851	0.044
851	0.044
852	0.043
852	0.044
853	0.044
853	0.044
854	0.044
854	0.044
854	0.044
855	0.044
855	0.044
856	0.044
856	0.044
857	0.045
857	0.045
857	0.045
858	0.045
858	0.044
859	0.044
859	0.044
860	0.044
860	0.045
860	0.045
861	0.045
861	0.045
862	0.045
862	0.045
863	0.045
863	0.045
863	0.045
864	0.045
864	0.044
865	0.044
865	0.043
866	0.042
866	0.041
866	0.041
867	0.04
867	0.04
868	0.039
868	0.039
869	0.039
869	0.039
869	0.039
870	0.038
870	0.038
871	0.038
871	0.037
872	0.036
872	0.035
872	0.034
873	0.033
873	0.032
874	0.031
874	0.03
875	0.029
875	0.028
875	0.028
876	0.027
876	0.027
877	0.026
877	0.026
878	0.025
878	0.025
878	0.024
879	0.024
879	0.024
880	0.024
880	0.024
881	0.025
881	0.026
881	0.027
882	0.028
882	0.03
883	0.031
883	0.033
884	0.034
884	0.035
884	0.036
885	0.037
885	0.038
886	0.038
886	0.039
887	0.039
887	0.039
887	0.039
888	0.039
888	0.04
889	0.04
889	0.04
890	0.041
890	0.041
890	0.041
891	0.041
891	0.041
892	0.041
892	0.041
893	0.04
893	0.04
893	0.039
894	0.038
894	0.037
895	0.036
895	0.035
895	0.033
896	0.032
896	0.03
897	0.03
897	0.029
898	0.028
898	0.027
898	0.027
899	0.026
899	0.025
900	0.024
900	0.024
901	0.023
901	0.023
901	0.023
902	0.023
902	0.022
903	0.022
903	0.022
904	0.022
904	0.021
904	0.021
905	0.021
905	0.021
906	0.021
906	0.021
907	0.02
907	0.02
907	0.02
908	0.02
908	0.019
909	0.019
909	0.02
910	0.02
910	0.02
910	0.021
911	0.022
911	0.022
912	0.023
912	0.023
913	0.023
913	0.023
913	0.023
914	0.023
914	0.022
915	0.021
915	0.02
916	0.02
916	0.019
916	0.019
917	0.019
917	0.019
918	0.02
918	0.02
918	0.021
919	0.022
919	0.023
920	0.023
920	0.024
921	0.024
921	0.024
921	0.024
922	0.024
922	0.024
923	0.024
923	0.023
924	0.023
924	0.022
924	0.022
925	0.022
925	0.022
926	0.022
926	0.022
927	0.022
927	0.021
927	0.021
928	0.021
928	0.021
929	0.021
929	0.021
930	0.021
930	0.021
930	0.02
931	0.02
931	0.02
932	0.02
932	0.02
933	0.019
933	0.019
933	0.019
934	0.018
934	0.018
935	0.017
935	0.017
935	0.016
936	0.015
936	0.015
937	0.015
937	0.014
938	0.014
938	0.014
938	0.013
939	0.014
939	0.014
940	0.015
940	0.015
941	0.016
941	0.016
941	0.017
942	0.018
942	0.018
943	0.019
943	0.019
944	0.019
944	0.019
944	0.019
945	0.019
945	0.019
946	0.019
946	0.019
946	0.018
947	0.018
947	0.018
948	0.018
948	0.018
949	0.018
949	0.018
949	0.018
950	0.018
950	0.019
951	0.019
951	0.019
952	0.019
952	0.019
952	0.019
953	0.02
953	0.02
954	0.02
954	0.02
955	0.02
955	0.02
955	0.02
956	0.02
956	0.02
957	0.019
957	0.019
957	0.018
958	0.017
958	0.016
959	0.015
959	0.014
960	0.013
960	0.012
960	0.011
961	0.01
961	0.01
962	0.01
962	0.01
963	0.01
963	0.011
963	0.012
964	0.012
964	0.013
965	0.014
965	0.015
966	0.015
966	0.016
966	0.017
967	0.017
967	0.018
968	0.018
968	0.018
968	0.018
969	0.017
969	0.017
970	0.017
970	0.017
971	0.017
971	0.017
971	0.017
972	0.017
972	0.017
973	0.017
973	0.016
974	0.016
974	0.016
974	0.016
975	0.016
975	0.015
976	0.014
976	0.013
976	0.013
977	0.012
977	0.01
978	0.009
978	0.008
979	0.008
979	0.007
979	0.007
980	0.006
980	0.006
981	0.006
981	0.006
982	0.006
982	0.007
982	0.007
983	0.008
983	0.008
984	0.009
984	0.009
984	0.01
985	0.01
985	0.01
986	0.01
986	0.01
987	0.009
987	0.009
987	0.008
988	0.007
988	0.006
989	0.005
989	0.004
990	0.002
990	0
990	-0.001
991	-0.002
991	-0.004
992	-0.005
992	-0.006
992	-0.008
993	-0.009
993	-0.01
994	-0.011
994	-0.012
995	-0.013
995	-0.013
995	-0.014
996	-0.014
996	-0.014
997	-0.014
997	-0.014
997	-0.013
998	-0.012
998	-0.011
999	-0.01
999	-0.009
1000	-0.008
1000	-0.007
1000	-0.006
1001	-0.004
1001	-0.003
1002	-0.002
1002	-0.001
1003	0
1003	0.001
1003	0.002
1004	0.003
1004	0.003
1005	0.004
1005	0.004
1005	0.005
1006	0.005
1006	0.005
1007	0.005
1007	0.005
1008	0.005
1008	0.005
1008	0.006
1009	0.005
1009	0.005
1010	0.006
1010	0.005
1010	0.005
1011	0.005
1011	0.005
1012	0.004
1012	0.004
1013	0.003
1013	0.002
1013	0.001
1014	0
1014	-0.001
1015	-0.002
1015	-0.003
1016	-0.004
1016	-0.006
1016	-0.006
1017	-0.007
1017	-0.008
1018	-0.009
1018	-0.009
1018	-0.009
1019	-0.009
1019	-0.009
1020	-0.009
1020	-0.009
1021	-0.009
1021	-0.009
1021	-0.009
1022	-0.009
1022	-0.01
1023	-0.01
1023	-0.011
1023	-0.012
1024	-0.013
1024	-0.014
1025	-0.014
1025	-0.015
1026	-0.016
1026	-0.016
1026	-0.017
1027	-0.017
1027	-0.017
1028	-0.017
1028	-0.017
1028	-0.017
1029	-0.016
1029	-0.016
1030	-0.016
1030	-0.015
1031	-0.014
1031	-0.014
1031	-0.014
1032	-0.013
1032	-0.013
1033	-0.013
1033	-0.013
1033	-0.014
1034	-0.014
1034	-0.015
1035	-0.016
1035	-0.017
1036	-0.018
1036	-0.019
1036	-0.02
1037	-0.02
1037	-0.021
1038	-0.022
1038	-0.022
1039	-0.022
1039	-0.022
1039	-0.022
1040	-0.022
1040	-0.022
1041	-0.023
1041	-0.023
1041	-0.024
1042	-0.024
1042	-0.025
1043	-0.025
1043	-0.026
1044	-0.027
1044	-0.027
1044	-0.027
1045	-0.028
1045	-0.028
1046	-0.027
1046	-0.027
1046	-0.026
1047	-0.026
1047	-0.025
1048	-0.024
1048	-0.023
1049	-0.023
1049	-0.023
1049	-0.023
1050	-0.023
1050	-0.023
1051	-0.023
1051	-0.023
1051	-0.024
1052	-0.024
1052	-0.024
1053	-0.024
1053	-0.024
1053	-0.024
1054	-0.024
1054	-0.023
1055	-0.023
1055	-0.023
1056	-0.023
1056	-0.023
1056	-0.024
1057	-0.024
1057	-0.025
1058	-0.026
1058	-0.026
1058	-0.027
1059	-0.028
1059	-0.028
1060	-0.029
1060	-0.03
1061	-0.03
1061	-0.03
1061	-0.031
1062	-0.031
1062	-0.032
1063	-0.033
1063	-0.033
1063	-0.035
1064	-0.035
1064	-0.036
1065	-0.036
1065	-0.037
1066	-0.038
1066	-0.038
1066	-0.039
1067	-0.039
1067	-0.039
1068	-0.04
1068	-0.04
1068	-0.04
1069	-0.041
1069	-0.041
1070	-0.042
1070	-0.042
1071	-0.042
1071	-0.043
1071	-0.043
1072	-0.043
1072	-0.043
1073	-0.043
1073	-0.044
1073	-0.044
1074	-0.044
1074	-0.044
1075	-0.044
1075	-0.044
1076	-0.044
1076	-0.044
1076	-0.045
1077	-0.046
1077	-0.047
1078	-0.047
1078	-0.048
1078	-0.048
1079	-0.048
1079	-0.049
1080	-0.049
1080	-0.049
1080	-0.049
1081	-0.049
1081	-0.049
1082	-0.049
1082	-0.049
1083	-0.049
1083	-0.049
1083	-0.049
1084	-0.049
1084	-0.049
1085	-0.049
1085	-0.049
1085	-0.049
1086	-0.05
1086	-0.051
1087	-0.051
1087	-0.051
1088	-0.052
1088	-0.053
1088	-0.054
1089	-0.055
1089	-0.057
1090	-0.058
1090	-0.059
1090	-0.061
1091	-0.062
1091	-0.064
1092	-0.065
1092	-0.066
1092	-0.067
1093	-0.068
1093	-0.068
1094	-0.069
1094	-0.07
1095	-0.071
1095	-0.071
1095	-0.072
1096	-0.072
1096	-0.072
1097	-0.072
1097	-0.074
1097	-0.074
1098	-0.076
1098	-0.076
1099	-0.077
1099	-0.079
1100	-0.08
1100	-0.081
1100	-0.083
1101	-0.085
1101	-0.087
1102	-0.088
1102	-0.09
1102	-0.092
1103	-0.094
1103	-0.096
1104	-0.096
1104	-0.099
1104	-0.099
1105	-0.101
1105	-0.104
1106	-0.106
1106	-0.108
1107	-0.113
1107	-0.116
1107	-0.119
1108	-0.12
1108	-0.123
1109	-0.125
1109	-0.13
1109	-0.133
1110	-0.133
1110	-0.136
1111	-0.143
1111	-0.136
