Data from 17c-100ul-ns-20ul-nr-full-exp'4ul'bp_Absorbance__141__01512.txt Node

Date: Mon Jan 15 10:18:10 CET 2024
User: Marek
Spectrometer: MAYP115816
Trigger mode: 0
Integration Time (sec): 2.000000E-1
Scans to average: 10
Electric dark correction enabled: true
Nonlinearity correction enabled: true
Boxcar width: 5
XAxis mode: Wavelengths
Number of Pixels in Spectrum: 2068
>>>>>Begin Spectral Data<<<<<
199	-0.511
199	-0.488
200	-0.42
200	-0.356
201	-0.318
201	-0.294
202	-0.272
202	-0.267
203	-0.261
203	-0.259
204	-0.241
204	-0.229
205	-0.213
205	-0.207
205	-0.21
206	-0.212
206	-0.216
207	-0.213
207	-0.213
208	-0.214
208	-0.212
209	-0.211
209	-0.214
210	-0.218
210	-0.218
211	-0.217
211	-0.218
212	-0.22
212	-0.222
213	-0.223
213	-0.222
213	-0.226
214	-0.227
214	-0.227
215	-0.225
215	-0.23
216	-0.232
216	-0.235
217	-0.233
217	-0.233
218	-0.234
218	-0.232
219	-0.228
219	-0.23
220	-0.229
220	-0.231
221	-0.229
221	-0.228
221	-0.222
222	-0.218
222	-0.216
223	-0.209
223	-0.209
224	-0.207
224	-0.198
225	-0.189
225	-0.181
226	-0.174
226	-0.162
227	-0.151
227	-0.142
228	-0.128
228	-0.116
229	-0.097
229	-0.073
229	-0.054
230	-0.032
230	-0.007
231	0.019
231	0.044
232	0.066
232	0.092
233	0.116
233	0.14
234	0.16
234	0.18
235	0.197
235	0.213
236	0.228
236	0.243
236	0.255
237	0.267
237	0.277
238	0.287
238	0.296
239	0.304
239	0.311
240	0.317
240	0.322
241	0.326
241	0.331
242	0.335
242	0.338
243	0.342
243	0.344
243	0.346
244	0.349
244	0.351
245	0.352
245	0.354
246	0.357
246	0.358
247	0.36
247	0.361
248	0.363
248	0.364
249	0.366
249	0.367
250	0.368
250	0.37
250	0.372
251	0.373
251	0.374
252	0.375
252	0.376
253	0.377
253	0.378
254	0.378
254	0.38
255	0.38
255	0.38
256	0.381
256	0.381
257	0.382
257	0.382
258	0.382
258	0.382
258	0.382
259	0.381
259	0.381
260	0.381
260	0.38
261	0.38
261	0.379
262	0.378
262	0.378
263	0.377
263	0.375
264	0.374
264	0.373
265	0.372
265	0.371
265	0.369
266	0.368
266	0.366
267	0.365
267	0.363
268	0.361
268	0.36
269	0.358
269	0.356
270	0.354
270	0.352
271	0.35
271	0.348
272	0.346
272	0.344
272	0.342
273	0.34
273	0.338
274	0.336
274	0.333
275	0.331
275	0.329
276	0.327
276	0.325
277	0.323
277	0.32
278	0.318
278	0.316
278	0.314
279	0.311
279	0.309
280	0.306
280	0.304
281	0.301
281	0.299
282	0.296
282	0.294
283	0.292
283	0.29
284	0.287
284	0.285
285	0.284
285	0.281
285	0.28
286	0.278
286	0.276
287	0.274
287	0.273
288	0.271
288	0.269
289	0.268
289	0.266
290	0.264
290	0.263
291	0.261
291	0.26
292	0.259
292	0.257
292	0.256
293	0.255
293	0.254
294	0.252
294	0.251
295	0.25
295	0.249
296	0.248
296	0.247
297	0.246
297	0.245
298	0.245
298	0.244
298	0.243
299	0.242
299	0.241
300	0.24
300	0.24
301	0.239
301	0.238
302	0.237
302	0.237
303	0.236
303	0.235
304	0.235
304	0.234
305	0.234
305	0.233
305	0.232
306	0.232
306	0.232
307	0.231
307	0.23
308	0.23
308	0.229
309	0.228
309	0.228
310	0.227
310	0.227
311	0.226
311	0.225
311	0.225
312	0.224
312	0.224
313	0.223
313	0.223
314	0.222
314	0.221
315	0.221
315	0.22
316	0.22
316	0.219
317	0.219
317	0.218
318	0.218
318	0.217
318	0.217
319	0.216
319	0.216
320	0.215
320	0.215
321	0.214
321	0.213
322	0.213
322	0.212
323	0.212
323	0.211
324	0.21
324	0.21
324	0.209
325	0.209
325	0.208
326	0.208
326	0.207
327	0.207
327	0.206
328	0.206
328	0.205
329	0.205
329	0.204
330	0.204
330	0.203
330	0.203
331	0.202
331	0.202
332	0.201
332	0.201
333	0.2
333	0.199
334	0.199
334	0.198
335	0.198
335	0.197
336	0.197
336	0.197
336	0.196
337	0.196
337	0.195
338	0.195
338	0.194
339	0.194
339	0.194
340	0.193
340	0.193
341	0.192
341	0.192
342	0.192
342	0.191
342	0.191
343	0.19
343	0.19
344	0.19
344	0.19
345	0.189
345	0.189
346	0.189
346	0.188
347	0.188
347	0.188
348	0.188
348	0.188
348	0.187
349	0.187
349	0.186
350	0.186
350	0.186
351	0.186
351	0.186
352	0.185
352	0.185
353	0.185
353	0.185
354	0.185
354	0.184
354	0.184
355	0.184
355	0.184
356	0.184
356	0.184
357	0.184
357	0.184
358	0.184
358	0.183
359	0.183
359	0.183
360	0.183
360	0.183
360	0.183
361	0.182
361	0.182
362	0.182
362	0.182
363	0.181
363	0.181
364	0.181
364	0.181
365	0.181
365	0.181
366	0.181
366	0.181
366	0.181
367	0.181
367	0.181
368	0.181
368	0.181
369	0.18
369	0.18
370	0.18
370	0.18
371	0.181
371	0.18
372	0.18
372	0.18
372	0.18
373	0.18
373	0.18
374	0.18
374	0.18
375	0.18
375	0.18
376	0.179
376	0.179
377	0.179
377	0.179
378	0.179
378	0.178
378	0.178
379	0.178
379	0.178
380	0.178
380	0.178
381	0.177
381	0.177
382	0.177
382	0.177
383	0.176
383	0.176
383	0.176
384	0.176
384	0.176
385	0.175
385	0.175
386	0.175
386	0.175
387	0.175
387	0.175
388	0.175
388	0.175
389	0.175
389	0.174
389	0.174
390	0.174
390	0.174
391	0.174
391	0.174
392	0.174
392	0.174
393	0.174
393	0.174
394	0.174
394	0.174
394	0.173
395	0.173
395	0.173
396	0.173
396	0.173
397	0.172
397	0.172
398	0.172
398	0.172
399	0.172
399	0.172
400	0.172
400	0.171
400	0.171
401	0.171
401	0.171
402	0.17
402	0.17
403	0.17
403	0.17
404	0.17
404	0.17
405	0.17
405	0.17
405	0.169
406	0.17
406	0.169
407	0.169
407	0.169
408	0.169
408	0.169
409	0.169
409	0.169
410	0.169
410	0.168
411	0.168
411	0.168
411	0.168
412	0.167
412	0.167
413	0.167
413	0.166
414	0.166
414	0.166
415	0.166
415	0.166
416	0.165
416	0.165
416	0.165
417	0.165
417	0.165
418	0.165
418	0.165
419	0.165
419	0.165
420	0.165
420	0.165
421	0.165
421	0.165
421	0.165
422	0.165
422	0.165
423	0.165
423	0.164
424	0.164
424	0.164
425	0.164
425	0.164
426	0.164
426	0.164
427	0.163
427	0.163
427	0.163
428	0.163
428	0.163
429	0.163
429	0.163
430	0.163
430	0.163
431	0.163
431	0.163
432	0.163
432	0.163
432	0.162
433	0.162
433	0.162
434	0.162
434	0.162
435	0.161
435	0.161
436	0.161
436	0.161
437	0.161
437	0.16
437	0.16
438	0.16
438	0.16
439	0.16
439	0.16
440	0.16
440	0.16
441	0.159
441	0.159
442	0.159
442	0.159
442	0.159
443	0.159
443	0.159
444	0.159
444	0.159
445	0.159
445	0.159
446	0.159
446	0.159
447	0.159
447	0.159
447	0.159
448	0.159
448	0.159
449	0.159
449	0.159
450	0.159
450	0.159
451	0.158
451	0.159
452	0.159
452	0.159
452	0.158
453	0.158
453	0.158
454	0.158
454	0.158
455	0.158
455	0.159
456	0.159
456	0.158
457	0.158
457	0.159
458	0.159
458	0.159
458	0.159
459	0.159
459	0.159
460	0.159
460	0.159
461	0.159
461	0.159
462	0.159
462	0.159
463	0.159
463	0.159
463	0.159
464	0.159
464	0.159
465	0.159
465	0.159
466	0.159
466	0.16
467	0.16
467	0.16
467	0.159
468	0.159
468	0.159
469	0.159
469	0.16
470	0.16
470	0.16
471	0.16
471	0.16
472	0.161
472	0.161
472	0.162
473	0.162
473	0.163
474	0.163
474	0.163
475	0.164
475	0.164
476	0.164
476	0.164
477	0.164
477	0.164
477	0.165
478	0.165
478	0.165
479	0.165
479	0.165
480	0.166
480	0.166
481	0.167
481	0.168
482	0.168
482	0.169
482	0.17
483	0.171
483	0.172
484	0.173
484	0.172
485	0.173
485	0.173
486	0.174
486	0.174
487	0.175
487	0.176
487	0.176
488	0.177
488	0.177
489	0.178
489	0.18
490	0.181
490	0.182
491	0.182
491	0.183
492	0.184
492	0.185
492	0.186
493	0.187
493	0.188
494	0.19
494	0.191
495	0.192
495	0.194
496	0.195
496	0.197
496	0.198
497	0.2
497	0.201
498	0.202
498	0.203
499	0.204
499	0.205
500	0.206
500	0.208
501	0.209
501	0.21
501	0.21
502	0.212
502	0.213
503	0.215
503	0.216
504	0.217
504	0.218
505	0.219
505	0.22
506	0.222
506	0.223
506	0.225
507	0.226
507	0.227
508	0.229
508	0.23
509	0.231
509	0.233
510	0.234
510	0.236
511	0.237
511	0.238
511	0.239
512	0.24
512	0.241
513	0.242
513	0.243
514	0.244
514	0.245
515	0.246
515	0.246
515	0.247
516	0.248
516	0.249
517	0.25
517	0.251
518	0.251
518	0.252
519	0.252
519	0.253
520	0.253
520	0.254
520	0.254
521	0.254
521	0.255
522	0.255
522	0.255
523	0.255
523	0.256
524	0.256
524	0.257
524	0.257
525	0.257
525	0.257
526	0.257
526	0.257
527	0.257
527	0.257
528	0.256
528	0.256
529	0.256
529	0.256
529	0.255
530	0.255
530	0.255
531	0.255
531	0.254
532	0.254
532	0.253
533	0.252
533	0.252
533	0.251
534	0.25
534	0.25
535	0.249
535	0.249
536	0.248
536	0.248
537	0.247
537	0.247
538	0.246
538	0.245
538	0.245
539	0.244
539	0.243
540	0.242
540	0.241
541	0.239
541	0.238
542	0.237
542	0.236
542	0.235
543	0.235
543	0.234
544	0.233
544	0.232
545	0.232
545	0.231
546	0.23
546	0.229
547	0.228
547	0.226
547	0.225
548	0.225
548	0.223
549	0.222
549	0.221
550	0.22
550	0.218
551	0.217
551	0.216
551	0.215
552	0.214
552	0.213
553	0.212
553	0.211
554	0.21
554	0.208
555	0.207
555	0.206
556	0.205
556	0.204
556	0.202
557	0.201
557	0.201
558	0.199
558	0.198
559	0.197
559	0.196
560	0.194
560	0.193
560	0.192
561	0.192
561	0.191
562	0.19
562	0.188
563	0.187
563	0.186
564	0.185
564	0.184
564	0.183
565	0.183
565	0.181
566	0.18
566	0.179
567	0.178
567	0.177
568	0.177
568	0.176
568	0.175
569	0.175
569	0.174
570	0.172
570	0.171
571	0.171
571	0.17
572	0.169
572	0.168
573	0.167
573	0.165
573	0.164
574	0.163
574	0.163
575	0.163
575	0.163
576	0.163
576	0.161
577	0.16
577	0.159
577	0.159
578	0.158
578	0.158
579	0.159
579	0.158
580	0.157
580	0.154
581	0.152
581	0.152
581	0.152
582	0.152
582	0.152
583	0.152
583	0.151
584	0.148
584	0.146
585	0.147
585	0.148
585	0.147
586	0.147
586	0.147
587	0.145
587	0.144
588	0.143
588	0.143
589	0.143
589	0.143
590	0.143
590	0.143
590	0.144
591	0.144
591	0.143
592	0.142
592	0.14
593	0.14
593	0.14
594	0.139
594	0.138
594	0.137
595	0.137
595	0.137
596	0.137
596	0.138
597	0.14
597	0.14
598	0.14
598	0.141
598	0.141
599	0.14
599	0.14
600	0.139
600	0.138
601	0.137
601	0.136
602	0.134
602	0.133
602	0.132
603	0.132
603	0.132
604	0.132
604	0.132
605	0.132
605	0.132
606	0.132
606	0.131
606	0.131
607	0.131
607	0.131
608	0.131
608	0.13
609	0.13
609	0.13
610	0.129
610	0.129
610	0.13
611	0.13
611	0.131
612	0.131
612	0.132
613	0.132
613	0.133
614	0.132
614	0.131
614	0.131
615	0.13
615	0.13
616	0.13
616	0.129
617	0.129
617	0.128
618	0.128
618	0.129
618	0.129
619	0.13
619	0.132
620	0.133
620	0.134
621	0.134
621	0.134
622	0.135
622	0.135
622	0.134
623	0.134
623	0.135
624	0.135
624	0.134
625	0.134
625	0.134
626	0.134
626	0.134
626	0.135
627	0.136
627	0.137
628	0.138
628	0.139
629	0.139
629	0.14
630	0.14
630	0.141
630	0.142
631	0.144
631	0.144
632	0.144
632	0.145
633	0.146
633	0.147
634	0.148
634	0.15
634	0.151
635	0.151
635	0.151
636	0.152
636	0.153
637	0.153
637	0.154
638	0.155
638	0.155
638	0.156
639	0.156
639	0.157
640	0.158
640	0.16
641	0.161
641	0.162
642	0.163
642	0.164
642	0.165
643	0.166
643	0.167
644	0.169
644	0.17
645	0.171
645	0.172
646	0.174
646	0.176
646	0.178
647	0.179
647	0.181
648	0.182
648	0.184
649	0.186
649	0.188
650	0.189
650	0.191
650	0.192
651	0.194
651	0.196
652	0.198
652	0.2
653	0.203
653	0.209
653	0.212
654	0.168
654	0.135
655	0.138
655	0.14
656	0.141
656	0.142
657	0.144
657	0.145
657	0.146
658	0.143
658	0.138
659	0.176
659	0.23
660	0.236
660	0.239
661	0.241
661	0.244
661	0.247
662	0.25
662	0.253
663	0.255
663	0.257
664	0.259
664	0.261
665	0.263
665	0.265
665	0.267
666	0.269
666	0.271
667	0.273
667	0.275
668	0.278
668	0.28
669	0.283
669	0.286
669	0.289
670	0.291
670	0.293
671	0.295
671	0.297
672	0.299
672	0.301
672	0.303
673	0.305
673	0.307
674	0.309
674	0.31
675	0.312
675	0.314
676	0.317
676	0.318
676	0.319
677	0.32
677	0.321
678	0.321
678	0.322
679	0.323
679	0.323
680	0.324
680	0.325
680	0.325
681	0.325
681	0.326
682	0.327
682	0.328
683	0.329
683	0.33
684	0.33
684	0.33
684	0.33
685	0.331
685	0.332
686	0.332
686	0.332
687	0.333
687	0.333
687	0.333
688	0.333
688	0.334
689	0.335
689	0.335
690	0.335
690	0.334
691	0.333
691	0.333
691	0.332
692	0.331
692	0.33
693	0.33
693	0.329
694	0.328
694	0.327
695	0.327
695	0.328
695	0.327
696	0.326
696	0.326
697	0.325
697	0.324
698	0.323
698	0.322
698	0.321
699	0.32
699	0.318
700	0.316
700	0.315
701	0.313
701	0.311
702	0.309
702	0.307
702	0.305
703	0.303
703	0.301
704	0.299
704	0.298
705	0.296
705	0.294
705	0.293
706	0.292
706	0.291
707	0.29
707	0.288
708	0.287
708	0.286
709	0.285
709	0.283
709	0.281
710	0.279
710	0.278
711	0.277
711	0.275
712	0.273
712	0.271
713	0.269
713	0.268
713	0.266
714	0.265
714	0.263
715	0.262
715	0.261
716	0.259
716	0.258
716	0.256
717	0.254
717	0.253
718	0.251
718	0.249
719	0.247
719	0.245
720	0.243
720	0.24
720	0.238
721	0.235
721	0.233
722	0.231
722	0.228
723	0.227
723	0.225
723	0.223
724	0.221
724	0.22
725	0.218
725	0.217
726	0.216
726	0.214
727	0.213
727	0.212
727	0.21
728	0.208
728	0.207
729	0.206
729	0.205
730	0.203
730	0.201
730	0.2
731	0.199
731	0.198
732	0.196
732	0.195
733	0.194
733	0.192
734	0.191
734	0.189
734	0.188
735	0.187
735	0.186
736	0.185
736	0.184
737	0.183
737	0.182
737	0.18
738	0.178
738	0.176
739	0.175
739	0.173
740	0.171
740	0.17
741	0.168
741	0.166
741	0.164
742	0.162
742	0.161
743	0.16
743	0.159
744	0.158
744	0.157
744	0.156
745	0.155
745	0.154
746	0.153
746	0.153
747	0.152
747	0.151
748	0.15
748	0.149
748	0.148
749	0.147
749	0.146
750	0.145
750	0.144
751	0.144
751	0.143
751	0.143
752	0.141
752	0.14
753	0.14
753	0.14
754	0.139
754	0.138
754	0.137
755	0.136
755	0.135
756	0.134
756	0.132
757	0.131
757	0.131
758	0.13
758	0.129
758	0.128
759	0.127
759	0.125
760	0.124
760	0.124
761	0.124
761	0.124
761	0.124
762	0.124
762	0.124
763	0.124
763	0.123
764	0.122
764	0.122
764	0.121
765	0.12
765	0.12
766	0.119
766	0.119
767	0.118
767	0.117
768	0.116
768	0.116
768	0.115
769	0.115
769	0.114
770	0.113
770	0.112
771	0.111
771	0.11
771	0.109
772	0.109
772	0.108
773	0.108
773	0.107
774	0.106
774	0.106
775	0.105
775	0.103
775	0.102
776	0.101
776	0.1
777	0.099
777	0.098
778	0.096
778	0.096
778	0.095
779	0.095
779	0.095
780	0.094
780	0.094
781	0.093
781	0.093
781	0.092
782	0.092
782	0.091
783	0.091
783	0.09
784	0.089
784	0.088
784	0.088
785	0.087
785	0.087
786	0.086
786	0.086
787	0.086
787	0.086
788	0.085
788	0.085
788	0.085
789	0.085
789	0.086
790	0.086
790	0.086
791	0.086
791	0.085
791	0.085
792	0.086
792	0.085
793	0.085
793	0.084
794	0.084
794	0.083
794	0.083
795	0.084
795	0.083
796	0.083
796	0.082
797	0.081
797	0.081
797	0.08
798	0.08
798	0.079
799	0.078
799	0.077
800	0.075
800	0.073
801	0.072
801	0.071
801	0.07
802	0.069
802	0.068
803	0.067
803	0.066
804	0.066
804	0.066
804	0.066
805	0.066
805	0.066
806	0.066
806	0.067
807	0.067
807	0.068
807	0.068
808	0.069
808	0.069
809	0.069
809	0.07
810	0.07
810	0.071
810	0.071
811	0.072
811	0.073
812	0.073
812	0.073
813	0.073
813	0.073
813	0.073
814	0.073
814	0.073
815	0.072
815	0.072
816	0.071
816	0.069
817	0.068
817	0.068
817	0.067
818	0.066
818	0.066
819	0.065
819	0.064
820	0.063
820	0.062
820	0.062
821	0.062
821	0.061
822	0.061
822	0.061
823	0.06
823	0.06
823	0.06
824	0.06
824	0.06
825	0.06
825	0.06
826	0.06
826	0.059
826	0.059
827	0.058
827	0.058
828	0.057
828	0.056
829	0.056
829	0.055
829	0.055
830	0.054
830	0.055
831	0.055
831	0.055
832	0.055
832	0.055
832	0.055
833	0.055
833	0.055
834	0.054
834	0.054
835	0.053
835	0.053
835	0.052
836	0.052
836	0.051
837	0.05
837	0.05
838	0.05
838	0.05
839	0.049
839	0.049
839	0.049
840	0.049
840	0.05
841	0.05
841	0.051
842	0.051
842	0.052
842	0.052
843	0.052
843	0.052
844	0.052
844	0.051
845	0.051
845	0.05
845	0.05
846	0.049
846	0.048
847	0.047
847	0.047
848	0.046
848	0.046
848	0.046
849	0.045
849	0.045
850	0.044
850	0.044
851	0.044
851	0.044
851	0.043
852	0.043
852	0.044
853	0.044
853	0.044
854	0.044
854	0.044
854	0.044
855	0.044
855	0.044
856	0.044
856	0.045
857	0.045
857	0.045
857	0.045
858	0.045
858	0.045
859	0.045
859	0.045
860	0.045
860	0.045
860	0.045
861	0.045
861	0.045
862	0.045
862	0.045
863	0.046
863	0.046
863	0.045
864	0.045
864	0.044
865	0.044
865	0.043
866	0.042
866	0.041
866	0.041
867	0.04
867	0.04
868	0.039
868	0.039
869	0.039
869	0.039
869	0.039
870	0.039
870	0.039
871	0.038
871	0.038
872	0.037
872	0.035
872	0.034
873	0.034
873	0.032
874	0.031
874	0.03
875	0.029
875	0.028
875	0.028
876	0.027
876	0.026
877	0.026
877	0.025
878	0.024
878	0.024
878	0.024
879	0.023
879	0.023
880	0.023
880	0.024
881	0.024
881	0.025
881	0.027
882	0.028
882	0.029
883	0.031
883	0.032
884	0.034
884	0.035
884	0.036
885	0.037
885	0.038
886	0.039
886	0.039
887	0.04
887	0.04
887	0.04
888	0.04
888	0.04
889	0.04
889	0.041
890	0.041
890	0.041
890	0.042
891	0.042
891	0.042
892	0.042
892	0.041
893	0.041
893	0.04
893	0.039
894	0.038
894	0.037
895	0.036
895	0.034
895	0.033
896	0.031
896	0.03
897	0.029
897	0.028
898	0.027
898	0.027
898	0.026
899	0.025
899	0.024
900	0.023
900	0.023
901	0.023
901	0.023
901	0.023
902	0.022
902	0.022
903	0.022
903	0.022
904	0.022
904	0.022
904	0.022
905	0.022
905	0.022
906	0.022
906	0.021
907	0.021
907	0.021
907	0.02
908	0.02
908	0.02
909	0.02
909	0.02
910	0.02
910	0.021
910	0.022
911	0.022
911	0.023
912	0.024
912	0.024
913	0.024
913	0.024
913	0.024
914	0.023
914	0.022
915	0.022
915	0.021
916	0.02
916	0.019
916	0.019
917	0.019
917	0.019
918	0.02
918	0.02
918	0.021
919	0.022
919	0.023
920	0.024
920	0.024
921	0.025
921	0.025
921	0.024
922	0.024
922	0.024
923	0.024
923	0.024
924	0.023
924	0.023
924	0.022
925	0.022
925	0.022
926	0.022
926	0.022
927	0.022
927	0.022
927	0.022
928	0.022
928	0.022
929	0.022
929	0.022
930	0.021
930	0.021
930	0.021
931	0.021
931	0.02
932	0.02
932	0.02
933	0.02
933	0.019
933	0.019
934	0.019
934	0.018
935	0.017
935	0.017
935	0.016
936	0.015
936	0.015
937	0.014
937	0.014
938	0.013
938	0.013
938	0.013
939	0.013
939	0.013
940	0.014
940	0.014
941	0.015
941	0.016
941	0.017
942	0.017
942	0.018
943	0.019
943	0.019
944	0.019
944	0.02
944	0.02
945	0.02
945	0.02
946	0.02
946	0.02
946	0.02
947	0.02
947	0.02
948	0.02
948	0.02
949	0.02
949	0.02
949	0.02
950	0.02
950	0.02
951	0.02
951	0.02
952	0.02
952	0.02
952	0.02
953	0.02
953	0.02
954	0.02
954	0.02
955	0.02
955	0.02
955	0.02
956	0.02
956	0.02
957	0.019
957	0.018
957	0.017
958	0.016
958	0.015
959	0.014
959	0.013
960	0.012
960	0.011
960	0.01
961	0.01
961	0.009
962	0.009
962	0.01
963	0.01
963	0.011
963	0.012
964	0.012
964	0.013
965	0.014
965	0.015
966	0.016
966	0.016
966	0.017
967	0.018
967	0.018
968	0.018
968	0.018
968	0.018
969	0.018
969	0.018
970	0.018
970	0.018
971	0.018
971	0.018
971	0.018
972	0.018
972	0.018
973	0.018
973	0.017
974	0.017
974	0.017
974	0.017
975	0.016
975	0.016
976	0.015
976	0.014
976	0.013
977	0.012
977	0.011
978	0.009
978	0.008
979	0.008
979	0.007
979	0.006
980	0.006
980	0.006
981	0.005
981	0.006
982	0.006
982	0.007
982	0.007
983	0.008
983	0.008
984	0.009
984	0.01
984	0.01
985	0.011
985	0.011
986	0.011
986	0.011
987	0.01
987	0.01
987	0.009
988	0.008
988	0.007
989	0.006
989	0.004
990	0.003
990	0.001
990	-0
991	-0.002
991	-0.003
992	-0.004
992	-0.006
992	-0.007
993	-0.009
993	-0.01
994	-0.011
994	-0.012
995	-0.013
995	-0.013
995	-0.014
996	-0.014
996	-0.014
997	-0.014
997	-0.014
997	-0.013
998	-0.013
998	-0.011
999	-0.01
999	-0.009
1000	-0.008
1000	-0.007
1000	-0.006
1001	-0.005
1001	-0.003
1002	-0.002
1002	-0.001
1003	0
1003	0.001
1003	0.002
1004	0.003
1004	0.003
1005	0.004
1005	0.004
1005	0.005
1006	0.005
1006	0.005
1007	0.005
1007	0.005
1008	0.005
1008	0.005
1008	0.006
1009	0.006
1009	0.006
1010	0.006
1010	0.006
1010	0.006
1011	0.006
1011	0.006
1012	0.005
1012	0.005
1013	0.004
1013	0.004
1013	0.003
1014	0.002
1014	0
1015	-0.001
1015	-0.002
1016	-0.003
1016	-0.004
1016	-0.005
1017	-0.005
1017	-0.006
1018	-0.007
1018	-0.007
1018	-0.007
1019	-0.007
1019	-0.007
1020	-0.007
1020	-0.007
1021	-0.007
1021	-0.007
1021	-0.008
1022	-0.008
1022	-0.008
1023	-0.009
1023	-0.01
1023	-0.011
1024	-0.012
1024	-0.013
1025	-0.013
1025	-0.014
1026	-0.015
1026	-0.016
1026	-0.016
1027	-0.016
1027	-0.017
1028	-0.016
1028	-0.016
1028	-0.016
1029	-0.016
1029	-0.015
1030	-0.015
1030	-0.014
1031	-0.014
1031	-0.013
1031	-0.012
1032	-0.012
1032	-0.012
1033	-0.012
1033	-0.012
1033	-0.013
1034	-0.013
1034	-0.014
1035	-0.015
1035	-0.016
1036	-0.017
1036	-0.018
1036	-0.019
1037	-0.02
1037	-0.02
1038	-0.021
1038	-0.021
1039	-0.021
1039	-0.021
1039	-0.021
1040	-0.022
1040	-0.022
1041	-0.022
1041	-0.023
1041	-0.023
1042	-0.024
1042	-0.024
1043	-0.025
1043	-0.026
1044	-0.026
1044	-0.027
1044	-0.027
1045	-0.027
1045	-0.028
1046	-0.027
1046	-0.027
1046	-0.027
1047	-0.026
1047	-0.025
1048	-0.024
1048	-0.023
1049	-0.023
1049	-0.023
1049	-0.023
1050	-0.023
1050	-0.023
1051	-0.023
1051	-0.024
1051	-0.024
1052	-0.024
1052	-0.024
1053	-0.024
1053	-0.024
1053	-0.024
1054	-0.024
1054	-0.023
1055	-0.023
1055	-0.023
1056	-0.023
1056	-0.024
1056	-0.024
1057	-0.025
1057	-0.026
1058	-0.026
1058	-0.027
1058	-0.027
1059	-0.028
1059	-0.029
1060	-0.029
1060	-0.029
1061	-0.03
1061	-0.03
1061	-0.03
1062	-0.031
1062	-0.032
1063	-0.033
1063	-0.034
1063	-0.035
1064	-0.035
1064	-0.036
1065	-0.037
1065	-0.038
1066	-0.038
1066	-0.039
1066	-0.039
1067	-0.04
1067	-0.04
1068	-0.04
1068	-0.04
1068	-0.041
1069	-0.041
1069	-0.042
1070	-0.042
1070	-0.043
1071	-0.043
1071	-0.042
1071	-0.043
1072	-0.043
1072	-0.043
1073	-0.044
1073	-0.043
1073	-0.044
1074	-0.044
1074	-0.043
1075	-0.044
1075	-0.044
1076	-0.045
1076	-0.045
1076	-0.046
1077	-0.046
1077	-0.047
1078	-0.047
1078	-0.047
1078	-0.048
1079	-0.048
1079	-0.048
1080	-0.048
1080	-0.048
1080	-0.048
1081	-0.048
1081	-0.048
1082	-0.047
1082	-0.048
1083	-0.048
1083	-0.049
1083	-0.048
1084	-0.049
1084	-0.048
1085	-0.048
1085	-0.048
1085	-0.048
1086	-0.049
1086	-0.05
1087	-0.05
1087	-0.05
1088	-0.051
1088	-0.052
1088	-0.053
1089	-0.054
1089	-0.056
1090	-0.057
1090	-0.059
1090	-0.061
1091	-0.062
1091	-0.062
1092	-0.064
1092	-0.065
1092	-0.066
1093	-0.067
1093	-0.067
1094	-0.068
1094	-0.068
1095	-0.069
1095	-0.069
1095	-0.07
1096	-0.071
1096	-0.072
1097	-0.072
1097	-0.074
1097	-0.074
1098	-0.076
1098	-0.077
1099	-0.078
1099	-0.08
1100	-0.082
1100	-0.083
1100	-0.085
1101	-0.087
1101	-0.089
1102	-0.091
1102	-0.093
1102	-0.093
1103	-0.095
1103	-0.097
1104	-0.097
1104	-0.098
1104	-0.099
1105	-0.101
1105	-0.104
1106	-0.107
1106	-0.109
1107	-0.114
1107	-0.117
1107	-0.121
1108	-0.123
1108	-0.125
1109	-0.129
1109	-0.134
1109	-0.136
1110	-0.137
1110	-0.141
1111	-0.145
1111	-0.138
