Data from 17c-100ul-ns-20ul-nr-full-exp'4ul'bp_Absorbance__1132__02503.txt Node

Date: Mon Jan 15 10:51:12 CET 2024
User: Marek
Spectrometer: MAYP115816
Trigger mode: 0
Integration Time (sec): 2.000000E-1
Scans to average: 10
Electric dark correction enabled: true
Nonlinearity correction enabled: true
Boxcar width: 5
XAxis mode: Wavelengths
Number of Pixels in Spectrum: 2068
>>>>>Begin Spectral Data<<<<<
199	-0.532
199	-0.505
200	-0.434
200	-0.374
201	-0.334
201	-0.311
202	-0.289
202	-0.284
203	-0.277
203	-0.274
204	-0.257
204	-0.242
205	-0.228
205	-0.222
205	-0.225
206	-0.226
206	-0.231
207	-0.229
207	-0.23
208	-0.231
208	-0.23
209	-0.229
209	-0.235
210	-0.238
210	-0.239
211	-0.238
211	-0.24
212	-0.241
212	-0.242
213	-0.242
213	-0.243
213	-0.247
214	-0.247
214	-0.249
215	-0.248
215	-0.253
216	-0.255
216	-0.258
217	-0.256
217	-0.256
218	-0.256
218	-0.254
219	-0.25
219	-0.252
220	-0.25
220	-0.251
221	-0.248
221	-0.246
221	-0.241
222	-0.238
222	-0.236
223	-0.23
223	-0.229
224	-0.229
224	-0.22
225	-0.211
225	-0.204
226	-0.198
226	-0.189
227	-0.177
227	-0.17
228	-0.155
228	-0.144
229	-0.126
229	-0.103
229	-0.084
230	-0.063
230	-0.037
231	-0.011
231	0.014
232	0.035
232	0.06
233	0.083
233	0.107
234	0.126
234	0.144
235	0.162
235	0.176
236	0.19
236	0.204
236	0.216
237	0.226
237	0.235
238	0.245
238	0.252
239	0.26
239	0.266
240	0.27
240	0.275
241	0.279
241	0.282
242	0.285
242	0.288
243	0.291
243	0.293
243	0.295
244	0.296
244	0.298
245	0.3
245	0.301
246	0.303
246	0.304
247	0.306
247	0.307
248	0.308
248	0.31
249	0.311
249	0.312
250	0.313
250	0.314
250	0.316
251	0.316
251	0.317
252	0.318
252	0.319
253	0.32
253	0.32
254	0.321
254	0.322
255	0.322
255	0.323
256	0.323
256	0.324
257	0.324
257	0.324
258	0.324
258	0.324
258	0.324
259	0.324
259	0.324
260	0.323
260	0.323
261	0.322
261	0.322
262	0.321
262	0.32
263	0.319
263	0.318
264	0.317
264	0.316
265	0.315
265	0.314
265	0.312
266	0.311
266	0.31
267	0.308
267	0.307
268	0.305
268	0.303
269	0.302
269	0.3
270	0.298
270	0.296
271	0.294
271	0.292
272	0.29
272	0.289
272	0.287
273	0.285
273	0.283
274	0.281
274	0.279
275	0.277
275	0.275
276	0.273
276	0.271
277	0.269
277	0.267
278	0.265
278	0.264
278	0.262
279	0.259
279	0.257
280	0.255
280	0.252
281	0.25
281	0.248
282	0.246
282	0.244
283	0.241
283	0.239
284	0.237
284	0.235
285	0.234
285	0.232
285	0.23
286	0.229
286	0.227
287	0.226
287	0.224
288	0.223
288	0.221
289	0.22
289	0.219
290	0.217
290	0.216
291	0.215
291	0.214
292	0.212
292	0.211
292	0.21
293	0.209
293	0.208
294	0.207
294	0.206
295	0.205
295	0.204
296	0.203
296	0.202
297	0.202
297	0.201
298	0.2
298	0.199
298	0.199
299	0.198
299	0.198
300	0.197
300	0.197
301	0.196
301	0.196
302	0.195
302	0.194
303	0.194
303	0.194
304	0.193
304	0.193
305	0.192
305	0.192
305	0.191
306	0.191
306	0.191
307	0.19
307	0.189
308	0.189
308	0.188
309	0.188
309	0.188
310	0.187
310	0.187
311	0.186
311	0.186
311	0.185
312	0.185
312	0.185
313	0.184
313	0.184
314	0.183
314	0.183
315	0.183
315	0.182
316	0.182
316	0.182
317	0.181
317	0.181
318	0.18
318	0.18
318	0.18
319	0.179
319	0.179
320	0.178
320	0.178
321	0.177
321	0.177
322	0.176
322	0.176
323	0.176
323	0.175
324	0.175
324	0.174
324	0.174
325	0.173
325	0.173
326	0.173
326	0.173
327	0.172
327	0.172
328	0.171
328	0.171
329	0.171
329	0.17
330	0.17
330	0.169
330	0.169
331	0.169
331	0.168
332	0.168
332	0.167
333	0.167
333	0.166
334	0.166
334	0.165
335	0.165
335	0.164
336	0.164
336	0.163
336	0.163
337	0.163
337	0.162
338	0.162
338	0.161
339	0.161
339	0.161
340	0.161
340	0.16
341	0.16
341	0.16
342	0.159
342	0.159
342	0.159
343	0.158
343	0.158
344	0.158
344	0.157
345	0.157
345	0.157
346	0.157
346	0.156
347	0.156
347	0.156
348	0.156
348	0.156
348	0.155
349	0.155
349	0.155
350	0.155
350	0.155
351	0.155
351	0.155
352	0.154
352	0.154
353	0.154
353	0.154
354	0.154
354	0.154
354	0.153
355	0.153
355	0.153
356	0.153
356	0.153
357	0.153
357	0.153
358	0.153
358	0.152
359	0.152
359	0.152
360	0.152
360	0.152
360	0.152
361	0.151
361	0.151
362	0.151
362	0.151
363	0.151
363	0.151
364	0.151
364	0.151
365	0.151
365	0.151
366	0.151
366	0.151
366	0.151
367	0.151
367	0.151
368	0.15
368	0.15
369	0.15
369	0.15
370	0.15
370	0.15
371	0.15
371	0.15
372	0.15
372	0.15
372	0.15
373	0.15
373	0.15
374	0.15
374	0.15
375	0.15
375	0.15
376	0.15
376	0.149
377	0.149
377	0.149
378	0.149
378	0.149
378	0.149
379	0.149
379	0.149
380	0.149
380	0.149
381	0.149
381	0.149
382	0.149
382	0.149
383	0.148
383	0.148
383	0.148
384	0.148
384	0.148
385	0.147
385	0.147
386	0.147
386	0.147
387	0.147
387	0.147
388	0.147
388	0.146
389	0.146
389	0.147
389	0.147
390	0.147
390	0.147
391	0.147
391	0.147
392	0.146
392	0.146
393	0.147
393	0.146
394	0.146
394	0.146
394	0.146
395	0.146
395	0.145
396	0.145
396	0.145
397	0.145
397	0.145
398	0.145
398	0.145
399	0.145
399	0.145
400	0.145
400	0.145
400	0.144
401	0.144
401	0.144
402	0.143
402	0.143
403	0.143
403	0.143
404	0.143
404	0.143
405	0.143
405	0.143
405	0.143
406	0.143
406	0.143
407	0.143
407	0.143
408	0.142
408	0.142
409	0.142
409	0.143
410	0.143
410	0.142
411	0.142
411	0.142
411	0.142
412	0.142
412	0.142
413	0.141
413	0.141
414	0.141
414	0.141
415	0.14
415	0.14
416	0.14
416	0.14
416	0.139
417	0.139
417	0.139
418	0.139
418	0.139
419	0.14
419	0.14
420	0.14
420	0.14
421	0.14
421	0.14
421	0.14
422	0.14
422	0.14
423	0.14
423	0.139
424	0.139
424	0.139
425	0.139
425	0.138
426	0.139
426	0.138
427	0.138
427	0.138
427	0.138
428	0.138
428	0.139
429	0.139
429	0.139
430	0.139
430	0.139
431	0.139
431	0.138
432	0.138
432	0.138
432	0.138
433	0.137
433	0.137
434	0.137
434	0.137
435	0.137
435	0.137
436	0.137
436	0.136
437	0.136
437	0.136
437	0.136
438	0.136
438	0.136
439	0.136
439	0.136
440	0.136
440	0.136
441	0.135
441	0.135
442	0.135
442	0.136
442	0.135
443	0.135
443	0.135
444	0.135
444	0.135
445	0.135
445	0.135
446	0.135
446	0.135
447	0.135
447	0.135
447	0.135
448	0.135
448	0.135
449	0.135
449	0.135
450	0.135
450	0.134
451	0.134
451	0.134
452	0.134
452	0.134
452	0.134
453	0.134
453	0.134
454	0.134
454	0.134
455	0.134
455	0.134
456	0.135
456	0.135
457	0.135
457	0.135
458	0.135
458	0.135
458	0.135
459	0.135
459	0.135
460	0.134
460	0.134
461	0.134
461	0.134
462	0.134
462	0.134
463	0.135
463	0.135
463	0.135
464	0.135
464	0.135
465	0.135
465	0.135
466	0.135
466	0.135
467	0.135
467	0.135
467	0.134
468	0.134
468	0.134
469	0.134
469	0.134
470	0.135
470	0.135
471	0.135
471	0.135
472	0.135
472	0.135
472	0.136
473	0.136
473	0.137
474	0.137
474	0.137
475	0.137
475	0.137
476	0.137
476	0.137
477	0.137
477	0.137
477	0.138
478	0.137
478	0.138
479	0.138
479	0.138
480	0.138
480	0.138
481	0.139
481	0.139
482	0.14
482	0.14
482	0.141
483	0.142
483	0.143
484	0.143
484	0.143
485	0.143
485	0.143
486	0.143
486	0.144
487	0.144
487	0.145
487	0.145
488	0.145
488	0.145
489	0.146
489	0.147
490	0.148
490	0.149
491	0.15
491	0.15
492	0.151
492	0.151
492	0.152
493	0.153
493	0.154
494	0.155
494	0.157
495	0.158
495	0.158
496	0.16
496	0.161
496	0.162
497	0.163
497	0.164
498	0.165
498	0.165
499	0.166
499	0.166
500	0.167
500	0.168
501	0.169
501	0.17
501	0.17
502	0.171
502	0.172
503	0.173
503	0.174
504	0.175
504	0.176
505	0.177
505	0.177
506	0.179
506	0.179
506	0.181
507	0.181
507	0.182
508	0.183
508	0.185
509	0.186
509	0.187
510	0.188
510	0.189
511	0.189
511	0.191
511	0.192
512	0.193
512	0.193
513	0.193
513	0.194
514	0.194
514	0.196
515	0.196
515	0.197
515	0.197
516	0.198
516	0.198
517	0.199
517	0.199
518	0.2
518	0.2
519	0.2
519	0.2
520	0.201
520	0.201
520	0.201
521	0.201
521	0.201
522	0.201
522	0.202
523	0.202
523	0.203
524	0.203
524	0.203
524	0.203
525	0.203
525	0.203
526	0.203
526	0.203
527	0.203
527	0.203
528	0.203
528	0.203
529	0.202
529	0.202
529	0.202
530	0.202
530	0.202
531	0.202
531	0.202
532	0.201
532	0.201
533	0.201
533	0.2
533	0.199
534	0.199
534	0.198
535	0.198
535	0.198
536	0.197
536	0.197
537	0.197
537	0.197
538	0.196
538	0.196
538	0.196
539	0.195
539	0.195
540	0.194
540	0.193
541	0.192
541	0.192
542	0.191
542	0.191
542	0.19
543	0.19
543	0.189
544	0.189
544	0.189
545	0.188
545	0.188
546	0.188
546	0.187
547	0.186
547	0.185
547	0.184
548	0.184
548	0.183
549	0.182
549	0.182
550	0.181
550	0.18
551	0.179
551	0.178
551	0.178
552	0.177
552	0.177
553	0.176
553	0.176
554	0.175
554	0.174
555	0.173
555	0.173
556	0.172
556	0.171
556	0.171
557	0.17
557	0.169
558	0.169
558	0.168
559	0.167
559	0.166
560	0.166
560	0.165
560	0.165
561	0.165
561	0.164
562	0.163
562	0.162
563	0.161
563	0.16
564	0.16
564	0.159
564	0.159
565	0.158
565	0.158
566	0.156
566	0.156
567	0.156
567	0.156
568	0.156
568	0.155
568	0.155
569	0.155
569	0.154
570	0.153
570	0.151
571	0.152
571	0.152
572	0.151
572	0.15
573	0.149
573	0.148
573	0.147
574	0.147
574	0.147
575	0.147
575	0.148
576	0.148
576	0.147
577	0.146
577	0.145
577	0.146
578	0.146
578	0.146
579	0.147
579	0.147
580	0.145
580	0.142
581	0.141
581	0.141
581	0.141
582	0.142
582	0.142
583	0.142
583	0.141
584	0.139
584	0.137
585	0.138
585	0.14
585	0.14
586	0.14
586	0.139
587	0.138
587	0.137
588	0.136
588	0.136
589	0.137
589	0.138
590	0.138
590	0.138
590	0.139
591	0.139
591	0.138
592	0.138
592	0.137
593	0.137
593	0.137
594	0.136
594	0.135
594	0.134
595	0.135
595	0.134
596	0.134
596	0.136
597	0.139
597	0.139
598	0.139
598	0.14
598	0.14
599	0.14
599	0.139
600	0.139
600	0.138
601	0.137
601	0.136
602	0.134
602	0.134
602	0.133
603	0.133
603	0.133
604	0.134
604	0.134
605	0.134
605	0.135
606	0.135
606	0.134
606	0.134
607	0.134
607	0.134
608	0.134
608	0.133
609	0.133
609	0.134
610	0.133
610	0.133
610	0.134
611	0.135
611	0.136
612	0.137
612	0.137
613	0.138
613	0.139
614	0.138
614	0.137
614	0.137
615	0.136
615	0.136
616	0.136
616	0.135
617	0.135
617	0.134
618	0.134
618	0.134
618	0.134
619	0.135
619	0.137
620	0.138
620	0.139
621	0.14
621	0.14
622	0.141
622	0.141
622	0.141
623	0.141
623	0.142
624	0.142
624	0.142
625	0.141
625	0.141
626	0.141
626	0.141
626	0.142
627	0.143
627	0.144
628	0.145
628	0.146
629	0.146
629	0.146
630	0.146
630	0.147
630	0.148
631	0.149
631	0.149
632	0.15
632	0.15
633	0.151
633	0.152
634	0.153
634	0.154
634	0.155
635	0.156
635	0.156
636	0.157
636	0.157
637	0.158
637	0.158
638	0.159
638	0.16
638	0.161
639	0.161
639	0.162
640	0.163
640	0.164
641	0.165
641	0.166
642	0.167
642	0.168
642	0.169
643	0.169
643	0.17
644	0.171
644	0.172
645	0.173
645	0.174
646	0.176
646	0.177
646	0.179
647	0.181
647	0.182
648	0.183
648	0.184
649	0.186
649	0.188
650	0.189
650	0.191
650	0.192
651	0.193
651	0.195
652	0.196
652	0.198
653	0.201
653	0.207
653	0.211
654	0.167
654	0.134
655	0.136
655	0.138
656	0.139
656	0.14
657	0.142
657	0.143
657	0.143
658	0.141
658	0.134
659	0.171
659	0.223
660	0.23
660	0.231
661	0.233
661	0.235
661	0.238
662	0.24
662	0.242
663	0.244
663	0.246
664	0.247
664	0.249
665	0.25
665	0.252
665	0.254
666	0.256
666	0.257
667	0.259
667	0.262
668	0.264
668	0.266
669	0.269
669	0.272
669	0.275
670	0.277
670	0.279
671	0.281
671	0.283
672	0.285
672	0.286
672	0.288
673	0.29
673	0.291
674	0.293
674	0.294
675	0.295
675	0.297
676	0.299
676	0.301
676	0.301
677	0.302
677	0.303
678	0.303
678	0.303
679	0.304
679	0.305
680	0.306
680	0.306
680	0.307
681	0.307
681	0.308
682	0.309
682	0.31
683	0.31
683	0.311
684	0.312
684	0.311
684	0.311
685	0.312
685	0.313
686	0.313
686	0.313
687	0.314
687	0.314
687	0.314
688	0.314
688	0.315
689	0.316
689	0.316
690	0.316
690	0.315
691	0.315
691	0.314
691	0.313
692	0.312
692	0.311
693	0.31
693	0.31
694	0.308
694	0.307
695	0.308
695	0.309
695	0.308
696	0.308
696	0.307
697	0.307
697	0.307
698	0.306
698	0.305
698	0.304
699	0.303
699	0.302
700	0.3
700	0.299
701	0.297
701	0.295
702	0.294
702	0.292
702	0.291
703	0.289
703	0.287
704	0.286
704	0.285
705	0.284
705	0.282
705	0.28
706	0.28
706	0.279
707	0.277
707	0.276
708	0.275
708	0.274
709	0.273
709	0.271
709	0.269
710	0.268
710	0.267
711	0.266
711	0.265
712	0.263
712	0.261
713	0.259
713	0.258
713	0.257
714	0.255
714	0.254
715	0.252
715	0.251
716	0.25
716	0.249
716	0.247
717	0.246
717	0.245
718	0.243
718	0.242
719	0.24
719	0.239
720	0.236
720	0.234
720	0.232
721	0.229
721	0.227
722	0.225
722	0.223
723	0.221
723	0.22
723	0.218
724	0.217
724	0.215
725	0.214
725	0.213
726	0.212
726	0.211
727	0.21
727	0.209
727	0.208
728	0.206
728	0.205
729	0.205
729	0.204
730	0.203
730	0.202
730	0.201
731	0.2
731	0.199
732	0.199
732	0.197
733	0.196
733	0.195
734	0.194
734	0.192
734	0.191
735	0.19
735	0.189
736	0.188
736	0.187
737	0.186
737	0.185
737	0.184
738	0.182
738	0.18
739	0.179
739	0.177
740	0.176
740	0.175
741	0.173
741	0.171
741	0.169
742	0.168
742	0.167
743	0.167
743	0.166
744	0.166
744	0.165
744	0.165
745	0.164
745	0.163
746	0.163
746	0.162
747	0.162
747	0.161
748	0.16
748	0.159
748	0.157
749	0.156
749	0.156
750	0.155
750	0.154
751	0.153
751	0.153
751	0.152
752	0.151
752	0.15
753	0.15
753	0.149
754	0.149
754	0.148
754	0.148
755	0.147
755	0.147
756	0.146
756	0.144
757	0.144
757	0.144
758	0.143
758	0.142
758	0.142
759	0.141
759	0.139
760	0.139
760	0.138
761	0.138
761	0.138
761	0.138
762	0.137
762	0.138
763	0.137
763	0.136
764	0.136
764	0.135
764	0.134
765	0.134
765	0.133
766	0.133
766	0.133
767	0.132
767	0.131
768	0.13
768	0.131
768	0.131
769	0.131
769	0.131
770	0.13
770	0.13
771	0.129
771	0.129
771	0.128
772	0.128
772	0.128
773	0.127
773	0.127
774	0.126
774	0.125
775	0.124
775	0.123
775	0.121
776	0.12
776	0.118
777	0.117
777	0.116
778	0.115
778	0.114
778	0.114
779	0.114
779	0.114
780	0.114
780	0.114
781	0.114
781	0.114
781	0.114
782	0.114
782	0.114
783	0.114
783	0.114
784	0.113
784	0.113
784	0.112
785	0.112
785	0.112
786	0.112
786	0.112
787	0.112
787	0.111
788	0.11
788	0.11
788	0.11
789	0.11
789	0.111
790	0.111
790	0.11
791	0.11
791	0.11
791	0.11
792	0.111
792	0.11
793	0.109
793	0.109
794	0.108
794	0.108
794	0.108
795	0.108
795	0.108
796	0.108
796	0.107
797	0.106
797	0.107
797	0.106
798	0.106
798	0.105
799	0.105
799	0.104
800	0.102
800	0.1
801	0.099
801	0.098
801	0.096
802	0.095
802	0.094
803	0.093
803	0.092
804	0.092
804	0.091
804	0.091
805	0.09
805	0.09
806	0.091
806	0.091
807	0.091
807	0.092
807	0.092
808	0.092
808	0.092
809	0.093
809	0.094
810	0.094
810	0.094
810	0.094
811	0.095
811	0.096
812	0.097
812	0.097
813	0.098
813	0.098
813	0.098
814	0.098
814	0.098
815	0.098
815	0.098
816	0.097
816	0.095
817	0.094
817	0.094
817	0.093
818	0.093
818	0.093
819	0.092
819	0.091
820	0.09
820	0.089
820	0.089
821	0.089
821	0.089
822	0.089
822	0.089
823	0.089
823	0.088
823	0.088
824	0.089
824	0.089
825	0.089
825	0.089
826	0.088
826	0.087
826	0.086
827	0.085
827	0.084
828	0.083
828	0.083
829	0.082
829	0.081
829	0.081
830	0.08
830	0.08
831	0.08
831	0.08
832	0.08
832	0.08
832	0.08
833	0.08
833	0.08
834	0.08
834	0.079
835	0.079
835	0.079
835	0.079
836	0.079
836	0.078
837	0.078
837	0.078
838	0.078
838	0.078
839	0.078
839	0.079
839	0.079
840	0.079
840	0.08
841	0.081
841	0.082
842	0.083
842	0.084
842	0.084
843	0.084
843	0.085
844	0.085
844	0.085
845	0.084
845	0.084
845	0.083
846	0.082
846	0.081
847	0.08
847	0.079
848	0.078
848	0.077
848	0.076
849	0.075
849	0.075
850	0.074
850	0.073
851	0.073
851	0.073
851	0.072
852	0.072
852	0.072
853	0.072
853	0.072
854	0.072
854	0.072
854	0.072
855	0.072
855	0.071
856	0.071
856	0.072
857	0.072
857	0.072
857	0.072
858	0.072
858	0.072
859	0.071
859	0.072
860	0.072
860	0.072
860	0.072
861	0.072
861	0.072
862	0.072
862	0.072
863	0.072
863	0.072
863	0.072
864	0.071
864	0.071
865	0.07
865	0.069
866	0.068
866	0.067
866	0.067
867	0.066
867	0.066
868	0.065
868	0.065
869	0.066
869	0.065
869	0.065
870	0.065
870	0.065
871	0.064
871	0.063
872	0.062
872	0.061
872	0.06
873	0.059
873	0.057
874	0.057
874	0.056
875	0.055
875	0.054
875	0.054
876	0.053
876	0.052
877	0.052
877	0.051
878	0.05
878	0.049
878	0.049
879	0.048
879	0.048
880	0.048
880	0.048
881	0.049
881	0.05
881	0.051
882	0.053
882	0.054
883	0.056
883	0.057
884	0.059
884	0.06
884	0.061
885	0.062
885	0.063
886	0.064
886	0.065
887	0.065
887	0.065
887	0.065
888	0.065
888	0.065
889	0.066
889	0.066
890	0.067
890	0.067
890	0.067
891	0.067
891	0.068
892	0.068
892	0.068
893	0.067
893	0.067
893	0.066
894	0.066
894	0.065
895	0.063
895	0.062
895	0.061
896	0.059
896	0.058
897	0.057
897	0.056
898	0.055
898	0.054
898	0.054
899	0.053
899	0.052
900	0.052
900	0.051
901	0.051
901	0.051
901	0.051
902	0.051
902	0.051
903	0.051
903	0.051
904	0.051
904	0.05
904	0.051
905	0.05
905	0.05
906	0.05
906	0.049
907	0.049
907	0.049
907	0.049
908	0.049
908	0.049
909	0.049
909	0.049
910	0.05
910	0.05
910	0.051
911	0.052
911	0.052
912	0.053
912	0.053
913	0.053
913	0.053
913	0.052
914	0.052
914	0.051
915	0.05
915	0.05
916	0.049
916	0.048
916	0.048
917	0.048
917	0.048
918	0.049
918	0.049
918	0.05
919	0.051
919	0.051
920	0.052
920	0.053
921	0.053
921	0.053
921	0.053
922	0.053
922	0.053
923	0.053
923	0.053
924	0.053
924	0.053
924	0.052
925	0.052
925	0.052
926	0.051
926	0.051
927	0.051
927	0.051
927	0.05
928	0.05
928	0.05
929	0.049
929	0.049
930	0.049
930	0.049
930	0.048
931	0.048
931	0.047
932	0.047
932	0.047
933	0.046
933	0.046
933	0.046
934	0.046
934	0.045
935	0.045
935	0.044
935	0.044
936	0.043
936	0.043
937	0.043
937	0.042
938	0.042
938	0.042
938	0.041
939	0.041
939	0.042
940	0.042
940	0.042
941	0.043
941	0.043
941	0.043
942	0.044
942	0.044
943	0.045
943	0.045
944	0.045
944	0.045
944	0.045
945	0.045
945	0.045
946	0.045
946	0.045
946	0.045
947	0.045
947	0.044
948	0.044
948	0.044
949	0.043
949	0.043
949	0.043
950	0.043
950	0.043
951	0.042
951	0.042
952	0.042
952	0.043
952	0.043
953	0.043
953	0.043
954	0.043
954	0.043
955	0.044
955	0.044
955	0.044
956	0.044
956	0.044
957	0.044
957	0.043
957	0.042
958	0.041
958	0.04
959	0.039
959	0.038
960	0.037
960	0.036
960	0.035
961	0.034
961	0.033
962	0.033
962	0.033
963	0.033
963	0.034
963	0.034
964	0.035
964	0.035
965	0.036
965	0.037
966	0.038
966	0.039
966	0.039
967	0.04
967	0.041
968	0.04
968	0.041
968	0.041
969	0.04
969	0.04
970	0.04
970	0.04
971	0.041
971	0.041
971	0.041
972	0.041
972	0.041
973	0.041
973	0.041
974	0.041
974	0.041
974	0.041
975	0.04
975	0.039
976	0.038
976	0.037
976	0.036
977	0.035
977	0.033
978	0.032
978	0.031
979	0.031
979	0.03
979	0.03
980	0.029
980	0.029
981	0.029
981	0.029
982	0.03
982	0.03
982	0.031
983	0.032
983	0.032
984	0.033
984	0.033
984	0.034
985	0.035
985	0.035
986	0.035
986	0.035
987	0.034
987	0.034
987	0.034
988	0.033
988	0.032
989	0.031
989	0.03
990	0.029
990	0.028
990	0.027
991	0.026
991	0.025
992	0.024
992	0.023
992	0.021
993	0.02
993	0.018
994	0.017
994	0.015
995	0.014
995	0.013
995	0.012
996	0.012
996	0.011
997	0.01
997	0.01
997	0.01
998	0.011
998	0.012
999	0.013
999	0.014
1000	0.015
1000	0.016
1000	0.017
1001	0.018
1001	0.02
1002	0.021
1002	0.022
1003	0.023
1003	0.024
1003	0.025
1004	0.026
1004	0.026
1005	0.027
1005	0.027
1005	0.027
1006	0.027
1006	0.027
1007	0.027
1007	0.027
1008	0.027
1008	0.027
1008	0.027
1009	0.027
1009	0.027
1010	0.028
1010	0.028
1010	0.028
1011	0.028
1011	0.027
1012	0.027
1012	0.026
1013	0.026
1013	0.025
1013	0.024
1014	0.023
1014	0.022
1015	0.021
1015	0.02
1016	0.018
1016	0.017
1016	0.016
1017	0.015
1017	0.014
1018	0.014
1018	0.013
1018	0.013
1019	0.013
1019	0.013
1020	0.013
1020	0.013
1021	0.012
1021	0.012
1021	0.012
1022	0.012
1022	0.011
1023	0.01
1023	0.009
1023	0.009
1024	0.007
1024	0.006
1025	0.005
1025	0.005
1026	0.004
1026	0.003
1026	0.002
1027	0.002
1027	0.002
1028	0.002
1028	0.002
1028	0.003
1029	0.003
1029	0.004
1030	0.005
1030	0.005
1031	0.006
1031	0.007
1031	0.008
1032	0.009
1032	0.01
1033	0.01
1033	0.01
1033	0.01
1034	0.01
1034	0.009
1035	0.008
1035	0.008
1036	0.007
1036	0.006
1036	0.006
1037	0.005
1037	0.004
1038	0.003
1038	0.003
1039	0.003
1039	0.003
1039	0.002
1040	0.002
1040	0.002
1041	0.001
1041	0.001
1041	-0
1042	-0.001
1042	-0.002
1043	-0.003
1043	-0.003
1044	-0.004
1044	-0.005
1044	-0.006
1045	-0.006
1045	-0.007
1046	-0.007
1046	-0.007
1046	-0.007
1047	-0.006
1047	-0.006
1048	-0.005
1048	-0.005
1049	-0.005
1049	-0.005
1049	-0.005
1050	-0.005
1050	-0.005
1051	-0.005
1051	-0.006
1051	-0.006
1052	-0.006
1052	-0.006
1053	-0.006
1053	-0.006
1053	-0.006
1054	-0.006
1054	-0.006
1055	-0.005
1055	-0.005
1056	-0.005
1056	-0.006
1056	-0.006
1057	-0.007
1057	-0.008
1058	-0.008
1058	-0.009
1058	-0.009
1059	-0.009
1059	-0.01
1060	-0.011
1060	-0.011
1061	-0.012
1061	-0.012
1061	-0.012
1062	-0.012
1062	-0.013
1063	-0.014
1063	-0.015
1063	-0.016
1064	-0.016
1064	-0.016
1065	-0.016
1065	-0.017
1066	-0.018
1066	-0.018
1066	-0.018
1067	-0.018
1067	-0.019
1068	-0.019
1068	-0.019
1068	-0.02
1069	-0.02
1069	-0.021
1070	-0.021
1070	-0.022
1071	-0.022
1071	-0.022
1071	-0.023
1072	-0.023
1072	-0.024
1073	-0.024
1073	-0.024
1073	-0.024
1074	-0.024
1074	-0.024
1075	-0.025
1075	-0.025
1076	-0.026
1076	-0.026
1076	-0.027
1077	-0.027
1077	-0.027
1078	-0.029
1078	-0.029
1078	-0.029
1079	-0.03
1079	-0.029
1080	-0.029
1080	-0.03
1080	-0.03
1081	-0.03
1081	-0.029
1082	-0.029
1082	-0.029
1083	-0.03
1083	-0.031
1083	-0.03
1084	-0.031
1084	-0.03
1085	-0.031
1085	-0.031
1085	-0.031
1086	-0.031
1086	-0.033
1087	-0.033
1087	-0.033
1088	-0.034
1088	-0.035
1088	-0.036
1089	-0.038
1089	-0.039
1090	-0.041
1090	-0.042
1090	-0.044
1091	-0.045
1091	-0.046
1092	-0.048
1092	-0.049
1092	-0.05
1093	-0.051
1093	-0.051
1094	-0.053
1094	-0.054
1095	-0.055
1095	-0.056
1095	-0.057
1096	-0.058
1096	-0.058
1097	-0.059
1097	-0.061
1097	-0.062
1098	-0.063
1098	-0.064
1099	-0.065
1099	-0.066
1100	-0.068
1100	-0.07
1100	-0.072
1101	-0.074
1101	-0.077
1102	-0.079
1102	-0.081
1102	-0.082
1103	-0.085
1103	-0.087
1104	-0.088
1104	-0.09
1104	-0.09
1105	-0.093
1105	-0.096
1106	-0.099
1106	-0.102
1107	-0.107
1107	-0.11
1107	-0.114
1108	-0.115
1108	-0.118
1109	-0.122
1109	-0.128
1109	-0.131
1110	-0.132
1110	-0.136
1111	-0.142
1111	-0.136
