Data from 17c-100ul-ns-20ul-nr-full-exp'4ul'bp_Absorbance__46__01417.txt Node

Date: Mon Jan 15 10:15:00 CET 2024
User: Marek
Spectrometer: MAYP115816
Trigger mode: 0
Integration Time (sec): 2.000000E-1
Scans to average: 10
Electric dark correction enabled: true
Nonlinearity correction enabled: true
Boxcar width: 5
XAxis mode: Wavelengths
Number of Pixels in Spectrum: 2068
>>>>>Begin Spectral Data<<<<<
199	-0.505
199	-0.484
200	-0.41
200	-0.348
201	-0.309
201	-0.288
202	-0.264
202	-0.259
203	-0.251
203	-0.249
204	-0.233
204	-0.219
205	-0.205
205	-0.198
205	-0.202
206	-0.204
206	-0.207
207	-0.205
207	-0.206
208	-0.208
208	-0.206
209	-0.206
209	-0.212
210	-0.213
210	-0.214
211	-0.214
211	-0.215
212	-0.215
212	-0.218
213	-0.218
213	-0.218
213	-0.221
214	-0.221
214	-0.221
215	-0.221
215	-0.226
216	-0.227
216	-0.23
217	-0.229
217	-0.228
218	-0.227
218	-0.224
219	-0.222
219	-0.223
220	-0.222
220	-0.222
221	-0.219
221	-0.218
221	-0.213
222	-0.21
222	-0.207
223	-0.202
223	-0.203
224	-0.202
224	-0.193
225	-0.183
225	-0.176
226	-0.17
226	-0.159
227	-0.146
227	-0.137
228	-0.123
228	-0.111
229	-0.091
229	-0.067
229	-0.047
230	-0.027
230	-0.002
231	0.025
231	0.05
232	0.071
232	0.097
233	0.121
233	0.146
234	0.166
234	0.186
235	0.204
235	0.22
236	0.236
236	0.25
236	0.263
237	0.275
237	0.285
238	0.294
238	0.302
239	0.311
239	0.317
240	0.323
240	0.328
241	0.332
241	0.336
242	0.34
242	0.343
243	0.347
243	0.349
243	0.352
244	0.354
244	0.356
245	0.358
245	0.36
246	0.362
246	0.364
247	0.366
247	0.368
248	0.37
248	0.371
249	0.373
249	0.374
250	0.376
250	0.377
250	0.379
251	0.38
251	0.381
252	0.382
252	0.383
253	0.384
253	0.385
254	0.385
254	0.386
255	0.387
255	0.387
256	0.387
256	0.388
257	0.388
257	0.389
258	0.389
258	0.389
258	0.389
259	0.388
259	0.388
260	0.388
260	0.387
261	0.387
261	0.386
262	0.385
262	0.384
263	0.383
263	0.382
264	0.381
264	0.38
265	0.378
265	0.377
265	0.376
266	0.374
266	0.373
267	0.371
267	0.37
268	0.368
268	0.366
269	0.365
269	0.362
270	0.361
270	0.359
271	0.356
271	0.354
272	0.352
272	0.35
272	0.348
273	0.346
273	0.343
274	0.341
274	0.339
275	0.337
275	0.335
276	0.333
276	0.33
277	0.328
277	0.326
278	0.324
278	0.322
278	0.32
279	0.317
279	0.314
280	0.312
280	0.31
281	0.307
281	0.305
282	0.303
282	0.3
283	0.298
283	0.296
284	0.293
284	0.292
285	0.29
285	0.287
285	0.285
286	0.283
286	0.281
287	0.28
287	0.278
288	0.276
288	0.275
289	0.273
289	0.271
290	0.27
290	0.268
291	0.267
291	0.266
292	0.264
292	0.263
292	0.261
293	0.26
293	0.259
294	0.257
294	0.256
295	0.255
295	0.254
296	0.253
296	0.252
297	0.251
297	0.25
298	0.249
298	0.248
298	0.247
299	0.247
299	0.246
300	0.245
300	0.245
301	0.244
301	0.243
302	0.242
302	0.242
303	0.241
303	0.241
304	0.24
304	0.24
305	0.239
305	0.238
305	0.238
306	0.237
306	0.236
307	0.236
307	0.235
308	0.234
308	0.234
309	0.233
309	0.232
310	0.232
310	0.231
311	0.23
311	0.23
311	0.229
312	0.229
312	0.228
313	0.227
313	0.227
314	0.226
314	0.225
315	0.225
315	0.224
316	0.224
316	0.224
317	0.223
317	0.223
318	0.222
318	0.222
318	0.221
319	0.221
319	0.22
320	0.22
320	0.219
321	0.219
321	0.218
322	0.217
322	0.216
323	0.216
323	0.215
324	0.214
324	0.214
324	0.213
325	0.213
325	0.212
326	0.212
326	0.211
327	0.211
327	0.21
328	0.21
328	0.209
329	0.209
329	0.208
330	0.207
330	0.207
330	0.206
331	0.206
331	0.205
332	0.205
332	0.205
333	0.204
333	0.204
334	0.203
334	0.203
335	0.202
335	0.202
336	0.201
336	0.201
336	0.2
337	0.199
337	0.199
338	0.198
338	0.198
339	0.198
339	0.197
340	0.197
340	0.196
341	0.196
341	0.196
342	0.195
342	0.195
342	0.195
343	0.194
343	0.194
344	0.193
344	0.193
345	0.193
345	0.192
346	0.192
346	0.192
347	0.192
347	0.191
348	0.191
348	0.191
348	0.191
349	0.191
349	0.19
350	0.19
350	0.19
351	0.19
351	0.19
352	0.189
352	0.189
353	0.189
353	0.189
354	0.188
354	0.188
354	0.188
355	0.188
355	0.188
356	0.188
356	0.188
357	0.188
357	0.187
358	0.187
358	0.187
359	0.187
359	0.187
360	0.186
360	0.186
360	0.186
361	0.186
361	0.185
362	0.185
362	0.185
363	0.185
363	0.185
364	0.185
364	0.185
365	0.185
365	0.184
366	0.184
366	0.184
366	0.184
367	0.184
367	0.184
368	0.184
368	0.184
369	0.184
369	0.184
370	0.183
370	0.184
371	0.183
371	0.183
372	0.183
372	0.183
372	0.183
373	0.183
373	0.183
374	0.183
374	0.183
375	0.183
375	0.183
376	0.182
376	0.182
377	0.182
377	0.182
378	0.182
378	0.182
378	0.182
379	0.181
379	0.181
380	0.181
380	0.181
381	0.181
381	0.181
382	0.181
382	0.181
383	0.18
383	0.18
383	0.18
384	0.18
384	0.179
385	0.179
385	0.179
386	0.179
386	0.179
387	0.179
387	0.178
388	0.178
388	0.178
389	0.178
389	0.178
389	0.178
390	0.178
390	0.178
391	0.178
391	0.178
392	0.178
392	0.178
393	0.178
393	0.177
394	0.177
394	0.177
394	0.177
395	0.176
395	0.176
396	0.176
396	0.176
397	0.175
397	0.175
398	0.175
398	0.175
399	0.175
399	0.175
400	0.175
400	0.175
400	0.174
401	0.174
401	0.174
402	0.174
402	0.174
403	0.173
403	0.173
404	0.173
404	0.173
405	0.173
405	0.173
405	0.173
406	0.173
406	0.172
407	0.172
407	0.172
408	0.172
408	0.172
409	0.172
409	0.171
410	0.171
410	0.171
411	0.171
411	0.171
411	0.171
412	0.17
412	0.17
413	0.17
413	0.17
414	0.17
414	0.169
415	0.169
415	0.169
416	0.169
416	0.168
416	0.168
417	0.168
417	0.168
418	0.168
418	0.168
419	0.168
419	0.168
420	0.167
420	0.168
421	0.168
421	0.167
421	0.168
422	0.168
422	0.168
423	0.168
423	0.167
424	0.167
424	0.167
425	0.167
425	0.166
426	0.166
426	0.166
427	0.166
427	0.166
427	0.166
428	0.166
428	0.166
429	0.166
429	0.166
430	0.166
430	0.166
431	0.166
431	0.166
432	0.166
432	0.165
432	0.165
433	0.165
433	0.165
434	0.165
434	0.165
435	0.164
435	0.164
436	0.164
436	0.164
437	0.163
437	0.163
437	0.163
438	0.163
438	0.163
439	0.163
439	0.163
440	0.163
440	0.163
441	0.163
441	0.162
442	0.163
442	0.163
442	0.163
443	0.162
443	0.162
444	0.162
444	0.162
445	0.163
445	0.163
446	0.163
446	0.163
447	0.162
447	0.162
447	0.162
448	0.162
448	0.162
449	0.162
449	0.162
450	0.162
450	0.161
451	0.161
451	0.161
452	0.161
452	0.161
452	0.161
453	0.161
453	0.161
454	0.161
454	0.161
455	0.161
455	0.162
456	0.162
456	0.162
457	0.162
457	0.162
458	0.162
458	0.162
458	0.162
459	0.162
459	0.162
460	0.162
460	0.162
461	0.161
461	0.161
462	0.161
462	0.162
463	0.162
463	0.162
463	0.162
464	0.162
464	0.162
465	0.162
465	0.162
466	0.163
466	0.163
467	0.163
467	0.163
467	0.163
468	0.162
468	0.162
469	0.163
469	0.163
470	0.163
470	0.163
471	0.164
471	0.164
472	0.164
472	0.165
472	0.165
473	0.166
473	0.166
474	0.166
474	0.166
475	0.167
475	0.167
476	0.167
476	0.167
477	0.167
477	0.167
477	0.168
478	0.168
478	0.168
479	0.168
479	0.169
480	0.169
480	0.169
481	0.17
481	0.171
482	0.172
482	0.172
482	0.173
483	0.174
483	0.176
484	0.176
484	0.176
485	0.177
485	0.177
486	0.177
486	0.178
487	0.179
487	0.179
487	0.18
488	0.18
488	0.181
489	0.182
489	0.184
490	0.184
490	0.185
491	0.186
491	0.187
492	0.188
492	0.189
492	0.19
493	0.191
493	0.192
494	0.194
494	0.195
495	0.197
495	0.198
496	0.2
496	0.201
496	0.203
497	0.204
497	0.205
498	0.206
498	0.207
499	0.208
499	0.209
500	0.211
500	0.212
501	0.213
501	0.215
501	0.215
502	0.217
502	0.218
503	0.219
503	0.221
504	0.222
504	0.223
505	0.224
505	0.226
506	0.227
506	0.228
506	0.23
507	0.231
507	0.232
508	0.234
508	0.235
509	0.237
509	0.238
510	0.24
510	0.241
511	0.242
511	0.244
511	0.245
512	0.246
512	0.247
513	0.248
513	0.248
514	0.25
514	0.251
515	0.252
515	0.252
515	0.253
516	0.254
516	0.255
517	0.256
517	0.256
518	0.257
518	0.258
519	0.258
519	0.259
520	0.259
520	0.26
520	0.26
521	0.26
521	0.26
522	0.261
522	0.261
523	0.262
523	0.262
524	0.262
524	0.263
524	0.263
525	0.263
525	0.263
526	0.263
526	0.263
527	0.263
527	0.263
528	0.263
528	0.262
529	0.262
529	0.262
529	0.261
530	0.261
530	0.261
531	0.261
531	0.26
532	0.259
532	0.259
533	0.258
533	0.258
533	0.257
534	0.256
534	0.256
535	0.255
535	0.255
536	0.254
536	0.254
537	0.253
537	0.252
538	0.252
538	0.251
538	0.25
539	0.249
539	0.249
540	0.248
540	0.246
541	0.245
541	0.244
542	0.243
542	0.243
542	0.242
543	0.241
543	0.24
544	0.239
544	0.238
545	0.237
545	0.237
546	0.236
546	0.234
547	0.233
547	0.231
547	0.23
548	0.23
548	0.228
549	0.227
549	0.226
550	0.224
550	0.223
551	0.221
551	0.221
551	0.22
552	0.218
552	0.217
553	0.216
553	0.215
554	0.214
554	0.212
555	0.211
555	0.21
556	0.209
556	0.208
556	0.206
557	0.206
557	0.205
558	0.204
558	0.202
559	0.201
559	0.2
560	0.199
560	0.197
560	0.196
561	0.196
561	0.195
562	0.193
562	0.192
563	0.19
563	0.189
564	0.188
564	0.187
564	0.186
565	0.185
565	0.184
566	0.183
566	0.182
567	0.181
567	0.18
568	0.179
568	0.179
568	0.178
569	0.177
569	0.176
570	0.174
570	0.173
571	0.173
571	0.172
572	0.171
572	0.17
573	0.169
573	0.167
573	0.166
574	0.165
574	0.165
575	0.165
575	0.165
576	0.165
576	0.163
577	0.162
577	0.161
577	0.161
578	0.16
578	0.16
579	0.161
579	0.16
580	0.158
580	0.156
581	0.154
581	0.154
581	0.154
582	0.154
582	0.154
583	0.154
583	0.152
584	0.15
584	0.148
585	0.148
585	0.149
585	0.148
586	0.148
586	0.147
587	0.146
587	0.145
588	0.144
588	0.143
589	0.144
589	0.144
590	0.144
590	0.144
590	0.144
591	0.144
591	0.143
592	0.142
592	0.141
593	0.141
593	0.14
594	0.139
594	0.138
594	0.137
595	0.137
595	0.136
596	0.137
596	0.138
597	0.14
597	0.14
598	0.14
598	0.14
598	0.14
599	0.14
599	0.139
600	0.138
600	0.137
601	0.136
601	0.135
602	0.133
602	0.132
602	0.131
603	0.131
603	0.131
604	0.131
604	0.131
605	0.131
605	0.132
606	0.131
606	0.13
606	0.13
607	0.13
607	0.13
608	0.13
608	0.129
609	0.129
609	0.129
610	0.128
610	0.128
610	0.128
611	0.129
611	0.129
612	0.13
612	0.131
613	0.131
613	0.131
614	0.131
614	0.13
614	0.13
615	0.129
615	0.129
616	0.129
616	0.128
617	0.128
617	0.127
618	0.127
618	0.128
618	0.128
619	0.129
619	0.13
620	0.132
620	0.132
621	0.133
621	0.133
622	0.133
622	0.133
622	0.133
623	0.133
623	0.134
624	0.134
624	0.133
625	0.133
625	0.133
626	0.133
626	0.134
626	0.134
627	0.135
627	0.136
628	0.137
628	0.138
629	0.138
629	0.139
630	0.139
630	0.14
630	0.141
631	0.142
631	0.143
632	0.143
632	0.144
633	0.145
633	0.146
634	0.147
634	0.149
634	0.15
635	0.15
635	0.15
636	0.151
636	0.152
637	0.152
637	0.153
638	0.154
638	0.154
638	0.155
639	0.156
639	0.157
640	0.158
640	0.159
641	0.16
641	0.162
642	0.163
642	0.164
642	0.165
643	0.166
643	0.167
644	0.168
644	0.169
645	0.17
645	0.172
646	0.174
646	0.175
646	0.177
647	0.179
647	0.18
648	0.182
648	0.183
649	0.185
649	0.187
650	0.189
650	0.191
650	0.192
651	0.194
651	0.196
652	0.198
652	0.2
653	0.203
653	0.209
653	0.213
654	0.168
654	0.135
655	0.138
655	0.14
656	0.141
656	0.142
657	0.144
657	0.145
657	0.146
658	0.144
658	0.138
659	0.176
659	0.23
660	0.237
660	0.239
661	0.242
661	0.245
661	0.248
662	0.251
662	0.254
663	0.257
663	0.259
664	0.261
664	0.263
665	0.265
665	0.267
665	0.269
666	0.271
666	0.273
667	0.275
667	0.277
668	0.28
668	0.282
669	0.285
669	0.288
669	0.291
670	0.293
670	0.295
671	0.297
671	0.299
672	0.301
672	0.303
672	0.305
673	0.307
673	0.309
674	0.311
674	0.312
675	0.314
675	0.316
676	0.319
676	0.32
676	0.321
677	0.322
677	0.323
678	0.323
678	0.324
679	0.324
679	0.325
680	0.326
680	0.326
680	0.327
681	0.328
681	0.328
682	0.329
682	0.33
683	0.331
683	0.332
684	0.333
684	0.332
684	0.333
685	0.333
685	0.334
686	0.334
686	0.334
687	0.335
687	0.335
687	0.335
688	0.335
688	0.336
689	0.337
689	0.337
690	0.336
690	0.336
691	0.335
691	0.335
691	0.334
692	0.333
692	0.332
693	0.332
693	0.331
694	0.33
694	0.329
695	0.33
695	0.33
695	0.329
696	0.328
696	0.328
697	0.327
697	0.326
698	0.325
698	0.324
698	0.323
699	0.322
699	0.32
700	0.318
700	0.317
701	0.315
701	0.313
702	0.311
702	0.309
702	0.307
703	0.305
703	0.303
704	0.301
704	0.3
705	0.298
705	0.296
705	0.295
706	0.294
706	0.293
707	0.291
707	0.29
708	0.289
708	0.288
709	0.287
709	0.285
709	0.283
710	0.281
710	0.28
711	0.278
711	0.276
712	0.274
712	0.273
713	0.271
713	0.269
713	0.268
714	0.266
714	0.264
715	0.263
715	0.261
716	0.26
716	0.258
716	0.257
717	0.255
717	0.254
718	0.251
718	0.25
719	0.248
719	0.246
720	0.244
720	0.241
720	0.239
721	0.236
721	0.234
722	0.231
722	0.229
723	0.227
723	0.225
723	0.223
724	0.222
724	0.22
725	0.218
725	0.217
726	0.216
726	0.214
727	0.213
727	0.211
727	0.21
728	0.208
728	0.207
729	0.206
729	0.204
730	0.203
730	0.201
730	0.2
731	0.198
731	0.197
732	0.196
732	0.195
733	0.193
733	0.192
734	0.191
734	0.189
734	0.188
735	0.187
735	0.186
736	0.184
736	0.184
737	0.183
737	0.182
737	0.18
738	0.177
738	0.175
739	0.174
739	0.172
740	0.17
740	0.169
741	0.167
741	0.165
741	0.163
742	0.161
742	0.16
743	0.16
743	0.158
744	0.157
744	0.156
744	0.155
745	0.154
745	0.153
746	0.153
746	0.152
747	0.151
747	0.15
748	0.149
748	0.148
748	0.147
749	0.146
749	0.146
750	0.145
750	0.144
751	0.143
751	0.142
751	0.141
752	0.14
752	0.139
753	0.139
753	0.138
754	0.137
754	0.136
754	0.135
755	0.134
755	0.134
756	0.132
756	0.13
757	0.13
757	0.129
758	0.128
758	0.127
758	0.126
759	0.125
759	0.124
760	0.123
760	0.122
761	0.122
761	0.123
761	0.123
762	0.122
762	0.122
763	0.122
763	0.121
764	0.121
764	0.12
764	0.12
765	0.119
765	0.118
766	0.118
766	0.117
767	0.116
767	0.115
768	0.114
768	0.113
768	0.113
769	0.112
769	0.112
770	0.111
770	0.11
771	0.109
771	0.108
771	0.107
772	0.107
772	0.106
773	0.105
773	0.105
774	0.104
774	0.103
775	0.103
775	0.101
775	0.1
776	0.099
776	0.098
777	0.097
777	0.095
778	0.094
778	0.093
778	0.092
779	0.092
779	0.092
780	0.091
780	0.091
781	0.09
781	0.09
781	0.089
782	0.089
782	0.088
783	0.088
783	0.087
784	0.086
784	0.085
784	0.085
785	0.084
785	0.084
786	0.084
786	0.084
787	0.084
787	0.083
788	0.083
788	0.083
788	0.083
789	0.083
789	0.083
790	0.083
790	0.083
791	0.083
791	0.083
791	0.083
792	0.083
792	0.083
793	0.082
793	0.081
794	0.081
794	0.081
794	0.08
795	0.081
795	0.081
796	0.08
796	0.079
797	0.078
797	0.078
797	0.078
798	0.077
798	0.076
799	0.075
799	0.074
800	0.072
800	0.071
801	0.07
801	0.069
801	0.068
802	0.067
802	0.066
803	0.065
803	0.065
804	0.064
804	0.064
804	0.064
805	0.063
805	0.064
806	0.064
806	0.064
807	0.065
807	0.065
807	0.066
808	0.066
808	0.066
809	0.067
809	0.067
810	0.068
810	0.068
810	0.068
811	0.069
811	0.07
812	0.07
812	0.07
813	0.07
813	0.07
813	0.07
814	0.07
814	0.07
815	0.069
815	0.068
816	0.067
816	0.066
817	0.065
817	0.065
817	0.064
818	0.064
818	0.063
819	0.062
819	0.061
820	0.06
820	0.059
820	0.059
821	0.059
821	0.058
822	0.058
822	0.058
823	0.057
823	0.057
823	0.057
824	0.057
824	0.057
825	0.057
825	0.057
826	0.057
826	0.056
826	0.056
827	0.055
827	0.055
828	0.054
828	0.053
829	0.053
829	0.052
829	0.052
830	0.052
830	0.052
831	0.052
831	0.052
832	0.052
832	0.052
832	0.052
833	0.052
833	0.051
834	0.051
834	0.051
835	0.05
835	0.05
835	0.049
836	0.049
836	0.048
837	0.048
837	0.047
838	0.047
838	0.047
839	0.047
839	0.047
839	0.047
840	0.047
840	0.047
841	0.048
841	0.048
842	0.049
842	0.049
842	0.049
843	0.049
843	0.049
844	0.049
844	0.049
845	0.048
845	0.048
845	0.047
846	0.046
846	0.045
847	0.045
847	0.044
848	0.044
848	0.043
848	0.043
849	0.042
849	0.042
850	0.042
850	0.041
851	0.041
851	0.041
851	0.041
852	0.04
852	0.04
853	0.04
853	0.04
854	0.041
854	0.041
854	0.041
855	0.041
855	0.041
856	0.041
856	0.041
857	0.041
857	0.042
857	0.042
858	0.042
858	0.042
859	0.042
859	0.042
860	0.042
860	0.042
860	0.042
861	0.042
861	0.042
862	0.042
862	0.042
863	0.042
863	0.042
863	0.042
864	0.042
864	0.041
865	0.041
865	0.04
866	0.039
866	0.038
866	0.038
867	0.037
867	0.037
868	0.037
868	0.036
869	0.036
869	0.036
869	0.036
870	0.036
870	0.035
871	0.035
871	0.034
872	0.033
872	0.032
872	0.031
873	0.03
873	0.029
874	0.028
874	0.028
875	0.027
875	0.026
875	0.025
876	0.025
876	0.024
877	0.023
877	0.023
878	0.022
878	0.022
878	0.021
879	0.021
879	0.021
880	0.021
880	0.022
881	0.022
881	0.023
881	0.025
882	0.026
882	0.027
883	0.029
883	0.03
884	0.032
884	0.033
884	0.034
885	0.035
885	0.036
886	0.036
886	0.037
887	0.037
887	0.037
887	0.037
888	0.037
888	0.038
889	0.038
889	0.039
890	0.039
890	0.039
890	0.039
891	0.039
891	0.039
892	0.039
892	0.039
893	0.038
893	0.037
893	0.036
894	0.036
894	0.035
895	0.033
895	0.032
895	0.031
896	0.029
896	0.028
897	0.027
897	0.026
898	0.026
898	0.025
898	0.024
899	0.023
899	0.022
900	0.021
900	0.021
901	0.021
901	0.021
901	0.021
902	0.021
902	0.02
903	0.02
903	0.02
904	0.02
904	0.02
904	0.02
905	0.02
905	0.02
906	0.02
906	0.02
907	0.019
907	0.019
907	0.019
908	0.018
908	0.018
909	0.018
909	0.019
910	0.019
910	0.02
910	0.021
911	0.021
911	0.022
912	0.022
912	0.023
913	0.023
913	0.023
913	0.023
914	0.022
914	0.022
915	0.021
915	0.02
916	0.019
916	0.018
916	0.018
917	0.018
917	0.018
918	0.018
918	0.019
918	0.019
919	0.02
919	0.021
920	0.021
920	0.022
921	0.022
921	0.022
921	0.022
922	0.022
922	0.022
923	0.022
923	0.021
924	0.021
924	0.021
924	0.02
925	0.02
925	0.02
926	0.02
926	0.02
927	0.02
927	0.02
927	0.02
928	0.02
928	0.019
929	0.019
929	0.019
930	0.019
930	0.019
930	0.019
931	0.018
931	0.018
932	0.018
932	0.018
933	0.018
933	0.018
933	0.017
934	0.017
934	0.016
935	0.016
935	0.015
935	0.014
936	0.014
936	0.013
937	0.013
937	0.012
938	0.011
938	0.011
938	0.011
939	0.011
939	0.012
940	0.012
940	0.012
941	0.013
941	0.014
941	0.014
942	0.015
942	0.016
943	0.016
943	0.017
944	0.017
944	0.017
944	0.018
945	0.018
945	0.018
946	0.018
946	0.018
946	0.018
947	0.018
947	0.018
948	0.018
948	0.018
949	0.017
949	0.017
949	0.017
950	0.017
950	0.017
951	0.017
951	0.017
952	0.017
952	0.018
952	0.018
953	0.018
953	0.018
954	0.018
954	0.018
955	0.018
955	0.018
955	0.018
956	0.018
956	0.018
957	0.017
957	0.016
957	0.015
958	0.014
958	0.013
959	0.012
959	0.011
960	0.01
960	0.009
960	0.008
961	0.007
961	0.007
962	0.007
962	0.007
963	0.007
963	0.008
963	0.009
964	0.01
964	0.01
965	0.011
965	0.012
966	0.013
966	0.014
966	0.014
967	0.015
967	0.015
968	0.015
968	0.016
968	0.016
969	0.015
969	0.015
970	0.015
970	0.015
971	0.015
971	0.015
971	0.015
972	0.015
972	0.015
973	0.014
973	0.014
974	0.014
974	0.014
974	0.014
975	0.014
975	0.013
976	0.012
976	0.012
976	0.011
977	0.01
977	0.009
978	0.007
978	0.007
979	0.006
979	0.005
979	0.005
980	0.004
980	0.004
981	0.004
981	0.004
982	0.004
982	0.005
982	0.005
983	0.006
983	0.006
984	0.007
984	0.008
984	0.008
985	0.009
985	0.009
986	0.009
986	0.009
987	0.008
987	0.008
987	0.007
988	0.007
988	0.006
989	0.004
989	0.003
990	0.001
990	-0
990	-0.002
991	-0.003
991	-0.004
992	-0.005
992	-0.007
992	-0.008
993	-0.009
993	-0.011
994	-0.012
994	-0.013
995	-0.014
995	-0.014
995	-0.015
996	-0.015
996	-0.015
997	-0.015
997	-0.015
997	-0.014
998	-0.013
998	-0.012
999	-0.011
999	-0.01
1000	-0.009
1000	-0.008
1000	-0.007
1001	-0.006
1001	-0.004
1002	-0.003
1002	-0.002
1003	-0.001
1003	-0
1003	0
1004	0.001
1004	0.002
1005	0.002
1005	0.002
1005	0.003
1006	0.003
1006	0.003
1007	0.003
1007	0.003
1008	0.003
1008	0.003
1008	0.003
1009	0.003
1009	0.004
1010	0.004
1010	0.004
1010	0.004
1011	0.004
1011	0.004
1012	0.003
1012	0.003
1013	0.003
1013	0.002
1013	0.001
1014	-0
1014	-0.001
1015	-0.002
1015	-0.003
1016	-0.004
1016	-0.005
1016	-0.006
1017	-0.007
1017	-0.007
1018	-0.008
1018	-0.008
1018	-0.008
1019	-0.008
1019	-0.008
1020	-0.008
1020	-0.008
1021	-0.009
1021	-0.009
1021	-0.009
1022	-0.009
1022	-0.009
1023	-0.01
1023	-0.01
1023	-0.011
1024	-0.012
1024	-0.013
1025	-0.014
1025	-0.014
1026	-0.015
1026	-0.016
1026	-0.016
1027	-0.017
1027	-0.017
1028	-0.017
1028	-0.016
1028	-0.016
1029	-0.016
1029	-0.015
1030	-0.015
1030	-0.014
1031	-0.014
1031	-0.013
1031	-0.013
1032	-0.012
1032	-0.012
1033	-0.012
1033	-0.012
1033	-0.013
1034	-0.014
1034	-0.015
1035	-0.016
1035	-0.016
1036	-0.017
1036	-0.018
1036	-0.019
1037	-0.019
1037	-0.02
1038	-0.021
1038	-0.021
1039	-0.021
1039	-0.021
1039	-0.021
1040	-0.021
1040	-0.021
1041	-0.022
1041	-0.023
1041	-0.023
1042	-0.024
1042	-0.024
1043	-0.025
1043	-0.026
1044	-0.026
1044	-0.026
1044	-0.027
1045	-0.027
1045	-0.027
1046	-0.027
1046	-0.027
1046	-0.026
1047	-0.026
1047	-0.025
1048	-0.024
1048	-0.023
1049	-0.023
1049	-0.023
1049	-0.023
1050	-0.023
1050	-0.023
1051	-0.024
1051	-0.024
1051	-0.024
1052	-0.024
1052	-0.025
1053	-0.025
1053	-0.025
1053	-0.025
1054	-0.025
1054	-0.024
1055	-0.024
1055	-0.024
1056	-0.024
1056	-0.025
1056	-0.026
1057	-0.026
1057	-0.027
1058	-0.027
1058	-0.028
1058	-0.029
1059	-0.03
1059	-0.03
1060	-0.031
1060	-0.032
1061	-0.032
1061	-0.032
1061	-0.033
1062	-0.033
1062	-0.034
1063	-0.034
1063	-0.035
1063	-0.036
1064	-0.037
1064	-0.037
1065	-0.038
1065	-0.039
1066	-0.039
1066	-0.04
1066	-0.041
1067	-0.041
1067	-0.041
1068	-0.041
1068	-0.041
1068	-0.042
1069	-0.042
1069	-0.043
1070	-0.043
1070	-0.044
1071	-0.044
1071	-0.044
1071	-0.045
1072	-0.045
1072	-0.046
1073	-0.046
1073	-0.046
1073	-0.046
1074	-0.045
1074	-0.046
1075	-0.046
1075	-0.046
1076	-0.047
1076	-0.047
1076	-0.047
1077	-0.048
1077	-0.048
1078	-0.049
1078	-0.049
1078	-0.049
1079	-0.05
1079	-0.049
1080	-0.05
1080	-0.05
1080	-0.05
1081	-0.05
1081	-0.049
1082	-0.049
1082	-0.05
1083	-0.05
1083	-0.05
1083	-0.05
1084	-0.05
1084	-0.05
1085	-0.05
1085	-0.05
1085	-0.05
1086	-0.051
1086	-0.052
1087	-0.052
1087	-0.052
1088	-0.053
1088	-0.053
1088	-0.054
1089	-0.055
1089	-0.056
1090	-0.058
1090	-0.06
1090	-0.061
1091	-0.063
1091	-0.063
1092	-0.065
1092	-0.065
1092	-0.067
1093	-0.068
1093	-0.069
1094	-0.069
1094	-0.07
1095	-0.071
1095	-0.072
1095	-0.072
1096	-0.073
1096	-0.073
1097	-0.073
1097	-0.075
1097	-0.075
1098	-0.077
1098	-0.078
1099	-0.079
1099	-0.08
1100	-0.082
1100	-0.083
1100	-0.085
1101	-0.087
1101	-0.089
1102	-0.091
1102	-0.093
1102	-0.094
1103	-0.096
1103	-0.098
1104	-0.099
1104	-0.1
1104	-0.101
1105	-0.102
1105	-0.105
1106	-0.108
1106	-0.11
1107	-0.114
1107	-0.117
1107	-0.12
1108	-0.121
1108	-0.124
1109	-0.127
1109	-0.131
1109	-0.134
1110	-0.134
1110	-0.138
1111	-0.143
1111	-0.138
