Data from 17c-100ul-ns-20ul-nr-full-exp'4ul'bp_Absorbance__1794__03165.txt Node

Date: Mon Jan 15 11:13:16 CET 2024
User: Marek
Spectrometer: MAYP115816
Trigger mode: 0
Integration Time (sec): 2.000000E-1
Scans to average: 10
Electric dark correction enabled: true
Nonlinearity correction enabled: true
Boxcar width: 5
XAxis mode: Wavelengths
Number of Pixels in Spectrum: 2068
>>>>>Begin Spectral Data<<<<<
199	-0.536
199	-0.511
200	-0.439
200	-0.378
201	-0.341
201	-0.319
202	-0.296
202	-0.292
203	-0.285
203	-0.282
204	-0.268
204	-0.253
205	-0.239
205	-0.233
205	-0.236
206	-0.237
206	-0.242
207	-0.24
207	-0.24
208	-0.243
208	-0.242
209	-0.24
209	-0.247
210	-0.249
210	-0.25
211	-0.25
211	-0.251
212	-0.251
212	-0.253
213	-0.253
213	-0.253
213	-0.257
214	-0.257
214	-0.257
215	-0.255
215	-0.259
216	-0.261
216	-0.265
217	-0.263
217	-0.263
218	-0.265
218	-0.261
219	-0.257
219	-0.259
220	-0.258
220	-0.26
221	-0.259
221	-0.258
221	-0.253
222	-0.25
222	-0.248
223	-0.24
223	-0.241
224	-0.241
224	-0.232
225	-0.224
225	-0.217
226	-0.211
226	-0.2
227	-0.188
227	-0.18
228	-0.166
228	-0.154
229	-0.136
229	-0.113
229	-0.093
230	-0.071
230	-0.045
231	-0.02
231	0.005
232	0.026
232	0.052
233	0.075
233	0.098
234	0.119
234	0.138
235	0.155
235	0.17
236	0.184
236	0.197
236	0.209
237	0.22
237	0.229
238	0.238
238	0.245
239	0.253
239	0.258
240	0.263
240	0.266
241	0.27
241	0.273
242	0.275
242	0.278
243	0.28
243	0.282
243	0.284
244	0.286
244	0.288
245	0.289
245	0.29
246	0.292
246	0.293
247	0.294
247	0.296
248	0.297
248	0.298
249	0.299
249	0.3
250	0.301
250	0.303
250	0.304
251	0.304
251	0.305
252	0.307
252	0.307
253	0.308
253	0.309
254	0.31
254	0.311
255	0.311
255	0.311
256	0.312
256	0.312
257	0.312
257	0.312
258	0.313
258	0.313
258	0.313
259	0.312
259	0.312
260	0.312
260	0.311
261	0.311
261	0.31
262	0.31
262	0.309
263	0.308
263	0.307
264	0.306
264	0.305
265	0.303
265	0.302
265	0.301
266	0.3
266	0.298
267	0.296
267	0.295
268	0.293
268	0.292
269	0.29
269	0.288
270	0.286
270	0.285
271	0.283
271	0.281
272	0.279
272	0.277
272	0.276
273	0.274
273	0.272
274	0.27
274	0.268
275	0.266
275	0.264
276	0.262
276	0.26
277	0.258
277	0.256
278	0.254
278	0.253
278	0.251
279	0.249
279	0.246
280	0.244
280	0.242
281	0.24
281	0.237
282	0.235
282	0.233
283	0.231
283	0.229
284	0.227
284	0.225
285	0.223
285	0.222
285	0.22
286	0.218
286	0.217
287	0.215
287	0.214
288	0.213
288	0.211
289	0.21
289	0.208
290	0.207
290	0.206
291	0.205
291	0.204
292	0.202
292	0.201
292	0.2
293	0.199
293	0.198
294	0.197
294	0.196
295	0.195
295	0.195
296	0.194
296	0.193
297	0.192
297	0.192
298	0.191
298	0.19
298	0.19
299	0.189
299	0.189
300	0.188
300	0.187
301	0.187
301	0.186
302	0.186
302	0.185
303	0.185
303	0.184
304	0.184
304	0.184
305	0.183
305	0.183
305	0.182
306	0.182
306	0.182
307	0.181
307	0.181
308	0.18
308	0.18
309	0.179
309	0.179
310	0.178
310	0.178
311	0.178
311	0.177
311	0.177
312	0.177
312	0.176
313	0.176
313	0.175
314	0.175
314	0.175
315	0.174
315	0.174
316	0.174
316	0.173
317	0.173
317	0.173
318	0.172
318	0.172
318	0.171
319	0.171
319	0.171
320	0.17
320	0.17
321	0.169
321	0.169
322	0.168
322	0.168
323	0.168
323	0.167
324	0.167
324	0.166
324	0.166
325	0.165
325	0.165
326	0.165
326	0.164
327	0.164
327	0.164
328	0.163
328	0.163
329	0.162
329	0.162
330	0.162
330	0.161
330	0.161
331	0.161
331	0.16
332	0.16
332	0.159
333	0.159
333	0.159
334	0.158
334	0.158
335	0.157
335	0.157
336	0.157
336	0.156
336	0.156
337	0.155
337	0.155
338	0.155
338	0.154
339	0.154
339	0.154
340	0.153
340	0.153
341	0.153
341	0.152
342	0.152
342	0.152
342	0.151
343	0.151
343	0.151
344	0.151
344	0.15
345	0.15
345	0.15
346	0.15
346	0.149
347	0.149
347	0.149
348	0.149
348	0.149
348	0.148
349	0.148
349	0.148
350	0.148
350	0.148
351	0.148
351	0.147
352	0.147
352	0.147
353	0.147
353	0.147
354	0.147
354	0.146
354	0.146
355	0.146
355	0.146
356	0.146
356	0.146
357	0.146
357	0.146
358	0.146
358	0.146
359	0.146
359	0.146
360	0.145
360	0.145
360	0.145
361	0.145
361	0.144
362	0.144
362	0.144
363	0.144
363	0.144
364	0.144
364	0.144
365	0.144
365	0.144
366	0.144
366	0.144
366	0.144
367	0.144
367	0.144
368	0.144
368	0.144
369	0.144
369	0.144
370	0.143
370	0.143
371	0.143
371	0.143
372	0.143
372	0.143
372	0.143
373	0.143
373	0.143
374	0.143
374	0.143
375	0.143
375	0.143
376	0.143
376	0.143
377	0.143
377	0.143
378	0.143
378	0.142
378	0.142
379	0.142
379	0.142
380	0.142
380	0.142
381	0.142
381	0.142
382	0.142
382	0.142
383	0.142
383	0.142
383	0.142
384	0.141
384	0.141
385	0.141
385	0.141
386	0.141
386	0.141
387	0.141
387	0.14
388	0.14
388	0.14
389	0.14
389	0.14
389	0.14
390	0.14
390	0.14
391	0.14
391	0.14
392	0.14
392	0.14
393	0.14
393	0.14
394	0.14
394	0.14
394	0.14
395	0.139
395	0.139
396	0.139
396	0.139
397	0.139
397	0.139
398	0.139
398	0.139
399	0.139
399	0.138
400	0.138
400	0.139
400	0.138
401	0.138
401	0.138
402	0.138
402	0.137
403	0.137
403	0.137
404	0.137
404	0.137
405	0.137
405	0.137
405	0.137
406	0.137
406	0.137
407	0.137
407	0.137
408	0.137
408	0.137
409	0.137
409	0.137
410	0.137
410	0.137
411	0.137
411	0.136
411	0.136
412	0.136
412	0.136
413	0.135
413	0.135
414	0.135
414	0.135
415	0.135
415	0.135
416	0.134
416	0.134
416	0.134
417	0.134
417	0.134
418	0.134
418	0.134
419	0.134
419	0.134
420	0.134
420	0.134
421	0.134
421	0.134
421	0.134
422	0.134
422	0.134
423	0.134
423	0.134
424	0.133
424	0.133
425	0.133
425	0.133
426	0.133
426	0.133
427	0.133
427	0.133
427	0.133
428	0.133
428	0.133
429	0.133
429	0.133
430	0.133
430	0.133
431	0.133
431	0.133
432	0.132
432	0.132
432	0.132
433	0.131
433	0.131
434	0.131
434	0.131
435	0.131
435	0.131
436	0.131
436	0.131
437	0.13
437	0.13
437	0.13
438	0.13
438	0.13
439	0.13
439	0.13
440	0.13
440	0.13
441	0.13
441	0.13
442	0.13
442	0.13
442	0.13
443	0.13
443	0.13
444	0.129
444	0.13
445	0.13
445	0.13
446	0.13
446	0.13
447	0.13
447	0.13
447	0.129
448	0.129
448	0.129
449	0.129
449	0.129
450	0.129
450	0.129
451	0.129
451	0.129
452	0.129
452	0.129
452	0.128
453	0.129
453	0.128
454	0.128
454	0.129
455	0.129
455	0.129
456	0.129
456	0.129
457	0.129
457	0.129
458	0.129
458	0.129
458	0.13
459	0.13
459	0.13
460	0.129
460	0.129
461	0.129
461	0.129
462	0.129
462	0.13
463	0.13
463	0.13
463	0.13
464	0.13
464	0.13
465	0.13
465	0.13
466	0.13
466	0.13
467	0.13
467	0.129
467	0.129
468	0.129
468	0.128
469	0.129
469	0.129
470	0.129
470	0.129
471	0.129
471	0.13
472	0.13
472	0.13
472	0.131
473	0.131
473	0.131
474	0.131
474	0.131
475	0.131
475	0.132
476	0.132
476	0.131
477	0.131
477	0.131
477	0.131
478	0.131
478	0.131
479	0.131
479	0.132
480	0.132
480	0.132
481	0.133
481	0.133
482	0.134
482	0.134
482	0.135
483	0.136
483	0.137
484	0.137
484	0.137
485	0.137
485	0.137
486	0.137
486	0.138
487	0.138
487	0.139
487	0.139
488	0.139
488	0.139
489	0.139
489	0.141
490	0.141
490	0.142
491	0.143
491	0.143
492	0.144
492	0.145
492	0.145
493	0.146
493	0.147
494	0.149
494	0.15
495	0.151
495	0.152
496	0.153
496	0.154
496	0.155
497	0.156
497	0.157
498	0.157
498	0.158
499	0.158
499	0.159
500	0.16
500	0.16
501	0.161
501	0.162
501	0.162
502	0.163
502	0.164
503	0.165
503	0.166
504	0.166
504	0.167
505	0.168
505	0.169
506	0.17
506	0.171
506	0.172
507	0.172
507	0.173
508	0.174
508	0.175
509	0.176
509	0.177
510	0.178
510	0.179
511	0.18
511	0.181
511	0.182
512	0.183
512	0.183
513	0.183
513	0.184
514	0.185
514	0.186
515	0.186
515	0.186
515	0.187
516	0.187
516	0.188
517	0.189
517	0.189
518	0.189
518	0.19
519	0.19
519	0.19
520	0.191
520	0.191
520	0.191
521	0.191
521	0.191
522	0.192
522	0.192
523	0.193
523	0.193
524	0.193
524	0.193
524	0.193
525	0.193
525	0.193
526	0.193
526	0.193
527	0.193
527	0.193
528	0.193
528	0.193
529	0.192
529	0.192
529	0.192
530	0.192
530	0.191
531	0.191
531	0.191
532	0.191
532	0.19
533	0.19
533	0.19
533	0.189
534	0.189
534	0.188
535	0.188
535	0.188
536	0.188
536	0.188
537	0.188
537	0.187
538	0.187
538	0.186
538	0.186
539	0.186
539	0.185
540	0.185
540	0.184
541	0.182
541	0.182
542	0.181
542	0.181
542	0.18
543	0.18
543	0.179
544	0.179
544	0.179
545	0.179
545	0.179
546	0.178
546	0.177
547	0.177
547	0.175
547	0.175
548	0.175
548	0.174
549	0.174
549	0.173
550	0.172
550	0.171
551	0.17
551	0.17
551	0.169
552	0.169
552	0.168
553	0.168
553	0.167
554	0.167
554	0.166
555	0.166
555	0.165
556	0.165
556	0.164
556	0.163
557	0.163
557	0.162
558	0.162
558	0.161
559	0.16
559	0.159
560	0.158
560	0.157
560	0.157
561	0.157
561	0.157
562	0.156
562	0.155
563	0.154
563	0.153
564	0.153
564	0.152
564	0.152
565	0.152
565	0.152
566	0.151
566	0.15
567	0.15
567	0.15
568	0.15
568	0.15
568	0.15
569	0.149
569	0.149
570	0.147
570	0.146
571	0.146
571	0.146
572	0.145
572	0.144
573	0.144
573	0.143
573	0.142
574	0.141
574	0.142
575	0.142
575	0.143
576	0.143
576	0.141
577	0.14
577	0.14
577	0.14
578	0.14
578	0.14
579	0.141
579	0.141
580	0.139
580	0.137
581	0.135
581	0.135
581	0.136
582	0.136
582	0.137
583	0.138
583	0.137
584	0.134
584	0.133
585	0.134
585	0.135
585	0.135
586	0.136
586	0.135
587	0.134
587	0.133
588	0.132
588	0.132
589	0.132
589	0.133
590	0.133
590	0.133
590	0.135
591	0.135
591	0.134
592	0.134
592	0.133
593	0.133
593	0.133
594	0.132
594	0.131
594	0.131
595	0.131
595	0.13
596	0.131
596	0.133
597	0.136
597	0.136
598	0.137
598	0.137
598	0.138
599	0.138
599	0.137
600	0.136
600	0.135
601	0.135
601	0.134
602	0.132
602	0.132
602	0.131
603	0.131
603	0.131
604	0.131
604	0.131
605	0.132
605	0.133
606	0.133
606	0.132
606	0.132
607	0.132
607	0.132
608	0.132
608	0.131
609	0.131
609	0.131
610	0.131
610	0.13
610	0.131
611	0.132
611	0.133
612	0.134
612	0.135
613	0.136
613	0.136
614	0.136
614	0.135
614	0.135
615	0.135
615	0.134
616	0.134
616	0.134
617	0.133
617	0.133
618	0.133
618	0.133
618	0.133
619	0.134
619	0.136
620	0.137
620	0.138
621	0.139
621	0.139
622	0.14
622	0.14
622	0.14
623	0.14
623	0.141
624	0.141
624	0.14
625	0.14
625	0.14
626	0.14
626	0.14
626	0.141
627	0.142
627	0.143
628	0.143
628	0.144
629	0.144
629	0.145
630	0.145
630	0.145
630	0.147
631	0.148
631	0.148
632	0.148
632	0.149
633	0.15
633	0.15
634	0.152
634	0.153
634	0.154
635	0.155
635	0.155
636	0.156
636	0.156
637	0.157
637	0.158
638	0.159
638	0.16
638	0.16
639	0.161
639	0.161
640	0.162
640	0.163
641	0.164
641	0.165
642	0.166
642	0.167
642	0.167
643	0.168
643	0.169
644	0.17
644	0.171
645	0.172
645	0.173
646	0.175
646	0.177
646	0.178
647	0.18
647	0.181
648	0.182
648	0.183
649	0.184
649	0.186
650	0.187
650	0.188
650	0.189
651	0.191
651	0.192
652	0.194
652	0.196
653	0.199
653	0.206
653	0.21
654	0.166
654	0.134
655	0.136
655	0.137
656	0.139
656	0.14
657	0.141
657	0.142
657	0.143
658	0.14
658	0.133
659	0.17
659	0.221
660	0.228
660	0.229
661	0.231
661	0.233
661	0.235
662	0.238
662	0.24
663	0.241
663	0.243
664	0.244
664	0.246
665	0.248
665	0.249
665	0.251
666	0.253
666	0.255
667	0.257
667	0.259
668	0.261
668	0.263
669	0.266
669	0.269
669	0.271
670	0.274
670	0.275
671	0.277
671	0.279
672	0.28
672	0.282
672	0.284
673	0.286
673	0.287
674	0.289
674	0.29
675	0.291
675	0.293
676	0.295
676	0.296
676	0.297
677	0.298
677	0.299
678	0.299
678	0.299
679	0.3
679	0.3
680	0.301
680	0.302
680	0.302
681	0.303
681	0.304
682	0.304
682	0.305
683	0.306
683	0.308
684	0.308
684	0.308
684	0.308
685	0.308
685	0.309
686	0.309
686	0.309
687	0.309
687	0.31
687	0.31
688	0.31
688	0.31
689	0.311
689	0.312
690	0.311
690	0.311
691	0.31
691	0.31
691	0.309
692	0.308
692	0.307
693	0.306
693	0.306
694	0.304
694	0.303
695	0.304
695	0.305
695	0.304
696	0.303
696	0.303
697	0.303
697	0.302
698	0.301
698	0.3
698	0.299
699	0.299
699	0.297
700	0.295
700	0.294
701	0.292
701	0.291
702	0.289
702	0.288
702	0.286
703	0.285
703	0.283
704	0.282
704	0.281
705	0.28
705	0.279
705	0.277
706	0.277
706	0.275
707	0.274
707	0.273
708	0.271
708	0.27
709	0.269
709	0.267
709	0.265
710	0.264
710	0.263
711	0.262
711	0.261
712	0.259
712	0.257
713	0.256
713	0.254
713	0.253
714	0.252
714	0.251
715	0.25
715	0.248
716	0.247
716	0.246
716	0.244
717	0.243
717	0.242
718	0.24
718	0.239
719	0.238
719	0.236
720	0.234
720	0.232
720	0.229
721	0.227
721	0.225
722	0.223
722	0.221
723	0.22
723	0.219
723	0.217
724	0.215
724	0.214
725	0.212
725	0.211
726	0.21
726	0.209
727	0.208
727	0.207
727	0.205
728	0.204
728	0.203
729	0.203
729	0.202
730	0.201
730	0.2
730	0.199
731	0.198
731	0.198
732	0.197
732	0.196
733	0.195
733	0.194
734	0.192
734	0.191
734	0.19
735	0.189
735	0.188
736	0.186
736	0.186
737	0.185
737	0.184
737	0.182
738	0.18
738	0.178
739	0.177
739	0.176
740	0.174
740	0.173
741	0.172
741	0.17
741	0.168
742	0.166
742	0.166
743	0.166
743	0.165
744	0.165
744	0.165
744	0.164
745	0.164
745	0.163
746	0.163
746	0.163
747	0.163
747	0.162
748	0.161
748	0.16
748	0.159
749	0.157
749	0.157
750	0.155
750	0.154
751	0.153
751	0.152
751	0.151
752	0.15
752	0.149
753	0.149
753	0.148
754	0.148
754	0.147
754	0.147
755	0.146
755	0.146
756	0.145
756	0.144
757	0.143
757	0.143
758	0.143
758	0.142
758	0.141
759	0.141
759	0.139
760	0.139
760	0.138
761	0.138
761	0.139
761	0.139
762	0.138
762	0.139
763	0.138
763	0.137
764	0.136
764	0.136
764	0.135
765	0.134
765	0.134
766	0.134
766	0.134
767	0.133
767	0.132
768	0.132
768	0.132
768	0.133
769	0.133
769	0.133
770	0.132
770	0.132
771	0.131
771	0.13
771	0.13
772	0.129
772	0.129
773	0.128
773	0.127
774	0.126
774	0.125
775	0.124
775	0.123
775	0.121
776	0.12
776	0.119
777	0.118
777	0.117
778	0.116
778	0.116
778	0.116
779	0.116
779	0.116
780	0.116
780	0.116
781	0.116
781	0.116
781	0.116
782	0.117
782	0.117
783	0.117
783	0.117
784	0.116
784	0.116
784	0.116
785	0.115
785	0.115
786	0.115
786	0.115
787	0.115
787	0.114
788	0.114
788	0.114
788	0.114
789	0.114
789	0.114
790	0.114
790	0.114
791	0.114
791	0.114
791	0.114
792	0.114
792	0.113
793	0.112
793	0.112
794	0.111
794	0.11
794	0.11
795	0.11
795	0.11
796	0.11
796	0.109
797	0.108
797	0.108
797	0.108
798	0.108
798	0.108
799	0.107
799	0.106
800	0.105
800	0.103
801	0.102
801	0.101
801	0.1
802	0.098
802	0.097
803	0.097
803	0.096
804	0.096
804	0.095
804	0.095
805	0.094
805	0.094
806	0.094
806	0.095
807	0.095
807	0.095
807	0.096
808	0.096
808	0.096
809	0.096
809	0.097
810	0.097
810	0.097
810	0.098
811	0.099
811	0.1
812	0.101
812	0.101
813	0.101
813	0.102
813	0.102
814	0.102
814	0.103
815	0.102
815	0.102
816	0.101
816	0.1
817	0.099
817	0.098
817	0.098
818	0.098
818	0.097
819	0.097
819	0.096
820	0.095
820	0.094
820	0.094
821	0.094
821	0.094
822	0.093
822	0.093
823	0.092
823	0.092
823	0.092
824	0.092
824	0.092
825	0.092
825	0.092
826	0.092
826	0.091
826	0.09
827	0.089
827	0.088
828	0.087
828	0.086
829	0.086
829	0.085
829	0.084
830	0.083
830	0.083
831	0.084
831	0.083
832	0.083
832	0.083
832	0.083
833	0.083
833	0.083
834	0.083
834	0.083
835	0.083
835	0.083
835	0.083
836	0.083
836	0.084
837	0.084
837	0.084
838	0.085
838	0.085
839	0.085
839	0.086
839	0.086
840	0.087
840	0.087
841	0.088
841	0.089
842	0.09
842	0.091
842	0.091
843	0.091
843	0.091
844	0.091
844	0.091
845	0.09
845	0.09
845	0.089
846	0.088
846	0.087
847	0.086
847	0.085
848	0.084
848	0.083
848	0.082
849	0.081
849	0.08
850	0.08
850	0.079
851	0.079
851	0.079
851	0.078
852	0.078
852	0.078
853	0.078
853	0.077
854	0.077
854	0.077
854	0.077
855	0.077
855	0.077
856	0.076
856	0.077
857	0.077
857	0.077
857	0.077
858	0.077
858	0.077
859	0.077
859	0.077
860	0.077
860	0.077
860	0.078
861	0.077
861	0.077
862	0.077
862	0.077
863	0.076
863	0.076
863	0.075
864	0.074
864	0.074
865	0.073
865	0.072
866	0.071
866	0.07
866	0.07
867	0.069
867	0.069
868	0.069
868	0.069
869	0.069
869	0.07
869	0.069
870	0.069
870	0.069
871	0.069
871	0.068
872	0.067
872	0.066
872	0.065
873	0.064
873	0.063
874	0.062
874	0.062
875	0.061
875	0.061
875	0.06
876	0.06
876	0.059
877	0.058
877	0.057
878	0.056
878	0.055
878	0.055
879	0.054
879	0.053
880	0.053
880	0.054
881	0.054
881	0.055
881	0.056
882	0.058
882	0.059
883	0.061
883	0.062
884	0.063
884	0.065
884	0.066
885	0.067
885	0.068
886	0.069
886	0.069
887	0.07
887	0.07
887	0.07
888	0.07
888	0.071
889	0.071
889	0.072
890	0.072
890	0.073
890	0.073
891	0.073
891	0.073
892	0.073
892	0.073
893	0.072
893	0.072
893	0.071
894	0.07
894	0.069
895	0.068
895	0.067
895	0.065
896	0.064
896	0.063
897	0.062
897	0.062
898	0.061
898	0.061
898	0.06
899	0.06
899	0.059
900	0.059
900	0.059
901	0.059
901	0.059
901	0.059
902	0.058
902	0.058
903	0.058
903	0.058
904	0.058
904	0.057
904	0.057
905	0.057
905	0.057
906	0.056
906	0.056
907	0.056
907	0.056
907	0.056
908	0.056
908	0.056
909	0.056
909	0.057
910	0.057
910	0.058
910	0.059
911	0.059
911	0.06
912	0.06
912	0.061
913	0.061
913	0.061
913	0.06
914	0.06
914	0.059
915	0.058
915	0.058
916	0.057
916	0.056
916	0.055
917	0.055
917	0.055
918	0.055
918	0.055
918	0.055
919	0.056
919	0.057
920	0.057
920	0.058
921	0.058
921	0.058
921	0.058
922	0.058
922	0.059
923	0.059
923	0.059
924	0.059
924	0.059
924	0.059
925	0.059
925	0.059
926	0.059
926	0.059
927	0.058
927	0.058
927	0.057
928	0.057
928	0.056
929	0.056
929	0.056
930	0.055
930	0.055
930	0.054
931	0.053
931	0.053
932	0.052
932	0.052
933	0.052
933	0.052
933	0.051
934	0.051
934	0.05
935	0.05
935	0.049
935	0.049
936	0.049
936	0.048
937	0.048
937	0.048
938	0.047
938	0.047
938	0.047
939	0.047
939	0.047
940	0.047
940	0.047
941	0.048
941	0.048
941	0.049
942	0.049
942	0.05
943	0.05
943	0.05
944	0.051
944	0.051
944	0.051
945	0.051
945	0.051
946	0.051
946	0.05
946	0.05
947	0.05
947	0.05
948	0.05
948	0.049
949	0.049
949	0.049
949	0.049
950	0.049
950	0.049
951	0.049
951	0.049
952	0.049
952	0.049
952	0.049
953	0.049
953	0.049
954	0.049
954	0.049
955	0.049
955	0.049
955	0.049
956	0.049
956	0.049
957	0.048
957	0.048
957	0.047
958	0.046
958	0.046
959	0.045
959	0.044
960	0.043
960	0.042
960	0.041
961	0.04
961	0.039
962	0.039
962	0.039
963	0.039
963	0.039
963	0.039
964	0.04
964	0.041
965	0.041
965	0.042
966	0.043
966	0.044
966	0.045
967	0.045
967	0.045
968	0.046
968	0.046
968	0.046
969	0.045
969	0.045
970	0.045
970	0.045
971	0.045
971	0.045
971	0.045
972	0.045
972	0.045
973	0.046
973	0.045
974	0.045
974	0.045
974	0.045
975	0.044
975	0.044
976	0.042
976	0.041
976	0.04
977	0.039
977	0.038
978	0.037
978	0.036
979	0.035
979	0.035
979	0.035
980	0.034
980	0.034
981	0.034
981	0.035
982	0.035
982	0.036
982	0.037
983	0.038
983	0.039
984	0.039
984	0.04
984	0.041
985	0.042
985	0.042
986	0.042
986	0.042
987	0.042
987	0.042
987	0.042
988	0.041
988	0.04
989	0.039
989	0.038
990	0.037
990	0.037
990	0.036
991	0.035
991	0.034
992	0.033
992	0.032
992	0.031
993	0.029
993	0.028
994	0.027
994	0.025
995	0.024
995	0.023
995	0.022
996	0.021
996	0.02
997	0.019
997	0.019
997	0.019
998	0.019
998	0.02
999	0.021
999	0.022
1000	0.023
1000	0.024
1000	0.025
1001	0.026
1001	0.027
1002	0.028
1002	0.029
1003	0.03
1003	0.031
1003	0.031
1004	0.032
1004	0.032
1005	0.032
1005	0.032
1005	0.032
1006	0.032
1006	0.032
1007	0.032
1007	0.031
1008	0.031
1008	0.031
1008	0.031
1009	0.031
1009	0.031
1010	0.031
1010	0.031
1010	0.031
1011	0.031
1011	0.031
1012	0.031
1012	0.03
1013	0.03
1013	0.029
1013	0.028
1014	0.028
1014	0.026
1015	0.026
1015	0.025
1016	0.023
1016	0.022
1016	0.021
1017	0.021
1017	0.02
1018	0.019
1018	0.018
1018	0.018
1019	0.018
1019	0.017
1020	0.017
1020	0.017
1021	0.017
1021	0.017
1021	0.016
1022	0.016
1022	0.016
1023	0.016
1023	0.015
1023	0.014
1024	0.014
1024	0.013
1025	0.012
1025	0.011
1026	0.01
1026	0.01
1026	0.009
1027	0.009
1027	0.008
1028	0.009
1028	0.009
1028	0.009
1029	0.01
1029	0.011
1030	0.012
1030	0.012
1031	0.013
1031	0.014
1031	0.015
1032	0.016
1032	0.017
1033	0.017
1033	0.017
1033	0.017
1034	0.017
1034	0.016
1035	0.015
1035	0.014
1036	0.013
1036	0.012
1036	0.011
1037	0.011
1037	0.01
1038	0.009
1038	0.008
1039	0.008
1039	0.008
1039	0.008
1040	0.007
1040	0.007
1041	0.006
1041	0.006
1041	0.005
1042	0.004
1042	0.003
1043	0.002
1043	0.001
1044	0
1044	-0
1044	-0.001
1045	-0.002
1045	-0.002
1046	-0.002
1046	-0.003
1046	-0.002
1047	-0.002
1047	-0.001
1048	-0
1048	0
1049	0
1049	0.001
1049	0
1050	0.001
1050	0
1051	0
1051	-0
1051	-0
1052	-0
1052	-0
1053	-0
1053	-0
1053	-0
1054	-0.001
1054	-0
1055	0
1055	0.001
1056	0
1056	-0
1056	-0.001
1057	-0.002
1057	-0.003
1058	-0.003
1058	-0.004
1058	-0.004
1059	-0.005
1059	-0.006
1060	-0.007
1060	-0.007
1061	-0.007
1061	-0.007
1061	-0.007
1062	-0.008
1062	-0.008
1063	-0.009
1063	-0.009
1063	-0.01
1064	-0.01
1064	-0.01
1065	-0.011
1065	-0.011
1066	-0.012
1066	-0.012
1066	-0.012
1067	-0.013
1067	-0.013
1068	-0.013
1068	-0.013
1068	-0.014
1069	-0.014
1069	-0.015
1070	-0.015
1070	-0.016
1071	-0.016
1071	-0.016
1071	-0.017
1072	-0.018
1072	-0.018
1073	-0.018
1073	-0.018
1073	-0.019
1074	-0.019
1074	-0.019
1075	-0.02
1075	-0.02
1076	-0.021
1076	-0.021
1076	-0.021
1077	-0.022
1077	-0.023
1078	-0.023
1078	-0.023
1078	-0.024
1079	-0.024
1079	-0.023
1080	-0.024
1080	-0.024
1080	-0.024
1081	-0.024
1081	-0.024
1082	-0.023
1082	-0.024
1083	-0.024
1083	-0.025
1083	-0.025
1084	-0.025
1084	-0.025
1085	-0.025
1085	-0.025
1085	-0.026
1086	-0.026
1086	-0.028
1087	-0.027
1087	-0.028
1088	-0.029
1088	-0.03
1088	-0.031
1089	-0.033
1089	-0.034
1090	-0.036
1090	-0.037
1090	-0.039
1091	-0.04
1091	-0.042
1092	-0.044
1092	-0.044
1092	-0.046
1093	-0.047
1093	-0.047
1094	-0.048
1094	-0.049
1095	-0.05
1095	-0.051
1095	-0.052
1096	-0.053
1096	-0.054
1097	-0.055
1097	-0.056
1097	-0.057
1098	-0.059
1098	-0.06
1099	-0.062
1099	-0.064
1100	-0.066
1100	-0.068
1100	-0.07
1101	-0.073
1101	-0.076
1102	-0.077
1102	-0.08
1102	-0.082
1103	-0.085
1103	-0.087
1104	-0.088
1104	-0.09
1104	-0.091
1105	-0.092
1105	-0.095
1106	-0.099
1106	-0.102
1107	-0.107
1107	-0.109
1107	-0.113
1108	-0.115
1108	-0.117
1109	-0.12
1109	-0.126
1109	-0.13
1110	-0.131
1110	-0.134
1111	-0.14
1111	-0.13
