Data from 17c-100ul-ns-20ul-nr-full-exp'4ul'bp_Absorbance__374__01745.txt Node

Date: Mon Jan 15 10:25:56 CET 2024
User: Marek
Spectrometer: MAYP115816
Trigger mode: 0
Integration Time (sec): 2.000000E-1
Scans to average: 10
Electric dark correction enabled: true
Nonlinearity correction enabled: true
Boxcar width: 5
XAxis mode: Wavelengths
Number of Pixels in Spectrum: 2068
>>>>>Begin Spectral Data<<<<<
199	-0.526
199	-0.503
200	-0.428
200	-0.365
201	-0.324
201	-0.301
202	-0.278
202	-0.274
203	-0.265
203	-0.264
204	-0.249
204	-0.234
205	-0.219
205	-0.213
205	-0.216
206	-0.219
206	-0.223
207	-0.22
207	-0.218
208	-0.22
208	-0.218
209	-0.215
209	-0.221
210	-0.224
210	-0.225
211	-0.225
211	-0.227
212	-0.228
212	-0.23
213	-0.232
213	-0.232
213	-0.235
214	-0.236
214	-0.235
215	-0.234
215	-0.239
216	-0.24
216	-0.241
217	-0.239
217	-0.239
218	-0.241
218	-0.238
219	-0.234
219	-0.235
220	-0.235
220	-0.236
221	-0.233
221	-0.232
221	-0.228
222	-0.225
222	-0.221
223	-0.215
223	-0.215
224	-0.214
224	-0.206
225	-0.197
225	-0.19
226	-0.184
226	-0.173
227	-0.162
227	-0.155
228	-0.141
228	-0.13
229	-0.111
229	-0.088
229	-0.068
230	-0.045
230	-0.021
231	0.004
231	0.029
232	0.05
232	0.076
233	0.1
233	0.124
234	0.144
234	0.164
235	0.181
235	0.196
236	0.211
236	0.226
236	0.238
237	0.249
237	0.259
238	0.268
238	0.275
239	0.283
239	0.29
240	0.295
240	0.3
241	0.304
241	0.308
242	0.311
242	0.315
243	0.318
243	0.321
243	0.323
244	0.325
244	0.326
245	0.328
245	0.33
246	0.332
246	0.333
247	0.335
247	0.337
248	0.338
248	0.34
249	0.341
249	0.342
250	0.344
250	0.345
250	0.347
251	0.348
251	0.349
252	0.35
252	0.351
253	0.352
253	0.353
254	0.353
254	0.354
255	0.355
255	0.355
256	0.356
256	0.356
257	0.356
257	0.356
258	0.356
258	0.357
258	0.357
259	0.356
259	0.356
260	0.356
260	0.355
261	0.355
261	0.354
262	0.353
262	0.352
263	0.351
263	0.35
264	0.349
264	0.348
265	0.347
265	0.346
265	0.345
266	0.343
266	0.342
267	0.34
267	0.339
268	0.337
268	0.335
269	0.334
269	0.332
270	0.33
270	0.328
271	0.325
271	0.324
272	0.322
272	0.32
272	0.318
273	0.316
273	0.314
274	0.312
274	0.31
275	0.307
275	0.305
276	0.303
276	0.301
277	0.3
277	0.298
278	0.295
278	0.293
278	0.291
279	0.289
279	0.286
280	0.284
280	0.281
281	0.279
281	0.277
282	0.274
282	0.272
283	0.27
283	0.268
284	0.265
284	0.264
285	0.262
285	0.26
285	0.258
286	0.257
286	0.255
287	0.253
287	0.252
288	0.25
288	0.249
289	0.247
289	0.246
290	0.244
290	0.243
291	0.241
291	0.24
292	0.239
292	0.237
292	0.236
293	0.235
293	0.234
294	0.233
294	0.232
295	0.23
295	0.229
296	0.229
296	0.228
297	0.227
297	0.226
298	0.225
298	0.225
298	0.224
299	0.223
299	0.223
300	0.222
300	0.221
301	0.221
301	0.22
302	0.219
302	0.219
303	0.218
303	0.218
304	0.217
304	0.217
305	0.216
305	0.216
305	0.215
306	0.215
306	0.214
307	0.214
307	0.213
308	0.213
308	0.212
309	0.212
309	0.211
310	0.21
310	0.21
311	0.209
311	0.209
311	0.208
312	0.208
312	0.208
313	0.207
313	0.207
314	0.206
314	0.205
315	0.205
315	0.204
316	0.204
316	0.204
317	0.203
317	0.203
318	0.202
318	0.202
318	0.201
319	0.201
319	0.2
320	0.2
320	0.2
321	0.199
321	0.198
322	0.198
322	0.197
323	0.197
323	0.196
324	0.195
324	0.195
324	0.195
325	0.194
325	0.193
326	0.193
326	0.193
327	0.192
327	0.192
328	0.191
328	0.191
329	0.19
329	0.19
330	0.189
330	0.189
330	0.189
331	0.188
331	0.188
332	0.187
332	0.187
333	0.186
333	0.186
334	0.185
334	0.185
335	0.185
335	0.184
336	0.184
336	0.183
336	0.183
337	0.182
337	0.182
338	0.182
338	0.181
339	0.181
339	0.18
340	0.18
340	0.18
341	0.179
341	0.179
342	0.178
342	0.178
342	0.177
343	0.177
343	0.177
344	0.176
344	0.176
345	0.176
345	0.176
346	0.175
346	0.175
347	0.175
347	0.175
348	0.175
348	0.174
348	0.174
349	0.174
349	0.174
350	0.174
350	0.174
351	0.173
351	0.173
352	0.173
352	0.172
353	0.172
353	0.172
354	0.172
354	0.172
354	0.172
355	0.171
355	0.171
356	0.171
356	0.171
357	0.171
357	0.171
358	0.171
358	0.171
359	0.17
359	0.17
360	0.17
360	0.17
360	0.169
361	0.169
361	0.169
362	0.169
362	0.169
363	0.169
363	0.169
364	0.169
364	0.168
365	0.169
365	0.168
366	0.168
366	0.168
366	0.168
367	0.169
367	0.169
368	0.168
368	0.168
369	0.168
369	0.168
370	0.168
370	0.168
371	0.168
371	0.168
372	0.168
372	0.167
372	0.167
373	0.167
373	0.167
374	0.167
374	0.167
375	0.167
375	0.167
376	0.167
376	0.167
377	0.167
377	0.166
378	0.166
378	0.166
378	0.166
379	0.166
379	0.166
380	0.166
380	0.166
381	0.166
381	0.165
382	0.165
382	0.165
383	0.165
383	0.165
383	0.165
384	0.165
384	0.165
385	0.164
385	0.164
386	0.164
386	0.164
387	0.164
387	0.164
388	0.164
388	0.163
389	0.163
389	0.163
389	0.163
390	0.163
390	0.163
391	0.163
391	0.163
392	0.163
392	0.163
393	0.163
393	0.163
394	0.163
394	0.162
394	0.162
395	0.162
395	0.162
396	0.162
396	0.162
397	0.161
397	0.161
398	0.161
398	0.161
399	0.161
399	0.161
400	0.161
400	0.161
400	0.161
401	0.161
401	0.16
402	0.16
402	0.16
403	0.16
403	0.16
404	0.159
404	0.159
405	0.159
405	0.159
405	0.159
406	0.159
406	0.159
407	0.159
407	0.158
408	0.158
408	0.158
409	0.158
409	0.158
410	0.158
410	0.158
411	0.158
411	0.158
411	0.157
412	0.157
412	0.157
413	0.157
413	0.157
414	0.156
414	0.156
415	0.156
415	0.156
416	0.155
416	0.155
416	0.155
417	0.155
417	0.154
418	0.154
418	0.155
419	0.155
419	0.155
420	0.155
420	0.155
421	0.155
421	0.154
421	0.155
422	0.155
422	0.155
423	0.155
423	0.155
424	0.154
424	0.154
425	0.154
425	0.154
426	0.154
426	0.154
427	0.154
427	0.154
427	0.154
428	0.153
428	0.153
429	0.153
429	0.153
430	0.153
430	0.153
431	0.153
431	0.153
432	0.153
432	0.152
432	0.152
433	0.152
433	0.152
434	0.152
434	0.152
435	0.151
435	0.151
436	0.151
436	0.151
437	0.151
437	0.151
437	0.151
438	0.151
438	0.151
439	0.151
439	0.15
440	0.15
440	0.15
441	0.15
441	0.15
442	0.15
442	0.15
442	0.15
443	0.15
443	0.15
444	0.15
444	0.15
445	0.15
445	0.15
446	0.15
446	0.15
447	0.15
447	0.15
447	0.15
448	0.15
448	0.15
449	0.149
449	0.149
450	0.149
450	0.149
451	0.148
451	0.148
452	0.148
452	0.148
452	0.148
453	0.148
453	0.148
454	0.148
454	0.148
455	0.148
455	0.148
456	0.148
456	0.148
457	0.149
457	0.149
458	0.149
458	0.149
458	0.149
459	0.149
459	0.149
460	0.149
460	0.149
461	0.149
461	0.149
462	0.149
462	0.149
463	0.149
463	0.149
463	0.15
464	0.149
464	0.149
465	0.149
465	0.149
466	0.149
466	0.149
467	0.149
467	0.149
467	0.149
468	0.148
468	0.148
469	0.149
469	0.149
470	0.149
470	0.149
471	0.15
471	0.15
472	0.15
472	0.15
472	0.151
473	0.151
473	0.151
474	0.152
474	0.152
475	0.152
475	0.153
476	0.153
476	0.153
477	0.153
477	0.153
477	0.153
478	0.153
478	0.154
479	0.154
479	0.154
480	0.154
480	0.154
481	0.155
481	0.155
482	0.156
482	0.157
482	0.157
483	0.158
483	0.159
484	0.159
484	0.159
485	0.16
485	0.16
486	0.16
486	0.161
487	0.161
487	0.162
487	0.163
488	0.163
488	0.163
489	0.164
489	0.166
490	0.167
490	0.167
491	0.168
491	0.169
492	0.17
492	0.17
492	0.171
493	0.172
493	0.173
494	0.175
494	0.176
495	0.177
495	0.178
496	0.18
496	0.181
496	0.183
497	0.184
497	0.185
498	0.186
498	0.187
499	0.187
499	0.188
500	0.19
500	0.191
501	0.192
501	0.192
501	0.193
502	0.194
502	0.195
503	0.196
503	0.197
504	0.198
504	0.199
505	0.2
505	0.201
506	0.203
506	0.204
506	0.205
507	0.206
507	0.207
508	0.209
508	0.21
509	0.211
509	0.212
510	0.214
510	0.215
511	0.216
511	0.217
511	0.218
512	0.219
512	0.22
513	0.22
513	0.221
514	0.222
514	0.223
515	0.224
515	0.225
515	0.225
516	0.226
516	0.227
517	0.227
517	0.228
518	0.229
518	0.229
519	0.23
519	0.23
520	0.23
520	0.231
520	0.231
521	0.231
521	0.231
522	0.231
522	0.232
523	0.232
523	0.232
524	0.233
524	0.233
524	0.233
525	0.233
525	0.233
526	0.233
526	0.233
527	0.233
527	0.233
528	0.233
528	0.233
529	0.232
529	0.232
529	0.232
530	0.232
530	0.232
531	0.232
531	0.231
532	0.231
532	0.23
533	0.23
533	0.229
533	0.229
534	0.228
534	0.227
535	0.226
535	0.226
536	0.226
536	0.226
537	0.225
537	0.225
538	0.224
538	0.223
538	0.223
539	0.223
539	0.222
540	0.222
540	0.221
541	0.219
541	0.219
542	0.218
542	0.218
542	0.217
543	0.217
543	0.216
544	0.215
544	0.214
545	0.214
545	0.214
546	0.213
546	0.212
547	0.21
547	0.209
547	0.208
548	0.208
548	0.207
549	0.206
549	0.205
550	0.204
550	0.203
551	0.202
551	0.201
551	0.2
552	0.2
552	0.199
553	0.198
553	0.197
554	0.197
554	0.195
555	0.194
555	0.193
556	0.192
556	0.191
556	0.19
557	0.19
557	0.189
558	0.188
558	0.187
559	0.185
559	0.185
560	0.184
560	0.183
560	0.182
561	0.182
561	0.181
562	0.18
562	0.179
563	0.177
563	0.177
564	0.176
564	0.175
564	0.174
565	0.174
565	0.173
566	0.172
566	0.171
567	0.171
567	0.17
568	0.17
568	0.169
568	0.169
569	0.169
569	0.168
570	0.166
570	0.165
571	0.165
571	0.165
572	0.164
572	0.163
573	0.162
573	0.161
573	0.16
574	0.159
574	0.159
575	0.159
575	0.16
576	0.159
576	0.158
577	0.157
577	0.156
577	0.156
578	0.156
578	0.157
579	0.157
579	0.157
580	0.155
580	0.153
581	0.151
581	0.151
581	0.151
582	0.151
582	0.151
583	0.151
583	0.15
584	0.148
584	0.146
585	0.147
585	0.148
585	0.148
586	0.148
586	0.147
587	0.146
587	0.145
588	0.144
588	0.144
589	0.144
589	0.145
590	0.145
590	0.144
590	0.146
591	0.146
591	0.145
592	0.144
592	0.143
593	0.143
593	0.143
594	0.142
594	0.141
594	0.14
595	0.14
595	0.14
596	0.14
596	0.142
597	0.144
597	0.144
598	0.144
598	0.144
598	0.144
599	0.144
599	0.143
600	0.142
600	0.142
601	0.141
601	0.14
602	0.138
602	0.138
602	0.136
603	0.136
603	0.136
604	0.136
604	0.136
605	0.137
605	0.137
606	0.136
606	0.136
606	0.136
607	0.136
607	0.136
608	0.136
608	0.135
609	0.135
609	0.135
610	0.135
610	0.135
610	0.135
611	0.136
611	0.137
612	0.137
612	0.138
613	0.138
613	0.139
614	0.138
614	0.137
614	0.137
615	0.136
615	0.136
616	0.136
616	0.136
617	0.135
617	0.135
618	0.135
618	0.135
618	0.136
619	0.137
619	0.138
620	0.14
620	0.14
621	0.141
621	0.141
622	0.141
622	0.142
622	0.141
623	0.141
623	0.142
624	0.142
624	0.141
625	0.141
625	0.141
626	0.141
626	0.141
626	0.142
627	0.143
627	0.144
628	0.145
628	0.145
629	0.146
629	0.147
630	0.147
630	0.148
630	0.149
631	0.15
631	0.151
632	0.151
632	0.151
633	0.152
633	0.153
634	0.154
634	0.156
634	0.156
635	0.157
635	0.157
636	0.158
636	0.159
637	0.159
637	0.16
638	0.161
638	0.161
638	0.162
639	0.163
639	0.164
640	0.165
640	0.166
641	0.166
641	0.167
642	0.168
642	0.17
642	0.171
643	0.172
643	0.172
644	0.173
644	0.174
645	0.176
645	0.177
646	0.179
646	0.181
646	0.182
647	0.183
647	0.185
648	0.186
648	0.187
649	0.189
649	0.191
650	0.192
650	0.194
650	0.195
651	0.196
651	0.198
652	0.2
652	0.202
653	0.205
653	0.211
653	0.214
654	0.169
654	0.136
655	0.139
655	0.14
656	0.141
656	0.143
657	0.144
657	0.145
657	0.146
658	0.143
658	0.137
659	0.176
659	0.229
660	0.235
660	0.237
661	0.24
661	0.243
661	0.245
662	0.248
662	0.251
663	0.253
663	0.255
664	0.257
664	0.258
665	0.26
665	0.262
665	0.264
666	0.266
666	0.268
667	0.27
667	0.273
668	0.275
668	0.277
669	0.28
669	0.283
669	0.286
670	0.288
670	0.29
671	0.292
671	0.293
672	0.295
672	0.297
672	0.298
673	0.3
673	0.302
674	0.304
674	0.305
675	0.307
675	0.309
676	0.311
676	0.312
676	0.313
677	0.314
677	0.315
678	0.315
678	0.316
679	0.316
679	0.317
680	0.318
680	0.318
680	0.319
681	0.319
681	0.32
682	0.32
682	0.321
683	0.322
683	0.323
684	0.324
684	0.324
684	0.324
685	0.325
685	0.325
686	0.326
686	0.326
687	0.327
687	0.327
687	0.328
688	0.328
688	0.328
689	0.329
689	0.329
690	0.329
690	0.328
691	0.328
691	0.327
691	0.326
692	0.325
692	0.324
693	0.324
693	0.323
694	0.322
694	0.321
695	0.322
695	0.322
695	0.322
696	0.321
696	0.32
697	0.32
697	0.319
698	0.318
698	0.317
698	0.316
699	0.315
699	0.313
700	0.311
700	0.31
701	0.309
701	0.307
702	0.305
702	0.303
702	0.301
703	0.299
703	0.297
704	0.296
704	0.295
705	0.293
705	0.291
705	0.289
706	0.288
706	0.287
707	0.286
707	0.285
708	0.284
708	0.283
709	0.282
709	0.28
709	0.278
710	0.277
710	0.276
711	0.275
711	0.273
712	0.272
712	0.27
713	0.269
713	0.267
713	0.266
714	0.264
714	0.263
715	0.262
715	0.26
716	0.259
716	0.257
716	0.256
717	0.254
717	0.253
718	0.25
718	0.249
719	0.247
719	0.245
720	0.243
720	0.24
720	0.238
721	0.235
721	0.233
722	0.231
722	0.228
723	0.227
723	0.225
723	0.223
724	0.222
724	0.22
725	0.219
725	0.218
726	0.217
726	0.216
727	0.215
727	0.214
727	0.212
728	0.211
728	0.21
729	0.209
729	0.208
730	0.206
730	0.205
730	0.204
731	0.203
731	0.201
732	0.2
732	0.199
733	0.198
733	0.196
734	0.195
734	0.194
734	0.193
735	0.192
735	0.191
736	0.189
736	0.189
737	0.188
737	0.187
737	0.186
738	0.183
738	0.182
739	0.18
739	0.179
740	0.177
740	0.176
741	0.175
741	0.173
741	0.171
742	0.169
742	0.168
743	0.168
743	0.167
744	0.166
744	0.166
744	0.164
745	0.163
745	0.162
746	0.162
746	0.161
747	0.16
747	0.159
748	0.158
748	0.157
748	0.156
749	0.155
749	0.154
750	0.153
750	0.152
751	0.152
751	0.151
751	0.151
752	0.149
752	0.149
753	0.148
753	0.148
754	0.147
754	0.146
754	0.146
755	0.145
755	0.144
756	0.143
756	0.141
757	0.141
757	0.14
758	0.139
758	0.138
758	0.138
759	0.137
759	0.135
760	0.134
760	0.134
761	0.134
761	0.134
761	0.134
762	0.134
762	0.134
763	0.134
763	0.133
764	0.133
764	0.132
764	0.132
765	0.131
765	0.13
766	0.13
766	0.13
767	0.129
767	0.128
768	0.127
768	0.127
768	0.126
769	0.126
769	0.125
770	0.125
770	0.124
771	0.123
771	0.122
771	0.121
772	0.121
772	0.121
773	0.12
773	0.12
774	0.119
774	0.118
775	0.118
775	0.116
775	0.114
776	0.113
776	0.112
777	0.111
777	0.11
778	0.108
778	0.107
778	0.107
779	0.107
779	0.107
780	0.106
780	0.106
781	0.106
781	0.106
781	0.105
782	0.105
782	0.105
783	0.105
783	0.104
784	0.103
784	0.102
784	0.101
785	0.101
785	0.1
786	0.1
786	0.1
787	0.1
787	0.1
788	0.099
788	0.099
788	0.099
789	0.099
789	0.099
790	0.099
790	0.099
791	0.099
791	0.099
791	0.099
792	0.1
792	0.099
793	0.098
793	0.098
794	0.098
794	0.097
794	0.097
795	0.097
795	0.097
796	0.097
796	0.096
797	0.095
797	0.095
797	0.094
798	0.094
798	0.093
799	0.092
799	0.091
800	0.089
800	0.087
801	0.086
801	0.085
801	0.084
802	0.083
802	0.082
803	0.081
803	0.08
804	0.08
804	0.08
804	0.079
805	0.079
805	0.079
806	0.08
806	0.08
807	0.081
807	0.081
807	0.082
808	0.082
808	0.082
809	0.082
809	0.083
810	0.084
810	0.084
810	0.084
811	0.084
811	0.085
812	0.086
812	0.086
813	0.086
813	0.086
813	0.086
814	0.086
814	0.086
815	0.086
815	0.085
816	0.084
816	0.083
817	0.082
817	0.082
817	0.081
818	0.081
818	0.08
819	0.08
819	0.078
820	0.077
820	0.077
820	0.077
821	0.076
821	0.076
822	0.076
822	0.076
823	0.075
823	0.075
823	0.075
824	0.075
824	0.075
825	0.076
825	0.076
826	0.075
826	0.075
826	0.074
827	0.074
827	0.073
828	0.072
828	0.071
829	0.071
829	0.071
829	0.07
830	0.069
830	0.069
831	0.069
831	0.069
832	0.069
832	0.069
832	0.069
833	0.069
833	0.069
834	0.069
834	0.068
835	0.068
835	0.067
835	0.066
836	0.066
836	0.065
837	0.064
837	0.064
838	0.063
838	0.063
839	0.063
839	0.063
839	0.063
840	0.063
840	0.063
841	0.064
841	0.064
842	0.065
842	0.065
842	0.066
843	0.066
843	0.066
844	0.066
844	0.066
845	0.065
845	0.065
845	0.064
846	0.063
846	0.063
847	0.062
847	0.061
848	0.061
848	0.06
848	0.06
849	0.06
849	0.059
850	0.058
850	0.058
851	0.058
851	0.058
851	0.058
852	0.058
852	0.058
853	0.058
853	0.058
854	0.058
854	0.058
854	0.058
855	0.059
855	0.058
856	0.058
856	0.059
857	0.059
857	0.059
857	0.059
858	0.059
858	0.059
859	0.059
859	0.059
860	0.059
860	0.06
860	0.06
861	0.06
861	0.06
862	0.06
862	0.06
863	0.06
863	0.06
863	0.06
864	0.06
864	0.059
865	0.058
865	0.057
866	0.056
866	0.055
866	0.055
867	0.054
867	0.053
868	0.053
868	0.053
869	0.053
869	0.053
869	0.052
870	0.052
870	0.052
871	0.051
871	0.051
872	0.05
872	0.048
872	0.047
873	0.046
873	0.045
874	0.044
874	0.043
875	0.043
875	0.042
875	0.041
876	0.041
876	0.04
877	0.039
877	0.039
878	0.038
878	0.038
878	0.037
879	0.037
879	0.037
880	0.037
880	0.037
881	0.037
881	0.038
881	0.04
882	0.041
882	0.043
883	0.044
883	0.045
884	0.047
884	0.048
884	0.049
885	0.05
885	0.051
886	0.052
886	0.052
887	0.052
887	0.052
887	0.052
888	0.053
888	0.053
889	0.053
889	0.054
890	0.054
890	0.054
890	0.055
891	0.055
891	0.055
892	0.055
892	0.054
893	0.054
893	0.053
893	0.052
894	0.051
894	0.05
895	0.049
895	0.048
895	0.046
896	0.045
896	0.043
897	0.042
897	0.042
898	0.041
898	0.04
898	0.039
899	0.039
899	0.038
900	0.037
900	0.037
901	0.037
901	0.037
901	0.036
902	0.036
902	0.036
903	0.036
903	0.036
904	0.036
904	0.036
904	0.036
905	0.036
905	0.036
906	0.036
906	0.035
907	0.035
907	0.035
907	0.034
908	0.034
908	0.034
909	0.034
909	0.034
910	0.034
910	0.035
910	0.035
911	0.036
911	0.036
912	0.037
912	0.037
913	0.037
913	0.037
913	0.037
914	0.036
914	0.036
915	0.035
915	0.034
916	0.033
916	0.032
916	0.032
917	0.032
917	0.032
918	0.033
918	0.033
918	0.034
919	0.035
919	0.036
920	0.036
920	0.037
921	0.037
921	0.037
921	0.037
922	0.037
922	0.037
923	0.037
923	0.037
924	0.036
924	0.036
924	0.035
925	0.035
925	0.035
926	0.035
926	0.035
927	0.035
927	0.034
927	0.034
928	0.034
928	0.034
929	0.034
929	0.034
930	0.033
930	0.033
930	0.033
931	0.033
931	0.032
932	0.032
932	0.032
933	0.032
933	0.032
933	0.031
934	0.031
934	0.03
935	0.03
935	0.029
935	0.028
936	0.028
936	0.027
937	0.027
937	0.026
938	0.026
938	0.025
938	0.025
939	0.025
939	0.026
940	0.026
940	0.027
941	0.027
941	0.028
941	0.029
942	0.03
942	0.03
943	0.031
943	0.031
944	0.031
944	0.031
944	0.031
945	0.031
945	0.032
946	0.032
946	0.031
946	0.031
947	0.031
947	0.031
948	0.031
948	0.031
949	0.031
949	0.031
949	0.031
950	0.031
950	0.031
951	0.031
951	0.031
952	0.031
952	0.032
952	0.032
953	0.032
953	0.032
954	0.032
954	0.032
955	0.032
955	0.032
955	0.032
956	0.032
956	0.031
957	0.031
957	0.03
957	0.029
958	0.028
958	0.027
959	0.026
959	0.025
960	0.024
960	0.023
960	0.022
961	0.021
961	0.02
962	0.02
962	0.02
963	0.02
963	0.021
963	0.022
964	0.023
964	0.023
965	0.024
965	0.025
966	0.026
966	0.027
966	0.028
967	0.028
967	0.029
968	0.029
968	0.029
968	0.029
969	0.029
969	0.029
970	0.029
970	0.029
971	0.029
971	0.029
971	0.029
972	0.029
972	0.029
973	0.029
973	0.028
974	0.028
974	0.028
974	0.027
975	0.027
975	0.026
976	0.025
976	0.025
976	0.023
977	0.022
977	0.021
978	0.02
978	0.019
979	0.018
979	0.018
979	0.017
980	0.017
980	0.016
981	0.016
981	0.017
982	0.017
982	0.017
982	0.018
983	0.019
983	0.019
984	0.02
984	0.02
984	0.021
985	0.022
985	0.022
986	0.022
986	0.021
987	0.021
987	0.021
987	0.02
988	0.019
988	0.018
989	0.017
989	0.015
990	0.014
990	0.012
990	0.011
991	0.01
991	0.008
992	0.007
992	0.006
992	0.004
993	0.003
993	0.002
994	0.001
994	-0
995	-0.001
995	-0.002
995	-0.002
996	-0.003
996	-0.003
997	-0.003
997	-0.003
997	-0.003
998	-0.002
998	-0.001
999	0
999	0.001
1000	0.003
1000	0.004
1000	0.005
1001	0.006
1001	0.008
1002	0.009
1002	0.01
1003	0.011
1003	0.012
1003	0.013
1004	0.013
1004	0.014
1005	0.014
1005	0.015
1005	0.015
1006	0.015
1006	0.015
1007	0.015
1007	0.015
1008	0.015
1008	0.015
1008	0.015
1009	0.015
1009	0.015
1010	0.015
1010	0.016
1010	0.016
1011	0.016
1011	0.015
1012	0.015
1012	0.015
1013	0.014
1013	0.013
1013	0.013
1014	0.012
1014	0.01
1015	0.009
1015	0.008
1016	0.007
1016	0.006
1016	0.005
1017	0.004
1017	0.003
1018	0.003
1018	0.002
1018	0.002
1019	0.002
1019	0.002
1020	0.002
1020	0.002
1021	0.002
1021	0.001
1021	0.001
1022	0.001
1022	0
1023	-0
1023	-0.001
1023	-0.002
1024	-0.003
1024	-0.004
1025	-0.004
1025	-0.005
1026	-0.006
1026	-0.006
1026	-0.007
1027	-0.007
1027	-0.007
1028	-0.007
1028	-0.007
1028	-0.006
1029	-0.006
1029	-0.005
1030	-0.005
1030	-0.004
1031	-0.004
1031	-0.003
1031	-0.003
1032	-0.002
1032	-0.002
1033	-0.002
1033	-0.002
1033	-0.003
1034	-0.003
1034	-0.004
1035	-0.005
1035	-0.006
1036	-0.007
1036	-0.007
1036	-0.008
1037	-0.009
1037	-0.009
1038	-0.01
1038	-0.01
1039	-0.01
1039	-0.01
1039	-0.011
1040	-0.011
1040	-0.011
1041	-0.011
1041	-0.012
1041	-0.013
1042	-0.013
1042	-0.014
1043	-0.015
1043	-0.015
1044	-0.016
1044	-0.017
1044	-0.017
1045	-0.018
1045	-0.018
1046	-0.018
1046	-0.018
1046	-0.017
1047	-0.017
1047	-0.016
1048	-0.015
1048	-0.015
1049	-0.015
1049	-0.015
1049	-0.015
1050	-0.014
1050	-0.015
1051	-0.015
1051	-0.015
1051	-0.015
1052	-0.016
1052	-0.016
1053	-0.016
1053	-0.016
1053	-0.016
1054	-0.016
1054	-0.016
1055	-0.015
1055	-0.015
1056	-0.015
1056	-0.016
1056	-0.016
1057	-0.017
1057	-0.018
1058	-0.018
1058	-0.019
1058	-0.02
1059	-0.02
1059	-0.021
1060	-0.022
1060	-0.022
1061	-0.022
1061	-0.022
1061	-0.022
1062	-0.023
1062	-0.023
1063	-0.024
1063	-0.025
1063	-0.025
1064	-0.026
1064	-0.026
1065	-0.027
1065	-0.028
1066	-0.028
1066	-0.029
1066	-0.03
1067	-0.03
1067	-0.03
1068	-0.03
1068	-0.03
1068	-0.031
1069	-0.031
1069	-0.032
1070	-0.032
1070	-0.033
1071	-0.033
1071	-0.033
1071	-0.034
1072	-0.034
1072	-0.035
1073	-0.035
1073	-0.035
1073	-0.035
1074	-0.035
1074	-0.035
1075	-0.036
1075	-0.036
1076	-0.037
1076	-0.036
1076	-0.037
1077	-0.038
1077	-0.038
1078	-0.039
1078	-0.039
1078	-0.04
1079	-0.04
1079	-0.04
1080	-0.04
1080	-0.04
1080	-0.041
1081	-0.04
1081	-0.04
1082	-0.039
1082	-0.04
1083	-0.04
1083	-0.04
1083	-0.04
1084	-0.04
1084	-0.04
1085	-0.04
1085	-0.04
1085	-0.04
1086	-0.041
1086	-0.043
1087	-0.042
1087	-0.043
1088	-0.044
1088	-0.045
1088	-0.046
1089	-0.047
1089	-0.049
1090	-0.051
1090	-0.052
1090	-0.054
1091	-0.055
1091	-0.056
1092	-0.057
1092	-0.057
1092	-0.058
1093	-0.06
1093	-0.06
1094	-0.06
1094	-0.061
1095	-0.062
1095	-0.064
1095	-0.064
1096	-0.065
1096	-0.066
1097	-0.067
1097	-0.069
1097	-0.07
1098	-0.071
1098	-0.072
1099	-0.073
1099	-0.075
1100	-0.076
1100	-0.077
1100	-0.079
1101	-0.081
1101	-0.084
1102	-0.085
1102	-0.087
1102	-0.088
1103	-0.091
1103	-0.092
1104	-0.093
1104	-0.094
1104	-0.095
1105	-0.097
1105	-0.099
1106	-0.102
1106	-0.105
1107	-0.109
1107	-0.112
1107	-0.116
1108	-0.117
1108	-0.12
1109	-0.122
1109	-0.128
1109	-0.131
1110	-0.132
1110	-0.136
1111	-0.14
1111	-0.133
