Data from 17c-100ul-ns-20ul-nr-full-exp'4ul'bp_Absorbance__483__01854.txt Node

Date: Mon Jan 15 10:29:34 CET 2024
User: Marek
Spectrometer: MAYP115816
Trigger mode: 0
Integration Time (sec): 2.000000E-1
Scans to average: 10
Electric dark correction enabled: true
Nonlinearity correction enabled: true
Boxcar width: 5
XAxis mode: Wavelengths
Number of Pixels in Spectrum: 2068
>>>>>Begin Spectral Data<<<<<
199	-0.524
199	-0.497
200	-0.424
200	-0.364
201	-0.324
201	-0.302
202	-0.28
202	-0.275
203	-0.267
203	-0.265
204	-0.249
204	-0.234
205	-0.22
205	-0.213
205	-0.216
206	-0.218
206	-0.221
207	-0.219
207	-0.219
208	-0.221
208	-0.22
209	-0.219
209	-0.223
210	-0.226
210	-0.227
211	-0.226
211	-0.228
212	-0.23
212	-0.231
213	-0.233
213	-0.232
213	-0.234
214	-0.234
214	-0.236
215	-0.234
215	-0.239
216	-0.242
216	-0.244
217	-0.242
217	-0.243
218	-0.243
218	-0.24
219	-0.236
219	-0.238
220	-0.236
220	-0.237
221	-0.234
221	-0.233
221	-0.228
222	-0.225
222	-0.223
223	-0.218
223	-0.219
224	-0.218
224	-0.21
225	-0.202
225	-0.195
226	-0.189
226	-0.178
227	-0.166
227	-0.157
228	-0.142
228	-0.129
229	-0.111
229	-0.087
229	-0.068
230	-0.045
230	-0.021
231	0.003
231	0.028
232	0.049
232	0.074
233	0.097
233	0.121
234	0.141
234	0.16
235	0.177
235	0.192
236	0.207
236	0.22
236	0.233
237	0.244
237	0.254
238	0.262
238	0.27
239	0.278
239	0.284
240	0.289
240	0.294
241	0.298
241	0.302
242	0.305
242	0.308
243	0.311
243	0.313
243	0.315
244	0.318
244	0.319
245	0.321
245	0.323
246	0.325
246	0.327
247	0.328
247	0.329
248	0.331
248	0.332
249	0.334
249	0.335
250	0.336
250	0.338
250	0.339
251	0.34
251	0.341
252	0.342
252	0.343
253	0.344
253	0.344
254	0.345
254	0.346
255	0.346
255	0.347
256	0.347
256	0.348
257	0.348
257	0.348
258	0.349
258	0.349
258	0.349
259	0.348
259	0.348
260	0.348
260	0.348
261	0.347
261	0.347
262	0.346
262	0.345
263	0.344
263	0.343
264	0.342
264	0.341
265	0.34
265	0.338
265	0.337
266	0.335
266	0.334
267	0.332
267	0.33
268	0.329
268	0.327
269	0.326
269	0.324
270	0.322
270	0.32
271	0.318
271	0.316
272	0.314
272	0.312
272	0.31
273	0.308
273	0.306
274	0.304
274	0.302
275	0.3
275	0.298
276	0.296
276	0.294
277	0.292
277	0.29
278	0.288
278	0.286
278	0.284
279	0.282
279	0.279
280	0.277
280	0.275
281	0.272
281	0.27
282	0.268
282	0.265
283	0.263
283	0.261
284	0.259
284	0.257
285	0.256
285	0.254
285	0.252
286	0.25
286	0.248
287	0.247
287	0.245
288	0.244
288	0.242
289	0.241
289	0.239
290	0.238
290	0.236
291	0.235
291	0.234
292	0.232
292	0.231
292	0.23
293	0.229
293	0.228
294	0.227
294	0.226
295	0.225
295	0.224
296	0.223
296	0.222
297	0.221
297	0.22
298	0.219
298	0.219
298	0.218
299	0.217
299	0.216
300	0.216
300	0.215
301	0.215
301	0.214
302	0.213
302	0.213
303	0.212
303	0.212
304	0.211
304	0.211
305	0.21
305	0.21
305	0.209
306	0.209
306	0.208
307	0.208
307	0.207
308	0.207
308	0.206
309	0.206
309	0.205
310	0.205
310	0.205
311	0.204
311	0.204
311	0.203
312	0.203
312	0.202
313	0.202
313	0.201
314	0.2
314	0.2
315	0.199
315	0.199
316	0.199
316	0.198
317	0.198
317	0.197
318	0.197
318	0.196
318	0.196
319	0.196
319	0.195
320	0.195
320	0.194
321	0.194
321	0.193
322	0.193
322	0.192
323	0.192
323	0.191
324	0.191
324	0.19
324	0.19
325	0.189
325	0.189
326	0.188
326	0.188
327	0.187
327	0.187
328	0.187
328	0.186
329	0.186
329	0.185
330	0.185
330	0.184
330	0.184
331	0.183
331	0.183
332	0.182
332	0.182
333	0.181
333	0.181
334	0.181
334	0.18
335	0.18
335	0.179
336	0.179
336	0.179
336	0.178
337	0.178
337	0.177
338	0.177
338	0.177
339	0.176
339	0.176
340	0.176
340	0.175
341	0.175
341	0.174
342	0.173
342	0.173
342	0.173
343	0.172
343	0.172
344	0.172
344	0.172
345	0.171
345	0.171
346	0.171
346	0.171
347	0.171
347	0.17
348	0.17
348	0.17
348	0.17
349	0.17
349	0.169
350	0.169
350	0.169
351	0.169
351	0.169
352	0.168
352	0.168
353	0.168
353	0.168
354	0.168
354	0.168
354	0.167
355	0.167
355	0.167
356	0.167
356	0.167
357	0.167
357	0.167
358	0.167
358	0.166
359	0.166
359	0.166
360	0.166
360	0.166
360	0.165
361	0.165
361	0.165
362	0.165
362	0.165
363	0.165
363	0.164
364	0.165
364	0.164
365	0.164
365	0.164
366	0.164
366	0.164
366	0.164
367	0.165
367	0.164
368	0.164
368	0.164
369	0.164
369	0.164
370	0.164
370	0.164
371	0.164
371	0.164
372	0.164
372	0.164
372	0.164
373	0.164
373	0.164
374	0.164
374	0.164
375	0.164
375	0.163
376	0.163
376	0.163
377	0.163
377	0.163
378	0.163
378	0.163
378	0.162
379	0.162
379	0.162
380	0.162
380	0.162
381	0.162
381	0.162
382	0.162
382	0.162
383	0.161
383	0.161
383	0.161
384	0.161
384	0.161
385	0.16
385	0.16
386	0.16
386	0.16
387	0.16
387	0.16
388	0.16
388	0.16
389	0.159
389	0.159
389	0.16
390	0.16
390	0.16
391	0.159
391	0.159
392	0.159
392	0.159
393	0.159
393	0.159
394	0.159
394	0.159
394	0.159
395	0.159
395	0.158
396	0.158
396	0.158
397	0.158
397	0.158
398	0.158
398	0.158
399	0.157
399	0.157
400	0.157
400	0.157
400	0.157
401	0.157
401	0.156
402	0.156
402	0.156
403	0.156
403	0.156
404	0.156
404	0.156
405	0.155
405	0.156
405	0.156
406	0.156
406	0.156
407	0.156
407	0.155
408	0.155
408	0.155
409	0.155
409	0.155
410	0.154
410	0.154
411	0.154
411	0.154
411	0.153
412	0.153
412	0.153
413	0.153
413	0.152
414	0.152
414	0.152
415	0.152
415	0.152
416	0.152
416	0.151
416	0.151
417	0.151
417	0.151
418	0.151
418	0.151
419	0.151
419	0.151
420	0.151
420	0.151
421	0.151
421	0.151
421	0.151
422	0.151
422	0.151
423	0.151
423	0.151
424	0.151
424	0.15
425	0.15
425	0.15
426	0.15
426	0.15
427	0.15
427	0.15
427	0.15
428	0.15
428	0.15
429	0.15
429	0.15
430	0.15
430	0.15
431	0.15
431	0.15
432	0.149
432	0.149
432	0.149
433	0.149
433	0.148
434	0.148
434	0.148
435	0.148
435	0.148
436	0.148
436	0.147
437	0.147
437	0.147
437	0.147
438	0.147
438	0.147
439	0.147
439	0.147
440	0.147
440	0.147
441	0.147
441	0.147
442	0.147
442	0.147
442	0.147
443	0.147
443	0.147
444	0.146
444	0.147
445	0.147
445	0.147
446	0.147
446	0.147
447	0.147
447	0.147
447	0.146
448	0.146
448	0.147
449	0.146
449	0.146
450	0.146
450	0.146
451	0.146
451	0.146
452	0.146
452	0.146
452	0.146
453	0.146
453	0.145
454	0.145
454	0.145
455	0.145
455	0.145
456	0.145
456	0.145
457	0.145
457	0.145
458	0.146
458	0.146
458	0.146
459	0.146
459	0.146
460	0.146
460	0.146
461	0.146
461	0.146
462	0.146
462	0.146
463	0.146
463	0.146
463	0.146
464	0.146
464	0.146
465	0.145
465	0.145
466	0.145
466	0.146
467	0.146
467	0.146
467	0.145
468	0.145
468	0.145
469	0.145
469	0.146
470	0.146
470	0.146
471	0.147
471	0.147
472	0.147
472	0.147
472	0.148
473	0.148
473	0.148
474	0.148
474	0.149
475	0.149
475	0.149
476	0.149
476	0.149
477	0.149
477	0.149
477	0.149
478	0.149
478	0.15
479	0.15
479	0.15
480	0.15
480	0.15
481	0.151
481	0.152
482	0.152
482	0.153
482	0.153
483	0.154
483	0.156
484	0.156
484	0.156
485	0.156
485	0.157
486	0.157
486	0.157
487	0.157
487	0.158
487	0.159
488	0.159
488	0.159
489	0.16
489	0.161
490	0.162
490	0.163
491	0.164
491	0.165
492	0.165
492	0.166
492	0.167
493	0.168
493	0.169
494	0.17
494	0.172
495	0.173
495	0.174
496	0.175
496	0.177
496	0.178
497	0.179
497	0.18
498	0.181
498	0.182
499	0.183
499	0.183
500	0.184
500	0.185
501	0.186
501	0.187
501	0.188
502	0.189
502	0.19
503	0.191
503	0.192
504	0.193
504	0.194
505	0.195
505	0.196
506	0.197
506	0.198
506	0.199
507	0.2
507	0.201
508	0.203
508	0.204
509	0.205
509	0.206
510	0.207
510	0.209
511	0.21
511	0.211
511	0.212
512	0.213
512	0.213
513	0.214
513	0.214
514	0.215
514	0.216
515	0.217
515	0.217
515	0.218
516	0.218
516	0.219
517	0.22
517	0.221
518	0.221
518	0.222
519	0.223
519	0.223
520	0.223
520	0.224
520	0.224
521	0.224
521	0.225
522	0.224
522	0.225
523	0.225
523	0.225
524	0.226
524	0.226
524	0.226
525	0.226
525	0.226
526	0.226
526	0.226
527	0.226
527	0.226
528	0.226
528	0.226
529	0.225
529	0.226
529	0.225
530	0.225
530	0.225
531	0.225
531	0.225
532	0.224
532	0.224
533	0.223
533	0.223
533	0.222
534	0.221
534	0.22
535	0.22
535	0.22
536	0.219
536	0.219
537	0.218
537	0.218
538	0.217
538	0.217
538	0.216
539	0.216
539	0.216
540	0.215
540	0.214
541	0.213
541	0.212
542	0.212
542	0.211
542	0.21
543	0.21
543	0.209
544	0.208
544	0.208
545	0.208
545	0.207
546	0.207
546	0.206
547	0.205
547	0.204
547	0.203
548	0.202
548	0.201
549	0.2
549	0.199
550	0.198
550	0.197
551	0.196
551	0.195
551	0.194
552	0.194
552	0.193
553	0.192
553	0.192
554	0.191
554	0.19
555	0.189
555	0.188
556	0.188
556	0.187
556	0.186
557	0.186
557	0.185
558	0.184
558	0.183
559	0.182
559	0.181
560	0.18
560	0.179
560	0.179
561	0.178
561	0.178
562	0.177
562	0.176
563	0.174
563	0.174
564	0.173
564	0.172
564	0.172
565	0.171
565	0.171
566	0.169
566	0.168
567	0.168
567	0.168
568	0.167
568	0.167
568	0.167
569	0.166
569	0.165
570	0.164
570	0.163
571	0.163
571	0.162
572	0.161
572	0.161
573	0.159
573	0.158
573	0.157
574	0.157
574	0.157
575	0.157
575	0.158
576	0.157
576	0.156
577	0.155
577	0.154
577	0.155
578	0.154
578	0.155
579	0.155
579	0.155
580	0.153
580	0.151
581	0.149
581	0.149
581	0.149
582	0.149
582	0.15
583	0.15
583	0.149
584	0.146
584	0.144
585	0.145
585	0.146
585	0.146
586	0.146
586	0.146
587	0.145
587	0.144
588	0.143
588	0.143
589	0.143
589	0.144
590	0.144
590	0.144
590	0.145
591	0.145
591	0.144
592	0.143
592	0.142
593	0.142
593	0.142
594	0.141
594	0.14
594	0.14
595	0.14
595	0.139
596	0.139
596	0.141
597	0.143
597	0.143
598	0.144
598	0.144
598	0.144
599	0.144
599	0.143
600	0.142
600	0.142
601	0.141
601	0.14
602	0.138
602	0.137
602	0.136
603	0.136
603	0.136
604	0.136
604	0.136
605	0.137
605	0.137
606	0.137
606	0.136
606	0.136
607	0.137
607	0.137
608	0.137
608	0.136
609	0.136
609	0.136
610	0.136
610	0.136
610	0.137
611	0.137
611	0.138
612	0.139
612	0.14
613	0.14
613	0.141
614	0.14
614	0.139
614	0.139
615	0.138
615	0.137
616	0.137
616	0.137
617	0.136
617	0.136
618	0.136
618	0.136
618	0.136
619	0.137
619	0.139
620	0.14
620	0.141
621	0.141
621	0.142
622	0.142
622	0.142
622	0.142
623	0.142
623	0.143
624	0.142
624	0.142
625	0.141
625	0.141
626	0.141
626	0.141
626	0.143
627	0.143
627	0.144
628	0.145
628	0.146
629	0.147
629	0.148
630	0.148
630	0.148
630	0.15
631	0.151
631	0.151
632	0.152
632	0.152
633	0.153
633	0.154
634	0.155
634	0.156
634	0.157
635	0.158
635	0.158
636	0.159
636	0.159
637	0.16
637	0.161
638	0.162
638	0.162
638	0.163
639	0.163
639	0.164
640	0.165
640	0.166
641	0.167
641	0.168
642	0.169
642	0.17
642	0.171
643	0.172
643	0.173
644	0.174
644	0.174
645	0.176
645	0.177
646	0.178
646	0.18
646	0.181
647	0.183
647	0.184
648	0.185
648	0.187
649	0.188
649	0.19
650	0.191
650	0.193
650	0.194
651	0.196
651	0.198
652	0.199
652	0.202
653	0.204
653	0.211
653	0.214
654	0.169
654	0.136
655	0.138
655	0.14
656	0.141
656	0.143
657	0.144
657	0.145
657	0.146
658	0.143
658	0.137
659	0.175
659	0.228
660	0.235
660	0.237
661	0.239
661	0.242
661	0.244
662	0.247
662	0.25
663	0.252
663	0.254
664	0.256
664	0.257
665	0.259
665	0.261
665	0.263
666	0.265
666	0.266
667	0.269
667	0.271
668	0.273
668	0.276
669	0.278
669	0.281
669	0.284
670	0.286
670	0.288
671	0.29
671	0.291
672	0.293
672	0.295
672	0.296
673	0.298
673	0.3
674	0.301
674	0.302
675	0.304
675	0.306
676	0.308
676	0.31
676	0.31
677	0.311
677	0.312
678	0.312
678	0.313
679	0.313
679	0.314
680	0.315
680	0.315
680	0.315
681	0.316
681	0.317
682	0.317
682	0.318
683	0.319
683	0.32
684	0.321
684	0.321
684	0.321
685	0.322
685	0.322
686	0.323
686	0.323
687	0.324
687	0.324
687	0.325
688	0.325
688	0.325
689	0.326
689	0.327
690	0.326
690	0.326
691	0.325
691	0.325
691	0.324
692	0.323
692	0.322
693	0.321
693	0.321
694	0.319
694	0.318
695	0.319
695	0.319
695	0.319
696	0.318
696	0.318
697	0.317
697	0.316
698	0.315
698	0.314
698	0.313
699	0.313
699	0.311
700	0.309
700	0.308
701	0.306
701	0.304
702	0.302
702	0.301
702	0.299
703	0.297
703	0.295
704	0.293
704	0.292
705	0.291
705	0.289
705	0.288
706	0.287
706	0.286
707	0.285
707	0.283
708	0.282
708	0.281
709	0.28
709	0.278
709	0.277
710	0.275
710	0.274
711	0.273
711	0.272
712	0.27
712	0.268
713	0.267
713	0.265
713	0.264
714	0.262
714	0.261
715	0.26
715	0.258
716	0.257
716	0.256
716	0.254
717	0.253
717	0.252
718	0.25
718	0.248
719	0.246
719	0.245
720	0.242
720	0.24
720	0.237
721	0.235
721	0.233
722	0.23
722	0.228
723	0.226
723	0.225
723	0.223
724	0.221
724	0.22
725	0.219
725	0.218
726	0.217
726	0.216
727	0.215
727	0.214
727	0.213
728	0.211
728	0.21
729	0.209
729	0.208
730	0.207
730	0.205
730	0.204
731	0.203
731	0.202
732	0.201
732	0.2
733	0.198
733	0.197
734	0.196
734	0.194
734	0.193
735	0.192
735	0.191
736	0.19
736	0.189
737	0.188
737	0.187
737	0.185
738	0.183
738	0.181
739	0.18
739	0.179
740	0.177
740	0.176
741	0.175
741	0.173
741	0.171
742	0.169
742	0.169
743	0.168
743	0.167
744	0.167
744	0.166
744	0.165
745	0.164
745	0.163
746	0.162
746	0.162
747	0.161
747	0.16
748	0.159
748	0.158
748	0.157
749	0.156
749	0.155
750	0.154
750	0.154
751	0.153
751	0.153
751	0.152
752	0.151
752	0.15
753	0.15
753	0.149
754	0.149
754	0.148
754	0.147
755	0.146
755	0.146
756	0.145
756	0.143
757	0.142
757	0.142
758	0.141
758	0.14
758	0.139
759	0.139
759	0.137
760	0.136
760	0.136
761	0.136
761	0.136
761	0.136
762	0.136
762	0.136
763	0.136
763	0.135
764	0.135
764	0.134
764	0.134
765	0.133
765	0.133
766	0.132
766	0.132
767	0.131
767	0.13
768	0.129
768	0.129
768	0.128
769	0.128
769	0.128
770	0.127
770	0.126
771	0.125
771	0.124
771	0.124
772	0.124
772	0.123
773	0.123
773	0.123
774	0.122
774	0.121
775	0.121
775	0.119
775	0.118
776	0.116
776	0.115
777	0.114
777	0.113
778	0.112
778	0.111
778	0.11
779	0.11
779	0.11
780	0.109
780	0.109
781	0.109
781	0.109
781	0.108
782	0.108
782	0.108
783	0.108
783	0.107
784	0.106
784	0.105
784	0.105
785	0.104
785	0.104
786	0.103
786	0.104
787	0.103
787	0.103
788	0.102
788	0.102
788	0.102
789	0.102
789	0.103
790	0.103
790	0.102
791	0.102
791	0.102
791	0.102
792	0.103
792	0.102
793	0.102
793	0.101
794	0.101
794	0.1
794	0.101
795	0.101
795	0.101
796	0.1
796	0.099
797	0.098
797	0.098
797	0.098
798	0.098
798	0.097
799	0.096
799	0.095
800	0.093
800	0.091
801	0.09
801	0.089
801	0.088
802	0.087
802	0.086
803	0.085
803	0.084
804	0.084
804	0.084
804	0.083
805	0.083
805	0.083
806	0.083
806	0.084
807	0.084
807	0.085
807	0.085
808	0.085
808	0.085
809	0.086
809	0.087
810	0.087
810	0.087
810	0.088
811	0.088
811	0.089
812	0.09
812	0.09
813	0.09
813	0.09
813	0.09
814	0.09
814	0.09
815	0.09
815	0.089
816	0.088
816	0.087
817	0.086
817	0.086
817	0.085
818	0.085
818	0.084
819	0.083
819	0.082
820	0.081
820	0.081
820	0.08
821	0.08
821	0.08
822	0.079
822	0.079
823	0.079
823	0.079
823	0.079
824	0.079
824	0.079
825	0.079
825	0.079
826	0.079
826	0.078
826	0.078
827	0.077
827	0.076
828	0.076
828	0.075
829	0.075
829	0.074
829	0.073
830	0.073
830	0.073
831	0.073
831	0.073
832	0.073
832	0.073
832	0.073
833	0.073
833	0.073
834	0.072
834	0.072
835	0.071
835	0.071
835	0.07
836	0.07
836	0.069
837	0.069
837	0.068
838	0.068
838	0.068
839	0.067
839	0.067
839	0.067
840	0.068
840	0.068
841	0.068
841	0.069
842	0.07
842	0.07
842	0.07
843	0.07
843	0.07
844	0.07
844	0.07
845	0.07
845	0.069
845	0.068
846	0.067
846	0.066
847	0.066
847	0.065
848	0.064
848	0.064
848	0.063
849	0.063
849	0.062
850	0.062
850	0.061
851	0.061
851	0.061
851	0.061
852	0.061
852	0.061
853	0.061
853	0.061
854	0.061
854	0.062
854	0.062
855	0.062
855	0.062
856	0.062
856	0.062
857	0.062
857	0.062
857	0.062
858	0.062
858	0.062
859	0.062
859	0.062
860	0.062
860	0.063
860	0.063
861	0.063
861	0.063
862	0.064
862	0.064
863	0.064
863	0.064
863	0.064
864	0.063
864	0.063
865	0.062
865	0.061
866	0.06
866	0.059
866	0.059
867	0.058
867	0.057
868	0.057
868	0.057
869	0.057
869	0.056
869	0.056
870	0.056
870	0.056
871	0.055
871	0.054
872	0.053
872	0.052
872	0.051
873	0.05
873	0.049
874	0.048
874	0.047
875	0.047
875	0.046
875	0.045
876	0.045
876	0.044
877	0.043
877	0.042
878	0.042
878	0.041
878	0.041
879	0.04
879	0.04
880	0.04
880	0.04
881	0.041
881	0.042
881	0.043
882	0.045
882	0.046
883	0.048
883	0.049
884	0.051
884	0.052
884	0.053
885	0.054
885	0.055
886	0.055
886	0.056
887	0.056
887	0.056
887	0.057
888	0.057
888	0.057
889	0.057
889	0.058
890	0.058
890	0.059
890	0.059
891	0.059
891	0.059
892	0.059
892	0.059
893	0.058
893	0.057
893	0.056
894	0.055
894	0.054
895	0.053
895	0.052
895	0.05
896	0.048
896	0.047
897	0.046
897	0.045
898	0.045
898	0.044
898	0.043
899	0.042
899	0.041
900	0.041
900	0.04
901	0.04
901	0.04
901	0.04
902	0.04
902	0.039
903	0.039
903	0.039
904	0.039
904	0.039
904	0.039
905	0.039
905	0.038
906	0.038
906	0.038
907	0.037
907	0.037
907	0.037
908	0.036
908	0.036
909	0.036
909	0.036
910	0.037
910	0.037
910	0.038
911	0.038
911	0.039
912	0.039
912	0.04
913	0.04
913	0.04
913	0.039
914	0.039
914	0.038
915	0.037
915	0.037
916	0.036
916	0.036
916	0.035
917	0.035
917	0.036
918	0.036
918	0.037
918	0.038
919	0.039
919	0.04
920	0.04
920	0.041
921	0.041
921	0.041
921	0.041
922	0.041
922	0.041
923	0.041
923	0.04
924	0.04
924	0.04
924	0.04
925	0.039
925	0.039
926	0.039
926	0.039
927	0.039
927	0.039
927	0.039
928	0.038
928	0.038
929	0.038
929	0.038
930	0.038
930	0.037
930	0.037
931	0.037
931	0.036
932	0.036
932	0.036
933	0.036
933	0.036
933	0.035
934	0.035
934	0.034
935	0.034
935	0.033
935	0.032
936	0.032
936	0.031
937	0.031
937	0.031
938	0.03
938	0.03
938	0.03
939	0.03
939	0.03
940	0.031
940	0.031
941	0.032
941	0.032
941	0.033
942	0.033
942	0.034
943	0.034
943	0.034
944	0.034
944	0.035
944	0.035
945	0.035
945	0.035
946	0.035
946	0.034
946	0.034
947	0.034
947	0.034
948	0.034
948	0.034
949	0.033
949	0.033
949	0.033
950	0.033
950	0.033
951	0.034
951	0.034
952	0.034
952	0.034
952	0.034
953	0.035
953	0.035
954	0.035
954	0.035
955	0.035
955	0.035
955	0.035
956	0.035
956	0.035
957	0.035
957	0.034
957	0.033
958	0.032
958	0.031
959	0.03
959	0.029
960	0.028
960	0.027
960	0.026
961	0.025
961	0.025
962	0.025
962	0.025
963	0.025
963	0.026
963	0.026
964	0.027
964	0.028
965	0.029
965	0.029
966	0.03
966	0.031
966	0.032
967	0.033
967	0.033
968	0.033
968	0.033
968	0.033
969	0.033
969	0.033
970	0.033
970	0.033
971	0.033
971	0.033
971	0.033
972	0.033
972	0.032
973	0.032
973	0.032
974	0.032
974	0.032
974	0.031
975	0.031
975	0.03
976	0.029
976	0.028
976	0.027
977	0.026
977	0.025
978	0.024
978	0.023
979	0.022
979	0.021
979	0.021
980	0.02
980	0.02
981	0.02
981	0.02
982	0.02
982	0.021
982	0.022
983	0.022
983	0.023
984	0.023
984	0.024
984	0.024
985	0.025
985	0.025
986	0.025
986	0.025
987	0.024
987	0.024
987	0.023
988	0.022
988	0.021
989	0.02
989	0.018
990	0.017
990	0.015
990	0.014
991	0.013
991	0.011
992	0.01
992	0.009
992	0.007
993	0.006
993	0.005
994	0.003
994	0.002
995	0.001
995	0.001
995	0
996	-0
996	-0.001
997	-0.001
997	-0.001
997	-0
998	0.001
998	0.002
999	0.003
999	0.004
1000	0.005
1000	0.006
1000	0.007
1001	0.009
1001	0.01
1002	0.011
1002	0.013
1003	0.014
1003	0.015
1003	0.015
1004	0.016
1004	0.017
1005	0.017
1005	0.018
1005	0.018
1006	0.018
1006	0.018
1007	0.018
1007	0.018
1008	0.018
1008	0.018
1008	0.019
1009	0.019
1009	0.019
1010	0.019
1010	0.019
1010	0.019
1011	0.019
1011	0.019
1012	0.019
1012	0.018
1013	0.018
1013	0.017
1013	0.016
1014	0.015
1014	0.013
1015	0.012
1015	0.011
1016	0.01
1016	0.009
1016	0.007
1017	0.007
1017	0.006
1018	0.005
1018	0.005
1018	0.005
1019	0.005
1019	0.004
1020	0.004
1020	0.004
1021	0.004
1021	0.004
1021	0.004
1022	0.003
1022	0.003
1023	0.002
1023	0.002
1023	0.001
1024	-0
1024	-0.001
1025	-0.002
1025	-0.003
1026	-0.004
1026	-0.004
1026	-0.005
1027	-0.005
1027	-0.005
1028	-0.005
1028	-0.005
1028	-0.004
1029	-0.004
1029	-0.004
1030	-0.003
1030	-0.003
1031	-0.002
1031	-0.002
1031	-0.001
1032	-0
1032	0
1033	0
1033	0
1033	-0.001
1034	-0.001
1034	-0.002
1035	-0.003
1035	-0.004
1036	-0.005
1036	-0.006
1036	-0.007
1037	-0.007
1037	-0.008
1038	-0.009
1038	-0.009
1039	-0.009
1039	-0.009
1039	-0.009
1040	-0.01
1040	-0.01
1041	-0.01
1041	-0.011
1041	-0.011
1042	-0.012
1042	-0.013
1043	-0.013
1043	-0.014
1044	-0.015
1044	-0.015
1044	-0.016
1045	-0.016
1045	-0.016
1046	-0.016
1046	-0.016
1046	-0.016
1047	-0.015
1047	-0.014
1048	-0.013
1048	-0.012
1049	-0.012
1049	-0.012
1049	-0.012
1050	-0.012
1050	-0.012
1051	-0.012
1051	-0.013
1051	-0.012
1052	-0.013
1052	-0.013
1053	-0.013
1053	-0.013
1053	-0.013
1054	-0.013
1054	-0.012
1055	-0.012
1055	-0.012
1056	-0.012
1056	-0.012
1056	-0.013
1057	-0.014
1057	-0.015
1058	-0.015
1058	-0.016
1058	-0.017
1059	-0.017
1059	-0.018
1060	-0.018
1060	-0.019
1061	-0.019
1061	-0.019
1061	-0.02
1062	-0.02
1062	-0.02
1063	-0.021
1063	-0.022
1063	-0.023
1064	-0.023
1064	-0.024
1065	-0.025
1065	-0.026
1066	-0.026
1066	-0.027
1066	-0.028
1067	-0.028
1067	-0.028
1068	-0.028
1068	-0.028
1068	-0.029
1069	-0.029
1069	-0.03
1070	-0.03
1070	-0.03
1071	-0.03
1071	-0.031
1071	-0.031
1072	-0.031
1072	-0.032
1073	-0.032
1073	-0.032
1073	-0.032
1074	-0.032
1074	-0.032
1075	-0.033
1075	-0.033
1076	-0.034
1076	-0.034
1076	-0.035
1077	-0.036
1077	-0.036
1078	-0.037
1078	-0.037
1078	-0.038
1079	-0.038
1079	-0.038
1080	-0.038
1080	-0.038
1080	-0.038
1081	-0.038
1081	-0.037
1082	-0.037
1082	-0.037
1083	-0.038
1083	-0.038
1083	-0.038
1084	-0.038
1084	-0.038
1085	-0.039
1085	-0.039
1085	-0.039
1086	-0.04
1086	-0.041
1087	-0.041
1087	-0.041
1088	-0.042
1088	-0.043
1088	-0.044
1089	-0.046
1089	-0.047
1090	-0.049
1090	-0.05
1090	-0.052
1091	-0.054
1091	-0.055
1092	-0.057
1092	-0.057
1092	-0.059
1093	-0.06
1093	-0.06
1094	-0.061
1094	-0.061
1095	-0.062
1095	-0.063
1095	-0.063
1096	-0.064
1096	-0.064
1097	-0.065
1097	-0.066
1097	-0.067
1098	-0.068
1098	-0.069
1099	-0.071
1099	-0.072
1100	-0.074
1100	-0.075
1100	-0.078
1101	-0.08
1101	-0.082
1102	-0.083
1102	-0.086
1102	-0.087
1103	-0.091
1103	-0.092
1104	-0.093
1104	-0.094
1104	-0.095
1105	-0.097
1105	-0.099
1106	-0.102
1106	-0.104
1107	-0.109
1107	-0.112
1107	-0.115
1108	-0.115
1108	-0.118
1109	-0.121
1109	-0.127
1109	-0.13
1110	-0.13
1110	-0.134
1111	-0.139
1111	-0.131
