Data from 17c-100ul-ns-20ul-nr-full-exp'4ul'bp_Absorbance__914__02285.txt Node

Date: Mon Jan 15 10:43:56 CET 2024
User: Marek
Spectrometer: MAYP115816
Trigger mode: 0
Integration Time (sec): 2.000000E-1
Scans to average: 10
Electric dark correction enabled: true
Nonlinearity correction enabled: true
Boxcar width: 5
XAxis mode: Wavelengths
Number of Pixels in Spectrum: 2068
>>>>>Begin Spectral Data<<<<<
199	-0.526
199	-0.503
200	-0.431
200	-0.372
201	-0.332
201	-0.309
202	-0.286
202	-0.282
203	-0.274
203	-0.272
204	-0.256
204	-0.242
205	-0.228
205	-0.222
205	-0.225
206	-0.227
206	-0.231
207	-0.229
207	-0.229
208	-0.232
208	-0.23
209	-0.23
209	-0.235
210	-0.237
210	-0.238
211	-0.237
211	-0.238
212	-0.239
212	-0.24
213	-0.24
213	-0.239
213	-0.243
214	-0.242
214	-0.243
215	-0.241
215	-0.246
216	-0.248
216	-0.25
217	-0.247
217	-0.248
218	-0.25
218	-0.247
219	-0.243
219	-0.245
220	-0.245
220	-0.247
221	-0.245
221	-0.244
221	-0.24
222	-0.237
222	-0.235
223	-0.229
223	-0.229
224	-0.228
224	-0.22
225	-0.211
225	-0.203
226	-0.197
226	-0.187
227	-0.175
227	-0.168
228	-0.154
228	-0.143
229	-0.124
229	-0.1
229	-0.081
230	-0.06
230	-0.036
231	-0.009
231	0.017
232	0.038
232	0.063
233	0.087
233	0.11
234	0.129
234	0.148
235	0.166
235	0.181
236	0.194
236	0.207
236	0.218
237	0.23
237	0.238
238	0.247
238	0.254
239	0.262
239	0.269
240	0.273
240	0.277
241	0.282
241	0.285
242	0.288
242	0.291
243	0.294
243	0.297
243	0.298
244	0.3
244	0.302
245	0.303
245	0.305
246	0.307
246	0.309
247	0.31
247	0.312
248	0.313
248	0.314
249	0.316
249	0.316
250	0.318
250	0.319
250	0.32
251	0.321
251	0.322
252	0.324
252	0.324
253	0.325
253	0.326
254	0.327
254	0.328
255	0.328
255	0.328
256	0.329
256	0.329
257	0.329
257	0.329
258	0.329
258	0.329
258	0.329
259	0.329
259	0.329
260	0.329
260	0.328
261	0.328
261	0.327
262	0.326
262	0.326
263	0.325
263	0.324
264	0.323
264	0.321
265	0.32
265	0.319
265	0.318
266	0.316
266	0.315
267	0.313
267	0.312
268	0.31
268	0.308
269	0.307
269	0.305
270	0.303
270	0.301
271	0.299
271	0.298
272	0.296
272	0.294
272	0.292
273	0.29
273	0.288
274	0.286
274	0.284
275	0.282
275	0.28
276	0.278
276	0.276
277	0.275
277	0.272
278	0.27
278	0.269
278	0.267
279	0.264
279	0.262
280	0.26
280	0.258
281	0.255
281	0.253
282	0.251
282	0.248
283	0.246
283	0.244
284	0.242
284	0.24
285	0.239
285	0.237
285	0.235
286	0.233
286	0.232
287	0.23
287	0.229
288	0.228
288	0.226
289	0.225
289	0.223
290	0.222
290	0.221
291	0.219
291	0.218
292	0.217
292	0.216
292	0.214
293	0.213
293	0.212
294	0.211
294	0.21
295	0.209
295	0.208
296	0.208
296	0.207
297	0.206
297	0.205
298	0.205
298	0.204
298	0.203
299	0.203
299	0.202
300	0.201
300	0.201
301	0.2
301	0.2
302	0.199
302	0.199
303	0.198
303	0.198
304	0.198
304	0.197
305	0.197
305	0.196
305	0.196
306	0.195
306	0.195
307	0.195
307	0.194
308	0.193
308	0.193
309	0.193
309	0.192
310	0.191
310	0.191
311	0.191
311	0.19
311	0.19
312	0.189
312	0.189
313	0.188
313	0.188
314	0.187
314	0.187
315	0.187
315	0.186
316	0.186
316	0.186
317	0.185
317	0.185
318	0.184
318	0.184
318	0.184
319	0.183
319	0.183
320	0.182
320	0.182
321	0.181
321	0.181
322	0.18
322	0.18
323	0.18
323	0.179
324	0.178
324	0.178
324	0.178
325	0.177
325	0.177
326	0.176
326	0.176
327	0.175
327	0.175
328	0.174
328	0.174
329	0.174
329	0.173
330	0.173
330	0.172
330	0.172
331	0.172
331	0.171
332	0.171
332	0.17
333	0.17
333	0.17
334	0.169
334	0.169
335	0.169
335	0.168
336	0.168
336	0.167
336	0.167
337	0.166
337	0.166
338	0.165
338	0.165
339	0.165
339	0.164
340	0.164
340	0.164
341	0.163
341	0.163
342	0.162
342	0.162
342	0.162
343	0.161
343	0.161
344	0.161
344	0.161
345	0.16
345	0.16
346	0.16
346	0.16
347	0.16
347	0.159
348	0.159
348	0.159
348	0.159
349	0.159
349	0.158
350	0.158
350	0.158
351	0.158
351	0.158
352	0.158
352	0.157
353	0.157
353	0.157
354	0.157
354	0.157
354	0.157
355	0.156
355	0.156
356	0.156
356	0.156
357	0.156
357	0.156
358	0.156
358	0.156
359	0.156
359	0.155
360	0.155
360	0.155
360	0.155
361	0.155
361	0.154
362	0.154
362	0.154
363	0.154
363	0.154
364	0.154
364	0.154
365	0.154
365	0.154
366	0.154
366	0.154
366	0.154
367	0.154
367	0.154
368	0.154
368	0.154
369	0.153
369	0.153
370	0.153
370	0.153
371	0.153
371	0.153
372	0.153
372	0.153
372	0.153
373	0.153
373	0.153
374	0.153
374	0.153
375	0.153
375	0.153
376	0.153
376	0.153
377	0.152
377	0.153
378	0.152
378	0.152
378	0.152
379	0.152
379	0.152
380	0.152
380	0.152
381	0.152
381	0.152
382	0.152
382	0.151
383	0.151
383	0.151
383	0.151
384	0.151
384	0.15
385	0.15
385	0.15
386	0.15
386	0.15
387	0.15
387	0.15
388	0.15
388	0.15
389	0.15
389	0.15
389	0.15
390	0.15
390	0.15
391	0.15
391	0.15
392	0.15
392	0.15
393	0.15
393	0.15
394	0.15
394	0.15
394	0.149
395	0.149
395	0.149
396	0.149
396	0.149
397	0.149
397	0.148
398	0.148
398	0.148
399	0.148
399	0.148
400	0.148
400	0.148
400	0.148
401	0.147
401	0.147
402	0.147
402	0.147
403	0.147
403	0.147
404	0.146
404	0.146
405	0.146
405	0.146
405	0.146
406	0.146
406	0.146
407	0.146
407	0.146
408	0.146
408	0.146
409	0.146
409	0.145
410	0.145
410	0.145
411	0.145
411	0.145
411	0.145
412	0.145
412	0.145
413	0.144
413	0.144
414	0.144
414	0.144
415	0.144
415	0.143
416	0.143
416	0.143
416	0.143
417	0.142
417	0.142
418	0.142
418	0.143
419	0.142
419	0.143
420	0.142
420	0.143
421	0.142
421	0.142
421	0.143
422	0.143
422	0.143
423	0.143
423	0.142
424	0.142
424	0.142
425	0.142
425	0.142
426	0.142
426	0.142
427	0.142
427	0.142
427	0.142
428	0.142
428	0.142
429	0.142
429	0.141
430	0.141
430	0.141
431	0.141
431	0.141
432	0.141
432	0.14
432	0.14
433	0.14
433	0.14
434	0.14
434	0.14
435	0.14
435	0.14
436	0.139
436	0.139
437	0.139
437	0.139
437	0.139
438	0.139
438	0.139
439	0.139
439	0.139
440	0.139
440	0.138
441	0.138
441	0.138
442	0.138
442	0.138
442	0.138
443	0.138
443	0.138
444	0.138
444	0.138
445	0.138
445	0.138
446	0.138
446	0.138
447	0.138
447	0.138
447	0.138
448	0.138
448	0.138
449	0.138
449	0.137
450	0.137
450	0.137
451	0.137
451	0.137
452	0.137
452	0.137
452	0.137
453	0.137
453	0.137
454	0.137
454	0.137
455	0.137
455	0.137
456	0.138
456	0.138
457	0.137
457	0.138
458	0.138
458	0.138
458	0.138
459	0.138
459	0.138
460	0.138
460	0.138
461	0.137
461	0.137
462	0.137
462	0.137
463	0.138
463	0.138
463	0.138
464	0.138
464	0.138
465	0.138
465	0.138
466	0.138
466	0.138
467	0.138
467	0.138
467	0.137
468	0.137
468	0.136
469	0.137
469	0.137
470	0.137
470	0.137
471	0.137
471	0.137
472	0.138
472	0.138
472	0.138
473	0.139
473	0.139
474	0.14
474	0.14
475	0.14
475	0.14
476	0.14
476	0.14
477	0.14
477	0.14
477	0.141
478	0.141
478	0.141
479	0.141
479	0.141
480	0.141
480	0.141
481	0.142
481	0.143
482	0.143
482	0.144
482	0.144
483	0.145
483	0.146
484	0.146
484	0.146
485	0.146
485	0.147
486	0.147
486	0.147
487	0.148
487	0.148
487	0.148
488	0.149
488	0.149
489	0.149
489	0.151
490	0.151
490	0.152
491	0.153
491	0.154
492	0.154
492	0.155
492	0.155
493	0.156
493	0.157
494	0.159
494	0.16
495	0.161
495	0.162
496	0.164
496	0.165
496	0.166
497	0.167
497	0.168
498	0.169
498	0.17
499	0.17
499	0.171
500	0.172
500	0.173
501	0.173
501	0.174
501	0.175
502	0.176
502	0.177
503	0.178
503	0.179
504	0.179
504	0.18
505	0.181
505	0.182
506	0.183
506	0.184
506	0.185
507	0.186
507	0.187
508	0.188
508	0.189
509	0.19
509	0.191
510	0.192
510	0.194
511	0.194
511	0.195
511	0.196
512	0.197
512	0.198
513	0.198
513	0.199
514	0.199
514	0.2
515	0.201
515	0.201
515	0.202
516	0.202
516	0.203
517	0.204
517	0.204
518	0.205
518	0.205
519	0.206
519	0.206
520	0.206
520	0.207
520	0.207
521	0.207
521	0.207
522	0.207
522	0.208
523	0.208
523	0.209
524	0.209
524	0.209
524	0.209
525	0.209
525	0.209
526	0.209
526	0.209
527	0.209
527	0.209
528	0.209
528	0.209
529	0.208
529	0.208
529	0.208
530	0.208
530	0.208
531	0.208
531	0.207
532	0.206
532	0.206
533	0.206
533	0.205
533	0.205
534	0.204
534	0.204
535	0.203
535	0.203
536	0.203
536	0.203
537	0.203
537	0.202
538	0.202
538	0.201
538	0.201
539	0.201
539	0.2
540	0.2
540	0.198
541	0.197
541	0.197
542	0.196
542	0.196
542	0.195
543	0.195
543	0.194
544	0.193
544	0.193
545	0.193
545	0.193
546	0.192
546	0.191
547	0.19
547	0.189
547	0.189
548	0.188
548	0.187
549	0.187
549	0.186
550	0.185
550	0.184
551	0.183
551	0.182
551	0.182
552	0.181
552	0.18
553	0.18
553	0.18
554	0.179
554	0.178
555	0.177
555	0.176
556	0.175
556	0.175
556	0.174
557	0.173
557	0.173
558	0.172
558	0.171
559	0.171
559	0.17
560	0.169
560	0.168
560	0.168
561	0.168
561	0.168
562	0.167
562	0.166
563	0.165
563	0.164
564	0.163
564	0.163
564	0.162
565	0.162
565	0.161
566	0.16
566	0.16
567	0.159
567	0.159
568	0.159
568	0.159
568	0.158
569	0.158
569	0.157
570	0.156
570	0.155
571	0.155
571	0.154
572	0.154
572	0.153
573	0.152
573	0.151
573	0.15
574	0.15
574	0.15
575	0.15
575	0.151
576	0.151
576	0.149
577	0.148
577	0.148
577	0.148
578	0.148
578	0.148
579	0.149
579	0.149
580	0.147
580	0.145
581	0.143
581	0.143
581	0.144
582	0.144
582	0.145
583	0.145
583	0.144
584	0.141
584	0.14
585	0.141
585	0.142
585	0.142
586	0.142
586	0.142
587	0.141
587	0.139
588	0.138
588	0.138
589	0.139
589	0.14
590	0.14
590	0.14
590	0.141
591	0.141
591	0.14
592	0.14
592	0.139
593	0.139
593	0.139
594	0.138
594	0.137
594	0.137
595	0.137
595	0.136
596	0.136
596	0.138
597	0.14
597	0.141
598	0.141
598	0.142
598	0.142
599	0.142
599	0.141
600	0.14
600	0.14
601	0.139
601	0.138
602	0.136
602	0.136
602	0.135
603	0.134
603	0.135
604	0.135
604	0.135
605	0.135
605	0.136
606	0.135
606	0.135
606	0.135
607	0.135
607	0.135
608	0.135
608	0.134
609	0.134
609	0.135
610	0.134
610	0.134
610	0.135
611	0.136
611	0.137
612	0.138
612	0.138
613	0.139
613	0.139
614	0.139
614	0.138
614	0.138
615	0.137
615	0.137
616	0.137
616	0.136
617	0.136
617	0.135
618	0.135
618	0.135
618	0.136
619	0.137
619	0.138
620	0.14
620	0.141
621	0.141
621	0.142
622	0.142
622	0.142
622	0.142
623	0.142
623	0.143
624	0.143
624	0.142
625	0.142
625	0.142
626	0.142
626	0.142
626	0.143
627	0.144
627	0.145
628	0.146
628	0.146
629	0.147
629	0.147
630	0.148
630	0.148
630	0.149
631	0.15
631	0.151
632	0.151
632	0.152
633	0.152
633	0.153
634	0.154
634	0.155
634	0.156
635	0.157
635	0.157
636	0.158
636	0.158
637	0.159
637	0.159
638	0.16
638	0.161
638	0.162
639	0.162
639	0.163
640	0.164
640	0.165
641	0.166
641	0.167
642	0.168
642	0.169
642	0.17
643	0.17
643	0.171
644	0.172
644	0.173
645	0.174
645	0.176
646	0.177
646	0.179
646	0.181
647	0.182
647	0.184
648	0.185
648	0.186
649	0.188
649	0.189
650	0.191
650	0.192
650	0.193
651	0.194
651	0.196
652	0.198
652	0.2
653	0.203
653	0.209
653	0.212
654	0.167
654	0.135
655	0.137
655	0.139
656	0.14
656	0.141
657	0.142
657	0.143
657	0.144
658	0.141
658	0.135
659	0.172
659	0.224
660	0.231
660	0.233
661	0.235
661	0.237
661	0.24
662	0.242
662	0.245
663	0.247
663	0.248
664	0.25
664	0.251
665	0.253
665	0.255
665	0.257
666	0.258
666	0.26
667	0.262
667	0.265
668	0.267
668	0.269
669	0.272
669	0.275
669	0.278
670	0.28
670	0.282
671	0.283
671	0.285
672	0.287
672	0.288
672	0.29
673	0.292
673	0.293
674	0.295
674	0.296
675	0.298
675	0.3
676	0.302
676	0.303
676	0.304
677	0.305
677	0.306
678	0.306
678	0.306
679	0.307
679	0.307
680	0.308
680	0.308
680	0.309
681	0.309
681	0.31
682	0.31
682	0.311
683	0.312
683	0.313
684	0.314
684	0.314
684	0.314
685	0.315
685	0.315
686	0.316
686	0.316
687	0.317
687	0.317
687	0.318
688	0.318
688	0.318
689	0.319
689	0.319
690	0.319
690	0.318
691	0.318
691	0.317
691	0.316
692	0.315
692	0.314
693	0.313
693	0.313
694	0.312
694	0.311
695	0.311
695	0.312
695	0.311
696	0.31
696	0.31
697	0.31
697	0.309
698	0.309
698	0.308
698	0.307
699	0.306
699	0.304
700	0.303
700	0.302
701	0.301
701	0.299
702	0.297
702	0.295
702	0.294
703	0.292
703	0.29
704	0.288
704	0.287
705	0.285
705	0.283
705	0.282
706	0.281
706	0.28
707	0.279
707	0.278
708	0.277
708	0.276
709	0.275
709	0.273
709	0.272
710	0.27
710	0.269
711	0.268
711	0.267
712	0.265
712	0.263
713	0.262
713	0.26
713	0.259
714	0.258
714	0.256
715	0.255
715	0.254
716	0.252
716	0.251
716	0.25
717	0.249
717	0.248
718	0.246
718	0.244
719	0.243
719	0.241
720	0.238
720	0.236
720	0.234
721	0.231
721	0.229
722	0.227
722	0.225
723	0.223
723	0.222
723	0.22
724	0.219
724	0.217
725	0.216
725	0.215
726	0.214
726	0.213
727	0.212
727	0.212
727	0.211
728	0.209
728	0.208
729	0.208
729	0.206
730	0.205
730	0.204
730	0.203
731	0.202
731	0.201
732	0.2
732	0.199
733	0.198
733	0.197
734	0.195
734	0.194
734	0.193
735	0.192
735	0.19
736	0.189
736	0.188
737	0.188
737	0.187
737	0.185
738	0.183
738	0.181
739	0.18
739	0.179
740	0.177
740	0.176
741	0.175
741	0.173
741	0.171
742	0.169
742	0.169
743	0.169
743	0.168
744	0.168
744	0.167
744	0.166
745	0.165
745	0.164
746	0.164
746	0.163
747	0.162
747	0.161
748	0.16
748	0.159
748	0.158
749	0.157
749	0.157
750	0.156
750	0.155
751	0.154
751	0.154
751	0.153
752	0.152
752	0.151
753	0.151
753	0.151
754	0.15
754	0.149
754	0.149
755	0.148
755	0.148
756	0.147
756	0.145
757	0.145
757	0.145
758	0.144
758	0.143
758	0.142
759	0.141
759	0.14
760	0.139
760	0.138
761	0.139
761	0.139
761	0.139
762	0.138
762	0.139
763	0.138
763	0.137
764	0.137
764	0.136
764	0.136
765	0.135
765	0.134
766	0.134
766	0.134
767	0.133
767	0.132
768	0.131
768	0.131
768	0.131
769	0.131
769	0.131
770	0.131
770	0.13
771	0.13
771	0.129
771	0.128
772	0.128
772	0.128
773	0.127
773	0.126
774	0.126
774	0.125
775	0.124
775	0.123
775	0.121
776	0.12
776	0.119
777	0.117
777	0.116
778	0.115
778	0.114
778	0.114
779	0.114
779	0.114
780	0.114
780	0.114
781	0.114
781	0.113
781	0.113
782	0.113
782	0.113
783	0.114
783	0.113
784	0.112
784	0.112
784	0.111
785	0.111
785	0.111
786	0.11
786	0.11
787	0.11
787	0.11
788	0.109
788	0.109
788	0.109
789	0.109
789	0.109
790	0.109
790	0.109
791	0.109
791	0.108
791	0.109
792	0.109
792	0.108
793	0.108
793	0.107
794	0.107
794	0.107
794	0.107
795	0.107
795	0.107
796	0.107
796	0.106
797	0.105
797	0.106
797	0.105
798	0.105
798	0.104
799	0.103
799	0.102
800	0.101
800	0.099
801	0.098
801	0.097
801	0.095
802	0.094
802	0.093
803	0.092
803	0.091
804	0.091
804	0.09
804	0.09
805	0.09
805	0.09
806	0.09
806	0.09
807	0.091
807	0.091
807	0.092
808	0.092
808	0.092
809	0.092
809	0.093
810	0.093
810	0.093
810	0.094
811	0.095
811	0.096
812	0.096
812	0.096
813	0.097
813	0.097
813	0.097
814	0.097
814	0.097
815	0.097
815	0.097
816	0.096
816	0.094
817	0.093
817	0.093
817	0.092
818	0.091
818	0.091
819	0.09
819	0.089
820	0.088
820	0.088
820	0.088
821	0.088
821	0.088
822	0.087
822	0.087
823	0.087
823	0.087
823	0.087
824	0.087
824	0.087
825	0.087
825	0.087
826	0.087
826	0.086
826	0.086
827	0.085
827	0.084
828	0.083
828	0.082
829	0.082
829	0.081
829	0.08
830	0.08
830	0.08
831	0.08
831	0.08
832	0.08
832	0.08
832	0.08
833	0.08
833	0.08
834	0.079
834	0.079
835	0.079
835	0.078
835	0.078
836	0.078
836	0.077
837	0.077
837	0.076
838	0.076
838	0.076
839	0.076
839	0.076
839	0.076
840	0.077
840	0.077
841	0.078
841	0.078
842	0.079
842	0.08
842	0.08
843	0.081
843	0.081
844	0.081
844	0.081
845	0.08
845	0.08
845	0.079
846	0.078
846	0.077
847	0.076
847	0.076
848	0.075
848	0.074
848	0.073
849	0.073
849	0.072
850	0.072
850	0.071
851	0.071
851	0.07
851	0.07
852	0.07
852	0.07
853	0.07
853	0.069
854	0.07
854	0.07
854	0.07
855	0.07
855	0.07
856	0.07
856	0.07
857	0.07
857	0.07
857	0.07
858	0.07
858	0.07
859	0.07
859	0.07
860	0.07
860	0.071
860	0.071
861	0.071
861	0.071
862	0.071
862	0.071
863	0.071
863	0.071
863	0.071
864	0.07
864	0.07
865	0.069
865	0.068
866	0.067
866	0.066
866	0.065
867	0.065
867	0.064
868	0.064
868	0.064
869	0.064
869	0.064
869	0.063
870	0.063
870	0.063
871	0.062
871	0.061
872	0.06
872	0.059
872	0.058
873	0.057
873	0.056
874	0.055
874	0.055
875	0.054
875	0.053
875	0.053
876	0.052
876	0.051
877	0.051
877	0.05
878	0.049
878	0.049
878	0.048
879	0.048
879	0.047
880	0.047
880	0.047
881	0.048
881	0.049
881	0.05
882	0.051
882	0.053
883	0.054
883	0.056
884	0.057
884	0.059
884	0.06
885	0.061
885	0.062
886	0.063
886	0.063
887	0.064
887	0.064
887	0.064
888	0.064
888	0.064
889	0.064
889	0.065
890	0.065
890	0.065
890	0.066
891	0.066
891	0.066
892	0.066
892	0.066
893	0.065
893	0.065
893	0.064
894	0.063
894	0.062
895	0.061
895	0.06
895	0.059
896	0.057
896	0.056
897	0.055
897	0.054
898	0.054
898	0.053
898	0.052
899	0.051
899	0.05
900	0.05
900	0.049
901	0.049
901	0.049
901	0.049
902	0.049
902	0.049
903	0.049
903	0.049
904	0.049
904	0.048
904	0.048
905	0.048
905	0.048
906	0.048
906	0.047
907	0.047
907	0.047
907	0.046
908	0.046
908	0.046
909	0.046
909	0.046
910	0.047
910	0.047
910	0.048
911	0.049
911	0.049
912	0.05
912	0.05
913	0.05
913	0.05
913	0.05
914	0.05
914	0.049
915	0.048
915	0.047
916	0.047
916	0.046
916	0.046
917	0.046
917	0.046
918	0.047
918	0.047
918	0.048
919	0.049
919	0.049
920	0.05
920	0.051
921	0.051
921	0.051
921	0.051
922	0.051
922	0.051
923	0.051
923	0.051
924	0.051
924	0.05
924	0.05
925	0.05
925	0.049
926	0.049
926	0.049
927	0.049
927	0.048
927	0.048
928	0.048
928	0.048
929	0.048
929	0.047
930	0.047
930	0.047
930	0.047
931	0.046
931	0.046
932	0.046
932	0.045
933	0.045
933	0.045
933	0.044
934	0.044
934	0.043
935	0.042
935	0.042
935	0.041
936	0.041
936	0.04
937	0.04
937	0.039
938	0.039
938	0.038
938	0.038
939	0.039
939	0.039
940	0.039
940	0.04
941	0.04
941	0.041
941	0.042
942	0.042
942	0.043
943	0.043
943	0.043
944	0.043
944	0.043
944	0.043
945	0.043
945	0.043
946	0.043
946	0.043
946	0.043
947	0.042
947	0.042
948	0.042
948	0.042
949	0.041
949	0.041
949	0.041
950	0.041
950	0.041
951	0.041
951	0.041
952	0.041
952	0.041
952	0.041
953	0.042
953	0.042
954	0.042
954	0.042
955	0.042
955	0.042
955	0.042
956	0.042
956	0.042
957	0.042
957	0.041
957	0.04
958	0.039
958	0.038
959	0.037
959	0.036
960	0.035
960	0.034
960	0.033
961	0.032
961	0.032
962	0.031
962	0.031
963	0.031
963	0.032
963	0.033
964	0.033
964	0.034
965	0.035
965	0.036
966	0.037
966	0.038
966	0.039
967	0.039
967	0.04
968	0.04
968	0.04
968	0.04
969	0.04
969	0.04
970	0.04
970	0.039
971	0.039
971	0.04
971	0.04
972	0.04
972	0.04
973	0.04
973	0.04
974	0.039
974	0.039
974	0.039
975	0.039
975	0.038
976	0.037
976	0.036
976	0.035
977	0.034
977	0.032
978	0.031
978	0.03
979	0.029
979	0.029
979	0.028
980	0.028
980	0.028
981	0.027
981	0.028
982	0.028
982	0.029
982	0.029
983	0.03
983	0.03
984	0.031
984	0.031
984	0.032
985	0.032
985	0.033
986	0.032
986	0.032
987	0.032
987	0.032
987	0.031
988	0.031
988	0.03
989	0.028
989	0.027
990	0.026
990	0.025
990	0.024
991	0.023
991	0.022
992	0.021
992	0.019
992	0.018
993	0.017
993	0.016
994	0.014
994	0.013
995	0.012
995	0.011
995	0.01
996	0.01
996	0.009
997	0.009
997	0.009
997	0.009
998	0.009
998	0.01
999	0.011
999	0.012
1000	0.013
1000	0.014
1000	0.015
1001	0.016
1001	0.017
1002	0.019
1002	0.02
1003	0.021
1003	0.022
1003	0.023
1004	0.024
1004	0.025
1005	0.025
1005	0.025
1005	0.026
1006	0.026
1006	0.026
1007	0.026
1007	0.026
1008	0.025
1008	0.026
1008	0.026
1009	0.025
1009	0.025
1010	0.025
1010	0.025
1010	0.025
1011	0.025
1011	0.025
1012	0.024
1012	0.024
1013	0.023
1013	0.023
1013	0.022
1014	0.021
1014	0.02
1015	0.019
1015	0.017
1016	0.016
1016	0.015
1016	0.014
1017	0.013
1017	0.012
1018	0.012
1018	0.011
1018	0.011
1019	0.011
1019	0.011
1020	0.011
1020	0.011
1021	0.011
1021	0.011
1021	0.01
1022	0.01
1022	0.01
1023	0.009
1023	0.008
1023	0.007
1024	0.006
1024	0.005
1025	0.004
1025	0.003
1026	0.003
1026	0.002
1026	0.001
1027	0.001
1027	0.001
1028	0.001
1028	0.001
1028	0.002
1029	0.002
1029	0.003
1030	0.003
1030	0.004
1031	0.005
1031	0.006
1031	0.007
1032	0.008
1032	0.008
1033	0.009
1033	0.009
1033	0.009
1034	0.008
1034	0.007
1035	0.007
1035	0.006
1036	0.005
1036	0.004
1036	0.003
1037	0.003
1037	0.002
1038	0.001
1038	0.001
1039	0
1039	0
1039	-0
1040	-0.001
1040	-0.001
1041	-0.001
1041	-0.002
1041	-0.003
1042	-0.004
1042	-0.005
1043	-0.005
1043	-0.006
1044	-0.007
1044	-0.008
1044	-0.008
1045	-0.009
1045	-0.01
1046	-0.01
1046	-0.009
1046	-0.009
1047	-0.008
1047	-0.007
1048	-0.007
1048	-0.006
1049	-0.006
1049	-0.006
1049	-0.006
1050	-0.006
1050	-0.006
1051	-0.007
1051	-0.007
1051	-0.007
1052	-0.008
1052	-0.008
1053	-0.008
1053	-0.008
1053	-0.008
1054	-0.007
1054	-0.007
1055	-0.006
1055	-0.007
1056	-0.007
1056	-0.007
1056	-0.008
1057	-0.008
1057	-0.009
1058	-0.01
1058	-0.01
1058	-0.011
1059	-0.011
1059	-0.012
1060	-0.012
1060	-0.013
1061	-0.013
1061	-0.013
1061	-0.014
1062	-0.014
1062	-0.015
1063	-0.015
1063	-0.016
1063	-0.017
1064	-0.018
1064	-0.018
1065	-0.018
1065	-0.019
1066	-0.02
1066	-0.02
1066	-0.021
1067	-0.021
1067	-0.022
1068	-0.022
1068	-0.022
1068	-0.022
1069	-0.023
1069	-0.023
1070	-0.024
1070	-0.024
1071	-0.024
1071	-0.024
1071	-0.025
1072	-0.025
1072	-0.025
1073	-0.026
1073	-0.026
1073	-0.026
1074	-0.026
1074	-0.026
1075	-0.026
1075	-0.027
1076	-0.028
1076	-0.028
1076	-0.028
1077	-0.029
1077	-0.03
1078	-0.03
1078	-0.03
1078	-0.031
1079	-0.031
1079	-0.031
1080	-0.032
1080	-0.032
1080	-0.032
1081	-0.032
1081	-0.031
1082	-0.031
1082	-0.032
1083	-0.032
1083	-0.033
1083	-0.032
1084	-0.033
1084	-0.032
1085	-0.033
1085	-0.033
1085	-0.033
1086	-0.034
1086	-0.035
1087	-0.034
1087	-0.035
1088	-0.036
1088	-0.037
1088	-0.038
1089	-0.04
1089	-0.041
1090	-0.043
1090	-0.045
1090	-0.047
1091	-0.048
1091	-0.049
1092	-0.051
1092	-0.052
1092	-0.053
1093	-0.054
1093	-0.054
1094	-0.055
1094	-0.056
1095	-0.057
1095	-0.058
1095	-0.058
1096	-0.059
1096	-0.06
1097	-0.06
1097	-0.062
1097	-0.063
1098	-0.065
1098	-0.066
1099	-0.067
1099	-0.068
1100	-0.07
1100	-0.072
1100	-0.074
1101	-0.076
1101	-0.078
1102	-0.08
1102	-0.082
1102	-0.084
1103	-0.087
1103	-0.088
1104	-0.09
1104	-0.091
1104	-0.092
1105	-0.093
1105	-0.097
1106	-0.1
1106	-0.103
1107	-0.108
1107	-0.11
1107	-0.113
1108	-0.114
1108	-0.117
1109	-0.12
1109	-0.126
1109	-0.13
1110	-0.13
1110	-0.133
1111	-0.139
1111	-0.129
