Data from 17c-100ul-ns-20ul-nr-full-exp'4ul'bp_Absorbance__566__01937.txt Node

Date: Mon Jan 15 10:32:20 CET 2024
User: Marek
Spectrometer: MAYP115816
Trigger mode: 0
Integration Time (sec): 2.000000E-1
Scans to average: 10
Electric dark correction enabled: true
Nonlinearity correction enabled: true
Boxcar width: 5
XAxis mode: Wavelengths
Number of Pixels in Spectrum: 2068
>>>>>Begin Spectral Data<<<<<
199	-0.526
199	-0.498
200	-0.426
200	-0.365
201	-0.327
201	-0.304
202	-0.28
202	-0.275
203	-0.269
203	-0.266
204	-0.25
204	-0.236
205	-0.221
205	-0.214
205	-0.216
206	-0.217
206	-0.222
207	-0.22
207	-0.221
208	-0.222
208	-0.223
209	-0.222
209	-0.227
210	-0.231
210	-0.232
211	-0.232
211	-0.234
212	-0.235
212	-0.238
213	-0.239
213	-0.238
213	-0.241
214	-0.24
214	-0.241
215	-0.24
215	-0.245
216	-0.246
216	-0.249
217	-0.246
217	-0.245
218	-0.245
218	-0.241
219	-0.237
219	-0.239
220	-0.237
220	-0.238
221	-0.236
221	-0.235
221	-0.23
222	-0.227
222	-0.224
223	-0.218
223	-0.219
224	-0.218
224	-0.21
225	-0.202
225	-0.193
226	-0.187
226	-0.176
227	-0.164
227	-0.156
228	-0.143
228	-0.131
229	-0.113
229	-0.09
229	-0.071
230	-0.049
230	-0.025
231	0.001
231	0.025
232	0.045
232	0.071
233	0.095
233	0.118
234	0.137
234	0.156
235	0.173
235	0.188
236	0.202
236	0.216
236	0.227
237	0.239
237	0.248
238	0.257
238	0.265
239	0.273
239	0.279
240	0.284
240	0.288
241	0.293
241	0.296
242	0.299
242	0.303
243	0.306
243	0.308
243	0.31
244	0.312
244	0.314
245	0.316
245	0.318
246	0.319
246	0.321
247	0.322
247	0.324
248	0.325
248	0.327
249	0.328
249	0.329
250	0.33
250	0.332
250	0.333
251	0.334
251	0.335
252	0.337
252	0.338
253	0.339
253	0.339
254	0.34
254	0.341
255	0.342
255	0.343
256	0.343
256	0.343
257	0.344
257	0.344
258	0.344
258	0.344
258	0.344
259	0.344
259	0.343
260	0.343
260	0.342
261	0.342
261	0.341
262	0.34
262	0.339
263	0.339
263	0.337
264	0.336
264	0.335
265	0.334
265	0.333
265	0.332
266	0.33
266	0.329
267	0.327
267	0.326
268	0.324
268	0.322
269	0.321
269	0.319
270	0.317
270	0.315
271	0.312
271	0.311
272	0.309
272	0.307
272	0.305
273	0.303
273	0.301
274	0.299
274	0.297
275	0.296
275	0.294
276	0.292
276	0.29
277	0.288
277	0.286
278	0.284
278	0.282
278	0.28
279	0.277
279	0.275
280	0.273
280	0.27
281	0.268
281	0.266
282	0.263
282	0.261
283	0.259
283	0.257
284	0.255
284	0.253
285	0.251
285	0.249
285	0.248
286	0.246
286	0.245
287	0.243
287	0.241
288	0.24
288	0.239
289	0.237
289	0.236
290	0.234
290	0.233
291	0.231
291	0.23
292	0.229
292	0.227
292	0.226
293	0.225
293	0.224
294	0.223
294	0.222
295	0.221
295	0.22
296	0.219
296	0.218
297	0.218
297	0.217
298	0.216
298	0.215
298	0.214
299	0.214
299	0.213
300	0.213
300	0.212
301	0.211
301	0.211
302	0.21
302	0.209
303	0.209
303	0.209
304	0.208
304	0.208
305	0.207
305	0.207
305	0.206
306	0.206
306	0.205
307	0.205
307	0.204
308	0.204
308	0.203
309	0.203
309	0.202
310	0.202
310	0.201
311	0.201
311	0.2
311	0.2
312	0.199
312	0.199
313	0.199
313	0.198
314	0.198
314	0.197
315	0.196
315	0.196
316	0.196
316	0.195
317	0.195
317	0.194
318	0.194
318	0.193
318	0.193
319	0.193
319	0.192
320	0.192
320	0.192
321	0.191
321	0.19
322	0.19
322	0.189
323	0.189
323	0.188
324	0.188
324	0.187
324	0.187
325	0.186
325	0.186
326	0.185
326	0.185
327	0.185
327	0.184
328	0.184
328	0.183
329	0.183
329	0.183
330	0.182
330	0.182
330	0.181
331	0.181
331	0.181
332	0.18
332	0.18
333	0.179
333	0.179
334	0.178
334	0.178
335	0.177
335	0.177
336	0.176
336	0.176
336	0.176
337	0.175
337	0.175
338	0.174
338	0.174
339	0.174
339	0.173
340	0.173
340	0.173
341	0.172
341	0.172
342	0.171
342	0.171
342	0.171
343	0.17
343	0.17
344	0.17
344	0.17
345	0.169
345	0.169
346	0.169
346	0.168
347	0.168
347	0.168
348	0.168
348	0.168
348	0.168
349	0.167
349	0.167
350	0.167
350	0.167
351	0.167
351	0.166
352	0.166
352	0.166
353	0.166
353	0.166
354	0.165
354	0.165
354	0.165
355	0.165
355	0.165
356	0.165
356	0.165
357	0.164
357	0.164
358	0.164
358	0.164
359	0.164
359	0.164
360	0.164
360	0.164
360	0.163
361	0.163
361	0.163
362	0.163
362	0.162
363	0.162
363	0.162
364	0.162
364	0.162
365	0.162
365	0.162
366	0.162
366	0.162
366	0.162
367	0.162
367	0.162
368	0.161
368	0.161
369	0.161
369	0.161
370	0.161
370	0.161
371	0.161
371	0.161
372	0.161
372	0.161
372	0.161
373	0.161
373	0.161
374	0.161
374	0.162
375	0.161
375	0.161
376	0.161
376	0.161
377	0.161
377	0.161
378	0.161
378	0.161
378	0.16
379	0.16
379	0.16
380	0.16
380	0.16
381	0.16
381	0.16
382	0.16
382	0.159
383	0.159
383	0.159
383	0.159
384	0.159
384	0.159
385	0.158
385	0.158
386	0.158
386	0.158
387	0.158
387	0.158
388	0.158
388	0.158
389	0.157
389	0.157
389	0.158
390	0.158
390	0.158
391	0.158
391	0.158
392	0.158
392	0.158
393	0.157
393	0.157
394	0.157
394	0.157
394	0.157
395	0.157
395	0.156
396	0.156
396	0.156
397	0.156
397	0.156
398	0.156
398	0.155
399	0.155
399	0.155
400	0.155
400	0.155
400	0.155
401	0.155
401	0.154
402	0.154
402	0.154
403	0.154
403	0.154
404	0.154
404	0.154
405	0.153
405	0.154
405	0.153
406	0.154
406	0.154
407	0.154
407	0.153
408	0.153
408	0.153
409	0.153
409	0.153
410	0.153
410	0.153
411	0.152
411	0.152
411	0.152
412	0.152
412	0.152
413	0.152
413	0.151
414	0.151
414	0.151
415	0.151
415	0.15
416	0.15
416	0.15
416	0.15
417	0.149
417	0.149
418	0.149
418	0.149
419	0.149
419	0.149
420	0.149
420	0.149
421	0.149
421	0.149
421	0.149
422	0.15
422	0.15
423	0.149
423	0.149
424	0.149
424	0.149
425	0.148
425	0.148
426	0.148
426	0.148
427	0.148
427	0.148
427	0.148
428	0.148
428	0.148
429	0.149
429	0.148
430	0.149
430	0.149
431	0.148
431	0.148
432	0.148
432	0.148
432	0.147
433	0.147
433	0.147
434	0.147
434	0.147
435	0.147
435	0.146
436	0.146
436	0.146
437	0.146
437	0.145
437	0.145
438	0.145
438	0.145
439	0.145
439	0.145
440	0.145
440	0.145
441	0.144
441	0.144
442	0.144
442	0.144
442	0.144
443	0.144
443	0.144
444	0.144
444	0.144
445	0.145
445	0.145
446	0.145
446	0.145
447	0.145
447	0.145
447	0.145
448	0.145
448	0.145
449	0.144
449	0.144
450	0.144
450	0.144
451	0.143
451	0.143
452	0.143
452	0.143
452	0.143
453	0.143
453	0.143
454	0.143
454	0.143
455	0.143
455	0.143
456	0.143
456	0.143
457	0.143
457	0.144
458	0.144
458	0.144
458	0.144
459	0.144
459	0.144
460	0.144
460	0.144
461	0.144
461	0.144
462	0.144
462	0.144
463	0.144
463	0.144
463	0.144
464	0.144
464	0.144
465	0.144
465	0.144
466	0.144
466	0.144
467	0.144
467	0.145
467	0.144
468	0.144
468	0.144
469	0.144
469	0.144
470	0.144
470	0.144
471	0.145
471	0.145
472	0.145
472	0.145
472	0.145
473	0.146
473	0.146
474	0.147
474	0.147
475	0.147
475	0.147
476	0.147
476	0.147
477	0.147
477	0.147
477	0.147
478	0.147
478	0.147
479	0.147
479	0.147
480	0.148
480	0.148
481	0.149
481	0.15
482	0.15
482	0.151
482	0.151
483	0.152
483	0.154
484	0.154
484	0.154
485	0.154
485	0.155
486	0.155
486	0.155
487	0.155
487	0.156
487	0.157
488	0.157
488	0.157
489	0.158
489	0.16
490	0.16
490	0.161
491	0.162
491	0.163
492	0.163
492	0.164
492	0.164
493	0.165
493	0.166
494	0.167
494	0.169
495	0.17
495	0.171
496	0.172
496	0.174
496	0.175
497	0.176
497	0.177
498	0.177
498	0.178
499	0.179
499	0.18
500	0.181
500	0.182
501	0.182
501	0.183
501	0.184
502	0.185
502	0.186
503	0.187
503	0.188
504	0.189
504	0.19
505	0.191
505	0.192
506	0.194
506	0.195
506	0.196
507	0.197
507	0.198
508	0.199
508	0.201
509	0.202
509	0.203
510	0.204
510	0.205
511	0.206
511	0.207
511	0.208
512	0.209
512	0.21
513	0.21
513	0.211
514	0.212
514	0.213
515	0.213
515	0.214
515	0.214
516	0.215
516	0.216
517	0.217
517	0.217
518	0.218
518	0.218
519	0.219
519	0.219
520	0.219
520	0.22
520	0.221
521	0.22
521	0.22
522	0.22
522	0.221
523	0.221
523	0.222
524	0.222
524	0.222
524	0.222
525	0.222
525	0.222
526	0.222
526	0.222
527	0.222
527	0.222
528	0.222
528	0.222
529	0.221
529	0.221
529	0.221
530	0.221
530	0.221
531	0.221
531	0.221
532	0.22
532	0.22
533	0.219
533	0.219
533	0.218
534	0.217
534	0.217
535	0.216
535	0.216
536	0.216
536	0.215
537	0.215
537	0.215
538	0.214
538	0.214
538	0.214
539	0.213
539	0.213
540	0.212
540	0.211
541	0.209
541	0.209
542	0.208
542	0.207
542	0.206
543	0.206
543	0.205
544	0.204
544	0.204
545	0.204
545	0.204
546	0.203
546	0.202
547	0.201
547	0.2
547	0.2
548	0.199
548	0.198
549	0.198
549	0.197
550	0.196
550	0.195
551	0.194
551	0.193
551	0.192
552	0.192
552	0.191
553	0.19
553	0.19
554	0.189
554	0.188
555	0.187
555	0.186
556	0.185
556	0.184
556	0.183
557	0.183
557	0.182
558	0.181
558	0.18
559	0.179
559	0.179
560	0.178
560	0.177
560	0.176
561	0.176
561	0.175
562	0.175
562	0.174
563	0.172
563	0.171
564	0.171
564	0.17
564	0.17
565	0.17
565	0.169
566	0.168
566	0.167
567	0.166
567	0.166
568	0.166
568	0.165
568	0.165
569	0.165
569	0.164
570	0.163
570	0.161
571	0.162
571	0.161
572	0.16
572	0.16
573	0.159
573	0.158
573	0.157
574	0.156
574	0.156
575	0.156
575	0.157
576	0.157
576	0.155
577	0.154
577	0.153
577	0.154
578	0.154
578	0.154
579	0.154
579	0.154
580	0.153
580	0.15
581	0.149
581	0.148
581	0.149
582	0.149
582	0.149
583	0.149
583	0.148
584	0.146
584	0.144
585	0.145
585	0.146
585	0.146
586	0.146
586	0.146
587	0.144
587	0.143
588	0.143
588	0.143
589	0.143
589	0.144
590	0.144
590	0.144
590	0.145
591	0.145
591	0.144
592	0.143
592	0.142
593	0.142
593	0.142
594	0.141
594	0.14
594	0.14
595	0.14
595	0.139
596	0.139
596	0.141
597	0.143
597	0.143
598	0.144
598	0.144
598	0.144
599	0.144
599	0.143
600	0.143
600	0.142
601	0.141
601	0.14
602	0.139
602	0.138
602	0.137
603	0.137
603	0.137
604	0.137
604	0.137
605	0.138
605	0.138
606	0.138
606	0.137
606	0.137
607	0.137
607	0.137
608	0.137
608	0.136
609	0.136
609	0.137
610	0.136
610	0.136
610	0.137
611	0.138
611	0.138
612	0.139
612	0.14
613	0.14
613	0.141
614	0.14
614	0.139
614	0.139
615	0.139
615	0.138
616	0.138
616	0.137
617	0.137
617	0.136
618	0.136
618	0.137
618	0.137
619	0.138
619	0.139
620	0.141
620	0.142
621	0.142
621	0.143
622	0.143
622	0.143
622	0.143
623	0.143
623	0.144
624	0.144
624	0.143
625	0.143
625	0.143
626	0.143
626	0.143
626	0.144
627	0.145
627	0.146
628	0.147
628	0.148
629	0.148
629	0.149
630	0.149
630	0.15
630	0.151
631	0.152
631	0.152
632	0.153
632	0.153
633	0.154
633	0.155
634	0.156
634	0.157
634	0.158
635	0.159
635	0.159
636	0.159
636	0.16
637	0.16
637	0.161
638	0.162
638	0.163
638	0.163
639	0.164
639	0.164
640	0.165
640	0.166
641	0.167
641	0.168
642	0.169
642	0.171
642	0.171
643	0.172
643	0.173
644	0.174
644	0.174
645	0.176
645	0.177
646	0.178
646	0.18
646	0.182
647	0.183
647	0.185
648	0.186
648	0.188
649	0.189
649	0.191
650	0.192
650	0.194
650	0.195
651	0.197
651	0.199
652	0.2
652	0.202
653	0.205
653	0.211
653	0.214
654	0.169
654	0.136
655	0.139
655	0.14
656	0.141
656	0.143
657	0.144
657	0.145
657	0.145
658	0.143
658	0.137
659	0.175
659	0.228
660	0.234
660	0.237
661	0.239
661	0.242
661	0.244
662	0.247
662	0.25
663	0.252
663	0.254
664	0.256
664	0.257
665	0.259
665	0.26
665	0.262
666	0.264
666	0.266
667	0.268
667	0.27
668	0.272
668	0.274
669	0.276
669	0.279
669	0.282
670	0.284
670	0.286
671	0.288
671	0.29
672	0.292
672	0.294
672	0.295
673	0.297
673	0.299
674	0.301
674	0.302
675	0.304
675	0.306
676	0.308
676	0.309
676	0.31
677	0.311
677	0.312
678	0.312
678	0.312
679	0.313
679	0.314
680	0.314
680	0.315
680	0.315
681	0.315
681	0.316
682	0.316
682	0.317
683	0.319
683	0.32
684	0.32
684	0.32
684	0.32
685	0.32
685	0.321
686	0.321
686	0.322
687	0.322
687	0.323
687	0.323
688	0.323
688	0.323
689	0.324
689	0.325
690	0.324
690	0.324
691	0.323
691	0.323
691	0.322
692	0.321
692	0.32
693	0.32
693	0.319
694	0.318
694	0.317
695	0.318
695	0.318
695	0.318
696	0.317
696	0.317
697	0.316
697	0.315
698	0.314
698	0.313
698	0.312
699	0.311
699	0.309
700	0.308
700	0.307
701	0.305
701	0.303
702	0.301
702	0.3
702	0.298
703	0.296
703	0.294
704	0.293
704	0.292
705	0.29
705	0.289
705	0.287
706	0.287
706	0.286
707	0.285
707	0.284
708	0.283
708	0.282
709	0.28
709	0.279
709	0.277
710	0.275
710	0.274
711	0.273
711	0.271
712	0.269
712	0.268
713	0.266
713	0.264
713	0.263
714	0.261
714	0.26
715	0.259
715	0.257
716	0.256
716	0.255
716	0.253
717	0.252
717	0.251
718	0.249
718	0.248
719	0.246
719	0.244
720	0.242
720	0.24
720	0.237
721	0.235
721	0.233
722	0.231
722	0.228
723	0.227
723	0.225
723	0.223
724	0.222
724	0.221
725	0.219
725	0.219
726	0.218
726	0.217
727	0.215
727	0.214
727	0.213
728	0.212
728	0.211
729	0.21
729	0.208
730	0.207
730	0.206
730	0.205
731	0.204
731	0.203
732	0.202
732	0.2
733	0.199
733	0.198
734	0.197
734	0.195
734	0.194
735	0.193
735	0.192
736	0.191
736	0.19
737	0.189
737	0.188
737	0.187
738	0.185
738	0.183
739	0.182
739	0.18
740	0.179
740	0.177
741	0.176
741	0.174
741	0.172
742	0.17
742	0.17
743	0.169
743	0.168
744	0.167
744	0.167
744	0.166
745	0.165
745	0.164
746	0.163
746	0.163
747	0.162
747	0.161
748	0.16
748	0.159
748	0.158
749	0.157
749	0.157
750	0.156
750	0.155
751	0.154
751	0.154
751	0.153
752	0.152
752	0.151
753	0.151
753	0.151
754	0.15
754	0.149
754	0.148
755	0.148
755	0.147
756	0.146
756	0.144
757	0.144
757	0.144
758	0.143
758	0.142
758	0.141
759	0.14
759	0.139
760	0.138
760	0.137
761	0.137
761	0.138
761	0.138
762	0.137
762	0.138
763	0.137
763	0.137
764	0.136
764	0.136
764	0.135
765	0.134
765	0.134
766	0.133
766	0.133
767	0.132
767	0.131
768	0.13
768	0.13
768	0.129
769	0.129
769	0.129
770	0.128
770	0.128
771	0.127
771	0.126
771	0.125
772	0.125
772	0.125
773	0.124
773	0.124
774	0.123
774	0.122
775	0.122
775	0.12
775	0.119
776	0.118
776	0.117
777	0.115
777	0.114
778	0.113
778	0.112
778	0.112
779	0.112
779	0.111
780	0.111
780	0.111
781	0.111
781	0.11
781	0.11
782	0.11
782	0.109
783	0.11
783	0.109
784	0.108
784	0.107
784	0.107
785	0.107
785	0.106
786	0.106
786	0.107
787	0.107
787	0.106
788	0.106
788	0.106
788	0.106
789	0.106
789	0.106
790	0.106
790	0.106
791	0.106
791	0.105
791	0.105
792	0.106
792	0.105
793	0.104
793	0.104
794	0.103
794	0.103
794	0.103
795	0.103
795	0.103
796	0.102
796	0.102
797	0.101
797	0.101
797	0.101
798	0.1
798	0.099
799	0.098
799	0.097
800	0.096
800	0.094
801	0.093
801	0.092
801	0.091
802	0.09
802	0.089
803	0.088
803	0.088
804	0.088
804	0.087
804	0.087
805	0.086
805	0.086
806	0.087
806	0.087
807	0.087
807	0.088
807	0.088
808	0.088
808	0.088
809	0.089
809	0.09
810	0.09
810	0.09
810	0.091
811	0.091
811	0.092
812	0.093
812	0.093
813	0.093
813	0.093
813	0.093
814	0.093
814	0.093
815	0.092
815	0.092
816	0.091
816	0.089
817	0.088
817	0.088
817	0.087
818	0.087
818	0.086
819	0.086
819	0.084
820	0.083
820	0.083
820	0.083
821	0.083
821	0.082
822	0.082
822	0.082
823	0.082
823	0.081
823	0.081
824	0.081
824	0.081
825	0.081
825	0.081
826	0.081
826	0.08
826	0.08
827	0.079
827	0.078
828	0.077
828	0.077
829	0.076
829	0.076
829	0.075
830	0.075
830	0.075
831	0.075
831	0.075
832	0.075
832	0.075
832	0.075
833	0.075
833	0.075
834	0.074
834	0.074
835	0.074
835	0.073
835	0.073
836	0.073
836	0.072
837	0.072
837	0.072
838	0.071
838	0.071
839	0.071
839	0.071
839	0.071
840	0.072
840	0.072
841	0.073
841	0.073
842	0.074
842	0.074
842	0.075
843	0.075
843	0.075
844	0.075
844	0.074
845	0.074
845	0.073
845	0.073
846	0.072
846	0.071
847	0.07
847	0.069
848	0.068
848	0.068
848	0.067
849	0.066
849	0.066
850	0.065
850	0.065
851	0.065
851	0.064
851	0.064
852	0.064
852	0.064
853	0.064
853	0.064
854	0.064
854	0.064
854	0.064
855	0.064
855	0.064
856	0.064
856	0.065
857	0.065
857	0.065
857	0.065
858	0.065
858	0.065
859	0.065
859	0.065
860	0.066
860	0.066
860	0.066
861	0.067
861	0.067
862	0.067
862	0.067
863	0.067
863	0.067
863	0.067
864	0.066
864	0.066
865	0.065
865	0.064
866	0.063
866	0.062
866	0.061
867	0.061
867	0.06
868	0.06
868	0.059
869	0.059
869	0.059
869	0.059
870	0.059
870	0.059
871	0.058
871	0.057
872	0.056
872	0.055
872	0.054
873	0.053
873	0.052
874	0.051
874	0.051
875	0.05
875	0.049
875	0.048
876	0.048
876	0.047
877	0.046
877	0.045
878	0.044
878	0.044
878	0.043
879	0.043
879	0.043
880	0.043
880	0.043
881	0.043
881	0.044
881	0.046
882	0.047
882	0.048
883	0.05
883	0.051
884	0.053
884	0.054
884	0.056
885	0.057
885	0.058
886	0.059
886	0.059
887	0.059
887	0.06
887	0.06
888	0.06
888	0.06
889	0.061
889	0.061
890	0.061
890	0.061
890	0.062
891	0.062
891	0.062
892	0.061
892	0.061
893	0.06
893	0.06
893	0.059
894	0.058
894	0.057
895	0.056
895	0.054
895	0.053
896	0.051
896	0.05
897	0.049
897	0.048
898	0.047
898	0.047
898	0.046
899	0.045
899	0.044
900	0.043
900	0.043
901	0.043
901	0.043
901	0.042
902	0.042
902	0.042
903	0.042
903	0.042
904	0.042
904	0.042
904	0.042
905	0.041
905	0.041
906	0.041
906	0.041
907	0.04
907	0.04
907	0.039
908	0.039
908	0.039
909	0.039
909	0.04
910	0.04
910	0.041
910	0.042
911	0.042
911	0.043
912	0.044
912	0.044
913	0.044
913	0.044
913	0.044
914	0.044
914	0.043
915	0.042
915	0.041
916	0.04
916	0.04
916	0.04
917	0.04
917	0.04
918	0.04
918	0.041
918	0.041
919	0.042
919	0.043
920	0.044
920	0.044
921	0.045
921	0.045
921	0.044
922	0.044
922	0.044
923	0.044
923	0.044
924	0.044
924	0.043
924	0.043
925	0.043
925	0.043
926	0.043
926	0.043
927	0.042
927	0.042
927	0.042
928	0.041
928	0.041
929	0.041
929	0.041
930	0.041
930	0.04
930	0.04
931	0.04
931	0.039
932	0.039
932	0.039
933	0.039
933	0.039
933	0.038
934	0.038
934	0.037
935	0.036
935	0.036
935	0.035
936	0.034
936	0.034
937	0.033
937	0.033
938	0.032
938	0.032
938	0.032
939	0.032
939	0.033
940	0.033
940	0.034
941	0.034
941	0.035
941	0.036
942	0.036
942	0.037
943	0.037
943	0.038
944	0.038
944	0.038
944	0.038
945	0.038
945	0.038
946	0.038
946	0.038
946	0.038
947	0.038
947	0.037
948	0.037
948	0.037
949	0.036
949	0.036
949	0.036
950	0.036
950	0.036
951	0.036
951	0.036
952	0.036
952	0.036
952	0.036
953	0.036
953	0.037
954	0.037
954	0.037
955	0.037
955	0.037
955	0.037
956	0.037
956	0.037
957	0.036
957	0.035
957	0.034
958	0.033
958	0.032
959	0.031
959	0.03
960	0.029
960	0.028
960	0.027
961	0.026
961	0.026
962	0.026
962	0.026
963	0.026
963	0.027
963	0.027
964	0.028
964	0.029
965	0.03
965	0.031
966	0.032
966	0.032
966	0.033
967	0.034
967	0.034
968	0.035
968	0.035
968	0.035
969	0.034
969	0.034
970	0.034
970	0.034
971	0.034
971	0.034
971	0.034
972	0.034
972	0.034
973	0.034
973	0.034
974	0.034
974	0.034
974	0.033
975	0.033
975	0.033
976	0.032
976	0.031
976	0.03
977	0.029
977	0.028
978	0.026
978	0.025
979	0.025
979	0.024
979	0.023
980	0.023
980	0.022
981	0.022
981	0.022
982	0.022
982	0.023
982	0.023
983	0.024
983	0.024
984	0.025
984	0.026
984	0.026
985	0.027
985	0.027
986	0.027
986	0.027
987	0.026
987	0.026
987	0.025
988	0.024
988	0.023
989	0.022
989	0.021
990	0.02
990	0.018
990	0.017
991	0.016
991	0.014
992	0.013
992	0.012
992	0.01
993	0.009
993	0.008
994	0.006
994	0.005
995	0.005
995	0.004
995	0.003
996	0.003
996	0.002
997	0.002
997	0.003
997	0.003
998	0.004
998	0.005
999	0.006
999	0.006
1000	0.008
1000	0.009
1000	0.01
1001	0.011
1001	0.013
1002	0.014
1002	0.015
1003	0.016
1003	0.017
1003	0.018
1004	0.019
1004	0.019
1005	0.02
1005	0.02
1005	0.02
1006	0.02
1006	0.02
1007	0.02
1007	0.02
1008	0.02
1008	0.02
1008	0.021
1009	0.021
1009	0.021
1010	0.021
1010	0.021
1010	0.021
1011	0.021
1011	0.021
1012	0.021
1012	0.02
1013	0.02
1013	0.019
1013	0.018
1014	0.017
1014	0.016
1015	0.015
1015	0.014
1016	0.012
1016	0.011
1016	0.01
1017	0.009
1017	0.009
1018	0.008
1018	0.008
1018	0.008
1019	0.008
1019	0.008
1020	0.008
1020	0.007
1021	0.008
1021	0.007
1021	0.007
1022	0.007
1022	0.006
1023	0.006
1023	0.005
1023	0.004
1024	0.003
1024	0.002
1025	0.001
1025	0
1026	-0.001
1026	-0.001
1026	-0.002
1027	-0.002
1027	-0.003
1028	-0.003
1028	-0.002
1028	-0.002
1029	-0.001
1029	-0.001
1030	-0
1030	0
1031	0.001
1031	0.002
1031	0.002
1032	0.003
1032	0.003
1033	0.004
1033	0.003
1033	0.003
1034	0.002
1034	0.001
1035	0.001
1035	-0
1036	-0.001
1036	-0.002
1036	-0.003
1037	-0.004
1037	-0.004
1038	-0.005
1038	-0.005
1039	-0.005
1039	-0.005
1039	-0.006
1040	-0.006
1040	-0.006
1041	-0.007
1041	-0.007
1041	-0.008
1042	-0.009
1042	-0.01
1043	-0.01
1043	-0.011
1044	-0.012
1044	-0.012
1044	-0.012
1045	-0.013
1045	-0.013
1046	-0.013
1046	-0.013
1046	-0.012
1047	-0.011
1047	-0.011
1048	-0.01
1048	-0.01
1049	-0.009
1049	-0.009
1049	-0.009
1050	-0.009
1050	-0.01
1051	-0.01
1051	-0.01
1051	-0.01
1052	-0.01
1052	-0.011
1053	-0.011
1053	-0.01
1053	-0.01
1054	-0.01
1054	-0.01
1055	-0.01
1055	-0.01
1056	-0.01
1056	-0.011
1056	-0.012
1057	-0.012
1057	-0.013
1058	-0.013
1058	-0.014
1058	-0.015
1059	-0.016
1059	-0.017
1060	-0.017
1060	-0.018
1061	-0.018
1061	-0.018
1061	-0.019
1062	-0.019
1062	-0.02
1063	-0.02
1063	-0.021
1063	-0.022
1064	-0.023
1064	-0.023
1065	-0.023
1065	-0.024
1066	-0.025
1066	-0.025
1066	-0.026
1067	-0.026
1067	-0.026
1068	-0.026
1068	-0.026
1068	-0.027
1069	-0.028
1069	-0.028
1070	-0.028
1070	-0.029
1071	-0.029
1071	-0.029
1071	-0.03
1072	-0.03
1072	-0.03
1073	-0.031
1073	-0.031
1073	-0.031
1074	-0.031
1074	-0.031
1075	-0.032
1075	-0.032
1076	-0.033
1076	-0.033
1076	-0.034
1077	-0.035
1077	-0.035
1078	-0.036
1078	-0.036
1078	-0.036
1079	-0.037
1079	-0.037
1080	-0.037
1080	-0.037
1080	-0.037
1081	-0.037
1081	-0.036
1082	-0.036
1082	-0.036
1083	-0.037
1083	-0.037
1083	-0.037
1084	-0.037
1084	-0.037
1085	-0.037
1085	-0.038
1085	-0.038
1086	-0.038
1086	-0.039
1087	-0.039
1087	-0.039
1088	-0.04
1088	-0.042
1088	-0.042
1089	-0.044
1089	-0.045
1090	-0.047
1090	-0.049
1090	-0.05
1091	-0.052
1091	-0.053
1092	-0.055
1092	-0.056
1092	-0.057
1093	-0.058
1093	-0.058
1094	-0.059
1094	-0.059
1095	-0.06
1095	-0.061
1095	-0.062
1096	-0.063
1096	-0.064
1097	-0.064
1097	-0.065
1097	-0.066
1098	-0.068
1098	-0.069
1099	-0.07
1099	-0.072
1100	-0.073
1100	-0.075
1100	-0.076
1101	-0.078
1101	-0.081
1102	-0.083
1102	-0.085
1102	-0.086
1103	-0.089
1103	-0.091
1104	-0.092
1104	-0.094
1104	-0.094
1105	-0.096
1105	-0.099
1106	-0.102
1106	-0.104
1107	-0.109
1107	-0.112
1107	-0.116
1108	-0.117
1108	-0.119
1109	-0.122
1109	-0.128
1109	-0.131
1110	-0.131
1110	-0.134
1111	-0.141
1111	-0.133
