Data from 17c-100ul-ns-20ul-nr-full-exp'4ul'bp_Absorbance__318__01689.txt Node

Date: Mon Jan 15 10:24:04 CET 2024
User: Marek
Spectrometer: MAYP115816
Trigger mode: 0
Integration Time (sec): 2.000000E-1
Scans to average: 10
Electric dark correction enabled: true
Nonlinearity correction enabled: true
Boxcar width: 5
XAxis mode: Wavelengths
Number of Pixels in Spectrum: 2068
>>>>>Begin Spectral Data<<<<<
199	-0.529
199	-0.502
200	-0.426
200	-0.364
201	-0.326
201	-0.304
202	-0.279
202	-0.275
203	-0.268
203	-0.266
204	-0.249
204	-0.234
205	-0.218
205	-0.213
205	-0.216
206	-0.218
206	-0.223
207	-0.221
207	-0.221
208	-0.223
208	-0.22
209	-0.219
209	-0.224
210	-0.227
210	-0.228
211	-0.226
211	-0.227
212	-0.227
212	-0.228
213	-0.228
213	-0.229
213	-0.232
214	-0.233
214	-0.234
215	-0.233
215	-0.237
216	-0.239
216	-0.241
217	-0.239
217	-0.239
218	-0.242
218	-0.238
219	-0.234
219	-0.235
220	-0.233
220	-0.233
221	-0.232
221	-0.229
221	-0.225
222	-0.221
222	-0.219
223	-0.211
223	-0.211
224	-0.211
224	-0.202
225	-0.194
225	-0.187
226	-0.181
226	-0.17
227	-0.158
227	-0.151
228	-0.136
228	-0.124
229	-0.106
229	-0.082
229	-0.063
230	-0.041
230	-0.017
231	0.009
231	0.034
232	0.056
232	0.081
233	0.105
233	0.128
234	0.148
234	0.167
235	0.185
235	0.2
236	0.214
236	0.228
236	0.241
237	0.253
237	0.263
238	0.272
238	0.28
239	0.288
239	0.294
240	0.3
240	0.304
241	0.309
241	0.313
242	0.316
242	0.32
243	0.323
243	0.325
243	0.327
244	0.33
244	0.332
245	0.334
245	0.335
246	0.337
246	0.339
247	0.34
247	0.342
248	0.343
248	0.345
249	0.346
249	0.348
250	0.349
250	0.35
250	0.352
251	0.353
251	0.354
252	0.356
252	0.356
253	0.357
253	0.358
254	0.359
254	0.36
255	0.36
255	0.361
256	0.361
256	0.361
257	0.361
257	0.361
258	0.362
258	0.362
258	0.361
259	0.361
259	0.361
260	0.361
260	0.36
261	0.36
261	0.359
262	0.358
262	0.357
263	0.356
263	0.355
264	0.354
264	0.353
265	0.352
265	0.351
265	0.349
266	0.348
266	0.346
267	0.345
267	0.343
268	0.342
268	0.34
269	0.339
269	0.336
270	0.334
270	0.333
271	0.33
271	0.329
272	0.327
272	0.325
272	0.323
273	0.321
273	0.319
274	0.317
274	0.315
275	0.312
275	0.31
276	0.308
276	0.306
277	0.304
277	0.302
278	0.3
278	0.298
278	0.296
279	0.293
279	0.291
280	0.289
280	0.286
281	0.284
281	0.281
282	0.279
282	0.276
283	0.274
283	0.272
284	0.27
284	0.268
285	0.266
285	0.264
285	0.263
286	0.261
286	0.259
287	0.258
287	0.256
288	0.254
288	0.253
289	0.251
289	0.25
290	0.248
290	0.247
291	0.246
291	0.244
292	0.243
292	0.241
292	0.24
293	0.239
293	0.238
294	0.237
294	0.236
295	0.235
295	0.233
296	0.233
296	0.232
297	0.231
297	0.23
298	0.229
298	0.228
298	0.228
299	0.227
299	0.226
300	0.226
300	0.225
301	0.224
301	0.223
302	0.223
302	0.222
303	0.222
303	0.221
304	0.221
304	0.22
305	0.22
305	0.219
305	0.219
306	0.218
306	0.218
307	0.217
307	0.217
308	0.216
308	0.216
309	0.215
309	0.215
310	0.214
310	0.214
311	0.213
311	0.213
311	0.212
312	0.212
312	0.211
313	0.211
313	0.21
314	0.209
314	0.209
315	0.208
315	0.208
316	0.207
316	0.207
317	0.206
317	0.206
318	0.205
318	0.205
318	0.204
319	0.204
319	0.203
320	0.203
320	0.203
321	0.202
321	0.201
322	0.201
322	0.2
323	0.2
323	0.199
324	0.199
324	0.198
324	0.198
325	0.197
325	0.197
326	0.196
326	0.196
327	0.195
327	0.195
328	0.194
328	0.194
329	0.193
329	0.193
330	0.192
330	0.192
330	0.192
331	0.191
331	0.191
332	0.19
332	0.19
333	0.189
333	0.189
334	0.188
334	0.188
335	0.187
335	0.187
336	0.186
336	0.186
336	0.185
337	0.185
337	0.185
338	0.184
338	0.184
339	0.184
339	0.183
340	0.183
340	0.182
341	0.182
341	0.182
342	0.181
342	0.181
342	0.18
343	0.18
343	0.18
344	0.179
344	0.179
345	0.179
345	0.178
346	0.178
346	0.178
347	0.178
347	0.177
348	0.177
348	0.177
348	0.177
349	0.177
349	0.176
350	0.176
350	0.176
351	0.176
351	0.175
352	0.175
352	0.175
353	0.175
353	0.174
354	0.174
354	0.174
354	0.174
355	0.173
355	0.173
356	0.174
356	0.174
357	0.174
357	0.174
358	0.174
358	0.174
359	0.174
359	0.174
360	0.174
360	0.173
360	0.173
361	0.172
361	0.172
362	0.172
362	0.172
363	0.172
363	0.171
364	0.171
364	0.171
365	0.171
365	0.171
366	0.171
366	0.171
366	0.171
367	0.171
367	0.171
368	0.171
368	0.17
369	0.17
369	0.17
370	0.17
370	0.17
371	0.17
371	0.17
372	0.17
372	0.17
372	0.17
373	0.17
373	0.17
374	0.17
374	0.17
375	0.17
375	0.17
376	0.17
376	0.17
377	0.17
377	0.169
378	0.169
378	0.169
378	0.169
379	0.169
379	0.168
380	0.169
380	0.168
381	0.168
381	0.168
382	0.168
382	0.168
383	0.168
383	0.168
383	0.167
384	0.167
384	0.167
385	0.167
385	0.167
386	0.167
386	0.167
387	0.166
387	0.166
388	0.166
388	0.166
389	0.166
389	0.166
389	0.166
390	0.166
390	0.166
391	0.166
391	0.166
392	0.166
392	0.166
393	0.165
393	0.165
394	0.165
394	0.165
394	0.164
395	0.164
395	0.164
396	0.164
396	0.164
397	0.164
397	0.164
398	0.163
398	0.163
399	0.163
399	0.163
400	0.163
400	0.163
400	0.163
401	0.163
401	0.162
402	0.162
402	0.162
403	0.162
403	0.161
404	0.161
404	0.161
405	0.161
405	0.161
405	0.161
406	0.161
406	0.161
407	0.161
407	0.161
408	0.16
408	0.16
409	0.16
409	0.16
410	0.16
410	0.16
411	0.16
411	0.16
411	0.159
412	0.159
412	0.159
413	0.159
413	0.159
414	0.158
414	0.158
415	0.158
415	0.158
416	0.158
416	0.157
416	0.157
417	0.157
417	0.156
418	0.156
418	0.156
419	0.156
419	0.157
420	0.156
420	0.156
421	0.156
421	0.156
421	0.157
422	0.157
422	0.157
423	0.157
423	0.156
424	0.156
424	0.156
425	0.156
425	0.156
426	0.155
426	0.155
427	0.155
427	0.155
427	0.155
428	0.155
428	0.155
429	0.155
429	0.155
430	0.155
430	0.155
431	0.155
431	0.155
432	0.155
432	0.155
432	0.154
433	0.154
433	0.154
434	0.154
434	0.154
435	0.153
435	0.153
436	0.153
436	0.153
437	0.153
437	0.152
437	0.152
438	0.152
438	0.152
439	0.152
439	0.152
440	0.152
440	0.152
441	0.152
441	0.151
442	0.151
442	0.151
442	0.152
443	0.152
443	0.151
444	0.151
444	0.152
445	0.152
445	0.152
446	0.152
446	0.152
447	0.152
447	0.152
447	0.152
448	0.152
448	0.152
449	0.152
449	0.151
450	0.151
450	0.151
451	0.151
451	0.151
452	0.151
452	0.151
452	0.151
453	0.151
453	0.15
454	0.15
454	0.15
455	0.15
455	0.15
456	0.151
456	0.151
457	0.151
457	0.151
458	0.151
458	0.151
458	0.151
459	0.151
459	0.151
460	0.151
460	0.151
461	0.151
461	0.151
462	0.151
462	0.151
463	0.151
463	0.152
463	0.152
464	0.151
464	0.151
465	0.151
465	0.151
466	0.151
466	0.152
467	0.152
467	0.152
467	0.151
468	0.151
468	0.151
469	0.151
469	0.152
470	0.152
470	0.152
471	0.152
471	0.152
472	0.153
472	0.153
472	0.153
473	0.154
473	0.154
474	0.154
474	0.155
475	0.155
475	0.155
476	0.155
476	0.155
477	0.155
477	0.155
477	0.156
478	0.156
478	0.156
479	0.156
479	0.156
480	0.156
480	0.157
481	0.157
481	0.158
482	0.159
482	0.159
482	0.16
483	0.161
483	0.162
484	0.163
484	0.162
485	0.163
485	0.163
486	0.164
486	0.164
487	0.165
487	0.165
487	0.166
488	0.166
488	0.166
489	0.167
489	0.169
490	0.17
490	0.17
491	0.171
491	0.172
492	0.172
492	0.173
492	0.174
493	0.175
493	0.176
494	0.178
494	0.179
495	0.18
495	0.182
496	0.183
496	0.185
496	0.186
497	0.187
497	0.189
498	0.189
498	0.19
499	0.191
499	0.192
500	0.193
500	0.194
501	0.195
501	0.196
501	0.196
502	0.197
502	0.199
503	0.2
503	0.201
504	0.202
504	0.203
505	0.204
505	0.205
506	0.206
506	0.207
506	0.209
507	0.21
507	0.211
508	0.212
508	0.214
509	0.215
509	0.216
510	0.218
510	0.219
511	0.22
511	0.222
511	0.223
512	0.224
512	0.225
513	0.225
513	0.226
514	0.227
514	0.228
515	0.228
515	0.229
515	0.229
516	0.23
516	0.231
517	0.232
517	0.233
518	0.233
518	0.234
519	0.234
519	0.235
520	0.235
520	0.236
520	0.236
521	0.236
521	0.236
522	0.236
522	0.236
523	0.237
523	0.237
524	0.238
524	0.238
524	0.238
525	0.238
525	0.238
526	0.238
526	0.238
527	0.238
527	0.238
528	0.238
528	0.238
529	0.237
529	0.237
529	0.237
530	0.237
530	0.237
531	0.237
531	0.236
532	0.236
532	0.235
533	0.235
533	0.234
533	0.234
534	0.233
534	0.232
535	0.231
535	0.231
536	0.231
536	0.23
537	0.23
537	0.23
538	0.229
538	0.228
538	0.228
539	0.227
539	0.227
540	0.226
540	0.225
541	0.223
541	0.223
542	0.222
542	0.221
542	0.22
543	0.22
543	0.219
544	0.218
544	0.218
545	0.217
545	0.217
546	0.216
546	0.215
547	0.214
547	0.213
547	0.212
548	0.211
548	0.21
549	0.209
549	0.208
550	0.207
550	0.206
551	0.204
551	0.204
551	0.203
552	0.202
552	0.201
553	0.2
553	0.2
554	0.199
554	0.198
555	0.197
555	0.196
556	0.195
556	0.194
556	0.193
557	0.192
557	0.191
558	0.19
558	0.189
559	0.188
559	0.187
560	0.186
560	0.185
560	0.184
561	0.184
561	0.183
562	0.182
562	0.181
563	0.18
563	0.179
564	0.178
564	0.177
564	0.177
565	0.176
565	0.175
566	0.174
566	0.173
567	0.172
567	0.172
568	0.171
568	0.17
568	0.17
569	0.17
569	0.169
570	0.167
570	0.166
571	0.166
571	0.166
572	0.165
572	0.164
573	0.163
573	0.162
573	0.161
574	0.16
574	0.16
575	0.16
575	0.161
576	0.16
576	0.159
577	0.157
577	0.157
577	0.157
578	0.157
578	0.157
579	0.157
579	0.157
580	0.155
580	0.153
581	0.151
581	0.151
581	0.151
582	0.152
582	0.152
583	0.152
583	0.151
584	0.148
584	0.146
585	0.147
585	0.148
585	0.148
586	0.148
586	0.147
587	0.146
587	0.145
588	0.144
588	0.144
589	0.144
589	0.145
590	0.145
590	0.145
590	0.146
591	0.146
591	0.144
592	0.144
592	0.143
593	0.143
593	0.142
594	0.141
594	0.14
594	0.14
595	0.14
595	0.139
596	0.139
596	0.141
597	0.143
597	0.143
598	0.143
598	0.144
598	0.144
599	0.144
599	0.143
600	0.142
600	0.141
601	0.141
601	0.139
602	0.138
602	0.137
602	0.136
603	0.136
603	0.136
604	0.136
604	0.136
605	0.136
605	0.137
606	0.136
606	0.135
606	0.135
607	0.135
607	0.136
608	0.135
608	0.134
609	0.134
609	0.135
610	0.134
610	0.134
610	0.135
611	0.135
611	0.136
612	0.136
612	0.137
613	0.137
613	0.138
614	0.137
614	0.136
614	0.136
615	0.135
615	0.135
616	0.135
616	0.134
617	0.134
617	0.134
618	0.134
618	0.134
618	0.134
619	0.135
619	0.137
620	0.138
620	0.139
621	0.139
621	0.14
622	0.14
622	0.14
622	0.14
623	0.14
623	0.141
624	0.141
624	0.14
625	0.14
625	0.14
626	0.14
626	0.14
626	0.141
627	0.142
627	0.143
628	0.144
628	0.144
629	0.145
629	0.146
630	0.146
630	0.147
630	0.148
631	0.149
631	0.15
632	0.15
632	0.151
633	0.151
633	0.152
634	0.154
634	0.155
634	0.156
635	0.156
635	0.156
636	0.157
636	0.158
637	0.158
637	0.159
638	0.16
638	0.16
638	0.161
639	0.162
639	0.163
640	0.164
640	0.165
641	0.166
641	0.167
642	0.168
642	0.169
642	0.17
643	0.17
643	0.171
644	0.172
644	0.173
645	0.174
645	0.176
646	0.177
646	0.179
646	0.181
647	0.182
647	0.184
648	0.185
648	0.187
649	0.188
649	0.19
650	0.192
650	0.193
650	0.195
651	0.196
651	0.198
652	0.2
652	0.202
653	0.205
653	0.211
653	0.214
654	0.169
654	0.136
655	0.139
655	0.14
656	0.142
656	0.143
657	0.144
657	0.145
657	0.146
658	0.144
658	0.138
659	0.176
659	0.23
660	0.236
660	0.238
661	0.241
661	0.243
661	0.246
662	0.249
662	0.252
663	0.254
663	0.256
664	0.258
664	0.259
665	0.261
665	0.263
665	0.265
666	0.266
666	0.269
667	0.271
667	0.273
668	0.276
668	0.278
669	0.28
669	0.283
669	0.286
670	0.288
670	0.29
671	0.292
671	0.294
672	0.296
672	0.297
672	0.299
673	0.301
673	0.303
674	0.305
674	0.306
675	0.308
675	0.31
676	0.312
676	0.313
676	0.314
677	0.315
677	0.316
678	0.316
678	0.317
679	0.317
679	0.318
680	0.319
680	0.32
680	0.32
681	0.32
681	0.321
682	0.322
682	0.323
683	0.324
683	0.325
684	0.325
684	0.325
684	0.325
685	0.326
685	0.327
686	0.327
686	0.327
687	0.328
687	0.328
687	0.328
688	0.328
688	0.329
689	0.33
689	0.33
690	0.329
690	0.329
691	0.328
691	0.328
691	0.327
692	0.326
692	0.325
693	0.325
693	0.324
694	0.323
694	0.322
695	0.323
695	0.323
695	0.323
696	0.322
696	0.322
697	0.321
697	0.32
698	0.319
698	0.318
698	0.317
699	0.316
699	0.314
700	0.312
700	0.311
701	0.31
701	0.308
702	0.306
702	0.304
702	0.302
703	0.3
703	0.298
704	0.296
704	0.295
705	0.294
705	0.292
705	0.29
706	0.289
706	0.289
707	0.287
707	0.286
708	0.285
708	0.284
709	0.283
709	0.281
709	0.279
710	0.278
710	0.276
711	0.275
711	0.273
712	0.272
712	0.27
713	0.268
713	0.267
713	0.265
714	0.264
714	0.263
715	0.261
715	0.26
716	0.258
716	0.257
716	0.256
717	0.254
717	0.253
718	0.251
718	0.249
719	0.247
719	0.245
720	0.243
720	0.241
720	0.238
721	0.236
721	0.234
722	0.231
722	0.229
723	0.227
723	0.225
723	0.223
724	0.222
724	0.22
725	0.219
725	0.218
726	0.217
726	0.215
727	0.214
727	0.213
727	0.212
728	0.21
728	0.209
729	0.209
729	0.207
730	0.206
730	0.204
730	0.203
731	0.202
731	0.201
732	0.2
732	0.199
733	0.197
733	0.196
734	0.195
734	0.193
734	0.192
735	0.191
735	0.19
736	0.189
736	0.188
737	0.187
737	0.186
737	0.184
738	0.182
738	0.18
739	0.179
739	0.177
740	0.176
740	0.174
741	0.173
741	0.171
741	0.169
742	0.167
742	0.166
743	0.166
743	0.165
744	0.164
744	0.163
744	0.162
745	0.161
745	0.16
746	0.16
746	0.159
747	0.158
747	0.157
748	0.156
748	0.155
748	0.154
749	0.153
749	0.152
750	0.151
750	0.151
751	0.15
751	0.15
751	0.149
752	0.148
752	0.147
753	0.146
753	0.146
754	0.145
754	0.144
754	0.144
755	0.143
755	0.142
756	0.141
756	0.139
757	0.139
757	0.138
758	0.137
758	0.136
758	0.136
759	0.135
759	0.133
760	0.132
760	0.132
761	0.132
761	0.132
761	0.132
762	0.132
762	0.132
763	0.132
763	0.131
764	0.131
764	0.13
764	0.13
765	0.129
765	0.128
766	0.128
766	0.127
767	0.127
767	0.125
768	0.124
768	0.124
768	0.124
769	0.123
769	0.123
770	0.122
770	0.122
771	0.121
771	0.12
771	0.119
772	0.119
772	0.118
773	0.118
773	0.117
774	0.116
774	0.115
775	0.115
775	0.113
775	0.112
776	0.111
776	0.11
777	0.108
777	0.107
778	0.106
778	0.105
778	0.105
779	0.105
779	0.104
780	0.104
780	0.103
781	0.103
781	0.103
781	0.102
782	0.102
782	0.101
783	0.101
783	0.101
784	0.099
784	0.099
784	0.098
785	0.098
785	0.097
786	0.097
786	0.097
787	0.097
787	0.097
788	0.096
788	0.096
788	0.096
789	0.096
789	0.097
790	0.097
790	0.096
791	0.096
791	0.096
791	0.096
792	0.097
792	0.096
793	0.095
793	0.095
794	0.094
794	0.094
794	0.094
795	0.094
795	0.094
796	0.094
796	0.093
797	0.092
797	0.092
797	0.092
798	0.091
798	0.09
799	0.089
799	0.088
800	0.087
800	0.085
801	0.084
801	0.083
801	0.082
802	0.08
802	0.08
803	0.079
803	0.078
804	0.078
804	0.078
804	0.077
805	0.077
805	0.077
806	0.077
806	0.078
807	0.078
807	0.079
807	0.079
808	0.08
808	0.08
809	0.08
809	0.081
810	0.081
810	0.081
810	0.082
811	0.082
811	0.083
812	0.084
812	0.084
813	0.084
813	0.084
813	0.084
814	0.084
814	0.084
815	0.083
815	0.083
816	0.082
816	0.08
817	0.079
817	0.079
817	0.078
818	0.078
818	0.077
819	0.076
819	0.075
820	0.074
820	0.074
820	0.073
821	0.073
821	0.073
822	0.072
822	0.072
823	0.072
823	0.072
823	0.072
824	0.072
824	0.072
825	0.072
825	0.072
826	0.071
826	0.071
826	0.071
827	0.07
827	0.069
828	0.069
828	0.068
829	0.068
829	0.067
829	0.067
830	0.066
830	0.066
831	0.066
831	0.066
832	0.066
832	0.066
832	0.066
833	0.066
833	0.066
834	0.066
834	0.065
835	0.065
835	0.064
835	0.064
836	0.063
836	0.062
837	0.062
837	0.061
838	0.061
838	0.061
839	0.061
839	0.06
839	0.06
840	0.061
840	0.061
841	0.061
841	0.062
842	0.063
842	0.063
842	0.063
843	0.063
843	0.063
844	0.063
844	0.063
845	0.063
845	0.062
845	0.062
846	0.061
846	0.06
847	0.059
847	0.058
848	0.058
848	0.057
848	0.057
849	0.057
849	0.056
850	0.056
850	0.055
851	0.055
851	0.055
851	0.055
852	0.055
852	0.055
853	0.055
853	0.055
854	0.055
854	0.056
854	0.056
855	0.056
855	0.055
856	0.055
856	0.056
857	0.056
857	0.056
857	0.056
858	0.056
858	0.056
859	0.056
859	0.056
860	0.056
860	0.056
860	0.056
861	0.057
861	0.057
862	0.056
862	0.056
863	0.057
863	0.056
863	0.056
864	0.056
864	0.055
865	0.055
865	0.054
866	0.053
866	0.052
866	0.051
867	0.05
867	0.05
868	0.05
868	0.049
869	0.049
869	0.049
869	0.049
870	0.049
870	0.049
871	0.048
871	0.048
872	0.047
872	0.045
872	0.045
873	0.044
873	0.042
874	0.041
874	0.041
875	0.04
875	0.039
875	0.038
876	0.038
876	0.037
877	0.036
877	0.035
878	0.035
878	0.034
878	0.034
879	0.033
879	0.033
880	0.033
880	0.033
881	0.034
881	0.035
881	0.036
882	0.038
882	0.039
883	0.041
883	0.042
884	0.044
884	0.045
884	0.046
885	0.047
885	0.048
886	0.049
886	0.049
887	0.049
887	0.049
887	0.05
888	0.05
888	0.05
889	0.05
889	0.051
890	0.051
890	0.052
890	0.052
891	0.052
891	0.052
892	0.052
892	0.052
893	0.051
893	0.05
893	0.05
894	0.049
894	0.048
895	0.046
895	0.045
895	0.044
896	0.042
896	0.041
897	0.04
897	0.039
898	0.038
898	0.038
898	0.037
899	0.036
899	0.035
900	0.034
900	0.034
901	0.034
901	0.033
901	0.033
902	0.033
902	0.033
903	0.033
903	0.033
904	0.033
904	0.032
904	0.032
905	0.032
905	0.032
906	0.032
906	0.032
907	0.031
907	0.031
907	0.03
908	0.03
908	0.03
909	0.03
909	0.03
910	0.031
910	0.031
910	0.032
911	0.033
911	0.033
912	0.034
912	0.034
913	0.034
913	0.034
913	0.034
914	0.034
914	0.033
915	0.032
915	0.031
916	0.03
916	0.03
916	0.03
917	0.03
917	0.03
918	0.03
918	0.031
918	0.032
919	0.033
919	0.033
920	0.034
920	0.035
921	0.035
921	0.035
921	0.035
922	0.035
922	0.034
923	0.034
923	0.034
924	0.033
924	0.033
924	0.032
925	0.032
925	0.032
926	0.032
926	0.032
927	0.032
927	0.032
927	0.032
928	0.031
928	0.031
929	0.031
929	0.031
930	0.031
930	0.031
930	0.03
931	0.03
931	0.03
932	0.029
932	0.029
933	0.029
933	0.029
933	0.028
934	0.028
934	0.027
935	0.027
935	0.026
935	0.025
936	0.025
936	0.024
937	0.024
937	0.024
938	0.023
938	0.023
938	0.022
939	0.023
939	0.023
940	0.024
940	0.024
941	0.025
941	0.025
941	0.026
942	0.027
942	0.027
943	0.028
943	0.028
944	0.028
944	0.028
944	0.029
945	0.029
945	0.029
946	0.029
946	0.029
946	0.028
947	0.028
947	0.028
948	0.028
948	0.028
949	0.028
949	0.028
949	0.028
950	0.028
950	0.028
951	0.028
951	0.028
952	0.028
952	0.029
952	0.029
953	0.029
953	0.029
954	0.029
954	0.029
955	0.029
955	0.029
955	0.029
956	0.029
956	0.029
957	0.028
957	0.027
957	0.026
958	0.025
958	0.024
959	0.023
959	0.022
960	0.021
960	0.02
960	0.019
961	0.018
961	0.018
962	0.017
962	0.018
963	0.018
963	0.019
963	0.019
964	0.02
964	0.021
965	0.021
965	0.022
966	0.023
966	0.024
966	0.024
967	0.025
967	0.025
968	0.026
968	0.026
968	0.026
969	0.026
969	0.026
970	0.026
970	0.026
971	0.025
971	0.026
971	0.026
972	0.026
972	0.026
973	0.025
973	0.025
974	0.025
974	0.025
974	0.024
975	0.024
975	0.024
976	0.023
976	0.022
976	0.021
977	0.019
977	0.018
978	0.017
978	0.016
979	0.015
979	0.014
979	0.014
980	0.013
980	0.013
981	0.013
981	0.013
982	0.013
982	0.014
982	0.015
983	0.015
983	0.016
984	0.016
984	0.017
984	0.017
985	0.018
985	0.018
986	0.018
986	0.018
987	0.017
987	0.017
987	0.016
988	0.016
988	0.014
989	0.013
989	0.012
990	0.01
990	0.009
990	0.008
991	0.006
991	0.005
992	0.004
992	0.003
992	0.001
993	0
993	-0.001
994	-0.002
994	-0.003
995	-0.004
995	-0.004
995	-0.005
996	-0.005
996	-0.005
997	-0.005
997	-0.005
997	-0.005
998	-0.004
998	-0.003
999	-0.001
999	-0
1000	0.001
1000	0.002
1000	0.003
1001	0.004
1001	0.006
1002	0.007
1002	0.008
1003	0.009
1003	0.01
1003	0.011
1004	0.011
1004	0.012
1005	0.012
1005	0.013
1005	0.013
1006	0.013
1006	0.013
1007	0.013
1007	0.013
1008	0.013
1008	0.013
1008	0.013
1009	0.013
1009	0.013
1010	0.013
1010	0.014
1010	0.014
1011	0.014
1011	0.013
1012	0.013
1012	0.013
1013	0.012
1013	0.012
1013	0.011
1014	0.01
1014	0.008
1015	0.007
1015	0.006
1016	0.005
1016	0.004
1016	0.003
1017	0.002
1017	0.001
1018	0
1018	-0
1018	-0
1019	-0
1019	-0
1020	-0.001
1020	-0.001
1021	-0.001
1021	-0.001
1021	-0.001
1022	-0.001
1022	-0.002
1023	-0.002
1023	-0.003
1023	-0.004
1024	-0.005
1024	-0.006
1025	-0.007
1025	-0.007
1026	-0.008
1026	-0.009
1026	-0.009
1027	-0.009
1027	-0.01
1028	-0.009
1028	-0.009
1028	-0.009
1029	-0.008
1029	-0.008
1030	-0.007
1030	-0.007
1031	-0.006
1031	-0.006
1031	-0.005
1032	-0.005
1032	-0.004
1033	-0.004
1033	-0.004
1033	-0.005
1034	-0.005
1034	-0.006
1035	-0.007
1035	-0.008
1036	-0.009
1036	-0.01
1036	-0.01
1037	-0.011
1037	-0.012
1038	-0.012
1038	-0.013
1039	-0.013
1039	-0.013
1039	-0.013
1040	-0.013
1040	-0.013
1041	-0.014
1041	-0.015
1041	-0.015
1042	-0.016
1042	-0.017
1043	-0.017
1043	-0.018
1044	-0.019
1044	-0.019
1044	-0.02
1045	-0.02
1045	-0.02
1046	-0.02
1046	-0.02
1046	-0.019
1047	-0.019
1047	-0.018
1048	-0.017
1048	-0.017
1049	-0.016
1049	-0.016
1049	-0.016
1050	-0.016
1050	-0.016
1051	-0.016
1051	-0.017
1051	-0.017
1052	-0.017
1052	-0.017
1053	-0.018
1053	-0.018
1053	-0.018
1054	-0.018
1054	-0.017
1055	-0.017
1055	-0.017
1056	-0.017
1056	-0.017
1056	-0.018
1057	-0.019
1057	-0.019
1058	-0.02
1058	-0.021
1058	-0.021
1059	-0.022
1059	-0.023
1060	-0.023
1060	-0.024
1061	-0.024
1061	-0.024
1061	-0.025
1062	-0.025
1062	-0.026
1063	-0.026
1063	-0.027
1063	-0.028
1064	-0.029
1064	-0.03
1065	-0.03
1065	-0.031
1066	-0.032
1066	-0.033
1066	-0.033
1067	-0.033
1067	-0.034
1068	-0.034
1068	-0.034
1068	-0.034
1069	-0.035
1069	-0.035
1070	-0.035
1070	-0.036
1071	-0.036
1071	-0.036
1071	-0.037
1072	-0.038
1072	-0.038
1073	-0.038
1073	-0.038
1073	-0.039
1074	-0.038
1074	-0.038
1075	-0.039
1075	-0.039
1076	-0.04
1076	-0.04
1076	-0.04
1077	-0.041
1077	-0.042
1078	-0.043
1078	-0.043
1078	-0.043
1079	-0.044
1079	-0.044
1080	-0.044
1080	-0.043
1080	-0.044
1081	-0.043
1081	-0.043
1082	-0.042
1082	-0.043
1083	-0.043
1083	-0.043
1083	-0.042
1084	-0.042
1084	-0.043
1085	-0.043
1085	-0.043
1085	-0.043
1086	-0.043
1086	-0.045
1087	-0.045
1087	-0.045
1088	-0.046
1088	-0.047
1088	-0.048
1089	-0.049
1089	-0.05
1090	-0.052
1090	-0.053
1090	-0.056
1091	-0.057
1091	-0.058
1092	-0.06
1092	-0.061
1092	-0.061
1093	-0.063
1093	-0.063
1094	-0.064
1094	-0.065
1095	-0.066
1095	-0.066
1095	-0.067
1096	-0.068
1096	-0.068
1097	-0.068
1097	-0.07
1097	-0.071
1098	-0.072
1098	-0.073
1099	-0.075
1099	-0.076
1100	-0.077
1100	-0.079
1100	-0.08
1101	-0.083
1101	-0.085
1102	-0.086
1102	-0.087
1102	-0.089
1103	-0.091
1103	-0.092
1104	-0.093
1104	-0.094
1104	-0.095
1105	-0.097
1105	-0.1
1106	-0.103
1106	-0.105
1107	-0.11
1107	-0.113
1107	-0.117
1108	-0.119
1108	-0.122
1109	-0.124
1109	-0.13
1109	-0.133
1110	-0.132
1110	-0.137
1111	-0.142
1111	-0.135
