Data from 3.5A_17C_Absorbance__213__00215.txt Node

Date: Tue Jun 20 15:03:58 CEST 2023
User: Marek
Spectrometer: MAYP115816
Trigger mode: 0
Integration Time (sec): 2.200000E-1
Scans to average: 10
Electric dark correction enabled: true
Nonlinearity correction enabled: true
Boxcar width: 5
XAxis mode: Wavelengths
Number of Pixels in Spectrum: 2068
>>>>>Begin Spectral Data<<<<<
199	-0.566
199	-0.549
200	-0.517
200	-0.461
201	-0.434
201	-0.426
202	-0.409
202	-0.402
203	-0.401
203	-0.395
204	-0.378
204	-0.364
205	-0.341
205	-0.331
205	-0.342
206	-0.345
206	-0.343
207	-0.336
207	-0.345
208	-0.348
208	-0.354
209	-0.354
209	-0.359
210	-0.372
210	-0.379
211	-0.372
211	-0.375
212	-0.383
212	-0.39
213	-0.384
213	-0.376
213	-0.372
214	-0.379
214	-0.382
215	-0.38
215	-0.385
216	-0.395
216	-0.403
217	-0.398
217	-0.4
218	-0.406
218	-0.409
219	-0.415
219	-0.416
220	-0.421
220	-0.425
221	-0.425
221	-0.425
221	-0.415
222	-0.415
222	-0.415
223	-0.411
223	-0.413
224	-0.415
224	-0.411
225	-0.408
225	-0.411
226	-0.413
226	-0.411
227	-0.42
227	-0.427
228	-0.429
228	-0.439
229	-0.444
229	-0.442
229	-0.444
230	-0.441
230	-0.44
231	-0.437
231	-0.432
232	-0.433
232	-0.432
233	-0.433
233	-0.422
234	-0.42
234	-0.415
235	-0.419
235	-0.43
236	-0.435
236	-0.434
236	-0.436
237	-0.432
237	-0.432
238	-0.432
238	-0.435
239	-0.437
239	-0.445
240	-0.436
240	-0.432
241	-0.425
241	-0.428
242	-0.43
242	-0.44
243	-0.44
243	-0.441
243	-0.441
244	-0.439
244	-0.441
245	-0.448
245	-0.451
246	-0.461
246	-0.465
247	-0.475
247	-0.462
248	-0.461
248	-0.463
249	-0.471
249	-0.473
250	-0.473
250	-0.479
250	-0.476
251	-0.478
251	-0.473
252	-0.474
252	-0.486
253	-0.479
253	-0.491
254	-0.494
254	-0.493
255	-0.501
255	-0.498
256	-0.5
256	-0.51
257	-0.52
257	-0.516
258	-0.512
258	-0.52
258	-0.515
259	-0.509
259	-0.527
260	-0.527
260	-0.516
261	-0.524
261	-0.511
262	-0.512
262	-0.511
263	-0.507
263	-0.514
264	-0.525
264	-0.526
265	-0.518
265	-0.519
265	-0.53
266	-0.523
266	-0.524
267	-0.526
267	-0.54
268	-0.546
268	-0.537
269	-0.528
269	-0.54
270	-0.541
270	-0.541
271	-0.552
271	-0.561
272	-0.562
272	-0.563
272	-0.555
273	-0.563
273	-0.579
274	-0.574
274	-0.57
275	-0.568
275	-0.552
276	-0.557
276	-0.562
277	-0.56
277	-0.559
278	-0.564
278	-0.564
278	-0.551
279	-0.561
279	-0.573
280	-0.576
280	-0.586
281	-0.578
281	-0.571
282	-0.58
282	-0.575
283	-0.568
283	-0.585
284	-0.597
284	-0.603
285	-0.582
285	-0.585
285	-0.581
286	-0.587
286	-0.601
287	-0.595
287	-0.592
288	-0.588
288	-0.569
289	-0.569
289	-0.578
290	-0.589
290	-0.582
291	-0.583
291	-0.581
292	-0.563
292	-0.56
292	-0.564
293	-0.557
293	-0.553
294	-0.553
294	-0.538
295	-0.52
295	-0.53
296	-0.543
296	-0.54
297	-0.529
297	-0.535
298	-0.53
298	-0.544
298	-0.549
299	-0.53
299	-0.525
300	-0.525
300	-0.505
301	-0.486
301	-0.487
302	-0.495
302	-0.48
303	-0.475
303	-0.465
304	-0.449
304	-0.451
305	-0.441
305	-0.447
305	-0.464
306	-0.451
306	-0.449
307	-0.443
307	-0.453
308	-0.454
308	-0.451
309	-0.451
309	-0.448
310	-0.444
310	-0.438
311	-0.426
311	-0.444
311	-0.431
312	-0.428
312	-0.417
313	-0.41
313	-0.412
314	-0.418
314	-0.416
315	-0.415
315	-0.409
316	-0.403
316	-0.394
317	-0.385
317	-0.385
318	-0.379
318	-0.378
318	-0.368
319	-0.358
319	-0.348
320	-0.347
320	-0.347
321	-0.342
321	-0.337
322	-0.334
322	-0.325
323	-0.326
323	-0.315
324	-0.313
324	-0.301
324	-0.292
325	-0.278
325	-0.259
326	-0.252
326	-0.231
327	-0.217
327	-0.197
328	-0.168
328	-0.148
329	-0.122
329	-0.096
330	-0.07
330	-0.037
330	-0.008
331	0.025
331	0.054
332	0.085
332	0.113
333	0.139
333	0.168
334	0.193
334	0.214
335	0.234
335	0.251
336	0.269
336	0.285
336	0.298
337	0.31
337	0.323
338	0.334
338	0.341
339	0.35
339	0.357
340	0.363
340	0.369
341	0.373
341	0.377
342	0.382
342	0.386
342	0.389
343	0.391
343	0.395
344	0.396
344	0.399
345	0.401
345	0.403
346	0.404
346	0.406
347	0.407
347	0.408
348	0.408
348	0.409
348	0.41
349	0.41
349	0.41
350	0.411
350	0.411
351	0.411
351	0.411
352	0.411
352	0.41
353	0.411
353	0.411
354	0.411
354	0.411
354	0.411
355	0.411
355	0.411
356	0.411
356	0.411
357	0.412
357	0.412
358	0.412
358	0.412
359	0.412
359	0.412
360	0.411
360	0.411
360	0.411
361	0.411
361	0.41
362	0.409
362	0.409
363	0.409
363	0.408
364	0.408
364	0.408
365	0.408
365	0.408
366	0.407
366	0.407
366	0.407
367	0.407
367	0.407
368	0.406
368	0.406
369	0.405
369	0.405
370	0.404
370	0.404
371	0.403
371	0.403
372	0.402
372	0.402
372	0.402
373	0.401
373	0.401
374	0.401
374	0.4
375	0.4
375	0.4
376	0.399
376	0.399
377	0.398
377	0.398
378	0.397
378	0.397
378	0.396
379	0.396
379	0.396
380	0.395
380	0.395
381	0.395
381	0.394
382	0.394
382	0.394
383	0.393
383	0.393
383	0.392
384	0.391
384	0.391
385	0.39
385	0.39
386	0.389
386	0.389
387	0.388
387	0.388
388	0.388
388	0.387
389	0.387
389	0.387
389	0.386
390	0.386
390	0.385
391	0.385
391	0.384
392	0.384
392	0.383
393	0.383
393	0.382
394	0.382
394	0.382
394	0.381
395	0.381
395	0.38
396	0.38
396	0.379
397	0.379
397	0.379
398	0.378
398	0.378
399	0.377
399	0.377
400	0.376
400	0.376
400	0.375
401	0.375
401	0.374
402	0.374
402	0.374
403	0.373
403	0.373
404	0.372
404	0.372
405	0.371
405	0.371
405	0.37
406	0.37
406	0.37
407	0.369
407	0.369
408	0.368
408	0.368
409	0.368
409	0.368
410	0.368
410	0.367
411	0.367
411	0.367
411	0.367
412	0.366
412	0.366
413	0.365
413	0.365
414	0.365
414	0.365
415	0.364
415	0.364
416	0.364
416	0.363
416	0.363
417	0.363
417	0.363
418	0.362
418	0.362
419	0.362
419	0.362
420	0.362
420	0.362
421	0.362
421	0.361
421	0.361
422	0.361
422	0.361
423	0.36
423	0.36
424	0.36
424	0.36
425	0.36
425	0.36
426	0.359
426	0.359
427	0.359
427	0.359
427	0.359
428	0.359
428	0.358
429	0.358
429	0.358
430	0.357
430	0.357
431	0.357
431	0.357
432	0.357
432	0.356
432	0.356
433	0.356
433	0.356
434	0.356
434	0.356
435	0.356
435	0.356
436	0.356
436	0.356
437	0.356
437	0.356
437	0.356
438	0.356
438	0.356
439	0.356
439	0.356
440	0.356
440	0.356
441	0.356
441	0.356
442	0.356
442	0.356
442	0.356
443	0.356
443	0.356
444	0.356
444	0.356
445	0.356
445	0.356
446	0.356
446	0.356
447	0.356
447	0.356
447	0.357
448	0.357
448	0.357
449	0.357
449	0.357
450	0.357
450	0.357
451	0.357
451	0.357
452	0.357
452	0.357
452	0.357
453	0.357
453	0.357
454	0.358
454	0.358
455	0.358
455	0.359
456	0.359
456	0.36
457	0.36
457	0.36
458	0.36
458	0.36
458	0.361
459	0.361
459	0.361
460	0.361
460	0.361
461	0.361
461	0.362
462	0.362
462	0.363
463	0.364
463	0.365
463	0.365
464	0.366
464	0.366
465	0.367
465	0.367
466	0.368
466	0.369
467	0.369
467	0.369
467	0.37
468	0.37
468	0.371
469	0.371
469	0.372
470	0.373
470	0.374
471	0.375
471	0.376
472	0.376
472	0.378
472	0.379
473	0.38
473	0.381
474	0.382
474	0.383
475	0.384
475	0.385
476	0.386
476	0.387
477	0.388
477	0.389
477	0.391
478	0.392
478	0.393
479	0.395
479	0.396
480	0.398
480	0.399
481	0.401
481	0.402
482	0.404
482	0.406
482	0.408
483	0.41
483	0.412
484	0.414
484	0.416
485	0.418
485	0.42
486	0.422
486	0.424
487	0.426
487	0.428
487	0.429
488	0.431
488	0.433
489	0.435
489	0.438
490	0.44
490	0.442
491	0.445
491	0.448
492	0.451
492	0.453
492	0.456
493	0.459
493	0.461
494	0.465
494	0.468
495	0.471
495	0.473
496	0.476
496	0.479
496	0.482
497	0.485
497	0.489
498	0.492
498	0.495
499	0.499
499	0.502
500	0.506
500	0.51
501	0.513
501	0.517
501	0.52
502	0.524
502	0.528
503	0.531
503	0.535
504	0.538
504	0.542
505	0.546
505	0.55
506	0.554
506	0.557
506	0.562
507	0.565
507	0.569
508	0.573
508	0.577
509	0.581
509	0.585
510	0.589
510	0.593
511	0.597
511	0.601
511	0.604
512	0.607
512	0.611
513	0.614
513	0.617
514	0.62
514	0.623
515	0.626
515	0.629
515	0.632
516	0.635
516	0.638
517	0.641
517	0.643
518	0.646
518	0.648
519	0.65
519	0.652
520	0.654
520	0.656
520	0.658
521	0.66
521	0.662
522	0.664
522	0.665
523	0.667
523	0.669
524	0.669
524	0.671
524	0.671
525	0.672
525	0.673
526	0.673
526	0.674
527	0.674
527	0.674
528	0.674
528	0.673
529	0.673
529	0.672
529	0.671
530	0.67
530	0.669
531	0.668
531	0.667
532	0.665
532	0.663
533	0.662
533	0.66
533	0.658
534	0.656
534	0.653
535	0.651
535	0.648
536	0.646
536	0.643
537	0.64
537	0.637
538	0.634
538	0.63
538	0.627
539	0.624
539	0.621
540	0.617
540	0.613
541	0.609
541	0.605
542	0.601
542	0.597
542	0.593
543	0.588
543	0.583
544	0.579
544	0.574
545	0.57
545	0.565
546	0.56
546	0.554
547	0.549
547	0.544
547	0.539
548	0.534
548	0.529
549	0.524
549	0.519
550	0.514
550	0.509
551	0.503
551	0.498
551	0.492
552	0.487
552	0.482
553	0.477
553	0.471
554	0.466
554	0.461
555	0.455
555	0.45
556	0.444
556	0.439
556	0.433
557	0.428
557	0.423
558	0.418
558	0.413
559	0.407
559	0.402
560	0.396
560	0.392
560	0.388
561	0.384
561	0.379
562	0.375
562	0.37
563	0.366
563	0.362
564	0.358
564	0.354
564	0.349
565	0.345
565	0.341
566	0.336
566	0.332
567	0.328
567	0.324
568	0.319
568	0.314
568	0.31
569	0.305
569	0.3
570	0.296
570	0.291
571	0.287
571	0.283
572	0.279
572	0.275
573	0.271
573	0.267
573	0.264
574	0.261
574	0.258
575	0.254
575	0.252
576	0.249
576	0.245
577	0.242
577	0.239
577	0.236
578	0.234
578	0.232
579	0.23
579	0.227
580	0.224
580	0.22
581	0.217
581	0.214
581	0.212
582	0.21
582	0.208
583	0.205
583	0.202
584	0.198
584	0.194
585	0.192
585	0.189
585	0.186
586	0.183
586	0.181
587	0.178
587	0.176
588	0.173
588	0.171
589	0.17
589	0.168
590	0.167
590	0.165
590	0.164
591	0.162
591	0.16
592	0.158
592	0.156
593	0.155
593	0.153
594	0.151
594	0.15
594	0.148
595	0.147
595	0.145
596	0.143
596	0.142
597	0.142
597	0.14
598	0.138
598	0.137
598	0.135
599	0.134
599	0.133
600	0.131
600	0.13
601	0.129
601	0.128
602	0.127
602	0.126
602	0.124
603	0.123
603	0.123
604	0.122
604	0.121
605	0.12
605	0.119
606	0.117
606	0.115
606	0.114
607	0.113
607	0.112
608	0.11
608	0.108
609	0.107
609	0.106
610	0.105
610	0.103
610	0.102
611	0.101
611	0.1
612	0.1
612	0.099
613	0.099
613	0.098
614	0.097
614	0.096
614	0.095
615	0.094
615	0.093
616	0.093
616	0.092
617	0.091
617	0.09
618	0.089
618	0.088
618	0.088
619	0.087
619	0.087
620	0.087
620	0.086
621	0.086
621	0.085
622	0.084
622	0.083
622	0.082
623	0.081
623	0.081
624	0.08
624	0.079
625	0.079
625	0.078
626	0.078
626	0.077
626	0.077
627	0.076
627	0.076
628	0.075
628	0.074
629	0.073
629	0.072
630	0.071
630	0.07
630	0.069
631	0.069
631	0.068
632	0.067
632	0.067
633	0.066
633	0.066
634	0.066
634	0.065
634	0.064
635	0.063
635	0.062
636	0.061
636	0.06
637	0.059
637	0.058
638	0.057
638	0.056
638	0.055
639	0.054
639	0.053
640	0.052
640	0.051
641	0.05
641	0.049
642	0.049
642	0.048
642	0.047
643	0.046
643	0.045
644	0.044
644	0.043
645	0.042
645	0.041
646	0.04
646	0.037
646	0.035
647	0.033
647	0.031
648	0.028
648	0.026
649	0.023
649	0.021
650	0.018
650	0.016
650	0.013
651	0.01
651	0.006
652	0.001
652	-0.004
653	-0.008
653	-0.011
653	-0.009
654	-0.004
654	-0.005
655	-0.008
655	-0.01
656	-0.013
656	-0.015
657	-0.018
657	-0.019
657	-0.023
658	-0.026
658	-0.04
659	-0.077
659	-0.111
660	-0.129
660	-0.141
661	-0.154
661	-0.168
661	-0.184
662	-0.197
662	-0.213
663	-0.229
663	-0.248
664	-0.264
664	-0.284
665	-0.307
665	-0.33
665	-0.351
666	-0.375
666	-0.402
667	-0.43
667	-0.463
668	-0.495
668	-0.539
669	-0.582
669	-0.63
669	-0.687
670	-0.76
670	-0.928
671	-1.273
671	-1.65
672	-2.007
672	-2.285
672	-2.459
673	-2.53
673	-2.549
674	-2.565
674	-2.574
675	-2.589
675	-2.592
676	-2.585
676	-2.549
676	-2.46
677	-2.263
677	-1.883
678	-1.307
678	-0.968
679	-0.856
679	-0.793
680	-0.744
680	-0.712
680	-0.684
681	-0.674
681	-0.65
682	-0.638
682	-0.614
683	-0.594
683	-0.592
684	-0.583
684	-0.58
684	-0.574
685	-0.57
685	-0.572
686	-0.561
686	-0.559
687	-0.557
687	-0.559
687	-0.566
688	-0.557
688	-0.558
689	-0.569
689	-0.572
690	-0.564
690	-0.56
691	-0.56
691	-0.565
691	-0.57
692	-0.571
692	-0.573
693	-0.582
693	-0.593
694	-0.576
694	-0.576
695	-0.581
695	-0.574
695	-0.586
696	-0.595
696	-0.589
697	-0.586
697	-0.583
698	-0.58
698	-0.574
698	-0.586
699	-0.585
699	-0.584
700	-0.605
700	-0.6
701	-0.589
701	-0.583
702	-0.583
702	-0.584
702	-0.587
703	-0.579
703	-0.571
704	-0.58
704	-0.587
705	-0.58
705	-0.579
705	-0.575
706	-0.571
706	-0.57
707	-0.58
707	-0.582
708	-0.581
708	-0.58
709	-0.583
709	-0.581
709	-0.575
710	-0.582
710	-0.587
711	-0.587
711	-0.588
712	-0.582
712	-0.581
713	-0.585
713	-0.585
713	-0.562
714	-0.562
714	-0.567
715	-0.561
715	-0.567
716	-0.585
716	-0.592
716	-0.59
717	-0.595
717	-0.586
718	-0.581
718	-0.584
719	-0.582
719	-0.573
720	-0.567
720	-0.56
720	-0.554
721	-0.547
721	-0.552
722	-0.552
722	-0.551
723	-0.569
723	-0.58
723	-0.587
724	-0.588
724	-0.595
725	-0.591
725	-0.595
726	-0.599
726	-0.59
727	-0.591
727	-0.597
727	-0.587
728	-0.576
728	-0.575
729	-0.577
729	-0.58
730	-0.586
730	-0.577
730	-0.581
731	-0.584
731	-0.584
732	-0.588
732	-0.586
733	-0.599
733	-0.603
734	-0.614
734	-0.607
734	-0.59
735	-0.582
735	-0.576
736	-0.576
736	-0.57
737	-0.568
737	-0.557
737	-0.549
738	-0.537
738	-0.526
739	-0.527
739	-0.527
740	-0.539
740	-0.541
741	-0.552
741	-0.563
741	-0.573
742	-0.578
742	-0.596
743	-0.601
743	-0.603
744	-0.605
744	-0.614
744	-0.608
745	-0.614
745	-0.604
746	-0.598
746	-0.589
747	-0.593
747	-0.585
748	-0.586
748	-0.592
748	-0.596
749	-0.589
749	-0.595
750	-0.586
750	-0.587
751	-0.59
751	-0.588
751	-0.598
752	-0.598
752	-0.601
753	-0.602
753	-0.593
754	-0.609
754	-0.611
754	-0.618
755	-0.617
755	-0.608
756	-0.608
756	-0.596
757	-0.59
757	-0.581
758	-0.583
758	-0.581
758	-0.576
759	-0.583
759	-0.585
760	-0.584
760	-0.585
761	-0.58
761	-0.583
761	-0.583
762	-0.586
762	-0.589
763	-0.589
763	-0.595
764	-0.591
764	-0.586
764	-0.591
765	-0.592
765	-0.596
766	-0.6
766	-0.603
767	-0.616
767	-0.609
768	-0.607
768	-0.597
768	-0.591
769	-0.593
769	-0.601
770	-0.61
770	-0.615
771	-0.61
771	-0.609
771	-0.614
772	-0.618
772	-0.639
773	-0.643
773	-0.646
774	-0.645
774	-0.626
775	-0.613
775	-0.613
775	-0.617
776	-0.628
776	-0.627
777	-0.623
777	-0.609
778	-0.616
778	-0.624
778	-0.626
779	-0.638
779	-0.653
780	-0.65
780	-0.659
781	-0.647
781	-0.636
781	-0.652
782	-0.669
782	-0.667
783	-0.666
783	-0.67
784	-0.67
784	-0.665
784	-0.681
785	-0.676
785	-0.687
786	-0.691
786	-0.684
787	-0.675
787	-0.687
788	-0.68
788	-0.678
788	-0.678
789	-0.678
789	-0.672
790	-0.668
790	-0.654
791	-0.663
791	-0.66
791	-0.654
792	-0.648
792	-0.653
793	-0.657
793	-0.645
794	-0.637
794	-0.632
794	-0.64
795	-0.662
795	-0.648
796	-0.651
796	-0.648
797	-0.643
797	-0.633
797	-0.627
798	-0.649
798	-0.655
799	-0.655
799	-0.64
800	-0.634
800	-0.641
801	-0.641
801	-0.645
801	-0.64
802	-0.641
802	-0.637
803	-0.631
803	-0.623
804	-0.627
804	-0.639
804	-0.623
805	-0.606
805	-0.599
806	-0.601
806	-0.598
807	-0.599
807	-0.601
807	-0.586
808	-0.581
808	-0.575
809	-0.569
809	-0.572
810	-0.577
810	-0.575
810	-0.569
811	-0.572
811	-0.562
812	-0.557
812	-0.557
813	-0.562
813	-0.561
813	-0.558
814	-0.555
814	-0.557
815	-0.547
815	-0.543
816	-0.542
816	-0.56
817	-0.569
817	-0.573
817	-0.586
818	-0.583
818	-0.581
819	-0.592
819	-0.591
820	-0.601
820	-0.602
820	-0.6
821	-0.594
821	-0.59
822	-0.59
822	-0.573
823	-0.58
823	-0.58
823	-0.576
824	-0.574
824	-0.584
825	-0.58
825	-0.58
826	-0.579
826	-0.575
826	-0.575
827	-0.575
827	-0.567
828	-0.565
828	-0.559
829	-0.556
829	-0.544
829	-0.541
830	-0.539
830	-0.525
831	-0.521
831	-0.512
832	-0.506
832	-0.501
832	-0.496
833	-0.494
833	-0.498
834	-0.494
834	-0.493
835	-0.485
835	-0.484
835	-0.48
836	-0.476
836	-0.475
837	-0.464
837	-0.456
838	-0.446
838	-0.431
839	-0.429
839	-0.415
839	-0.407
840	-0.405
840	-0.398
841	-0.385
841	-0.379
842	-0.372
842	-0.362
842	-0.361
843	-0.359
843	-0.355
844	-0.355
844	-0.346
845	-0.336
845	-0.328
845	-0.322
846	-0.315
846	-0.308
847	-0.302
847	-0.292
848	-0.281
848	-0.268
848	-0.258
849	-0.251
849	-0.243
850	-0.238
850	-0.23
851	-0.221
851	-0.208
851	-0.201
852	-0.192
852	-0.182
853	-0.177
853	-0.17
854	-0.163
854	-0.154
854	-0.145
855	-0.138
855	-0.133
856	-0.129
856	-0.125
857	-0.119
857	-0.115
857	-0.107
858	-0.1
858	-0.095
859	-0.09
859	-0.083
860	-0.077
860	-0.068
860	-0.062
861	-0.056
861	-0.05
862	-0.046
862	-0.042
863	-0.038
863	-0.033
863	-0.029
864	-0.025
864	-0.022
865	-0.018
865	-0.015
866	-0.012
866	-0.009
866	-0.006
867	-0.003
867	0
868	0.003
868	0.005
869	0.009
869	0.011
869	0.013
870	0.015
870	0.017
871	0.018
871	0.019
872	0.019
872	0.019
872	0.019
873	0.019
873	0.018
874	0.018
874	0.017
875	0.016
875	0.016
875	0.015
876	0.015
876	0.014
877	0.013
877	0.012
878	0.012
878	0.011
878	0.01
879	0.009
879	0.009
880	0.008
880	0.008
881	0.007
881	0.007
881	0.007
882	0.007
882	0.007
883	0.007
883	0.006
884	0.007
884	0.007
884	0.006
885	0.006
885	0.005
886	0.004
886	0.003
887	0.002
887	0.001
887	-0
888	-0.001
888	-0.001
889	-0.002
889	-0.002
890	-0.003
890	-0.003
890	-0.003
891	-0.003
891	-0.003
892	-0.002
892	-0.001
893	-0
893	-0
893	-0
894	0.001
894	0.001
895	0.001
895	0.001
895	0.002
896	0.002
896	0.002
897	0.003
897	0.003
898	0.003
898	0.003
898	0.003
899	0.004
899	0.004
900	0.004
900	0.004
901	0.004
901	0.004
901	0.003
902	0.003
902	0.003
903	0.003
903	0.002
904	0.001
904	0.001
904	0
905	-0
905	-0
906	-0
906	0
907	0.001
907	0.001
907	0.001
908	0.002
908	0.003
909	0.004
909	0.004
910	0.004
910	0.005
910	0.005
911	0.006
911	0.007
912	0.008
912	0.009
913	0.011
913	0.012
913	0.013
914	0.013
914	0.014
915	0.014
915	0.014
916	0.014
916	0.013
916	0.012
917	0.011
917	0.01
918	0.01
918	0.009
918	0.009
919	0.008
919	0.008
920	0.008
920	0.008
921	0.008
921	0.009
921	0.009
922	0.009
922	0.009
923	0.009
923	0.009
924	0.009
924	0.008
924	0.008
925	0.008
925	0.007
926	0.007
926	0.006
927	0.006
927	0.006
927	0.006
928	0.006
928	0.007
929	0.007
929	0.008
930	0.009
930	0.01
930	0.011
931	0.012
931	0.014
932	0.015
932	0.016
933	0.017
933	0.018
933	0.019
934	0.019
934	0.019
935	0.019
935	0.018
935	0.018
936	0.016
936	0.015
937	0.014
937	0.013
938	0.012
938	0.01
938	0.009
939	0.008
939	0.007
940	0.007
940	0.006
941	0.006
941	0.005
941	0.005
942	0.005
942	0.006
943	0.006
943	0.006
944	0.007
944	0.006
944	0.006
945	0.007
945	0.007
946	0.006
946	0.005
946	0.005
947	0.004
947	0.003
948	0.003
948	0.002
949	0.001
949	0.001
949	0.001
950	0.001
950	0.002
951	0.002
951	0.003
952	0.003
952	0.004
952	0.004
953	0.005
953	0.006
954	0.006
954	0.006
955	0.006
955	0.006
955	0.006
956	0.006
956	0.006
957	0.005
957	0.004
957	0.003
958	0.003
958	0.003
959	0.002
959	0.002
960	0.002
960	0.001
960	0.002
961	0.002
961	0.002
962	0.002
962	0.002
963	0.003
963	0.003
963	0.003
964	0.003
964	0.004
965	0.004
965	0.005
966	0.005
966	0.006
966	0.007
967	0.007
967	0.007
968	0.008
968	0.008
968	0.008
969	0.008
969	0.007
970	0.006
970	0.005
971	0.004
971	0.004
971	0.003
972	0.003
972	0.002
973	0.002
973	0.002
974	0.003
974	0.003
974	0.004
975	0.005
975	0.006
976	0.007
976	0.007
976	0.008
977	0.008
977	0.008
978	0.008
978	0.007
979	0.007
979	0.006
979	0.006
980	0.005
980	0.004
981	0.003
981	0.003
982	0.003
982	0.003
982	0.003
983	0.003
983	0.002
984	0.002
984	0.002
984	0.003
985	0.003
985	0.003
986	0.004
986	0.004
987	0.004
987	0.004
987	0.004
988	0.003
988	0.003
989	0.003
989	0.002
990	0.002
990	0.001
990	0.001
991	0
991	-0
992	-0
992	-0
992	-0.001
993	-0.001
993	-0.001
994	-0.001
994	-0.002
995	-0.002
995	-0.002
995	-0.002
996	-0.002
996	-0.003
997	-0.003
997	-0.003
997	-0.003
998	-0.002
998	-0.002
999	-0.002
999	-0.001
1000	-0.001
1000	-0.001
1000	-0.001
1001	-0.001
1001	-0
1002	-0
1002	-0
1003	-0
1003	-0.001
1003	-0.001
1004	-0.002
1004	-0.002
1005	-0.003
1005	-0.004
1005	-0.005
1006	-0.005
1006	-0.006
1007	-0.007
1007	-0.008
1008	-0.009
1008	-0.01
1008	-0.01
1009	-0.01
1009	-0.01
1010	-0.009
1010	-0.009
1010	-0.008
1011	-0.008
1011	-0.008
1012	-0.007
1012	-0.006
1013	-0.005
1013	-0.004
1013	-0.004
1014	-0.003
1014	-0.002
1015	-0.002
1015	-0.002
1016	-0.001
1016	-0.001
1016	-0.001
1017	-0.001
1017	-0
1018	-0
1018	0
1018	0
1019	-0
1019	0
1020	-0
1020	-0.001
1021	-0.001
1021	-0.002
1021	-0.002
1022	-0.003
1022	-0.004
1023	-0.005
1023	-0.006
1023	-0.007
1024	-0.008
1024	-0.009
1025	-0.01
1025	-0.01
1026	-0.011
1026	-0.012
1026	-0.012
1027	-0.013
1027	-0.013
1028	-0.013
1028	-0.013
1028	-0.013
1029	-0.013
1029	-0.013
1030	-0.014
1030	-0.014
1031	-0.014
1031	-0.014
1031	-0.014
1032	-0.014
1032	-0.014
1033	-0.015
1033	-0.015
1033	-0.015
1034	-0.015
1034	-0.015
1035	-0.015
1035	-0.015
1036	-0.015
1036	-0.015
1036	-0.014
1037	-0.014
1037	-0.013
1038	-0.012
1038	-0.011
1039	-0.01
1039	-0.009
1039	-0.009
1040	-0.008
1040	-0.008
1041	-0.007
1041	-0.008
1041	-0.008
1042	-0.009
1042	-0.01
1043	-0.011
1043	-0.011
1044	-0.012
1044	-0.014
1044	-0.014
1045	-0.015
1045	-0.016
1046	-0.017
1046	-0.017
1046	-0.017
1047	-0.017
1047	-0.017
1048	-0.017
1048	-0.017
1049	-0.017
1049	-0.017
1049	-0.018
1050	-0.019
1050	-0.02
1051	-0.021
1051	-0.021
1051	-0.022
1052	-0.022
1052	-0.023
1053	-0.023
1053	-0.023
1053	-0.023
1054	-0.023
1054	-0.023
1055	-0.022
1055	-0.021
1056	-0.022
1056	-0.022
1056	-0.022
1057	-0.023
1057	-0.023
1058	-0.023
1058	-0.023
1058	-0.024
1059	-0.024
1059	-0.024
1060	-0.024
1060	-0.024
1061	-0.024
1061	-0.023
1061	-0.023
1062	-0.023
1062	-0.023
1063	-0.023
1063	-0.023
1063	-0.023
1064	-0.023
1064	-0.022
1065	-0.023
1065	-0.023
1066	-0.023
1066	-0.023
1066	-0.023
1067	-0.023
1067	-0.024
1068	-0.024
1068	-0.025
1068	-0.026
1069	-0.027
1069	-0.027
1070	-0.028
1070	-0.028
1071	-0.029
1071	-0.029
1071	-0.029
1072	-0.029
1072	-0.029
1073	-0.028
1073	-0.027
1073	-0.027
1074	-0.026
1074	-0.026
1075	-0.026
1075	-0.026
1076	-0.026
1076	-0.026
1076	-0.027
1077	-0.028
1077	-0.029
1078	-0.03
1078	-0.03
1078	-0.031
1079	-0.031
1079	-0.031
1080	-0.032
1080	-0.032
1080	-0.033
1081	-0.034
1081	-0.033
1082	-0.033
1082	-0.034
1083	-0.035
1083	-0.035
1083	-0.036
1084	-0.036
1084	-0.036
1085	-0.037
1085	-0.037
1085	-0.037
1086	-0.038
1086	-0.039
1087	-0.039
1087	-0.039
1088	-0.04
1088	-0.041
1088	-0.042
1089	-0.043
1089	-0.043
1090	-0.043
1090	-0.044
1090	-0.045
1091	-0.046
1091	-0.046
1092	-0.046
1092	-0.047
1092	-0.048
1093	-0.047
1093	-0.047
1094	-0.047
1094	-0.048
1095	-0.049
1095	-0.049
1095	-0.049
1096	-0.05
1096	-0.051
1097	-0.052
1097	-0.052
1097	-0.054
1098	-0.055
1098	-0.056
1099	-0.057
1099	-0.058
1100	-0.059
1100	-0.06
1100	-0.063
1101	-0.064
1101	-0.066
1102	-0.067
1102	-0.068
1102	-0.07
1103	-0.072
1103	-0.074
1104	-0.075
1104	-0.077
1104	-0.079
1105	-0.08
1105	-0.082
1106	-0.085
1106	-0.086
1107	-0.09
1107	-0.093
1107	-0.095
1108	-0.097
1108	-0.098
1109	-0.1
1109	-0.103
1109	-0.105
1110	-0.107
1110	-0.11
1111	-0.117
1111	-0.11
