Data from 3.5A_17C_Absorbance__689__00691.txt Node

Date: Tue Jun 20 15:21:25 CEST 2023
User: Marek
Spectrometer: MAYP115816
Trigger mode: 0
Integration Time (sec): 2.200000E-1
Scans to average: 10
Electric dark correction enabled: true
Nonlinearity correction enabled: true
Boxcar width: 5
XAxis mode: Wavelengths
Number of Pixels in Spectrum: 2068
>>>>>Begin Spectral Data<<<<<
199	-0.699
199	-0.689
200	-0.648
200	-0.595
201	-0.568
201	-0.558
202	-0.538
202	-0.533
203	-0.531
203	-0.525
204	-0.504
204	-0.489
205	-0.465
205	-0.458
205	-0.465
206	-0.468
206	-0.465
207	-0.459
207	-0.464
208	-0.467
208	-0.471
209	-0.475
209	-0.48
210	-0.492
210	-0.498
211	-0.493
211	-0.493
212	-0.5
212	-0.507
213	-0.504
213	-0.497
213	-0.493
214	-0.5
214	-0.502
215	-0.5
215	-0.505
216	-0.514
216	-0.523
217	-0.522
217	-0.523
218	-0.53
218	-0.534
219	-0.542
219	-0.544
220	-0.546
220	-0.552
221	-0.552
221	-0.553
221	-0.543
222	-0.542
222	-0.541
223	-0.537
223	-0.54
224	-0.54
224	-0.537
225	-0.536
225	-0.536
226	-0.539
226	-0.538
227	-0.546
227	-0.554
228	-0.557
228	-0.566
229	-0.57
229	-0.567
229	-0.567
230	-0.561
230	-0.56
231	-0.555
231	-0.548
232	-0.549
232	-0.546
233	-0.548
233	-0.536
234	-0.535
234	-0.532
235	-0.537
235	-0.549
236	-0.559
236	-0.562
236	-0.563
237	-0.561
237	-0.561
238	-0.561
238	-0.564
239	-0.565
239	-0.575
240	-0.569
240	-0.567
241	-0.56
241	-0.56
242	-0.563
242	-0.572
243	-0.573
243	-0.575
243	-0.58
244	-0.576
244	-0.576
245	-0.578
245	-0.58
246	-0.59
246	-0.594
247	-0.601
247	-0.587
248	-0.585
248	-0.587
249	-0.592
249	-0.595
250	-0.596
250	-0.603
250	-0.601
251	-0.602
251	-0.599
252	-0.601
252	-0.612
253	-0.606
253	-0.617
254	-0.62
254	-0.62
255	-0.629
255	-0.626
256	-0.627
256	-0.64
257	-0.649
257	-0.645
258	-0.645
258	-0.654
258	-0.652
259	-0.644
259	-0.663
260	-0.66
260	-0.65
261	-0.662
261	-0.648
262	-0.653
262	-0.652
263	-0.645
263	-0.651
264	-0.66
264	-0.661
265	-0.651
265	-0.653
265	-0.663
266	-0.653
266	-0.651
267	-0.652
267	-0.666
268	-0.673
268	-0.666
269	-0.659
269	-0.674
270	-0.678
270	-0.679
271	-0.693
271	-0.705
272	-0.706
272	-0.706
272	-0.701
273	-0.71
273	-0.724
274	-0.715
274	-0.709
275	-0.706
275	-0.693
276	-0.697
276	-0.7
277	-0.702
277	-0.7
278	-0.704
278	-0.704
278	-0.694
279	-0.703
279	-0.713
280	-0.716
280	-0.728
281	-0.721
281	-0.714
282	-0.72
282	-0.713
283	-0.706
283	-0.722
284	-0.733
284	-0.744
285	-0.726
285	-0.73
285	-0.722
286	-0.729
286	-0.745
287	-0.741
287	-0.742
288	-0.74
288	-0.721
289	-0.72
289	-0.73
290	-0.739
290	-0.729
291	-0.731
291	-0.728
292	-0.71
292	-0.709
292	-0.712
293	-0.701
293	-0.698
294	-0.699
294	-0.683
295	-0.666
295	-0.678
296	-0.692
296	-0.686
297	-0.674
297	-0.677
298	-0.674
298	-0.69
298	-0.693
299	-0.673
299	-0.664
300	-0.663
300	-0.645
301	-0.626
301	-0.63
302	-0.638
302	-0.624
303	-0.617
303	-0.606
304	-0.591
304	-0.594
305	-0.588
305	-0.596
305	-0.611
306	-0.595
306	-0.591
307	-0.585
307	-0.596
308	-0.596
308	-0.592
309	-0.592
309	-0.587
310	-0.587
310	-0.579
311	-0.564
311	-0.58
311	-0.569
312	-0.565
312	-0.552
313	-0.546
313	-0.547
314	-0.552
314	-0.552
315	-0.547
315	-0.541
316	-0.537
316	-0.527
317	-0.519
317	-0.518
318	-0.511
318	-0.509
318	-0.498
319	-0.487
319	-0.478
320	-0.477
320	-0.476
321	-0.471
321	-0.472
322	-0.47
322	-0.462
323	-0.465
323	-0.456
324	-0.455
324	-0.444
324	-0.433
325	-0.417
325	-0.4
326	-0.392
326	-0.366
327	-0.35
327	-0.327
328	-0.297
328	-0.275
329	-0.248
329	-0.22
330	-0.195
330	-0.161
330	-0.126
331	-0.091
331	-0.06
332	-0.028
332	0.002
333	0.032
333	0.064
334	0.093
334	0.117
335	0.142
335	0.163
336	0.182
336	0.202
336	0.218
337	0.233
337	0.249
338	0.262
338	0.271
339	0.283
339	0.293
340	0.3
340	0.307
341	0.313
341	0.319
342	0.324
342	0.329
342	0.334
343	0.337
343	0.341
344	0.343
344	0.346
345	0.348
345	0.35
346	0.352
346	0.354
347	0.355
347	0.356
348	0.357
348	0.358
348	0.359
349	0.36
349	0.361
350	0.361
350	0.362
351	0.362
351	0.363
352	0.363
352	0.363
353	0.363
353	0.363
354	0.363
354	0.363
354	0.363
355	0.363
355	0.363
356	0.363
356	0.363
357	0.364
357	0.364
358	0.364
358	0.364
359	0.364
359	0.363
360	0.363
360	0.363
360	0.363
361	0.363
361	0.363
362	0.362
362	0.362
363	0.362
363	0.362
364	0.362
364	0.361
365	0.361
365	0.361
366	0.361
366	0.36
366	0.36
367	0.36
367	0.36
368	0.359
368	0.359
369	0.359
369	0.359
370	0.359
370	0.359
371	0.358
371	0.358
372	0.358
372	0.357
372	0.357
373	0.357
373	0.357
374	0.357
374	0.356
375	0.356
375	0.355
376	0.355
376	0.355
377	0.354
377	0.354
378	0.354
378	0.353
378	0.353
379	0.352
379	0.352
380	0.352
380	0.352
381	0.351
381	0.351
382	0.351
382	0.35
383	0.35
383	0.35
383	0.349
384	0.349
384	0.348
385	0.348
385	0.347
386	0.347
386	0.347
387	0.347
387	0.346
388	0.346
388	0.345
389	0.345
389	0.345
389	0.345
390	0.345
390	0.344
391	0.344
391	0.344
392	0.343
392	0.343
393	0.343
393	0.343
394	0.342
394	0.342
394	0.341
395	0.341
395	0.34
396	0.34
396	0.34
397	0.339
397	0.338
398	0.338
398	0.338
399	0.337
399	0.337
400	0.337
400	0.336
400	0.336
401	0.336
401	0.335
402	0.335
402	0.335
403	0.335
403	0.334
404	0.334
404	0.333
405	0.333
405	0.332
405	0.332
406	0.332
406	0.332
407	0.331
407	0.331
408	0.331
408	0.33
409	0.33
409	0.33
410	0.33
410	0.33
411	0.33
411	0.329
411	0.329
412	0.329
412	0.328
413	0.328
413	0.328
414	0.327
414	0.327
415	0.327
415	0.326
416	0.326
416	0.326
416	0.326
417	0.325
417	0.325
418	0.325
418	0.325
419	0.325
419	0.325
420	0.325
420	0.325
421	0.325
421	0.324
421	0.324
422	0.324
422	0.324
423	0.324
423	0.324
424	0.323
424	0.323
425	0.323
425	0.323
426	0.323
426	0.323
427	0.323
427	0.322
427	0.322
428	0.322
428	0.322
429	0.322
429	0.322
430	0.321
430	0.321
431	0.321
431	0.32
432	0.32
432	0.32
432	0.32
433	0.32
433	0.32
434	0.32
434	0.321
435	0.321
435	0.321
436	0.321
436	0.321
437	0.321
437	0.32
437	0.32
438	0.32
438	0.32
439	0.32
439	0.32
440	0.319
440	0.319
441	0.319
441	0.319
442	0.319
442	0.319
442	0.319
443	0.319
443	0.319
444	0.319
444	0.319
445	0.319
445	0.32
446	0.319
446	0.319
447	0.319
447	0.32
447	0.32
448	0.32
448	0.32
449	0.32
449	0.32
450	0.32
450	0.32
451	0.32
451	0.32
452	0.32
452	0.32
452	0.32
453	0.32
453	0.32
454	0.32
454	0.32
455	0.321
455	0.321
456	0.321
456	0.321
457	0.322
457	0.322
458	0.322
458	0.322
458	0.322
459	0.322
459	0.322
460	0.322
460	0.322
461	0.322
461	0.323
462	0.323
462	0.323
463	0.324
463	0.325
463	0.325
464	0.325
464	0.326
465	0.326
465	0.327
466	0.327
466	0.328
467	0.328
467	0.329
467	0.329
468	0.329
468	0.329
469	0.33
469	0.331
470	0.332
470	0.332
471	0.333
471	0.333
472	0.334
472	0.335
472	0.335
473	0.337
473	0.337
474	0.338
474	0.339
475	0.34
475	0.34
476	0.341
476	0.342
477	0.343
477	0.344
477	0.345
478	0.345
478	0.346
479	0.347
479	0.348
480	0.349
480	0.351
481	0.352
481	0.353
482	0.354
482	0.356
482	0.357
483	0.359
483	0.361
484	0.363
484	0.364
485	0.365
485	0.367
486	0.368
486	0.369
487	0.371
487	0.372
487	0.374
488	0.375
488	0.377
489	0.379
489	0.381
490	0.383
490	0.385
491	0.387
491	0.389
492	0.392
492	0.394
492	0.396
493	0.398
493	0.4
494	0.403
494	0.405
495	0.407
495	0.409
496	0.412
496	0.414
496	0.417
497	0.42
497	0.422
498	0.425
498	0.428
499	0.43
499	0.433
500	0.437
500	0.44
501	0.443
501	0.446
501	0.448
502	0.451
502	0.454
503	0.457
503	0.459
504	0.462
504	0.465
505	0.468
505	0.471
506	0.474
506	0.478
506	0.481
507	0.484
507	0.487
508	0.491
508	0.494
509	0.498
509	0.501
510	0.504
510	0.507
511	0.509
511	0.512
511	0.515
512	0.518
512	0.521
513	0.523
513	0.526
514	0.529
514	0.532
515	0.535
515	0.537
515	0.54
516	0.542
516	0.545
517	0.547
517	0.55
518	0.552
518	0.553
519	0.555
519	0.557
520	0.558
520	0.56
520	0.562
521	0.564
521	0.565
522	0.567
522	0.568
523	0.569
523	0.571
524	0.571
524	0.572
524	0.573
525	0.574
525	0.574
526	0.575
526	0.576
527	0.576
527	0.577
528	0.577
528	0.576
529	0.576
529	0.576
529	0.576
530	0.575
530	0.575
531	0.574
531	0.573
532	0.572
532	0.571
533	0.57
533	0.569
533	0.568
534	0.566
534	0.564
535	0.563
535	0.561
536	0.559
536	0.557
537	0.555
537	0.553
538	0.551
538	0.548
538	0.546
539	0.544
539	0.541
540	0.539
540	0.536
541	0.533
541	0.53
542	0.527
542	0.524
542	0.521
543	0.518
543	0.515
544	0.511
544	0.508
545	0.505
545	0.502
546	0.499
546	0.495
547	0.491
547	0.487
547	0.484
548	0.48
548	0.477
549	0.473
549	0.47
550	0.466
550	0.462
551	0.458
551	0.454
551	0.45
552	0.446
552	0.442
553	0.439
553	0.435
554	0.431
554	0.427
555	0.423
555	0.419
556	0.415
556	0.411
556	0.407
557	0.404
557	0.4
558	0.396
558	0.393
559	0.389
559	0.385
560	0.382
560	0.378
560	0.375
561	0.372
561	0.369
562	0.366
562	0.363
563	0.36
563	0.356
564	0.353
564	0.351
564	0.348
565	0.345
565	0.342
566	0.339
566	0.336
567	0.333
567	0.33
568	0.327
568	0.323
568	0.32
569	0.316
569	0.313
570	0.309
570	0.306
571	0.303
571	0.3
572	0.297
572	0.294
573	0.291
573	0.288
573	0.285
574	0.283
574	0.281
575	0.279
575	0.278
576	0.275
576	0.272
577	0.27
577	0.268
577	0.266
578	0.265
578	0.263
579	0.262
579	0.261
580	0.258
580	0.255
581	0.252
581	0.25
581	0.249
582	0.248
582	0.246
583	0.244
583	0.242
584	0.238
584	0.234
585	0.232
585	0.231
585	0.229
586	0.227
586	0.225
587	0.222
587	0.22
588	0.217
588	0.215
589	0.214
589	0.213
590	0.211
590	0.21
590	0.209
591	0.208
591	0.207
592	0.205
592	0.203
593	0.202
593	0.201
594	0.2
594	0.198
594	0.197
595	0.196
595	0.195
596	0.193
596	0.193
597	0.193
597	0.192
598	0.191
598	0.19
598	0.189
599	0.188
599	0.186
600	0.185
600	0.184
601	0.183
601	0.182
602	0.18
602	0.179
602	0.177
603	0.176
603	0.176
604	0.175
604	0.174
605	0.173
605	0.173
606	0.171
606	0.169
606	0.168
607	0.167
607	0.167
608	0.166
608	0.164
609	0.163
609	0.162
610	0.161
610	0.16
610	0.159
611	0.159
611	0.158
612	0.158
612	0.157
613	0.157
613	0.156
614	0.155
614	0.154
614	0.153
615	0.152
615	0.151
616	0.15
616	0.149
617	0.148
617	0.147
618	0.146
618	0.145
618	0.144
619	0.144
619	0.143
620	0.143
620	0.142
621	0.141
621	0.14
622	0.139
622	0.138
622	0.137
623	0.136
623	0.136
624	0.135
624	0.134
625	0.133
625	0.133
626	0.132
626	0.13
626	0.13
627	0.129
627	0.128
628	0.127
628	0.125
629	0.124
629	0.122
630	0.12
630	0.119
630	0.117
631	0.116
631	0.114
632	0.112
632	0.111
633	0.109
633	0.108
634	0.107
634	0.105
634	0.104
635	0.103
635	0.101
636	0.1
636	0.098
637	0.097
637	0.095
638	0.093
638	0.091
638	0.089
639	0.087
639	0.084
640	0.082
640	0.08
641	0.077
641	0.075
642	0.072
642	0.07
642	0.067
643	0.065
643	0.061
644	0.058
644	0.055
645	0.051
645	0.048
646	0.044
646	0.039
646	0.034
647	0.029
647	0.024
648	0.02
648	0.015
649	0.009
649	0.005
650	0.001
650	-0.005
650	-0.01
651	-0.016
651	-0.024
652	-0.033
652	-0.043
653	-0.051
653	-0.058
653	-0.054
654	-0.04
654	-0.038
655	-0.042
655	-0.046
656	-0.05
656	-0.056
657	-0.06
657	-0.063
657	-0.069
658	-0.074
658	-0.099
659	-0.165
659	-0.233
660	-0.265
660	-0.286
661	-0.308
661	-0.332
661	-0.358
662	-0.382
662	-0.405
663	-0.433
663	-0.465
664	-0.496
664	-0.532
665	-0.571
665	-0.611
665	-0.648
666	-0.693
666	-0.741
667	-0.789
667	-0.846
668	-0.901
668	-0.965
669	-1.03
669	-1.098
669	-1.173
670	-1.253
670	-1.364
671	-1.549
671	-1.893
672	-2.219
672	-2.411
672	-2.548
673	-2.654
673	-2.741
674	-2.78
674	-2.792
675	-2.807
675	-2.812
676	-2.81
676	-2.775
676	-2.696
677	-2.598
677	-2.474
678	-2.275
678	-1.874
679	-1.535
679	-1.392
680	-1.299
680	-1.228
680	-1.166
681	-1.125
681	-1.076
682	-1.038
682	-1
683	-0.961
683	-0.941
684	-0.916
684	-0.899
684	-0.879
685	-0.862
685	-0.854
686	-0.834
686	-0.822
687	-0.817
687	-0.808
687	-0.809
688	-0.794
688	-0.789
689	-0.794
689	-0.792
690	-0.778
690	-0.767
691	-0.766
691	-0.77
691	-0.769
692	-0.771
692	-0.768
693	-0.775
693	-0.786
694	-0.765
694	-0.766
695	-0.769
695	-0.764
695	-0.772
696	-0.78
696	-0.773
697	-0.766
697	-0.764
698	-0.759
698	-0.752
698	-0.766
699	-0.765
699	-0.767
700	-0.787
700	-0.78
701	-0.764
701	-0.76
702	-0.76
702	-0.759
702	-0.76
703	-0.751
703	-0.741
704	-0.747
704	-0.752
705	-0.742
705	-0.743
705	-0.738
706	-0.729
706	-0.725
707	-0.736
707	-0.738
708	-0.737
708	-0.733
709	-0.736
709	-0.73
709	-0.726
710	-0.734
710	-0.738
711	-0.738
711	-0.739
712	-0.73
712	-0.729
713	-0.732
713	-0.734
713	-0.714
714	-0.718
714	-0.72
715	-0.712
715	-0.721
716	-0.737
716	-0.747
716	-0.745
717	-0.75
717	-0.745
718	-0.741
718	-0.742
719	-0.738
719	-0.732
720	-0.727
720	-0.721
720	-0.718
721	-0.709
721	-0.718
722	-0.716
722	-0.711
723	-0.724
723	-0.736
723	-0.744
724	-0.741
724	-0.746
725	-0.74
725	-0.741
726	-0.742
726	-0.731
727	-0.734
727	-0.742
727	-0.735
728	-0.723
728	-0.719
729	-0.721
729	-0.725
730	-0.73
730	-0.722
730	-0.73
731	-0.733
731	-0.731
732	-0.732
732	-0.728
733	-0.744
733	-0.751
734	-0.761
734	-0.753
734	-0.736
735	-0.726
735	-0.719
736	-0.719
736	-0.716
737	-0.716
737	-0.705
737	-0.695
738	-0.68
738	-0.668
739	-0.669
739	-0.671
740	-0.684
740	-0.685
741	-0.694
741	-0.703
741	-0.711
742	-0.718
742	-0.735
743	-0.743
743	-0.745
744	-0.749
744	-0.757
744	-0.752
745	-0.76
745	-0.749
746	-0.745
746	-0.738
747	-0.739
747	-0.73
748	-0.731
748	-0.736
748	-0.736
749	-0.727
749	-0.734
750	-0.724
750	-0.725
751	-0.723
751	-0.72
751	-0.733
752	-0.736
752	-0.739
753	-0.74
753	-0.733
754	-0.755
754	-0.754
754	-0.763
755	-0.761
755	-0.753
756	-0.756
756	-0.741
757	-0.735
757	-0.726
758	-0.727
758	-0.728
758	-0.723
759	-0.729
759	-0.73
760	-0.726
760	-0.729
761	-0.722
761	-0.726
761	-0.725
762	-0.731
762	-0.733
763	-0.733
763	-0.738
764	-0.735
764	-0.731
764	-0.737
765	-0.737
765	-0.746
766	-0.748
766	-0.75
767	-0.764
767	-0.756
768	-0.754
768	-0.745
768	-0.741
769	-0.744
769	-0.753
770	-0.764
770	-0.767
771	-0.764
771	-0.763
771	-0.767
772	-0.771
772	-0.792
773	-0.793
773	-0.791
774	-0.791
774	-0.773
775	-0.759
775	-0.76
775	-0.764
776	-0.773
776	-0.769
777	-0.77
777	-0.752
778	-0.761
778	-0.771
778	-0.77
779	-0.776
779	-0.791
780	-0.785
780	-0.793
781	-0.784
781	-0.774
781	-0.787
782	-0.806
782	-0.808
783	-0.806
783	-0.814
784	-0.818
784	-0.811
784	-0.832
785	-0.826
785	-0.837
786	-0.843
786	-0.836
787	-0.827
787	-0.835
788	-0.828
788	-0.822
788	-0.826
789	-0.826
789	-0.814
790	-0.812
790	-0.798
791	-0.802
791	-0.799
791	-0.794
792	-0.789
792	-0.793
793	-0.797
793	-0.785
794	-0.778
794	-0.772
794	-0.78
795	-0.8
795	-0.786
796	-0.789
796	-0.784
797	-0.776
797	-0.767
797	-0.759
798	-0.779
798	-0.783
799	-0.783
799	-0.767
800	-0.762
800	-0.771
801	-0.768
801	-0.774
801	-0.771
802	-0.771
802	-0.771
803	-0.763
803	-0.755
804	-0.76
804	-0.769
804	-0.753
805	-0.735
805	-0.73
806	-0.728
806	-0.724
807	-0.727
807	-0.727
807	-0.713
808	-0.709
808	-0.703
809	-0.697
809	-0.698
810	-0.7
810	-0.697
810	-0.694
811	-0.698
811	-0.69
812	-0.683
812	-0.684
813	-0.69
813	-0.689
813	-0.684
814	-0.684
814	-0.689
815	-0.679
815	-0.676
816	-0.673
816	-0.688
817	-0.7
817	-0.706
817	-0.715
818	-0.709
818	-0.709
819	-0.719
819	-0.718
820	-0.73
820	-0.729
820	-0.728
821	-0.722
821	-0.716
822	-0.713
822	-0.699
823	-0.712
823	-0.71
823	-0.705
824	-0.704
824	-0.714
825	-0.712
825	-0.709
826	-0.705
826	-0.702
826	-0.701
827	-0.703
827	-0.693
828	-0.692
828	-0.686
829	-0.68
829	-0.665
829	-0.663
830	-0.661
830	-0.649
831	-0.643
831	-0.633
832	-0.624
832	-0.62
832	-0.615
833	-0.613
833	-0.618
834	-0.613
834	-0.609
835	-0.6
835	-0.599
835	-0.594
836	-0.588
836	-0.584
837	-0.574
837	-0.565
838	-0.553
838	-0.538
839	-0.535
839	-0.523
839	-0.516
840	-0.517
840	-0.508
841	-0.499
841	-0.494
842	-0.486
842	-0.476
842	-0.474
843	-0.471
843	-0.466
844	-0.463
844	-0.453
845	-0.439
845	-0.43
845	-0.421
846	-0.409
846	-0.399
847	-0.388
847	-0.377
848	-0.364
848	-0.348
848	-0.337
849	-0.326
849	-0.316
850	-0.307
850	-0.299
851	-0.286
851	-0.272
851	-0.264
852	-0.25
852	-0.238
853	-0.232
853	-0.221
854	-0.211
854	-0.202
854	-0.192
855	-0.18
855	-0.175
856	-0.169
856	-0.161
857	-0.155
857	-0.147
857	-0.136
858	-0.127
858	-0.122
859	-0.113
859	-0.103
860	-0.095
860	-0.084
860	-0.076
861	-0.068
861	-0.061
862	-0.055
862	-0.049
863	-0.042
863	-0.035
863	-0.03
864	-0.026
864	-0.021
865	-0.015
865	-0.011
866	-0.007
866	-0.003
866	0.001
867	0.006
867	0.01
868	0.012
868	0.016
869	0.019
869	0.021
869	0.024
870	0.026
870	0.028
871	0.03
871	0.031
872	0.031
872	0.032
872	0.032
873	0.033
873	0.032
874	0.032
874	0.032
875	0.031
875	0.031
875	0.03
876	0.03
876	0.03
877	0.029
877	0.028
878	0.027
878	0.027
878	0.026
879	0.026
879	0.025
880	0.024
880	0.023
881	0.023
881	0.022
881	0.022
882	0.021
882	0.021
883	0.02
883	0.019
884	0.02
884	0.02
884	0.02
885	0.019
885	0.019
886	0.018
886	0.018
887	0.017
887	0.016
887	0.015
888	0.015
888	0.014
889	0.013
889	0.013
890	0.012
890	0.011
890	0.011
891	0.011
891	0.01
892	0.011
892	0.012
893	0.012
893	0.012
893	0.011
894	0.012
894	0.012
895	0.012
895	0.012
895	0.012
896	0.013
896	0.013
897	0.013
897	0.013
898	0.013
898	0.014
898	0.014
899	0.015
899	0.015
900	0.015
900	0.015
901	0.015
901	0.015
901	0.015
902	0.016
902	0.016
903	0.016
903	0.016
904	0.015
904	0.015
904	0.015
905	0.014
905	0.014
906	0.015
906	0.015
907	0.015
907	0.015
907	0.015
908	0.016
908	0.017
909	0.018
909	0.018
910	0.019
910	0.02
910	0.021
911	0.022
911	0.023
912	0.025
912	0.026
913	0.028
913	0.029
913	0.03
914	0.03
914	0.031
915	0.031
915	0.031
916	0.03
916	0.029
916	0.028
917	0.028
917	0.027
918	0.026
918	0.026
918	0.025
919	0.025
919	0.025
920	0.025
920	0.024
921	0.024
921	0.024
921	0.024
922	0.024
922	0.024
923	0.023
923	0.023
924	0.023
924	0.022
924	0.022
925	0.022
925	0.022
926	0.021
926	0.021
927	0.021
927	0.021
927	0.022
928	0.022
928	0.022
929	0.023
929	0.023
930	0.024
930	0.024
930	0.025
931	0.026
931	0.026
932	0.027
932	0.028
933	0.028
933	0.028
933	0.028
934	0.028
934	0.028
935	0.027
935	0.026
935	0.025
936	0.023
936	0.021
937	0.02
937	0.019
938	0.017
938	0.016
938	0.015
939	0.014
939	0.014
940	0.014
940	0.013
941	0.013
941	0.013
941	0.013
942	0.013
942	0.013
943	0.014
943	0.014
944	0.013
944	0.013
944	0.013
945	0.013
945	0.013
946	0.012
946	0.012
946	0.011
947	0.011
947	0.01
948	0.01
948	0.01
949	0.01
949	0.01
949	0.01
950	0.01
950	0.011
951	0.011
951	0.011
952	0.011
952	0.012
952	0.012
953	0.012
953	0.013
954	0.014
954	0.014
955	0.014
955	0.014
955	0.014
956	0.014
956	0.014
957	0.013
957	0.013
957	0.012
958	0.012
958	0.011
959	0.011
959	0.011
960	0.01
960	0.01
960	0.01
961	0.01
961	0.01
962	0.01
962	0.01
963	0.01
963	0.009
963	0.009
964	0.01
964	0.01
965	0.01
965	0.01
966	0.01
966	0.01
966	0.011
967	0.011
967	0.011
968	0.011
968	0.011
968	0.011
969	0.01
969	0.01
970	0.009
970	0.008
971	0.007
971	0.006
971	0.006
972	0.006
972	0.005
973	0.005
973	0.006
974	0.006
974	0.007
974	0.008
975	0.009
975	0.01
976	0.011
976	0.012
976	0.013
977	0.014
977	0.014
978	0.014
978	0.014
979	0.014
979	0.014
979	0.014
980	0.013
980	0.013
981	0.012
981	0.012
982	0.012
982	0.012
982	0.012
983	0.012
983	0.012
984	0.012
984	0.012
984	0.012
985	0.012
985	0.012
986	0.011
986	0.011
987	0.01
987	0.01
987	0.009
988	0.008
988	0.008
989	0.007
989	0.007
990	0.006
990	0.005
990	0.004
991	0.004
991	0.004
992	0.004
992	0.004
992	0.004
993	0.004
993	0.004
994	0.004
994	0.003
995	0.004
995	0.003
995	0.003
996	0.003
996	0.002
997	0.001
997	0.001
997	0.001
998	0.001
998	0.002
999	0.002
999	0.002
1000	0.002
1000	0.002
1000	0.002
1001	0.003
1001	0.003
1002	0.003
1002	0.004
1003	0.003
1003	0.003
1003	0.003
1004	0.003
1004	0.002
1005	0.002
1005	0.001
1005	0.001
1006	0
1006	-0
1007	-0.001
1007	-0.001
1008	-0.002
1008	-0.002
1008	-0.002
1009	-0.002
1009	-0.002
1010	-0.002
1010	-0.002
1010	-0.001
1011	-0.001
1011	-0.001
1012	-0.001
1012	-0
1013	0.001
1013	0
1013	0.001
1014	0.001
1014	0.001
1015	0.001
1015	0.002
1016	0.002
1016	0.002
1016	0.002
1017	0.002
1017	0.002
1018	0.002
1018	0.002
1018	0.002
1019	0.002
1019	0.002
1020	0.001
1020	0.001
1021	0
1021	-0
1021	-0.001
1022	-0.002
1022	-0.002
1023	-0.003
1023	-0.004
1023	-0.005
1024	-0.005
1024	-0.006
1025	-0.006
1025	-0.007
1026	-0.007
1026	-0.007
1026	-0.008
1027	-0.008
1027	-0.008
1028	-0.007
1028	-0.007
1028	-0.007
1029	-0.007
1029	-0.007
1030	-0.007
1030	-0.007
1031	-0.007
1031	-0.007
1031	-0.007
1032	-0.007
1032	-0.007
1033	-0.008
1033	-0.008
1033	-0.008
1034	-0.008
1034	-0.009
1035	-0.009
1035	-0.009
1036	-0.009
1036	-0.009
1036	-0.009
1037	-0.008
1037	-0.007
1038	-0.007
1038	-0.006
1039	-0.005
1039	-0.004
1039	-0.004
1040	-0.003
1040	-0.003
1041	-0.003
1041	-0.003
1041	-0.004
1042	-0.005
1042	-0.005
1043	-0.006
1043	-0.007
1044	-0.008
1044	-0.009
1044	-0.01
1045	-0.011
1045	-0.011
1046	-0.013
1046	-0.013
1046	-0.013
1047	-0.014
1047	-0.014
1048	-0.014
1048	-0.014
1049	-0.014
1049	-0.015
1049	-0.015
1050	-0.015
1050	-0.016
1051	-0.017
1051	-0.018
1051	-0.018
1052	-0.019
1052	-0.019
1053	-0.019
1053	-0.02
1053	-0.02
1054	-0.02
1054	-0.02
1055	-0.019
1055	-0.019
1056	-0.019
1056	-0.019
1056	-0.02
1057	-0.02
1057	-0.021
1058	-0.021
1058	-0.022
1058	-0.022
1059	-0.022
1059	-0.022
1060	-0.023
1060	-0.022
1061	-0.022
1061	-0.022
1061	-0.021
1062	-0.021
1062	-0.021
1063	-0.02
1063	-0.021
1063	-0.021
1064	-0.021
1064	-0.022
1065	-0.022
1065	-0.022
1066	-0.022
1066	-0.023
1066	-0.023
1067	-0.023
1067	-0.024
1068	-0.024
1068	-0.024
1068	-0.024
1069	-0.025
1069	-0.026
1070	-0.026
1070	-0.027
1071	-0.027
1071	-0.027
1071	-0.027
1072	-0.027
1072	-0.027
1073	-0.027
1073	-0.026
1073	-0.026
1074	-0.025
1074	-0.025
1075	-0.026
1075	-0.026
1076	-0.026
1076	-0.026
1076	-0.027
1077	-0.028
1077	-0.03
1078	-0.031
1078	-0.031
1078	-0.032
1079	-0.033
1079	-0.033
1080	-0.034
1080	-0.035
1080	-0.036
1081	-0.036
1081	-0.036
1082	-0.037
1082	-0.038
1083	-0.038
1083	-0.039
1083	-0.04
1084	-0.041
1084	-0.041
1085	-0.041
1085	-0.042
1085	-0.042
1086	-0.042
1086	-0.043
1087	-0.043
1087	-0.043
1088	-0.044
1088	-0.044
1088	-0.044
1089	-0.045
1089	-0.046
1090	-0.047
1090	-0.047
1090	-0.049
1091	-0.051
1091	-0.051
1092	-0.052
1092	-0.052
1092	-0.054
1093	-0.055
1093	-0.055
1094	-0.056
1094	-0.057
1095	-0.058
1095	-0.058
1095	-0.058
1096	-0.06
1096	-0.061
1097	-0.062
1097	-0.063
1097	-0.065
1098	-0.065
1098	-0.067
1099	-0.068
1099	-0.069
1100	-0.071
1100	-0.072
1100	-0.075
1101	-0.078
1101	-0.08
1102	-0.081
1102	-0.083
1102	-0.085
1103	-0.087
1103	-0.089
1104	-0.092
1104	-0.095
1104	-0.098
1105	-0.099
1105	-0.1
1106	-0.105
1106	-0.107
1107	-0.112
1107	-0.116
1107	-0.12
1108	-0.122
1108	-0.123
1109	-0.126
1109	-0.129
1109	-0.133
1110	-0.135
1110	-0.137
1111	-0.148
1111	-0.142
