Data from 3.5A_17C_Absorbance__401__00403.txt Node

Date: Tue Jun 20 15:10:51 CEST 2023
User: Marek
Spectrometer: MAYP115816
Trigger mode: 0
Integration Time (sec): 2.200000E-1
Scans to average: 10
Electric dark correction enabled: true
Nonlinearity correction enabled: true
Boxcar width: 5
XAxis mode: Wavelengths
Number of Pixels in Spectrum: 2068
>>>>>Begin Spectral Data<<<<<
199	-0.652
199	-0.637
200	-0.605
200	-0.551
201	-0.52
201	-0.511
202	-0.493
202	-0.483
203	-0.483
203	-0.475
204	-0.456
204	-0.438
205	-0.416
205	-0.404
205	-0.411
206	-0.411
206	-0.405
207	-0.396
207	-0.403
208	-0.402
208	-0.407
209	-0.406
209	-0.414
210	-0.427
210	-0.435
211	-0.43
211	-0.435
212	-0.444
212	-0.451
213	-0.447
213	-0.446
213	-0.443
214	-0.451
214	-0.453
215	-0.448
215	-0.454
216	-0.463
216	-0.468
217	-0.466
217	-0.468
218	-0.474
218	-0.474
219	-0.481
219	-0.483
220	-0.486
220	-0.492
221	-0.491
221	-0.488
221	-0.481
222	-0.481
222	-0.478
223	-0.477
223	-0.479
224	-0.478
224	-0.475
225	-0.473
225	-0.476
226	-0.476
226	-0.477
227	-0.484
227	-0.494
228	-0.497
228	-0.505
229	-0.508
229	-0.507
229	-0.507
230	-0.502
230	-0.499
231	-0.496
231	-0.49
232	-0.492
232	-0.488
233	-0.489
233	-0.478
234	-0.477
234	-0.475
235	-0.479
235	-0.491
236	-0.496
236	-0.498
236	-0.499
237	-0.495
237	-0.496
238	-0.495
238	-0.497
239	-0.5
239	-0.507
240	-0.502
240	-0.497
241	-0.494
241	-0.495
242	-0.5
242	-0.51
243	-0.51
243	-0.512
243	-0.516
244	-0.513
244	-0.515
245	-0.516
245	-0.522
246	-0.531
246	-0.533
247	-0.539
247	-0.526
248	-0.523
248	-0.524
249	-0.529
249	-0.531
250	-0.53
250	-0.536
250	-0.534
251	-0.532
251	-0.53
252	-0.532
252	-0.545
253	-0.541
253	-0.552
254	-0.556
254	-0.558
255	-0.568
255	-0.565
256	-0.567
256	-0.578
257	-0.586
257	-0.581
258	-0.58
258	-0.586
258	-0.583
259	-0.576
259	-0.59
260	-0.59
260	-0.579
261	-0.591
261	-0.579
262	-0.585
262	-0.584
263	-0.576
263	-0.582
264	-0.592
264	-0.592
265	-0.586
265	-0.587
265	-0.597
266	-0.586
266	-0.584
267	-0.582
267	-0.595
268	-0.603
268	-0.598
269	-0.59
269	-0.604
270	-0.609
270	-0.608
271	-0.62
271	-0.632
272	-0.635
272	-0.638
272	-0.634
273	-0.642
273	-0.657
274	-0.65
274	-0.644
275	-0.638
275	-0.624
276	-0.629
276	-0.632
277	-0.632
277	-0.627
278	-0.631
278	-0.631
278	-0.621
279	-0.629
279	-0.642
280	-0.646
280	-0.657
281	-0.652
281	-0.646
282	-0.654
282	-0.65
283	-0.643
283	-0.657
284	-0.67
284	-0.68
285	-0.661
285	-0.666
285	-0.658
286	-0.664
286	-0.678
287	-0.674
287	-0.671
288	-0.671
288	-0.652
289	-0.649
289	-0.656
290	-0.664
290	-0.655
291	-0.66
291	-0.655
292	-0.639
292	-0.637
292	-0.641
293	-0.628
293	-0.627
294	-0.627
294	-0.614
295	-0.598
295	-0.609
296	-0.618
296	-0.613
297	-0.599
297	-0.605
298	-0.602
298	-0.621
298	-0.623
299	-0.605
299	-0.598
300	-0.593
300	-0.577
301	-0.56
301	-0.562
302	-0.572
302	-0.555
303	-0.548
303	-0.534
304	-0.52
304	-0.522
305	-0.513
305	-0.522
305	-0.536
306	-0.52
306	-0.519
307	-0.511
307	-0.524
308	-0.527
308	-0.522
309	-0.524
309	-0.52
310	-0.517
310	-0.511
311	-0.499
311	-0.518
311	-0.506
312	-0.506
312	-0.495
313	-0.486
313	-0.491
314	-0.496
314	-0.493
315	-0.492
315	-0.485
316	-0.478
316	-0.469
317	-0.46
317	-0.457
318	-0.449
318	-0.448
318	-0.435
319	-0.423
319	-0.415
320	-0.412
320	-0.413
321	-0.41
321	-0.41
322	-0.405
322	-0.398
323	-0.4
323	-0.391
324	-0.387
324	-0.376
324	-0.367
325	-0.353
325	-0.335
326	-0.325
326	-0.301
327	-0.288
327	-0.264
328	-0.235
328	-0.212
329	-0.186
329	-0.158
330	-0.132
330	-0.097
330	-0.063
331	-0.029
331	0.003
332	0.035
332	0.065
333	0.093
333	0.124
334	0.148
334	0.17
335	0.194
335	0.213
336	0.233
336	0.251
336	0.266
337	0.281
337	0.295
338	0.308
338	0.316
339	0.327
339	0.337
340	0.343
340	0.35
341	0.355
341	0.36
342	0.365
342	0.37
342	0.374
343	0.377
343	0.381
344	0.383
344	0.385
345	0.388
345	0.39
346	0.392
346	0.394
347	0.395
347	0.397
348	0.398
348	0.399
348	0.399
349	0.4
349	0.401
350	0.401
350	0.402
351	0.403
351	0.402
352	0.402
352	0.403
353	0.403
353	0.403
354	0.403
354	0.403
354	0.403
355	0.403
355	0.402
356	0.402
356	0.402
357	0.402
357	0.402
358	0.401
358	0.401
359	0.401
359	0.401
360	0.401
360	0.401
360	0.401
361	0.401
361	0.401
362	0.401
362	0.401
363	0.401
363	0.4
364	0.4
364	0.4
365	0.4
365	0.399
366	0.399
366	0.399
366	0.399
367	0.398
367	0.398
368	0.397
368	0.397
369	0.397
369	0.396
370	0.396
370	0.396
371	0.395
371	0.394
372	0.394
372	0.394
372	0.394
373	0.393
373	0.393
374	0.393
374	0.392
375	0.392
375	0.391
376	0.391
376	0.391
377	0.39
377	0.39
378	0.389
378	0.388
378	0.388
379	0.388
379	0.387
380	0.387
380	0.387
381	0.386
381	0.386
382	0.385
382	0.385
383	0.385
383	0.385
383	0.384
384	0.384
384	0.383
385	0.383
385	0.382
386	0.382
386	0.382
387	0.381
387	0.381
388	0.38
388	0.38
389	0.38
389	0.379
389	0.379
390	0.378
390	0.378
391	0.377
391	0.377
392	0.377
392	0.376
393	0.376
393	0.375
394	0.375
394	0.374
394	0.374
395	0.374
395	0.373
396	0.372
396	0.372
397	0.371
397	0.371
398	0.37
398	0.37
399	0.37
399	0.369
400	0.369
400	0.368
400	0.368
401	0.368
401	0.367
402	0.367
402	0.367
403	0.366
403	0.366
404	0.365
404	0.365
405	0.364
405	0.364
405	0.363
406	0.363
406	0.362
407	0.362
407	0.361
408	0.361
408	0.361
409	0.361
409	0.36
410	0.36
410	0.36
411	0.36
411	0.36
411	0.36
412	0.359
412	0.359
413	0.359
413	0.358
414	0.358
414	0.358
415	0.357
415	0.357
416	0.356
416	0.356
416	0.355
417	0.355
417	0.355
418	0.355
418	0.355
419	0.355
419	0.355
420	0.355
420	0.355
421	0.354
421	0.354
421	0.354
422	0.354
422	0.354
423	0.353
423	0.353
424	0.353
424	0.353
425	0.353
425	0.353
426	0.353
426	0.353
427	0.353
427	0.353
427	0.352
428	0.352
428	0.352
429	0.352
429	0.351
430	0.351
430	0.351
431	0.35
431	0.35
432	0.35
432	0.35
432	0.35
433	0.35
433	0.35
434	0.35
434	0.35
435	0.35
435	0.35
436	0.35
436	0.35
437	0.349
437	0.349
437	0.349
438	0.349
438	0.349
439	0.349
439	0.349
440	0.349
440	0.349
441	0.349
441	0.349
442	0.349
442	0.349
442	0.349
443	0.349
443	0.349
444	0.349
444	0.349
445	0.349
445	0.349
446	0.349
446	0.349
447	0.349
447	0.349
447	0.35
448	0.35
448	0.35
449	0.35
449	0.35
450	0.35
450	0.35
451	0.35
451	0.35
452	0.35
452	0.35
452	0.351
453	0.351
453	0.351
454	0.351
454	0.351
455	0.352
455	0.352
456	0.352
456	0.352
457	0.352
457	0.353
458	0.353
458	0.353
458	0.353
459	0.353
459	0.353
460	0.353
460	0.353
461	0.354
461	0.354
462	0.355
462	0.356
463	0.357
463	0.358
463	0.358
464	0.358
464	0.359
465	0.36
465	0.36
466	0.361
466	0.362
467	0.362
467	0.362
467	0.362
468	0.363
468	0.363
469	0.364
469	0.365
470	0.366
470	0.367
471	0.367
471	0.368
472	0.369
472	0.37
472	0.371
473	0.372
473	0.373
474	0.374
474	0.375
475	0.376
475	0.377
476	0.378
476	0.379
477	0.38
477	0.381
477	0.382
478	0.384
478	0.385
479	0.386
479	0.387
480	0.388
480	0.39
481	0.392
481	0.393
482	0.395
482	0.397
482	0.399
483	0.401
483	0.403
484	0.405
484	0.407
485	0.409
485	0.41
486	0.412
486	0.414
487	0.416
487	0.417
487	0.419
488	0.42
488	0.422
489	0.424
489	0.427
490	0.429
490	0.432
491	0.435
491	0.437
492	0.44
492	0.442
492	0.444
493	0.447
493	0.45
494	0.453
494	0.456
495	0.458
495	0.461
496	0.464
496	0.467
496	0.47
497	0.473
497	0.476
498	0.48
498	0.483
499	0.486
499	0.49
500	0.494
500	0.498
501	0.501
501	0.505
501	0.508
502	0.511
502	0.515
503	0.518
503	0.522
504	0.525
504	0.528
505	0.532
505	0.536
506	0.54
506	0.543
506	0.547
507	0.551
507	0.555
508	0.559
508	0.563
509	0.567
509	0.57
510	0.574
510	0.578
511	0.581
511	0.585
511	0.588
512	0.592
512	0.595
513	0.598
513	0.602
514	0.605
514	0.609
515	0.612
515	0.614
515	0.617
516	0.62
516	0.623
517	0.625
517	0.628
518	0.63
518	0.632
519	0.634
519	0.635
520	0.637
520	0.639
520	0.642
521	0.643
521	0.645
522	0.646
522	0.649
523	0.65
523	0.652
524	0.653
524	0.654
524	0.655
525	0.656
525	0.657
526	0.658
526	0.659
527	0.659
527	0.659
528	0.659
528	0.659
529	0.658
529	0.658
529	0.656
530	0.655
530	0.654
531	0.653
531	0.652
532	0.65
532	0.648
533	0.647
533	0.645
533	0.643
534	0.641
534	0.638
535	0.636
535	0.634
536	0.631
536	0.628
537	0.625
537	0.622
538	0.619
538	0.616
538	0.614
539	0.611
539	0.608
540	0.604
540	0.6
541	0.596
541	0.592
542	0.589
542	0.585
542	0.581
543	0.577
543	0.572
544	0.568
544	0.564
545	0.56
545	0.556
546	0.551
546	0.546
547	0.541
547	0.536
547	0.532
548	0.527
548	0.522
549	0.518
549	0.513
550	0.508
550	0.503
551	0.497
551	0.491
551	0.486
552	0.481
552	0.476
553	0.471
553	0.466
554	0.461
554	0.456
555	0.451
555	0.445
556	0.44
556	0.435
556	0.43
557	0.426
557	0.421
558	0.416
558	0.411
559	0.405
559	0.4
560	0.396
560	0.391
560	0.387
561	0.383
561	0.379
562	0.375
562	0.371
563	0.367
563	0.363
564	0.358
564	0.355
564	0.351
565	0.347
565	0.343
566	0.339
566	0.335
567	0.33
567	0.326
568	0.322
568	0.317
568	0.313
569	0.309
569	0.304
570	0.299
570	0.295
571	0.292
571	0.288
572	0.283
572	0.28
573	0.276
573	0.272
573	0.269
574	0.266
574	0.263
575	0.26
575	0.258
576	0.254
576	0.25
577	0.247
577	0.245
577	0.242
578	0.24
578	0.238
579	0.237
579	0.234
580	0.231
580	0.227
581	0.224
581	0.221
581	0.22
582	0.218
582	0.215
583	0.213
583	0.21
584	0.206
584	0.202
585	0.199
585	0.197
585	0.194
586	0.191
586	0.188
587	0.186
587	0.183
588	0.18
588	0.178
589	0.176
589	0.175
590	0.173
590	0.171
590	0.171
591	0.169
591	0.167
592	0.165
592	0.163
593	0.161
593	0.16
594	0.158
594	0.156
594	0.155
595	0.154
595	0.152
596	0.15
596	0.149
597	0.149
597	0.147
598	0.145
598	0.144
598	0.142
599	0.141
599	0.14
600	0.138
600	0.137
601	0.136
601	0.135
602	0.133
602	0.132
602	0.131
603	0.13
603	0.129
604	0.128
604	0.126
605	0.126
605	0.125
606	0.123
606	0.121
606	0.12
607	0.119
607	0.118
608	0.117
608	0.115
609	0.114
609	0.113
610	0.112
610	0.11
610	0.109
611	0.109
611	0.108
612	0.107
612	0.106
613	0.106
613	0.105
614	0.104
614	0.102
614	0.101
615	0.1
615	0.099
616	0.099
616	0.098
617	0.097
617	0.096
618	0.095
618	0.094
618	0.093
619	0.093
619	0.093
620	0.093
620	0.092
621	0.091
621	0.091
622	0.09
622	0.089
622	0.088
623	0.087
623	0.086
624	0.086
624	0.085
625	0.084
625	0.084
626	0.083
626	0.082
626	0.082
627	0.081
627	0.08
628	0.079
628	0.078
629	0.077
629	0.076
630	0.075
630	0.074
630	0.073
631	0.072
631	0.071
632	0.07
632	0.07
633	0.069
633	0.068
634	0.068
634	0.067
634	0.066
635	0.065
635	0.064
636	0.063
636	0.062
637	0.061
637	0.059
638	0.058
638	0.057
638	0.056
639	0.055
639	0.053
640	0.052
640	0.051
641	0.05
641	0.049
642	0.048
642	0.047
642	0.045
643	0.044
643	0.042
644	0.041
644	0.039
645	0.037
645	0.036
646	0.033
646	0.031
646	0.028
647	0.025
647	0.021
648	0.018
648	0.015
649	0.012
649	0.009
650	0.007
650	0.004
650	0.001
651	-0.004
651	-0.009
652	-0.015
652	-0.021
653	-0.027
653	-0.032
653	-0.028
654	-0.021
654	-0.022
655	-0.026
655	-0.028
656	-0.031
656	-0.035
657	-0.037
657	-0.04
657	-0.044
658	-0.048
658	-0.065
659	-0.111
659	-0.153
660	-0.173
660	-0.188
661	-0.203
661	-0.221
661	-0.24
662	-0.255
662	-0.272
663	-0.29
663	-0.311
664	-0.329
664	-0.351
665	-0.376
665	-0.402
665	-0.425
666	-0.451
666	-0.48
667	-0.511
667	-0.548
668	-0.583
668	-0.63
669	-0.677
669	-0.728
669	-0.787
670	-0.851
670	-0.963
671	-1.188
671	-1.566
672	-1.994
672	-2.278
672	-2.453
673	-2.581
673	-2.619
674	-2.639
674	-2.648
675	-2.663
675	-2.668
676	-2.669
676	-2.645
676	-2.57
677	-2.428
677	-2.214
678	-1.711
678	-1.231
679	-1.029
679	-0.94
680	-0.879
680	-0.836
680	-0.802
681	-0.782
681	-0.753
682	-0.736
682	-0.71
683	-0.685
683	-0.681
684	-0.671
684	-0.667
684	-0.657
685	-0.653
685	-0.655
686	-0.644
686	-0.641
687	-0.64
687	-0.64
687	-0.649
688	-0.641
688	-0.64
689	-0.65
689	-0.651
690	-0.643
690	-0.638
691	-0.64
691	-0.645
691	-0.646
692	-0.649
692	-0.65
693	-0.659
693	-0.671
694	-0.655
694	-0.657
695	-0.662
695	-0.657
695	-0.664
696	-0.673
696	-0.668
697	-0.664
697	-0.661
698	-0.656
698	-0.652
698	-0.665
699	-0.663
699	-0.666
700	-0.688
700	-0.684
701	-0.671
701	-0.668
702	-0.669
702	-0.668
702	-0.668
703	-0.66
703	-0.649
704	-0.659
704	-0.664
705	-0.65
705	-0.65
705	-0.645
706	-0.638
706	-0.636
707	-0.649
707	-0.655
708	-0.653
708	-0.651
709	-0.652
709	-0.649
709	-0.647
710	-0.658
710	-0.662
711	-0.661
711	-0.66
712	-0.65
712	-0.649
713	-0.653
713	-0.655
713	-0.635
714	-0.637
714	-0.64
715	-0.63
715	-0.639
716	-0.657
716	-0.667
716	-0.668
717	-0.673
717	-0.666
718	-0.66
718	-0.663
719	-0.659
719	-0.652
720	-0.65
720	-0.646
720	-0.639
721	-0.632
721	-0.637
722	-0.634
722	-0.631
723	-0.648
723	-0.66
723	-0.668
724	-0.667
724	-0.67
725	-0.664
725	-0.669
726	-0.67
726	-0.663
727	-0.665
727	-0.672
727	-0.663
728	-0.65
728	-0.649
729	-0.652
729	-0.655
730	-0.66
730	-0.65
730	-0.657
731	-0.659
731	-0.657
732	-0.659
732	-0.655
733	-0.667
733	-0.673
734	-0.68
734	-0.671
734	-0.654
735	-0.648
735	-0.642
736	-0.641
736	-0.637
737	-0.638
737	-0.627
737	-0.624
738	-0.608
738	-0.596
739	-0.6
739	-0.6
740	-0.613
740	-0.613
741	-0.626
741	-0.636
741	-0.643
742	-0.652
742	-0.664
743	-0.672
743	-0.676
744	-0.679
744	-0.689
744	-0.683
745	-0.691
745	-0.679
746	-0.674
746	-0.668
747	-0.67
747	-0.662
748	-0.666
748	-0.672
748	-0.672
749	-0.666
749	-0.671
750	-0.663
750	-0.663
751	-0.663
751	-0.659
751	-0.671
752	-0.677
752	-0.679
753	-0.677
753	-0.669
754	-0.685
754	-0.686
754	-0.694
755	-0.695
755	-0.69
756	-0.694
756	-0.679
757	-0.668
757	-0.658
758	-0.66
758	-0.66
758	-0.658
759	-0.662
759	-0.66
760	-0.658
760	-0.658
761	-0.651
761	-0.656
761	-0.657
762	-0.661
762	-0.663
763	-0.664
763	-0.667
764	-0.665
764	-0.661
764	-0.669
765	-0.668
765	-0.674
766	-0.677
766	-0.678
767	-0.696
767	-0.691
768	-0.688
768	-0.679
768	-0.677
769	-0.682
769	-0.69
770	-0.698
770	-0.702
771	-0.697
771	-0.697
771	-0.698
772	-0.702
772	-0.723
773	-0.724
773	-0.723
774	-0.72
774	-0.702
775	-0.689
775	-0.688
775	-0.695
776	-0.704
776	-0.701
777	-0.7
777	-0.685
778	-0.694
778	-0.701
778	-0.7
779	-0.708
779	-0.724
780	-0.72
780	-0.726
781	-0.714
781	-0.705
781	-0.719
782	-0.738
782	-0.737
783	-0.738
783	-0.746
784	-0.749
784	-0.742
784	-0.762
785	-0.756
785	-0.769
786	-0.774
786	-0.769
787	-0.76
787	-0.77
788	-0.762
788	-0.756
788	-0.757
789	-0.756
789	-0.745
790	-0.743
790	-0.729
791	-0.736
791	-0.73
791	-0.723
792	-0.717
792	-0.723
793	-0.726
793	-0.712
794	-0.707
794	-0.701
794	-0.709
795	-0.73
795	-0.718
796	-0.724
796	-0.72
797	-0.712
797	-0.701
797	-0.695
798	-0.719
798	-0.722
799	-0.722
799	-0.707
800	-0.701
800	-0.709
801	-0.705
801	-0.711
801	-0.707
802	-0.709
802	-0.707
803	-0.702
803	-0.695
804	-0.702
804	-0.711
804	-0.695
805	-0.677
805	-0.668
806	-0.67
806	-0.668
807	-0.668
807	-0.669
807	-0.654
808	-0.651
808	-0.643
809	-0.639
809	-0.641
810	-0.644
810	-0.643
810	-0.64
811	-0.645
811	-0.637
812	-0.631
812	-0.631
813	-0.634
813	-0.636
813	-0.632
814	-0.632
814	-0.636
815	-0.627
815	-0.621
816	-0.614
816	-0.63
817	-0.639
817	-0.643
817	-0.653
818	-0.646
818	-0.644
819	-0.652
819	-0.652
820	-0.66
820	-0.66
820	-0.658
821	-0.653
821	-0.65
822	-0.652
822	-0.639
823	-0.65
823	-0.649
823	-0.647
824	-0.642
824	-0.656
825	-0.656
825	-0.656
826	-0.652
826	-0.649
826	-0.646
827	-0.647
827	-0.636
828	-0.636
828	-0.63
829	-0.626
829	-0.61
829	-0.607
830	-0.603
830	-0.589
831	-0.582
831	-0.572
832	-0.564
832	-0.561
832	-0.554
833	-0.553
833	-0.561
834	-0.558
834	-0.554
835	-0.549
835	-0.551
835	-0.548
836	-0.545
836	-0.543
837	-0.535
837	-0.527
838	-0.516
838	-0.497
839	-0.492
839	-0.481
839	-0.473
840	-0.471
840	-0.461
841	-0.452
841	-0.445
842	-0.436
842	-0.424
842	-0.423
843	-0.423
843	-0.42
844	-0.417
844	-0.407
845	-0.394
845	-0.386
845	-0.377
846	-0.367
846	-0.358
847	-0.35
847	-0.338
848	-0.325
848	-0.311
848	-0.301
849	-0.292
849	-0.283
850	-0.276
850	-0.268
851	-0.257
851	-0.245
851	-0.238
852	-0.227
852	-0.215
853	-0.209
853	-0.201
854	-0.193
854	-0.184
854	-0.174
855	-0.166
855	-0.161
856	-0.155
856	-0.148
857	-0.143
857	-0.138
857	-0.127
858	-0.119
858	-0.114
859	-0.106
859	-0.098
860	-0.091
860	-0.08
860	-0.073
861	-0.067
861	-0.059
862	-0.055
862	-0.05
863	-0.045
863	-0.039
863	-0.035
864	-0.032
864	-0.028
865	-0.024
865	-0.021
866	-0.017
866	-0.014
866	-0.011
867	-0.008
867	-0.004
868	-0.001
868	0.002
869	0.005
869	0.008
869	0.011
870	0.013
870	0.015
871	0.017
871	0.017
872	0.018
872	0.018
872	0.019
873	0.018
873	0.018
874	0.017
874	0.017
875	0.016
875	0.015
875	0.015
876	0.014
876	0.014
877	0.013
877	0.012
878	0.011
878	0.01
878	0.01
879	0.009
879	0.008
880	0.008
880	0.007
881	0.007
881	0.007
881	0.007
882	0.006
882	0.006
883	0.006
883	0.005
884	0.005
884	0.005
884	0.005
885	0.005
885	0.004
886	0.003
886	0.002
887	0.002
887	0.001
887	-0
888	-0.001
888	-0.001
889	-0.002
889	-0.002
890	-0.003
890	-0.003
890	-0.004
891	-0.003
891	-0.003
892	-0.002
892	-0.002
893	-0.002
893	-0.002
893	-0.002
894	-0.002
894	-0.001
895	-0.001
895	-0.001
895	-0.001
896	-0
896	-0
897	0
897	0
898	0.001
898	0.001
898	0.001
899	0.002
899	0.002
900	0.003
900	0.003
901	0.003
901	0.003
901	0.002
902	0.002
902	0.003
903	0.002
903	0.002
904	0.001
904	0
904	-0
905	-0.001
905	-0.001
906	-0
906	0
907	0.001
907	0.001
907	0.002
908	0.003
908	0.004
909	0.004
909	0.005
910	0.005
910	0.006
910	0.006
911	0.007
911	0.008
912	0.01
912	0.011
913	0.013
913	0.014
913	0.015
914	0.015
914	0.016
915	0.016
915	0.016
916	0.015
916	0.015
916	0.014
917	0.013
917	0.012
918	0.011
918	0.01
918	0.01
919	0.01
919	0.009
920	0.009
920	0.009
921	0.009
921	0.01
921	0.01
922	0.01
922	0.01
923	0.01
923	0.01
924	0.009
924	0.009
924	0.009
925	0.009
925	0.008
926	0.008
926	0.007
927	0.007
927	0.007
927	0.007
928	0.007
928	0.008
929	0.008
929	0.009
930	0.01
930	0.01
930	0.011
931	0.012
931	0.013
932	0.014
932	0.015
933	0.016
933	0.016
933	0.017
934	0.017
934	0.017
935	0.016
935	0.016
935	0.014
936	0.013
936	0.012
937	0.01
937	0.009
938	0.008
938	0.006
938	0.005
939	0.005
939	0.004
940	0.003
940	0.003
941	0.003
941	0.003
941	0.003
942	0.003
942	0.003
943	0.004
943	0.004
944	0.004
944	0.003
944	0.003
945	0.003
945	0.003
946	0.002
946	0.002
946	0.001
947	0
947	-0
948	-0.001
948	-0.001
949	-0.001
949	-0.002
949	-0.001
950	-0.002
950	-0.001
951	-0.001
951	-0.001
952	-0
952	0.001
952	0.001
953	0.002
953	0.003
954	0.003
954	0.003
955	0.004
955	0.004
955	0.004
956	0.004
956	0.004
957	0.003
957	0.002
957	0.001
958	0.001
958	0
959	-0
959	-0.001
960	-0.001
960	-0.001
960	-0.001
961	-0.002
961	-0.001
962	-0.002
962	-0.001
963	-0.001
963	-0.001
963	-0.001
964	-0.001
964	-0.001
965	-0.001
965	-0
966	0
966	0.001
966	0.001
967	0.002
967	0.002
968	0.002
968	0.002
968	0.002
969	0.002
969	0.001
970	0
970	-0.001
971	-0.002
971	-0.002
971	-0.003
972	-0.003
972	-0.003
973	-0.003
973	-0.003
974	-0.002
974	-0.002
974	-0.001
975	0.001
975	0.002
976	0.003
976	0.004
976	0.005
977	0.005
977	0.005
978	0.005
978	0.005
979	0.005
979	0.005
979	0.004
980	0.004
980	0.003
981	0.003
981	0.002
982	0.002
982	0.002
982	0.002
983	0.002
983	0.002
984	0.002
984	0.002
984	0.002
985	0.002
985	0.002
986	0.002
986	0.002
987	0.001
987	0.001
987	0.001
988	0.001
988	0
989	0
989	-0
990	-0.001
990	-0.002
990	-0.002
991	-0.002
991	-0.002
992	-0.002
992	-0.003
992	-0.003
993	-0.003
993	-0.003
994	-0.004
994	-0.004
995	-0.004
995	-0.004
995	-0.005
996	-0.005
996	-0.006
997	-0.006
997	-0.006
997	-0.006
998	-0.006
998	-0.006
999	-0.006
999	-0.006
1000	-0.005
1000	-0.005
1000	-0.005
1001	-0.004
1001	-0.004
1002	-0.004
1002	-0.004
1003	-0.003
1003	-0.004
1003	-0.004
1004	-0.004
1004	-0.005
1005	-0.005
1005	-0.006
1005	-0.007
1006	-0.008
1006	-0.009
1007	-0.009
1007	-0.01
1008	-0.011
1008	-0.011
1008	-0.011
1009	-0.012
1009	-0.011
1010	-0.011
1010	-0.011
1010	-0.01
1011	-0.01
1011	-0.009
1012	-0.009
1012	-0.008
1013	-0.008
1013	-0.007
1013	-0.007
1014	-0.007
1014	-0.006
1015	-0.006
1015	-0.005
1016	-0.005
1016	-0.005
1016	-0.005
1017	-0.004
1017	-0.004
1018	-0.004
1018	-0.004
1018	-0.004
1019	-0.004
1019	-0.004
1020	-0.004
1020	-0.005
1021	-0.006
1021	-0.006
1021	-0.007
1022	-0.007
1022	-0.008
1023	-0.009
1023	-0.01
1023	-0.01
1024	-0.011
1024	-0.012
1025	-0.013
1025	-0.013
1026	-0.014
1026	-0.014
1026	-0.015
1027	-0.015
1027	-0.015
1028	-0.015
1028	-0.015
1028	-0.015
1029	-0.015
1029	-0.015
1030	-0.015
1030	-0.015
1031	-0.015
1031	-0.014
1031	-0.014
1032	-0.014
1032	-0.014
1033	-0.015
1033	-0.015
1033	-0.015
1034	-0.015
1034	-0.015
1035	-0.015
1035	-0.015
1036	-0.015
1036	-0.015
1036	-0.015
1037	-0.015
1037	-0.014
1038	-0.014
1038	-0.013
1039	-0.012
1039	-0.011
1039	-0.011
1040	-0.011
1040	-0.01
1041	-0.01
1041	-0.01
1041	-0.011
1042	-0.012
1042	-0.012
1043	-0.013
1043	-0.015
1044	-0.015
1044	-0.017
1044	-0.018
1045	-0.019
1045	-0.019
1046	-0.02
1046	-0.02
1046	-0.02
1047	-0.021
1047	-0.021
1048	-0.02
1048	-0.021
1049	-0.021
1049	-0.021
1049	-0.021
1050	-0.022
1050	-0.023
1051	-0.024
1051	-0.025
1051	-0.025
1052	-0.026
1052	-0.026
1053	-0.027
1053	-0.027
1053	-0.026
1054	-0.027
1054	-0.027
1055	-0.026
1055	-0.026
1056	-0.026
1056	-0.026
1056	-0.026
1057	-0.027
1057	-0.027
1058	-0.028
1058	-0.028
1058	-0.028
1059	-0.028
1059	-0.029
1060	-0.029
1060	-0.028
1061	-0.029
1061	-0.028
1061	-0.027
1062	-0.027
1062	-0.027
1063	-0.027
1063	-0.027
1063	-0.027
1064	-0.027
1064	-0.027
1065	-0.027
1065	-0.028
1066	-0.028
1066	-0.028
1066	-0.028
1067	-0.028
1067	-0.029
1068	-0.029
1068	-0.029
1068	-0.03
1069	-0.031
1069	-0.031
1070	-0.032
1070	-0.032
1071	-0.033
1071	-0.033
1071	-0.033
1072	-0.033
1072	-0.032
1073	-0.032
1073	-0.032
1073	-0.031
1074	-0.03
1074	-0.03
1075	-0.03
1075	-0.03
1076	-0.03
1076	-0.03
1076	-0.031
1077	-0.032
1077	-0.033
1078	-0.033
1078	-0.034
1078	-0.035
1079	-0.035
1079	-0.035
1080	-0.036
1080	-0.036
1080	-0.037
1081	-0.038
1081	-0.038
1082	-0.038
1082	-0.039
1083	-0.039
1083	-0.04
1083	-0.041
1084	-0.042
1084	-0.042
1085	-0.042
1085	-0.043
1085	-0.043
1086	-0.043
1086	-0.043
1087	-0.044
1087	-0.044
1088	-0.045
1088	-0.045
1088	-0.045
1089	-0.047
1089	-0.047
1090	-0.048
1090	-0.049
1090	-0.051
1091	-0.052
1091	-0.053
1092	-0.053
1092	-0.053
1092	-0.054
1093	-0.055
1093	-0.054
1094	-0.055
1094	-0.056
1095	-0.056
1095	-0.056
1095	-0.056
1096	-0.057
1096	-0.058
1097	-0.059
1097	-0.06
1097	-0.061
1098	-0.062
1098	-0.063
1099	-0.064
1099	-0.065
1100	-0.067
1100	-0.069
1100	-0.07
1101	-0.073
1101	-0.075
1102	-0.077
1102	-0.079
1102	-0.08
1103	-0.082
1103	-0.084
1104	-0.087
1104	-0.089
1104	-0.09
1105	-0.092
1105	-0.094
1106	-0.097
1106	-0.098
1107	-0.102
1107	-0.106
1107	-0.11
1108	-0.112
1108	-0.113
1109	-0.116
1109	-0.12
1109	-0.122
1110	-0.124
1110	-0.127
1111	-0.134
1111	-0.132
