Data from 3.5A_17C_Absorbance__304__00306.txt Node

Date: Tue Jun 20 15:07:18 CEST 2023
User: Marek
Spectrometer: MAYP115816
Trigger mode: 0
Integration Time (sec): 2.200000E-1
Scans to average: 10
Electric dark correction enabled: true
Nonlinearity correction enabled: true
Boxcar width: 5
XAxis mode: Wavelengths
Number of Pixels in Spectrum: 2068
>>>>>Begin Spectral Data<<<<<
199	-0.617
199	-0.594
200	-0.561
200	-0.504
201	-0.473
201	-0.465
202	-0.446
202	-0.44
203	-0.439
203	-0.432
204	-0.413
204	-0.398
205	-0.376
205	-0.365
205	-0.376
206	-0.379
206	-0.375
207	-0.368
207	-0.373
208	-0.373
208	-0.379
209	-0.382
209	-0.389
210	-0.4
210	-0.407
211	-0.399
211	-0.404
212	-0.413
212	-0.418
213	-0.414
213	-0.412
213	-0.409
214	-0.416
214	-0.415
215	-0.414
215	-0.419
216	-0.431
216	-0.436
217	-0.432
217	-0.435
218	-0.443
218	-0.447
219	-0.454
219	-0.456
220	-0.46
220	-0.465
221	-0.465
221	-0.463
221	-0.452
222	-0.453
222	-0.453
223	-0.449
223	-0.45
224	-0.451
224	-0.45
225	-0.448
225	-0.451
226	-0.453
226	-0.455
227	-0.464
227	-0.475
228	-0.478
228	-0.487
229	-0.49
229	-0.486
229	-0.483
230	-0.479
230	-0.477
231	-0.474
231	-0.465
232	-0.466
232	-0.459
233	-0.46
233	-0.449
234	-0.449
234	-0.444
235	-0.45
235	-0.46
236	-0.465
236	-0.467
236	-0.469
237	-0.47
237	-0.472
238	-0.471
238	-0.47
239	-0.47
239	-0.481
240	-0.475
240	-0.471
241	-0.468
241	-0.47
242	-0.472
242	-0.48
243	-0.479
243	-0.48
243	-0.488
244	-0.485
244	-0.486
245	-0.488
245	-0.489
246	-0.498
246	-0.5
247	-0.508
247	-0.493
248	-0.491
248	-0.493
249	-0.498
249	-0.5
250	-0.499
250	-0.508
250	-0.506
251	-0.508
251	-0.506
252	-0.507
252	-0.52
253	-0.517
253	-0.528
254	-0.533
254	-0.533
255	-0.544
255	-0.542
256	-0.545
256	-0.559
257	-0.565
257	-0.559
258	-0.56
258	-0.566
258	-0.562
259	-0.557
259	-0.577
260	-0.574
260	-0.564
261	-0.572
261	-0.556
262	-0.563
262	-0.564
263	-0.556
263	-0.56
264	-0.57
264	-0.569
265	-0.558
265	-0.561
265	-0.571
266	-0.563
266	-0.56
267	-0.558
267	-0.574
268	-0.581
268	-0.576
269	-0.568
269	-0.582
270	-0.583
270	-0.58
271	-0.592
271	-0.603
272	-0.605
272	-0.609
272	-0.6
273	-0.61
273	-0.624
274	-0.618
274	-0.612
275	-0.609
275	-0.596
276	-0.6
276	-0.611
277	-0.611
277	-0.609
278	-0.614
278	-0.613
278	-0.602
279	-0.611
279	-0.624
280	-0.627
280	-0.638
281	-0.628
281	-0.615
282	-0.624
282	-0.617
283	-0.61
283	-0.624
284	-0.635
284	-0.643
285	-0.623
285	-0.629
285	-0.619
286	-0.626
286	-0.638
287	-0.633
287	-0.633
288	-0.635
288	-0.618
289	-0.616
289	-0.62
290	-0.629
290	-0.62
291	-0.626
291	-0.625
292	-0.607
292	-0.605
292	-0.609
293	-0.596
293	-0.589
294	-0.588
294	-0.577
295	-0.561
295	-0.572
296	-0.584
296	-0.579
297	-0.569
297	-0.571
298	-0.568
298	-0.583
298	-0.587
299	-0.57
299	-0.565
300	-0.56
300	-0.542
301	-0.521
301	-0.525
302	-0.537
302	-0.523
303	-0.517
303	-0.508
304	-0.493
304	-0.497
305	-0.491
305	-0.499
305	-0.513
306	-0.499
306	-0.494
307	-0.485
307	-0.496
308	-0.496
308	-0.489
309	-0.493
309	-0.49
310	-0.486
310	-0.482
311	-0.466
311	-0.484
311	-0.475
312	-0.472
312	-0.46
313	-0.454
313	-0.457
314	-0.461
314	-0.458
315	-0.456
315	-0.451
316	-0.447
316	-0.437
317	-0.427
317	-0.424
318	-0.417
318	-0.416
318	-0.405
319	-0.393
319	-0.384
320	-0.383
320	-0.381
321	-0.376
321	-0.376
322	-0.369
322	-0.365
323	-0.364
323	-0.353
324	-0.349
324	-0.339
324	-0.328
325	-0.314
325	-0.296
326	-0.288
326	-0.265
327	-0.252
327	-0.23
328	-0.202
328	-0.183
329	-0.157
329	-0.131
330	-0.105
330	-0.072
330	-0.038
331	-0.006
331	0.025
332	0.057
332	0.086
333	0.112
333	0.143
334	0.168
334	0.191
335	0.213
335	0.231
336	0.249
336	0.268
336	0.281
337	0.295
337	0.309
338	0.32
338	0.328
339	0.338
339	0.347
340	0.354
340	0.36
341	0.365
341	0.369
342	0.374
342	0.378
342	0.382
343	0.385
343	0.389
344	0.391
344	0.393
345	0.395
345	0.398
346	0.4
346	0.401
347	0.402
347	0.403
348	0.404
348	0.405
348	0.405
349	0.405
349	0.406
350	0.406
350	0.406
351	0.406
351	0.407
352	0.406
352	0.406
353	0.407
353	0.407
354	0.407
354	0.407
354	0.407
355	0.407
355	0.406
356	0.406
356	0.406
357	0.406
357	0.406
358	0.406
358	0.406
359	0.406
359	0.406
360	0.406
360	0.406
360	0.406
361	0.406
361	0.406
362	0.406
362	0.405
363	0.405
363	0.405
364	0.405
364	0.404
365	0.404
365	0.404
366	0.403
366	0.403
366	0.403
367	0.403
367	0.403
368	0.402
368	0.402
369	0.401
369	0.401
370	0.4
370	0.4
371	0.4
371	0.399
372	0.398
372	0.398
372	0.398
373	0.398
373	0.397
374	0.397
374	0.396
375	0.396
375	0.395
376	0.395
376	0.395
377	0.395
377	0.394
378	0.393
378	0.393
378	0.393
379	0.392
379	0.392
380	0.392
380	0.391
381	0.391
381	0.391
382	0.39
382	0.39
383	0.389
383	0.389
383	0.388
384	0.388
384	0.387
385	0.387
385	0.386
386	0.386
386	0.386
387	0.385
387	0.384
388	0.384
388	0.384
389	0.383
389	0.383
389	0.383
390	0.382
390	0.382
391	0.381
391	0.381
392	0.381
392	0.38
393	0.38
393	0.38
394	0.379
394	0.379
394	0.378
395	0.378
395	0.377
396	0.377
396	0.376
397	0.376
397	0.375
398	0.375
398	0.374
399	0.374
399	0.373
400	0.373
400	0.372
400	0.372
401	0.372
401	0.371
402	0.37
402	0.37
403	0.37
403	0.369
404	0.369
404	0.368
405	0.368
405	0.367
405	0.367
406	0.367
406	0.366
407	0.366
407	0.365
408	0.365
408	0.365
409	0.364
409	0.364
410	0.364
410	0.364
411	0.364
411	0.363
411	0.363
412	0.362
412	0.362
413	0.362
413	0.362
414	0.361
414	0.361
415	0.361
415	0.36
416	0.36
416	0.36
416	0.36
417	0.36
417	0.359
418	0.359
418	0.359
419	0.359
419	0.359
420	0.358
420	0.358
421	0.358
421	0.358
421	0.358
422	0.358
422	0.358
423	0.357
423	0.357
424	0.357
424	0.357
425	0.357
425	0.357
426	0.356
426	0.356
427	0.356
427	0.356
427	0.356
428	0.356
428	0.355
429	0.355
429	0.355
430	0.354
430	0.354
431	0.354
431	0.354
432	0.353
432	0.353
432	0.353
433	0.353
433	0.353
434	0.353
434	0.353
435	0.353
435	0.353
436	0.353
436	0.353
437	0.353
437	0.353
437	0.353
438	0.353
438	0.353
439	0.353
439	0.353
440	0.353
440	0.353
441	0.353
441	0.353
442	0.353
442	0.353
442	0.353
443	0.353
443	0.353
444	0.353
444	0.353
445	0.353
445	0.353
446	0.353
446	0.353
447	0.353
447	0.353
447	0.353
448	0.353
448	0.353
449	0.354
449	0.354
450	0.354
450	0.354
451	0.354
451	0.354
452	0.354
452	0.354
452	0.354
453	0.354
453	0.354
454	0.354
454	0.355
455	0.355
455	0.355
456	0.356
456	0.356
457	0.356
457	0.356
458	0.356
458	0.357
458	0.357
459	0.357
459	0.357
460	0.357
460	0.357
461	0.358
461	0.358
462	0.359
462	0.359
463	0.36
463	0.361
463	0.362
464	0.362
464	0.363
465	0.364
465	0.364
466	0.365
466	0.366
467	0.366
467	0.367
467	0.367
468	0.367
468	0.367
469	0.368
469	0.369
470	0.37
470	0.37
471	0.371
471	0.372
472	0.373
472	0.374
472	0.375
473	0.376
473	0.377
474	0.378
474	0.38
475	0.381
475	0.382
476	0.383
476	0.384
477	0.384
477	0.386
477	0.387
478	0.388
478	0.389
479	0.391
479	0.392
480	0.393
480	0.395
481	0.397
481	0.399
482	0.4
482	0.402
482	0.404
483	0.406
483	0.409
484	0.41
484	0.412
485	0.414
485	0.416
486	0.418
486	0.419
487	0.421
487	0.423
487	0.425
488	0.426
488	0.428
489	0.43
489	0.433
490	0.435
490	0.438
491	0.44
491	0.443
492	0.446
492	0.448
492	0.451
493	0.453
493	0.456
494	0.459
494	0.462
495	0.465
495	0.468
496	0.471
496	0.474
496	0.477
497	0.481
497	0.484
498	0.487
498	0.491
499	0.494
499	0.498
500	0.502
500	0.505
501	0.509
501	0.512
501	0.515
502	0.519
502	0.522
503	0.526
503	0.529
504	0.533
504	0.536
505	0.539
505	0.543
506	0.547
506	0.551
506	0.555
507	0.559
507	0.563
508	0.567
508	0.571
509	0.575
509	0.579
510	0.583
510	0.587
511	0.591
511	0.595
511	0.598
512	0.602
512	0.605
513	0.608
513	0.611
514	0.614
514	0.618
515	0.621
515	0.624
515	0.627
516	0.63
516	0.632
517	0.635
517	0.638
518	0.64
518	0.642
519	0.644
519	0.646
520	0.648
520	0.65
520	0.652
521	0.654
521	0.656
522	0.657
522	0.659
523	0.66
523	0.662
524	0.662
524	0.664
524	0.665
525	0.666
525	0.666
526	0.667
526	0.668
527	0.668
527	0.668
528	0.668
528	0.668
529	0.667
529	0.667
529	0.666
530	0.665
530	0.664
531	0.663
531	0.661
532	0.659
532	0.658
533	0.656
533	0.654
533	0.652
534	0.65
534	0.647
535	0.645
535	0.642
536	0.64
536	0.637
537	0.634
537	0.631
538	0.628
538	0.625
538	0.622
539	0.619
539	0.616
540	0.612
540	0.609
541	0.605
541	0.601
542	0.597
542	0.592
542	0.588
543	0.584
543	0.579
544	0.575
544	0.57
545	0.566
545	0.561
546	0.556
546	0.551
547	0.546
547	0.541
547	0.536
548	0.531
548	0.526
549	0.521
549	0.517
550	0.512
550	0.506
551	0.501
551	0.495
551	0.489
552	0.484
552	0.479
553	0.473
553	0.468
554	0.463
554	0.457
555	0.452
555	0.446
556	0.441
556	0.436
556	0.431
557	0.426
557	0.421
558	0.416
558	0.41
559	0.405
559	0.4
560	0.395
560	0.39
560	0.386
561	0.382
561	0.378
562	0.374
562	0.37
563	0.365
563	0.361
564	0.357
564	0.353
564	0.349
565	0.345
565	0.34
566	0.336
566	0.331
567	0.327
567	0.323
568	0.319
568	0.314
568	0.309
569	0.305
569	0.3
570	0.295
570	0.291
571	0.288
571	0.284
572	0.279
572	0.275
573	0.271
573	0.267
573	0.264
574	0.261
574	0.258
575	0.255
575	0.252
576	0.249
576	0.245
577	0.242
577	0.239
577	0.237
578	0.235
578	0.233
579	0.231
579	0.228
580	0.225
580	0.221
581	0.218
581	0.216
581	0.214
582	0.212
582	0.209
583	0.207
583	0.204
584	0.2
584	0.196
585	0.193
585	0.19
585	0.187
586	0.185
586	0.182
587	0.179
587	0.177
588	0.174
588	0.172
589	0.17
589	0.169
590	0.167
590	0.165
590	0.164
591	0.163
591	0.16
592	0.158
592	0.156
593	0.155
593	0.153
594	0.152
594	0.15
594	0.149
595	0.147
595	0.145
596	0.144
596	0.143
597	0.142
597	0.141
598	0.139
598	0.138
598	0.136
599	0.135
599	0.134
600	0.132
600	0.131
601	0.13
601	0.129
602	0.127
602	0.126
602	0.125
603	0.124
603	0.123
604	0.122
604	0.121
605	0.12
605	0.119
606	0.117
606	0.115
606	0.114
607	0.113
607	0.112
608	0.111
608	0.109
609	0.108
609	0.107
610	0.106
610	0.104
610	0.103
611	0.102
611	0.101
612	0.101
612	0.1
613	0.1
613	0.099
614	0.098
614	0.096
614	0.096
615	0.094
615	0.094
616	0.093
616	0.092
617	0.091
617	0.09
618	0.089
618	0.088
618	0.088
619	0.087
619	0.087
620	0.087
620	0.087
621	0.086
621	0.085
622	0.084
622	0.084
622	0.082
623	0.082
623	0.081
624	0.081
624	0.08
625	0.079
625	0.079
626	0.078
626	0.077
626	0.077
627	0.076
627	0.075
628	0.074
628	0.073
629	0.072
629	0.071
630	0.07
630	0.069
630	0.069
631	0.068
631	0.067
632	0.066
632	0.066
633	0.065
633	0.065
634	0.065
634	0.064
634	0.063
635	0.062
635	0.061
636	0.06
636	0.06
637	0.058
637	0.057
638	0.057
638	0.056
638	0.055
639	0.053
639	0.052
640	0.051
640	0.05
641	0.049
641	0.048
642	0.048
642	0.047
642	0.046
643	0.044
643	0.043
644	0.042
644	0.041
645	0.04
645	0.038
646	0.036
646	0.034
646	0.032
647	0.029
647	0.026
648	0.024
648	0.021
649	0.018
649	0.015
650	0.013
650	0.01
650	0.007
651	0.004
651	-0
652	-0.006
652	-0.011
653	-0.016
653	-0.02
653	-0.017
654	-0.011
654	-0.012
655	-0.016
655	-0.019
656	-0.022
656	-0.025
657	-0.028
657	-0.031
657	-0.034
658	-0.038
658	-0.054
659	-0.094
659	-0.132
660	-0.151
660	-0.165
661	-0.179
661	-0.195
661	-0.211
662	-0.225
662	-0.24
663	-0.257
663	-0.278
664	-0.294
664	-0.315
665	-0.337
665	-0.36
665	-0.379
666	-0.404
666	-0.431
667	-0.458
667	-0.492
668	-0.525
668	-0.567
669	-0.61
669	-0.656
669	-0.711
670	-0.773
670	-0.889
671	-1.145
671	-1.534
672	-1.943
672	-2.251
672	-2.435
673	-2.534
673	-2.559
674	-2.577
674	-2.586
675	-2.601
675	-2.606
676	-2.605
676	-2.579
676	-2.503
677	-2.33
677	-2.032
678	-1.473
678	-1.061
679	-0.915
679	-0.84
680	-0.788
680	-0.754
680	-0.727
681	-0.714
681	-0.689
682	-0.676
682	-0.654
683	-0.631
683	-0.628
684	-0.621
684	-0.619
684	-0.612
685	-0.607
685	-0.61
686	-0.597
686	-0.594
687	-0.592
687	-0.592
687	-0.601
688	-0.593
688	-0.592
689	-0.604
689	-0.604
690	-0.597
690	-0.591
691	-0.597
691	-0.604
691	-0.607
692	-0.612
692	-0.612
693	-0.622
693	-0.635
694	-0.617
694	-0.62
695	-0.624
695	-0.621
695	-0.629
696	-0.639
696	-0.634
697	-0.629
697	-0.629
698	-0.626
698	-0.62
698	-0.635
699	-0.633
699	-0.635
700	-0.654
700	-0.65
701	-0.639
701	-0.635
702	-0.635
702	-0.633
702	-0.634
703	-0.625
703	-0.614
704	-0.622
704	-0.627
705	-0.617
705	-0.617
705	-0.613
706	-0.606
706	-0.604
707	-0.616
707	-0.621
708	-0.617
708	-0.618
709	-0.62
709	-0.616
709	-0.615
710	-0.623
710	-0.626
711	-0.628
711	-0.629
712	-0.622
712	-0.619
713	-0.626
713	-0.628
713	-0.61
714	-0.611
714	-0.616
715	-0.609
715	-0.617
716	-0.632
716	-0.643
716	-0.643
717	-0.649
717	-0.639
718	-0.633
718	-0.634
719	-0.631
719	-0.622
720	-0.617
720	-0.611
720	-0.606
721	-0.598
721	-0.601
722	-0.6
722	-0.599
723	-0.617
723	-0.629
723	-0.636
724	-0.636
724	-0.641
725	-0.636
725	-0.638
726	-0.639
726	-0.63
727	-0.634
727	-0.64
727	-0.631
728	-0.62
728	-0.616
729	-0.618
729	-0.621
730	-0.627
730	-0.619
730	-0.627
731	-0.629
731	-0.628
732	-0.63
732	-0.625
733	-0.639
733	-0.645
734	-0.652
734	-0.646
734	-0.629
735	-0.619
735	-0.614
736	-0.615
736	-0.608
737	-0.608
737	-0.595
737	-0.589
738	-0.576
738	-0.567
739	-0.567
739	-0.567
740	-0.582
740	-0.579
741	-0.589
741	-0.6
741	-0.609
742	-0.618
742	-0.633
743	-0.639
743	-0.642
744	-0.646
744	-0.654
744	-0.649
745	-0.659
745	-0.65
746	-0.646
746	-0.638
747	-0.64
747	-0.632
748	-0.633
748	-0.638
748	-0.64
749	-0.633
749	-0.638
750	-0.63
750	-0.629
751	-0.627
751	-0.625
751	-0.635
752	-0.638
752	-0.642
753	-0.643
753	-0.635
754	-0.653
754	-0.654
754	-0.662
755	-0.661
755	-0.654
756	-0.656
756	-0.643
757	-0.634
757	-0.625
758	-0.624
758	-0.623
758	-0.618
759	-0.622
759	-0.62
760	-0.621
760	-0.62
761	-0.613
761	-0.619
761	-0.62
762	-0.626
762	-0.627
763	-0.628
763	-0.631
764	-0.631
764	-0.628
764	-0.634
765	-0.633
765	-0.638
766	-0.64
766	-0.641
767	-0.656
767	-0.653
768	-0.651
768	-0.645
768	-0.639
769	-0.642
769	-0.648
770	-0.661
770	-0.665
771	-0.662
771	-0.665
771	-0.668
772	-0.669
772	-0.691
773	-0.691
773	-0.692
774	-0.69
774	-0.673
775	-0.66
775	-0.66
775	-0.664
776	-0.674
776	-0.671
777	-0.672
777	-0.655
778	-0.665
778	-0.671
778	-0.674
779	-0.681
779	-0.695
780	-0.689
780	-0.696
781	-0.685
781	-0.675
781	-0.686
782	-0.705
782	-0.706
783	-0.705
783	-0.709
784	-0.715
784	-0.71
784	-0.731
785	-0.723
785	-0.733
786	-0.738
786	-0.732
787	-0.723
787	-0.731
788	-0.726
788	-0.723
788	-0.727
789	-0.726
789	-0.714
790	-0.714
790	-0.7
791	-0.706
791	-0.701
791	-0.695
792	-0.689
792	-0.695
793	-0.695
793	-0.68
794	-0.674
794	-0.668
794	-0.675
795	-0.696
795	-0.684
796	-0.69
796	-0.686
797	-0.682
797	-0.673
797	-0.666
798	-0.689
798	-0.693
799	-0.695
799	-0.682
800	-0.678
800	-0.686
801	-0.684
801	-0.688
801	-0.684
802	-0.681
802	-0.68
803	-0.673
803	-0.665
804	-0.672
804	-0.677
804	-0.659
805	-0.642
805	-0.635
806	-0.635
806	-0.631
807	-0.634
807	-0.635
807	-0.621
808	-0.618
808	-0.612
809	-0.606
809	-0.61
810	-0.612
810	-0.608
810	-0.608
811	-0.611
811	-0.604
812	-0.599
812	-0.598
813	-0.602
813	-0.6
813	-0.599
814	-0.598
814	-0.601
815	-0.591
815	-0.584
816	-0.581
816	-0.595
817	-0.605
817	-0.612
817	-0.62
818	-0.615
818	-0.612
819	-0.621
819	-0.622
820	-0.635
820	-0.634
820	-0.633
821	-0.628
821	-0.625
822	-0.623
822	-0.615
823	-0.625
823	-0.626
823	-0.623
824	-0.619
824	-0.628
825	-0.629
825	-0.627
826	-0.623
826	-0.62
826	-0.617
827	-0.618
827	-0.607
828	-0.605
828	-0.602
829	-0.597
829	-0.582
829	-0.579
830	-0.577
830	-0.563
831	-0.556
831	-0.548
832	-0.54
832	-0.537
832	-0.53
833	-0.527
833	-0.536
834	-0.535
834	-0.532
835	-0.526
835	-0.527
835	-0.524
836	-0.52
836	-0.519
837	-0.508
837	-0.5
838	-0.489
838	-0.47
839	-0.466
839	-0.453
839	-0.446
840	-0.445
840	-0.433
841	-0.424
841	-0.415
842	-0.407
842	-0.396
842	-0.395
843	-0.393
843	-0.388
844	-0.386
844	-0.374
845	-0.363
845	-0.357
845	-0.349
846	-0.339
846	-0.33
847	-0.322
847	-0.314
848	-0.303
848	-0.289
848	-0.28
849	-0.271
849	-0.264
850	-0.257
850	-0.25
851	-0.24
851	-0.231
851	-0.225
852	-0.213
852	-0.203
853	-0.198
853	-0.188
854	-0.18
854	-0.171
854	-0.163
855	-0.154
855	-0.15
856	-0.145
856	-0.14
857	-0.135
857	-0.129
857	-0.12
858	-0.114
858	-0.109
859	-0.102
859	-0.093
860	-0.087
860	-0.077
860	-0.07
861	-0.063
861	-0.057
862	-0.052
862	-0.047
863	-0.042
863	-0.036
863	-0.032
864	-0.028
864	-0.025
865	-0.021
865	-0.018
866	-0.015
866	-0.011
866	-0.009
867	-0.006
867	-0.003
868	-0
868	0.003
869	0.005
869	0.008
869	0.01
870	0.012
870	0.014
871	0.015
871	0.016
872	0.017
872	0.017
872	0.017
873	0.017
873	0.017
874	0.016
874	0.016
875	0.015
875	0.014
875	0.014
876	0.013
876	0.013
877	0.012
877	0.011
878	0.01
878	0.009
878	0.009
879	0.008
879	0.008
880	0.007
880	0.006
881	0.006
881	0.006
881	0.006
882	0.006
882	0.006
883	0.006
883	0.005
884	0.005
884	0.005
884	0.005
885	0.005
885	0.004
886	0.003
886	0.002
887	0.001
887	-0
887	-0.001
888	-0.002
888	-0.003
889	-0.003
889	-0.004
890	-0.005
890	-0.005
890	-0.005
891	-0.005
891	-0.004
892	-0.003
892	-0.003
893	-0.002
893	-0.002
893	-0.002
894	-0.001
894	-0.001
895	-0.001
895	-0.001
895	-0
896	0
896	0
897	0
897	0.001
898	0
898	0.001
898	0.001
899	0.002
899	0.002
900	0.002
900	0.002
901	0.001
901	0.001
901	0.001
902	0.001
902	0.001
903	0.001
903	0
904	-0
904	-0.001
904	-0.002
905	-0.002
905	-0.002
906	-0.001
906	-0.001
907	-0
907	0
907	0.001
908	0.001
908	0.002
909	0.003
909	0.004
910	0.004
910	0.005
910	0.005
911	0.006
911	0.007
912	0.009
912	0.01
913	0.011
913	0.012
913	0.013
914	0.014
914	0.015
915	0.015
915	0.015
916	0.014
916	0.013
916	0.012
917	0.011
917	0.01
918	0.01
918	0.009
918	0.008
919	0.008
919	0.008
920	0.008
920	0.008
921	0.008
921	0.008
921	0.009
922	0.009
922	0.009
923	0.009
923	0.008
924	0.008
924	0.008
924	0.008
925	0.007
925	0.007
926	0.006
926	0.006
927	0.006
927	0.006
927	0.006
928	0.006
928	0.006
929	0.007
929	0.007
930	0.008
930	0.009
930	0.011
931	0.012
931	0.013
932	0.014
932	0.014
933	0.016
933	0.016
933	0.017
934	0.017
934	0.017
935	0.017
935	0.016
935	0.015
936	0.014
936	0.012
937	0.011
937	0.01
938	0.009
938	0.007
938	0.006
939	0.005
939	0.004
940	0.004
940	0.004
941	0.003
941	0.003
941	0.003
942	0.003
942	0.003
943	0.004
943	0.004
944	0.004
944	0.004
944	0.004
945	0.004
945	0.004
946	0.004
946	0.003
946	0.002
947	0.001
947	0
948	-0
948	-0.001
949	-0.002
949	-0.002
949	-0.001
950	-0.002
950	-0.001
951	-0.001
951	-0.001
952	-0.001
952	0
952	0.001
953	0.002
953	0.002
954	0.003
954	0.003
955	0.003
955	0.003
955	0.003
956	0.003
956	0.003
957	0.002
957	0.001
957	0
958	0
958	-0
959	-0
959	-0.001
960	-0.001
960	-0.001
960	-0.001
961	-0.001
961	-0.002
962	-0.002
962	-0.002
963	-0.002
963	-0.002
963	-0.001
964	-0.001
964	-0.001
965	-0
965	0
966	0
966	0.001
966	0.002
967	0.002
967	0.003
968	0.003
968	0.003
968	0.003
969	0.003
969	0.002
970	0.002
970	0.001
971	-0
971	-0.001
971	-0.002
972	-0.002
972	-0.002
973	-0.002
973	-0.002
974	-0.002
974	-0.001
974	-0
975	0.001
975	0.002
976	0.003
976	0.004
976	0.005
977	0.005
977	0.005
978	0.005
978	0.005
979	0.005
979	0.005
979	0.004
980	0.003
980	0.003
981	0.002
981	0.002
982	0.001
982	0.001
982	0.002
983	0.001
983	0.001
984	0.001
984	0.001
984	0.001
985	0.001
985	0.002
986	0.002
986	0.001
987	0.001
987	0.001
987	0.001
988	0.001
988	0
989	0
989	-0
990	-0.001
990	-0.002
990	-0.002
991	-0.002
991	-0.002
992	-0.002
992	-0.003
992	-0.003
993	-0.003
993	-0.003
994	-0.004
994	-0.004
995	-0.004
995	-0.004
995	-0.005
996	-0.005
996	-0.006
997	-0.006
997	-0.006
997	-0.006
998	-0.006
998	-0.005
999	-0.005
999	-0.005
1000	-0.004
1000	-0.004
1000	-0.004
1001	-0.003
1001	-0.003
1002	-0.003
1002	-0.002
1003	-0.002
1003	-0.003
1003	-0.003
1004	-0.003
1004	-0.004
1005	-0.004
1005	-0.005
1005	-0.006
1006	-0.007
1006	-0.008
1007	-0.009
1007	-0.01
1008	-0.011
1008	-0.012
1008	-0.012
1009	-0.012
1009	-0.012
1010	-0.011
1010	-0.011
1010	-0.011
1011	-0.01
1011	-0.01
1012	-0.009
1012	-0.008
1013	-0.007
1013	-0.007
1013	-0.006
1014	-0.006
1014	-0.005
1015	-0.005
1015	-0.004
1016	-0.003
1016	-0.003
1016	-0.003
1017	-0.003
1017	-0.003
1018	-0.002
1018	-0.003
1018	-0.003
1019	-0.003
1019	-0.003
1020	-0.004
1020	-0.005
1021	-0.005
1021	-0.005
1021	-0.006
1022	-0.006
1022	-0.007
1023	-0.008
1023	-0.009
1023	-0.01
1024	-0.011
1024	-0.012
1025	-0.012
1025	-0.013
1026	-0.014
1026	-0.014
1026	-0.015
1027	-0.015
1027	-0.016
1028	-0.016
1028	-0.015
1028	-0.015
1029	-0.015
1029	-0.015
1030	-0.015
1030	-0.015
1031	-0.015
1031	-0.015
1031	-0.015
1032	-0.015
1032	-0.015
1033	-0.016
1033	-0.016
1033	-0.016
1034	-0.016
1034	-0.016
1035	-0.016
1035	-0.016
1036	-0.016
1036	-0.016
1036	-0.016
1037	-0.015
1037	-0.014
1038	-0.014
1038	-0.013
1039	-0.012
1039	-0.011
1039	-0.01
1040	-0.01
1040	-0.01
1041	-0.009
1041	-0.01
1041	-0.01
1042	-0.011
1042	-0.012
1043	-0.013
1043	-0.014
1044	-0.015
1044	-0.016
1044	-0.017
1045	-0.018
1045	-0.019
1046	-0.02
1046	-0.02
1046	-0.02
1047	-0.02
1047	-0.02
1048	-0.02
1048	-0.02
1049	-0.02
1049	-0.02
1049	-0.021
1050	-0.021
1050	-0.022
1051	-0.023
1051	-0.024
1051	-0.024
1052	-0.025
1052	-0.025
1053	-0.026
1053	-0.026
1053	-0.026
1054	-0.026
1054	-0.026
1055	-0.025
1055	-0.025
1056	-0.025
1056	-0.025
1056	-0.025
1057	-0.026
1057	-0.026
1058	-0.026
1058	-0.026
1058	-0.026
1059	-0.026
1059	-0.027
1060	-0.027
1060	-0.027
1061	-0.027
1061	-0.026
1061	-0.026
1062	-0.026
1062	-0.026
1063	-0.026
1063	-0.026
1063	-0.026
1064	-0.026
1064	-0.026
1065	-0.026
1065	-0.026
1066	-0.026
1066	-0.026
1066	-0.026
1067	-0.026
1067	-0.027
1068	-0.027
1068	-0.028
1068	-0.028
1069	-0.029
1069	-0.03
1070	-0.031
1070	-0.031
1071	-0.031
1071	-0.032
1071	-0.032
1072	-0.032
1072	-0.032
1073	-0.031
1073	-0.031
1073	-0.03
1074	-0.029
1074	-0.029
1075	-0.029
1075	-0.029
1076	-0.03
1076	-0.03
1076	-0.03
1077	-0.031
1077	-0.032
1078	-0.032
1078	-0.034
1078	-0.034
1079	-0.034
1079	-0.034
1080	-0.035
1080	-0.035
1080	-0.036
1081	-0.036
1081	-0.037
1082	-0.037
1082	-0.038
1083	-0.038
1083	-0.038
1083	-0.039
1084	-0.04
1084	-0.04
1085	-0.041
1085	-0.041
1085	-0.041
1086	-0.041
1086	-0.041
1087	-0.042
1087	-0.042
1088	-0.043
1088	-0.043
1088	-0.044
1089	-0.045
1089	-0.045
1090	-0.046
1090	-0.047
1090	-0.048
1091	-0.049
1091	-0.049
1092	-0.05
1092	-0.05
1092	-0.051
1093	-0.051
1093	-0.051
1094	-0.052
1094	-0.053
1095	-0.053
1095	-0.054
1095	-0.054
1096	-0.055
1096	-0.056
1097	-0.057
1097	-0.058
1097	-0.059
1098	-0.06
1098	-0.062
1099	-0.062
1099	-0.063
1100	-0.064
1100	-0.065
1100	-0.067
1101	-0.069
1101	-0.071
1102	-0.072
1102	-0.073
1102	-0.074
1103	-0.076
1103	-0.078
1104	-0.081
1104	-0.084
1104	-0.086
1105	-0.087
1105	-0.089
1106	-0.092
1106	-0.094
1107	-0.098
1107	-0.101
1107	-0.104
1108	-0.106
1108	-0.106
1109	-0.108
1109	-0.111
1109	-0.113
1110	-0.116
1110	-0.116
1111	-0.121
1111	-0.119
