Data from 3.5A_17C_Absorbance__403__00405.txt Node

Date: Tue Jun 20 15:10:56 CEST 2023
User: Marek
Spectrometer: MAYP115816
Trigger mode: 0
Integration Time (sec): 2.200000E-1
Scans to average: 10
Electric dark correction enabled: true
Nonlinearity correction enabled: true
Boxcar width: 5
XAxis mode: Wavelengths
Number of Pixels in Spectrum: 2068
>>>>>Begin Spectral Data<<<<<
199	-0.646
199	-0.633
200	-0.59
200	-0.536
201	-0.509
201	-0.5
202	-0.482
202	-0.475
203	-0.474
203	-0.47
204	-0.45
204	-0.432
205	-0.409
205	-0.401
205	-0.409
206	-0.409
206	-0.405
207	-0.4
207	-0.407
208	-0.407
208	-0.41
209	-0.412
209	-0.419
210	-0.432
210	-0.439
211	-0.434
211	-0.439
212	-0.448
212	-0.454
213	-0.45
213	-0.446
213	-0.444
214	-0.451
214	-0.451
215	-0.448
215	-0.454
216	-0.463
216	-0.471
217	-0.468
217	-0.47
218	-0.478
218	-0.479
219	-0.486
219	-0.487
220	-0.491
220	-0.496
221	-0.494
221	-0.492
221	-0.482
222	-0.482
222	-0.477
223	-0.474
223	-0.477
224	-0.477
224	-0.474
225	-0.472
225	-0.475
226	-0.478
226	-0.478
227	-0.487
227	-0.496
228	-0.501
228	-0.509
229	-0.514
229	-0.512
229	-0.513
230	-0.507
230	-0.505
231	-0.5
231	-0.497
232	-0.499
232	-0.492
233	-0.493
233	-0.481
234	-0.482
234	-0.478
235	-0.482
235	-0.494
236	-0.5
236	-0.503
236	-0.502
237	-0.498
237	-0.501
238	-0.499
238	-0.5
239	-0.5
239	-0.51
240	-0.503
240	-0.498
241	-0.493
241	-0.495
242	-0.496
242	-0.505
243	-0.506
243	-0.508
243	-0.515
244	-0.514
244	-0.514
245	-0.517
245	-0.519
246	-0.529
246	-0.533
247	-0.54
247	-0.525
248	-0.523
248	-0.525
249	-0.528
249	-0.528
250	-0.526
250	-0.533
250	-0.532
251	-0.533
251	-0.53
252	-0.532
252	-0.545
253	-0.541
253	-0.552
254	-0.555
254	-0.555
255	-0.566
255	-0.564
256	-0.566
256	-0.576
257	-0.582
257	-0.579
258	-0.578
258	-0.587
258	-0.584
259	-0.58
259	-0.599
260	-0.599
260	-0.588
261	-0.6
261	-0.586
262	-0.593
262	-0.59
263	-0.582
263	-0.585
264	-0.595
264	-0.595
265	-0.583
265	-0.584
265	-0.595
266	-0.582
266	-0.584
267	-0.582
267	-0.6
268	-0.608
268	-0.601
269	-0.592
269	-0.604
270	-0.611
270	-0.609
271	-0.621
271	-0.632
272	-0.628
272	-0.631
272	-0.622
273	-0.629
273	-0.644
274	-0.638
274	-0.634
275	-0.63
275	-0.619
276	-0.622
276	-0.627
277	-0.631
277	-0.63
278	-0.638
278	-0.641
278	-0.629
279	-0.637
279	-0.649
280	-0.651
280	-0.661
281	-0.656
281	-0.649
282	-0.656
282	-0.651
283	-0.644
283	-0.657
284	-0.67
284	-0.678
285	-0.66
285	-0.665
285	-0.658
286	-0.663
286	-0.678
287	-0.673
287	-0.67
288	-0.667
288	-0.648
289	-0.646
289	-0.655
290	-0.665
290	-0.655
291	-0.658
291	-0.657
292	-0.636
292	-0.636
292	-0.64
293	-0.63
293	-0.626
294	-0.625
294	-0.613
295	-0.594
295	-0.603
296	-0.613
296	-0.605
297	-0.595
297	-0.598
298	-0.596
298	-0.612
298	-0.615
299	-0.598
299	-0.59
300	-0.59
300	-0.573
301	-0.558
301	-0.563
302	-0.574
302	-0.559
303	-0.551
303	-0.538
304	-0.524
304	-0.527
305	-0.521
305	-0.526
305	-0.541
306	-0.523
306	-0.521
307	-0.511
307	-0.524
308	-0.53
308	-0.527
309	-0.528
309	-0.523
310	-0.519
310	-0.515
311	-0.502
311	-0.521
311	-0.51
312	-0.507
312	-0.494
313	-0.485
313	-0.484
314	-0.489
314	-0.489
315	-0.487
315	-0.482
316	-0.476
316	-0.467
317	-0.459
317	-0.459
318	-0.45
318	-0.448
318	-0.438
319	-0.427
319	-0.417
320	-0.415
320	-0.414
321	-0.406
321	-0.406
322	-0.403
322	-0.394
323	-0.397
323	-0.388
324	-0.386
324	-0.375
324	-0.365
325	-0.351
325	-0.332
326	-0.327
326	-0.304
327	-0.287
327	-0.266
328	-0.235
328	-0.211
329	-0.184
329	-0.156
330	-0.131
330	-0.095
330	-0.062
331	-0.027
331	0.006
332	0.035
332	0.065
333	0.094
333	0.124
334	0.149
334	0.171
335	0.195
335	0.214
336	0.231
336	0.25
336	0.265
337	0.28
337	0.295
338	0.307
338	0.317
339	0.329
339	0.338
340	0.344
340	0.351
341	0.357
341	0.362
342	0.367
342	0.373
342	0.376
343	0.379
343	0.383
344	0.385
344	0.388
345	0.39
345	0.392
346	0.393
346	0.394
347	0.395
347	0.396
348	0.397
348	0.398
348	0.398
349	0.399
349	0.399
350	0.4
350	0.4
351	0.401
351	0.401
352	0.401
352	0.401
353	0.402
353	0.402
354	0.402
354	0.402
354	0.402
355	0.402
355	0.402
356	0.402
356	0.402
357	0.402
357	0.402
358	0.401
358	0.401
359	0.401
359	0.401
360	0.401
360	0.401
360	0.401
361	0.4
361	0.4
362	0.401
362	0.4
363	0.401
363	0.4
364	0.4
364	0.4
365	0.399
365	0.399
366	0.399
366	0.398
366	0.398
367	0.398
367	0.398
368	0.397
368	0.397
369	0.397
369	0.396
370	0.396
370	0.396
371	0.395
371	0.395
372	0.395
372	0.394
372	0.394
373	0.393
373	0.393
374	0.393
374	0.392
375	0.392
375	0.391
376	0.391
376	0.39
377	0.39
377	0.389
378	0.389
378	0.388
378	0.388
379	0.387
379	0.387
380	0.387
380	0.387
381	0.387
381	0.386
382	0.386
382	0.385
383	0.385
383	0.385
383	0.384
384	0.384
384	0.383
385	0.383
385	0.382
386	0.382
386	0.381
387	0.381
387	0.381
388	0.38
388	0.38
389	0.379
389	0.379
389	0.379
390	0.378
390	0.378
391	0.377
391	0.377
392	0.377
392	0.376
393	0.376
393	0.375
394	0.375
394	0.374
394	0.374
395	0.373
395	0.373
396	0.372
396	0.372
397	0.371
397	0.371
398	0.37
398	0.37
399	0.369
399	0.369
400	0.369
400	0.368
400	0.368
401	0.368
401	0.367
402	0.367
402	0.366
403	0.366
403	0.366
404	0.365
404	0.365
405	0.364
405	0.364
405	0.363
406	0.363
406	0.363
407	0.362
407	0.362
408	0.361
408	0.361
409	0.361
409	0.361
410	0.36
410	0.36
411	0.36
411	0.36
411	0.359
412	0.359
412	0.358
413	0.358
413	0.358
414	0.357
414	0.357
415	0.357
415	0.356
416	0.356
416	0.356
416	0.356
417	0.355
417	0.355
418	0.355
418	0.355
419	0.355
419	0.355
420	0.355
420	0.355
421	0.355
421	0.354
421	0.354
422	0.354
422	0.354
423	0.354
423	0.353
424	0.353
424	0.353
425	0.353
425	0.352
426	0.352
426	0.352
427	0.352
427	0.352
427	0.352
428	0.352
428	0.352
429	0.351
429	0.351
430	0.351
430	0.35
431	0.35
431	0.35
432	0.35
432	0.349
432	0.349
433	0.349
433	0.349
434	0.349
434	0.35
435	0.35
435	0.35
436	0.35
436	0.35
437	0.349
437	0.349
437	0.349
438	0.349
438	0.35
439	0.349
439	0.349
440	0.349
440	0.349
441	0.349
441	0.349
442	0.349
442	0.349
442	0.349
443	0.349
443	0.349
444	0.349
444	0.349
445	0.349
445	0.349
446	0.349
446	0.349
447	0.349
447	0.349
447	0.349
448	0.349
448	0.349
449	0.349
449	0.35
450	0.35
450	0.35
451	0.35
451	0.35
452	0.35
452	0.35
452	0.35
453	0.35
453	0.35
454	0.35
454	0.351
455	0.351
455	0.351
456	0.352
456	0.352
457	0.352
457	0.352
458	0.353
458	0.353
458	0.353
459	0.353
459	0.353
460	0.353
460	0.353
461	0.354
461	0.354
462	0.355
462	0.356
463	0.356
463	0.357
463	0.358
464	0.359
464	0.359
465	0.36
465	0.36
466	0.361
466	0.361
467	0.362
467	0.362
467	0.363
468	0.363
468	0.363
469	0.364
469	0.365
470	0.366
470	0.367
471	0.368
471	0.368
472	0.369
472	0.37
472	0.371
473	0.372
473	0.373
474	0.374
474	0.375
475	0.376
475	0.377
476	0.378
476	0.379
477	0.38
477	0.381
477	0.382
478	0.383
478	0.384
479	0.386
479	0.387
480	0.389
480	0.39
481	0.392
481	0.393
482	0.395
482	0.396
482	0.398
483	0.401
483	0.403
484	0.405
484	0.406
485	0.408
485	0.41
486	0.412
486	0.414
487	0.416
487	0.417
487	0.419
488	0.421
488	0.422
489	0.425
489	0.427
490	0.43
490	0.432
491	0.435
491	0.437
492	0.44
492	0.442
492	0.444
493	0.447
493	0.449
494	0.453
494	0.456
495	0.458
495	0.461
496	0.464
496	0.467
496	0.47
497	0.473
497	0.477
498	0.48
498	0.483
499	0.486
499	0.49
500	0.493
500	0.497
501	0.501
501	0.504
501	0.507
502	0.511
502	0.514
503	0.518
503	0.522
504	0.525
504	0.529
505	0.532
505	0.536
506	0.539
506	0.543
506	0.547
507	0.55
507	0.554
508	0.558
508	0.562
509	0.566
509	0.57
510	0.574
510	0.578
511	0.581
511	0.585
511	0.588
512	0.592
512	0.595
513	0.598
513	0.601
514	0.604
514	0.608
515	0.611
515	0.614
515	0.617
516	0.62
516	0.623
517	0.626
517	0.628
518	0.63
518	0.632
519	0.634
519	0.635
520	0.637
520	0.639
520	0.641
521	0.643
521	0.645
522	0.646
522	0.648
523	0.649
523	0.651
524	0.651
524	0.653
524	0.654
525	0.655
525	0.656
526	0.657
526	0.657
527	0.657
527	0.657
528	0.657
528	0.657
529	0.656
529	0.656
529	0.655
530	0.654
530	0.653
531	0.652
531	0.651
532	0.649
532	0.648
533	0.647
533	0.645
533	0.643
534	0.641
534	0.639
535	0.637
535	0.634
536	0.632
536	0.629
537	0.626
537	0.623
538	0.62
538	0.617
538	0.614
539	0.611
539	0.608
540	0.604
540	0.601
541	0.597
541	0.593
542	0.589
542	0.585
542	0.581
543	0.577
543	0.573
544	0.568
544	0.564
545	0.56
545	0.555
546	0.55
546	0.545
547	0.54
547	0.536
547	0.531
548	0.526
548	0.522
549	0.517
549	0.512
550	0.508
550	0.502
551	0.497
551	0.491
551	0.486
552	0.481
552	0.476
553	0.471
553	0.466
554	0.461
554	0.456
555	0.45
555	0.445
556	0.44
556	0.435
556	0.43
557	0.425
557	0.421
558	0.416
558	0.41
559	0.405
559	0.4
560	0.395
560	0.391
560	0.387
561	0.383
561	0.38
562	0.375
562	0.371
563	0.367
563	0.363
564	0.359
564	0.354
564	0.351
565	0.347
565	0.343
566	0.339
566	0.335
567	0.331
567	0.327
568	0.322
568	0.318
568	0.313
569	0.309
569	0.305
570	0.3
570	0.295
571	0.292
571	0.288
572	0.284
572	0.28
573	0.276
573	0.273
573	0.269
574	0.266
574	0.263
575	0.26
575	0.258
576	0.254
576	0.251
577	0.247
577	0.245
577	0.242
578	0.24
578	0.238
579	0.237
579	0.234
580	0.231
580	0.227
581	0.224
581	0.222
581	0.22
582	0.218
582	0.216
583	0.214
583	0.21
584	0.206
584	0.202
585	0.199
585	0.197
585	0.194
586	0.191
586	0.189
587	0.186
587	0.183
588	0.18
588	0.178
589	0.176
589	0.175
590	0.173
590	0.171
590	0.17
591	0.169
591	0.167
592	0.165
592	0.163
593	0.161
593	0.16
594	0.158
594	0.156
594	0.155
595	0.154
595	0.152
596	0.15
596	0.149
597	0.149
597	0.147
598	0.146
598	0.144
598	0.143
599	0.142
599	0.14
600	0.139
600	0.138
601	0.137
601	0.135
602	0.134
602	0.132
602	0.131
603	0.13
603	0.129
604	0.128
604	0.127
605	0.126
605	0.125
606	0.123
606	0.121
606	0.12
607	0.119
607	0.118
608	0.117
608	0.115
609	0.114
609	0.113
610	0.112
610	0.11
610	0.109
611	0.108
611	0.108
612	0.107
612	0.107
613	0.106
613	0.105
614	0.104
614	0.103
614	0.102
615	0.101
615	0.1
616	0.099
616	0.098
617	0.097
617	0.096
618	0.095
618	0.094
618	0.093
619	0.093
619	0.093
620	0.093
620	0.092
621	0.091
621	0.091
622	0.09
622	0.089
622	0.088
623	0.087
623	0.087
624	0.086
624	0.085
625	0.084
625	0.084
626	0.083
626	0.082
626	0.082
627	0.081
627	0.08
628	0.079
628	0.078
629	0.077
629	0.076
630	0.075
630	0.074
630	0.073
631	0.073
631	0.071
632	0.07
632	0.07
633	0.069
633	0.069
634	0.068
634	0.067
634	0.066
635	0.065
635	0.064
636	0.063
636	0.062
637	0.061
637	0.06
638	0.059
638	0.058
638	0.056
639	0.055
639	0.053
640	0.052
640	0.051
641	0.05
641	0.048
642	0.047
642	0.046
642	0.045
643	0.043
643	0.042
644	0.04
644	0.038
645	0.037
645	0.035
646	0.033
646	0.03
646	0.027
647	0.024
647	0.021
648	0.018
648	0.014
649	0.011
649	0.008
650	0.005
650	0.002
650	-0.001
651	-0.005
651	-0.01
652	-0.016
652	-0.022
653	-0.027
653	-0.032
653	-0.028
654	-0.02
654	-0.022
655	-0.025
655	-0.027
656	-0.03
656	-0.033
657	-0.035
657	-0.038
657	-0.041
658	-0.045
658	-0.062
659	-0.107
659	-0.149
660	-0.171
660	-0.186
661	-0.202
661	-0.22
661	-0.239
662	-0.255
662	-0.273
663	-0.292
663	-0.313
664	-0.331
664	-0.354
665	-0.378
665	-0.402
665	-0.426
666	-0.453
666	-0.483
667	-0.512
667	-0.549
668	-0.585
668	-0.634
669	-0.681
669	-0.731
669	-0.789
670	-0.852
670	-0.96
671	-1.183
671	-1.571
672	-1.996
672	-2.278
672	-2.454
673	-2.582
673	-2.621
674	-2.641
674	-2.65
675	-2.665
675	-2.67
676	-2.671
676	-2.647
676	-2.571
677	-2.43
677	-2.219
678	-1.726
678	-1.234
679	-1.036
679	-0.947
680	-0.886
680	-0.844
680	-0.809
681	-0.791
681	-0.763
682	-0.746
682	-0.72
683	-0.695
683	-0.69
684	-0.679
684	-0.676
684	-0.668
685	-0.661
685	-0.661
686	-0.647
686	-0.641
687	-0.638
687	-0.636
687	-0.642
688	-0.634
688	-0.634
689	-0.644
689	-0.646
690	-0.636
690	-0.631
691	-0.633
691	-0.64
691	-0.644
692	-0.646
692	-0.646
693	-0.652
693	-0.665
694	-0.646
694	-0.645
695	-0.652
695	-0.648
695	-0.659
696	-0.67
696	-0.665
697	-0.662
697	-0.66
698	-0.66
698	-0.652
698	-0.667
699	-0.668
699	-0.672
700	-0.693
700	-0.689
701	-0.674
701	-0.669
702	-0.667
702	-0.667
702	-0.666
703	-0.661
703	-0.65
704	-0.658
704	-0.66
705	-0.648
705	-0.648
705	-0.642
706	-0.634
706	-0.637
707	-0.65
707	-0.655
708	-0.654
708	-0.652
709	-0.652
709	-0.65
709	-0.646
710	-0.654
710	-0.658
711	-0.659
711	-0.657
712	-0.647
712	-0.646
713	-0.65
713	-0.65
713	-0.632
714	-0.632
714	-0.639
715	-0.633
715	-0.643
716	-0.66
716	-0.669
716	-0.67
717	-0.676
717	-0.667
718	-0.663
718	-0.665
719	-0.665
719	-0.655
720	-0.649
720	-0.646
720	-0.639
721	-0.632
721	-0.637
722	-0.634
722	-0.631
723	-0.65
723	-0.66
723	-0.667
724	-0.667
724	-0.671
725	-0.664
725	-0.669
726	-0.674
726	-0.664
727	-0.667
727	-0.676
727	-0.666
728	-0.654
728	-0.65
729	-0.652
729	-0.656
730	-0.662
730	-0.653
730	-0.657
731	-0.66
731	-0.661
732	-0.662
732	-0.657
733	-0.671
733	-0.677
734	-0.685
734	-0.676
734	-0.659
735	-0.648
735	-0.643
736	-0.643
736	-0.638
737	-0.637
737	-0.626
737	-0.621
738	-0.609
738	-0.597
739	-0.598
739	-0.6
740	-0.613
740	-0.614
741	-0.622
741	-0.632
741	-0.641
742	-0.647
742	-0.659
743	-0.666
743	-0.67
744	-0.674
744	-0.68
744	-0.675
745	-0.683
745	-0.672
746	-0.669
746	-0.66
747	-0.665
747	-0.661
748	-0.66
748	-0.665
748	-0.666
749	-0.662
749	-0.67
750	-0.661
750	-0.662
751	-0.66
751	-0.659
751	-0.67
752	-0.671
752	-0.675
753	-0.674
753	-0.667
754	-0.687
754	-0.685
754	-0.694
755	-0.695
755	-0.686
756	-0.687
756	-0.671
757	-0.666
757	-0.654
758	-0.654
758	-0.652
758	-0.646
759	-0.65
759	-0.65
760	-0.649
760	-0.654
761	-0.65
761	-0.654
761	-0.653
762	-0.66
762	-0.664
763	-0.666
763	-0.672
764	-0.671
764	-0.666
764	-0.67
765	-0.669
765	-0.675
766	-0.677
766	-0.678
767	-0.693
767	-0.687
768	-0.684
768	-0.674
768	-0.669
769	-0.671
769	-0.68
770	-0.69
770	-0.692
771	-0.69
771	-0.692
771	-0.698
772	-0.704
772	-0.726
773	-0.727
773	-0.728
774	-0.728
774	-0.712
775	-0.7
775	-0.7
775	-0.702
776	-0.708
776	-0.704
777	-0.703
777	-0.684
778	-0.693
778	-0.7
778	-0.7
779	-0.706
779	-0.722
780	-0.717
780	-0.725
781	-0.716
781	-0.704
781	-0.718
782	-0.737
782	-0.737
783	-0.735
783	-0.744
784	-0.748
784	-0.741
784	-0.761
785	-0.755
785	-0.767
786	-0.774
786	-0.766
787	-0.756
787	-0.767
788	-0.76
788	-0.754
788	-0.756
789	-0.755
789	-0.744
790	-0.741
790	-0.727
791	-0.73
791	-0.726
791	-0.72
792	-0.713
792	-0.716
793	-0.717
793	-0.705
794	-0.698
794	-0.691
794	-0.702
795	-0.723
795	-0.712
796	-0.717
796	-0.716
797	-0.711
797	-0.704
797	-0.697
798	-0.718
798	-0.724
799	-0.723
799	-0.708
800	-0.701
800	-0.709
801	-0.707
801	-0.711
801	-0.705
802	-0.706
802	-0.704
803	-0.698
803	-0.69
804	-0.699
804	-0.706
804	-0.691
805	-0.673
805	-0.665
806	-0.667
806	-0.665
807	-0.667
807	-0.671
807	-0.655
808	-0.649
808	-0.641
809	-0.636
809	-0.64
810	-0.642
810	-0.639
810	-0.635
811	-0.639
811	-0.631
812	-0.623
812	-0.622
813	-0.629
813	-0.631
813	-0.627
814	-0.626
814	-0.63
815	-0.624
815	-0.618
816	-0.614
816	-0.629
817	-0.642
817	-0.648
817	-0.655
818	-0.649
818	-0.646
819	-0.655
819	-0.652
820	-0.664
820	-0.666
820	-0.665
821	-0.659
821	-0.653
822	-0.654
822	-0.642
823	-0.651
823	-0.649
823	-0.644
824	-0.643
824	-0.65
825	-0.651
825	-0.649
826	-0.645
826	-0.641
826	-0.637
827	-0.639
827	-0.629
828	-0.631
828	-0.626
829	-0.623
829	-0.611
829	-0.606
830	-0.604
830	-0.592
831	-0.588
831	-0.579
832	-0.573
832	-0.568
832	-0.563
833	-0.562
833	-0.567
834	-0.563
834	-0.559
835	-0.55
835	-0.548
835	-0.546
836	-0.54
836	-0.536
837	-0.53
837	-0.521
838	-0.51
838	-0.493
839	-0.485
839	-0.473
839	-0.469
840	-0.467
840	-0.456
841	-0.45
841	-0.441
842	-0.433
842	-0.423
842	-0.419
843	-0.417
843	-0.414
844	-0.412
844	-0.4
845	-0.39
845	-0.381
845	-0.372
846	-0.365
846	-0.357
847	-0.345
847	-0.336
848	-0.323
848	-0.31
848	-0.301
849	-0.292
849	-0.283
850	-0.276
850	-0.268
851	-0.257
851	-0.243
851	-0.238
852	-0.226
852	-0.216
853	-0.21
853	-0.202
854	-0.193
854	-0.186
854	-0.176
855	-0.167
855	-0.163
856	-0.158
856	-0.151
857	-0.146
857	-0.141
857	-0.13
858	-0.122
858	-0.117
859	-0.108
859	-0.101
860	-0.092
860	-0.081
860	-0.075
861	-0.068
861	-0.062
862	-0.056
862	-0.05
863	-0.045
863	-0.039
863	-0.035
864	-0.031
864	-0.027
865	-0.023
865	-0.019
866	-0.016
866	-0.012
866	-0.009
867	-0.006
867	-0.002
868	-0
868	0.003
869	0.006
869	0.008
869	0.01
870	0.012
870	0.014
871	0.016
871	0.017
872	0.017
872	0.018
872	0.018
873	0.018
873	0.017
874	0.017
874	0.016
875	0.016
875	0.015
875	0.014
876	0.014
876	0.013
877	0.012
877	0.012
878	0.011
878	0.01
878	0.009
879	0.009
879	0.008
880	0.008
880	0.007
881	0.007
881	0.007
881	0.007
882	0.007
882	0.006
883	0.006
883	0.006
884	0.006
884	0.006
884	0.005
885	0.005
885	0.004
886	0.003
886	0.002
887	0.001
887	0
887	-0.001
888	-0.001
888	-0.002
889	-0.003
889	-0.003
890	-0.004
890	-0.004
890	-0.004
891	-0.003
891	-0.003
892	-0.002
892	-0.002
893	-0.002
893	-0.001
893	-0.002
894	-0.001
894	-0.001
895	-0.001
895	-0.001
895	-0.001
896	-0
896	-0
897	-0
897	-0
898	-0
898	0.001
898	0.001
899	0.002
899	0.002
900	0.002
900	0.002
901	0.002
901	0.002
901	0.002
902	0.002
902	0.002
903	0.002
903	0.001
904	0
904	-0
904	-0.001
905	-0.001
905	-0.001
906	-0
906	0
907	0.001
907	0.001
907	0.002
908	0.002
908	0.003
909	0.004
909	0.004
910	0.005
910	0.005
910	0.006
911	0.007
911	0.008
912	0.009
912	0.011
913	0.012
913	0.013
913	0.014
914	0.015
914	0.016
915	0.016
915	0.016
916	0.015
916	0.014
916	0.013
917	0.012
917	0.012
918	0.011
918	0.01
918	0.01
919	0.009
919	0.009
920	0.009
920	0.009
921	0.009
921	0.01
921	0.01
922	0.01
922	0.01
923	0.01
923	0.01
924	0.009
924	0.009
924	0.009
925	0.008
925	0.008
926	0.007
926	0.007
927	0.007
927	0.007
927	0.007
928	0.007
928	0.007
929	0.008
929	0.009
930	0.01
930	0.01
930	0.011
931	0.012
931	0.013
932	0.014
932	0.015
933	0.015
933	0.016
933	0.017
934	0.017
934	0.016
935	0.016
935	0.015
935	0.014
936	0.013
936	0.012
937	0.01
937	0.009
938	0.007
938	0.006
938	0.005
939	0.004
939	0.004
940	0.003
940	0.003
941	0.003
941	0.003
941	0.003
942	0.003
942	0.003
943	0.004
943	0.004
944	0.003
944	0.003
944	0.003
945	0.003
945	0.003
946	0.002
946	0.001
946	0
947	-0.001
947	-0.001
948	-0.002
948	-0.002
949	-0.002
949	-0.002
949	-0.002
950	-0.002
950	-0.001
951	-0.001
951	-0
952	-0
952	0.001
952	0.001
953	0.002
953	0.002
954	0.003
954	0.003
955	0.003
955	0.003
955	0.003
956	0.003
956	0.003
957	0.002
957	0.002
957	0.001
958	0
958	0
959	-0
959	-0.001
960	-0.001
960	-0.001
960	-0.001
961	-0.001
961	-0.001
962	-0.002
962	-0.002
963	-0.002
963	-0.002
963	-0.002
964	-0.001
964	-0.001
965	-0.001
965	-0.001
966	-0
966	0
966	0.001
967	0.001
967	0.002
968	0.002
968	0.002
968	0.002
969	0.002
969	0.001
970	0
970	-0.001
971	-0.001
971	-0.002
971	-0.003
972	-0.003
972	-0.003
973	-0.003
973	-0.003
974	-0.003
974	-0.002
974	-0.001
975	0
975	0.002
976	0.003
976	0.004
976	0.004
977	0.005
977	0.005
978	0.005
978	0.005
979	0.005
979	0.005
979	0.004
980	0.004
980	0.003
981	0.003
981	0.002
982	0.002
982	0.002
982	0.002
983	0.002
983	0.002
984	0.002
984	0.002
984	0.002
985	0.002
985	0.002
986	0.002
986	0.002
987	0.002
987	0.001
987	0.001
988	0.001
988	0.001
989	0
989	-0
990	-0.001
990	-0.002
990	-0.002
991	-0.002
991	-0.002
992	-0.003
992	-0.003
992	-0.003
993	-0.003
993	-0.003
994	-0.004
994	-0.004
995	-0.004
995	-0.004
995	-0.005
996	-0.005
996	-0.006
997	-0.006
997	-0.006
997	-0.006
998	-0.006
998	-0.006
999	-0.006
999	-0.006
1000	-0.006
1000	-0.006
1000	-0.006
1001	-0.005
1001	-0.005
1002	-0.004
1002	-0.004
1003	-0.004
1003	-0.004
1003	-0.004
1004	-0.004
1004	-0.005
1005	-0.005
1005	-0.006
1005	-0.007
1006	-0.008
1006	-0.009
1007	-0.009
1007	-0.01
1008	-0.011
1008	-0.012
1008	-0.012
1009	-0.012
1009	-0.011
1010	-0.011
1010	-0.01
1010	-0.01
1011	-0.01
1011	-0.009
1012	-0.009
1012	-0.008
1013	-0.007
1013	-0.007
1013	-0.007
1014	-0.006
1014	-0.006
1015	-0.006
1015	-0.005
1016	-0.005
1016	-0.005
1016	-0.005
1017	-0.005
1017	-0.005
1018	-0.005
1018	-0.004
1018	-0.004
1019	-0.004
1019	-0.005
1020	-0.005
1020	-0.005
1021	-0.006
1021	-0.006
1021	-0.007
1022	-0.007
1022	-0.008
1023	-0.009
1023	-0.01
1023	-0.01
1024	-0.011
1024	-0.012
1025	-0.012
1025	-0.013
1026	-0.014
1026	-0.014
1026	-0.015
1027	-0.015
1027	-0.016
1028	-0.015
1028	-0.015
1028	-0.015
1029	-0.015
1029	-0.015
1030	-0.015
1030	-0.016
1031	-0.016
1031	-0.015
1031	-0.015
1032	-0.015
1032	-0.015
1033	-0.015
1033	-0.015
1033	-0.015
1034	-0.015
1034	-0.016
1035	-0.015
1035	-0.015
1036	-0.016
1036	-0.016
1036	-0.015
1037	-0.015
1037	-0.015
1038	-0.014
1038	-0.014
1039	-0.013
1039	-0.012
1039	-0.011
1040	-0.011
1040	-0.011
1041	-0.011
1041	-0.011
1041	-0.011
1042	-0.012
1042	-0.013
1043	-0.014
1043	-0.015
1044	-0.016
1044	-0.017
1044	-0.018
1045	-0.019
1045	-0.02
1046	-0.021
1046	-0.021
1046	-0.021
1047	-0.021
1047	-0.021
1048	-0.021
1048	-0.021
1049	-0.021
1049	-0.022
1049	-0.022
1050	-0.022
1050	-0.023
1051	-0.024
1051	-0.024
1051	-0.025
1052	-0.025
1052	-0.026
1053	-0.026
1053	-0.027
1053	-0.026
1054	-0.027
1054	-0.027
1055	-0.026
1055	-0.026
1056	-0.026
1056	-0.026
1056	-0.027
1057	-0.027
1057	-0.027
1058	-0.028
1058	-0.028
1058	-0.028
1059	-0.028
1059	-0.028
1060	-0.028
1060	-0.028
1061	-0.028
1061	-0.028
1061	-0.027
1062	-0.027
1062	-0.027
1063	-0.027
1063	-0.027
1063	-0.027
1064	-0.028
1064	-0.028
1065	-0.028
1065	-0.028
1066	-0.028
1066	-0.029
1066	-0.029
1067	-0.029
1067	-0.03
1068	-0.03
1068	-0.03
1068	-0.03
1069	-0.031
1069	-0.032
1070	-0.032
1070	-0.033
1071	-0.033
1071	-0.033
1071	-0.033
1072	-0.033
1072	-0.033
1073	-0.033
1073	-0.032
1073	-0.032
1074	-0.031
1074	-0.031
1075	-0.031
1075	-0.031
1076	-0.032
1076	-0.031
1076	-0.032
1077	-0.033
1077	-0.033
1078	-0.034
1078	-0.035
1078	-0.035
1079	-0.036
1079	-0.036
1080	-0.037
1080	-0.037
1080	-0.038
1081	-0.039
1081	-0.039
1082	-0.039
1082	-0.04
1083	-0.04
1083	-0.041
1083	-0.042
1084	-0.042
1084	-0.042
1085	-0.043
1085	-0.043
1085	-0.043
1086	-0.044
1086	-0.044
1087	-0.044
1087	-0.045
1088	-0.045
1088	-0.046
1088	-0.046
1089	-0.048
1089	-0.048
1090	-0.049
1090	-0.049
1090	-0.051
1091	-0.052
1091	-0.052
1092	-0.052
1092	-0.053
1092	-0.053
1093	-0.054
1093	-0.054
1094	-0.055
1094	-0.056
1095	-0.057
1095	-0.057
1095	-0.057
1096	-0.059
1096	-0.06
1097	-0.061
1097	-0.062
1097	-0.063
1098	-0.064
1098	-0.066
1099	-0.066
1099	-0.066
1100	-0.068
1100	-0.07
1100	-0.071
1101	-0.073
1101	-0.075
1102	-0.077
1102	-0.078
1102	-0.079
1103	-0.081
1103	-0.083
1104	-0.087
1104	-0.089
1104	-0.09
1105	-0.091
1105	-0.093
1106	-0.096
1106	-0.097
1107	-0.102
1107	-0.106
1107	-0.109
1108	-0.111
1108	-0.112
1109	-0.114
1109	-0.118
1109	-0.122
1110	-0.123
1110	-0.126
1111	-0.133
1111	-0.133
