Data from 3.5A_17C_Absorbance__754__00756.txt Node

Date: Tue Jun 20 15:23:48 CEST 2023
User: Marek
Spectrometer: MAYP115816
Trigger mode: 0
Integration Time (sec): 2.200000E-1
Scans to average: 10
Electric dark correction enabled: true
Nonlinearity correction enabled: true
Boxcar width: 5
XAxis mode: Wavelengths
Number of Pixels in Spectrum: 2068
>>>>>Begin Spectral Data<<<<<
199	-0.694
199	-0.684
200	-0.652
200	-0.599
201	-0.571
201	-0.563
202	-0.547
202	-0.54
203	-0.54
203	-0.535
204	-0.517
204	-0.502
205	-0.478
205	-0.47
205	-0.479
206	-0.48
206	-0.476
207	-0.469
207	-0.477
208	-0.477
208	-0.479
209	-0.48
209	-0.488
210	-0.5
210	-0.505
211	-0.499
211	-0.504
212	-0.512
212	-0.518
213	-0.512
213	-0.507
213	-0.505
214	-0.513
214	-0.515
215	-0.51
215	-0.515
216	-0.523
216	-0.527
217	-0.527
217	-0.528
218	-0.536
218	-0.541
219	-0.547
219	-0.547
220	-0.549
220	-0.557
221	-0.556
221	-0.556
221	-0.548
222	-0.546
222	-0.545
223	-0.541
223	-0.543
224	-0.544
224	-0.543
225	-0.542
225	-0.544
226	-0.545
226	-0.544
227	-0.552
227	-0.561
228	-0.566
228	-0.575
229	-0.578
229	-0.576
229	-0.575
230	-0.571
230	-0.57
231	-0.566
231	-0.562
232	-0.564
232	-0.56
233	-0.558
233	-0.545
234	-0.547
234	-0.541
235	-0.544
235	-0.556
236	-0.563
236	-0.565
236	-0.565
237	-0.564
237	-0.565
238	-0.568
238	-0.57
239	-0.571
239	-0.58
240	-0.575
240	-0.57
241	-0.566
241	-0.57
242	-0.574
242	-0.582
243	-0.582
243	-0.584
243	-0.589
244	-0.585
244	-0.589
245	-0.592
245	-0.595
246	-0.604
246	-0.604
247	-0.612
247	-0.599
248	-0.598
248	-0.598
249	-0.603
249	-0.606
250	-0.604
250	-0.613
250	-0.611
251	-0.611
251	-0.609
252	-0.61
252	-0.621
253	-0.615
253	-0.629
254	-0.633
254	-0.632
255	-0.643
255	-0.639
256	-0.641
256	-0.652
257	-0.662
257	-0.659
258	-0.66
258	-0.667
258	-0.665
259	-0.658
259	-0.676
260	-0.674
260	-0.664
261	-0.674
261	-0.661
262	-0.665
262	-0.662
263	-0.652
263	-0.658
264	-0.666
264	-0.668
265	-0.658
265	-0.663
265	-0.671
266	-0.662
266	-0.662
267	-0.662
267	-0.678
268	-0.687
268	-0.682
269	-0.674
269	-0.688
270	-0.694
270	-0.689
271	-0.704
271	-0.714
272	-0.716
272	-0.72
272	-0.713
273	-0.722
273	-0.737
274	-0.731
274	-0.725
275	-0.721
275	-0.71
276	-0.713
276	-0.718
277	-0.72
277	-0.717
278	-0.721
278	-0.722
278	-0.708
279	-0.715
279	-0.728
280	-0.73
280	-0.741
281	-0.735
281	-0.728
282	-0.733
282	-0.726
283	-0.719
283	-0.731
284	-0.745
284	-0.755
285	-0.737
285	-0.744
285	-0.737
286	-0.742
286	-0.756
287	-0.753
287	-0.751
288	-0.749
288	-0.733
289	-0.732
289	-0.741
290	-0.749
290	-0.737
291	-0.739
291	-0.737
292	-0.719
292	-0.717
292	-0.723
293	-0.712
293	-0.708
294	-0.707
294	-0.692
295	-0.675
295	-0.687
296	-0.699
296	-0.695
297	-0.684
297	-0.689
298	-0.684
298	-0.701
298	-0.704
299	-0.687
299	-0.682
300	-0.678
300	-0.659
301	-0.64
301	-0.643
302	-0.652
302	-0.635
303	-0.63
303	-0.619
304	-0.603
304	-0.605
305	-0.596
305	-0.605
305	-0.621
306	-0.607
306	-0.604
307	-0.598
307	-0.611
308	-0.613
308	-0.607
309	-0.608
309	-0.603
310	-0.6
310	-0.594
311	-0.58
311	-0.596
311	-0.586
312	-0.582
312	-0.571
313	-0.563
313	-0.564
314	-0.57
314	-0.568
315	-0.568
315	-0.563
316	-0.557
316	-0.548
317	-0.538
317	-0.535
318	-0.527
318	-0.526
318	-0.518
319	-0.507
319	-0.5
320	-0.498
320	-0.496
321	-0.489
321	-0.489
322	-0.481
322	-0.473
323	-0.472
323	-0.461
324	-0.459
324	-0.449
324	-0.436
325	-0.421
325	-0.404
326	-0.397
326	-0.374
327	-0.362
327	-0.341
328	-0.31
328	-0.29
329	-0.261
329	-0.233
330	-0.205
330	-0.17
330	-0.136
331	-0.099
331	-0.065
332	-0.032
332	-0.002
333	0.025
333	0.057
334	0.084
334	0.107
335	0.132
335	0.152
336	0.172
336	0.191
336	0.205
337	0.22
337	0.235
338	0.248
338	0.258
339	0.27
339	0.28
340	0.287
340	0.294
341	0.3
341	0.305
342	0.311
342	0.316
342	0.321
343	0.324
343	0.328
344	0.331
344	0.333
345	0.336
345	0.338
346	0.34
346	0.342
347	0.343
347	0.345
348	0.346
348	0.347
348	0.348
349	0.349
349	0.349
350	0.35
350	0.35
351	0.35
351	0.351
352	0.351
352	0.351
353	0.351
353	0.351
354	0.351
354	0.351
354	0.351
355	0.351
355	0.351
356	0.351
356	0.351
357	0.351
357	0.351
358	0.35
358	0.351
359	0.35
359	0.35
360	0.35
360	0.351
360	0.351
361	0.35
361	0.35
362	0.35
362	0.35
363	0.35
363	0.35
364	0.35
364	0.35
365	0.35
365	0.349
366	0.349
366	0.349
366	0.349
367	0.349
367	0.348
368	0.348
368	0.348
369	0.348
369	0.347
370	0.347
370	0.347
371	0.347
371	0.346
372	0.346
372	0.346
372	0.346
373	0.345
373	0.345
374	0.345
374	0.345
375	0.344
375	0.344
376	0.344
376	0.343
377	0.343
377	0.343
378	0.342
378	0.342
378	0.342
379	0.341
379	0.341
380	0.341
380	0.341
381	0.34
381	0.34
382	0.34
382	0.339
383	0.339
383	0.339
383	0.338
384	0.338
384	0.338
385	0.337
385	0.337
386	0.336
386	0.336
387	0.336
387	0.335
388	0.335
388	0.335
389	0.334
389	0.334
389	0.334
390	0.334
390	0.334
391	0.333
391	0.333
392	0.333
392	0.333
393	0.332
393	0.332
394	0.332
394	0.331
394	0.331
395	0.33
395	0.33
396	0.329
396	0.329
397	0.328
397	0.328
398	0.328
398	0.327
399	0.327
399	0.327
400	0.327
400	0.326
400	0.326
401	0.326
401	0.326
402	0.325
402	0.325
403	0.325
403	0.325
404	0.324
404	0.324
405	0.323
405	0.323
405	0.322
406	0.322
406	0.322
407	0.321
407	0.321
408	0.321
408	0.321
409	0.321
409	0.321
410	0.321
410	0.321
411	0.321
411	0.32
411	0.32
412	0.32
412	0.319
413	0.319
413	0.319
414	0.318
414	0.318
415	0.318
415	0.317
416	0.317
416	0.317
416	0.316
417	0.316
417	0.316
418	0.316
418	0.316
419	0.316
419	0.316
420	0.316
420	0.316
421	0.315
421	0.315
421	0.315
422	0.315
422	0.315
423	0.315
423	0.314
424	0.314
424	0.314
425	0.313
425	0.313
426	0.313
426	0.313
427	0.313
427	0.313
427	0.313
428	0.313
428	0.313
429	0.313
429	0.313
430	0.312
430	0.312
431	0.312
431	0.311
432	0.311
432	0.311
432	0.311
433	0.311
433	0.311
434	0.311
434	0.311
435	0.311
435	0.311
436	0.311
436	0.311
437	0.311
437	0.311
437	0.311
438	0.311
438	0.311
439	0.311
439	0.31
440	0.31
440	0.31
441	0.31
441	0.31
442	0.31
442	0.31
442	0.31
443	0.31
443	0.31
444	0.31
444	0.31
445	0.31
445	0.31
446	0.31
446	0.31
447	0.31
447	0.31
447	0.31
448	0.31
448	0.31
449	0.31
449	0.31
450	0.311
450	0.31
451	0.31
451	0.31
452	0.31
452	0.31
452	0.311
453	0.311
453	0.311
454	0.311
454	0.311
455	0.311
455	0.311
456	0.312
456	0.312
457	0.312
457	0.312
458	0.312
458	0.312
458	0.312
459	0.312
459	0.312
460	0.312
460	0.312
461	0.312
461	0.312
462	0.313
462	0.314
463	0.314
463	0.315
463	0.315
464	0.316
464	0.316
465	0.317
465	0.317
466	0.317
466	0.318
467	0.318
467	0.319
467	0.319
468	0.319
468	0.319
469	0.32
469	0.32
470	0.321
470	0.322
471	0.322
471	0.323
472	0.323
472	0.324
472	0.325
473	0.326
473	0.326
474	0.327
474	0.328
475	0.329
475	0.33
476	0.33
476	0.331
477	0.332
477	0.333
477	0.334
478	0.334
478	0.335
479	0.336
479	0.337
480	0.338
480	0.339
481	0.34
481	0.341
482	0.342
482	0.344
482	0.345
483	0.347
483	0.349
484	0.35
484	0.351
485	0.352
485	0.354
486	0.355
486	0.356
487	0.358
487	0.359
487	0.361
488	0.362
488	0.363
489	0.365
489	0.367
490	0.369
490	0.371
491	0.373
491	0.375
492	0.377
492	0.379
492	0.381
493	0.382
493	0.385
494	0.387
494	0.389
495	0.392
495	0.394
496	0.396
496	0.398
496	0.401
497	0.403
497	0.406
498	0.408
498	0.411
499	0.413
499	0.417
500	0.42
500	0.423
501	0.426
501	0.428
501	0.431
502	0.433
502	0.436
503	0.439
503	0.442
504	0.444
504	0.447
505	0.45
505	0.453
506	0.456
506	0.459
506	0.462
507	0.465
507	0.468
508	0.471
508	0.475
509	0.478
509	0.481
510	0.484
510	0.486
511	0.489
511	0.492
511	0.495
512	0.498
512	0.5
513	0.502
513	0.505
514	0.508
514	0.511
515	0.514
515	0.516
515	0.518
516	0.521
516	0.523
517	0.525
517	0.528
518	0.53
518	0.531
519	0.533
519	0.534
520	0.536
520	0.538
520	0.54
521	0.541
521	0.542
522	0.544
522	0.545
523	0.546
523	0.547
524	0.548
524	0.549
524	0.549
525	0.55
525	0.55
526	0.551
526	0.552
527	0.552
527	0.553
528	0.553
528	0.553
529	0.553
529	0.552
529	0.552
530	0.552
530	0.551
531	0.55
531	0.55
532	0.548
532	0.547
533	0.546
533	0.545
533	0.544
534	0.543
534	0.541
535	0.54
535	0.539
536	0.537
536	0.535
537	0.533
537	0.531
538	0.529
538	0.527
538	0.525
539	0.523
539	0.521
540	0.518
540	0.515
541	0.513
541	0.51
542	0.508
542	0.505
542	0.502
543	0.499
543	0.496
544	0.493
544	0.49
545	0.487
545	0.484
546	0.481
546	0.477
547	0.474
547	0.47
547	0.467
548	0.464
548	0.46
549	0.457
549	0.454
550	0.451
550	0.447
551	0.442
551	0.439
551	0.435
552	0.432
552	0.428
553	0.425
553	0.421
554	0.418
554	0.414
555	0.41
555	0.406
556	0.403
556	0.399
556	0.396
557	0.393
557	0.39
558	0.386
558	0.383
559	0.379
559	0.376
560	0.373
560	0.37
560	0.367
561	0.364
561	0.362
562	0.358
562	0.355
563	0.352
563	0.349
564	0.347
564	0.344
564	0.341
565	0.339
565	0.336
566	0.334
566	0.331
567	0.328
567	0.326
568	0.323
568	0.319
568	0.316
569	0.313
569	0.31
570	0.306
570	0.302
571	0.3
571	0.298
572	0.295
572	0.292
573	0.289
573	0.287
573	0.284
574	0.282
574	0.28
575	0.278
575	0.277
576	0.275
576	0.272
577	0.269
577	0.267
577	0.266
578	0.265
578	0.264
579	0.263
579	0.261
580	0.259
580	0.256
581	0.253
581	0.251
581	0.25
582	0.249
582	0.248
583	0.246
583	0.244
584	0.24
584	0.237
585	0.235
585	0.234
585	0.232
586	0.23
586	0.228
587	0.225
587	0.223
588	0.221
588	0.219
589	0.218
589	0.217
590	0.216
590	0.214
590	0.214
591	0.214
591	0.212
592	0.21
592	0.209
593	0.208
593	0.207
594	0.206
594	0.204
594	0.204
595	0.203
595	0.201
596	0.2
596	0.2
597	0.2
597	0.199
598	0.198
598	0.197
598	0.196
599	0.195
599	0.194
600	0.192
600	0.191
601	0.191
601	0.189
602	0.188
602	0.187
602	0.185
603	0.184
603	0.184
604	0.183
604	0.182
605	0.182
605	0.181
606	0.18
606	0.178
606	0.177
607	0.176
607	0.176
608	0.175
608	0.173
609	0.172
609	0.172
610	0.17
610	0.169
610	0.168
611	0.168
611	0.168
612	0.167
612	0.167
613	0.167
613	0.167
614	0.166
614	0.164
614	0.163
615	0.162
615	0.162
616	0.161
616	0.16
617	0.159
617	0.158
618	0.157
618	0.156
618	0.155
619	0.154
619	0.154
620	0.154
620	0.153
621	0.152
621	0.151
622	0.15
622	0.149
622	0.148
623	0.147
623	0.147
624	0.146
624	0.145
625	0.144
625	0.144
626	0.143
626	0.142
626	0.141
627	0.14
627	0.139
628	0.138
628	0.137
629	0.135
629	0.134
630	0.132
630	0.13
630	0.129
631	0.127
631	0.125
632	0.123
632	0.122
633	0.12
633	0.119
634	0.117
634	0.116
634	0.115
635	0.113
635	0.112
636	0.11
636	0.109
637	0.107
637	0.105
638	0.103
638	0.101
638	0.099
639	0.097
639	0.094
640	0.092
640	0.09
641	0.087
641	0.085
642	0.082
642	0.08
642	0.077
643	0.074
643	0.07
644	0.066
644	0.063
645	0.059
645	0.055
646	0.051
646	0.046
646	0.042
647	0.037
647	0.032
648	0.027
648	0.021
649	0.016
649	0.011
650	0.006
650	0.001
650	-0.004
651	-0.011
651	-0.019
652	-0.029
652	-0.04
653	-0.049
653	-0.057
653	-0.053
654	-0.039
654	-0.036
655	-0.041
655	-0.044
656	-0.049
656	-0.054
657	-0.058
657	-0.061
657	-0.066
658	-0.072
658	-0.098
659	-0.167
659	-0.24
660	-0.272
660	-0.294
661	-0.317
661	-0.342
661	-0.369
662	-0.394
662	-0.42
663	-0.451
663	-0.484
664	-0.516
664	-0.552
665	-0.595
665	-0.638
665	-0.68
666	-0.727
666	-0.779
667	-0.83
667	-0.89
668	-0.946
668	-1.012
669	-1.078
669	-1.149
669	-1.225
670	-1.304
670	-1.412
671	-1.574
671	-1.893
672	-2.218
672	-2.411
672	-2.547
673	-2.653
673	-2.74
674	-2.786
674	-2.8
675	-2.815
675	-2.82
676	-2.819
676	-2.787
676	-2.711
677	-2.617
677	-2.5
678	-2.317
678	-1.974
679	-1.614
679	-1.458
680	-1.359
680	-1.285
680	-1.22
681	-1.175
681	-1.124
682	-1.084
682	-1.042
683	-1.001
683	-0.98
684	-0.954
684	-0.936
684	-0.915
685	-0.896
685	-0.887
686	-0.866
686	-0.853
687	-0.844
687	-0.835
687	-0.834
688	-0.82
688	-0.814
689	-0.818
689	-0.817
690	-0.806
690	-0.797
691	-0.795
691	-0.8
691	-0.801
692	-0.801
692	-0.798
693	-0.804
693	-0.812
694	-0.793
694	-0.792
695	-0.793
695	-0.786
695	-0.792
696	-0.796
696	-0.79
697	-0.784
697	-0.781
698	-0.775
698	-0.771
698	-0.784
699	-0.784
699	-0.784
700	-0.805
700	-0.801
701	-0.789
701	-0.783
702	-0.783
702	-0.781
702	-0.783
703	-0.773
703	-0.758
704	-0.763
704	-0.768
705	-0.758
705	-0.757
705	-0.752
706	-0.744
706	-0.74
707	-0.752
707	-0.755
708	-0.753
708	-0.752
709	-0.754
709	-0.751
709	-0.746
710	-0.754
710	-0.758
711	-0.758
711	-0.76
712	-0.752
712	-0.747
713	-0.752
713	-0.752
713	-0.733
714	-0.734
714	-0.737
715	-0.728
715	-0.735
716	-0.75
716	-0.758
716	-0.758
717	-0.764
717	-0.756
718	-0.751
718	-0.755
719	-0.752
719	-0.744
720	-0.74
720	-0.737
720	-0.73
721	-0.72
721	-0.723
722	-0.721
722	-0.716
723	-0.731
723	-0.743
723	-0.75
724	-0.748
724	-0.753
725	-0.745
725	-0.749
726	-0.754
726	-0.746
727	-0.748
727	-0.757
727	-0.749
728	-0.734
728	-0.731
729	-0.733
729	-0.737
730	-0.744
730	-0.737
730	-0.742
731	-0.744
731	-0.744
732	-0.746
732	-0.74
733	-0.756
733	-0.762
734	-0.771
734	-0.76
734	-0.74
735	-0.728
735	-0.723
736	-0.722
736	-0.718
737	-0.718
737	-0.707
737	-0.699
738	-0.687
738	-0.675
739	-0.682
739	-0.685
740	-0.7
740	-0.7
741	-0.71
741	-0.719
741	-0.73
742	-0.737
742	-0.753
743	-0.76
743	-0.763
744	-0.764
744	-0.772
744	-0.767
745	-0.776
745	-0.765
746	-0.76
746	-0.75
747	-0.752
747	-0.743
748	-0.744
748	-0.749
748	-0.752
749	-0.744
749	-0.75
750	-0.739
750	-0.741
751	-0.739
751	-0.736
751	-0.749
752	-0.752
752	-0.755
753	-0.755
753	-0.746
754	-0.764
754	-0.765
754	-0.772
755	-0.773
755	-0.765
756	-0.769
756	-0.752
757	-0.744
757	-0.733
758	-0.735
758	-0.736
758	-0.735
759	-0.737
759	-0.738
760	-0.736
760	-0.74
761	-0.732
761	-0.735
761	-0.738
762	-0.744
762	-0.746
763	-0.746
763	-0.748
764	-0.748
764	-0.744
764	-0.75
765	-0.749
765	-0.756
766	-0.761
766	-0.761
767	-0.774
767	-0.767
768	-0.764
768	-0.756
768	-0.751
769	-0.755
769	-0.761
770	-0.77
770	-0.774
771	-0.771
771	-0.771
771	-0.777
772	-0.78
772	-0.801
773	-0.802
773	-0.803
774	-0.801
774	-0.784
775	-0.772
775	-0.772
775	-0.775
776	-0.785
776	-0.781
777	-0.782
777	-0.764
778	-0.773
778	-0.782
778	-0.78
779	-0.789
779	-0.804
780	-0.798
780	-0.807
781	-0.796
781	-0.785
781	-0.799
782	-0.819
782	-0.82
783	-0.818
783	-0.828
784	-0.833
784	-0.826
784	-0.847
785	-0.84
785	-0.853
786	-0.86
786	-0.853
787	-0.843
787	-0.851
788	-0.844
788	-0.838
788	-0.838
789	-0.837
789	-0.827
790	-0.825
790	-0.809
791	-0.814
791	-0.81
791	-0.804
792	-0.797
792	-0.801
793	-0.802
793	-0.789
794	-0.783
794	-0.776
794	-0.784
795	-0.803
795	-0.79
796	-0.796
796	-0.791
797	-0.786
797	-0.776
797	-0.771
798	-0.791
798	-0.795
799	-0.795
799	-0.781
800	-0.777
800	-0.785
801	-0.783
801	-0.787
801	-0.784
802	-0.783
802	-0.782
803	-0.779
803	-0.772
804	-0.779
804	-0.785
804	-0.769
805	-0.752
805	-0.745
806	-0.746
806	-0.741
807	-0.746
807	-0.745
807	-0.725
808	-0.719
808	-0.714
809	-0.709
809	-0.709
810	-0.711
810	-0.707
810	-0.703
811	-0.707
811	-0.697
812	-0.689
812	-0.692
813	-0.698
813	-0.698
813	-0.696
814	-0.697
814	-0.701
815	-0.692
815	-0.686
816	-0.684
816	-0.701
817	-0.714
817	-0.718
817	-0.727
818	-0.718
818	-0.715
819	-0.724
819	-0.722
820	-0.735
820	-0.736
820	-0.734
821	-0.729
821	-0.725
822	-0.724
822	-0.712
823	-0.724
823	-0.722
823	-0.718
824	-0.716
824	-0.723
825	-0.721
825	-0.72
826	-0.715
826	-0.71
826	-0.706
827	-0.706
827	-0.696
828	-0.696
828	-0.69
829	-0.684
829	-0.671
829	-0.668
830	-0.665
830	-0.653
831	-0.647
831	-0.641
832	-0.632
832	-0.629
832	-0.622
833	-0.623
833	-0.629
834	-0.625
834	-0.619
835	-0.612
835	-0.611
835	-0.608
836	-0.604
836	-0.6
837	-0.59
837	-0.583
838	-0.569
838	-0.552
839	-0.545
839	-0.536
839	-0.526
840	-0.524
840	-0.512
841	-0.503
841	-0.497
842	-0.488
842	-0.476
842	-0.474
843	-0.472
843	-0.468
844	-0.464
844	-0.455
845	-0.443
845	-0.435
845	-0.423
846	-0.412
846	-0.404
847	-0.393
847	-0.382
848	-0.368
848	-0.351
848	-0.339
849	-0.327
849	-0.317
850	-0.308
850	-0.299
851	-0.288
851	-0.273
851	-0.265
852	-0.251
852	-0.239
853	-0.233
853	-0.223
854	-0.214
854	-0.204
854	-0.193
855	-0.184
855	-0.177
856	-0.171
856	-0.163
857	-0.157
857	-0.15
857	-0.138
858	-0.129
858	-0.122
859	-0.114
859	-0.103
860	-0.094
860	-0.082
860	-0.073
861	-0.065
861	-0.057
862	-0.05
862	-0.044
863	-0.037
863	-0.03
863	-0.025
864	-0.02
864	-0.014
865	-0.01
865	-0.005
866	-0.001
866	0.003
866	0.006
867	0.01
867	0.014
868	0.017
868	0.021
869	0.025
869	0.027
869	0.03
870	0.032
870	0.034
871	0.036
871	0.037
872	0.038
872	0.038
872	0.039
873	0.039
873	0.039
874	0.038
874	0.038
875	0.038
875	0.037
875	0.037
876	0.037
876	0.036
877	0.035
877	0.035
878	0.034
878	0.033
878	0.032
879	0.032
879	0.031
880	0.03
880	0.029
881	0.028
881	0.028
881	0.027
882	0.027
882	0.026
883	0.026
883	0.025
884	0.025
884	0.025
884	0.025
885	0.025
885	0.025
886	0.024
886	0.024
887	0.023
887	0.022
887	0.022
888	0.021
888	0.02
889	0.02
889	0.019
890	0.018
890	0.018
890	0.018
891	0.017
891	0.017
892	0.018
892	0.018
893	0.018
893	0.018
893	0.017
894	0.017
894	0.017
895	0.017
895	0.017
895	0.018
896	0.018
896	0.018
897	0.019
897	0.019
898	0.02
898	0.02
898	0.02
899	0.021
899	0.022
900	0.021
900	0.021
901	0.022
901	0.022
901	0.022
902	0.022
902	0.022
903	0.022
903	0.022
904	0.021
904	0.021
904	0.02
905	0.02
905	0.02
906	0.02
906	0.021
907	0.021
907	0.021
907	0.021
908	0.022
908	0.023
909	0.023
909	0.024
910	0.025
910	0.026
910	0.026
911	0.027
911	0.029
912	0.03
912	0.032
913	0.033
913	0.034
913	0.035
914	0.036
914	0.036
915	0.036
915	0.036
916	0.036
916	0.035
916	0.034
917	0.033
917	0.032
918	0.032
918	0.031
918	0.031
919	0.03
919	0.03
920	0.03
920	0.03
921	0.03
921	0.029
921	0.029
922	0.029
922	0.029
923	0.029
923	0.028
924	0.028
924	0.028
924	0.027
925	0.027
925	0.027
926	0.027
926	0.027
927	0.027
927	0.027
927	0.027
928	0.027
928	0.028
929	0.028
929	0.029
930	0.029
930	0.03
930	0.031
931	0.031
931	0.032
932	0.032
932	0.033
933	0.033
933	0.033
933	0.033
934	0.032
934	0.032
935	0.031
935	0.03
935	0.029
936	0.027
936	0.025
937	0.024
937	0.022
938	0.022
938	0.02
938	0.019
939	0.019
939	0.018
940	0.018
940	0.018
941	0.017
941	0.017
941	0.017
942	0.017
942	0.017
943	0.017
943	0.017
944	0.017
944	0.017
944	0.017
945	0.017
945	0.017
946	0.017
946	0.016
946	0.016
947	0.016
947	0.015
948	0.015
948	0.015
949	0.014
949	0.014
949	0.015
950	0.015
950	0.015
951	0.016
951	0.016
952	0.016
952	0.017
952	0.018
953	0.018
953	0.018
954	0.019
954	0.018
955	0.019
955	0.019
955	0.019
956	0.018
956	0.018
957	0.017
957	0.017
957	0.016
958	0.016
958	0.016
959	0.015
959	0.015
960	0.014
960	0.014
960	0.014
961	0.014
961	0.014
962	0.014
962	0.014
963	0.014
963	0.014
963	0.014
964	0.014
964	0.014
965	0.015
965	0.015
966	0.015
966	0.015
966	0.015
967	0.015
967	0.015
968	0.015
968	0.015
968	0.015
969	0.014
969	0.014
970	0.013
970	0.012
971	0.011
971	0.011
971	0.01
972	0.01
972	0.01
973	0.01
973	0.01
974	0.011
974	0.012
974	0.013
975	0.014
975	0.015
976	0.016
976	0.017
976	0.018
977	0.018
977	0.019
978	0.019
978	0.019
979	0.019
979	0.018
979	0.018
980	0.018
980	0.017
981	0.017
981	0.016
982	0.016
982	0.016
982	0.016
983	0.016
983	0.016
984	0.016
984	0.016
984	0.016
985	0.016
985	0.016
986	0.015
986	0.015
987	0.014
987	0.013
987	0.013
988	0.012
988	0.011
989	0.011
989	0.01
990	0.009
990	0.008
990	0.008
991	0.008
991	0.008
992	0.008
992	0.008
992	0.008
993	0.008
993	0.007
994	0.007
994	0.007
995	0.007
995	0.007
995	0.007
996	0.007
996	0.006
997	0.005
997	0.005
997	0.005
998	0.005
998	0.005
999	0.005
999	0.005
1000	0.005
1000	0.005
1000	0.005
1001	0.006
1001	0.006
1002	0.006
1002	0.006
1003	0.007
1003	0.006
1003	0.006
1004	0.006
1004	0.005
1005	0.005
1005	0.004
1005	0.004
1006	0.003
1006	0.003
1007	0.002
1007	0.002
1008	0.001
1008	0.001
1008	0.001
1009	0.001
1009	0.002
1010	0.002
1010	0.003
1010	0.003
1011	0.003
1011	0.003
1012	0.004
1012	0.004
1013	0.005
1013	0.005
1013	0.005
1014	0.005
1014	0.005
1015	0.006
1015	0.006
1016	0.006
1016	0.006
1016	0.006
1017	0.006
1017	0.006
1018	0.006
1018	0.006
1018	0.006
1019	0.005
1019	0.005
1020	0.004
1020	0.004
1021	0.004
1021	0.003
1021	0.003
1022	0.002
1022	0.001
1023	0
1023	-0
1023	-0.001
1024	-0.001
1024	-0.002
1025	-0.002
1025	-0.003
1026	-0.003
1026	-0.003
1026	-0.004
1027	-0.004
1027	-0.004
1028	-0.003
1028	-0.003
1028	-0.003
1029	-0.003
1029	-0.002
1030	-0.003
1030	-0.003
1031	-0.003
1031	-0.003
1031	-0.003
1032	-0.003
1032	-0.003
1033	-0.004
1033	-0.004
1033	-0.004
1034	-0.005
1034	-0.005
1035	-0.004
1035	-0.004
1036	-0.005
1036	-0.005
1036	-0.005
1037	-0.004
1037	-0.004
1038	-0.003
1038	-0.002
1039	-0.002
1039	-0.001
1039	-0.001
1040	-0
1040	0
1041	0
1041	0
1041	-0
1042	-0.001
1042	-0.001
1043	-0.002
1043	-0.003
1044	-0.004
1044	-0.005
1044	-0.006
1045	-0.007
1045	-0.008
1046	-0.009
1046	-0.009
1046	-0.01
1047	-0.01
1047	-0.01
1048	-0.01
1048	-0.01
1049	-0.01
1049	-0.011
1049	-0.011
1050	-0.011
1050	-0.012
1051	-0.013
1051	-0.014
1051	-0.014
1052	-0.015
1052	-0.016
1053	-0.016
1053	-0.017
1053	-0.017
1054	-0.017
1054	-0.017
1055	-0.017
1055	-0.016
1056	-0.017
1056	-0.017
1056	-0.017
1057	-0.017
1057	-0.017
1058	-0.018
1058	-0.018
1058	-0.018
1059	-0.018
1059	-0.018
1060	-0.019
1060	-0.018
1061	-0.018
1061	-0.018
1061	-0.017
1062	-0.018
1062	-0.018
1063	-0.017
1063	-0.018
1063	-0.018
1064	-0.018
1064	-0.018
1065	-0.018
1065	-0.018
1066	-0.019
1066	-0.019
1066	-0.019
1067	-0.019
1067	-0.02
1068	-0.02
1068	-0.021
1068	-0.021
1069	-0.022
1069	-0.022
1070	-0.023
1070	-0.023
1071	-0.023
1071	-0.023
1071	-0.024
1072	-0.024
1072	-0.024
1073	-0.023
1073	-0.023
1073	-0.023
1074	-0.023
1074	-0.023
1075	-0.023
1075	-0.023
1076	-0.024
1076	-0.024
1076	-0.025
1077	-0.026
1077	-0.027
1078	-0.028
1078	-0.029
1078	-0.029
1079	-0.03
1079	-0.03
1080	-0.031
1080	-0.032
1080	-0.033
1081	-0.034
1081	-0.034
1082	-0.035
1082	-0.036
1083	-0.037
1083	-0.038
1083	-0.038
1084	-0.039
1084	-0.039
1085	-0.04
1085	-0.04
1085	-0.04
1086	-0.04
1086	-0.041
1087	-0.041
1087	-0.041
1088	-0.042
1088	-0.042
1088	-0.043
1089	-0.044
1089	-0.045
1090	-0.046
1090	-0.047
1090	-0.048
1091	-0.049
1091	-0.05
1092	-0.051
1092	-0.052
1092	-0.053
1093	-0.054
1093	-0.054
1094	-0.054
1094	-0.055
1095	-0.056
1095	-0.057
1095	-0.058
1096	-0.059
1096	-0.06
1097	-0.061
1097	-0.062
1097	-0.064
1098	-0.065
1098	-0.066
1099	-0.068
1099	-0.068
1100	-0.07
1100	-0.071
1100	-0.073
1101	-0.076
1101	-0.078
1102	-0.08
1102	-0.082
1102	-0.083
1103	-0.086
1103	-0.088
1104	-0.092
1104	-0.095
1104	-0.096
1105	-0.098
1105	-0.101
1106	-0.105
1106	-0.107
1107	-0.112
1107	-0.117
1107	-0.12
1108	-0.122
1108	-0.123
1109	-0.126
1109	-0.13
1109	-0.134
1110	-0.135
1110	-0.139
1111	-0.147
1111	-0.142
