Data from 3.5A_17C_Absorbance__803__00805.txt Node

Date: Tue Jun 20 15:25:36 CEST 2023
User: Marek
Spectrometer: MAYP115816
Trigger mode: 0
Integration Time (sec): 2.200000E-1
Scans to average: 10
Electric dark correction enabled: true
Nonlinearity correction enabled: true
Boxcar width: 5
XAxis mode: Wavelengths
Number of Pixels in Spectrum: 2068
>>>>>Begin Spectral Data<<<<<
199	-0.708
199	-0.691
200	-0.652
200	-0.596
201	-0.568
201	-0.561
202	-0.543
202	-0.539
203	-0.536
203	-0.533
204	-0.514
204	-0.5
205	-0.478
205	-0.472
205	-0.481
206	-0.481
206	-0.48
207	-0.474
207	-0.479
208	-0.482
208	-0.484
209	-0.485
209	-0.492
210	-0.503
210	-0.509
211	-0.505
211	-0.51
212	-0.516
212	-0.524
213	-0.521
213	-0.515
213	-0.512
214	-0.52
214	-0.521
215	-0.519
215	-0.523
216	-0.531
216	-0.537
217	-0.534
217	-0.534
218	-0.541
218	-0.544
219	-0.552
219	-0.552
220	-0.554
220	-0.56
221	-0.561
221	-0.562
221	-0.554
222	-0.556
222	-0.555
223	-0.552
223	-0.556
224	-0.556
224	-0.555
225	-0.554
225	-0.554
226	-0.557
226	-0.557
227	-0.565
227	-0.575
228	-0.58
228	-0.588
229	-0.592
229	-0.59
229	-0.59
230	-0.584
230	-0.583
231	-0.579
231	-0.574
232	-0.576
232	-0.57
233	-0.568
233	-0.557
234	-0.557
234	-0.552
235	-0.556
235	-0.567
236	-0.573
236	-0.573
236	-0.571
237	-0.568
237	-0.569
238	-0.57
238	-0.571
239	-0.572
239	-0.582
240	-0.574
240	-0.571
241	-0.567
241	-0.571
242	-0.575
242	-0.583
243	-0.584
243	-0.585
243	-0.589
244	-0.585
244	-0.587
245	-0.591
245	-0.594
246	-0.605
246	-0.608
247	-0.616
247	-0.601
248	-0.598
248	-0.602
249	-0.607
249	-0.609
250	-0.608
250	-0.617
250	-0.613
251	-0.612
251	-0.608
252	-0.608
252	-0.621
253	-0.616
253	-0.627
254	-0.633
254	-0.634
255	-0.646
255	-0.643
256	-0.645
256	-0.658
257	-0.668
257	-0.666
258	-0.667
258	-0.675
258	-0.672
259	-0.662
259	-0.681
260	-0.678
260	-0.667
261	-0.679
261	-0.665
262	-0.67
262	-0.669
263	-0.66
263	-0.665
264	-0.674
264	-0.678
265	-0.669
265	-0.672
265	-0.684
266	-0.675
266	-0.673
267	-0.672
267	-0.687
268	-0.695
268	-0.691
269	-0.683
269	-0.696
270	-0.699
270	-0.698
271	-0.709
271	-0.721
272	-0.724
272	-0.727
272	-0.72
273	-0.73
273	-0.742
274	-0.732
274	-0.726
275	-0.724
275	-0.709
276	-0.715
276	-0.721
277	-0.724
277	-0.72
278	-0.725
278	-0.725
278	-0.715
279	-0.726
279	-0.74
280	-0.743
280	-0.756
281	-0.748
281	-0.737
282	-0.743
282	-0.738
283	-0.731
283	-0.746
284	-0.76
284	-0.77
285	-0.75
285	-0.754
285	-0.743
286	-0.748
286	-0.766
287	-0.761
287	-0.763
288	-0.762
288	-0.744
289	-0.742
289	-0.75
290	-0.76
290	-0.749
291	-0.753
291	-0.75
292	-0.731
292	-0.73
292	-0.731
293	-0.72
293	-0.715
294	-0.715
294	-0.7
295	-0.682
295	-0.693
296	-0.708
296	-0.704
297	-0.691
297	-0.694
298	-0.693
298	-0.709
298	-0.713
299	-0.694
299	-0.686
300	-0.682
300	-0.664
301	-0.645
301	-0.647
302	-0.657
302	-0.641
303	-0.632
303	-0.621
304	-0.604
304	-0.608
305	-0.603
305	-0.612
305	-0.624
306	-0.61
306	-0.608
307	-0.602
307	-0.614
308	-0.618
308	-0.613
309	-0.616
309	-0.61
310	-0.605
310	-0.598
311	-0.587
311	-0.603
311	-0.591
312	-0.588
312	-0.579
313	-0.57
313	-0.572
314	-0.577
314	-0.575
315	-0.572
315	-0.568
316	-0.561
316	-0.552
317	-0.544
317	-0.541
318	-0.531
318	-0.528
318	-0.518
319	-0.506
319	-0.501
320	-0.5
320	-0.498
321	-0.494
321	-0.493
322	-0.486
322	-0.478
323	-0.479
323	-0.469
324	-0.465
324	-0.455
324	-0.442
325	-0.427
325	-0.41
326	-0.402
326	-0.379
327	-0.365
327	-0.343
328	-0.314
328	-0.292
329	-0.264
329	-0.238
330	-0.211
330	-0.178
330	-0.144
331	-0.108
331	-0.075
332	-0.043
332	-0.012
333	0.018
333	0.048
334	0.073
334	0.096
335	0.12
335	0.141
336	0.161
336	0.179
336	0.195
337	0.21
337	0.225
338	0.237
338	0.247
339	0.26
339	0.27
340	0.278
340	0.285
341	0.291
341	0.297
342	0.302
342	0.307
342	0.312
343	0.315
343	0.319
344	0.321
344	0.324
345	0.326
345	0.328
346	0.33
346	0.332
347	0.333
347	0.335
348	0.335
348	0.337
348	0.337
349	0.338
349	0.339
350	0.339
350	0.34
351	0.34
351	0.341
352	0.341
352	0.341
353	0.341
353	0.342
354	0.342
354	0.341
354	0.341
355	0.342
355	0.341
356	0.341
356	0.341
357	0.341
357	0.341
358	0.341
358	0.341
359	0.341
359	0.341
360	0.341
360	0.341
360	0.341
361	0.341
361	0.341
362	0.341
362	0.341
363	0.341
363	0.341
364	0.341
364	0.34
365	0.341
365	0.34
366	0.34
366	0.34
366	0.34
367	0.34
367	0.339
368	0.339
368	0.339
369	0.338
369	0.338
370	0.338
370	0.337
371	0.337
371	0.337
372	0.337
372	0.337
372	0.336
373	0.336
373	0.336
374	0.336
374	0.336
375	0.335
375	0.335
376	0.334
376	0.334
377	0.334
377	0.334
378	0.333
378	0.333
378	0.333
379	0.332
379	0.332
380	0.332
380	0.331
381	0.331
381	0.331
382	0.331
382	0.33
383	0.33
383	0.33
383	0.329
384	0.329
384	0.329
385	0.328
385	0.328
386	0.327
386	0.327
387	0.326
387	0.326
388	0.326
388	0.326
389	0.325
389	0.325
389	0.325
390	0.325
390	0.325
391	0.325
391	0.325
392	0.325
392	0.325
393	0.324
393	0.324
394	0.324
394	0.323
394	0.323
395	0.322
395	0.322
396	0.321
396	0.321
397	0.32
397	0.32
398	0.32
398	0.319
399	0.319
399	0.319
400	0.318
400	0.318
400	0.318
401	0.318
401	0.317
402	0.317
402	0.317
403	0.316
403	0.316
404	0.315
404	0.315
405	0.315
405	0.314
405	0.313
406	0.313
406	0.313
407	0.313
407	0.313
408	0.312
408	0.312
409	0.312
409	0.312
410	0.312
410	0.312
411	0.312
411	0.312
411	0.311
412	0.311
412	0.311
413	0.31
413	0.31
414	0.31
414	0.31
415	0.309
415	0.309
416	0.309
416	0.309
416	0.308
417	0.308
417	0.308
418	0.308
418	0.308
419	0.309
419	0.308
420	0.308
420	0.308
421	0.307
421	0.307
421	0.307
422	0.307
422	0.307
423	0.306
423	0.306
424	0.305
424	0.305
425	0.305
425	0.305
426	0.305
426	0.305
427	0.305
427	0.305
427	0.305
428	0.305
428	0.305
429	0.305
429	0.305
430	0.304
430	0.304
431	0.303
431	0.303
432	0.303
432	0.303
432	0.303
433	0.302
433	0.303
434	0.303
434	0.303
435	0.303
435	0.304
436	0.304
436	0.304
437	0.304
437	0.303
437	0.303
438	0.303
438	0.303
439	0.303
439	0.303
440	0.302
440	0.302
441	0.302
441	0.302
442	0.302
442	0.302
442	0.302
443	0.302
443	0.302
444	0.302
444	0.302
445	0.302
445	0.302
446	0.302
446	0.302
447	0.302
447	0.302
447	0.302
448	0.303
448	0.303
449	0.303
449	0.303
450	0.303
450	0.303
451	0.303
451	0.303
452	0.303
452	0.303
452	0.303
453	0.303
453	0.303
454	0.303
454	0.303
455	0.303
455	0.303
456	0.303
456	0.303
457	0.303
457	0.303
458	0.303
458	0.303
458	0.304
459	0.304
459	0.304
460	0.303
460	0.303
461	0.304
461	0.304
462	0.304
462	0.305
463	0.306
463	0.306
463	0.307
464	0.307
464	0.307
465	0.308
465	0.309
466	0.309
466	0.309
467	0.31
467	0.31
467	0.31
468	0.311
468	0.311
469	0.312
469	0.313
470	0.313
470	0.314
471	0.314
471	0.314
472	0.315
472	0.316
472	0.316
473	0.317
473	0.318
474	0.319
474	0.319
475	0.32
475	0.321
476	0.321
476	0.322
477	0.323
477	0.323
477	0.324
478	0.325
478	0.326
479	0.326
479	0.328
480	0.328
480	0.33
481	0.331
481	0.332
482	0.333
482	0.334
482	0.335
483	0.337
483	0.339
484	0.34
484	0.341
485	0.343
485	0.344
486	0.345
486	0.346
487	0.347
487	0.349
487	0.35
488	0.351
488	0.353
489	0.354
489	0.357
490	0.358
490	0.36
491	0.362
491	0.364
492	0.366
492	0.368
492	0.369
493	0.371
493	0.373
494	0.376
494	0.377
495	0.379
495	0.381
496	0.384
496	0.386
496	0.388
497	0.391
497	0.393
498	0.396
498	0.398
499	0.4
499	0.404
500	0.407
500	0.41
501	0.412
501	0.415
501	0.417
502	0.42
502	0.422
503	0.425
503	0.427
504	0.43
504	0.433
505	0.435
505	0.438
506	0.441
506	0.444
506	0.447
507	0.449
507	0.452
508	0.456
508	0.459
509	0.462
509	0.464
510	0.467
510	0.47
511	0.472
511	0.475
511	0.478
512	0.481
512	0.483
513	0.485
513	0.488
514	0.491
514	0.494
515	0.496
515	0.499
515	0.501
516	0.503
516	0.505
517	0.507
517	0.51
518	0.512
518	0.513
519	0.515
519	0.516
520	0.518
520	0.52
520	0.521
521	0.522
521	0.524
522	0.525
522	0.526
523	0.528
523	0.529
524	0.53
524	0.531
524	0.531
525	0.532
525	0.533
526	0.533
526	0.534
527	0.534
527	0.535
528	0.534
528	0.534
529	0.534
529	0.534
529	0.533
530	0.533
530	0.532
531	0.532
531	0.531
532	0.53
532	0.529
533	0.529
533	0.528
533	0.527
534	0.526
534	0.524
535	0.523
535	0.522
536	0.52
536	0.518
537	0.516
537	0.515
538	0.513
538	0.51
538	0.508
539	0.507
539	0.505
540	0.503
540	0.5
541	0.498
541	0.496
542	0.493
542	0.49
542	0.487
543	0.484
543	0.481
544	0.478
544	0.475
545	0.473
545	0.47
546	0.467
546	0.464
547	0.46
547	0.457
547	0.454
548	0.451
548	0.448
549	0.444
549	0.442
550	0.438
550	0.434
551	0.43
551	0.427
551	0.423
552	0.42
552	0.417
553	0.413
553	0.41
554	0.407
554	0.403
555	0.399
555	0.396
556	0.393
556	0.389
556	0.386
557	0.383
557	0.381
558	0.377
558	0.374
559	0.371
559	0.368
560	0.365
560	0.362
560	0.359
561	0.357
561	0.354
562	0.351
562	0.348
563	0.346
563	0.343
564	0.34
564	0.338
564	0.335
565	0.333
565	0.33
566	0.328
566	0.325
567	0.323
567	0.32
568	0.317
568	0.314
568	0.312
569	0.309
569	0.306
570	0.302
570	0.299
571	0.297
571	0.294
572	0.291
572	0.289
573	0.286
573	0.284
573	0.281
574	0.279
574	0.277
575	0.275
575	0.275
576	0.273
576	0.27
577	0.267
577	0.266
577	0.265
578	0.263
578	0.262
579	0.262
579	0.26
580	0.258
580	0.255
581	0.252
581	0.251
581	0.25
582	0.249
582	0.248
583	0.246
583	0.244
584	0.24
584	0.237
585	0.235
585	0.234
585	0.233
586	0.231
586	0.229
587	0.226
587	0.224
588	0.222
588	0.22
589	0.22
589	0.219
590	0.217
590	0.216
590	0.216
591	0.216
591	0.214
592	0.213
592	0.212
593	0.211
593	0.21
594	0.209
594	0.207
594	0.206
595	0.205
595	0.204
596	0.202
596	0.202
597	0.203
597	0.202
598	0.201
598	0.2
598	0.199
599	0.199
599	0.197
600	0.196
600	0.195
601	0.195
601	0.193
602	0.192
602	0.191
602	0.189
603	0.189
603	0.188
604	0.187
604	0.187
605	0.186
605	0.186
606	0.185
606	0.183
606	0.182
607	0.181
607	0.18
608	0.18
608	0.178
609	0.177
609	0.177
610	0.176
610	0.174
610	0.174
611	0.174
611	0.173
612	0.173
612	0.173
613	0.173
613	0.173
614	0.171
614	0.17
614	0.17
615	0.168
615	0.168
616	0.167
616	0.166
617	0.166
617	0.164
618	0.163
618	0.162
618	0.161
619	0.161
619	0.161
620	0.161
620	0.16
621	0.159
621	0.158
622	0.157
622	0.156
622	0.155
623	0.154
623	0.154
624	0.153
624	0.152
625	0.151
625	0.151
626	0.15
626	0.149
626	0.149
627	0.148
627	0.146
628	0.145
628	0.144
629	0.142
629	0.141
630	0.139
630	0.137
630	0.135
631	0.134
631	0.132
632	0.13
632	0.129
633	0.127
633	0.126
634	0.124
634	0.123
634	0.122
635	0.12
635	0.119
636	0.118
636	0.116
637	0.114
637	0.112
638	0.11
638	0.108
638	0.106
639	0.104
639	0.101
640	0.099
640	0.096
641	0.094
641	0.091
642	0.088
642	0.086
642	0.083
643	0.08
643	0.076
644	0.073
644	0.069
645	0.065
645	0.062
646	0.057
646	0.052
646	0.047
647	0.042
647	0.037
648	0.031
648	0.026
649	0.021
649	0.016
650	0.01
650	0.005
650	-0.001
651	-0.007
651	-0.016
652	-0.026
652	-0.037
653	-0.046
653	-0.054
653	-0.05
654	-0.036
654	-0.032
655	-0.037
655	-0.041
656	-0.047
656	-0.052
657	-0.056
657	-0.06
657	-0.065
658	-0.072
658	-0.099
659	-0.17
659	-0.244
660	-0.279
660	-0.303
661	-0.327
661	-0.355
661	-0.383
662	-0.409
662	-0.438
663	-0.469
663	-0.503
664	-0.537
664	-0.574
665	-0.616
665	-0.659
665	-0.701
666	-0.749
666	-0.802
667	-0.854
667	-0.916
668	-0.974
668	-1.041
669	-1.108
669	-1.18
669	-1.257
670	-1.337
670	-1.444
671	-1.598
671	-1.93
672	-2.236
672	-2.423
672	-2.556
673	-2.66
673	-2.745
674	-2.796
674	-2.81
675	-2.826
675	-2.831
676	-2.83
676	-2.794
676	-2.72
677	-2.628
677	-2.515
678	-2.341
678	-2.026
679	-1.655
679	-1.494
680	-1.393
680	-1.318
680	-1.253
681	-1.206
681	-1.154
682	-1.112
682	-1.07
683	-1.028
683	-1.004
684	-0.977
684	-0.959
684	-0.938
685	-0.919
685	-0.91
686	-0.887
686	-0.874
687	-0.866
687	-0.853
687	-0.854
688	-0.839
688	-0.83
689	-0.834
689	-0.831
690	-0.817
690	-0.806
691	-0.804
691	-0.808
691	-0.807
692	-0.808
692	-0.805
693	-0.812
693	-0.824
694	-0.803
694	-0.801
695	-0.805
695	-0.8
695	-0.808
696	-0.814
696	-0.808
697	-0.803
697	-0.799
698	-0.794
698	-0.785
698	-0.798
699	-0.796
699	-0.795
700	-0.814
700	-0.808
701	-0.794
701	-0.788
702	-0.786
702	-0.784
702	-0.784
703	-0.776
703	-0.766
704	-0.774
704	-0.779
705	-0.765
705	-0.765
705	-0.76
706	-0.754
706	-0.751
707	-0.765
707	-0.768
708	-0.765
708	-0.763
709	-0.763
709	-0.759
709	-0.757
710	-0.764
710	-0.767
711	-0.766
711	-0.767
712	-0.756
712	-0.753
713	-0.757
713	-0.758
713	-0.737
714	-0.739
714	-0.742
715	-0.734
715	-0.742
716	-0.756
716	-0.764
716	-0.764
717	-0.77
717	-0.764
718	-0.758
718	-0.761
719	-0.757
719	-0.75
720	-0.743
720	-0.74
720	-0.735
721	-0.726
721	-0.732
722	-0.73
722	-0.725
723	-0.742
723	-0.754
723	-0.763
724	-0.761
724	-0.768
725	-0.762
725	-0.766
726	-0.768
726	-0.758
727	-0.759
727	-0.765
727	-0.756
728	-0.742
728	-0.74
729	-0.741
729	-0.743
730	-0.746
730	-0.737
730	-0.743
731	-0.748
731	-0.748
732	-0.751
732	-0.746
733	-0.762
733	-0.767
734	-0.772
734	-0.764
734	-0.748
735	-0.739
735	-0.735
736	-0.733
736	-0.727
737	-0.727
737	-0.716
737	-0.706
738	-0.692
738	-0.683
739	-0.686
739	-0.687
740	-0.701
740	-0.702
741	-0.712
741	-0.724
741	-0.732
742	-0.739
742	-0.756
743	-0.764
743	-0.767
744	-0.772
744	-0.781
744	-0.773
745	-0.781
745	-0.769
746	-0.764
746	-0.755
747	-0.757
747	-0.747
748	-0.748
748	-0.752
748	-0.751
749	-0.743
749	-0.749
750	-0.739
750	-0.74
751	-0.74
751	-0.738
751	-0.75
752	-0.753
752	-0.755
753	-0.76
753	-0.755
754	-0.774
754	-0.776
754	-0.784
755	-0.783
755	-0.775
756	-0.779
756	-0.765
757	-0.759
757	-0.748
758	-0.747
758	-0.743
758	-0.741
759	-0.746
759	-0.746
760	-0.745
760	-0.748
761	-0.74
761	-0.746
761	-0.744
762	-0.75
762	-0.75
763	-0.751
763	-0.754
764	-0.753
764	-0.749
764	-0.754
765	-0.754
765	-0.761
766	-0.763
766	-0.765
767	-0.778
767	-0.772
768	-0.77
768	-0.761
768	-0.755
769	-0.757
769	-0.765
770	-0.773
770	-0.776
771	-0.771
771	-0.771
771	-0.778
772	-0.782
772	-0.804
773	-0.807
773	-0.808
774	-0.807
774	-0.788
775	-0.775
775	-0.776
775	-0.781
776	-0.792
776	-0.788
777	-0.789
777	-0.772
778	-0.779
778	-0.787
778	-0.787
779	-0.794
779	-0.81
780	-0.807
780	-0.814
781	-0.803
781	-0.792
781	-0.808
782	-0.828
782	-0.828
783	-0.828
783	-0.835
784	-0.839
784	-0.834
784	-0.852
785	-0.845
785	-0.856
786	-0.861
786	-0.853
787	-0.843
787	-0.853
788	-0.844
788	-0.839
788	-0.839
789	-0.838
789	-0.826
790	-0.825
790	-0.813
791	-0.816
791	-0.812
791	-0.804
792	-0.798
792	-0.802
793	-0.804
793	-0.794
794	-0.786
794	-0.78
794	-0.788
795	-0.807
795	-0.795
796	-0.801
796	-0.798
797	-0.792
797	-0.786
797	-0.78
798	-0.799
798	-0.805
799	-0.806
799	-0.792
800	-0.788
800	-0.797
801	-0.793
801	-0.795
801	-0.791
802	-0.788
802	-0.786
803	-0.782
803	-0.775
804	-0.781
804	-0.789
804	-0.775
805	-0.756
805	-0.748
806	-0.75
806	-0.748
807	-0.75
807	-0.751
807	-0.733
808	-0.73
808	-0.723
809	-0.718
809	-0.717
810	-0.72
810	-0.716
810	-0.711
811	-0.717
811	-0.708
812	-0.703
812	-0.705
813	-0.709
813	-0.709
813	-0.704
814	-0.705
814	-0.709
815	-0.701
815	-0.698
816	-0.692
816	-0.707
817	-0.719
817	-0.723
817	-0.73
818	-0.724
818	-0.721
819	-0.73
819	-0.728
820	-0.74
820	-0.739
820	-0.738
821	-0.735
821	-0.731
822	-0.728
822	-0.716
823	-0.728
823	-0.727
823	-0.723
824	-0.72
824	-0.73
825	-0.728
825	-0.723
826	-0.717
826	-0.713
826	-0.713
827	-0.714
827	-0.703
828	-0.704
828	-0.7
829	-0.694
829	-0.678
829	-0.676
830	-0.676
830	-0.662
831	-0.655
831	-0.644
832	-0.637
832	-0.634
832	-0.628
833	-0.626
833	-0.632
834	-0.629
834	-0.624
835	-0.616
835	-0.616
835	-0.611
836	-0.607
836	-0.603
837	-0.593
837	-0.583
838	-0.572
838	-0.554
839	-0.55
839	-0.54
839	-0.531
840	-0.531
840	-0.523
841	-0.513
841	-0.506
842	-0.496
842	-0.484
842	-0.481
843	-0.478
843	-0.473
844	-0.469
844	-0.456
845	-0.442
845	-0.432
845	-0.424
846	-0.414
846	-0.403
847	-0.395
847	-0.383
848	-0.37
848	-0.355
848	-0.342
849	-0.332
849	-0.322
850	-0.312
850	-0.302
851	-0.289
851	-0.276
851	-0.267
852	-0.252
852	-0.239
853	-0.233
853	-0.223
854	-0.214
854	-0.204
854	-0.194
855	-0.184
855	-0.177
856	-0.17
856	-0.163
857	-0.156
857	-0.151
857	-0.139
858	-0.13
858	-0.123
859	-0.113
859	-0.104
860	-0.095
860	-0.082
860	-0.074
861	-0.065
861	-0.056
862	-0.049
862	-0.042
863	-0.035
863	-0.028
863	-0.023
864	-0.018
864	-0.012
865	-0.007
865	-0.003
866	0.001
866	0.006
866	0.01
867	0.014
867	0.019
868	0.022
868	0.026
869	0.029
869	0.032
869	0.035
870	0.037
870	0.039
871	0.041
871	0.042
872	0.042
872	0.043
872	0.044
873	0.044
873	0.043
874	0.043
874	0.043
875	0.042
875	0.042
875	0.041
876	0.041
876	0.041
877	0.04
877	0.039
878	0.038
878	0.038
878	0.037
879	0.036
879	0.036
880	0.035
880	0.034
881	0.033
881	0.032
881	0.032
882	0.031
882	0.03
883	0.029
883	0.029
884	0.029
884	0.029
884	0.029
885	0.029
885	0.029
886	0.029
886	0.028
887	0.028
887	0.027
887	0.027
888	0.026
888	0.026
889	0.025
889	0.024
890	0.023
890	0.023
890	0.023
891	0.022
891	0.022
892	0.022
892	0.022
893	0.022
893	0.022
893	0.021
894	0.021
894	0.021
895	0.021
895	0.021
895	0.021
896	0.021
896	0.022
897	0.022
897	0.023
898	0.023
898	0.023
898	0.024
899	0.025
899	0.025
900	0.026
900	0.026
901	0.025
901	0.026
901	0.026
902	0.026
902	0.027
903	0.027
903	0.026
904	0.026
904	0.025
904	0.025
905	0.025
905	0.025
906	0.025
906	0.025
907	0.026
907	0.026
907	0.026
908	0.026
908	0.027
909	0.027
909	0.028
910	0.029
910	0.029
910	0.03
911	0.031
911	0.032
912	0.033
912	0.035
913	0.036
913	0.037
913	0.038
914	0.039
914	0.039
915	0.039
915	0.039
916	0.038
916	0.038
916	0.037
917	0.036
917	0.036
918	0.035
918	0.034
918	0.034
919	0.034
919	0.034
920	0.033
920	0.033
921	0.033
921	0.033
921	0.033
922	0.033
922	0.032
923	0.032
923	0.032
924	0.031
924	0.031
924	0.031
925	0.031
925	0.03
926	0.03
926	0.03
927	0.03
927	0.03
927	0.031
928	0.031
928	0.031
929	0.032
929	0.032
930	0.033
930	0.033
930	0.034
931	0.035
931	0.035
932	0.036
932	0.036
933	0.036
933	0.036
933	0.036
934	0.035
934	0.035
935	0.034
935	0.033
935	0.031
936	0.03
936	0.028
937	0.027
937	0.026
938	0.025
938	0.023
938	0.023
939	0.022
939	0.021
940	0.021
940	0.021
941	0.021
941	0.02
941	0.02
942	0.02
942	0.02
943	0.02
943	0.02
944	0.02
944	0.02
944	0.02
945	0.02
945	0.02
946	0.02
946	0.02
946	0.019
947	0.019
947	0.019
948	0.018
948	0.018
949	0.018
949	0.018
949	0.019
950	0.019
950	0.019
951	0.02
951	0.02
952	0.02
952	0.021
952	0.021
953	0.022
953	0.022
954	0.022
954	0.022
955	0.022
955	0.022
955	0.022
956	0.022
956	0.022
957	0.021
957	0.02
957	0.02
958	0.019
958	0.019
959	0.019
959	0.018
960	0.018
960	0.018
960	0.018
961	0.018
961	0.018
962	0.018
962	0.018
963	0.018
963	0.018
963	0.018
964	0.018
964	0.018
965	0.018
965	0.018
966	0.018
966	0.019
966	0.019
967	0.019
967	0.018
968	0.018
968	0.018
968	0.018
969	0.018
969	0.017
970	0.016
970	0.016
971	0.015
971	0.015
971	0.014
972	0.014
972	0.014
973	0.014
973	0.014
974	0.015
974	0.016
974	0.016
975	0.017
975	0.018
976	0.019
976	0.02
976	0.02
977	0.021
977	0.021
978	0.021
978	0.021
979	0.021
979	0.02
979	0.02
980	0.02
980	0.019
981	0.019
981	0.019
982	0.019
982	0.019
982	0.019
983	0.019
983	0.019
984	0.019
984	0.019
984	0.018
985	0.019
985	0.018
986	0.018
986	0.017
987	0.016
987	0.016
987	0.015
988	0.014
988	0.014
989	0.013
989	0.012
990	0.011
990	0.011
990	0.01
991	0.01
991	0.01
992	0.01
992	0.01
992	0.01
993	0.01
993	0.01
994	0.01
994	0.01
995	0.01
995	0.01
995	0.009
996	0.009
996	0.008
997	0.007
997	0.007
997	0.007
998	0.007
998	0.007
999	0.008
999	0.008
1000	0.008
1000	0.008
1000	0.008
1001	0.008
1001	0.009
1002	0.009
1002	0.009
1003	0.009
1003	0.009
1003	0.008
1004	0.008
1004	0.008
1005	0.007
1005	0.007
1005	0.006
1006	0.006
1006	0.005
1007	0.005
1007	0.004
1008	0.004
1008	0.004
1008	0.004
1009	0.004
1009	0.004
1010	0.005
1010	0.005
1010	0.005
1011	0.006
1011	0.006
1012	0.006
1012	0.006
1013	0.007
1013	0.007
1013	0.007
1014	0.007
1014	0.007
1015	0.007
1015	0.007
1016	0.008
1016	0.007
1016	0.008
1017	0.007
1017	0.007
1018	0.008
1018	0.008
1018	0.008
1019	0.008
1019	0.007
1020	0.007
1020	0.006
1021	0.006
1021	0.006
1021	0.005
1022	0.004
1022	0.003
1023	0.003
1023	0.002
1023	0.001
1024	0.001
1024	0.001
1025	0
1025	0
1026	0
1026	0
1026	-0
1027	-0
1027	0
1028	0
1028	0.001
1028	0.001
1029	0.001
1029	0.001
1030	0
1030	-0
1031	-0.001
1031	-0
1031	-0
1032	-0.001
1032	-0.001
1033	-0.002
1033	-0.002
1033	-0.002
1034	-0.002
1034	-0.003
1035	-0.002
1035	-0.003
1036	-0.003
1036	-0.003
1036	-0.003
1037	-0.003
1037	-0.002
1038	-0.001
1038	-0
1039	0
1039	0.001
1039	0.002
1040	0.002
1040	0.003
1041	0.003
1041	0.003
1041	0.002
1042	0.002
1042	0.001
1043	0
1043	-0.001
1044	-0.001
1044	-0.003
1044	-0.004
1045	-0.005
1045	-0.006
1046	-0.007
1046	-0.007
1046	-0.008
1047	-0.008
1047	-0.008
1048	-0.008
1048	-0.008
1049	-0.008
1049	-0.008
1049	-0.009
1050	-0.009
1050	-0.01
1051	-0.011
1051	-0.011
1051	-0.012
1052	-0.013
1052	-0.013
1053	-0.014
1053	-0.014
1053	-0.015
1054	-0.015
1054	-0.015
1055	-0.015
1055	-0.014
1056	-0.015
1056	-0.015
1056	-0.015
1057	-0.015
1057	-0.016
1058	-0.016
1058	-0.016
1058	-0.016
1059	-0.016
1059	-0.016
1060	-0.016
1060	-0.016
1061	-0.016
1061	-0.016
1061	-0.015
1062	-0.015
1062	-0.015
1063	-0.015
1063	-0.016
1063	-0.016
1064	-0.016
1064	-0.016
1065	-0.016
1065	-0.017
1066	-0.017
1066	-0.017
1066	-0.018
1067	-0.018
1067	-0.019
1068	-0.019
1068	-0.019
1068	-0.02
1069	-0.02
1069	-0.021
1070	-0.021
1070	-0.021
1071	-0.022
1071	-0.022
1071	-0.022
1072	-0.022
1072	-0.021
1073	-0.021
1073	-0.021
1073	-0.021
1074	-0.021
1074	-0.021
1075	-0.021
1075	-0.022
1076	-0.023
1076	-0.023
1076	-0.024
1077	-0.025
1077	-0.026
1078	-0.026
1078	-0.027
1078	-0.028
1079	-0.028
1079	-0.029
1080	-0.03
1080	-0.03
1080	-0.031
1081	-0.032
1081	-0.032
1082	-0.032
1082	-0.033
1083	-0.034
1083	-0.035
1083	-0.036
1084	-0.037
1084	-0.037
1085	-0.037
1085	-0.038
1085	-0.038
1086	-0.038
1086	-0.039
1087	-0.04
1087	-0.04
1088	-0.041
1088	-0.041
1088	-0.042
1089	-0.043
1089	-0.044
1090	-0.045
1090	-0.045
1090	-0.047
1091	-0.049
1091	-0.049
1092	-0.05
1092	-0.05
1092	-0.051
1093	-0.052
1093	-0.052
1094	-0.053
1094	-0.054
1095	-0.055
1095	-0.055
1095	-0.056
1096	-0.056
1096	-0.058
1097	-0.059
1097	-0.06
1097	-0.062
1098	-0.064
1098	-0.065
1099	-0.066
1099	-0.068
1100	-0.07
1100	-0.072
1100	-0.075
1101	-0.077
1101	-0.08
1102	-0.082
1102	-0.084
1102	-0.085
1103	-0.087
1103	-0.09
1104	-0.092
1104	-0.095
1104	-0.096
1105	-0.098
1105	-0.1
1106	-0.104
1106	-0.105
1107	-0.11
1107	-0.114
1107	-0.118
1108	-0.119
1108	-0.12
1109	-0.123
1109	-0.127
1109	-0.132
1110	-0.134
1110	-0.135
1111	-0.146
1111	-0.144
