Data from 3.5A_17C_Absorbance__210__00212.txt Node

Date: Tue Jun 20 15:03:51 CEST 2023
User: Marek
Spectrometer: MAYP115816
Trigger mode: 0
Integration Time (sec): 2.200000E-1
Scans to average: 10
Electric dark correction enabled: true
Nonlinearity correction enabled: true
Boxcar width: 5
XAxis mode: Wavelengths
Number of Pixels in Spectrum: 2068
>>>>>Begin Spectral Data<<<<<
199	-0.555
199	-0.541
200	-0.508
200	-0.456
201	-0.433
201	-0.426
202	-0.408
202	-0.402
203	-0.403
203	-0.397
204	-0.382
204	-0.369
205	-0.348
205	-0.341
205	-0.349
206	-0.349
206	-0.346
207	-0.342
207	-0.348
208	-0.349
208	-0.354
209	-0.354
209	-0.359
210	-0.37
210	-0.377
211	-0.372
211	-0.375
212	-0.382
212	-0.387
213	-0.384
213	-0.381
213	-0.379
214	-0.383
214	-0.385
215	-0.384
215	-0.386
216	-0.395
216	-0.401
217	-0.4
217	-0.401
218	-0.408
218	-0.408
219	-0.414
219	-0.417
220	-0.418
220	-0.423
221	-0.424
221	-0.423
221	-0.415
222	-0.413
222	-0.41
223	-0.408
223	-0.41
224	-0.41
224	-0.409
225	-0.408
225	-0.407
226	-0.409
226	-0.41
227	-0.418
227	-0.428
228	-0.433
228	-0.441
229	-0.448
229	-0.446
229	-0.447
230	-0.445
230	-0.444
231	-0.441
231	-0.435
232	-0.437
232	-0.435
233	-0.434
233	-0.421
234	-0.418
234	-0.414
235	-0.419
235	-0.426
236	-0.433
236	-0.432
236	-0.431
237	-0.429
237	-0.427
238	-0.427
238	-0.43
239	-0.433
239	-0.443
240	-0.436
240	-0.434
241	-0.431
241	-0.434
242	-0.438
242	-0.444
243	-0.447
243	-0.452
243	-0.451
244	-0.447
244	-0.445
245	-0.446
245	-0.447
246	-0.454
246	-0.457
247	-0.464
247	-0.452
248	-0.449
248	-0.45
249	-0.457
249	-0.461
250	-0.461
250	-0.467
250	-0.47
251	-0.469
251	-0.466
252	-0.469
252	-0.48
253	-0.476
253	-0.487
254	-0.49
254	-0.49
255	-0.499
255	-0.5
256	-0.5
256	-0.514
257	-0.524
257	-0.517
258	-0.517
258	-0.524
258	-0.521
259	-0.512
259	-0.529
260	-0.526
260	-0.514
261	-0.524
261	-0.51
262	-0.516
262	-0.515
263	-0.507
263	-0.512
264	-0.519
264	-0.524
265	-0.516
265	-0.519
265	-0.529
266	-0.52
266	-0.519
267	-0.521
267	-0.538
268	-0.544
268	-0.538
269	-0.53
269	-0.541
270	-0.544
270	-0.541
271	-0.547
271	-0.558
272	-0.557
272	-0.558
272	-0.55
273	-0.56
273	-0.572
274	-0.566
274	-0.563
275	-0.561
275	-0.549
276	-0.557
276	-0.563
277	-0.566
277	-0.561
278	-0.566
278	-0.564
278	-0.554
279	-0.564
279	-0.578
280	-0.58
280	-0.592
281	-0.585
281	-0.576
282	-0.581
282	-0.577
283	-0.569
283	-0.584
284	-0.597
284	-0.603
285	-0.581
285	-0.585
285	-0.576
286	-0.579
286	-0.593
287	-0.586
287	-0.586
288	-0.587
288	-0.569
289	-0.568
289	-0.576
290	-0.586
290	-0.576
291	-0.581
291	-0.579
292	-0.564
292	-0.564
292	-0.566
293	-0.554
293	-0.549
294	-0.546
294	-0.534
295	-0.516
295	-0.526
296	-0.536
296	-0.532
297	-0.519
297	-0.522
298	-0.519
298	-0.533
298	-0.536
299	-0.522
299	-0.515
300	-0.513
300	-0.496
301	-0.479
301	-0.485
302	-0.494
302	-0.481
303	-0.475
303	-0.465
304	-0.449
304	-0.45
305	-0.444
305	-0.454
305	-0.471
306	-0.457
306	-0.451
307	-0.445
307	-0.458
308	-0.462
308	-0.456
309	-0.461
309	-0.457
310	-0.453
310	-0.447
311	-0.433
311	-0.448
311	-0.44
312	-0.436
312	-0.423
313	-0.414
313	-0.418
314	-0.422
314	-0.422
315	-0.419
315	-0.412
316	-0.406
316	-0.399
317	-0.388
317	-0.386
318	-0.378
318	-0.375
318	-0.362
319	-0.351
319	-0.342
320	-0.341
320	-0.343
321	-0.337
321	-0.334
322	-0.331
322	-0.325
323	-0.329
323	-0.32
324	-0.318
324	-0.31
324	-0.297
325	-0.281
325	-0.263
326	-0.257
326	-0.236
327	-0.22
327	-0.201
328	-0.169
328	-0.147
329	-0.121
329	-0.093
330	-0.071
330	-0.038
330	-0.005
331	0.028
331	0.056
332	0.084
332	0.114
333	0.139
333	0.166
334	0.19
334	0.21
335	0.231
335	0.249
336	0.266
336	0.281
336	0.294
337	0.307
337	0.32
338	0.33
338	0.337
339	0.347
339	0.356
340	0.361
340	0.367
341	0.372
341	0.377
342	0.382
342	0.386
342	0.389
343	0.392
343	0.395
344	0.397
344	0.399
345	0.401
345	0.403
346	0.404
346	0.405
347	0.406
347	0.407
348	0.408
348	0.409
348	0.41
349	0.41
349	0.41
350	0.41
350	0.411
351	0.411
351	0.411
352	0.41
352	0.411
353	0.411
353	0.411
354	0.411
354	0.411
354	0.411
355	0.411
355	0.411
356	0.411
356	0.411
357	0.412
357	0.412
358	0.412
358	0.412
359	0.411
359	0.411
360	0.411
360	0.411
360	0.411
361	0.41
361	0.41
362	0.409
362	0.409
363	0.408
363	0.408
364	0.408
364	0.408
365	0.408
365	0.407
366	0.407
366	0.407
366	0.406
367	0.406
367	0.406
368	0.406
368	0.405
369	0.405
369	0.404
370	0.404
370	0.404
371	0.403
371	0.403
372	0.402
372	0.402
372	0.401
373	0.401
373	0.4
374	0.4
374	0.4
375	0.399
375	0.399
376	0.399
376	0.398
377	0.398
377	0.397
378	0.397
378	0.397
378	0.396
379	0.396
379	0.396
380	0.395
380	0.395
381	0.395
381	0.394
382	0.394
382	0.393
383	0.393
383	0.393
383	0.392
384	0.391
384	0.391
385	0.39
385	0.39
386	0.389
386	0.389
387	0.388
387	0.388
388	0.387
388	0.387
389	0.386
389	0.386
389	0.386
390	0.385
390	0.385
391	0.384
391	0.384
392	0.383
392	0.383
393	0.382
393	0.382
394	0.382
394	0.381
394	0.381
395	0.38
395	0.38
396	0.379
396	0.379
397	0.378
397	0.378
398	0.378
398	0.377
399	0.377
399	0.376
400	0.376
400	0.375
400	0.375
401	0.374
401	0.374
402	0.373
402	0.373
403	0.373
403	0.372
404	0.372
404	0.371
405	0.371
405	0.37
405	0.37
406	0.369
406	0.369
407	0.369
407	0.368
408	0.368
408	0.367
409	0.367
409	0.367
410	0.367
410	0.366
411	0.366
411	0.366
411	0.365
412	0.365
412	0.365
413	0.364
413	0.364
414	0.364
414	0.364
415	0.363
415	0.363
416	0.363
416	0.362
416	0.362
417	0.362
417	0.362
418	0.362
418	0.362
419	0.361
419	0.361
420	0.361
420	0.361
421	0.361
421	0.361
421	0.36
422	0.36
422	0.36
423	0.36
423	0.359
424	0.359
424	0.359
425	0.359
425	0.359
426	0.358
426	0.358
427	0.358
427	0.358
427	0.358
428	0.358
428	0.357
429	0.357
429	0.357
430	0.356
430	0.356
431	0.356
431	0.356
432	0.356
432	0.356
432	0.355
433	0.355
433	0.355
434	0.356
434	0.356
435	0.356
435	0.356
436	0.356
436	0.356
437	0.355
437	0.355
437	0.356
438	0.356
438	0.356
439	0.356
439	0.356
440	0.355
440	0.355
441	0.356
441	0.355
442	0.355
442	0.355
442	0.355
443	0.355
443	0.355
444	0.355
444	0.355
445	0.355
445	0.355
446	0.355
446	0.355
447	0.356
447	0.356
447	0.356
448	0.356
448	0.356
449	0.357
449	0.357
450	0.357
450	0.357
451	0.357
451	0.357
452	0.356
452	0.357
452	0.357
453	0.357
453	0.357
454	0.357
454	0.357
455	0.358
455	0.358
456	0.359
456	0.359
457	0.359
457	0.359
458	0.36
458	0.36
458	0.36
459	0.36
459	0.36
460	0.36
460	0.36
461	0.36
461	0.361
462	0.361
462	0.362
463	0.363
463	0.364
463	0.364
464	0.365
464	0.366
465	0.366
465	0.367
466	0.368
466	0.369
467	0.369
467	0.37
467	0.37
468	0.371
468	0.371
469	0.372
469	0.373
470	0.374
470	0.374
471	0.375
471	0.376
472	0.376
472	0.377
472	0.378
473	0.379
473	0.38
474	0.381
474	0.382
475	0.384
475	0.385
476	0.386
476	0.387
477	0.388
477	0.389
477	0.39
478	0.391
478	0.393
479	0.394
479	0.396
480	0.397
480	0.399
481	0.4
481	0.402
482	0.403
482	0.405
482	0.407
483	0.409
483	0.412
484	0.414
484	0.415
485	0.417
485	0.419
486	0.421
486	0.423
487	0.425
487	0.427
487	0.429
488	0.43
488	0.432
489	0.434
489	0.437
490	0.439
490	0.442
491	0.445
491	0.447
492	0.45
492	0.453
492	0.455
493	0.458
493	0.461
494	0.464
494	0.467
495	0.47
495	0.473
496	0.476
496	0.479
496	0.482
497	0.485
497	0.489
498	0.492
498	0.495
499	0.498
499	0.502
500	0.506
500	0.51
501	0.513
501	0.516
501	0.52
502	0.523
502	0.527
503	0.53
503	0.534
504	0.538
504	0.541
505	0.545
505	0.549
506	0.553
506	0.557
506	0.561
507	0.564
507	0.568
508	0.572
508	0.576
509	0.58
509	0.584
510	0.589
510	0.592
511	0.596
511	0.6
511	0.603
512	0.607
512	0.61
513	0.613
513	0.617
514	0.621
514	0.624
515	0.627
515	0.63
515	0.632
516	0.635
516	0.638
517	0.641
517	0.644
518	0.646
518	0.648
519	0.65
519	0.652
520	0.654
520	0.656
520	0.658
521	0.66
521	0.662
522	0.663
522	0.665
523	0.666
523	0.668
524	0.668
524	0.669
524	0.67
525	0.671
525	0.672
526	0.673
526	0.673
527	0.673
527	0.673
528	0.673
528	0.673
529	0.672
529	0.672
529	0.671
530	0.67
530	0.669
531	0.668
531	0.667
532	0.665
532	0.664
533	0.662
533	0.66
533	0.658
534	0.655
534	0.653
535	0.651
535	0.648
536	0.645
536	0.642
537	0.639
537	0.636
538	0.633
538	0.63
538	0.626
539	0.623
539	0.62
540	0.616
540	0.612
541	0.608
541	0.604
542	0.6
542	0.596
542	0.591
543	0.587
543	0.582
544	0.578
544	0.574
545	0.569
545	0.564
546	0.559
546	0.554
547	0.549
547	0.544
547	0.539
548	0.534
548	0.529
549	0.524
549	0.519
550	0.514
550	0.509
551	0.503
551	0.498
551	0.492
552	0.486
552	0.481
553	0.476
553	0.471
554	0.465
554	0.46
555	0.454
555	0.449
556	0.443
556	0.438
556	0.433
557	0.427
557	0.422
558	0.417
558	0.412
559	0.406
559	0.401
560	0.396
560	0.391
560	0.387
561	0.383
561	0.379
562	0.374
562	0.37
563	0.365
563	0.361
564	0.357
564	0.352
564	0.348
565	0.344
565	0.34
566	0.335
566	0.331
567	0.327
567	0.323
568	0.318
568	0.313
568	0.309
569	0.304
569	0.3
570	0.295
570	0.29
571	0.286
571	0.282
572	0.278
572	0.274
573	0.27
573	0.266
573	0.263
574	0.26
574	0.257
575	0.254
575	0.251
576	0.248
576	0.244
577	0.241
577	0.238
577	0.236
578	0.233
578	0.231
579	0.229
579	0.227
580	0.223
580	0.22
581	0.217
581	0.214
581	0.212
582	0.21
582	0.207
583	0.205
583	0.202
584	0.198
584	0.194
585	0.191
585	0.188
585	0.185
586	0.183
586	0.18
587	0.178
587	0.175
588	0.173
588	0.171
589	0.169
589	0.168
590	0.166
590	0.164
590	0.163
591	0.162
591	0.16
592	0.158
592	0.156
593	0.155
593	0.153
594	0.151
594	0.149
594	0.148
595	0.146
595	0.144
596	0.143
596	0.142
597	0.141
597	0.139
598	0.137
598	0.136
598	0.135
599	0.133
599	0.132
600	0.131
600	0.129
601	0.129
601	0.127
602	0.126
602	0.125
602	0.123
603	0.123
603	0.122
604	0.121
604	0.12
605	0.119
605	0.118
606	0.116
606	0.115
606	0.113
607	0.112
607	0.111
608	0.11
608	0.108
609	0.107
609	0.106
610	0.105
610	0.103
610	0.102
611	0.101
611	0.1
612	0.099
612	0.099
613	0.098
613	0.097
614	0.096
614	0.095
614	0.094
615	0.093
615	0.093
616	0.092
616	0.091
617	0.09
617	0.089
618	0.088
618	0.088
618	0.087
619	0.087
619	0.087
620	0.087
620	0.086
621	0.085
621	0.084
622	0.083
622	0.083
622	0.081
623	0.08
623	0.08
624	0.08
624	0.079
625	0.078
625	0.078
626	0.077
626	0.076
626	0.076
627	0.076
627	0.075
628	0.074
628	0.073
629	0.072
629	0.071
630	0.07
630	0.069
630	0.069
631	0.068
631	0.067
632	0.067
632	0.066
633	0.066
633	0.065
634	0.065
634	0.064
634	0.063
635	0.062
635	0.061
636	0.06
636	0.06
637	0.059
637	0.058
638	0.057
638	0.056
638	0.055
639	0.054
639	0.052
640	0.052
640	0.051
641	0.05
641	0.049
642	0.048
642	0.047
642	0.046
643	0.045
643	0.044
644	0.043
644	0.042
645	0.041
645	0.04
646	0.039
646	0.037
646	0.035
647	0.032
647	0.03
648	0.028
648	0.026
649	0.023
649	0.021
650	0.018
650	0.016
650	0.013
651	0.01
651	0.006
652	0.002
652	-0.003
653	-0.008
653	-0.012
653	-0.009
654	-0.004
654	-0.005
655	-0.009
655	-0.011
656	-0.014
656	-0.017
657	-0.019
657	-0.022
657	-0.025
658	-0.028
658	-0.043
659	-0.08
659	-0.114
660	-0.131
660	-0.144
661	-0.158
661	-0.173
661	-0.189
662	-0.202
662	-0.218
663	-0.234
663	-0.252
664	-0.27
664	-0.289
665	-0.312
665	-0.334
665	-0.353
666	-0.377
666	-0.403
667	-0.43
667	-0.464
668	-0.494
668	-0.539
669	-0.584
669	-0.632
669	-0.689
670	-0.759
670	-0.916
671	-1.248
671	-1.633
672	-2.005
672	-2.284
672	-2.458
673	-2.53
673	-2.549
674	-2.565
674	-2.574
675	-2.589
675	-2.593
676	-2.587
676	-2.551
676	-2.461
677	-2.265
677	-1.886
678	-1.31
678	-0.968
679	-0.854
679	-0.789
680	-0.741
680	-0.709
680	-0.682
681	-0.67
681	-0.646
682	-0.634
682	-0.612
683	-0.592
683	-0.591
684	-0.582
684	-0.58
684	-0.576
685	-0.571
685	-0.575
686	-0.562
686	-0.561
687	-0.559
687	-0.559
687	-0.566
688	-0.555
688	-0.557
689	-0.565
689	-0.566
690	-0.559
690	-0.555
691	-0.558
691	-0.564
691	-0.567
692	-0.569
692	-0.567
693	-0.576
693	-0.586
694	-0.57
694	-0.572
695	-0.576
695	-0.571
695	-0.581
696	-0.592
696	-0.589
697	-0.585
697	-0.584
698	-0.582
698	-0.581
698	-0.597
699	-0.597
699	-0.601
700	-0.621
700	-0.617
701	-0.602
701	-0.596
702	-0.598
702	-0.6
702	-0.599
703	-0.587
703	-0.577
704	-0.584
704	-0.586
705	-0.575
705	-0.579
705	-0.577
706	-0.571
706	-0.568
707	-0.577
707	-0.583
708	-0.584
708	-0.58
709	-0.583
709	-0.579
709	-0.578
710	-0.582
710	-0.583
711	-0.581
711	-0.582
712	-0.574
712	-0.572
713	-0.576
713	-0.578
713	-0.558
714	-0.562
714	-0.564
715	-0.559
715	-0.566
716	-0.585
716	-0.596
716	-0.595
717	-0.599
717	-0.591
718	-0.585
718	-0.589
719	-0.587
719	-0.579
720	-0.573
720	-0.569
720	-0.562
721	-0.552
721	-0.557
722	-0.558
722	-0.554
723	-0.57
723	-0.581
723	-0.587
724	-0.591
724	-0.596
725	-0.592
725	-0.596
726	-0.601
726	-0.593
727	-0.595
727	-0.604
727	-0.597
728	-0.583
728	-0.583
729	-0.582
729	-0.584
730	-0.589
730	-0.58
730	-0.586
731	-0.589
731	-0.589
732	-0.589
732	-0.582
733	-0.599
733	-0.602
734	-0.611
734	-0.605
734	-0.585
735	-0.579
735	-0.573
736	-0.572
736	-0.568
737	-0.568
737	-0.56
737	-0.551
738	-0.538
738	-0.527
739	-0.53
739	-0.529
740	-0.539
740	-0.539
741	-0.55
741	-0.559
741	-0.57
742	-0.574
742	-0.591
743	-0.598
743	-0.601
744	-0.603
744	-0.617
744	-0.613
745	-0.621
745	-0.611
746	-0.608
746	-0.598
747	-0.601
747	-0.592
748	-0.592
748	-0.597
748	-0.597
749	-0.59
749	-0.595
750	-0.587
750	-0.586
751	-0.584
751	-0.582
751	-0.594
752	-0.599
752	-0.605
753	-0.605
753	-0.6
754	-0.615
754	-0.618
754	-0.625
755	-0.624
755	-0.618
756	-0.62
756	-0.606
757	-0.597
757	-0.582
758	-0.581
758	-0.58
758	-0.577
759	-0.579
759	-0.579
760	-0.577
760	-0.579
761	-0.575
761	-0.581
761	-0.582
762	-0.589
762	-0.591
763	-0.591
763	-0.595
764	-0.594
764	-0.59
764	-0.596
765	-0.597
765	-0.603
766	-0.605
766	-0.605
767	-0.62
767	-0.617
768	-0.617
768	-0.611
768	-0.606
769	-0.609
769	-0.617
770	-0.626
770	-0.629
771	-0.625
771	-0.622
771	-0.625
772	-0.628
772	-0.649
773	-0.649
773	-0.649
774	-0.648
774	-0.631
775	-0.617
775	-0.616
775	-0.619
776	-0.631
776	-0.628
777	-0.631
777	-0.61
778	-0.619
778	-0.623
778	-0.622
779	-0.629
779	-0.644
780	-0.639
780	-0.647
781	-0.637
781	-0.627
781	-0.636
782	-0.656
782	-0.654
783	-0.656
783	-0.661
784	-0.667
784	-0.662
784	-0.68
785	-0.672
785	-0.683
786	-0.687
786	-0.681
787	-0.672
787	-0.683
788	-0.678
788	-0.675
788	-0.677
789	-0.676
789	-0.67
790	-0.671
790	-0.658
791	-0.663
791	-0.661
791	-0.654
792	-0.65
792	-0.655
793	-0.659
793	-0.646
794	-0.639
794	-0.632
794	-0.639
795	-0.659
795	-0.649
796	-0.653
796	-0.649
797	-0.642
797	-0.633
797	-0.626
798	-0.645
798	-0.649
799	-0.646
799	-0.633
800	-0.629
800	-0.634
801	-0.632
801	-0.638
801	-0.636
802	-0.632
802	-0.633
803	-0.631
803	-0.627
804	-0.635
804	-0.642
804	-0.626
805	-0.609
805	-0.601
806	-0.601
806	-0.595
807	-0.599
807	-0.599
807	-0.581
808	-0.577
808	-0.57
809	-0.567
809	-0.57
810	-0.573
810	-0.571
810	-0.569
811	-0.575
811	-0.565
812	-0.555
812	-0.555
813	-0.56
813	-0.559
813	-0.555
814	-0.552
814	-0.557
815	-0.55
815	-0.544
816	-0.539
816	-0.555
817	-0.569
817	-0.574
817	-0.583
818	-0.576
818	-0.574
819	-0.585
819	-0.581
820	-0.592
820	-0.591
820	-0.59
821	-0.587
821	-0.583
822	-0.583
822	-0.57
823	-0.582
823	-0.579
823	-0.575
824	-0.576
824	-0.583
825	-0.583
825	-0.582
826	-0.579
826	-0.575
826	-0.573
827	-0.574
827	-0.569
828	-0.57
828	-0.565
829	-0.559
829	-0.547
829	-0.544
830	-0.543
830	-0.529
831	-0.525
831	-0.515
832	-0.506
832	-0.499
832	-0.492
833	-0.488
833	-0.497
834	-0.494
834	-0.49
835	-0.482
835	-0.485
835	-0.479
836	-0.476
836	-0.476
837	-0.469
837	-0.461
838	-0.45
838	-0.433
839	-0.429
839	-0.416
839	-0.407
840	-0.404
840	-0.395
841	-0.385
841	-0.379
842	-0.37
842	-0.362
842	-0.363
843	-0.362
843	-0.359
844	-0.359
844	-0.349
845	-0.34
845	-0.335
845	-0.328
846	-0.32
846	-0.313
847	-0.305
847	-0.295
848	-0.284
848	-0.269
848	-0.26
849	-0.252
849	-0.244
850	-0.237
850	-0.23
851	-0.219
851	-0.208
851	-0.202
852	-0.191
852	-0.183
853	-0.178
853	-0.169
854	-0.162
854	-0.154
854	-0.146
855	-0.138
855	-0.133
856	-0.128
856	-0.123
857	-0.117
857	-0.113
857	-0.105
858	-0.099
858	-0.095
859	-0.088
859	-0.081
860	-0.075
860	-0.067
860	-0.062
861	-0.056
861	-0.051
862	-0.047
862	-0.042
863	-0.037
863	-0.033
863	-0.029
864	-0.025
864	-0.021
865	-0.018
865	-0.014
866	-0.011
866	-0.008
866	-0.005
867	-0.003
867	0
868	0.003
868	0.005
869	0.008
869	0.01
869	0.012
870	0.014
870	0.016
871	0.017
871	0.018
872	0.018
872	0.018
872	0.018
873	0.018
873	0.018
874	0.017
874	0.017
875	0.016
875	0.015
875	0.015
876	0.014
876	0.013
877	0.013
877	0.012
878	0.011
878	0.01
878	0.009
879	0.008
879	0.008
880	0.008
880	0.007
881	0.007
881	0.007
881	0.007
882	0.007
882	0.006
883	0.006
883	0.006
884	0.006
884	0.006
884	0.006
885	0.005
885	0.005
886	0.004
886	0.003
887	0.002
887	0.001
887	-0
888	-0.001
888	-0.002
889	-0.002
889	-0.003
890	-0.004
890	-0.004
890	-0.004
891	-0.004
891	-0.004
892	-0.003
892	-0.002
893	-0.001
893	-0.001
893	-0.001
894	0
894	0.001
895	0.001
895	0.001
895	0.002
896	0.003
896	0.003
897	0.003
897	0.003
898	0.003
898	0.003
898	0.003
899	0.004
899	0.004
900	0.004
900	0.003
901	0.003
901	0.002
901	0.002
902	0.002
902	0.002
903	0.002
903	0.001
904	0
904	-0
904	-0
905	-0.001
905	-0
906	-0
906	0
907	0.001
907	0.001
907	0.001
908	0.002
908	0.003
909	0.004
909	0.004
910	0.005
910	0.005
910	0.005
911	0.006
911	0.007
912	0.008
912	0.009
913	0.01
913	0.011
913	0.012
914	0.013
914	0.014
915	0.014
915	0.014
916	0.014
916	0.013
916	0.012
917	0.011
917	0.01
918	0.009
918	0.009
918	0.008
919	0.008
919	0.007
920	0.007
920	0.007
921	0.007
921	0.008
921	0.008
922	0.008
922	0.008
923	0.008
923	0.008
924	0.008
924	0.008
924	0.007
925	0.007
925	0.007
926	0.006
926	0.006
927	0.006
927	0.006
927	0.006
928	0.006
928	0.006
929	0.007
929	0.007
930	0.008
930	0.01
930	0.011
931	0.012
931	0.013
932	0.014
932	0.015
933	0.016
933	0.017
933	0.018
934	0.018
934	0.018
935	0.019
935	0.018
935	0.017
936	0.016
936	0.015
937	0.013
937	0.012
938	0.011
938	0.01
938	0.009
939	0.008
939	0.007
940	0.006
940	0.006
941	0.006
941	0.006
941	0.006
942	0.006
942	0.007
943	0.007
943	0.008
944	0.008
944	0.007
944	0.007
945	0.007
945	0.007
946	0.006
946	0.005
946	0.005
947	0.004
947	0.003
948	0.002
948	0.001
949	0.001
949	0.001
949	0.001
950	0.001
950	0.001
951	0.002
951	0.002
952	0.003
952	0.004
952	0.004
953	0.005
953	0.006
954	0.006
954	0.006
955	0.006
955	0.006
955	0.006
956	0.005
956	0.005
957	0.004
957	0.004
957	0.003
958	0.002
958	0.002
959	0.002
959	0.001
960	0.001
960	0.001
960	0.001
961	0.001
961	0.001
962	0.001
962	0.002
963	0.002
963	0.002
963	0.003
964	0.003
964	0.004
965	0.004
965	0.005
966	0.005
966	0.006
966	0.006
967	0.007
967	0.007
968	0.007
968	0.007
968	0.007
969	0.006
969	0.006
970	0.005
970	0.004
971	0.003
971	0.003
971	0.002
972	0.002
972	0.002
973	0.002
973	0.002
974	0.002
974	0.003
974	0.004
975	0.005
975	0.006
976	0.007
976	0.007
976	0.008
977	0.008
977	0.008
978	0.008
978	0.007
979	0.007
979	0.006
979	0.005
980	0.005
980	0.004
981	0.003
981	0.003
982	0.002
982	0.002
982	0.002
983	0.002
983	0.002
984	0.002
984	0.002
984	0.002
985	0.003
985	0.003
986	0.003
986	0.003
987	0.003
987	0.003
987	0.003
988	0.003
988	0.002
989	0.002
989	0.002
990	0.001
990	0
990	0
991	-0
991	-0
992	-0.001
992	-0.001
992	-0.001
993	-0.002
993	-0.002
994	-0.002
994	-0.002
995	-0.002
995	-0.003
995	-0.003
996	-0.003
996	-0.003
997	-0.004
997	-0.004
997	-0.003
998	-0.003
998	-0.002
999	-0.002
999	-0.002
1000	-0.002
1000	-0.002
1000	-0.002
1001	-0.001
1001	-0.001
1002	-0
1002	-0
1003	-0
1003	-0.001
1003	-0.001
1004	-0.001
1004	-0.002
1005	-0.003
1005	-0.004
1005	-0.005
1006	-0.006
1006	-0.007
1007	-0.007
1007	-0.008
1008	-0.009
1008	-0.01
1008	-0.01
1009	-0.01
1009	-0.01
1010	-0.01
1010	-0.009
1010	-0.009
1011	-0.009
1011	-0.008
1012	-0.008
1012	-0.007
1013	-0.006
1013	-0.005
1013	-0.004
1014	-0.004
1014	-0.003
1015	-0.002
1015	-0.002
1016	-0.001
1016	-0.001
1016	-0.001
1017	-0.001
1017	-0
1018	-0
1018	-0
1018	-0
1019	-0
1019	-0.001
1020	-0.001
1020	-0.001
1021	-0.002
1021	-0.002
1021	-0.003
1022	-0.004
1022	-0.004
1023	-0.005
1023	-0.006
1023	-0.007
1024	-0.008
1024	-0.009
1025	-0.01
1025	-0.011
1026	-0.011
1026	-0.012
1026	-0.013
1027	-0.013
1027	-0.014
1028	-0.014
1028	-0.014
1028	-0.014
1029	-0.014
1029	-0.014
1030	-0.014
1030	-0.014
1031	-0.014
1031	-0.014
1031	-0.014
1032	-0.015
1032	-0.015
1033	-0.015
1033	-0.016
1033	-0.016
1034	-0.016
1034	-0.016
1035	-0.016
1035	-0.016
1036	-0.016
1036	-0.015
1036	-0.015
1037	-0.015
1037	-0.013
1038	-0.013
1038	-0.012
1039	-0.011
1039	-0.01
1039	-0.009
1040	-0.009
1040	-0.008
1041	-0.008
1041	-0.008
1041	-0.009
1042	-0.009
1042	-0.01
1043	-0.011
1043	-0.012
1044	-0.012
1044	-0.014
1044	-0.015
1045	-0.016
1045	-0.016
1046	-0.017
1046	-0.017
1046	-0.017
1047	-0.017
1047	-0.018
1048	-0.017
1048	-0.018
1049	-0.018
1049	-0.018
1049	-0.018
1050	-0.019
1050	-0.02
1051	-0.021
1051	-0.021
1051	-0.022
1052	-0.023
1052	-0.023
1053	-0.023
1053	-0.023
1053	-0.023
1054	-0.023
1054	-0.023
1055	-0.023
1055	-0.022
1056	-0.023
1056	-0.023
1056	-0.023
1057	-0.023
1057	-0.023
1058	-0.024
1058	-0.024
1058	-0.024
1059	-0.024
1059	-0.025
1060	-0.025
1060	-0.025
1061	-0.025
1061	-0.024
1061	-0.024
1062	-0.023
1062	-0.023
1063	-0.023
1063	-0.023
1063	-0.023
1064	-0.023
1064	-0.023
1065	-0.023
1065	-0.023
1066	-0.023
1066	-0.023
1066	-0.023
1067	-0.024
1067	-0.024
1068	-0.024
1068	-0.025
1068	-0.026
1069	-0.027
1069	-0.027
1070	-0.028
1070	-0.029
1071	-0.029
1071	-0.03
1071	-0.03
1072	-0.03
1072	-0.029
1073	-0.029
1073	-0.029
1073	-0.028
1074	-0.028
1074	-0.027
1075	-0.027
1075	-0.027
1076	-0.028
1076	-0.028
1076	-0.028
1077	-0.029
1077	-0.03
1078	-0.03
1078	-0.031
1078	-0.031
1079	-0.031
1079	-0.032
1080	-0.032
1080	-0.032
1080	-0.033
1081	-0.034
1081	-0.034
1082	-0.034
1082	-0.035
1083	-0.035
1083	-0.036
1083	-0.036
1084	-0.037
1084	-0.037
1085	-0.037
1085	-0.037
1085	-0.037
1086	-0.038
1086	-0.038
1087	-0.039
1087	-0.039
1088	-0.04
1088	-0.04
1088	-0.041
1089	-0.042
1089	-0.043
1090	-0.044
1090	-0.044
1090	-0.045
1091	-0.046
1091	-0.046
1092	-0.046
1092	-0.047
1092	-0.047
1093	-0.048
1093	-0.048
1094	-0.048
1094	-0.048
1095	-0.049
1095	-0.048
1095	-0.049
1096	-0.05
1096	-0.051
1097	-0.052
1097	-0.053
1097	-0.054
1098	-0.054
1098	-0.056
1099	-0.057
1099	-0.058
1100	-0.06
1100	-0.061
1100	-0.063
1101	-0.065
1101	-0.066
1102	-0.067
1102	-0.069
1102	-0.07
1103	-0.072
1103	-0.074
1104	-0.075
1104	-0.076
1104	-0.078
1105	-0.079
1105	-0.081
1106	-0.084
1106	-0.086
1107	-0.089
1107	-0.093
1107	-0.096
1108	-0.097
1108	-0.098
1109	-0.101
1109	-0.104
1109	-0.107
1110	-0.108
1110	-0.111
1111	-0.117
1111	-0.114
