Data from 3.5A_17C_Absorbance__915__00917.txt Node

Date: Tue Jun 20 15:29:42 CEST 2023
User: Marek
Spectrometer: MAYP115816
Trigger mode: 0
Integration Time (sec): 2.200000E-1
Scans to average: 10
Electric dark correction enabled: true
Nonlinearity correction enabled: true
Boxcar width: 5
XAxis mode: Wavelengths
Number of Pixels in Spectrum: 2068
>>>>>Begin Spectral Data<<<<<
199	-0.711
199	-0.696
200	-0.662
200	-0.604
201	-0.578
201	-0.572
202	-0.558
202	-0.55
203	-0.55
203	-0.544
204	-0.525
204	-0.513
205	-0.492
205	-0.484
205	-0.494
206	-0.497
206	-0.492
207	-0.484
207	-0.492
208	-0.492
208	-0.498
209	-0.501
209	-0.506
210	-0.518
210	-0.524
211	-0.52
211	-0.523
212	-0.532
212	-0.54
213	-0.535
213	-0.532
213	-0.528
214	-0.534
214	-0.535
215	-0.532
215	-0.538
216	-0.545
216	-0.55
217	-0.548
217	-0.548
218	-0.557
218	-0.558
219	-0.565
219	-0.567
220	-0.57
220	-0.576
221	-0.575
221	-0.575
221	-0.566
222	-0.565
222	-0.563
223	-0.558
223	-0.561
224	-0.563
224	-0.562
225	-0.559
225	-0.56
226	-0.562
226	-0.562
227	-0.572
227	-0.58
228	-0.585
228	-0.594
229	-0.599
229	-0.597
229	-0.596
230	-0.592
230	-0.591
231	-0.588
231	-0.583
232	-0.586
232	-0.58
233	-0.581
233	-0.569
234	-0.568
234	-0.561
235	-0.566
235	-0.579
236	-0.584
236	-0.585
236	-0.584
237	-0.582
237	-0.583
238	-0.583
238	-0.584
239	-0.587
239	-0.598
240	-0.593
240	-0.587
241	-0.582
241	-0.585
242	-0.589
242	-0.596
243	-0.598
243	-0.598
243	-0.602
244	-0.598
244	-0.598
245	-0.6
245	-0.603
246	-0.613
246	-0.617
247	-0.624
247	-0.613
248	-0.612
248	-0.614
249	-0.62
249	-0.624
250	-0.623
250	-0.631
250	-0.63
251	-0.63
251	-0.625
252	-0.627
252	-0.639
253	-0.633
253	-0.646
254	-0.652
254	-0.652
255	-0.662
255	-0.66
256	-0.662
256	-0.675
257	-0.685
257	-0.681
258	-0.678
258	-0.686
258	-0.683
259	-0.674
259	-0.69
260	-0.691
260	-0.68
261	-0.69
261	-0.675
262	-0.682
262	-0.68
263	-0.673
263	-0.677
264	-0.688
264	-0.689
265	-0.682
265	-0.685
265	-0.696
266	-0.688
266	-0.687
267	-0.687
267	-0.705
268	-0.714
268	-0.708
269	-0.7
269	-0.716
270	-0.718
270	-0.717
271	-0.728
271	-0.739
272	-0.738
272	-0.74
272	-0.732
273	-0.74
273	-0.755
274	-0.748
274	-0.742
275	-0.738
275	-0.728
276	-0.732
276	-0.734
277	-0.737
277	-0.734
278	-0.74
278	-0.74
278	-0.73
279	-0.738
279	-0.751
280	-0.753
280	-0.759
281	-0.752
281	-0.745
282	-0.752
282	-0.745
283	-0.735
283	-0.749
284	-0.763
284	-0.772
285	-0.753
285	-0.76
285	-0.753
286	-0.76
286	-0.777
287	-0.774
287	-0.775
288	-0.776
288	-0.756
289	-0.753
289	-0.76
290	-0.769
290	-0.757
291	-0.762
291	-0.759
292	-0.741
292	-0.74
292	-0.742
293	-0.731
293	-0.729
294	-0.729
294	-0.716
295	-0.699
295	-0.713
296	-0.724
296	-0.718
297	-0.704
297	-0.707
298	-0.703
298	-0.72
298	-0.723
299	-0.704
299	-0.696
300	-0.691
300	-0.672
301	-0.653
301	-0.656
302	-0.667
302	-0.654
303	-0.647
303	-0.634
304	-0.617
304	-0.622
305	-0.614
305	-0.627
305	-0.639
306	-0.626
306	-0.625
307	-0.618
307	-0.628
308	-0.63
308	-0.627
309	-0.629
309	-0.624
310	-0.62
310	-0.613
311	-0.601
311	-0.618
311	-0.606
312	-0.602
312	-0.593
313	-0.585
313	-0.587
314	-0.591
314	-0.59
315	-0.589
315	-0.583
316	-0.577
316	-0.566
317	-0.558
317	-0.555
318	-0.545
318	-0.542
318	-0.53
319	-0.519
319	-0.511
320	-0.508
320	-0.506
321	-0.501
321	-0.502
322	-0.498
322	-0.49
323	-0.491
323	-0.484
324	-0.484
324	-0.474
324	-0.465
325	-0.45
325	-0.432
326	-0.426
326	-0.403
327	-0.388
327	-0.368
328	-0.337
328	-0.315
329	-0.286
329	-0.258
330	-0.231
330	-0.198
330	-0.163
331	-0.127
331	-0.093
332	-0.061
332	-0.028
333	0.002
333	0.034
334	0.061
334	0.083
335	0.108
335	0.128
336	0.147
336	0.165
336	0.179
337	0.194
337	0.208
338	0.22
338	0.228
339	0.24
339	0.25
340	0.257
340	0.263
341	0.27
341	0.276
342	0.281
342	0.287
342	0.291
343	0.294
343	0.299
344	0.301
344	0.303
345	0.306
345	0.308
346	0.31
346	0.311
347	0.312
347	0.313
348	0.314
348	0.315
348	0.316
349	0.317
349	0.318
350	0.318
350	0.318
351	0.319
351	0.32
352	0.32
352	0.32
353	0.32
353	0.32
354	0.321
354	0.32
354	0.32
355	0.32
355	0.32
356	0.32
356	0.32
357	0.321
357	0.321
358	0.32
358	0.32
359	0.32
359	0.32
360	0.32
360	0.32
360	0.32
361	0.32
361	0.319
362	0.319
362	0.319
363	0.32
363	0.32
364	0.319
364	0.319
365	0.319
365	0.319
366	0.319
366	0.319
366	0.319
367	0.319
367	0.318
368	0.318
368	0.318
369	0.317
369	0.317
370	0.317
370	0.317
371	0.317
371	0.317
372	0.316
372	0.316
372	0.316
373	0.316
373	0.316
374	0.315
374	0.315
375	0.315
375	0.315
376	0.314
376	0.314
377	0.314
377	0.314
378	0.313
378	0.313
378	0.312
379	0.312
379	0.312
380	0.312
380	0.312
381	0.311
381	0.311
382	0.311
382	0.31
383	0.31
383	0.31
383	0.31
384	0.31
384	0.309
385	0.308
385	0.308
386	0.308
386	0.307
387	0.307
387	0.307
388	0.306
388	0.306
389	0.306
389	0.306
389	0.306
390	0.306
390	0.306
391	0.306
391	0.306
392	0.306
392	0.306
393	0.305
393	0.305
394	0.305
394	0.304
394	0.304
395	0.304
395	0.303
396	0.303
396	0.302
397	0.302
397	0.302
398	0.301
398	0.301
399	0.301
399	0.3
400	0.3
400	0.3
400	0.3
401	0.3
401	0.299
402	0.299
402	0.299
403	0.299
403	0.298
404	0.298
404	0.298
405	0.297
405	0.296
405	0.296
406	0.296
406	0.296
407	0.295
407	0.295
408	0.295
408	0.295
409	0.295
409	0.294
410	0.294
410	0.294
411	0.294
411	0.294
411	0.294
412	0.293
412	0.293
413	0.293
413	0.292
414	0.292
414	0.292
415	0.291
415	0.291
416	0.291
416	0.291
416	0.291
417	0.291
417	0.291
418	0.291
418	0.29
419	0.291
419	0.291
420	0.291
420	0.29
421	0.29
421	0.29
421	0.29
422	0.29
422	0.29
423	0.29
423	0.289
424	0.289
424	0.289
425	0.289
425	0.288
426	0.288
426	0.288
427	0.288
427	0.288
427	0.288
428	0.288
428	0.288
429	0.287
429	0.287
430	0.287
430	0.286
431	0.286
431	0.286
432	0.286
432	0.285
432	0.285
433	0.285
433	0.285
434	0.286
434	0.286
435	0.286
435	0.286
436	0.286
436	0.286
437	0.286
437	0.286
437	0.286
438	0.286
438	0.286
439	0.285
439	0.285
440	0.285
440	0.285
441	0.285
441	0.285
442	0.285
442	0.285
442	0.285
443	0.285
443	0.285
444	0.285
444	0.285
445	0.285
445	0.285
446	0.285
446	0.285
447	0.285
447	0.286
447	0.286
448	0.286
448	0.285
449	0.285
449	0.285
450	0.285
450	0.285
451	0.285
451	0.285
452	0.285
452	0.285
452	0.285
453	0.285
453	0.285
454	0.285
454	0.285
455	0.286
455	0.286
456	0.286
456	0.286
457	0.286
457	0.286
458	0.286
458	0.286
458	0.286
459	0.286
459	0.286
460	0.286
460	0.286
461	0.286
461	0.287
462	0.287
462	0.287
463	0.288
463	0.289
463	0.289
464	0.289
464	0.289
465	0.29
465	0.29
466	0.29
466	0.291
467	0.291
467	0.291
467	0.292
468	0.292
468	0.292
469	0.293
469	0.293
470	0.294
470	0.294
471	0.295
471	0.295
472	0.296
472	0.296
472	0.297
473	0.298
473	0.298
474	0.299
474	0.299
475	0.3
475	0.301
476	0.301
476	0.302
477	0.303
477	0.304
477	0.304
478	0.305
478	0.306
479	0.306
479	0.307
480	0.308
480	0.309
481	0.31
481	0.311
482	0.312
482	0.313
482	0.314
483	0.315
483	0.317
484	0.318
484	0.319
485	0.32
485	0.321
486	0.322
486	0.323
487	0.325
487	0.326
487	0.327
488	0.328
488	0.329
489	0.33
489	0.333
490	0.334
490	0.336
491	0.338
491	0.339
492	0.341
492	0.343
492	0.344
493	0.346
493	0.347
494	0.35
494	0.352
495	0.353
495	0.355
496	0.357
496	0.359
496	0.361
497	0.363
497	0.366
498	0.368
498	0.37
499	0.372
499	0.375
500	0.378
500	0.381
501	0.383
501	0.386
501	0.388
502	0.39
502	0.392
503	0.395
503	0.397
504	0.399
504	0.401
505	0.403
505	0.406
506	0.408
506	0.411
506	0.413
507	0.416
507	0.419
508	0.421
508	0.424
509	0.427
509	0.429
510	0.432
510	0.434
511	0.437
511	0.439
511	0.441
512	0.444
512	0.446
513	0.448
513	0.451
514	0.453
514	0.456
515	0.458
515	0.46
515	0.462
516	0.464
516	0.466
517	0.469
517	0.47
518	0.472
518	0.473
519	0.475
519	0.476
520	0.478
520	0.479
520	0.481
521	0.482
521	0.483
522	0.484
522	0.485
523	0.486
523	0.488
524	0.488
524	0.489
524	0.49
525	0.491
525	0.491
526	0.492
526	0.492
527	0.493
527	0.493
528	0.493
528	0.493
529	0.492
529	0.492
529	0.492
530	0.491
530	0.491
531	0.491
531	0.49
532	0.489
532	0.488
533	0.488
533	0.487
533	0.486
534	0.485
534	0.483
535	0.482
535	0.481
536	0.48
536	0.478
537	0.477
537	0.476
538	0.474
538	0.472
538	0.471
539	0.469
539	0.468
540	0.466
540	0.463
541	0.461
541	0.459
542	0.457
542	0.454
542	0.452
543	0.45
543	0.447
544	0.445
544	0.442
545	0.44
545	0.437
546	0.435
546	0.432
547	0.429
547	0.426
547	0.423
548	0.421
548	0.418
549	0.415
549	0.412
550	0.41
550	0.406
551	0.403
551	0.4
551	0.397
552	0.394
552	0.391
553	0.388
553	0.385
554	0.382
554	0.379
555	0.376
555	0.373
556	0.37
556	0.367
556	0.364
557	0.362
557	0.359
558	0.356
558	0.354
559	0.351
559	0.348
560	0.345
560	0.342
560	0.34
561	0.338
561	0.336
562	0.334
562	0.331
563	0.329
563	0.326
564	0.324
564	0.322
564	0.32
565	0.319
565	0.317
566	0.314
566	0.312
567	0.31
567	0.308
568	0.306
568	0.303
568	0.3
569	0.298
569	0.295
570	0.292
570	0.288
571	0.286
571	0.284
572	0.282
572	0.279
573	0.277
573	0.275
573	0.272
574	0.271
574	0.269
575	0.268
575	0.267
576	0.266
576	0.263
577	0.261
577	0.259
577	0.258
578	0.258
578	0.257
579	0.257
579	0.256
580	0.253
580	0.25
581	0.248
581	0.247
581	0.246
582	0.245
582	0.244
583	0.243
583	0.241
584	0.238
584	0.234
585	0.234
585	0.233
585	0.231
586	0.23
586	0.228
587	0.226
587	0.224
588	0.222
588	0.221
589	0.221
589	0.22
590	0.219
590	0.218
590	0.218
591	0.218
591	0.217
592	0.216
592	0.214
593	0.214
593	0.213
594	0.212
594	0.211
594	0.21
595	0.209
595	0.207
596	0.206
596	0.206
597	0.207
597	0.207
598	0.206
598	0.205
598	0.205
599	0.204
599	0.203
600	0.202
600	0.201
601	0.201
601	0.2
602	0.198
602	0.197
602	0.196
603	0.196
603	0.195
604	0.195
604	0.194
605	0.194
605	0.194
606	0.193
606	0.191
606	0.19
607	0.19
607	0.189
608	0.188
608	0.187
609	0.186
609	0.186
610	0.185
610	0.184
610	0.183
611	0.183
611	0.183
612	0.183
612	0.183
613	0.183
613	0.183
614	0.182
614	0.181
614	0.18
615	0.179
615	0.179
616	0.178
616	0.177
617	0.177
617	0.176
618	0.175
618	0.174
618	0.173
619	0.173
619	0.173
620	0.173
620	0.172
621	0.171
621	0.17
622	0.169
622	0.168
622	0.167
623	0.166
623	0.166
624	0.166
624	0.165
625	0.164
625	0.164
626	0.163
626	0.162
626	0.162
627	0.161
627	0.16
628	0.159
628	0.158
629	0.156
629	0.155
630	0.153
630	0.151
630	0.15
631	0.148
631	0.146
632	0.144
632	0.143
633	0.141
633	0.14
634	0.139
634	0.137
634	0.136
635	0.135
635	0.133
636	0.132
636	0.13
637	0.128
637	0.126
638	0.124
638	0.122
638	0.12
639	0.118
639	0.115
640	0.113
640	0.11
641	0.107
641	0.105
642	0.102
642	0.1
642	0.097
643	0.093
643	0.089
644	0.086
644	0.082
645	0.078
645	0.074
646	0.069
646	0.064
646	0.059
647	0.053
647	0.048
648	0.042
648	0.037
649	0.031
649	0.026
650	0.02
650	0.014
650	0.008
651	0
651	-0.009
652	-0.02
652	-0.032
653	-0.042
653	-0.051
653	-0.046
654	-0.031
654	-0.028
655	-0.033
655	-0.037
656	-0.042
656	-0.048
657	-0.053
657	-0.057
657	-0.062
658	-0.069
658	-0.097
659	-0.172
659	-0.251
660	-0.287
660	-0.312
661	-0.339
661	-0.366
661	-0.396
662	-0.423
662	-0.452
663	-0.485
663	-0.522
664	-0.558
664	-0.598
665	-0.643
665	-0.689
665	-0.732
666	-0.783
666	-0.838
667	-0.892
667	-0.955
668	-1.014
668	-1.083
669	-1.151
669	-1.224
669	-1.302
670	-1.382
670	-1.493
671	-1.662
671	-1.978
672	-2.262
672	-2.44
672	-2.568
673	-2.67
673	-2.753
674	-2.81
674	-2.826
675	-2.842
675	-2.847
676	-2.844
676	-2.807
676	-2.735
677	-2.648
677	-2.541
678	-2.38
678	-2.106
679	-1.729
679	-1.561
680	-1.456
680	-1.378
680	-1.308
681	-1.259
681	-1.205
682	-1.162
682	-1.117
683	-1.073
683	-1.049
684	-1.018
684	-0.999
684	-0.975
685	-0.954
685	-0.944
686	-0.92
686	-0.906
687	-0.894
687	-0.882
687	-0.881
688	-0.864
688	-0.856
689	-0.859
689	-0.856
690	-0.843
690	-0.831
691	-0.829
691	-0.831
691	-0.83
692	-0.831
692	-0.828
693	-0.832
693	-0.843
694	-0.823
694	-0.822
695	-0.823
695	-0.818
695	-0.825
696	-0.831
696	-0.825
697	-0.819
697	-0.815
698	-0.811
698	-0.804
698	-0.817
699	-0.814
699	-0.816
700	-0.836
700	-0.83
701	-0.819
701	-0.812
702	-0.811
702	-0.809
702	-0.81
703	-0.8
703	-0.786
704	-0.795
704	-0.797
705	-0.786
705	-0.785
705	-0.778
706	-0.772
706	-0.768
707	-0.779
707	-0.782
708	-0.78
708	-0.779
709	-0.777
709	-0.773
709	-0.768
710	-0.775
710	-0.778
711	-0.778
711	-0.78
712	-0.77
712	-0.767
713	-0.771
713	-0.77
713	-0.752
714	-0.755
714	-0.758
715	-0.749
715	-0.759
716	-0.775
716	-0.783
716	-0.783
717	-0.788
717	-0.78
718	-0.776
718	-0.775
719	-0.771
719	-0.763
720	-0.757
720	-0.751
720	-0.744
721	-0.735
721	-0.739
722	-0.737
722	-0.734
723	-0.753
723	-0.766
723	-0.775
724	-0.775
724	-0.781
725	-0.777
725	-0.779
726	-0.784
726	-0.775
727	-0.776
727	-0.784
727	-0.774
728	-0.76
728	-0.755
729	-0.755
729	-0.758
730	-0.763
730	-0.755
730	-0.759
731	-0.762
731	-0.764
732	-0.764
732	-0.759
733	-0.775
733	-0.781
734	-0.789
734	-0.781
734	-0.762
735	-0.753
735	-0.748
736	-0.746
736	-0.739
737	-0.74
737	-0.729
737	-0.72
738	-0.704
738	-0.694
739	-0.695
739	-0.696
740	-0.71
740	-0.711
741	-0.722
741	-0.733
741	-0.743
742	-0.75
742	-0.767
743	-0.775
743	-0.778
744	-0.781
744	-0.79
744	-0.782
745	-0.792
745	-0.78
746	-0.773
746	-0.765
747	-0.765
747	-0.758
748	-0.76
748	-0.765
748	-0.766
749	-0.758
749	-0.766
750	-0.756
750	-0.758
751	-0.756
751	-0.754
751	-0.765
752	-0.768
752	-0.77
753	-0.77
753	-0.762
754	-0.781
754	-0.781
754	-0.788
755	-0.787
755	-0.782
756	-0.783
756	-0.769
757	-0.761
757	-0.75
758	-0.752
758	-0.752
758	-0.748
759	-0.752
759	-0.752
760	-0.751
760	-0.753
761	-0.747
761	-0.752
761	-0.752
762	-0.757
762	-0.758
763	-0.757
763	-0.763
764	-0.762
764	-0.759
764	-0.764
765	-0.764
765	-0.773
766	-0.776
766	-0.778
767	-0.792
767	-0.789
768	-0.787
768	-0.778
768	-0.772
769	-0.776
769	-0.784
770	-0.792
770	-0.794
771	-0.791
771	-0.79
771	-0.794
772	-0.798
772	-0.821
773	-0.822
773	-0.822
774	-0.819
774	-0.801
775	-0.79
775	-0.791
775	-0.795
776	-0.805
776	-0.804
777	-0.804
777	-0.786
778	-0.795
778	-0.804
778	-0.805
779	-0.814
779	-0.829
780	-0.825
780	-0.834
781	-0.825
781	-0.815
781	-0.828
782	-0.849
782	-0.85
783	-0.85
783	-0.859
784	-0.864
784	-0.856
784	-0.875
785	-0.868
785	-0.878
786	-0.883
786	-0.877
787	-0.865
787	-0.871
788	-0.862
788	-0.856
788	-0.856
789	-0.858
789	-0.845
790	-0.844
790	-0.829
791	-0.836
791	-0.831
791	-0.826
792	-0.822
792	-0.828
793	-0.83
793	-0.817
794	-0.81
794	-0.803
794	-0.809
795	-0.829
795	-0.814
796	-0.818
796	-0.815
797	-0.809
797	-0.797
797	-0.789
798	-0.809
798	-0.813
799	-0.813
799	-0.799
800	-0.794
800	-0.804
801	-0.801
801	-0.804
801	-0.802
802	-0.8
802	-0.802
803	-0.798
803	-0.792
804	-0.798
804	-0.806
804	-0.789
805	-0.767
805	-0.76
806	-0.76
806	-0.757
807	-0.76
807	-0.757
807	-0.74
808	-0.735
808	-0.728
809	-0.722
809	-0.725
810	-0.728
810	-0.725
810	-0.721
811	-0.724
811	-0.716
812	-0.709
812	-0.711
813	-0.715
813	-0.718
813	-0.715
814	-0.715
814	-0.722
815	-0.712
815	-0.706
816	-0.702
816	-0.719
817	-0.729
817	-0.734
817	-0.743
818	-0.735
818	-0.732
819	-0.742
819	-0.74
820	-0.751
820	-0.752
820	-0.752
821	-0.747
821	-0.744
822	-0.742
822	-0.73
823	-0.742
823	-0.74
823	-0.734
824	-0.732
824	-0.743
825	-0.742
825	-0.739
826	-0.734
826	-0.731
826	-0.731
827	-0.73
827	-0.72
828	-0.72
828	-0.715
829	-0.708
829	-0.694
829	-0.692
830	-0.69
830	-0.675
831	-0.668
831	-0.658
832	-0.65
832	-0.646
832	-0.64
833	-0.638
833	-0.646
834	-0.64
834	-0.634
835	-0.627
835	-0.628
835	-0.624
836	-0.619
836	-0.615
837	-0.606
837	-0.596
838	-0.584
838	-0.566
839	-0.562
839	-0.551
839	-0.542
840	-0.54
840	-0.53
841	-0.519
841	-0.513
842	-0.502
842	-0.491
842	-0.489
843	-0.485
843	-0.48
844	-0.478
844	-0.467
845	-0.455
845	-0.445
845	-0.435
846	-0.423
846	-0.415
847	-0.404
847	-0.391
848	-0.377
848	-0.362
848	-0.347
849	-0.335
849	-0.323
850	-0.313
850	-0.303
851	-0.292
851	-0.275
851	-0.266
852	-0.252
852	-0.24
853	-0.232
853	-0.223
854	-0.213
854	-0.202
854	-0.19
855	-0.181
855	-0.172
856	-0.168
856	-0.16
857	-0.154
857	-0.146
857	-0.134
858	-0.124
858	-0.117
859	-0.108
859	-0.099
860	-0.089
860	-0.076
860	-0.067
861	-0.058
861	-0.05
862	-0.042
862	-0.035
863	-0.028
863	-0.02
863	-0.015
864	-0.009
864	-0.004
865	0.001
865	0.006
866	0.011
866	0.016
866	0.02
867	0.024
867	0.029
868	0.032
868	0.036
869	0.04
869	0.043
869	0.045
870	0.047
870	0.049
871	0.051
871	0.052
872	0.053
872	0.053
872	0.054
873	0.054
873	0.054
874	0.054
874	0.053
875	0.053
875	0.052
875	0.052
876	0.052
876	0.052
877	0.051
877	0.05
878	0.05
878	0.049
878	0.048
879	0.048
879	0.047
880	0.047
880	0.045
881	0.044
881	0.044
881	0.043
882	0.042
882	0.041
883	0.041
883	0.04
884	0.04
884	0.04
884	0.04
885	0.04
885	0.04
886	0.04
886	0.04
887	0.04
887	0.039
887	0.039
888	0.038
888	0.037
889	0.036
889	0.036
890	0.035
890	0.034
890	0.033
891	0.033
891	0.033
892	0.033
892	0.033
893	0.033
893	0.033
893	0.033
894	0.033
894	0.033
895	0.033
895	0.032
895	0.032
896	0.033
896	0.033
897	0.033
897	0.034
898	0.034
898	0.035
898	0.035
899	0.036
899	0.036
900	0.037
900	0.036
901	0.036
901	0.036
901	0.037
902	0.037
902	0.037
903	0.037
903	0.037
904	0.036
904	0.036
904	0.036
905	0.036
905	0.036
906	0.036
906	0.036
907	0.036
907	0.036
907	0.036
908	0.037
908	0.037
909	0.038
909	0.038
910	0.039
910	0.04
910	0.04
911	0.041
911	0.042
912	0.044
912	0.045
913	0.046
913	0.047
913	0.048
914	0.049
914	0.049
915	0.049
915	0.049
916	0.049
916	0.048
916	0.047
917	0.047
917	0.046
918	0.045
918	0.045
918	0.045
919	0.044
919	0.044
920	0.044
920	0.044
921	0.044
921	0.043
921	0.043
922	0.043
922	0.042
923	0.042
923	0.041
924	0.041
924	0.041
924	0.041
925	0.04
925	0.04
926	0.04
926	0.04
927	0.039
927	0.039
927	0.04
928	0.04
928	0.04
929	0.041
929	0.041
930	0.042
930	0.042
930	0.043
931	0.043
931	0.044
932	0.044
932	0.045
933	0.045
933	0.045
933	0.044
934	0.044
934	0.043
935	0.042
935	0.041
935	0.039
936	0.038
936	0.036
937	0.035
937	0.033
938	0.032
938	0.031
938	0.031
939	0.03
939	0.03
940	0.03
940	0.03
941	0.029
941	0.029
941	0.03
942	0.029
942	0.03
943	0.03
943	0.03
944	0.03
944	0.029
944	0.029
945	0.029
945	0.03
946	0.029
946	0.028
946	0.028
947	0.028
947	0.028
948	0.028
948	0.027
949	0.027
949	0.027
949	0.028
950	0.028
950	0.029
951	0.029
951	0.03
952	0.03
952	0.03
952	0.03
953	0.031
953	0.032
954	0.031
954	0.031
955	0.031
955	0.031
955	0.031
956	0.031
956	0.031
957	0.029
957	0.029
957	0.028
958	0.028
958	0.028
959	0.028
959	0.028
960	0.028
960	0.028
960	0.028
961	0.028
961	0.028
962	0.028
962	0.028
963	0.028
963	0.028
963	0.028
964	0.028
964	0.028
965	0.028
965	0.028
966	0.028
966	0.028
966	0.028
967	0.028
967	0.028
968	0.028
968	0.027
968	0.027
969	0.027
969	0.027
970	0.026
970	0.025
971	0.025
971	0.024
971	0.024
972	0.024
972	0.024
973	0.024
973	0.024
974	0.024
974	0.025
974	0.026
975	0.027
975	0.027
976	0.028
976	0.029
976	0.029
977	0.029
977	0.029
978	0.029
978	0.029
979	0.029
979	0.029
979	0.028
980	0.028
980	0.027
981	0.027
981	0.027
982	0.026
982	0.027
982	0.026
983	0.026
983	0.026
984	0.026
984	0.026
984	0.026
985	0.026
985	0.026
986	0.025
986	0.024
987	0.023
987	0.023
987	0.022
988	0.021
988	0.02
989	0.019
989	0.019
990	0.018
990	0.017
990	0.017
991	0.016
991	0.016
992	0.017
992	0.017
992	0.017
993	0.017
993	0.017
994	0.017
994	0.017
995	0.017
995	0.016
995	0.016
996	0.016
996	0.015
997	0.014
997	0.014
997	0.014
998	0.014
998	0.015
999	0.015
999	0.015
1000	0.015
1000	0.015
1000	0.015
1001	0.016
1001	0.016
1002	0.016
1002	0.016
1003	0.016
1003	0.015
1003	0.015
1004	0.014
1004	0.014
1005	0.014
1005	0.013
1005	0.012
1006	0.012
1006	0.012
1007	0.011
1007	0.011
1008	0.011
1008	0.01
1008	0.011
1009	0.011
1009	0.012
1010	0.012
1010	0.012
1010	0.013
1011	0.013
1011	0.013
1012	0.013
1012	0.014
1013	0.015
1013	0.015
1013	0.015
1014	0.015
1014	0.015
1015	0.015
1015	0.015
1016	0.015
1016	0.015
1016	0.015
1017	0.015
1017	0.015
1018	0.015
1018	0.015
1018	0.015
1019	0.015
1019	0.014
1020	0.014
1020	0.013
1021	0.013
1021	0.013
1021	0.012
1022	0.012
1022	0.011
1023	0.011
1023	0.01
1023	0.01
1024	0.009
1024	0.009
1025	0.009
1025	0.009
1026	0.009
1026	0.009
1026	0.008
1027	0.008
1027	0.008
1028	0.008
1028	0.009
1028	0.009
1029	0.008
1029	0.008
1030	0.008
1030	0.007
1031	0.007
1031	0.007
1031	0.007
1032	0.007
1032	0.006
1033	0.005
1033	0.005
1033	0.005
1034	0.004
1034	0.004
1035	0.004
1035	0.004
1036	0.003
1036	0.003
1036	0.003
1037	0.004
1037	0.004
1038	0.005
1038	0.005
1039	0.006
1039	0.007
1039	0.007
1040	0.008
1040	0.008
1041	0.008
1041	0.008
1041	0.008
1042	0.007
1042	0.007
1043	0.007
1043	0.006
1044	0.005
1044	0.004
1044	0.004
1045	0.003
1045	0.002
1046	0.001
1046	0
1046	-0
1047	-0
1047	-0.001
1048	-0.001
1048	-0.001
1049	-0.001
1049	-0.001
1049	-0.002
1050	-0.002
1050	-0.003
1051	-0.004
1051	-0.004
1051	-0.005
1052	-0.005
1052	-0.006
1053	-0.007
1053	-0.007
1053	-0.007
1054	-0.008
1054	-0.008
1055	-0.008
1055	-0.008
1056	-0.008
1056	-0.008
1056	-0.008
1057	-0.009
1057	-0.009
1058	-0.009
1058	-0.009
1058	-0.009
1059	-0.009
1059	-0.01
1060	-0.01
1060	-0.01
1061	-0.01
1061	-0.01
1061	-0.009
1062	-0.009
1062	-0.009
1063	-0.009
1063	-0.009
1063	-0.009
1064	-0.009
1064	-0.009
1065	-0.009
1065	-0.01
1066	-0.01
1066	-0.01
1066	-0.011
1067	-0.011
1067	-0.011
1068	-0.012
1068	-0.012
1068	-0.013
1069	-0.013
1069	-0.014
1070	-0.014
1070	-0.015
1071	-0.015
1071	-0.015
1071	-0.016
1072	-0.016
1072	-0.016
1073	-0.015
1073	-0.015
1073	-0.015
1074	-0.015
1074	-0.015
1075	-0.016
1075	-0.016
1076	-0.017
1076	-0.017
1076	-0.018
1077	-0.019
1077	-0.02
1078	-0.021
1078	-0.022
1078	-0.023
1079	-0.023
1079	-0.023
1080	-0.025
1080	-0.025
1080	-0.026
1081	-0.027
1081	-0.028
1082	-0.028
1082	-0.029
1083	-0.03
1083	-0.031
1083	-0.032
1084	-0.033
1084	-0.033
1085	-0.034
1085	-0.035
1085	-0.034
1086	-0.034
1086	-0.035
1087	-0.035
1087	-0.035
1088	-0.037
1088	-0.037
1088	-0.037
1089	-0.039
1089	-0.039
1090	-0.041
1090	-0.042
1090	-0.043
1091	-0.044
1091	-0.045
1092	-0.046
1092	-0.046
1092	-0.048
1093	-0.049
1093	-0.049
1094	-0.05
1094	-0.05
1095	-0.052
1095	-0.052
1095	-0.052
1096	-0.054
1096	-0.055
1097	-0.056
1097	-0.057
1097	-0.057
1098	-0.059
1098	-0.061
1099	-0.062
1099	-0.063
1100	-0.065
1100	-0.067
1100	-0.069
1101	-0.073
1101	-0.075
1102	-0.077
1102	-0.08
1102	-0.082
1103	-0.084
1103	-0.087
1104	-0.089
1104	-0.092
1104	-0.094
1105	-0.096
1105	-0.098
1106	-0.102
1106	-0.105
1107	-0.11
1107	-0.113
1107	-0.117
1108	-0.12
1108	-0.121
1109	-0.125
1109	-0.129
1109	-0.133
1110	-0.134
1110	-0.136
1111	-0.143
1111	-0.136
