Data from 3.5A_17C_Absorbance__728__00730.txt Node

Date: Tue Jun 20 15:22:51 CEST 2023
User: Marek
Spectrometer: MAYP115816
Trigger mode: 0
Integration Time (sec): 2.200000E-1
Scans to average: 10
Electric dark correction enabled: true
Nonlinearity correction enabled: true
Boxcar width: 5
XAxis mode: Wavelengths
Number of Pixels in Spectrum: 2068
>>>>>Begin Spectral Data<<<<<
199	-0.698
199	-0.679
200	-0.64
200	-0.586
201	-0.558
201	-0.552
202	-0.537
202	-0.531
203	-0.531
203	-0.526
204	-0.507
204	-0.49
205	-0.47
205	-0.462
205	-0.471
206	-0.474
206	-0.47
207	-0.462
207	-0.469
208	-0.469
208	-0.471
209	-0.473
209	-0.479
210	-0.489
210	-0.496
211	-0.49
211	-0.493
212	-0.5
212	-0.508
213	-0.505
213	-0.5
213	-0.498
214	-0.504
214	-0.508
215	-0.505
215	-0.511
216	-0.521
216	-0.527
217	-0.524
217	-0.524
218	-0.53
218	-0.532
219	-0.541
219	-0.543
220	-0.546
220	-0.552
221	-0.551
221	-0.55
221	-0.542
222	-0.541
222	-0.54
223	-0.537
223	-0.538
224	-0.538
224	-0.535
225	-0.532
225	-0.534
226	-0.535
226	-0.535
227	-0.542
227	-0.553
228	-0.557
228	-0.565
229	-0.572
229	-0.569
229	-0.572
230	-0.567
230	-0.566
231	-0.563
231	-0.557
232	-0.559
232	-0.555
233	-0.554
233	-0.544
234	-0.545
234	-0.538
235	-0.54
235	-0.551
236	-0.557
236	-0.559
236	-0.559
237	-0.559
237	-0.56
238	-0.56
238	-0.562
239	-0.563
239	-0.574
240	-0.569
240	-0.565
241	-0.561
241	-0.562
242	-0.566
242	-0.574
243	-0.576
243	-0.577
243	-0.582
244	-0.578
244	-0.579
245	-0.58
245	-0.582
246	-0.594
246	-0.597
247	-0.604
247	-0.589
248	-0.587
248	-0.589
249	-0.594
249	-0.595
250	-0.594
250	-0.602
250	-0.602
251	-0.599
251	-0.595
252	-0.597
252	-0.608
253	-0.602
253	-0.613
254	-0.616
254	-0.618
255	-0.629
255	-0.626
256	-0.628
256	-0.64
257	-0.65
257	-0.647
258	-0.648
258	-0.655
258	-0.653
259	-0.647
259	-0.663
260	-0.661
260	-0.652
261	-0.661
261	-0.648
262	-0.654
262	-0.653
263	-0.645
263	-0.653
264	-0.662
264	-0.663
265	-0.654
265	-0.656
265	-0.666
266	-0.658
266	-0.659
267	-0.655
267	-0.671
268	-0.678
268	-0.67
269	-0.665
269	-0.679
270	-0.684
270	-0.684
271	-0.694
271	-0.703
272	-0.704
272	-0.71
272	-0.704
273	-0.713
273	-0.729
274	-0.721
274	-0.716
275	-0.714
275	-0.701
276	-0.707
276	-0.713
277	-0.714
277	-0.71
278	-0.716
278	-0.715
278	-0.704
279	-0.712
279	-0.722
280	-0.722
280	-0.734
281	-0.727
281	-0.721
282	-0.729
282	-0.723
283	-0.716
283	-0.73
284	-0.741
284	-0.752
285	-0.733
285	-0.741
285	-0.733
286	-0.738
286	-0.752
287	-0.747
287	-0.745
288	-0.744
288	-0.727
289	-0.727
289	-0.733
290	-0.742
290	-0.732
291	-0.734
291	-0.73
292	-0.711
292	-0.711
292	-0.712
293	-0.702
293	-0.699
294	-0.699
294	-0.684
295	-0.667
295	-0.679
296	-0.692
296	-0.689
297	-0.678
297	-0.681
298	-0.681
298	-0.697
298	-0.698
299	-0.679
299	-0.674
300	-0.67
300	-0.65
301	-0.632
301	-0.634
302	-0.644
302	-0.629
303	-0.621
303	-0.608
304	-0.594
304	-0.596
305	-0.59
305	-0.6
305	-0.615
306	-0.599
306	-0.597
307	-0.588
307	-0.599
308	-0.599
308	-0.596
309	-0.599
309	-0.596
310	-0.595
310	-0.589
311	-0.577
311	-0.596
311	-0.583
312	-0.581
312	-0.57
313	-0.566
313	-0.566
314	-0.569
314	-0.565
315	-0.559
315	-0.552
316	-0.546
316	-0.537
317	-0.531
317	-0.528
318	-0.52
318	-0.516
318	-0.506
319	-0.497
319	-0.49
320	-0.49
320	-0.488
321	-0.482
321	-0.48
322	-0.473
322	-0.466
323	-0.468
323	-0.458
324	-0.456
324	-0.446
324	-0.434
325	-0.418
325	-0.401
326	-0.392
326	-0.369
327	-0.354
327	-0.334
328	-0.303
328	-0.281
329	-0.254
329	-0.225
330	-0.199
330	-0.163
330	-0.13
331	-0.096
331	-0.064
332	-0.032
332	-0
333	0.029
333	0.061
334	0.089
334	0.112
335	0.136
335	0.154
336	0.174
336	0.193
336	0.209
337	0.225
337	0.241
338	0.253
338	0.262
339	0.274
339	0.284
340	0.292
340	0.3
341	0.306
341	0.312
342	0.317
342	0.323
342	0.326
343	0.33
343	0.334
344	0.337
344	0.339
345	0.342
345	0.344
346	0.345
346	0.347
347	0.348
347	0.349
348	0.35
348	0.351
348	0.352
349	0.352
349	0.353
350	0.354
350	0.354
351	0.355
351	0.355
352	0.355
352	0.356
353	0.356
353	0.356
354	0.356
354	0.356
354	0.356
355	0.356
355	0.356
356	0.356
356	0.356
357	0.357
357	0.357
358	0.357
358	0.357
359	0.356
359	0.356
360	0.356
360	0.356
360	0.356
361	0.356
361	0.355
362	0.354
362	0.354
363	0.354
363	0.354
364	0.354
364	0.354
365	0.354
365	0.354
366	0.354
366	0.354
366	0.354
367	0.354
367	0.353
368	0.353
368	0.353
369	0.352
369	0.352
370	0.352
370	0.352
371	0.351
371	0.351
372	0.35
372	0.35
372	0.35
373	0.35
373	0.349
374	0.349
374	0.349
375	0.349
375	0.348
376	0.348
376	0.348
377	0.348
377	0.347
378	0.347
378	0.346
378	0.346
379	0.345
379	0.345
380	0.345
380	0.345
381	0.344
381	0.344
382	0.343
382	0.343
383	0.343
383	0.343
383	0.342
384	0.342
384	0.342
385	0.341
385	0.341
386	0.34
386	0.34
387	0.34
387	0.34
388	0.339
388	0.339
389	0.339
389	0.338
389	0.338
390	0.338
390	0.338
391	0.338
391	0.337
392	0.337
392	0.337
393	0.336
393	0.336
394	0.335
394	0.335
394	0.334
395	0.334
395	0.333
396	0.333
396	0.333
397	0.332
397	0.332
398	0.331
398	0.331
399	0.331
399	0.331
400	0.33
400	0.33
400	0.33
401	0.33
401	0.329
402	0.329
402	0.329
403	0.329
403	0.328
404	0.328
404	0.327
405	0.327
405	0.326
405	0.326
406	0.325
406	0.325
407	0.325
407	0.325
408	0.325
408	0.324
409	0.324
409	0.324
410	0.324
410	0.324
411	0.324
411	0.324
411	0.323
412	0.323
412	0.323
413	0.322
413	0.322
414	0.322
414	0.321
415	0.321
415	0.32
416	0.32
416	0.32
416	0.319
417	0.319
417	0.319
418	0.319
418	0.319
419	0.319
419	0.319
420	0.319
420	0.319
421	0.319
421	0.319
421	0.319
422	0.318
422	0.318
423	0.318
423	0.318
424	0.317
424	0.317
425	0.317
425	0.317
426	0.317
426	0.317
427	0.317
427	0.317
427	0.317
428	0.317
428	0.316
429	0.316
429	0.316
430	0.316
430	0.315
431	0.315
431	0.315
432	0.315
432	0.314
432	0.314
433	0.314
433	0.314
434	0.314
434	0.314
435	0.315
435	0.315
436	0.315
436	0.315
437	0.315
437	0.314
437	0.314
438	0.314
438	0.314
439	0.314
439	0.314
440	0.314
440	0.314
441	0.314
441	0.314
442	0.314
442	0.314
442	0.314
443	0.314
443	0.314
444	0.314
444	0.314
445	0.314
445	0.314
446	0.314
446	0.314
447	0.314
447	0.314
447	0.314
448	0.314
448	0.314
449	0.314
449	0.314
450	0.314
450	0.314
451	0.314
451	0.314
452	0.314
452	0.314
452	0.314
453	0.315
453	0.314
454	0.315
454	0.315
455	0.315
455	0.315
456	0.315
456	0.315
457	0.315
457	0.315
458	0.315
458	0.316
458	0.316
459	0.316
459	0.316
460	0.315
460	0.315
461	0.316
461	0.316
462	0.317
462	0.317
463	0.318
463	0.318
463	0.319
464	0.319
464	0.32
465	0.32
465	0.321
466	0.321
466	0.322
467	0.322
467	0.322
467	0.322
468	0.322
468	0.323
469	0.324
469	0.325
470	0.325
470	0.326
471	0.327
471	0.327
472	0.327
472	0.328
472	0.329
473	0.33
473	0.331
474	0.331
474	0.332
475	0.333
475	0.334
476	0.334
476	0.335
477	0.336
477	0.337
477	0.338
478	0.339
478	0.339
479	0.341
479	0.342
480	0.343
480	0.344
481	0.345
481	0.346
482	0.347
482	0.349
482	0.35
483	0.352
483	0.354
484	0.355
484	0.356
485	0.358
485	0.359
486	0.36
486	0.362
487	0.363
487	0.365
487	0.366
488	0.367
488	0.369
489	0.371
489	0.373
490	0.375
490	0.377
491	0.379
491	0.381
492	0.383
492	0.385
492	0.387
493	0.389
493	0.391
494	0.393
494	0.395
495	0.398
495	0.4
496	0.402
496	0.404
496	0.407
497	0.41
497	0.412
498	0.415
498	0.418
499	0.42
499	0.423
500	0.427
500	0.43
501	0.433
501	0.436
501	0.438
502	0.441
502	0.443
503	0.446
503	0.449
504	0.451
504	0.454
505	0.457
505	0.46
506	0.463
506	0.466
506	0.469
507	0.472
507	0.475
508	0.479
508	0.482
509	0.485
509	0.488
510	0.491
510	0.494
511	0.497
511	0.5
511	0.503
512	0.506
512	0.508
513	0.511
513	0.513
514	0.516
514	0.519
515	0.522
515	0.524
515	0.527
516	0.529
516	0.532
517	0.534
517	0.536
518	0.538
518	0.54
519	0.542
519	0.543
520	0.545
520	0.547
520	0.549
521	0.55
521	0.551
522	0.552
522	0.554
523	0.555
523	0.557
524	0.557
524	0.558
524	0.559
525	0.56
525	0.561
526	0.561
526	0.562
527	0.563
527	0.563
528	0.563
528	0.563
529	0.562
529	0.562
529	0.561
530	0.561
530	0.56
531	0.559
531	0.558
532	0.557
532	0.556
533	0.555
533	0.554
533	0.553
534	0.551
534	0.55
535	0.549
535	0.547
536	0.546
536	0.543
537	0.542
537	0.54
538	0.538
538	0.535
538	0.533
539	0.531
539	0.529
540	0.526
540	0.524
541	0.521
541	0.518
542	0.516
542	0.513
542	0.51
543	0.506
543	0.503
544	0.5
544	0.498
545	0.495
545	0.491
546	0.488
546	0.485
547	0.481
547	0.478
547	0.474
548	0.471
548	0.468
549	0.464
549	0.461
550	0.458
550	0.454
551	0.45
551	0.446
551	0.442
552	0.438
552	0.435
553	0.431
553	0.428
554	0.424
554	0.42
555	0.416
555	0.412
556	0.408
556	0.404
556	0.401
557	0.397
557	0.394
558	0.39
558	0.387
559	0.383
559	0.379
560	0.376
560	0.373
560	0.37
561	0.367
561	0.364
562	0.361
562	0.358
563	0.355
563	0.352
564	0.349
564	0.346
564	0.344
565	0.341
565	0.339
566	0.335
566	0.333
567	0.33
567	0.327
568	0.324
568	0.321
568	0.318
569	0.315
569	0.311
570	0.308
570	0.304
571	0.302
571	0.299
572	0.296
572	0.293
573	0.29
573	0.287
573	0.284
574	0.282
574	0.28
575	0.279
575	0.277
576	0.275
576	0.272
577	0.27
577	0.268
577	0.266
578	0.265
578	0.264
579	0.263
579	0.261
580	0.259
580	0.255
581	0.253
581	0.251
581	0.25
582	0.249
582	0.247
583	0.246
583	0.243
584	0.239
584	0.236
585	0.234
585	0.233
585	0.231
586	0.229
586	0.227
587	0.224
587	0.222
588	0.219
588	0.218
589	0.216
589	0.215
590	0.214
590	0.213
590	0.212
591	0.212
591	0.21
592	0.208
592	0.207
593	0.206
593	0.205
594	0.203
594	0.202
594	0.201
595	0.2
595	0.198
596	0.197
596	0.197
597	0.197
597	0.196
598	0.195
598	0.194
598	0.193
599	0.192
599	0.191
600	0.19
600	0.188
601	0.188
601	0.186
602	0.185
602	0.184
602	0.182
603	0.181
603	0.181
604	0.18
604	0.179
605	0.178
605	0.178
606	0.176
606	0.175
606	0.174
607	0.173
607	0.172
608	0.171
608	0.17
609	0.169
609	0.168
610	0.167
610	0.166
610	0.165
611	0.165
611	0.164
612	0.164
612	0.163
613	0.163
613	0.163
614	0.161
614	0.16
614	0.159
615	0.158
615	0.157
616	0.157
616	0.156
617	0.155
617	0.154
618	0.153
618	0.152
618	0.151
619	0.15
619	0.15
620	0.15
620	0.149
621	0.148
621	0.147
622	0.146
622	0.145
622	0.144
623	0.143
623	0.143
624	0.142
624	0.141
625	0.14
625	0.139
626	0.138
626	0.137
626	0.137
627	0.136
627	0.135
628	0.134
628	0.132
629	0.131
629	0.129
630	0.127
630	0.126
630	0.124
631	0.123
631	0.121
632	0.119
632	0.117
633	0.116
633	0.114
634	0.113
634	0.112
634	0.111
635	0.109
635	0.108
636	0.107
636	0.105
637	0.103
637	0.101
638	0.1
638	0.098
638	0.096
639	0.093
639	0.09
640	0.088
640	0.086
641	0.083
641	0.08
642	0.078
642	0.076
642	0.073
643	0.07
643	0.066
644	0.063
644	0.06
645	0.056
645	0.052
646	0.048
646	0.044
646	0.039
647	0.034
647	0.029
648	0.024
648	0.018
649	0.013
649	0.009
650	0.004
650	-0.001
650	-0.007
651	-0.013
651	-0.022
652	-0.031
652	-0.041
653	-0.05
653	-0.057
653	-0.053
654	-0.039
654	-0.036
655	-0.04
655	-0.044
656	-0.048
656	-0.054
657	-0.058
657	-0.061
657	-0.067
658	-0.072
658	-0.097
659	-0.165
659	-0.236
660	-0.268
660	-0.291
661	-0.314
661	-0.338
661	-0.363
662	-0.388
662	-0.414
663	-0.443
663	-0.476
664	-0.509
664	-0.544
665	-0.586
665	-0.628
665	-0.668
666	-0.714
666	-0.763
667	-0.814
667	-0.872
668	-0.928
668	-0.994
669	-1.059
669	-1.128
669	-1.204
670	-1.284
670	-1.397
671	-1.583
671	-1.921
672	-2.232
672	-2.42
672	-2.554
673	-2.659
673	-2.745
674	-2.792
674	-2.806
675	-2.821
675	-2.826
676	-2.824
676	-2.787
676	-2.712
677	-2.618
677	-2.5
678	-2.318
678	-1.976
679	-1.598
679	-1.438
680	-1.34
680	-1.266
680	-1.202
681	-1.159
681	-1.109
682	-1.07
682	-1.028
683	-0.988
683	-0.967
684	-0.942
684	-0.925
684	-0.903
685	-0.884
685	-0.876
686	-0.854
686	-0.841
687	-0.833
687	-0.823
687	-0.823
688	-0.808
688	-0.8
689	-0.804
689	-0.802
690	-0.789
690	-0.777
691	-0.775
691	-0.78
691	-0.779
692	-0.78
692	-0.777
693	-0.785
693	-0.794
694	-0.774
694	-0.772
695	-0.774
695	-0.77
695	-0.779
696	-0.784
696	-0.778
697	-0.771
697	-0.767
698	-0.762
698	-0.757
698	-0.772
699	-0.773
699	-0.775
700	-0.796
700	-0.788
701	-0.775
701	-0.77
702	-0.772
702	-0.77
702	-0.773
703	-0.764
703	-0.752
704	-0.761
704	-0.765
705	-0.753
705	-0.751
705	-0.747
706	-0.74
706	-0.736
707	-0.748
707	-0.751
708	-0.747
708	-0.745
709	-0.745
709	-0.741
709	-0.736
710	-0.746
710	-0.75
711	-0.748
711	-0.749
712	-0.74
712	-0.737
713	-0.742
713	-0.742
713	-0.722
714	-0.725
714	-0.73
715	-0.72
715	-0.727
716	-0.742
716	-0.751
716	-0.752
717	-0.759
717	-0.751
718	-0.745
718	-0.743
719	-0.741
719	-0.733
720	-0.727
720	-0.722
720	-0.718
721	-0.709
721	-0.713
722	-0.71
722	-0.708
723	-0.726
723	-0.741
723	-0.749
724	-0.748
724	-0.755
725	-0.75
725	-0.754
726	-0.757
726	-0.75
727	-0.751
727	-0.758
727	-0.748
728	-0.736
728	-0.73
729	-0.733
729	-0.734
730	-0.739
730	-0.73
730	-0.735
731	-0.736
731	-0.736
732	-0.737
732	-0.731
733	-0.744
733	-0.749
734	-0.759
734	-0.751
734	-0.733
735	-0.725
735	-0.721
736	-0.72
736	-0.714
737	-0.714
737	-0.703
737	-0.697
738	-0.683
738	-0.67
739	-0.672
739	-0.674
740	-0.687
740	-0.687
741	-0.698
741	-0.711
741	-0.719
742	-0.727
742	-0.742
743	-0.752
743	-0.754
744	-0.757
744	-0.764
744	-0.758
745	-0.766
745	-0.754
746	-0.748
746	-0.742
747	-0.742
747	-0.732
748	-0.732
748	-0.737
748	-0.74
749	-0.735
749	-0.74
750	-0.73
750	-0.73
751	-0.729
751	-0.725
751	-0.739
752	-0.746
752	-0.748
753	-0.748
753	-0.74
754	-0.758
754	-0.759
754	-0.769
755	-0.771
755	-0.765
756	-0.768
756	-0.754
757	-0.745
757	-0.735
758	-0.736
758	-0.735
758	-0.731
759	-0.734
759	-0.732
760	-0.729
760	-0.731
761	-0.723
761	-0.727
761	-0.728
762	-0.733
762	-0.736
763	-0.739
763	-0.742
764	-0.743
764	-0.738
764	-0.745
765	-0.743
765	-0.75
766	-0.752
766	-0.751
767	-0.767
767	-0.763
768	-0.76
768	-0.751
768	-0.746
769	-0.751
769	-0.756
770	-0.764
770	-0.769
771	-0.766
771	-0.765
771	-0.768
772	-0.775
772	-0.795
773	-0.796
773	-0.795
774	-0.793
774	-0.777
775	-0.766
775	-0.764
775	-0.768
776	-0.78
776	-0.777
777	-0.773
777	-0.756
778	-0.764
778	-0.772
778	-0.772
779	-0.781
779	-0.796
780	-0.791
780	-0.798
781	-0.787
781	-0.779
781	-0.792
782	-0.813
782	-0.815
783	-0.813
783	-0.822
784	-0.825
784	-0.819
784	-0.84
785	-0.834
785	-0.849
786	-0.852
786	-0.845
787	-0.833
787	-0.843
788	-0.835
788	-0.83
788	-0.832
789	-0.833
789	-0.823
790	-0.821
790	-0.806
791	-0.811
791	-0.806
791	-0.801
792	-0.795
792	-0.8
793	-0.803
793	-0.789
794	-0.782
794	-0.775
794	-0.783
795	-0.801
795	-0.789
796	-0.794
796	-0.791
797	-0.782
797	-0.772
797	-0.763
798	-0.784
798	-0.79
799	-0.789
799	-0.775
800	-0.771
800	-0.779
801	-0.779
801	-0.783
801	-0.78
802	-0.78
802	-0.781
803	-0.775
803	-0.766
804	-0.773
804	-0.779
804	-0.763
805	-0.746
805	-0.736
806	-0.737
806	-0.732
807	-0.735
807	-0.735
807	-0.718
808	-0.716
808	-0.709
809	-0.704
809	-0.705
810	-0.707
810	-0.702
810	-0.699
811	-0.702
811	-0.692
812	-0.685
812	-0.688
813	-0.691
813	-0.692
813	-0.687
814	-0.687
814	-0.694
815	-0.686
815	-0.681
816	-0.676
816	-0.694
817	-0.707
817	-0.709
817	-0.72
818	-0.712
818	-0.711
819	-0.72
819	-0.718
820	-0.729
820	-0.729
820	-0.728
821	-0.724
821	-0.719
822	-0.718
822	-0.704
823	-0.717
823	-0.716
823	-0.711
824	-0.709
824	-0.718
825	-0.718
825	-0.717
826	-0.713
826	-0.709
826	-0.707
827	-0.71
827	-0.701
828	-0.701
828	-0.694
829	-0.687
829	-0.674
829	-0.669
830	-0.667
830	-0.653
831	-0.648
831	-0.64
832	-0.629
832	-0.623
832	-0.616
833	-0.617
833	-0.625
834	-0.62
834	-0.616
835	-0.608
835	-0.607
835	-0.602
836	-0.597
836	-0.593
837	-0.583
837	-0.575
838	-0.561
838	-0.544
839	-0.541
839	-0.529
839	-0.521
840	-0.521
840	-0.512
841	-0.501
841	-0.494
842	-0.485
842	-0.473
842	-0.472
843	-0.468
843	-0.462
844	-0.459
844	-0.448
845	-0.434
845	-0.426
845	-0.416
846	-0.406
846	-0.398
847	-0.39
847	-0.378
848	-0.365
848	-0.351
848	-0.337
849	-0.328
849	-0.317
850	-0.308
850	-0.3
851	-0.288
851	-0.274
851	-0.265
852	-0.25
852	-0.24
853	-0.232
853	-0.223
854	-0.213
854	-0.203
854	-0.192
855	-0.182
855	-0.175
856	-0.169
856	-0.162
857	-0.156
857	-0.147
857	-0.135
858	-0.127
858	-0.121
859	-0.112
859	-0.103
860	-0.094
860	-0.082
860	-0.073
861	-0.065
861	-0.057
862	-0.05
862	-0.044
863	-0.037
863	-0.03
863	-0.025
864	-0.021
864	-0.016
865	-0.011
865	-0.007
866	-0.003
866	0.001
866	0.004
867	0.008
867	0.012
868	0.015
868	0.018
869	0.022
869	0.025
869	0.028
870	0.03
870	0.032
871	0.033
871	0.035
872	0.035
872	0.036
872	0.037
873	0.037
873	0.036
874	0.036
874	0.036
875	0.035
875	0.035
875	0.034
876	0.034
876	0.033
877	0.033
877	0.032
878	0.031
878	0.03
878	0.03
879	0.029
879	0.028
880	0.028
880	0.027
881	0.026
881	0.026
881	0.026
882	0.025
882	0.025
883	0.024
883	0.024
884	0.024
884	0.024
884	0.024
885	0.023
885	0.023
886	0.023
886	0.022
887	0.021
887	0.021
887	0.02
888	0.019
888	0.018
889	0.017
889	0.017
890	0.016
890	0.015
890	0.015
891	0.015
891	0.014
892	0.015
892	0.015
893	0.016
893	0.015
893	0.015
894	0.015
894	0.015
895	0.015
895	0.015
895	0.015
896	0.016
896	0.016
897	0.017
897	0.017
898	0.017
898	0.018
898	0.018
899	0.019
899	0.019
900	0.019
900	0.019
901	0.019
901	0.019
901	0.019
902	0.019
902	0.02
903	0.02
903	0.019
904	0.019
904	0.018
904	0.018
905	0.018
905	0.018
906	0.018
906	0.018
907	0.018
907	0.018
907	0.019
908	0.019
908	0.02
909	0.021
909	0.021
910	0.022
910	0.023
910	0.024
911	0.024
911	0.026
912	0.027
912	0.029
913	0.03
913	0.032
913	0.033
914	0.033
914	0.034
915	0.034
915	0.034
916	0.033
916	0.033
916	0.032
917	0.031
917	0.03
918	0.03
918	0.029
918	0.029
919	0.028
919	0.028
920	0.028
920	0.028
921	0.027
921	0.027
921	0.027
922	0.027
922	0.027
923	0.027
923	0.026
924	0.026
924	0.026
924	0.025
925	0.025
925	0.025
926	0.025
926	0.024
927	0.024
927	0.024
927	0.025
928	0.025
928	0.026
929	0.026
929	0.026
930	0.027
930	0.028
930	0.029
931	0.029
931	0.03
932	0.031
932	0.031
933	0.031
933	0.031
933	0.031
934	0.031
934	0.03
935	0.03
935	0.028
935	0.027
936	0.026
936	0.024
937	0.022
937	0.021
938	0.02
938	0.019
938	0.018
939	0.017
939	0.016
940	0.016
940	0.016
941	0.016
941	0.016
941	0.016
942	0.015
942	0.015
943	0.016
943	0.016
944	0.016
944	0.015
944	0.015
945	0.015
945	0.015
946	0.015
946	0.015
946	0.015
947	0.014
947	0.013
948	0.013
948	0.013
949	0.013
949	0.013
949	0.014
950	0.013
950	0.014
951	0.014
951	0.015
952	0.015
952	0.016
952	0.016
953	0.017
953	0.017
954	0.017
954	0.017
955	0.018
955	0.017
955	0.017
956	0.017
956	0.017
957	0.016
957	0.015
957	0.014
958	0.014
958	0.014
959	0.013
959	0.013
960	0.013
960	0.012
960	0.012
961	0.012
961	0.012
962	0.012
962	0.012
963	0.012
963	0.012
963	0.012
964	0.012
964	0.012
965	0.012
965	0.012
966	0.012
966	0.013
966	0.013
967	0.013
967	0.013
968	0.013
968	0.013
968	0.013
969	0.013
969	0.012
970	0.012
970	0.011
971	0.01
971	0.009
971	0.009
972	0.009
972	0.008
973	0.008
973	0.008
974	0.009
974	0.01
974	0.01
975	0.012
975	0.013
976	0.014
976	0.015
976	0.016
977	0.016
977	0.017
978	0.017
978	0.017
979	0.017
979	0.016
979	0.016
980	0.016
980	0.015
981	0.015
981	0.015
982	0.015
982	0.015
982	0.015
983	0.015
983	0.014
984	0.014
984	0.014
984	0.014
985	0.014
985	0.014
986	0.014
986	0.013
987	0.013
987	0.012
987	0.011
988	0.011
988	0.01
989	0.01
989	0.009
990	0.008
990	0.008
990	0.007
991	0.007
991	0.007
992	0.007
992	0.007
992	0.007
993	0.006
993	0.006
994	0.006
994	0.006
995	0.006
995	0.005
995	0.005
996	0.005
996	0.004
997	0.004
997	0.003
997	0.003
998	0.004
998	0.004
999	0.004
999	0.004
1000	0.005
1000	0.004
1000	0.005
1001	0.005
1001	0.005
1002	0.006
1002	0.006
1003	0.006
1003	0.006
1003	0.005
1004	0.005
1004	0.005
1005	0.004
1005	0.004
1005	0.003
1006	0.002
1006	0.002
1007	0.001
1007	0.001
1008	0.001
1008	-0
1008	-0
1009	0
1009	0
1010	0.001
1010	0.001
1010	0.001
1011	0.002
1011	0.002
1012	0.002
1012	0.003
1013	0.003
1013	0.003
1013	0.004
1014	0.004
1014	0.004
1015	0.004
1015	0.004
1016	0.004
1016	0.005
1016	0.005
1017	0.004
1017	0.004
1018	0.005
1018	0.004
1018	0.004
1019	0.004
1019	0.004
1020	0.004
1020	0.003
1021	0.003
1021	0.002
1021	0.001
1022	0.001
1022	0
1023	-0
1023	-0.001
1023	-0.002
1024	-0.002
1024	-0.003
1025	-0.003
1025	-0.004
1026	-0.004
1026	-0.004
1026	-0.005
1027	-0.005
1027	-0.005
1028	-0.005
1028	-0.004
1028	-0.004
1029	-0.005
1029	-0.004
1030	-0.005
1030	-0.005
1031	-0.005
1031	-0.005
1031	-0.005
1032	-0.005
1032	-0.005
1033	-0.006
1033	-0.006
1033	-0.006
1034	-0.006
1034	-0.006
1035	-0.006
1035	-0.006
1036	-0.007
1036	-0.007
1036	-0.007
1037	-0.006
1037	-0.005
1038	-0.005
1038	-0.004
1039	-0.003
1039	-0.002
1039	-0.002
1040	-0.001
1040	-0.001
1041	-0.001
1041	-0.001
1041	-0.001
1042	-0.002
1042	-0.002
1043	-0.003
1043	-0.004
1044	-0.005
1044	-0.006
1044	-0.007
1045	-0.008
1045	-0.009
1046	-0.01
1046	-0.011
1046	-0.011
1047	-0.011
1047	-0.011
1048	-0.011
1048	-0.012
1049	-0.012
1049	-0.012
1049	-0.012
1050	-0.013
1050	-0.013
1051	-0.014
1051	-0.015
1051	-0.016
1052	-0.016
1052	-0.017
1053	-0.018
1053	-0.018
1053	-0.018
1054	-0.018
1054	-0.018
1055	-0.018
1055	-0.017
1056	-0.018
1056	-0.018
1056	-0.018
1057	-0.018
1057	-0.019
1058	-0.019
1058	-0.019
1058	-0.019
1059	-0.019
1059	-0.02
1060	-0.02
1060	-0.02
1061	-0.02
1061	-0.02
1061	-0.019
1062	-0.019
1062	-0.019
1063	-0.019
1063	-0.019
1063	-0.019
1064	-0.019
1064	-0.019
1065	-0.019
1065	-0.02
1066	-0.02
1066	-0.02
1066	-0.021
1067	-0.021
1067	-0.021
1068	-0.021
1068	-0.022
1068	-0.023
1069	-0.023
1069	-0.024
1070	-0.024
1070	-0.025
1071	-0.025
1071	-0.025
1071	-0.026
1072	-0.026
1072	-0.025
1073	-0.025
1073	-0.024
1073	-0.024
1074	-0.023
1074	-0.023
1075	-0.024
1075	-0.023
1076	-0.024
1076	-0.024
1076	-0.025
1077	-0.026
1077	-0.027
1078	-0.028
1078	-0.029
1078	-0.03
1079	-0.031
1079	-0.031
1080	-0.032
1080	-0.033
1080	-0.034
1081	-0.035
1081	-0.035
1082	-0.035
1082	-0.036
1083	-0.037
1083	-0.037
1083	-0.038
1084	-0.039
1084	-0.038
1085	-0.039
1085	-0.039
1085	-0.039
1086	-0.04
1086	-0.04
1087	-0.041
1087	-0.041
1088	-0.042
1088	-0.043
1088	-0.043
1089	-0.044
1089	-0.045
1090	-0.046
1090	-0.047
1090	-0.049
1091	-0.05
1091	-0.05
1092	-0.051
1092	-0.05
1092	-0.052
1093	-0.053
1093	-0.053
1094	-0.054
1094	-0.055
1095	-0.056
1095	-0.057
1095	-0.057
1096	-0.058
1096	-0.06
1097	-0.062
1097	-0.063
1097	-0.064
1098	-0.065
1098	-0.066
1099	-0.067
1099	-0.068
1100	-0.069
1100	-0.071
1100	-0.074
1101	-0.076
1101	-0.078
1102	-0.08
1102	-0.082
1102	-0.084
1103	-0.086
1103	-0.088
1104	-0.091
1104	-0.095
1104	-0.095
1105	-0.097
1105	-0.099
1106	-0.104
1106	-0.105
1107	-0.11
1107	-0.114
1107	-0.118
1108	-0.12
1108	-0.121
1109	-0.124
1109	-0.128
1109	-0.132
1110	-0.134
1110	-0.136
1111	-0.145
1111	-0.139
