Data from 3.5A_17C_Absorbance__249__00251.txt Node

Date: Tue Jun 20 15:05:17 CEST 2023
User: Marek
Spectrometer: MAYP115816
Trigger mode: 0
Integration Time (sec): 2.200000E-1
Scans to average: 10
Electric dark correction enabled: true
Nonlinearity correction enabled: true
Boxcar width: 5
XAxis mode: Wavelengths
Number of Pixels in Spectrum: 2068
>>>>>Begin Spectral Data<<<<<
199	-0.581
199	-0.567
200	-0.536
200	-0.482
201	-0.457
201	-0.45
202	-0.43
202	-0.423
203	-0.424
203	-0.42
204	-0.401
204	-0.388
205	-0.363
205	-0.353
205	-0.363
206	-0.364
206	-0.358
207	-0.352
207	-0.358
208	-0.357
208	-0.359
209	-0.361
209	-0.369
210	-0.383
210	-0.391
211	-0.384
211	-0.389
212	-0.394
212	-0.403
213	-0.398
213	-0.396
213	-0.393
214	-0.397
214	-0.396
215	-0.393
215	-0.397
216	-0.405
216	-0.409
217	-0.408
217	-0.407
218	-0.415
218	-0.417
219	-0.423
219	-0.427
220	-0.43
220	-0.435
221	-0.433
221	-0.433
221	-0.424
222	-0.424
222	-0.422
223	-0.418
223	-0.42
224	-0.42
224	-0.416
225	-0.417
225	-0.418
226	-0.419
226	-0.42
227	-0.428
227	-0.439
228	-0.443
228	-0.452
229	-0.456
229	-0.454
229	-0.456
230	-0.449
230	-0.449
231	-0.446
231	-0.439
232	-0.441
232	-0.434
233	-0.433
233	-0.422
234	-0.423
234	-0.419
235	-0.424
235	-0.434
236	-0.437
236	-0.44
236	-0.445
237	-0.442
237	-0.444
238	-0.444
238	-0.445
239	-0.446
239	-0.456
240	-0.449
240	-0.449
241	-0.448
241	-0.449
242	-0.448
242	-0.456
243	-0.458
243	-0.461
243	-0.467
244	-0.463
244	-0.466
245	-0.468
245	-0.469
246	-0.477
246	-0.478
247	-0.488
247	-0.475
248	-0.476
248	-0.477
249	-0.482
249	-0.483
250	-0.48
250	-0.488
250	-0.487
251	-0.488
251	-0.487
252	-0.487
252	-0.498
253	-0.489
253	-0.503
254	-0.503
254	-0.505
255	-0.516
255	-0.513
256	-0.512
256	-0.524
257	-0.533
257	-0.529
258	-0.53
258	-0.536
258	-0.531
259	-0.528
259	-0.543
260	-0.539
260	-0.529
261	-0.54
261	-0.526
262	-0.528
262	-0.527
263	-0.52
263	-0.525
264	-0.534
264	-0.534
265	-0.526
265	-0.527
265	-0.539
266	-0.529
266	-0.529
267	-0.529
267	-0.543
268	-0.552
268	-0.546
269	-0.539
269	-0.554
270	-0.556
270	-0.554
271	-0.563
271	-0.575
272	-0.577
272	-0.58
272	-0.575
273	-0.584
273	-0.596
274	-0.587
274	-0.581
275	-0.579
275	-0.57
276	-0.576
276	-0.579
277	-0.58
277	-0.576
278	-0.579
278	-0.575
278	-0.566
279	-0.576
279	-0.59
280	-0.592
280	-0.603
281	-0.595
281	-0.588
282	-0.593
282	-0.59
283	-0.584
283	-0.6
284	-0.613
284	-0.62
285	-0.6
285	-0.608
285	-0.598
286	-0.605
286	-0.62
287	-0.615
287	-0.615
288	-0.61
288	-0.594
289	-0.59
289	-0.597
290	-0.606
290	-0.596
291	-0.6
291	-0.6
292	-0.581
292	-0.579
292	-0.581
293	-0.572
293	-0.567
294	-0.569
294	-0.557
295	-0.539
295	-0.546
296	-0.558
296	-0.548
297	-0.536
297	-0.539
298	-0.539
298	-0.555
298	-0.56
299	-0.541
299	-0.534
300	-0.531
300	-0.515
301	-0.497
301	-0.5
302	-0.511
302	-0.496
303	-0.488
303	-0.476
304	-0.458
304	-0.462
305	-0.453
305	-0.461
305	-0.474
306	-0.459
306	-0.459
307	-0.449
307	-0.462
308	-0.464
308	-0.46
309	-0.463
309	-0.459
310	-0.457
310	-0.453
311	-0.441
311	-0.459
311	-0.448
312	-0.447
312	-0.434
313	-0.427
313	-0.429
314	-0.436
314	-0.435
315	-0.434
315	-0.427
316	-0.425
316	-0.415
317	-0.407
317	-0.407
318	-0.4
318	-0.399
318	-0.388
319	-0.375
319	-0.366
320	-0.363
320	-0.36
321	-0.353
321	-0.353
322	-0.349
322	-0.341
323	-0.343
323	-0.334
324	-0.333
324	-0.323
324	-0.311
325	-0.297
325	-0.283
326	-0.275
326	-0.249
327	-0.234
327	-0.213
328	-0.183
328	-0.16
329	-0.133
329	-0.108
330	-0.085
330	-0.053
330	-0.02
331	0.012
331	0.041
332	0.069
332	0.099
333	0.125
333	0.153
334	0.178
334	0.2
335	0.223
335	0.241
336	0.259
336	0.275
336	0.289
337	0.303
337	0.316
338	0.326
338	0.335
339	0.345
339	0.353
340	0.359
340	0.365
341	0.371
341	0.376
342	0.381
342	0.384
342	0.388
343	0.391
343	0.394
344	0.396
344	0.398
345	0.4
345	0.402
346	0.403
346	0.404
347	0.405
347	0.406
348	0.407
348	0.408
348	0.408
349	0.408
349	0.408
350	0.409
350	0.409
351	0.41
351	0.41
352	0.41
352	0.41
353	0.41
353	0.411
354	0.411
354	0.411
354	0.411
355	0.41
355	0.41
356	0.41
356	0.41
357	0.41
357	0.41
358	0.41
358	0.41
359	0.409
359	0.409
360	0.409
360	0.409
360	0.409
361	0.409
361	0.409
362	0.408
362	0.408
363	0.408
363	0.408
364	0.408
364	0.407
365	0.407
365	0.406
366	0.406
366	0.406
366	0.406
367	0.406
367	0.405
368	0.405
368	0.404
369	0.404
369	0.404
370	0.403
370	0.403
371	0.402
371	0.402
372	0.401
372	0.401
372	0.4
373	0.4
373	0.399
374	0.399
374	0.399
375	0.398
375	0.398
376	0.398
376	0.397
377	0.397
377	0.397
378	0.396
378	0.395
378	0.395
379	0.395
379	0.394
380	0.394
380	0.394
381	0.393
381	0.393
382	0.392
382	0.392
383	0.392
383	0.392
383	0.391
384	0.39
384	0.39
385	0.389
385	0.389
386	0.388
386	0.388
387	0.387
387	0.387
388	0.386
388	0.386
389	0.385
389	0.385
389	0.385
390	0.384
390	0.384
391	0.384
391	0.383
392	0.383
392	0.382
393	0.382
393	0.382
394	0.381
394	0.381
394	0.38
395	0.38
395	0.379
396	0.379
396	0.378
397	0.378
397	0.377
398	0.377
398	0.376
399	0.376
399	0.375
400	0.375
400	0.374
400	0.374
401	0.374
401	0.373
402	0.373
402	0.373
403	0.372
403	0.372
404	0.371
404	0.371
405	0.37
405	0.37
405	0.369
406	0.369
406	0.369
407	0.368
407	0.368
408	0.367
408	0.367
409	0.367
409	0.367
410	0.366
410	0.366
411	0.366
411	0.366
411	0.365
412	0.365
412	0.365
413	0.364
413	0.364
414	0.364
414	0.363
415	0.363
415	0.363
416	0.362
416	0.362
416	0.362
417	0.362
417	0.361
418	0.361
418	0.361
419	0.361
419	0.361
420	0.361
420	0.361
421	0.361
421	0.36
421	0.36
422	0.36
422	0.36
423	0.359
423	0.359
424	0.359
424	0.358
425	0.358
425	0.358
426	0.358
426	0.358
427	0.358
427	0.358
427	0.358
428	0.357
428	0.357
429	0.357
429	0.356
430	0.356
430	0.356
431	0.356
431	0.355
432	0.355
432	0.355
432	0.355
433	0.355
433	0.355
434	0.355
434	0.355
435	0.355
435	0.355
436	0.355
436	0.355
437	0.355
437	0.355
437	0.355
438	0.355
438	0.355
439	0.355
439	0.355
440	0.355
440	0.355
441	0.355
441	0.355
442	0.355
442	0.355
442	0.355
443	0.355
443	0.355
444	0.355
444	0.355
445	0.355
445	0.355
446	0.355
446	0.355
447	0.355
447	0.355
447	0.355
448	0.356
448	0.356
449	0.356
449	0.356
450	0.356
450	0.356
451	0.356
451	0.356
452	0.356
452	0.356
452	0.357
453	0.357
453	0.357
454	0.357
454	0.357
455	0.358
455	0.358
456	0.358
456	0.359
457	0.359
457	0.359
458	0.359
458	0.359
458	0.359
459	0.359
459	0.359
460	0.359
460	0.36
461	0.36
461	0.361
462	0.361
462	0.362
463	0.363
463	0.364
463	0.364
464	0.365
464	0.365
465	0.366
465	0.367
466	0.367
466	0.368
467	0.368
467	0.369
467	0.369
468	0.369
468	0.37
469	0.371
469	0.372
470	0.372
470	0.373
471	0.374
471	0.375
472	0.376
472	0.376
472	0.377
473	0.379
473	0.38
474	0.381
474	0.382
475	0.383
475	0.384
476	0.385
476	0.386
477	0.387
477	0.388
477	0.389
478	0.39
478	0.392
479	0.393
479	0.394
480	0.396
480	0.397
481	0.399
481	0.401
482	0.403
482	0.404
482	0.407
483	0.409
483	0.411
484	0.413
484	0.415
485	0.417
485	0.419
486	0.421
486	0.422
487	0.424
487	0.426
487	0.427
488	0.429
488	0.431
489	0.433
489	0.436
490	0.439
490	0.441
491	0.444
491	0.447
492	0.449
492	0.452
492	0.455
493	0.457
493	0.46
494	0.463
494	0.466
495	0.469
495	0.472
496	0.474
496	0.478
496	0.481
497	0.484
497	0.488
498	0.491
498	0.494
499	0.497
499	0.501
500	0.505
500	0.509
501	0.513
501	0.516
501	0.519
502	0.523
502	0.526
503	0.53
503	0.534
504	0.538
504	0.541
505	0.545
505	0.548
506	0.552
506	0.556
506	0.559
507	0.563
507	0.567
508	0.571
508	0.575
509	0.579
509	0.583
510	0.587
510	0.591
511	0.595
511	0.599
511	0.602
512	0.606
512	0.61
513	0.612
513	0.616
514	0.619
514	0.623
515	0.625
515	0.628
515	0.631
516	0.634
516	0.637
517	0.64
517	0.642
518	0.644
518	0.647
519	0.649
519	0.651
520	0.653
520	0.655
520	0.657
521	0.659
521	0.661
522	0.662
522	0.663
523	0.665
523	0.666
524	0.666
524	0.668
524	0.668
525	0.669
525	0.67
526	0.671
526	0.671
527	0.672
527	0.672
528	0.671
528	0.671
529	0.671
529	0.67
529	0.669
530	0.668
530	0.667
531	0.666
531	0.665
532	0.663
532	0.661
533	0.66
533	0.658
533	0.656
534	0.654
534	0.651
535	0.649
535	0.647
536	0.644
536	0.641
537	0.638
537	0.635
538	0.632
538	0.629
538	0.625
539	0.622
539	0.619
540	0.615
540	0.612
541	0.608
541	0.604
542	0.6
542	0.595
542	0.591
543	0.586
543	0.582
544	0.577
544	0.573
545	0.568
545	0.564
546	0.559
546	0.553
547	0.548
547	0.543
547	0.538
548	0.533
548	0.528
549	0.524
549	0.519
550	0.513
550	0.508
551	0.502
551	0.496
551	0.491
552	0.485
552	0.481
553	0.475
553	0.47
554	0.465
554	0.459
555	0.454
555	0.449
556	0.443
556	0.438
556	0.433
557	0.428
557	0.422
558	0.417
558	0.412
559	0.406
559	0.401
560	0.396
560	0.392
560	0.387
561	0.383
561	0.379
562	0.374
562	0.37
563	0.366
563	0.361
564	0.357
564	0.353
564	0.349
565	0.345
565	0.34
566	0.336
566	0.332
567	0.328
567	0.324
568	0.319
568	0.314
568	0.309
569	0.305
569	0.3
570	0.296
570	0.291
571	0.287
571	0.283
572	0.279
572	0.275
573	0.271
573	0.267
573	0.264
574	0.26
574	0.257
575	0.254
575	0.252
576	0.249
576	0.245
577	0.241
577	0.239
577	0.236
578	0.234
578	0.232
579	0.23
579	0.227
580	0.224
580	0.22
581	0.217
581	0.215
581	0.213
582	0.211
582	0.208
583	0.206
583	0.202
584	0.198
584	0.195
585	0.192
585	0.189
585	0.186
586	0.184
586	0.181
587	0.178
587	0.176
588	0.173
588	0.171
589	0.17
589	0.168
590	0.167
590	0.165
590	0.164
591	0.162
591	0.16
592	0.158
592	0.156
593	0.155
593	0.154
594	0.152
594	0.15
594	0.149
595	0.147
595	0.145
596	0.143
596	0.143
597	0.142
597	0.14
598	0.139
598	0.137
598	0.136
599	0.135
599	0.133
600	0.132
600	0.131
601	0.13
601	0.128
602	0.127
602	0.126
602	0.124
603	0.123
603	0.123
604	0.122
604	0.12
605	0.12
605	0.119
606	0.117
606	0.115
606	0.114
607	0.112
607	0.111
608	0.11
608	0.108
609	0.107
609	0.106
610	0.105
610	0.103
610	0.102
611	0.101
611	0.1
612	0.1
612	0.099
613	0.099
613	0.098
614	0.097
614	0.096
614	0.095
615	0.094
615	0.093
616	0.093
616	0.092
617	0.091
617	0.09
618	0.089
618	0.088
618	0.087
619	0.087
619	0.087
620	0.087
620	0.086
621	0.086
621	0.085
622	0.084
622	0.083
622	0.082
623	0.081
623	0.081
624	0.08
624	0.079
625	0.079
625	0.078
626	0.078
626	0.077
626	0.077
627	0.076
627	0.076
628	0.075
628	0.074
629	0.073
629	0.072
630	0.071
630	0.07
630	0.069
631	0.069
631	0.068
632	0.067
632	0.066
633	0.066
633	0.066
634	0.065
634	0.065
634	0.064
635	0.063
635	0.062
636	0.061
636	0.06
637	0.059
637	0.058
638	0.057
638	0.056
638	0.055
639	0.054
639	0.053
640	0.052
640	0.051
641	0.05
641	0.049
642	0.048
642	0.047
642	0.047
643	0.045
643	0.044
644	0.043
644	0.042
645	0.041
645	0.04
646	0.039
646	0.037
646	0.034
647	0.032
647	0.03
648	0.027
648	0.024
649	0.021
649	0.019
650	0.017
650	0.014
650	0.012
651	0.009
651	0.004
652	-0.001
652	-0.006
653	-0.011
653	-0.014
653	-0.011
654	-0.005
654	-0.007
655	-0.01
655	-0.012
656	-0.015
656	-0.018
657	-0.021
657	-0.023
657	-0.026
658	-0.03
658	-0.045
659	-0.084
659	-0.121
660	-0.139
660	-0.153
661	-0.167
661	-0.183
661	-0.199
662	-0.212
662	-0.226
663	-0.243
663	-0.261
664	-0.277
664	-0.297
665	-0.32
665	-0.343
665	-0.362
666	-0.384
666	-0.41
667	-0.439
667	-0.472
668	-0.503
668	-0.547
669	-0.589
669	-0.636
669	-0.69
670	-0.754
670	-0.883
671	-1.173
671	-1.569
672	-1.965
672	-2.262
672	-2.443
673	-2.524
673	-2.546
674	-2.563
674	-2.572
675	-2.587
675	-2.591
676	-2.589
676	-2.558
676	-2.475
677	-2.287
677	-1.939
678	-1.372
678	-1
679	-0.875
679	-0.809
680	-0.761
680	-0.727
680	-0.699
681	-0.687
681	-0.664
682	-0.65
682	-0.629
683	-0.607
683	-0.603
684	-0.595
684	-0.591
684	-0.587
685	-0.584
685	-0.589
686	-0.576
686	-0.572
687	-0.574
687	-0.572
687	-0.581
688	-0.574
688	-0.574
689	-0.584
689	-0.584
690	-0.575
690	-0.569
691	-0.573
691	-0.58
691	-0.584
692	-0.587
692	-0.586
693	-0.595
693	-0.608
694	-0.591
694	-0.592
695	-0.599
695	-0.594
695	-0.602
696	-0.611
696	-0.604
697	-0.6
697	-0.599
698	-0.595
698	-0.589
698	-0.603
699	-0.604
699	-0.605
700	-0.624
700	-0.619
701	-0.61
701	-0.605
702	-0.604
702	-0.602
702	-0.602
703	-0.594
703	-0.584
704	-0.593
704	-0.596
705	-0.588
705	-0.588
705	-0.581
706	-0.574
706	-0.574
707	-0.587
707	-0.594
708	-0.591
708	-0.59
709	-0.59
709	-0.589
709	-0.587
710	-0.597
710	-0.602
711	-0.604
711	-0.605
712	-0.595
712	-0.593
713	-0.6
713	-0.603
713	-0.584
714	-0.586
714	-0.589
715	-0.581
715	-0.588
716	-0.603
716	-0.61
716	-0.612
717	-0.617
717	-0.61
718	-0.605
718	-0.606
719	-0.602
719	-0.594
720	-0.59
720	-0.581
720	-0.576
721	-0.569
721	-0.573
722	-0.57
722	-0.567
723	-0.582
723	-0.595
723	-0.603
724	-0.605
724	-0.61
725	-0.607
725	-0.609
726	-0.616
726	-0.609
727	-0.611
727	-0.621
727	-0.612
728	-0.599
728	-0.595
729	-0.597
729	-0.599
730	-0.605
730	-0.597
730	-0.601
731	-0.603
731	-0.602
732	-0.601
732	-0.596
733	-0.612
733	-0.617
734	-0.623
734	-0.616
734	-0.599
735	-0.592
735	-0.586
736	-0.586
736	-0.583
737	-0.584
737	-0.575
737	-0.567
738	-0.556
738	-0.548
739	-0.55
739	-0.551
740	-0.566
740	-0.567
741	-0.577
741	-0.586
741	-0.594
742	-0.601
742	-0.617
743	-0.622
743	-0.623
744	-0.625
744	-0.633
744	-0.624
745	-0.631
745	-0.62
746	-0.614
746	-0.606
747	-0.61
747	-0.601
748	-0.6
748	-0.608
748	-0.612
749	-0.605
749	-0.612
750	-0.602
750	-0.604
751	-0.606
751	-0.604
751	-0.614
752	-0.613
752	-0.617
753	-0.615
753	-0.609
754	-0.627
754	-0.628
754	-0.637
755	-0.638
755	-0.632
756	-0.635
756	-0.622
757	-0.617
757	-0.607
758	-0.608
758	-0.605
758	-0.601
759	-0.606
759	-0.604
760	-0.602
760	-0.6
761	-0.594
761	-0.597
761	-0.597
762	-0.603
762	-0.605
763	-0.61
763	-0.61
764	-0.609
764	-0.606
764	-0.611
765	-0.61
765	-0.614
766	-0.617
766	-0.62
767	-0.634
767	-0.625
768	-0.62
768	-0.616
768	-0.612
769	-0.614
769	-0.622
770	-0.632
770	-0.637
771	-0.634
771	-0.633
771	-0.64
772	-0.645
772	-0.666
773	-0.667
773	-0.665
774	-0.663
774	-0.646
775	-0.636
775	-0.636
775	-0.638
776	-0.646
776	-0.638
777	-0.64
777	-0.623
778	-0.632
778	-0.64
778	-0.639
779	-0.645
779	-0.659
780	-0.652
780	-0.662
781	-0.653
781	-0.645
781	-0.658
782	-0.678
782	-0.68
783	-0.676
783	-0.685
784	-0.689
784	-0.683
784	-0.704
785	-0.699
785	-0.712
786	-0.716
786	-0.709
787	-0.699
787	-0.704
788	-0.698
788	-0.695
788	-0.696
789	-0.696
789	-0.688
790	-0.685
790	-0.665
791	-0.674
791	-0.672
791	-0.666
792	-0.66
792	-0.666
793	-0.666
793	-0.654
794	-0.648
794	-0.64
794	-0.648
795	-0.669
795	-0.658
796	-0.663
796	-0.659
797	-0.656
797	-0.646
797	-0.642
798	-0.664
798	-0.667
799	-0.669
799	-0.656
800	-0.651
800	-0.658
801	-0.656
801	-0.66
801	-0.656
802	-0.655
802	-0.653
803	-0.649
803	-0.641
804	-0.647
804	-0.656
804	-0.642
805	-0.623
805	-0.61
806	-0.61
806	-0.61
807	-0.612
807	-0.613
807	-0.597
808	-0.594
808	-0.586
809	-0.581
809	-0.582
810	-0.586
810	-0.587
810	-0.586
811	-0.588
811	-0.581
812	-0.574
812	-0.578
813	-0.583
813	-0.583
813	-0.578
814	-0.578
814	-0.583
815	-0.574
815	-0.569
816	-0.565
816	-0.578
817	-0.588
817	-0.588
817	-0.598
818	-0.595
818	-0.591
819	-0.6
819	-0.601
820	-0.611
820	-0.608
820	-0.607
821	-0.606
821	-0.604
822	-0.604
822	-0.591
823	-0.599
823	-0.599
823	-0.595
824	-0.592
824	-0.599
825	-0.6
825	-0.598
826	-0.594
826	-0.588
826	-0.589
827	-0.59
827	-0.582
828	-0.581
828	-0.576
829	-0.571
829	-0.56
829	-0.558
830	-0.555
830	-0.542
831	-0.537
831	-0.525
832	-0.515
832	-0.511
832	-0.504
833	-0.502
833	-0.511
834	-0.508
834	-0.506
835	-0.501
835	-0.502
835	-0.498
836	-0.493
836	-0.492
837	-0.483
837	-0.477
838	-0.465
838	-0.448
839	-0.442
839	-0.431
839	-0.422
840	-0.421
840	-0.413
841	-0.404
841	-0.399
842	-0.393
842	-0.383
842	-0.38
843	-0.378
843	-0.375
844	-0.372
844	-0.362
845	-0.349
845	-0.344
845	-0.338
846	-0.326
846	-0.316
847	-0.308
847	-0.299
848	-0.286
848	-0.274
848	-0.265
849	-0.256
849	-0.247
850	-0.24
850	-0.231
851	-0.223
851	-0.214
851	-0.205
852	-0.194
852	-0.187
853	-0.181
853	-0.174
854	-0.166
854	-0.158
854	-0.149
855	-0.143
855	-0.139
856	-0.134
856	-0.131
857	-0.126
857	-0.12
857	-0.111
858	-0.104
858	-0.1
859	-0.094
859	-0.087
860	-0.08
860	-0.071
860	-0.065
861	-0.058
861	-0.053
862	-0.048
862	-0.043
863	-0.039
863	-0.034
863	-0.03
864	-0.026
864	-0.023
865	-0.019
865	-0.016
866	-0.013
866	-0.009
866	-0.006
867	-0.004
867	-0
868	0.002
868	0.004
869	0.008
869	0.01
869	0.012
870	0.014
870	0.016
871	0.017
871	0.017
872	0.018
872	0.018
872	0.018
873	0.018
873	0.018
874	0.017
874	0.017
875	0.016
875	0.015
875	0.015
876	0.014
876	0.014
877	0.013
877	0.012
878	0.011
878	0.011
878	0.01
879	0.009
879	0.008
880	0.008
880	0.007
881	0.007
881	0.007
881	0.007
882	0.006
882	0.006
883	0.006
883	0.006
884	0.006
884	0.006
884	0.006
885	0.005
885	0.005
886	0.004
886	0.003
887	0.002
887	0.001
887	-0
888	-0.001
888	-0.002
889	-0.003
889	-0.003
890	-0.004
890	-0.004
890	-0.004
891	-0.003
891	-0.003
892	-0.002
892	-0.001
893	-0
893	-0
893	-0
894	0
894	0
895	0
895	0.001
895	0.001
896	0.001
896	0.001
897	0.002
897	0.001
898	0.002
898	0.002
898	0.003
899	0.003
899	0.003
900	0.003
900	0.003
901	0.003
901	0.003
901	0.003
902	0.003
902	0.003
903	0.002
903	0.002
904	0.001
904	0
904	0
905	-0
905	-0
906	0
906	0
907	0.001
907	0.001
907	0.002
908	0.002
908	0.003
909	0.004
909	0.004
910	0.005
910	0.005
910	0.005
911	0.006
911	0.007
912	0.009
912	0.01
913	0.011
913	0.012
913	0.013
914	0.014
914	0.014
915	0.015
915	0.015
916	0.014
916	0.013
916	0.012
917	0.011
917	0.01
918	0.01
918	0.009
918	0.009
919	0.008
919	0.008
920	0.008
920	0.008
921	0.008
921	0.008
921	0.009
922	0.009
922	0.009
923	0.009
923	0.009
924	0.008
924	0.008
924	0.008
925	0.007
925	0.007
926	0.007
926	0.006
927	0.006
927	0.006
927	0.006
928	0.006
928	0.007
929	0.007
929	0.008
930	0.009
930	0.01
930	0.011
931	0.012
931	0.013
932	0.015
932	0.016
933	0.017
933	0.018
933	0.018
934	0.018
934	0.018
935	0.018
935	0.018
935	0.017
936	0.016
936	0.014
937	0.013
937	0.011
938	0.01
938	0.009
938	0.008
939	0.007
939	0.006
940	0.006
940	0.005
941	0.005
941	0.005
941	0.005
942	0.005
942	0.005
943	0.006
943	0.006
944	0.006
944	0.006
944	0.006
945	0.006
945	0.006
946	0.005
946	0.004
946	0.004
947	0.003
947	0.002
948	0.001
948	0.001
949	0
949	0
949	0
950	0
950	0.001
951	0.001
951	0.002
952	0.002
952	0.003
952	0.004
953	0.004
953	0.005
954	0.005
954	0.005
955	0.006
955	0.005
955	0.005
956	0.005
956	0.005
957	0.004
957	0.003
957	0.003
958	0.002
958	0.002
959	0.002
959	0.001
960	0.001
960	0.001
960	0.001
961	0.001
961	0.001
962	0.001
962	0.001
963	0.001
963	0.001
963	0.002
964	0.002
964	0.002
965	0.003
965	0.003
966	0.004
966	0.004
966	0.005
967	0.005
967	0.006
968	0.006
968	0.006
968	0.006
969	0.006
969	0.005
970	0.004
970	0.003
971	0.003
971	0.002
971	0.001
972	0.001
972	0.001
973	0.001
973	0.001
974	0.001
974	0.002
974	0.003
975	0.004
975	0.005
976	0.005
976	0.006
976	0.007
977	0.007
977	0.007
978	0.007
978	0.007
979	0.006
979	0.006
979	0.005
980	0.004
980	0.003
981	0.003
981	0.002
982	0.002
982	0.002
982	0.002
983	0.002
983	0.002
984	0.002
984	0.002
984	0.002
985	0.003
985	0.003
986	0.003
986	0.003
987	0.003
987	0.002
987	0.003
988	0.002
988	0.002
989	0.002
989	0.001
990	0.001
990	0
990	-0
991	-0.001
991	-0.001
992	-0.001
992	-0.002
992	-0.002
993	-0.002
993	-0.002
994	-0.003
994	-0.003
995	-0.003
995	-0.004
995	-0.004
996	-0.004
996	-0.004
997	-0.005
997	-0.005
997	-0.005
998	-0.004
998	-0.004
999	-0.003
999	-0.003
1000	-0.002
1000	-0.002
1000	-0.002
1001	-0.002
1001	-0.001
1002	-0.001
1002	-0
1003	-0
1003	-0.001
1003	-0.001
1004	-0.001
1004	-0.002
1005	-0.003
1005	-0.003
1005	-0.004
1006	-0.005
1006	-0.006
1007	-0.007
1007	-0.008
1008	-0.009
1008	-0.009
1008	-0.01
1009	-0.01
1009	-0.01
1010	-0.009
1010	-0.009
1010	-0.009
1011	-0.008
1011	-0.008
1012	-0.008
1012	-0.007
1013	-0.006
1013	-0.005
1013	-0.005
1014	-0.004
1014	-0.004
1015	-0.003
1015	-0.002
1016	-0.002
1016	-0.001
1016	-0.001
1017	-0.001
1017	-0.001
1018	-0.001
1018	-0.001
1018	-0.001
1019	-0.001
1019	-0.002
1020	-0.002
1020	-0.002
1021	-0.003
1021	-0.003
1021	-0.003
1022	-0.004
1022	-0.005
1023	-0.006
1023	-0.007
1023	-0.007
1024	-0.008
1024	-0.009
1025	-0.01
1025	-0.011
1026	-0.012
1026	-0.012
1026	-0.013
1027	-0.013
1027	-0.014
1028	-0.014
1028	-0.013
1028	-0.013
1029	-0.014
1029	-0.014
1030	-0.014
1030	-0.014
1031	-0.015
1031	-0.014
1031	-0.014
1032	-0.015
1032	-0.015
1033	-0.015
1033	-0.015
1033	-0.015
1034	-0.015
1034	-0.015
1035	-0.015
1035	-0.015
1036	-0.015
1036	-0.014
1036	-0.014
1037	-0.014
1037	-0.013
1038	-0.012
1038	-0.011
1039	-0.011
1039	-0.01
1039	-0.009
1040	-0.009
1040	-0.009
1041	-0.009
1041	-0.009
1041	-0.009
1042	-0.01
1042	-0.01
1043	-0.011
1043	-0.012
1044	-0.013
1044	-0.014
1044	-0.015
1045	-0.016
1045	-0.016
1046	-0.017
1046	-0.017
1046	-0.018
1047	-0.018
1047	-0.018
1048	-0.017
1048	-0.018
1049	-0.018
1049	-0.018
1049	-0.019
1050	-0.019
1050	-0.02
1051	-0.021
1051	-0.022
1051	-0.023
1052	-0.023
1052	-0.024
1053	-0.024
1053	-0.024
1053	-0.024
1054	-0.024
1054	-0.024
1055	-0.023
1055	-0.023
1056	-0.023
1056	-0.023
1056	-0.023
1057	-0.024
1057	-0.024
1058	-0.024
1058	-0.025
1058	-0.025
1059	-0.025
1059	-0.025
1060	-0.025
1060	-0.025
1061	-0.025
1061	-0.025
1061	-0.024
1062	-0.024
1062	-0.024
1063	-0.024
1063	-0.024
1063	-0.024
1064	-0.025
1064	-0.025
1065	-0.025
1065	-0.025
1066	-0.025
1066	-0.025
1066	-0.025
1067	-0.026
1067	-0.026
1068	-0.026
1068	-0.027
1068	-0.027
1069	-0.027
1069	-0.028
1070	-0.029
1070	-0.029
1071	-0.029
1071	-0.029
1071	-0.03
1072	-0.03
1072	-0.029
1073	-0.028
1073	-0.028
1073	-0.027
1074	-0.027
1074	-0.027
1075	-0.027
1075	-0.027
1076	-0.028
1076	-0.027
1076	-0.028
1077	-0.029
1077	-0.03
1078	-0.031
1078	-0.032
1078	-0.032
1079	-0.032
1079	-0.032
1080	-0.033
1080	-0.033
1080	-0.034
1081	-0.034
1081	-0.034
1082	-0.035
1082	-0.035
1083	-0.036
1083	-0.036
1083	-0.037
1084	-0.038
1084	-0.038
1085	-0.039
1085	-0.039
1085	-0.039
1086	-0.039
1086	-0.039
1087	-0.04
1087	-0.04
1088	-0.041
1088	-0.041
1088	-0.041
1089	-0.042
1089	-0.042
1090	-0.043
1090	-0.044
1090	-0.045
1091	-0.046
1091	-0.046
1092	-0.047
1092	-0.047
1092	-0.048
1093	-0.049
1093	-0.049
1094	-0.049
1094	-0.05
1095	-0.05
1095	-0.051
1095	-0.05
1096	-0.051
1096	-0.052
1097	-0.053
1097	-0.055
1097	-0.055
1098	-0.056
1098	-0.058
1099	-0.059
1099	-0.06
1100	-0.061
1100	-0.063
1100	-0.065
1101	-0.067
1101	-0.068
1102	-0.069
1102	-0.071
1102	-0.072
1103	-0.074
1103	-0.076
1104	-0.078
1104	-0.081
1104	-0.082
1105	-0.083
1105	-0.084
1106	-0.088
1106	-0.089
1107	-0.092
1107	-0.097
1107	-0.1
1108	-0.102
1108	-0.102
1109	-0.105
1109	-0.107
1109	-0.11
1110	-0.115
1110	-0.118
1111	-0.125
1111	-0.131
