Data from 3.5A_17C_Absorbance__465__00467.txt Node

Date: Tue Jun 20 15:13:12 CEST 2023
User: Marek
Spectrometer: MAYP115816
Trigger mode: 0
Integration Time (sec): 2.200000E-1
Scans to average: 10
Electric dark correction enabled: true
Nonlinearity correction enabled: true
Boxcar width: 5
XAxis mode: Wavelengths
Number of Pixels in Spectrum: 2068
>>>>>Begin Spectral Data<<<<<
199	-0.661
199	-0.639
200	-0.605
200	-0.549
201	-0.523
201	-0.514
202	-0.495
202	-0.488
203	-0.487
203	-0.479
204	-0.461
204	-0.444
205	-0.424
205	-0.414
205	-0.424
206	-0.425
206	-0.42
207	-0.414
207	-0.42
208	-0.422
208	-0.426
209	-0.427
209	-0.435
210	-0.447
210	-0.456
211	-0.446
211	-0.449
212	-0.459
212	-0.464
213	-0.461
213	-0.457
213	-0.454
214	-0.46
214	-0.462
215	-0.457
215	-0.461
216	-0.472
216	-0.479
217	-0.477
217	-0.479
218	-0.486
218	-0.488
219	-0.495
219	-0.495
220	-0.497
220	-0.505
221	-0.506
221	-0.505
221	-0.495
222	-0.496
222	-0.495
223	-0.493
223	-0.494
224	-0.494
224	-0.494
225	-0.493
225	-0.493
226	-0.491
226	-0.491
227	-0.5
227	-0.51
228	-0.512
228	-0.518
229	-0.523
229	-0.523
229	-0.524
230	-0.518
230	-0.517
231	-0.515
231	-0.511
232	-0.513
232	-0.507
233	-0.507
233	-0.495
234	-0.496
234	-0.49
235	-0.494
235	-0.504
236	-0.509
236	-0.511
236	-0.51
237	-0.506
237	-0.507
238	-0.51
238	-0.511
239	-0.51
239	-0.519
240	-0.512
240	-0.511
241	-0.507
241	-0.509
242	-0.514
242	-0.525
243	-0.524
243	-0.525
243	-0.531
244	-0.529
244	-0.531
245	-0.533
245	-0.536
246	-0.546
246	-0.548
247	-0.556
247	-0.54
248	-0.54
248	-0.541
249	-0.545
249	-0.547
250	-0.546
250	-0.553
250	-0.55
251	-0.55
251	-0.548
252	-0.548
252	-0.559
253	-0.555
253	-0.566
254	-0.57
254	-0.571
255	-0.58
255	-0.578
256	-0.582
256	-0.593
257	-0.601
257	-0.598
258	-0.599
258	-0.609
258	-0.605
259	-0.599
259	-0.614
260	-0.613
260	-0.604
261	-0.615
261	-0.602
262	-0.607
262	-0.606
263	-0.596
263	-0.6
264	-0.611
264	-0.612
265	-0.606
265	-0.61
265	-0.62
266	-0.61
266	-0.61
267	-0.609
267	-0.624
268	-0.63
268	-0.623
269	-0.615
269	-0.628
270	-0.63
270	-0.628
271	-0.64
271	-0.65
272	-0.65
272	-0.653
272	-0.647
273	-0.659
273	-0.672
274	-0.663
274	-0.656
275	-0.653
275	-0.641
276	-0.642
276	-0.646
277	-0.648
277	-0.644
278	-0.649
278	-0.65
278	-0.64
279	-0.648
279	-0.664
280	-0.666
280	-0.676
281	-0.673
281	-0.665
282	-0.669
282	-0.665
283	-0.657
283	-0.669
284	-0.682
284	-0.694
285	-0.673
285	-0.68
285	-0.672
286	-0.675
286	-0.692
287	-0.689
287	-0.687
288	-0.685
288	-0.668
289	-0.667
289	-0.674
290	-0.685
290	-0.674
291	-0.677
291	-0.676
292	-0.657
292	-0.654
292	-0.658
293	-0.647
293	-0.642
294	-0.64
294	-0.627
295	-0.607
295	-0.62
296	-0.632
296	-0.625
297	-0.614
297	-0.619
298	-0.618
298	-0.634
298	-0.638
299	-0.62
299	-0.613
300	-0.609
300	-0.589
301	-0.571
301	-0.574
302	-0.586
302	-0.57
303	-0.561
303	-0.55
304	-0.537
304	-0.541
305	-0.534
305	-0.545
305	-0.558
306	-0.545
306	-0.544
307	-0.535
307	-0.546
308	-0.549
308	-0.544
309	-0.545
309	-0.54
310	-0.538
310	-0.532
311	-0.52
311	-0.537
311	-0.524
312	-0.52
312	-0.509
313	-0.503
313	-0.507
314	-0.51
314	-0.511
315	-0.507
315	-0.502
316	-0.496
316	-0.485
317	-0.479
317	-0.476
318	-0.468
318	-0.464
318	-0.452
319	-0.445
319	-0.434
320	-0.433
320	-0.433
321	-0.428
321	-0.429
322	-0.423
322	-0.415
323	-0.414
323	-0.406
324	-0.404
324	-0.392
324	-0.383
325	-0.368
325	-0.348
326	-0.341
326	-0.316
327	-0.302
327	-0.281
328	-0.253
328	-0.229
329	-0.2
329	-0.174
330	-0.148
330	-0.114
330	-0.081
331	-0.046
331	-0.015
332	0.017
332	0.047
333	0.077
333	0.107
334	0.134
334	0.159
335	0.185
335	0.205
336	0.225
336	0.243
336	0.258
337	0.274
337	0.288
338	0.299
338	0.309
339	0.321
339	0.33
340	0.336
340	0.344
341	0.349
341	0.354
342	0.36
342	0.365
342	0.369
343	0.372
343	0.375
344	0.378
344	0.38
345	0.383
345	0.385
346	0.387
346	0.388
347	0.389
347	0.39
348	0.391
348	0.392
348	0.393
349	0.393
349	0.394
350	0.394
350	0.395
351	0.395
351	0.395
352	0.395
352	0.395
353	0.396
353	0.396
354	0.396
354	0.396
354	0.396
355	0.396
355	0.396
356	0.396
356	0.396
357	0.396
357	0.396
358	0.395
358	0.395
359	0.395
359	0.395
360	0.395
360	0.395
360	0.395
361	0.395
361	0.395
362	0.395
362	0.394
363	0.394
363	0.394
364	0.394
364	0.393
365	0.393
365	0.393
366	0.392
366	0.392
366	0.392
367	0.392
367	0.391
368	0.391
368	0.391
369	0.39
369	0.39
370	0.39
370	0.39
371	0.389
371	0.389
372	0.388
372	0.388
372	0.388
373	0.388
373	0.387
374	0.387
374	0.387
375	0.386
375	0.386
376	0.385
376	0.385
377	0.384
377	0.384
378	0.383
378	0.383
378	0.383
379	0.382
379	0.382
380	0.382
380	0.381
381	0.381
381	0.381
382	0.38
382	0.38
383	0.379
383	0.379
383	0.378
384	0.378
384	0.377
385	0.377
385	0.376
386	0.376
386	0.376
387	0.375
387	0.375
388	0.374
388	0.374
389	0.374
389	0.373
389	0.373
390	0.373
390	0.373
391	0.372
391	0.372
392	0.372
392	0.371
393	0.371
393	0.37
394	0.37
394	0.369
394	0.369
395	0.368
395	0.367
396	0.367
396	0.366
397	0.366
397	0.366
398	0.365
398	0.365
399	0.364
399	0.364
400	0.364
400	0.363
400	0.363
401	0.363
401	0.362
402	0.362
402	0.362
403	0.361
403	0.361
404	0.36
404	0.36
405	0.359
405	0.359
405	0.358
406	0.358
406	0.357
407	0.357
407	0.356
408	0.356
408	0.356
409	0.356
409	0.356
410	0.356
410	0.355
411	0.355
411	0.355
411	0.355
412	0.355
412	0.354
413	0.354
413	0.354
414	0.353
414	0.353
415	0.352
415	0.352
416	0.352
416	0.351
416	0.351
417	0.351
417	0.351
418	0.35
418	0.35
419	0.35
419	0.35
420	0.35
420	0.35
421	0.35
421	0.349
421	0.349
422	0.349
422	0.349
423	0.349
423	0.348
424	0.348
424	0.348
425	0.348
425	0.348
426	0.348
426	0.348
427	0.348
427	0.347
427	0.347
428	0.347
428	0.347
429	0.347
429	0.346
430	0.346
430	0.346
431	0.345
431	0.345
432	0.345
432	0.345
432	0.345
433	0.344
433	0.345
434	0.345
434	0.345
435	0.345
435	0.345
436	0.345
436	0.345
437	0.345
437	0.345
437	0.345
438	0.345
438	0.345
439	0.345
439	0.345
440	0.344
440	0.344
441	0.344
441	0.344
442	0.344
442	0.344
442	0.344
443	0.344
443	0.344
444	0.344
444	0.344
445	0.344
445	0.344
446	0.344
446	0.344
447	0.345
447	0.345
447	0.345
448	0.345
448	0.345
449	0.345
449	0.345
450	0.346
450	0.346
451	0.346
451	0.346
452	0.345
452	0.345
452	0.346
453	0.346
453	0.346
454	0.346
454	0.346
455	0.347
455	0.347
456	0.347
456	0.347
457	0.348
457	0.348
458	0.348
458	0.348
458	0.348
459	0.348
459	0.348
460	0.348
460	0.348
461	0.349
461	0.349
462	0.349
462	0.35
463	0.351
463	0.352
463	0.352
464	0.353
464	0.354
465	0.354
465	0.355
466	0.355
466	0.356
467	0.356
467	0.357
467	0.357
468	0.357
468	0.358
469	0.359
469	0.36
470	0.36
470	0.361
471	0.362
471	0.363
472	0.363
472	0.364
472	0.365
473	0.366
473	0.367
474	0.368
474	0.369
475	0.37
475	0.371
476	0.372
476	0.373
477	0.374
477	0.375
477	0.376
478	0.377
478	0.378
479	0.38
479	0.381
480	0.383
480	0.384
481	0.386
481	0.387
482	0.389
482	0.391
482	0.392
483	0.394
483	0.397
484	0.399
484	0.4
485	0.402
485	0.404
486	0.405
486	0.407
487	0.408
487	0.41
487	0.412
488	0.413
488	0.415
489	0.417
489	0.42
490	0.422
490	0.425
491	0.427
491	0.43
492	0.432
492	0.434
492	0.437
493	0.439
493	0.442
494	0.445
494	0.448
495	0.45
495	0.453
496	0.456
496	0.458
496	0.462
497	0.465
497	0.468
498	0.471
498	0.475
499	0.478
499	0.482
500	0.485
500	0.489
501	0.492
501	0.496
501	0.499
502	0.502
502	0.506
503	0.509
503	0.512
504	0.516
504	0.519
505	0.522
505	0.526
506	0.53
506	0.533
506	0.537
507	0.541
507	0.544
508	0.548
508	0.552
509	0.556
509	0.559
510	0.563
510	0.567
511	0.57
511	0.574
511	0.577
512	0.58
512	0.584
513	0.587
513	0.59
514	0.593
514	0.597
515	0.6
515	0.603
515	0.606
516	0.609
516	0.612
517	0.614
517	0.617
518	0.619
518	0.621
519	0.623
519	0.625
520	0.627
520	0.629
520	0.632
521	0.633
521	0.635
522	0.636
522	0.638
523	0.639
523	0.64
524	0.641
524	0.642
524	0.643
525	0.644
525	0.644
526	0.645
526	0.646
527	0.646
527	0.646
528	0.646
528	0.646
529	0.645
529	0.645
529	0.644
530	0.643
530	0.642
531	0.641
531	0.64
532	0.638
532	0.637
533	0.635
533	0.634
533	0.632
534	0.63
534	0.628
535	0.626
535	0.624
536	0.621
536	0.618
537	0.616
537	0.613
538	0.61
538	0.607
538	0.604
539	0.601
539	0.598
540	0.595
540	0.591
541	0.588
541	0.584
542	0.58
542	0.577
542	0.573
543	0.569
543	0.565
544	0.561
544	0.557
545	0.553
545	0.549
546	0.544
546	0.54
547	0.535
547	0.53
547	0.526
548	0.522
548	0.517
549	0.512
549	0.508
550	0.503
550	0.498
551	0.493
551	0.487
551	0.482
552	0.477
552	0.472
553	0.467
553	0.462
554	0.458
554	0.452
555	0.447
555	0.443
556	0.437
556	0.433
556	0.428
557	0.423
557	0.419
558	0.414
558	0.409
559	0.404
559	0.399
560	0.395
560	0.39
560	0.387
561	0.383
561	0.379
562	0.375
562	0.371
563	0.367
563	0.363
564	0.359
564	0.356
564	0.352
565	0.348
565	0.344
566	0.34
566	0.337
567	0.333
567	0.329
568	0.325
568	0.32
568	0.316
569	0.312
569	0.308
570	0.303
570	0.299
571	0.295
571	0.292
572	0.288
572	0.284
573	0.28
573	0.276
573	0.273
574	0.27
574	0.267
575	0.264
575	0.262
576	0.259
576	0.255
577	0.252
577	0.25
577	0.248
578	0.245
578	0.244
579	0.242
579	0.24
580	0.236
580	0.233
581	0.229
581	0.227
581	0.225
582	0.223
582	0.221
583	0.219
583	0.216
584	0.212
584	0.208
585	0.205
585	0.203
585	0.2
586	0.197
586	0.195
587	0.192
587	0.189
588	0.186
588	0.184
589	0.182
589	0.181
590	0.179
590	0.177
590	0.176
591	0.175
591	0.172
592	0.17
592	0.168
593	0.167
593	0.166
594	0.164
594	0.162
594	0.161
595	0.16
595	0.158
596	0.156
596	0.155
597	0.155
597	0.153
598	0.152
598	0.15
598	0.149
599	0.148
599	0.146
600	0.145
600	0.144
601	0.143
601	0.142
602	0.14
602	0.138
602	0.137
603	0.136
603	0.135
604	0.134
604	0.133
605	0.132
605	0.131
606	0.13
606	0.128
606	0.126
607	0.125
607	0.125
608	0.123
608	0.122
609	0.121
609	0.12
610	0.118
610	0.117
610	0.116
611	0.115
611	0.114
612	0.113
612	0.113
613	0.112
613	0.112
614	0.11
614	0.109
614	0.108
615	0.107
615	0.106
616	0.105
616	0.104
617	0.103
617	0.102
618	0.101
618	0.1
618	0.099
619	0.099
619	0.099
620	0.099
620	0.098
621	0.097
621	0.096
622	0.095
622	0.094
622	0.093
623	0.092
623	0.092
624	0.092
624	0.091
625	0.09
625	0.089
626	0.088
626	0.087
626	0.087
627	0.086
627	0.085
628	0.084
628	0.083
629	0.082
629	0.081
630	0.08
630	0.078
630	0.078
631	0.077
631	0.075
632	0.074
632	0.073
633	0.073
633	0.072
634	0.071
634	0.07
634	0.069
635	0.068
635	0.067
636	0.066
636	0.065
637	0.064
637	0.062
638	0.061
638	0.06
638	0.059
639	0.057
639	0.055
640	0.054
640	0.052
641	0.051
641	0.049
642	0.048
642	0.047
642	0.045
643	0.043
643	0.041
644	0.039
644	0.037
645	0.035
645	0.033
646	0.031
646	0.028
646	0.024
647	0.021
647	0.018
648	0.014
648	0.011
649	0.007
649	0.004
650	0.001
650	-0.003
650	-0.007
651	-0.011
651	-0.017
652	-0.023
652	-0.03
653	-0.035
653	-0.041
653	-0.036
654	-0.028
654	-0.028
655	-0.032
655	-0.035
656	-0.038
656	-0.041
657	-0.044
657	-0.047
657	-0.051
658	-0.055
658	-0.074
659	-0.124
659	-0.172
660	-0.194
660	-0.209
661	-0.226
661	-0.245
661	-0.266
662	-0.282
662	-0.3
663	-0.319
663	-0.341
664	-0.361
664	-0.386
665	-0.413
665	-0.441
665	-0.467
666	-0.498
666	-0.53
667	-0.564
667	-0.605
668	-0.646
668	-0.696
669	-0.747
669	-0.802
669	-0.865
670	-0.931
670	-1.031
671	-1.206
671	-1.579
672	-2.045
672	-2.306
672	-2.472
673	-2.596
673	-2.649
674	-2.671
674	-2.68
675	-2.695
675	-2.701
676	-2.703
676	-2.681
676	-2.597
677	-2.466
677	-2.277
678	-1.89
678	-1.362
679	-1.134
679	-1.033
680	-0.963
680	-0.914
680	-0.873
681	-0.848
681	-0.817
682	-0.795
682	-0.767
683	-0.739
683	-0.733
684	-0.72
684	-0.715
684	-0.705
685	-0.697
685	-0.699
686	-0.684
686	-0.678
687	-0.677
687	-0.672
687	-0.679
688	-0.668
688	-0.668
689	-0.676
689	-0.677
690	-0.668
690	-0.662
691	-0.664
691	-0.67
691	-0.671
692	-0.675
692	-0.672
693	-0.681
693	-0.691
694	-0.675
694	-0.677
695	-0.682
695	-0.678
695	-0.686
696	-0.694
696	-0.688
697	-0.685
697	-0.685
698	-0.681
698	-0.674
698	-0.69
699	-0.688
699	-0.689
700	-0.707
700	-0.703
701	-0.692
701	-0.688
702	-0.69
702	-0.687
702	-0.689
703	-0.681
703	-0.669
704	-0.678
704	-0.681
705	-0.671
705	-0.669
705	-0.664
706	-0.658
706	-0.653
707	-0.665
707	-0.667
708	-0.667
708	-0.664
709	-0.666
709	-0.663
709	-0.661
710	-0.669
710	-0.673
711	-0.672
711	-0.675
712	-0.667
712	-0.665
713	-0.672
713	-0.673
713	-0.653
714	-0.657
714	-0.662
715	-0.654
715	-0.661
716	-0.679
716	-0.686
716	-0.687
717	-0.694
717	-0.684
718	-0.68
718	-0.681
719	-0.677
719	-0.671
720	-0.666
720	-0.663
720	-0.657
721	-0.648
721	-0.653
722	-0.649
722	-0.646
723	-0.661
723	-0.675
723	-0.683
724	-0.681
724	-0.688
725	-0.68
725	-0.683
726	-0.687
726	-0.677
727	-0.683
727	-0.689
727	-0.681
728	-0.668
728	-0.666
729	-0.666
729	-0.668
730	-0.674
730	-0.667
730	-0.673
731	-0.679
731	-0.678
732	-0.682
732	-0.678
733	-0.691
733	-0.698
734	-0.707
734	-0.7
734	-0.682
735	-0.672
735	-0.667
736	-0.665
736	-0.661
737	-0.658
737	-0.648
737	-0.644
738	-0.628
738	-0.616
739	-0.617
739	-0.619
740	-0.635
740	-0.634
741	-0.644
741	-0.654
741	-0.665
742	-0.671
742	-0.685
743	-0.693
743	-0.696
744	-0.7
744	-0.709
744	-0.701
745	-0.711
745	-0.7
746	-0.693
746	-0.685
747	-0.687
747	-0.675
748	-0.676
748	-0.681
748	-0.683
749	-0.679
749	-0.684
750	-0.672
750	-0.672
751	-0.675
751	-0.672
751	-0.685
752	-0.691
752	-0.695
753	-0.696
753	-0.687
754	-0.702
754	-0.703
754	-0.713
755	-0.712
755	-0.703
756	-0.706
756	-0.692
757	-0.684
757	-0.671
758	-0.674
758	-0.675
758	-0.67
759	-0.675
759	-0.673
760	-0.672
760	-0.674
761	-0.666
761	-0.669
761	-0.669
762	-0.675
762	-0.676
763	-0.676
763	-0.682
764	-0.679
764	-0.675
764	-0.681
765	-0.681
765	-0.69
766	-0.693
766	-0.695
767	-0.711
767	-0.706
768	-0.704
768	-0.696
768	-0.69
769	-0.692
769	-0.7
770	-0.71
770	-0.713
771	-0.709
771	-0.71
771	-0.713
772	-0.716
772	-0.736
773	-0.736
773	-0.737
774	-0.736
774	-0.718
775	-0.705
775	-0.704
775	-0.707
776	-0.715
776	-0.71
777	-0.708
777	-0.691
778	-0.701
778	-0.711
778	-0.712
779	-0.721
779	-0.738
780	-0.734
780	-0.742
781	-0.73
781	-0.72
781	-0.735
782	-0.755
782	-0.756
783	-0.752
783	-0.76
784	-0.763
784	-0.756
784	-0.776
785	-0.772
785	-0.789
786	-0.796
786	-0.791
787	-0.782
787	-0.791
788	-0.787
788	-0.78
788	-0.784
789	-0.784
789	-0.773
790	-0.772
790	-0.755
791	-0.76
791	-0.753
791	-0.748
792	-0.744
792	-0.748
793	-0.751
793	-0.735
794	-0.729
794	-0.725
794	-0.732
795	-0.75
795	-0.737
796	-0.742
796	-0.738
797	-0.727
797	-0.718
797	-0.712
798	-0.733
798	-0.737
799	-0.735
799	-0.72
800	-0.718
800	-0.725
801	-0.724
801	-0.727
801	-0.726
802	-0.725
802	-0.723
803	-0.719
803	-0.712
804	-0.718
804	-0.726
804	-0.709
805	-0.692
805	-0.683
806	-0.685
806	-0.681
807	-0.685
807	-0.684
807	-0.668
808	-0.665
808	-0.656
809	-0.651
809	-0.653
810	-0.656
810	-0.655
810	-0.651
811	-0.657
811	-0.646
812	-0.642
812	-0.642
813	-0.646
813	-0.647
813	-0.641
814	-0.643
814	-0.649
815	-0.641
815	-0.637
816	-0.63
816	-0.647
817	-0.657
817	-0.661
817	-0.671
818	-0.668
818	-0.667
819	-0.672
819	-0.672
820	-0.682
820	-0.679
820	-0.677
821	-0.673
821	-0.669
822	-0.668
822	-0.655
823	-0.666
823	-0.665
823	-0.662
824	-0.659
824	-0.669
825	-0.669
825	-0.668
826	-0.664
826	-0.66
826	-0.657
827	-0.659
827	-0.649
828	-0.649
828	-0.643
829	-0.637
829	-0.622
829	-0.617
830	-0.615
830	-0.6
831	-0.594
831	-0.587
832	-0.577
832	-0.572
832	-0.564
833	-0.564
833	-0.571
834	-0.565
834	-0.562
835	-0.558
835	-0.56
835	-0.556
836	-0.552
836	-0.551
837	-0.539
837	-0.533
838	-0.522
838	-0.508
839	-0.504
839	-0.494
839	-0.483
840	-0.483
840	-0.473
841	-0.463
841	-0.457
842	-0.45
842	-0.44
842	-0.436
843	-0.43
843	-0.427
844	-0.423
844	-0.413
845	-0.401
845	-0.393
845	-0.384
846	-0.374
846	-0.367
847	-0.357
847	-0.347
848	-0.335
848	-0.321
848	-0.312
849	-0.302
849	-0.294
850	-0.286
850	-0.278
851	-0.268
851	-0.254
851	-0.247
852	-0.234
852	-0.224
853	-0.215
853	-0.206
854	-0.198
854	-0.189
854	-0.179
855	-0.17
855	-0.164
856	-0.157
856	-0.151
857	-0.147
857	-0.142
857	-0.133
858	-0.125
858	-0.119
859	-0.111
859	-0.102
860	-0.095
860	-0.084
860	-0.078
861	-0.07
861	-0.062
862	-0.057
862	-0.051
863	-0.046
863	-0.04
863	-0.036
864	-0.032
864	-0.028
865	-0.024
865	-0.02
866	-0.016
866	-0.013
866	-0.009
867	-0.006
867	-0.002
868	-0
868	0.003
869	0.006
869	0.008
869	0.01
870	0.012
870	0.014
871	0.016
871	0.017
872	0.017
872	0.018
872	0.018
873	0.018
873	0.018
874	0.017
874	0.017
875	0.016
875	0.015
875	0.015
876	0.014
876	0.014
877	0.013
877	0.012
878	0.011
878	0.01
878	0.01
879	0.009
879	0.009
880	0.008
880	0.008
881	0.007
881	0.008
881	0.008
882	0.007
882	0.007
883	0.007
883	0.007
884	0.007
884	0.007
884	0.007
885	0.006
885	0.006
886	0.005
886	0.004
887	0.003
887	0.002
887	0
888	-0
888	-0.001
889	-0.002
889	-0.002
890	-0.003
890	-0.003
890	-0.003
891	-0.003
891	-0.003
892	-0.002
892	-0.002
893	-0.001
893	-0.002
893	-0.002
894	-0.002
894	-0.002
895	-0.002
895	-0.002
895	-0.002
896	-0.002
896	-0.002
897	-0.002
897	-0.001
898	-0.001
898	-0.001
898	-0
899	0.001
899	0.001
900	0.002
900	0.002
901	0.002
901	0.002
901	0.002
902	0.002
902	0.002
903	0.002
903	0.001
904	0.001
904	0
904	-0
905	-0
905	-0
906	0
906	0.001
907	0.001
907	0.001
907	0.002
908	0.003
908	0.003
909	0.004
909	0.005
910	0.006
910	0.006
910	0.007
911	0.008
911	0.009
912	0.01
912	0.012
913	0.013
913	0.014
913	0.015
914	0.016
914	0.017
915	0.017
915	0.017
916	0.017
916	0.016
916	0.015
917	0.014
917	0.013
918	0.013
918	0.012
918	0.011
919	0.011
919	0.011
920	0.01
920	0.01
921	0.01
921	0.01
921	0.01
922	0.01
922	0.01
923	0.01
923	0.01
924	0.01
924	0.009
924	0.009
925	0.009
925	0.008
926	0.008
926	0.008
927	0.008
927	0.008
927	0.008
928	0.008
928	0.008
929	0.009
929	0.01
930	0.01
930	0.011
930	0.012
931	0.013
931	0.014
932	0.015
932	0.015
933	0.016
933	0.016
933	0.016
934	0.016
934	0.016
935	0.015
935	0.015
935	0.013
936	0.012
936	0.011
937	0.009
937	0.008
938	0.007
938	0.005
938	0.004
939	0.003
939	0.003
940	0.003
940	0.003
941	0.002
941	0.002
941	0.003
942	0.003
942	0.003
943	0.004
943	0.004
944	0.004
944	0.003
944	0.003
945	0.003
945	0.003
946	0.003
946	0.002
946	0.001
947	0
947	-0.001
948	-0.001
948	-0.002
949	-0.002
949	-0.002
949	-0.002
950	-0.002
950	-0.001
951	-0.001
951	0
952	0
952	0.001
952	0.001
953	0.002
953	0.003
954	0.003
954	0.003
955	0.004
955	0.004
955	0.004
956	0.003
956	0.003
957	0.002
957	0.002
957	0.001
958	0
958	0
959	-0
959	-0.001
960	-0.001
960	-0.001
960	-0.001
961	-0.001
961	-0.001
962	-0.001
962	-0.001
963	-0.001
963	-0.001
963	-0.001
964	-0.001
964	-0.001
965	-0
965	-0
966	-0
966	0
966	0
967	0.001
967	0.001
968	0.001
968	0.001
968	0.001
969	0
969	-0
970	-0.001
970	-0.002
971	-0.003
971	-0.003
971	-0.004
972	-0.004
972	-0.004
973	-0.004
973	-0.004
974	-0.004
974	-0.003
974	-0.002
975	-0
975	0.001
976	0.002
976	0.003
976	0.004
977	0.004
977	0.005
978	0.005
978	0.005
979	0.005
979	0.004
979	0.004
980	0.004
980	0.003
981	0.003
981	0.003
982	0.003
982	0.002
982	0.003
983	0.003
983	0.002
984	0.002
984	0.002
984	0.002
985	0.002
985	0.002
986	0.002
986	0.001
987	0.001
987	0
987	0
988	-0
988	-0.001
989	-0.001
989	-0.002
990	-0.002
990	-0.003
990	-0.003
991	-0.004
991	-0.004
992	-0.004
992	-0.005
992	-0.005
993	-0.005
993	-0.005
994	-0.006
994	-0.006
995	-0.006
995	-0.006
995	-0.007
996	-0.007
996	-0.007
997	-0.008
997	-0.008
997	-0.008
998	-0.008
998	-0.007
999	-0.007
999	-0.007
1000	-0.007
1000	-0.007
1000	-0.006
1001	-0.006
1001	-0.006
1002	-0.005
1002	-0.005
1003	-0.005
1003	-0.005
1003	-0.005
1004	-0.006
1004	-0.006
1005	-0.007
1005	-0.008
1005	-0.008
1006	-0.009
1006	-0.01
1007	-0.01
1007	-0.011
1008	-0.011
1008	-0.012
1008	-0.012
1009	-0.012
1009	-0.011
1010	-0.011
1010	-0.01
1010	-0.01
1011	-0.01
1011	-0.01
1012	-0.009
1012	-0.008
1013	-0.007
1013	-0.007
1013	-0.007
1014	-0.007
1014	-0.006
1015	-0.006
1015	-0.005
1016	-0.005
1016	-0.005
1016	-0.005
1017	-0.005
1017	-0.005
1018	-0.004
1018	-0.004
1018	-0.004
1019	-0.004
1019	-0.004
1020	-0.005
1020	-0.005
1021	-0.006
1021	-0.006
1021	-0.007
1022	-0.007
1022	-0.008
1023	-0.009
1023	-0.01
1023	-0.011
1024	-0.011
1024	-0.012
1025	-0.013
1025	-0.013
1026	-0.014
1026	-0.014
1026	-0.015
1027	-0.015
1027	-0.015
1028	-0.015
1028	-0.014
1028	-0.015
1029	-0.015
1029	-0.014
1030	-0.015
1030	-0.015
1031	-0.015
1031	-0.015
1031	-0.015
1032	-0.015
1032	-0.015
1033	-0.016
1033	-0.016
1033	-0.016
1034	-0.016
1034	-0.016
1035	-0.016
1035	-0.016
1036	-0.016
1036	-0.016
1036	-0.016
1037	-0.015
1037	-0.014
1038	-0.014
1038	-0.013
1039	-0.012
1039	-0.012
1039	-0.011
1040	-0.011
1040	-0.01
1041	-0.01
1041	-0.011
1041	-0.012
1042	-0.012
1042	-0.013
1043	-0.014
1043	-0.015
1044	-0.016
1044	-0.017
1044	-0.018
1045	-0.019
1045	-0.019
1046	-0.02
1046	-0.021
1046	-0.021
1047	-0.021
1047	-0.021
1048	-0.021
1048	-0.021
1049	-0.021
1049	-0.021
1049	-0.021
1050	-0.022
1050	-0.023
1051	-0.023
1051	-0.024
1051	-0.025
1052	-0.026
1052	-0.027
1053	-0.027
1053	-0.027
1053	-0.027
1054	-0.027
1054	-0.027
1055	-0.027
1055	-0.027
1056	-0.027
1056	-0.027
1056	-0.027
1057	-0.028
1057	-0.028
1058	-0.028
1058	-0.029
1058	-0.029
1059	-0.029
1059	-0.029
1060	-0.029
1060	-0.029
1061	-0.029
1061	-0.028
1061	-0.028
1062	-0.028
1062	-0.028
1063	-0.028
1063	-0.028
1063	-0.029
1064	-0.028
1064	-0.028
1065	-0.028
1065	-0.028
1066	-0.029
1066	-0.029
1066	-0.029
1067	-0.029
1067	-0.029
1068	-0.03
1068	-0.03
1068	-0.03
1069	-0.031
1069	-0.032
1070	-0.033
1070	-0.033
1071	-0.033
1071	-0.033
1071	-0.034
1072	-0.034
1072	-0.034
1073	-0.033
1073	-0.033
1073	-0.032
1074	-0.032
1074	-0.031
1075	-0.031
1075	-0.031
1076	-0.032
1076	-0.032
1076	-0.032
1077	-0.033
1077	-0.034
1078	-0.035
1078	-0.036
1078	-0.037
1079	-0.037
1079	-0.037
1080	-0.038
1080	-0.039
1080	-0.04
1081	-0.04
1081	-0.041
1082	-0.041
1082	-0.041
1083	-0.041
1083	-0.042
1083	-0.043
1084	-0.044
1084	-0.044
1085	-0.044
1085	-0.044
1085	-0.045
1086	-0.045
1086	-0.046
1087	-0.046
1087	-0.047
1088	-0.048
1088	-0.048
1088	-0.048
1089	-0.049
1089	-0.05
1090	-0.051
1090	-0.051
1090	-0.052
1091	-0.054
1091	-0.054
1092	-0.055
1092	-0.055
1092	-0.056
1093	-0.057
1093	-0.057
1094	-0.058
1094	-0.059
1095	-0.06
1095	-0.06
1095	-0.06
1096	-0.061
1096	-0.062
1097	-0.063
1097	-0.064
1097	-0.065
1098	-0.066
1098	-0.068
1099	-0.068
1099	-0.069
1100	-0.07
1100	-0.072
1100	-0.075
1101	-0.077
1101	-0.079
1102	-0.08
1102	-0.082
1102	-0.083
1103	-0.085
1103	-0.087
1104	-0.09
1104	-0.092
1104	-0.093
1105	-0.095
1105	-0.096
1106	-0.1
1106	-0.102
1107	-0.106
1107	-0.11
1107	-0.113
1108	-0.115
1108	-0.116
1109	-0.119
1109	-0.122
1109	-0.124
1110	-0.125
1110	-0.128
1111	-0.136
1111	-0.13
