Data from 3.5A_17C_Absorbance__932__00934.txt Node

Date: Tue Jun 20 15:30:20 CEST 2023
User: Marek
Spectrometer: MAYP115816
Trigger mode: 0
Integration Time (sec): 2.200000E-1
Scans to average: 10
Electric dark correction enabled: true
Nonlinearity correction enabled: true
Boxcar width: 5
XAxis mode: Wavelengths
Number of Pixels in Spectrum: 2068
>>>>>Begin Spectral Data<<<<<
199	-0.728
199	-0.713
200	-0.672
200	-0.617
201	-0.59
201	-0.583
202	-0.567
202	-0.56
203	-0.559
203	-0.55
204	-0.53
204	-0.515
205	-0.491
205	-0.484
205	-0.495
206	-0.497
206	-0.492
207	-0.484
207	-0.489
208	-0.489
208	-0.495
209	-0.496
209	-0.503
210	-0.517
210	-0.524
211	-0.514
211	-0.517
212	-0.527
212	-0.534
213	-0.531
213	-0.527
213	-0.524
214	-0.53
214	-0.532
215	-0.528
215	-0.532
216	-0.542
216	-0.548
217	-0.544
217	-0.544
218	-0.552
218	-0.553
219	-0.561
219	-0.564
220	-0.566
220	-0.574
221	-0.572
221	-0.574
221	-0.567
222	-0.567
222	-0.567
223	-0.563
223	-0.566
224	-0.567
224	-0.566
225	-0.564
225	-0.566
226	-0.566
226	-0.566
227	-0.573
227	-0.583
228	-0.586
228	-0.595
229	-0.598
229	-0.596
229	-0.595
230	-0.591
230	-0.587
231	-0.585
231	-0.58
232	-0.583
232	-0.576
233	-0.577
233	-0.565
234	-0.566
234	-0.563
235	-0.567
235	-0.577
236	-0.584
236	-0.586
236	-0.587
237	-0.584
237	-0.585
238	-0.586
238	-0.586
239	-0.587
239	-0.596
240	-0.589
240	-0.587
241	-0.581
241	-0.584
242	-0.586
242	-0.595
243	-0.596
243	-0.598
243	-0.603
244	-0.6
244	-0.599
245	-0.603
245	-0.607
246	-0.616
246	-0.619
247	-0.626
247	-0.613
248	-0.612
248	-0.613
249	-0.62
249	-0.622
250	-0.621
250	-0.63
250	-0.628
251	-0.628
251	-0.624
252	-0.628
252	-0.639
253	-0.634
253	-0.646
254	-0.65
254	-0.652
255	-0.662
255	-0.661
256	-0.661
256	-0.674
257	-0.683
257	-0.678
258	-0.679
258	-0.688
258	-0.686
259	-0.679
259	-0.696
260	-0.696
260	-0.682
261	-0.693
261	-0.679
262	-0.685
262	-0.683
263	-0.674
263	-0.678
264	-0.687
264	-0.689
265	-0.679
265	-0.681
265	-0.693
266	-0.684
266	-0.683
267	-0.682
267	-0.699
268	-0.707
268	-0.701
269	-0.693
269	-0.708
270	-0.712
270	-0.711
271	-0.724
271	-0.735
272	-0.739
272	-0.742
272	-0.734
273	-0.743
273	-0.759
274	-0.751
274	-0.746
275	-0.744
275	-0.732
276	-0.736
276	-0.741
277	-0.741
277	-0.74
278	-0.743
278	-0.741
278	-0.729
279	-0.739
279	-0.749
280	-0.75
280	-0.761
281	-0.754
281	-0.747
282	-0.754
282	-0.747
283	-0.741
283	-0.759
284	-0.773
284	-0.781
285	-0.76
285	-0.766
285	-0.757
286	-0.762
286	-0.777
287	-0.773
287	-0.771
288	-0.77
288	-0.75
289	-0.75
289	-0.759
290	-0.77
290	-0.759
291	-0.762
291	-0.76
292	-0.741
292	-0.74
292	-0.744
293	-0.732
293	-0.728
294	-0.727
294	-0.711
295	-0.694
295	-0.706
296	-0.719
296	-0.711
297	-0.7
297	-0.702
298	-0.698
298	-0.715
298	-0.719
299	-0.7
299	-0.694
300	-0.691
300	-0.674
301	-0.656
301	-0.659
302	-0.671
302	-0.657
303	-0.652
303	-0.641
304	-0.624
304	-0.627
305	-0.619
305	-0.628
305	-0.642
306	-0.626
306	-0.625
307	-0.617
307	-0.629
308	-0.63
308	-0.625
309	-0.629
309	-0.623
310	-0.622
310	-0.617
311	-0.603
311	-0.621
311	-0.608
312	-0.605
312	-0.591
313	-0.581
313	-0.582
314	-0.584
314	-0.584
315	-0.582
315	-0.576
316	-0.57
316	-0.561
317	-0.554
317	-0.552
318	-0.547
318	-0.546
318	-0.538
319	-0.53
319	-0.521
320	-0.52
320	-0.518
321	-0.514
321	-0.513
322	-0.509
322	-0.502
323	-0.503
323	-0.494
324	-0.49
324	-0.48
324	-0.469
325	-0.452
325	-0.434
326	-0.424
326	-0.401
327	-0.385
327	-0.364
328	-0.333
328	-0.311
329	-0.286
329	-0.257
330	-0.231
330	-0.197
330	-0.165
331	-0.131
331	-0.099
332	-0.068
332	-0.036
333	-0.008
333	0.023
334	0.051
334	0.075
335	0.1
335	0.119
336	0.14
336	0.158
336	0.174
337	0.19
337	0.204
338	0.216
338	0.226
339	0.238
339	0.247
340	0.254
340	0.262
341	0.268
341	0.273
342	0.279
342	0.284
342	0.288
343	0.291
343	0.296
344	0.298
344	0.3
345	0.303
345	0.305
346	0.307
346	0.308
347	0.31
347	0.311
348	0.312
348	0.313
348	0.313
349	0.314
349	0.315
350	0.316
350	0.316
351	0.317
351	0.317
352	0.317
352	0.317
353	0.317
353	0.318
354	0.318
354	0.318
354	0.317
355	0.317
355	0.317
356	0.317
356	0.317
357	0.317
357	0.317
358	0.317
358	0.317
359	0.317
359	0.317
360	0.317
360	0.317
360	0.317
361	0.317
361	0.316
362	0.316
362	0.316
363	0.316
363	0.316
364	0.316
364	0.316
365	0.316
365	0.316
366	0.316
366	0.316
366	0.316
367	0.316
367	0.315
368	0.315
368	0.315
369	0.315
369	0.315
370	0.314
370	0.314
371	0.314
371	0.314
372	0.313
372	0.313
372	0.313
373	0.313
373	0.313
374	0.312
374	0.312
375	0.312
375	0.311
376	0.311
376	0.311
377	0.311
377	0.31
378	0.31
378	0.31
378	0.309
379	0.309
379	0.309
380	0.309
380	0.309
381	0.309
381	0.308
382	0.308
382	0.308
383	0.307
383	0.307
383	0.307
384	0.306
384	0.306
385	0.306
385	0.305
386	0.305
386	0.305
387	0.305
387	0.304
388	0.304
388	0.304
389	0.304
389	0.303
389	0.303
390	0.303
390	0.303
391	0.303
391	0.303
392	0.303
392	0.302
393	0.302
393	0.302
394	0.302
394	0.301
394	0.301
395	0.301
395	0.3
396	0.3
396	0.299
397	0.299
397	0.299
398	0.298
398	0.298
399	0.298
399	0.297
400	0.297
400	0.297
400	0.297
401	0.297
401	0.296
402	0.296
402	0.296
403	0.296
403	0.295
404	0.295
404	0.295
405	0.294
405	0.294
405	0.293
406	0.293
406	0.293
407	0.293
407	0.293
408	0.292
408	0.292
409	0.292
409	0.292
410	0.292
410	0.292
411	0.291
411	0.291
411	0.291
412	0.291
412	0.29
413	0.29
413	0.29
414	0.29
414	0.289
415	0.289
415	0.289
416	0.289
416	0.288
416	0.288
417	0.288
417	0.288
418	0.288
418	0.288
419	0.288
419	0.288
420	0.288
420	0.288
421	0.288
421	0.288
421	0.288
422	0.287
422	0.288
423	0.287
423	0.287
424	0.286
424	0.286
425	0.286
425	0.286
426	0.286
426	0.286
427	0.286
427	0.286
427	0.286
428	0.286
428	0.286
429	0.285
429	0.285
430	0.284
430	0.284
431	0.284
431	0.284
432	0.283
432	0.283
432	0.283
433	0.283
433	0.283
434	0.283
434	0.284
435	0.284
435	0.284
436	0.284
436	0.284
437	0.284
437	0.284
437	0.284
438	0.284
438	0.284
439	0.283
439	0.283
440	0.283
440	0.282
441	0.283
441	0.282
442	0.282
442	0.282
442	0.282
443	0.282
443	0.282
444	0.282
444	0.282
445	0.283
445	0.283
446	0.282
446	0.283
447	0.283
447	0.283
447	0.283
448	0.283
448	0.283
449	0.283
449	0.283
450	0.283
450	0.283
451	0.283
451	0.283
452	0.283
452	0.283
452	0.283
453	0.283
453	0.283
454	0.283
454	0.283
455	0.283
455	0.283
456	0.283
456	0.283
457	0.284
457	0.284
458	0.284
458	0.284
458	0.284
459	0.284
459	0.284
460	0.284
460	0.284
461	0.284
461	0.284
462	0.285
462	0.285
463	0.286
463	0.286
463	0.286
464	0.287
464	0.287
465	0.288
465	0.288
466	0.288
466	0.289
467	0.289
467	0.289
467	0.289
468	0.289
468	0.29
469	0.29
469	0.291
470	0.292
470	0.292
471	0.293
471	0.293
472	0.293
472	0.294
472	0.294
473	0.295
473	0.296
474	0.296
474	0.297
475	0.297
475	0.298
476	0.298
476	0.299
477	0.3
477	0.301
477	0.301
478	0.302
478	0.303
479	0.304
479	0.305
480	0.305
480	0.306
481	0.307
481	0.308
482	0.309
482	0.31
482	0.311
483	0.313
483	0.314
484	0.315
484	0.316
485	0.317
485	0.318
486	0.319
486	0.32
487	0.321
487	0.322
487	0.324
488	0.324
488	0.325
489	0.327
489	0.329
490	0.331
490	0.332
491	0.334
491	0.336
492	0.337
492	0.339
492	0.34
493	0.342
493	0.344
494	0.346
494	0.348
495	0.349
495	0.351
496	0.353
496	0.355
496	0.357
497	0.36
497	0.361
498	0.363
498	0.366
499	0.368
499	0.37
500	0.373
500	0.376
501	0.378
501	0.381
501	0.382
502	0.385
502	0.387
503	0.389
503	0.391
504	0.394
504	0.396
505	0.398
505	0.4
506	0.403
506	0.406
506	0.408
507	0.411
507	0.414
508	0.416
508	0.419
509	0.422
509	0.424
510	0.427
510	0.429
511	0.432
511	0.434
511	0.436
512	0.439
512	0.441
513	0.443
513	0.445
514	0.448
514	0.45
515	0.452
515	0.455
515	0.456
516	0.459
516	0.461
517	0.463
517	0.464
518	0.466
518	0.468
519	0.469
519	0.47
520	0.472
520	0.473
520	0.475
521	0.476
521	0.478
522	0.479
522	0.48
523	0.481
523	0.482
524	0.483
524	0.484
524	0.484
525	0.485
525	0.486
526	0.486
526	0.487
527	0.487
527	0.488
528	0.487
528	0.487
529	0.487
529	0.487
529	0.486
530	0.486
530	0.486
531	0.485
531	0.485
532	0.484
532	0.483
533	0.482
533	0.481
533	0.48
534	0.479
534	0.478
535	0.477
535	0.476
536	0.475
536	0.473
537	0.472
537	0.471
538	0.469
538	0.467
538	0.466
539	0.465
539	0.463
540	0.461
540	0.458
541	0.456
541	0.454
542	0.452
542	0.449
542	0.447
543	0.444
543	0.442
544	0.439
544	0.437
545	0.435
545	0.433
546	0.43
546	0.427
547	0.424
547	0.421
547	0.419
548	0.416
548	0.414
549	0.411
549	0.408
550	0.405
550	0.402
551	0.399
551	0.395
551	0.393
552	0.39
552	0.387
553	0.384
553	0.381
554	0.378
554	0.375
555	0.372
555	0.369
556	0.366
556	0.364
556	0.361
557	0.358
557	0.356
558	0.353
558	0.351
559	0.348
559	0.345
560	0.342
560	0.34
560	0.337
561	0.335
561	0.333
562	0.331
562	0.328
563	0.326
563	0.324
564	0.321
564	0.32
564	0.318
565	0.316
565	0.314
566	0.312
566	0.309
567	0.308
567	0.305
568	0.303
568	0.301
568	0.298
569	0.296
569	0.293
570	0.29
570	0.287
571	0.285
571	0.283
572	0.28
572	0.278
573	0.276
573	0.273
573	0.271
574	0.27
574	0.268
575	0.267
575	0.266
576	0.265
576	0.262
577	0.26
577	0.259
577	0.258
578	0.257
578	0.256
579	0.256
579	0.255
580	0.252
580	0.25
581	0.247
581	0.246
581	0.245
582	0.245
582	0.244
583	0.243
583	0.241
584	0.238
584	0.235
585	0.234
585	0.233
585	0.231
586	0.23
586	0.228
587	0.226
587	0.224
588	0.222
588	0.221
589	0.22
589	0.22
590	0.219
590	0.218
590	0.218
591	0.218
591	0.217
592	0.216
592	0.215
593	0.214
593	0.213
594	0.212
594	0.211
594	0.21
595	0.209
595	0.207
596	0.206
596	0.207
597	0.207
597	0.207
598	0.206
598	0.205
598	0.205
599	0.204
599	0.203
600	0.202
600	0.202
601	0.201
601	0.2
602	0.199
602	0.198
602	0.197
603	0.196
603	0.196
604	0.196
604	0.195
605	0.195
605	0.195
606	0.194
606	0.192
606	0.192
607	0.191
607	0.19
608	0.19
608	0.188
609	0.187
609	0.187
610	0.186
610	0.185
610	0.185
611	0.185
611	0.185
612	0.185
612	0.185
613	0.185
613	0.185
614	0.183
614	0.182
614	0.182
615	0.181
615	0.18
616	0.18
616	0.179
617	0.179
617	0.178
618	0.177
618	0.176
618	0.175
619	0.174
619	0.174
620	0.174
620	0.173
621	0.172
621	0.172
622	0.171
622	0.17
622	0.169
623	0.168
623	0.168
624	0.168
624	0.167
625	0.166
625	0.166
626	0.165
626	0.164
626	0.164
627	0.163
627	0.162
628	0.161
628	0.16
629	0.158
629	0.157
630	0.155
630	0.153
630	0.151
631	0.15
631	0.148
632	0.146
632	0.145
633	0.143
633	0.142
634	0.141
634	0.139
634	0.138
635	0.137
635	0.135
636	0.134
636	0.132
637	0.13
637	0.128
638	0.126
638	0.124
638	0.122
639	0.119
639	0.117
640	0.114
640	0.112
641	0.109
641	0.106
642	0.104
642	0.101
642	0.098
643	0.095
643	0.091
644	0.087
644	0.084
645	0.08
645	0.076
646	0.072
646	0.066
646	0.061
647	0.055
647	0.05
648	0.045
648	0.039
649	0.033
649	0.028
650	0.022
650	0.016
650	0.01
651	0.002
651	-0.008
652	-0.018
652	-0.03
653	-0.04
653	-0.049
653	-0.045
654	-0.03
654	-0.028
655	-0.033
655	-0.037
656	-0.043
656	-0.049
657	-0.053
657	-0.058
657	-0.065
658	-0.071
658	-0.099
659	-0.174
659	-0.252
660	-0.289
660	-0.314
661	-0.34
661	-0.367
661	-0.397
662	-0.424
662	-0.453
663	-0.487
663	-0.524
664	-0.561
664	-0.601
665	-0.647
665	-0.694
665	-0.739
666	-0.79
666	-0.845
667	-0.9
667	-0.962
668	-1.022
668	-1.092
669	-1.16
669	-1.233
669	-1.311
670	-1.393
670	-1.505
671	-1.677
671	-2.026
672	-2.288
672	-2.458
672	-2.582
673	-2.681
673	-2.763
674	-2.818
674	-2.833
675	-2.849
675	-2.853
676	-2.85
676	-2.805
676	-2.734
677	-2.646
677	-2.538
678	-2.376
678	-2.098
679	-1.728
679	-1.563
680	-1.459
680	-1.381
680	-1.313
681	-1.264
681	-1.21
682	-1.167
682	-1.123
683	-1.079
683	-1.055
684	-1.026
684	-1.006
684	-0.98
685	-0.959
685	-0.948
686	-0.924
686	-0.909
687	-0.899
687	-0.885
687	-0.884
688	-0.868
688	-0.859
689	-0.861
689	-0.858
690	-0.844
690	-0.835
691	-0.831
691	-0.833
691	-0.833
692	-0.833
692	-0.828
693	-0.834
693	-0.843
694	-0.822
694	-0.823
695	-0.824
695	-0.815
695	-0.823
696	-0.831
696	-0.822
697	-0.815
697	-0.811
698	-0.807
698	-0.801
698	-0.817
699	-0.814
699	-0.816
700	-0.837
700	-0.83
701	-0.816
701	-0.811
702	-0.811
702	-0.812
702	-0.81
703	-0.8
703	-0.787
704	-0.794
704	-0.795
705	-0.783
705	-0.782
705	-0.776
706	-0.771
706	-0.766
707	-0.777
707	-0.78
708	-0.778
708	-0.775
709	-0.777
709	-0.775
709	-0.77
710	-0.779
710	-0.783
711	-0.781
711	-0.782
712	-0.773
712	-0.77
713	-0.775
713	-0.778
713	-0.757
714	-0.758
714	-0.763
715	-0.753
715	-0.76
716	-0.775
716	-0.786
716	-0.786
717	-0.792
717	-0.783
718	-0.776
718	-0.775
719	-0.773
719	-0.765
720	-0.761
720	-0.757
720	-0.751
721	-0.741
721	-0.745
722	-0.742
722	-0.739
723	-0.757
723	-0.772
723	-0.78
724	-0.777
724	-0.782
725	-0.777
725	-0.78
726	-0.785
726	-0.776
727	-0.779
727	-0.785
727	-0.775
728	-0.762
728	-0.758
729	-0.761
729	-0.762
730	-0.768
730	-0.757
730	-0.762
731	-0.764
731	-0.763
732	-0.766
732	-0.761
733	-0.774
733	-0.78
734	-0.788
734	-0.779
734	-0.761
735	-0.754
735	-0.75
736	-0.75
736	-0.746
737	-0.745
737	-0.734
737	-0.728
738	-0.714
738	-0.703
739	-0.706
739	-0.706
740	-0.719
740	-0.718
741	-0.728
741	-0.738
741	-0.748
742	-0.756
742	-0.77
743	-0.777
743	-0.78
744	-0.785
744	-0.792
744	-0.785
745	-0.793
745	-0.782
746	-0.778
746	-0.768
747	-0.771
747	-0.761
748	-0.762
748	-0.767
748	-0.766
749	-0.759
749	-0.766
750	-0.756
750	-0.758
751	-0.757
751	-0.754
751	-0.766
752	-0.768
752	-0.772
753	-0.772
753	-0.765
754	-0.785
754	-0.784
754	-0.793
755	-0.791
755	-0.785
756	-0.789
756	-0.773
757	-0.767
757	-0.756
758	-0.758
758	-0.759
758	-0.753
759	-0.758
759	-0.758
760	-0.757
760	-0.759
761	-0.75
761	-0.756
761	-0.754
762	-0.759
762	-0.757
763	-0.758
763	-0.763
764	-0.762
764	-0.757
764	-0.764
765	-0.764
765	-0.772
766	-0.776
766	-0.777
767	-0.792
767	-0.787
768	-0.784
768	-0.774
768	-0.769
769	-0.773
769	-0.78
770	-0.788
770	-0.792
771	-0.788
771	-0.789
771	-0.795
772	-0.8
772	-0.823
773	-0.824
773	-0.824
774	-0.82
774	-0.802
775	-0.789
775	-0.789
775	-0.793
776	-0.802
776	-0.801
777	-0.8
777	-0.781
778	-0.789
778	-0.798
778	-0.798
779	-0.807
779	-0.825
780	-0.82
780	-0.828
781	-0.818
781	-0.806
781	-0.822
782	-0.844
782	-0.847
783	-0.848
783	-0.858
784	-0.861
784	-0.853
784	-0.872
785	-0.865
785	-0.879
786	-0.882
786	-0.874
787	-0.862
787	-0.868
788	-0.859
788	-0.854
788	-0.855
789	-0.855
789	-0.845
790	-0.843
790	-0.827
791	-0.835
791	-0.829
791	-0.824
792	-0.818
792	-0.824
793	-0.825
793	-0.813
794	-0.805
794	-0.799
794	-0.807
795	-0.825
795	-0.81
796	-0.817
796	-0.814
797	-0.808
797	-0.797
797	-0.788
798	-0.81
798	-0.815
799	-0.814
799	-0.799
800	-0.796
800	-0.803
801	-0.8
801	-0.803
801	-0.8
802	-0.803
802	-0.804
803	-0.796
803	-0.789
804	-0.794
804	-0.804
804	-0.787
805	-0.77
805	-0.762
806	-0.763
806	-0.759
807	-0.758
807	-0.758
807	-0.74
808	-0.735
808	-0.728
809	-0.719
809	-0.721
810	-0.722
810	-0.719
810	-0.714
811	-0.716
811	-0.708
812	-0.701
812	-0.704
813	-0.707
813	-0.71
813	-0.708
814	-0.709
814	-0.715
815	-0.706
815	-0.702
816	-0.699
816	-0.713
817	-0.726
817	-0.731
817	-0.741
818	-0.734
818	-0.731
819	-0.742
819	-0.741
820	-0.751
820	-0.753
820	-0.752
821	-0.747
821	-0.743
822	-0.742
822	-0.731
823	-0.741
823	-0.742
823	-0.737
824	-0.736
824	-0.747
825	-0.744
825	-0.741
826	-0.739
826	-0.735
826	-0.735
827	-0.735
827	-0.726
828	-0.725
828	-0.717
829	-0.71
829	-0.695
829	-0.691
830	-0.689
830	-0.673
831	-0.667
831	-0.654
832	-0.646
832	-0.64
832	-0.631
833	-0.632
833	-0.638
834	-0.634
834	-0.63
835	-0.624
835	-0.623
835	-0.62
836	-0.618
836	-0.613
837	-0.605
837	-0.597
838	-0.585
838	-0.568
839	-0.563
839	-0.551
839	-0.541
840	-0.541
840	-0.529
841	-0.518
841	-0.511
842	-0.503
842	-0.491
842	-0.488
843	-0.485
843	-0.48
844	-0.477
844	-0.467
845	-0.452
845	-0.444
845	-0.433
846	-0.422
846	-0.411
847	-0.401
847	-0.389
848	-0.375
848	-0.36
848	-0.346
849	-0.335
849	-0.323
850	-0.314
850	-0.305
851	-0.293
851	-0.278
851	-0.27
852	-0.254
852	-0.241
853	-0.232
853	-0.223
854	-0.213
854	-0.203
854	-0.191
855	-0.181
855	-0.173
856	-0.167
856	-0.158
857	-0.152
857	-0.144
857	-0.133
858	-0.124
858	-0.118
859	-0.108
859	-0.097
860	-0.088
860	-0.075
860	-0.066
861	-0.056
861	-0.048
862	-0.04
862	-0.033
863	-0.026
863	-0.017
863	-0.013
864	-0.008
864	-0.002
865	0.003
865	0.008
866	0.012
866	0.017
866	0.021
867	0.025
867	0.031
868	0.034
868	0.038
869	0.042
869	0.045
869	0.047
870	0.049
870	0.052
871	0.053
871	0.054
872	0.055
872	0.055
872	0.056
873	0.056
873	0.056
874	0.056
874	0.055
875	0.055
875	0.054
875	0.054
876	0.054
876	0.054
877	0.053
877	0.053
878	0.052
878	0.051
878	0.051
879	0.05
879	0.049
880	0.049
880	0.048
881	0.046
881	0.046
881	0.045
882	0.044
882	0.043
883	0.043
883	0.042
884	0.042
884	0.042
884	0.043
885	0.043
885	0.043
886	0.043
886	0.043
887	0.042
887	0.042
887	0.041
888	0.04
888	0.04
889	0.039
889	0.038
890	0.037
890	0.037
890	0.036
891	0.036
891	0.035
892	0.035
892	0.035
893	0.035
893	0.035
893	0.035
894	0.035
894	0.035
895	0.035
895	0.035
895	0.035
896	0.036
896	0.036
897	0.036
897	0.037
898	0.037
898	0.037
898	0.038
899	0.038
899	0.038
900	0.038
900	0.038
901	0.038
901	0.038
901	0.038
902	0.039
902	0.039
903	0.039
903	0.039
904	0.038
904	0.038
904	0.038
905	0.038
905	0.037
906	0.038
906	0.038
907	0.038
907	0.038
907	0.038
908	0.039
908	0.039
909	0.04
909	0.04
910	0.041
910	0.041
910	0.042
911	0.043
911	0.044
912	0.045
912	0.047
913	0.048
913	0.049
913	0.05
914	0.051
914	0.051
915	0.051
915	0.051
916	0.051
916	0.05
916	0.049
917	0.049
917	0.048
918	0.047
918	0.047
918	0.047
919	0.046
919	0.046
920	0.046
920	0.046
921	0.045
921	0.045
921	0.045
922	0.045
922	0.044
923	0.044
923	0.044
924	0.043
924	0.043
924	0.043
925	0.042
925	0.042
926	0.042
926	0.042
927	0.042
927	0.042
927	0.042
928	0.042
928	0.042
929	0.043
929	0.043
930	0.044
930	0.044
930	0.045
931	0.045
931	0.046
932	0.046
932	0.046
933	0.047
933	0.047
933	0.046
934	0.046
934	0.045
935	0.044
935	0.042
935	0.041
936	0.04
936	0.038
937	0.037
937	0.035
938	0.035
938	0.033
938	0.033
939	0.032
939	0.032
940	0.032
940	0.032
941	0.031
941	0.031
941	0.031
942	0.031
942	0.031
943	0.031
943	0.031
944	0.031
944	0.03
944	0.03
945	0.03
945	0.03
946	0.03
946	0.03
946	0.03
947	0.03
947	0.029
948	0.029
948	0.029
949	0.029
949	0.029
949	0.03
950	0.03
950	0.03
951	0.031
951	0.031
952	0.031
952	0.032
952	0.032
953	0.033
953	0.033
954	0.033
954	0.033
955	0.033
955	0.033
955	0.033
956	0.032
956	0.032
957	0.031
957	0.03
957	0.03
958	0.029
958	0.029
959	0.029
959	0.029
960	0.029
960	0.028
960	0.029
961	0.029
961	0.029
962	0.03
962	0.03
963	0.03
963	0.03
963	0.03
964	0.03
964	0.03
965	0.03
965	0.03
966	0.03
966	0.03
966	0.031
967	0.031
967	0.03
968	0.03
968	0.03
968	0.03
969	0.029
969	0.029
970	0.028
970	0.027
971	0.027
971	0.026
971	0.026
972	0.026
972	0.026
973	0.026
973	0.026
974	0.026
974	0.027
974	0.028
975	0.028
975	0.029
976	0.029
976	0.03
976	0.031
977	0.031
977	0.031
978	0.031
978	0.031
979	0.03
979	0.03
979	0.029
980	0.029
980	0.029
981	0.028
981	0.028
982	0.028
982	0.028
982	0.028
983	0.028
983	0.028
984	0.028
984	0.028
984	0.028
985	0.028
985	0.027
986	0.027
986	0.026
987	0.025
987	0.024
987	0.024
988	0.023
988	0.022
989	0.021
989	0.02
990	0.02
990	0.019
990	0.018
991	0.018
991	0.018
992	0.018
992	0.019
992	0.019
993	0.019
993	0.019
994	0.018
994	0.018
995	0.018
995	0.018
995	0.018
996	0.018
996	0.017
997	0.016
997	0.016
997	0.016
998	0.016
998	0.017
999	0.017
999	0.017
1000	0.017
1000	0.017
1000	0.017
1001	0.018
1001	0.018
1002	0.018
1002	0.018
1003	0.018
1003	0.018
1003	0.017
1004	0.017
1004	0.016
1005	0.015
1005	0.015
1005	0.014
1006	0.014
1006	0.013
1007	0.013
1007	0.012
1008	0.012
1008	0.012
1008	0.012
1009	0.012
1009	0.013
1010	0.013
1010	0.013
1010	0.014
1011	0.014
1011	0.014
1012	0.015
1012	0.015
1013	0.016
1013	0.015
1013	0.016
1014	0.016
1014	0.016
1015	0.016
1015	0.016
1016	0.016
1016	0.016
1016	0.016
1017	0.016
1017	0.016
1018	0.017
1018	0.016
1018	0.016
1019	0.016
1019	0.016
1020	0.016
1020	0.015
1021	0.015
1021	0.014
1021	0.014
1022	0.013
1022	0.012
1023	0.012
1023	0.012
1023	0.011
1024	0.011
1024	0.011
1025	0.01
1025	0.01
1026	0.01
1026	0.01
1026	0.01
1027	0.01
1027	0.009
1028	0.01
1028	0.01
1028	0.01
1029	0.01
1029	0.01
1030	0.01
1030	0.009
1031	0.009
1031	0.009
1031	0.009
1032	0.008
1032	0.008
1033	0.007
1033	0.007
1033	0.007
1034	0.006
1034	0.006
1035	0.006
1035	0.006
1036	0.005
1036	0.005
1036	0.005
1037	0.005
1037	0.006
1038	0.006
1038	0.007
1039	0.007
1039	0.008
1039	0.009
1040	0.009
1040	0.01
1041	0.01
1041	0.01
1041	0.01
1042	0.01
1042	0.009
1043	0.009
1043	0.008
1044	0.008
1044	0.007
1044	0.006
1045	0.004
1045	0.004
1046	0.003
1046	0.002
1046	0.002
1047	0.001
1047	0.001
1048	0.001
1048	0
1049	0
1049	-0
1049	-0
1050	-0.001
1050	-0.001
1051	-0.002
1051	-0.003
1051	-0.003
1052	-0.004
1052	-0.005
1053	-0.005
1053	-0.006
1053	-0.006
1054	-0.006
1054	-0.007
1055	-0.006
1055	-0.006
1056	-0.006
1056	-0.006
1056	-0.006
1057	-0.007
1057	-0.007
1058	-0.007
1058	-0.008
1058	-0.008
1059	-0.008
1059	-0.008
1060	-0.008
1060	-0.008
1061	-0.008
1061	-0.008
1061	-0.007
1062	-0.008
1062	-0.008
1063	-0.007
1063	-0.008
1063	-0.008
1064	-0.008
1064	-0.008
1065	-0.008
1065	-0.008
1066	-0.009
1066	-0.009
1066	-0.009
1067	-0.01
1067	-0.01
1068	-0.01
1068	-0.011
1068	-0.011
1069	-0.012
1069	-0.013
1070	-0.013
1070	-0.014
1071	-0.014
1071	-0.014
1071	-0.015
1072	-0.015
1072	-0.014
1073	-0.014
1073	-0.014
1073	-0.014
1074	-0.014
1074	-0.014
1075	-0.014
1075	-0.014
1076	-0.015
1076	-0.015
1076	-0.016
1077	-0.017
1077	-0.018
1078	-0.019
1078	-0.02
1078	-0.021
1079	-0.022
1079	-0.022
1080	-0.023
1080	-0.024
1080	-0.025
1081	-0.026
1081	-0.026
1082	-0.027
1082	-0.028
1083	-0.028
1083	-0.029
1083	-0.03
1084	-0.03
1084	-0.031
1085	-0.032
1085	-0.033
1085	-0.033
1086	-0.033
1086	-0.034
1087	-0.035
1087	-0.035
1088	-0.036
1088	-0.036
1088	-0.037
1089	-0.038
1089	-0.039
1090	-0.04
1090	-0.041
1090	-0.042
1091	-0.044
1091	-0.044
1092	-0.045
1092	-0.045
1092	-0.046
1093	-0.047
1093	-0.047
1094	-0.047
1094	-0.048
1095	-0.049
1095	-0.05
1095	-0.05
1096	-0.052
1096	-0.053
1097	-0.054
1097	-0.055
1097	-0.057
1098	-0.059
1098	-0.061
1099	-0.062
1099	-0.063
1100	-0.065
1100	-0.067
1100	-0.07
1101	-0.072
1101	-0.075
1102	-0.076
1102	-0.078
1102	-0.079
1103	-0.081
1103	-0.084
1104	-0.087
1104	-0.09
1104	-0.092
1105	-0.093
1105	-0.095
1106	-0.101
1106	-0.103
1107	-0.109
1107	-0.113
1107	-0.117
1108	-0.119
1108	-0.121
1109	-0.124
1109	-0.128
1109	-0.132
1110	-0.135
1110	-0.137
1111	-0.147
1111	-0.141
