Data from 3.5A_17C_Absorbance__679__00681.txt Node

Date: Tue Jun 20 15:21:03 CEST 2023
User: Marek
Spectrometer: MAYP115816
Trigger mode: 0
Integration Time (sec): 2.200000E-1
Scans to average: 10
Electric dark correction enabled: true
Nonlinearity correction enabled: true
Boxcar width: 5
XAxis mode: Wavelengths
Number of Pixels in Spectrum: 2068
>>>>>Begin Spectral Data<<<<<
199	-0.701
199	-0.681
200	-0.645
200	-0.587
201	-0.558
201	-0.55
202	-0.531
202	-0.525
203	-0.525
203	-0.521
204	-0.502
204	-0.487
205	-0.466
205	-0.456
205	-0.467
206	-0.468
206	-0.464
207	-0.457
207	-0.463
208	-0.463
208	-0.465
209	-0.465
209	-0.472
210	-0.484
210	-0.491
211	-0.484
211	-0.487
212	-0.496
212	-0.506
213	-0.501
213	-0.498
213	-0.497
214	-0.505
214	-0.507
215	-0.503
215	-0.508
216	-0.517
216	-0.523
217	-0.52
217	-0.52
218	-0.528
218	-0.531
219	-0.538
219	-0.538
220	-0.541
220	-0.546
221	-0.548
221	-0.549
221	-0.541
222	-0.541
222	-0.538
223	-0.533
223	-0.536
224	-0.536
224	-0.533
225	-0.532
225	-0.534
226	-0.534
226	-0.533
227	-0.541
227	-0.552
228	-0.557
228	-0.567
229	-0.572
229	-0.572
229	-0.573
230	-0.567
230	-0.565
231	-0.562
231	-0.557
232	-0.559
232	-0.553
233	-0.553
233	-0.543
234	-0.541
234	-0.534
235	-0.539
235	-0.551
236	-0.558
236	-0.558
236	-0.558
237	-0.554
237	-0.554
238	-0.554
238	-0.553
239	-0.555
239	-0.564
240	-0.557
240	-0.551
241	-0.545
241	-0.548
242	-0.553
242	-0.562
243	-0.564
243	-0.565
243	-0.57
244	-0.565
244	-0.567
245	-0.57
245	-0.576
246	-0.588
246	-0.59
247	-0.599
247	-0.585
248	-0.584
248	-0.586
249	-0.591
249	-0.594
250	-0.593
250	-0.599
250	-0.597
251	-0.595
251	-0.592
252	-0.593
252	-0.604
253	-0.599
253	-0.61
254	-0.615
254	-0.617
255	-0.628
255	-0.627
256	-0.631
256	-0.644
257	-0.652
257	-0.649
258	-0.651
258	-0.659
258	-0.657
259	-0.651
259	-0.668
260	-0.666
260	-0.655
261	-0.666
261	-0.651
262	-0.657
262	-0.655
263	-0.646
263	-0.65
264	-0.659
264	-0.66
265	-0.65
265	-0.653
265	-0.663
266	-0.654
266	-0.654
267	-0.654
267	-0.669
268	-0.678
268	-0.672
269	-0.666
269	-0.681
270	-0.685
270	-0.682
271	-0.695
271	-0.703
272	-0.706
272	-0.707
272	-0.701
273	-0.708
273	-0.72
274	-0.712
274	-0.704
275	-0.701
275	-0.69
276	-0.692
276	-0.697
277	-0.698
277	-0.695
278	-0.699
278	-0.698
278	-0.689
279	-0.695
279	-0.707
280	-0.71
280	-0.721
281	-0.714
281	-0.707
282	-0.712
282	-0.708
283	-0.701
283	-0.716
284	-0.729
284	-0.741
285	-0.721
285	-0.728
285	-0.719
286	-0.726
286	-0.741
287	-0.738
287	-0.738
288	-0.737
288	-0.719
289	-0.718
289	-0.727
290	-0.739
290	-0.728
291	-0.733
291	-0.73
292	-0.712
292	-0.709
292	-0.709
293	-0.697
293	-0.694
294	-0.696
294	-0.682
295	-0.664
295	-0.674
296	-0.685
296	-0.679
297	-0.668
297	-0.672
298	-0.67
298	-0.686
298	-0.689
299	-0.67
299	-0.66
300	-0.656
300	-0.638
301	-0.617
301	-0.62
302	-0.631
302	-0.617
303	-0.612
303	-0.601
304	-0.585
304	-0.586
305	-0.581
305	-0.59
305	-0.605
306	-0.593
306	-0.592
307	-0.584
307	-0.593
308	-0.593
308	-0.59
309	-0.592
309	-0.588
310	-0.586
310	-0.579
311	-0.566
311	-0.583
311	-0.57
312	-0.566
312	-0.556
313	-0.551
313	-0.552
314	-0.558
314	-0.555
315	-0.552
315	-0.547
316	-0.541
316	-0.531
317	-0.523
317	-0.523
318	-0.514
318	-0.511
318	-0.499
319	-0.487
319	-0.481
320	-0.48
320	-0.476
321	-0.471
321	-0.47
322	-0.464
322	-0.454
323	-0.455
323	-0.444
324	-0.442
324	-0.434
324	-0.423
325	-0.408
325	-0.392
326	-0.385
326	-0.36
327	-0.347
327	-0.326
328	-0.297
328	-0.274
329	-0.249
329	-0.219
330	-0.192
330	-0.157
330	-0.122
331	-0.085
331	-0.055
332	-0.021
332	0.009
333	0.039
333	0.069
334	0.096
334	0.119
335	0.144
335	0.164
336	0.184
336	0.203
336	0.22
337	0.235
337	0.25
338	0.262
338	0.271
339	0.284
339	0.294
340	0.301
340	0.309
341	0.315
341	0.32
342	0.326
342	0.331
342	0.335
343	0.338
343	0.343
344	0.345
344	0.348
345	0.35
345	0.352
346	0.354
346	0.356
347	0.357
347	0.358
348	0.359
348	0.361
348	0.361
349	0.362
349	0.363
350	0.364
350	0.364
351	0.364
351	0.365
352	0.365
352	0.365
353	0.365
353	0.365
354	0.365
354	0.365
354	0.365
355	0.365
355	0.365
356	0.365
356	0.365
357	0.366
357	0.366
358	0.365
358	0.365
359	0.365
359	0.365
360	0.365
360	0.365
360	0.365
361	0.365
361	0.364
362	0.364
362	0.364
363	0.364
363	0.364
364	0.364
364	0.363
365	0.363
365	0.363
366	0.363
366	0.363
366	0.362
367	0.362
367	0.362
368	0.361
368	0.361
369	0.36
369	0.36
370	0.36
370	0.36
371	0.36
371	0.359
372	0.359
372	0.359
372	0.359
373	0.359
373	0.358
374	0.358
374	0.358
375	0.357
375	0.357
376	0.357
376	0.357
377	0.356
377	0.356
378	0.355
378	0.355
378	0.355
379	0.354
379	0.354
380	0.354
380	0.354
381	0.353
381	0.353
382	0.352
382	0.352
383	0.351
383	0.351
383	0.351
384	0.35
384	0.35
385	0.349
385	0.349
386	0.349
386	0.348
387	0.348
387	0.348
388	0.348
388	0.347
389	0.347
389	0.347
389	0.346
390	0.346
390	0.346
391	0.346
391	0.345
392	0.345
392	0.345
393	0.344
393	0.344
394	0.344
394	0.343
394	0.343
395	0.342
395	0.342
396	0.341
396	0.341
397	0.34
397	0.34
398	0.34
398	0.339
399	0.339
399	0.339
400	0.338
400	0.338
400	0.338
401	0.338
401	0.337
402	0.337
402	0.336
403	0.336
403	0.336
404	0.336
404	0.335
405	0.335
405	0.334
405	0.334
406	0.333
406	0.333
407	0.333
407	0.332
408	0.332
408	0.331
409	0.331
409	0.331
410	0.331
410	0.331
411	0.331
411	0.331
411	0.33
412	0.33
412	0.33
413	0.329
413	0.329
414	0.329
414	0.329
415	0.328
415	0.328
416	0.327
416	0.327
416	0.327
417	0.327
417	0.327
418	0.327
418	0.327
419	0.326
419	0.327
420	0.326
420	0.326
421	0.326
421	0.326
421	0.326
422	0.326
422	0.326
423	0.325
423	0.325
424	0.325
424	0.325
425	0.325
425	0.325
426	0.325
426	0.325
427	0.324
427	0.324
427	0.324
428	0.324
428	0.324
429	0.323
429	0.323
430	0.323
430	0.322
431	0.322
431	0.322
432	0.322
432	0.321
432	0.321
433	0.321
433	0.321
434	0.321
434	0.321
435	0.322
435	0.322
436	0.322
436	0.322
437	0.322
437	0.322
437	0.322
438	0.322
438	0.322
439	0.322
439	0.321
440	0.321
440	0.321
441	0.321
441	0.321
442	0.321
442	0.321
442	0.321
443	0.321
443	0.321
444	0.321
444	0.321
445	0.321
445	0.321
446	0.321
446	0.321
447	0.321
447	0.321
447	0.321
448	0.321
448	0.321
449	0.322
449	0.321
450	0.322
450	0.322
451	0.322
451	0.322
452	0.322
452	0.322
452	0.322
453	0.322
453	0.322
454	0.322
454	0.322
455	0.322
455	0.323
456	0.323
456	0.323
457	0.323
457	0.323
458	0.323
458	0.323
458	0.323
459	0.323
459	0.323
460	0.323
460	0.323
461	0.323
461	0.323
462	0.324
462	0.325
463	0.325
463	0.326
463	0.326
464	0.327
464	0.327
465	0.328
465	0.328
466	0.329
466	0.329
467	0.33
467	0.33
467	0.33
468	0.33
468	0.331
469	0.331
469	0.332
470	0.333
470	0.334
471	0.334
471	0.335
472	0.335
472	0.336
472	0.337
473	0.338
473	0.339
474	0.339
474	0.34
475	0.341
475	0.342
476	0.343
476	0.344
477	0.345
477	0.345
477	0.346
478	0.347
478	0.348
479	0.349
479	0.35
480	0.351
480	0.352
481	0.354
481	0.355
482	0.356
482	0.358
482	0.359
483	0.361
483	0.363
484	0.365
484	0.366
485	0.367
485	0.369
486	0.37
486	0.372
487	0.373
487	0.375
487	0.376
488	0.377
488	0.379
489	0.381
489	0.383
490	0.385
490	0.387
491	0.39
491	0.392
492	0.394
492	0.396
492	0.398
493	0.4
493	0.402
494	0.405
494	0.407
495	0.409
495	0.411
496	0.414
496	0.416
496	0.419
497	0.422
497	0.424
498	0.427
498	0.429
499	0.432
499	0.436
500	0.439
500	0.442
501	0.445
501	0.448
501	0.45
502	0.453
502	0.456
503	0.459
503	0.462
504	0.465
504	0.468
505	0.471
505	0.474
506	0.477
506	0.48
506	0.484
507	0.487
507	0.49
508	0.494
508	0.497
509	0.5
509	0.503
510	0.506
510	0.509
511	0.512
511	0.516
511	0.518
512	0.521
512	0.524
513	0.527
513	0.53
514	0.533
514	0.536
515	0.539
515	0.541
515	0.544
516	0.547
516	0.549
517	0.552
517	0.553
518	0.555
518	0.557
519	0.558
519	0.56
520	0.562
520	0.564
520	0.565
521	0.567
521	0.568
522	0.57
522	0.571
523	0.573
523	0.574
524	0.575
524	0.576
524	0.577
525	0.578
525	0.578
526	0.579
526	0.58
527	0.58
527	0.58
528	0.58
528	0.58
529	0.58
529	0.58
529	0.579
530	0.578
530	0.578
531	0.577
531	0.576
532	0.575
532	0.574
533	0.573
533	0.572
533	0.571
534	0.569
534	0.568
535	0.566
535	0.565
536	0.563
536	0.561
537	0.559
537	0.556
538	0.554
538	0.552
538	0.55
539	0.548
539	0.545
540	0.542
540	0.539
541	0.536
541	0.534
542	0.531
542	0.527
542	0.524
543	0.521
543	0.518
544	0.514
544	0.511
545	0.508
545	0.505
546	0.501
546	0.497
547	0.494
547	0.49
547	0.486
548	0.483
548	0.479
549	0.476
549	0.472
550	0.469
550	0.464
551	0.46
551	0.456
551	0.452
552	0.448
552	0.445
553	0.44
553	0.437
554	0.433
554	0.428
555	0.424
555	0.42
556	0.416
556	0.412
556	0.408
557	0.404
557	0.401
558	0.397
558	0.393
559	0.39
559	0.386
560	0.382
560	0.379
560	0.376
561	0.373
561	0.371
562	0.367
562	0.364
563	0.361
563	0.357
564	0.354
564	0.351
564	0.349
565	0.346
565	0.343
566	0.34
566	0.336
567	0.333
567	0.33
568	0.327
568	0.324
568	0.32
569	0.317
569	0.313
570	0.31
570	0.306
571	0.303
571	0.3
572	0.297
572	0.294
573	0.291
573	0.288
573	0.286
574	0.283
574	0.281
575	0.279
575	0.278
576	0.275
576	0.272
577	0.27
577	0.268
577	0.266
578	0.264
578	0.263
579	0.262
579	0.261
580	0.258
580	0.255
581	0.252
581	0.25
581	0.249
582	0.247
582	0.246
583	0.244
583	0.241
584	0.237
584	0.234
585	0.232
585	0.23
585	0.228
586	0.226
586	0.224
587	0.221
587	0.218
588	0.216
588	0.214
589	0.213
589	0.211
590	0.21
590	0.208
590	0.208
591	0.207
591	0.205
592	0.203
592	0.202
593	0.201
593	0.2
594	0.198
594	0.197
594	0.196
595	0.195
595	0.193
596	0.192
596	0.191
597	0.192
597	0.191
598	0.189
598	0.188
598	0.187
599	0.186
599	0.184
600	0.183
600	0.182
601	0.181
601	0.18
602	0.178
602	0.177
602	0.175
603	0.174
603	0.174
604	0.173
604	0.172
605	0.171
605	0.171
606	0.169
606	0.168
606	0.167
607	0.166
607	0.165
608	0.164
608	0.162
609	0.161
609	0.16
610	0.159
610	0.158
610	0.157
611	0.157
611	0.156
612	0.155
612	0.155
613	0.155
613	0.154
614	0.153
614	0.152
614	0.151
615	0.15
615	0.149
616	0.148
616	0.147
617	0.147
617	0.145
618	0.144
618	0.143
618	0.142
619	0.142
619	0.142
620	0.142
620	0.141
621	0.139
621	0.139
622	0.137
622	0.136
622	0.135
623	0.134
623	0.134
624	0.133
624	0.132
625	0.131
625	0.13
626	0.129
626	0.128
626	0.128
627	0.127
627	0.126
628	0.125
628	0.123
629	0.122
629	0.121
630	0.119
630	0.117
630	0.116
631	0.114
631	0.112
632	0.111
632	0.109
633	0.108
633	0.106
634	0.105
634	0.104
634	0.103
635	0.101
635	0.1
636	0.098
636	0.097
637	0.095
637	0.093
638	0.092
638	0.09
638	0.088
639	0.086
639	0.083
640	0.081
640	0.078
641	0.076
641	0.073
642	0.071
642	0.069
642	0.066
643	0.063
643	0.06
644	0.057
644	0.053
645	0.05
645	0.046
646	0.043
646	0.038
646	0.033
647	0.029
647	0.024
648	0.019
648	0.014
649	0.009
649	0.004
650	-0
650	-0.005
650	-0.01
651	-0.017
651	-0.025
652	-0.034
652	-0.044
653	-0.053
653	-0.06
653	-0.056
654	-0.043
654	-0.04
655	-0.044
655	-0.048
656	-0.052
656	-0.057
657	-0.06
657	-0.063
657	-0.069
658	-0.074
658	-0.099
659	-0.164
659	-0.231
660	-0.262
660	-0.283
661	-0.306
661	-0.33
661	-0.356
662	-0.378
662	-0.401
663	-0.429
663	-0.46
664	-0.491
664	-0.526
665	-0.564
665	-0.605
665	-0.641
666	-0.684
666	-0.733
667	-0.781
667	-0.838
668	-0.892
668	-0.956
669	-1.02
669	-1.089
669	-1.164
670	-1.243
670	-1.358
671	-1.56
671	-1.904
672	-2.224
672	-2.415
672	-2.55
673	-2.656
673	-2.743
674	-2.782
674	-2.794
675	-2.809
675	-2.814
676	-2.811
676	-2.775
676	-2.696
677	-2.598
677	-2.473
678	-2.274
678	-1.871
679	-1.525
679	-1.379
680	-1.285
680	-1.216
680	-1.154
681	-1.113
681	-1.066
682	-1.029
682	-0.99
683	-0.951
683	-0.932
684	-0.908
684	-0.893
684	-0.873
685	-0.856
685	-0.848
686	-0.829
686	-0.817
687	-0.809
687	-0.802
687	-0.802
688	-0.787
688	-0.782
689	-0.785
689	-0.783
690	-0.773
690	-0.763
691	-0.762
691	-0.766
691	-0.767
692	-0.764
692	-0.761
693	-0.769
693	-0.779
694	-0.761
694	-0.762
695	-0.764
695	-0.76
695	-0.767
696	-0.775
696	-0.771
697	-0.767
697	-0.763
698	-0.759
698	-0.751
698	-0.765
699	-0.765
699	-0.766
700	-0.785
700	-0.778
701	-0.765
701	-0.758
702	-0.758
702	-0.757
702	-0.757
703	-0.75
703	-0.737
704	-0.745
704	-0.75
705	-0.738
705	-0.739
705	-0.735
706	-0.728
706	-0.726
707	-0.738
707	-0.742
708	-0.738
708	-0.736
709	-0.735
709	-0.731
709	-0.728
710	-0.735
710	-0.736
711	-0.734
711	-0.734
712	-0.725
712	-0.723
713	-0.728
713	-0.73
713	-0.711
714	-0.714
714	-0.716
715	-0.71
715	-0.718
716	-0.736
716	-0.745
716	-0.746
717	-0.753
717	-0.746
718	-0.739
718	-0.742
719	-0.737
719	-0.731
720	-0.726
720	-0.722
720	-0.715
721	-0.707
721	-0.711
722	-0.707
722	-0.703
723	-0.723
723	-0.734
723	-0.742
724	-0.739
724	-0.744
725	-0.737
725	-0.742
726	-0.744
726	-0.735
727	-0.739
727	-0.749
727	-0.739
728	-0.727
728	-0.724
729	-0.725
729	-0.729
730	-0.735
730	-0.725
730	-0.732
731	-0.734
731	-0.732
732	-0.73
732	-0.723
733	-0.738
733	-0.744
734	-0.753
734	-0.744
734	-0.726
735	-0.716
735	-0.711
736	-0.71
736	-0.705
737	-0.705
737	-0.696
737	-0.688
738	-0.675
738	-0.663
739	-0.665
739	-0.669
740	-0.683
740	-0.683
741	-0.694
741	-0.704
741	-0.713
742	-0.72
742	-0.738
743	-0.744
743	-0.747
744	-0.751
744	-0.757
744	-0.751
745	-0.761
745	-0.748
746	-0.742
746	-0.733
747	-0.733
747	-0.72
748	-0.721
748	-0.728
748	-0.726
749	-0.717
749	-0.722
750	-0.711
750	-0.713
751	-0.716
751	-0.715
751	-0.728
752	-0.732
752	-0.735
753	-0.735
753	-0.731
754	-0.751
754	-0.753
754	-0.762
755	-0.761
755	-0.75
756	-0.754
756	-0.739
757	-0.731
757	-0.719
758	-0.719
758	-0.718
758	-0.713
759	-0.717
759	-0.716
760	-0.715
760	-0.717
761	-0.71
761	-0.717
761	-0.717
762	-0.723
762	-0.724
763	-0.725
763	-0.729
764	-0.726
764	-0.721
764	-0.726
765	-0.725
765	-0.731
766	-0.733
766	-0.735
767	-0.752
767	-0.748
768	-0.747
768	-0.741
768	-0.737
769	-0.741
769	-0.75
770	-0.759
770	-0.763
771	-0.758
771	-0.758
771	-0.762
772	-0.765
772	-0.785
773	-0.785
773	-0.786
774	-0.782
774	-0.765
775	-0.753
775	-0.752
775	-0.755
776	-0.765
776	-0.762
777	-0.762
777	-0.745
778	-0.753
778	-0.761
778	-0.765
779	-0.772
779	-0.787
780	-0.783
780	-0.795
781	-0.786
781	-0.774
781	-0.789
782	-0.811
782	-0.811
783	-0.81
783	-0.817
784	-0.822
784	-0.818
784	-0.838
785	-0.831
785	-0.843
786	-0.847
786	-0.84
787	-0.827
787	-0.836
788	-0.83
788	-0.825
788	-0.825
789	-0.823
789	-0.813
790	-0.813
790	-0.798
791	-0.803
791	-0.799
791	-0.794
792	-0.79
792	-0.791
793	-0.793
793	-0.782
794	-0.776
794	-0.77
794	-0.774
795	-0.791
795	-0.777
796	-0.782
796	-0.777
797	-0.77
797	-0.765
797	-0.757
798	-0.778
798	-0.784
799	-0.783
799	-0.769
800	-0.766
800	-0.777
801	-0.774
801	-0.778
801	-0.775
802	-0.773
802	-0.772
803	-0.766
803	-0.757
804	-0.764
804	-0.772
804	-0.756
805	-0.736
805	-0.729
806	-0.731
806	-0.726
807	-0.731
807	-0.73
807	-0.714
808	-0.71
808	-0.702
809	-0.696
809	-0.697
810	-0.7
810	-0.697
810	-0.692
811	-0.696
811	-0.685
812	-0.679
812	-0.68
813	-0.685
813	-0.687
813	-0.681
814	-0.681
814	-0.686
815	-0.678
815	-0.673
816	-0.668
816	-0.686
817	-0.698
817	-0.702
817	-0.71
818	-0.704
818	-0.703
819	-0.711
819	-0.709
820	-0.718
820	-0.717
820	-0.717
821	-0.711
821	-0.706
822	-0.704
822	-0.691
823	-0.705
823	-0.705
823	-0.701
824	-0.701
824	-0.709
825	-0.709
825	-0.706
826	-0.701
826	-0.696
826	-0.698
827	-0.701
827	-0.691
828	-0.692
828	-0.686
829	-0.679
829	-0.666
829	-0.664
830	-0.664
830	-0.65
831	-0.646
831	-0.635
832	-0.626
832	-0.62
832	-0.612
833	-0.611
833	-0.617
834	-0.614
834	-0.61
835	-0.602
835	-0.602
835	-0.596
836	-0.593
836	-0.588
837	-0.578
837	-0.569
838	-0.555
838	-0.539
839	-0.534
839	-0.522
839	-0.514
840	-0.514
840	-0.504
841	-0.493
841	-0.488
842	-0.478
842	-0.467
842	-0.467
843	-0.465
843	-0.461
844	-0.459
844	-0.449
845	-0.436
845	-0.428
845	-0.418
846	-0.408
846	-0.4
847	-0.391
847	-0.379
848	-0.364
848	-0.349
848	-0.336
849	-0.326
849	-0.314
850	-0.306
850	-0.297
851	-0.286
851	-0.271
851	-0.262
852	-0.249
852	-0.238
853	-0.23
853	-0.221
854	-0.212
854	-0.202
854	-0.191
855	-0.182
855	-0.175
856	-0.168
856	-0.161
857	-0.155
857	-0.15
857	-0.139
858	-0.13
858	-0.123
859	-0.114
859	-0.106
860	-0.096
860	-0.085
860	-0.077
861	-0.07
861	-0.062
862	-0.055
862	-0.049
863	-0.042
863	-0.035
863	-0.03
864	-0.026
864	-0.02
865	-0.016
865	-0.012
866	-0.007
866	-0.003
866	0.001
867	0.005
867	0.009
868	0.011
868	0.015
869	0.018
869	0.021
869	0.023
870	0.026
870	0.028
871	0.029
871	0.03
872	0.031
872	0.031
872	0.032
873	0.032
873	0.032
874	0.031
874	0.031
875	0.03
875	0.03
875	0.03
876	0.029
876	0.029
877	0.028
877	0.027
878	0.026
878	0.026
878	0.025
879	0.024
879	0.024
880	0.023
880	0.022
881	0.022
881	0.021
881	0.021
882	0.021
882	0.02
883	0.02
883	0.019
884	0.019
884	0.02
884	0.019
885	0.019
885	0.019
886	0.018
886	0.017
887	0.017
887	0.016
887	0.016
888	0.015
888	0.014
889	0.014
889	0.013
890	0.012
890	0.012
890	0.011
891	0.011
891	0.011
892	0.011
892	0.011
893	0.012
893	0.011
893	0.011
894	0.011
894	0.011
895	0.011
895	0.011
895	0.012
896	0.013
896	0.013
897	0.013
897	0.013
898	0.013
898	0.014
898	0.014
899	0.015
899	0.015
900	0.015
900	0.015
901	0.015
901	0.015
901	0.015
902	0.015
902	0.015
903	0.015
903	0.015
904	0.014
904	0.014
904	0.014
905	0.014
905	0.014
906	0.014
906	0.014
907	0.014
907	0.014
907	0.014
908	0.015
908	0.016
909	0.017
909	0.018
910	0.018
910	0.019
910	0.02
911	0.021
911	0.022
912	0.024
912	0.025
913	0.027
913	0.028
913	0.029
914	0.029
914	0.03
915	0.03
915	0.03
916	0.029
916	0.029
916	0.028
917	0.027
917	0.026
918	0.025
918	0.025
918	0.025
919	0.024
919	0.024
920	0.024
920	0.024
921	0.024
921	0.024
921	0.024
922	0.023
922	0.023
923	0.023
923	0.022
924	0.022
924	0.022
924	0.021
925	0.021
925	0.021
926	0.02
926	0.02
927	0.02
927	0.02
927	0.021
928	0.021
928	0.021
929	0.022
929	0.023
930	0.023
930	0.024
930	0.025
931	0.026
931	0.026
932	0.027
932	0.027
933	0.028
933	0.028
933	0.028
934	0.027
934	0.027
935	0.026
935	0.025
935	0.023
936	0.022
936	0.021
937	0.019
937	0.018
938	0.017
938	0.015
938	0.014
939	0.014
939	0.013
940	0.013
940	0.013
941	0.012
941	0.011
941	0.011
942	0.011
942	0.011
943	0.012
943	0.011
944	0.011
944	0.011
944	0.011
945	0.011
945	0.011
946	0.011
946	0.011
946	0.01
947	0.01
947	0.01
948	0.009
948	0.009
949	0.009
949	0.009
949	0.009
950	0.01
950	0.01
951	0.01
951	0.011
952	0.011
952	0.012
952	0.012
953	0.013
953	0.014
954	0.013
954	0.014
955	0.014
955	0.013
955	0.013
956	0.013
956	0.013
957	0.012
957	0.012
957	0.011
958	0.011
958	0.01
959	0.01
959	0.009
960	0.009
960	0.009
960	0.009
961	0.009
961	0.009
962	0.009
962	0.009
963	0.009
963	0.009
963	0.009
964	0.009
964	0.009
965	0.009
965	0.009
966	0.009
966	0.009
966	0.01
967	0.01
967	0.01
968	0.01
968	0.01
968	0.01
969	0.009
969	0.009
970	0.008
970	0.007
971	0.007
971	0.006
971	0.006
972	0.005
972	0.005
973	0.005
973	0.005
974	0.005
974	0.006
974	0.007
975	0.008
975	0.009
976	0.011
976	0.012
976	0.012
977	0.013
977	0.013
978	0.013
978	0.014
979	0.014
979	0.014
979	0.013
980	0.013
980	0.012
981	0.012
981	0.012
982	0.012
982	0.012
982	0.012
983	0.012
983	0.012
984	0.011
984	0.011
984	0.011
985	0.011
985	0.011
986	0.011
986	0.01
987	0.01
987	0.009
987	0.009
988	0.008
988	0.007
989	0.007
989	0.006
990	0.005
990	0.005
990	0.004
991	0.004
991	0.004
992	0.004
992	0.004
992	0.004
993	0.004
993	0.003
994	0.003
994	0.003
995	0.003
995	0.003
995	0.002
996	0.002
996	0.001
997	0.001
997	0.001
997	0
998	0.001
998	0.001
999	0.001
999	0.001
1000	0.002
1000	0.001
1000	0.002
1001	0.002
1001	0.003
1002	0.003
1002	0.003
1003	0.003
1003	0.003
1003	0.002
1004	0.002
1004	0.002
1005	0.001
1005	0
1005	-0
1006	-0.001
1006	-0.001
1007	-0.002
1007	-0.002
1008	-0.003
1008	-0.003
1008	-0.003
1009	-0.003
1009	-0.003
1010	-0.002
1010	-0.002
1010	-0.002
1011	-0.001
1011	-0.001
1012	-0.001
1012	-0
1013	0
1013	0
1013	0.001
1014	0.001
1014	0.001
1015	0.001
1015	0.001
1016	0.001
1016	0.002
1016	0.002
1017	0.001
1017	0.002
1018	0.002
1018	0.002
1018	0.002
1019	0.002
1019	0.002
1020	0.001
1020	0.001
1021	0.001
1021	0
1021	-0.001
1022	-0.001
1022	-0.002
1023	-0.003
1023	-0.004
1023	-0.004
1024	-0.005
1024	-0.005
1025	-0.006
1025	-0.006
1026	-0.007
1026	-0.007
1026	-0.007
1027	-0.007
1027	-0.007
1028	-0.007
1028	-0.007
1028	-0.007
1029	-0.007
1029	-0.007
1030	-0.007
1030	-0.007
1031	-0.008
1031	-0.008
1031	-0.008
1032	-0.008
1032	-0.008
1033	-0.009
1033	-0.009
1033	-0.009
1034	-0.009
1034	-0.009
1035	-0.008
1035	-0.009
1036	-0.009
1036	-0.009
1036	-0.008
1037	-0.008
1037	-0.007
1038	-0.007
1038	-0.006
1039	-0.006
1039	-0.005
1039	-0.004
1040	-0.004
1040	-0.003
1041	-0.003
1041	-0.004
1041	-0.004
1042	-0.005
1042	-0.005
1043	-0.006
1043	-0.007
1044	-0.008
1044	-0.009
1044	-0.01
1045	-0.012
1045	-0.012
1046	-0.013
1046	-0.013
1046	-0.014
1047	-0.014
1047	-0.014
1048	-0.014
1048	-0.014
1049	-0.014
1049	-0.014
1049	-0.015
1050	-0.015
1050	-0.016
1051	-0.017
1051	-0.018
1051	-0.018
1052	-0.019
1052	-0.02
1053	-0.021
1053	-0.021
1053	-0.021
1054	-0.021
1054	-0.021
1055	-0.021
1055	-0.02
1056	-0.021
1056	-0.021
1056	-0.021
1057	-0.021
1057	-0.022
1058	-0.022
1058	-0.022
1058	-0.022
1059	-0.022
1059	-0.023
1060	-0.023
1060	-0.022
1061	-0.022
1061	-0.022
1061	-0.021
1062	-0.021
1062	-0.021
1063	-0.021
1063	-0.021
1063	-0.021
1064	-0.022
1064	-0.021
1065	-0.021
1065	-0.022
1066	-0.022
1066	-0.023
1066	-0.023
1067	-0.023
1067	-0.024
1068	-0.024
1068	-0.025
1068	-0.025
1069	-0.025
1069	-0.026
1070	-0.026
1070	-0.027
1071	-0.027
1071	-0.027
1071	-0.028
1072	-0.027
1072	-0.027
1073	-0.027
1073	-0.026
1073	-0.026
1074	-0.026
1074	-0.026
1075	-0.026
1075	-0.026
1076	-0.027
1076	-0.027
1076	-0.028
1077	-0.029
1077	-0.03
1078	-0.031
1078	-0.032
1078	-0.032
1079	-0.033
1079	-0.033
1080	-0.034
1080	-0.034
1080	-0.035
1081	-0.036
1081	-0.036
1082	-0.037
1082	-0.037
1083	-0.038
1083	-0.039
1083	-0.04
1084	-0.041
1084	-0.041
1085	-0.042
1085	-0.042
1085	-0.042
1086	-0.042
1086	-0.042
1087	-0.043
1087	-0.043
1088	-0.044
1088	-0.044
1088	-0.044
1089	-0.046
1089	-0.046
1090	-0.047
1090	-0.048
1090	-0.05
1091	-0.051
1091	-0.052
1092	-0.052
1092	-0.053
1092	-0.054
1093	-0.055
1093	-0.055
1094	-0.056
1094	-0.057
1095	-0.058
1095	-0.058
1095	-0.059
1096	-0.06
1096	-0.061
1097	-0.062
1097	-0.063
1097	-0.064
1098	-0.065
1098	-0.067
1099	-0.068
1099	-0.068
1100	-0.07
1100	-0.072
1100	-0.074
1101	-0.077
1101	-0.079
1102	-0.081
1102	-0.083
1102	-0.085
1103	-0.086
1103	-0.089
1104	-0.091
1104	-0.094
1104	-0.095
1105	-0.096
1105	-0.098
1106	-0.102
1106	-0.103
1107	-0.109
1107	-0.113
1107	-0.118
1108	-0.119
1108	-0.12
1109	-0.124
1109	-0.129
1109	-0.133
1110	-0.136
1110	-0.139
1111	-0.149
1111	-0.144
