Data from 3.5A_17C_Absorbance__328__00330.txt Node

Date: Tue Jun 20 15:08:11 CEST 2023
User: Marek
Spectrometer: MAYP115816
Trigger mode: 0
Integration Time (sec): 2.200000E-1
Scans to average: 10
Electric dark correction enabled: true
Nonlinearity correction enabled: true
Boxcar width: 5
XAxis mode: Wavelengths
Number of Pixels in Spectrum: 2068
>>>>>Begin Spectral Data<<<<<
199	-0.62
199	-0.605
200	-0.563
200	-0.507
201	-0.484
201	-0.473
202	-0.454
202	-0.448
203	-0.447
203	-0.44
204	-0.421
204	-0.404
205	-0.381
205	-0.375
205	-0.384
206	-0.385
206	-0.383
207	-0.378
207	-0.384
208	-0.385
208	-0.389
209	-0.392
209	-0.399
210	-0.41
210	-0.417
211	-0.409
211	-0.411
212	-0.418
212	-0.424
213	-0.421
213	-0.418
213	-0.416
214	-0.421
214	-0.423
215	-0.424
215	-0.429
216	-0.442
216	-0.448
217	-0.448
217	-0.448
218	-0.454
218	-0.454
219	-0.461
219	-0.464
220	-0.468
220	-0.472
221	-0.471
221	-0.469
221	-0.46
222	-0.459
222	-0.457
223	-0.456
223	-0.458
224	-0.458
224	-0.456
225	-0.453
225	-0.454
226	-0.453
226	-0.452
227	-0.46
227	-0.471
228	-0.473
228	-0.481
229	-0.486
229	-0.483
229	-0.483
230	-0.476
230	-0.476
231	-0.475
231	-0.47
232	-0.472
232	-0.467
233	-0.47
233	-0.457
234	-0.456
234	-0.451
235	-0.456
235	-0.469
236	-0.475
236	-0.476
236	-0.476
237	-0.473
237	-0.475
238	-0.474
238	-0.474
239	-0.476
239	-0.487
240	-0.479
240	-0.475
241	-0.472
241	-0.474
242	-0.476
242	-0.485
243	-0.486
243	-0.488
243	-0.494
244	-0.492
244	-0.491
245	-0.496
245	-0.499
246	-0.507
246	-0.508
247	-0.517
247	-0.506
248	-0.502
248	-0.504
249	-0.509
249	-0.51
250	-0.512
250	-0.518
250	-0.514
251	-0.514
251	-0.513
252	-0.514
252	-0.523
253	-0.52
253	-0.531
254	-0.535
254	-0.536
255	-0.542
255	-0.539
256	-0.541
256	-0.554
257	-0.563
257	-0.561
258	-0.56
258	-0.565
258	-0.562
259	-0.557
259	-0.576
260	-0.575
260	-0.564
261	-0.574
261	-0.561
262	-0.566
262	-0.564
263	-0.558
263	-0.562
264	-0.571
264	-0.572
265	-0.561
265	-0.564
265	-0.576
266	-0.568
266	-0.567
267	-0.564
267	-0.58
268	-0.587
268	-0.582
269	-0.576
269	-0.589
270	-0.592
270	-0.591
271	-0.604
271	-0.613
272	-0.615
272	-0.62
272	-0.613
273	-0.622
273	-0.634
274	-0.626
274	-0.619
275	-0.618
275	-0.607
276	-0.61
276	-0.615
277	-0.616
277	-0.613
278	-0.617
278	-0.614
278	-0.606
279	-0.614
279	-0.628
280	-0.626
280	-0.635
281	-0.626
281	-0.619
282	-0.625
282	-0.618
283	-0.611
283	-0.626
284	-0.637
284	-0.649
285	-0.628
285	-0.636
285	-0.628
286	-0.635
286	-0.649
287	-0.646
287	-0.643
288	-0.642
288	-0.624
289	-0.623
289	-0.628
290	-0.638
290	-0.628
291	-0.631
291	-0.627
292	-0.61
292	-0.611
292	-0.615
293	-0.603
293	-0.599
294	-0.6
294	-0.588
295	-0.571
295	-0.582
296	-0.592
296	-0.587
297	-0.577
297	-0.577
298	-0.576
298	-0.592
298	-0.596
299	-0.578
299	-0.571
300	-0.568
300	-0.551
301	-0.532
301	-0.535
302	-0.545
302	-0.533
303	-0.526
303	-0.514
304	-0.497
304	-0.499
305	-0.49
305	-0.499
305	-0.513
306	-0.501
306	-0.5
307	-0.49
307	-0.499
308	-0.5
308	-0.499
309	-0.503
309	-0.5
310	-0.498
310	-0.489
311	-0.474
311	-0.491
311	-0.479
312	-0.477
312	-0.465
313	-0.458
313	-0.46
314	-0.464
314	-0.465
315	-0.464
315	-0.459
316	-0.458
316	-0.448
317	-0.442
317	-0.439
318	-0.434
318	-0.431
318	-0.418
319	-0.406
319	-0.397
320	-0.394
320	-0.393
321	-0.387
321	-0.387
322	-0.379
322	-0.37
323	-0.369
323	-0.36
324	-0.36
324	-0.351
324	-0.339
325	-0.324
325	-0.305
326	-0.297
326	-0.275
327	-0.26
327	-0.24
328	-0.211
328	-0.192
329	-0.166
329	-0.138
330	-0.112
330	-0.079
330	-0.049
331	-0.016
331	0.017
332	0.047
332	0.076
333	0.105
333	0.137
334	0.164
334	0.186
335	0.21
335	0.228
336	0.246
336	0.264
336	0.278
337	0.292
337	0.306
338	0.316
338	0.324
339	0.334
339	0.343
340	0.349
340	0.356
341	0.362
341	0.366
342	0.371
342	0.376
342	0.38
343	0.382
343	0.386
344	0.389
344	0.391
345	0.393
345	0.395
346	0.397
346	0.399
347	0.4
347	0.401
348	0.402
348	0.403
348	0.403
349	0.404
349	0.404
350	0.405
350	0.405
351	0.406
351	0.406
352	0.405
352	0.405
353	0.406
353	0.406
354	0.406
354	0.406
354	0.406
355	0.406
355	0.406
356	0.406
356	0.406
357	0.406
357	0.406
358	0.406
358	0.406
359	0.406
359	0.405
360	0.405
360	0.405
360	0.405
361	0.405
361	0.405
362	0.404
362	0.404
363	0.404
363	0.404
364	0.404
364	0.404
365	0.403
365	0.403
366	0.403
366	0.402
366	0.402
367	0.402
367	0.401
368	0.401
368	0.4
369	0.4
369	0.4
370	0.399
370	0.399
371	0.398
371	0.398
372	0.397
372	0.397
372	0.397
373	0.397
373	0.396
374	0.396
374	0.396
375	0.395
375	0.395
376	0.395
376	0.395
377	0.394
377	0.394
378	0.393
378	0.392
378	0.392
379	0.392
379	0.391
380	0.391
380	0.391
381	0.39
381	0.39
382	0.389
382	0.389
383	0.389
383	0.388
383	0.388
384	0.387
384	0.387
385	0.386
385	0.386
386	0.385
386	0.385
387	0.384
387	0.384
388	0.384
388	0.383
389	0.383
389	0.382
389	0.382
390	0.382
390	0.381
391	0.381
391	0.38
392	0.38
392	0.379
393	0.379
393	0.378
394	0.378
394	0.378
394	0.377
395	0.376
395	0.376
396	0.375
396	0.375
397	0.375
397	0.374
398	0.374
398	0.373
399	0.373
399	0.372
400	0.372
400	0.372
400	0.371
401	0.371
401	0.37
402	0.37
402	0.369
403	0.369
403	0.368
404	0.368
404	0.367
405	0.367
405	0.366
405	0.366
406	0.366
406	0.365
407	0.365
407	0.364
408	0.364
408	0.364
409	0.364
409	0.364
410	0.363
410	0.364
411	0.363
411	0.363
411	0.363
412	0.362
412	0.362
413	0.362
413	0.362
414	0.361
414	0.361
415	0.36
415	0.36
416	0.36
416	0.359
416	0.359
417	0.359
417	0.359
418	0.358
418	0.358
419	0.358
419	0.358
420	0.358
420	0.358
421	0.357
421	0.357
421	0.357
422	0.357
422	0.357
423	0.356
423	0.356
424	0.356
424	0.356
425	0.356
425	0.356
426	0.356
426	0.355
427	0.355
427	0.355
427	0.355
428	0.355
428	0.354
429	0.354
429	0.353
430	0.353
430	0.353
431	0.353
431	0.352
432	0.352
432	0.352
432	0.352
433	0.352
433	0.352
434	0.352
434	0.353
435	0.353
435	0.353
436	0.353
436	0.353
437	0.353
437	0.352
437	0.352
438	0.352
438	0.353
439	0.353
439	0.352
440	0.352
440	0.352
441	0.352
441	0.352
442	0.352
442	0.352
442	0.352
443	0.352
443	0.352
444	0.352
444	0.352
445	0.352
445	0.352
446	0.352
446	0.352
447	0.352
447	0.352
447	0.352
448	0.353
448	0.353
449	0.353
449	0.353
450	0.353
450	0.353
451	0.353
451	0.353
452	0.353
452	0.353
452	0.353
453	0.353
453	0.353
454	0.353
454	0.354
455	0.354
455	0.355
456	0.355
456	0.355
457	0.356
457	0.356
458	0.356
458	0.356
458	0.356
459	0.356
459	0.356
460	0.356
460	0.357
461	0.357
461	0.358
462	0.358
462	0.359
463	0.36
463	0.361
463	0.361
464	0.362
464	0.362
465	0.363
465	0.363
466	0.364
466	0.365
467	0.365
467	0.366
467	0.366
468	0.366
468	0.367
469	0.368
469	0.369
470	0.37
470	0.37
471	0.371
471	0.372
472	0.372
472	0.373
472	0.375
473	0.376
473	0.377
474	0.378
474	0.379
475	0.38
475	0.381
476	0.382
476	0.383
477	0.384
477	0.385
477	0.386
478	0.387
478	0.388
479	0.39
479	0.391
480	0.393
480	0.394
481	0.396
481	0.398
482	0.399
482	0.401
482	0.403
483	0.405
483	0.407
484	0.409
484	0.411
485	0.413
485	0.415
486	0.416
486	0.418
487	0.42
487	0.422
487	0.423
488	0.425
488	0.427
489	0.429
489	0.432
490	0.434
490	0.436
491	0.439
491	0.442
492	0.444
492	0.447
492	0.449
493	0.452
493	0.455
494	0.458
494	0.461
495	0.464
495	0.467
496	0.47
496	0.473
496	0.476
497	0.479
497	0.483
498	0.486
498	0.489
499	0.493
499	0.496
500	0.5
500	0.503
501	0.507
501	0.51
501	0.513
502	0.517
502	0.52
503	0.524
503	0.527
504	0.53
504	0.534
505	0.538
505	0.542
506	0.546
506	0.55
506	0.554
507	0.558
507	0.561
508	0.565
508	0.57
509	0.574
509	0.578
510	0.581
510	0.585
511	0.589
511	0.592
511	0.595
512	0.599
512	0.603
513	0.606
513	0.609
514	0.612
514	0.616
515	0.619
515	0.622
515	0.625
516	0.628
516	0.631
517	0.634
517	0.636
518	0.639
518	0.641
519	0.642
519	0.644
520	0.646
520	0.649
520	0.651
521	0.652
521	0.654
522	0.656
522	0.657
523	0.658
523	0.66
524	0.661
524	0.662
524	0.663
525	0.664
525	0.664
526	0.665
526	0.665
527	0.666
527	0.666
528	0.665
528	0.665
529	0.664
529	0.664
529	0.663
530	0.662
530	0.661
531	0.66
531	0.659
532	0.657
532	0.656
533	0.654
533	0.652
533	0.651
534	0.648
534	0.646
535	0.644
535	0.641
536	0.638
536	0.636
537	0.633
537	0.63
538	0.627
538	0.624
538	0.62
539	0.617
539	0.614
540	0.611
540	0.607
541	0.602
541	0.598
542	0.595
542	0.59
542	0.586
543	0.581
543	0.577
544	0.573
544	0.569
545	0.564
545	0.56
546	0.555
546	0.549
547	0.544
547	0.539
547	0.534
548	0.53
548	0.525
549	0.52
549	0.515
550	0.511
550	0.505
551	0.5
551	0.494
551	0.489
552	0.483
552	0.478
553	0.473
553	0.468
554	0.463
554	0.457
555	0.452
555	0.447
556	0.441
556	0.436
556	0.431
557	0.426
557	0.421
558	0.415
558	0.41
559	0.405
559	0.399
560	0.394
560	0.39
560	0.386
561	0.382
561	0.378
562	0.374
562	0.369
563	0.365
563	0.361
564	0.357
564	0.353
564	0.348
565	0.344
565	0.34
566	0.336
566	0.332
567	0.328
567	0.323
568	0.319
568	0.314
568	0.31
569	0.305
569	0.301
570	0.296
570	0.292
571	0.288
571	0.284
572	0.28
572	0.276
573	0.272
573	0.269
573	0.265
574	0.262
574	0.259
575	0.256
575	0.253
576	0.25
576	0.246
577	0.243
577	0.24
577	0.238
578	0.236
578	0.234
579	0.232
579	0.229
580	0.226
580	0.222
581	0.219
581	0.216
581	0.214
582	0.212
582	0.21
583	0.208
583	0.204
584	0.2
584	0.196
585	0.194
585	0.191
585	0.188
586	0.185
586	0.183
587	0.18
587	0.178
588	0.175
588	0.173
589	0.171
589	0.169
590	0.168
590	0.166
590	0.165
591	0.164
591	0.162
592	0.16
592	0.158
593	0.156
593	0.155
594	0.153
594	0.151
594	0.15
595	0.149
595	0.147
596	0.145
596	0.144
597	0.144
597	0.142
598	0.14
598	0.139
598	0.137
599	0.136
599	0.135
600	0.133
600	0.132
601	0.131
601	0.13
602	0.128
602	0.127
602	0.126
603	0.125
603	0.124
604	0.123
604	0.122
605	0.121
605	0.12
606	0.118
606	0.116
606	0.115
607	0.114
607	0.113
608	0.111
608	0.11
609	0.109
609	0.108
610	0.106
610	0.105
610	0.104
611	0.103
611	0.102
612	0.102
612	0.101
613	0.1
613	0.1
614	0.098
614	0.097
614	0.096
615	0.095
615	0.094
616	0.094
616	0.093
617	0.092
617	0.091
618	0.09
618	0.089
618	0.088
619	0.088
619	0.088
620	0.088
620	0.088
621	0.087
621	0.086
622	0.085
622	0.084
622	0.083
623	0.082
623	0.082
624	0.081
624	0.08
625	0.079
625	0.079
626	0.078
626	0.077
626	0.077
627	0.076
627	0.076
628	0.075
628	0.074
629	0.073
629	0.072
630	0.071
630	0.07
630	0.069
631	0.069
631	0.068
632	0.067
632	0.066
633	0.066
633	0.065
634	0.065
634	0.064
634	0.063
635	0.062
635	0.061
636	0.06
636	0.059
637	0.058
637	0.057
638	0.056
638	0.055
638	0.054
639	0.053
639	0.052
640	0.051
640	0.05
641	0.049
641	0.048
642	0.047
642	0.046
642	0.045
643	0.044
643	0.042
644	0.041
644	0.04
645	0.038
645	0.037
646	0.035
646	0.033
646	0.03
647	0.028
647	0.025
648	0.022
648	0.019
649	0.017
649	0.014
650	0.012
650	0.009
650	0.006
651	0.002
651	-0.003
652	-0.008
652	-0.014
653	-0.019
653	-0.023
653	-0.02
654	-0.013
654	-0.014
655	-0.017
655	-0.02
656	-0.022
656	-0.025
657	-0.028
657	-0.03
657	-0.034
658	-0.038
658	-0.054
659	-0.097
659	-0.135
660	-0.154
660	-0.167
661	-0.183
661	-0.198
661	-0.216
662	-0.231
662	-0.246
663	-0.263
663	-0.284
664	-0.299
664	-0.321
665	-0.345
665	-0.369
665	-0.39
666	-0.414
666	-0.442
667	-0.469
667	-0.503
668	-0.536
668	-0.581
669	-0.623
669	-0.671
669	-0.726
670	-0.789
670	-0.905
671	-1.159
671	-1.538
672	-1.946
672	-2.252
672	-2.436
673	-2.544
673	-2.571
674	-2.588
674	-2.597
675	-2.612
675	-2.617
676	-2.617
676	-2.591
676	-2.517
677	-2.352
677	-2.076
678	-1.502
678	-1.075
679	-0.934
679	-0.862
680	-0.809
680	-0.772
680	-0.743
681	-0.729
681	-0.703
682	-0.691
682	-0.668
683	-0.646
683	-0.643
684	-0.634
684	-0.631
684	-0.624
685	-0.62
685	-0.621
686	-0.61
686	-0.608
687	-0.607
687	-0.609
687	-0.618
688	-0.609
688	-0.608
689	-0.616
689	-0.619
690	-0.611
690	-0.608
691	-0.61
691	-0.616
691	-0.62
692	-0.62
692	-0.619
693	-0.628
693	-0.642
694	-0.628
694	-0.628
695	-0.634
695	-0.629
695	-0.637
696	-0.645
696	-0.638
697	-0.632
697	-0.63
698	-0.627
698	-0.62
698	-0.634
699	-0.63
699	-0.631
700	-0.651
700	-0.647
701	-0.638
701	-0.635
702	-0.638
702	-0.638
702	-0.641
703	-0.636
703	-0.625
704	-0.634
704	-0.638
705	-0.629
705	-0.63
705	-0.626
706	-0.618
706	-0.616
707	-0.626
707	-0.629
708	-0.624
708	-0.625
709	-0.627
709	-0.623
709	-0.62
710	-0.628
710	-0.629
711	-0.633
711	-0.633
712	-0.626
712	-0.625
713	-0.632
713	-0.631
713	-0.614
714	-0.617
714	-0.621
715	-0.611
715	-0.621
716	-0.633
716	-0.641
716	-0.641
717	-0.647
717	-0.639
718	-0.635
718	-0.637
719	-0.634
719	-0.626
720	-0.623
720	-0.619
720	-0.614
721	-0.605
721	-0.612
722	-0.609
722	-0.607
723	-0.623
723	-0.635
723	-0.642
724	-0.642
724	-0.646
725	-0.641
725	-0.646
726	-0.651
726	-0.641
727	-0.644
727	-0.649
727	-0.64
728	-0.627
728	-0.624
729	-0.629
729	-0.634
730	-0.64
730	-0.633
730	-0.639
731	-0.643
731	-0.642
732	-0.645
732	-0.64
733	-0.654
733	-0.659
734	-0.666
734	-0.657
734	-0.64
735	-0.629
735	-0.623
736	-0.62
736	-0.615
737	-0.615
737	-0.606
737	-0.599
738	-0.587
738	-0.577
739	-0.577
739	-0.579
740	-0.591
740	-0.592
741	-0.604
741	-0.614
741	-0.624
742	-0.63
742	-0.648
743	-0.654
743	-0.655
744	-0.659
744	-0.666
744	-0.661
745	-0.666
745	-0.655
746	-0.651
746	-0.642
747	-0.645
747	-0.632
748	-0.635
748	-0.64
748	-0.641
749	-0.635
749	-0.643
750	-0.635
750	-0.635
751	-0.637
751	-0.634
751	-0.647
752	-0.653
752	-0.655
753	-0.656
753	-0.649
754	-0.667
754	-0.666
754	-0.673
755	-0.672
755	-0.663
756	-0.665
756	-0.651
757	-0.642
757	-0.628
758	-0.629
758	-0.628
758	-0.625
759	-0.628
759	-0.627
760	-0.628
760	-0.629
761	-0.623
761	-0.625
761	-0.625
762	-0.632
762	-0.632
763	-0.632
763	-0.636
764	-0.634
764	-0.63
764	-0.637
765	-0.636
765	-0.643
766	-0.646
766	-0.649
767	-0.663
767	-0.657
768	-0.656
768	-0.648
768	-0.647
769	-0.65
769	-0.657
770	-0.667
770	-0.668
771	-0.664
771	-0.663
771	-0.669
772	-0.676
772	-0.697
773	-0.697
773	-0.697
774	-0.696
774	-0.677
775	-0.665
775	-0.667
775	-0.669
776	-0.677
776	-0.668
777	-0.667
777	-0.651
778	-0.662
778	-0.667
778	-0.669
779	-0.678
779	-0.693
780	-0.688
780	-0.7
781	-0.693
781	-0.686
781	-0.7
782	-0.719
782	-0.719
783	-0.719
783	-0.728
784	-0.733
784	-0.728
784	-0.746
785	-0.739
785	-0.75
786	-0.755
786	-0.747
787	-0.736
787	-0.747
788	-0.74
788	-0.732
788	-0.732
789	-0.73
789	-0.723
790	-0.721
790	-0.706
791	-0.713
791	-0.709
791	-0.703
792	-0.694
792	-0.697
793	-0.701
793	-0.687
794	-0.681
794	-0.674
794	-0.681
795	-0.701
795	-0.689
796	-0.698
796	-0.695
797	-0.691
797	-0.683
797	-0.674
798	-0.697
798	-0.7
799	-0.7
799	-0.688
800	-0.683
800	-0.691
801	-0.688
801	-0.693
801	-0.689
802	-0.69
802	-0.693
803	-0.686
803	-0.679
804	-0.685
804	-0.691
804	-0.673
805	-0.656
805	-0.646
806	-0.648
806	-0.643
807	-0.644
807	-0.641
807	-0.628
808	-0.624
808	-0.619
809	-0.616
809	-0.62
810	-0.622
810	-0.62
810	-0.616
811	-0.62
811	-0.611
812	-0.605
812	-0.604
813	-0.611
813	-0.608
813	-0.603
814	-0.604
814	-0.609
815	-0.6
815	-0.595
816	-0.592
816	-0.61
817	-0.621
817	-0.626
817	-0.63
818	-0.625
818	-0.622
819	-0.629
819	-0.626
820	-0.637
820	-0.636
820	-0.636
821	-0.631
821	-0.628
822	-0.627
822	-0.617
823	-0.63
823	-0.63
823	-0.627
824	-0.627
824	-0.642
825	-0.641
825	-0.638
826	-0.633
826	-0.629
826	-0.629
827	-0.63
827	-0.621
828	-0.621
828	-0.614
829	-0.611
829	-0.592
829	-0.59
830	-0.588
830	-0.576
831	-0.569
831	-0.56
832	-0.554
832	-0.55
832	-0.543
833	-0.544
833	-0.548
834	-0.545
834	-0.538
835	-0.532
835	-0.533
835	-0.53
836	-0.525
836	-0.522
837	-0.511
837	-0.505
838	-0.492
838	-0.476
839	-0.47
839	-0.459
839	-0.451
840	-0.448
840	-0.439
841	-0.429
841	-0.423
842	-0.416
842	-0.404
842	-0.401
843	-0.399
843	-0.397
844	-0.398
844	-0.388
845	-0.376
845	-0.368
845	-0.362
846	-0.351
846	-0.344
847	-0.337
847	-0.327
848	-0.314
848	-0.3
848	-0.288
849	-0.28
849	-0.271
850	-0.264
850	-0.256
851	-0.245
851	-0.232
851	-0.225
852	-0.213
852	-0.205
853	-0.199
853	-0.191
854	-0.184
854	-0.176
854	-0.166
855	-0.157
855	-0.153
856	-0.147
856	-0.141
857	-0.137
857	-0.131
857	-0.121
858	-0.114
858	-0.109
859	-0.101
859	-0.094
860	-0.087
860	-0.078
860	-0.072
861	-0.065
861	-0.059
862	-0.054
862	-0.05
863	-0.044
863	-0.038
863	-0.035
864	-0.032
864	-0.027
865	-0.023
865	-0.019
866	-0.016
866	-0.013
866	-0.01
867	-0.006
867	-0.003
868	-0.001
868	0.002
869	0.005
869	0.007
869	0.01
870	0.012
870	0.014
871	0.015
871	0.016
872	0.016
872	0.017
872	0.017
873	0.017
873	0.017
874	0.016
874	0.016
875	0.015
875	0.014
875	0.014
876	0.013
876	0.013
877	0.012
877	0.011
878	0.01
878	0.01
878	0.009
879	0.008
879	0.008
880	0.007
880	0.007
881	0.006
881	0.006
881	0.006
882	0.006
882	0.005
883	0.005
883	0.005
884	0.005
884	0.005
884	0.004
885	0.004
885	0.003
886	0.002
886	0.001
887	0
887	-0.001
887	-0.002
888	-0.002
888	-0.003
889	-0.003
889	-0.004
890	-0.004
890	-0.005
890	-0.005
891	-0.004
891	-0.004
892	-0.003
892	-0.003
893	-0.002
893	-0.002
893	-0.002
894	-0.002
894	-0.002
895	-0.002
895	-0.001
895	-0.001
896	-0.001
896	-0.001
897	-0.001
897	-0
898	-0
898	-0
898	0
899	0.001
899	0.001
900	0.001
900	0.001
901	0.001
901	0.001
901	0.001
902	0.001
902	0.001
903	0.001
903	0
904	-0.001
904	-0.001
904	-0.001
905	-0.001
905	-0.001
906	-0.001
906	-0.001
907	-0
907	0
907	0.001
908	0.002
908	0.002
909	0.003
909	0.004
910	0.004
910	0.004
910	0.005
911	0.006
911	0.007
912	0.008
912	0.01
913	0.011
913	0.012
913	0.013
914	0.013
914	0.014
915	0.014
915	0.014
916	0.013
916	0.013
916	0.012
917	0.011
917	0.01
918	0.009
918	0.009
918	0.008
919	0.008
919	0.008
920	0.008
920	0.008
921	0.008
921	0.008
921	0.008
922	0.008
922	0.009
923	0.008
923	0.008
924	0.008
924	0.008
924	0.007
925	0.007
925	0.007
926	0.006
926	0.006
927	0.006
927	0.006
927	0.006
928	0.006
928	0.006
929	0.007
929	0.007
930	0.008
930	0.009
930	0.01
931	0.011
931	0.012
932	0.014
932	0.014
933	0.016
933	0.016
933	0.017
934	0.017
934	0.017
935	0.017
935	0.016
935	0.015
936	0.014
936	0.013
937	0.011
937	0.01
938	0.008
938	0.007
938	0.006
939	0.005
939	0.004
940	0.004
940	0.003
941	0.003
941	0.003
941	0.003
942	0.003
942	0.003
943	0.004
943	0.004
944	0.004
944	0.004
944	0.004
945	0.004
945	0.003
946	0.003
946	0.001
946	0
947	-0
947	-0.001
948	-0.002
948	-0.002
949	-0.003
949	-0.003
949	-0.003
950	-0.003
950	-0.002
951	-0.002
951	-0.001
952	-0.001
952	0
952	0.001
953	0.001
953	0.002
954	0.002
954	0.002
955	0.003
955	0.003
955	0.003
956	0.002
956	0.002
957	0.001
957	0.001
957	0
958	-0
958	-0
959	-0.001
959	-0.001
960	-0.001
960	-0.002
960	-0.002
961	-0.002
961	-0.002
962	-0.002
962	-0.002
963	-0.002
963	-0.002
963	-0.002
964	-0.001
964	-0.001
965	-0.001
965	-0
966	0
966	0.001
966	0.002
967	0.002
967	0.003
968	0.003
968	0.003
968	0.003
969	0.003
969	0.002
970	0.001
970	-0
971	-0.001
971	-0.001
971	-0.002
972	-0.002
972	-0.002
973	-0.002
973	-0.002
974	-0.002
974	-0.001
974	-0
975	0.001
975	0.002
976	0.003
976	0.004
976	0.004
977	0.005
977	0.005
978	0.005
978	0.005
979	0.004
979	0.004
979	0.004
980	0.003
980	0.002
981	0.002
981	0.001
982	0.001
982	0.001
982	0.001
983	0.001
983	0.001
984	0.001
984	0.001
984	0.001
985	0.001
985	0.001
986	0.001
986	0.001
987	0.001
987	0
987	0
988	-0
988	-0.001
989	-0.001
989	-0.001
990	-0.002
990	-0.003
990	-0.003
991	-0.003
991	-0.003
992	-0.003
992	-0.003
992	-0.004
993	-0.004
993	-0.004
994	-0.004
994	-0.004
995	-0.004
995	-0.005
995	-0.005
996	-0.005
996	-0.006
997	-0.006
997	-0.006
997	-0.007
998	-0.006
998	-0.006
999	-0.005
999	-0.005
1000	-0.005
1000	-0.005
1000	-0.005
1001	-0.004
1001	-0.004
1002	-0.004
1002	-0.003
1003	-0.003
1003	-0.004
1003	-0.004
1004	-0.004
1004	-0.005
1005	-0.005
1005	-0.006
1005	-0.007
1006	-0.008
1006	-0.008
1007	-0.009
1007	-0.01
1008	-0.011
1008	-0.012
1008	-0.012
1009	-0.012
1009	-0.012
1010	-0.011
1010	-0.011
1010	-0.011
1011	-0.01
1011	-0.01
1012	-0.01
1012	-0.009
1013	-0.008
1013	-0.008
1013	-0.007
1014	-0.007
1014	-0.006
1015	-0.006
1015	-0.005
1016	-0.005
1016	-0.004
1016	-0.004
1017	-0.004
1017	-0.004
1018	-0.004
1018	-0.004
1018	-0.004
1019	-0.004
1019	-0.004
1020	-0.004
1020	-0.005
1021	-0.005
1021	-0.006
1021	-0.006
1022	-0.007
1022	-0.008
1023	-0.009
1023	-0.01
1023	-0.011
1024	-0.012
1024	-0.013
1025	-0.013
1025	-0.014
1026	-0.015
1026	-0.015
1026	-0.016
1027	-0.016
1027	-0.016
1028	-0.016
1028	-0.016
1028	-0.016
1029	-0.016
1029	-0.015
1030	-0.016
1030	-0.016
1031	-0.016
1031	-0.015
1031	-0.015
1032	-0.015
1032	-0.015
1033	-0.016
1033	-0.016
1033	-0.016
1034	-0.016
1034	-0.016
1035	-0.016
1035	-0.016
1036	-0.016
1036	-0.016
1036	-0.016
1037	-0.015
1037	-0.014
1038	-0.014
1038	-0.013
1039	-0.013
1039	-0.012
1039	-0.011
1040	-0.011
1040	-0.011
1041	-0.01
1041	-0.011
1041	-0.011
1042	-0.012
1042	-0.013
1043	-0.013
1043	-0.014
1044	-0.015
1044	-0.017
1044	-0.018
1045	-0.019
1045	-0.019
1046	-0.02
1046	-0.02
1046	-0.02
1047	-0.021
1047	-0.021
1048	-0.021
1048	-0.021
1049	-0.021
1049	-0.021
1049	-0.022
1050	-0.022
1050	-0.023
1051	-0.024
1051	-0.024
1051	-0.025
1052	-0.026
1052	-0.026
1053	-0.027
1053	-0.027
1053	-0.026
1054	-0.026
1054	-0.026
1055	-0.026
1055	-0.025
1056	-0.026
1056	-0.026
1056	-0.026
1057	-0.026
1057	-0.027
1058	-0.027
1058	-0.028
1058	-0.028
1059	-0.028
1059	-0.028
1060	-0.028
1060	-0.028
1061	-0.028
1061	-0.027
1061	-0.027
1062	-0.027
1062	-0.026
1063	-0.026
1063	-0.027
1063	-0.027
1064	-0.027
1064	-0.026
1065	-0.026
1065	-0.026
1066	-0.027
1066	-0.027
1066	-0.027
1067	-0.028
1067	-0.028
1068	-0.028
1068	-0.029
1068	-0.029
1069	-0.03
1069	-0.031
1070	-0.031
1070	-0.032
1071	-0.032
1071	-0.032
1071	-0.033
1072	-0.033
1072	-0.032
1073	-0.032
1073	-0.031
1073	-0.031
1074	-0.031
1074	-0.031
1075	-0.03
1075	-0.03
1076	-0.031
1076	-0.031
1076	-0.032
1077	-0.032
1077	-0.033
1078	-0.034
1078	-0.034
1078	-0.035
1079	-0.035
1079	-0.035
1080	-0.036
1080	-0.036
1080	-0.036
1081	-0.036
1081	-0.036
1082	-0.037
1082	-0.038
1083	-0.038
1083	-0.039
1083	-0.039
1084	-0.04
1084	-0.04
1085	-0.041
1085	-0.042
1085	-0.042
1086	-0.042
1086	-0.043
1087	-0.043
1087	-0.043
1088	-0.045
1088	-0.045
1088	-0.045
1089	-0.046
1089	-0.047
1090	-0.047
1090	-0.048
1090	-0.049
1091	-0.05
1091	-0.05
1092	-0.05
1092	-0.051
1092	-0.052
1093	-0.053
1093	-0.053
1094	-0.053
1094	-0.054
1095	-0.054
1095	-0.054
1095	-0.054
1096	-0.056
1096	-0.057
1097	-0.058
1097	-0.059
1097	-0.06
1098	-0.061
1098	-0.063
1099	-0.063
1099	-0.064
1100	-0.066
1100	-0.068
1100	-0.07
1101	-0.072
1101	-0.074
1102	-0.075
1102	-0.078
1102	-0.078
1103	-0.08
1103	-0.082
1104	-0.084
1104	-0.087
1104	-0.088
1105	-0.089
1105	-0.091
1106	-0.095
1106	-0.095
1107	-0.098
1107	-0.102
1107	-0.105
1108	-0.106
1108	-0.107
1109	-0.108
1109	-0.111
1109	-0.114
1110	-0.113
1110	-0.113
1111	-0.123
1111	-0.118
