Data from 3.5A_17C_Absorbance__379__00381.txt Node

Date: Tue Jun 20 15:10:03 CEST 2023
User: Marek
Spectrometer: MAYP115816
Trigger mode: 0
Integration Time (sec): 2.200000E-1
Scans to average: 10
Electric dark correction enabled: true
Nonlinearity correction enabled: true
Boxcar width: 5
XAxis mode: Wavelengths
Number of Pixels in Spectrum: 2068
>>>>>Begin Spectral Data<<<<<
199	-0.625
199	-0.608
200	-0.577
200	-0.522
201	-0.496
201	-0.486
202	-0.47
202	-0.461
203	-0.46
203	-0.454
204	-0.438
204	-0.421
205	-0.399
205	-0.389
205	-0.396
206	-0.398
206	-0.397
207	-0.389
207	-0.396
208	-0.399
208	-0.402
209	-0.403
209	-0.409
210	-0.422
210	-0.428
211	-0.425
211	-0.427
212	-0.432
212	-0.44
213	-0.434
213	-0.428
213	-0.426
214	-0.433
214	-0.436
215	-0.433
215	-0.439
216	-0.448
216	-0.455
217	-0.455
217	-0.456
218	-0.465
218	-0.466
219	-0.472
219	-0.474
220	-0.479
220	-0.484
221	-0.485
221	-0.485
221	-0.475
222	-0.475
222	-0.473
223	-0.469
223	-0.472
224	-0.474
224	-0.471
225	-0.469
225	-0.469
226	-0.47
226	-0.47
227	-0.48
227	-0.49
228	-0.493
228	-0.501
229	-0.507
229	-0.503
229	-0.502
230	-0.498
230	-0.498
231	-0.494
231	-0.488
232	-0.488
232	-0.482
233	-0.483
233	-0.472
234	-0.474
234	-0.471
235	-0.475
235	-0.484
236	-0.491
236	-0.494
236	-0.493
237	-0.49
237	-0.494
238	-0.496
238	-0.496
239	-0.495
239	-0.505
240	-0.496
240	-0.494
241	-0.49
241	-0.494
242	-0.498
242	-0.507
243	-0.504
243	-0.503
243	-0.509
244	-0.507
244	-0.507
245	-0.512
245	-0.515
246	-0.525
246	-0.525
247	-0.531
247	-0.517
248	-0.516
248	-0.52
249	-0.525
249	-0.525
250	-0.524
250	-0.53
250	-0.529
251	-0.526
251	-0.523
252	-0.526
252	-0.539
253	-0.538
253	-0.548
254	-0.552
254	-0.554
255	-0.563
255	-0.563
256	-0.562
256	-0.572
257	-0.582
257	-0.578
258	-0.579
258	-0.586
258	-0.582
259	-0.575
259	-0.592
260	-0.592
260	-0.58
261	-0.591
261	-0.582
262	-0.587
262	-0.587
263	-0.577
263	-0.583
264	-0.59
264	-0.592
265	-0.582
265	-0.583
265	-0.594
266	-0.585
266	-0.582
267	-0.58
267	-0.591
268	-0.598
268	-0.589
269	-0.583
269	-0.597
270	-0.602
270	-0.601
271	-0.615
271	-0.624
272	-0.625
272	-0.628
272	-0.622
273	-0.631
273	-0.645
274	-0.637
274	-0.632
275	-0.629
275	-0.618
276	-0.618
276	-0.623
277	-0.623
277	-0.62
278	-0.627
278	-0.629
278	-0.619
279	-0.626
279	-0.64
280	-0.64
280	-0.649
281	-0.645
281	-0.635
282	-0.642
282	-0.636
283	-0.628
283	-0.641
284	-0.655
284	-0.667
285	-0.645
285	-0.652
285	-0.642
286	-0.649
286	-0.665
287	-0.662
287	-0.662
288	-0.66
288	-0.641
289	-0.639
289	-0.646
290	-0.656
290	-0.646
291	-0.652
291	-0.649
292	-0.632
292	-0.631
292	-0.633
293	-0.624
293	-0.622
294	-0.62
294	-0.605
295	-0.588
295	-0.598
296	-0.609
296	-0.603
297	-0.59
297	-0.593
298	-0.592
298	-0.607
298	-0.61
299	-0.593
299	-0.586
300	-0.582
300	-0.564
301	-0.547
301	-0.549
302	-0.56
302	-0.545
303	-0.538
303	-0.524
304	-0.508
304	-0.51
305	-0.505
305	-0.516
305	-0.531
306	-0.515
306	-0.515
307	-0.506
307	-0.519
308	-0.521
308	-0.518
309	-0.52
309	-0.517
310	-0.514
310	-0.508
311	-0.494
311	-0.513
311	-0.5
312	-0.499
312	-0.488
313	-0.48
313	-0.482
314	-0.485
314	-0.482
315	-0.48
315	-0.475
316	-0.468
316	-0.457
317	-0.449
317	-0.447
318	-0.437
318	-0.434
318	-0.423
319	-0.413
319	-0.405
320	-0.4
320	-0.397
321	-0.395
321	-0.395
322	-0.39
322	-0.381
323	-0.384
323	-0.377
324	-0.374
324	-0.364
324	-0.354
325	-0.34
325	-0.324
326	-0.314
326	-0.29
327	-0.277
327	-0.256
328	-0.225
328	-0.202
329	-0.175
329	-0.149
330	-0.123
330	-0.089
330	-0.055
331	-0.021
331	0.01
332	0.041
332	0.071
333	0.097
333	0.128
334	0.154
334	0.177
335	0.2
335	0.219
336	0.238
336	0.255
336	0.269
337	0.284
337	0.299
338	0.311
338	0.319
339	0.33
339	0.339
340	0.345
340	0.352
341	0.358
341	0.363
342	0.369
342	0.374
342	0.377
343	0.38
343	0.384
344	0.385
344	0.388
345	0.39
345	0.393
346	0.394
346	0.395
347	0.397
347	0.398
348	0.399
348	0.4
348	0.401
349	0.401
349	0.402
350	0.403
350	0.403
351	0.403
351	0.404
352	0.404
352	0.404
353	0.404
353	0.404
354	0.405
354	0.405
354	0.404
355	0.404
355	0.404
356	0.404
356	0.404
357	0.404
357	0.404
358	0.403
358	0.403
359	0.403
359	0.403
360	0.402
360	0.403
360	0.403
361	0.403
361	0.402
362	0.402
362	0.402
363	0.402
363	0.402
364	0.402
364	0.401
365	0.401
365	0.401
366	0.4
366	0.4
366	0.4
367	0.4
367	0.399
368	0.399
368	0.398
369	0.398
369	0.397
370	0.397
370	0.397
371	0.397
371	0.396
372	0.396
372	0.396
372	0.395
373	0.395
373	0.395
374	0.395
374	0.394
375	0.393
375	0.393
376	0.393
376	0.392
377	0.392
377	0.391
378	0.39
378	0.39
378	0.389
379	0.389
379	0.389
380	0.389
380	0.389
381	0.388
381	0.388
382	0.387
382	0.387
383	0.387
383	0.386
383	0.386
384	0.385
384	0.385
385	0.384
385	0.384
386	0.383
386	0.383
387	0.382
387	0.382
388	0.382
388	0.381
389	0.381
389	0.381
389	0.38
390	0.38
390	0.379
391	0.379
391	0.378
392	0.378
392	0.378
393	0.377
393	0.377
394	0.376
394	0.376
394	0.376
395	0.375
395	0.375
396	0.374
396	0.374
397	0.373
397	0.373
398	0.372
398	0.372
399	0.371
399	0.371
400	0.37
400	0.37
400	0.37
401	0.369
401	0.369
402	0.368
402	0.368
403	0.368
403	0.367
404	0.367
404	0.366
405	0.366
405	0.365
405	0.365
406	0.364
406	0.364
407	0.364
407	0.363
408	0.363
408	0.362
409	0.362
409	0.362
410	0.362
410	0.362
411	0.362
411	0.362
411	0.361
412	0.361
412	0.36
413	0.36
413	0.36
414	0.359
414	0.359
415	0.359
415	0.358
416	0.358
416	0.358
416	0.357
417	0.357
417	0.357
418	0.357
418	0.357
419	0.356
419	0.356
420	0.356
420	0.356
421	0.356
421	0.356
421	0.355
422	0.355
422	0.355
423	0.355
423	0.355
424	0.355
424	0.354
425	0.354
425	0.354
426	0.354
426	0.354
427	0.354
427	0.354
427	0.353
428	0.353
428	0.353
429	0.353
429	0.352
430	0.352
430	0.352
431	0.351
431	0.351
432	0.351
432	0.351
432	0.351
433	0.351
433	0.351
434	0.351
434	0.351
435	0.351
435	0.351
436	0.351
436	0.351
437	0.351
437	0.351
437	0.351
438	0.351
438	0.351
439	0.351
439	0.351
440	0.351
440	0.351
441	0.351
441	0.35
442	0.35
442	0.35
442	0.35
443	0.35
443	0.35
444	0.351
444	0.351
445	0.351
445	0.351
446	0.351
446	0.351
447	0.351
447	0.351
447	0.351
448	0.351
448	0.351
449	0.351
449	0.351
450	0.351
450	0.351
451	0.351
451	0.351
452	0.351
452	0.351
452	0.352
453	0.352
453	0.352
454	0.352
454	0.353
455	0.353
455	0.354
456	0.354
456	0.354
457	0.354
457	0.354
458	0.355
458	0.355
458	0.355
459	0.355
459	0.355
460	0.355
460	0.355
461	0.356
461	0.356
462	0.357
462	0.358
463	0.358
463	0.359
463	0.36
464	0.36
464	0.361
465	0.361
465	0.362
466	0.362
466	0.363
467	0.363
467	0.364
467	0.364
468	0.364
468	0.365
469	0.366
469	0.366
470	0.367
470	0.368
471	0.369
471	0.37
472	0.37
472	0.371
472	0.372
473	0.374
473	0.375
474	0.376
474	0.377
475	0.378
475	0.379
476	0.38
476	0.381
477	0.382
477	0.383
477	0.384
478	0.385
478	0.387
479	0.388
479	0.39
480	0.391
480	0.392
481	0.394
481	0.396
482	0.397
482	0.399
482	0.401
483	0.403
483	0.405
484	0.407
484	0.408
485	0.41
485	0.412
486	0.414
486	0.416
487	0.417
487	0.419
487	0.421
488	0.422
488	0.424
489	0.426
489	0.429
490	0.432
490	0.434
491	0.437
491	0.439
492	0.442
492	0.444
492	0.447
493	0.449
493	0.452
494	0.455
494	0.458
495	0.461
495	0.464
496	0.467
496	0.47
496	0.473
497	0.476
497	0.479
498	0.483
498	0.486
499	0.489
499	0.493
500	0.497
500	0.501
501	0.504
501	0.508
501	0.511
502	0.514
502	0.518
503	0.521
503	0.525
504	0.528
504	0.531
505	0.535
505	0.539
506	0.542
506	0.546
506	0.55
507	0.554
507	0.557
508	0.561
508	0.565
509	0.569
509	0.573
510	0.577
510	0.58
511	0.584
511	0.587
511	0.591
512	0.594
512	0.598
513	0.601
513	0.604
514	0.608
514	0.612
515	0.615
515	0.617
515	0.62
516	0.623
516	0.626
517	0.629
517	0.631
518	0.634
518	0.636
519	0.637
519	0.639
520	0.641
520	0.644
520	0.646
521	0.647
521	0.649
522	0.651
522	0.653
523	0.654
523	0.655
524	0.657
524	0.658
524	0.659
525	0.66
525	0.66
526	0.661
526	0.661
527	0.661
527	0.661
528	0.661
528	0.661
529	0.66
529	0.659
529	0.658
530	0.658
530	0.657
531	0.655
531	0.654
532	0.652
532	0.651
533	0.65
533	0.648
533	0.646
534	0.644
534	0.642
535	0.639
535	0.637
536	0.635
536	0.632
537	0.629
537	0.626
538	0.623
538	0.62
538	0.617
539	0.614
539	0.61
540	0.607
540	0.603
541	0.599
541	0.595
542	0.591
542	0.587
542	0.583
543	0.579
543	0.574
544	0.57
544	0.566
545	0.562
545	0.558
546	0.553
546	0.548
547	0.543
547	0.538
547	0.533
548	0.529
548	0.524
549	0.519
549	0.515
550	0.51
550	0.504
551	0.499
551	0.493
551	0.488
552	0.483
552	0.478
553	0.472
553	0.468
554	0.462
554	0.457
555	0.451
555	0.446
556	0.441
556	0.435
556	0.43
557	0.425
557	0.421
558	0.415
558	0.41
559	0.405
559	0.4
560	0.395
560	0.391
560	0.387
561	0.383
561	0.379
562	0.375
562	0.371
563	0.367
563	0.362
564	0.358
564	0.354
564	0.35
565	0.346
565	0.343
566	0.338
566	0.334
567	0.33
567	0.326
568	0.322
568	0.317
568	0.313
569	0.308
569	0.304
570	0.299
570	0.295
571	0.291
571	0.287
572	0.283
572	0.279
573	0.275
573	0.271
573	0.268
574	0.265
574	0.262
575	0.258
575	0.256
576	0.253
576	0.249
577	0.246
577	0.243
577	0.241
578	0.239
578	0.237
579	0.235
579	0.233
580	0.229
580	0.226
581	0.222
581	0.22
581	0.218
582	0.216
582	0.214
583	0.212
583	0.208
584	0.204
584	0.2
585	0.197
585	0.195
585	0.192
586	0.189
586	0.187
587	0.184
587	0.181
588	0.179
588	0.177
589	0.175
589	0.173
590	0.171
590	0.169
590	0.169
591	0.167
591	0.165
592	0.163
592	0.161
593	0.16
593	0.158
594	0.156
594	0.155
594	0.153
595	0.152
595	0.15
596	0.148
596	0.148
597	0.147
597	0.145
598	0.144
598	0.142
598	0.141
599	0.14
599	0.138
600	0.137
600	0.135
601	0.135
601	0.133
602	0.132
602	0.131
602	0.129
603	0.128
603	0.127
604	0.126
604	0.125
605	0.124
605	0.124
606	0.122
606	0.12
606	0.119
607	0.117
607	0.117
608	0.115
608	0.114
609	0.113
609	0.112
610	0.11
610	0.109
610	0.108
611	0.107
611	0.106
612	0.105
612	0.105
613	0.104
613	0.103
614	0.102
614	0.101
614	0.1
615	0.099
615	0.098
616	0.097
616	0.096
617	0.095
617	0.094
618	0.093
618	0.092
618	0.091
619	0.091
619	0.091
620	0.091
620	0.09
621	0.089
621	0.089
622	0.088
622	0.087
622	0.086
623	0.085
623	0.085
624	0.085
624	0.083
625	0.083
625	0.082
626	0.081
626	0.08
626	0.08
627	0.08
627	0.079
628	0.078
628	0.077
629	0.076
629	0.075
630	0.073
630	0.072
630	0.072
631	0.071
631	0.07
632	0.069
632	0.068
633	0.068
633	0.067
634	0.067
634	0.066
634	0.065
635	0.064
635	0.063
636	0.062
636	0.061
637	0.06
637	0.059
638	0.058
638	0.057
638	0.056
639	0.054
639	0.053
640	0.052
640	0.051
641	0.05
641	0.048
642	0.047
642	0.046
642	0.045
643	0.044
643	0.042
644	0.041
644	0.039
645	0.038
645	0.036
646	0.034
646	0.032
646	0.029
647	0.026
647	0.023
648	0.02
648	0.017
649	0.014
649	0.012
650	0.008
650	0.006
650	0.003
651	-0.001
651	-0.006
652	-0.011
652	-0.017
653	-0.022
653	-0.027
653	-0.024
654	-0.017
654	-0.018
655	-0.021
655	-0.024
656	-0.027
656	-0.031
657	-0.034
657	-0.037
657	-0.04
658	-0.043
658	-0.061
659	-0.105
659	-0.148
660	-0.17
660	-0.184
661	-0.201
661	-0.218
661	-0.236
662	-0.25
662	-0.265
663	-0.283
663	-0.303
664	-0.321
664	-0.342
665	-0.364
665	-0.388
665	-0.41
666	-0.435
666	-0.464
667	-0.494
667	-0.53
668	-0.565
668	-0.612
669	-0.658
669	-0.708
669	-0.766
670	-0.832
670	-0.968
671	-1.225
671	-1.56
672	-1.965
672	-2.262
672	-2.443
673	-2.572
673	-2.605
674	-2.624
674	-2.633
675	-2.648
675	-2.652
676	-2.651
676	-2.629
676	-2.559
677	-2.412
677	-2.187
678	-1.63
678	-1.161
679	-0.997
679	-0.915
680	-0.857
680	-0.816
680	-0.782
681	-0.766
681	-0.737
682	-0.723
682	-0.701
683	-0.676
683	-0.674
684	-0.663
684	-0.659
684	-0.65
685	-0.645
685	-0.646
686	-0.632
686	-0.629
687	-0.626
687	-0.623
687	-0.631
688	-0.62
688	-0.62
689	-0.63
689	-0.632
690	-0.624
690	-0.621
691	-0.622
691	-0.627
691	-0.63
692	-0.634
692	-0.634
693	-0.644
693	-0.657
694	-0.641
694	-0.644
695	-0.646
695	-0.643
695	-0.653
696	-0.662
696	-0.658
697	-0.656
697	-0.654
698	-0.652
698	-0.645
698	-0.661
699	-0.658
699	-0.662
700	-0.68
700	-0.676
701	-0.665
701	-0.659
702	-0.658
702	-0.658
702	-0.658
703	-0.65
703	-0.638
704	-0.647
704	-0.653
705	-0.642
705	-0.642
705	-0.638
706	-0.632
706	-0.632
707	-0.642
707	-0.646
708	-0.643
708	-0.64
709	-0.645
709	-0.64
709	-0.636
710	-0.644
710	-0.648
711	-0.647
711	-0.645
712	-0.638
712	-0.635
713	-0.64
713	-0.643
713	-0.622
714	-0.627
714	-0.63
715	-0.623
715	-0.632
716	-0.648
716	-0.659
716	-0.66
717	-0.667
717	-0.659
718	-0.651
718	-0.653
719	-0.648
719	-0.641
720	-0.634
720	-0.631
720	-0.626
721	-0.617
721	-0.621
722	-0.619
722	-0.615
723	-0.632
723	-0.644
723	-0.653
724	-0.652
724	-0.661
725	-0.654
725	-0.657
726	-0.661
726	-0.652
727	-0.653
727	-0.664
727	-0.655
728	-0.644
728	-0.642
729	-0.645
729	-0.647
730	-0.652
730	-0.645
730	-0.649
731	-0.651
731	-0.651
732	-0.649
732	-0.648
733	-0.661
733	-0.668
734	-0.674
734	-0.666
734	-0.65
735	-0.638
735	-0.634
736	-0.634
736	-0.63
737	-0.631
737	-0.617
737	-0.61
738	-0.596
738	-0.588
739	-0.591
739	-0.594
740	-0.611
740	-0.611
741	-0.623
741	-0.632
741	-0.643
742	-0.652
742	-0.67
743	-0.676
743	-0.678
744	-0.679
744	-0.686
744	-0.678
745	-0.686
745	-0.675
746	-0.671
746	-0.661
747	-0.663
747	-0.652
748	-0.653
748	-0.657
748	-0.661
749	-0.653
749	-0.66
750	-0.651
750	-0.651
751	-0.651
751	-0.651
751	-0.663
752	-0.667
752	-0.669
753	-0.672
753	-0.665
754	-0.684
754	-0.684
754	-0.69
755	-0.689
755	-0.682
756	-0.682
756	-0.668
757	-0.659
757	-0.649
758	-0.649
758	-0.645
758	-0.641
759	-0.645
759	-0.644
760	-0.647
760	-0.647
761	-0.643
761	-0.646
761	-0.646
762	-0.655
762	-0.655
763	-0.657
763	-0.661
764	-0.66
764	-0.657
764	-0.661
765	-0.66
765	-0.665
766	-0.67
766	-0.671
767	-0.682
767	-0.677
768	-0.676
768	-0.669
768	-0.664
769	-0.668
769	-0.674
770	-0.683
770	-0.688
771	-0.684
771	-0.681
771	-0.688
772	-0.691
772	-0.713
773	-0.712
773	-0.712
774	-0.708
774	-0.692
775	-0.681
775	-0.681
775	-0.684
776	-0.696
776	-0.692
777	-0.691
777	-0.672
778	-0.681
778	-0.69
778	-0.691
779	-0.698
779	-0.712
780	-0.706
780	-0.714
781	-0.705
781	-0.694
781	-0.707
782	-0.727
782	-0.729
783	-0.728
783	-0.736
784	-0.738
784	-0.733
784	-0.754
785	-0.748
785	-0.759
786	-0.764
786	-0.758
787	-0.75
787	-0.758
788	-0.751
788	-0.744
788	-0.747
789	-0.745
789	-0.736
790	-0.733
790	-0.718
791	-0.726
791	-0.721
791	-0.715
792	-0.709
792	-0.716
793	-0.719
793	-0.708
794	-0.703
794	-0.697
794	-0.706
795	-0.726
795	-0.711
796	-0.717
796	-0.713
797	-0.707
797	-0.693
797	-0.687
798	-0.708
798	-0.712
799	-0.71
799	-0.695
800	-0.691
800	-0.7
801	-0.699
801	-0.703
801	-0.702
802	-0.701
802	-0.702
803	-0.696
803	-0.686
804	-0.692
804	-0.702
804	-0.686
805	-0.668
805	-0.657
806	-0.658
806	-0.654
807	-0.655
807	-0.653
807	-0.636
808	-0.633
808	-0.626
809	-0.623
809	-0.627
810	-0.629
810	-0.628
810	-0.626
811	-0.628
811	-0.622
812	-0.616
812	-0.617
813	-0.622
813	-0.624
813	-0.617
814	-0.615
814	-0.621
815	-0.61
815	-0.605
816	-0.601
816	-0.617
817	-0.629
817	-0.634
817	-0.645
818	-0.637
818	-0.637
819	-0.646
819	-0.644
820	-0.656
820	-0.656
820	-0.655
821	-0.651
821	-0.648
822	-0.646
822	-0.635
823	-0.646
823	-0.643
823	-0.639
824	-0.638
824	-0.648
825	-0.647
825	-0.644
826	-0.641
826	-0.635
826	-0.636
827	-0.635
827	-0.624
828	-0.624
828	-0.62
829	-0.615
829	-0.602
829	-0.6
830	-0.599
830	-0.583
831	-0.577
831	-0.568
832	-0.561
832	-0.557
832	-0.551
833	-0.55
833	-0.555
834	-0.552
834	-0.547
835	-0.541
835	-0.542
835	-0.538
836	-0.534
836	-0.529
837	-0.521
837	-0.513
838	-0.501
838	-0.485
839	-0.481
839	-0.469
839	-0.462
840	-0.461
840	-0.452
841	-0.441
841	-0.437
842	-0.43
842	-0.419
842	-0.417
843	-0.413
843	-0.408
844	-0.405
844	-0.394
845	-0.381
845	-0.372
845	-0.364
846	-0.353
846	-0.344
847	-0.336
847	-0.325
848	-0.314
848	-0.3
848	-0.291
849	-0.282
849	-0.273
850	-0.266
850	-0.258
851	-0.25
851	-0.238
851	-0.232
852	-0.221
852	-0.21
853	-0.205
853	-0.196
854	-0.188
854	-0.18
854	-0.173
855	-0.164
855	-0.158
856	-0.151
856	-0.145
857	-0.139
857	-0.132
857	-0.123
858	-0.116
858	-0.111
859	-0.103
859	-0.095
860	-0.089
860	-0.078
860	-0.071
861	-0.065
861	-0.058
862	-0.054
862	-0.05
863	-0.044
863	-0.039
863	-0.035
864	-0.031
864	-0.028
865	-0.023
865	-0.02
866	-0.016
866	-0.013
866	-0.01
867	-0.006
867	-0.003
868	-0.001
868	0.003
869	0.006
869	0.008
869	0.01
870	0.012
870	0.014
871	0.015
871	0.016
872	0.017
872	0.017
872	0.018
873	0.018
873	0.017
874	0.017
874	0.016
875	0.016
875	0.015
875	0.015
876	0.014
876	0.014
877	0.013
877	0.012
878	0.011
878	0.01
878	0.01
879	0.009
879	0.009
880	0.008
880	0.007
881	0.007
881	0.007
881	0.007
882	0.006
882	0.006
883	0.006
883	0.006
884	0.006
884	0.006
884	0.005
885	0.005
885	0.004
886	0.004
886	0.003
887	0.002
887	0.001
887	-0
888	-0.001
888	-0.002
889	-0.003
889	-0.003
890	-0.004
890	-0.004
890	-0.005
891	-0.004
891	-0.004
892	-0.003
892	-0.003
893	-0.002
893	-0.002
893	-0.002
894	-0.001
894	-0.001
895	-0.001
895	-0.001
895	-0.001
896	-0.001
896	-0
897	-0
897	-0
898	-0
898	0
898	0.001
899	0.001
899	0.001
900	0.001
900	0.002
901	0.002
901	0.002
901	0.002
902	0.001
902	0.002
903	0.001
903	0.001
904	0
904	-0
904	-0
905	-0
905	-0
906	-0
906	0
907	0.001
907	0.001
907	0.001
908	0.002
908	0.003
909	0.004
909	0.004
910	0.005
910	0.005
910	0.006
911	0.007
911	0.008
912	0.009
912	0.011
913	0.012
913	0.013
913	0.014
914	0.015
914	0.015
915	0.015
915	0.015
916	0.015
916	0.014
916	0.013
917	0.012
917	0.011
918	0.011
918	0.01
918	0.01
919	0.009
919	0.009
920	0.009
920	0.009
921	0.009
921	0.009
921	0.009
922	0.01
922	0.01
923	0.009
923	0.009
924	0.009
924	0.009
924	0.009
925	0.008
925	0.008
926	0.007
926	0.007
927	0.007
927	0.007
927	0.007
928	0.007
928	0.007
929	0.008
929	0.008
930	0.009
930	0.01
930	0.011
931	0.012
931	0.013
932	0.014
932	0.015
933	0.016
933	0.017
933	0.017
934	0.017
934	0.017
935	0.017
935	0.016
935	0.015
936	0.014
936	0.012
937	0.011
937	0.01
938	0.008
938	0.006
938	0.005
939	0.004
939	0.004
940	0.003
940	0.003
941	0.003
941	0.003
941	0.003
942	0.002
942	0.002
943	0.003
943	0.003
944	0.003
944	0.003
944	0.003
945	0.003
945	0.003
946	0.002
946	0.002
946	0.001
947	0.001
947	0
948	-0
948	-0.001
949	-0.001
949	-0.002
949	-0.002
950	-0.002
950	-0.001
951	-0.001
951	-0
952	0
952	0.001
952	0.002
953	0.002
953	0.003
954	0.004
954	0.004
955	0.004
955	0.003
955	0.003
956	0.003
956	0.003
957	0.002
957	0.001
957	0
958	-0
958	-0.001
959	-0.001
959	-0.001
960	-0.001
960	-0.001
960	-0.001
961	-0.002
961	-0.001
962	-0.001
962	-0.001
963	-0.001
963	-0.001
963	-0.001
964	-0.001
964	-0.001
965	-0.001
965	-0
966	-0
966	0
966	0.001
967	0.001
967	0.002
968	0.002
968	0.002
968	0.002
969	0.002
969	0.001
970	-0
970	-0.001
971	-0.002
971	-0.002
971	-0.003
972	-0.003
972	-0.003
973	-0.003
973	-0.003
974	-0.003
974	-0.002
974	-0.001
975	0
975	0.002
976	0.003
976	0.004
976	0.004
977	0.005
977	0.005
978	0.005
978	0.005
979	0.005
979	0.004
979	0.004
980	0.004
980	0.003
981	0.002
981	0.002
982	0.002
982	0.002
982	0.002
983	0.002
983	0.002
984	0.002
984	0.002
984	0.002
985	0.002
985	0.002
986	0.002
986	0.001
987	0.001
987	0.001
987	0
988	0
988	0
989	-0
989	-0.001
990	-0.001
990	-0.002
990	-0.002
991	-0.003
991	-0.003
992	-0.003
992	-0.003
992	-0.003
993	-0.003
993	-0.004
994	-0.004
994	-0.004
995	-0.004
995	-0.005
995	-0.005
996	-0.005
996	-0.006
997	-0.006
997	-0.007
997	-0.007
998	-0.006
998	-0.006
999	-0.005
999	-0.005
1000	-0.005
1000	-0.005
1000	-0.005
1001	-0.005
1001	-0.004
1002	-0.004
1002	-0.004
1003	-0.004
1003	-0.004
1003	-0.004
1004	-0.005
1004	-0.005
1005	-0.006
1005	-0.006
1005	-0.007
1006	-0.008
1006	-0.009
1007	-0.009
1007	-0.01
1008	-0.011
1008	-0.011
1008	-0.011
1009	-0.011
1009	-0.011
1010	-0.011
1010	-0.011
1010	-0.01
1011	-0.01
1011	-0.009
1012	-0.009
1012	-0.008
1013	-0.008
1013	-0.007
1013	-0.007
1014	-0.007
1014	-0.006
1015	-0.006
1015	-0.005
1016	-0.005
1016	-0.005
1016	-0.004
1017	-0.005
1017	-0.004
1018	-0.004
1018	-0.004
1018	-0.004
1019	-0.004
1019	-0.004
1020	-0.004
1020	-0.005
1021	-0.005
1021	-0.006
1021	-0.006
1022	-0.007
1022	-0.008
1023	-0.008
1023	-0.009
1023	-0.01
1024	-0.011
1024	-0.012
1025	-0.013
1025	-0.013
1026	-0.014
1026	-0.014
1026	-0.015
1027	-0.015
1027	-0.016
1028	-0.015
1028	-0.015
1028	-0.015
1029	-0.015
1029	-0.015
1030	-0.015
1030	-0.015
1031	-0.015
1031	-0.015
1031	-0.015
1032	-0.015
1032	-0.015
1033	-0.016
1033	-0.016
1033	-0.016
1034	-0.016
1034	-0.016
1035	-0.016
1035	-0.016
1036	-0.016
1036	-0.016
1036	-0.015
1037	-0.014
1037	-0.014
1038	-0.014
1038	-0.013
1039	-0.012
1039	-0.011
1039	-0.011
1040	-0.011
1040	-0.01
1041	-0.01
1041	-0.011
1041	-0.011
1042	-0.012
1042	-0.013
1043	-0.013
1043	-0.014
1044	-0.015
1044	-0.016
1044	-0.017
1045	-0.018
1045	-0.019
1046	-0.02
1046	-0.02
1046	-0.02
1047	-0.02
1047	-0.02
1048	-0.02
1048	-0.021
1049	-0.021
1049	-0.021
1049	-0.022
1050	-0.022
1050	-0.023
1051	-0.024
1051	-0.024
1051	-0.025
1052	-0.026
1052	-0.026
1053	-0.026
1053	-0.026
1053	-0.026
1054	-0.026
1054	-0.026
1055	-0.026
1055	-0.025
1056	-0.026
1056	-0.026
1056	-0.026
1057	-0.027
1057	-0.027
1058	-0.028
1058	-0.028
1058	-0.028
1059	-0.028
1059	-0.029
1060	-0.029
1060	-0.028
1061	-0.028
1061	-0.028
1061	-0.027
1062	-0.027
1062	-0.027
1063	-0.027
1063	-0.028
1063	-0.028
1064	-0.028
1064	-0.028
1065	-0.028
1065	-0.028
1066	-0.028
1066	-0.028
1066	-0.028
1067	-0.028
1067	-0.029
1068	-0.029
1068	-0.029
1068	-0.029
1069	-0.03
1069	-0.031
1070	-0.031
1070	-0.032
1071	-0.032
1071	-0.032
1071	-0.032
1072	-0.032
1072	-0.032
1073	-0.031
1073	-0.031
1073	-0.031
1074	-0.03
1074	-0.03
1075	-0.03
1075	-0.03
1076	-0.03
1076	-0.03
1076	-0.031
1077	-0.032
1077	-0.033
1078	-0.034
1078	-0.034
1078	-0.035
1079	-0.035
1079	-0.035
1080	-0.036
1080	-0.036
1080	-0.037
1081	-0.037
1081	-0.038
1082	-0.038
1082	-0.039
1083	-0.04
1083	-0.04
1083	-0.041
1084	-0.042
1084	-0.042
1085	-0.042
1085	-0.043
1085	-0.043
1086	-0.043
1086	-0.044
1087	-0.044
1087	-0.044
1088	-0.045
1088	-0.046
1088	-0.046
1089	-0.047
1089	-0.048
1090	-0.049
1090	-0.049
1090	-0.05
1091	-0.051
1091	-0.052
1092	-0.053
1092	-0.053
1092	-0.054
1093	-0.054
1093	-0.054
1094	-0.055
1094	-0.056
1095	-0.057
1095	-0.057
1095	-0.058
1096	-0.059
1096	-0.06
1097	-0.061
1097	-0.062
1097	-0.063
1098	-0.064
1098	-0.065
1099	-0.066
1099	-0.067
1100	-0.068
1100	-0.069
1100	-0.071
1101	-0.074
1101	-0.075
1102	-0.076
1102	-0.079
1102	-0.079
1103	-0.082
1103	-0.085
1104	-0.088
1104	-0.09
1104	-0.091
1105	-0.093
1105	-0.095
1106	-0.099
1106	-0.1
1107	-0.105
1107	-0.109
1107	-0.112
1108	-0.112
1108	-0.113
1109	-0.117
1109	-0.121
1109	-0.123
1110	-0.124
1110	-0.128
1111	-0.137
1111	-0.132
