Data from 3.5A_17C_Absorbance__457__00459.txt Node

Date: Tue Jun 20 15:12:55 CEST 2023
User: Marek
Spectrometer: MAYP115816
Trigger mode: 0
Integration Time (sec): 2.200000E-1
Scans to average: 10
Electric dark correction enabled: true
Nonlinearity correction enabled: true
Boxcar width: 5
XAxis mode: Wavelengths
Number of Pixels in Spectrum: 2068
>>>>>Begin Spectral Data<<<<<
199	-0.643
199	-0.63
200	-0.604
200	-0.55
201	-0.522
201	-0.512
202	-0.497
202	-0.491
203	-0.49
203	-0.481
204	-0.464
204	-0.447
205	-0.425
205	-0.413
205	-0.421
206	-0.421
206	-0.418
207	-0.409
207	-0.414
208	-0.416
208	-0.423
209	-0.424
209	-0.43
210	-0.44
210	-0.446
211	-0.44
211	-0.446
212	-0.456
212	-0.464
213	-0.459
213	-0.454
213	-0.453
214	-0.46
214	-0.462
215	-0.46
215	-0.467
216	-0.476
216	-0.481
217	-0.478
217	-0.478
218	-0.488
218	-0.489
219	-0.494
219	-0.496
220	-0.501
220	-0.508
221	-0.509
221	-0.51
221	-0.502
222	-0.502
222	-0.502
223	-0.498
223	-0.5
224	-0.501
224	-0.499
225	-0.495
225	-0.495
226	-0.494
226	-0.493
227	-0.502
227	-0.51
228	-0.513
228	-0.521
229	-0.525
229	-0.523
229	-0.524
230	-0.521
230	-0.519
231	-0.517
231	-0.511
232	-0.513
232	-0.507
233	-0.506
233	-0.496
234	-0.495
234	-0.489
235	-0.493
235	-0.503
236	-0.509
236	-0.511
236	-0.512
237	-0.508
237	-0.508
238	-0.509
238	-0.509
239	-0.513
239	-0.524
240	-0.519
240	-0.516
241	-0.512
241	-0.512
242	-0.517
242	-0.527
243	-0.53
243	-0.529
243	-0.533
244	-0.528
244	-0.526
245	-0.526
245	-0.528
246	-0.539
246	-0.544
247	-0.549
247	-0.535
248	-0.534
248	-0.539
249	-0.545
249	-0.549
250	-0.55
250	-0.558
250	-0.556
251	-0.554
251	-0.548
252	-0.55
252	-0.562
253	-0.556
253	-0.567
254	-0.569
254	-0.57
255	-0.579
255	-0.577
256	-0.58
256	-0.592
257	-0.602
257	-0.599
258	-0.599
258	-0.606
258	-0.603
259	-0.597
259	-0.614
260	-0.616
260	-0.605
261	-0.615
261	-0.602
262	-0.605
262	-0.602
263	-0.594
263	-0.6
264	-0.609
264	-0.61
265	-0.598
265	-0.599
265	-0.609
266	-0.601
266	-0.601
267	-0.601
267	-0.616
268	-0.622
268	-0.615
269	-0.607
269	-0.623
270	-0.627
270	-0.625
271	-0.638
271	-0.647
272	-0.649
272	-0.654
272	-0.648
273	-0.661
273	-0.676
274	-0.668
274	-0.66
275	-0.659
275	-0.647
276	-0.651
276	-0.659
277	-0.659
277	-0.657
278	-0.664
278	-0.662
278	-0.653
279	-0.657
279	-0.672
280	-0.672
280	-0.685
281	-0.677
281	-0.669
282	-0.675
282	-0.668
283	-0.656
283	-0.671
284	-0.685
284	-0.697
285	-0.676
285	-0.68
285	-0.668
286	-0.674
286	-0.687
287	-0.681
287	-0.681
288	-0.682
288	-0.664
289	-0.662
289	-0.669
290	-0.679
290	-0.671
291	-0.675
291	-0.674
292	-0.656
292	-0.655
292	-0.66
293	-0.648
293	-0.643
294	-0.643
294	-0.633
295	-0.614
295	-0.627
296	-0.64
296	-0.633
297	-0.62
297	-0.624
298	-0.62
298	-0.636
298	-0.638
299	-0.62
299	-0.612
300	-0.61
300	-0.59
301	-0.569
301	-0.574
302	-0.586
302	-0.572
303	-0.566
303	-0.555
304	-0.541
304	-0.545
305	-0.536
305	-0.543
305	-0.558
306	-0.545
306	-0.542
307	-0.532
307	-0.543
308	-0.545
308	-0.542
309	-0.543
309	-0.539
310	-0.536
310	-0.531
311	-0.518
311	-0.537
311	-0.524
312	-0.521
312	-0.509
313	-0.501
313	-0.502
314	-0.504
314	-0.504
315	-0.498
315	-0.496
316	-0.493
316	-0.481
317	-0.474
317	-0.473
318	-0.466
318	-0.463
318	-0.452
319	-0.443
319	-0.435
320	-0.436
320	-0.431
321	-0.424
321	-0.423
322	-0.419
322	-0.411
323	-0.412
323	-0.406
324	-0.402
324	-0.39
324	-0.377
325	-0.363
325	-0.347
326	-0.339
326	-0.315
327	-0.301
327	-0.279
328	-0.247
328	-0.225
329	-0.199
329	-0.175
330	-0.151
330	-0.116
330	-0.08
331	-0.045
331	-0.014
332	0.019
332	0.049
333	0.077
333	0.108
334	0.136
334	0.159
335	0.183
335	0.203
336	0.222
336	0.241
336	0.256
337	0.271
337	0.287
338	0.298
338	0.307
339	0.319
339	0.329
340	0.336
340	0.343
341	0.348
341	0.353
342	0.36
342	0.364
342	0.368
343	0.371
343	0.376
344	0.378
344	0.38
345	0.383
345	0.386
346	0.388
346	0.389
347	0.391
347	0.392
348	0.393
348	0.394
348	0.395
349	0.395
349	0.396
350	0.396
350	0.397
351	0.397
351	0.397
352	0.397
352	0.397
353	0.397
353	0.397
354	0.398
354	0.397
354	0.397
355	0.397
355	0.396
356	0.397
356	0.396
357	0.396
357	0.397
358	0.396
358	0.396
359	0.396
359	0.396
360	0.396
360	0.396
360	0.396
361	0.396
361	0.396
362	0.396
362	0.396
363	0.396
363	0.395
364	0.395
364	0.395
365	0.395
365	0.394
366	0.394
366	0.394
366	0.394
367	0.394
367	0.393
368	0.393
368	0.392
369	0.392
369	0.392
370	0.392
370	0.391
371	0.391
371	0.391
372	0.39
372	0.39
372	0.39
373	0.389
373	0.389
374	0.389
374	0.388
375	0.388
375	0.387
376	0.387
376	0.386
377	0.386
377	0.386
378	0.385
378	0.385
378	0.384
379	0.384
379	0.384
380	0.384
380	0.383
381	0.383
381	0.382
382	0.382
382	0.382
383	0.381
383	0.381
383	0.38
384	0.38
384	0.379
385	0.379
385	0.378
386	0.378
386	0.377
387	0.377
387	0.377
388	0.376
388	0.376
389	0.376
389	0.376
389	0.375
390	0.375
390	0.374
391	0.374
391	0.374
392	0.373
392	0.373
393	0.372
393	0.372
394	0.371
394	0.371
394	0.37
395	0.37
395	0.369
396	0.369
396	0.368
397	0.368
397	0.367
398	0.366
398	0.366
399	0.366
399	0.365
400	0.365
400	0.365
400	0.364
401	0.364
401	0.363
402	0.363
402	0.363
403	0.363
403	0.362
404	0.362
404	0.361
405	0.361
405	0.36
405	0.36
406	0.359
406	0.359
407	0.359
407	0.358
408	0.358
408	0.358
409	0.358
409	0.358
410	0.357
410	0.357
411	0.357
411	0.357
411	0.357
412	0.356
412	0.356
413	0.355
413	0.355
414	0.355
414	0.354
415	0.354
415	0.353
416	0.353
416	0.353
416	0.353
417	0.352
417	0.352
418	0.352
418	0.352
419	0.352
419	0.352
420	0.351
420	0.351
421	0.351
421	0.351
421	0.351
422	0.351
422	0.351
423	0.35
423	0.35
424	0.35
424	0.349
425	0.349
425	0.349
426	0.349
426	0.349
427	0.349
427	0.349
427	0.349
428	0.349
428	0.348
429	0.348
429	0.348
430	0.348
430	0.347
431	0.347
431	0.347
432	0.347
432	0.346
432	0.346
433	0.346
433	0.346
434	0.346
434	0.346
435	0.347
435	0.347
436	0.346
436	0.346
437	0.346
437	0.346
437	0.346
438	0.346
438	0.346
439	0.346
439	0.346
440	0.346
440	0.346
441	0.346
441	0.346
442	0.346
442	0.346
442	0.346
443	0.346
443	0.346
444	0.346
444	0.346
445	0.346
445	0.346
446	0.346
446	0.346
447	0.346
447	0.347
447	0.346
448	0.346
448	0.346
449	0.346
449	0.346
450	0.346
450	0.346
451	0.346
451	0.346
452	0.346
452	0.346
452	0.347
453	0.347
453	0.347
454	0.347
454	0.347
455	0.348
455	0.348
456	0.349
456	0.349
457	0.349
457	0.349
458	0.349
458	0.349
458	0.35
459	0.35
459	0.35
460	0.35
460	0.35
461	0.35
461	0.351
462	0.352
462	0.352
463	0.353
463	0.354
463	0.354
464	0.355
464	0.355
465	0.356
465	0.357
466	0.357
466	0.358
467	0.358
467	0.358
467	0.358
468	0.358
468	0.359
469	0.36
469	0.361
470	0.362
470	0.362
471	0.363
471	0.364
472	0.365
472	0.365
472	0.366
473	0.368
473	0.369
474	0.37
474	0.371
475	0.372
475	0.373
476	0.374
476	0.375
477	0.376
477	0.377
477	0.378
478	0.379
478	0.38
479	0.382
479	0.383
480	0.384
480	0.386
481	0.387
481	0.389
482	0.39
482	0.392
482	0.394
483	0.396
483	0.398
484	0.4
484	0.402
485	0.404
485	0.405
486	0.407
486	0.409
487	0.41
487	0.412
487	0.414
488	0.415
488	0.417
489	0.419
489	0.422
490	0.424
490	0.427
491	0.429
491	0.432
492	0.434
492	0.437
492	0.439
493	0.441
493	0.444
494	0.447
494	0.45
495	0.452
495	0.455
496	0.457
496	0.461
496	0.464
497	0.467
497	0.47
498	0.473
498	0.476
499	0.48
499	0.483
500	0.487
500	0.491
501	0.494
501	0.497
501	0.5
502	0.504
502	0.507
503	0.511
503	0.514
504	0.517
504	0.52
505	0.524
505	0.528
506	0.532
506	0.536
506	0.54
507	0.543
507	0.547
508	0.551
508	0.555
509	0.559
509	0.562
510	0.566
510	0.569
511	0.573
511	0.576
511	0.579
512	0.583
512	0.586
513	0.589
513	0.592
514	0.595
514	0.599
515	0.602
515	0.605
515	0.608
516	0.611
516	0.614
517	0.617
517	0.619
518	0.621
518	0.623
519	0.625
519	0.627
520	0.629
520	0.631
520	0.633
521	0.634
521	0.636
522	0.637
522	0.639
523	0.641
523	0.642
524	0.643
524	0.644
524	0.645
525	0.646
525	0.646
526	0.647
526	0.648
527	0.648
527	0.649
528	0.648
528	0.648
529	0.648
529	0.647
529	0.646
530	0.646
530	0.644
531	0.643
531	0.642
532	0.64
532	0.639
533	0.638
533	0.636
533	0.634
534	0.632
534	0.63
535	0.628
535	0.626
536	0.624
536	0.621
537	0.618
537	0.616
538	0.613
538	0.609
538	0.606
539	0.604
539	0.601
540	0.597
540	0.593
541	0.589
541	0.586
542	0.582
542	0.578
542	0.574
543	0.57
543	0.566
544	0.562
544	0.558
545	0.554
545	0.55
546	0.546
546	0.541
547	0.536
547	0.531
547	0.527
548	0.523
548	0.518
549	0.513
549	0.509
550	0.504
550	0.499
551	0.494
551	0.489
551	0.483
552	0.478
552	0.473
553	0.468
553	0.464
554	0.459
554	0.454
555	0.449
555	0.444
556	0.439
556	0.434
556	0.429
557	0.424
557	0.42
558	0.415
558	0.41
559	0.405
559	0.4
560	0.395
560	0.391
560	0.387
561	0.384
561	0.38
562	0.376
562	0.372
563	0.368
563	0.364
564	0.36
564	0.356
564	0.352
565	0.348
565	0.345
566	0.34
566	0.337
567	0.333
567	0.329
568	0.325
568	0.321
568	0.317
569	0.312
569	0.308
570	0.304
570	0.299
571	0.296
571	0.292
572	0.288
572	0.284
573	0.28
573	0.277
573	0.273
574	0.27
574	0.267
575	0.264
575	0.262
576	0.259
576	0.255
577	0.252
577	0.249
577	0.247
578	0.245
578	0.243
579	0.242
579	0.24
580	0.236
580	0.233
581	0.229
581	0.227
581	0.225
582	0.223
582	0.221
583	0.219
583	0.216
584	0.212
584	0.208
585	0.205
585	0.203
585	0.2
586	0.198
586	0.195
587	0.192
587	0.189
588	0.186
588	0.184
589	0.182
589	0.18
590	0.179
590	0.177
590	0.176
591	0.175
591	0.172
592	0.17
592	0.168
593	0.167
593	0.166
594	0.164
594	0.162
594	0.161
595	0.16
595	0.158
596	0.156
596	0.155
597	0.155
597	0.153
598	0.152
598	0.15
598	0.149
599	0.148
599	0.146
600	0.145
600	0.143
601	0.142
601	0.141
602	0.139
602	0.138
602	0.136
603	0.135
603	0.135
604	0.134
604	0.133
605	0.132
605	0.131
606	0.129
606	0.128
606	0.127
607	0.125
607	0.125
608	0.123
608	0.122
609	0.121
609	0.12
610	0.118
610	0.117
610	0.116
611	0.115
611	0.114
612	0.113
612	0.113
613	0.112
613	0.112
614	0.11
614	0.109
614	0.108
615	0.107
615	0.106
616	0.105
616	0.104
617	0.103
617	0.102
618	0.101
618	0.1
618	0.099
619	0.098
619	0.098
620	0.098
620	0.097
621	0.097
621	0.096
622	0.095
622	0.094
622	0.093
623	0.092
623	0.092
624	0.092
624	0.09
625	0.09
625	0.089
626	0.088
626	0.087
626	0.087
627	0.086
627	0.086
628	0.085
628	0.084
629	0.082
629	0.081
630	0.08
630	0.078
630	0.078
631	0.077
631	0.075
632	0.074
632	0.073
633	0.073
633	0.072
634	0.071
634	0.07
634	0.07
635	0.069
635	0.068
636	0.067
636	0.066
637	0.064
637	0.063
638	0.062
638	0.061
638	0.059
639	0.058
639	0.056
640	0.055
640	0.053
641	0.052
641	0.05
642	0.049
642	0.048
642	0.046
643	0.044
643	0.042
644	0.041
644	0.038
645	0.036
645	0.034
646	0.032
646	0.029
646	0.025
647	0.022
647	0.019
648	0.015
648	0.012
649	0.008
649	0.005
650	0.002
650	-0.001
650	-0.005
651	-0.009
651	-0.014
652	-0.021
652	-0.027
653	-0.034
653	-0.039
653	-0.035
654	-0.027
654	-0.027
655	-0.031
655	-0.033
656	-0.036
656	-0.04
657	-0.043
657	-0.046
657	-0.049
658	-0.053
658	-0.072
659	-0.12
659	-0.167
660	-0.189
660	-0.206
661	-0.224
661	-0.243
661	-0.262
662	-0.279
662	-0.298
663	-0.318
663	-0.34
664	-0.361
664	-0.386
665	-0.413
665	-0.44
665	-0.465
666	-0.494
666	-0.529
667	-0.561
667	-0.602
668	-0.641
668	-0.69
669	-0.74
669	-0.794
669	-0.854
670	-0.921
670	-1.024
671	-1.204
671	-1.564
672	-2.023
672	-2.293
672	-2.464
673	-2.589
673	-2.646
674	-2.669
674	-2.679
675	-2.694
675	-2.699
676	-2.701
676	-2.68
676	-2.602
677	-2.473
677	-2.288
678	-1.917
678	-1.39
679	-1.133
679	-1.03
680	-0.959
680	-0.91
680	-0.869
681	-0.846
681	-0.816
682	-0.796
682	-0.769
683	-0.743
683	-0.735
684	-0.722
684	-0.713
684	-0.704
685	-0.697
685	-0.698
686	-0.683
686	-0.677
687	-0.672
687	-0.669
687	-0.675
688	-0.666
688	-0.664
689	-0.674
689	-0.673
690	-0.664
690	-0.657
691	-0.658
691	-0.665
691	-0.668
692	-0.672
692	-0.671
693	-0.678
693	-0.689
694	-0.672
694	-0.675
695	-0.679
695	-0.675
695	-0.685
696	-0.692
696	-0.686
697	-0.682
697	-0.681
698	-0.68
698	-0.674
698	-0.691
699	-0.69
699	-0.693
700	-0.715
700	-0.71
701	-0.699
701	-0.696
702	-0.696
702	-0.695
702	-0.697
703	-0.688
703	-0.675
704	-0.683
704	-0.686
705	-0.675
705	-0.674
705	-0.669
706	-0.662
706	-0.659
707	-0.672
707	-0.674
708	-0.673
708	-0.672
709	-0.675
709	-0.67
709	-0.667
710	-0.675
710	-0.68
711	-0.681
711	-0.683
712	-0.674
712	-0.671
713	-0.676
713	-0.678
713	-0.657
714	-0.661
714	-0.664
715	-0.658
715	-0.664
716	-0.68
716	-0.687
716	-0.689
717	-0.696
717	-0.687
718	-0.683
718	-0.684
719	-0.68
719	-0.673
720	-0.665
720	-0.66
720	-0.654
721	-0.648
721	-0.651
722	-0.649
722	-0.645
723	-0.662
723	-0.674
723	-0.68
724	-0.68
724	-0.687
725	-0.682
725	-0.687
726	-0.69
726	-0.682
727	-0.683
727	-0.693
727	-0.684
728	-0.669
728	-0.668
729	-0.669
729	-0.672
730	-0.678
730	-0.668
730	-0.673
731	-0.675
731	-0.675
732	-0.677
732	-0.672
733	-0.69
733	-0.695
734	-0.704
734	-0.694
734	-0.677
735	-0.668
735	-0.664
736	-0.664
736	-0.659
737	-0.656
737	-0.647
737	-0.639
738	-0.624
738	-0.612
739	-0.617
739	-0.617
740	-0.632
740	-0.633
741	-0.643
741	-0.652
741	-0.662
742	-0.667
742	-0.682
743	-0.691
743	-0.693
744	-0.697
744	-0.705
744	-0.699
745	-0.707
745	-0.699
746	-0.694
746	-0.686
747	-0.69
747	-0.678
748	-0.68
748	-0.686
748	-0.686
749	-0.679
749	-0.684
750	-0.675
750	-0.674
751	-0.674
751	-0.672
751	-0.685
752	-0.691
752	-0.693
753	-0.694
753	-0.686
754	-0.705
754	-0.706
754	-0.712
755	-0.713
755	-0.704
756	-0.706
756	-0.69
757	-0.683
757	-0.672
758	-0.671
758	-0.67
758	-0.665
759	-0.672
759	-0.672
760	-0.67
760	-0.673
761	-0.668
761	-0.674
761	-0.674
762	-0.682
762	-0.683
763	-0.684
763	-0.687
764	-0.686
764	-0.682
764	-0.689
765	-0.687
765	-0.693
766	-0.694
766	-0.697
767	-0.713
767	-0.708
768	-0.707
768	-0.697
768	-0.691
769	-0.692
769	-0.7
770	-0.71
770	-0.714
771	-0.709
771	-0.706
771	-0.71
772	-0.713
772	-0.733
773	-0.733
773	-0.733
774	-0.732
774	-0.713
775	-0.701
775	-0.701
775	-0.705
776	-0.714
776	-0.707
777	-0.708
777	-0.692
778	-0.701
778	-0.709
778	-0.709
779	-0.718
779	-0.734
780	-0.728
780	-0.737
781	-0.725
781	-0.715
781	-0.729
782	-0.748
782	-0.75
783	-0.749
783	-0.757
784	-0.76
784	-0.753
784	-0.772
785	-0.767
785	-0.781
786	-0.786
786	-0.781
787	-0.771
787	-0.781
788	-0.772
788	-0.766
788	-0.769
789	-0.769
789	-0.761
790	-0.758
790	-0.741
791	-0.747
791	-0.743
791	-0.739
792	-0.732
792	-0.739
793	-0.743
793	-0.73
794	-0.725
794	-0.719
794	-0.726
795	-0.746
795	-0.735
796	-0.74
796	-0.736
797	-0.728
797	-0.717
797	-0.711
798	-0.732
798	-0.737
799	-0.736
799	-0.724
800	-0.72
800	-0.728
801	-0.725
801	-0.729
801	-0.729
802	-0.727
802	-0.726
803	-0.72
803	-0.712
804	-0.717
804	-0.725
804	-0.71
805	-0.69
805	-0.682
806	-0.683
806	-0.678
807	-0.681
807	-0.681
807	-0.666
808	-0.66
808	-0.654
809	-0.648
809	-0.648
810	-0.653
810	-0.65
810	-0.645
811	-0.648
811	-0.641
812	-0.633
812	-0.634
813	-0.641
813	-0.642
813	-0.641
814	-0.642
814	-0.647
815	-0.638
815	-0.634
816	-0.633
816	-0.651
817	-0.664
817	-0.669
817	-0.676
818	-0.67
818	-0.663
819	-0.671
819	-0.67
820	-0.682
820	-0.681
820	-0.68
821	-0.674
821	-0.669
822	-0.669
822	-0.657
823	-0.669
823	-0.672
823	-0.667
824	-0.665
824	-0.674
825	-0.672
825	-0.668
826	-0.664
826	-0.66
826	-0.658
827	-0.66
827	-0.649
828	-0.648
828	-0.642
829	-0.635
829	-0.622
829	-0.62
830	-0.619
830	-0.608
831	-0.603
831	-0.592
832	-0.583
832	-0.579
832	-0.572
833	-0.572
833	-0.579
834	-0.576
834	-0.57
835	-0.562
835	-0.561
835	-0.557
836	-0.554
836	-0.553
837	-0.543
837	-0.536
838	-0.524
838	-0.509
839	-0.502
839	-0.492
839	-0.485
840	-0.487
840	-0.478
841	-0.469
841	-0.46
842	-0.454
842	-0.441
842	-0.439
843	-0.437
843	-0.433
844	-0.431
844	-0.421
845	-0.406
845	-0.398
845	-0.388
846	-0.378
846	-0.369
847	-0.361
847	-0.35
848	-0.335
848	-0.322
848	-0.312
849	-0.302
849	-0.292
850	-0.283
850	-0.276
851	-0.266
851	-0.252
851	-0.244
852	-0.232
852	-0.222
853	-0.214
853	-0.205
854	-0.198
854	-0.189
854	-0.179
855	-0.169
855	-0.164
856	-0.158
856	-0.152
857	-0.147
857	-0.141
857	-0.132
858	-0.123
858	-0.117
859	-0.109
859	-0.101
860	-0.093
860	-0.083
860	-0.076
861	-0.069
861	-0.062
862	-0.056
862	-0.051
863	-0.046
863	-0.04
863	-0.036
864	-0.032
864	-0.028
865	-0.023
865	-0.019
866	-0.015
866	-0.011
866	-0.008
867	-0.005
867	-0.001
868	0.001
868	0.004
869	0.007
869	0.009
869	0.011
870	0.013
870	0.015
871	0.016
871	0.017
872	0.018
872	0.019
872	0.019
873	0.019
873	0.019
874	0.018
874	0.018
875	0.017
875	0.017
875	0.016
876	0.016
876	0.015
877	0.014
877	0.013
878	0.012
878	0.011
878	0.011
879	0.01
879	0.009
880	0.009
880	0.008
881	0.008
881	0.008
881	0.008
882	0.007
882	0.007
883	0.007
883	0.007
884	0.007
884	0.007
884	0.007
885	0.006
885	0.006
886	0.005
886	0.004
887	0.003
887	0.003
887	0.002
888	0.001
888	0
889	-0
889	-0.001
890	-0.001
890	-0.002
890	-0.002
891	-0.002
891	-0.002
892	-0.001
892	-0.001
893	-0.001
893	-0.001
893	-0.001
894	-0.001
894	-0.001
895	-0.001
895	-0.001
895	-0.001
896	-0.001
896	-0.001
897	-0
897	-0
898	0
898	0
898	0
899	0.001
899	0.002
900	0.002
900	0.002
901	0.002
901	0.002
901	0.002
902	0.002
902	0.002
903	0.002
903	0.002
904	0.001
904	0.001
904	0
905	0
905	0
906	0.001
906	0.001
907	0.002
907	0.002
907	0.002
908	0.003
908	0.004
909	0.005
909	0.005
910	0.006
910	0.007
910	0.007
911	0.008
911	0.009
912	0.011
912	0.012
913	0.014
913	0.015
913	0.016
914	0.017
914	0.017
915	0.018
915	0.018
916	0.017
916	0.017
916	0.016
917	0.015
917	0.014
918	0.013
918	0.013
918	0.012
919	0.012
919	0.011
920	0.011
920	0.011
921	0.011
921	0.011
921	0.011
922	0.011
922	0.011
923	0.011
923	0.011
924	0.01
924	0.01
924	0.01
925	0.009
925	0.009
926	0.009
926	0.008
927	0.008
927	0.008
927	0.008
928	0.009
928	0.009
929	0.01
929	0.01
930	0.011
930	0.012
930	0.013
931	0.014
931	0.014
932	0.015
932	0.016
933	0.016
933	0.017
933	0.017
934	0.017
934	0.017
935	0.016
935	0.015
935	0.014
936	0.012
936	0.011
937	0.01
937	0.008
938	0.007
938	0.006
938	0.005
939	0.004
939	0.004
940	0.004
940	0.003
941	0.003
941	0.003
941	0.003
942	0.003
942	0.004
943	0.004
943	0.004
944	0.004
944	0.004
944	0.003
945	0.003
945	0.003
946	0.003
946	0.002
946	0.001
947	0.001
947	0
948	-0
948	-0.001
949	-0.001
949	-0.001
949	-0.001
950	-0.001
950	-0
951	0
951	0.001
952	0.001
952	0.002
952	0.002
953	0.003
953	0.004
954	0.004
954	0.004
955	0.004
955	0.004
955	0.005
956	0.004
956	0.004
957	0.004
957	0.003
957	0.002
958	0.002
958	0.001
959	0.001
959	0.001
960	0
960	-0
960	-0
961	-0.001
961	-0.001
962	-0.001
962	-0.001
963	-0.001
963	-0
963	-0
964	-0
964	0
965	0
965	0.001
966	0.001
966	0.001
966	0.002
967	0.002
967	0.002
968	0.002
968	0.002
968	0.002
969	0.001
969	0
970	-0.001
970	-0.001
971	-0.002
971	-0.003
971	-0.003
972	-0.003
972	-0.003
973	-0.003
973	-0.003
974	-0.003
974	-0.002
974	-0.001
975	0
975	0.002
976	0.003
976	0.004
976	0.004
977	0.005
977	0.005
978	0.005
978	0.005
979	0.005
979	0.005
979	0.005
980	0.005
980	0.004
981	0.004
981	0.004
982	0.004
982	0.004
982	0.004
983	0.004
983	0.003
984	0.004
984	0.003
984	0.003
985	0.003
985	0.003
986	0.003
986	0.003
987	0.002
987	0.001
987	0.001
988	0.001
988	0
989	-0
989	-0.001
990	-0.002
990	-0.003
990	-0.003
991	-0.003
991	-0.003
992	-0.004
992	-0.004
992	-0.004
993	-0.004
993	-0.005
994	-0.005
994	-0.005
995	-0.005
995	-0.005
995	-0.006
996	-0.006
996	-0.007
997	-0.007
997	-0.008
997	-0.008
998	-0.007
998	-0.007
999	-0.007
999	-0.006
1000	-0.006
1000	-0.006
1000	-0.005
1001	-0.005
1001	-0.004
1002	-0.004
1002	-0.004
1003	-0.004
1003	-0.004
1003	-0.004
1004	-0.005
1004	-0.005
1005	-0.006
1005	-0.006
1005	-0.007
1006	-0.008
1006	-0.009
1007	-0.009
1007	-0.01
1008	-0.01
1008	-0.011
1008	-0.011
1009	-0.011
1009	-0.011
1010	-0.01
1010	-0.009
1010	-0.009
1011	-0.009
1011	-0.009
1012	-0.008
1012	-0.008
1013	-0.007
1013	-0.007
1013	-0.006
1014	-0.006
1014	-0.005
1015	-0.005
1015	-0.005
1016	-0.004
1016	-0.004
1016	-0.004
1017	-0.004
1017	-0.004
1018	-0.004
1018	-0.004
1018	-0.004
1019	-0.004
1019	-0.004
1020	-0.004
1020	-0.005
1021	-0.005
1021	-0.006
1021	-0.006
1022	-0.007
1022	-0.008
1023	-0.009
1023	-0.009
1023	-0.01
1024	-0.011
1024	-0.012
1025	-0.012
1025	-0.013
1026	-0.013
1026	-0.014
1026	-0.014
1027	-0.015
1027	-0.015
1028	-0.014
1028	-0.014
1028	-0.014
1029	-0.014
1029	-0.014
1030	-0.014
1030	-0.015
1031	-0.014
1031	-0.014
1031	-0.014
1032	-0.014
1032	-0.014
1033	-0.015
1033	-0.015
1033	-0.015
1034	-0.015
1034	-0.015
1035	-0.014
1035	-0.015
1036	-0.015
1036	-0.015
1036	-0.014
1037	-0.014
1037	-0.013
1038	-0.013
1038	-0.012
1039	-0.012
1039	-0.011
1039	-0.011
1040	-0.01
1040	-0.01
1041	-0.01
1041	-0.01
1041	-0.011
1042	-0.011
1042	-0.012
1043	-0.013
1043	-0.014
1044	-0.015
1044	-0.016
1044	-0.017
1045	-0.018
1045	-0.019
1046	-0.019
1046	-0.02
1046	-0.02
1047	-0.02
1047	-0.02
1048	-0.02
1048	-0.02
1049	-0.02
1049	-0.02
1049	-0.02
1050	-0.021
1050	-0.021
1051	-0.022
1051	-0.023
1051	-0.023
1052	-0.024
1052	-0.025
1053	-0.025
1053	-0.026
1053	-0.026
1054	-0.026
1054	-0.026
1055	-0.025
1055	-0.025
1056	-0.026
1056	-0.026
1056	-0.026
1057	-0.027
1057	-0.027
1058	-0.027
1058	-0.028
1058	-0.028
1059	-0.028
1059	-0.028
1060	-0.029
1060	-0.029
1061	-0.028
1061	-0.028
1061	-0.028
1062	-0.027
1062	-0.027
1063	-0.027
1063	-0.028
1063	-0.028
1064	-0.028
1064	-0.028
1065	-0.027
1065	-0.028
1066	-0.028
1066	-0.028
1066	-0.029
1067	-0.029
1067	-0.029
1068	-0.03
1068	-0.03
1068	-0.03
1069	-0.031
1069	-0.031
1070	-0.032
1070	-0.032
1071	-0.032
1071	-0.032
1071	-0.032
1072	-0.032
1072	-0.032
1073	-0.032
1073	-0.031
1073	-0.031
1074	-0.03
1074	-0.03
1075	-0.03
1075	-0.03
1076	-0.031
1076	-0.031
1076	-0.032
1077	-0.033
1077	-0.034
1078	-0.035
1078	-0.036
1078	-0.036
1079	-0.037
1079	-0.037
1080	-0.037
1080	-0.037
1080	-0.038
1081	-0.039
1081	-0.039
1082	-0.039
1082	-0.04
1083	-0.041
1083	-0.042
1083	-0.043
1084	-0.043
1084	-0.043
1085	-0.044
1085	-0.044
1085	-0.044
1086	-0.045
1086	-0.045
1087	-0.046
1087	-0.046
1088	-0.047
1088	-0.047
1088	-0.048
1089	-0.05
1089	-0.05
1090	-0.051
1090	-0.052
1090	-0.053
1091	-0.054
1091	-0.054
1092	-0.054
1092	-0.054
1092	-0.055
1093	-0.055
1093	-0.056
1094	-0.056
1094	-0.057
1095	-0.058
1095	-0.058
1095	-0.058
1096	-0.06
1096	-0.061
1097	-0.062
1097	-0.062
1097	-0.063
1098	-0.065
1098	-0.066
1099	-0.067
1099	-0.068
1100	-0.07
1100	-0.071
1100	-0.074
1101	-0.076
1101	-0.078
1102	-0.079
1102	-0.081
1102	-0.082
1103	-0.084
1103	-0.087
1104	-0.089
1104	-0.091
1104	-0.093
1105	-0.094
1105	-0.096
1106	-0.1
1106	-0.102
1107	-0.105
1107	-0.109
1107	-0.113
1108	-0.115
1108	-0.116
1109	-0.119
1109	-0.122
1109	-0.125
1110	-0.128
1110	-0.13
1111	-0.139
1111	-0.135
