Data from 3.5A_17C_Absorbance__3__00005.txt Node

Date: Tue Jun 20 14:56:16 CEST 2023
User: Marek
Spectrometer: MAYP115816
Trigger mode: 0
Integration Time (sec): 2.200000E-1
Scans to average: 10
Electric dark correction enabled: true
Nonlinearity correction enabled: true
Boxcar width: 5
XAxis mode: Wavelengths
Number of Pixels in Spectrum: 2068
>>>>>Begin Spectral Data<<<<<
199	-0.456
199	-0.44
200	-0.404
200	-0.354
201	-0.322
201	-0.315
202	-0.292
202	-0.286
203	-0.286
203	-0.282
204	-0.263
204	-0.246
205	-0.223
205	-0.216
205	-0.226
206	-0.233
206	-0.23
207	-0.229
207	-0.237
208	-0.24
208	-0.246
209	-0.25
209	-0.259
210	-0.274
210	-0.278
211	-0.27
211	-0.27
212	-0.275
212	-0.281
213	-0.278
213	-0.272
213	-0.268
214	-0.269
214	-0.271
215	-0.267
215	-0.271
216	-0.282
216	-0.288
217	-0.288
217	-0.289
218	-0.294
218	-0.296
219	-0.305
219	-0.31
220	-0.31
220	-0.315
221	-0.316
221	-0.315
221	-0.306
222	-0.306
222	-0.302
223	-0.299
223	-0.302
224	-0.299
224	-0.297
225	-0.296
225	-0.296
226	-0.295
226	-0.297
227	-0.304
227	-0.314
228	-0.316
228	-0.324
229	-0.33
229	-0.329
229	-0.328
230	-0.323
230	-0.321
231	-0.32
231	-0.313
232	-0.314
232	-0.31
233	-0.312
233	-0.301
234	-0.296
234	-0.292
235	-0.298
235	-0.309
236	-0.314
236	-0.318
236	-0.319
237	-0.316
237	-0.316
238	-0.316
238	-0.32
239	-0.326
239	-0.336
240	-0.329
240	-0.325
241	-0.32
241	-0.32
242	-0.323
242	-0.334
243	-0.335
243	-0.335
243	-0.332
244	-0.328
244	-0.328
245	-0.328
245	-0.332
246	-0.342
246	-0.345
247	-0.352
247	-0.336
248	-0.332
248	-0.335
249	-0.344
249	-0.346
250	-0.343
250	-0.35
250	-0.346
251	-0.342
251	-0.341
252	-0.342
252	-0.353
253	-0.348
253	-0.358
254	-0.361
254	-0.362
255	-0.373
255	-0.371
256	-0.373
256	-0.387
257	-0.394
257	-0.392
258	-0.395
258	-0.404
258	-0.401
259	-0.394
259	-0.409
260	-0.409
260	-0.401
261	-0.41
261	-0.394
262	-0.398
262	-0.393
263	-0.383
263	-0.385
264	-0.393
264	-0.393
265	-0.384
265	-0.384
265	-0.392
266	-0.385
266	-0.384
267	-0.382
267	-0.397
268	-0.402
268	-0.399
269	-0.393
269	-0.406
270	-0.411
270	-0.41
271	-0.418
271	-0.424
272	-0.427
272	-0.431
272	-0.424
273	-0.43
273	-0.443
274	-0.435
274	-0.429
275	-0.421
275	-0.41
276	-0.417
276	-0.424
277	-0.425
277	-0.418
278	-0.42
278	-0.423
278	-0.415
279	-0.422
279	-0.429
280	-0.437
280	-0.444
281	-0.44
281	-0.435
282	-0.442
282	-0.439
283	-0.436
283	-0.451
284	-0.46
284	-0.469
285	-0.453
285	-0.455
285	-0.451
286	-0.452
286	-0.465
287	-0.458
287	-0.458
288	-0.455
288	-0.437
289	-0.437
289	-0.445
290	-0.453
290	-0.445
291	-0.448
291	-0.448
292	-0.43
292	-0.431
292	-0.432
293	-0.422
293	-0.419
294	-0.418
294	-0.405
295	-0.391
295	-0.4
296	-0.41
296	-0.406
297	-0.395
297	-0.396
298	-0.395
298	-0.41
298	-0.411
299	-0.394
299	-0.388
300	-0.381
300	-0.362
301	-0.346
301	-0.347
302	-0.353
302	-0.34
303	-0.334
303	-0.325
304	-0.312
304	-0.316
305	-0.305
305	-0.319
305	-0.334
306	-0.32
306	-0.317
307	-0.316
307	-0.328
308	-0.331
308	-0.33
309	-0.329
309	-0.323
310	-0.323
310	-0.318
311	-0.306
311	-0.322
311	-0.31
312	-0.305
312	-0.292
313	-0.285
313	-0.283
314	-0.288
314	-0.287
315	-0.286
315	-0.279
316	-0.273
316	-0.266
317	-0.263
317	-0.262
318	-0.256
318	-0.253
318	-0.246
319	-0.237
319	-0.227
320	-0.226
320	-0.227
321	-0.221
321	-0.217
322	-0.212
322	-0.204
323	-0.206
323	-0.197
324	-0.192
324	-0.182
324	-0.174
325	-0.161
325	-0.145
326	-0.139
326	-0.121
327	-0.107
327	-0.087
328	-0.061
328	-0.043
329	-0.02
329	0.002
330	0.022
330	0.051
330	0.08
331	0.108
331	0.135
332	0.158
332	0.181
333	0.204
333	0.226
334	0.245
334	0.261
335	0.279
335	0.292
336	0.306
336	0.318
336	0.328
337	0.338
337	0.349
338	0.357
338	0.363
339	0.371
339	0.377
340	0.381
340	0.387
341	0.39
341	0.393
342	0.396
342	0.399
342	0.402
343	0.403
343	0.406
344	0.406
344	0.408
345	0.409
345	0.411
346	0.412
346	0.413
347	0.413
347	0.414
348	0.414
348	0.415
348	0.415
349	0.415
349	0.415
350	0.415
350	0.415
351	0.415
351	0.415
352	0.415
352	0.415
353	0.415
353	0.415
354	0.415
354	0.415
354	0.415
355	0.415
355	0.415
356	0.415
356	0.415
357	0.416
357	0.416
358	0.416
358	0.415
359	0.415
359	0.415
360	0.414
360	0.414
360	0.414
361	0.414
361	0.413
362	0.412
362	0.412
363	0.412
363	0.412
364	0.412
364	0.411
365	0.411
365	0.411
366	0.411
366	0.41
366	0.41
367	0.41
367	0.41
368	0.409
368	0.408
369	0.408
369	0.408
370	0.407
370	0.407
371	0.406
371	0.406
372	0.405
372	0.405
372	0.404
373	0.404
373	0.404
374	0.404
374	0.403
375	0.403
375	0.402
376	0.402
376	0.402
377	0.401
377	0.4
378	0.4
378	0.399
378	0.399
379	0.398
379	0.398
380	0.397
380	0.397
381	0.397
381	0.396
382	0.396
382	0.395
383	0.395
383	0.395
383	0.394
384	0.394
384	0.393
385	0.393
385	0.392
386	0.392
386	0.391
387	0.391
387	0.39
388	0.39
388	0.389
389	0.389
389	0.389
389	0.388
390	0.388
390	0.387
391	0.387
391	0.386
392	0.386
392	0.385
393	0.385
393	0.385
394	0.384
394	0.384
394	0.383
395	0.383
395	0.382
396	0.382
396	0.382
397	0.381
397	0.381
398	0.38
398	0.38
399	0.379
399	0.379
400	0.378
400	0.378
400	0.378
401	0.377
401	0.376
402	0.376
402	0.376
403	0.375
403	0.375
404	0.374
404	0.374
405	0.373
405	0.373
405	0.372
406	0.372
406	0.372
407	0.372
407	0.371
408	0.371
408	0.37
409	0.37
409	0.37
410	0.37
410	0.369
411	0.369
411	0.368
411	0.368
412	0.368
412	0.367
413	0.367
413	0.367
414	0.366
414	0.366
415	0.366
415	0.365
416	0.365
416	0.365
416	0.365
417	0.364
417	0.364
418	0.364
418	0.363
419	0.363
419	0.363
420	0.363
420	0.363
421	0.363
421	0.363
421	0.363
422	0.363
422	0.363
423	0.363
423	0.362
424	0.362
424	0.362
425	0.361
425	0.361
426	0.361
426	0.36
427	0.36
427	0.36
427	0.36
428	0.36
428	0.359
429	0.359
429	0.359
430	0.359
430	0.358
431	0.358
431	0.358
432	0.358
432	0.357
432	0.357
433	0.357
433	0.357
434	0.357
434	0.357
435	0.357
435	0.357
436	0.357
436	0.357
437	0.357
437	0.357
437	0.357
438	0.357
438	0.357
439	0.357
439	0.357
440	0.357
440	0.357
441	0.357
441	0.356
442	0.356
442	0.356
442	0.357
443	0.357
443	0.357
444	0.357
444	0.357
445	0.357
445	0.357
446	0.357
446	0.358
447	0.358
447	0.358
447	0.358
448	0.358
448	0.358
449	0.359
449	0.359
450	0.359
450	0.359
451	0.36
451	0.36
452	0.36
452	0.36
452	0.36
453	0.36
453	0.36
454	0.36
454	0.36
455	0.36
455	0.361
456	0.361
456	0.361
457	0.361
457	0.361
458	0.362
458	0.362
458	0.362
459	0.362
459	0.362
460	0.363
460	0.363
461	0.363
461	0.364
462	0.364
462	0.365
463	0.366
463	0.366
463	0.367
464	0.368
464	0.368
465	0.369
465	0.369
466	0.37
466	0.371
467	0.371
467	0.372
467	0.372
468	0.373
468	0.374
469	0.375
469	0.376
470	0.376
470	0.377
471	0.378
471	0.379
472	0.38
472	0.38
472	0.381
473	0.382
473	0.383
474	0.384
474	0.385
475	0.386
475	0.387
476	0.388
476	0.39
477	0.391
477	0.392
477	0.393
478	0.395
478	0.396
479	0.398
479	0.399
480	0.401
480	0.402
481	0.403
481	0.405
482	0.406
482	0.408
482	0.409
483	0.411
483	0.413
484	0.415
484	0.417
485	0.419
485	0.421
486	0.423
486	0.425
487	0.427
487	0.429
487	0.431
488	0.433
488	0.435
489	0.437
489	0.44
490	0.442
490	0.445
491	0.448
491	0.451
492	0.454
492	0.456
492	0.459
493	0.461
493	0.464
494	0.468
494	0.471
495	0.474
495	0.476
496	0.479
496	0.482
496	0.485
497	0.488
497	0.492
498	0.495
498	0.498
499	0.501
499	0.505
500	0.509
500	0.512
501	0.516
501	0.519
501	0.523
502	0.527
502	0.53
503	0.534
503	0.538
504	0.542
504	0.546
505	0.55
505	0.554
506	0.558
506	0.562
506	0.566
507	0.569
507	0.573
508	0.577
508	0.581
509	0.585
509	0.589
510	0.592
510	0.596
511	0.6
511	0.603
511	0.607
512	0.611
512	0.614
513	0.617
513	0.62
514	0.623
514	0.626
515	0.63
515	0.632
515	0.635
516	0.638
516	0.641
517	0.644
517	0.646
518	0.649
518	0.651
519	0.654
519	0.656
520	0.658
520	0.66
520	0.662
521	0.664
521	0.666
522	0.668
522	0.669
523	0.671
523	0.673
524	0.674
524	0.674
524	0.675
525	0.676
525	0.676
526	0.677
526	0.677
527	0.677
527	0.677
528	0.677
528	0.676
529	0.676
529	0.676
529	0.675
530	0.674
530	0.673
531	0.672
531	0.67
532	0.668
532	0.666
533	0.665
533	0.663
533	0.66
534	0.658
534	0.655
535	0.652
535	0.65
536	0.648
536	0.645
537	0.642
537	0.639
538	0.636
538	0.632
538	0.629
539	0.626
539	0.622
540	0.619
540	0.615
541	0.611
541	0.607
542	0.603
542	0.599
542	0.594
543	0.59
543	0.585
544	0.581
544	0.576
545	0.572
545	0.567
546	0.561
546	0.556
547	0.551
547	0.546
547	0.541
548	0.536
548	0.531
549	0.526
549	0.521
550	0.516
550	0.511
551	0.505
551	0.5
551	0.494
552	0.489
552	0.484
553	0.479
553	0.473
554	0.468
554	0.462
555	0.457
555	0.451
556	0.446
556	0.441
556	0.436
557	0.43
557	0.425
558	0.419
558	0.413
559	0.408
559	0.402
560	0.397
560	0.392
560	0.388
561	0.383
561	0.379
562	0.374
562	0.37
563	0.366
563	0.362
564	0.357
564	0.353
564	0.349
565	0.345
565	0.34
566	0.336
566	0.331
567	0.327
567	0.322
568	0.317
568	0.313
568	0.308
569	0.303
569	0.299
570	0.294
570	0.29
571	0.286
571	0.282
572	0.278
572	0.274
573	0.27
573	0.267
573	0.264
574	0.261
574	0.258
575	0.255
575	0.252
576	0.249
576	0.245
577	0.242
577	0.239
577	0.237
578	0.234
578	0.231
579	0.229
579	0.226
580	0.222
580	0.219
581	0.216
581	0.213
581	0.211
582	0.209
582	0.206
583	0.204
583	0.201
584	0.197
584	0.194
585	0.192
585	0.189
585	0.186
586	0.184
586	0.181
587	0.179
587	0.177
588	0.174
588	0.172
589	0.171
589	0.169
590	0.167
590	0.165
590	0.164
591	0.162
591	0.159
592	0.157
592	0.156
593	0.154
593	0.152
594	0.15
594	0.149
594	0.147
595	0.145
595	0.143
596	0.141
596	0.14
597	0.139
597	0.137
598	0.135
598	0.134
598	0.132
599	0.131
599	0.13
600	0.129
600	0.128
601	0.127
601	0.126
602	0.124
602	0.123
602	0.122
603	0.121
603	0.12
604	0.119
604	0.118
605	0.116
605	0.115
606	0.114
606	0.113
606	0.111
607	0.11
607	0.109
608	0.108
608	0.106
609	0.105
609	0.104
610	0.103
610	0.101
610	0.1
611	0.099
611	0.098
612	0.097
612	0.097
613	0.096
613	0.096
614	0.095
614	0.094
614	0.094
615	0.093
615	0.092
616	0.092
616	0.092
617	0.091
617	0.091
618	0.09
618	0.089
618	0.089
619	0.088
619	0.088
620	0.087
620	0.086
621	0.085
621	0.084
622	0.083
622	0.082
622	0.08
623	0.079
623	0.079
624	0.078
624	0.077
625	0.077
625	0.076
626	0.076
626	0.075
626	0.075
627	0.075
627	0.075
628	0.074
628	0.074
629	0.073
629	0.072
630	0.072
630	0.071
630	0.071
631	0.07
631	0.069
632	0.068
632	0.067
633	0.066
633	0.065
634	0.065
634	0.064
634	0.063
635	0.062
635	0.061
636	0.06
636	0.059
637	0.058
637	0.057
638	0.056
638	0.056
638	0.055
639	0.054
639	0.053
640	0.052
640	0.051
641	0.05
641	0.049
642	0.048
642	0.047
642	0.046
643	0.045
643	0.044
644	0.043
644	0.043
645	0.042
645	0.041
646	0.04
646	0.039
646	0.038
647	0.037
647	0.035
648	0.033
648	0.031
649	0.03
649	0.028
650	0.026
650	0.024
650	0.022
651	0.019
651	0.016
652	0.012
652	0.008
653	0.004
653	0.001
653	0.003
654	0.008
654	0.008
655	0.005
655	0.004
656	0.002
656	-0.001
657	-0.002
657	-0.004
657	-0.006
658	-0.008
658	-0.019
659	-0.048
659	-0.077
660	-0.091
660	-0.103
661	-0.114
661	-0.127
661	-0.14
662	-0.151
662	-0.164
663	-0.179
663	-0.197
664	-0.214
664	-0.233
665	-0.256
665	-0.281
665	-0.303
666	-0.329
666	-0.361
667	-0.394
667	-0.434
668	-0.473
668	-0.524
669	-0.576
669	-0.638
669	-0.714
670	-0.842
670	-1.143
671	-1.573
671	-1.979
672	-2.265
672	-2.444
672	-2.526
673	-2.55
673	-2.56
674	-2.575
674	-2.583
675	-2.596
675	-2.594
676	-2.566
676	-2.471
676	-2.283
677	-1.93
677	-1.382
678	-0.967
678	-0.82
679	-0.744
679	-0.69
680	-0.645
680	-0.618
680	-0.592
681	-0.579
681	-0.557
682	-0.547
682	-0.524
683	-0.499
683	-0.496
684	-0.486
684	-0.479
684	-0.472
685	-0.465
685	-0.465
686	-0.455
686	-0.449
687	-0.444
687	-0.441
687	-0.452
688	-0.443
688	-0.442
689	-0.45
689	-0.453
690	-0.444
690	-0.44
691	-0.44
691	-0.447
691	-0.451
692	-0.454
692	-0.45
693	-0.458
693	-0.468
694	-0.456
694	-0.456
695	-0.461
695	-0.456
695	-0.467
696	-0.474
696	-0.469
697	-0.464
697	-0.466
698	-0.465
698	-0.46
698	-0.469
699	-0.469
699	-0.472
700	-0.49
700	-0.484
701	-0.473
701	-0.468
702	-0.472
702	-0.472
702	-0.471
703	-0.463
703	-0.456
704	-0.465
704	-0.468
705	-0.459
705	-0.461
705	-0.46
706	-0.453
706	-0.449
707	-0.457
707	-0.461
708	-0.461
708	-0.46
709	-0.457
709	-0.454
709	-0.455
710	-0.459
710	-0.458
711	-0.456
711	-0.458
712	-0.45
712	-0.45
713	-0.453
713	-0.455
713	-0.437
714	-0.439
714	-0.44
715	-0.434
715	-0.444
716	-0.463
716	-0.47
716	-0.474
717	-0.481
717	-0.474
718	-0.468
718	-0.47
719	-0.469
719	-0.464
720	-0.459
720	-0.455
720	-0.445
721	-0.439
721	-0.438
722	-0.434
722	-0.433
723	-0.448
723	-0.461
723	-0.469
724	-0.47
724	-0.473
725	-0.466
725	-0.472
726	-0.478
726	-0.475
727	-0.474
727	-0.478
727	-0.47
728	-0.46
728	-0.454
729	-0.455
729	-0.461
730	-0.466
730	-0.459
730	-0.46
731	-0.461
731	-0.462
732	-0.466
732	-0.461
733	-0.474
733	-0.483
734	-0.489
734	-0.481
734	-0.468
735	-0.458
735	-0.455
736	-0.454
736	-0.451
737	-0.449
737	-0.441
737	-0.431
738	-0.415
738	-0.405
739	-0.406
739	-0.405
740	-0.419
740	-0.422
741	-0.43
741	-0.437
741	-0.447
742	-0.456
742	-0.474
743	-0.481
743	-0.483
744	-0.49
744	-0.501
744	-0.495
745	-0.501
745	-0.488
746	-0.484
746	-0.476
747	-0.479
747	-0.467
748	-0.47
748	-0.475
748	-0.474
749	-0.463
749	-0.467
750	-0.458
750	-0.461
751	-0.459
751	-0.457
751	-0.467
752	-0.473
752	-0.474
753	-0.472
753	-0.464
754	-0.484
754	-0.485
754	-0.489
755	-0.486
755	-0.483
756	-0.487
756	-0.473
757	-0.465
757	-0.455
758	-0.456
758	-0.457
758	-0.45
759	-0.454
759	-0.459
760	-0.464
760	-0.462
761	-0.451
761	-0.454
761	-0.456
762	-0.462
762	-0.464
763	-0.462
763	-0.467
764	-0.468
764	-0.463
764	-0.467
765	-0.466
765	-0.476
766	-0.479
766	-0.478
767	-0.492
767	-0.486
768	-0.482
768	-0.475
768	-0.468
769	-0.464
769	-0.472
770	-0.482
770	-0.485
771	-0.483
771	-0.482
771	-0.485
772	-0.489
772	-0.508
773	-0.51
773	-0.511
774	-0.513
774	-0.495
775	-0.483
775	-0.479
775	-0.483
776	-0.493
776	-0.491
777	-0.491
777	-0.477
778	-0.484
778	-0.492
778	-0.49
779	-0.498
779	-0.513
780	-0.512
780	-0.521
781	-0.512
781	-0.499
781	-0.51
782	-0.528
782	-0.53
783	-0.531
783	-0.542
784	-0.544
784	-0.539
784	-0.553
785	-0.545
785	-0.557
786	-0.567
786	-0.561
787	-0.554
787	-0.564
788	-0.56
788	-0.554
788	-0.556
789	-0.555
789	-0.549
790	-0.548
790	-0.531
791	-0.534
791	-0.528
791	-0.521
792	-0.515
792	-0.516
793	-0.52
793	-0.51
794	-0.505
794	-0.499
794	-0.505
795	-0.526
795	-0.516
796	-0.521
796	-0.517
797	-0.51
797	-0.503
797	-0.494
798	-0.514
798	-0.519
799	-0.519
799	-0.507
800	-0.503
800	-0.507
801	-0.508
801	-0.515
801	-0.513
802	-0.512
802	-0.516
803	-0.51
803	-0.503
804	-0.512
804	-0.519
804	-0.505
805	-0.489
805	-0.48
806	-0.48
806	-0.476
807	-0.478
807	-0.474
807	-0.459
808	-0.458
808	-0.45
809	-0.448
809	-0.449
810	-0.455
810	-0.453
810	-0.451
811	-0.453
811	-0.445
812	-0.44
812	-0.442
813	-0.444
813	-0.444
813	-0.44
814	-0.442
814	-0.444
815	-0.437
815	-0.43
816	-0.43
816	-0.443
817	-0.453
817	-0.457
817	-0.463
818	-0.457
818	-0.451
819	-0.459
819	-0.457
820	-0.468
820	-0.468
820	-0.462
821	-0.458
821	-0.46
822	-0.457
822	-0.445
823	-0.455
823	-0.458
823	-0.453
824	-0.454
824	-0.467
825	-0.467
825	-0.467
826	-0.466
826	-0.462
826	-0.462
827	-0.464
827	-0.457
828	-0.455
828	-0.45
829	-0.446
829	-0.429
829	-0.428
830	-0.427
830	-0.413
831	-0.406
831	-0.398
832	-0.391
832	-0.384
832	-0.383
833	-0.382
833	-0.388
834	-0.388
834	-0.384
835	-0.379
835	-0.38
835	-0.376
836	-0.372
836	-0.372
837	-0.363
837	-0.354
838	-0.346
838	-0.33
839	-0.325
839	-0.313
839	-0.304
840	-0.305
840	-0.298
841	-0.292
841	-0.286
842	-0.282
842	-0.275
842	-0.273
843	-0.274
843	-0.27
844	-0.271
844	-0.265
845	-0.255
845	-0.252
845	-0.244
846	-0.237
846	-0.232
847	-0.225
847	-0.218
848	-0.207
848	-0.198
848	-0.19
849	-0.184
849	-0.177
850	-0.171
850	-0.165
851	-0.157
851	-0.148
851	-0.143
852	-0.135
852	-0.128
853	-0.124
853	-0.119
854	-0.112
854	-0.107
854	-0.1
855	-0.095
855	-0.092
856	-0.089
856	-0.086
857	-0.082
857	-0.08
857	-0.075
858	-0.069
858	-0.067
859	-0.063
859	-0.059
860	-0.054
860	-0.048
860	-0.044
861	-0.04
861	-0.035
862	-0.032
862	-0.029
863	-0.026
863	-0.021
863	-0.019
864	-0.017
864	-0.014
865	-0.01
865	-0.008
866	-0.005
866	-0.003
866	-0.001
867	0.001
867	0.003
868	0.004
868	0.006
869	0.008
869	0.009
869	0.011
870	0.012
870	0.014
871	0.015
871	0.015
872	0.015
872	0.016
872	0.016
873	0.017
873	0.017
874	0.017
874	0.016
875	0.016
875	0.016
875	0.015
876	0.015
876	0.015
877	0.014
877	0.013
878	0.013
878	0.012
878	0.011
879	0.01
879	0.01
880	0.009
880	0.009
881	0.009
881	0.009
881	0.009
882	0.009
882	0.008
883	0.008
883	0.008
884	0.008
884	0.009
884	0.008
885	0.009
885	0.008
886	0.008
886	0.007
887	0.007
887	0.006
887	0.005
888	0.005
888	0.004
889	0.003
889	0.002
890	0.002
890	0.001
890	0.001
891	0.001
891	0
892	0.001
892	0.002
893	0.002
893	0.003
893	0.003
894	0.004
894	0.004
895	0.005
895	0.005
895	0.006
896	0.006
896	0.006
897	0.006
897	0.006
898	0.006
898	0.005
898	0.005
899	0.005
899	0.005
900	0.005
900	0.005
901	0.004
901	0.003
901	0.003
902	0.002
902	0.002
903	0.002
903	0.001
904	-0
904	-0.001
904	-0.001
905	-0.002
905	-0.002
906	-0.002
906	-0.002
907	-0.001
907	-0.001
907	-0.001
908	-0
908	0.001
909	0.001
909	0.002
910	0.002
910	0.003
910	0.003
911	0.004
911	0.004
912	0.005
912	0.007
913	0.007
913	0.008
913	0.009
914	0.009
914	0.01
915	0.01
915	0.01
916	0.01
916	0.009
916	0.009
917	0.008
917	0.007
918	0.006
918	0.006
918	0.005
919	0.005
919	0.005
920	0.005
920	0.005
921	0.005
921	0.006
921	0.006
922	0.006
922	0.006
923	0.006
923	0.006
924	0.006
924	0.006
924	0.006
925	0.006
925	0.005
926	0.005
926	0.004
927	0.004
927	0.004
927	0.004
928	0.004
928	0.004
929	0.004
929	0.005
930	0.006
930	0.007
930	0.008
931	0.009
931	0.01
932	0.011
932	0.013
933	0.014
933	0.015
933	0.015
934	0.016
934	0.016
935	0.016
935	0.016
935	0.015
936	0.015
936	0.014
937	0.013
937	0.012
938	0.011
938	0.01
938	0.009
939	0.009
939	0.009
940	0.008
940	0.008
941	0.008
941	0.007
941	0.008
942	0.008
942	0.008
943	0.009
943	0.009
944	0.009
944	0.009
944	0.009
945	0.009
945	0.01
946	0.009
946	0.009
946	0.009
947	0.008
947	0.008
948	0.007
948	0.007
949	0.007
949	0.007
949	0.007
950	0.007
950	0.008
951	0.009
951	0.009
952	0.01
952	0.011
952	0.012
953	0.012
953	0.013
954	0.013
954	0.013
955	0.013
955	0.012
955	0.012
956	0.011
956	0.01
957	0.009
957	0.009
957	0.008
958	0.007
958	0.007
959	0.007
959	0.006
960	0.006
960	0.006
960	0.006
961	0.006
961	0.006
962	0.007
962	0.007
963	0.008
963	0.008
963	0.009
964	0.009
964	0.01
965	0.011
965	0.012
966	0.012
966	0.013
966	0.014
967	0.014
967	0.015
968	0.015
968	0.015
968	0.015
969	0.015
969	0.015
970	0.014
970	0.013
971	0.012
971	0.012
971	0.012
972	0.011
972	0.011
973	0.011
973	0.011
974	0.011
974	0.011
974	0.012
975	0.012
975	0.013
976	0.013
976	0.013
976	0.013
977	0.013
977	0.012
978	0.012
978	0.011
979	0.01
979	0.009
979	0.008
980	0.007
980	0.006
981	0.005
981	0.005
982	0.004
982	0.004
982	0.004
983	0.003
983	0.003
984	0.003
984	0.003
984	0.003
985	0.004
985	0.004
986	0.004
986	0.004
987	0.004
987	0.004
987	0.005
988	0.005
988	0.005
989	0.005
989	0.004
990	0.003
990	0.003
990	0.002
991	0.002
991	0.001
992	0.001
992	0.001
992	0
993	0
993	0
994	0
994	0
995	0
995	0
995	0
996	0
996	-0
997	-0
997	-0.001
997	-0.001
998	-0.001
998	-0
999	-0.001
999	-0.001
1000	-0.001
1000	-0.002
1000	-0.002
1001	-0.002
1001	-0.002
1002	-0.002
1002	-0.002
1003	-0.002
1003	-0.002
1003	-0.002
1004	-0.002
1004	-0.002
1005	-0.003
1005	-0.003
1005	-0.003
1006	-0.004
1006	-0.004
1007	-0.004
1007	-0.005
1008	-0.006
1008	-0.007
1008	-0.007
1009	-0.007
1009	-0.007
1010	-0.007
1010	-0.007
1010	-0.007
1011	-0.007
1011	-0.007
1012	-0.007
1012	-0.006
1013	-0.005
1013	-0.004
1013	-0.004
1014	-0.003
1014	-0.002
1015	-0.002
1015	-0.001
1016	-0
1016	0
1016	0.001
1017	0.001
1017	0.001
1018	0.001
1018	0.001
1018	0.001
1019	0.001
1019	0
1020	-0
1020	-0.001
1021	-0.002
1021	-0.002
1021	-0.003
1022	-0.003
1022	-0.004
1023	-0.004
1023	-0.005
1023	-0.005
1024	-0.006
1024	-0.007
1025	-0.008
1025	-0.008
1026	-0.009
1026	-0.01
1026	-0.01
1027	-0.011
1027	-0.012
1028	-0.012
1028	-0.012
1028	-0.012
1029	-0.013
1029	-0.013
1030	-0.014
1030	-0.014
1031	-0.014
1031	-0.014
1031	-0.014
1032	-0.015
1032	-0.015
1033	-0.016
1033	-0.016
1033	-0.016
1034	-0.016
1034	-0.016
1035	-0.016
1035	-0.016
1036	-0.016
1036	-0.015
1036	-0.015
1037	-0.014
1037	-0.013
1038	-0.013
1038	-0.012
1039	-0.011
1039	-0.01
1039	-0.009
1040	-0.009
1040	-0.008
1041	-0.008
1041	-0.008
1041	-0.008
1042	-0.008
1042	-0.008
1043	-0.008
1043	-0.008
1044	-0.009
1044	-0.009
1044	-0.01
1045	-0.01
1045	-0.01
1046	-0.011
1046	-0.011
1046	-0.011
1047	-0.011
1047	-0.012
1048	-0.012
1048	-0.012
1049	-0.013
1049	-0.014
1049	-0.014
1050	-0.015
1050	-0.016
1051	-0.017
1051	-0.018
1051	-0.018
1052	-0.018
1052	-0.019
1053	-0.019
1053	-0.019
1053	-0.018
1054	-0.018
1054	-0.018
1055	-0.018
1055	-0.018
1056	-0.018
1056	-0.019
1056	-0.019
1057	-0.019
1057	-0.02
1058	-0.02
1058	-0.021
1058	-0.021
1059	-0.021
1059	-0.021
1060	-0.021
1060	-0.021
1061	-0.021
1061	-0.02
1061	-0.02
1062	-0.019
1062	-0.019
1063	-0.019
1063	-0.019
1063	-0.018
1064	-0.018
1064	-0.018
1065	-0.018
1065	-0.018
1066	-0.018
1066	-0.018
1066	-0.018
1067	-0.018
1067	-0.019
1068	-0.019
1068	-0.02
1068	-0.02
1069	-0.021
1069	-0.021
1070	-0.022
1070	-0.022
1071	-0.022
1071	-0.023
1071	-0.023
1072	-0.023
1072	-0.022
1073	-0.022
1073	-0.021
1073	-0.021
1074	-0.02
1074	-0.02
1075	-0.02
1075	-0.02
1076	-0.021
1076	-0.021
1076	-0.021
1077	-0.022
1077	-0.023
1078	-0.024
1078	-0.025
1078	-0.026
1079	-0.026
1079	-0.026
1080	-0.027
1080	-0.028
1080	-0.029
1081	-0.029
1081	-0.03
1082	-0.03
1082	-0.031
1083	-0.032
1083	-0.032
1083	-0.033
1084	-0.033
1084	-0.033
1085	-0.034
1085	-0.034
1085	-0.034
1086	-0.034
1086	-0.034
1087	-0.034
1087	-0.034
1088	-0.035
1088	-0.036
1088	-0.037
1089	-0.037
1089	-0.038
1090	-0.038
1090	-0.039
1090	-0.04
1091	-0.041
1091	-0.041
1092	-0.041
1092	-0.04
1092	-0.041
1093	-0.04
1093	-0.04
1094	-0.04
1094	-0.04
1095	-0.041
1095	-0.04
1095	-0.04
1096	-0.041
1096	-0.042
1097	-0.042
1097	-0.043
1097	-0.044
1098	-0.044
1098	-0.046
1099	-0.046
1099	-0.046
1100	-0.047
1100	-0.048
1100	-0.05
1101	-0.051
1101	-0.052
1102	-0.054
1102	-0.056
1102	-0.057
1103	-0.058
1103	-0.06
1104	-0.062
1104	-0.064
1104	-0.065
1105	-0.066
1105	-0.066
1106	-0.068
1106	-0.068
1107	-0.071
1107	-0.073
1107	-0.075
1108	-0.076
1108	-0.076
1109	-0.077
1109	-0.08
1109	-0.082
1110	-0.085
1110	-0.089
1111	-0.097
1111	-0.093
