Data from 3.5A_17C_Absorbance__102__00104.txt Node

Date: Tue Jun 20 14:59:54 CEST 2023
User: Marek
Spectrometer: MAYP115816
Trigger mode: 0
Integration Time (sec): 2.200000E-1
Scans to average: 10
Electric dark correction enabled: true
Nonlinearity correction enabled: true
Boxcar width: 5
XAxis mode: Wavelengths
Number of Pixels in Spectrum: 2068
>>>>>Begin Spectral Data<<<<<
199	-0.502
199	-0.482
200	-0.454
200	-0.406
201	-0.379
201	-0.38
202	-0.357
202	-0.352
203	-0.351
203	-0.344
204	-0.328
204	-0.314
205	-0.295
205	-0.286
205	-0.294
206	-0.297
206	-0.291
207	-0.288
207	-0.295
208	-0.297
208	-0.304
209	-0.306
209	-0.314
210	-0.325
210	-0.33
211	-0.325
211	-0.328
212	-0.336
212	-0.342
213	-0.337
213	-0.333
213	-0.327
214	-0.334
214	-0.331
215	-0.329
215	-0.331
216	-0.34
216	-0.344
217	-0.338
217	-0.341
218	-0.349
218	-0.351
219	-0.359
219	-0.362
220	-0.366
220	-0.373
221	-0.377
221	-0.376
221	-0.368
222	-0.369
222	-0.367
223	-0.363
223	-0.365
224	-0.365
224	-0.359
225	-0.357
225	-0.36
226	-0.362
226	-0.361
227	-0.369
227	-0.38
228	-0.381
228	-0.387
229	-0.391
229	-0.391
229	-0.392
230	-0.389
230	-0.387
231	-0.38
231	-0.375
232	-0.376
232	-0.37
233	-0.372
233	-0.364
234	-0.364
234	-0.36
235	-0.366
235	-0.375
236	-0.38
236	-0.381
236	-0.382
237	-0.382
237	-0.384
238	-0.383
238	-0.387
239	-0.385
239	-0.393
240	-0.386
240	-0.386
241	-0.383
241	-0.387
242	-0.387
242	-0.394
243	-0.392
243	-0.395
243	-0.396
244	-0.394
244	-0.396
245	-0.396
245	-0.397
246	-0.404
246	-0.407
247	-0.415
247	-0.4
248	-0.4
248	-0.4
249	-0.405
249	-0.405
250	-0.404
250	-0.413
250	-0.41
251	-0.411
251	-0.406
252	-0.411
252	-0.424
253	-0.42
253	-0.43
254	-0.435
254	-0.435
255	-0.447
255	-0.442
256	-0.442
256	-0.453
257	-0.461
257	-0.455
258	-0.455
258	-0.46
258	-0.457
259	-0.451
259	-0.466
260	-0.463
260	-0.456
261	-0.468
261	-0.452
262	-0.457
262	-0.454
263	-0.446
263	-0.454
264	-0.464
264	-0.463
265	-0.455
265	-0.458
265	-0.467
266	-0.457
266	-0.458
267	-0.457
267	-0.474
268	-0.479
268	-0.475
269	-0.468
269	-0.481
270	-0.486
270	-0.484
271	-0.495
271	-0.505
272	-0.505
272	-0.511
272	-0.501
273	-0.51
273	-0.521
274	-0.513
274	-0.507
275	-0.506
275	-0.495
276	-0.499
276	-0.504
277	-0.505
277	-0.497
278	-0.501
278	-0.503
278	-0.491
279	-0.499
279	-0.514
280	-0.512
280	-0.521
281	-0.513
281	-0.506
282	-0.514
282	-0.51
283	-0.506
283	-0.519
284	-0.53
284	-0.541
285	-0.521
285	-0.53
285	-0.523
286	-0.527
286	-0.542
287	-0.537
287	-0.537
288	-0.536
288	-0.517
289	-0.515
289	-0.521
290	-0.526
290	-0.513
291	-0.516
291	-0.515
292	-0.497
292	-0.496
292	-0.499
293	-0.489
293	-0.487
294	-0.49
294	-0.473
295	-0.463
295	-0.476
296	-0.488
296	-0.48
297	-0.468
297	-0.47
298	-0.471
298	-0.485
298	-0.484
299	-0.466
299	-0.459
300	-0.454
300	-0.436
301	-0.415
301	-0.422
302	-0.432
302	-0.418
303	-0.41
303	-0.402
304	-0.39
304	-0.395
305	-0.387
305	-0.396
305	-0.407
306	-0.394
306	-0.389
307	-0.383
307	-0.394
308	-0.394
308	-0.391
309	-0.393
309	-0.389
310	-0.388
310	-0.38
311	-0.369
311	-0.386
311	-0.379
312	-0.373
312	-0.361
313	-0.353
313	-0.351
314	-0.355
314	-0.351
315	-0.349
315	-0.343
316	-0.34
316	-0.329
317	-0.32
317	-0.318
318	-0.31
318	-0.309
318	-0.3
319	-0.291
319	-0.285
320	-0.284
320	-0.283
321	-0.277
321	-0.279
322	-0.275
322	-0.269
323	-0.274
323	-0.266
324	-0.262
324	-0.251
324	-0.24
325	-0.226
325	-0.211
326	-0.203
326	-0.18
327	-0.167
327	-0.146
328	-0.116
328	-0.093
329	-0.072
329	-0.048
330	-0.025
330	0.006
330	0.037
331	0.065
331	0.092
332	0.12
332	0.146
333	0.169
333	0.194
334	0.216
334	0.235
335	0.254
335	0.27
336	0.285
336	0.301
336	0.313
337	0.324
337	0.335
338	0.345
338	0.352
339	0.361
339	0.367
340	0.372
340	0.377
341	0.382
341	0.385
342	0.39
342	0.393
342	0.396
343	0.398
343	0.401
344	0.402
344	0.404
345	0.406
345	0.408
346	0.409
346	0.41
347	0.411
347	0.412
348	0.412
348	0.413
348	0.413
349	0.414
349	0.414
350	0.414
350	0.414
351	0.414
351	0.414
352	0.414
352	0.414
353	0.414
353	0.414
354	0.414
354	0.414
354	0.414
355	0.415
355	0.414
356	0.414
356	0.415
357	0.416
357	0.416
358	0.415
358	0.415
359	0.414
359	0.414
360	0.414
360	0.414
360	0.414
361	0.413
361	0.413
362	0.412
362	0.411
363	0.411
363	0.411
364	0.411
364	0.411
365	0.411
365	0.41
366	0.41
366	0.41
366	0.41
367	0.409
367	0.409
368	0.408
368	0.408
369	0.407
369	0.407
370	0.407
370	0.406
371	0.406
371	0.405
372	0.405
372	0.404
372	0.404
373	0.404
373	0.404
374	0.403
374	0.403
375	0.402
375	0.402
376	0.402
376	0.401
377	0.401
377	0.4
378	0.4
378	0.399
378	0.399
379	0.398
379	0.398
380	0.398
380	0.397
381	0.397
381	0.397
382	0.396
382	0.396
383	0.395
383	0.395
383	0.394
384	0.394
384	0.393
385	0.392
385	0.392
386	0.391
386	0.391
387	0.39
387	0.39
388	0.39
388	0.389
389	0.389
389	0.389
389	0.388
390	0.388
390	0.387
391	0.387
391	0.386
392	0.386
392	0.386
393	0.385
393	0.385
394	0.384
394	0.384
394	0.383
395	0.383
395	0.382
396	0.382
396	0.381
397	0.381
397	0.38
398	0.38
398	0.379
399	0.379
399	0.378
400	0.378
400	0.377
400	0.377
401	0.377
401	0.376
402	0.376
402	0.375
403	0.375
403	0.375
404	0.374
404	0.373
405	0.373
405	0.372
405	0.372
406	0.372
406	0.372
407	0.371
407	0.371
408	0.37
408	0.37
409	0.37
409	0.37
410	0.369
410	0.369
411	0.369
411	0.368
411	0.368
412	0.368
412	0.367
413	0.367
413	0.367
414	0.366
414	0.366
415	0.366
415	0.365
416	0.365
416	0.365
416	0.365
417	0.364
417	0.364
418	0.364
418	0.363
419	0.363
419	0.363
420	0.363
420	0.363
421	0.363
421	0.363
421	0.363
422	0.363
422	0.363
423	0.362
423	0.362
424	0.362
424	0.362
425	0.362
425	0.361
426	0.361
426	0.361
427	0.361
427	0.361
427	0.361
428	0.36
428	0.36
429	0.36
429	0.36
430	0.359
430	0.359
431	0.359
431	0.358
432	0.358
432	0.358
432	0.358
433	0.358
433	0.358
434	0.358
434	0.358
435	0.358
435	0.358
436	0.358
436	0.358
437	0.358
437	0.358
437	0.358
438	0.358
438	0.358
439	0.358
439	0.358
440	0.357
440	0.357
441	0.357
441	0.357
442	0.357
442	0.357
442	0.357
443	0.357
443	0.357
444	0.357
444	0.358
445	0.357
445	0.357
446	0.357
446	0.357
447	0.357
447	0.358
447	0.358
448	0.358
448	0.358
449	0.358
449	0.358
450	0.359
450	0.359
451	0.359
451	0.359
452	0.359
452	0.359
452	0.359
453	0.359
453	0.359
454	0.36
454	0.36
455	0.36
455	0.36
456	0.361
456	0.361
457	0.361
457	0.361
458	0.362
458	0.362
458	0.362
459	0.362
459	0.362
460	0.362
460	0.362
461	0.363
461	0.364
462	0.364
462	0.365
463	0.366
463	0.367
463	0.367
464	0.368
464	0.368
465	0.369
465	0.369
466	0.37
466	0.37
467	0.371
467	0.371
467	0.372
468	0.372
468	0.373
469	0.374
469	0.375
470	0.376
470	0.377
471	0.378
471	0.378
472	0.379
472	0.38
472	0.381
473	0.382
473	0.382
474	0.383
474	0.385
475	0.386
475	0.387
476	0.388
476	0.389
477	0.39
477	0.392
477	0.393
478	0.394
478	0.396
479	0.397
479	0.399
480	0.4
480	0.401
481	0.403
481	0.404
482	0.406
482	0.407
482	0.409
483	0.411
483	0.414
484	0.416
484	0.418
485	0.42
485	0.422
486	0.424
486	0.426
487	0.427
487	0.429
487	0.431
488	0.433
488	0.435
489	0.438
489	0.44
490	0.443
490	0.445
491	0.448
491	0.451
492	0.454
492	0.456
492	0.459
493	0.461
493	0.464
494	0.467
494	0.47
495	0.473
495	0.476
496	0.479
496	0.482
496	0.485
497	0.488
497	0.491
498	0.495
498	0.498
499	0.501
499	0.505
500	0.509
500	0.513
501	0.516
501	0.52
501	0.523
502	0.527
502	0.531
503	0.534
503	0.538
504	0.541
504	0.545
505	0.549
505	0.553
506	0.557
506	0.561
506	0.565
507	0.568
507	0.572
508	0.577
508	0.581
509	0.585
509	0.589
510	0.593
510	0.597
511	0.6
511	0.604
511	0.607
512	0.611
512	0.614
513	0.617
513	0.62
514	0.624
514	0.627
515	0.63
515	0.632
515	0.636
516	0.638
516	0.641
517	0.644
517	0.647
518	0.649
518	0.651
519	0.653
519	0.655
520	0.658
520	0.66
520	0.662
521	0.664
521	0.666
522	0.668
522	0.669
523	0.67
523	0.672
524	0.673
524	0.674
524	0.675
525	0.676
525	0.676
526	0.677
526	0.677
527	0.677
527	0.677
528	0.677
528	0.676
529	0.676
529	0.676
529	0.675
530	0.674
530	0.673
531	0.671
531	0.67
532	0.668
532	0.667
533	0.665
533	0.663
533	0.661
534	0.658
534	0.656
535	0.653
535	0.651
536	0.648
536	0.646
537	0.643
537	0.64
538	0.637
538	0.633
538	0.63
539	0.627
539	0.623
540	0.62
540	0.616
541	0.612
541	0.608
542	0.604
542	0.6
542	0.595
543	0.591
543	0.586
544	0.582
544	0.577
545	0.572
545	0.567
546	0.562
546	0.557
547	0.551
547	0.546
547	0.541
548	0.536
548	0.532
549	0.527
549	0.522
550	0.517
550	0.511
551	0.506
551	0.5
551	0.495
552	0.489
552	0.484
553	0.479
553	0.473
554	0.468
554	0.462
555	0.456
555	0.451
556	0.445
556	0.44
556	0.434
557	0.429
557	0.424
558	0.418
558	0.413
559	0.407
559	0.402
560	0.398
560	0.393
560	0.389
561	0.384
561	0.38
562	0.376
562	0.371
563	0.367
563	0.362
564	0.358
564	0.354
564	0.349
565	0.345
565	0.341
566	0.336
566	0.332
567	0.327
567	0.323
568	0.319
568	0.314
568	0.309
569	0.305
569	0.3
570	0.295
570	0.29
571	0.287
571	0.283
572	0.278
572	0.274
573	0.271
573	0.267
573	0.263
574	0.26
574	0.257
575	0.254
575	0.252
576	0.249
576	0.245
577	0.242
577	0.239
577	0.237
578	0.234
578	0.231
579	0.229
579	0.227
580	0.223
580	0.22
581	0.217
581	0.214
581	0.212
582	0.21
582	0.207
583	0.205
583	0.202
584	0.198
584	0.194
585	0.192
585	0.189
585	0.186
586	0.183
586	0.181
587	0.178
587	0.176
588	0.173
588	0.171
589	0.17
589	0.168
590	0.166
590	0.165
590	0.164
591	0.162
591	0.16
592	0.158
592	0.156
593	0.155
593	0.153
594	0.151
594	0.149
594	0.148
595	0.146
595	0.144
596	0.142
596	0.141
597	0.14
597	0.138
598	0.137
598	0.135
598	0.134
599	0.133
599	0.131
600	0.13
600	0.129
601	0.128
601	0.127
602	0.125
602	0.124
602	0.123
603	0.122
603	0.122
604	0.121
604	0.12
605	0.118
605	0.117
606	0.116
606	0.114
606	0.113
607	0.112
607	0.111
608	0.109
608	0.108
609	0.107
609	0.106
610	0.104
610	0.103
610	0.101
611	0.1
611	0.099
612	0.099
612	0.098
613	0.098
613	0.097
614	0.096
614	0.095
614	0.095
615	0.094
615	0.094
616	0.093
616	0.092
617	0.092
617	0.091
618	0.09
618	0.089
618	0.089
619	0.089
619	0.088
620	0.088
620	0.087
621	0.086
621	0.085
622	0.084
622	0.083
622	0.082
623	0.081
623	0.08
624	0.079
624	0.079
625	0.078
625	0.078
626	0.077
626	0.077
626	0.077
627	0.077
627	0.076
628	0.075
628	0.075
629	0.074
629	0.073
630	0.072
630	0.071
630	0.071
631	0.07
631	0.069
632	0.068
632	0.067
633	0.067
633	0.066
634	0.066
634	0.065
634	0.064
635	0.063
635	0.062
636	0.061
636	0.06
637	0.059
637	0.058
638	0.058
638	0.057
638	0.056
639	0.054
639	0.053
640	0.053
640	0.052
641	0.051
641	0.05
642	0.049
642	0.049
642	0.048
643	0.047
643	0.046
644	0.045
644	0.044
645	0.043
645	0.043
646	0.042
646	0.04
646	0.038
647	0.036
647	0.034
648	0.032
648	0.03
649	0.028
649	0.026
650	0.023
650	0.021
650	0.019
651	0.016
651	0.012
652	0.008
652	0.003
653	-0
653	-0.004
653	-0.001
654	0.003
654	0.003
655	-0
655	-0.003
656	-0.005
656	-0.007
657	-0.009
657	-0.011
657	-0.015
658	-0.017
658	-0.03
659	-0.063
659	-0.094
660	-0.11
660	-0.122
661	-0.133
661	-0.149
661	-0.165
662	-0.177
662	-0.19
663	-0.205
663	-0.223
664	-0.238
664	-0.259
665	-0.281
665	-0.304
665	-0.325
666	-0.349
666	-0.378
667	-0.409
667	-0.444
668	-0.48
668	-0.527
669	-0.574
669	-0.627
669	-0.694
670	-0.801
670	-1.071
671	-1.431
671	-1.796
672	-2.14
672	-2.363
672	-2.495
673	-2.538
673	-2.55
674	-2.566
674	-2.575
675	-2.589
675	-2.588
676	-2.573
676	-2.519
676	-2.384
677	-2.135
677	-1.654
678	-1.111
678	-0.883
679	-0.793
679	-0.734
680	-0.687
680	-0.657
680	-0.633
681	-0.623
681	-0.6
682	-0.586
682	-0.565
683	-0.544
683	-0.543
684	-0.535
684	-0.531
684	-0.528
685	-0.523
685	-0.523
686	-0.51
686	-0.506
687	-0.506
687	-0.505
687	-0.513
688	-0.504
688	-0.506
689	-0.515
689	-0.514
690	-0.506
690	-0.504
691	-0.507
691	-0.513
691	-0.515
692	-0.519
692	-0.515
693	-0.523
693	-0.532
694	-0.517
694	-0.518
695	-0.525
695	-0.519
695	-0.528
696	-0.538
696	-0.534
697	-0.532
697	-0.533
698	-0.528
698	-0.527
698	-0.543
699	-0.543
699	-0.544
700	-0.565
700	-0.562
701	-0.548
701	-0.542
702	-0.542
702	-0.543
702	-0.545
703	-0.533
703	-0.521
704	-0.528
704	-0.533
705	-0.522
705	-0.522
705	-0.518
706	-0.512
706	-0.511
707	-0.523
707	-0.525
708	-0.524
708	-0.524
709	-0.526
709	-0.522
709	-0.52
710	-0.527
710	-0.534
711	-0.534
711	-0.532
712	-0.524
712	-0.524
713	-0.528
713	-0.53
713	-0.512
714	-0.514
714	-0.518
715	-0.512
715	-0.514
716	-0.532
716	-0.542
716	-0.541
717	-0.546
717	-0.539
718	-0.532
718	-0.536
719	-0.532
719	-0.525
720	-0.518
720	-0.519
720	-0.513
721	-0.504
721	-0.51
722	-0.508
722	-0.504
723	-0.52
723	-0.529
723	-0.537
724	-0.538
724	-0.543
725	-0.534
725	-0.536
726	-0.543
726	-0.535
727	-0.535
727	-0.542
727	-0.533
728	-0.519
728	-0.518
729	-0.518
729	-0.522
730	-0.528
730	-0.523
730	-0.526
731	-0.527
731	-0.526
732	-0.529
732	-0.524
733	-0.54
733	-0.545
734	-0.552
734	-0.544
734	-0.529
735	-0.519
735	-0.513
736	-0.512
736	-0.51
737	-0.51
737	-0.502
737	-0.494
738	-0.48
738	-0.471
739	-0.471
739	-0.474
740	-0.488
740	-0.488
741	-0.498
741	-0.505
741	-0.515
742	-0.521
742	-0.535
743	-0.542
743	-0.544
744	-0.552
744	-0.56
744	-0.553
745	-0.56
745	-0.553
746	-0.548
746	-0.538
747	-0.542
747	-0.533
748	-0.536
748	-0.54
748	-0.536
749	-0.529
749	-0.531
750	-0.524
750	-0.524
751	-0.527
751	-0.525
751	-0.538
752	-0.544
752	-0.546
753	-0.546
753	-0.539
754	-0.554
754	-0.555
754	-0.562
755	-0.561
755	-0.553
756	-0.557
756	-0.541
757	-0.532
757	-0.521
758	-0.522
758	-0.521
758	-0.517
759	-0.521
759	-0.522
760	-0.519
760	-0.52
761	-0.512
761	-0.514
761	-0.514
762	-0.518
762	-0.522
763	-0.525
763	-0.529
764	-0.527
764	-0.524
764	-0.532
765	-0.532
765	-0.538
766	-0.544
766	-0.546
767	-0.563
767	-0.557
768	-0.556
768	-0.549
768	-0.547
769	-0.549
769	-0.557
770	-0.566
770	-0.57
771	-0.566
771	-0.565
771	-0.571
772	-0.572
772	-0.59
773	-0.593
773	-0.589
774	-0.588
774	-0.57
775	-0.558
775	-0.556
775	-0.558
776	-0.569
776	-0.563
777	-0.563
777	-0.547
778	-0.554
778	-0.565
778	-0.565
779	-0.572
779	-0.584
780	-0.579
780	-0.588
781	-0.578
781	-0.57
781	-0.583
782	-0.602
782	-0.601
783	-0.6
783	-0.608
784	-0.614
784	-0.611
784	-0.632
785	-0.626
785	-0.634
786	-0.639
786	-0.631
787	-0.624
787	-0.632
788	-0.623
788	-0.617
788	-0.616
789	-0.614
789	-0.603
790	-0.603
790	-0.588
791	-0.596
791	-0.593
791	-0.584
792	-0.579
792	-0.588
793	-0.593
793	-0.582
794	-0.578
794	-0.574
794	-0.582
795	-0.604
795	-0.591
796	-0.598
796	-0.598
797	-0.593
797	-0.58
797	-0.572
798	-0.594
798	-0.599
799	-0.596
799	-0.581
800	-0.578
800	-0.585
801	-0.58
801	-0.583
801	-0.58
802	-0.582
802	-0.581
803	-0.573
803	-0.565
804	-0.572
804	-0.578
804	-0.563
805	-0.545
805	-0.538
806	-0.54
806	-0.537
807	-0.537
807	-0.539
807	-0.524
808	-0.521
808	-0.515
809	-0.513
809	-0.513
810	-0.518
810	-0.517
810	-0.515
811	-0.519
811	-0.515
812	-0.505
812	-0.506
813	-0.509
813	-0.512
813	-0.511
814	-0.509
814	-0.51
815	-0.501
815	-0.498
816	-0.494
816	-0.505
817	-0.517
817	-0.522
817	-0.534
818	-0.525
818	-0.522
819	-0.532
819	-0.532
820	-0.544
820	-0.542
820	-0.54
821	-0.538
821	-0.534
822	-0.534
822	-0.52
823	-0.533
823	-0.527
823	-0.523
824	-0.523
824	-0.532
825	-0.531
825	-0.529
826	-0.526
826	-0.522
826	-0.521
827	-0.522
827	-0.514
828	-0.518
828	-0.513
829	-0.506
829	-0.492
829	-0.491
830	-0.489
830	-0.475
831	-0.469
831	-0.46
832	-0.451
832	-0.445
832	-0.437
833	-0.434
833	-0.441
834	-0.439
834	-0.431
835	-0.429
835	-0.43
835	-0.426
836	-0.424
836	-0.424
837	-0.415
837	-0.41
838	-0.4
838	-0.384
839	-0.38
839	-0.371
839	-0.36
840	-0.36
840	-0.352
841	-0.344
841	-0.337
842	-0.333
842	-0.323
842	-0.323
843	-0.322
843	-0.318
844	-0.32
844	-0.311
845	-0.301
845	-0.297
845	-0.287
846	-0.278
846	-0.27
847	-0.263
847	-0.254
848	-0.243
848	-0.233
848	-0.223
849	-0.215
849	-0.207
850	-0.2
850	-0.194
851	-0.189
851	-0.179
851	-0.173
852	-0.163
852	-0.156
853	-0.152
853	-0.147
854	-0.142
854	-0.135
854	-0.128
855	-0.121
855	-0.115
856	-0.112
856	-0.107
857	-0.103
857	-0.099
857	-0.09
858	-0.082
858	-0.078
859	-0.073
859	-0.068
860	-0.063
860	-0.055
860	-0.05
861	-0.044
861	-0.039
862	-0.035
862	-0.032
863	-0.028
863	-0.024
863	-0.021
864	-0.018
864	-0.014
865	-0.012
865	-0.009
866	-0.007
866	-0.004
866	-0.002
867	0
867	0.003
868	0.004
868	0.007
869	0.009
869	0.011
869	0.013
870	0.015
870	0.017
871	0.018
871	0.018
872	0.019
872	0.019
872	0.019
873	0.019
873	0.019
874	0.019
874	0.018
875	0.018
875	0.017
875	0.017
876	0.016
876	0.016
877	0.015
877	0.014
878	0.013
878	0.013
878	0.012
879	0.011
879	0.01
880	0.01
880	0.009
881	0.009
881	0.009
881	0.009
882	0.009
882	0.009
883	0.009
883	0.008
884	0.008
884	0.008
884	0.008
885	0.008
885	0.007
886	0.006
886	0.005
887	0.005
887	0.003
887	0.002
888	0.002
888	0.001
889	0.001
889	0
890	-0
890	-0.001
890	-0.001
891	-0.001
891	-0.001
892	0
892	0.001
893	0.002
893	0.002
893	0.002
894	0.002
894	0.003
895	0.003
895	0.004
895	0.004
896	0.005
896	0.005
897	0.005
897	0.005
898	0.005
898	0.005
898	0.005
899	0.006
899	0.006
900	0.006
900	0.005
901	0.005
901	0.004
901	0.004
902	0.003
902	0.003
903	0.003
903	0.002
904	0.001
904	0.001
904	0
905	0
905	0
906	0.001
906	0.001
907	0.001
907	0.002
907	0.002
908	0.003
908	0.004
909	0.004
909	0.004
910	0.005
910	0.005
910	0.005
911	0.005
911	0.006
912	0.008
912	0.009
913	0.01
913	0.011
913	0.012
914	0.012
914	0.013
915	0.013
915	0.013
916	0.013
916	0.012
916	0.012
917	0.011
917	0.01
918	0.009
918	0.008
918	0.008
919	0.007
919	0.007
920	0.007
920	0.007
921	0.007
921	0.008
921	0.008
922	0.008
922	0.008
923	0.009
923	0.009
924	0.008
924	0.008
924	0.008
925	0.008
925	0.007
926	0.007
926	0.006
927	0.006
927	0.006
927	0.006
928	0.006
928	0.006
929	0.007
929	0.007
930	0.008
930	0.01
930	0.011
931	0.012
931	0.013
932	0.014
932	0.015
933	0.017
933	0.017
933	0.018
934	0.018
934	0.018
935	0.019
935	0.018
935	0.017
936	0.017
936	0.015
937	0.014
937	0.013
938	0.012
938	0.011
938	0.01
939	0.01
939	0.009
940	0.009
940	0.008
941	0.008
941	0.008
941	0.008
942	0.009
942	0.009
943	0.01
943	0.01
944	0.01
944	0.01
944	0.01
945	0.01
945	0.01
946	0.01
946	0.009
946	0.008
947	0.008
947	0.007
948	0.006
948	0.005
949	0.005
949	0.004
949	0.005
950	0.004
950	0.005
951	0.005
951	0.006
952	0.007
952	0.008
952	0.008
953	0.009
953	0.01
954	0.01
954	0.01
955	0.01
955	0.01
955	0.009
956	0.009
956	0.008
957	0.007
957	0.006
957	0.005
958	0.005
958	0.005
959	0.004
959	0.004
960	0.004
960	0.004
960	0.004
961	0.004
961	0.004
962	0.004
962	0.005
963	0.005
963	0.006
963	0.006
964	0.007
964	0.008
965	0.008
965	0.009
966	0.01
966	0.01
966	0.011
967	0.011
967	0.012
968	0.012
968	0.012
968	0.012
969	0.012
969	0.011
970	0.01
970	0.01
971	0.009
971	0.009
971	0.008
972	0.008
972	0.008
973	0.008
973	0.008
974	0.008
974	0.008
974	0.009
975	0.01
975	0.01
976	0.011
976	0.011
976	0.011
977	0.011
977	0.011
978	0.01
978	0.009
979	0.009
979	0.008
979	0.007
980	0.006
980	0.005
981	0.004
981	0.004
982	0.003
982	0.003
982	0.003
983	0.003
983	0.003
984	0.003
984	0.003
984	0.003
985	0.004
985	0.004
986	0.004
986	0.004
987	0.004
987	0.004
987	0.005
988	0.004
988	0.004
989	0.004
989	0.004
990	0.003
990	0.002
990	0.002
991	0.001
991	0.001
992	0.001
992	0
992	0
993	0
993	-0
994	-0
994	-0
995	-0
995	-0
995	-0
996	-0
996	-0
997	-0
997	-0
997	0
998	0
998	0.001
999	0.001
999	0.001
1000	0.001
1000	0.001
1000	0.001
1001	0.001
1001	0.001
1002	0.001
1002	0.001
1003	0.001
1003	0
1003	-0
1004	-0.001
1004	-0.001
1005	-0.002
1005	-0.003
1005	-0.003
1006	-0.004
1006	-0.005
1007	-0.006
1007	-0.006
1008	-0.007
1008	-0.008
1008	-0.009
1009	-0.009
1009	-0.009
1010	-0.009
1010	-0.008
1010	-0.008
1011	-0.008
1011	-0.008
1012	-0.007
1012	-0.006
1013	-0.005
1013	-0.005
1013	-0.004
1014	-0.003
1014	-0.002
1015	-0.002
1015	-0.001
1016	-0
1016	-0
1016	0
1017	0.001
1017	0.001
1018	0.001
1018	0.001
1018	0.001
1019	0.001
1019	0.001
1020	0.001
1020	0
1021	-0
1021	-0.001
1021	-0.002
1022	-0.002
1022	-0.003
1023	-0.004
1023	-0.004
1023	-0.005
1024	-0.006
1024	-0.007
1025	-0.007
1025	-0.008
1026	-0.009
1026	-0.009
1026	-0.01
1027	-0.01
1027	-0.011
1028	-0.011
1028	-0.011
1028	-0.011
1029	-0.012
1029	-0.012
1030	-0.013
1030	-0.013
1031	-0.014
1031	-0.013
1031	-0.013
1032	-0.014
1032	-0.014
1033	-0.015
1033	-0.015
1033	-0.015
1034	-0.015
1034	-0.015
1035	-0.015
1035	-0.014
1036	-0.014
1036	-0.014
1036	-0.014
1037	-0.013
1037	-0.012
1038	-0.012
1038	-0.011
1039	-0.01
1039	-0.009
1039	-0.008
1040	-0.008
1040	-0.007
1041	-0.006
1041	-0.006
1041	-0.006
1042	-0.007
1042	-0.007
1043	-0.008
1043	-0.008
1044	-0.009
1044	-0.01
1044	-0.011
1045	-0.012
1045	-0.012
1046	-0.013
1046	-0.013
1046	-0.013
1047	-0.014
1047	-0.014
1048	-0.014
1048	-0.014
1049	-0.015
1049	-0.015
1049	-0.016
1050	-0.017
1050	-0.017
1051	-0.018
1051	-0.019
1051	-0.02
1052	-0.02
1052	-0.021
1053	-0.021
1053	-0.021
1053	-0.021
1054	-0.021
1054	-0.02
1055	-0.02
1055	-0.019
1056	-0.02
1056	-0.02
1056	-0.02
1057	-0.02
1057	-0.02
1058	-0.021
1058	-0.021
1058	-0.021
1059	-0.021
1059	-0.021
1060	-0.021
1060	-0.02
1061	-0.02
1061	-0.019
1061	-0.019
1062	-0.019
1062	-0.019
1063	-0.019
1063	-0.019
1063	-0.019
1064	-0.019
1064	-0.019
1065	-0.019
1065	-0.019
1066	-0.019
1066	-0.019
1066	-0.02
1067	-0.02
1067	-0.02
1068	-0.02
1068	-0.021
1068	-0.021
1069	-0.022
1069	-0.023
1070	-0.023
1070	-0.024
1071	-0.024
1071	-0.025
1071	-0.025
1072	-0.025
1072	-0.024
1073	-0.024
1073	-0.024
1073	-0.023
1074	-0.023
1074	-0.023
1075	-0.023
1075	-0.023
1076	-0.023
1076	-0.023
1076	-0.024
1077	-0.025
1077	-0.026
1078	-0.026
1078	-0.027
1078	-0.027
1079	-0.028
1079	-0.028
1080	-0.028
1080	-0.029
1080	-0.03
1081	-0.03
1081	-0.03
1082	-0.03
1082	-0.031
1083	-0.031
1083	-0.032
1083	-0.032
1084	-0.033
1084	-0.033
1085	-0.034
1085	-0.034
1085	-0.034
1086	-0.034
1086	-0.035
1087	-0.035
1087	-0.036
1088	-0.037
1088	-0.037
1088	-0.037
1089	-0.038
1089	-0.039
1090	-0.039
1090	-0.04
1090	-0.042
1091	-0.042
1091	-0.042
1092	-0.042
1092	-0.042
1092	-0.043
1093	-0.043
1093	-0.043
1094	-0.043
1094	-0.044
1095	-0.044
1095	-0.044
1095	-0.043
1096	-0.045
1096	-0.046
1097	-0.046
1097	-0.047
1097	-0.048
1098	-0.049
1098	-0.05
1099	-0.051
1099	-0.052
1100	-0.053
1100	-0.055
1100	-0.056
1101	-0.058
1101	-0.059
1102	-0.06
1102	-0.061
1102	-0.062
1103	-0.064
1103	-0.066
1104	-0.068
1104	-0.07
1104	-0.071
1105	-0.072
1105	-0.073
1106	-0.076
1106	-0.077
1107	-0.081
1107	-0.085
1107	-0.087
1108	-0.088
1108	-0.089
1109	-0.091
1109	-0.093
1109	-0.096
1110	-0.098
1110	-0.1
1111	-0.107
1111	-0.102
