Data from 3.5A_17C_Absorbance__584__00586.txt Node

Date: Tue Jun 20 15:17:34 CEST 2023
User: Marek
Spectrometer: MAYP115816
Trigger mode: 0
Integration Time (sec): 2.200000E-1
Scans to average: 10
Electric dark correction enabled: true
Nonlinearity correction enabled: true
Boxcar width: 5
XAxis mode: Wavelengths
Number of Pixels in Spectrum: 2068
>>>>>Begin Spectral Data<<<<<
199	-0.666
199	-0.65
200	-0.62
200	-0.569
201	-0.541
201	-0.532
202	-0.515
202	-0.51
203	-0.509
203	-0.503
204	-0.484
204	-0.469
205	-0.448
205	-0.439
205	-0.445
206	-0.448
206	-0.445
207	-0.439
207	-0.443
208	-0.445
208	-0.449
209	-0.45
209	-0.455
210	-0.467
210	-0.475
211	-0.472
211	-0.475
212	-0.482
212	-0.488
213	-0.485
213	-0.48
213	-0.477
214	-0.485
214	-0.491
215	-0.487
215	-0.489
216	-0.497
216	-0.504
217	-0.503
217	-0.504
218	-0.514
218	-0.516
219	-0.523
219	-0.525
220	-0.526
220	-0.532
221	-0.533
221	-0.532
221	-0.521
222	-0.521
222	-0.519
223	-0.513
223	-0.516
224	-0.517
224	-0.515
225	-0.513
225	-0.515
226	-0.516
226	-0.516
227	-0.523
227	-0.533
228	-0.539
228	-0.548
229	-0.552
229	-0.551
229	-0.55
230	-0.546
230	-0.544
231	-0.541
231	-0.537
232	-0.538
232	-0.533
233	-0.532
233	-0.52
234	-0.521
234	-0.515
235	-0.517
235	-0.527
236	-0.535
236	-0.536
236	-0.535
237	-0.534
237	-0.532
238	-0.534
238	-0.536
239	-0.539
239	-0.548
240	-0.543
240	-0.536
241	-0.533
241	-0.534
242	-0.537
242	-0.547
243	-0.551
243	-0.551
243	-0.554
244	-0.549
244	-0.552
245	-0.554
245	-0.559
246	-0.57
246	-0.573
247	-0.583
247	-0.568
248	-0.565
248	-0.568
249	-0.574
249	-0.575
250	-0.572
250	-0.579
250	-0.577
251	-0.577
251	-0.572
252	-0.573
252	-0.585
253	-0.581
253	-0.592
254	-0.596
254	-0.596
255	-0.609
255	-0.608
256	-0.61
256	-0.624
257	-0.634
257	-0.632
258	-0.632
258	-0.641
258	-0.637
259	-0.63
259	-0.649
260	-0.647
260	-0.637
261	-0.647
261	-0.633
262	-0.636
262	-0.635
263	-0.626
263	-0.631
264	-0.64
264	-0.642
265	-0.633
265	-0.635
265	-0.644
266	-0.635
266	-0.634
267	-0.634
267	-0.649
268	-0.656
268	-0.651
269	-0.642
269	-0.654
270	-0.657
270	-0.654
271	-0.665
271	-0.676
272	-0.678
272	-0.681
272	-0.674
273	-0.685
273	-0.696
274	-0.689
274	-0.684
275	-0.682
275	-0.669
276	-0.672
276	-0.677
277	-0.677
277	-0.674
278	-0.678
278	-0.678
278	-0.667
279	-0.676
279	-0.688
280	-0.689
280	-0.702
281	-0.696
281	-0.688
282	-0.695
282	-0.69
283	-0.681
283	-0.696
284	-0.709
284	-0.72
285	-0.702
285	-0.708
285	-0.7
286	-0.706
286	-0.722
287	-0.719
287	-0.717
288	-0.719
288	-0.7
289	-0.698
289	-0.705
290	-0.712
290	-0.702
291	-0.707
291	-0.704
292	-0.685
292	-0.683
292	-0.685
293	-0.673
293	-0.669
294	-0.667
294	-0.656
295	-0.639
295	-0.651
296	-0.662
296	-0.658
297	-0.647
297	-0.652
298	-0.649
298	-0.665
298	-0.667
299	-0.651
299	-0.642
300	-0.64
300	-0.62
301	-0.6
301	-0.601
302	-0.612
302	-0.597
303	-0.591
303	-0.58
304	-0.563
304	-0.566
305	-0.558
305	-0.566
305	-0.583
306	-0.57
306	-0.568
307	-0.56
307	-0.57
308	-0.573
308	-0.568
309	-0.572
309	-0.567
310	-0.565
310	-0.561
311	-0.548
311	-0.568
311	-0.555
312	-0.554
312	-0.542
313	-0.535
313	-0.537
314	-0.542
314	-0.54
315	-0.538
315	-0.531
316	-0.524
316	-0.511
317	-0.502
317	-0.502
318	-0.492
318	-0.486
318	-0.473
319	-0.462
319	-0.456
320	-0.454
320	-0.452
321	-0.449
321	-0.448
322	-0.443
322	-0.434
323	-0.437
323	-0.43
324	-0.429
324	-0.418
324	-0.406
325	-0.391
325	-0.375
326	-0.366
326	-0.341
327	-0.328
327	-0.307
328	-0.275
328	-0.254
329	-0.226
329	-0.199
330	-0.174
330	-0.14
330	-0.105
331	-0.07
331	-0.039
332	-0.006
332	0.024
333	0.052
333	0.084
334	0.11
334	0.134
335	0.159
335	0.18
336	0.2
336	0.219
336	0.235
337	0.25
337	0.266
338	0.278
338	0.288
339	0.3
339	0.309
340	0.317
340	0.324
341	0.331
341	0.336
342	0.343
342	0.348
342	0.351
343	0.355
343	0.359
344	0.361
344	0.364
345	0.366
345	0.368
346	0.37
346	0.372
347	0.373
347	0.374
348	0.375
348	0.377
348	0.377
349	0.378
349	0.379
350	0.379
350	0.38
351	0.38
351	0.381
352	0.38
352	0.38
353	0.381
353	0.381
354	0.381
354	0.381
354	0.381
355	0.381
355	0.381
356	0.381
356	0.38
357	0.381
357	0.382
358	0.381
358	0.381
359	0.381
359	0.381
360	0.381
360	0.381
360	0.381
361	0.381
361	0.38
362	0.38
362	0.379
363	0.379
363	0.379
364	0.379
364	0.379
365	0.378
365	0.378
366	0.378
366	0.377
366	0.377
367	0.377
367	0.376
368	0.376
368	0.376
369	0.375
369	0.375
370	0.375
370	0.375
371	0.375
371	0.374
372	0.374
372	0.374
372	0.374
373	0.373
373	0.373
374	0.373
374	0.373
375	0.372
375	0.372
376	0.372
376	0.371
377	0.371
377	0.37
378	0.37
378	0.369
378	0.369
379	0.368
379	0.368
380	0.368
380	0.368
381	0.367
381	0.367
382	0.366
382	0.366
383	0.366
383	0.366
383	0.365
384	0.365
384	0.364
385	0.363
385	0.363
386	0.363
386	0.362
387	0.362
387	0.362
388	0.361
388	0.361
389	0.361
389	0.36
389	0.36
390	0.36
390	0.36
391	0.359
391	0.359
392	0.358
392	0.358
393	0.358
393	0.357
394	0.357
394	0.356
394	0.356
395	0.356
395	0.355
396	0.354
396	0.354
397	0.354
397	0.353
398	0.352
398	0.352
399	0.352
399	0.351
400	0.351
400	0.351
400	0.35
401	0.35
401	0.349
402	0.349
402	0.349
403	0.349
403	0.348
404	0.348
404	0.347
405	0.347
405	0.346
405	0.346
406	0.346
406	0.346
407	0.345
407	0.345
408	0.344
408	0.344
409	0.344
409	0.344
410	0.344
410	0.344
411	0.343
411	0.343
411	0.343
412	0.342
412	0.342
413	0.342
413	0.341
414	0.341
414	0.341
415	0.34
415	0.34
416	0.34
416	0.339
416	0.339
417	0.339
417	0.339
418	0.339
418	0.339
419	0.339
419	0.339
420	0.338
420	0.338
421	0.338
421	0.338
421	0.338
422	0.338
422	0.337
423	0.337
423	0.337
424	0.336
424	0.336
425	0.336
425	0.336
426	0.336
426	0.336
427	0.336
427	0.336
427	0.336
428	0.336
428	0.335
429	0.335
429	0.335
430	0.335
430	0.334
431	0.334
431	0.334
432	0.334
432	0.333
432	0.333
433	0.333
433	0.333
434	0.333
434	0.334
435	0.334
435	0.334
436	0.333
436	0.333
437	0.333
437	0.333
437	0.333
438	0.333
438	0.333
439	0.333
439	0.333
440	0.333
440	0.333
441	0.333
441	0.333
442	0.333
442	0.333
442	0.333
443	0.332
443	0.333
444	0.332
444	0.333
445	0.332
445	0.333
446	0.333
446	0.333
447	0.333
447	0.333
447	0.333
448	0.333
448	0.333
449	0.333
449	0.333
450	0.333
450	0.333
451	0.334
451	0.333
452	0.333
452	0.333
452	0.333
453	0.334
453	0.334
454	0.334
454	0.334
455	0.334
455	0.335
456	0.335
456	0.335
457	0.335
457	0.335
458	0.336
458	0.336
458	0.336
459	0.336
459	0.336
460	0.336
460	0.336
461	0.336
461	0.336
462	0.337
462	0.337
463	0.338
463	0.339
463	0.34
464	0.34
464	0.341
465	0.341
465	0.342
466	0.342
466	0.343
467	0.343
467	0.344
467	0.344
468	0.344
468	0.344
469	0.345
469	0.346
470	0.347
470	0.348
471	0.349
471	0.349
472	0.35
472	0.351
472	0.351
473	0.353
473	0.353
474	0.354
474	0.355
475	0.356
475	0.357
476	0.357
476	0.359
477	0.359
477	0.361
477	0.362
478	0.362
478	0.363
479	0.365
479	0.366
480	0.367
480	0.368
481	0.369
481	0.371
482	0.372
482	0.374
482	0.375
483	0.378
483	0.38
484	0.382
484	0.383
485	0.385
485	0.386
486	0.388
486	0.389
487	0.391
487	0.392
487	0.394
488	0.395
488	0.397
489	0.399
489	0.401
490	0.403
490	0.406
491	0.408
491	0.41
492	0.413
492	0.415
492	0.417
493	0.419
493	0.422
494	0.425
494	0.427
495	0.429
495	0.432
496	0.434
496	0.437
496	0.44
497	0.443
497	0.446
498	0.449
498	0.452
499	0.455
499	0.459
500	0.462
500	0.466
501	0.469
501	0.472
501	0.475
502	0.478
502	0.481
503	0.484
503	0.487
504	0.49
504	0.493
505	0.496
505	0.5
506	0.503
506	0.507
506	0.51
507	0.513
507	0.517
508	0.521
508	0.525
509	0.528
509	0.531
510	0.535
510	0.538
511	0.541
511	0.544
511	0.547
512	0.551
512	0.554
513	0.556
513	0.559
514	0.562
514	0.566
515	0.569
515	0.572
515	0.574
516	0.577
516	0.58
517	0.582
517	0.584
518	0.587
518	0.589
519	0.59
519	0.592
520	0.594
520	0.596
520	0.598
521	0.6
521	0.602
522	0.603
522	0.605
523	0.606
523	0.607
524	0.608
524	0.609
524	0.61
525	0.611
525	0.611
526	0.612
526	0.613
527	0.613
527	0.613
528	0.613
528	0.613
529	0.613
529	0.613
529	0.612
530	0.612
530	0.611
531	0.61
531	0.609
532	0.608
532	0.607
533	0.606
533	0.604
533	0.602
534	0.601
534	0.599
535	0.596
535	0.595
536	0.592
536	0.59
537	0.587
537	0.585
538	0.583
538	0.58
538	0.577
539	0.575
539	0.572
540	0.569
540	0.566
541	0.563
541	0.56
542	0.556
542	0.553
542	0.549
543	0.546
543	0.542
544	0.538
544	0.535
545	0.531
545	0.527
546	0.524
546	0.519
547	0.515
547	0.511
547	0.507
548	0.504
548	0.499
549	0.495
549	0.491
550	0.487
550	0.483
551	0.477
551	0.473
551	0.468
552	0.464
552	0.46
553	0.456
553	0.451
554	0.447
554	0.442
555	0.438
555	0.433
556	0.429
556	0.424
556	0.42
557	0.416
557	0.412
558	0.408
558	0.404
559	0.399
559	0.395
560	0.391
560	0.387
560	0.383
561	0.38
561	0.377
562	0.373
562	0.37
563	0.366
563	0.362
564	0.359
564	0.355
564	0.352
565	0.349
565	0.346
566	0.342
566	0.339
567	0.335
567	0.332
568	0.328
568	0.324
568	0.321
569	0.317
569	0.313
570	0.309
570	0.305
571	0.302
571	0.298
572	0.295
572	0.291
573	0.288
573	0.285
573	0.282
574	0.279
574	0.277
575	0.274
575	0.273
576	0.27
576	0.267
577	0.264
577	0.261
577	0.26
578	0.258
578	0.256
579	0.255
579	0.253
580	0.25
580	0.246
581	0.243
581	0.241
581	0.24
582	0.238
582	0.236
583	0.234
583	0.231
584	0.227
584	0.223
585	0.221
585	0.219
585	0.217
586	0.214
586	0.212
587	0.209
587	0.206
588	0.204
588	0.202
589	0.2
589	0.198
590	0.197
590	0.195
590	0.194
591	0.193
591	0.191
592	0.189
592	0.187
593	0.186
593	0.185
594	0.183
594	0.182
594	0.181
595	0.18
595	0.178
596	0.176
596	0.176
597	0.176
597	0.174
598	0.173
598	0.171
598	0.17
599	0.169
599	0.167
600	0.166
600	0.165
601	0.164
601	0.162
602	0.16
602	0.159
602	0.157
603	0.157
603	0.156
604	0.155
604	0.154
605	0.153
605	0.152
606	0.151
606	0.149
606	0.148
607	0.147
607	0.146
608	0.145
608	0.143
609	0.142
609	0.141
610	0.14
610	0.138
610	0.137
611	0.137
611	0.136
612	0.136
612	0.135
613	0.135
613	0.134
614	0.133
614	0.131
614	0.131
615	0.129
615	0.128
616	0.128
616	0.127
617	0.126
617	0.125
618	0.123
618	0.122
618	0.121
619	0.121
619	0.12
620	0.12
620	0.119
621	0.118
621	0.117
622	0.116
622	0.115
622	0.114
623	0.113
623	0.113
624	0.112
624	0.111
625	0.11
625	0.11
626	0.109
626	0.108
626	0.107
627	0.107
627	0.106
628	0.105
628	0.104
629	0.102
629	0.101
630	0.099
630	0.098
630	0.096
631	0.095
631	0.094
632	0.092
632	0.091
633	0.089
633	0.088
634	0.087
634	0.086
634	0.085
635	0.083
635	0.082
636	0.081
636	0.08
637	0.078
637	0.076
638	0.075
638	0.073
638	0.072
639	0.069
639	0.067
640	0.065
640	0.063
641	0.061
641	0.059
642	0.057
642	0.055
642	0.053
643	0.05
643	0.048
644	0.045
644	0.042
645	0.039
645	0.036
646	0.033
646	0.029
646	0.025
647	0.02
647	0.016
648	0.012
648	0.008
649	0.004
649	-0
650	-0.004
650	-0.009
650	-0.013
651	-0.019
651	-0.026
652	-0.034
652	-0.043
653	-0.05
653	-0.057
653	-0.052
654	-0.041
654	-0.039
655	-0.043
655	-0.046
656	-0.05
656	-0.054
657	-0.057
657	-0.06
657	-0.064
658	-0.069
658	-0.091
659	-0.15
659	-0.208
660	-0.236
660	-0.255
661	-0.274
661	-0.296
661	-0.318
662	-0.338
662	-0.361
663	-0.385
663	-0.412
664	-0.438
664	-0.469
665	-0.503
665	-0.537
665	-0.569
666	-0.608
666	-0.651
667	-0.694
667	-0.743
668	-0.792
668	-0.851
669	-0.91
669	-0.973
669	-1.043
670	-1.118
670	-1.234
671	-1.417
671	-1.756
672	-2.157
672	-2.372
672	-2.519
673	-2.632
673	-2.723
674	-2.753
674	-2.764
675	-2.78
675	-2.784
676	-2.785
676	-2.758
676	-2.676
677	-2.571
677	-2.436
678	-2.212
678	-1.685
679	-1.373
679	-1.244
680	-1.159
680	-1.096
680	-1.043
681	-1.007
681	-0.965
682	-0.934
682	-0.899
683	-0.863
683	-0.85
684	-0.829
684	-0.816
684	-0.801
685	-0.789
685	-0.784
686	-0.765
686	-0.756
687	-0.751
687	-0.745
687	-0.749
688	-0.735
688	-0.733
689	-0.739
689	-0.737
690	-0.723
690	-0.715
691	-0.716
691	-0.721
691	-0.724
692	-0.723
692	-0.723
693	-0.733
693	-0.746
694	-0.726
694	-0.726
695	-0.731
695	-0.725
695	-0.733
696	-0.738
696	-0.732
697	-0.728
697	-0.725
698	-0.723
698	-0.717
698	-0.734
699	-0.734
699	-0.733
700	-0.754
700	-0.75
701	-0.74
701	-0.733
702	-0.731
702	-0.728
702	-0.728
703	-0.719
703	-0.708
704	-0.716
704	-0.721
705	-0.709
705	-0.707
705	-0.703
706	-0.697
706	-0.697
707	-0.709
707	-0.713
708	-0.711
708	-0.709
709	-0.711
709	-0.707
709	-0.705
710	-0.715
710	-0.717
711	-0.715
711	-0.717
712	-0.71
712	-0.707
713	-0.714
713	-0.713
713	-0.691
714	-0.694
714	-0.697
715	-0.689
715	-0.697
716	-0.713
716	-0.722
716	-0.723
717	-0.729
717	-0.719
718	-0.714
718	-0.718
719	-0.711
719	-0.704
720	-0.698
720	-0.696
720	-0.693
721	-0.683
721	-0.687
722	-0.684
722	-0.68
723	-0.696
723	-0.707
723	-0.718
724	-0.719
724	-0.724
725	-0.718
725	-0.722
726	-0.726
726	-0.716
727	-0.718
727	-0.727
727	-0.72
728	-0.708
728	-0.705
729	-0.706
729	-0.71
730	-0.713
730	-0.705
730	-0.71
731	-0.713
731	-0.712
732	-0.714
732	-0.709
733	-0.725
733	-0.729
734	-0.738
734	-0.728
734	-0.711
735	-0.698
735	-0.694
736	-0.693
736	-0.687
737	-0.684
737	-0.672
737	-0.663
738	-0.649
738	-0.635
739	-0.638
739	-0.641
740	-0.656
740	-0.657
741	-0.669
741	-0.678
741	-0.688
742	-0.696
742	-0.711
743	-0.719
743	-0.725
744	-0.727
744	-0.735
744	-0.729
745	-0.735
745	-0.727
746	-0.722
746	-0.713
747	-0.716
747	-0.707
748	-0.707
748	-0.711
748	-0.712
749	-0.706
749	-0.711
750	-0.703
750	-0.701
751	-0.701
751	-0.699
751	-0.71
752	-0.712
752	-0.717
753	-0.716
753	-0.71
754	-0.729
754	-0.73
754	-0.737
755	-0.737
755	-0.729
756	-0.731
756	-0.718
757	-0.713
757	-0.702
758	-0.705
758	-0.705
758	-0.698
759	-0.703
759	-0.702
760	-0.703
760	-0.707
761	-0.702
761	-0.704
761	-0.703
762	-0.709
762	-0.708
763	-0.708
763	-0.712
764	-0.712
764	-0.708
764	-0.712
765	-0.71
765	-0.716
766	-0.72
766	-0.724
767	-0.738
767	-0.733
768	-0.734
768	-0.726
768	-0.72
769	-0.721
769	-0.73
770	-0.738
770	-0.742
771	-0.738
771	-0.738
771	-0.743
772	-0.747
772	-0.767
773	-0.768
773	-0.77
774	-0.77
774	-0.751
775	-0.74
775	-0.739
775	-0.742
776	-0.753
776	-0.75
777	-0.75
777	-0.729
778	-0.738
778	-0.747
778	-0.747
779	-0.755
779	-0.772
780	-0.765
780	-0.775
781	-0.763
781	-0.751
781	-0.765
782	-0.787
782	-0.788
783	-0.788
783	-0.797
784	-0.8
784	-0.792
784	-0.811
785	-0.804
785	-0.817
786	-0.822
786	-0.815
787	-0.805
787	-0.813
788	-0.804
788	-0.797
788	-0.799
789	-0.796
789	-0.788
790	-0.785
790	-0.769
791	-0.776
791	-0.772
791	-0.766
792	-0.759
792	-0.764
793	-0.766
793	-0.752
794	-0.749
794	-0.743
794	-0.75
795	-0.77
795	-0.757
796	-0.761
796	-0.759
797	-0.753
797	-0.743
797	-0.736
798	-0.758
798	-0.763
799	-0.763
799	-0.751
800	-0.747
800	-0.753
801	-0.752
801	-0.755
801	-0.753
802	-0.75
802	-0.749
803	-0.743
803	-0.735
804	-0.74
804	-0.747
804	-0.732
805	-0.714
805	-0.707
806	-0.707
806	-0.703
807	-0.707
807	-0.707
807	-0.693
808	-0.692
808	-0.684
809	-0.679
809	-0.68
810	-0.686
810	-0.685
810	-0.682
811	-0.685
811	-0.675
812	-0.671
812	-0.67
813	-0.673
813	-0.674
813	-0.67
814	-0.67
814	-0.672
815	-0.663
815	-0.658
816	-0.656
816	-0.673
817	-0.685
817	-0.689
817	-0.699
818	-0.693
818	-0.69
819	-0.7
819	-0.698
820	-0.708
820	-0.708
820	-0.706
821	-0.701
821	-0.696
822	-0.697
822	-0.682
823	-0.694
823	-0.693
823	-0.686
824	-0.682
824	-0.69
825	-0.69
825	-0.688
826	-0.683
826	-0.68
826	-0.678
827	-0.679
827	-0.669
828	-0.668
828	-0.663
829	-0.661
829	-0.65
829	-0.645
830	-0.645
830	-0.632
831	-0.626
831	-0.617
832	-0.609
832	-0.604
832	-0.597
833	-0.598
833	-0.604
834	-0.6
834	-0.596
835	-0.588
835	-0.59
835	-0.583
836	-0.58
836	-0.577
837	-0.567
837	-0.561
838	-0.547
838	-0.529
839	-0.524
839	-0.513
839	-0.503
840	-0.502
840	-0.492
841	-0.48
841	-0.474
842	-0.467
842	-0.455
842	-0.452
843	-0.45
843	-0.445
844	-0.442
844	-0.432
845	-0.416
845	-0.41
845	-0.401
846	-0.392
846	-0.383
847	-0.375
847	-0.365
848	-0.351
848	-0.337
848	-0.325
849	-0.315
849	-0.308
850	-0.299
850	-0.29
851	-0.278
851	-0.265
851	-0.257
852	-0.243
852	-0.232
853	-0.226
853	-0.217
854	-0.208
854	-0.199
854	-0.188
855	-0.179
855	-0.173
856	-0.166
856	-0.158
857	-0.153
857	-0.148
857	-0.137
858	-0.127
858	-0.122
859	-0.114
859	-0.104
860	-0.097
860	-0.086
860	-0.078
861	-0.071
861	-0.064
862	-0.058
862	-0.052
863	-0.047
863	-0.039
863	-0.035
864	-0.031
864	-0.026
865	-0.021
865	-0.017
866	-0.013
866	-0.01
866	-0.006
867	-0.002
867	0.001
868	0.004
868	0.007
869	0.011
869	0.013
869	0.015
870	0.017
870	0.019
871	0.021
871	0.022
872	0.022
872	0.023
872	0.024
873	0.024
873	0.023
874	0.023
874	0.022
875	0.022
875	0.021
875	0.021
876	0.021
876	0.02
877	0.019
877	0.018
878	0.018
878	0.017
878	0.016
879	0.016
879	0.015
880	0.015
880	0.014
881	0.013
881	0.013
881	0.013
882	0.013
882	0.012
883	0.012
883	0.012
884	0.012
884	0.012
884	0.012
885	0.011
885	0.011
886	0.01
886	0.009
887	0.009
887	0.008
887	0.007
888	0.006
888	0.006
889	0.005
889	0.004
890	0.004
890	0.003
890	0.003
891	0.003
891	0.003
892	0.004
892	0.004
893	0.004
893	0.004
893	0.003
894	0.004
894	0.003
895	0.003
895	0.003
895	0.003
896	0.004
896	0.004
897	0.004
897	0.005
898	0.004
898	0.005
898	0.006
899	0.006
899	0.007
900	0.007
900	0.007
901	0.007
901	0.007
901	0.007
902	0.008
902	0.008
903	0.008
903	0.008
904	0.007
904	0.007
904	0.006
905	0.006
905	0.006
906	0.006
906	0.007
907	0.007
907	0.007
907	0.007
908	0.008
908	0.009
909	0.01
909	0.01
910	0.011
910	0.012
910	0.012
911	0.013
911	0.014
912	0.016
912	0.017
913	0.019
913	0.02
913	0.021
914	0.022
914	0.022
915	0.022
915	0.022
916	0.022
916	0.021
916	0.02
917	0.02
917	0.019
918	0.018
918	0.017
918	0.017
919	0.017
919	0.016
920	0.016
920	0.016
921	0.016
921	0.016
921	0.016
922	0.016
922	0.016
923	0.015
923	0.015
924	0.015
924	0.014
924	0.014
925	0.014
925	0.013
926	0.013
926	0.013
927	0.013
927	0.013
927	0.013
928	0.014
928	0.014
929	0.015
929	0.015
930	0.016
930	0.017
930	0.018
931	0.018
931	0.019
932	0.02
932	0.02
933	0.02
933	0.02
933	0.02
934	0.02
934	0.02
935	0.019
935	0.018
935	0.017
936	0.015
936	0.014
937	0.013
937	0.012
938	0.01
938	0.009
938	0.008
939	0.007
939	0.007
940	0.007
940	0.007
941	0.006
941	0.007
941	0.007
942	0.006
942	0.006
943	0.007
943	0.007
944	0.007
944	0.006
944	0.006
945	0.006
945	0.006
946	0.006
946	0.005
946	0.005
947	0.005
947	0.004
948	0.004
948	0.003
949	0.003
949	0.003
949	0.003
950	0.003
950	0.004
951	0.004
951	0.004
952	0.004
952	0.005
952	0.006
953	0.006
953	0.007
954	0.007
954	0.007
955	0.007
955	0.007
955	0.008
956	0.007
956	0.007
957	0.007
957	0.006
957	0.005
958	0.005
958	0.005
959	0.005
959	0.004
960	0.004
960	0.004
960	0.003
961	0.003
961	0.003
962	0.003
962	0.003
963	0.003
963	0.003
963	0.003
964	0.003
964	0.003
965	0.003
965	0.003
966	0.003
966	0.004
966	0.004
967	0.004
967	0.004
968	0.004
968	0.004
968	0.004
969	0.003
969	0.003
970	0.002
970	0.001
971	0
971	-0
971	-0.001
972	-0.001
972	-0.002
973	-0.001
973	-0.001
974	-0.001
974	0
974	0.001
975	0.003
975	0.004
976	0.005
976	0.006
976	0.007
977	0.008
977	0.008
978	0.009
978	0.009
979	0.009
979	0.008
979	0.008
980	0.008
980	0.007
981	0.007
981	0.006
982	0.007
982	0.007
982	0.007
983	0.007
983	0.007
984	0.006
984	0.006
984	0.006
985	0.006
985	0.006
986	0.006
986	0.005
987	0.005
987	0.004
987	0.004
988	0.003
988	0.003
989	0.002
989	0.001
990	0.001
990	-0
990	-0.001
991	-0.001
991	-0.001
992	-0.001
992	-0.001
992	-0.002
993	-0.002
993	-0.002
994	-0.002
994	-0.003
995	-0.003
995	-0.003
995	-0.003
996	-0.004
996	-0.004
997	-0.005
997	-0.005
997	-0.005
998	-0.005
998	-0.004
999	-0.004
999	-0.004
1000	-0.004
1000	-0.004
1000	-0.003
1001	-0.003
1001	-0.003
1002	-0.002
1002	-0.002
1003	-0.002
1003	-0.002
1003	-0.002
1004	-0.003
1004	-0.003
1005	-0.004
1005	-0.005
1005	-0.005
1006	-0.006
1006	-0.007
1007	-0.007
1007	-0.007
1008	-0.008
1008	-0.009
1008	-0.009
1009	-0.009
1009	-0.008
1010	-0.008
1010	-0.007
1010	-0.007
1011	-0.007
1011	-0.006
1012	-0.006
1012	-0.005
1013	-0.004
1013	-0.004
1013	-0.004
1014	-0.004
1014	-0.003
1015	-0.003
1015	-0.003
1016	-0.003
1016	-0.003
1016	-0.003
1017	-0.003
1017	-0.003
1018	-0.002
1018	-0.002
1018	-0.003
1019	-0.003
1019	-0.003
1020	-0.003
1020	-0.004
1021	-0.005
1021	-0.005
1021	-0.006
1022	-0.006
1022	-0.007
1023	-0.008
1023	-0.009
1023	-0.009
1024	-0.01
1024	-0.01
1025	-0.011
1025	-0.011
1026	-0.011
1026	-0.011
1026	-0.012
1027	-0.012
1027	-0.012
1028	-0.012
1028	-0.012
1028	-0.012
1029	-0.012
1029	-0.012
1030	-0.012
1030	-0.013
1031	-0.013
1031	-0.012
1031	-0.012
1032	-0.012
1032	-0.012
1033	-0.013
1033	-0.013
1033	-0.013
1034	-0.013
1034	-0.013
1035	-0.013
1035	-0.013
1036	-0.013
1036	-0.013
1036	-0.013
1037	-0.012
1037	-0.011
1038	-0.011
1038	-0.01
1039	-0.009
1039	-0.009
1039	-0.008
1040	-0.008
1040	-0.007
1041	-0.007
1041	-0.008
1041	-0.008
1042	-0.009
1042	-0.01
1043	-0.011
1043	-0.011
1044	-0.012
1044	-0.013
1044	-0.014
1045	-0.016
1045	-0.016
1046	-0.017
1046	-0.017
1046	-0.018
1047	-0.018
1047	-0.018
1048	-0.018
1048	-0.018
1049	-0.018
1049	-0.019
1049	-0.019
1050	-0.019
1050	-0.02
1051	-0.021
1051	-0.022
1051	-0.022
1052	-0.023
1052	-0.024
1053	-0.024
1053	-0.024
1053	-0.024
1054	-0.025
1054	-0.025
1055	-0.024
1055	-0.024
1056	-0.024
1056	-0.024
1056	-0.025
1057	-0.025
1057	-0.025
1058	-0.025
1058	-0.026
1058	-0.026
1059	-0.026
1059	-0.027
1060	-0.027
1060	-0.027
1061	-0.027
1061	-0.026
1061	-0.026
1062	-0.026
1062	-0.026
1063	-0.025
1063	-0.026
1063	-0.026
1064	-0.025
1064	-0.025
1065	-0.026
1065	-0.026
1066	-0.026
1066	-0.026
1066	-0.026
1067	-0.026
1067	-0.027
1068	-0.027
1068	-0.027
1068	-0.028
1069	-0.028
1069	-0.029
1070	-0.029
1070	-0.03
1071	-0.03
1071	-0.03
1071	-0.031
1072	-0.031
1072	-0.03
1073	-0.03
1073	-0.03
1073	-0.03
1074	-0.029
1074	-0.029
1075	-0.03
1075	-0.03
1076	-0.03
1076	-0.031
1076	-0.031
1077	-0.032
1077	-0.033
1078	-0.034
1078	-0.035
1078	-0.035
1079	-0.036
1079	-0.036
1080	-0.037
1080	-0.037
1080	-0.038
1081	-0.039
1081	-0.039
1082	-0.039
1082	-0.04
1083	-0.041
1083	-0.042
1083	-0.042
1084	-0.043
1084	-0.043
1085	-0.044
1085	-0.044
1085	-0.044
1086	-0.045
1086	-0.045
1087	-0.045
1087	-0.045
1088	-0.046
1088	-0.046
1088	-0.047
1089	-0.048
1089	-0.049
1090	-0.049
1090	-0.05
1090	-0.051
1091	-0.053
1091	-0.053
1092	-0.054
1092	-0.054
1092	-0.056
1093	-0.057
1093	-0.057
1094	-0.057
1094	-0.058
1095	-0.06
1095	-0.06
1095	-0.06
1096	-0.062
1096	-0.063
1097	-0.063
1097	-0.064
1097	-0.064
1098	-0.066
1098	-0.068
1099	-0.068
1099	-0.069
1100	-0.071
1100	-0.073
1100	-0.075
1101	-0.077
1101	-0.08
1102	-0.082
1102	-0.084
1102	-0.085
1103	-0.087
1103	-0.089
1104	-0.092
1104	-0.095
1104	-0.096
1105	-0.097
1105	-0.099
1106	-0.103
1106	-0.105
1107	-0.11
1107	-0.115
1107	-0.118
1108	-0.12
1108	-0.122
1109	-0.124
1109	-0.128
1109	-0.133
1110	-0.135
1110	-0.138
1111	-0.149
1111	-0.141
