Data from 3.5A_17C_Absorbance__90__00092.txt Node

Date: Tue Jun 20 14:59:27 CEST 2023
User: Marek
Spectrometer: MAYP115816
Trigger mode: 0
Integration Time (sec): 2.200000E-1
Scans to average: 10
Electric dark correction enabled: true
Nonlinearity correction enabled: true
Boxcar width: 5
XAxis mode: Wavelengths
Number of Pixels in Spectrum: 2068
>>>>>Begin Spectral Data<<<<<
199	-0.48
199	-0.481
200	-0.448
200	-0.401
201	-0.374
201	-0.369
202	-0.35
202	-0.344
203	-0.346
203	-0.342
204	-0.326
204	-0.313
205	-0.288
205	-0.278
205	-0.282
206	-0.283
206	-0.278
207	-0.274
207	-0.278
208	-0.277
208	-0.279
209	-0.279
209	-0.283
210	-0.296
210	-0.301
211	-0.3
211	-0.304
212	-0.312
212	-0.317
213	-0.316
213	-0.311
213	-0.308
214	-0.313
214	-0.316
215	-0.314
215	-0.321
216	-0.332
216	-0.336
217	-0.333
217	-0.335
218	-0.342
218	-0.346
219	-0.353
219	-0.356
220	-0.359
220	-0.365
221	-0.362
221	-0.359
221	-0.353
222	-0.355
222	-0.355
223	-0.347
223	-0.348
224	-0.351
224	-0.35
225	-0.349
225	-0.348
226	-0.353
226	-0.354
227	-0.363
227	-0.371
228	-0.373
228	-0.381
229	-0.385
229	-0.381
229	-0.38
230	-0.372
230	-0.375
231	-0.367
231	-0.361
232	-0.362
232	-0.356
233	-0.354
233	-0.345
234	-0.345
234	-0.339
235	-0.342
235	-0.353
236	-0.356
236	-0.36
236	-0.361
237	-0.359
237	-0.36
238	-0.361
238	-0.366
239	-0.369
239	-0.381
240	-0.377
240	-0.372
241	-0.367
241	-0.367
242	-0.371
242	-0.379
243	-0.382
243	-0.386
243	-0.388
244	-0.386
244	-0.384
245	-0.384
245	-0.39
246	-0.401
246	-0.405
247	-0.412
247	-0.398
248	-0.392
248	-0.395
249	-0.401
249	-0.398
250	-0.397
250	-0.407
250	-0.404
251	-0.4
251	-0.399
252	-0.397
252	-0.408
253	-0.402
253	-0.413
254	-0.415
254	-0.419
255	-0.433
255	-0.428
256	-0.428
256	-0.441
257	-0.447
257	-0.446
258	-0.444
258	-0.453
258	-0.449
259	-0.443
259	-0.457
260	-0.456
260	-0.447
261	-0.459
261	-0.444
262	-0.448
262	-0.445
263	-0.442
263	-0.448
264	-0.455
264	-0.453
265	-0.444
265	-0.444
265	-0.453
266	-0.444
266	-0.443
267	-0.443
267	-0.458
268	-0.462
268	-0.456
269	-0.45
269	-0.464
270	-0.468
270	-0.463
271	-0.474
271	-0.485
272	-0.49
272	-0.492
272	-0.484
273	-0.493
273	-0.505
274	-0.499
274	-0.493
275	-0.488
275	-0.478
276	-0.485
276	-0.488
277	-0.49
277	-0.487
278	-0.49
278	-0.49
278	-0.477
279	-0.486
279	-0.498
280	-0.499
280	-0.508
281	-0.499
281	-0.492
282	-0.495
282	-0.491
283	-0.485
283	-0.498
284	-0.512
284	-0.517
285	-0.499
285	-0.507
285	-0.5
286	-0.503
286	-0.514
287	-0.514
287	-0.508
288	-0.506
288	-0.491
289	-0.49
289	-0.5
290	-0.508
290	-0.499
291	-0.501
291	-0.505
292	-0.489
292	-0.487
292	-0.493
293	-0.482
293	-0.478
294	-0.478
294	-0.464
295	-0.447
295	-0.459
296	-0.467
296	-0.46
297	-0.449
297	-0.451
298	-0.447
298	-0.463
298	-0.467
299	-0.449
299	-0.445
300	-0.44
300	-0.421
301	-0.406
301	-0.405
302	-0.414
302	-0.397
303	-0.392
303	-0.384
304	-0.367
304	-0.372
305	-0.363
305	-0.372
305	-0.388
306	-0.374
306	-0.374
307	-0.369
307	-0.384
308	-0.387
308	-0.383
309	-0.386
309	-0.38
310	-0.377
310	-0.376
311	-0.359
311	-0.376
311	-0.366
312	-0.362
312	-0.344
313	-0.337
313	-0.337
314	-0.341
314	-0.339
315	-0.336
315	-0.328
316	-0.327
316	-0.317
317	-0.308
317	-0.306
318	-0.303
318	-0.3
318	-0.29
319	-0.276
319	-0.269
320	-0.266
320	-0.264
321	-0.26
321	-0.261
322	-0.257
322	-0.25
323	-0.251
323	-0.243
324	-0.241
324	-0.236
324	-0.226
325	-0.215
325	-0.199
326	-0.195
326	-0.172
327	-0.158
327	-0.14
328	-0.113
328	-0.095
329	-0.069
329	-0.043
330	-0.021
330	0.011
330	0.039
331	0.07
331	0.098
332	0.124
332	0.15
333	0.174
333	0.201
334	0.221
334	0.24
335	0.26
335	0.275
336	0.291
336	0.306
336	0.317
337	0.33
337	0.341
338	0.349
338	0.355
339	0.364
339	0.371
340	0.375
340	0.381
341	0.384
341	0.387
342	0.391
342	0.395
342	0.397
343	0.4
343	0.403
344	0.404
344	0.405
345	0.407
345	0.408
346	0.409
346	0.411
347	0.411
347	0.412
348	0.412
348	0.413
348	0.413
349	0.414
349	0.414
350	0.414
350	0.414
351	0.414
351	0.414
352	0.414
352	0.414
353	0.414
353	0.414
354	0.414
354	0.414
354	0.414
355	0.414
355	0.414
356	0.414
356	0.414
357	0.415
357	0.415
358	0.415
358	0.415
359	0.414
359	0.414
360	0.414
360	0.414
360	0.414
361	0.414
361	0.413
362	0.412
362	0.412
363	0.412
363	0.412
364	0.412
364	0.411
365	0.411
365	0.411
366	0.411
366	0.41
366	0.41
367	0.41
367	0.409
368	0.409
368	0.408
369	0.408
369	0.408
370	0.407
370	0.407
371	0.406
371	0.406
372	0.405
372	0.405
372	0.405
373	0.405
373	0.404
374	0.404
374	0.403
375	0.403
375	0.402
376	0.402
376	0.402
377	0.401
377	0.4
378	0.4
378	0.399
378	0.399
379	0.398
379	0.398
380	0.398
380	0.397
381	0.397
381	0.396
382	0.396
382	0.396
383	0.395
383	0.395
383	0.394
384	0.394
384	0.393
385	0.393
385	0.392
386	0.392
386	0.391
387	0.391
387	0.391
388	0.39
388	0.39
389	0.39
389	0.389
389	0.389
390	0.388
390	0.388
391	0.387
391	0.387
392	0.386
392	0.385
393	0.385
393	0.385
394	0.384
394	0.384
394	0.383
395	0.383
395	0.382
396	0.382
396	0.381
397	0.381
397	0.38
398	0.38
398	0.38
399	0.379
399	0.379
400	0.378
400	0.378
400	0.377
401	0.377
401	0.376
402	0.376
402	0.376
403	0.375
403	0.375
404	0.374
404	0.374
405	0.373
405	0.373
405	0.372
406	0.372
406	0.372
407	0.372
407	0.371
408	0.371
408	0.371
409	0.371
409	0.37
410	0.37
410	0.37
411	0.369
411	0.369
411	0.368
412	0.368
412	0.368
413	0.367
413	0.367
414	0.366
414	0.366
415	0.366
415	0.366
416	0.365
416	0.365
416	0.365
417	0.365
417	0.364
418	0.364
418	0.364
419	0.364
419	0.364
420	0.363
420	0.363
421	0.363
421	0.363
421	0.363
422	0.363
422	0.363
423	0.363
423	0.363
424	0.362
424	0.362
425	0.362
425	0.362
426	0.362
426	0.361
427	0.361
427	0.361
427	0.361
428	0.361
428	0.36
429	0.36
429	0.36
430	0.36
430	0.359
431	0.359
431	0.359
432	0.359
432	0.358
432	0.358
433	0.358
433	0.358
434	0.358
434	0.358
435	0.358
435	0.358
436	0.358
436	0.358
437	0.358
437	0.358
437	0.358
438	0.358
438	0.358
439	0.358
439	0.358
440	0.357
440	0.358
441	0.358
441	0.357
442	0.357
442	0.357
442	0.357
443	0.357
443	0.357
444	0.357
444	0.357
445	0.357
445	0.358
446	0.358
446	0.358
447	0.358
447	0.358
447	0.358
448	0.358
448	0.358
449	0.359
449	0.359
450	0.359
450	0.359
451	0.36
451	0.359
452	0.36
452	0.36
452	0.36
453	0.36
453	0.36
454	0.36
454	0.36
455	0.36
455	0.361
456	0.361
456	0.361
457	0.361
457	0.362
458	0.362
458	0.362
458	0.363
459	0.363
459	0.363
460	0.363
460	0.363
461	0.363
461	0.364
462	0.365
462	0.365
463	0.366
463	0.367
463	0.367
464	0.368
464	0.368
465	0.369
465	0.37
466	0.371
466	0.371
467	0.372
467	0.372
467	0.373
468	0.373
468	0.374
469	0.374
469	0.376
470	0.376
470	0.377
471	0.378
471	0.378
472	0.379
472	0.38
472	0.381
473	0.382
473	0.383
474	0.383
474	0.385
475	0.386
475	0.387
476	0.388
476	0.389
477	0.391
477	0.392
477	0.393
478	0.395
478	0.396
479	0.397
479	0.399
480	0.4
480	0.401
481	0.403
481	0.404
482	0.406
482	0.408
482	0.409
483	0.412
483	0.414
484	0.416
484	0.418
485	0.42
485	0.422
486	0.424
486	0.426
487	0.428
487	0.43
487	0.432
488	0.433
488	0.435
489	0.438
489	0.44
490	0.443
490	0.445
491	0.448
491	0.451
492	0.454
492	0.456
492	0.459
493	0.461
493	0.464
494	0.467
494	0.47
495	0.473
495	0.476
496	0.478
496	0.482
496	0.485
497	0.488
497	0.491
498	0.495
498	0.498
499	0.502
499	0.505
500	0.509
500	0.513
501	0.517
501	0.52
501	0.523
502	0.527
502	0.531
503	0.534
503	0.538
504	0.542
504	0.545
505	0.549
505	0.553
506	0.557
506	0.561
506	0.565
507	0.569
507	0.573
508	0.577
508	0.581
509	0.585
509	0.589
510	0.593
510	0.597
511	0.6
511	0.604
511	0.607
512	0.611
512	0.614
513	0.617
513	0.621
514	0.624
514	0.627
515	0.63
515	0.633
515	0.636
516	0.639
516	0.642
517	0.645
517	0.647
518	0.65
518	0.652
519	0.654
519	0.656
520	0.658
520	0.661
520	0.663
521	0.664
521	0.666
522	0.667
522	0.669
523	0.671
523	0.672
524	0.673
524	0.673
524	0.674
525	0.675
525	0.676
526	0.677
526	0.677
527	0.678
527	0.678
528	0.677
528	0.677
529	0.677
529	0.676
529	0.675
530	0.674
530	0.673
531	0.672
531	0.671
532	0.669
532	0.667
533	0.666
533	0.663
533	0.662
534	0.659
534	0.657
535	0.654
535	0.652
536	0.649
536	0.647
537	0.644
537	0.641
538	0.637
538	0.634
538	0.631
539	0.628
539	0.624
540	0.621
540	0.617
541	0.613
541	0.609
542	0.605
542	0.601
542	0.596
543	0.591
543	0.587
544	0.582
544	0.578
545	0.573
545	0.568
546	0.563
546	0.557
547	0.552
547	0.546
547	0.541
548	0.537
548	0.531
549	0.526
549	0.521
550	0.516
550	0.511
551	0.505
551	0.5
551	0.494
552	0.489
552	0.484
553	0.479
553	0.473
554	0.468
554	0.462
555	0.456
555	0.451
556	0.445
556	0.44
556	0.434
557	0.429
557	0.424
558	0.418
558	0.413
559	0.407
559	0.402
560	0.397
560	0.393
560	0.389
561	0.385
561	0.381
562	0.376
562	0.372
563	0.368
563	0.363
564	0.359
564	0.355
564	0.35
565	0.346
565	0.341
566	0.336
566	0.332
567	0.328
567	0.323
568	0.319
568	0.314
568	0.309
569	0.304
569	0.3
570	0.295
570	0.291
571	0.287
571	0.283
572	0.279
572	0.275
573	0.27
573	0.267
573	0.263
574	0.26
574	0.257
575	0.254
575	0.252
576	0.248
576	0.245
577	0.241
577	0.239
577	0.236
578	0.234
578	0.231
579	0.229
579	0.226
580	0.223
580	0.22
581	0.217
581	0.214
581	0.212
582	0.21
582	0.207
583	0.205
583	0.202
584	0.198
584	0.194
585	0.192
585	0.189
585	0.186
586	0.183
586	0.181
587	0.178
587	0.176
588	0.173
588	0.171
589	0.17
589	0.168
590	0.167
590	0.165
590	0.164
591	0.162
591	0.16
592	0.158
592	0.157
593	0.155
593	0.153
594	0.151
594	0.15
594	0.148
595	0.147
595	0.144
596	0.142
596	0.141
597	0.14
597	0.138
598	0.137
598	0.135
598	0.134
599	0.133
599	0.131
600	0.13
600	0.129
601	0.128
601	0.127
602	0.125
602	0.124
602	0.123
603	0.122
603	0.122
604	0.121
604	0.119
605	0.119
605	0.118
606	0.116
606	0.115
606	0.113
607	0.112
607	0.111
608	0.109
608	0.108
609	0.107
609	0.106
610	0.104
610	0.103
610	0.102
611	0.101
611	0.1
612	0.099
612	0.098
613	0.098
613	0.098
614	0.097
614	0.096
614	0.095
615	0.095
615	0.094
616	0.093
616	0.093
617	0.092
617	0.091
618	0.09
618	0.09
618	0.089
619	0.089
619	0.088
620	0.088
620	0.087
621	0.086
621	0.085
622	0.084
622	0.083
622	0.082
623	0.081
623	0.08
624	0.079
624	0.079
625	0.078
625	0.078
626	0.077
626	0.077
626	0.077
627	0.077
627	0.076
628	0.076
628	0.075
629	0.074
629	0.073
630	0.072
630	0.071
630	0.071
631	0.07
631	0.069
632	0.068
632	0.067
633	0.067
633	0.066
634	0.066
634	0.065
634	0.064
635	0.063
635	0.062
636	0.061
636	0.06
637	0.059
637	0.058
638	0.058
638	0.057
638	0.056
639	0.055
639	0.053
640	0.053
640	0.052
641	0.051
641	0.05
642	0.049
642	0.048
642	0.047
643	0.046
643	0.045
644	0.045
644	0.044
645	0.043
645	0.043
646	0.042
646	0.04
646	0.039
647	0.037
647	0.035
648	0.033
648	0.031
649	0.029
649	0.027
650	0.025
650	0.022
650	0.02
651	0.017
651	0.013
652	0.009
652	0.004
653	0
653	-0.002
653	0
654	0.004
654	0.003
655	0.001
655	-0.001
656	-0.003
656	-0.005
657	-0.007
657	-0.009
657	-0.011
658	-0.014
658	-0.027
659	-0.059
659	-0.09
660	-0.106
660	-0.117
661	-0.129
661	-0.144
661	-0.158
662	-0.171
662	-0.185
663	-0.202
663	-0.219
664	-0.233
664	-0.253
665	-0.274
665	-0.295
665	-0.316
666	-0.341
666	-0.368
667	-0.397
667	-0.432
668	-0.467
668	-0.515
669	-0.563
669	-0.616
669	-0.683
670	-0.784
670	-1.039
671	-1.418
671	-1.795
672	-2.137
672	-2.361
672	-2.491
673	-2.535
673	-2.547
674	-2.563
674	-2.572
675	-2.586
675	-2.586
676	-2.571
676	-2.516
676	-2.381
677	-2.13
677	-1.657
678	-1.112
678	-0.882
679	-0.79
679	-0.731
680	-0.686
680	-0.653
680	-0.626
681	-0.612
681	-0.59
682	-0.576
682	-0.555
683	-0.536
683	-0.535
684	-0.525
684	-0.523
684	-0.518
685	-0.515
685	-0.517
686	-0.51
686	-0.503
687	-0.501
687	-0.498
687	-0.502
688	-0.494
688	-0.494
689	-0.501
689	-0.5
690	-0.492
690	-0.489
691	-0.488
691	-0.496
691	-0.501
692	-0.504
692	-0.502
693	-0.51
693	-0.523
694	-0.509
694	-0.511
695	-0.512
695	-0.506
695	-0.513
696	-0.524
696	-0.519
697	-0.517
697	-0.516
698	-0.509
698	-0.502
698	-0.515
699	-0.512
699	-0.519
700	-0.54
700	-0.537
701	-0.521
701	-0.516
702	-0.516
702	-0.517
702	-0.52
703	-0.515
703	-0.507
704	-0.517
704	-0.518
705	-0.509
705	-0.507
705	-0.503
706	-0.496
706	-0.496
707	-0.508
707	-0.511
708	-0.507
708	-0.503
709	-0.507
709	-0.505
709	-0.502
710	-0.513
710	-0.518
711	-0.518
711	-0.518
712	-0.51
712	-0.508
713	-0.515
713	-0.518
713	-0.498
714	-0.503
714	-0.506
715	-0.499
715	-0.507
716	-0.522
716	-0.527
716	-0.527
717	-0.536
717	-0.526
718	-0.521
718	-0.522
719	-0.516
719	-0.508
720	-0.503
720	-0.497
720	-0.494
721	-0.485
721	-0.493
722	-0.49
722	-0.488
723	-0.502
723	-0.513
723	-0.521
724	-0.522
724	-0.527
725	-0.522
725	-0.526
726	-0.53
726	-0.52
727	-0.521
727	-0.529
727	-0.521
728	-0.507
728	-0.503
729	-0.504
729	-0.506
730	-0.513
730	-0.503
730	-0.509
731	-0.513
731	-0.514
732	-0.515
732	-0.51
733	-0.528
733	-0.536
734	-0.542
734	-0.534
734	-0.515
735	-0.507
735	-0.503
736	-0.503
736	-0.498
737	-0.497
737	-0.49
737	-0.481
738	-0.467
738	-0.462
739	-0.468
739	-0.47
740	-0.482
740	-0.484
741	-0.49
741	-0.501
741	-0.508
742	-0.513
742	-0.527
743	-0.534
743	-0.534
744	-0.535
744	-0.544
744	-0.537
745	-0.545
745	-0.536
746	-0.529
746	-0.525
747	-0.53
747	-0.521
748	-0.523
748	-0.527
748	-0.528
749	-0.521
749	-0.527
750	-0.518
750	-0.52
751	-0.521
751	-0.52
751	-0.529
752	-0.533
752	-0.536
753	-0.534
753	-0.529
754	-0.547
754	-0.548
754	-0.558
755	-0.555
755	-0.548
756	-0.549
756	-0.533
757	-0.526
757	-0.515
758	-0.515
758	-0.512
758	-0.507
759	-0.511
759	-0.507
760	-0.507
760	-0.508
761	-0.499
761	-0.505
761	-0.508
762	-0.517
762	-0.517
763	-0.518
763	-0.523
764	-0.518
764	-0.513
764	-0.516
765	-0.516
765	-0.522
766	-0.523
766	-0.52
767	-0.533
767	-0.526
768	-0.522
768	-0.513
768	-0.511
769	-0.514
769	-0.523
770	-0.532
770	-0.535
771	-0.533
771	-0.536
771	-0.539
772	-0.546
772	-0.569
773	-0.571
773	-0.574
774	-0.576
774	-0.558
775	-0.545
775	-0.545
775	-0.548
776	-0.557
776	-0.552
777	-0.551
777	-0.535
778	-0.542
778	-0.549
778	-0.549
779	-0.559
779	-0.574
780	-0.569
780	-0.578
781	-0.565
781	-0.559
781	-0.573
782	-0.595
782	-0.596
783	-0.594
783	-0.601
784	-0.603
784	-0.598
784	-0.617
785	-0.611
785	-0.624
786	-0.625
786	-0.62
787	-0.611
787	-0.622
788	-0.616
788	-0.61
788	-0.61
789	-0.611
789	-0.601
790	-0.598
790	-0.584
791	-0.591
791	-0.586
791	-0.575
792	-0.568
792	-0.573
793	-0.575
793	-0.565
794	-0.561
794	-0.557
794	-0.566
795	-0.586
795	-0.575
796	-0.579
796	-0.582
797	-0.574
797	-0.563
797	-0.556
798	-0.579
798	-0.579
799	-0.579
799	-0.565
800	-0.557
800	-0.565
801	-0.565
801	-0.564
801	-0.563
802	-0.564
802	-0.563
803	-0.554
803	-0.55
804	-0.555
804	-0.56
804	-0.549
805	-0.531
805	-0.522
806	-0.526
806	-0.523
807	-0.524
807	-0.525
807	-0.513
808	-0.511
808	-0.505
809	-0.502
809	-0.502
810	-0.505
810	-0.502
810	-0.499
811	-0.501
811	-0.497
812	-0.493
812	-0.492
813	-0.493
813	-0.493
813	-0.491
814	-0.491
814	-0.495
815	-0.486
815	-0.483
816	-0.48
816	-0.494
817	-0.503
817	-0.507
817	-0.518
818	-0.511
818	-0.505
819	-0.515
819	-0.516
820	-0.526
820	-0.524
820	-0.523
821	-0.517
821	-0.514
822	-0.513
822	-0.499
823	-0.51
823	-0.51
823	-0.508
824	-0.507
824	-0.519
825	-0.519
825	-0.515
826	-0.511
826	-0.506
826	-0.506
827	-0.507
827	-0.498
828	-0.499
828	-0.491
829	-0.488
829	-0.472
829	-0.468
830	-0.47
830	-0.457
831	-0.452
831	-0.444
832	-0.436
832	-0.432
832	-0.429
833	-0.429
833	-0.431
834	-0.431
834	-0.428
835	-0.42
835	-0.423
835	-0.42
836	-0.417
836	-0.418
837	-0.407
837	-0.398
838	-0.39
838	-0.376
839	-0.371
839	-0.36
839	-0.352
840	-0.35
840	-0.342
841	-0.332
841	-0.328
842	-0.323
842	-0.315
842	-0.311
843	-0.31
843	-0.305
844	-0.304
844	-0.297
845	-0.289
845	-0.282
845	-0.276
846	-0.267
846	-0.26
847	-0.252
847	-0.246
848	-0.236
848	-0.225
848	-0.216
849	-0.207
849	-0.2
850	-0.195
850	-0.189
851	-0.181
851	-0.17
851	-0.166
852	-0.156
852	-0.148
853	-0.143
853	-0.137
854	-0.132
854	-0.125
854	-0.116
855	-0.111
855	-0.105
856	-0.102
856	-0.097
857	-0.093
857	-0.089
857	-0.083
858	-0.078
858	-0.074
859	-0.069
859	-0.064
860	-0.059
860	-0.053
860	-0.048
861	-0.043
861	-0.038
862	-0.035
862	-0.031
863	-0.026
863	-0.022
863	-0.019
864	-0.017
864	-0.014
865	-0.01
865	-0.008
866	-0.006
866	-0.003
866	-0.001
867	0.001
867	0.004
868	0.005
868	0.008
869	0.01
869	0.012
869	0.014
870	0.016
870	0.017
871	0.018
871	0.019
872	0.019
872	0.019
872	0.019
873	0.019
873	0.019
874	0.019
874	0.018
875	0.018
875	0.017
875	0.017
876	0.016
876	0.016
877	0.015
877	0.014
878	0.014
878	0.013
878	0.012
879	0.011
879	0.011
880	0.011
880	0.01
881	0.01
881	0.01
881	0.01
882	0.01
882	0.01
883	0.009
883	0.009
884	0.009
884	0.009
884	0.008
885	0.008
885	0.007
886	0.006
886	0.005
887	0.004
887	0.003
887	0.002
888	0.002
888	0.001
889	0.001
889	0
890	-0.001
890	-0.001
890	-0.001
891	-0
891	-0.001
892	0
892	0.001
893	0.001
893	0.002
893	0.002
894	0.002
894	0.003
895	0.003
895	0.004
895	0.004
896	0.005
896	0.005
897	0.006
897	0.006
898	0.006
898	0.006
898	0.006
899	0.006
899	0.006
900	0.006
900	0.006
901	0.005
901	0.004
901	0.004
902	0.004
902	0.004
903	0.003
903	0.002
904	0.001
904	0.001
904	0
905	-0
905	-0
906	0
906	0.001
907	0.001
907	0.001
907	0.002
908	0.003
908	0.004
909	0.004
909	0.005
910	0.005
910	0.005
910	0.005
911	0.006
911	0.007
912	0.008
912	0.009
913	0.01
913	0.011
913	0.012
914	0.013
914	0.013
915	0.013
915	0.013
916	0.013
916	0.013
916	0.012
917	0.011
917	0.01
918	0.009
918	0.008
918	0.008
919	0.007
919	0.007
920	0.007
920	0.007
921	0.007
921	0.008
921	0.008
922	0.008
922	0.009
923	0.009
923	0.009
924	0.008
924	0.008
924	0.008
925	0.008
925	0.007
926	0.007
926	0.007
927	0.006
927	0.006
927	0.006
928	0.006
928	0.007
929	0.007
929	0.008
930	0.009
930	0.01
930	0.011
931	0.012
931	0.013
932	0.014
932	0.016
933	0.017
933	0.018
933	0.019
934	0.019
934	0.019
935	0.019
935	0.019
935	0.018
936	0.017
936	0.016
937	0.015
937	0.014
938	0.013
938	0.012
938	0.011
939	0.01
939	0.01
940	0.009
940	0.009
941	0.009
941	0.009
941	0.009
942	0.009
942	0.009
943	0.01
943	0.01
944	0.011
944	0.01
944	0.011
945	0.011
945	0.011
946	0.01
946	0.01
946	0.009
947	0.008
947	0.007
948	0.006
948	0.006
949	0.006
949	0.005
949	0.005
950	0.005
950	0.006
951	0.006
951	0.007
952	0.007
952	0.008
952	0.009
953	0.009
953	0.01
954	0.01
954	0.01
955	0.01
955	0.009
955	0.009
956	0.009
956	0.008
957	0.008
957	0.007
957	0.006
958	0.006
958	0.005
959	0.005
959	0.005
960	0.005
960	0.004
960	0.005
961	0.005
961	0.005
962	0.005
962	0.006
963	0.006
963	0.007
963	0.007
964	0.008
964	0.008
965	0.009
965	0.009
966	0.01
966	0.01
966	0.011
967	0.012
967	0.012
968	0.012
968	0.012
968	0.012
969	0.012
969	0.011
970	0.011
970	0.01
971	0.009
971	0.009
971	0.008
972	0.008
972	0.008
973	0.008
973	0.008
974	0.008
974	0.009
974	0.009
975	0.01
975	0.01
976	0.011
976	0.011
976	0.011
977	0.011
977	0.011
978	0.01
978	0.01
979	0.009
979	0.008
979	0.007
980	0.006
980	0.005
981	0.005
981	0.004
982	0.004
982	0.004
982	0.003
983	0.003
983	0.003
984	0.003
984	0.003
984	0.003
985	0.004
985	0.004
986	0.004
986	0.005
987	0.005
987	0.005
987	0.005
988	0.005
988	0.005
989	0.005
989	0.005
990	0.004
990	0.003
990	0.002
991	0.002
991	0.002
992	0.001
992	0.001
992	0.001
993	0.001
993	0
994	0
994	0
995	0
995	0
995	0
996	0
996	0
997	0
997	0
997	0
998	0.001
998	0.001
999	0.001
999	0.001
1000	0.001
1000	0.001
1000	0.001
1001	0.001
1001	0.001
1002	0.001
1002	0
1003	0
1003	-0
1003	-0
1004	-0.001
1004	-0.001
1005	-0.002
1005	-0.003
1005	-0.003
1006	-0.004
1006	-0.005
1007	-0.005
1007	-0.006
1008	-0.007
1008	-0.008
1008	-0.009
1009	-0.009
1009	-0.009
1010	-0.009
1010	-0.009
1010	-0.008
1011	-0.008
1011	-0.007
1012	-0.007
1012	-0.006
1013	-0.005
1013	-0.004
1013	-0.003
1014	-0.002
1014	-0.002
1015	-0.001
1015	-0.001
1016	-0
1016	0
1016	0.001
1017	0.001
1017	0.001
1018	0.001
1018	0.001
1018	0.001
1019	0.001
1019	0.001
1020	0.001
1020	0
1021	-0
1021	-0
1021	-0.001
1022	-0.002
1022	-0.003
1023	-0.003
1023	-0.004
1023	-0.005
1024	-0.006
1024	-0.007
1025	-0.007
1025	-0.008
1026	-0.009
1026	-0.009
1026	-0.01
1027	-0.011
1027	-0.011
1028	-0.011
1028	-0.011
1028	-0.012
1029	-0.012
1029	-0.012
1030	-0.012
1030	-0.013
1031	-0.013
1031	-0.013
1031	-0.013
1032	-0.013
1032	-0.014
1033	-0.014
1033	-0.014
1033	-0.015
1034	-0.015
1034	-0.015
1035	-0.014
1035	-0.014
1036	-0.015
1036	-0.014
1036	-0.014
1037	-0.013
1037	-0.012
1038	-0.012
1038	-0.011
1039	-0.01
1039	-0.009
1039	-0.008
1040	-0.008
1040	-0.007
1041	-0.006
1041	-0.006
1041	-0.006
1042	-0.007
1042	-0.007
1043	-0.008
1043	-0.008
1044	-0.009
1044	-0.01
1044	-0.01
1045	-0.011
1045	-0.012
1046	-0.012
1046	-0.012
1046	-0.013
1047	-0.013
1047	-0.013
1048	-0.013
1048	-0.013
1049	-0.014
1049	-0.014
1049	-0.015
1050	-0.016
1050	-0.016
1051	-0.017
1051	-0.018
1051	-0.019
1052	-0.019
1052	-0.02
1053	-0.02
1053	-0.02
1053	-0.02
1054	-0.02
1054	-0.019
1055	-0.019
1055	-0.019
1056	-0.019
1056	-0.019
1056	-0.019
1057	-0.019
1057	-0.019
1058	-0.02
1058	-0.02
1058	-0.02
1059	-0.02
1059	-0.02
1060	-0.02
1060	-0.02
1061	-0.02
1061	-0.019
1061	-0.019
1062	-0.019
1062	-0.019
1063	-0.018
1063	-0.019
1063	-0.018
1064	-0.018
1064	-0.018
1065	-0.018
1065	-0.018
1066	-0.018
1066	-0.018
1066	-0.019
1067	-0.019
1067	-0.019
1068	-0.02
1068	-0.021
1068	-0.021
1069	-0.022
1069	-0.023
1070	-0.023
1070	-0.024
1071	-0.024
1071	-0.024
1071	-0.025
1072	-0.025
1072	-0.024
1073	-0.024
1073	-0.024
1073	-0.023
1074	-0.023
1074	-0.023
1075	-0.023
1075	-0.023
1076	-0.024
1076	-0.024
1076	-0.024
1077	-0.025
1077	-0.026
1078	-0.026
1078	-0.027
1078	-0.027
1079	-0.027
1079	-0.028
1080	-0.028
1080	-0.029
1080	-0.029
1081	-0.03
1081	-0.03
1082	-0.03
1082	-0.031
1083	-0.031
1083	-0.032
1083	-0.033
1084	-0.033
1084	-0.034
1085	-0.034
1085	-0.034
1085	-0.034
1086	-0.035
1086	-0.035
1087	-0.036
1087	-0.036
1088	-0.037
1088	-0.037
1088	-0.038
1089	-0.039
1089	-0.039
1090	-0.039
1090	-0.04
1090	-0.041
1091	-0.041
1091	-0.041
1092	-0.041
1092	-0.041
1092	-0.042
1093	-0.042
1093	-0.041
1094	-0.042
1094	-0.042
1095	-0.043
1095	-0.043
1095	-0.043
1096	-0.044
1096	-0.045
1097	-0.045
1097	-0.046
1097	-0.047
1098	-0.047
1098	-0.049
1099	-0.049
1099	-0.05
1100	-0.052
1100	-0.053
1100	-0.055
1101	-0.057
1101	-0.058
1102	-0.06
1102	-0.06
1102	-0.061
1103	-0.062
1103	-0.063
1104	-0.066
1104	-0.067
1104	-0.068
1105	-0.068
1105	-0.069
1106	-0.071
1106	-0.072
1107	-0.076
1107	-0.08
1107	-0.083
1108	-0.084
1108	-0.084
1109	-0.085
1109	-0.088
1109	-0.091
1110	-0.094
1110	-0.097
1111	-0.104
1111	-0.103
