Data from 3.5A_17C_Absorbance__842__00844.txt Node

Date: Tue Jun 20 15:27:02 CEST 2023
User: Marek
Spectrometer: MAYP115816
Trigger mode: 0
Integration Time (sec): 2.200000E-1
Scans to average: 10
Electric dark correction enabled: true
Nonlinearity correction enabled: true
Boxcar width: 5
XAxis mode: Wavelengths
Number of Pixels in Spectrum: 2068
>>>>>Begin Spectral Data<<<<<
199	-0.727
199	-0.704
200	-0.666
200	-0.611
201	-0.581
201	-0.572
202	-0.553
202	-0.548
203	-0.547
203	-0.542
204	-0.523
204	-0.505
205	-0.483
205	-0.473
205	-0.483
206	-0.485
206	-0.481
207	-0.475
207	-0.481
208	-0.483
208	-0.487
209	-0.489
209	-0.496
210	-0.509
210	-0.516
211	-0.511
211	-0.514
212	-0.524
212	-0.53
213	-0.526
213	-0.52
213	-0.518
214	-0.523
214	-0.525
215	-0.522
215	-0.526
216	-0.534
216	-0.54
217	-0.538
217	-0.538
218	-0.546
218	-0.549
219	-0.554
219	-0.558
220	-0.561
220	-0.569
221	-0.569
221	-0.569
221	-0.559
222	-0.559
222	-0.559
223	-0.556
223	-0.557
224	-0.56
224	-0.557
225	-0.555
225	-0.555
226	-0.557
226	-0.556
227	-0.565
227	-0.574
228	-0.576
228	-0.584
229	-0.589
229	-0.585
229	-0.584
230	-0.58
230	-0.578
231	-0.575
231	-0.571
232	-0.574
232	-0.569
233	-0.571
233	-0.56
234	-0.559
234	-0.555
235	-0.56
235	-0.571
236	-0.577
236	-0.578
236	-0.578
237	-0.575
237	-0.575
238	-0.576
238	-0.577
239	-0.579
239	-0.59
240	-0.583
240	-0.578
241	-0.574
241	-0.577
242	-0.58
242	-0.589
243	-0.59
243	-0.591
243	-0.596
244	-0.593
244	-0.592
245	-0.595
245	-0.599
246	-0.61
246	-0.613
247	-0.62
247	-0.606
248	-0.606
248	-0.61
249	-0.614
249	-0.615
250	-0.615
250	-0.623
250	-0.622
251	-0.62
251	-0.616
252	-0.617
252	-0.628
253	-0.624
253	-0.634
254	-0.64
254	-0.641
255	-0.648
255	-0.645
256	-0.647
256	-0.661
257	-0.671
257	-0.667
258	-0.671
258	-0.677
258	-0.676
259	-0.668
259	-0.685
260	-0.686
260	-0.677
261	-0.689
261	-0.674
262	-0.679
262	-0.678
263	-0.669
263	-0.675
264	-0.683
264	-0.685
265	-0.677
265	-0.68
265	-0.688
266	-0.679
266	-0.679
267	-0.679
267	-0.693
268	-0.699
268	-0.693
269	-0.685
269	-0.698
270	-0.702
270	-0.701
271	-0.713
271	-0.722
272	-0.724
272	-0.726
272	-0.722
273	-0.731
273	-0.748
274	-0.738
274	-0.732
275	-0.73
275	-0.717
276	-0.721
276	-0.726
277	-0.728
277	-0.727
278	-0.728
278	-0.726
278	-0.712
279	-0.723
279	-0.738
280	-0.739
280	-0.751
281	-0.744
281	-0.737
282	-0.743
282	-0.734
283	-0.73
283	-0.747
284	-0.762
284	-0.77
285	-0.751
285	-0.758
285	-0.75
286	-0.754
286	-0.771
287	-0.767
287	-0.767
288	-0.766
288	-0.747
289	-0.744
289	-0.752
290	-0.759
290	-0.748
291	-0.751
291	-0.749
292	-0.73
292	-0.729
292	-0.734
293	-0.722
293	-0.719
294	-0.717
294	-0.705
295	-0.69
295	-0.701
296	-0.713
296	-0.706
297	-0.695
297	-0.7
298	-0.695
298	-0.711
298	-0.714
299	-0.696
299	-0.688
300	-0.684
300	-0.665
301	-0.646
301	-0.65
302	-0.661
302	-0.645
303	-0.637
303	-0.627
304	-0.611
304	-0.616
305	-0.608
305	-0.615
305	-0.632
306	-0.616
306	-0.616
307	-0.608
307	-0.619
308	-0.621
308	-0.619
309	-0.621
309	-0.615
310	-0.613
310	-0.609
311	-0.594
311	-0.614
311	-0.601
312	-0.598
312	-0.586
313	-0.579
313	-0.577
314	-0.581
314	-0.579
315	-0.576
315	-0.569
316	-0.564
316	-0.554
317	-0.545
317	-0.541
318	-0.534
318	-0.531
318	-0.523
319	-0.512
319	-0.504
320	-0.503
320	-0.502
321	-0.497
321	-0.497
322	-0.493
322	-0.486
323	-0.484
323	-0.476
324	-0.473
324	-0.463
324	-0.452
325	-0.437
325	-0.419
326	-0.41
326	-0.384
327	-0.369
327	-0.349
328	-0.32
328	-0.296
329	-0.269
329	-0.241
330	-0.217
330	-0.182
330	-0.149
331	-0.114
331	-0.084
332	-0.051
332	-0.021
333	0.009
333	0.04
334	0.067
334	0.091
335	0.117
335	0.135
336	0.156
336	0.175
336	0.19
337	0.205
337	0.222
338	0.233
338	0.242
339	0.253
339	0.263
340	0.27
340	0.278
341	0.284
341	0.289
342	0.295
342	0.3
342	0.303
343	0.306
343	0.311
344	0.313
344	0.316
345	0.319
345	0.321
346	0.322
346	0.324
347	0.325
347	0.327
348	0.328
348	0.33
348	0.33
349	0.331
349	0.331
350	0.332
350	0.332
351	0.333
351	0.334
352	0.333
352	0.334
353	0.334
353	0.334
354	0.334
354	0.334
354	0.334
355	0.334
355	0.334
356	0.334
356	0.334
357	0.335
357	0.335
358	0.335
358	0.335
359	0.335
359	0.335
360	0.334
360	0.334
360	0.334
361	0.334
361	0.333
362	0.332
362	0.332
363	0.333
363	0.332
364	0.332
364	0.332
365	0.332
365	0.332
366	0.332
366	0.332
366	0.332
367	0.332
367	0.331
368	0.331
368	0.331
369	0.33
369	0.33
370	0.33
370	0.33
371	0.329
371	0.329
372	0.329
372	0.329
372	0.329
373	0.328
373	0.328
374	0.328
374	0.328
375	0.328
375	0.327
376	0.327
376	0.327
377	0.327
377	0.326
378	0.326
378	0.325
378	0.325
379	0.325
379	0.325
380	0.324
380	0.324
381	0.324
381	0.324
382	0.324
382	0.323
383	0.323
383	0.323
383	0.323
384	0.322
384	0.322
385	0.321
385	0.321
386	0.32
386	0.32
387	0.32
387	0.32
388	0.319
388	0.319
389	0.319
389	0.319
389	0.318
390	0.318
390	0.318
391	0.318
391	0.318
392	0.317
392	0.317
393	0.317
393	0.317
394	0.316
394	0.316
394	0.315
395	0.315
395	0.314
396	0.314
396	0.314
397	0.313
397	0.313
398	0.313
398	0.312
399	0.312
399	0.312
400	0.312
400	0.311
400	0.311
401	0.311
401	0.311
402	0.31
402	0.31
403	0.31
403	0.309
404	0.309
404	0.308
405	0.308
405	0.308
405	0.307
406	0.307
406	0.307
407	0.306
407	0.306
408	0.306
408	0.305
409	0.305
409	0.305
410	0.305
410	0.305
411	0.305
411	0.305
411	0.304
412	0.304
412	0.304
413	0.303
413	0.303
414	0.303
414	0.303
415	0.303
415	0.302
416	0.302
416	0.302
416	0.302
417	0.302
417	0.301
418	0.302
418	0.301
419	0.301
419	0.301
420	0.301
420	0.301
421	0.301
421	0.301
421	0.301
422	0.301
422	0.301
423	0.3
423	0.3
424	0.3
424	0.3
425	0.3
425	0.299
426	0.299
426	0.299
427	0.299
427	0.299
427	0.299
428	0.299
428	0.299
429	0.299
429	0.298
430	0.298
430	0.297
431	0.297
431	0.297
432	0.297
432	0.296
432	0.296
433	0.296
433	0.296
434	0.296
434	0.297
435	0.297
435	0.297
436	0.297
436	0.297
437	0.297
437	0.297
437	0.297
438	0.297
438	0.297
439	0.297
439	0.296
440	0.296
440	0.296
441	0.296
441	0.296
442	0.296
442	0.296
442	0.296
443	0.296
443	0.296
444	0.296
444	0.296
445	0.296
445	0.296
446	0.296
446	0.296
447	0.296
447	0.296
447	0.296
448	0.296
448	0.296
449	0.296
449	0.296
450	0.296
450	0.296
451	0.296
451	0.296
452	0.296
452	0.296
452	0.296
453	0.296
453	0.296
454	0.296
454	0.297
455	0.297
455	0.297
456	0.297
456	0.297
457	0.297
457	0.297
458	0.297
458	0.297
458	0.297
459	0.297
459	0.297
460	0.297
460	0.297
461	0.297
461	0.298
462	0.298
462	0.299
463	0.299
463	0.3
463	0.3
464	0.3
464	0.301
465	0.301
465	0.302
466	0.302
466	0.303
467	0.303
467	0.303
467	0.303
468	0.303
468	0.304
469	0.304
469	0.305
470	0.306
470	0.306
471	0.307
471	0.307
472	0.307
472	0.308
472	0.309
473	0.31
473	0.311
474	0.311
474	0.312
475	0.313
475	0.313
476	0.314
476	0.315
477	0.315
477	0.316
477	0.317
478	0.317
478	0.318
479	0.319
479	0.32
480	0.321
480	0.322
481	0.323
481	0.324
482	0.325
482	0.326
482	0.328
483	0.329
483	0.331
484	0.332
484	0.333
485	0.334
485	0.336
486	0.336
486	0.338
487	0.339
487	0.34
487	0.341
488	0.342
488	0.344
489	0.345
489	0.347
490	0.349
490	0.351
491	0.353
491	0.355
492	0.357
492	0.358
492	0.36
493	0.362
493	0.364
494	0.366
494	0.368
495	0.37
495	0.372
496	0.374
496	0.376
496	0.378
497	0.381
497	0.383
498	0.386
498	0.388
499	0.39
499	0.393
500	0.396
500	0.399
501	0.402
501	0.404
501	0.406
502	0.408
502	0.411
503	0.413
503	0.415
504	0.418
504	0.42
505	0.423
505	0.426
506	0.428
506	0.431
506	0.434
507	0.437
507	0.44
508	0.443
508	0.446
509	0.449
509	0.452
510	0.454
510	0.457
511	0.459
511	0.462
511	0.464
512	0.467
512	0.469
513	0.472
513	0.474
514	0.477
514	0.48
515	0.483
515	0.485
515	0.487
516	0.489
516	0.491
517	0.493
517	0.495
518	0.497
518	0.498
519	0.5
519	0.501
520	0.503
520	0.504
520	0.506
521	0.507
521	0.509
522	0.51
522	0.511
523	0.512
523	0.513
524	0.514
524	0.515
524	0.516
525	0.517
525	0.517
526	0.518
526	0.519
527	0.519
527	0.519
528	0.519
528	0.519
529	0.519
529	0.518
529	0.518
530	0.517
530	0.517
531	0.517
531	0.516
532	0.515
532	0.515
533	0.514
533	0.513
533	0.512
534	0.511
534	0.51
535	0.509
535	0.507
536	0.506
536	0.504
537	0.503
537	0.501
538	0.499
538	0.497
538	0.495
539	0.493
539	0.492
540	0.489
540	0.487
541	0.484
541	0.482
542	0.479
542	0.476
542	0.474
543	0.471
543	0.468
544	0.466
544	0.463
545	0.46
545	0.457
546	0.455
546	0.452
547	0.448
547	0.445
547	0.442
548	0.44
548	0.436
549	0.433
549	0.43
550	0.427
550	0.424
551	0.42
551	0.416
551	0.413
552	0.41
552	0.407
553	0.404
553	0.402
554	0.398
554	0.395
555	0.391
555	0.388
556	0.385
556	0.382
556	0.379
557	0.376
557	0.373
558	0.369
558	0.367
559	0.364
559	0.361
560	0.358
560	0.355
560	0.352
561	0.35
561	0.348
562	0.345
562	0.342
563	0.34
563	0.337
564	0.335
564	0.332
564	0.33
565	0.328
565	0.326
566	0.323
566	0.32
567	0.318
567	0.316
568	0.313
568	0.31
568	0.307
569	0.305
569	0.302
570	0.298
570	0.295
571	0.293
571	0.291
572	0.288
572	0.286
573	0.283
573	0.281
573	0.278
574	0.277
574	0.275
575	0.273
575	0.273
576	0.271
576	0.268
577	0.265
577	0.264
577	0.262
578	0.261
578	0.26
579	0.26
579	0.259
580	0.256
580	0.253
581	0.251
581	0.249
581	0.248
582	0.247
582	0.246
583	0.245
583	0.243
584	0.239
584	0.236
585	0.235
585	0.234
585	0.232
586	0.231
586	0.229
587	0.226
587	0.224
588	0.222
588	0.221
589	0.22
589	0.219
590	0.218
590	0.217
590	0.217
591	0.217
591	0.215
592	0.214
592	0.212
593	0.212
593	0.211
594	0.21
594	0.208
594	0.207
595	0.207
595	0.205
596	0.203
596	0.204
597	0.204
597	0.203
598	0.202
598	0.202
598	0.201
599	0.2
599	0.199
600	0.198
600	0.197
601	0.197
601	0.196
602	0.194
602	0.193
602	0.192
603	0.191
603	0.191
604	0.19
604	0.19
605	0.189
605	0.189
606	0.188
606	0.186
606	0.185
607	0.184
607	0.184
608	0.183
608	0.181
609	0.18
609	0.18
610	0.179
610	0.178
610	0.177
611	0.177
611	0.177
612	0.177
612	0.177
613	0.177
613	0.177
614	0.175
614	0.174
614	0.174
615	0.173
615	0.172
616	0.171
616	0.17
617	0.17
617	0.169
618	0.168
618	0.167
618	0.166
619	0.165
619	0.165
620	0.166
620	0.164
621	0.163
621	0.162
622	0.161
622	0.16
622	0.159
623	0.158
623	0.158
624	0.158
624	0.156
625	0.156
625	0.155
626	0.154
626	0.153
626	0.153
627	0.152
627	0.151
628	0.15
628	0.149
629	0.147
629	0.146
630	0.143
630	0.142
630	0.14
631	0.138
631	0.137
632	0.135
632	0.133
633	0.132
633	0.13
634	0.129
634	0.128
634	0.126
635	0.125
635	0.124
636	0.122
636	0.121
637	0.119
637	0.117
638	0.115
638	0.113
638	0.111
639	0.109
639	0.106
640	0.103
640	0.101
641	0.098
641	0.096
642	0.093
642	0.091
642	0.088
643	0.085
643	0.081
644	0.077
644	0.073
645	0.07
645	0.066
646	0.062
646	0.056
646	0.051
647	0.046
647	0.041
648	0.035
648	0.03
649	0.024
649	0.019
650	0.014
650	0.009
650	0.002
651	-0.005
651	-0.014
652	-0.024
652	-0.035
653	-0.045
653	-0.054
653	-0.05
654	-0.035
654	-0.033
655	-0.037
655	-0.042
656	-0.046
656	-0.052
657	-0.056
657	-0.06
657	-0.066
658	-0.072
658	-0.098
659	-0.171
659	-0.246
660	-0.282
660	-0.305
661	-0.331
661	-0.357
661	-0.386
662	-0.412
662	-0.441
663	-0.473
663	-0.51
664	-0.545
664	-0.584
665	-0.627
665	-0.672
665	-0.715
666	-0.765
666	-0.818
667	-0.871
667	-0.933
668	-0.991
668	-1.058
669	-1.125
669	-1.197
669	-1.274
670	-1.354
670	-1.459
671	-1.603
671	-1.896
672	-2.219
672	-2.411
672	-2.547
673	-2.653
673	-2.739
674	-2.793
674	-2.808
675	-2.824
675	-2.829
676	-2.829
676	-2.799
676	-2.726
677	-2.636
677	-2.525
678	-2.356
678	-2.058
679	-1.685
679	-1.522
680	-1.419
680	-1.343
680	-1.275
681	-1.227
681	-1.174
682	-1.132
682	-1.088
683	-1.045
683	-1.021
684	-0.993
684	-0.974
684	-0.951
685	-0.931
685	-0.923
686	-0.9
686	-0.886
687	-0.877
687	-0.865
687	-0.864
688	-0.849
688	-0.842
689	-0.845
689	-0.842
690	-0.828
690	-0.817
691	-0.814
691	-0.817
691	-0.815
692	-0.815
692	-0.812
693	-0.82
693	-0.829
694	-0.81
694	-0.809
695	-0.812
695	-0.804
695	-0.812
696	-0.818
696	-0.813
697	-0.806
697	-0.801
698	-0.795
698	-0.787
698	-0.8
699	-0.799
699	-0.799
700	-0.819
700	-0.812
701	-0.798
701	-0.794
702	-0.795
702	-0.795
702	-0.794
703	-0.786
703	-0.776
704	-0.783
704	-0.787
705	-0.775
705	-0.774
705	-0.77
706	-0.763
706	-0.759
707	-0.769
707	-0.773
708	-0.77
708	-0.765
709	-0.766
709	-0.761
709	-0.757
710	-0.765
710	-0.769
711	-0.767
711	-0.766
712	-0.758
712	-0.755
713	-0.758
713	-0.76
713	-0.739
714	-0.741
714	-0.745
715	-0.735
715	-0.743
716	-0.758
716	-0.768
716	-0.77
717	-0.775
717	-0.768
718	-0.764
718	-0.766
719	-0.762
719	-0.754
720	-0.75
720	-0.744
720	-0.738
721	-0.728
721	-0.732
722	-0.729
722	-0.727
723	-0.743
723	-0.757
723	-0.766
724	-0.766
724	-0.771
725	-0.764
725	-0.769
726	-0.774
726	-0.765
727	-0.768
727	-0.772
727	-0.763
728	-0.748
728	-0.743
729	-0.747
729	-0.75
730	-0.756
730	-0.748
730	-0.753
731	-0.756
731	-0.756
732	-0.759
732	-0.755
733	-0.771
733	-0.777
734	-0.783
734	-0.773
734	-0.757
735	-0.747
735	-0.743
736	-0.743
736	-0.737
737	-0.737
737	-0.726
737	-0.717
738	-0.703
738	-0.693
739	-0.696
739	-0.696
740	-0.708
740	-0.707
741	-0.717
741	-0.727
741	-0.737
742	-0.744
742	-0.761
743	-0.769
743	-0.771
744	-0.773
744	-0.781
744	-0.775
745	-0.784
745	-0.773
746	-0.769
746	-0.76
747	-0.764
747	-0.753
748	-0.756
748	-0.76
748	-0.763
749	-0.754
749	-0.762
750	-0.751
750	-0.752
751	-0.75
751	-0.747
751	-0.756
752	-0.759
752	-0.762
753	-0.763
753	-0.757
754	-0.778
754	-0.778
754	-0.786
755	-0.785
755	-0.777
756	-0.782
756	-0.77
757	-0.763
757	-0.749
758	-0.75
758	-0.748
758	-0.744
759	-0.747
759	-0.749
760	-0.747
760	-0.75
761	-0.743
761	-0.748
761	-0.746
762	-0.752
762	-0.75
763	-0.75
763	-0.752
764	-0.752
764	-0.747
764	-0.752
765	-0.75
765	-0.755
766	-0.759
766	-0.762
767	-0.778
767	-0.775
768	-0.774
768	-0.766
768	-0.76
769	-0.764
769	-0.774
770	-0.785
770	-0.788
771	-0.783
771	-0.782
771	-0.786
772	-0.789
772	-0.81
773	-0.812
773	-0.813
774	-0.81
774	-0.792
775	-0.781
775	-0.782
775	-0.786
776	-0.795
776	-0.794
777	-0.794
777	-0.777
778	-0.786
778	-0.794
778	-0.794
779	-0.802
779	-0.816
780	-0.811
780	-0.819
781	-0.81
781	-0.798
781	-0.811
782	-0.832
782	-0.833
783	-0.832
783	-0.843
784	-0.845
784	-0.838
784	-0.859
785	-0.854
785	-0.866
786	-0.871
786	-0.864
787	-0.853
787	-0.86
788	-0.853
788	-0.845
788	-0.847
789	-0.848
789	-0.836
790	-0.833
790	-0.818
791	-0.824
791	-0.82
791	-0.816
792	-0.811
792	-0.815
793	-0.818
793	-0.804
794	-0.796
794	-0.79
794	-0.798
795	-0.817
795	-0.803
796	-0.81
796	-0.804
797	-0.798
797	-0.788
797	-0.781
798	-0.802
798	-0.805
799	-0.805
799	-0.789
800	-0.784
800	-0.792
801	-0.79
801	-0.792
801	-0.789
802	-0.789
802	-0.787
803	-0.783
803	-0.778
804	-0.784
804	-0.793
804	-0.777
805	-0.758
805	-0.749
806	-0.752
806	-0.748
807	-0.749
807	-0.75
807	-0.733
808	-0.729
808	-0.722
809	-0.717
809	-0.718
810	-0.722
810	-0.719
810	-0.715
811	-0.718
811	-0.711
812	-0.705
812	-0.707
813	-0.713
813	-0.715
813	-0.709
814	-0.71
814	-0.713
815	-0.703
815	-0.699
816	-0.696
816	-0.71
817	-0.722
817	-0.725
817	-0.733
818	-0.726
818	-0.723
819	-0.732
819	-0.732
820	-0.745
820	-0.745
820	-0.744
821	-0.741
821	-0.737
822	-0.736
822	-0.724
823	-0.738
823	-0.737
823	-0.729
824	-0.727
824	-0.736
825	-0.736
825	-0.732
826	-0.726
826	-0.72
826	-0.72
827	-0.719
827	-0.708
828	-0.708
828	-0.702
829	-0.697
829	-0.683
829	-0.678
830	-0.679
830	-0.666
831	-0.661
831	-0.65
832	-0.641
832	-0.636
832	-0.631
833	-0.632
833	-0.637
834	-0.633
834	-0.628
835	-0.618
835	-0.62
835	-0.614
836	-0.612
836	-0.61
837	-0.601
837	-0.593
838	-0.58
838	-0.563
839	-0.558
839	-0.544
839	-0.536
840	-0.533
840	-0.524
841	-0.513
841	-0.506
842	-0.497
842	-0.485
842	-0.481
843	-0.479
843	-0.474
844	-0.473
844	-0.461
845	-0.448
845	-0.439
845	-0.428
846	-0.417
846	-0.406
847	-0.396
847	-0.385
848	-0.37
848	-0.355
848	-0.342
849	-0.331
849	-0.321
850	-0.311
850	-0.302
851	-0.289
851	-0.276
851	-0.268
852	-0.252
852	-0.241
853	-0.233
853	-0.224
854	-0.214
854	-0.203
854	-0.193
855	-0.182
855	-0.176
856	-0.168
856	-0.161
857	-0.155
857	-0.149
857	-0.136
858	-0.127
858	-0.121
859	-0.112
859	-0.103
860	-0.093
860	-0.081
860	-0.072
861	-0.063
861	-0.054
862	-0.046
862	-0.04
863	-0.033
863	-0.026
863	-0.021
864	-0.016
864	-0.011
865	-0.006
865	-0.001
866	0.003
866	0.008
866	0.013
867	0.017
867	0.021
868	0.025
868	0.029
869	0.033
869	0.035
869	0.037
870	0.04
870	0.042
871	0.044
871	0.045
872	0.045
872	0.046
872	0.047
873	0.047
873	0.047
874	0.046
874	0.046
875	0.046
875	0.045
875	0.045
876	0.045
876	0.044
877	0.044
877	0.043
878	0.042
878	0.041
878	0.041
879	0.04
879	0.039
880	0.038
880	0.037
881	0.036
881	0.035
881	0.035
882	0.034
882	0.033
883	0.033
883	0.032
884	0.032
884	0.032
884	0.033
885	0.032
885	0.033
886	0.033
886	0.032
887	0.032
887	0.031
887	0.031
888	0.03
888	0.029
889	0.028
889	0.027
890	0.026
890	0.026
890	0.025
891	0.025
891	0.024
892	0.025
892	0.025
893	0.025
893	0.025
893	0.024
894	0.025
894	0.025
895	0.025
895	0.025
895	0.025
896	0.026
896	0.026
897	0.026
897	0.027
898	0.027
898	0.027
898	0.028
899	0.028
899	0.029
900	0.029
900	0.029
901	0.029
901	0.029
901	0.029
902	0.029
902	0.03
903	0.03
903	0.029
904	0.029
904	0.029
904	0.028
905	0.028
905	0.028
906	0.028
906	0.029
907	0.029
907	0.029
907	0.029
908	0.029
908	0.03
909	0.03
909	0.031
910	0.031
910	0.032
910	0.033
911	0.034
911	0.035
912	0.036
912	0.038
913	0.039
913	0.04
913	0.041
914	0.042
914	0.042
915	0.042
915	0.042
916	0.042
916	0.041
916	0.04
917	0.04
917	0.039
918	0.038
918	0.038
918	0.037
919	0.037
919	0.037
920	0.037
920	0.036
921	0.036
921	0.036
921	0.036
922	0.035
922	0.035
923	0.035
923	0.034
924	0.034
924	0.034
924	0.033
925	0.033
925	0.033
926	0.033
926	0.033
927	0.033
927	0.033
927	0.033
928	0.033
928	0.034
929	0.034
929	0.035
930	0.035
930	0.036
930	0.037
931	0.037
931	0.038
932	0.038
932	0.038
933	0.039
933	0.039
933	0.038
934	0.038
934	0.037
935	0.036
935	0.035
935	0.033
936	0.032
936	0.03
937	0.029
937	0.028
938	0.027
938	0.026
938	0.025
939	0.025
939	0.024
940	0.024
940	0.024
941	0.024
941	0.024
941	0.024
942	0.023
942	0.023
943	0.024
943	0.024
944	0.023
944	0.023
944	0.023
945	0.023
945	0.023
946	0.023
946	0.022
946	0.022
947	0.022
947	0.021
948	0.021
948	0.021
949	0.021
949	0.021
949	0.022
950	0.022
950	0.022
951	0.023
951	0.023
952	0.023
952	0.024
952	0.024
953	0.024
953	0.025
954	0.025
954	0.025
955	0.025
955	0.025
955	0.025
956	0.025
956	0.025
957	0.024
957	0.023
957	0.022
958	0.022
958	0.022
959	0.022
959	0.021
960	0.021
960	0.021
960	0.021
961	0.021
961	0.021
962	0.021
962	0.021
963	0.022
963	0.021
963	0.021
964	0.021
964	0.021
965	0.021
965	0.021
966	0.021
966	0.021
966	0.022
967	0.022
967	0.021
968	0.021
968	0.021
968	0.021
969	0.02
969	0.02
970	0.019
970	0.019
971	0.018
971	0.017
971	0.017
972	0.017
972	0.017
973	0.017
973	0.017
974	0.018
974	0.018
974	0.019
975	0.02
975	0.021
976	0.022
976	0.023
976	0.023
977	0.024
977	0.024
978	0.024
978	0.024
979	0.023
979	0.023
979	0.023
980	0.023
980	0.022
981	0.022
981	0.022
982	0.022
982	0.022
982	0.022
983	0.022
983	0.021
984	0.021
984	0.021
984	0.021
985	0.021
985	0.021
986	0.02
986	0.019
987	0.018
987	0.017
987	0.017
988	0.016
988	0.015
989	0.015
989	0.014
990	0.013
990	0.012
990	0.012
991	0.012
991	0.012
992	0.012
992	0.012
992	0.012
993	0.012
993	0.012
994	0.012
994	0.011
995	0.012
995	0.011
995	0.011
996	0.011
996	0.01
997	0.009
997	0.009
997	0.009
998	0.009
998	0.01
999	0.01
999	0.009
1000	0.01
1000	0.01
1000	0.01
1001	0.01
1001	0.011
1002	0.011
1002	0.011
1003	0.011
1003	0.011
1003	0.01
1004	0.01
1004	0.009
1005	0.009
1005	0.008
1005	0.008
1006	0.007
1006	0.006
1007	0.006
1007	0.006
1008	0.005
1008	0.005
1008	0.005
1009	0.005
1009	0.006
1010	0.006
1010	0.007
1010	0.007
1011	0.008
1011	0.008
1012	0.008
1012	0.009
1013	0.009
1013	0.009
1013	0.009
1014	0.009
1014	0.01
1015	0.01
1015	0.01
1016	0.01
1016	0.01
1016	0.01
1017	0.01
1017	0.01
1018	0.01
1018	0.01
1018	0.01
1019	0.009
1019	0.009
1020	0.009
1020	0.008
1021	0.008
1021	0.007
1021	0.007
1022	0.006
1022	0.006
1023	0.005
1023	0.004
1023	0.004
1024	0.004
1024	0.003
1025	0.003
1025	0.003
1026	0.003
1026	0.003
1026	0.002
1027	0.002
1027	0.002
1028	0.002
1028	0.003
1028	0.003
1029	0.002
1029	0.003
1030	0.002
1030	0.001
1031	0.001
1031	0.002
1031	0.001
1032	0.001
1032	0.001
1033	0
1033	0
1033	-0
1034	-0.001
1034	-0.001
1035	-0
1035	-0.001
1036	-0.001
1036	-0.001
1036	-0.001
1037	-0.001
1037	-0
1038	0
1038	0.001
1039	0.001
1039	0.002
1039	0.003
1040	0.003
1040	0.004
1041	0.004
1041	0.004
1041	0.004
1042	0.003
1042	0.003
1043	0.002
1043	0.001
1044	0.001
1044	-0.001
1044	-0.001
1045	-0.003
1045	-0.003
1046	-0.004
1046	-0.005
1046	-0.006
1047	-0.006
1047	-0.006
1048	-0.006
1048	-0.006
1049	-0.007
1049	-0.007
1049	-0.007
1050	-0.008
1050	-0.009
1051	-0.01
1051	-0.01
1051	-0.01
1052	-0.011
1052	-0.012
1053	-0.013
1053	-0.013
1053	-0.013
1054	-0.013
1054	-0.013
1055	-0.012
1055	-0.012
1056	-0.012
1056	-0.012
1056	-0.013
1057	-0.013
1057	-0.013
1058	-0.014
1058	-0.014
1058	-0.014
1059	-0.015
1059	-0.015
1060	-0.015
1060	-0.015
1061	-0.015
1061	-0.015
1061	-0.015
1062	-0.014
1062	-0.014
1063	-0.014
1063	-0.015
1063	-0.014
1064	-0.015
1064	-0.014
1065	-0.015
1065	-0.015
1066	-0.015
1066	-0.015
1066	-0.015
1067	-0.016
1067	-0.016
1068	-0.017
1068	-0.017
1068	-0.018
1069	-0.018
1069	-0.019
1070	-0.02
1070	-0.02
1071	-0.021
1071	-0.021
1071	-0.021
1072	-0.021
1072	-0.021
1073	-0.02
1073	-0.02
1073	-0.02
1074	-0.019
1074	-0.019
1075	-0.019
1075	-0.019
1076	-0.02
1076	-0.02
1076	-0.021
1077	-0.022
1077	-0.023
1078	-0.024
1078	-0.025
1078	-0.026
1079	-0.027
1079	-0.027
1080	-0.028
1080	-0.029
1080	-0.03
1081	-0.031
1081	-0.031
1082	-0.032
1082	-0.033
1083	-0.034
1083	-0.034
1083	-0.035
1084	-0.036
1084	-0.036
1085	-0.037
1085	-0.037
1085	-0.038
1086	-0.038
1086	-0.039
1087	-0.039
1087	-0.039
1088	-0.04
1088	-0.041
1088	-0.041
1089	-0.043
1089	-0.043
1090	-0.044
1090	-0.044
1090	-0.046
1091	-0.047
1091	-0.048
1092	-0.048
1092	-0.049
1092	-0.05
1093	-0.051
1093	-0.051
1094	-0.052
1094	-0.053
1095	-0.054
1095	-0.054
1095	-0.055
1096	-0.056
1096	-0.058
1097	-0.058
1097	-0.06
1097	-0.061
1098	-0.063
1098	-0.065
1099	-0.065
1099	-0.067
1100	-0.069
1100	-0.07
1100	-0.073
1101	-0.075
1101	-0.078
1102	-0.08
1102	-0.082
1102	-0.083
1103	-0.086
1103	-0.088
1104	-0.092
1104	-0.095
1104	-0.097
1105	-0.098
1105	-0.101
1106	-0.105
1106	-0.106
1107	-0.112
1107	-0.116
1107	-0.121
1108	-0.122
1108	-0.123
1109	-0.126
1109	-0.13
1109	-0.135
1110	-0.136
1110	-0.14
1111	-0.151
1111	-0.148
