Data from 3.5A_17C_Absorbance__318__00320.txt Node

Date: Tue Jun 20 15:07:49 CEST 2023
User: Marek
Spectrometer: MAYP115816
Trigger mode: 0
Integration Time (sec): 2.200000E-1
Scans to average: 10
Electric dark correction enabled: true
Nonlinearity correction enabled: true
Boxcar width: 5
XAxis mode: Wavelengths
Number of Pixels in Spectrum: 2068
>>>>>Begin Spectral Data<<<<<
199	-0.623
199	-0.605
200	-0.566
200	-0.513
201	-0.486
201	-0.479
202	-0.459
202	-0.449
203	-0.446
203	-0.439
204	-0.419
204	-0.404
205	-0.38
205	-0.374
205	-0.381
206	-0.382
206	-0.378
207	-0.374
207	-0.383
208	-0.388
208	-0.392
209	-0.395
209	-0.4
210	-0.413
210	-0.418
211	-0.412
211	-0.416
212	-0.422
212	-0.428
213	-0.423
213	-0.418
213	-0.415
214	-0.422
214	-0.423
215	-0.42
215	-0.426
216	-0.436
216	-0.441
217	-0.439
217	-0.438
218	-0.444
218	-0.446
219	-0.452
219	-0.455
220	-0.457
220	-0.463
221	-0.461
221	-0.46
221	-0.451
222	-0.453
222	-0.453
223	-0.45
223	-0.45
224	-0.451
224	-0.447
225	-0.447
225	-0.448
226	-0.449
226	-0.451
227	-0.462
227	-0.47
228	-0.474
228	-0.482
229	-0.487
229	-0.485
229	-0.486
230	-0.482
230	-0.48
231	-0.476
231	-0.472
232	-0.472
232	-0.467
233	-0.466
233	-0.455
234	-0.455
234	-0.45
235	-0.454
235	-0.466
236	-0.472
236	-0.473
236	-0.472
237	-0.47
237	-0.471
238	-0.471
238	-0.474
239	-0.474
239	-0.483
240	-0.476
240	-0.472
241	-0.468
241	-0.469
242	-0.47
242	-0.479
243	-0.48
243	-0.483
243	-0.486
244	-0.484
244	-0.487
245	-0.49
245	-0.494
246	-0.506
246	-0.511
247	-0.518
247	-0.503
248	-0.503
248	-0.503
249	-0.51
249	-0.511
250	-0.508
250	-0.515
250	-0.509
251	-0.507
251	-0.503
252	-0.505
252	-0.518
253	-0.514
253	-0.526
254	-0.529
254	-0.53
255	-0.542
255	-0.541
256	-0.545
256	-0.555
257	-0.564
257	-0.56
258	-0.56
258	-0.567
258	-0.565
259	-0.559
259	-0.575
260	-0.573
260	-0.561
261	-0.572
261	-0.561
262	-0.568
262	-0.567
263	-0.558
263	-0.562
264	-0.568
264	-0.569
265	-0.559
265	-0.562
265	-0.572
266	-0.563
266	-0.56
267	-0.557
267	-0.571
268	-0.579
268	-0.575
269	-0.566
269	-0.58
270	-0.584
270	-0.581
271	-0.595
271	-0.603
272	-0.606
272	-0.61
272	-0.602
273	-0.611
273	-0.624
274	-0.618
274	-0.611
275	-0.609
275	-0.598
276	-0.6
276	-0.606
277	-0.607
277	-0.602
278	-0.607
278	-0.607
278	-0.598
279	-0.604
279	-0.618
280	-0.619
280	-0.63
281	-0.623
281	-0.615
282	-0.622
282	-0.618
283	-0.613
283	-0.627
284	-0.64
284	-0.651
285	-0.633
285	-0.637
285	-0.626
286	-0.633
286	-0.648
287	-0.642
287	-0.642
288	-0.643
288	-0.625
289	-0.621
289	-0.627
290	-0.634
290	-0.625
291	-0.63
291	-0.629
292	-0.611
292	-0.611
292	-0.612
293	-0.597
293	-0.595
294	-0.596
294	-0.582
295	-0.563
295	-0.576
296	-0.589
296	-0.583
297	-0.571
297	-0.575
298	-0.571
298	-0.588
298	-0.59
299	-0.572
299	-0.568
300	-0.567
300	-0.55
301	-0.528
301	-0.532
302	-0.54
302	-0.524
303	-0.519
303	-0.507
304	-0.489
304	-0.493
305	-0.486
305	-0.496
305	-0.508
306	-0.494
306	-0.492
307	-0.486
307	-0.497
308	-0.501
308	-0.496
309	-0.501
309	-0.495
310	-0.492
310	-0.484
311	-0.471
311	-0.487
311	-0.473
312	-0.469
312	-0.458
313	-0.449
313	-0.451
314	-0.456
314	-0.454
315	-0.449
315	-0.442
316	-0.436
316	-0.428
317	-0.423
317	-0.422
318	-0.413
318	-0.411
318	-0.402
319	-0.39
319	-0.379
320	-0.381
320	-0.382
321	-0.377
321	-0.378
322	-0.371
322	-0.362
323	-0.365
323	-0.358
324	-0.355
324	-0.344
324	-0.336
325	-0.322
325	-0.306
326	-0.299
326	-0.272
327	-0.258
327	-0.236
328	-0.208
328	-0.187
329	-0.161
329	-0.136
330	-0.111
330	-0.075
330	-0.041
331	-0.007
331	0.022
332	0.052
332	0.08
333	0.108
333	0.139
334	0.165
334	0.187
335	0.211
335	0.228
336	0.246
336	0.263
336	0.277
337	0.292
337	0.306
338	0.318
338	0.327
339	0.338
339	0.346
340	0.353
340	0.359
341	0.364
341	0.369
342	0.374
342	0.378
342	0.382
343	0.384
343	0.388
344	0.39
344	0.392
345	0.394
345	0.396
346	0.398
346	0.4
347	0.401
347	0.402
348	0.403
348	0.404
348	0.404
349	0.405
349	0.405
350	0.405
350	0.406
351	0.406
351	0.406
352	0.406
352	0.406
353	0.407
353	0.407
354	0.407
354	0.407
354	0.407
355	0.407
355	0.407
356	0.407
356	0.406
357	0.406
357	0.406
358	0.406
358	0.406
359	0.406
359	0.406
360	0.406
360	0.406
360	0.406
361	0.406
361	0.406
362	0.405
362	0.405
363	0.405
363	0.405
364	0.405
364	0.404
365	0.404
365	0.404
366	0.403
366	0.403
366	0.403
367	0.403
367	0.402
368	0.402
368	0.401
369	0.401
369	0.401
370	0.4
370	0.4
371	0.399
371	0.399
372	0.398
372	0.398
372	0.398
373	0.398
373	0.397
374	0.397
374	0.397
375	0.397
375	0.396
376	0.396
376	0.395
377	0.395
377	0.394
378	0.394
378	0.393
378	0.393
379	0.392
379	0.392
380	0.391
380	0.391
381	0.391
381	0.39
382	0.39
382	0.39
383	0.389
383	0.389
383	0.389
384	0.388
384	0.388
385	0.387
385	0.387
386	0.386
386	0.386
387	0.385
387	0.385
388	0.384
388	0.384
389	0.384
389	0.383
389	0.383
390	0.382
390	0.382
391	0.381
391	0.381
392	0.38
392	0.38
393	0.38
393	0.379
394	0.379
394	0.378
394	0.378
395	0.377
395	0.377
396	0.376
396	0.376
397	0.375
397	0.375
398	0.374
398	0.374
399	0.373
399	0.373
400	0.373
400	0.372
400	0.372
401	0.371
401	0.371
402	0.371
402	0.371
403	0.37
403	0.37
404	0.369
404	0.369
405	0.368
405	0.367
405	0.367
406	0.367
406	0.366
407	0.366
407	0.365
408	0.365
408	0.364
409	0.364
409	0.364
410	0.364
410	0.364
411	0.363
411	0.363
411	0.363
412	0.362
412	0.362
413	0.362
413	0.361
414	0.361
414	0.361
415	0.36
415	0.36
416	0.36
416	0.36
416	0.359
417	0.359
417	0.359
418	0.359
418	0.359
419	0.359
419	0.358
420	0.358
420	0.358
421	0.358
421	0.358
421	0.357
422	0.357
422	0.357
423	0.357
423	0.357
424	0.357
424	0.356
425	0.356
425	0.356
426	0.356
426	0.356
427	0.356
427	0.355
427	0.355
428	0.355
428	0.355
429	0.354
429	0.354
430	0.354
430	0.354
431	0.354
431	0.353
432	0.353
432	0.353
432	0.353
433	0.353
433	0.353
434	0.353
434	0.353
435	0.353
435	0.353
436	0.353
436	0.353
437	0.353
437	0.353
437	0.353
438	0.353
438	0.353
439	0.353
439	0.353
440	0.353
440	0.353
441	0.353
441	0.353
442	0.353
442	0.353
442	0.353
443	0.353
443	0.353
444	0.352
444	0.353
445	0.353
445	0.353
446	0.352
446	0.353
447	0.353
447	0.353
447	0.353
448	0.353
448	0.353
449	0.354
449	0.354
450	0.354
450	0.354
451	0.354
451	0.354
452	0.354
452	0.354
452	0.354
453	0.354
453	0.354
454	0.355
454	0.355
455	0.355
455	0.356
456	0.356
456	0.357
457	0.357
457	0.357
458	0.357
458	0.357
458	0.358
459	0.358
459	0.358
460	0.358
460	0.358
461	0.358
461	0.359
462	0.359
462	0.36
463	0.361
463	0.362
463	0.362
464	0.363
464	0.364
465	0.364
465	0.364
466	0.365
466	0.365
467	0.366
467	0.366
467	0.367
468	0.367
468	0.367
469	0.368
469	0.369
470	0.37
470	0.37
471	0.371
471	0.372
472	0.373
472	0.374
472	0.375
473	0.376
473	0.377
474	0.378
474	0.379
475	0.381
475	0.382
476	0.383
476	0.384
477	0.385
477	0.386
477	0.387
478	0.388
478	0.389
479	0.391
479	0.392
480	0.393
480	0.395
481	0.397
481	0.398
482	0.4
482	0.402
482	0.404
483	0.406
483	0.408
484	0.41
484	0.412
485	0.414
485	0.416
486	0.417
486	0.419
487	0.421
487	0.423
487	0.424
488	0.426
488	0.428
489	0.43
489	0.433
490	0.435
490	0.437
491	0.44
491	0.443
492	0.445
492	0.448
492	0.45
493	0.453
493	0.455
494	0.459
494	0.462
495	0.465
495	0.468
496	0.471
496	0.474
496	0.477
497	0.481
497	0.484
498	0.487
498	0.49
499	0.493
499	0.497
500	0.501
500	0.505
501	0.508
501	0.511
501	0.515
502	0.518
502	0.522
503	0.526
503	0.529
504	0.533
504	0.536
505	0.54
505	0.543
506	0.547
506	0.551
506	0.555
507	0.559
507	0.563
508	0.567
508	0.571
509	0.575
509	0.579
510	0.583
510	0.587
511	0.59
511	0.594
511	0.598
512	0.601
512	0.604
513	0.608
513	0.611
514	0.614
514	0.618
515	0.621
515	0.623
515	0.626
516	0.629
516	0.632
517	0.635
517	0.637
518	0.64
518	0.642
519	0.644
519	0.646
520	0.648
520	0.65
520	0.652
521	0.654
521	0.655
522	0.657
522	0.658
523	0.66
523	0.661
524	0.662
524	0.663
524	0.664
525	0.665
525	0.666
526	0.667
526	0.667
527	0.668
527	0.668
528	0.668
528	0.667
529	0.667
529	0.666
529	0.665
530	0.664
530	0.663
531	0.662
531	0.66
532	0.658
532	0.657
533	0.655
533	0.653
533	0.651
534	0.649
534	0.646
535	0.644
535	0.642
536	0.639
536	0.636
537	0.633
537	0.63
538	0.627
538	0.624
538	0.62
539	0.617
539	0.614
540	0.611
540	0.607
541	0.603
541	0.599
542	0.595
542	0.591
542	0.587
543	0.582
543	0.578
544	0.574
544	0.57
545	0.565
545	0.561
546	0.555
546	0.55
547	0.545
547	0.54
547	0.535
548	0.531
548	0.526
549	0.521
549	0.516
550	0.511
550	0.506
551	0.5
551	0.494
551	0.489
552	0.483
552	0.479
553	0.473
553	0.469
554	0.463
554	0.458
555	0.452
555	0.447
556	0.442
556	0.436
556	0.431
557	0.426
557	0.421
558	0.416
558	0.411
559	0.406
559	0.401
560	0.396
560	0.391
560	0.387
561	0.383
561	0.379
562	0.375
562	0.37
563	0.366
563	0.361
564	0.357
564	0.353
564	0.349
565	0.345
565	0.341
566	0.336
566	0.332
567	0.328
567	0.324
568	0.319
568	0.315
568	0.31
569	0.306
569	0.301
570	0.297
570	0.292
571	0.289
571	0.285
572	0.28
572	0.276
573	0.272
573	0.268
573	0.265
574	0.262
574	0.259
575	0.256
575	0.253
576	0.25
576	0.246
577	0.243
577	0.24
577	0.238
578	0.236
578	0.234
579	0.232
579	0.229
580	0.226
580	0.222
581	0.219
581	0.216
581	0.214
582	0.212
582	0.21
583	0.208
583	0.204
584	0.2
584	0.196
585	0.194
585	0.191
585	0.188
586	0.186
586	0.183
587	0.18
587	0.178
588	0.175
588	0.173
589	0.171
589	0.169
590	0.168
590	0.166
590	0.165
591	0.164
591	0.161
592	0.159
592	0.157
593	0.156
593	0.154
594	0.153
594	0.151
594	0.15
595	0.148
595	0.146
596	0.144
596	0.144
597	0.143
597	0.142
598	0.14
598	0.139
598	0.137
599	0.136
599	0.135
600	0.133
600	0.132
601	0.131
601	0.13
602	0.128
602	0.127
602	0.126
603	0.125
603	0.124
604	0.123
604	0.122
605	0.121
605	0.12
606	0.119
606	0.117
606	0.115
607	0.114
607	0.113
608	0.112
608	0.11
609	0.109
609	0.108
610	0.107
610	0.105
610	0.104
611	0.103
611	0.102
612	0.102
612	0.101
613	0.101
613	0.1
614	0.099
614	0.097
614	0.096
615	0.095
615	0.094
616	0.094
616	0.093
617	0.092
617	0.091
618	0.09
618	0.089
618	0.088
619	0.088
619	0.088
620	0.088
620	0.087
621	0.086
621	0.086
622	0.085
622	0.084
622	0.083
623	0.082
623	0.082
624	0.082
624	0.08
625	0.08
625	0.079
626	0.078
626	0.078
626	0.077
627	0.077
627	0.076
628	0.075
628	0.074
629	0.073
629	0.072
630	0.071
630	0.07
630	0.07
631	0.069
631	0.068
632	0.067
632	0.066
633	0.066
633	0.066
634	0.065
634	0.064
634	0.064
635	0.063
635	0.062
636	0.061
636	0.06
637	0.059
637	0.058
638	0.057
638	0.056
638	0.055
639	0.054
639	0.053
640	0.052
640	0.051
641	0.049
641	0.048
642	0.048
642	0.047
642	0.046
643	0.044
643	0.043
644	0.042
644	0.041
645	0.039
645	0.038
646	0.036
646	0.034
646	0.031
647	0.029
647	0.026
648	0.023
648	0.021
649	0.018
649	0.015
650	0.013
650	0.01
650	0.008
651	0.004
651	-0.001
652	-0.006
652	-0.011
653	-0.016
653	-0.021
653	-0.018
654	-0.012
654	-0.013
655	-0.016
655	-0.018
656	-0.021
656	-0.025
657	-0.027
657	-0.029
657	-0.033
658	-0.036
658	-0.052
659	-0.093
659	-0.131
660	-0.15
660	-0.164
661	-0.179
661	-0.196
661	-0.214
662	-0.231
662	-0.245
663	-0.263
663	-0.283
664	-0.3
664	-0.321
665	-0.343
665	-0.366
665	-0.385
666	-0.41
666	-0.435
667	-0.462
667	-0.497
668	-0.53
668	-0.574
669	-0.616
669	-0.662
669	-0.718
670	-0.781
670	-0.897
671	-1.122
671	-1.491
672	-1.913
672	-2.236
672	-2.425
673	-2.535
673	-2.562
674	-2.58
674	-2.589
675	-2.604
675	-2.609
676	-2.61
676	-2.587
676	-2.517
677	-2.351
677	-2.075
678	-1.504
678	-1.076
679	-0.93
679	-0.856
680	-0.804
680	-0.768
680	-0.738
681	-0.724
681	-0.699
682	-0.685
682	-0.662
683	-0.642
683	-0.638
684	-0.63
684	-0.628
684	-0.621
685	-0.615
685	-0.618
686	-0.607
686	-0.606
687	-0.605
687	-0.604
687	-0.611
688	-0.603
688	-0.602
689	-0.61
689	-0.612
690	-0.604
690	-0.6
691	-0.604
691	-0.606
691	-0.609
692	-0.612
692	-0.61
693	-0.621
693	-0.633
694	-0.616
694	-0.618
695	-0.624
695	-0.618
695	-0.627
696	-0.638
696	-0.632
697	-0.628
697	-0.63
698	-0.627
698	-0.623
698	-0.64
699	-0.638
699	-0.639
700	-0.661
700	-0.657
701	-0.646
701	-0.641
702	-0.641
702	-0.64
702	-0.64
703	-0.631
703	-0.617
704	-0.628
704	-0.633
705	-0.623
705	-0.622
705	-0.618
706	-0.612
706	-0.61
707	-0.62
707	-0.624
708	-0.621
708	-0.622
709	-0.622
709	-0.621
709	-0.617
710	-0.627
710	-0.632
711	-0.632
711	-0.634
712	-0.626
712	-0.626
713	-0.633
713	-0.633
713	-0.614
714	-0.614
714	-0.616
715	-0.607
715	-0.611
716	-0.628
716	-0.638
716	-0.64
717	-0.647
717	-0.637
718	-0.631
718	-0.635
719	-0.629
719	-0.624
720	-0.62
720	-0.617
720	-0.61
721	-0.6
721	-0.603
722	-0.602
722	-0.599
723	-0.617
723	-0.629
723	-0.637
724	-0.635
724	-0.639
725	-0.634
725	-0.642
726	-0.646
726	-0.638
727	-0.639
727	-0.646
727	-0.638
728	-0.622
728	-0.621
729	-0.625
729	-0.63
730	-0.636
730	-0.625
730	-0.631
731	-0.633
731	-0.631
732	-0.633
732	-0.628
733	-0.643
733	-0.65
734	-0.657
734	-0.647
734	-0.631
735	-0.622
735	-0.616
736	-0.614
736	-0.609
737	-0.608
737	-0.596
737	-0.587
738	-0.573
738	-0.563
739	-0.565
739	-0.568
740	-0.582
740	-0.582
741	-0.592
741	-0.603
741	-0.611
742	-0.622
742	-0.641
743	-0.646
743	-0.65
744	-0.654
744	-0.66
744	-0.653
745	-0.662
745	-0.652
746	-0.649
746	-0.64
747	-0.64
747	-0.629
748	-0.631
748	-0.632
748	-0.635
749	-0.628
749	-0.636
750	-0.628
750	-0.63
751	-0.628
751	-0.627
751	-0.64
752	-0.643
752	-0.646
753	-0.649
753	-0.642
754	-0.661
754	-0.661
754	-0.668
755	-0.666
755	-0.659
756	-0.664
756	-0.651
757	-0.645
757	-0.634
758	-0.634
758	-0.631
758	-0.626
759	-0.629
759	-0.627
760	-0.628
760	-0.631
761	-0.624
761	-0.625
761	-0.622
762	-0.629
762	-0.63
763	-0.633
763	-0.637
764	-0.637
764	-0.633
764	-0.639
765	-0.635
765	-0.642
766	-0.647
766	-0.65
767	-0.663
767	-0.66
768	-0.657
768	-0.648
768	-0.644
769	-0.646
769	-0.653
770	-0.665
770	-0.668
771	-0.663
771	-0.66
771	-0.666
772	-0.669
772	-0.69
773	-0.693
773	-0.692
774	-0.691
774	-0.673
775	-0.659
775	-0.659
775	-0.663
776	-0.674
776	-0.67
777	-0.669
777	-0.654
778	-0.659
778	-0.664
778	-0.665
779	-0.676
779	-0.689
780	-0.684
780	-0.694
781	-0.685
781	-0.673
781	-0.688
782	-0.705
782	-0.709
783	-0.712
783	-0.719
784	-0.721
784	-0.716
784	-0.736
785	-0.73
785	-0.741
786	-0.749
786	-0.742
787	-0.733
787	-0.742
788	-0.734
788	-0.731
788	-0.734
789	-0.734
789	-0.723
790	-0.72
790	-0.704
791	-0.71
791	-0.706
791	-0.7
792	-0.694
792	-0.696
793	-0.698
793	-0.684
794	-0.677
794	-0.671
794	-0.678
795	-0.699
795	-0.685
796	-0.687
796	-0.683
797	-0.676
797	-0.669
797	-0.662
798	-0.682
798	-0.688
799	-0.689
799	-0.678
800	-0.672
800	-0.681
801	-0.681
801	-0.685
801	-0.683
802	-0.683
802	-0.683
803	-0.679
803	-0.672
804	-0.678
804	-0.685
804	-0.67
805	-0.652
805	-0.643
806	-0.644
806	-0.64
807	-0.642
807	-0.643
807	-0.626
808	-0.622
808	-0.613
809	-0.609
809	-0.61
810	-0.612
810	-0.609
810	-0.604
811	-0.607
811	-0.599
812	-0.589
812	-0.594
813	-0.596
813	-0.597
813	-0.592
814	-0.593
814	-0.599
815	-0.588
815	-0.583
816	-0.58
816	-0.594
817	-0.606
817	-0.609
817	-0.62
818	-0.614
818	-0.613
819	-0.624
819	-0.622
820	-0.637
820	-0.638
820	-0.638
821	-0.634
821	-0.631
822	-0.63
822	-0.616
823	-0.628
823	-0.626
823	-0.622
824	-0.622
824	-0.629
825	-0.628
825	-0.626
826	-0.622
826	-0.618
826	-0.619
827	-0.621
827	-0.61
828	-0.609
828	-0.601
829	-0.596
829	-0.583
829	-0.581
830	-0.578
830	-0.566
831	-0.561
831	-0.55
832	-0.544
832	-0.54
832	-0.536
833	-0.536
833	-0.542
834	-0.537
834	-0.533
835	-0.527
835	-0.527
835	-0.523
836	-0.52
836	-0.517
837	-0.508
837	-0.5
838	-0.49
838	-0.472
839	-0.467
839	-0.455
839	-0.449
840	-0.449
840	-0.439
841	-0.429
841	-0.423
842	-0.416
842	-0.405
842	-0.401
843	-0.4
843	-0.396
844	-0.394
844	-0.385
845	-0.37
845	-0.363
845	-0.355
846	-0.345
846	-0.335
847	-0.327
847	-0.319
848	-0.305
848	-0.294
848	-0.284
849	-0.273
849	-0.266
850	-0.258
850	-0.249
851	-0.237
851	-0.226
851	-0.218
852	-0.207
852	-0.2
853	-0.191
853	-0.183
854	-0.177
854	-0.167
854	-0.16
855	-0.152
855	-0.148
856	-0.143
856	-0.137
857	-0.131
857	-0.125
857	-0.117
858	-0.11
858	-0.106
859	-0.1
859	-0.092
860	-0.085
860	-0.075
860	-0.069
861	-0.062
861	-0.057
862	-0.053
862	-0.048
863	-0.043
863	-0.036
863	-0.032
864	-0.029
864	-0.025
865	-0.021
865	-0.018
866	-0.015
866	-0.011
866	-0.008
867	-0.005
867	-0.002
868	-0
868	0.003
869	0.006
869	0.008
869	0.01
870	0.012
870	0.014
871	0.015
871	0.016
872	0.016
872	0.017
872	0.017
873	0.017
873	0.017
874	0.016
874	0.016
875	0.015
875	0.014
875	0.014
876	0.013
876	0.013
877	0.012
877	0.011
878	0.01
878	0.01
878	0.009
879	0.008
879	0.008
880	0.007
880	0.007
881	0.006
881	0.006
881	0.006
882	0.006
882	0.006
883	0.006
883	0.005
884	0.005
884	0.005
884	0.005
885	0.004
885	0.004
886	0.003
886	0.002
887	0.001
887	-0
887	-0.001
888	-0.002
888	-0.003
889	-0.003
889	-0.004
890	-0.004
890	-0.004
890	-0.005
891	-0.004
891	-0.004
892	-0.003
892	-0.003
893	-0.002
893	-0.002
893	-0.002
894	-0.001
894	-0.001
895	-0.001
895	-0.001
895	-0
896	-0
896	-0
897	0
897	0.001
898	0.001
898	0.001
898	0.001
899	0.002
899	0.002
900	0.003
900	0.002
901	0.002
901	0.002
901	0.002
902	0.002
902	0.002
903	0.001
903	0
904	-0
904	-0.001
904	-0.001
905	-0.002
905	-0.002
906	-0.001
906	-0.001
907	-0
907	-0
907	0.001
908	0.001
908	0.002
909	0.003
909	0.004
910	0.004
910	0.005
910	0.005
911	0.006
911	0.007
912	0.009
912	0.01
913	0.011
913	0.012
913	0.013
914	0.014
914	0.015
915	0.015
915	0.015
916	0.014
916	0.013
916	0.012
917	0.011
917	0.01
918	0.01
918	0.009
918	0.009
919	0.008
919	0.008
920	0.008
920	0.008
921	0.008
921	0.008
921	0.008
922	0.009
922	0.009
923	0.009
923	0.008
924	0.008
924	0.008
924	0.008
925	0.007
925	0.007
926	0.007
926	0.006
927	0.006
927	0.006
927	0.006
928	0.006
928	0.007
929	0.007
929	0.008
930	0.009
930	0.01
930	0.011
931	0.012
931	0.013
932	0.014
932	0.015
933	0.016
933	0.016
933	0.017
934	0.017
934	0.017
935	0.017
935	0.016
935	0.015
936	0.014
936	0.012
937	0.011
937	0.01
938	0.009
938	0.007
938	0.006
939	0.005
939	0.004
940	0.004
940	0.004
941	0.003
941	0.003
941	0.003
942	0.003
942	0.003
943	0.004
943	0.004
944	0.004
944	0.004
944	0.004
945	0.004
945	0.004
946	0.003
946	0.002
946	0.002
947	0.001
947	0
948	-0
948	-0.001
949	-0.001
949	-0.002
949	-0.002
950	-0.002
950	-0.001
951	-0.001
951	-0
952	-0
952	0.001
952	0.001
953	0.002
953	0.002
954	0.003
954	0.003
955	0.003
955	0.003
955	0.003
956	0.003
956	0.002
957	0.002
957	0.001
957	0
958	0
958	-0
959	-0
959	-0.001
960	-0.001
960	-0.001
960	-0.001
961	-0.001
961	-0.001
962	-0.001
962	-0.001
963	-0.001
963	-0.001
963	-0.001
964	-0.001
964	-0.001
965	-0
965	0
966	0
966	0.001
966	0.002
967	0.003
967	0.003
968	0.003
968	0.003
968	0.003
969	0.003
969	0.002
970	0.001
970	0.001
971	-0
971	-0.001
971	-0.001
972	-0.002
972	-0.002
973	-0.002
973	-0.002
974	-0.002
974	-0.001
974	-0
975	0.001
975	0.002
976	0.003
976	0.004
976	0.005
977	0.005
977	0.005
978	0.005
978	0.005
979	0.005
979	0.005
979	0.004
980	0.004
980	0.003
981	0.002
981	0.002
982	0.002
982	0.002
982	0.002
983	0.002
983	0.002
984	0.002
984	0.002
984	0.002
985	0.002
985	0.002
986	0.002
986	0.001
987	0.001
987	0.001
987	0.001
988	0.001
988	0
989	0
989	-0
990	-0.001
990	-0.002
990	-0.002
991	-0.002
991	-0.002
992	-0.003
992	-0.003
992	-0.003
993	-0.003
993	-0.004
994	-0.004
994	-0.004
995	-0.004
995	-0.004
995	-0.005
996	-0.005
996	-0.006
997	-0.006
997	-0.006
997	-0.006
998	-0.006
998	-0.005
999	-0.005
999	-0.005
1000	-0.005
1000	-0.005
1000	-0.004
1001	-0.004
1001	-0.004
1002	-0.003
1002	-0.003
1003	-0.003
1003	-0.003
1003	-0.004
1004	-0.004
1004	-0.005
1005	-0.005
1005	-0.006
1005	-0.007
1006	-0.007
1006	-0.008
1007	-0.009
1007	-0.01
1008	-0.01
1008	-0.011
1008	-0.011
1009	-0.012
1009	-0.011
1010	-0.011
1010	-0.011
1010	-0.01
1011	-0.01
1011	-0.01
1012	-0.009
1012	-0.008
1013	-0.007
1013	-0.007
1013	-0.006
1014	-0.006
1014	-0.005
1015	-0.005
1015	-0.004
1016	-0.004
1016	-0.004
1016	-0.003
1017	-0.003
1017	-0.003
1018	-0.003
1018	-0.003
1018	-0.003
1019	-0.003
1019	-0.003
1020	-0.003
1020	-0.004
1021	-0.004
1021	-0.005
1021	-0.005
1022	-0.006
1022	-0.007
1023	-0.007
1023	-0.008
1023	-0.009
1024	-0.01
1024	-0.011
1025	-0.012
1025	-0.013
1026	-0.013
1026	-0.014
1026	-0.014
1027	-0.015
1027	-0.015
1028	-0.015
1028	-0.015
1028	-0.015
1029	-0.015
1029	-0.015
1030	-0.015
1030	-0.016
1031	-0.016
1031	-0.015
1031	-0.015
1032	-0.015
1032	-0.015
1033	-0.016
1033	-0.016
1033	-0.016
1034	-0.016
1034	-0.016
1035	-0.016
1035	-0.016
1036	-0.016
1036	-0.015
1036	-0.015
1037	-0.015
1037	-0.014
1038	-0.013
1038	-0.013
1039	-0.012
1039	-0.011
1039	-0.011
1040	-0.01
1040	-0.01
1041	-0.01
1041	-0.01
1041	-0.011
1042	-0.011
1042	-0.012
1043	-0.013
1043	-0.014
1044	-0.015
1044	-0.016
1044	-0.017
1045	-0.018
1045	-0.019
1046	-0.02
1046	-0.02
1046	-0.02
1047	-0.02
1047	-0.02
1048	-0.02
1048	-0.02
1049	-0.02
1049	-0.021
1049	-0.021
1050	-0.021
1050	-0.022
1051	-0.023
1051	-0.024
1051	-0.024
1052	-0.025
1052	-0.026
1053	-0.026
1053	-0.026
1053	-0.026
1054	-0.026
1054	-0.026
1055	-0.025
1055	-0.025
1056	-0.025
1056	-0.025
1056	-0.026
1057	-0.026
1057	-0.026
1058	-0.027
1058	-0.027
1058	-0.027
1059	-0.027
1059	-0.027
1060	-0.028
1060	-0.027
1061	-0.027
1061	-0.027
1061	-0.026
1062	-0.026
1062	-0.027
1063	-0.026
1063	-0.027
1063	-0.027
1064	-0.027
1064	-0.027
1065	-0.027
1065	-0.027
1066	-0.027
1066	-0.027
1066	-0.027
1067	-0.027
1067	-0.028
1068	-0.028
1068	-0.028
1068	-0.029
1069	-0.029
1069	-0.03
1070	-0.031
1070	-0.032
1071	-0.032
1071	-0.032
1071	-0.033
1072	-0.032
1072	-0.032
1073	-0.031
1073	-0.031
1073	-0.031
1074	-0.03
1074	-0.029
1075	-0.029
1075	-0.029
1076	-0.03
1076	-0.029
1076	-0.03
1077	-0.031
1077	-0.032
1078	-0.032
1078	-0.033
1078	-0.034
1079	-0.034
1079	-0.034
1080	-0.035
1080	-0.035
1080	-0.036
1081	-0.036
1081	-0.036
1082	-0.037
1082	-0.038
1083	-0.038
1083	-0.038
1083	-0.039
1084	-0.04
1084	-0.04
1085	-0.041
1085	-0.041
1085	-0.041
1086	-0.041
1086	-0.041
1087	-0.042
1087	-0.042
1088	-0.043
1088	-0.043
1088	-0.044
1089	-0.044
1089	-0.045
1090	-0.046
1090	-0.047
1090	-0.049
1091	-0.05
1091	-0.05
1092	-0.05
1092	-0.05
1092	-0.051
1093	-0.052
1093	-0.052
1094	-0.052
1094	-0.053
1095	-0.054
1095	-0.054
1095	-0.054
1096	-0.056
1096	-0.057
1097	-0.058
1097	-0.059
1097	-0.06
1098	-0.062
1098	-0.063
1099	-0.064
1099	-0.064
1100	-0.066
1100	-0.068
1100	-0.07
1101	-0.072
1101	-0.073
1102	-0.075
1102	-0.077
1102	-0.078
1103	-0.079
1103	-0.081
1104	-0.083
1104	-0.086
1104	-0.087
1105	-0.088
1105	-0.089
1106	-0.093
1106	-0.093
1107	-0.097
1107	-0.1
1107	-0.104
1108	-0.105
1108	-0.106
1109	-0.108
1109	-0.111
1109	-0.113
1110	-0.115
1110	-0.117
1111	-0.125
1111	-0.123
