Data from 3.5A_17C_Absorbance__575__00577.txt Node

Date: Tue Jun 20 15:17:14 CEST 2023
User: Marek
Spectrometer: MAYP115816
Trigger mode: 0
Integration Time (sec): 2.200000E-1
Scans to average: 10
Electric dark correction enabled: true
Nonlinearity correction enabled: true
Boxcar width: 5
XAxis mode: Wavelengths
Number of Pixels in Spectrum: 2068
>>>>>Begin Spectral Data<<<<<
199	-0.689
199	-0.671
200	-0.632
200	-0.576
201	-0.55
201	-0.542
202	-0.52
202	-0.513
203	-0.512
203	-0.505
204	-0.485
204	-0.469
205	-0.447
205	-0.439
205	-0.449
206	-0.449
206	-0.445
207	-0.439
207	-0.445
208	-0.446
208	-0.449
209	-0.451
209	-0.458
210	-0.471
210	-0.478
211	-0.47
211	-0.474
212	-0.48
212	-0.487
213	-0.484
213	-0.48
213	-0.478
214	-0.485
214	-0.487
215	-0.482
215	-0.487
216	-0.496
216	-0.501
217	-0.5
217	-0.501
218	-0.508
218	-0.509
219	-0.515
219	-0.516
220	-0.518
220	-0.523
221	-0.521
221	-0.523
221	-0.515
222	-0.514
222	-0.513
223	-0.509
223	-0.512
224	-0.514
224	-0.513
225	-0.511
225	-0.513
226	-0.516
226	-0.516
227	-0.524
227	-0.535
228	-0.539
228	-0.548
229	-0.554
229	-0.551
229	-0.551
230	-0.546
230	-0.545
231	-0.54
231	-0.533
232	-0.534
232	-0.527
233	-0.525
233	-0.513
234	-0.509
234	-0.505
235	-0.508
235	-0.518
236	-0.526
236	-0.529
236	-0.532
237	-0.53
237	-0.532
238	-0.534
238	-0.537
239	-0.542
239	-0.55
240	-0.544
240	-0.544
241	-0.538
241	-0.539
242	-0.54
242	-0.55
243	-0.55
243	-0.551
243	-0.558
244	-0.555
244	-0.557
245	-0.558
245	-0.56
246	-0.569
246	-0.574
247	-0.582
247	-0.567
248	-0.567
248	-0.568
249	-0.571
249	-0.571
250	-0.571
250	-0.58
250	-0.577
251	-0.577
251	-0.573
252	-0.575
252	-0.588
253	-0.581
253	-0.595
254	-0.599
254	-0.597
255	-0.608
255	-0.609
256	-0.613
256	-0.626
257	-0.636
257	-0.632
258	-0.633
258	-0.642
258	-0.639
259	-0.632
259	-0.65
260	-0.648
260	-0.635
261	-0.645
261	-0.63
262	-0.633
262	-0.632
263	-0.622
263	-0.628
264	-0.636
264	-0.638
265	-0.63
265	-0.632
265	-0.644
266	-0.633
266	-0.635
267	-0.637
267	-0.65
268	-0.657
268	-0.649
269	-0.643
269	-0.655
270	-0.659
270	-0.657
271	-0.668
271	-0.678
272	-0.679
272	-0.68
272	-0.676
273	-0.686
273	-0.702
274	-0.692
274	-0.688
275	-0.685
275	-0.674
276	-0.678
276	-0.683
277	-0.683
277	-0.68
278	-0.685
278	-0.684
278	-0.673
279	-0.683
279	-0.697
280	-0.699
280	-0.708
281	-0.701
281	-0.696
282	-0.703
282	-0.698
283	-0.69
283	-0.706
284	-0.717
284	-0.726
285	-0.704
285	-0.711
285	-0.703
286	-0.708
286	-0.724
287	-0.721
287	-0.72
288	-0.718
288	-0.699
289	-0.698
289	-0.706
290	-0.716
290	-0.703
291	-0.706
291	-0.704
292	-0.683
292	-0.68
292	-0.683
293	-0.67
293	-0.667
294	-0.668
294	-0.653
295	-0.636
295	-0.649
296	-0.662
296	-0.658
297	-0.647
297	-0.651
298	-0.647
298	-0.666
298	-0.669
299	-0.648
299	-0.642
300	-0.637
300	-0.618
301	-0.599
301	-0.599
302	-0.608
302	-0.594
303	-0.589
303	-0.576
304	-0.561
304	-0.564
305	-0.557
305	-0.566
305	-0.58
306	-0.565
306	-0.565
307	-0.558
307	-0.569
308	-0.572
308	-0.568
309	-0.569
309	-0.566
310	-0.563
310	-0.561
311	-0.547
311	-0.566
311	-0.555
312	-0.554
312	-0.54
313	-0.527
313	-0.527
314	-0.532
314	-0.531
315	-0.53
315	-0.522
316	-0.519
316	-0.51
317	-0.5
317	-0.498
318	-0.492
318	-0.494
318	-0.486
319	-0.475
319	-0.466
320	-0.464
320	-0.462
321	-0.458
321	-0.454
322	-0.45
322	-0.442
323	-0.443
323	-0.433
324	-0.431
324	-0.419
324	-0.41
325	-0.394
325	-0.377
326	-0.368
326	-0.346
327	-0.331
327	-0.309
328	-0.278
328	-0.255
329	-0.226
329	-0.198
330	-0.172
330	-0.138
330	-0.105
331	-0.069
331	-0.037
332	-0.005
332	0.026
333	0.056
333	0.085
334	0.112
334	0.136
335	0.16
335	0.181
336	0.203
336	0.222
336	0.237
337	0.253
337	0.268
338	0.28
338	0.289
339	0.301
339	0.311
340	0.318
340	0.326
341	0.332
341	0.337
342	0.343
342	0.348
342	0.353
343	0.356
343	0.361
344	0.363
344	0.366
345	0.369
345	0.371
346	0.372
346	0.374
347	0.375
347	0.376
348	0.377
348	0.379
348	0.379
349	0.38
349	0.38
350	0.381
350	0.381
351	0.382
351	0.382
352	0.382
352	0.382
353	0.383
353	0.383
354	0.383
354	0.383
354	0.383
355	0.383
355	0.383
356	0.383
356	0.383
357	0.384
357	0.384
358	0.383
358	0.383
359	0.383
359	0.382
360	0.382
360	0.382
360	0.382
361	0.382
361	0.382
362	0.381
362	0.381
363	0.381
363	0.381
364	0.38
364	0.38
365	0.38
365	0.38
366	0.379
366	0.379
366	0.379
367	0.379
367	0.378
368	0.378
368	0.378
369	0.378
369	0.377
370	0.377
370	0.377
371	0.376
371	0.376
372	0.375
372	0.375
372	0.375
373	0.375
373	0.374
374	0.374
374	0.374
375	0.373
375	0.373
376	0.373
376	0.373
377	0.372
377	0.372
378	0.371
378	0.371
378	0.371
379	0.37
379	0.37
380	0.37
380	0.37
381	0.369
381	0.369
382	0.368
382	0.368
383	0.368
383	0.367
383	0.367
384	0.366
384	0.366
385	0.365
385	0.365
386	0.364
386	0.364
387	0.363
387	0.363
388	0.363
388	0.362
389	0.362
389	0.362
389	0.362
390	0.361
390	0.361
391	0.361
391	0.361
392	0.36
392	0.36
393	0.36
393	0.359
394	0.359
394	0.358
394	0.358
395	0.357
395	0.357
396	0.357
396	0.356
397	0.356
397	0.355
398	0.355
398	0.354
399	0.354
399	0.354
400	0.353
400	0.353
400	0.352
401	0.352
401	0.351
402	0.351
402	0.351
403	0.35
403	0.35
404	0.349
404	0.349
405	0.349
405	0.348
405	0.348
406	0.347
406	0.347
407	0.347
407	0.346
408	0.346
408	0.346
409	0.346
409	0.345
410	0.345
410	0.345
411	0.345
411	0.345
411	0.345
412	0.344
412	0.344
413	0.344
413	0.343
414	0.343
414	0.343
415	0.342
415	0.342
416	0.341
416	0.341
416	0.341
417	0.341
417	0.341
418	0.341
418	0.341
419	0.341
419	0.34
420	0.34
420	0.34
421	0.34
421	0.34
421	0.339
422	0.339
422	0.339
423	0.338
423	0.338
424	0.338
424	0.338
425	0.337
425	0.337
426	0.337
426	0.337
427	0.337
427	0.337
427	0.337
428	0.337
428	0.337
429	0.337
429	0.336
430	0.336
430	0.336
431	0.336
431	0.335
432	0.335
432	0.335
432	0.335
433	0.335
433	0.335
434	0.335
434	0.335
435	0.336
435	0.336
436	0.335
436	0.335
437	0.335
437	0.335
437	0.335
438	0.335
438	0.335
439	0.335
439	0.335
440	0.335
440	0.334
441	0.334
441	0.334
442	0.334
442	0.334
442	0.334
443	0.334
443	0.334
444	0.334
444	0.334
445	0.334
445	0.334
446	0.334
446	0.335
447	0.335
447	0.335
447	0.335
448	0.335
448	0.335
449	0.335
449	0.335
450	0.335
450	0.335
451	0.335
451	0.335
452	0.335
452	0.335
452	0.335
453	0.336
453	0.336
454	0.336
454	0.336
455	0.336
455	0.336
456	0.337
456	0.337
457	0.337
457	0.337
458	0.337
458	0.337
458	0.338
459	0.338
459	0.338
460	0.337
460	0.338
461	0.338
461	0.338
462	0.339
462	0.34
463	0.34
463	0.341
463	0.342
464	0.342
464	0.342
465	0.343
465	0.343
466	0.344
466	0.344
467	0.345
467	0.345
467	0.345
468	0.345
468	0.346
469	0.347
469	0.348
470	0.348
470	0.349
471	0.35
471	0.351
472	0.351
472	0.352
472	0.353
473	0.354
473	0.355
474	0.356
474	0.357
475	0.358
475	0.359
476	0.36
476	0.361
477	0.362
477	0.363
477	0.363
478	0.364
478	0.365
479	0.367
479	0.368
480	0.369
480	0.371
481	0.372
481	0.373
482	0.375
482	0.376
482	0.378
483	0.38
483	0.382
484	0.384
484	0.385
485	0.387
485	0.388
486	0.389
486	0.391
487	0.392
487	0.394
487	0.396
488	0.397
488	0.399
489	0.401
489	0.403
490	0.406
490	0.408
491	0.41
491	0.413
492	0.415
492	0.417
492	0.42
493	0.422
493	0.424
494	0.427
494	0.43
495	0.432
495	0.435
496	0.437
496	0.44
496	0.443
497	0.446
497	0.449
498	0.452
498	0.454
499	0.457
499	0.461
500	0.465
500	0.468
501	0.471
501	0.475
501	0.477
502	0.48
502	0.484
503	0.487
503	0.49
504	0.493
504	0.496
505	0.499
505	0.503
506	0.506
506	0.51
506	0.513
507	0.517
507	0.52
508	0.524
508	0.528
509	0.531
509	0.535
510	0.538
510	0.541
511	0.544
511	0.548
511	0.55
512	0.554
512	0.557
513	0.56
513	0.563
514	0.566
514	0.569
515	0.572
515	0.575
515	0.578
516	0.581
516	0.583
517	0.586
517	0.588
518	0.59
518	0.592
519	0.594
519	0.595
520	0.597
520	0.599
520	0.601
521	0.603
521	0.605
522	0.606
522	0.608
523	0.609
523	0.61
524	0.611
524	0.612
524	0.613
525	0.614
525	0.615
526	0.615
526	0.616
527	0.616
527	0.617
528	0.617
528	0.616
529	0.616
529	0.615
529	0.615
530	0.614
530	0.614
531	0.613
531	0.612
532	0.611
532	0.61
533	0.609
533	0.607
533	0.606
534	0.603
534	0.602
535	0.6
535	0.598
536	0.596
536	0.593
537	0.591
537	0.588
538	0.586
538	0.583
538	0.581
539	0.578
539	0.575
540	0.572
540	0.569
541	0.565
541	0.562
542	0.559
542	0.556
542	0.552
543	0.548
543	0.544
544	0.541
544	0.537
545	0.534
545	0.53
546	0.527
546	0.523
547	0.518
547	0.514
547	0.51
548	0.506
548	0.502
549	0.498
549	0.494
550	0.49
550	0.485
551	0.48
551	0.476
551	0.471
552	0.466
552	0.462
553	0.458
553	0.454
554	0.449
554	0.444
555	0.44
555	0.435
556	0.43
556	0.426
556	0.421
557	0.417
557	0.413
558	0.409
558	0.405
559	0.4
559	0.396
560	0.392
560	0.388
560	0.385
561	0.381
561	0.378
562	0.374
562	0.371
563	0.367
563	0.363
564	0.36
564	0.356
564	0.353
565	0.35
565	0.347
566	0.343
566	0.339
567	0.336
567	0.333
568	0.329
568	0.325
568	0.321
569	0.318
569	0.314
570	0.309
570	0.305
571	0.302
571	0.299
572	0.295
572	0.292
573	0.289
573	0.285
573	0.282
574	0.279
574	0.277
575	0.274
575	0.273
576	0.27
576	0.267
577	0.263
577	0.261
577	0.259
578	0.257
578	0.256
579	0.255
579	0.253
580	0.249
580	0.246
581	0.243
581	0.24
581	0.239
582	0.237
582	0.235
583	0.233
583	0.23
584	0.226
584	0.222
585	0.22
585	0.218
585	0.216
586	0.213
586	0.211
587	0.208
587	0.205
588	0.203
588	0.201
589	0.199
589	0.197
590	0.196
590	0.194
590	0.194
591	0.192
591	0.19
592	0.188
592	0.187
593	0.185
593	0.184
594	0.182
594	0.181
594	0.18
595	0.179
595	0.177
596	0.175
596	0.174
597	0.174
597	0.173
598	0.171
598	0.17
598	0.169
599	0.168
599	0.166
600	0.165
600	0.163
601	0.162
601	0.161
602	0.159
602	0.158
602	0.156
603	0.155
603	0.155
604	0.153
604	0.152
605	0.152
605	0.151
606	0.149
606	0.147
606	0.146
607	0.145
607	0.145
608	0.143
608	0.142
609	0.141
609	0.14
610	0.139
610	0.137
610	0.136
611	0.136
611	0.135
612	0.134
612	0.134
613	0.133
613	0.133
614	0.131
614	0.13
614	0.129
615	0.128
615	0.127
616	0.126
616	0.125
617	0.124
617	0.123
618	0.122
618	0.121
618	0.12
619	0.119
619	0.119
620	0.119
620	0.118
621	0.117
621	0.116
622	0.115
622	0.114
622	0.113
623	0.112
623	0.112
624	0.111
624	0.11
625	0.109
625	0.109
626	0.108
626	0.107
626	0.106
627	0.106
627	0.104
628	0.103
628	0.102
629	0.101
629	0.099
630	0.098
630	0.096
630	0.095
631	0.094
631	0.092
632	0.091
632	0.089
633	0.088
633	0.087
634	0.086
634	0.085
634	0.084
635	0.083
635	0.081
636	0.08
636	0.079
637	0.078
637	0.076
638	0.074
638	0.073
638	0.071
639	0.069
639	0.067
640	0.065
640	0.063
641	0.06
641	0.058
642	0.057
642	0.055
642	0.053
643	0.05
643	0.047
644	0.044
644	0.042
645	0.039
645	0.036
646	0.033
646	0.028
646	0.024
647	0.02
647	0.016
648	0.012
648	0.008
649	0.004
649	-0.001
650	-0.005
650	-0.009
650	-0.013
651	-0.019
651	-0.025
652	-0.033
652	-0.042
653	-0.05
653	-0.056
653	-0.052
654	-0.041
654	-0.039
655	-0.043
655	-0.046
656	-0.05
656	-0.054
657	-0.057
657	-0.06
657	-0.064
658	-0.068
658	-0.089
659	-0.146
659	-0.205
660	-0.232
660	-0.249
661	-0.269
661	-0.29
661	-0.312
662	-0.331
662	-0.353
663	-0.377
663	-0.405
664	-0.431
664	-0.459
665	-0.493
665	-0.527
665	-0.56
666	-0.598
666	-0.64
667	-0.683
667	-0.732
668	-0.78
668	-0.837
669	-0.895
669	-0.958
669	-1.028
670	-1.101
670	-1.211
671	-1.387
671	-1.731
672	-2.147
672	-2.366
672	-2.515
673	-2.628
673	-2.72
674	-2.751
674	-2.762
675	-2.777
675	-2.782
676	-2.783
676	-2.758
676	-2.675
677	-2.571
677	-2.435
678	-2.21
678	-1.68
679	-1.359
679	-1.23
680	-1.144
680	-1.082
680	-1.028
681	-0.994
681	-0.954
682	-0.923
682	-0.888
683	-0.855
683	-0.842
684	-0.822
684	-0.81
684	-0.794
685	-0.782
685	-0.778
686	-0.76
686	-0.753
687	-0.747
687	-0.741
687	-0.746
688	-0.733
688	-0.73
689	-0.736
689	-0.736
690	-0.725
690	-0.718
691	-0.718
691	-0.722
691	-0.727
692	-0.728
692	-0.727
693	-0.735
693	-0.746
694	-0.727
694	-0.729
695	-0.733
695	-0.728
695	-0.736
696	-0.745
696	-0.737
697	-0.733
697	-0.73
698	-0.727
698	-0.72
698	-0.735
699	-0.734
699	-0.737
700	-0.758
700	-0.751
701	-0.738
701	-0.733
702	-0.732
702	-0.732
702	-0.73
703	-0.722
703	-0.711
704	-0.718
704	-0.719
705	-0.706
705	-0.707
705	-0.703
706	-0.698
706	-0.696
707	-0.707
707	-0.71
708	-0.71
708	-0.708
709	-0.712
709	-0.712
709	-0.708
710	-0.716
710	-0.719
711	-0.72
711	-0.722
712	-0.712
712	-0.711
713	-0.715
713	-0.717
713	-0.694
714	-0.693
714	-0.698
715	-0.687
715	-0.693
716	-0.707
716	-0.714
716	-0.717
717	-0.722
717	-0.714
718	-0.707
718	-0.708
719	-0.705
719	-0.698
720	-0.696
720	-0.692
720	-0.688
721	-0.68
721	-0.683
722	-0.681
722	-0.679
723	-0.695
723	-0.71
723	-0.717
724	-0.714
724	-0.718
725	-0.712
725	-0.715
726	-0.719
726	-0.709
727	-0.712
727	-0.717
727	-0.709
728	-0.695
728	-0.692
729	-0.695
729	-0.698
730	-0.705
730	-0.695
730	-0.7
731	-0.706
731	-0.705
732	-0.706
732	-0.703
733	-0.718
733	-0.725
734	-0.734
734	-0.726
734	-0.709
735	-0.702
735	-0.697
736	-0.692
736	-0.689
737	-0.691
737	-0.678
737	-0.67
738	-0.657
738	-0.646
739	-0.649
739	-0.649
740	-0.662
740	-0.662
741	-0.674
741	-0.684
741	-0.691
742	-0.697
742	-0.713
743	-0.719
743	-0.721
744	-0.725
744	-0.736
744	-0.729
745	-0.738
745	-0.727
746	-0.723
746	-0.717
747	-0.721
747	-0.711
748	-0.712
748	-0.715
748	-0.717
749	-0.707
749	-0.713
750	-0.702
750	-0.701
751	-0.699
751	-0.696
751	-0.706
752	-0.71
752	-0.712
753	-0.714
753	-0.705
754	-0.725
754	-0.726
754	-0.736
755	-0.739
755	-0.732
756	-0.734
756	-0.721
757	-0.714
757	-0.704
758	-0.706
758	-0.705
758	-0.7
759	-0.705
759	-0.705
760	-0.703
760	-0.704
761	-0.699
761	-0.703
761	-0.702
762	-0.707
762	-0.707
763	-0.707
763	-0.71
764	-0.708
764	-0.702
764	-0.707
765	-0.707
765	-0.713
766	-0.715
766	-0.716
767	-0.731
767	-0.727
768	-0.726
768	-0.719
768	-0.716
769	-0.72
769	-0.729
770	-0.739
770	-0.743
771	-0.741
771	-0.741
771	-0.746
772	-0.748
772	-0.77
773	-0.771
773	-0.769
774	-0.767
774	-0.749
775	-0.739
775	-0.738
775	-0.741
776	-0.752
776	-0.747
777	-0.748
777	-0.731
778	-0.739
778	-0.748
778	-0.748
779	-0.755
779	-0.77
780	-0.764
780	-0.774
781	-0.764
781	-0.756
781	-0.768
782	-0.787
782	-0.79
783	-0.792
783	-0.799
784	-0.803
784	-0.795
784	-0.815
785	-0.807
785	-0.817
786	-0.819
786	-0.814
787	-0.806
787	-0.814
788	-0.804
788	-0.798
788	-0.799
789	-0.799
789	-0.789
790	-0.788
790	-0.773
791	-0.78
791	-0.773
791	-0.766
792	-0.76
792	-0.766
793	-0.771
793	-0.761
794	-0.754
794	-0.745
794	-0.754
795	-0.773
795	-0.761
796	-0.768
796	-0.764
797	-0.756
797	-0.747
797	-0.738
798	-0.757
798	-0.763
799	-0.763
799	-0.749
800	-0.745
800	-0.754
801	-0.751
801	-0.755
801	-0.753
802	-0.753
802	-0.753
803	-0.748
803	-0.742
804	-0.75
804	-0.756
804	-0.741
805	-0.723
805	-0.714
806	-0.715
806	-0.713
807	-0.713
807	-0.713
807	-0.696
808	-0.689
808	-0.682
809	-0.678
809	-0.68
810	-0.683
810	-0.679
810	-0.673
811	-0.677
811	-0.668
812	-0.664
812	-0.663
813	-0.669
813	-0.67
813	-0.665
814	-0.664
814	-0.668
815	-0.661
815	-0.658
816	-0.653
816	-0.669
817	-0.679
817	-0.685
817	-0.694
818	-0.688
818	-0.684
819	-0.695
819	-0.696
820	-0.706
820	-0.705
820	-0.705
821	-0.701
821	-0.696
822	-0.696
822	-0.683
823	-0.693
823	-0.693
823	-0.687
824	-0.684
824	-0.695
825	-0.695
825	-0.691
826	-0.688
826	-0.684
826	-0.683
827	-0.685
827	-0.676
828	-0.676
828	-0.672
829	-0.665
829	-0.652
829	-0.649
830	-0.646
830	-0.632
831	-0.626
831	-0.616
832	-0.606
832	-0.602
832	-0.595
833	-0.593
833	-0.599
834	-0.594
834	-0.59
835	-0.585
835	-0.586
835	-0.581
836	-0.575
836	-0.574
837	-0.566
837	-0.558
838	-0.544
838	-0.528
839	-0.524
839	-0.51
839	-0.5
840	-0.499
840	-0.488
841	-0.481
841	-0.473
842	-0.464
842	-0.453
842	-0.452
843	-0.451
843	-0.446
844	-0.444
844	-0.435
845	-0.422
845	-0.414
845	-0.406
846	-0.396
846	-0.387
847	-0.378
847	-0.367
848	-0.353
848	-0.338
848	-0.328
849	-0.317
849	-0.309
850	-0.3
850	-0.29
851	-0.279
851	-0.265
851	-0.257
852	-0.245
852	-0.234
853	-0.228
853	-0.218
854	-0.209
854	-0.198
854	-0.188
855	-0.179
855	-0.173
856	-0.167
856	-0.161
857	-0.154
857	-0.148
857	-0.137
858	-0.128
858	-0.121
859	-0.113
859	-0.105
860	-0.097
860	-0.085
860	-0.077
861	-0.07
861	-0.063
862	-0.056
862	-0.051
863	-0.045
863	-0.039
863	-0.035
864	-0.031
864	-0.026
865	-0.022
865	-0.018
866	-0.014
866	-0.01
866	-0.007
867	-0.003
867	0.001
868	0.003
868	0.007
869	0.01
869	0.013
869	0.015
870	0.017
870	0.019
871	0.02
871	0.022
872	0.022
872	0.023
872	0.023
873	0.023
873	0.023
874	0.023
874	0.022
875	0.022
875	0.021
875	0.021
876	0.02
876	0.02
877	0.019
877	0.018
878	0.017
878	0.017
878	0.016
879	0.015
879	0.015
880	0.014
880	0.013
881	0.013
881	0.013
881	0.013
882	0.012
882	0.012
883	0.011
883	0.011
884	0.011
884	0.012
884	0.011
885	0.011
885	0.011
886	0.01
886	0.009
887	0.008
887	0.008
887	0.007
888	0.006
888	0.005
889	0.005
889	0.004
890	0.003
890	0.003
890	0.003
891	0.003
891	0.003
892	0.003
892	0.003
893	0.004
893	0.004
893	0.003
894	0.004
894	0.003
895	0.003
895	0.003
895	0.003
896	0.003
896	0.003
897	0.004
897	0.004
898	0.004
898	0.005
898	0.005
899	0.006
899	0.006
900	0.007
900	0.007
901	0.007
901	0.007
901	0.007
902	0.007
902	0.008
903	0.007
903	0.007
904	0.006
904	0.006
904	0.006
905	0.005
905	0.006
906	0.006
906	0.006
907	0.007
907	0.007
907	0.007
908	0.008
908	0.009
909	0.01
909	0.01
910	0.011
910	0.012
910	0.012
911	0.013
911	0.015
912	0.016
912	0.018
913	0.019
913	0.02
913	0.021
914	0.022
914	0.022
915	0.022
915	0.022
916	0.022
916	0.021
916	0.02
917	0.019
917	0.019
918	0.018
918	0.017
918	0.017
919	0.017
919	0.016
920	0.016
920	0.016
921	0.016
921	0.016
921	0.016
922	0.016
922	0.015
923	0.015
923	0.015
924	0.015
924	0.014
924	0.014
925	0.014
925	0.013
926	0.013
926	0.013
927	0.013
927	0.013
927	0.014
928	0.014
928	0.014
929	0.015
929	0.015
930	0.016
930	0.017
930	0.017
931	0.018
931	0.019
932	0.019
932	0.02
933	0.02
933	0.02
933	0.021
934	0.02
934	0.02
935	0.019
935	0.018
935	0.017
936	0.016
936	0.014
937	0.013
937	0.012
938	0.011
938	0.009
938	0.008
939	0.008
939	0.007
940	0.007
940	0.007
941	0.006
941	0.006
941	0.006
942	0.006
942	0.006
943	0.006
943	0.006
944	0.006
944	0.005
944	0.005
945	0.005
945	0.006
946	0.005
946	0.005
946	0.004
947	0.004
947	0.003
948	0.003
948	0.003
949	0.003
949	0.003
949	0.004
950	0.003
950	0.004
951	0.004
951	0.005
952	0.005
952	0.006
952	0.006
953	0.006
953	0.007
954	0.007
954	0.007
955	0.007
955	0.007
955	0.008
956	0.007
956	0.007
957	0.006
957	0.006
957	0.005
958	0.004
958	0.004
959	0.003
959	0.003
960	0.003
960	0.002
960	0.002
961	0.002
961	0.002
962	0.002
962	0.003
963	0.002
963	0.003
963	0.003
964	0.003
964	0.003
965	0.003
965	0.003
966	0.003
966	0.004
966	0.004
967	0.004
967	0.004
968	0.004
968	0.004
968	0.004
969	0.004
969	0.003
970	0.002
970	0.001
971	0.001
971	-0
971	-0.001
972	-0.001
972	-0.001
973	-0.001
973	-0.001
974	-0
974	0
974	0.002
975	0.003
975	0.004
976	0.005
976	0.006
976	0.007
977	0.008
977	0.008
978	0.009
978	0.009
979	0.008
979	0.008
979	0.008
980	0.008
980	0.007
981	0.006
981	0.006
982	0.006
982	0.006
982	0.006
983	0.006
983	0.006
984	0.006
984	0.006
984	0.006
985	0.006
985	0.006
986	0.005
986	0.005
987	0.004
987	0.003
987	0.003
988	0.003
988	0.002
989	0.001
989	0.001
990	-0
990	-0.001
990	-0.001
991	-0.001
991	-0.001
992	-0.001
992	-0.002
992	-0.002
993	-0.002
993	-0.002
994	-0.002
994	-0.002
995	-0.003
995	-0.003
995	-0.003
996	-0.004
996	-0.004
997	-0.005
997	-0.005
997	-0.005
998	-0.005
998	-0.004
999	-0.004
999	-0.004
1000	-0.004
1000	-0.004
1000	-0.003
1001	-0.003
1001	-0.003
1002	-0.002
1002	-0.002
1003	-0.002
1003	-0.002
1003	-0.003
1004	-0.003
1004	-0.003
1005	-0.004
1005	-0.005
1005	-0.005
1006	-0.006
1006	-0.007
1007	-0.007
1007	-0.008
1008	-0.008
1008	-0.009
1008	-0.009
1009	-0.008
1009	-0.008
1010	-0.007
1010	-0.007
1010	-0.007
1011	-0.006
1011	-0.006
1012	-0.006
1012	-0.005
1013	-0.004
1013	-0.004
1013	-0.004
1014	-0.004
1014	-0.004
1015	-0.003
1015	-0.003
1016	-0.003
1016	-0.003
1016	-0.002
1017	-0.002
1017	-0.002
1018	-0.002
1018	-0.002
1018	-0.002
1019	-0.002
1019	-0.003
1020	-0.003
1020	-0.004
1021	-0.004
1021	-0.005
1021	-0.006
1022	-0.006
1022	-0.007
1023	-0.007
1023	-0.008
1023	-0.009
1024	-0.01
1024	-0.01
1025	-0.011
1025	-0.011
1026	-0.012
1026	-0.012
1026	-0.012
1027	-0.012
1027	-0.012
1028	-0.012
1028	-0.012
1028	-0.012
1029	-0.012
1029	-0.012
1030	-0.012
1030	-0.012
1031	-0.012
1031	-0.012
1031	-0.012
1032	-0.012
1032	-0.012
1033	-0.013
1033	-0.013
1033	-0.013
1034	-0.013
1034	-0.013
1035	-0.013
1035	-0.013
1036	-0.013
1036	-0.013
1036	-0.013
1037	-0.012
1037	-0.012
1038	-0.011
1038	-0.011
1039	-0.01
1039	-0.009
1039	-0.009
1040	-0.009
1040	-0.008
1041	-0.008
1041	-0.008
1041	-0.009
1042	-0.01
1042	-0.01
1043	-0.011
1043	-0.012
1044	-0.012
1044	-0.014
1044	-0.014
1045	-0.016
1045	-0.016
1046	-0.017
1046	-0.018
1046	-0.018
1047	-0.018
1047	-0.018
1048	-0.018
1048	-0.018
1049	-0.018
1049	-0.019
1049	-0.019
1050	-0.02
1050	-0.02
1051	-0.021
1051	-0.022
1051	-0.022
1052	-0.023
1052	-0.024
1053	-0.024
1053	-0.024
1053	-0.024
1054	-0.024
1054	-0.024
1055	-0.024
1055	-0.024
1056	-0.024
1056	-0.024
1056	-0.024
1057	-0.024
1057	-0.025
1058	-0.025
1058	-0.026
1058	-0.026
1059	-0.026
1059	-0.026
1060	-0.027
1060	-0.027
1061	-0.027
1061	-0.026
1061	-0.026
1062	-0.026
1062	-0.026
1063	-0.026
1063	-0.026
1063	-0.026
1064	-0.026
1064	-0.026
1065	-0.026
1065	-0.026
1066	-0.026
1066	-0.026
1066	-0.027
1067	-0.027
1067	-0.027
1068	-0.027
1068	-0.027
1068	-0.028
1069	-0.028
1069	-0.029
1070	-0.029
1070	-0.03
1071	-0.03
1071	-0.03
1071	-0.031
1072	-0.031
1072	-0.03
1073	-0.03
1073	-0.03
1073	-0.03
1074	-0.03
1074	-0.03
1075	-0.03
1075	-0.03
1076	-0.03
1076	-0.03
1076	-0.031
1077	-0.032
1077	-0.033
1078	-0.034
1078	-0.034
1078	-0.035
1079	-0.035
1079	-0.035
1080	-0.037
1080	-0.037
1080	-0.038
1081	-0.038
1081	-0.039
1082	-0.039
1082	-0.04
1083	-0.041
1083	-0.041
1083	-0.042
1084	-0.043
1084	-0.043
1085	-0.043
1085	-0.043
1085	-0.043
1086	-0.044
1086	-0.044
1087	-0.044
1087	-0.045
1088	-0.046
1088	-0.046
1088	-0.046
1089	-0.048
1089	-0.048
1090	-0.05
1090	-0.051
1090	-0.052
1091	-0.054
1091	-0.054
1092	-0.055
1092	-0.055
1092	-0.056
1093	-0.057
1093	-0.057
1094	-0.057
1094	-0.058
1095	-0.059
1095	-0.06
1095	-0.06
1096	-0.061
1096	-0.062
1097	-0.063
1097	-0.064
1097	-0.065
1098	-0.067
1098	-0.069
1099	-0.069
1099	-0.07
1100	-0.071
1100	-0.072
1100	-0.075
1101	-0.077
1101	-0.08
1102	-0.081
1102	-0.083
1102	-0.085
1103	-0.086
1103	-0.089
1104	-0.092
1104	-0.094
1104	-0.096
1105	-0.097
1105	-0.099
1106	-0.103
1106	-0.105
1107	-0.11
1107	-0.113
1107	-0.117
1108	-0.119
1108	-0.12
1109	-0.123
1109	-0.127
1109	-0.132
1110	-0.134
1110	-0.136
1111	-0.144
1111	-0.139
