Data from 3.5A_17C_Absorbance__904__00906.txt Node

Date: Tue Jun 20 15:29:18 CEST 2023
User: Marek
Spectrometer: MAYP115816
Trigger mode: 0
Integration Time (sec): 2.200000E-1
Scans to average: 10
Electric dark correction enabled: true
Nonlinearity correction enabled: true
Boxcar width: 5
XAxis mode: Wavelengths
Number of Pixels in Spectrum: 2068
>>>>>Begin Spectral Data<<<<<
199	-0.728
199	-0.709
200	-0.669
200	-0.619
201	-0.591
201	-0.581
202	-0.564
202	-0.557
203	-0.556
203	-0.55
204	-0.532
204	-0.517
205	-0.494
205	-0.485
205	-0.492
206	-0.494
206	-0.491
207	-0.485
207	-0.491
208	-0.493
208	-0.498
209	-0.498
209	-0.504
210	-0.516
210	-0.523
211	-0.518
211	-0.521
212	-0.529
212	-0.535
213	-0.531
213	-0.526
213	-0.524
214	-0.531
214	-0.533
215	-0.531
215	-0.535
216	-0.543
216	-0.548
217	-0.546
217	-0.547
218	-0.556
218	-0.555
219	-0.561
219	-0.563
220	-0.566
220	-0.571
221	-0.572
221	-0.573
221	-0.565
222	-0.563
222	-0.562
223	-0.557
223	-0.562
224	-0.562
224	-0.561
225	-0.559
225	-0.561
226	-0.563
226	-0.562
227	-0.571
227	-0.582
228	-0.584
228	-0.593
229	-0.597
229	-0.594
229	-0.595
230	-0.59
230	-0.587
231	-0.585
231	-0.58
232	-0.582
232	-0.577
233	-0.577
233	-0.564
234	-0.566
234	-0.562
235	-0.565
235	-0.575
236	-0.583
236	-0.584
236	-0.584
237	-0.583
237	-0.584
238	-0.584
238	-0.586
239	-0.587
239	-0.597
240	-0.589
240	-0.585
241	-0.58
241	-0.58
242	-0.585
242	-0.591
243	-0.592
243	-0.594
243	-0.599
244	-0.597
244	-0.599
245	-0.602
245	-0.607
246	-0.617
246	-0.621
247	-0.629
247	-0.615
248	-0.613
248	-0.616
249	-0.622
249	-0.622
250	-0.621
250	-0.63
250	-0.627
251	-0.627
251	-0.622
252	-0.625
252	-0.636
253	-0.633
253	-0.643
254	-0.647
254	-0.649
255	-0.658
255	-0.657
256	-0.658
256	-0.671
257	-0.681
257	-0.676
258	-0.677
258	-0.684
258	-0.682
259	-0.676
259	-0.693
260	-0.693
260	-0.682
261	-0.693
261	-0.678
262	-0.684
262	-0.683
263	-0.673
263	-0.677
264	-0.687
264	-0.689
265	-0.68
265	-0.683
265	-0.692
266	-0.682
266	-0.682
267	-0.681
267	-0.697
268	-0.706
268	-0.701
269	-0.695
269	-0.706
270	-0.71
270	-0.708
271	-0.722
271	-0.731
272	-0.734
272	-0.736
272	-0.728
273	-0.737
273	-0.752
274	-0.743
274	-0.737
275	-0.735
275	-0.724
276	-0.727
276	-0.733
277	-0.734
277	-0.733
278	-0.738
278	-0.737
278	-0.726
279	-0.735
279	-0.748
280	-0.75
280	-0.76
281	-0.754
281	-0.746
282	-0.754
282	-0.747
283	-0.74
283	-0.756
284	-0.77
284	-0.781
285	-0.763
285	-0.769
285	-0.761
286	-0.767
286	-0.782
287	-0.777
287	-0.777
288	-0.777
288	-0.756
289	-0.753
289	-0.758
290	-0.768
290	-0.757
291	-0.761
291	-0.757
292	-0.739
292	-0.739
292	-0.742
293	-0.729
293	-0.726
294	-0.726
294	-0.713
295	-0.694
295	-0.705
296	-0.717
296	-0.713
297	-0.702
297	-0.705
298	-0.701
298	-0.719
298	-0.725
299	-0.705
299	-0.699
300	-0.695
300	-0.676
301	-0.658
301	-0.66
302	-0.668
302	-0.652
303	-0.646
303	-0.634
304	-0.615
304	-0.62
305	-0.613
305	-0.622
305	-0.638
306	-0.624
306	-0.621
307	-0.614
307	-0.625
308	-0.626
308	-0.622
309	-0.625
309	-0.62
310	-0.617
310	-0.611
311	-0.597
311	-0.614
311	-0.603
312	-0.602
312	-0.591
313	-0.584
313	-0.586
314	-0.591
314	-0.589
315	-0.587
315	-0.582
316	-0.576
316	-0.567
317	-0.558
317	-0.555
318	-0.547
318	-0.543
318	-0.533
319	-0.521
319	-0.512
320	-0.51
320	-0.507
321	-0.5
321	-0.5
322	-0.496
322	-0.487
323	-0.489
323	-0.481
324	-0.479
324	-0.468
324	-0.459
325	-0.443
325	-0.428
326	-0.421
326	-0.396
327	-0.381
327	-0.361
328	-0.331
328	-0.308
329	-0.279
329	-0.253
330	-0.227
330	-0.193
330	-0.16
331	-0.124
331	-0.092
332	-0.061
332	-0.028
333	-0
333	0.031
334	0.057
334	0.081
335	0.106
335	0.126
336	0.147
336	0.165
336	0.18
337	0.196
337	0.21
338	0.222
338	0.23
339	0.243
339	0.252
340	0.258
340	0.265
341	0.271
341	0.277
342	0.283
342	0.288
342	0.292
343	0.296
343	0.3
344	0.303
344	0.305
345	0.308
345	0.31
346	0.312
346	0.314
347	0.314
347	0.315
348	0.316
348	0.318
348	0.319
349	0.319
349	0.32
350	0.32
350	0.321
351	0.321
351	0.322
352	0.322
352	0.322
353	0.323
353	0.323
354	0.323
354	0.323
354	0.323
355	0.323
355	0.323
356	0.323
356	0.323
357	0.323
357	0.323
358	0.323
358	0.323
359	0.323
359	0.323
360	0.323
360	0.323
360	0.322
361	0.322
361	0.322
362	0.322
362	0.322
363	0.322
363	0.322
364	0.322
364	0.322
365	0.321
365	0.321
366	0.321
366	0.321
366	0.321
367	0.321
367	0.321
368	0.32
368	0.32
369	0.32
369	0.32
370	0.32
370	0.319
371	0.319
371	0.319
372	0.318
372	0.318
372	0.318
373	0.318
373	0.318
374	0.318
374	0.317
375	0.317
375	0.317
376	0.317
376	0.316
377	0.316
377	0.316
378	0.315
378	0.315
378	0.315
379	0.314
379	0.314
380	0.314
380	0.314
381	0.314
381	0.313
382	0.313
382	0.313
383	0.313
383	0.312
383	0.312
384	0.312
384	0.311
385	0.311
385	0.31
386	0.31
386	0.31
387	0.309
387	0.309
388	0.309
388	0.308
389	0.308
389	0.308
389	0.308
390	0.308
390	0.308
391	0.307
391	0.307
392	0.307
392	0.307
393	0.307
393	0.307
394	0.307
394	0.306
394	0.306
395	0.305
395	0.305
396	0.305
396	0.304
397	0.304
397	0.303
398	0.303
398	0.303
399	0.303
399	0.302
400	0.302
400	0.302
400	0.302
401	0.301
401	0.301
402	0.301
402	0.301
403	0.3
403	0.3
404	0.3
404	0.3
405	0.299
405	0.299
405	0.298
406	0.298
406	0.298
407	0.298
407	0.297
408	0.297
408	0.297
409	0.297
409	0.297
410	0.296
410	0.296
411	0.296
411	0.296
411	0.296
412	0.295
412	0.295
413	0.295
413	0.295
414	0.294
414	0.294
415	0.294
415	0.294
416	0.293
416	0.293
416	0.293
417	0.293
417	0.293
418	0.293
418	0.293
419	0.293
419	0.293
420	0.293
420	0.293
421	0.292
421	0.292
421	0.292
422	0.292
422	0.292
423	0.291
423	0.291
424	0.291
424	0.291
425	0.29
425	0.29
426	0.29
426	0.29
427	0.29
427	0.29
427	0.29
428	0.29
428	0.29
429	0.29
429	0.289
430	0.289
430	0.288
431	0.288
431	0.288
432	0.288
432	0.287
432	0.287
433	0.287
433	0.287
434	0.287
434	0.288
435	0.288
435	0.288
436	0.288
436	0.288
437	0.288
437	0.288
437	0.288
438	0.288
438	0.288
439	0.288
439	0.287
440	0.287
440	0.287
441	0.287
441	0.287
442	0.287
442	0.287
442	0.287
443	0.287
443	0.287
444	0.287
444	0.287
445	0.287
445	0.287
446	0.287
446	0.287
447	0.287
447	0.287
447	0.287
448	0.287
448	0.287
449	0.287
449	0.287
450	0.287
450	0.287
451	0.287
451	0.287
452	0.287
452	0.287
452	0.287
453	0.288
453	0.288
454	0.288
454	0.288
455	0.288
455	0.288
456	0.288
456	0.288
457	0.288
457	0.288
458	0.288
458	0.288
458	0.288
459	0.288
459	0.288
460	0.288
460	0.288
461	0.288
461	0.289
462	0.289
462	0.289
463	0.29
463	0.291
463	0.291
464	0.291
464	0.291
465	0.292
465	0.292
466	0.292
466	0.293
467	0.293
467	0.293
467	0.293
468	0.293
468	0.294
469	0.295
469	0.295
470	0.296
470	0.297
471	0.297
471	0.297
472	0.298
472	0.299
472	0.299
473	0.3
473	0.301
474	0.301
474	0.302
475	0.302
475	0.303
476	0.304
476	0.304
477	0.305
477	0.306
477	0.306
478	0.307
478	0.308
479	0.308
479	0.309
480	0.31
480	0.311
481	0.312
481	0.313
482	0.314
482	0.315
482	0.316
483	0.318
483	0.319
484	0.321
484	0.321
485	0.322
485	0.323
486	0.324
486	0.326
487	0.327
487	0.328
487	0.329
488	0.33
488	0.331
489	0.333
489	0.335
490	0.336
490	0.338
491	0.34
491	0.342
492	0.343
492	0.345
492	0.347
493	0.348
493	0.35
494	0.353
494	0.354
495	0.356
495	0.358
496	0.36
496	0.361
496	0.363
497	0.366
497	0.368
498	0.37
498	0.372
499	0.375
499	0.377
500	0.38
500	0.383
501	0.386
501	0.388
501	0.39
502	0.392
502	0.394
503	0.397
503	0.399
504	0.402
504	0.404
505	0.406
505	0.409
506	0.411
506	0.414
506	0.417
507	0.419
507	0.422
508	0.425
508	0.428
509	0.431
509	0.433
510	0.436
510	0.438
511	0.441
511	0.443
511	0.445
512	0.447
512	0.449
513	0.451
513	0.454
514	0.456
514	0.459
515	0.461
515	0.463
515	0.465
516	0.467
516	0.469
517	0.472
517	0.474
518	0.475
518	0.477
519	0.478
519	0.48
520	0.481
520	0.483
520	0.485
521	0.486
521	0.488
522	0.489
522	0.49
523	0.491
523	0.492
524	0.493
524	0.494
524	0.495
525	0.495
525	0.496
526	0.497
526	0.497
527	0.497
527	0.497
528	0.497
528	0.497
529	0.497
529	0.496
529	0.496
530	0.496
530	0.495
531	0.495
531	0.494
532	0.493
532	0.493
533	0.492
533	0.491
533	0.49
534	0.489
534	0.488
535	0.487
535	0.485
536	0.484
536	0.482
537	0.481
537	0.48
538	0.478
538	0.476
538	0.474
539	0.473
539	0.471
540	0.469
540	0.467
541	0.464
541	0.462
542	0.46
542	0.458
542	0.455
543	0.453
543	0.45
544	0.448
544	0.445
545	0.443
545	0.44
546	0.438
546	0.435
547	0.432
547	0.429
547	0.426
548	0.424
548	0.421
549	0.418
549	0.415
550	0.412
550	0.409
551	0.405
551	0.402
551	0.399
552	0.396
552	0.393
553	0.39
553	0.388
554	0.385
554	0.382
555	0.378
555	0.375
556	0.372
556	0.369
556	0.366
557	0.364
557	0.361
558	0.358
558	0.356
559	0.353
559	0.35
560	0.347
560	0.344
560	0.342
561	0.34
561	0.338
562	0.335
562	0.333
563	0.331
563	0.328
564	0.326
564	0.324
564	0.322
565	0.32
565	0.318
566	0.315
566	0.313
567	0.311
567	0.309
568	0.307
568	0.304
568	0.301
569	0.299
569	0.296
570	0.293
570	0.29
571	0.288
571	0.286
572	0.283
572	0.281
573	0.279
573	0.276
573	0.274
574	0.272
574	0.271
575	0.269
575	0.268
576	0.267
576	0.264
577	0.262
577	0.261
577	0.26
578	0.259
578	0.258
579	0.257
579	0.256
580	0.254
580	0.251
581	0.249
581	0.247
581	0.247
582	0.246
582	0.245
583	0.244
583	0.242
584	0.238
584	0.235
585	0.234
585	0.233
585	0.232
586	0.231
586	0.229
587	0.227
587	0.225
588	0.223
588	0.221
589	0.221
589	0.22
590	0.219
590	0.218
590	0.219
591	0.218
591	0.217
592	0.216
592	0.215
593	0.214
593	0.213
594	0.212
594	0.211
594	0.21
595	0.209
595	0.207
596	0.206
596	0.206
597	0.207
597	0.206
598	0.205
598	0.205
598	0.204
599	0.204
599	0.203
600	0.202
600	0.201
601	0.201
601	0.2
602	0.198
602	0.197
602	0.196
603	0.195
603	0.195
604	0.195
604	0.194
605	0.194
605	0.194
606	0.192
606	0.191
606	0.19
607	0.189
607	0.189
608	0.188
608	0.186
609	0.186
609	0.185
610	0.184
610	0.183
610	0.183
611	0.183
611	0.182
612	0.182
612	0.183
613	0.183
613	0.182
614	0.181
614	0.18
614	0.18
615	0.179
615	0.178
616	0.178
616	0.177
617	0.176
617	0.175
618	0.174
618	0.173
618	0.172
619	0.172
619	0.172
620	0.172
620	0.171
621	0.17
621	0.169
622	0.168
622	0.167
622	0.166
623	0.166
623	0.166
624	0.166
624	0.165
625	0.164
625	0.163
626	0.163
626	0.162
626	0.161
627	0.161
627	0.16
628	0.159
628	0.157
629	0.156
629	0.154
630	0.152
630	0.15
630	0.149
631	0.147
631	0.145
632	0.143
632	0.142
633	0.14
633	0.139
634	0.137
634	0.136
634	0.135
635	0.134
635	0.132
636	0.131
636	0.129
637	0.127
637	0.125
638	0.123
638	0.121
638	0.119
639	0.116
639	0.114
640	0.111
640	0.109
641	0.106
641	0.104
642	0.101
642	0.099
642	0.096
643	0.092
643	0.089
644	0.085
644	0.081
645	0.077
645	0.073
646	0.069
646	0.064
646	0.058
647	0.053
647	0.047
648	0.042
648	0.036
649	0.031
649	0.025
650	0.02
650	0.015
650	0.008
651	0.001
651	-0.008
652	-0.019
652	-0.031
653	-0.041
653	-0.05
653	-0.045
654	-0.03
654	-0.027
655	-0.032
655	-0.038
656	-0.043
656	-0.049
657	-0.053
657	-0.058
657	-0.064
658	-0.071
658	-0.098
659	-0.173
659	-0.252
660	-0.288
660	-0.313
661	-0.339
661	-0.366
661	-0.396
662	-0.421
662	-0.451
663	-0.485
663	-0.521
664	-0.557
664	-0.596
665	-0.641
665	-0.687
665	-0.731
666	-0.781
666	-0.836
667	-0.892
667	-0.954
668	-1.012
668	-1.081
669	-1.15
669	-1.223
669	-1.301
670	-1.382
670	-1.493
671	-1.664
671	-2
672	-2.274
672	-2.448
672	-2.575
673	-2.675
673	-2.758
674	-2.814
674	-2.83
675	-2.846
675	-2.85
676	-2.848
676	-2.807
676	-2.735
677	-2.647
677	-2.541
678	-2.38
678	-2.104
679	-1.724
679	-1.557
680	-1.452
680	-1.375
680	-1.306
681	-1.258
681	-1.204
682	-1.161
682	-1.116
683	-1.072
683	-1.047
684	-1.018
684	-0.998
684	-0.975
685	-0.955
685	-0.944
686	-0.92
686	-0.907
687	-0.897
687	-0.886
687	-0.885
688	-0.868
688	-0.859
689	-0.862
689	-0.858
690	-0.844
690	-0.836
691	-0.832
691	-0.833
691	-0.832
692	-0.83
692	-0.826
693	-0.833
693	-0.842
694	-0.82
694	-0.819
695	-0.822
695	-0.813
695	-0.82
696	-0.826
696	-0.819
697	-0.814
697	-0.809
698	-0.803
698	-0.797
698	-0.812
699	-0.809
699	-0.808
700	-0.827
700	-0.823
701	-0.81
701	-0.803
702	-0.803
702	-0.803
702	-0.802
703	-0.794
703	-0.782
704	-0.791
704	-0.794
705	-0.783
705	-0.779
705	-0.775
706	-0.768
706	-0.765
707	-0.776
707	-0.78
708	-0.775
708	-0.772
709	-0.774
709	-0.771
709	-0.768
710	-0.778
710	-0.78
711	-0.781
711	-0.782
712	-0.772
712	-0.768
713	-0.774
713	-0.775
713	-0.755
714	-0.756
714	-0.758
715	-0.748
715	-0.757
716	-0.77
716	-0.779
716	-0.78
717	-0.786
717	-0.777
718	-0.769
718	-0.769
719	-0.765
719	-0.759
720	-0.754
720	-0.75
720	-0.745
721	-0.738
721	-0.742
722	-0.74
722	-0.738
723	-0.757
723	-0.769
723	-0.779
724	-0.776
724	-0.783
725	-0.778
725	-0.78
726	-0.781
726	-0.77
727	-0.773
727	-0.78
727	-0.769
728	-0.757
728	-0.752
729	-0.755
729	-0.756
730	-0.761
730	-0.753
730	-0.76
731	-0.765
731	-0.763
732	-0.766
732	-0.763
733	-0.777
733	-0.786
734	-0.794
734	-0.784
734	-0.769
735	-0.758
735	-0.75
736	-0.749
736	-0.744
737	-0.742
737	-0.731
737	-0.723
738	-0.707
738	-0.696
739	-0.7
739	-0.699
740	-0.715
740	-0.717
741	-0.726
741	-0.737
741	-0.745
742	-0.751
742	-0.767
743	-0.774
743	-0.776
744	-0.779
744	-0.788
744	-0.782
745	-0.791
745	-0.781
746	-0.777
746	-0.769
747	-0.772
747	-0.762
748	-0.762
748	-0.766
748	-0.767
749	-0.76
749	-0.766
750	-0.754
750	-0.755
751	-0.753
751	-0.75
751	-0.761
752	-0.764
752	-0.768
753	-0.77
753	-0.763
754	-0.781
754	-0.781
754	-0.79
755	-0.79
755	-0.783
756	-0.787
756	-0.774
757	-0.766
757	-0.755
758	-0.753
758	-0.752
758	-0.747
759	-0.751
759	-0.752
760	-0.751
760	-0.753
761	-0.747
761	-0.751
761	-0.751
762	-0.757
762	-0.759
763	-0.759
763	-0.764
764	-0.763
764	-0.758
764	-0.762
765	-0.761
765	-0.77
766	-0.773
766	-0.775
767	-0.79
767	-0.787
768	-0.786
768	-0.776
768	-0.771
769	-0.775
769	-0.783
770	-0.793
770	-0.796
771	-0.79
771	-0.789
771	-0.795
772	-0.796
772	-0.818
773	-0.818
773	-0.819
774	-0.817
774	-0.8
775	-0.786
775	-0.784
775	-0.789
776	-0.8
776	-0.795
777	-0.797
777	-0.779
778	-0.789
778	-0.798
778	-0.799
779	-0.808
779	-0.824
780	-0.82
780	-0.827
781	-0.816
781	-0.806
781	-0.821
782	-0.841
782	-0.843
783	-0.84
783	-0.848
784	-0.852
784	-0.844
784	-0.865
785	-0.86
785	-0.872
786	-0.875
786	-0.868
787	-0.859
787	-0.866
788	-0.859
788	-0.851
788	-0.852
789	-0.851
789	-0.839
790	-0.838
790	-0.821
791	-0.828
791	-0.824
791	-0.817
792	-0.812
792	-0.818
793	-0.82
793	-0.809
794	-0.803
794	-0.797
794	-0.805
795	-0.827
795	-0.815
796	-0.821
796	-0.816
797	-0.807
797	-0.796
797	-0.789
798	-0.807
798	-0.811
799	-0.811
799	-0.796
800	-0.79
800	-0.795
801	-0.793
801	-0.798
801	-0.795
802	-0.794
802	-0.794
803	-0.79
803	-0.785
804	-0.789
804	-0.799
804	-0.781
805	-0.765
805	-0.756
806	-0.755
806	-0.753
807	-0.755
807	-0.754
807	-0.739
808	-0.734
808	-0.728
809	-0.72
809	-0.724
810	-0.726
810	-0.725
810	-0.721
811	-0.725
811	-0.716
812	-0.71
812	-0.709
813	-0.714
813	-0.714
813	-0.711
814	-0.712
814	-0.716
815	-0.705
815	-0.7
816	-0.697
816	-0.714
817	-0.727
817	-0.733
817	-0.741
818	-0.735
818	-0.733
819	-0.739
819	-0.737
820	-0.749
820	-0.75
820	-0.75
821	-0.745
821	-0.741
822	-0.739
822	-0.727
823	-0.739
823	-0.739
823	-0.736
824	-0.735
824	-0.745
825	-0.743
825	-0.739
826	-0.735
826	-0.731
826	-0.73
827	-0.73
827	-0.718
828	-0.718
828	-0.711
829	-0.705
829	-0.691
829	-0.69
830	-0.689
830	-0.675
831	-0.667
831	-0.658
832	-0.648
832	-0.644
832	-0.637
833	-0.636
833	-0.641
834	-0.638
834	-0.631
835	-0.624
835	-0.624
835	-0.617
836	-0.614
836	-0.612
837	-0.602
837	-0.593
838	-0.58
838	-0.563
839	-0.556
839	-0.545
839	-0.535
840	-0.532
840	-0.524
841	-0.513
841	-0.506
842	-0.499
842	-0.486
842	-0.485
843	-0.481
843	-0.477
844	-0.472
844	-0.461
845	-0.447
845	-0.439
845	-0.43
846	-0.419
846	-0.41
847	-0.401
847	-0.389
848	-0.375
848	-0.36
848	-0.348
849	-0.338
849	-0.327
850	-0.317
850	-0.305
851	-0.292
851	-0.276
851	-0.266
852	-0.25
852	-0.24
853	-0.229
853	-0.22
854	-0.209
854	-0.199
854	-0.188
855	-0.178
855	-0.17
856	-0.164
856	-0.158
857	-0.151
857	-0.144
857	-0.133
858	-0.123
858	-0.117
859	-0.109
859	-0.098
860	-0.088
860	-0.076
860	-0.068
861	-0.058
861	-0.049
862	-0.042
862	-0.034
863	-0.027
863	-0.019
863	-0.013
864	-0.009
864	-0.004
865	0.001
865	0.006
866	0.011
866	0.015
866	0.02
867	0.024
867	0.028
868	0.031
868	0.035
869	0.039
869	0.042
869	0.045
870	0.047
870	0.049
871	0.051
871	0.052
872	0.052
872	0.052
872	0.053
873	0.053
873	0.053
874	0.053
874	0.052
875	0.052
875	0.051
875	0.051
876	0.051
876	0.05
877	0.05
877	0.049
878	0.048
878	0.048
878	0.047
879	0.047
879	0.046
880	0.045
880	0.045
881	0.043
881	0.042
881	0.042
882	0.041
882	0.04
883	0.039
883	0.039
884	0.039
884	0.039
884	0.039
885	0.039
885	0.039
886	0.039
886	0.039
887	0.039
887	0.038
887	0.038
888	0.037
888	0.036
889	0.035
889	0.034
890	0.034
890	0.033
890	0.032
891	0.032
891	0.032
892	0.032
892	0.032
893	0.032
893	0.032
893	0.032
894	0.032
894	0.032
895	0.031
895	0.031
895	0.031
896	0.032
896	0.032
897	0.032
897	0.033
898	0.033
898	0.034
898	0.034
899	0.034
899	0.035
900	0.035
900	0.036
901	0.035
901	0.036
901	0.036
902	0.036
902	0.036
903	0.036
903	0.036
904	0.035
904	0.035
904	0.035
905	0.035
905	0.035
906	0.035
906	0.035
907	0.035
907	0.035
907	0.035
908	0.035
908	0.036
909	0.037
909	0.037
910	0.038
910	0.038
910	0.039
911	0.04
911	0.041
912	0.043
912	0.044
913	0.045
913	0.046
913	0.047
914	0.048
914	0.048
915	0.048
915	0.048
916	0.048
916	0.047
916	0.046
917	0.046
917	0.045
918	0.044
918	0.044
918	0.044
919	0.043
919	0.043
920	0.043
920	0.043
921	0.043
921	0.043
921	0.042
922	0.042
922	0.042
923	0.041
923	0.041
924	0.041
924	0.04
924	0.04
925	0.04
925	0.039
926	0.039
926	0.039
927	0.039
927	0.039
927	0.039
928	0.039
928	0.039
929	0.04
929	0.041
930	0.041
930	0.042
930	0.042
931	0.043
931	0.043
932	0.044
932	0.044
933	0.044
933	0.044
933	0.044
934	0.043
934	0.042
935	0.041
935	0.04
935	0.039
936	0.037
936	0.035
937	0.034
937	0.033
938	0.032
938	0.031
938	0.03
939	0.03
939	0.029
940	0.029
940	0.029
941	0.028
941	0.028
941	0.028
942	0.028
942	0.028
943	0.029
943	0.028
944	0.028
944	0.027
944	0.028
945	0.028
945	0.028
946	0.028
946	0.027
946	0.028
947	0.027
947	0.027
948	0.027
948	0.027
949	0.027
949	0.028
949	0.028
950	0.028
950	0.029
951	0.029
951	0.03
952	0.03
952	0.03
952	0.03
953	0.031
953	0.031
954	0.031
954	0.031
955	0.031
955	0.031
955	0.031
956	0.03
956	0.03
957	0.029
957	0.029
957	0.028
958	0.028
958	0.028
959	0.028
959	0.027
960	0.027
960	0.027
960	0.027
961	0.027
961	0.027
962	0.027
962	0.027
963	0.027
963	0.027
963	0.027
964	0.027
964	0.028
965	0.028
965	0.028
966	0.028
966	0.028
966	0.028
967	0.028
967	0.028
968	0.027
968	0.027
968	0.027
969	0.027
969	0.026
970	0.025
970	0.025
971	0.024
971	0.024
971	0.023
972	0.023
972	0.023
973	0.023
973	0.023
974	0.024
974	0.024
974	0.025
975	0.026
975	0.027
976	0.027
976	0.028
976	0.028
977	0.029
977	0.028
978	0.028
978	0.028
979	0.028
979	0.027
979	0.027
980	0.027
980	0.026
981	0.026
981	0.026
982	0.026
982	0.026
982	0.026
983	0.026
983	0.026
984	0.025
984	0.025
984	0.025
985	0.025
985	0.025
986	0.024
986	0.024
987	0.023
987	0.022
987	0.021
988	0.02
988	0.02
989	0.019
989	0.018
990	0.017
990	0.016
990	0.016
991	0.016
991	0.016
992	0.016
992	0.016
992	0.016
993	0.016
993	0.016
994	0.016
994	0.016
995	0.016
995	0.016
995	0.015
996	0.015
996	0.014
997	0.014
997	0.014
997	0.014
998	0.014
998	0.014
999	0.014
999	0.014
1000	0.015
1000	0.015
1000	0.015
1001	0.015
1001	0.016
1002	0.016
1002	0.016
1003	0.016
1003	0.015
1003	0.015
1004	0.014
1004	0.014
1005	0.013
1005	0.013
1005	0.012
1006	0.011
1006	0.011
1007	0.011
1007	0.01
1008	0.01
1008	0.01
1008	0.01
1009	0.01
1009	0.011
1010	0.011
1010	0.012
1010	0.012
1011	0.012
1011	0.013
1012	0.013
1012	0.014
1013	0.014
1013	0.014
1013	0.015
1014	0.015
1014	0.015
1015	0.015
1015	0.015
1016	0.015
1016	0.015
1016	0.015
1017	0.015
1017	0.015
1018	0.015
1018	0.015
1018	0.015
1019	0.015
1019	0.014
1020	0.014
1020	0.013
1021	0.013
1021	0.012
1021	0.012
1022	0.011
1022	0.01
1023	0.01
1023	0.009
1023	0.009
1024	0.009
1024	0.008
1025	0.008
1025	0.008
1026	0.008
1026	0.008
1026	0.007
1027	0.007
1027	0.007
1028	0.008
1028	0.008
1028	0.008
1029	0.008
1029	0.008
1030	0.007
1030	0.007
1031	0.006
1031	0.007
1031	0.006
1032	0.006
1032	0.006
1033	0.005
1033	0.004
1033	0.004
1034	0.004
1034	0.004
1035	0.004
1035	0.004
1036	0.003
1036	0.003
1036	0.004
1037	0.004
1037	0.004
1038	0.005
1038	0.005
1039	0.006
1039	0.007
1039	0.007
1040	0.008
1040	0.008
1041	0.008
1041	0.008
1041	0.008
1042	0.007
1042	0.007
1043	0.006
1043	0.006
1044	0.005
1044	0.004
1044	0.003
1045	0.002
1045	0.001
1046	0
1046	-0
1046	-0.001
1047	-0.001
1047	-0.002
1048	-0.002
1048	-0.002
1049	-0.002
1049	-0.002
1049	-0.003
1050	-0.003
1050	-0.004
1051	-0.005
1051	-0.005
1051	-0.006
1052	-0.006
1052	-0.007
1053	-0.008
1053	-0.008
1053	-0.008
1054	-0.009
1054	-0.009
1055	-0.008
1055	-0.008
1056	-0.008
1056	-0.008
1056	-0.008
1057	-0.009
1057	-0.009
1058	-0.009
1058	-0.01
1058	-0.01
1059	-0.01
1059	-0.01
1060	-0.011
1060	-0.011
1061	-0.011
1061	-0.011
1061	-0.01
1062	-0.01
1062	-0.01
1063	-0.01
1063	-0.01
1063	-0.01
1064	-0.01
1064	-0.01
1065	-0.01
1065	-0.011
1066	-0.011
1066	-0.011
1066	-0.011
1067	-0.012
1067	-0.012
1068	-0.013
1068	-0.013
1068	-0.014
1069	-0.015
1069	-0.016
1070	-0.016
1070	-0.017
1071	-0.017
1071	-0.017
1071	-0.017
1072	-0.017
1072	-0.017
1073	-0.017
1073	-0.017
1073	-0.016
1074	-0.015
1074	-0.015
1075	-0.016
1075	-0.016
1076	-0.017
1076	-0.017
1076	-0.018
1077	-0.019
1077	-0.02
1078	-0.021
1078	-0.022
1078	-0.022
1079	-0.023
1079	-0.023
1080	-0.024
1080	-0.025
1080	-0.026
1081	-0.027
1081	-0.027
1082	-0.028
1082	-0.029
1083	-0.03
1083	-0.031
1083	-0.032
1084	-0.033
1084	-0.033
1085	-0.034
1085	-0.034
1085	-0.034
1086	-0.034
1086	-0.035
1087	-0.035
1087	-0.036
1088	-0.037
1088	-0.038
1088	-0.038
1089	-0.04
1089	-0.041
1090	-0.042
1090	-0.042
1090	-0.044
1091	-0.045
1091	-0.045
1092	-0.046
1092	-0.046
1092	-0.047
1093	-0.047
1093	-0.047
1094	-0.048
1094	-0.048
1095	-0.05
1095	-0.051
1095	-0.05
1096	-0.052
1096	-0.054
1097	-0.055
1097	-0.057
1097	-0.058
1098	-0.06
1098	-0.061
1099	-0.063
1099	-0.063
1100	-0.065
1100	-0.068
1100	-0.071
1101	-0.073
1101	-0.075
1102	-0.078
1102	-0.08
1102	-0.082
1103	-0.084
1103	-0.087
1104	-0.09
1104	-0.092
1104	-0.094
1105	-0.095
1105	-0.097
1106	-0.102
1106	-0.104
1107	-0.109
1107	-0.114
1107	-0.119
1108	-0.121
1108	-0.123
1109	-0.127
1109	-0.13
1109	-0.135
1110	-0.138
1110	-0.143
1111	-0.152
1111	-0.146
