Data from 3.5A_17C_Absorbance__523__00525.txt Node

Date: Tue Jun 20 15:15:20 CEST 2023
User: Marek
Spectrometer: MAYP115816
Trigger mode: 0
Integration Time (sec): 2.200000E-1
Scans to average: 10
Electric dark correction enabled: true
Nonlinearity correction enabled: true
Boxcar width: 5
XAxis mode: Wavelengths
Number of Pixels in Spectrum: 2068
>>>>>Begin Spectral Data<<<<<
199	-0.672
199	-0.647
200	-0.616
200	-0.562
201	-0.533
201	-0.525
202	-0.507
202	-0.5
203	-0.499
203	-0.491
204	-0.471
204	-0.455
205	-0.435
205	-0.424
205	-0.434
206	-0.437
206	-0.432
207	-0.424
207	-0.43
208	-0.432
208	-0.438
209	-0.44
209	-0.448
210	-0.461
210	-0.468
211	-0.462
211	-0.466
212	-0.474
212	-0.482
213	-0.48
213	-0.474
213	-0.473
214	-0.482
214	-0.484
215	-0.483
215	-0.488
216	-0.497
216	-0.504
217	-0.502
217	-0.503
218	-0.511
218	-0.514
219	-0.521
219	-0.521
220	-0.524
220	-0.526
221	-0.526
221	-0.524
221	-0.515
222	-0.515
222	-0.513
223	-0.508
223	-0.51
224	-0.508
224	-0.505
225	-0.503
225	-0.506
226	-0.505
226	-0.506
227	-0.512
227	-0.519
228	-0.525
228	-0.536
229	-0.541
229	-0.538
229	-0.539
230	-0.533
230	-0.531
231	-0.529
231	-0.524
232	-0.528
232	-0.524
233	-0.521
233	-0.507
234	-0.506
234	-0.503
235	-0.507
235	-0.519
236	-0.525
236	-0.527
236	-0.527
237	-0.525
237	-0.526
238	-0.529
238	-0.53
239	-0.532
239	-0.542
240	-0.535
240	-0.532
241	-0.528
241	-0.528
242	-0.531
242	-0.539
243	-0.539
243	-0.54
243	-0.545
244	-0.541
244	-0.542
245	-0.545
245	-0.549
246	-0.558
246	-0.561
247	-0.568
247	-0.553
248	-0.551
248	-0.555
249	-0.561
249	-0.564
250	-0.561
250	-0.568
250	-0.566
251	-0.564
251	-0.56
252	-0.563
252	-0.575
253	-0.57
253	-0.581
254	-0.585
254	-0.585
255	-0.596
255	-0.592
256	-0.595
256	-0.608
257	-0.618
257	-0.614
258	-0.618
258	-0.625
258	-0.622
259	-0.616
259	-0.634
260	-0.632
260	-0.624
261	-0.634
261	-0.618
262	-0.622
262	-0.62
263	-0.61
263	-0.616
264	-0.624
264	-0.623
265	-0.613
265	-0.618
265	-0.626
266	-0.618
266	-0.617
267	-0.617
267	-0.632
268	-0.639
268	-0.631
269	-0.625
269	-0.64
270	-0.644
270	-0.641
271	-0.654
271	-0.665
272	-0.668
272	-0.672
272	-0.665
273	-0.676
273	-0.692
274	-0.682
274	-0.676
275	-0.675
275	-0.663
276	-0.667
276	-0.671
277	-0.673
277	-0.669
278	-0.675
278	-0.672
278	-0.662
279	-0.67
279	-0.684
280	-0.686
280	-0.696
281	-0.689
281	-0.682
282	-0.689
282	-0.683
283	-0.675
283	-0.692
284	-0.703
284	-0.713
285	-0.693
285	-0.697
285	-0.688
286	-0.694
286	-0.71
287	-0.707
287	-0.704
288	-0.703
288	-0.686
289	-0.686
289	-0.693
290	-0.704
290	-0.694
291	-0.697
291	-0.695
292	-0.675
292	-0.672
292	-0.676
293	-0.666
293	-0.66
294	-0.66
294	-0.647
295	-0.628
295	-0.639
296	-0.651
296	-0.647
297	-0.637
297	-0.64
298	-0.637
298	-0.652
298	-0.657
299	-0.64
299	-0.632
300	-0.627
300	-0.608
301	-0.592
301	-0.594
302	-0.602
302	-0.586
303	-0.582
303	-0.572
304	-0.554
304	-0.558
305	-0.551
305	-0.562
305	-0.578
306	-0.562
306	-0.561
307	-0.553
307	-0.565
308	-0.564
308	-0.558
309	-0.562
309	-0.555
310	-0.553
310	-0.546
311	-0.531
311	-0.548
311	-0.535
312	-0.531
312	-0.519
313	-0.513
313	-0.514
314	-0.517
314	-0.517
315	-0.514
315	-0.51
316	-0.505
316	-0.495
317	-0.487
317	-0.487
318	-0.481
318	-0.478
318	-0.467
319	-0.458
319	-0.448
320	-0.449
320	-0.446
321	-0.442
321	-0.441
322	-0.437
322	-0.429
323	-0.428
323	-0.419
324	-0.418
324	-0.406
324	-0.395
325	-0.38
325	-0.363
326	-0.354
326	-0.329
327	-0.314
327	-0.292
328	-0.262
328	-0.239
329	-0.211
329	-0.183
330	-0.156
330	-0.121
330	-0.087
331	-0.052
331	-0.021
332	0.01
332	0.041
333	0.069
333	0.1
334	0.126
334	0.149
335	0.173
335	0.193
336	0.212
336	0.231
336	0.246
337	0.262
337	0.276
338	0.289
338	0.298
339	0.31
339	0.319
340	0.326
340	0.334
341	0.341
341	0.346
342	0.352
342	0.357
342	0.361
343	0.364
343	0.369
344	0.371
344	0.374
345	0.377
345	0.379
346	0.381
346	0.382
347	0.383
347	0.385
348	0.385
348	0.387
348	0.387
349	0.388
349	0.388
350	0.388
350	0.388
351	0.389
351	0.389
352	0.389
352	0.389
353	0.39
353	0.39
354	0.39
354	0.39
354	0.39
355	0.39
355	0.39
356	0.391
356	0.39
357	0.391
357	0.391
358	0.391
358	0.391
359	0.39
359	0.39
360	0.39
360	0.39
360	0.39
361	0.39
361	0.39
362	0.389
362	0.389
363	0.389
363	0.389
364	0.389
364	0.389
365	0.388
365	0.388
366	0.388
366	0.388
366	0.387
367	0.387
367	0.387
368	0.386
368	0.386
369	0.386
369	0.386
370	0.385
370	0.385
371	0.384
371	0.384
372	0.383
372	0.383
372	0.383
373	0.383
373	0.382
374	0.382
374	0.382
375	0.381
375	0.381
376	0.381
376	0.38
377	0.38
377	0.379
378	0.379
378	0.378
378	0.378
379	0.377
379	0.377
380	0.377
380	0.377
381	0.376
381	0.376
382	0.375
382	0.375
383	0.375
383	0.374
383	0.374
384	0.373
384	0.373
385	0.372
385	0.372
386	0.371
386	0.371
387	0.371
387	0.37
388	0.37
388	0.37
389	0.369
389	0.369
389	0.369
390	0.369
390	0.368
391	0.368
391	0.368
392	0.367
392	0.367
393	0.367
393	0.366
394	0.366
394	0.365
394	0.364
395	0.364
395	0.363
396	0.363
396	0.362
397	0.362
397	0.361
398	0.361
398	0.361
399	0.36
399	0.36
400	0.36
400	0.359
400	0.359
401	0.359
401	0.358
402	0.358
402	0.358
403	0.357
403	0.357
404	0.356
404	0.356
405	0.355
405	0.355
405	0.354
406	0.354
406	0.353
407	0.353
407	0.353
408	0.352
408	0.352
409	0.352
409	0.352
410	0.352
410	0.352
411	0.351
411	0.351
411	0.351
412	0.351
412	0.35
413	0.35
413	0.349
414	0.349
414	0.349
415	0.348
415	0.348
416	0.348
416	0.348
416	0.347
417	0.347
417	0.347
418	0.347
418	0.347
419	0.347
419	0.347
420	0.346
420	0.346
421	0.346
421	0.346
421	0.346
422	0.345
422	0.345
423	0.345
423	0.345
424	0.344
424	0.344
425	0.344
425	0.344
426	0.344
426	0.344
427	0.344
427	0.343
427	0.343
428	0.343
428	0.343
429	0.343
429	0.342
430	0.342
430	0.342
431	0.341
431	0.341
432	0.341
432	0.341
432	0.341
433	0.341
433	0.341
434	0.341
434	0.341
435	0.342
435	0.341
436	0.341
436	0.341
437	0.341
437	0.341
437	0.341
438	0.341
438	0.341
439	0.341
439	0.341
440	0.34
440	0.34
441	0.34
441	0.34
442	0.34
442	0.34
442	0.34
443	0.34
443	0.34
444	0.34
444	0.34
445	0.34
445	0.34
446	0.34
446	0.34
447	0.34
447	0.341
447	0.341
448	0.341
448	0.341
449	0.341
449	0.341
450	0.341
450	0.342
451	0.342
451	0.342
452	0.341
452	0.341
452	0.341
453	0.342
453	0.342
454	0.342
454	0.342
455	0.342
455	0.343
456	0.343
456	0.343
457	0.343
457	0.343
458	0.344
458	0.344
458	0.344
459	0.344
459	0.344
460	0.344
460	0.344
461	0.345
461	0.345
462	0.346
462	0.346
463	0.347
463	0.348
463	0.348
464	0.349
464	0.349
465	0.35
465	0.35
466	0.351
466	0.352
467	0.352
467	0.352
467	0.353
468	0.353
468	0.353
469	0.354
469	0.355
470	0.356
470	0.356
471	0.357
471	0.357
472	0.358
472	0.359
472	0.36
473	0.361
473	0.362
474	0.363
474	0.364
475	0.365
475	0.366
476	0.367
476	0.368
477	0.369
477	0.37
477	0.371
478	0.372
478	0.373
479	0.374
479	0.376
480	0.377
480	0.378
481	0.38
481	0.381
482	0.383
482	0.385
482	0.386
483	0.388
483	0.39
484	0.392
484	0.394
485	0.395
485	0.397
486	0.399
486	0.4
487	0.402
487	0.404
487	0.405
488	0.407
488	0.409
489	0.411
489	0.414
490	0.416
490	0.418
491	0.421
491	0.423
492	0.425
492	0.427
492	0.43
493	0.432
493	0.434
494	0.437
494	0.44
495	0.442
495	0.445
496	0.448
496	0.45
496	0.454
497	0.457
497	0.46
498	0.463
498	0.466
499	0.469
499	0.473
500	0.476
500	0.48
501	0.483
501	0.486
501	0.489
502	0.492
502	0.495
503	0.499
503	0.502
504	0.505
504	0.509
505	0.512
505	0.516
506	0.519
506	0.523
506	0.527
507	0.531
507	0.534
508	0.538
508	0.541
509	0.545
509	0.548
510	0.552
510	0.555
511	0.558
511	0.562
511	0.565
512	0.568
512	0.571
513	0.574
513	0.577
514	0.58
514	0.584
515	0.588
515	0.59
515	0.593
516	0.596
516	0.599
517	0.601
517	0.604
518	0.606
518	0.608
519	0.61
519	0.611
520	0.613
520	0.616
520	0.618
521	0.619
521	0.621
522	0.623
522	0.624
523	0.626
523	0.627
524	0.628
524	0.629
524	0.63
525	0.63
525	0.631
526	0.632
526	0.632
527	0.632
527	0.633
528	0.633
528	0.633
529	0.632
529	0.632
529	0.631
530	0.63
530	0.63
531	0.629
531	0.628
532	0.626
532	0.625
533	0.624
533	0.622
533	0.621
534	0.619
534	0.617
535	0.615
535	0.613
536	0.611
536	0.608
537	0.606
537	0.603
538	0.6
538	0.597
538	0.594
539	0.591
539	0.589
540	0.586
540	0.582
541	0.578
541	0.575
542	0.571
542	0.567
542	0.564
543	0.56
543	0.556
544	0.552
544	0.548
545	0.545
545	0.541
546	0.537
546	0.532
547	0.528
547	0.523
547	0.519
548	0.515
548	0.511
549	0.506
549	0.502
550	0.498
550	0.493
551	0.488
551	0.483
551	0.478
552	0.473
552	0.469
553	0.464
553	0.46
554	0.455
554	0.45
555	0.445
555	0.441
556	0.436
556	0.431
556	0.427
557	0.422
557	0.418
558	0.414
558	0.409
559	0.405
559	0.4
560	0.395
560	0.391
560	0.387
561	0.384
561	0.38
562	0.376
562	0.373
563	0.369
563	0.365
564	0.361
564	0.357
564	0.354
565	0.35
565	0.347
566	0.343
566	0.339
567	0.336
567	0.332
568	0.328
568	0.324
568	0.32
569	0.316
569	0.312
570	0.308
570	0.303
571	0.3
571	0.297
572	0.293
572	0.289
573	0.286
573	0.282
573	0.279
574	0.276
574	0.274
575	0.271
575	0.269
576	0.266
576	0.262
577	0.259
577	0.256
577	0.254
578	0.253
578	0.251
579	0.249
579	0.247
580	0.244
580	0.24
581	0.237
581	0.235
581	0.233
582	0.232
582	0.23
583	0.227
583	0.224
584	0.22
584	0.216
585	0.214
585	0.212
585	0.209
586	0.206
586	0.204
587	0.201
587	0.198
588	0.195
588	0.193
589	0.191
589	0.19
590	0.188
590	0.186
590	0.186
591	0.184
591	0.182
592	0.18
592	0.178
593	0.177
593	0.176
594	0.174
594	0.172
594	0.171
595	0.17
595	0.168
596	0.166
596	0.166
597	0.166
597	0.164
598	0.162
598	0.161
598	0.16
599	0.159
599	0.157
600	0.156
600	0.154
601	0.153
601	0.152
602	0.15
602	0.149
602	0.147
603	0.146
603	0.145
604	0.144
604	0.143
605	0.142
605	0.142
606	0.14
606	0.138
606	0.137
607	0.136
607	0.135
608	0.134
608	0.132
609	0.131
609	0.13
610	0.129
610	0.127
610	0.127
611	0.126
611	0.125
612	0.125
612	0.124
613	0.124
613	0.123
614	0.122
614	0.12
614	0.119
615	0.118
615	0.117
616	0.116
616	0.115
617	0.114
617	0.113
618	0.112
618	0.111
618	0.11
619	0.109
619	0.109
620	0.109
620	0.108
621	0.107
621	0.107
622	0.106
622	0.105
622	0.103
623	0.103
623	0.102
624	0.102
624	0.101
625	0.1
625	0.099
626	0.099
626	0.098
626	0.097
627	0.097
627	0.096
628	0.094
628	0.093
629	0.092
629	0.091
630	0.089
630	0.088
630	0.086
631	0.085
631	0.084
632	0.082
632	0.081
633	0.08
633	0.079
634	0.078
634	0.077
634	0.076
635	0.075
635	0.074
636	0.073
636	0.072
637	0.071
637	0.07
638	0.068
638	0.067
638	0.065
639	0.064
639	0.062
640	0.06
640	0.058
641	0.056
641	0.054
642	0.053
642	0.051
642	0.049
643	0.047
643	0.044
644	0.042
644	0.039
645	0.037
645	0.034
646	0.031
646	0.028
646	0.024
647	0.02
647	0.016
648	0.013
648	0.009
649	0.005
649	0.001
650	-0.003
650	-0.007
650	-0.011
651	-0.016
651	-0.022
652	-0.03
652	-0.038
653	-0.044
653	-0.049
653	-0.045
654	-0.034
654	-0.033
655	-0.037
655	-0.04
656	-0.044
656	-0.047
657	-0.05
657	-0.053
657	-0.057
658	-0.061
658	-0.081
659	-0.136
659	-0.189
660	-0.213
660	-0.23
661	-0.247
661	-0.268
661	-0.29
662	-0.309
662	-0.328
663	-0.349
663	-0.375
664	-0.399
664	-0.425
665	-0.456
665	-0.487
665	-0.516
666	-0.549
666	-0.586
667	-0.624
667	-0.67
668	-0.715
668	-0.771
669	-0.826
669	-0.886
669	-0.951
670	-1.022
670	-1.127
671	-1.303
671	-1.663
672	-2.122
672	-2.35
672	-2.504
673	-2.62
673	-2.691
674	-2.716
674	-2.726
675	-2.741
675	-2.746
676	-2.748
676	-2.724
676	-2.633
677	-2.515
677	-2.354
678	-2.06
678	-1.516
679	-1.25
679	-1.136
680	-1.058
680	-1.002
680	-0.955
681	-0.925
681	-0.89
682	-0.862
682	-0.831
683	-0.8
683	-0.787
684	-0.769
684	-0.762
684	-0.749
685	-0.739
685	-0.737
686	-0.721
686	-0.714
687	-0.713
687	-0.709
687	-0.713
688	-0.702
688	-0.7
689	-0.707
689	-0.707
690	-0.694
690	-0.687
691	-0.69
691	-0.695
691	-0.695
692	-0.697
692	-0.696
693	-0.706
693	-0.716
694	-0.698
694	-0.699
695	-0.704
695	-0.699
695	-0.707
696	-0.715
696	-0.711
697	-0.708
697	-0.705
698	-0.701
698	-0.698
698	-0.714
699	-0.714
699	-0.714
700	-0.733
700	-0.728
701	-0.717
701	-0.712
702	-0.713
702	-0.714
702	-0.715
703	-0.706
703	-0.693
704	-0.702
704	-0.707
705	-0.696
705	-0.695
705	-0.688
706	-0.681
706	-0.677
707	-0.687
707	-0.691
708	-0.689
708	-0.687
709	-0.69
709	-0.687
709	-0.684
710	-0.692
710	-0.697
711	-0.697
711	-0.699
712	-0.691
712	-0.689
713	-0.694
713	-0.695
713	-0.674
714	-0.679
714	-0.681
715	-0.673
715	-0.681
716	-0.697
716	-0.706
716	-0.708
717	-0.713
717	-0.703
718	-0.696
718	-0.698
719	-0.692
719	-0.686
720	-0.682
720	-0.677
720	-0.669
721	-0.66
721	-0.664
722	-0.662
722	-0.66
723	-0.679
723	-0.69
723	-0.699
724	-0.696
724	-0.704
725	-0.699
725	-0.706
726	-0.709
726	-0.7
727	-0.702
727	-0.711
727	-0.702
728	-0.689
728	-0.687
729	-0.69
729	-0.692
730	-0.696
730	-0.685
730	-0.691
731	-0.695
731	-0.694
732	-0.695
732	-0.689
733	-0.706
733	-0.711
734	-0.721
734	-0.711
734	-0.695
735	-0.687
735	-0.682
736	-0.68
736	-0.675
737	-0.673
737	-0.661
737	-0.653
738	-0.64
738	-0.626
739	-0.63
739	-0.632
740	-0.645
740	-0.645
741	-0.655
741	-0.664
741	-0.676
742	-0.684
742	-0.699
743	-0.706
743	-0.711
744	-0.715
744	-0.724
744	-0.718
745	-0.726
745	-0.716
746	-0.712
746	-0.701
747	-0.706
747	-0.698
748	-0.698
748	-0.702
748	-0.703
749	-0.695
749	-0.699
750	-0.691
750	-0.692
751	-0.692
751	-0.692
751	-0.7
752	-0.701
752	-0.704
753	-0.706
753	-0.697
754	-0.716
754	-0.716
754	-0.724
755	-0.722
755	-0.714
756	-0.717
756	-0.705
757	-0.698
757	-0.688
758	-0.687
758	-0.687
758	-0.682
759	-0.685
759	-0.686
760	-0.689
760	-0.69
761	-0.682
761	-0.686
761	-0.685
762	-0.692
762	-0.691
763	-0.691
763	-0.696
764	-0.694
764	-0.69
764	-0.693
765	-0.693
765	-0.701
766	-0.706
766	-0.708
767	-0.722
767	-0.72
768	-0.717
768	-0.707
768	-0.704
769	-0.706
769	-0.713
770	-0.722
770	-0.727
771	-0.723
771	-0.723
771	-0.728
772	-0.731
772	-0.754
773	-0.757
773	-0.756
774	-0.757
774	-0.739
775	-0.728
775	-0.726
775	-0.731
776	-0.737
776	-0.736
777	-0.735
777	-0.716
778	-0.725
778	-0.734
778	-0.733
779	-0.742
779	-0.756
780	-0.751
780	-0.758
781	-0.75
781	-0.737
781	-0.75
782	-0.773
782	-0.774
783	-0.772
783	-0.778
784	-0.781
784	-0.776
784	-0.796
785	-0.79
785	-0.802
786	-0.809
786	-0.803
787	-0.791
787	-0.799
788	-0.791
788	-0.786
788	-0.79
789	-0.788
789	-0.779
790	-0.776
790	-0.761
791	-0.768
791	-0.766
791	-0.76
792	-0.755
792	-0.762
793	-0.765
793	-0.751
794	-0.746
794	-0.742
794	-0.749
795	-0.77
795	-0.758
796	-0.762
796	-0.76
797	-0.754
797	-0.743
797	-0.737
798	-0.758
798	-0.762
799	-0.76
799	-0.748
800	-0.743
800	-0.75
801	-0.747
801	-0.75
801	-0.748
802	-0.747
802	-0.745
803	-0.738
803	-0.73
804	-0.735
804	-0.743
804	-0.724
805	-0.706
805	-0.698
806	-0.696
806	-0.692
807	-0.694
807	-0.696
807	-0.679
808	-0.677
808	-0.668
809	-0.664
809	-0.666
810	-0.668
810	-0.665
810	-0.663
811	-0.668
811	-0.661
812	-0.655
812	-0.657
813	-0.66
813	-0.663
813	-0.656
814	-0.657
814	-0.662
815	-0.653
815	-0.649
816	-0.643
816	-0.658
817	-0.67
817	-0.676
817	-0.685
818	-0.679
818	-0.677
819	-0.685
819	-0.685
820	-0.695
820	-0.696
820	-0.694
821	-0.691
821	-0.686
822	-0.685
822	-0.672
823	-0.684
823	-0.685
823	-0.682
824	-0.68
824	-0.691
825	-0.69
825	-0.688
826	-0.683
826	-0.677
826	-0.674
827	-0.676
827	-0.663
828	-0.662
828	-0.657
829	-0.651
829	-0.635
829	-0.634
830	-0.633
830	-0.618
831	-0.614
831	-0.605
832	-0.595
832	-0.59
832	-0.585
833	-0.584
833	-0.588
834	-0.583
834	-0.577
835	-0.57
835	-0.571
835	-0.567
836	-0.563
836	-0.562
837	-0.555
837	-0.545
838	-0.534
838	-0.517
839	-0.514
839	-0.502
839	-0.493
840	-0.493
840	-0.484
841	-0.476
841	-0.47
842	-0.462
842	-0.452
842	-0.448
843	-0.446
843	-0.442
844	-0.441
844	-0.429
845	-0.415
845	-0.406
845	-0.396
846	-0.384
846	-0.376
847	-0.367
847	-0.358
848	-0.346
848	-0.331
848	-0.32
849	-0.311
849	-0.301
850	-0.294
850	-0.285
851	-0.274
851	-0.259
851	-0.252
852	-0.238
852	-0.227
853	-0.219
853	-0.209
854	-0.2
854	-0.191
854	-0.182
855	-0.173
855	-0.168
856	-0.163
856	-0.158
857	-0.153
857	-0.147
857	-0.137
858	-0.129
858	-0.123
859	-0.115
859	-0.105
860	-0.098
860	-0.086
860	-0.079
861	-0.071
861	-0.064
862	-0.058
862	-0.053
863	-0.048
863	-0.041
863	-0.037
864	-0.033
864	-0.028
865	-0.024
865	-0.02
866	-0.016
866	-0.012
866	-0.008
867	-0.005
867	-0.001
868	0.002
868	0.005
869	0.008
869	0.011
869	0.013
870	0.015
870	0.016
871	0.018
871	0.019
872	0.019
872	0.02
872	0.02
873	0.02
873	0.02
874	0.02
874	0.019
875	0.019
875	0.018
875	0.018
876	0.018
876	0.017
877	0.017
877	0.016
878	0.015
878	0.015
878	0.014
879	0.013
879	0.013
880	0.012
880	0.012
881	0.011
881	0.01
881	0.01
882	0.01
882	0.009
883	0.009
883	0.009
884	0.009
884	0.01
884	0.01
885	0.009
885	0.009
886	0.008
886	0.007
887	0.007
887	0.006
887	0.004
888	0.004
888	0.003
889	0.002
889	0.002
890	0.001
890	0.001
890	0
891	0.001
891	0
892	0.001
892	0.002
893	0.001
893	0.001
893	0.001
894	0.001
894	0.001
895	0.001
895	0.001
895	0.001
896	0.002
896	0.002
897	0.002
897	0.002
898	0.002
898	0.003
898	0.003
899	0.004
899	0.004
900	0.005
900	0.005
901	0.004
901	0.004
901	0.004
902	0.005
902	0.005
903	0.004
903	0.004
904	0.003
904	0.003
904	0.003
905	0.003
905	0.003
906	0.003
906	0.004
907	0.004
907	0.004
907	0.005
908	0.005
908	0.006
909	0.007
909	0.008
910	0.008
910	0.009
910	0.009
911	0.01
911	0.012
912	0.013
912	0.015
913	0.016
913	0.017
913	0.018
914	0.019
914	0.02
915	0.02
915	0.02
916	0.019
916	0.019
916	0.018
917	0.017
917	0.016
918	0.015
918	0.015
918	0.015
919	0.014
919	0.014
920	0.014
920	0.014
921	0.014
921	0.014
921	0.014
922	0.014
922	0.013
923	0.013
923	0.013
924	0.012
924	0.012
924	0.012
925	0.011
925	0.011
926	0.011
926	0.011
927	0.011
927	0.011
927	0.012
928	0.012
928	0.012
929	0.013
929	0.014
930	0.014
930	0.015
930	0.016
931	0.017
931	0.017
932	0.018
932	0.018
933	0.019
933	0.019
933	0.019
934	0.019
934	0.018
935	0.018
935	0.017
935	0.015
936	0.014
936	0.012
937	0.011
937	0.01
938	0.008
938	0.007
938	0.006
939	0.005
939	0.005
940	0.005
940	0.005
941	0.004
941	0.004
941	0.004
942	0.004
942	0.004
943	0.005
943	0.005
944	0.004
944	0.004
944	0.004
945	0.004
945	0.004
946	0.004
946	0.003
946	0.003
947	0.003
947	0.002
948	0.001
948	0.001
949	0.001
949	0.001
949	0.002
950	0.002
950	0.002
951	0.002
951	0.003
952	0.003
952	0.004
952	0.004
953	0.005
953	0.006
954	0.006
954	0.006
955	0.006
955	0.006
955	0.006
956	0.006
956	0.006
957	0.005
957	0.004
957	0.003
958	0.003
958	0.003
959	0.003
959	0.002
960	0.002
960	0.002
960	0.002
961	0.001
961	0.001
962	0.001
962	0.002
963	0.002
963	0.002
963	0.002
964	0.002
964	0.002
965	0.002
965	0.002
966	0.002
966	0.002
966	0.003
967	0.003
967	0.003
968	0.002
968	0.002
968	0.002
969	0.002
969	0.001
970	0
970	-0
971	-0.001
971	-0.002
971	-0.002
972	-0.002
972	-0.002
973	-0.002
973	-0.002
974	-0.001
974	-0
974	0.001
975	0.002
975	0.003
976	0.004
976	0.005
976	0.006
977	0.007
977	0.007
978	0.008
978	0.007
979	0.007
979	0.007
979	0.007
980	0.006
980	0.006
981	0.006
981	0.005
982	0.005
982	0.005
982	0.005
983	0.005
983	0.005
984	0.005
984	0.005
984	0.005
985	0.005
985	0.005
986	0.005
986	0.004
987	0.003
987	0.002
987	0.002
988	0.002
988	0.001
989	0
989	-0
990	-0.001
990	-0.002
990	-0.002
991	-0.003
991	-0.003
992	-0.003
992	-0.003
992	-0.003
993	-0.003
993	-0.003
994	-0.004
994	-0.004
995	-0.004
995	-0.004
995	-0.004
996	-0.004
996	-0.005
997	-0.005
997	-0.006
997	-0.006
998	-0.005
998	-0.005
999	-0.005
999	-0.005
1000	-0.005
1000	-0.004
1000	-0.004
1001	-0.004
1001	-0.003
1002	-0.003
1002	-0.003
1003	-0.003
1003	-0.003
1003	-0.003
1004	-0.003
1004	-0.004
1005	-0.004
1005	-0.005
1005	-0.006
1006	-0.007
1006	-0.007
1007	-0.007
1007	-0.008
1008	-0.008
1008	-0.009
1008	-0.009
1009	-0.009
1009	-0.008
1010	-0.008
1010	-0.008
1010	-0.007
1011	-0.007
1011	-0.007
1012	-0.007
1012	-0.006
1013	-0.006
1013	-0.005
1013	-0.005
1014	-0.005
1014	-0.005
1015	-0.004
1015	-0.004
1016	-0.003
1016	-0.003
1016	-0.003
1017	-0.003
1017	-0.003
1018	-0.003
1018	-0.003
1018	-0.003
1019	-0.003
1019	-0.003
1020	-0.004
1020	-0.005
1021	-0.005
1021	-0.006
1021	-0.006
1022	-0.007
1022	-0.008
1023	-0.008
1023	-0.009
1023	-0.01
1024	-0.01
1024	-0.011
1025	-0.012
1025	-0.012
1026	-0.013
1026	-0.013
1026	-0.013
1027	-0.013
1027	-0.013
1028	-0.013
1028	-0.013
1028	-0.013
1029	-0.013
1029	-0.013
1030	-0.013
1030	-0.013
1031	-0.013
1031	-0.012
1031	-0.013
1032	-0.013
1032	-0.013
1033	-0.013
1033	-0.013
1033	-0.013
1034	-0.014
1034	-0.014
1035	-0.013
1035	-0.014
1036	-0.014
1036	-0.014
1036	-0.013
1037	-0.013
1037	-0.012
1038	-0.012
1038	-0.011
1039	-0.01
1039	-0.009
1039	-0.009
1040	-0.008
1040	-0.008
1041	-0.008
1041	-0.008
1041	-0.008
1042	-0.009
1042	-0.01
1043	-0.011
1043	-0.012
1044	-0.012
1044	-0.014
1044	-0.014
1045	-0.015
1045	-0.016
1046	-0.017
1046	-0.017
1046	-0.018
1047	-0.018
1047	-0.018
1048	-0.018
1048	-0.018
1049	-0.018
1049	-0.019
1049	-0.019
1050	-0.02
1050	-0.021
1051	-0.022
1051	-0.022
1051	-0.023
1052	-0.023
1052	-0.024
1053	-0.025
1053	-0.025
1053	-0.025
1054	-0.025
1054	-0.025
1055	-0.024
1055	-0.024
1056	-0.024
1056	-0.025
1056	-0.025
1057	-0.025
1057	-0.025
1058	-0.026
1058	-0.026
1058	-0.026
1059	-0.026
1059	-0.026
1060	-0.027
1060	-0.026
1061	-0.026
1061	-0.026
1061	-0.025
1062	-0.025
1062	-0.025
1063	-0.025
1063	-0.026
1063	-0.026
1064	-0.026
1064	-0.026
1065	-0.026
1065	-0.026
1066	-0.026
1066	-0.027
1066	-0.026
1067	-0.027
1067	-0.027
1068	-0.027
1068	-0.027
1068	-0.028
1069	-0.028
1069	-0.029
1070	-0.029
1070	-0.03
1071	-0.03
1071	-0.03
1071	-0.031
1072	-0.031
1072	-0.031
1073	-0.031
1073	-0.03
1073	-0.03
1074	-0.03
1074	-0.03
1075	-0.03
1075	-0.03
1076	-0.031
1076	-0.031
1076	-0.031
1077	-0.032
1077	-0.033
1078	-0.034
1078	-0.035
1078	-0.035
1079	-0.036
1079	-0.036
1080	-0.037
1080	-0.037
1080	-0.038
1081	-0.039
1081	-0.039
1082	-0.039
1082	-0.04
1083	-0.04
1083	-0.041
1083	-0.041
1084	-0.042
1084	-0.042
1085	-0.043
1085	-0.043
1085	-0.043
1086	-0.044
1086	-0.044
1087	-0.045
1087	-0.045
1088	-0.046
1088	-0.047
1088	-0.047
1089	-0.048
1089	-0.049
1090	-0.05
1090	-0.05
1090	-0.052
1091	-0.053
1091	-0.054
1092	-0.055
1092	-0.055
1092	-0.055
1093	-0.056
1093	-0.056
1094	-0.057
1094	-0.057
1095	-0.058
1095	-0.058
1095	-0.059
1096	-0.06
1096	-0.061
1097	-0.062
1097	-0.063
1097	-0.065
1098	-0.066
1098	-0.068
1099	-0.069
1099	-0.069
1100	-0.07
1100	-0.072
1100	-0.074
1101	-0.076
1101	-0.078
1102	-0.08
1102	-0.082
1102	-0.083
1103	-0.085
1103	-0.087
1104	-0.09
1104	-0.093
1104	-0.094
1105	-0.096
1105	-0.098
1106	-0.103
1106	-0.105
1107	-0.109
1107	-0.113
1107	-0.116
1108	-0.118
1108	-0.119
1109	-0.123
1109	-0.126
1109	-0.13
1110	-0.132
1110	-0.134
1111	-0.14
1111	-0.139
