Data from 3.5A_17C_Absorbance__86__00088.txt Node

Date: Tue Jun 20 14:59:19 CEST 2023
User: Marek
Spectrometer: MAYP115816
Trigger mode: 0
Integration Time (sec): 2.200000E-1
Scans to average: 10
Electric dark correction enabled: true
Nonlinearity correction enabled: true
Boxcar width: 5
XAxis mode: Wavelengths
Number of Pixels in Spectrum: 2068
>>>>>Begin Spectral Data<<<<<
199	-0.538
199	-0.512
200	-0.472
200	-0.419
201	-0.392
201	-0.384
202	-0.36
202	-0.351
203	-0.349
203	-0.343
204	-0.326
204	-0.31
205	-0.289
205	-0.281
205	-0.29
206	-0.292
206	-0.289
207	-0.286
207	-0.294
208	-0.296
208	-0.3
209	-0.3
209	-0.305
210	-0.316
210	-0.321
211	-0.313
211	-0.316
212	-0.322
212	-0.327
213	-0.321
213	-0.317
213	-0.315
214	-0.322
214	-0.324
215	-0.321
215	-0.327
216	-0.338
216	-0.343
217	-0.342
217	-0.343
218	-0.352
218	-0.352
219	-0.358
219	-0.358
220	-0.359
220	-0.363
221	-0.363
221	-0.361
221	-0.353
222	-0.353
222	-0.352
223	-0.349
223	-0.353
224	-0.353
224	-0.354
225	-0.354
225	-0.357
226	-0.359
226	-0.36
227	-0.366
227	-0.374
228	-0.376
228	-0.384
229	-0.387
229	-0.384
229	-0.382
230	-0.377
230	-0.375
231	-0.37
231	-0.365
232	-0.369
232	-0.362
233	-0.361
233	-0.351
234	-0.349
234	-0.348
235	-0.351
235	-0.362
236	-0.366
236	-0.368
236	-0.366
237	-0.364
237	-0.369
238	-0.37
238	-0.369
239	-0.372
239	-0.379
240	-0.373
240	-0.37
241	-0.371
241	-0.375
242	-0.378
242	-0.387
243	-0.385
243	-0.386
243	-0.393
244	-0.391
244	-0.393
245	-0.395
245	-0.4
246	-0.407
246	-0.409
247	-0.416
247	-0.401
248	-0.401
248	-0.402
249	-0.407
249	-0.407
250	-0.406
250	-0.414
250	-0.409
251	-0.408
251	-0.402
252	-0.403
252	-0.414
253	-0.408
253	-0.422
254	-0.425
254	-0.427
255	-0.435
255	-0.435
256	-0.439
256	-0.45
257	-0.46
257	-0.455
258	-0.455
258	-0.464
258	-0.457
259	-0.45
259	-0.463
260	-0.46
260	-0.447
261	-0.456
261	-0.442
262	-0.448
262	-0.447
263	-0.439
263	-0.445
264	-0.455
264	-0.458
265	-0.45
265	-0.453
265	-0.463
266	-0.453
266	-0.452
267	-0.45
267	-0.464
268	-0.47
268	-0.461
269	-0.454
269	-0.463
270	-0.468
270	-0.466
271	-0.481
271	-0.492
272	-0.493
272	-0.496
272	-0.487
273	-0.498
273	-0.513
274	-0.505
274	-0.5
275	-0.499
275	-0.486
276	-0.487
276	-0.487
277	-0.488
277	-0.487
278	-0.492
278	-0.492
278	-0.482
279	-0.489
279	-0.502
280	-0.503
280	-0.513
281	-0.509
281	-0.506
282	-0.516
282	-0.509
283	-0.506
283	-0.521
284	-0.529
284	-0.539
285	-0.519
285	-0.525
285	-0.517
286	-0.52
286	-0.533
287	-0.525
287	-0.522
288	-0.52
288	-0.499
289	-0.497
289	-0.503
290	-0.511
290	-0.501
291	-0.505
291	-0.504
292	-0.487
292	-0.486
292	-0.491
293	-0.48
293	-0.475
294	-0.474
294	-0.459
295	-0.442
295	-0.455
296	-0.466
296	-0.458
297	-0.447
297	-0.451
298	-0.449
298	-0.462
298	-0.465
299	-0.452
299	-0.448
300	-0.445
300	-0.427
301	-0.408
301	-0.407
302	-0.414
302	-0.398
303	-0.392
303	-0.382
304	-0.369
304	-0.375
305	-0.367
305	-0.374
305	-0.39
306	-0.378
306	-0.377
307	-0.37
307	-0.381
308	-0.383
308	-0.381
309	-0.382
309	-0.373
310	-0.374
310	-0.37
311	-0.353
311	-0.369
311	-0.363
312	-0.36
312	-0.351
313	-0.344
313	-0.343
314	-0.344
314	-0.346
315	-0.342
315	-0.337
316	-0.333
316	-0.323
317	-0.316
317	-0.315
318	-0.307
318	-0.305
318	-0.299
319	-0.29
319	-0.279
320	-0.279
320	-0.278
321	-0.272
321	-0.273
322	-0.265
322	-0.257
323	-0.259
323	-0.25
324	-0.248
324	-0.241
324	-0.229
325	-0.215
325	-0.196
326	-0.191
326	-0.168
327	-0.158
327	-0.14
328	-0.111
328	-0.089
329	-0.062
329	-0.038
330	-0.017
330	0.013
330	0.041
331	0.072
331	0.1
332	0.129
332	0.154
333	0.178
333	0.204
334	0.225
334	0.242
335	0.261
335	0.277
336	0.293
336	0.307
336	0.317
337	0.329
337	0.34
338	0.348
338	0.354
339	0.362
339	0.369
340	0.374
340	0.379
341	0.383
341	0.386
342	0.391
342	0.394
342	0.396
343	0.399
343	0.402
344	0.403
344	0.405
345	0.407
345	0.408
346	0.409
346	0.41
347	0.411
347	0.411
348	0.412
348	0.413
348	0.413
349	0.414
349	0.414
350	0.414
350	0.414
351	0.414
351	0.414
352	0.414
352	0.414
353	0.414
353	0.414
354	0.414
354	0.414
354	0.414
355	0.414
355	0.414
356	0.414
356	0.414
357	0.416
357	0.416
358	0.415
358	0.415
359	0.414
359	0.414
360	0.414
360	0.414
360	0.414
361	0.413
361	0.413
362	0.412
362	0.411
363	0.411
363	0.411
364	0.411
364	0.411
365	0.411
365	0.41
366	0.41
366	0.41
366	0.41
367	0.41
367	0.409
368	0.409
368	0.408
369	0.408
369	0.407
370	0.407
370	0.407
371	0.406
371	0.406
372	0.405
372	0.405
372	0.405
373	0.404
373	0.404
374	0.403
374	0.403
375	0.402
375	0.402
376	0.402
376	0.401
377	0.401
377	0.4
378	0.399
378	0.399
378	0.399
379	0.398
379	0.398
380	0.398
380	0.397
381	0.397
381	0.397
382	0.396
382	0.396
383	0.395
383	0.395
383	0.394
384	0.394
384	0.393
385	0.392
385	0.392
386	0.391
386	0.391
387	0.39
387	0.39
388	0.389
388	0.389
389	0.389
389	0.388
389	0.388
390	0.388
390	0.387
391	0.387
391	0.386
392	0.386
392	0.385
393	0.385
393	0.384
394	0.384
394	0.384
394	0.383
395	0.383
395	0.382
396	0.382
396	0.381
397	0.381
397	0.38
398	0.38
398	0.379
399	0.379
399	0.378
400	0.378
400	0.377
400	0.377
401	0.377
401	0.376
402	0.376
402	0.375
403	0.375
403	0.374
404	0.374
404	0.373
405	0.373
405	0.373
405	0.372
406	0.372
406	0.372
407	0.371
407	0.371
408	0.371
408	0.37
409	0.37
409	0.37
410	0.37
410	0.369
411	0.369
411	0.369
411	0.368
412	0.368
412	0.367
413	0.367
413	0.367
414	0.367
414	0.366
415	0.366
415	0.366
416	0.366
416	0.365
416	0.365
417	0.365
417	0.364
418	0.364
418	0.364
419	0.364
419	0.364
420	0.364
420	0.364
421	0.363
421	0.363
421	0.363
422	0.363
422	0.363
423	0.363
423	0.363
424	0.362
424	0.362
425	0.362
425	0.362
426	0.361
426	0.361
427	0.361
427	0.361
427	0.361
428	0.36
428	0.36
429	0.36
429	0.359
430	0.359
430	0.359
431	0.359
431	0.358
432	0.358
432	0.358
432	0.358
433	0.358
433	0.357
434	0.358
434	0.358
435	0.358
435	0.358
436	0.358
436	0.358
437	0.358
437	0.358
437	0.357
438	0.358
438	0.358
439	0.358
439	0.358
440	0.358
440	0.358
441	0.358
441	0.357
442	0.357
442	0.357
442	0.357
443	0.357
443	0.357
444	0.358
444	0.357
445	0.357
445	0.357
446	0.357
446	0.358
447	0.358
447	0.358
447	0.358
448	0.358
448	0.358
449	0.358
449	0.358
450	0.359
450	0.359
451	0.359
451	0.359
452	0.359
452	0.359
452	0.359
453	0.359
453	0.359
454	0.36
454	0.36
455	0.36
455	0.36
456	0.361
456	0.361
457	0.361
457	0.361
458	0.362
458	0.362
458	0.362
459	0.363
459	0.363
460	0.363
460	0.363
461	0.363
461	0.363
462	0.364
462	0.365
463	0.366
463	0.366
463	0.367
464	0.367
464	0.368
465	0.369
465	0.369
466	0.37
466	0.371
467	0.371
467	0.372
467	0.372
468	0.373
468	0.373
469	0.374
469	0.375
470	0.376
470	0.376
471	0.377
471	0.378
472	0.379
472	0.38
472	0.381
473	0.382
473	0.383
474	0.384
474	0.385
475	0.386
475	0.387
476	0.388
476	0.39
477	0.391
477	0.392
477	0.393
478	0.394
478	0.396
479	0.397
479	0.399
480	0.4
480	0.401
481	0.403
481	0.404
482	0.406
482	0.407
482	0.409
483	0.412
483	0.414
484	0.416
484	0.417
485	0.42
485	0.422
486	0.424
486	0.425
487	0.427
487	0.429
487	0.431
488	0.433
488	0.435
489	0.437
489	0.44
490	0.442
490	0.445
491	0.448
491	0.45
492	0.453
492	0.456
492	0.459
493	0.461
493	0.464
494	0.467
494	0.47
495	0.473
495	0.476
496	0.479
496	0.482
496	0.485
497	0.488
497	0.492
498	0.495
498	0.498
499	0.502
499	0.505
500	0.509
500	0.513
501	0.516
501	0.52
501	0.523
502	0.527
502	0.53
503	0.534
503	0.538
504	0.541
504	0.545
505	0.549
505	0.553
506	0.557
506	0.561
506	0.565
507	0.569
507	0.573
508	0.577
508	0.581
509	0.585
509	0.589
510	0.592
510	0.596
511	0.6
511	0.603
511	0.606
512	0.61
512	0.613
513	0.616
513	0.62
514	0.623
514	0.626
515	0.629
515	0.632
515	0.635
516	0.638
516	0.641
517	0.644
517	0.647
518	0.649
518	0.651
519	0.653
519	0.655
520	0.658
520	0.66
520	0.662
521	0.664
521	0.666
522	0.667
522	0.669
523	0.671
523	0.672
524	0.673
524	0.674
524	0.675
525	0.676
525	0.677
526	0.677
526	0.678
527	0.678
527	0.678
528	0.677
528	0.677
529	0.677
529	0.676
529	0.675
530	0.674
530	0.673
531	0.671
531	0.67
532	0.668
532	0.667
533	0.665
533	0.663
533	0.66
534	0.658
534	0.656
535	0.653
535	0.651
536	0.648
536	0.646
537	0.643
537	0.64
538	0.637
538	0.634
538	0.63
539	0.627
539	0.624
540	0.62
540	0.617
541	0.613
541	0.609
542	0.605
542	0.6
542	0.595
543	0.591
543	0.586
544	0.582
544	0.577
545	0.572
545	0.567
546	0.561
546	0.556
547	0.551
547	0.546
547	0.541
548	0.536
548	0.531
549	0.526
549	0.521
550	0.516
550	0.511
551	0.505
551	0.5
551	0.494
552	0.489
552	0.484
553	0.478
553	0.473
554	0.467
554	0.462
555	0.456
555	0.451
556	0.445
556	0.44
556	0.434
557	0.429
557	0.424
558	0.418
558	0.413
559	0.407
559	0.402
560	0.397
560	0.392
560	0.388
561	0.384
561	0.38
562	0.375
562	0.371
563	0.367
563	0.362
564	0.358
564	0.354
564	0.349
565	0.345
565	0.341
566	0.336
566	0.332
567	0.328
567	0.323
568	0.318
568	0.313
568	0.309
569	0.304
569	0.299
570	0.294
570	0.29
571	0.287
571	0.282
572	0.278
572	0.274
573	0.27
573	0.267
573	0.263
574	0.26
574	0.257
575	0.254
575	0.252
576	0.248
576	0.245
577	0.242
577	0.239
577	0.236
578	0.234
578	0.231
579	0.229
579	0.226
580	0.223
580	0.22
581	0.217
581	0.214
581	0.212
582	0.21
582	0.207
583	0.205
583	0.202
584	0.198
584	0.194
585	0.192
585	0.189
585	0.186
586	0.183
586	0.181
587	0.178
587	0.176
588	0.173
588	0.171
589	0.17
589	0.168
590	0.166
590	0.165
590	0.164
591	0.162
591	0.16
592	0.158
592	0.156
593	0.155
593	0.153
594	0.151
594	0.149
594	0.148
595	0.146
595	0.144
596	0.142
596	0.141
597	0.14
597	0.138
598	0.136
598	0.135
598	0.133
599	0.132
599	0.131
600	0.129
600	0.128
601	0.127
601	0.126
602	0.125
602	0.124
602	0.123
603	0.122
603	0.121
604	0.12
604	0.119
605	0.118
605	0.117
606	0.116
606	0.114
606	0.113
607	0.111
607	0.11
608	0.109
608	0.107
609	0.106
609	0.105
610	0.104
610	0.102
610	0.101
611	0.1
611	0.099
612	0.099
612	0.098
613	0.097
613	0.097
614	0.096
614	0.095
614	0.095
615	0.094
615	0.093
616	0.093
616	0.092
617	0.091
617	0.091
618	0.09
618	0.089
618	0.089
619	0.088
619	0.088
620	0.088
620	0.087
621	0.085
621	0.085
622	0.084
622	0.082
622	0.081
623	0.08
623	0.08
624	0.079
624	0.078
625	0.078
625	0.077
626	0.077
626	0.076
626	0.077
627	0.076
627	0.076
628	0.075
628	0.075
629	0.074
629	0.073
630	0.072
630	0.071
630	0.07
631	0.07
631	0.069
632	0.068
632	0.067
633	0.066
633	0.066
634	0.065
634	0.065
634	0.064
635	0.063
635	0.062
636	0.061
636	0.06
637	0.059
637	0.058
638	0.057
638	0.056
638	0.055
639	0.054
639	0.053
640	0.052
640	0.051
641	0.05
641	0.05
642	0.049
642	0.048
642	0.047
643	0.046
643	0.045
644	0.045
644	0.044
645	0.043
645	0.043
646	0.042
646	0.04
646	0.039
647	0.037
647	0.035
648	0.033
648	0.031
649	0.029
649	0.027
650	0.025
650	0.023
650	0.021
651	0.017
651	0.013
652	0.009
652	0.005
653	0.001
653	-0.002
653	-0
654	0.005
654	0.004
655	0.001
655	-0.001
656	-0.003
656	-0.006
657	-0.007
657	-0.01
657	-0.013
658	-0.016
658	-0.027
659	-0.061
659	-0.092
660	-0.108
660	-0.12
661	-0.133
661	-0.147
661	-0.161
662	-0.173
662	-0.184
663	-0.199
663	-0.217
664	-0.234
664	-0.254
665	-0.277
665	-0.3
665	-0.32
666	-0.344
666	-0.372
667	-0.401
667	-0.438
668	-0.473
668	-0.522
669	-0.57
669	-0.624
669	-0.688
670	-0.781
670	-1.018
671	-1.405
671	-1.803
672	-2.15
672	-2.369
672	-2.495
673	-2.535
673	-2.547
674	-2.563
674	-2.572
675	-2.586
675	-2.587
676	-2.572
676	-2.514
676	-2.371
677	-2.111
677	-1.617
678	-1.091
678	-0.876
679	-0.788
679	-0.73
680	-0.684
680	-0.653
680	-0.625
681	-0.611
681	-0.587
682	-0.574
682	-0.554
683	-0.532
683	-0.529
684	-0.518
684	-0.515
684	-0.506
685	-0.503
685	-0.509
686	-0.498
686	-0.494
687	-0.494
687	-0.492
687	-0.503
688	-0.494
688	-0.495
689	-0.506
689	-0.508
690	-0.499
690	-0.494
691	-0.497
691	-0.504
691	-0.506
692	-0.508
692	-0.505
693	-0.513
693	-0.526
694	-0.507
694	-0.51
695	-0.514
695	-0.509
695	-0.517
696	-0.524
696	-0.519
697	-0.519
697	-0.517
698	-0.515
698	-0.51
698	-0.529
699	-0.527
699	-0.531
700	-0.55
700	-0.546
701	-0.534
701	-0.529
702	-0.531
702	-0.532
702	-0.534
703	-0.523
703	-0.509
704	-0.52
704	-0.523
705	-0.516
705	-0.512
705	-0.508
706	-0.5
706	-0.497
707	-0.507
707	-0.51
708	-0.51
708	-0.51
709	-0.509
709	-0.504
709	-0.499
710	-0.51
710	-0.515
711	-0.518
711	-0.519
712	-0.511
712	-0.51
713	-0.513
713	-0.513
713	-0.494
714	-0.5
714	-0.504
715	-0.498
715	-0.507
716	-0.52
716	-0.53
716	-0.531
717	-0.535
717	-0.528
718	-0.522
718	-0.526
719	-0.522
719	-0.516
720	-0.511
720	-0.504
720	-0.499
721	-0.49
721	-0.493
722	-0.493
722	-0.489
723	-0.506
723	-0.517
723	-0.525
724	-0.524
724	-0.531
725	-0.526
725	-0.532
726	-0.534
726	-0.529
727	-0.529
727	-0.537
727	-0.528
728	-0.518
728	-0.516
729	-0.519
729	-0.516
730	-0.524
730	-0.515
730	-0.519
731	-0.52
731	-0.52
732	-0.52
732	-0.518
733	-0.53
733	-0.534
734	-0.54
734	-0.535
734	-0.516
735	-0.506
735	-0.507
736	-0.507
736	-0.502
737	-0.504
737	-0.492
737	-0.486
738	-0.476
738	-0.469
739	-0.474
739	-0.474
740	-0.487
740	-0.484
741	-0.493
741	-0.503
741	-0.512
742	-0.521
742	-0.536
743	-0.538
743	-0.539
744	-0.543
744	-0.55
744	-0.546
745	-0.556
745	-0.547
746	-0.541
746	-0.533
747	-0.536
747	-0.527
748	-0.529
748	-0.533
748	-0.532
749	-0.524
749	-0.531
750	-0.522
750	-0.524
751	-0.524
751	-0.522
751	-0.528
752	-0.531
752	-0.535
753	-0.534
753	-0.529
754	-0.548
754	-0.548
754	-0.557
755	-0.555
755	-0.549
756	-0.552
756	-0.539
757	-0.532
757	-0.521
758	-0.522
758	-0.52
758	-0.511
759	-0.516
759	-0.514
760	-0.513
760	-0.515
761	-0.51
761	-0.513
761	-0.513
762	-0.518
762	-0.52
763	-0.521
763	-0.531
764	-0.527
764	-0.524
764	-0.527
765	-0.525
765	-0.533
766	-0.539
766	-0.537
767	-0.554
767	-0.549
768	-0.549
768	-0.538
768	-0.534
769	-0.534
769	-0.544
770	-0.552
770	-0.555
771	-0.55
771	-0.552
771	-0.554
772	-0.557
772	-0.575
773	-0.575
773	-0.575
774	-0.574
774	-0.554
775	-0.541
775	-0.538
775	-0.544
776	-0.552
776	-0.548
777	-0.548
777	-0.532
778	-0.545
778	-0.553
778	-0.555
779	-0.568
779	-0.582
780	-0.578
780	-0.584
781	-0.572
781	-0.564
781	-0.577
782	-0.596
782	-0.593
783	-0.592
783	-0.597
784	-0.6
784	-0.596
784	-0.614
785	-0.61
785	-0.622
786	-0.627
786	-0.617
787	-0.608
787	-0.616
788	-0.608
788	-0.602
788	-0.604
789	-0.601
789	-0.59
790	-0.587
790	-0.576
791	-0.581
791	-0.582
791	-0.578
792	-0.576
792	-0.581
793	-0.581
793	-0.571
794	-0.568
794	-0.564
794	-0.571
795	-0.59
795	-0.576
796	-0.582
796	-0.577
797	-0.568
797	-0.562
797	-0.558
798	-0.575
798	-0.582
799	-0.581
799	-0.569
800	-0.565
800	-0.577
801	-0.576
801	-0.582
801	-0.579
802	-0.579
802	-0.58
803	-0.573
803	-0.564
804	-0.571
804	-0.576
804	-0.56
805	-0.545
805	-0.532
806	-0.532
806	-0.529
807	-0.532
807	-0.531
807	-0.516
808	-0.514
808	-0.506
809	-0.503
809	-0.504
810	-0.504
810	-0.504
810	-0.503
811	-0.507
811	-0.498
812	-0.491
812	-0.493
813	-0.495
813	-0.501
813	-0.496
814	-0.497
814	-0.505
815	-0.498
815	-0.493
816	-0.49
816	-0.504
817	-0.518
817	-0.522
817	-0.53
818	-0.52
818	-0.52
819	-0.531
819	-0.527
820	-0.535
820	-0.535
820	-0.532
821	-0.526
821	-0.519
822	-0.52
822	-0.51
823	-0.521
823	-0.516
823	-0.511
824	-0.508
824	-0.516
825	-0.513
825	-0.513
826	-0.511
826	-0.507
826	-0.504
827	-0.505
827	-0.494
828	-0.495
828	-0.491
829	-0.487
829	-0.476
829	-0.474
830	-0.476
830	-0.462
831	-0.461
831	-0.453
832	-0.447
832	-0.445
832	-0.441
833	-0.442
833	-0.451
834	-0.448
834	-0.444
835	-0.435
835	-0.437
835	-0.431
836	-0.428
836	-0.424
837	-0.416
837	-0.405
838	-0.392
838	-0.372
839	-0.367
839	-0.359
839	-0.352
840	-0.349
840	-0.341
841	-0.331
841	-0.326
842	-0.318
842	-0.312
842	-0.311
843	-0.31
843	-0.307
844	-0.306
844	-0.298
845	-0.289
845	-0.283
845	-0.277
846	-0.27
846	-0.264
847	-0.258
847	-0.25
848	-0.241
848	-0.229
848	-0.22
849	-0.215
849	-0.208
850	-0.203
850	-0.197
851	-0.188
851	-0.179
851	-0.172
852	-0.163
852	-0.155
853	-0.153
853	-0.146
854	-0.139
854	-0.132
854	-0.124
855	-0.117
855	-0.113
856	-0.109
856	-0.106
857	-0.1
857	-0.096
857	-0.088
858	-0.082
858	-0.078
859	-0.073
859	-0.067
860	-0.062
860	-0.054
860	-0.049
861	-0.044
861	-0.04
862	-0.037
862	-0.033
863	-0.028
863	-0.024
863	-0.021
864	-0.018
864	-0.015
865	-0.012
865	-0.01
866	-0.007
866	-0.004
866	-0.002
867	0.001
867	0.003
868	0.005
868	0.007
869	0.01
869	0.012
869	0.013
870	0.015
870	0.017
871	0.018
871	0.019
872	0.019
872	0.019
872	0.019
873	0.019
873	0.019
874	0.018
874	0.018
875	0.017
875	0.017
875	0.016
876	0.016
876	0.015
877	0.015
877	0.014
878	0.013
878	0.013
878	0.012
879	0.011
879	0.01
880	0.01
880	0.01
881	0.009
881	0.009
881	0.009
882	0.009
882	0.009
883	0.009
883	0.008
884	0.008
884	0.009
884	0.008
885	0.008
885	0.007
886	0.007
886	0.006
887	0.005
887	0.004
887	0.003
888	0.002
888	0.002
889	0.001
889	-0
890	-0.001
890	-0.001
890	-0.001
891	-0.001
891	-0.001
892	-0
892	0
893	0.001
893	0.002
893	0.002
894	0.003
894	0.003
895	0.003
895	0.004
895	0.004
896	0.004
896	0.004
897	0.004
897	0.004
898	0.004
898	0.004
898	0.004
899	0.005
899	0.005
900	0.005
900	0.004
901	0.004
901	0.004
901	0.003
902	0.003
902	0.003
903	0.002
903	0.002
904	0.001
904	0
904	-0
905	-0.001
905	-0
906	-0
906	0
907	0.001
907	0.001
907	0.002
908	0.003
908	0.004
909	0.004
909	0.005
910	0.005
910	0.005
910	0.005
911	0.006
911	0.006
912	0.008
912	0.009
913	0.01
913	0.01
913	0.011
914	0.012
914	0.012
915	0.013
915	0.013
916	0.013
916	0.012
916	0.011
917	0.01
917	0.009
918	0.009
918	0.008
918	0.007
919	0.007
919	0.007
920	0.007
920	0.007
921	0.007
921	0.007
921	0.007
922	0.008
922	0.008
923	0.008
923	0.008
924	0.008
924	0.008
924	0.008
925	0.007
925	0.007
926	0.006
926	0.006
927	0.006
927	0.006
927	0.006
928	0.006
928	0.006
929	0.007
929	0.007
930	0.008
930	0.009
930	0.01
931	0.011
931	0.012
932	0.014
932	0.015
933	0.016
933	0.017
933	0.018
934	0.018
934	0.018
935	0.019
935	0.018
935	0.017
936	0.017
936	0.016
937	0.015
937	0.014
938	0.013
938	0.011
938	0.011
939	0.01
939	0.009
940	0.009
940	0.009
941	0.008
941	0.008
941	0.008
942	0.009
942	0.009
943	0.009
943	0.01
944	0.01
944	0.009
944	0.009
945	0.01
945	0.01
946	0.009
946	0.008
946	0.008
947	0.007
947	0.006
948	0.005
948	0.005
949	0.004
949	0.004
949	0.004
950	0.004
950	0.005
951	0.005
951	0.005
952	0.006
952	0.007
952	0.008
953	0.008
953	0.009
954	0.009
954	0.009
955	0.009
955	0.009
955	0.009
956	0.008
956	0.008
957	0.007
957	0.006
957	0.005
958	0.005
958	0.004
959	0.004
959	0.004
960	0.004
960	0.004
960	0.004
961	0.004
961	0.004
962	0.004
962	0.005
963	0.005
963	0.006
963	0.006
964	0.007
964	0.007
965	0.008
965	0.009
966	0.009
966	0.01
966	0.011
967	0.012
967	0.012
968	0.012
968	0.012
968	0.012
969	0.012
969	0.011
970	0.01
970	0.01
971	0.009
971	0.009
971	0.008
972	0.008
972	0.008
973	0.008
973	0.008
974	0.008
974	0.008
974	0.009
975	0.01
975	0.01
976	0.01
976	0.011
976	0.011
977	0.011
977	0.011
978	0.01
978	0.009
979	0.009
979	0.008
979	0.007
980	0.006
980	0.005
981	0.004
981	0.004
982	0.003
982	0.003
982	0.003
983	0.003
983	0.003
984	0.003
984	0.003
984	0.003
985	0.004
985	0.004
986	0.004
986	0.005
987	0.005
987	0.005
987	0.005
988	0.005
988	0.005
989	0.004
989	0.004
990	0.003
990	0.003
990	0.002
991	0.001
991	0.001
992	0.001
992	0.001
992	0
993	0
993	0
994	-0
994	-0
995	0
995	0
995	0
996	0
996	-0
997	-0
997	-0
997	-0
998	0
998	0.001
999	0.001
999	0.001
1000	0.001
1000	0
1000	0
1001	0
1001	0
1002	0
1002	0
1003	-0
1003	-0
1003	-0.001
1004	-0.001
1004	-0.002
1005	-0.002
1005	-0.003
1005	-0.004
1006	-0.005
1006	-0.005
1007	-0.006
1007	-0.007
1008	-0.008
1008	-0.009
1008	-0.01
1009	-0.01
1009	-0.01
1010	-0.01
1010	-0.009
1010	-0.009
1011	-0.008
1011	-0.008
1012	-0.007
1012	-0.006
1013	-0.005
1013	-0.004
1013	-0.003
1014	-0.003
1014	-0.002
1015	-0.001
1015	-0.001
1016	-0
1016	0
1016	0.001
1017	0.001
1017	0.001
1018	0.001
1018	0.001
1018	0.001
1019	0.001
1019	0.001
1020	0
1020	-0
1021	-0.001
1021	-0.001
1021	-0.002
1022	-0.002
1022	-0.003
1023	-0.004
1023	-0.004
1023	-0.005
1024	-0.006
1024	-0.007
1025	-0.008
1025	-0.009
1026	-0.009
1026	-0.01
1026	-0.011
1027	-0.011
1027	-0.012
1028	-0.012
1028	-0.012
1028	-0.012
1029	-0.012
1029	-0.012
1030	-0.013
1030	-0.013
1031	-0.013
1031	-0.013
1031	-0.013
1032	-0.013
1032	-0.014
1033	-0.014
1033	-0.015
1033	-0.015
1034	-0.015
1034	-0.015
1035	-0.015
1035	-0.015
1036	-0.015
1036	-0.015
1036	-0.014
1037	-0.014
1037	-0.013
1038	-0.012
1038	-0.011
1039	-0.01
1039	-0.009
1039	-0.009
1040	-0.008
1040	-0.007
1041	-0.007
1041	-0.007
1041	-0.007
1042	-0.007
1042	-0.008
1043	-0.008
1043	-0.008
1044	-0.009
1044	-0.01
1044	-0.01
1045	-0.011
1045	-0.012
1046	-0.012
1046	-0.013
1046	-0.013
1047	-0.013
1047	-0.013
1048	-0.013
1048	-0.014
1049	-0.014
1049	-0.015
1049	-0.015
1050	-0.016
1050	-0.017
1051	-0.017
1051	-0.018
1051	-0.019
1052	-0.019
1052	-0.02
1053	-0.02
1053	-0.02
1053	-0.02
1054	-0.02
1054	-0.02
1055	-0.019
1055	-0.019
1056	-0.019
1056	-0.019
1056	-0.019
1057	-0.02
1057	-0.02
1058	-0.02
1058	-0.021
1058	-0.021
1059	-0.021
1059	-0.021
1060	-0.021
1060	-0.02
1061	-0.02
1061	-0.02
1061	-0.019
1062	-0.019
1062	-0.019
1063	-0.019
1063	-0.019
1063	-0.019
1064	-0.019
1064	-0.019
1065	-0.019
1065	-0.019
1066	-0.019
1066	-0.019
1066	-0.019
1067	-0.02
1067	-0.02
1068	-0.02
1068	-0.021
1068	-0.021
1069	-0.022
1069	-0.023
1070	-0.023
1070	-0.024
1071	-0.024
1071	-0.024
1071	-0.025
1072	-0.025
1072	-0.024
1073	-0.024
1073	-0.023
1073	-0.023
1074	-0.022
1074	-0.022
1075	-0.022
1075	-0.022
1076	-0.023
1076	-0.023
1076	-0.023
1077	-0.024
1077	-0.025
1078	-0.026
1078	-0.027
1078	-0.027
1079	-0.028
1079	-0.028
1080	-0.029
1080	-0.029
1080	-0.03
1081	-0.03
1081	-0.03
1082	-0.03
1082	-0.03
1083	-0.031
1083	-0.032
1083	-0.033
1084	-0.033
1084	-0.033
1085	-0.034
1085	-0.034
1085	-0.035
1086	-0.035
1086	-0.036
1087	-0.037
1087	-0.037
1088	-0.038
1088	-0.039
1088	-0.04
1089	-0.04
1089	-0.041
1090	-0.041
1090	-0.041
1090	-0.042
1091	-0.043
1091	-0.043
1092	-0.043
1092	-0.043
1092	-0.044
1093	-0.044
1093	-0.044
1094	-0.044
1094	-0.045
1095	-0.046
1095	-0.045
1095	-0.046
1096	-0.046
1096	-0.047
1097	-0.048
1097	-0.048
1097	-0.049
1098	-0.05
1098	-0.05
1099	-0.051
1099	-0.051
1100	-0.052
1100	-0.053
1100	-0.056
1101	-0.058
1101	-0.059
1102	-0.06
1102	-0.061
1102	-0.062
1103	-0.064
1103	-0.065
1104	-0.067
1104	-0.069
1104	-0.07
1105	-0.071
1105	-0.071
1106	-0.074
1106	-0.075
1107	-0.078
1107	-0.08
1107	-0.082
1108	-0.083
1108	-0.083
1109	-0.085
1109	-0.087
1109	-0.088
1110	-0.089
1110	-0.091
1111	-0.096
1111	-0.091
