Data from 3.5A_17C_Absorbance__352__00354.txt Node

Date: Tue Jun 20 15:09:04 CEST 2023
User: Marek
Spectrometer: MAYP115816
Trigger mode: 0
Integration Time (sec): 2.200000E-1
Scans to average: 10
Electric dark correction enabled: true
Nonlinearity correction enabled: true
Boxcar width: 5
XAxis mode: Wavelengths
Number of Pixels in Spectrum: 2068
>>>>>Begin Spectral Data<<<<<
199	-0.626
199	-0.607
200	-0.579
200	-0.519
201	-0.489
201	-0.483
202	-0.466
202	-0.457
203	-0.457
203	-0.45
204	-0.433
204	-0.418
205	-0.395
205	-0.383
205	-0.394
206	-0.399
206	-0.394
207	-0.385
207	-0.394
208	-0.395
208	-0.401
209	-0.398
209	-0.406
210	-0.418
210	-0.425
211	-0.419
211	-0.419
212	-0.427
212	-0.434
213	-0.429
213	-0.425
213	-0.422
214	-0.431
214	-0.43
215	-0.429
215	-0.434
216	-0.444
216	-0.451
217	-0.45
217	-0.45
218	-0.459
218	-0.461
219	-0.468
219	-0.469
220	-0.473
220	-0.478
221	-0.478
221	-0.478
221	-0.47
222	-0.47
222	-0.467
223	-0.464
223	-0.464
224	-0.465
224	-0.464
225	-0.461
225	-0.462
226	-0.463
226	-0.463
227	-0.473
227	-0.482
228	-0.488
228	-0.497
229	-0.502
229	-0.5
229	-0.5
230	-0.497
230	-0.495
231	-0.49
231	-0.485
232	-0.487
232	-0.481
233	-0.479
233	-0.468
234	-0.468
234	-0.461
235	-0.465
235	-0.475
236	-0.483
236	-0.486
236	-0.485
237	-0.481
237	-0.484
238	-0.484
238	-0.485
239	-0.485
239	-0.496
240	-0.489
240	-0.486
241	-0.481
241	-0.484
242	-0.488
242	-0.497
243	-0.495
243	-0.497
243	-0.5
244	-0.498
244	-0.501
245	-0.502
245	-0.506
246	-0.514
246	-0.513
247	-0.52
247	-0.508
248	-0.508
248	-0.51
249	-0.517
249	-0.517
250	-0.515
250	-0.521
250	-0.517
251	-0.517
251	-0.516
252	-0.517
252	-0.528
253	-0.521
253	-0.532
254	-0.535
254	-0.537
255	-0.546
255	-0.545
256	-0.548
256	-0.562
257	-0.57
257	-0.568
258	-0.568
258	-0.575
258	-0.573
259	-0.565
259	-0.582
260	-0.582
260	-0.574
261	-0.583
261	-0.569
262	-0.575
262	-0.573
263	-0.565
263	-0.571
264	-0.581
264	-0.584
265	-0.575
265	-0.576
265	-0.586
266	-0.576
266	-0.577
267	-0.575
267	-0.589
268	-0.596
268	-0.587
269	-0.58
269	-0.594
270	-0.596
270	-0.594
271	-0.604
271	-0.615
272	-0.614
272	-0.614
272	-0.606
273	-0.617
273	-0.631
274	-0.622
274	-0.613
275	-0.61
275	-0.599
276	-0.603
276	-0.607
277	-0.609
277	-0.608
278	-0.613
278	-0.611
278	-0.602
279	-0.61
279	-0.627
280	-0.631
280	-0.642
281	-0.637
281	-0.63
282	-0.638
282	-0.636
283	-0.628
283	-0.644
284	-0.657
284	-0.668
285	-0.645
285	-0.652
285	-0.645
286	-0.649
286	-0.665
287	-0.658
287	-0.655
288	-0.655
288	-0.637
289	-0.636
289	-0.642
290	-0.652
290	-0.64
291	-0.641
291	-0.64
292	-0.619
292	-0.618
292	-0.621
293	-0.612
293	-0.608
294	-0.607
294	-0.592
295	-0.575
295	-0.587
296	-0.6
296	-0.596
297	-0.585
297	-0.588
298	-0.585
298	-0.6
298	-0.603
299	-0.587
299	-0.581
300	-0.578
300	-0.56
301	-0.541
301	-0.543
302	-0.554
302	-0.542
303	-0.534
303	-0.525
304	-0.509
304	-0.51
305	-0.504
305	-0.513
305	-0.527
306	-0.512
306	-0.511
307	-0.502
307	-0.511
308	-0.515
308	-0.51
309	-0.513
309	-0.508
310	-0.506
310	-0.501
311	-0.487
311	-0.506
311	-0.495
312	-0.494
312	-0.482
313	-0.473
313	-0.473
314	-0.477
314	-0.475
315	-0.472
315	-0.467
316	-0.461
316	-0.448
317	-0.439
317	-0.436
318	-0.43
318	-0.428
318	-0.417
319	-0.407
319	-0.399
320	-0.397
320	-0.395
321	-0.391
321	-0.392
322	-0.386
322	-0.378
323	-0.378
323	-0.37
324	-0.368
324	-0.358
324	-0.346
325	-0.333
325	-0.316
326	-0.308
326	-0.285
327	-0.27
327	-0.251
328	-0.221
328	-0.198
329	-0.171
329	-0.143
330	-0.119
330	-0.084
330	-0.05
331	-0.018
331	0.014
332	0.043
332	0.074
333	0.103
333	0.132
334	0.157
334	0.179
335	0.202
335	0.221
336	0.24
336	0.259
336	0.273
337	0.287
337	0.301
338	0.313
338	0.321
339	0.333
339	0.343
340	0.35
340	0.356
341	0.36
341	0.365
342	0.371
342	0.376
342	0.379
343	0.382
343	0.386
344	0.388
344	0.39
345	0.392
345	0.395
346	0.397
346	0.398
347	0.4
347	0.401
348	0.402
348	0.403
348	0.403
349	0.404
349	0.405
350	0.405
350	0.405
351	0.405
351	0.405
352	0.405
352	0.405
353	0.405
353	0.405
354	0.406
354	0.406
354	0.406
355	0.405
355	0.405
356	0.406
356	0.406
357	0.405
357	0.405
358	0.405
358	0.405
359	0.405
359	0.404
360	0.404
360	0.404
360	0.404
361	0.404
361	0.404
362	0.404
362	0.404
363	0.404
363	0.403
364	0.403
364	0.403
365	0.403
365	0.403
366	0.402
366	0.402
366	0.402
367	0.402
367	0.402
368	0.401
368	0.401
369	0.4
369	0.4
370	0.399
370	0.399
371	0.398
371	0.398
372	0.397
372	0.397
372	0.396
373	0.396
373	0.395
374	0.395
374	0.395
375	0.395
375	0.394
376	0.394
376	0.394
377	0.394
377	0.393
378	0.393
378	0.392
378	0.392
379	0.392
379	0.391
380	0.391
380	0.391
381	0.39
381	0.39
382	0.389
382	0.389
383	0.388
383	0.388
383	0.387
384	0.387
384	0.386
385	0.386
385	0.385
386	0.385
386	0.384
387	0.384
387	0.383
388	0.383
388	0.382
389	0.382
389	0.382
389	0.382
390	0.381
390	0.381
391	0.381
391	0.38
392	0.38
392	0.38
393	0.379
393	0.379
394	0.379
394	0.378
394	0.378
395	0.377
395	0.377
396	0.376
396	0.376
397	0.375
397	0.374
398	0.374
398	0.373
399	0.373
399	0.372
400	0.372
400	0.371
400	0.371
401	0.371
401	0.37
402	0.37
402	0.369
403	0.369
403	0.369
404	0.368
404	0.367
405	0.367
405	0.366
405	0.366
406	0.365
406	0.365
407	0.365
407	0.364
408	0.364
408	0.363
409	0.363
409	0.363
410	0.363
410	0.363
411	0.363
411	0.363
411	0.362
412	0.362
412	0.362
413	0.361
413	0.361
414	0.361
414	0.361
415	0.36
415	0.36
416	0.359
416	0.359
416	0.359
417	0.359
417	0.358
418	0.358
418	0.358
419	0.358
419	0.358
420	0.358
420	0.358
421	0.358
421	0.357
421	0.357
422	0.357
422	0.357
423	0.357
423	0.357
424	0.356
424	0.356
425	0.356
425	0.356
426	0.356
426	0.356
427	0.356
427	0.356
427	0.355
428	0.355
428	0.355
429	0.354
429	0.354
430	0.354
430	0.353
431	0.353
431	0.353
432	0.353
432	0.353
432	0.352
433	0.352
433	0.352
434	0.352
434	0.353
435	0.353
435	0.353
436	0.353
436	0.353
437	0.352
437	0.352
437	0.352
438	0.352
438	0.352
439	0.352
439	0.352
440	0.352
440	0.352
441	0.352
441	0.352
442	0.352
442	0.352
442	0.352
443	0.352
443	0.352
444	0.352
444	0.352
445	0.352
445	0.352
446	0.352
446	0.352
447	0.352
447	0.352
447	0.352
448	0.353
448	0.353
449	0.353
449	0.353
450	0.353
450	0.353
451	0.353
451	0.353
452	0.353
452	0.353
452	0.353
453	0.353
453	0.353
454	0.354
454	0.354
455	0.354
455	0.355
456	0.355
456	0.355
457	0.355
457	0.356
458	0.356
458	0.356
458	0.356
459	0.357
459	0.357
460	0.356
460	0.357
461	0.357
461	0.357
462	0.358
462	0.359
463	0.359
463	0.36
463	0.361
464	0.361
464	0.362
465	0.362
465	0.363
466	0.364
466	0.364
467	0.365
467	0.365
467	0.366
468	0.366
468	0.366
469	0.367
469	0.368
470	0.369
470	0.369
471	0.37
471	0.371
472	0.372
472	0.373
472	0.374
473	0.375
473	0.376
474	0.378
474	0.379
475	0.38
475	0.381
476	0.382
476	0.383
477	0.384
477	0.385
477	0.386
478	0.387
478	0.388
479	0.39
479	0.391
480	0.392
480	0.394
481	0.395
481	0.397
482	0.399
482	0.401
482	0.403
483	0.405
483	0.407
484	0.409
484	0.41
485	0.412
485	0.414
486	0.416
486	0.418
487	0.419
487	0.421
487	0.423
488	0.425
488	0.426
489	0.429
489	0.432
490	0.434
490	0.436
491	0.439
491	0.442
492	0.444
492	0.447
492	0.45
493	0.452
493	0.455
494	0.458
494	0.461
495	0.463
495	0.466
496	0.469
496	0.472
496	0.475
497	0.478
497	0.481
498	0.484
498	0.488
499	0.491
499	0.495
500	0.499
500	0.503
501	0.506
501	0.51
501	0.513
502	0.516
502	0.52
503	0.524
503	0.527
504	0.531
504	0.534
505	0.538
505	0.541
506	0.545
506	0.549
506	0.553
507	0.556
507	0.56
508	0.564
508	0.569
509	0.573
509	0.576
510	0.58
510	0.584
511	0.588
511	0.591
511	0.595
512	0.598
512	0.601
513	0.604
513	0.608
514	0.611
514	0.615
515	0.618
515	0.62
515	0.623
516	0.626
516	0.629
517	0.632
517	0.635
518	0.637
518	0.639
519	0.641
519	0.643
520	0.645
520	0.647
520	0.649
521	0.651
521	0.653
522	0.654
522	0.656
523	0.657
523	0.658
524	0.659
524	0.66
524	0.661
525	0.662
525	0.663
526	0.664
526	0.664
527	0.665
527	0.665
528	0.665
528	0.664
529	0.664
529	0.663
529	0.662
530	0.661
530	0.66
531	0.659
531	0.657
532	0.656
532	0.655
533	0.653
533	0.651
533	0.65
534	0.648
534	0.646
535	0.643
535	0.641
536	0.639
536	0.636
537	0.633
537	0.63
538	0.627
538	0.623
538	0.62
539	0.617
539	0.614
540	0.61
540	0.606
541	0.602
541	0.598
542	0.594
542	0.59
542	0.585
543	0.581
543	0.577
544	0.572
544	0.568
545	0.563
545	0.559
546	0.554
546	0.549
547	0.544
547	0.539
547	0.534
548	0.53
548	0.525
549	0.52
549	0.515
550	0.511
550	0.505
551	0.5
551	0.494
551	0.489
552	0.484
552	0.479
553	0.474
553	0.469
554	0.464
554	0.458
555	0.453
555	0.447
556	0.442
556	0.437
556	0.432
557	0.427
557	0.422
558	0.417
558	0.412
559	0.406
559	0.401
560	0.396
560	0.392
560	0.388
561	0.384
561	0.38
562	0.375
562	0.371
563	0.366
563	0.362
564	0.358
564	0.354
564	0.35
565	0.346
565	0.342
566	0.338
566	0.334
567	0.33
567	0.325
568	0.321
568	0.316
568	0.312
569	0.307
569	0.303
570	0.298
570	0.294
571	0.29
571	0.286
572	0.282
572	0.278
573	0.274
573	0.271
573	0.267
574	0.264
574	0.261
575	0.258
575	0.255
576	0.252
576	0.248
577	0.245
577	0.242
577	0.24
578	0.237
578	0.235
579	0.234
579	0.231
580	0.228
580	0.224
581	0.221
581	0.218
581	0.217
582	0.215
582	0.213
583	0.21
583	0.207
584	0.203
584	0.199
585	0.196
585	0.194
585	0.191
586	0.188
586	0.186
587	0.183
587	0.18
588	0.177
588	0.175
589	0.173
589	0.172
590	0.17
590	0.168
590	0.167
591	0.166
591	0.163
592	0.161
592	0.159
593	0.158
593	0.157
594	0.155
594	0.153
594	0.152
595	0.151
595	0.148
596	0.147
596	0.146
597	0.146
597	0.144
598	0.142
598	0.141
598	0.14
599	0.139
599	0.137
600	0.136
600	0.134
601	0.134
601	0.132
602	0.131
602	0.13
602	0.128
603	0.127
603	0.126
604	0.125
604	0.124
605	0.123
605	0.122
606	0.12
606	0.118
606	0.117
607	0.116
607	0.115
608	0.114
608	0.112
609	0.111
609	0.11
610	0.109
610	0.107
610	0.106
611	0.105
611	0.104
612	0.104
612	0.103
613	0.103
613	0.102
614	0.101
614	0.099
614	0.099
615	0.098
615	0.096
616	0.096
616	0.095
617	0.094
617	0.093
618	0.092
618	0.091
618	0.09
619	0.09
619	0.09
620	0.09
620	0.089
621	0.088
621	0.087
622	0.087
622	0.086
622	0.085
623	0.084
623	0.084
624	0.083
624	0.082
625	0.081
625	0.081
626	0.08
626	0.079
626	0.079
627	0.078
627	0.078
628	0.077
628	0.076
629	0.075
629	0.074
630	0.072
630	0.071
630	0.071
631	0.07
631	0.069
632	0.068
632	0.068
633	0.067
633	0.066
634	0.066
634	0.065
634	0.065
635	0.063
635	0.062
636	0.062
636	0.061
637	0.06
637	0.058
638	0.058
638	0.057
638	0.055
639	0.054
639	0.053
640	0.052
640	0.051
641	0.05
641	0.048
642	0.048
642	0.047
642	0.046
643	0.044
643	0.043
644	0.042
644	0.04
645	0.039
645	0.037
646	0.036
646	0.033
646	0.03
647	0.028
647	0.025
648	0.021
648	0.019
649	0.016
649	0.013
650	0.01
650	0.007
650	0.004
651	0
651	-0.004
652	-0.009
652	-0.015
653	-0.02
653	-0.024
653	-0.02
654	-0.013
654	-0.014
655	-0.018
655	-0.02
656	-0.023
656	-0.027
657	-0.029
657	-0.032
657	-0.035
658	-0.039
658	-0.056
659	-0.099
659	-0.138
660	-0.158
660	-0.171
661	-0.187
661	-0.204
661	-0.223
662	-0.238
662	-0.254
663	-0.272
663	-0.292
664	-0.309
664	-0.332
665	-0.354
665	-0.38
665	-0.399
666	-0.424
666	-0.451
667	-0.48
667	-0.513
668	-0.548
668	-0.593
669	-0.637
669	-0.684
669	-0.74
670	-0.8
670	-0.898
671	-1.095
671	-1.487
672	-1.941
672	-2.25
672	-2.435
673	-2.553
673	-2.583
674	-2.601
674	-2.61
675	-2.625
675	-2.631
676	-2.633
676	-2.611
676	-2.536
677	-2.379
677	-2.128
678	-1.561
678	-1.114
679	-0.962
679	-0.884
680	-0.828
680	-0.79
680	-0.759
681	-0.743
681	-0.717
682	-0.703
682	-0.679
683	-0.657
683	-0.654
684	-0.643
684	-0.638
684	-0.63
685	-0.625
685	-0.628
686	-0.616
686	-0.614
687	-0.612
687	-0.611
687	-0.619
688	-0.611
688	-0.612
689	-0.623
689	-0.626
690	-0.619
690	-0.612
691	-0.615
691	-0.622
691	-0.627
692	-0.63
692	-0.632
693	-0.641
693	-0.656
694	-0.639
694	-0.641
695	-0.646
695	-0.641
695	-0.65
696	-0.659
696	-0.654
697	-0.649
697	-0.645
698	-0.641
698	-0.634
698	-0.65
699	-0.649
699	-0.652
700	-0.675
700	-0.671
701	-0.66
701	-0.653
702	-0.654
702	-0.653
702	-0.653
703	-0.646
703	-0.632
704	-0.638
704	-0.643
705	-0.632
705	-0.63
705	-0.624
706	-0.619
706	-0.618
707	-0.63
707	-0.635
708	-0.634
708	-0.634
709	-0.638
709	-0.634
709	-0.63
710	-0.638
710	-0.642
711	-0.641
711	-0.642
712	-0.636
712	-0.635
713	-0.639
713	-0.64
713	-0.619
714	-0.62
714	-0.625
715	-0.616
715	-0.624
716	-0.643
716	-0.65
716	-0.65
717	-0.657
717	-0.648
718	-0.641
718	-0.644
719	-0.64
719	-0.634
720	-0.631
720	-0.628
720	-0.62
721	-0.612
721	-0.617
722	-0.616
722	-0.615
723	-0.635
723	-0.647
723	-0.656
724	-0.656
724	-0.661
725	-0.655
725	-0.658
726	-0.661
726	-0.652
727	-0.651
727	-0.658
727	-0.648
728	-0.633
728	-0.63
729	-0.631
729	-0.632
730	-0.638
730	-0.629
730	-0.635
731	-0.64
731	-0.641
732	-0.641
732	-0.638
733	-0.653
733	-0.66
734	-0.668
734	-0.662
734	-0.644
735	-0.638
735	-0.634
736	-0.632
736	-0.628
737	-0.63
737	-0.619
737	-0.614
738	-0.6
738	-0.591
739	-0.593
739	-0.593
740	-0.605
740	-0.603
741	-0.613
741	-0.621
741	-0.629
742	-0.634
742	-0.648
743	-0.652
743	-0.654
744	-0.657
744	-0.668
744	-0.662
745	-0.671
745	-0.662
746	-0.658
746	-0.65
747	-0.652
747	-0.643
748	-0.646
748	-0.65
748	-0.653
749	-0.645
749	-0.651
750	-0.645
750	-0.642
751	-0.643
751	-0.638
751	-0.65
752	-0.654
752	-0.657
753	-0.659
753	-0.651
754	-0.67
754	-0.67
754	-0.677
755	-0.68
755	-0.673
756	-0.675
756	-0.663
757	-0.655
757	-0.643
758	-0.643
758	-0.639
758	-0.633
759	-0.639
759	-0.636
760	-0.633
760	-0.633
761	-0.628
761	-0.633
761	-0.631
762	-0.639
762	-0.638
763	-0.639
763	-0.642
764	-0.641
764	-0.638
764	-0.645
765	-0.645
765	-0.65
766	-0.654
766	-0.658
767	-0.672
767	-0.668
768	-0.667
768	-0.661
768	-0.658
769	-0.659
769	-0.664
770	-0.676
770	-0.68
771	-0.675
771	-0.673
771	-0.677
772	-0.681
772	-0.703
773	-0.704
773	-0.704
774	-0.704
774	-0.688
775	-0.674
775	-0.673
775	-0.675
776	-0.685
776	-0.683
777	-0.683
777	-0.662
778	-0.67
778	-0.678
778	-0.678
779	-0.686
779	-0.7
780	-0.696
780	-0.707
781	-0.695
781	-0.685
781	-0.698
782	-0.719
782	-0.719
783	-0.719
783	-0.725
784	-0.73
784	-0.726
784	-0.745
785	-0.737
785	-0.75
786	-0.758
786	-0.752
787	-0.744
787	-0.756
788	-0.748
788	-0.744
788	-0.743
789	-0.744
789	-0.735
790	-0.735
790	-0.721
791	-0.727
791	-0.723
791	-0.718
792	-0.709
792	-0.713
793	-0.716
793	-0.705
794	-0.696
794	-0.691
794	-0.698
795	-0.717
795	-0.702
796	-0.705
796	-0.702
797	-0.696
797	-0.687
797	-0.681
798	-0.702
798	-0.708
799	-0.708
799	-0.694
800	-0.688
800	-0.696
801	-0.697
801	-0.702
801	-0.701
802	-0.7
802	-0.698
803	-0.691
803	-0.686
804	-0.693
804	-0.699
804	-0.685
805	-0.667
805	-0.659
806	-0.659
806	-0.653
807	-0.655
807	-0.654
807	-0.639
808	-0.632
808	-0.623
809	-0.618
809	-0.621
810	-0.622
810	-0.618
810	-0.614
811	-0.618
811	-0.611
812	-0.605
812	-0.608
813	-0.613
813	-0.614
813	-0.611
814	-0.611
814	-0.616
815	-0.609
815	-0.605
816	-0.603
816	-0.618
817	-0.631
817	-0.632
817	-0.64
818	-0.634
818	-0.631
819	-0.639
819	-0.64
820	-0.65
820	-0.648
820	-0.645
821	-0.642
821	-0.637
822	-0.638
822	-0.627
823	-0.639
823	-0.638
823	-0.635
824	-0.633
824	-0.641
825	-0.642
825	-0.641
826	-0.637
826	-0.631
826	-0.629
827	-0.63
827	-0.62
828	-0.62
828	-0.614
829	-0.609
829	-0.597
829	-0.593
830	-0.591
830	-0.576
831	-0.574
831	-0.566
832	-0.557
832	-0.554
832	-0.548
833	-0.547
833	-0.551
834	-0.546
834	-0.543
835	-0.534
835	-0.534
835	-0.53
836	-0.524
836	-0.523
837	-0.513
837	-0.505
838	-0.493
838	-0.478
839	-0.474
839	-0.462
839	-0.456
840	-0.456
840	-0.442
841	-0.434
841	-0.426
842	-0.419
842	-0.41
842	-0.408
843	-0.406
843	-0.401
844	-0.4
844	-0.388
845	-0.377
845	-0.373
845	-0.363
846	-0.354
846	-0.344
847	-0.335
847	-0.326
848	-0.313
848	-0.3
848	-0.288
849	-0.281
849	-0.27
850	-0.262
850	-0.256
851	-0.246
851	-0.235
851	-0.228
852	-0.216
852	-0.207
853	-0.202
853	-0.194
854	-0.186
854	-0.178
854	-0.169
855	-0.16
855	-0.156
856	-0.15
856	-0.145
857	-0.139
857	-0.134
857	-0.123
858	-0.115
858	-0.111
859	-0.105
859	-0.097
860	-0.09
860	-0.079
860	-0.073
861	-0.066
861	-0.059
862	-0.054
862	-0.05
863	-0.044
863	-0.038
863	-0.034
864	-0.031
864	-0.026
865	-0.022
865	-0.019
866	-0.016
866	-0.012
866	-0.009
867	-0.006
867	-0.003
868	-0.001
868	0.003
869	0.006
869	0.008
869	0.011
870	0.012
870	0.014
871	0.016
871	0.017
872	0.017
872	0.018
872	0.018
873	0.018
873	0.018
874	0.017
874	0.017
875	0.016
875	0.015
875	0.015
876	0.014
876	0.014
877	0.013
877	0.012
878	0.011
878	0.01
878	0.009
879	0.009
879	0.008
880	0.008
880	0.007
881	0.007
881	0.007
881	0.007
882	0.007
882	0.006
883	0.006
883	0.006
884	0.006
884	0.006
884	0.005
885	0.005
885	0.004
886	0.003
886	0.002
887	0.001
887	0
887	-0.001
888	-0.002
888	-0.002
889	-0.003
889	-0.003
890	-0.004
890	-0.004
890	-0.004
891	-0.004
891	-0.004
892	-0.003
892	-0.002
893	-0.001
893	-0.001
893	-0.001
894	-0.001
894	-0.001
895	-0.001
895	-0.001
895	-0
896	-0
896	-0
897	0
897	-0
898	0
898	0
898	0.001
899	0.001
899	0.002
900	0.002
900	0.002
901	0.002
901	0.002
901	0.002
902	0.002
902	0.002
903	0.002
903	0.001
904	0
904	-0
904	-0.001
905	-0.001
905	-0.001
906	-0
906	0
907	0
907	0.001
907	0.001
908	0.002
908	0.003
909	0.004
909	0.004
910	0.005
910	0.005
910	0.006
911	0.007
911	0.008
912	0.009
912	0.011
913	0.012
913	0.013
913	0.014
914	0.015
914	0.015
915	0.015
915	0.015
916	0.015
916	0.014
916	0.013
917	0.012
917	0.011
918	0.01
918	0.01
918	0.009
919	0.009
919	0.009
920	0.009
920	0.009
921	0.009
921	0.009
921	0.009
922	0.009
922	0.01
923	0.01
923	0.009
924	0.009
924	0.009
924	0.009
925	0.008
925	0.008
926	0.007
926	0.007
927	0.007
927	0.007
927	0.007
928	0.007
928	0.007
929	0.008
929	0.009
930	0.01
930	0.01
930	0.012
931	0.012
931	0.013
932	0.014
932	0.015
933	0.016
933	0.017
933	0.017
934	0.017
934	0.017
935	0.017
935	0.016
935	0.015
936	0.014
936	0.012
937	0.011
937	0.01
938	0.009
938	0.007
938	0.006
939	0.005
939	0.004
940	0.004
940	0.004
941	0.003
941	0.003
941	0.004
942	0.003
942	0.003
943	0.004
943	0.004
944	0.004
944	0.004
944	0.004
945	0.004
945	0.004
946	0.003
946	0.002
946	0.002
947	0.001
947	0
948	-0.001
948	-0.001
949	-0.002
949	-0.002
949	-0.002
950	-0.002
950	-0.001
951	-0.001
951	-0
952	0
952	0.001
952	0.002
953	0.002
953	0.003
954	0.003
954	0.003
955	0.004
955	0.004
955	0.004
956	0.003
956	0.003
957	0.002
957	0.002
957	0.001
958	0
958	0
959	-0
959	-0.001
960	-0.001
960	-0.001
960	-0.001
961	-0.001
961	-0.001
962	-0.001
962	-0.001
963	-0.001
963	-0.001
963	-0.001
964	-0.001
964	-0
965	-0
965	0
966	0
966	0.001
966	0.001
967	0.002
967	0.002
968	0.003
968	0.003
968	0.003
969	0.002
969	0.002
970	0.001
970	-0
971	-0.001
971	-0.002
971	-0.002
972	-0.003
972	-0.003
973	-0.003
973	-0.003
974	-0.002
974	-0.002
974	-0.001
975	0.001
975	0.002
976	0.003
976	0.004
976	0.005
977	0.005
977	0.006
978	0.006
978	0.006
979	0.006
979	0.005
979	0.005
980	0.004
980	0.003
981	0.003
981	0.002
982	0.002
982	0.002
982	0.002
983	0.002
983	0.002
984	0.002
984	0.002
984	0.002
985	0.002
985	0.002
986	0.002
986	0.002
987	0.001
987	0.001
987	0.001
988	0
988	0
989	-0
989	-0.001
990	-0.002
990	-0.002
990	-0.003
991	-0.003
991	-0.003
992	-0.003
992	-0.003
992	-0.003
993	-0.004
993	-0.004
994	-0.004
994	-0.004
995	-0.004
995	-0.005
995	-0.005
996	-0.006
996	-0.006
997	-0.007
997	-0.007
997	-0.007
998	-0.007
998	-0.006
999	-0.006
999	-0.006
1000	-0.005
1000	-0.005
1000	-0.005
1001	-0.004
1001	-0.004
1002	-0.003
1002	-0.003
1003	-0.003
1003	-0.003
1003	-0.003
1004	-0.003
1004	-0.004
1005	-0.005
1005	-0.006
1005	-0.006
1006	-0.007
1006	-0.008
1007	-0.009
1007	-0.01
1008	-0.01
1008	-0.011
1008	-0.011
1009	-0.012
1009	-0.011
1010	-0.011
1010	-0.011
1010	-0.01
1011	-0.01
1011	-0.01
1012	-0.009
1012	-0.008
1013	-0.008
1013	-0.007
1013	-0.007
1014	-0.006
1014	-0.006
1015	-0.005
1015	-0.005
1016	-0.005
1016	-0.004
1016	-0.004
1017	-0.004
1017	-0.004
1018	-0.004
1018	-0.004
1018	-0.003
1019	-0.004
1019	-0.004
1020	-0.004
1020	-0.005
1021	-0.005
1021	-0.005
1021	-0.006
1022	-0.007
1022	-0.008
1023	-0.008
1023	-0.009
1023	-0.01
1024	-0.011
1024	-0.012
1025	-0.012
1025	-0.013
1026	-0.013
1026	-0.014
1026	-0.014
1027	-0.015
1027	-0.015
1028	-0.015
1028	-0.015
1028	-0.015
1029	-0.015
1029	-0.015
1030	-0.015
1030	-0.015
1031	-0.015
1031	-0.015
1031	-0.015
1032	-0.015
1032	-0.015
1033	-0.016
1033	-0.016
1033	-0.016
1034	-0.016
1034	-0.016
1035	-0.016
1035	-0.016
1036	-0.016
1036	-0.016
1036	-0.015
1037	-0.015
1037	-0.014
1038	-0.014
1038	-0.013
1039	-0.012
1039	-0.012
1039	-0.011
1040	-0.01
1040	-0.01
1041	-0.01
1041	-0.01
1041	-0.01
1042	-0.011
1042	-0.012
1043	-0.013
1043	-0.014
1044	-0.015
1044	-0.016
1044	-0.017
1045	-0.018
1045	-0.019
1046	-0.02
1046	-0.02
1046	-0.02
1047	-0.02
1047	-0.02
1048	-0.02
1048	-0.02
1049	-0.02
1049	-0.021
1049	-0.021
1050	-0.022
1050	-0.022
1051	-0.023
1051	-0.024
1051	-0.024
1052	-0.025
1052	-0.026
1053	-0.026
1053	-0.026
1053	-0.026
1054	-0.026
1054	-0.026
1055	-0.025
1055	-0.025
1056	-0.025
1056	-0.025
1056	-0.026
1057	-0.026
1057	-0.026
1058	-0.027
1058	-0.027
1058	-0.027
1059	-0.027
1059	-0.028
1060	-0.028
1060	-0.028
1061	-0.027
1061	-0.027
1061	-0.026
1062	-0.027
1062	-0.026
1063	-0.026
1063	-0.027
1063	-0.027
1064	-0.027
1064	-0.027
1065	-0.027
1065	-0.027
1066	-0.028
1066	-0.028
1066	-0.028
1067	-0.028
1067	-0.029
1068	-0.029
1068	-0.029
1068	-0.03
1069	-0.03
1069	-0.031
1070	-0.031
1070	-0.032
1071	-0.032
1071	-0.032
1071	-0.033
1072	-0.032
1072	-0.032
1073	-0.031
1073	-0.031
1073	-0.03
1074	-0.03
1074	-0.03
1075	-0.029
1075	-0.03
1076	-0.03
1076	-0.03
1076	-0.03
1077	-0.031
1077	-0.032
1078	-0.033
1078	-0.033
1078	-0.033
1079	-0.034
1079	-0.034
1080	-0.034
1080	-0.035
1080	-0.035
1081	-0.036
1081	-0.036
1082	-0.037
1082	-0.037
1083	-0.038
1083	-0.038
1083	-0.039
1084	-0.04
1084	-0.04
1085	-0.041
1085	-0.041
1085	-0.041
1086	-0.042
1086	-0.042
1087	-0.043
1087	-0.043
1088	-0.044
1088	-0.044
1088	-0.045
1089	-0.046
1089	-0.046
1090	-0.047
1090	-0.047
1090	-0.049
1091	-0.05
1091	-0.05
1092	-0.051
1092	-0.051
1092	-0.052
1093	-0.052
1093	-0.052
1094	-0.053
1094	-0.054
1095	-0.054
1095	-0.054
1095	-0.055
1096	-0.056
1096	-0.057
1097	-0.058
1097	-0.059
1097	-0.06
1098	-0.061
1098	-0.063
1099	-0.064
1099	-0.065
1100	-0.067
1100	-0.068
1100	-0.071
1101	-0.073
1101	-0.075
1102	-0.076
1102	-0.078
1102	-0.079
1103	-0.081
1103	-0.083
1104	-0.086
1104	-0.088
1104	-0.09
1105	-0.09
1105	-0.092
1106	-0.095
1106	-0.096
1107	-0.1
1107	-0.104
1107	-0.107
1108	-0.108
1108	-0.108
1109	-0.111
1109	-0.113
1109	-0.117
1110	-0.119
1110	-0.121
1111	-0.129
1111	-0.128
