Data from 3.5A_17C_Absorbance__293__00295.txt Node

Date: Tue Jun 20 15:06:54 CEST 2023
User: Marek
Spectrometer: MAYP115816
Trigger mode: 0
Integration Time (sec): 2.200000E-1
Scans to average: 10
Electric dark correction enabled: true
Nonlinearity correction enabled: true
Boxcar width: 5
XAxis mode: Wavelengths
Number of Pixels in Spectrum: 2068
>>>>>Begin Spectral Data<<<<<
199	-0.604
199	-0.586
200	-0.547
200	-0.493
201	-0.463
201	-0.456
202	-0.442
202	-0.436
203	-0.435
203	-0.429
204	-0.41
204	-0.393
205	-0.371
205	-0.362
205	-0.373
206	-0.376
206	-0.371
207	-0.361
207	-0.368
208	-0.369
208	-0.372
209	-0.377
209	-0.385
210	-0.398
210	-0.406
211	-0.397
211	-0.403
212	-0.412
212	-0.418
213	-0.415
213	-0.411
213	-0.409
214	-0.414
214	-0.415
215	-0.413
215	-0.417
216	-0.428
216	-0.433
217	-0.43
217	-0.434
218	-0.44
218	-0.442
219	-0.448
219	-0.451
220	-0.453
220	-0.458
221	-0.458
221	-0.456
221	-0.445
222	-0.446
222	-0.445
223	-0.443
223	-0.445
224	-0.445
224	-0.443
225	-0.442
225	-0.444
226	-0.446
226	-0.446
227	-0.455
227	-0.465
228	-0.466
228	-0.474
229	-0.48
229	-0.48
229	-0.479
230	-0.472
230	-0.469
231	-0.465
231	-0.46
232	-0.459
232	-0.456
233	-0.455
233	-0.442
234	-0.441
234	-0.436
235	-0.441
235	-0.452
236	-0.459
236	-0.461
236	-0.463
237	-0.463
237	-0.464
238	-0.464
238	-0.467
239	-0.468
239	-0.477
240	-0.47
240	-0.466
241	-0.459
241	-0.462
242	-0.463
242	-0.472
243	-0.47
243	-0.475
243	-0.48
244	-0.476
244	-0.477
245	-0.479
245	-0.484
246	-0.496
246	-0.499
247	-0.508
247	-0.493
248	-0.493
248	-0.493
249	-0.498
249	-0.499
250	-0.497
250	-0.506
250	-0.501
251	-0.502
251	-0.498
252	-0.496
252	-0.507
253	-0.502
253	-0.516
254	-0.519
254	-0.52
255	-0.529
255	-0.527
256	-0.531
256	-0.541
257	-0.549
257	-0.545
258	-0.546
258	-0.555
258	-0.551
259	-0.544
259	-0.561
260	-0.561
260	-0.549
261	-0.559
261	-0.548
262	-0.554
262	-0.554
263	-0.546
263	-0.549
264	-0.556
264	-0.557
265	-0.549
265	-0.551
265	-0.562
266	-0.552
266	-0.552
267	-0.551
267	-0.567
268	-0.575
268	-0.57
269	-0.563
269	-0.577
270	-0.58
270	-0.579
271	-0.59
271	-0.6
272	-0.602
272	-0.603
272	-0.595
273	-0.604
273	-0.618
274	-0.609
274	-0.603
275	-0.601
275	-0.589
276	-0.593
276	-0.597
277	-0.595
277	-0.593
278	-0.597
278	-0.596
278	-0.584
279	-0.594
279	-0.605
280	-0.607
280	-0.615
281	-0.605
281	-0.601
282	-0.611
282	-0.604
283	-0.599
283	-0.614
284	-0.629
284	-0.637
285	-0.62
285	-0.626
285	-0.622
286	-0.631
286	-0.644
287	-0.642
287	-0.643
288	-0.64
288	-0.62
289	-0.618
289	-0.625
290	-0.632
290	-0.622
291	-0.623
291	-0.618
292	-0.598
292	-0.594
292	-0.592
293	-0.583
293	-0.58
294	-0.579
294	-0.567
295	-0.554
295	-0.562
296	-0.574
296	-0.569
297	-0.56
297	-0.563
298	-0.565
298	-0.578
298	-0.581
299	-0.563
299	-0.555
300	-0.549
300	-0.533
301	-0.514
301	-0.519
302	-0.53
302	-0.517
303	-0.507
303	-0.5
304	-0.483
304	-0.486
305	-0.477
305	-0.487
305	-0.501
306	-0.485
306	-0.482
307	-0.473
307	-0.485
308	-0.488
308	-0.481
309	-0.484
309	-0.481
310	-0.48
310	-0.478
311	-0.464
311	-0.483
311	-0.473
312	-0.47
312	-0.457
313	-0.447
313	-0.451
314	-0.456
314	-0.453
315	-0.449
315	-0.439
316	-0.434
316	-0.423
317	-0.413
317	-0.41
318	-0.403
318	-0.404
318	-0.392
319	-0.38
319	-0.372
320	-0.37
320	-0.372
321	-0.366
321	-0.368
322	-0.364
322	-0.358
323	-0.357
323	-0.348
324	-0.344
324	-0.334
324	-0.322
325	-0.311
325	-0.293
326	-0.286
326	-0.26
327	-0.247
327	-0.227
328	-0.197
328	-0.175
329	-0.15
329	-0.124
330	-0.101
330	-0.065
330	-0.03
331	0.004
331	0.031
332	0.063
332	0.093
333	0.12
333	0.149
334	0.174
334	0.195
335	0.217
335	0.235
336	0.253
336	0.271
336	0.285
337	0.299
337	0.313
338	0.323
338	0.33
339	0.341
339	0.35
340	0.356
340	0.362
341	0.367
341	0.371
342	0.376
342	0.381
342	0.384
343	0.387
343	0.39
344	0.392
344	0.394
345	0.397
345	0.399
346	0.4
346	0.402
347	0.403
347	0.404
348	0.404
348	0.406
348	0.407
349	0.407
349	0.408
350	0.408
350	0.408
351	0.408
351	0.409
352	0.409
352	0.409
353	0.409
353	0.409
354	0.409
354	0.409
354	0.409
355	0.409
355	0.409
356	0.409
356	0.409
357	0.408
357	0.408
358	0.408
358	0.407
359	0.407
359	0.407
360	0.406
360	0.406
360	0.406
361	0.406
361	0.406
362	0.406
362	0.406
363	0.406
363	0.406
364	0.406
364	0.405
365	0.405
365	0.405
366	0.405
366	0.404
366	0.404
367	0.404
367	0.404
368	0.403
368	0.403
369	0.402
369	0.402
370	0.401
370	0.401
371	0.4
371	0.4
372	0.399
372	0.399
372	0.399
373	0.399
373	0.398
374	0.398
374	0.397
375	0.397
375	0.397
376	0.397
376	0.396
377	0.396
377	0.395
378	0.395
378	0.394
378	0.394
379	0.393
379	0.393
380	0.393
380	0.392
381	0.392
381	0.391
382	0.391
382	0.39
383	0.39
383	0.39
383	0.389
384	0.389
384	0.388
385	0.388
385	0.387
386	0.387
386	0.387
387	0.386
387	0.386
388	0.386
388	0.385
389	0.385
389	0.384
389	0.384
390	0.383
390	0.383
391	0.382
391	0.382
392	0.382
392	0.381
393	0.38
393	0.38
394	0.38
394	0.379
394	0.379
395	0.378
395	0.378
396	0.377
396	0.377
397	0.376
397	0.376
398	0.375
398	0.375
399	0.374
399	0.374
400	0.373
400	0.373
400	0.373
401	0.372
401	0.372
402	0.371
402	0.371
403	0.371
403	0.37
404	0.37
404	0.369
405	0.369
405	0.368
405	0.368
406	0.368
406	0.367
407	0.367
407	0.366
408	0.366
408	0.366
409	0.366
409	0.365
410	0.365
410	0.365
411	0.365
411	0.364
411	0.364
412	0.363
412	0.363
413	0.363
413	0.362
414	0.362
414	0.362
415	0.361
415	0.361
416	0.361
416	0.36
416	0.36
417	0.36
417	0.36
418	0.36
418	0.359
419	0.359
419	0.359
420	0.359
420	0.359
421	0.359
421	0.359
421	0.358
422	0.358
422	0.358
423	0.358
423	0.358
424	0.358
424	0.357
425	0.357
425	0.357
426	0.357
426	0.357
427	0.357
427	0.356
427	0.356
428	0.356
428	0.356
429	0.355
429	0.355
430	0.355
430	0.354
431	0.354
431	0.354
432	0.354
432	0.353
432	0.353
433	0.353
433	0.353
434	0.353
434	0.354
435	0.354
435	0.354
436	0.354
436	0.354
437	0.354
437	0.354
437	0.354
438	0.354
438	0.354
439	0.354
439	0.354
440	0.354
440	0.354
441	0.354
441	0.353
442	0.353
442	0.353
442	0.353
443	0.353
443	0.353
444	0.353
444	0.353
445	0.353
445	0.353
446	0.353
446	0.354
447	0.354
447	0.354
447	0.354
448	0.354
448	0.354
449	0.354
449	0.355
450	0.355
450	0.355
451	0.355
451	0.355
452	0.355
452	0.355
452	0.355
453	0.355
453	0.355
454	0.355
454	0.355
455	0.356
455	0.356
456	0.356
456	0.357
457	0.357
457	0.357
458	0.357
458	0.358
458	0.358
459	0.358
459	0.358
460	0.358
460	0.358
461	0.359
461	0.359
462	0.36
462	0.361
463	0.362
463	0.362
463	0.363
464	0.364
464	0.364
465	0.365
465	0.365
466	0.366
466	0.366
467	0.367
467	0.367
467	0.367
468	0.368
468	0.368
469	0.369
469	0.37
470	0.371
470	0.371
471	0.372
471	0.373
472	0.374
472	0.375
472	0.376
473	0.377
473	0.379
474	0.379
474	0.38
475	0.381
475	0.383
476	0.383
476	0.384
477	0.385
477	0.387
477	0.388
478	0.389
478	0.39
479	0.391
479	0.393
480	0.394
480	0.396
481	0.397
481	0.399
482	0.401
482	0.402
482	0.404
483	0.407
483	0.409
484	0.411
484	0.412
485	0.415
485	0.417
486	0.418
486	0.42
487	0.422
487	0.424
487	0.426
488	0.427
488	0.43
489	0.432
489	0.435
490	0.437
490	0.439
491	0.442
491	0.445
492	0.447
492	0.45
492	0.453
493	0.455
493	0.458
494	0.461
494	0.464
495	0.466
495	0.469
496	0.472
496	0.475
496	0.479
497	0.482
497	0.485
498	0.488
498	0.492
499	0.495
499	0.499
500	0.503
500	0.507
501	0.51
501	0.514
501	0.517
502	0.52
502	0.524
503	0.527
503	0.53
504	0.534
504	0.538
505	0.541
505	0.545
506	0.549
506	0.553
506	0.556
507	0.56
507	0.564
508	0.568
508	0.572
509	0.576
509	0.58
510	0.584
510	0.588
511	0.591
511	0.595
511	0.599
512	0.603
512	0.606
513	0.609
513	0.613
514	0.616
514	0.619
515	0.623
515	0.626
515	0.629
516	0.632
516	0.634
517	0.637
517	0.64
518	0.642
518	0.644
519	0.646
519	0.648
520	0.65
520	0.652
520	0.654
521	0.656
521	0.658
522	0.659
522	0.661
523	0.662
523	0.664
524	0.665
524	0.665
524	0.666
525	0.667
525	0.668
526	0.669
526	0.669
527	0.67
527	0.67
528	0.669
528	0.669
529	0.668
529	0.668
529	0.667
530	0.666
530	0.665
531	0.663
531	0.662
532	0.66
532	0.659
533	0.657
533	0.655
533	0.654
534	0.651
534	0.649
535	0.647
535	0.644
536	0.642
536	0.639
537	0.636
537	0.633
538	0.63
538	0.627
538	0.624
539	0.62
539	0.617
540	0.613
540	0.609
541	0.605
541	0.601
542	0.597
542	0.593
542	0.589
543	0.584
543	0.579
544	0.575
544	0.571
545	0.566
545	0.562
546	0.557
546	0.552
547	0.547
547	0.542
547	0.537
548	0.532
548	0.527
549	0.522
549	0.518
550	0.513
550	0.507
551	0.501
551	0.496
551	0.49
552	0.485
552	0.48
553	0.475
553	0.47
554	0.465
554	0.459
555	0.453
555	0.448
556	0.442
556	0.437
556	0.432
557	0.427
557	0.421
558	0.416
558	0.411
559	0.405
559	0.4
560	0.395
560	0.391
560	0.386
561	0.382
561	0.378
562	0.374
562	0.37
563	0.366
563	0.361
564	0.357
564	0.353
564	0.349
565	0.345
565	0.341
566	0.336
566	0.332
567	0.328
567	0.324
568	0.319
568	0.315
568	0.31
569	0.305
569	0.301
570	0.296
570	0.291
571	0.288
571	0.284
572	0.279
572	0.275
573	0.271
573	0.268
573	0.264
574	0.261
574	0.258
575	0.255
575	0.252
576	0.249
576	0.245
577	0.242
577	0.239
577	0.237
578	0.235
578	0.233
579	0.231
579	0.228
580	0.225
580	0.221
581	0.218
581	0.215
581	0.213
582	0.211
582	0.209
583	0.207
583	0.203
584	0.199
584	0.196
585	0.193
585	0.19
585	0.187
586	0.185
586	0.182
587	0.18
587	0.177
588	0.175
588	0.172
589	0.171
589	0.169
590	0.167
590	0.165
590	0.165
591	0.163
591	0.161
592	0.159
592	0.157
593	0.156
593	0.154
594	0.152
594	0.151
594	0.149
595	0.148
595	0.146
596	0.144
596	0.143
597	0.143
597	0.141
598	0.139
598	0.138
598	0.137
599	0.136
599	0.134
600	0.133
600	0.131
601	0.13
601	0.129
602	0.128
602	0.126
602	0.125
603	0.124
603	0.123
604	0.122
604	0.121
605	0.12
605	0.119
606	0.118
606	0.116
606	0.114
607	0.113
607	0.112
608	0.111
608	0.109
609	0.108
609	0.107
610	0.106
610	0.104
610	0.103
611	0.102
611	0.102
612	0.101
612	0.1
613	0.1
613	0.099
614	0.098
614	0.097
614	0.096
615	0.095
615	0.094
616	0.093
616	0.092
617	0.092
617	0.091
618	0.089
618	0.088
618	0.088
619	0.087
619	0.088
620	0.088
620	0.087
621	0.086
621	0.085
622	0.085
622	0.084
622	0.083
623	0.082
623	0.082
624	0.081
624	0.08
625	0.079
625	0.079
626	0.078
626	0.077
626	0.077
627	0.076
627	0.076
628	0.075
628	0.074
629	0.073
629	0.072
630	0.071
630	0.07
630	0.069
631	0.069
631	0.068
632	0.067
632	0.066
633	0.066
633	0.066
634	0.065
634	0.065
634	0.064
635	0.063
635	0.062
636	0.061
636	0.06
637	0.059
637	0.058
638	0.057
638	0.056
638	0.055
639	0.054
639	0.053
640	0.052
640	0.051
641	0.05
641	0.049
642	0.048
642	0.047
642	0.046
643	0.045
643	0.044
644	0.042
644	0.041
645	0.04
645	0.039
646	0.037
646	0.035
646	0.032
647	0.03
647	0.027
648	0.024
648	0.022
649	0.019
649	0.017
650	0.015
650	0.012
650	0.009
651	0.005
651	0.001
652	-0.004
652	-0.01
653	-0.014
653	-0.019
653	-0.015
654	-0.01
654	-0.011
655	-0.015
655	-0.017
656	-0.019
656	-0.023
657	-0.025
657	-0.028
657	-0.031
658	-0.034
658	-0.05
659	-0.089
659	-0.127
660	-0.145
660	-0.159
661	-0.173
661	-0.189
661	-0.207
662	-0.221
662	-0.236
663	-0.252
663	-0.273
664	-0.29
664	-0.311
665	-0.333
665	-0.355
665	-0.377
666	-0.399
666	-0.426
667	-0.452
667	-0.485
668	-0.517
668	-0.561
669	-0.604
669	-0.651
669	-0.706
670	-0.77
670	-0.899
671	-1.18
671	-1.557
672	-1.951
672	-2.255
672	-2.438
673	-2.532
673	-2.557
674	-2.575
674	-2.584
675	-2.599
675	-2.604
676	-2.602
676	-2.574
676	-2.497
677	-2.321
677	-2.014
678	-1.458
678	-1.059
679	-0.909
679	-0.834
680	-0.784
680	-0.751
680	-0.724
681	-0.712
681	-0.687
682	-0.673
682	-0.649
683	-0.63
683	-0.63
684	-0.621
684	-0.618
684	-0.611
685	-0.607
685	-0.607
686	-0.594
686	-0.592
687	-0.59
687	-0.591
687	-0.598
688	-0.586
688	-0.586
689	-0.595
689	-0.598
690	-0.588
690	-0.586
691	-0.59
691	-0.595
691	-0.598
692	-0.601
692	-0.601
693	-0.612
693	-0.626
694	-0.608
694	-0.609
695	-0.615
695	-0.612
695	-0.62
696	-0.63
696	-0.626
697	-0.623
697	-0.622
698	-0.619
698	-0.614
698	-0.629
699	-0.63
699	-0.633
700	-0.653
700	-0.648
701	-0.634
701	-0.628
702	-0.628
702	-0.626
702	-0.627
703	-0.619
703	-0.609
704	-0.614
704	-0.619
705	-0.609
705	-0.609
705	-0.606
706	-0.602
706	-0.6
707	-0.612
707	-0.614
708	-0.61
708	-0.609
709	-0.61
709	-0.605
709	-0.602
710	-0.611
710	-0.617
711	-0.616
711	-0.617
712	-0.609
712	-0.605
713	-0.614
713	-0.615
713	-0.596
714	-0.599
714	-0.603
715	-0.595
715	-0.6
716	-0.616
716	-0.626
716	-0.627
717	-0.636
717	-0.628
718	-0.621
718	-0.624
719	-0.618
719	-0.611
720	-0.607
720	-0.603
720	-0.599
721	-0.592
721	-0.595
722	-0.593
722	-0.589
723	-0.607
723	-0.619
723	-0.627
724	-0.623
724	-0.628
725	-0.622
725	-0.626
726	-0.627
726	-0.619
727	-0.621
727	-0.628
727	-0.617
728	-0.605
728	-0.603
729	-0.606
729	-0.609
730	-0.616
730	-0.604
730	-0.611
731	-0.612
731	-0.611
732	-0.616
732	-0.613
733	-0.629
733	-0.634
734	-0.642
734	-0.635
734	-0.617
735	-0.611
735	-0.606
736	-0.606
736	-0.603
737	-0.6
737	-0.59
737	-0.585
738	-0.574
738	-0.563
739	-0.565
739	-0.565
740	-0.58
740	-0.58
741	-0.592
741	-0.602
741	-0.612
742	-0.621
742	-0.634
743	-0.64
743	-0.645
744	-0.648
744	-0.656
744	-0.648
745	-0.653
745	-0.639
746	-0.633
746	-0.623
747	-0.623
747	-0.613
748	-0.615
748	-0.618
748	-0.621
749	-0.617
749	-0.625
750	-0.62
750	-0.623
751	-0.622
751	-0.622
751	-0.635
752	-0.638
752	-0.639
753	-0.639
753	-0.63
754	-0.645
754	-0.645
754	-0.653
755	-0.653
755	-0.647
756	-0.649
756	-0.635
757	-0.626
757	-0.616
758	-0.618
758	-0.617
758	-0.613
759	-0.616
759	-0.614
760	-0.611
760	-0.614
761	-0.61
761	-0.614
761	-0.615
762	-0.619
762	-0.62
763	-0.621
763	-0.625
764	-0.626
764	-0.621
764	-0.626
765	-0.624
765	-0.629
766	-0.631
766	-0.63
767	-0.647
767	-0.642
768	-0.64
768	-0.631
768	-0.623
769	-0.629
769	-0.636
770	-0.645
770	-0.647
771	-0.645
771	-0.647
771	-0.653
772	-0.658
772	-0.678
773	-0.682
773	-0.683
774	-0.681
774	-0.666
775	-0.653
775	-0.652
775	-0.656
776	-0.666
776	-0.662
777	-0.66
777	-0.644
778	-0.651
778	-0.66
778	-0.66
779	-0.667
779	-0.681
780	-0.677
780	-0.684
781	-0.673
781	-0.66
781	-0.676
782	-0.695
782	-0.696
783	-0.693
783	-0.7
784	-0.702
784	-0.696
784	-0.716
785	-0.71
785	-0.722
786	-0.73
786	-0.722
787	-0.712
787	-0.724
788	-0.716
788	-0.709
788	-0.715
789	-0.716
789	-0.707
790	-0.705
790	-0.689
791	-0.695
791	-0.693
791	-0.686
792	-0.678
792	-0.683
793	-0.684
793	-0.67
794	-0.665
794	-0.659
794	-0.668
795	-0.69
795	-0.676
796	-0.68
796	-0.679
797	-0.671
797	-0.662
797	-0.657
798	-0.679
798	-0.683
799	-0.683
799	-0.666
800	-0.659
800	-0.667
801	-0.665
801	-0.669
801	-0.671
802	-0.672
802	-0.67
803	-0.665
803	-0.657
804	-0.663
804	-0.673
804	-0.66
805	-0.643
805	-0.637
806	-0.639
806	-0.631
807	-0.632
807	-0.633
807	-0.618
808	-0.614
808	-0.609
809	-0.603
809	-0.603
810	-0.605
810	-0.604
810	-0.6
811	-0.606
811	-0.599
812	-0.592
812	-0.593
813	-0.595
813	-0.594
813	-0.589
814	-0.593
814	-0.598
815	-0.587
815	-0.579
816	-0.574
816	-0.588
817	-0.6
817	-0.606
817	-0.617
818	-0.61
818	-0.608
819	-0.612
819	-0.61
820	-0.622
820	-0.623
820	-0.622
821	-0.617
821	-0.613
822	-0.612
822	-0.6
823	-0.612
823	-0.612
823	-0.608
824	-0.607
824	-0.616
825	-0.617
825	-0.615
826	-0.613
826	-0.609
826	-0.608
827	-0.609
827	-0.603
828	-0.601
828	-0.596
829	-0.591
829	-0.578
829	-0.574
830	-0.573
830	-0.559
831	-0.554
831	-0.545
832	-0.539
832	-0.531
832	-0.527
833	-0.527
833	-0.532
834	-0.529
834	-0.526
835	-0.518
835	-0.518
835	-0.515
836	-0.51
836	-0.504
837	-0.497
837	-0.489
838	-0.477
838	-0.461
839	-0.454
839	-0.441
839	-0.434
840	-0.432
840	-0.423
841	-0.414
841	-0.409
842	-0.401
842	-0.392
842	-0.39
843	-0.39
843	-0.388
844	-0.388
844	-0.379
845	-0.369
845	-0.361
845	-0.353
846	-0.344
846	-0.336
847	-0.328
847	-0.319
848	-0.306
848	-0.291
848	-0.28
849	-0.271
849	-0.263
850	-0.255
850	-0.246
851	-0.237
851	-0.225
851	-0.216
852	-0.204
852	-0.194
853	-0.188
853	-0.181
854	-0.173
854	-0.165
854	-0.156
855	-0.148
855	-0.143
856	-0.139
856	-0.135
857	-0.13
857	-0.125
857	-0.117
858	-0.111
858	-0.106
859	-0.099
859	-0.092
860	-0.085
860	-0.076
860	-0.07
861	-0.063
861	-0.056
862	-0.051
862	-0.047
863	-0.042
863	-0.037
863	-0.032
864	-0.029
864	-0.024
865	-0.021
865	-0.017
866	-0.014
866	-0.011
866	-0.007
867	-0.004
867	-0.001
868	0.001
868	0.004
869	0.007
869	0.009
869	0.011
870	0.013
870	0.015
871	0.016
871	0.017
872	0.017
872	0.017
872	0.018
873	0.017
873	0.017
874	0.017
874	0.016
875	0.015
875	0.015
875	0.014
876	0.014
876	0.013
877	0.012
877	0.012
878	0.011
878	0.01
878	0.01
879	0.009
879	0.008
880	0.008
880	0.007
881	0.007
881	0.007
881	0.007
882	0.006
882	0.006
883	0.006
883	0.006
884	0.006
884	0.006
884	0.005
885	0.005
885	0.004
886	0.004
886	0.003
887	0.001
887	0.001
887	-0.001
888	-0.001
888	-0.002
889	-0.003
889	-0.003
890	-0.004
890	-0.004
890	-0.004
891	-0.004
891	-0.004
892	-0.003
892	-0.002
893	-0.002
893	-0.002
893	-0.002
894	-0.001
894	-0.001
895	-0.001
895	-0
895	0
896	0.001
896	0.001
897	0.001
897	0.001
898	0.001
898	0.001
898	0.001
899	0.002
899	0.002
900	0.002
900	0.002
901	0.002
901	0.002
901	0.002
902	0.002
902	0.002
903	0.002
903	0.001
904	0.001
904	0
904	-0
905	-0.001
905	-0.001
906	-0
906	0
907	0.001
907	0.001
907	0.002
908	0.003
908	0.004
909	0.005
909	0.005
910	0.006
910	0.006
910	0.006
911	0.007
911	0.008
912	0.009
912	0.011
913	0.012
913	0.013
913	0.014
914	0.015
914	0.015
915	0.015
915	0.015
916	0.015
916	0.014
916	0.013
917	0.012
917	0.011
918	0.01
918	0.01
918	0.009
919	0.008
919	0.008
920	0.008
920	0.008
921	0.009
921	0.009
921	0.009
922	0.009
922	0.009
923	0.009
923	0.009
924	0.009
924	0.009
924	0.008
925	0.008
925	0.007
926	0.007
926	0.007
927	0.007
927	0.006
927	0.006
928	0.007
928	0.007
929	0.007
929	0.008
930	0.009
930	0.01
930	0.011
931	0.012
931	0.013
932	0.014
932	0.015
933	0.016
933	0.017
933	0.018
934	0.018
934	0.018
935	0.018
935	0.017
935	0.016
936	0.015
936	0.014
937	0.012
937	0.011
938	0.01
938	0.008
938	0.007
939	0.006
939	0.005
940	0.005
940	0.005
941	0.004
941	0.004
941	0.004
942	0.004
942	0.004
943	0.005
943	0.005
944	0.005
944	0.005
944	0.005
945	0.005
945	0.005
946	0.004
946	0.003
946	0.003
947	0.002
947	0.001
948	0
948	0
949	-0
949	-0.001
949	-0.001
950	-0.001
950	-0
951	0
951	0.001
952	0.001
952	0.002
952	0.003
953	0.003
953	0.004
954	0.004
954	0.004
955	0.004
955	0.004
955	0.004
956	0.004
956	0.004
957	0.003
957	0.002
957	0.002
958	0.001
958	0.001
959	0.001
959	0
960	0
960	0
960	0
961	0
961	0
962	0
962	0
963	0
963	0.001
963	0.001
964	0.001
964	0.001
965	0.002
965	0.002
966	0.002
966	0.003
966	0.003
967	0.004
967	0.004
968	0.004
968	0.004
968	0.004
969	0.004
969	0.003
970	0.002
970	0.002
971	0.001
971	0
971	-0
972	-0.001
972	-0.001
973	-0.001
973	-0.001
974	-0
974	0
974	0.001
975	0.002
975	0.003
976	0.004
976	0.005
976	0.006
977	0.006
977	0.006
978	0.006
978	0.006
979	0.005
979	0.005
979	0.004
980	0.004
980	0.003
981	0.003
981	0.002
982	0.002
982	0.002
982	0.002
983	0.002
983	0.002
984	0.002
984	0.002
984	0.002
985	0.002
985	0.002
986	0.002
986	0.002
987	0.002
987	0.002
987	0.002
988	0.002
988	0.002
989	0.001
989	0.001
990	0
990	-0
990	-0.001
991	-0.001
991	-0.001
992	-0.001
992	-0.002
992	-0.002
993	-0.002
993	-0.003
994	-0.003
994	-0.003
995	-0.003
995	-0.004
995	-0.004
996	-0.004
996	-0.005
997	-0.005
997	-0.005
997	-0.005
998	-0.005
998	-0.004
999	-0.004
999	-0.004
1000	-0.004
1000	-0.004
1000	-0.003
1001	-0.003
1001	-0.002
1002	-0.002
1002	-0.002
1003	-0.002
1003	-0.002
1003	-0.002
1004	-0.003
1004	-0.003
1005	-0.004
1005	-0.005
1005	-0.006
1006	-0.006
1006	-0.007
1007	-0.008
1007	-0.009
1008	-0.009
1008	-0.01
1008	-0.011
1009	-0.011
1009	-0.011
1010	-0.011
1010	-0.01
1010	-0.009
1011	-0.009
1011	-0.009
1012	-0.008
1012	-0.007
1013	-0.006
1013	-0.005
1013	-0.005
1014	-0.004
1014	-0.004
1015	-0.003
1015	-0.003
1016	-0.002
1016	-0.002
1016	-0.002
1017	-0.002
1017	-0.002
1018	-0.002
1018	-0.002
1018	-0.001
1019	-0.002
1019	-0.002
1020	-0.002
1020	-0.003
1021	-0.003
1021	-0.004
1021	-0.005
1022	-0.005
1022	-0.006
1023	-0.007
1023	-0.008
1023	-0.009
1024	-0.01
1024	-0.011
1025	-0.012
1025	-0.012
1026	-0.013
1026	-0.013
1026	-0.014
1027	-0.014
1027	-0.015
1028	-0.015
1028	-0.014
1028	-0.014
1029	-0.014
1029	-0.014
1030	-0.015
1030	-0.015
1031	-0.015
1031	-0.014
1031	-0.014
1032	-0.015
1032	-0.015
1033	-0.015
1033	-0.015
1033	-0.015
1034	-0.016
1034	-0.015
1035	-0.015
1035	-0.015
1036	-0.015
1036	-0.015
1036	-0.015
1037	-0.014
1037	-0.013
1038	-0.013
1038	-0.012
1039	-0.011
1039	-0.01
1039	-0.01
1040	-0.01
1040	-0.009
1041	-0.009
1041	-0.01
1041	-0.01
1042	-0.011
1042	-0.012
1043	-0.013
1043	-0.014
1044	-0.014
1044	-0.016
1044	-0.016
1045	-0.017
1045	-0.018
1046	-0.019
1046	-0.019
1046	-0.019
1047	-0.019
1047	-0.019
1048	-0.019
1048	-0.019
1049	-0.019
1049	-0.02
1049	-0.02
1050	-0.021
1050	-0.021
1051	-0.022
1051	-0.023
1051	-0.023
1052	-0.024
1052	-0.025
1053	-0.025
1053	-0.025
1053	-0.025
1054	-0.025
1054	-0.025
1055	-0.024
1055	-0.024
1056	-0.024
1056	-0.024
1056	-0.024
1057	-0.025
1057	-0.025
1058	-0.025
1058	-0.026
1058	-0.026
1059	-0.026
1059	-0.026
1060	-0.026
1060	-0.026
1061	-0.026
1061	-0.025
1061	-0.025
1062	-0.025
1062	-0.025
1063	-0.025
1063	-0.025
1063	-0.025
1064	-0.025
1064	-0.025
1065	-0.025
1065	-0.026
1066	-0.026
1066	-0.026
1066	-0.026
1067	-0.027
1067	-0.027
1068	-0.027
1068	-0.028
1068	-0.028
1069	-0.028
1069	-0.029
1070	-0.03
1070	-0.03
1071	-0.03
1071	-0.03
1071	-0.031
1072	-0.031
1072	-0.03
1073	-0.03
1073	-0.03
1073	-0.029
1074	-0.029
1074	-0.029
1075	-0.029
1075	-0.028
1076	-0.029
1076	-0.029
1076	-0.03
1077	-0.03
1077	-0.031
1078	-0.031
1078	-0.032
1078	-0.032
1079	-0.032
1079	-0.032
1080	-0.033
1080	-0.033
1080	-0.034
1081	-0.035
1081	-0.035
1082	-0.035
1082	-0.036
1083	-0.037
1083	-0.038
1083	-0.038
1084	-0.039
1084	-0.039
1085	-0.04
1085	-0.04
1085	-0.04
1086	-0.04
1086	-0.04
1087	-0.04
1087	-0.04
1088	-0.041
1088	-0.042
1088	-0.042
1089	-0.043
1089	-0.044
1090	-0.045
1090	-0.045
1090	-0.046
1091	-0.047
1091	-0.048
1092	-0.048
1092	-0.049
1092	-0.05
1093	-0.05
1093	-0.051
1094	-0.051
1094	-0.052
1095	-0.052
1095	-0.053
1095	-0.054
1096	-0.054
1096	-0.055
1097	-0.056
1097	-0.057
1097	-0.057
1098	-0.059
1098	-0.06
1099	-0.061
1099	-0.062
1100	-0.063
1100	-0.065
1100	-0.067
1101	-0.069
1101	-0.07
1102	-0.072
1102	-0.074
1102	-0.074
1103	-0.076
1103	-0.078
1104	-0.08
1104	-0.083
1104	-0.084
1105	-0.084
1105	-0.086
1106	-0.09
1106	-0.091
1107	-0.095
1107	-0.099
1107	-0.102
1108	-0.103
1108	-0.104
1109	-0.106
1109	-0.109
1109	-0.113
1110	-0.116
1110	-0.119
1111	-0.128
1111	-0.119
