Data from 3.5A_17C_Absorbance__380__00382.txt Node

Date: Tue Jun 20 15:10:05 CEST 2023
User: Marek
Spectrometer: MAYP115816
Trigger mode: 0
Integration Time (sec): 2.200000E-1
Scans to average: 10
Electric dark correction enabled: true
Nonlinearity correction enabled: true
Boxcar width: 5
XAxis mode: Wavelengths
Number of Pixels in Spectrum: 2068
>>>>>Begin Spectral Data<<<<<
199	-0.643
199	-0.624
200	-0.587
200	-0.53
201	-0.502
201	-0.494
202	-0.478
202	-0.472
203	-0.471
203	-0.464
204	-0.443
204	-0.426
205	-0.403
205	-0.392
205	-0.4
206	-0.402
206	-0.399
207	-0.391
207	-0.396
208	-0.399
208	-0.401
209	-0.407
209	-0.414
210	-0.428
210	-0.439
211	-0.435
211	-0.438
212	-0.445
212	-0.453
213	-0.449
213	-0.441
213	-0.441
214	-0.446
214	-0.447
215	-0.443
215	-0.446
216	-0.454
216	-0.459
217	-0.459
217	-0.46
218	-0.466
218	-0.471
219	-0.475
219	-0.479
220	-0.482
220	-0.487
221	-0.488
221	-0.489
221	-0.479
222	-0.478
222	-0.479
223	-0.475
223	-0.476
224	-0.477
224	-0.474
225	-0.472
225	-0.474
226	-0.474
226	-0.474
227	-0.485
227	-0.492
228	-0.494
228	-0.503
229	-0.507
229	-0.506
229	-0.506
230	-0.499
230	-0.496
231	-0.492
231	-0.486
232	-0.486
232	-0.481
233	-0.481
233	-0.469
234	-0.47
234	-0.466
235	-0.467
235	-0.481
236	-0.489
236	-0.489
236	-0.491
237	-0.489
237	-0.49
238	-0.49
238	-0.492
239	-0.493
239	-0.502
240	-0.497
240	-0.492
241	-0.487
241	-0.488
242	-0.491
242	-0.5
243	-0.499
243	-0.501
243	-0.504
244	-0.502
244	-0.501
245	-0.504
245	-0.508
246	-0.518
246	-0.526
247	-0.531
247	-0.518
248	-0.52
248	-0.523
249	-0.53
249	-0.53
250	-0.531
250	-0.539
250	-0.536
251	-0.536
251	-0.531
252	-0.534
252	-0.544
253	-0.539
253	-0.55
254	-0.554
254	-0.555
255	-0.562
255	-0.561
256	-0.563
256	-0.576
257	-0.582
257	-0.577
258	-0.576
258	-0.583
258	-0.58
259	-0.574
259	-0.592
260	-0.592
260	-0.583
261	-0.594
261	-0.58
262	-0.587
262	-0.585
263	-0.579
263	-0.585
264	-0.592
264	-0.593
265	-0.584
265	-0.588
265	-0.596
266	-0.587
266	-0.586
267	-0.587
267	-0.602
268	-0.608
268	-0.601
269	-0.595
269	-0.608
270	-0.609
270	-0.607
271	-0.621
271	-0.63
272	-0.63
272	-0.629
272	-0.624
273	-0.633
273	-0.646
274	-0.636
274	-0.63
275	-0.628
275	-0.616
276	-0.617
276	-0.623
277	-0.629
277	-0.626
278	-0.633
278	-0.633
278	-0.623
279	-0.633
279	-0.647
280	-0.649
280	-0.659
281	-0.655
281	-0.648
282	-0.652
282	-0.645
283	-0.638
283	-0.651
284	-0.664
284	-0.672
285	-0.652
285	-0.659
285	-0.65
286	-0.654
286	-0.667
287	-0.661
287	-0.661
288	-0.659
288	-0.642
289	-0.64
289	-0.647
290	-0.659
290	-0.648
291	-0.652
291	-0.648
292	-0.631
292	-0.629
292	-0.634
293	-0.622
293	-0.617
294	-0.617
294	-0.606
295	-0.586
295	-0.597
296	-0.608
296	-0.603
297	-0.589
297	-0.594
298	-0.591
298	-0.608
298	-0.613
299	-0.598
299	-0.591
300	-0.588
300	-0.57
301	-0.55
301	-0.553
302	-0.564
302	-0.548
303	-0.541
303	-0.529
304	-0.515
304	-0.516
305	-0.509
305	-0.518
305	-0.533
306	-0.518
306	-0.515
307	-0.507
307	-0.52
308	-0.52
308	-0.518
309	-0.517
309	-0.515
310	-0.512
310	-0.507
311	-0.493
311	-0.514
311	-0.502
312	-0.501
312	-0.49
313	-0.487
313	-0.487
314	-0.494
314	-0.489
315	-0.486
315	-0.48
316	-0.472
316	-0.462
317	-0.458
317	-0.456
318	-0.448
318	-0.443
318	-0.431
319	-0.42
319	-0.413
320	-0.413
320	-0.411
321	-0.407
321	-0.406
322	-0.399
322	-0.39
323	-0.39
323	-0.38
324	-0.38
324	-0.367
324	-0.358
325	-0.343
325	-0.326
326	-0.319
326	-0.296
327	-0.281
327	-0.261
328	-0.232
328	-0.211
329	-0.183
329	-0.158
330	-0.13
330	-0.096
330	-0.061
331	-0.027
331	0.004
332	0.035
332	0.065
333	0.093
333	0.124
334	0.152
334	0.176
335	0.198
335	0.217
336	0.236
336	0.254
336	0.269
337	0.284
337	0.299
338	0.31
338	0.318
339	0.329
339	0.338
340	0.345
340	0.352
341	0.357
341	0.362
342	0.367
342	0.372
342	0.376
343	0.379
343	0.383
344	0.385
344	0.387
345	0.39
345	0.392
346	0.393
346	0.395
347	0.397
347	0.398
348	0.399
348	0.4
348	0.401
349	0.402
349	0.402
350	0.403
350	0.403
351	0.403
351	0.404
352	0.403
352	0.403
353	0.403
353	0.404
354	0.404
354	0.404
354	0.404
355	0.404
355	0.404
356	0.404
356	0.404
357	0.403
357	0.403
358	0.403
358	0.403
359	0.403
359	0.403
360	0.402
360	0.402
360	0.402
361	0.402
361	0.402
362	0.402
362	0.402
363	0.402
363	0.402
364	0.401
364	0.401
365	0.401
365	0.4
366	0.4
366	0.4
366	0.4
367	0.4
367	0.399
368	0.398
368	0.398
369	0.398
369	0.397
370	0.397
370	0.397
371	0.396
371	0.396
372	0.395
372	0.395
372	0.395
373	0.395
373	0.394
374	0.394
374	0.394
375	0.393
375	0.393
376	0.392
376	0.392
377	0.392
377	0.391
378	0.39
378	0.39
378	0.389
379	0.389
379	0.388
380	0.388
380	0.388
381	0.387
381	0.387
382	0.386
382	0.386
383	0.386
383	0.385
383	0.385
384	0.384
384	0.384
385	0.383
385	0.383
386	0.382
386	0.382
387	0.382
387	0.381
388	0.381
388	0.38
389	0.38
389	0.38
389	0.379
390	0.379
390	0.379
391	0.378
391	0.378
392	0.377
392	0.377
393	0.377
393	0.376
394	0.376
394	0.375
394	0.375
395	0.374
395	0.374
396	0.373
396	0.373
397	0.373
397	0.372
398	0.372
398	0.371
399	0.371
399	0.37
400	0.37
400	0.369
400	0.369
401	0.369
401	0.368
402	0.367
402	0.367
403	0.367
403	0.366
404	0.366
404	0.365
405	0.365
405	0.364
405	0.364
406	0.364
406	0.363
407	0.363
407	0.363
408	0.362
408	0.362
409	0.362
409	0.362
410	0.361
410	0.361
411	0.361
411	0.361
411	0.36
412	0.36
412	0.36
413	0.359
413	0.359
414	0.359
414	0.358
415	0.358
415	0.357
416	0.357
416	0.357
416	0.356
417	0.356
417	0.356
418	0.356
418	0.356
419	0.356
419	0.355
420	0.355
420	0.355
421	0.355
421	0.355
421	0.355
422	0.355
422	0.355
423	0.354
423	0.354
424	0.354
424	0.354
425	0.354
425	0.353
426	0.353
426	0.353
427	0.354
427	0.353
427	0.353
428	0.353
428	0.353
429	0.352
429	0.352
430	0.351
430	0.351
431	0.351
431	0.351
432	0.35
432	0.35
432	0.35
433	0.35
433	0.35
434	0.35
434	0.35
435	0.351
435	0.351
436	0.351
436	0.351
437	0.35
437	0.35
437	0.35
438	0.35
438	0.351
439	0.35
439	0.35
440	0.35
440	0.35
441	0.35
441	0.35
442	0.35
442	0.35
442	0.35
443	0.35
443	0.35
444	0.35
444	0.35
445	0.35
445	0.35
446	0.35
446	0.35
447	0.35
447	0.35
447	0.35
448	0.35
448	0.35
449	0.351
449	0.351
450	0.351
450	0.351
451	0.351
451	0.351
452	0.351
452	0.351
452	0.351
453	0.352
453	0.352
454	0.352
454	0.352
455	0.352
455	0.353
456	0.353
456	0.353
457	0.353
457	0.353
458	0.353
458	0.353
458	0.354
459	0.354
459	0.354
460	0.354
460	0.354
461	0.355
461	0.355
462	0.356
462	0.356
463	0.357
463	0.358
463	0.359
464	0.36
464	0.36
465	0.361
465	0.361
466	0.362
466	0.363
467	0.363
467	0.363
467	0.364
468	0.364
468	0.364
469	0.365
469	0.366
470	0.367
470	0.367
471	0.368
471	0.369
472	0.37
472	0.371
472	0.372
473	0.373
473	0.374
474	0.375
474	0.376
475	0.377
475	0.378
476	0.379
476	0.38
477	0.381
477	0.382
477	0.383
478	0.384
478	0.385
479	0.387
479	0.388
480	0.39
480	0.391
481	0.393
481	0.395
482	0.396
482	0.398
482	0.4
483	0.402
483	0.404
484	0.407
484	0.408
485	0.41
485	0.412
486	0.414
486	0.415
487	0.417
487	0.419
487	0.421
488	0.422
488	0.424
489	0.426
489	0.429
490	0.431
490	0.433
491	0.436
491	0.438
492	0.441
492	0.443
492	0.446
493	0.449
493	0.451
494	0.455
494	0.457
495	0.46
495	0.463
496	0.466
496	0.469
496	0.472
497	0.476
497	0.479
498	0.482
498	0.485
499	0.488
499	0.492
500	0.496
500	0.5
501	0.503
501	0.507
501	0.51
502	0.513
502	0.517
503	0.52
503	0.524
504	0.527
504	0.53
505	0.534
505	0.538
506	0.541
506	0.545
506	0.549
507	0.553
507	0.557
508	0.561
508	0.565
509	0.569
509	0.573
510	0.577
510	0.58
511	0.584
511	0.588
511	0.591
512	0.594
512	0.598
513	0.6
513	0.604
514	0.607
514	0.611
515	0.614
515	0.617
515	0.619
516	0.622
516	0.625
517	0.628
517	0.631
518	0.633
518	0.635
519	0.637
519	0.638
520	0.64
520	0.643
520	0.645
521	0.646
521	0.649
522	0.65
522	0.651
523	0.653
523	0.654
524	0.655
524	0.656
524	0.657
525	0.658
525	0.658
526	0.659
526	0.66
527	0.66
527	0.661
528	0.66
528	0.66
529	0.66
529	0.659
529	0.658
530	0.657
530	0.656
531	0.655
531	0.654
532	0.652
532	0.651
533	0.649
533	0.647
533	0.645
534	0.643
534	0.641
535	0.638
535	0.636
536	0.634
536	0.631
537	0.628
537	0.625
538	0.622
538	0.619
538	0.616
539	0.613
539	0.61
540	0.607
540	0.603
541	0.599
541	0.595
542	0.592
542	0.587
542	0.583
543	0.578
543	0.574
544	0.57
544	0.566
545	0.561
545	0.557
546	0.552
546	0.547
547	0.542
547	0.537
547	0.533
548	0.529
548	0.524
549	0.519
549	0.514
550	0.509
550	0.504
551	0.498
551	0.493
551	0.487
552	0.482
552	0.477
553	0.472
553	0.467
554	0.462
554	0.456
555	0.451
555	0.445
556	0.44
556	0.435
556	0.429
557	0.425
557	0.42
558	0.415
558	0.409
559	0.404
559	0.399
560	0.394
560	0.39
560	0.386
561	0.382
561	0.379
562	0.375
562	0.37
563	0.366
563	0.362
564	0.358
564	0.354
564	0.35
565	0.346
565	0.342
566	0.337
566	0.333
567	0.329
567	0.325
568	0.321
568	0.316
568	0.312
569	0.307
569	0.303
570	0.298
570	0.294
571	0.29
571	0.287
572	0.283
572	0.279
573	0.275
573	0.271
573	0.267
574	0.264
574	0.261
575	0.258
575	0.256
576	0.253
576	0.249
577	0.246
577	0.243
577	0.241
578	0.239
578	0.237
579	0.235
579	0.232
580	0.229
580	0.225
581	0.222
581	0.219
581	0.218
582	0.216
582	0.213
583	0.211
583	0.208
584	0.204
584	0.2
585	0.197
585	0.194
585	0.192
586	0.189
586	0.186
587	0.183
587	0.181
588	0.178
588	0.176
589	0.174
589	0.173
590	0.171
590	0.169
590	0.168
591	0.167
591	0.165
592	0.162
592	0.161
593	0.159
593	0.158
594	0.156
594	0.154
594	0.153
595	0.152
595	0.15
596	0.148
596	0.147
597	0.147
597	0.145
598	0.143
598	0.142
598	0.141
599	0.139
599	0.138
600	0.136
600	0.135
601	0.134
601	0.133
602	0.131
602	0.13
602	0.128
603	0.127
603	0.127
604	0.125
604	0.124
605	0.124
605	0.123
606	0.121
606	0.119
606	0.118
607	0.116
607	0.116
608	0.114
608	0.113
609	0.111
609	0.111
610	0.109
610	0.108
610	0.107
611	0.106
611	0.105
612	0.104
612	0.104
613	0.104
613	0.103
614	0.102
614	0.1
614	0.099
615	0.098
615	0.097
616	0.097
616	0.096
617	0.095
617	0.094
618	0.093
618	0.092
618	0.091
619	0.091
619	0.091
620	0.091
620	0.09
621	0.089
621	0.088
622	0.088
622	0.087
622	0.085
623	0.085
623	0.084
624	0.084
624	0.083
625	0.082
625	0.081
626	0.081
626	0.08
626	0.08
627	0.079
627	0.078
628	0.077
628	0.076
629	0.075
629	0.074
630	0.073
630	0.072
630	0.072
631	0.071
631	0.07
632	0.069
632	0.068
633	0.067
633	0.067
634	0.066
634	0.065
634	0.065
635	0.063
635	0.062
636	0.062
636	0.061
637	0.06
637	0.058
638	0.058
638	0.056
638	0.055
639	0.054
639	0.052
640	0.051
640	0.05
641	0.049
641	0.048
642	0.047
642	0.046
642	0.044
643	0.043
643	0.042
644	0.04
644	0.039
645	0.037
645	0.036
646	0.034
646	0.031
646	0.028
647	0.025
647	0.022
648	0.019
648	0.016
649	0.013
649	0.011
650	0.008
650	0.005
650	0.002
651	-0.002
651	-0.007
652	-0.012
652	-0.019
653	-0.024
653	-0.028
653	-0.025
654	-0.018
654	-0.019
655	-0.022
655	-0.025
656	-0.028
656	-0.031
657	-0.034
657	-0.036
657	-0.04
658	-0.043
658	-0.06
659	-0.104
659	-0.147
660	-0.169
660	-0.183
661	-0.198
661	-0.217
661	-0.235
662	-0.25
662	-0.266
663	-0.285
663	-0.305
664	-0.324
664	-0.347
665	-0.37
665	-0.393
665	-0.416
666	-0.44
666	-0.468
667	-0.498
667	-0.535
668	-0.567
668	-0.614
669	-0.659
669	-0.709
669	-0.768
670	-0.835
670	-0.965
671	-1.222
671	-1.571
672	-1.975
672	-2.267
672	-2.446
673	-2.575
673	-2.609
674	-2.627
674	-2.637
675	-2.651
675	-2.656
676	-2.655
676	-2.632
676	-2.56
677	-2.414
677	-2.191
678	-1.641
678	-1.168
679	-0.999
679	-0.918
680	-0.861
680	-0.822
680	-0.788
681	-0.769
681	-0.742
682	-0.726
682	-0.703
683	-0.68
683	-0.678
684	-0.668
684	-0.664
684	-0.657
685	-0.648
685	-0.651
686	-0.639
686	-0.636
687	-0.635
687	-0.63
687	-0.64
688	-0.63
688	-0.63
689	-0.639
689	-0.64
690	-0.632
690	-0.629
691	-0.632
691	-0.638
691	-0.641
692	-0.645
692	-0.643
693	-0.654
693	-0.664
694	-0.647
694	-0.649
695	-0.654
695	-0.649
695	-0.659
696	-0.669
696	-0.663
697	-0.66
697	-0.658
698	-0.653
698	-0.648
698	-0.661
699	-0.659
699	-0.661
700	-0.681
700	-0.675
701	-0.663
701	-0.659
702	-0.659
702	-0.659
702	-0.661
703	-0.652
703	-0.644
704	-0.653
704	-0.656
705	-0.645
705	-0.644
705	-0.638
706	-0.633
706	-0.63
707	-0.64
707	-0.643
708	-0.643
708	-0.639
709	-0.641
709	-0.637
709	-0.637
710	-0.646
710	-0.65
711	-0.649
711	-0.651
712	-0.643
712	-0.643
713	-0.648
713	-0.649
713	-0.63
714	-0.634
714	-0.635
715	-0.627
715	-0.637
716	-0.653
716	-0.662
716	-0.665
717	-0.669
717	-0.661
718	-0.659
718	-0.663
719	-0.658
719	-0.653
720	-0.647
720	-0.642
720	-0.635
721	-0.627
721	-0.63
722	-0.626
722	-0.624
723	-0.643
723	-0.654
723	-0.663
724	-0.661
724	-0.668
725	-0.662
725	-0.667
726	-0.67
726	-0.663
727	-0.666
727	-0.671
727	-0.661
728	-0.646
728	-0.642
729	-0.642
729	-0.644
730	-0.65
730	-0.642
730	-0.649
731	-0.651
731	-0.652
732	-0.655
732	-0.65
733	-0.666
733	-0.674
734	-0.684
734	-0.677
734	-0.659
735	-0.649
735	-0.643
736	-0.643
736	-0.636
737	-0.636
737	-0.627
737	-0.62
738	-0.605
738	-0.593
739	-0.593
739	-0.596
740	-0.609
740	-0.608
741	-0.618
741	-0.63
741	-0.639
742	-0.644
742	-0.659
743	-0.667
743	-0.67
744	-0.676
744	-0.685
744	-0.679
745	-0.687
745	-0.676
746	-0.671
746	-0.662
747	-0.665
747	-0.654
748	-0.655
748	-0.66
748	-0.661
749	-0.653
749	-0.659
750	-0.652
750	-0.652
751	-0.653
751	-0.65
751	-0.663
752	-0.669
752	-0.67
753	-0.671
753	-0.665
754	-0.686
754	-0.688
754	-0.695
755	-0.694
755	-0.686
756	-0.688
756	-0.673
757	-0.666
757	-0.655
758	-0.654
758	-0.653
758	-0.647
759	-0.651
759	-0.649
760	-0.65
760	-0.652
761	-0.648
761	-0.653
761	-0.654
762	-0.66
762	-0.661
763	-0.66
763	-0.665
764	-0.661
764	-0.656
764	-0.663
765	-0.662
765	-0.667
766	-0.67
766	-0.672
767	-0.686
767	-0.68
768	-0.677
768	-0.668
768	-0.665
769	-0.669
769	-0.676
770	-0.685
770	-0.689
771	-0.684
771	-0.681
771	-0.686
772	-0.691
772	-0.714
773	-0.716
773	-0.717
774	-0.716
774	-0.7
775	-0.685
775	-0.685
775	-0.689
776	-0.701
776	-0.698
777	-0.697
777	-0.68
778	-0.687
778	-0.694
778	-0.693
779	-0.7
779	-0.716
780	-0.711
780	-0.72
781	-0.709
781	-0.699
781	-0.712
782	-0.731
782	-0.733
783	-0.73
783	-0.738
784	-0.74
784	-0.735
784	-0.754
785	-0.746
785	-0.758
786	-0.763
786	-0.758
787	-0.747
787	-0.754
788	-0.749
788	-0.746
788	-0.748
789	-0.746
789	-0.736
790	-0.735
790	-0.721
791	-0.727
791	-0.723
791	-0.72
792	-0.717
792	-0.721
793	-0.722
793	-0.711
794	-0.707
794	-0.702
794	-0.71
795	-0.731
795	-0.717
796	-0.723
796	-0.717
797	-0.709
797	-0.696
797	-0.691
798	-0.71
798	-0.716
799	-0.715
799	-0.7
800	-0.693
800	-0.702
801	-0.7
801	-0.705
801	-0.702
802	-0.704
802	-0.702
803	-0.698
803	-0.69
804	-0.696
804	-0.704
804	-0.688
805	-0.672
805	-0.662
806	-0.662
806	-0.657
807	-0.661
807	-0.664
807	-0.648
808	-0.644
808	-0.635
809	-0.63
809	-0.633
810	-0.635
810	-0.632
810	-0.629
811	-0.635
811	-0.623
812	-0.615
812	-0.615
813	-0.619
813	-0.62
813	-0.618
814	-0.62
814	-0.623
815	-0.616
815	-0.612
816	-0.607
816	-0.623
817	-0.635
817	-0.64
817	-0.648
818	-0.643
818	-0.641
819	-0.647
819	-0.647
820	-0.657
820	-0.657
820	-0.654
821	-0.649
821	-0.644
822	-0.644
822	-0.632
823	-0.642
823	-0.64
823	-0.637
824	-0.634
824	-0.643
825	-0.643
825	-0.642
826	-0.637
826	-0.634
826	-0.632
827	-0.634
827	-0.627
828	-0.628
828	-0.621
829	-0.616
829	-0.605
829	-0.601
830	-0.599
830	-0.587
831	-0.582
831	-0.573
832	-0.565
832	-0.558
832	-0.552
833	-0.553
833	-0.556
834	-0.552
834	-0.548
835	-0.542
835	-0.543
835	-0.539
836	-0.535
836	-0.531
837	-0.524
837	-0.516
838	-0.504
838	-0.49
839	-0.487
839	-0.475
839	-0.468
840	-0.467
840	-0.456
841	-0.446
841	-0.441
842	-0.432
842	-0.421
842	-0.419
843	-0.414
843	-0.409
844	-0.41
844	-0.401
845	-0.39
845	-0.385
845	-0.376
846	-0.364
846	-0.355
847	-0.347
847	-0.337
848	-0.325
848	-0.31
848	-0.297
849	-0.287
849	-0.276
850	-0.268
850	-0.261
851	-0.252
851	-0.239
851	-0.232
852	-0.221
852	-0.212
853	-0.206
853	-0.198
854	-0.19
854	-0.183
854	-0.173
855	-0.163
855	-0.157
856	-0.152
856	-0.147
857	-0.141
857	-0.135
857	-0.127
858	-0.12
858	-0.115
859	-0.107
859	-0.098
860	-0.092
860	-0.082
860	-0.075
861	-0.068
861	-0.062
862	-0.057
862	-0.052
863	-0.046
863	-0.04
863	-0.036
864	-0.032
864	-0.028
865	-0.024
865	-0.021
866	-0.017
866	-0.014
866	-0.01
867	-0.007
867	-0.004
868	-0.001
868	0.002
869	0.005
869	0.007
869	0.009
870	0.011
870	0.014
871	0.015
871	0.016
872	0.016
872	0.017
872	0.017
873	0.017
873	0.017
874	0.016
874	0.016
875	0.015
875	0.015
875	0.014
876	0.014
876	0.013
877	0.012
877	0.012
878	0.011
878	0.01
878	0.009
879	0.009
879	0.008
880	0.008
880	0.007
881	0.007
881	0.007
881	0.007
882	0.007
882	0.006
883	0.006
883	0.006
884	0.005
884	0.005
884	0.005
885	0.004
885	0.004
886	0.003
886	0.001
887	0
887	-0.001
887	-0.002
888	-0.002
888	-0.003
889	-0.004
889	-0.004
890	-0.005
890	-0.005
890	-0.005
891	-0.005
891	-0.004
892	-0.003
892	-0.003
893	-0.002
893	-0.002
893	-0.002
894	-0.002
894	-0.002
895	-0.002
895	-0.002
895	-0.002
896	-0.001
896	-0.001
897	-0.001
897	-0.001
898	-0.001
898	-0
898	0
899	0.001
899	0.001
900	0.001
900	0.001
901	0.001
901	0.001
901	0.001
902	0.001
902	0.001
903	0.001
903	0
904	-0
904	-0.001
904	-0.001
905	-0.001
905	-0.001
906	-0.001
906	-0
907	-0
907	0
907	0.001
908	0.001
908	0.002
909	0.003
909	0.004
910	0.004
910	0.005
910	0.005
911	0.006
911	0.008
912	0.009
912	0.011
913	0.012
913	0.013
913	0.014
914	0.015
914	0.015
915	0.015
915	0.015
916	0.015
916	0.014
916	0.013
917	0.012
917	0.011
918	0.01
918	0.01
918	0.009
919	0.009
919	0.008
920	0.008
920	0.008
921	0.008
921	0.009
921	0.009
922	0.009
922	0.009
923	0.009
923	0.009
924	0.009
924	0.008
924	0.008
925	0.008
925	0.007
926	0.007
926	0.007
927	0.007
927	0.006
927	0.006
928	0.007
928	0.007
929	0.007
929	0.008
930	0.009
930	0.01
930	0.011
931	0.012
931	0.013
932	0.014
932	0.015
933	0.016
933	0.016
933	0.017
934	0.017
934	0.017
935	0.016
935	0.016
935	0.014
936	0.013
936	0.012
937	0.01
937	0.009
938	0.008
938	0.006
938	0.005
939	0.004
939	0.003
940	0.003
940	0.003
941	0.002
941	0.002
941	0.003
942	0.003
942	0.003
943	0.003
943	0.003
944	0.003
944	0.002
944	0.002
945	0.002
945	0.002
946	0.002
946	0
946	-0
947	-0.001
947	-0.002
948	-0.002
948	-0.002
949	-0.003
949	-0.003
949	-0.003
950	-0.003
950	-0.002
951	-0.002
951	-0.001
952	-0.001
952	0
952	0.001
953	0.002
953	0.002
954	0.002
954	0.003
955	0.003
955	0.003
955	0.003
956	0.003
956	0.002
957	0.001
957	0.001
957	0
958	-0
958	-0.001
959	-0.001
959	-0.001
960	-0.001
960	-0.002
960	-0.002
961	-0.002
961	-0.002
962	-0.002
962	-0.002
963	-0.002
963	-0.002
963	-0.002
964	-0.002
964	-0.002
965	-0.001
965	-0.001
966	-0.001
966	-0
966	0
967	0.001
967	0.001
968	0.001
968	0.001
968	0.001
969	0.001
969	0
970	-0
970	-0.001
971	-0.002
971	-0.003
971	-0.003
972	-0.004
972	-0.004
973	-0.004
973	-0.004
974	-0.003
974	-0.003
974	-0.002
975	-0
975	0.001
976	0.002
976	0.003
976	0.004
977	0.004
977	0.005
978	0.005
978	0.004
979	0.004
979	0.004
979	0.004
980	0.003
980	0.003
981	0.002
981	0.002
982	0.002
982	0.002
982	0.002
983	0.002
983	0.001
984	0.001
984	0.001
984	0.001
985	0.001
985	0.001
986	0.001
986	0.001
987	0
987	-0
987	-0
988	-0
988	-0.001
989	-0.001
989	-0.002
990	-0.002
990	-0.003
990	-0.003
991	-0.003
991	-0.003
992	-0.003
992	-0.004
992	-0.004
993	-0.004
993	-0.004
994	-0.005
994	-0.005
995	-0.005
995	-0.005
995	-0.005
996	-0.006
996	-0.006
997	-0.007
997	-0.007
997	-0.007
998	-0.007
998	-0.006
999	-0.006
999	-0.006
1000	-0.006
1000	-0.006
1000	-0.005
1001	-0.005
1001	-0.004
1002	-0.004
1002	-0.004
1003	-0.004
1003	-0.004
1003	-0.004
1004	-0.005
1004	-0.005
1005	-0.006
1005	-0.007
1005	-0.007
1006	-0.008
1006	-0.009
1007	-0.01
1007	-0.011
1008	-0.011
1008	-0.012
1008	-0.012
1009	-0.012
1009	-0.012
1010	-0.012
1010	-0.011
1010	-0.011
1011	-0.01
1011	-0.01
1012	-0.01
1012	-0.009
1013	-0.008
1013	-0.008
1013	-0.007
1014	-0.007
1014	-0.006
1015	-0.006
1015	-0.006
1016	-0.005
1016	-0.005
1016	-0.004
1017	-0.004
1017	-0.004
1018	-0.004
1018	-0.004
1018	-0.004
1019	-0.004
1019	-0.004
1020	-0.005
1020	-0.005
1021	-0.006
1021	-0.006
1021	-0.007
1022	-0.008
1022	-0.009
1023	-0.009
1023	-0.01
1023	-0.011
1024	-0.012
1024	-0.013
1025	-0.013
1025	-0.014
1026	-0.015
1026	-0.015
1026	-0.016
1027	-0.016
1027	-0.016
1028	-0.016
1028	-0.016
1028	-0.016
1029	-0.016
1029	-0.016
1030	-0.016
1030	-0.016
1031	-0.016
1031	-0.015
1031	-0.016
1032	-0.016
1032	-0.016
1033	-0.017
1033	-0.017
1033	-0.017
1034	-0.017
1034	-0.017
1035	-0.016
1035	-0.016
1036	-0.017
1036	-0.017
1036	-0.016
1037	-0.015
1037	-0.015
1038	-0.014
1038	-0.014
1039	-0.013
1039	-0.012
1039	-0.011
1040	-0.011
1040	-0.011
1041	-0.011
1041	-0.011
1041	-0.012
1042	-0.012
1042	-0.013
1043	-0.014
1043	-0.015
1044	-0.016
1044	-0.017
1044	-0.018
1045	-0.019
1045	-0.02
1046	-0.021
1046	-0.021
1046	-0.021
1047	-0.021
1047	-0.021
1048	-0.021
1048	-0.021
1049	-0.021
1049	-0.021
1049	-0.021
1050	-0.022
1050	-0.023
1051	-0.024
1051	-0.024
1051	-0.025
1052	-0.026
1052	-0.026
1053	-0.027
1053	-0.027
1053	-0.027
1054	-0.027
1054	-0.027
1055	-0.026
1055	-0.026
1056	-0.026
1056	-0.026
1056	-0.027
1057	-0.027
1057	-0.027
1058	-0.028
1058	-0.028
1058	-0.028
1059	-0.029
1059	-0.029
1060	-0.029
1060	-0.029
1061	-0.028
1061	-0.028
1061	-0.027
1062	-0.027
1062	-0.028
1063	-0.028
1063	-0.028
1063	-0.028
1064	-0.028
1064	-0.028
1065	-0.028
1065	-0.028
1066	-0.029
1066	-0.029
1066	-0.029
1067	-0.029
1067	-0.029
1068	-0.03
1068	-0.03
1068	-0.03
1069	-0.031
1069	-0.032
1070	-0.032
1070	-0.033
1071	-0.033
1071	-0.033
1071	-0.033
1072	-0.033
1072	-0.033
1073	-0.032
1073	-0.032
1073	-0.032
1074	-0.031
1074	-0.031
1075	-0.031
1075	-0.031
1076	-0.032
1076	-0.032
1076	-0.032
1077	-0.033
1077	-0.034
1078	-0.034
1078	-0.035
1078	-0.036
1079	-0.036
1079	-0.036
1080	-0.036
1080	-0.036
1080	-0.037
1081	-0.038
1081	-0.038
1082	-0.038
1082	-0.039
1083	-0.039
1083	-0.04
1083	-0.041
1084	-0.042
1084	-0.042
1085	-0.043
1085	-0.043
1085	-0.043
1086	-0.044
1086	-0.044
1087	-0.044
1087	-0.045
1088	-0.046
1088	-0.046
1088	-0.047
1089	-0.047
1089	-0.048
1090	-0.048
1090	-0.049
1090	-0.05
1091	-0.052
1091	-0.052
1092	-0.053
1092	-0.053
1092	-0.054
1093	-0.054
1093	-0.055
1094	-0.055
1094	-0.056
1095	-0.057
1095	-0.057
1095	-0.057
1096	-0.058
1096	-0.059
1097	-0.059
1097	-0.06
1097	-0.061
1098	-0.062
1098	-0.064
1099	-0.065
1099	-0.065
1100	-0.067
1100	-0.069
1100	-0.071
1101	-0.074
1101	-0.076
1102	-0.077
1102	-0.079
1102	-0.08
1103	-0.082
1103	-0.084
1104	-0.086
1104	-0.088
1104	-0.089
1105	-0.091
1105	-0.093
1106	-0.096
1106	-0.098
1107	-0.102
1107	-0.106
1107	-0.11
1108	-0.111
1108	-0.113
1109	-0.115
1109	-0.119
1109	-0.123
1110	-0.125
1110	-0.127
1111	-0.135
1111	-0.134
