Data from 3.5A_17C_Absorbance__281__00283.txt Node

Date: Tue Jun 20 15:06:27 CEST 2023
User: Marek
Spectrometer: MAYP115816
Trigger mode: 0
Integration Time (sec): 2.200000E-1
Scans to average: 10
Electric dark correction enabled: true
Nonlinearity correction enabled: true
Boxcar width: 5
XAxis mode: Wavelengths
Number of Pixels in Spectrum: 2068
>>>>>Begin Spectral Data<<<<<
199	-0.598
199	-0.587
200	-0.549
200	-0.497
201	-0.467
201	-0.461
202	-0.445
202	-0.438
203	-0.437
203	-0.431
204	-0.412
204	-0.398
205	-0.376
205	-0.366
205	-0.374
206	-0.377
206	-0.373
207	-0.366
207	-0.373
208	-0.373
208	-0.375
209	-0.378
209	-0.386
210	-0.398
210	-0.406
211	-0.4
211	-0.402
212	-0.411
212	-0.418
213	-0.412
213	-0.411
213	-0.409
214	-0.414
214	-0.415
215	-0.412
215	-0.419
216	-0.428
216	-0.433
217	-0.428
217	-0.427
218	-0.435
218	-0.435
219	-0.441
219	-0.443
220	-0.447
220	-0.451
221	-0.448
221	-0.449
221	-0.443
222	-0.444
222	-0.442
223	-0.441
223	-0.442
224	-0.444
224	-0.441
225	-0.439
225	-0.44
226	-0.441
226	-0.44
227	-0.447
227	-0.458
228	-0.462
228	-0.467
229	-0.472
229	-0.47
229	-0.47
230	-0.464
230	-0.463
231	-0.461
231	-0.456
232	-0.457
232	-0.451
233	-0.45
233	-0.438
234	-0.44
234	-0.432
235	-0.437
235	-0.448
236	-0.454
236	-0.456
236	-0.456
237	-0.455
237	-0.456
238	-0.457
238	-0.459
239	-0.459
239	-0.472
240	-0.466
240	-0.462
241	-0.456
241	-0.459
242	-0.462
242	-0.469
243	-0.468
243	-0.471
243	-0.474
244	-0.471
244	-0.472
245	-0.472
245	-0.475
246	-0.486
246	-0.488
247	-0.495
247	-0.482
248	-0.482
248	-0.484
249	-0.492
249	-0.492
250	-0.491
250	-0.5
250	-0.497
251	-0.496
251	-0.49
252	-0.491
252	-0.502
253	-0.496
253	-0.507
254	-0.51
254	-0.511
255	-0.522
255	-0.521
256	-0.524
256	-0.535
257	-0.546
257	-0.543
258	-0.543
258	-0.553
258	-0.549
259	-0.541
259	-0.557
260	-0.553
260	-0.543
261	-0.551
261	-0.537
262	-0.542
262	-0.542
263	-0.533
263	-0.536
264	-0.548
264	-0.547
265	-0.538
265	-0.541
265	-0.55
266	-0.544
266	-0.544
267	-0.545
267	-0.558
268	-0.566
268	-0.561
269	-0.549
269	-0.566
270	-0.57
270	-0.567
271	-0.578
271	-0.587
272	-0.589
272	-0.589
272	-0.583
273	-0.593
273	-0.607
274	-0.601
274	-0.595
275	-0.591
275	-0.579
276	-0.584
276	-0.589
277	-0.59
277	-0.589
278	-0.593
278	-0.593
278	-0.58
279	-0.589
279	-0.602
280	-0.604
280	-0.618
281	-0.611
281	-0.605
282	-0.608
282	-0.598
283	-0.593
283	-0.606
284	-0.622
284	-0.63
285	-0.612
285	-0.617
285	-0.608
286	-0.612
286	-0.625
287	-0.624
287	-0.624
288	-0.62
288	-0.602
289	-0.6
289	-0.609
290	-0.617
290	-0.607
291	-0.612
291	-0.612
292	-0.595
292	-0.594
292	-0.596
293	-0.588
293	-0.583
294	-0.583
294	-0.568
295	-0.55
295	-0.564
296	-0.573
296	-0.564
297	-0.551
297	-0.552
298	-0.55
298	-0.563
298	-0.57
299	-0.551
299	-0.544
300	-0.539
300	-0.517
301	-0.499
301	-0.503
302	-0.517
302	-0.504
303	-0.496
303	-0.487
304	-0.47
304	-0.473
305	-0.468
305	-0.477
305	-0.492
306	-0.479
306	-0.478
307	-0.469
307	-0.48
308	-0.487
308	-0.484
309	-0.485
309	-0.48
310	-0.475
310	-0.469
311	-0.456
311	-0.473
311	-0.461
312	-0.458
312	-0.447
313	-0.437
313	-0.439
314	-0.443
314	-0.442
315	-0.442
315	-0.437
316	-0.435
316	-0.426
317	-0.418
317	-0.415
318	-0.408
318	-0.405
318	-0.394
319	-0.382
319	-0.378
320	-0.375
320	-0.373
321	-0.365
321	-0.367
322	-0.361
322	-0.356
323	-0.356
323	-0.345
324	-0.343
324	-0.335
324	-0.323
325	-0.309
325	-0.294
326	-0.286
326	-0.26
327	-0.246
327	-0.226
328	-0.196
328	-0.177
329	-0.149
329	-0.123
330	-0.097
330	-0.065
330	-0.03
331	0.004
331	0.033
332	0.062
332	0.092
333	0.119
333	0.149
334	0.175
334	0.198
335	0.22
335	0.237
336	0.254
336	0.271
336	0.285
337	0.299
337	0.313
338	0.323
338	0.331
339	0.341
339	0.35
340	0.356
340	0.362
341	0.367
341	0.371
342	0.377
342	0.381
342	0.384
343	0.387
343	0.391
344	0.392
344	0.394
345	0.397
345	0.399
346	0.401
346	0.402
347	0.403
347	0.404
348	0.405
348	0.406
348	0.406
349	0.406
349	0.407
350	0.407
350	0.408
351	0.408
351	0.408
352	0.408
352	0.408
353	0.408
353	0.408
354	0.408
354	0.409
354	0.409
355	0.409
355	0.408
356	0.408
356	0.408
357	0.408
357	0.408
358	0.408
358	0.408
359	0.408
359	0.407
360	0.407
360	0.407
360	0.407
361	0.407
361	0.407
362	0.407
362	0.407
363	0.407
363	0.406
364	0.406
364	0.406
365	0.405
365	0.405
366	0.405
366	0.404
366	0.404
367	0.404
367	0.404
368	0.403
368	0.403
369	0.402
369	0.402
370	0.402
370	0.402
371	0.401
371	0.401
372	0.4
372	0.4
372	0.4
373	0.399
373	0.399
374	0.399
374	0.398
375	0.398
375	0.397
376	0.397
376	0.396
377	0.396
377	0.395
378	0.395
378	0.394
378	0.394
379	0.393
379	0.393
380	0.393
380	0.393
381	0.392
381	0.392
382	0.392
382	0.391
383	0.391
383	0.391
383	0.39
384	0.39
384	0.389
385	0.388
385	0.388
386	0.387
386	0.387
387	0.386
387	0.386
388	0.386
388	0.385
389	0.385
389	0.384
389	0.384
390	0.384
390	0.383
391	0.383
391	0.382
392	0.382
392	0.381
393	0.381
393	0.381
394	0.38
394	0.38
394	0.379
395	0.379
395	0.378
396	0.378
396	0.377
397	0.377
397	0.377
398	0.376
398	0.375
399	0.375
399	0.374
400	0.374
400	0.373
400	0.373
401	0.373
401	0.372
402	0.372
402	0.371
403	0.371
403	0.371
404	0.37
404	0.37
405	0.369
405	0.369
405	0.368
406	0.368
406	0.368
407	0.367
407	0.367
408	0.366
408	0.366
409	0.366
409	0.366
410	0.365
410	0.365
411	0.365
411	0.365
411	0.364
412	0.364
412	0.364
413	0.363
413	0.363
414	0.362
414	0.362
415	0.362
415	0.361
416	0.361
416	0.361
416	0.361
417	0.36
417	0.36
418	0.36
418	0.36
419	0.36
419	0.36
420	0.36
420	0.36
421	0.359
421	0.359
421	0.359
422	0.359
422	0.359
423	0.358
423	0.358
424	0.358
424	0.357
425	0.357
425	0.357
426	0.357
426	0.357
427	0.357
427	0.357
427	0.357
428	0.357
428	0.356
429	0.356
429	0.356
430	0.355
430	0.355
431	0.355
431	0.355
432	0.354
432	0.354
432	0.354
433	0.354
433	0.354
434	0.354
434	0.354
435	0.354
435	0.354
436	0.354
436	0.354
437	0.354
437	0.354
437	0.354
438	0.354
438	0.354
439	0.354
439	0.354
440	0.354
440	0.354
441	0.354
441	0.354
442	0.354
442	0.354
442	0.354
443	0.354
443	0.354
444	0.354
444	0.354
445	0.354
445	0.354
446	0.354
446	0.354
447	0.354
447	0.354
447	0.354
448	0.355
448	0.355
449	0.355
449	0.355
450	0.355
450	0.355
451	0.355
451	0.355
452	0.355
452	0.355
452	0.355
453	0.355
453	0.355
454	0.355
454	0.356
455	0.356
455	0.356
456	0.357
456	0.357
457	0.357
457	0.357
458	0.358
458	0.358
458	0.358
459	0.359
459	0.358
460	0.358
460	0.359
461	0.359
461	0.36
462	0.36
462	0.361
463	0.362
463	0.362
463	0.363
464	0.363
464	0.364
465	0.364
465	0.365
466	0.366
466	0.366
467	0.367
467	0.367
467	0.368
468	0.368
468	0.369
469	0.369
469	0.37
470	0.371
470	0.372
471	0.373
471	0.374
472	0.374
472	0.375
472	0.376
473	0.378
473	0.379
474	0.38
474	0.381
475	0.382
475	0.383
476	0.384
476	0.385
477	0.386
477	0.387
477	0.388
478	0.389
478	0.391
479	0.392
479	0.394
480	0.395
480	0.397
481	0.398
481	0.4
482	0.402
482	0.404
482	0.405
483	0.408
483	0.41
484	0.412
484	0.413
485	0.415
485	0.417
486	0.419
486	0.421
487	0.422
487	0.424
487	0.426
488	0.427
488	0.429
489	0.431
489	0.434
490	0.437
490	0.439
491	0.442
491	0.445
492	0.447
492	0.45
492	0.452
493	0.455
493	0.458
494	0.461
494	0.464
495	0.467
495	0.47
496	0.473
496	0.476
496	0.479
497	0.483
497	0.486
498	0.489
498	0.493
499	0.496
499	0.5
500	0.504
500	0.507
501	0.511
501	0.514
501	0.517
502	0.521
502	0.524
503	0.528
503	0.531
504	0.535
504	0.538
505	0.542
505	0.546
506	0.55
506	0.553
506	0.557
507	0.561
507	0.565
508	0.569
508	0.574
509	0.578
509	0.582
510	0.586
510	0.589
511	0.593
511	0.597
511	0.6
512	0.604
512	0.607
513	0.61
513	0.613
514	0.616
514	0.62
515	0.623
515	0.626
515	0.629
516	0.632
516	0.635
517	0.638
517	0.64
518	0.642
518	0.644
519	0.647
519	0.648
520	0.65
520	0.653
520	0.655
521	0.656
521	0.658
522	0.66
522	0.661
523	0.663
523	0.664
524	0.665
524	0.666
524	0.667
525	0.668
525	0.669
526	0.669
526	0.67
527	0.67
527	0.67
528	0.67
528	0.67
529	0.669
529	0.668
529	0.667
530	0.666
530	0.665
531	0.664
531	0.663
532	0.661
532	0.66
533	0.658
533	0.656
533	0.654
534	0.652
534	0.65
535	0.647
535	0.645
536	0.642
536	0.639
537	0.636
537	0.633
538	0.63
538	0.627
538	0.623
539	0.62
539	0.617
540	0.613
540	0.61
541	0.606
541	0.602
542	0.598
542	0.594
542	0.59
543	0.585
543	0.581
544	0.576
544	0.572
545	0.567
545	0.562
546	0.557
546	0.552
547	0.547
547	0.542
547	0.537
548	0.532
548	0.527
549	0.522
549	0.518
550	0.513
550	0.507
551	0.502
551	0.496
551	0.491
552	0.485
552	0.48
553	0.475
553	0.47
554	0.464
554	0.459
555	0.453
555	0.448
556	0.442
556	0.437
556	0.432
557	0.427
557	0.422
558	0.416
558	0.411
559	0.406
559	0.401
560	0.396
560	0.391
560	0.387
561	0.383
561	0.379
562	0.374
562	0.37
563	0.366
563	0.361
564	0.357
564	0.353
564	0.349
565	0.345
565	0.34
566	0.336
566	0.332
567	0.328
567	0.324
568	0.319
568	0.314
568	0.31
569	0.305
569	0.301
570	0.296
570	0.291
571	0.288
571	0.284
572	0.279
572	0.275
573	0.271
573	0.267
573	0.264
574	0.261
574	0.258
575	0.255
575	0.252
576	0.249
576	0.245
577	0.242
577	0.239
577	0.237
578	0.235
578	0.232
579	0.231
579	0.228
580	0.225
580	0.221
581	0.218
581	0.215
581	0.213
582	0.211
582	0.209
583	0.207
583	0.203
584	0.199
584	0.195
585	0.193
585	0.19
585	0.187
586	0.184
586	0.182
587	0.179
587	0.177
588	0.174
588	0.172
589	0.17
589	0.169
590	0.167
590	0.165
590	0.164
591	0.163
591	0.161
592	0.158
592	0.157
593	0.155
593	0.154
594	0.152
594	0.15
594	0.149
595	0.147
595	0.146
596	0.144
596	0.143
597	0.143
597	0.141
598	0.139
598	0.138
598	0.137
599	0.136
599	0.134
600	0.133
600	0.131
601	0.13
601	0.129
602	0.128
602	0.126
602	0.125
603	0.124
603	0.123
604	0.122
604	0.121
605	0.12
605	0.119
606	0.117
606	0.116
606	0.114
607	0.113
607	0.112
608	0.111
608	0.109
609	0.108
609	0.107
610	0.106
610	0.104
610	0.103
611	0.102
611	0.101
612	0.101
612	0.1
613	0.1
613	0.099
614	0.098
614	0.097
614	0.096
615	0.095
615	0.094
616	0.093
616	0.092
617	0.091
617	0.09
618	0.089
618	0.088
618	0.088
619	0.087
619	0.087
620	0.088
620	0.087
621	0.086
621	0.085
622	0.084
622	0.084
622	0.083
623	0.082
623	0.081
624	0.081
624	0.08
625	0.079
625	0.079
626	0.078
626	0.077
626	0.077
627	0.076
627	0.075
628	0.075
628	0.074
629	0.073
629	0.072
630	0.071
630	0.07
630	0.069
631	0.069
631	0.068
632	0.067
632	0.067
633	0.066
633	0.066
634	0.065
634	0.065
634	0.064
635	0.063
635	0.062
636	0.061
636	0.06
637	0.059
637	0.058
638	0.057
638	0.056
638	0.055
639	0.054
639	0.053
640	0.052
640	0.051
641	0.05
641	0.049
642	0.048
642	0.047
642	0.046
643	0.045
643	0.044
644	0.043
644	0.042
645	0.041
645	0.039
646	0.038
646	0.035
646	0.033
647	0.03
647	0.027
648	0.025
648	0.022
649	0.02
649	0.017
650	0.014
650	0.011
650	0.009
651	0.005
651	0.001
652	-0.004
652	-0.009
653	-0.013
653	-0.018
653	-0.014
654	-0.007
654	-0.009
655	-0.013
655	-0.015
656	-0.018
656	-0.021
657	-0.023
657	-0.026
657	-0.029
658	-0.033
658	-0.049
659	-0.089
659	-0.126
660	-0.145
660	-0.159
661	-0.174
661	-0.19
661	-0.206
662	-0.219
662	-0.234
663	-0.251
663	-0.271
664	-0.288
664	-0.307
665	-0.328
665	-0.35
665	-0.37
666	-0.394
666	-0.421
667	-0.449
667	-0.483
668	-0.514
668	-0.557
669	-0.6
669	-0.648
669	-0.704
670	-0.77
670	-0.918
671	-1.221
671	-1.582
672	-1.968
672	-2.264
672	-2.444
673	-2.533
673	-2.555
674	-2.572
674	-2.581
675	-2.596
675	-2.6
676	-2.596
676	-2.567
676	-2.486
677	-2.305
677	-1.98
678	-1.402
678	-1.025
679	-0.895
679	-0.826
680	-0.777
680	-0.742
680	-0.713
681	-0.7
681	-0.677
682	-0.663
682	-0.64
683	-0.619
683	-0.615
684	-0.608
684	-0.607
684	-0.599
685	-0.597
685	-0.599
686	-0.588
686	-0.585
687	-0.585
687	-0.585
687	-0.593
688	-0.584
688	-0.583
689	-0.594
689	-0.594
690	-0.583
690	-0.579
691	-0.582
691	-0.591
691	-0.596
692	-0.598
692	-0.597
693	-0.608
693	-0.623
694	-0.605
694	-0.609
695	-0.614
695	-0.608
695	-0.615
696	-0.623
696	-0.619
697	-0.616
697	-0.614
698	-0.608
698	-0.602
698	-0.616
699	-0.614
699	-0.614
700	-0.637
700	-0.634
701	-0.62
701	-0.614
702	-0.614
702	-0.611
702	-0.614
703	-0.606
703	-0.598
704	-0.609
704	-0.614
705	-0.605
705	-0.604
705	-0.6
706	-0.595
706	-0.593
707	-0.607
707	-0.61
708	-0.61
708	-0.609
709	-0.611
709	-0.608
709	-0.605
710	-0.613
710	-0.617
711	-0.616
711	-0.618
712	-0.612
712	-0.61
713	-0.615
713	-0.615
713	-0.593
714	-0.599
714	-0.603
715	-0.596
715	-0.605
716	-0.619
716	-0.628
716	-0.628
717	-0.634
717	-0.625
718	-0.619
718	-0.623
719	-0.615
719	-0.606
720	-0.6
720	-0.594
720	-0.59
721	-0.581
721	-0.583
722	-0.583
722	-0.579
723	-0.598
723	-0.608
723	-0.62
724	-0.62
724	-0.626
725	-0.621
725	-0.627
726	-0.63
726	-0.622
727	-0.622
727	-0.632
727	-0.622
728	-0.61
728	-0.605
729	-0.609
729	-0.61
730	-0.617
730	-0.608
730	-0.616
731	-0.62
731	-0.619
732	-0.619
732	-0.612
733	-0.626
733	-0.633
734	-0.641
734	-0.632
734	-0.614
735	-0.605
735	-0.6
736	-0.598
736	-0.591
737	-0.592
737	-0.583
737	-0.575
738	-0.561
738	-0.55
739	-0.553
739	-0.556
740	-0.568
740	-0.569
741	-0.577
741	-0.591
741	-0.599
742	-0.607
742	-0.624
743	-0.63
743	-0.631
744	-0.635
744	-0.644
744	-0.638
745	-0.647
745	-0.638
746	-0.633
746	-0.628
747	-0.63
747	-0.621
748	-0.621
748	-0.629
748	-0.628
749	-0.62
749	-0.624
750	-0.613
750	-0.614
751	-0.612
751	-0.606
751	-0.617
752	-0.621
752	-0.624
753	-0.624
753	-0.617
754	-0.635
754	-0.639
754	-0.646
755	-0.647
755	-0.639
756	-0.643
756	-0.628
757	-0.622
757	-0.611
758	-0.61
758	-0.612
758	-0.608
759	-0.611
759	-0.611
760	-0.611
760	-0.615
761	-0.608
761	-0.614
761	-0.611
762	-0.618
762	-0.621
763	-0.62
763	-0.625
764	-0.625
764	-0.623
764	-0.627
765	-0.623
765	-0.63
766	-0.633
766	-0.634
767	-0.648
767	-0.642
768	-0.639
768	-0.63
768	-0.623
769	-0.623
769	-0.631
770	-0.644
770	-0.648
771	-0.644
771	-0.644
771	-0.652
772	-0.654
772	-0.675
773	-0.677
773	-0.68
774	-0.679
774	-0.662
775	-0.649
775	-0.647
775	-0.649
776	-0.659
776	-0.653
777	-0.653
777	-0.635
778	-0.642
778	-0.647
778	-0.647
779	-0.656
779	-0.67
780	-0.667
780	-0.676
781	-0.666
781	-0.657
781	-0.668
782	-0.689
782	-0.691
783	-0.691
783	-0.699
784	-0.702
784	-0.697
784	-0.715
785	-0.712
785	-0.722
786	-0.728
786	-0.726
787	-0.716
787	-0.726
788	-0.719
788	-0.711
788	-0.712
789	-0.713
789	-0.703
790	-0.701
790	-0.686
791	-0.691
791	-0.686
791	-0.681
792	-0.676
792	-0.681
793	-0.687
793	-0.677
794	-0.668
794	-0.665
794	-0.672
795	-0.694
795	-0.682
796	-0.684
796	-0.679
797	-0.671
797	-0.66
797	-0.652
798	-0.67
798	-0.678
799	-0.678
799	-0.665
800	-0.66
800	-0.668
801	-0.667
801	-0.673
801	-0.67
802	-0.669
802	-0.67
803	-0.666
803	-0.656
804	-0.66
804	-0.667
804	-0.648
805	-0.631
805	-0.622
806	-0.623
806	-0.621
807	-0.624
807	-0.623
807	-0.607
808	-0.604
808	-0.597
809	-0.594
809	-0.597
810	-0.603
810	-0.601
810	-0.597
811	-0.6
811	-0.592
812	-0.585
812	-0.586
813	-0.591
813	-0.593
813	-0.589
814	-0.588
814	-0.59
815	-0.58
815	-0.575
816	-0.573
816	-0.59
817	-0.603
817	-0.607
817	-0.616
818	-0.608
818	-0.605
819	-0.615
819	-0.613
820	-0.624
820	-0.624
820	-0.62
821	-0.616
821	-0.61
822	-0.61
822	-0.598
823	-0.608
823	-0.608
823	-0.602
824	-0.604
824	-0.613
825	-0.61
825	-0.609
826	-0.604
826	-0.6
826	-0.599
827	-0.6
827	-0.592
828	-0.593
828	-0.59
829	-0.582
829	-0.569
829	-0.569
830	-0.57
830	-0.557
831	-0.552
831	-0.543
832	-0.536
832	-0.531
832	-0.523
833	-0.52
833	-0.528
834	-0.523
834	-0.518
835	-0.512
835	-0.512
835	-0.507
836	-0.504
836	-0.501
837	-0.494
837	-0.487
838	-0.478
838	-0.459
839	-0.455
839	-0.444
839	-0.436
840	-0.436
840	-0.427
841	-0.417
841	-0.411
842	-0.402
842	-0.391
842	-0.388
843	-0.386
843	-0.384
844	-0.382
844	-0.371
845	-0.358
845	-0.352
845	-0.345
846	-0.336
846	-0.327
847	-0.319
847	-0.308
848	-0.298
848	-0.284
848	-0.273
849	-0.265
849	-0.256
850	-0.248
850	-0.241
851	-0.231
851	-0.22
851	-0.213
852	-0.202
852	-0.192
853	-0.187
853	-0.18
854	-0.173
854	-0.164
854	-0.156
855	-0.148
855	-0.143
856	-0.137
856	-0.133
857	-0.129
857	-0.124
857	-0.115
858	-0.108
858	-0.103
859	-0.097
859	-0.09
860	-0.083
860	-0.074
860	-0.069
861	-0.061
861	-0.054
862	-0.049
862	-0.045
863	-0.04
863	-0.034
863	-0.031
864	-0.026
864	-0.022
865	-0.019
865	-0.016
866	-0.013
866	-0.01
866	-0.007
867	-0.004
867	-0
868	0.002
868	0.004
869	0.007
869	0.01
869	0.012
870	0.014
870	0.015
871	0.016
871	0.017
872	0.017
872	0.018
872	0.018
873	0.018
873	0.017
874	0.017
874	0.016
875	0.015
875	0.015
875	0.014
876	0.014
876	0.013
877	0.012
877	0.012
878	0.011
878	0.01
878	0.009
879	0.009
879	0.008
880	0.008
880	0.007
881	0.006
881	0.006
881	0.006
882	0.006
882	0.006
883	0.006
883	0.005
884	0.005
884	0.006
884	0.005
885	0.005
885	0.004
886	0.003
886	0.002
887	0.001
887	0
887	-0.001
888	-0.002
888	-0.002
889	-0.003
889	-0.004
890	-0.004
890	-0.005
890	-0.005
891	-0.004
891	-0.004
892	-0.003
892	-0.002
893	-0.001
893	-0.001
893	-0.001
894	-0.001
894	-0.001
895	-0.001
895	-0.001
895	-0.001
896	0
896	0
897	0
897	0.001
898	0.001
898	0.001
898	0.002
899	0.002
899	0.003
900	0.003
900	0.003
901	0.003
901	0.002
901	0.002
902	0.002
902	0.002
903	0.002
903	0.002
904	0.001
904	0
904	0
905	-0
905	-0
906	0
906	0.001
907	0.001
907	0.001
907	0.002
908	0.003
908	0.003
909	0.004
909	0.005
910	0.005
910	0.006
910	0.006
911	0.006
911	0.008
912	0.009
912	0.01
913	0.012
913	0.013
913	0.014
914	0.015
914	0.015
915	0.015
915	0.015
916	0.015
916	0.014
916	0.013
917	0.012
917	0.011
918	0.01
918	0.01
918	0.009
919	0.009
919	0.008
920	0.008
920	0.008
921	0.008
921	0.008
921	0.009
922	0.009
922	0.009
923	0.009
923	0.009
924	0.009
924	0.008
924	0.008
925	0.008
925	0.007
926	0.007
926	0.007
927	0.006
927	0.006
927	0.007
928	0.007
928	0.007
929	0.008
929	0.008
930	0.009
930	0.01
930	0.012
931	0.013
931	0.014
932	0.015
932	0.016
933	0.017
933	0.017
933	0.018
934	0.018
934	0.018
935	0.018
935	0.017
935	0.016
936	0.015
936	0.014
937	0.013
937	0.011
938	0.01
938	0.009
938	0.007
939	0.007
939	0.006
940	0.006
940	0.005
941	0.004
941	0.004
941	0.005
942	0.005
942	0.005
943	0.005
943	0.005
944	0.005
944	0.005
944	0.005
945	0.005
945	0.005
946	0.004
946	0.003
946	0.003
947	0.002
947	0.001
948	0
948	-0
949	-0.001
949	-0.001
949	-0.001
950	-0.001
950	-0
951	0
951	0.001
952	0.002
952	0.002
952	0.003
953	0.004
953	0.004
954	0.004
954	0.005
955	0.005
955	0.005
955	0.005
956	0.004
956	0.004
957	0.003
957	0.003
957	0.002
958	0.002
958	0.002
959	0.001
959	0.001
960	0.001
960	0.001
960	0.001
961	0.001
961	0.001
962	0
962	0.001
963	0.001
963	0.001
963	0.001
964	0.001
964	0.002
965	0.002
965	0.002
966	0.003
966	0.003
966	0.004
967	0.005
967	0.005
968	0.005
968	0.005
968	0.005
969	0.005
969	0.004
970	0.003
970	0.002
971	0.001
971	0.001
971	0
972	-0
972	-0.001
973	-0
973	-0.001
974	-0
974	0.001
974	0.001
975	0.003
975	0.004
976	0.004
976	0.005
976	0.006
977	0.006
977	0.006
978	0.006
978	0.006
979	0.006
979	0.005
979	0.005
980	0.004
980	0.004
981	0.003
981	0.003
982	0.002
982	0.002
982	0.002
983	0.002
983	0.002
984	0.002
984	0.002
984	0.002
985	0.002
985	0.003
986	0.003
986	0.003
987	0.002
987	0.002
987	0.002
988	0.002
988	0.002
989	0.002
989	0.001
990	0.001
990	-0
990	-0
991	-0.001
991	-0.001
992	-0.001
992	-0.002
992	-0.002
993	-0.002
993	-0.003
994	-0.003
994	-0.003
995	-0.003
995	-0.004
995	-0.004
996	-0.004
996	-0.005
997	-0.005
997	-0.005
997	-0.005
998	-0.004
998	-0.004
999	-0.003
999	-0.003
1000	-0.003
1000	-0.003
1000	-0.003
1001	-0.002
1001	-0.002
1002	-0.002
1002	-0.001
1003	-0.001
1003	-0.002
1003	-0.002
1004	-0.002
1004	-0.003
1005	-0.003
1005	-0.004
1005	-0.005
1006	-0.006
1006	-0.007
1007	-0.007
1007	-0.008
1008	-0.009
1008	-0.01
1008	-0.01
1009	-0.011
1009	-0.01
1010	-0.01
1010	-0.01
1010	-0.009
1011	-0.009
1011	-0.009
1012	-0.008
1012	-0.007
1013	-0.006
1013	-0.006
1013	-0.005
1014	-0.004
1014	-0.004
1015	-0.003
1015	-0.003
1016	-0.002
1016	-0.002
1016	-0.002
1017	-0.002
1017	-0.002
1018	-0.001
1018	-0.001
1018	-0.001
1019	-0.002
1019	-0.002
1020	-0.002
1020	-0.003
1021	-0.003
1021	-0.004
1021	-0.004
1022	-0.005
1022	-0.006
1023	-0.006
1023	-0.007
1023	-0.007
1024	-0.008
1024	-0.01
1025	-0.01
1025	-0.011
1026	-0.012
1026	-0.012
1026	-0.013
1027	-0.013
1027	-0.014
1028	-0.014
1028	-0.014
1028	-0.014
1029	-0.014
1029	-0.014
1030	-0.014
1030	-0.015
1031	-0.015
1031	-0.014
1031	-0.015
1032	-0.015
1032	-0.015
1033	-0.015
1033	-0.016
1033	-0.016
1034	-0.016
1034	-0.016
1035	-0.015
1035	-0.015
1036	-0.015
1036	-0.015
1036	-0.014
1037	-0.014
1037	-0.013
1038	-0.012
1038	-0.012
1039	-0.011
1039	-0.01
1039	-0.01
1040	-0.009
1040	-0.009
1041	-0.009
1041	-0.009
1041	-0.009
1042	-0.01
1042	-0.011
1043	-0.012
1043	-0.013
1044	-0.014
1044	-0.015
1044	-0.016
1045	-0.017
1045	-0.018
1046	-0.019
1046	-0.019
1046	-0.019
1047	-0.019
1047	-0.019
1048	-0.019
1048	-0.019
1049	-0.019
1049	-0.019
1049	-0.02
1050	-0.02
1050	-0.021
1051	-0.022
1051	-0.023
1051	-0.023
1052	-0.023
1052	-0.024
1053	-0.024
1053	-0.024
1053	-0.024
1054	-0.024
1054	-0.024
1055	-0.024
1055	-0.024
1056	-0.024
1056	-0.024
1056	-0.024
1057	-0.024
1057	-0.025
1058	-0.025
1058	-0.025
1058	-0.025
1059	-0.026
1059	-0.026
1060	-0.026
1060	-0.026
1061	-0.026
1061	-0.026
1061	-0.025
1062	-0.025
1062	-0.025
1063	-0.025
1063	-0.025
1063	-0.025
1064	-0.025
1064	-0.024
1065	-0.025
1065	-0.025
1066	-0.025
1066	-0.025
1066	-0.026
1067	-0.026
1067	-0.026
1068	-0.026
1068	-0.027
1068	-0.027
1069	-0.028
1069	-0.029
1070	-0.03
1070	-0.03
1071	-0.03
1071	-0.031
1071	-0.031
1072	-0.031
1072	-0.031
1073	-0.03
1073	-0.03
1073	-0.03
1074	-0.029
1074	-0.029
1075	-0.029
1075	-0.028
1076	-0.029
1076	-0.029
1076	-0.029
1077	-0.03
1077	-0.03
1078	-0.031
1078	-0.031
1078	-0.032
1079	-0.032
1079	-0.032
1080	-0.033
1080	-0.033
1080	-0.034
1081	-0.034
1081	-0.034
1082	-0.035
1082	-0.035
1083	-0.036
1083	-0.036
1083	-0.037
1084	-0.038
1084	-0.038
1085	-0.039
1085	-0.039
1085	-0.039
1086	-0.039
1086	-0.04
1087	-0.04
1087	-0.04
1088	-0.042
1088	-0.042
1088	-0.042
1089	-0.043
1089	-0.044
1090	-0.044
1090	-0.045
1090	-0.047
1091	-0.047
1091	-0.047
1092	-0.048
1092	-0.048
1092	-0.049
1093	-0.05
1093	-0.05
1094	-0.05
1094	-0.051
1095	-0.052
1095	-0.052
1095	-0.052
1096	-0.054
1096	-0.055
1097	-0.055
1097	-0.056
1097	-0.057
1098	-0.058
1098	-0.059
1099	-0.059
1099	-0.061
1100	-0.062
1100	-0.064
1100	-0.066
1101	-0.068
1101	-0.07
1102	-0.07
1102	-0.073
1102	-0.074
1103	-0.076
1103	-0.078
1104	-0.081
1104	-0.083
1104	-0.084
1105	-0.085
1105	-0.087
1106	-0.09
1106	-0.091
1107	-0.094
1107	-0.098
1107	-0.101
1108	-0.102
1108	-0.102
1109	-0.104
1109	-0.106
1109	-0.109
1110	-0.109
1110	-0.113
1111	-0.121
1111	-0.118
