Data from 3.5A_17C_Absorbance__349__00351.txt Node

Date: Tue Jun 20 15:08:57 CEST 2023
User: Marek
Spectrometer: MAYP115816
Trigger mode: 0
Integration Time (sec): 2.200000E-1
Scans to average: 10
Electric dark correction enabled: true
Nonlinearity correction enabled: true
Boxcar width: 5
XAxis mode: Wavelengths
Number of Pixels in Spectrum: 2068
>>>>>Begin Spectral Data<<<<<
199	-0.624
199	-0.605
200	-0.574
200	-0.519
201	-0.491
201	-0.487
202	-0.469
202	-0.461
203	-0.458
203	-0.45
204	-0.431
204	-0.414
205	-0.393
205	-0.383
205	-0.392
206	-0.395
206	-0.39
207	-0.386
207	-0.392
208	-0.397
208	-0.403
209	-0.404
209	-0.413
210	-0.426
210	-0.433
211	-0.427
211	-0.43
212	-0.436
212	-0.44
213	-0.435
213	-0.428
213	-0.427
214	-0.436
214	-0.437
215	-0.433
215	-0.437
216	-0.446
216	-0.452
217	-0.451
217	-0.453
218	-0.46
218	-0.463
219	-0.468
219	-0.468
220	-0.469
220	-0.474
221	-0.475
221	-0.476
221	-0.465
222	-0.466
222	-0.464
223	-0.462
223	-0.463
224	-0.465
224	-0.462
225	-0.462
225	-0.464
226	-0.464
226	-0.465
227	-0.474
227	-0.483
228	-0.486
228	-0.496
229	-0.502
229	-0.498
229	-0.499
230	-0.494
230	-0.492
231	-0.488
231	-0.481
232	-0.482
232	-0.478
233	-0.478
233	-0.466
234	-0.466
234	-0.461
235	-0.465
235	-0.474
236	-0.48
236	-0.482
236	-0.482
237	-0.481
237	-0.482
238	-0.481
238	-0.483
239	-0.483
239	-0.494
240	-0.484
240	-0.484
241	-0.479
241	-0.48
242	-0.484
242	-0.492
243	-0.49
243	-0.491
243	-0.495
244	-0.494
244	-0.494
245	-0.498
245	-0.5
246	-0.508
246	-0.511
247	-0.519
247	-0.504
248	-0.505
248	-0.51
249	-0.515
249	-0.515
250	-0.514
250	-0.522
250	-0.521
251	-0.524
251	-0.522
252	-0.524
252	-0.537
253	-0.53
253	-0.54
254	-0.546
254	-0.547
255	-0.558
255	-0.557
256	-0.559
256	-0.57
257	-0.576
257	-0.574
258	-0.574
258	-0.584
258	-0.58
259	-0.572
259	-0.588
260	-0.586
260	-0.575
261	-0.585
261	-0.57
262	-0.577
262	-0.574
263	-0.564
263	-0.569
264	-0.578
264	-0.578
265	-0.57
265	-0.572
265	-0.581
266	-0.57
266	-0.572
267	-0.571
267	-0.586
268	-0.593
268	-0.586
269	-0.578
269	-0.592
270	-0.593
270	-0.59
271	-0.601
271	-0.614
272	-0.615
272	-0.617
272	-0.612
273	-0.62
273	-0.636
274	-0.63
274	-0.624
275	-0.623
275	-0.613
276	-0.618
276	-0.622
277	-0.622
277	-0.622
278	-0.625
278	-0.624
278	-0.611
279	-0.62
279	-0.633
280	-0.634
280	-0.644
281	-0.639
281	-0.631
282	-0.639
282	-0.63
283	-0.624
283	-0.64
284	-0.652
284	-0.661
285	-0.641
285	-0.649
285	-0.638
286	-0.642
286	-0.656
287	-0.65
287	-0.65
288	-0.649
288	-0.633
289	-0.634
289	-0.64
290	-0.651
290	-0.639
291	-0.645
291	-0.644
292	-0.627
292	-0.626
292	-0.627
293	-0.617
293	-0.611
294	-0.609
294	-0.595
295	-0.578
295	-0.59
296	-0.602
296	-0.598
297	-0.587
297	-0.59
298	-0.586
298	-0.6
298	-0.604
299	-0.586
299	-0.58
300	-0.577
300	-0.558
301	-0.539
301	-0.541
302	-0.549
302	-0.535
303	-0.532
303	-0.521
304	-0.505
304	-0.509
305	-0.503
305	-0.511
305	-0.526
306	-0.512
306	-0.508
307	-0.501
307	-0.512
308	-0.513
308	-0.511
309	-0.512
309	-0.505
310	-0.503
310	-0.497
311	-0.482
311	-0.499
311	-0.489
312	-0.487
312	-0.476
313	-0.469
313	-0.469
314	-0.476
314	-0.477
315	-0.473
315	-0.47
316	-0.463
316	-0.454
317	-0.445
317	-0.443
318	-0.435
318	-0.432
318	-0.42
319	-0.409
319	-0.401
320	-0.399
320	-0.399
321	-0.395
321	-0.394
322	-0.39
322	-0.383
323	-0.386
323	-0.376
324	-0.375
324	-0.364
324	-0.354
325	-0.338
325	-0.319
326	-0.31
326	-0.287
327	-0.274
327	-0.252
328	-0.218
328	-0.195
329	-0.169
329	-0.141
330	-0.114
330	-0.08
330	-0.048
331	-0.013
331	0.017
332	0.049
332	0.078
333	0.105
333	0.134
334	0.161
334	0.183
335	0.205
335	0.223
336	0.242
336	0.259
336	0.273
337	0.287
337	0.302
338	0.314
338	0.322
339	0.333
339	0.342
340	0.349
340	0.355
341	0.36
341	0.365
342	0.371
342	0.376
342	0.379
343	0.382
343	0.386
344	0.388
344	0.39
345	0.393
345	0.395
346	0.397
346	0.398
347	0.399
347	0.401
348	0.402
348	0.403
348	0.403
349	0.404
349	0.405
350	0.405
350	0.406
351	0.406
351	0.406
352	0.406
352	0.406
353	0.406
353	0.406
354	0.406
354	0.406
354	0.406
355	0.406
355	0.406
356	0.406
356	0.406
357	0.406
357	0.406
358	0.405
358	0.405
359	0.405
359	0.405
360	0.405
360	0.405
360	0.405
361	0.404
361	0.404
362	0.404
362	0.404
363	0.404
363	0.404
364	0.403
364	0.403
365	0.403
365	0.402
366	0.402
366	0.402
366	0.402
367	0.402
367	0.401
368	0.401
368	0.401
369	0.4
369	0.4
370	0.399
370	0.399
371	0.399
371	0.398
372	0.398
372	0.397
372	0.397
373	0.397
373	0.396
374	0.396
374	0.396
375	0.396
375	0.395
376	0.395
376	0.395
377	0.394
377	0.393
378	0.393
378	0.392
378	0.392
379	0.391
379	0.391
380	0.391
380	0.39
381	0.39
381	0.389
382	0.389
382	0.388
383	0.388
383	0.388
383	0.387
384	0.387
384	0.386
385	0.386
385	0.386
386	0.385
386	0.385
387	0.384
387	0.384
388	0.383
388	0.383
389	0.383
389	0.382
389	0.382
390	0.382
390	0.381
391	0.381
391	0.38
392	0.38
392	0.38
393	0.379
393	0.379
394	0.378
394	0.378
394	0.377
395	0.377
395	0.376
396	0.376
396	0.375
397	0.375
397	0.374
398	0.374
398	0.373
399	0.373
399	0.372
400	0.372
400	0.371
400	0.371
401	0.37
401	0.37
402	0.37
402	0.369
403	0.369
403	0.369
404	0.368
404	0.368
405	0.367
405	0.367
405	0.366
406	0.366
406	0.366
407	0.365
407	0.365
408	0.364
408	0.364
409	0.364
409	0.364
410	0.364
410	0.364
411	0.363
411	0.363
411	0.363
412	0.362
412	0.362
413	0.362
413	0.361
414	0.361
414	0.361
415	0.36
415	0.36
416	0.36
416	0.359
416	0.359
417	0.359
417	0.358
418	0.358
418	0.358
419	0.358
419	0.358
420	0.358
420	0.358
421	0.357
421	0.357
421	0.357
422	0.357
422	0.357
423	0.357
423	0.357
424	0.356
424	0.356
425	0.356
425	0.356
426	0.356
426	0.356
427	0.355
427	0.355
427	0.355
428	0.355
428	0.354
429	0.354
429	0.353
430	0.353
430	0.353
431	0.353
431	0.353
432	0.353
432	0.353
432	0.352
433	0.352
433	0.352
434	0.353
434	0.353
435	0.353
435	0.353
436	0.353
436	0.353
437	0.352
437	0.352
437	0.352
438	0.352
438	0.352
439	0.352
439	0.352
440	0.352
440	0.352
441	0.352
441	0.352
442	0.352
442	0.352
442	0.352
443	0.352
443	0.352
444	0.352
444	0.352
445	0.352
445	0.352
446	0.352
446	0.352
447	0.352
447	0.352
447	0.352
448	0.352
448	0.353
449	0.353
449	0.353
450	0.353
450	0.353
451	0.353
451	0.353
452	0.353
452	0.353
452	0.353
453	0.353
453	0.354
454	0.354
454	0.354
455	0.354
455	0.355
456	0.355
456	0.355
457	0.355
457	0.356
458	0.356
458	0.356
458	0.356
459	0.356
459	0.356
460	0.357
460	0.357
461	0.357
461	0.358
462	0.358
462	0.359
463	0.36
463	0.361
463	0.361
464	0.362
464	0.362
465	0.363
465	0.363
466	0.364
466	0.365
467	0.365
467	0.365
467	0.366
468	0.366
468	0.366
469	0.367
469	0.368
470	0.369
470	0.37
471	0.37
471	0.371
472	0.372
472	0.373
472	0.374
473	0.375
473	0.376
474	0.377
474	0.378
475	0.379
475	0.38
476	0.381
476	0.383
477	0.384
477	0.385
477	0.386
478	0.387
478	0.388
479	0.39
479	0.391
480	0.392
480	0.394
481	0.396
481	0.397
482	0.399
482	0.401
482	0.403
483	0.405
483	0.407
484	0.409
484	0.411
485	0.413
485	0.415
486	0.416
486	0.418
487	0.42
487	0.422
487	0.423
488	0.425
488	0.427
489	0.429
489	0.432
490	0.434
490	0.436
491	0.439
491	0.442
492	0.444
492	0.447
492	0.449
493	0.452
493	0.455
494	0.458
494	0.461
495	0.463
495	0.466
496	0.469
496	0.472
496	0.475
497	0.478
497	0.481
498	0.485
498	0.488
499	0.492
499	0.495
500	0.499
500	0.503
501	0.507
501	0.51
501	0.514
502	0.517
502	0.521
503	0.524
503	0.528
504	0.531
504	0.534
505	0.538
505	0.542
506	0.546
506	0.549
506	0.553
507	0.557
507	0.561
508	0.565
508	0.569
509	0.573
509	0.577
510	0.581
510	0.584
511	0.588
511	0.592
511	0.595
512	0.599
512	0.602
513	0.605
513	0.608
514	0.612
514	0.615
515	0.618
515	0.621
515	0.624
516	0.626
516	0.629
517	0.632
517	0.634
518	0.637
518	0.638
519	0.64
519	0.642
520	0.644
520	0.647
520	0.649
521	0.651
521	0.653
522	0.654
522	0.656
523	0.657
523	0.659
524	0.659
524	0.66
524	0.661
525	0.662
525	0.663
526	0.664
526	0.664
527	0.665
527	0.665
528	0.665
528	0.665
529	0.665
529	0.664
529	0.663
530	0.662
530	0.661
531	0.66
531	0.658
532	0.657
532	0.655
533	0.654
533	0.652
533	0.65
534	0.647
534	0.646
535	0.643
535	0.641
536	0.638
536	0.635
537	0.632
537	0.63
538	0.627
538	0.623
538	0.62
539	0.617
539	0.614
540	0.61
540	0.606
541	0.602
541	0.598
542	0.594
542	0.59
542	0.586
543	0.581
543	0.577
544	0.572
544	0.568
545	0.564
545	0.56
546	0.555
546	0.55
547	0.544
547	0.539
547	0.535
548	0.53
548	0.525
549	0.52
549	0.516
550	0.511
550	0.505
551	0.499
551	0.494
551	0.488
552	0.483
552	0.478
553	0.473
553	0.468
554	0.463
554	0.457
555	0.452
555	0.446
556	0.441
556	0.436
556	0.431
557	0.426
557	0.421
558	0.416
558	0.411
559	0.405
559	0.4
560	0.395
560	0.391
560	0.387
561	0.383
561	0.379
562	0.375
562	0.37
563	0.366
563	0.362
564	0.358
564	0.354
564	0.35
565	0.346
565	0.342
566	0.337
566	0.333
567	0.329
567	0.325
568	0.321
568	0.316
568	0.312
569	0.307
569	0.303
570	0.298
570	0.294
571	0.29
571	0.286
572	0.282
572	0.278
573	0.274
573	0.27
573	0.266
574	0.263
574	0.26
575	0.257
575	0.255
576	0.252
576	0.248
577	0.245
577	0.242
577	0.24
578	0.237
578	0.235
579	0.234
579	0.231
580	0.228
580	0.224
581	0.221
581	0.218
581	0.216
582	0.214
582	0.212
583	0.21
583	0.206
584	0.202
584	0.198
585	0.195
585	0.193
585	0.19
586	0.187
586	0.185
587	0.182
587	0.179
588	0.177
588	0.175
589	0.173
589	0.171
590	0.169
590	0.168
590	0.167
591	0.165
591	0.163
592	0.161
592	0.159
593	0.158
593	0.156
594	0.154
594	0.153
594	0.151
595	0.15
595	0.148
596	0.146
596	0.146
597	0.145
597	0.144
598	0.142
598	0.141
598	0.139
599	0.138
599	0.137
600	0.135
600	0.134
601	0.133
601	0.132
602	0.13
602	0.129
602	0.128
603	0.127
603	0.126
604	0.125
604	0.124
605	0.123
605	0.122
606	0.12
606	0.118
606	0.117
607	0.116
607	0.115
608	0.113
608	0.112
609	0.11
609	0.11
610	0.108
610	0.107
610	0.106
611	0.105
611	0.104
612	0.103
612	0.103
613	0.102
613	0.102
614	0.1
614	0.099
614	0.098
615	0.097
615	0.096
616	0.095
616	0.095
617	0.094
617	0.092
618	0.091
618	0.09
618	0.09
619	0.089
619	0.09
620	0.09
620	0.089
621	0.088
621	0.087
622	0.087
622	0.086
622	0.085
623	0.084
623	0.084
624	0.083
624	0.082
625	0.081
625	0.081
626	0.08
626	0.079
626	0.079
627	0.078
627	0.077
628	0.077
628	0.076
629	0.074
629	0.073
630	0.072
630	0.071
630	0.071
631	0.07
631	0.069
632	0.068
632	0.068
633	0.067
633	0.066
634	0.066
634	0.065
634	0.064
635	0.063
635	0.062
636	0.061
636	0.06
637	0.059
637	0.058
638	0.057
638	0.056
638	0.055
639	0.054
639	0.053
640	0.052
640	0.051
641	0.05
641	0.048
642	0.047
642	0.046
642	0.045
643	0.044
643	0.043
644	0.041
644	0.04
645	0.039
645	0.037
646	0.035
646	0.033
646	0.03
647	0.028
647	0.025
648	0.022
648	0.019
649	0.016
649	0.013
650	0.01
650	0.007
650	0.004
651	0
651	-0.004
652	-0.01
652	-0.015
653	-0.02
653	-0.024
653	-0.021
654	-0.013
654	-0.015
655	-0.019
655	-0.021
656	-0.023
656	-0.027
657	-0.029
657	-0.032
657	-0.035
658	-0.04
658	-0.057
659	-0.101
659	-0.141
660	-0.158
660	-0.172
661	-0.187
661	-0.204
661	-0.223
662	-0.237
662	-0.253
663	-0.271
663	-0.29
664	-0.306
664	-0.328
665	-0.353
665	-0.379
665	-0.401
666	-0.426
666	-0.454
667	-0.482
667	-0.516
668	-0.548
668	-0.593
669	-0.637
669	-0.684
669	-0.741
670	-0.8
670	-0.9
671	-1.111
671	-1.501
672	-1.937
672	-2.248
672	-2.433
673	-2.552
673	-2.582
674	-2.6
674	-2.609
675	-2.624
675	-2.63
676	-2.631
676	-2.609
676	-2.536
677	-2.379
677	-2.129
678	-1.567
678	-1.114
679	-0.961
679	-0.884
680	-0.828
680	-0.791
680	-0.76
681	-0.744
681	-0.717
682	-0.7
682	-0.676
683	-0.653
683	-0.651
684	-0.639
684	-0.637
684	-0.63
685	-0.627
685	-0.633
686	-0.62
686	-0.618
687	-0.619
687	-0.618
687	-0.624
688	-0.615
688	-0.617
689	-0.627
689	-0.627
690	-0.618
690	-0.611
691	-0.614
691	-0.621
691	-0.625
692	-0.628
692	-0.629
693	-0.639
693	-0.652
694	-0.636
694	-0.637
695	-0.643
695	-0.639
695	-0.649
696	-0.658
696	-0.653
697	-0.648
697	-0.646
698	-0.643
698	-0.637
698	-0.651
699	-0.648
699	-0.649
700	-0.668
700	-0.663
701	-0.65
701	-0.645
702	-0.649
702	-0.647
702	-0.649
703	-0.64
703	-0.629
704	-0.637
704	-0.64
705	-0.632
705	-0.631
705	-0.626
706	-0.618
706	-0.617
707	-0.63
707	-0.635
708	-0.632
708	-0.633
709	-0.635
709	-0.632
709	-0.63
710	-0.639
710	-0.643
711	-0.644
711	-0.641
712	-0.632
712	-0.63
713	-0.635
713	-0.635
713	-0.616
714	-0.618
714	-0.62
715	-0.613
715	-0.621
716	-0.637
716	-0.648
716	-0.647
717	-0.653
717	-0.649
718	-0.642
718	-0.645
719	-0.642
719	-0.635
720	-0.629
720	-0.626
720	-0.62
721	-0.613
721	-0.617
722	-0.615
722	-0.61
723	-0.628
723	-0.639
723	-0.648
724	-0.648
724	-0.654
725	-0.649
725	-0.653
726	-0.656
726	-0.648
727	-0.65
727	-0.659
727	-0.651
728	-0.64
728	-0.635
729	-0.638
729	-0.641
730	-0.646
730	-0.639
730	-0.642
731	-0.644
731	-0.645
732	-0.643
732	-0.637
733	-0.653
733	-0.66
734	-0.668
734	-0.659
734	-0.642
735	-0.633
735	-0.632
736	-0.632
736	-0.627
737	-0.632
737	-0.623
737	-0.613
738	-0.597
738	-0.586
739	-0.588
739	-0.589
740	-0.602
740	-0.601
741	-0.611
741	-0.62
741	-0.628
742	-0.636
742	-0.652
743	-0.659
743	-0.663
744	-0.667
744	-0.674
744	-0.668
745	-0.674
745	-0.664
746	-0.659
746	-0.65
747	-0.651
747	-0.643
748	-0.646
748	-0.65
748	-0.652
749	-0.646
749	-0.653
750	-0.646
750	-0.645
751	-0.644
751	-0.641
751	-0.654
752	-0.656
752	-0.657
753	-0.658
753	-0.647
754	-0.667
754	-0.667
754	-0.674
755	-0.676
755	-0.669
756	-0.671
756	-0.656
757	-0.648
757	-0.639
758	-0.641
758	-0.642
758	-0.635
759	-0.639
759	-0.639
760	-0.635
760	-0.639
761	-0.633
761	-0.637
761	-0.637
762	-0.643
762	-0.644
763	-0.642
763	-0.648
764	-0.65
764	-0.646
764	-0.653
765	-0.651
765	-0.657
766	-0.661
766	-0.663
767	-0.675
767	-0.671
768	-0.671
768	-0.661
768	-0.653
769	-0.655
769	-0.662
770	-0.674
770	-0.677
771	-0.673
771	-0.673
771	-0.679
772	-0.683
772	-0.706
773	-0.707
773	-0.709
774	-0.71
774	-0.692
775	-0.679
775	-0.68
775	-0.684
776	-0.695
776	-0.691
777	-0.688
777	-0.669
778	-0.681
778	-0.687
778	-0.684
779	-0.69
779	-0.706
780	-0.701
780	-0.708
781	-0.697
781	-0.687
781	-0.702
782	-0.723
782	-0.722
783	-0.72
783	-0.727
784	-0.732
784	-0.724
784	-0.742
785	-0.738
785	-0.75
786	-0.756
786	-0.75
787	-0.74
787	-0.75
788	-0.745
788	-0.743
788	-0.744
789	-0.742
789	-0.732
790	-0.729
790	-0.716
791	-0.719
791	-0.715
791	-0.709
792	-0.701
792	-0.703
793	-0.705
793	-0.694
794	-0.689
794	-0.683
794	-0.691
795	-0.706
795	-0.696
796	-0.7
796	-0.696
797	-0.69
797	-0.681
797	-0.673
798	-0.693
798	-0.699
799	-0.698
799	-0.685
800	-0.682
800	-0.692
801	-0.691
801	-0.696
801	-0.694
802	-0.692
802	-0.692
803	-0.688
803	-0.68
804	-0.688
804	-0.693
804	-0.678
805	-0.66
805	-0.651
806	-0.653
806	-0.649
807	-0.655
807	-0.654
807	-0.635
808	-0.631
808	-0.624
809	-0.62
809	-0.621
810	-0.624
810	-0.622
810	-0.615
811	-0.619
811	-0.61
812	-0.604
812	-0.607
813	-0.613
813	-0.614
813	-0.611
814	-0.61
814	-0.616
815	-0.606
815	-0.603
816	-0.598
816	-0.612
817	-0.625
817	-0.628
817	-0.635
818	-0.627
818	-0.627
819	-0.639
819	-0.637
820	-0.648
820	-0.646
820	-0.645
821	-0.641
821	-0.636
822	-0.634
822	-0.624
823	-0.635
823	-0.635
823	-0.629
824	-0.625
824	-0.635
825	-0.636
825	-0.635
826	-0.633
826	-0.629
826	-0.631
827	-0.633
827	-0.624
828	-0.622
828	-0.617
829	-0.613
829	-0.601
829	-0.599
830	-0.598
830	-0.585
831	-0.579
831	-0.567
832	-0.558
832	-0.553
832	-0.547
833	-0.548
833	-0.552
834	-0.548
834	-0.541
835	-0.532
835	-0.531
835	-0.526
836	-0.522
836	-0.519
837	-0.51
837	-0.501
838	-0.489
838	-0.474
839	-0.468
839	-0.459
839	-0.454
840	-0.452
840	-0.442
841	-0.434
841	-0.429
842	-0.421
842	-0.411
842	-0.41
843	-0.404
843	-0.401
844	-0.399
844	-0.389
845	-0.38
845	-0.373
845	-0.366
846	-0.355
846	-0.348
847	-0.339
847	-0.326
848	-0.315
848	-0.303
848	-0.292
849	-0.282
849	-0.272
850	-0.265
850	-0.258
851	-0.248
851	-0.235
851	-0.229
852	-0.219
852	-0.211
853	-0.204
853	-0.195
854	-0.187
854	-0.179
854	-0.168
855	-0.16
855	-0.155
856	-0.151
856	-0.144
857	-0.138
857	-0.132
857	-0.122
858	-0.115
858	-0.112
859	-0.103
859	-0.096
860	-0.088
860	-0.078
860	-0.072
861	-0.066
861	-0.059
862	-0.054
862	-0.049
863	-0.044
863	-0.038
863	-0.034
864	-0.031
864	-0.027
865	-0.022
865	-0.019
866	-0.015
866	-0.012
866	-0.009
867	-0.005
867	-0.002
868	0
868	0.004
869	0.007
869	0.009
869	0.011
870	0.013
870	0.014
871	0.016
871	0.017
872	0.017
872	0.017
872	0.018
873	0.018
873	0.017
874	0.017
874	0.016
875	0.016
875	0.015
875	0.015
876	0.014
876	0.013
877	0.013
877	0.012
878	0.011
878	0.01
878	0.009
879	0.008
879	0.008
880	0.008
880	0.007
881	0.007
881	0.007
881	0.007
882	0.007
882	0.006
883	0.006
883	0.006
884	0.006
884	0.006
884	0.005
885	0.005
885	0.004
886	0.003
886	0.002
887	0.001
887	-0
887	-0.001
888	-0.002
888	-0.002
889	-0.003
889	-0.004
890	-0.004
890	-0.004
890	-0.004
891	-0.003
891	-0.003
892	-0.002
892	-0.002
893	-0.001
893	-0.001
893	-0.001
894	-0.001
894	-0.001
895	-0.001
895	-0.001
895	-0.001
896	-0.001
896	-0
897	0
897	0
898	-0
898	0
898	0.001
899	0.001
899	0.002
900	0.002
900	0.002
901	0.002
901	0.002
901	0.002
902	0.002
902	0.002
903	0.002
903	0.001
904	0.001
904	-0
904	-0
905	-0.001
905	-0.001
906	-0
906	0
907	0.001
907	0.001
907	0.001
908	0.002
908	0.003
909	0.004
909	0.004
910	0.005
910	0.005
910	0.005
911	0.006
911	0.007
912	0.009
912	0.01
913	0.011
913	0.013
913	0.014
914	0.014
914	0.015
915	0.015
915	0.015
916	0.014
916	0.014
916	0.013
917	0.012
917	0.011
918	0.01
918	0.01
918	0.009
919	0.009
919	0.009
920	0.009
920	0.009
921	0.009
921	0.009
921	0.009
922	0.009
922	0.009
923	0.009
923	0.009
924	0.009
924	0.009
924	0.008
925	0.008
925	0.007
926	0.007
926	0.007
927	0.007
927	0.007
927	0.007
928	0.007
928	0.007
929	0.008
929	0.008
930	0.009
930	0.01
930	0.012
931	0.012
931	0.013
932	0.014
932	0.015
933	0.016
933	0.017
933	0.017
934	0.017
934	0.017
935	0.017
935	0.016
935	0.015
936	0.014
936	0.012
937	0.011
937	0.01
938	0.009
938	0.007
938	0.006
939	0.005
939	0.005
940	0.004
940	0.004
941	0.003
941	0.003
941	0.003
942	0.003
942	0.003
943	0.004
943	0.003
944	0.004
944	0.003
944	0.003
945	0.003
945	0.003
946	0.003
946	0.002
946	0.001
947	0.001
947	-0
948	-0.001
948	-0.001
949	-0.002
949	-0.002
949	-0.002
950	-0.002
950	-0.001
951	-0.001
951	-0
952	-0
952	0.001
952	0.002
953	0.002
953	0.003
954	0.003
954	0.003
955	0.004
955	0.004
955	0.004
956	0.003
956	0.003
957	0.002
957	0.001
957	0.001
958	0
958	-0
959	-0
959	-0.001
960	-0.001
960	-0.001
960	-0.001
961	-0.001
961	-0.001
962	-0.002
962	-0.001
963	-0.002
963	-0.002
963	-0.002
964	-0.002
964	-0.002
965	-0.001
965	-0.001
966	-0.001
966	-0
966	0.001
967	0.001
967	0.002
968	0.002
968	0.003
968	0.003
969	0.002
969	0.002
970	0.001
970	0
971	-0.001
971	-0.001
971	-0.002
972	-0.002
972	-0.002
973	-0.002
973	-0.002
974	-0.002
974	-0.001
974	-0
975	0.001
975	0.002
976	0.003
976	0.004
976	0.004
977	0.005
977	0.005
978	0.005
978	0.005
979	0.005
979	0.005
979	0.004
980	0.004
980	0.003
981	0.003
981	0.002
982	0.002
982	0.002
982	0.002
983	0.002
983	0.002
984	0.002
984	0.002
984	0.001
985	0.002
985	0.002
986	0.002
986	0.001
987	0.001
987	0.001
987	0.001
988	0.001
988	0
989	-0
989	-0.001
990	-0.001
990	-0.002
990	-0.002
991	-0.002
991	-0.002
992	-0.003
992	-0.003
992	-0.003
993	-0.003
993	-0.003
994	-0.004
994	-0.004
995	-0.005
995	-0.005
995	-0.005
996	-0.005
996	-0.006
997	-0.006
997	-0.007
997	-0.007
998	-0.007
998	-0.006
999	-0.006
999	-0.005
1000	-0.005
1000	-0.005
1000	-0.005
1001	-0.004
1001	-0.004
1002	-0.004
1002	-0.003
1003	-0.003
1003	-0.003
1003	-0.003
1004	-0.004
1004	-0.004
1005	-0.005
1005	-0.006
1005	-0.007
1006	-0.007
1006	-0.008
1007	-0.009
1007	-0.01
1008	-0.01
1008	-0.011
1008	-0.012
1009	-0.012
1009	-0.011
1010	-0.011
1010	-0.011
1010	-0.01
1011	-0.01
1011	-0.01
1012	-0.009
1012	-0.008
1013	-0.008
1013	-0.007
1013	-0.007
1014	-0.006
1014	-0.006
1015	-0.006
1015	-0.005
1016	-0.005
1016	-0.004
1016	-0.004
1017	-0.004
1017	-0.004
1018	-0.003
1018	-0.003
1018	-0.003
1019	-0.004
1019	-0.004
1020	-0.004
1020	-0.005
1021	-0.006
1021	-0.006
1021	-0.007
1022	-0.007
1022	-0.008
1023	-0.009
1023	-0.01
1023	-0.011
1024	-0.011
1024	-0.012
1025	-0.013
1025	-0.013
1026	-0.014
1026	-0.014
1026	-0.015
1027	-0.015
1027	-0.015
1028	-0.015
1028	-0.015
1028	-0.015
1029	-0.015
1029	-0.014
1030	-0.015
1030	-0.015
1031	-0.015
1031	-0.015
1031	-0.015
1032	-0.015
1032	-0.015
1033	-0.016
1033	-0.016
1033	-0.016
1034	-0.016
1034	-0.016
1035	-0.016
1035	-0.016
1036	-0.016
1036	-0.016
1036	-0.016
1037	-0.015
1037	-0.014
1038	-0.014
1038	-0.013
1039	-0.012
1039	-0.012
1039	-0.011
1040	-0.011
1040	-0.01
1041	-0.01
1041	-0.01
1041	-0.011
1042	-0.011
1042	-0.012
1043	-0.013
1043	-0.014
1044	-0.015
1044	-0.016
1044	-0.017
1045	-0.018
1045	-0.019
1046	-0.019
1046	-0.02
1046	-0.02
1047	-0.02
1047	-0.02
1048	-0.02
1048	-0.02
1049	-0.02
1049	-0.02
1049	-0.021
1050	-0.022
1050	-0.022
1051	-0.023
1051	-0.024
1051	-0.024
1052	-0.025
1052	-0.026
1053	-0.026
1053	-0.026
1053	-0.026
1054	-0.026
1054	-0.026
1055	-0.025
1055	-0.025
1056	-0.025
1056	-0.026
1056	-0.026
1057	-0.027
1057	-0.027
1058	-0.027
1058	-0.028
1058	-0.028
1059	-0.028
1059	-0.028
1060	-0.028
1060	-0.028
1061	-0.028
1061	-0.027
1061	-0.027
1062	-0.027
1062	-0.026
1063	-0.026
1063	-0.027
1063	-0.027
1064	-0.027
1064	-0.027
1065	-0.027
1065	-0.027
1066	-0.027
1066	-0.028
1066	-0.028
1067	-0.028
1067	-0.028
1068	-0.029
1068	-0.029
1068	-0.029
1069	-0.029
1069	-0.03
1070	-0.031
1070	-0.031
1071	-0.031
1071	-0.031
1071	-0.032
1072	-0.032
1072	-0.031
1073	-0.031
1073	-0.031
1073	-0.03
1074	-0.03
1074	-0.029
1075	-0.029
1075	-0.03
1076	-0.03
1076	-0.03
1076	-0.031
1077	-0.032
1077	-0.033
1078	-0.033
1078	-0.034
1078	-0.035
1079	-0.035
1079	-0.035
1080	-0.036
1080	-0.036
1080	-0.037
1081	-0.037
1081	-0.037
1082	-0.038
1082	-0.039
1083	-0.039
1083	-0.04
1083	-0.04
1084	-0.041
1084	-0.041
1085	-0.042
1085	-0.042
1085	-0.042
1086	-0.043
1086	-0.043
1087	-0.044
1087	-0.044
1088	-0.045
1088	-0.045
1088	-0.046
1089	-0.047
1089	-0.047
1090	-0.048
1090	-0.049
1090	-0.05
1091	-0.05
1091	-0.05
1092	-0.051
1092	-0.051
1092	-0.052
1093	-0.053
1093	-0.053
1094	-0.053
1094	-0.054
1095	-0.054
1095	-0.054
1095	-0.055
1096	-0.056
1096	-0.057
1097	-0.058
1097	-0.059
1097	-0.059
1098	-0.061
1098	-0.063
1099	-0.064
1099	-0.064
1100	-0.066
1100	-0.068
1100	-0.07
1101	-0.072
1101	-0.074
1102	-0.075
1102	-0.077
1102	-0.078
1103	-0.079
1103	-0.081
1104	-0.083
1104	-0.086
1104	-0.087
1105	-0.087
1105	-0.089
1106	-0.093
1106	-0.094
1107	-0.099
1107	-0.101
1107	-0.105
1108	-0.106
1108	-0.107
1109	-0.109
1109	-0.112
1109	-0.115
1110	-0.118
1110	-0.12
1111	-0.125
1111	-0.118
