Data from 3.5A_17C_Absorbance__373__00375.txt Node

Date: Tue Jun 20 15:09:50 CEST 2023
User: Marek
Spectrometer: MAYP115816
Trigger mode: 0
Integration Time (sec): 2.200000E-1
Scans to average: 10
Electric dark correction enabled: true
Nonlinearity correction enabled: true
Boxcar width: 5
XAxis mode: Wavelengths
Number of Pixels in Spectrum: 2068
>>>>>Begin Spectral Data<<<<<
199	-0.637
199	-0.62
200	-0.583
200	-0.534
201	-0.509
201	-0.501
202	-0.482
202	-0.473
203	-0.473
203	-0.465
204	-0.444
204	-0.427
205	-0.404
205	-0.395
205	-0.4
206	-0.4
206	-0.392
207	-0.387
207	-0.393
208	-0.394
208	-0.397
209	-0.401
209	-0.407
210	-0.421
210	-0.43
211	-0.425
211	-0.428
212	-0.441
212	-0.446
213	-0.443
213	-0.437
213	-0.436
214	-0.443
214	-0.444
215	-0.439
215	-0.442
216	-0.452
216	-0.457
217	-0.454
217	-0.455
218	-0.464
218	-0.467
219	-0.473
219	-0.473
220	-0.476
220	-0.482
221	-0.483
221	-0.484
221	-0.475
222	-0.474
222	-0.471
223	-0.467
223	-0.468
224	-0.47
224	-0.469
225	-0.469
225	-0.471
226	-0.471
226	-0.47
227	-0.478
227	-0.487
228	-0.493
228	-0.502
229	-0.507
229	-0.502
229	-0.503
230	-0.497
230	-0.495
231	-0.491
231	-0.486
232	-0.489
232	-0.483
233	-0.483
233	-0.472
234	-0.475
234	-0.471
235	-0.475
235	-0.486
236	-0.493
236	-0.493
236	-0.494
237	-0.493
237	-0.494
238	-0.494
238	-0.497
239	-0.495
239	-0.505
240	-0.497
240	-0.495
241	-0.489
241	-0.493
242	-0.495
242	-0.502
243	-0.501
243	-0.501
243	-0.504
244	-0.502
244	-0.505
245	-0.507
245	-0.508
246	-0.517
246	-0.519
247	-0.529
247	-0.515
248	-0.513
248	-0.516
249	-0.521
249	-0.521
250	-0.518
250	-0.525
250	-0.525
251	-0.529
251	-0.525
252	-0.524
252	-0.535
253	-0.531
253	-0.542
254	-0.546
254	-0.548
255	-0.559
255	-0.558
256	-0.557
256	-0.568
257	-0.578
257	-0.574
258	-0.573
258	-0.581
258	-0.577
259	-0.572
259	-0.588
260	-0.586
260	-0.576
261	-0.587
261	-0.574
262	-0.58
262	-0.579
263	-0.571
263	-0.577
264	-0.587
264	-0.585
265	-0.577
265	-0.581
265	-0.588
266	-0.579
266	-0.578
267	-0.574
267	-0.59
268	-0.6
268	-0.594
269	-0.587
269	-0.602
270	-0.604
270	-0.603
271	-0.614
271	-0.626
272	-0.626
272	-0.628
272	-0.621
273	-0.63
273	-0.644
274	-0.634
274	-0.629
275	-0.63
275	-0.617
276	-0.619
276	-0.625
277	-0.626
277	-0.624
278	-0.63
278	-0.628
278	-0.617
279	-0.628
279	-0.643
280	-0.645
280	-0.656
281	-0.651
281	-0.642
282	-0.649
282	-0.644
283	-0.636
283	-0.652
284	-0.666
284	-0.675
285	-0.654
285	-0.658
285	-0.648
286	-0.655
286	-0.668
287	-0.667
287	-0.667
288	-0.665
288	-0.646
289	-0.643
289	-0.651
290	-0.66
290	-0.65
291	-0.652
291	-0.65
292	-0.633
292	-0.632
292	-0.635
293	-0.625
293	-0.62
294	-0.622
294	-0.609
295	-0.591
295	-0.604
296	-0.619
296	-0.613
297	-0.601
297	-0.603
298	-0.599
298	-0.616
298	-0.619
299	-0.602
299	-0.592
300	-0.586
300	-0.567
301	-0.548
301	-0.551
302	-0.56
302	-0.546
303	-0.538
303	-0.525
304	-0.51
304	-0.512
305	-0.508
305	-0.52
305	-0.535
306	-0.521
306	-0.52
307	-0.512
307	-0.522
308	-0.526
308	-0.522
309	-0.525
309	-0.52
310	-0.516
310	-0.509
311	-0.494
311	-0.511
311	-0.499
312	-0.496
312	-0.484
313	-0.474
313	-0.476
314	-0.48
314	-0.476
315	-0.475
315	-0.468
316	-0.461
316	-0.451
317	-0.443
317	-0.441
318	-0.437
318	-0.437
318	-0.424
319	-0.413
319	-0.407
320	-0.406
320	-0.405
321	-0.401
321	-0.401
322	-0.395
322	-0.388
323	-0.387
323	-0.377
324	-0.377
324	-0.368
324	-0.356
325	-0.338
325	-0.322
326	-0.313
326	-0.29
327	-0.276
327	-0.255
328	-0.224
328	-0.203
329	-0.176
329	-0.148
330	-0.124
330	-0.089
330	-0.056
331	-0.022
331	0.01
332	0.04
332	0.069
333	0.096
333	0.127
334	0.154
334	0.176
335	0.2
335	0.217
336	0.238
336	0.256
336	0.27
337	0.285
337	0.299
338	0.311
338	0.319
339	0.33
339	0.34
340	0.346
340	0.353
341	0.358
341	0.363
342	0.369
342	0.373
342	0.377
343	0.38
343	0.384
344	0.387
344	0.389
345	0.392
345	0.394
346	0.396
346	0.398
347	0.399
347	0.4
348	0.4
348	0.402
348	0.402
349	0.402
349	0.403
350	0.403
350	0.403
351	0.404
351	0.404
352	0.404
352	0.404
353	0.404
353	0.404
354	0.404
354	0.405
354	0.404
355	0.404
355	0.404
356	0.404
356	0.404
357	0.404
357	0.404
358	0.404
358	0.404
359	0.403
359	0.403
360	0.403
360	0.403
360	0.403
361	0.403
361	0.403
362	0.403
362	0.402
363	0.402
363	0.402
364	0.402
364	0.401
365	0.401
365	0.401
366	0.4
366	0.4
366	0.4
367	0.4
367	0.399
368	0.399
368	0.398
369	0.398
369	0.398
370	0.397
370	0.397
371	0.397
371	0.396
372	0.396
372	0.396
372	0.395
373	0.395
373	0.395
374	0.394
374	0.394
375	0.394
375	0.393
376	0.393
376	0.393
377	0.392
377	0.392
378	0.391
378	0.391
378	0.39
379	0.39
379	0.389
380	0.389
380	0.388
381	0.388
381	0.388
382	0.387
382	0.387
383	0.387
383	0.386
383	0.386
384	0.385
384	0.385
385	0.384
385	0.384
386	0.383
386	0.383
387	0.382
387	0.382
388	0.381
388	0.381
389	0.381
389	0.381
389	0.38
390	0.38
390	0.38
391	0.379
391	0.379
392	0.378
392	0.378
393	0.378
393	0.377
394	0.377
394	0.376
394	0.376
395	0.375
395	0.375
396	0.374
396	0.374
397	0.373
397	0.373
398	0.372
398	0.372
399	0.371
399	0.371
400	0.37
400	0.37
400	0.369
401	0.369
401	0.368
402	0.368
402	0.368
403	0.368
403	0.367
404	0.367
404	0.366
405	0.366
405	0.365
405	0.365
406	0.364
406	0.364
407	0.364
407	0.363
408	0.363
408	0.362
409	0.362
409	0.362
410	0.362
410	0.362
411	0.362
411	0.361
411	0.361
412	0.361
412	0.36
413	0.36
413	0.36
414	0.359
414	0.359
415	0.359
415	0.358
416	0.358
416	0.358
416	0.357
417	0.357
417	0.357
418	0.357
418	0.357
419	0.357
419	0.356
420	0.356
420	0.356
421	0.356
421	0.355
421	0.355
422	0.355
422	0.355
423	0.355
423	0.355
424	0.354
424	0.354
425	0.354
425	0.354
426	0.354
426	0.354
427	0.354
427	0.354
427	0.354
428	0.353
428	0.353
429	0.353
429	0.352
430	0.352
430	0.352
431	0.352
431	0.351
432	0.351
432	0.351
432	0.351
433	0.351
433	0.351
434	0.351
434	0.351
435	0.351
435	0.351
436	0.351
436	0.351
437	0.351
437	0.351
437	0.351
438	0.351
438	0.351
439	0.351
439	0.351
440	0.351
440	0.351
441	0.351
441	0.351
442	0.351
442	0.351
442	0.351
443	0.351
443	0.351
444	0.351
444	0.35
445	0.35
445	0.35
446	0.35
446	0.35
447	0.35
447	0.35
447	0.351
448	0.351
448	0.351
449	0.351
449	0.351
450	0.352
450	0.352
451	0.352
451	0.352
452	0.352
452	0.352
452	0.352
453	0.352
453	0.352
454	0.352
454	0.353
455	0.353
455	0.353
456	0.354
456	0.354
457	0.354
457	0.354
458	0.354
458	0.354
458	0.355
459	0.355
459	0.355
460	0.355
460	0.355
461	0.356
461	0.356
462	0.357
462	0.357
463	0.358
463	0.359
463	0.36
464	0.36
464	0.361
465	0.361
465	0.362
466	0.362
466	0.363
467	0.364
467	0.364
467	0.364
468	0.364
468	0.365
469	0.366
469	0.367
470	0.367
470	0.368
471	0.369
471	0.37
472	0.371
472	0.372
472	0.373
473	0.374
473	0.375
474	0.376
474	0.377
475	0.378
475	0.379
476	0.38
476	0.381
477	0.382
477	0.383
477	0.385
478	0.386
478	0.387
479	0.388
479	0.39
480	0.391
480	0.393
481	0.394
481	0.396
482	0.397
482	0.399
482	0.401
483	0.403
483	0.406
484	0.408
484	0.409
485	0.411
485	0.413
486	0.415
486	0.416
487	0.418
487	0.42
487	0.421
488	0.423
488	0.424
489	0.427
489	0.429
490	0.432
490	0.434
491	0.437
491	0.439
492	0.442
492	0.444
492	0.447
493	0.45
493	0.453
494	0.456
494	0.459
495	0.461
495	0.464
496	0.467
496	0.47
496	0.473
497	0.476
497	0.48
498	0.483
498	0.486
499	0.489
499	0.493
500	0.497
500	0.501
501	0.505
501	0.508
501	0.511
502	0.514
502	0.518
503	0.521
503	0.525
504	0.528
504	0.531
505	0.535
505	0.539
506	0.542
506	0.546
506	0.55
507	0.554
507	0.558
508	0.562
508	0.566
509	0.57
509	0.574
510	0.578
510	0.582
511	0.586
511	0.589
511	0.593
512	0.597
512	0.6
513	0.603
513	0.606
514	0.609
514	0.613
515	0.616
515	0.618
515	0.621
516	0.624
516	0.627
517	0.629
517	0.632
518	0.634
518	0.635
519	0.637
519	0.639
520	0.641
520	0.644
520	0.646
521	0.647
521	0.649
522	0.651
522	0.653
523	0.654
523	0.656
524	0.657
524	0.657
524	0.658
525	0.659
525	0.66
526	0.66
526	0.661
527	0.661
527	0.661
528	0.661
528	0.661
529	0.66
529	0.66
529	0.659
530	0.658
530	0.657
531	0.656
531	0.655
532	0.653
532	0.652
533	0.65
533	0.649
533	0.647
534	0.644
534	0.642
535	0.64
535	0.637
536	0.635
536	0.632
537	0.629
537	0.626
538	0.623
538	0.62
538	0.616
539	0.613
539	0.61
540	0.607
540	0.603
541	0.599
541	0.595
542	0.591
542	0.587
542	0.583
543	0.579
543	0.574
544	0.57
544	0.566
545	0.561
545	0.557
546	0.552
546	0.547
547	0.542
547	0.538
547	0.533
548	0.529
548	0.524
549	0.519
549	0.514
550	0.51
550	0.504
551	0.499
551	0.493
551	0.488
552	0.483
552	0.478
553	0.473
553	0.467
554	0.462
554	0.456
555	0.451
555	0.446
556	0.441
556	0.435
556	0.43
557	0.426
557	0.421
558	0.415
558	0.41
559	0.405
559	0.4
560	0.395
560	0.391
560	0.387
561	0.383
561	0.379
562	0.374
562	0.37
563	0.366
563	0.362
564	0.357
564	0.354
564	0.35
565	0.346
565	0.342
566	0.337
566	0.333
567	0.329
567	0.325
568	0.321
568	0.316
568	0.312
569	0.307
569	0.303
570	0.298
570	0.294
571	0.29
571	0.286
572	0.282
572	0.278
573	0.274
573	0.271
573	0.267
574	0.264
574	0.261
575	0.258
575	0.256
576	0.253
576	0.249
577	0.245
577	0.243
577	0.241
578	0.238
578	0.236
579	0.234
579	0.232
580	0.229
580	0.225
581	0.222
581	0.219
581	0.217
582	0.215
582	0.213
583	0.211
583	0.208
584	0.204
584	0.2
585	0.197
585	0.194
585	0.191
586	0.189
586	0.186
587	0.183
587	0.181
588	0.178
588	0.176
589	0.174
589	0.172
590	0.171
590	0.169
590	0.168
591	0.166
591	0.164
592	0.162
592	0.16
593	0.159
593	0.157
594	0.155
594	0.154
594	0.152
595	0.151
595	0.149
596	0.147
596	0.147
597	0.146
597	0.145
598	0.143
598	0.142
598	0.14
599	0.139
599	0.138
600	0.136
600	0.135
601	0.134
601	0.133
602	0.131
602	0.13
602	0.129
603	0.127
603	0.127
604	0.126
604	0.124
605	0.123
605	0.123
606	0.121
606	0.119
606	0.118
607	0.116
607	0.116
608	0.114
608	0.113
609	0.111
609	0.111
610	0.109
610	0.108
610	0.107
611	0.106
611	0.105
612	0.105
612	0.104
613	0.104
613	0.103
614	0.101
614	0.1
614	0.099
615	0.098
615	0.097
616	0.096
616	0.095
617	0.095
617	0.093
618	0.092
618	0.091
618	0.091
619	0.091
619	0.091
620	0.091
620	0.09
621	0.089
621	0.088
622	0.087
622	0.087
622	0.086
623	0.085
623	0.085
624	0.084
624	0.083
625	0.082
625	0.082
626	0.081
626	0.08
626	0.08
627	0.079
627	0.078
628	0.077
628	0.076
629	0.075
629	0.074
630	0.073
630	0.072
630	0.071
631	0.07
631	0.069
632	0.069
632	0.068
633	0.067
633	0.067
634	0.066
634	0.066
634	0.065
635	0.064
635	0.063
636	0.062
636	0.061
637	0.06
637	0.058
638	0.058
638	0.056
638	0.055
639	0.054
639	0.053
640	0.051
640	0.05
641	0.049
641	0.048
642	0.047
642	0.046
642	0.045
643	0.043
643	0.042
644	0.041
644	0.039
645	0.038
645	0.036
646	0.034
646	0.032
646	0.029
647	0.026
647	0.023
648	0.02
648	0.017
649	0.014
649	0.012
650	0.009
650	0.006
650	0.003
651	-0.001
651	-0.006
652	-0.011
652	-0.017
653	-0.022
653	-0.027
653	-0.023
654	-0.016
654	-0.017
655	-0.021
655	-0.024
656	-0.027
656	-0.03
657	-0.032
657	-0.035
657	-0.038
658	-0.043
658	-0.06
659	-0.104
659	-0.146
660	-0.166
660	-0.181
661	-0.195
661	-0.213
661	-0.232
662	-0.246
662	-0.262
663	-0.28
663	-0.3
664	-0.318
664	-0.339
665	-0.363
665	-0.386
665	-0.408
666	-0.435
666	-0.464
667	-0.494
667	-0.529
668	-0.563
668	-0.61
669	-0.654
669	-0.704
669	-0.762
670	-0.828
670	-0.953
671	-1.203
671	-1.564
672	-1.972
672	-2.266
672	-2.445
673	-2.571
673	-2.602
674	-2.62
674	-2.629
675	-2.644
675	-2.649
676	-2.648
676	-2.624
676	-2.551
677	-2.401
677	-2.169
678	-1.599
678	-1.143
679	-0.986
679	-0.906
680	-0.851
680	-0.811
680	-0.779
681	-0.763
681	-0.738
682	-0.722
682	-0.697
683	-0.672
683	-0.669
684	-0.659
684	-0.657
684	-0.647
685	-0.644
685	-0.646
686	-0.633
686	-0.629
687	-0.627
687	-0.629
687	-0.637
688	-0.628
688	-0.628
689	-0.637
689	-0.639
690	-0.63
690	-0.624
691	-0.627
691	-0.631
691	-0.634
692	-0.637
692	-0.635
693	-0.646
693	-0.657
694	-0.638
694	-0.639
695	-0.644
695	-0.641
695	-0.65
696	-0.66
696	-0.656
697	-0.653
697	-0.654
698	-0.652
698	-0.646
698	-0.66
699	-0.66
699	-0.663
700	-0.683
700	-0.68
701	-0.67
701	-0.665
702	-0.665
702	-0.66
702	-0.66
703	-0.653
703	-0.644
704	-0.652
704	-0.654
705	-0.644
705	-0.642
705	-0.636
706	-0.63
706	-0.628
707	-0.644
707	-0.647
708	-0.645
708	-0.641
709	-0.643
709	-0.642
709	-0.636
710	-0.644
710	-0.648
711	-0.65
711	-0.651
712	-0.641
712	-0.64
713	-0.647
713	-0.649
713	-0.629
714	-0.631
714	-0.636
715	-0.629
715	-0.636
716	-0.652
716	-0.661
716	-0.662
717	-0.667
717	-0.659
718	-0.653
718	-0.654
719	-0.651
719	-0.644
720	-0.638
720	-0.633
720	-0.627
721	-0.618
721	-0.619
722	-0.616
722	-0.613
723	-0.63
723	-0.643
723	-0.651
724	-0.653
724	-0.658
725	-0.655
725	-0.656
726	-0.66
726	-0.654
727	-0.657
727	-0.664
727	-0.656
728	-0.645
728	-0.643
729	-0.643
729	-0.648
730	-0.653
730	-0.644
730	-0.651
731	-0.654
731	-0.654
732	-0.657
732	-0.652
733	-0.667
733	-0.673
734	-0.682
734	-0.672
734	-0.655
735	-0.647
735	-0.64
736	-0.64
736	-0.634
737	-0.632
737	-0.623
737	-0.614
738	-0.603
738	-0.591
739	-0.595
739	-0.595
740	-0.608
740	-0.61
741	-0.62
741	-0.631
741	-0.641
742	-0.648
742	-0.663
743	-0.667
743	-0.67
744	-0.673
744	-0.684
744	-0.678
745	-0.686
745	-0.675
746	-0.67
746	-0.662
747	-0.663
747	-0.654
748	-0.653
748	-0.657
748	-0.659
749	-0.65
749	-0.655
750	-0.646
750	-0.645
751	-0.643
751	-0.639
751	-0.653
752	-0.655
752	-0.661
753	-0.664
753	-0.655
754	-0.675
754	-0.676
754	-0.683
755	-0.685
755	-0.68
756	-0.684
756	-0.67
757	-0.665
757	-0.652
758	-0.652
758	-0.651
758	-0.644
759	-0.647
759	-0.648
760	-0.645
760	-0.645
761	-0.637
761	-0.64
761	-0.642
762	-0.648
762	-0.646
763	-0.646
763	-0.653
764	-0.654
764	-0.651
764	-0.657
765	-0.656
765	-0.665
766	-0.669
766	-0.67
767	-0.682
767	-0.68
768	-0.679
768	-0.67
768	-0.666
769	-0.668
769	-0.676
770	-0.684
770	-0.687
771	-0.682
771	-0.678
771	-0.686
772	-0.689
772	-0.711
773	-0.712
773	-0.71
774	-0.707
774	-0.691
775	-0.68
775	-0.68
775	-0.686
776	-0.697
776	-0.692
777	-0.693
777	-0.674
778	-0.682
778	-0.69
778	-0.69
779	-0.695
779	-0.709
780	-0.702
780	-0.711
781	-0.702
781	-0.691
781	-0.705
782	-0.724
782	-0.723
783	-0.722
783	-0.731
784	-0.735
784	-0.731
784	-0.752
785	-0.743
785	-0.756
786	-0.763
786	-0.759
787	-0.75
787	-0.761
788	-0.756
788	-0.75
788	-0.753
789	-0.754
789	-0.742
790	-0.741
790	-0.724
791	-0.729
791	-0.722
791	-0.715
792	-0.708
792	-0.713
793	-0.716
793	-0.704
794	-0.698
794	-0.693
794	-0.7
795	-0.72
795	-0.709
796	-0.715
796	-0.71
797	-0.703
797	-0.692
797	-0.684
798	-0.704
798	-0.707
799	-0.708
799	-0.695
800	-0.69
800	-0.698
801	-0.696
801	-0.702
801	-0.702
802	-0.703
802	-0.703
803	-0.697
803	-0.689
804	-0.694
804	-0.7
804	-0.683
805	-0.665
805	-0.657
806	-0.656
806	-0.651
807	-0.654
807	-0.654
807	-0.64
808	-0.637
808	-0.63
809	-0.626
809	-0.628
810	-0.631
810	-0.628
810	-0.626
811	-0.629
811	-0.62
812	-0.614
812	-0.614
813	-0.62
813	-0.62
813	-0.616
814	-0.616
814	-0.62
815	-0.612
815	-0.607
816	-0.603
816	-0.619
817	-0.631
817	-0.634
817	-0.642
818	-0.635
818	-0.632
819	-0.644
819	-0.643
820	-0.654
820	-0.654
820	-0.655
821	-0.649
821	-0.646
822	-0.644
822	-0.631
823	-0.643
823	-0.644
823	-0.637
824	-0.635
824	-0.645
825	-0.646
825	-0.642
826	-0.636
826	-0.631
826	-0.631
827	-0.633
827	-0.623
828	-0.623
828	-0.617
829	-0.612
829	-0.598
829	-0.593
830	-0.591
830	-0.579
831	-0.572
831	-0.564
832	-0.555
832	-0.55
832	-0.546
833	-0.545
833	-0.55
834	-0.546
834	-0.541
835	-0.535
835	-0.536
835	-0.534
836	-0.532
836	-0.529
837	-0.52
837	-0.512
838	-0.503
838	-0.487
839	-0.483
839	-0.473
839	-0.464
840	-0.463
840	-0.453
841	-0.443
841	-0.438
842	-0.43
842	-0.419
842	-0.417
843	-0.413
843	-0.408
844	-0.406
844	-0.397
845	-0.386
845	-0.38
845	-0.371
846	-0.361
846	-0.353
847	-0.344
847	-0.335
848	-0.324
848	-0.311
848	-0.3
849	-0.289
849	-0.28
850	-0.273
850	-0.265
851	-0.254
851	-0.242
851	-0.234
852	-0.222
852	-0.214
853	-0.207
853	-0.198
854	-0.191
854	-0.183
854	-0.173
855	-0.164
855	-0.158
856	-0.153
856	-0.148
857	-0.143
857	-0.136
857	-0.127
858	-0.119
858	-0.114
859	-0.105
859	-0.097
860	-0.09
860	-0.079
860	-0.072
861	-0.065
861	-0.058
862	-0.053
862	-0.049
863	-0.044
863	-0.038
863	-0.034
864	-0.03
864	-0.026
865	-0.022
865	-0.019
866	-0.016
866	-0.012
866	-0.009
867	-0.006
867	-0.003
868	-0
868	0.003
869	0.006
869	0.008
869	0.01
870	0.012
870	0.014
871	0.016
871	0.016
872	0.017
872	0.017
872	0.018
873	0.018
873	0.017
874	0.017
874	0.016
875	0.016
875	0.015
875	0.014
876	0.014
876	0.013
877	0.013
877	0.012
878	0.011
878	0.01
878	0.009
879	0.009
879	0.008
880	0.008
880	0.007
881	0.007
881	0.007
881	0.006
882	0.006
882	0.006
883	0.006
883	0.005
884	0.005
884	0.005
884	0.005
885	0.004
885	0.003
886	0.003
886	0.002
887	0.001
887	-0
887	-0.001
888	-0.002
888	-0.002
889	-0.003
889	-0.003
890	-0.003
890	-0.004
890	-0.004
891	-0.004
891	-0.003
892	-0.002
892	-0.002
893	-0.002
893	-0.002
893	-0.002
894	-0.002
894	-0.002
895	-0.002
895	-0.002
895	-0.001
896	-0.001
896	-0.001
897	-0.001
897	-0
898	-0.001
898	-0
898	0
899	0.001
899	0.002
900	0.002
900	0.002
901	0.002
901	0.002
901	0.002
902	0.002
902	0.002
903	0.002
903	0.001
904	0
904	-0
904	-0.001
905	-0.001
905	-0.001
906	-0.001
906	-0
907	0
907	0
907	0.001
908	0.002
908	0.003
909	0.003
909	0.004
910	0.005
910	0.005
910	0.006
911	0.006
911	0.008
912	0.009
912	0.011
913	0.012
913	0.013
913	0.014
914	0.015
914	0.015
915	0.015
915	0.015
916	0.015
916	0.014
916	0.013
917	0.012
917	0.011
918	0.01
918	0.009
918	0.009
919	0.008
919	0.008
920	0.008
920	0.008
921	0.008
921	0.009
921	0.009
922	0.009
922	0.009
923	0.009
923	0.009
924	0.009
924	0.009
924	0.009
925	0.008
925	0.008
926	0.008
926	0.007
927	0.007
927	0.007
927	0.007
928	0.007
928	0.008
929	0.008
929	0.009
930	0.009
930	0.01
930	0.011
931	0.012
931	0.013
932	0.014
932	0.015
933	0.016
933	0.016
933	0.017
934	0.017
934	0.017
935	0.017
935	0.016
935	0.015
936	0.014
936	0.012
937	0.011
937	0.01
938	0.008
938	0.007
938	0.006
939	0.004
939	0.004
940	0.003
940	0.003
941	0.003
941	0.003
941	0.003
942	0.003
942	0.003
943	0.003
943	0.003
944	0.003
944	0.003
944	0.003
945	0.003
945	0.003
946	0.002
946	0.001
946	0
947	-0
947	-0.001
948	-0.002
948	-0.002
949	-0.002
949	-0.002
949	-0.002
950	-0.002
950	-0.002
951	-0.001
951	-0.001
952	-0.001
952	0
952	0.001
953	0.002
953	0.003
954	0.003
954	0.003
955	0.003
955	0.003
955	0.003
956	0.003
956	0.003
957	0.002
957	0.002
957	0.001
958	0.001
958	0
959	-0
959	-0.001
960	-0.001
960	-0.001
960	-0.001
961	-0.002
961	-0.002
962	-0.002
962	-0.002
963	-0.002
963	-0.002
963	-0.002
964	-0.002
964	-0.002
965	-0.002
965	-0.001
966	-0.001
966	-0
966	0
967	0.001
967	0.001
968	0.001
968	0.002
968	0.002
969	0.001
969	0.001
970	-0
970	-0.001
971	-0.002
971	-0.002
971	-0.003
972	-0.003
972	-0.003
973	-0.004
973	-0.003
974	-0.003
974	-0.002
974	-0.001
975	0
975	0.001
976	0.003
976	0.003
976	0.004
977	0.005
977	0.005
978	0.005
978	0.005
979	0.005
979	0.004
979	0.004
980	0.003
980	0.002
981	0.002
981	0.002
982	0.002
982	0.002
982	0.002
983	0.002
983	0.002
984	0.002
984	0.002
984	0.001
985	0.002
985	0.002
986	0.001
986	0.001
987	0.001
987	0.001
987	0.001
988	0
988	-0
989	-0
989	-0.001
990	-0.001
990	-0.002
990	-0.002
991	-0.003
991	-0.003
992	-0.003
992	-0.003
992	-0.004
993	-0.004
993	-0.004
994	-0.004
994	-0.005
995	-0.005
995	-0.005
995	-0.006
996	-0.006
996	-0.006
997	-0.007
997	-0.007
997	-0.007
998	-0.007
998	-0.006
999	-0.006
999	-0.006
1000	-0.006
1000	-0.006
1000	-0.005
1001	-0.005
1001	-0.004
1002	-0.004
1002	-0.004
1003	-0.004
1003	-0.004
1003	-0.004
1004	-0.004
1004	-0.005
1005	-0.005
1005	-0.006
1005	-0.007
1006	-0.008
1006	-0.009
1007	-0.01
1007	-0.011
1008	-0.011
1008	-0.012
1008	-0.012
1009	-0.013
1009	-0.012
1010	-0.012
1010	-0.011
1010	-0.011
1011	-0.01
1011	-0.01
1012	-0.009
1012	-0.009
1013	-0.008
1013	-0.008
1013	-0.007
1014	-0.006
1014	-0.006
1015	-0.006
1015	-0.005
1016	-0.005
1016	-0.005
1016	-0.004
1017	-0.004
1017	-0.004
1018	-0.003
1018	-0.003
1018	-0.003
1019	-0.003
1019	-0.004
1020	-0.004
1020	-0.005
1021	-0.005
1021	-0.006
1021	-0.006
1022	-0.007
1022	-0.008
1023	-0.009
1023	-0.01
1023	-0.011
1024	-0.011
1024	-0.012
1025	-0.013
1025	-0.013
1026	-0.014
1026	-0.014
1026	-0.015
1027	-0.016
1027	-0.016
1028	-0.016
1028	-0.015
1028	-0.015
1029	-0.015
1029	-0.015
1030	-0.016
1030	-0.016
1031	-0.016
1031	-0.015
1031	-0.015
1032	-0.015
1032	-0.015
1033	-0.016
1033	-0.016
1033	-0.016
1034	-0.016
1034	-0.016
1035	-0.016
1035	-0.016
1036	-0.016
1036	-0.016
1036	-0.016
1037	-0.016
1037	-0.015
1038	-0.014
1038	-0.014
1039	-0.013
1039	-0.012
1039	-0.011
1040	-0.011
1040	-0.01
1041	-0.01
1041	-0.01
1041	-0.011
1042	-0.012
1042	-0.012
1043	-0.013
1043	-0.014
1044	-0.015
1044	-0.016
1044	-0.017
1045	-0.019
1045	-0.019
1046	-0.02
1046	-0.02
1046	-0.021
1047	-0.021
1047	-0.021
1048	-0.021
1048	-0.021
1049	-0.021
1049	-0.022
1049	-0.022
1050	-0.022
1050	-0.023
1051	-0.024
1051	-0.024
1051	-0.025
1052	-0.026
1052	-0.026
1053	-0.027
1053	-0.027
1053	-0.027
1054	-0.027
1054	-0.027
1055	-0.026
1055	-0.026
1056	-0.026
1056	-0.026
1056	-0.027
1057	-0.027
1057	-0.027
1058	-0.028
1058	-0.028
1058	-0.028
1059	-0.029
1059	-0.029
1060	-0.029
1060	-0.029
1061	-0.029
1061	-0.028
1061	-0.028
1062	-0.028
1062	-0.027
1063	-0.027
1063	-0.027
1063	-0.027
1064	-0.027
1064	-0.027
1065	-0.027
1065	-0.028
1066	-0.028
1066	-0.028
1066	-0.028
1067	-0.029
1067	-0.029
1068	-0.029
1068	-0.03
1068	-0.03
1069	-0.03
1069	-0.031
1070	-0.032
1070	-0.032
1071	-0.032
1071	-0.033
1071	-0.033
1072	-0.033
1072	-0.033
1073	-0.032
1073	-0.032
1073	-0.032
1074	-0.031
1074	-0.031
1075	-0.031
1075	-0.031
1076	-0.031
1076	-0.031
1076	-0.032
1077	-0.032
1077	-0.033
1078	-0.034
1078	-0.034
1078	-0.035
1079	-0.035
1079	-0.035
1080	-0.036
1080	-0.036
1080	-0.037
1081	-0.038
1081	-0.038
1082	-0.038
1082	-0.039
1083	-0.039
1083	-0.04
1083	-0.041
1084	-0.042
1084	-0.042
1085	-0.042
1085	-0.043
1085	-0.043
1086	-0.043
1086	-0.044
1087	-0.044
1087	-0.044
1088	-0.045
1088	-0.046
1088	-0.046
1089	-0.047
1089	-0.048
1090	-0.048
1090	-0.049
1090	-0.051
1091	-0.052
1091	-0.052
1092	-0.052
1092	-0.052
1092	-0.053
1093	-0.054
1093	-0.053
1094	-0.054
1094	-0.055
1095	-0.055
1095	-0.055
1095	-0.056
1096	-0.057
1096	-0.058
1097	-0.06
1097	-0.061
1097	-0.062
1098	-0.063
1098	-0.065
1099	-0.065
1099	-0.067
1100	-0.068
1100	-0.069
1100	-0.071
1101	-0.073
1101	-0.074
1102	-0.075
1102	-0.078
1102	-0.079
1103	-0.08
1103	-0.083
1104	-0.085
1104	-0.088
1104	-0.09
1105	-0.092
1105	-0.095
1106	-0.098
1106	-0.099
1107	-0.103
1107	-0.106
1107	-0.11
1108	-0.112
1108	-0.113
1109	-0.115
1109	-0.118
1109	-0.121
1110	-0.121
1110	-0.125
1111	-0.132
1111	-0.129
