Data from 3.5A_17C_Absorbance__546__00548.txt Node

Date: Tue Jun 20 15:16:10 CEST 2023
User: Marek
Spectrometer: MAYP115816
Trigger mode: 0
Integration Time (sec): 2.200000E-1
Scans to average: 10
Electric dark correction enabled: true
Nonlinearity correction enabled: true
Boxcar width: 5
XAxis mode: Wavelengths
Number of Pixels in Spectrum: 2068
>>>>>Begin Spectral Data<<<<<
199	-0.669
199	-0.655
200	-0.624
200	-0.571
201	-0.545
201	-0.536
202	-0.517
202	-0.509
203	-0.506
203	-0.5
204	-0.482
204	-0.469
205	-0.447
205	-0.436
205	-0.443
206	-0.443
206	-0.437
207	-0.429
207	-0.435
208	-0.438
208	-0.442
209	-0.443
209	-0.447
210	-0.46
210	-0.467
211	-0.462
211	-0.465
212	-0.475
212	-0.483
213	-0.48
213	-0.477
213	-0.475
214	-0.482
214	-0.485
215	-0.48
215	-0.485
216	-0.494
216	-0.502
217	-0.5
217	-0.502
218	-0.509
218	-0.51
219	-0.516
219	-0.517
220	-0.519
220	-0.525
221	-0.525
221	-0.526
221	-0.517
222	-0.517
222	-0.514
223	-0.511
223	-0.513
224	-0.516
224	-0.513
225	-0.512
225	-0.514
226	-0.515
226	-0.515
227	-0.525
227	-0.533
228	-0.539
228	-0.545
229	-0.549
229	-0.546
229	-0.547
230	-0.541
230	-0.54
231	-0.538
231	-0.533
232	-0.533
232	-0.527
233	-0.527
233	-0.516
234	-0.516
234	-0.511
235	-0.515
235	-0.525
236	-0.532
236	-0.533
236	-0.534
237	-0.53
237	-0.531
238	-0.531
238	-0.534
239	-0.535
239	-0.544
240	-0.538
240	-0.535
241	-0.529
241	-0.531
242	-0.532
242	-0.543
243	-0.543
243	-0.545
243	-0.549
244	-0.548
244	-0.548
245	-0.552
245	-0.556
246	-0.564
246	-0.568
247	-0.576
247	-0.561
248	-0.559
248	-0.56
249	-0.566
249	-0.566
250	-0.566
250	-0.574
250	-0.569
251	-0.571
251	-0.566
252	-0.567
252	-0.58
253	-0.576
253	-0.591
254	-0.592
254	-0.594
255	-0.604
255	-0.602
256	-0.604
256	-0.615
257	-0.623
257	-0.62
258	-0.62
258	-0.626
258	-0.623
259	-0.619
259	-0.633
260	-0.63
260	-0.617
261	-0.629
261	-0.618
262	-0.624
262	-0.622
263	-0.614
263	-0.621
264	-0.629
264	-0.629
265	-0.623
265	-0.626
265	-0.637
266	-0.628
266	-0.627
267	-0.627
267	-0.642
268	-0.649
268	-0.643
269	-0.633
269	-0.648
270	-0.65
270	-0.649
271	-0.663
271	-0.671
272	-0.672
272	-0.673
272	-0.667
273	-0.676
273	-0.689
274	-0.683
274	-0.676
275	-0.676
275	-0.664
276	-0.665
276	-0.673
277	-0.676
277	-0.675
278	-0.68
278	-0.682
278	-0.672
279	-0.681
279	-0.697
280	-0.698
280	-0.708
281	-0.702
281	-0.694
282	-0.699
282	-0.693
283	-0.684
283	-0.696
284	-0.708
284	-0.717
285	-0.694
285	-0.699
285	-0.691
286	-0.697
286	-0.713
287	-0.709
287	-0.708
288	-0.708
288	-0.69
289	-0.69
289	-0.697
290	-0.706
290	-0.695
291	-0.701
291	-0.701
292	-0.682
292	-0.681
292	-0.684
293	-0.674
293	-0.669
294	-0.669
294	-0.655
295	-0.64
295	-0.654
296	-0.664
296	-0.657
297	-0.647
297	-0.65
298	-0.648
298	-0.663
298	-0.669
299	-0.649
299	-0.641
300	-0.636
300	-0.615
301	-0.599
301	-0.601
302	-0.608
302	-0.592
303	-0.585
303	-0.574
304	-0.557
304	-0.561
305	-0.555
305	-0.563
305	-0.579
306	-0.564
306	-0.562
307	-0.556
307	-0.569
308	-0.571
308	-0.567
309	-0.57
309	-0.564
310	-0.563
310	-0.558
311	-0.544
311	-0.56
311	-0.547
312	-0.545
312	-0.533
313	-0.525
313	-0.524
314	-0.527
314	-0.526
315	-0.524
315	-0.519
316	-0.514
316	-0.502
317	-0.495
317	-0.49
318	-0.48
318	-0.476
318	-0.467
319	-0.457
319	-0.451
320	-0.449
320	-0.447
321	-0.44
321	-0.441
322	-0.437
322	-0.431
323	-0.433
323	-0.425
324	-0.421
324	-0.41
324	-0.402
325	-0.383
325	-0.365
326	-0.357
326	-0.333
327	-0.317
327	-0.296
328	-0.263
328	-0.241
329	-0.215
329	-0.186
330	-0.158
330	-0.125
330	-0.091
331	-0.056
331	-0.025
332	0.006
332	0.038
333	0.064
333	0.095
334	0.122
334	0.145
335	0.17
335	0.189
336	0.208
336	0.226
336	0.243
337	0.259
337	0.273
338	0.286
338	0.295
339	0.306
339	0.316
340	0.323
340	0.331
341	0.337
341	0.342
342	0.348
342	0.353
342	0.357
343	0.361
343	0.365
344	0.368
344	0.37
345	0.373
345	0.375
346	0.376
346	0.378
347	0.38
347	0.381
348	0.382
348	0.383
348	0.384
349	0.384
349	0.385
350	0.385
350	0.386
351	0.386
351	0.386
352	0.386
352	0.386
353	0.387
353	0.387
354	0.387
354	0.387
354	0.387
355	0.387
355	0.387
356	0.387
356	0.387
357	0.387
357	0.387
358	0.386
358	0.386
359	0.386
359	0.386
360	0.386
360	0.386
360	0.386
361	0.386
361	0.386
362	0.386
362	0.386
363	0.386
363	0.386
364	0.385
364	0.385
365	0.385
365	0.385
366	0.384
366	0.384
366	0.384
367	0.384
367	0.384
368	0.383
368	0.383
369	0.383
369	0.382
370	0.382
370	0.381
371	0.381
371	0.381
372	0.38
372	0.38
372	0.38
373	0.379
373	0.379
374	0.379
374	0.379
375	0.378
375	0.378
376	0.378
376	0.377
377	0.377
377	0.376
378	0.376
378	0.375
378	0.375
379	0.374
379	0.374
380	0.374
380	0.373
381	0.373
381	0.373
382	0.372
382	0.372
383	0.371
383	0.371
383	0.371
384	0.37
384	0.37
385	0.369
385	0.369
386	0.369
386	0.368
387	0.368
387	0.368
388	0.367
388	0.367
389	0.367
389	0.366
389	0.366
390	0.366
390	0.365
391	0.365
391	0.365
392	0.364
392	0.364
393	0.364
393	0.363
394	0.363
394	0.362
394	0.362
395	0.361
395	0.361
396	0.36
396	0.36
397	0.359
397	0.359
398	0.358
398	0.358
399	0.357
399	0.357
400	0.357
400	0.356
400	0.356
401	0.356
401	0.355
402	0.355
402	0.354
403	0.354
403	0.354
404	0.353
404	0.353
405	0.352
405	0.352
405	0.351
406	0.351
406	0.351
407	0.351
407	0.35
408	0.35
408	0.35
409	0.349
409	0.349
410	0.349
410	0.349
411	0.349
411	0.348
411	0.348
412	0.348
412	0.348
413	0.347
413	0.347
414	0.347
414	0.346
415	0.346
415	0.345
416	0.345
416	0.345
416	0.345
417	0.344
417	0.344
418	0.344
418	0.344
419	0.344
419	0.344
420	0.344
420	0.344
421	0.344
421	0.344
421	0.344
422	0.344
422	0.343
423	0.343
423	0.343
424	0.342
424	0.342
425	0.342
425	0.342
426	0.341
426	0.341
427	0.341
427	0.341
427	0.341
428	0.341
428	0.341
429	0.341
429	0.34
430	0.34
430	0.34
431	0.339
431	0.339
432	0.339
432	0.339
432	0.338
433	0.338
433	0.338
434	0.338
434	0.338
435	0.338
435	0.338
436	0.338
436	0.339
437	0.338
437	0.338
437	0.338
438	0.338
438	0.338
439	0.338
439	0.338
440	0.338
440	0.338
441	0.338
441	0.338
442	0.338
442	0.338
442	0.338
443	0.338
443	0.338
444	0.338
444	0.338
445	0.338
445	0.338
446	0.338
446	0.338
447	0.339
447	0.339
447	0.339
448	0.339
448	0.339
449	0.339
449	0.339
450	0.339
450	0.339
451	0.339
451	0.339
452	0.339
452	0.339
452	0.339
453	0.339
453	0.339
454	0.34
454	0.34
455	0.34
455	0.34
456	0.34
456	0.341
457	0.341
457	0.341
458	0.341
458	0.341
458	0.341
459	0.341
459	0.341
460	0.341
460	0.341
461	0.342
461	0.342
462	0.343
462	0.343
463	0.344
463	0.345
463	0.346
464	0.346
464	0.346
465	0.347
465	0.347
466	0.348
466	0.348
467	0.349
467	0.349
467	0.35
468	0.35
468	0.35
469	0.351
469	0.352
470	0.353
470	0.354
471	0.354
471	0.355
472	0.356
472	0.356
472	0.357
473	0.358
473	0.36
474	0.36
474	0.361
475	0.362
475	0.363
476	0.364
476	0.365
477	0.366
477	0.367
477	0.368
478	0.369
478	0.37
479	0.371
479	0.372
480	0.374
480	0.375
481	0.377
481	0.378
482	0.38
482	0.381
482	0.383
483	0.385
483	0.387
484	0.389
484	0.39
485	0.392
485	0.394
486	0.395
486	0.397
487	0.399
487	0.4
487	0.402
488	0.403
488	0.405
489	0.407
489	0.409
490	0.412
490	0.414
491	0.416
491	0.418
492	0.421
492	0.423
492	0.425
493	0.427
493	0.43
494	0.433
494	0.436
495	0.438
495	0.441
496	0.443
496	0.446
496	0.449
497	0.452
497	0.455
498	0.458
498	0.461
499	0.464
499	0.468
500	0.472
500	0.475
501	0.478
501	0.481
501	0.484
502	0.488
502	0.491
503	0.494
503	0.497
504	0.5
504	0.504
505	0.507
505	0.511
506	0.514
506	0.518
506	0.521
507	0.524
507	0.528
508	0.532
508	0.536
509	0.539
509	0.543
510	0.546
510	0.549
511	0.552
511	0.556
511	0.559
512	0.562
512	0.566
513	0.568
513	0.572
514	0.575
514	0.578
515	0.582
515	0.584
515	0.587
516	0.59
516	0.593
517	0.595
517	0.598
518	0.6
518	0.601
519	0.604
519	0.605
520	0.607
520	0.609
520	0.611
521	0.613
521	0.614
522	0.616
522	0.617
523	0.619
523	0.62
524	0.62
524	0.622
524	0.622
525	0.623
525	0.624
526	0.625
526	0.626
527	0.627
527	0.627
528	0.627
528	0.627
529	0.627
529	0.626
529	0.625
530	0.625
530	0.624
531	0.623
531	0.622
532	0.62
532	0.619
533	0.618
533	0.616
533	0.614
534	0.612
534	0.61
535	0.608
535	0.606
536	0.604
536	0.601
537	0.599
537	0.597
538	0.594
538	0.591
538	0.588
539	0.586
539	0.583
540	0.58
540	0.577
541	0.573
541	0.57
542	0.566
542	0.563
542	0.559
543	0.555
543	0.551
544	0.547
544	0.544
545	0.54
545	0.536
546	0.533
546	0.528
547	0.524
547	0.52
547	0.516
548	0.512
548	0.508
549	0.503
549	0.499
550	0.495
550	0.49
551	0.485
551	0.48
551	0.475
552	0.471
552	0.466
553	0.462
553	0.457
554	0.452
554	0.447
555	0.443
555	0.438
556	0.433
556	0.429
556	0.424
557	0.42
557	0.416
558	0.412
558	0.407
559	0.403
559	0.399
560	0.394
560	0.39
560	0.387
561	0.383
561	0.38
562	0.376
562	0.372
563	0.369
563	0.365
564	0.361
564	0.358
564	0.354
565	0.351
565	0.347
566	0.343
566	0.34
567	0.336
567	0.333
568	0.329
568	0.325
568	0.321
569	0.317
569	0.313
570	0.309
570	0.305
571	0.302
571	0.298
572	0.294
572	0.291
573	0.287
573	0.284
573	0.281
574	0.278
574	0.275
575	0.273
575	0.271
576	0.268
576	0.264
577	0.261
577	0.259
577	0.257
578	0.255
578	0.253
579	0.252
579	0.25
580	0.246
580	0.243
581	0.24
581	0.237
581	0.236
582	0.234
582	0.232
583	0.23
583	0.227
584	0.223
584	0.219
585	0.216
585	0.214
585	0.212
586	0.21
586	0.207
587	0.204
587	0.202
588	0.199
588	0.197
589	0.195
589	0.194
590	0.192
590	0.19
590	0.189
591	0.188
591	0.186
592	0.184
592	0.182
593	0.181
593	0.18
594	0.178
594	0.176
594	0.175
595	0.174
595	0.172
596	0.17
596	0.17
597	0.17
597	0.168
598	0.167
598	0.165
598	0.164
599	0.163
599	0.161
600	0.16
600	0.158
601	0.157
601	0.156
602	0.154
602	0.153
602	0.151
603	0.15
603	0.149
604	0.148
604	0.147
605	0.146
605	0.146
606	0.144
606	0.142
606	0.141
607	0.14
607	0.139
608	0.138
608	0.136
609	0.135
609	0.134
610	0.133
610	0.131
610	0.131
611	0.13
611	0.129
612	0.129
612	0.129
613	0.128
613	0.127
614	0.126
614	0.124
614	0.123
615	0.122
615	0.121
616	0.121
616	0.12
617	0.119
617	0.117
618	0.116
618	0.115
618	0.114
619	0.114
619	0.114
620	0.114
620	0.113
621	0.111
621	0.111
622	0.11
622	0.109
622	0.107
623	0.106
623	0.106
624	0.106
624	0.105
625	0.104
625	0.103
626	0.102
626	0.101
626	0.101
627	0.1
627	0.099
628	0.098
628	0.097
629	0.095
629	0.094
630	0.093
630	0.091
630	0.09
631	0.089
631	0.087
632	0.086
632	0.085
633	0.083
633	0.082
634	0.082
634	0.081
634	0.08
635	0.079
635	0.078
636	0.076
636	0.075
637	0.074
637	0.072
638	0.071
638	0.07
638	0.068
639	0.066
639	0.064
640	0.062
640	0.06
641	0.058
641	0.056
642	0.054
642	0.052
642	0.05
643	0.048
643	0.045
644	0.043
644	0.04
645	0.037
645	0.035
646	0.032
646	0.028
646	0.024
647	0.02
647	0.016
648	0.012
648	0.007
649	0.004
649	-0
650	-0.004
650	-0.008
650	-0.012
651	-0.018
651	-0.024
652	-0.031
652	-0.039
653	-0.046
653	-0.052
653	-0.048
654	-0.037
654	-0.036
655	-0.04
655	-0.043
656	-0.046
656	-0.05
657	-0.053
657	-0.056
657	-0.061
658	-0.065
658	-0.086
659	-0.141
659	-0.196
660	-0.221
660	-0.24
661	-0.259
661	-0.28
661	-0.301
662	-0.32
662	-0.338
663	-0.362
663	-0.388
664	-0.413
664	-0.441
665	-0.473
665	-0.505
665	-0.535
666	-0.57
666	-0.611
667	-0.651
667	-0.7
668	-0.746
668	-0.802
669	-0.859
669	-0.92
669	-0.988
670	-1.06
670	-1.171
671	-1.365
671	-1.704
672	-2.137
672	-2.36
672	-2.51
673	-2.625
673	-2.705
674	-2.732
674	-2.742
675	-2.757
675	-2.763
676	-2.763
676	-2.739
676	-2.651
677	-2.539
677	-2.389
678	-2.129
678	-1.583
679	-1.299
679	-1.181
680	-1.101
680	-1.041
680	-0.991
681	-0.958
681	-0.919
682	-0.891
682	-0.858
683	-0.824
683	-0.811
684	-0.792
684	-0.781
684	-0.766
685	-0.756
685	-0.754
686	-0.738
686	-0.731
687	-0.728
687	-0.724
687	-0.729
688	-0.717
688	-0.716
689	-0.721
689	-0.721
690	-0.71
690	-0.702
691	-0.702
691	-0.707
691	-0.709
692	-0.71
692	-0.708
693	-0.717
693	-0.727
694	-0.71
694	-0.712
695	-0.717
695	-0.712
695	-0.72
696	-0.728
696	-0.722
697	-0.72
697	-0.715
698	-0.711
698	-0.706
698	-0.722
699	-0.718
699	-0.719
700	-0.74
700	-0.736
701	-0.725
701	-0.72
702	-0.719
702	-0.719
702	-0.719
703	-0.71
703	-0.698
704	-0.707
704	-0.712
705	-0.698
705	-0.698
705	-0.692
706	-0.685
706	-0.683
707	-0.696
707	-0.701
708	-0.7
708	-0.699
709	-0.701
709	-0.698
709	-0.695
710	-0.703
710	-0.706
711	-0.705
711	-0.706
712	-0.697
712	-0.694
713	-0.699
713	-0.698
713	-0.675
714	-0.676
714	-0.681
715	-0.674
715	-0.681
716	-0.696
716	-0.704
716	-0.706
717	-0.713
717	-0.705
718	-0.699
718	-0.702
719	-0.698
719	-0.69
720	-0.686
720	-0.683
720	-0.679
721	-0.672
721	-0.675
722	-0.672
722	-0.669
723	-0.687
723	-0.7
723	-0.711
724	-0.709
724	-0.714
725	-0.707
725	-0.712
726	-0.712
726	-0.703
727	-0.706
727	-0.714
727	-0.705
728	-0.691
728	-0.687
729	-0.691
729	-0.695
730	-0.701
730	-0.692
730	-0.699
731	-0.704
731	-0.702
732	-0.704
732	-0.7
733	-0.714
733	-0.719
734	-0.728
734	-0.717
734	-0.7
735	-0.689
735	-0.685
736	-0.683
736	-0.68
737	-0.679
737	-0.67
737	-0.664
738	-0.652
738	-0.638
739	-0.642
739	-0.643
740	-0.658
740	-0.657
741	-0.669
741	-0.679
741	-0.688
742	-0.694
742	-0.709
743	-0.717
743	-0.722
744	-0.724
744	-0.732
744	-0.725
745	-0.732
745	-0.721
746	-0.715
746	-0.706
747	-0.709
747	-0.702
748	-0.702
748	-0.706
748	-0.708
749	-0.699
749	-0.704
750	-0.696
750	-0.697
751	-0.697
751	-0.694
751	-0.706
752	-0.707
752	-0.709
753	-0.71
753	-0.702
754	-0.725
754	-0.727
754	-0.735
755	-0.736
755	-0.729
756	-0.732
756	-0.718
757	-0.712
757	-0.703
758	-0.707
758	-0.706
758	-0.702
759	-0.705
759	-0.704
760	-0.702
760	-0.704
761	-0.696
761	-0.699
761	-0.702
762	-0.705
762	-0.705
763	-0.706
763	-0.709
764	-0.705
764	-0.701
764	-0.705
765	-0.705
765	-0.713
766	-0.715
766	-0.714
767	-0.729
767	-0.721
768	-0.72
768	-0.709
768	-0.707
769	-0.711
769	-0.721
770	-0.73
770	-0.734
771	-0.729
771	-0.727
771	-0.733
772	-0.738
772	-0.758
773	-0.76
773	-0.759
774	-0.759
774	-0.741
775	-0.729
775	-0.728
775	-0.732
776	-0.745
776	-0.741
777	-0.741
777	-0.725
778	-0.733
778	-0.743
778	-0.742
779	-0.749
779	-0.764
780	-0.762
780	-0.77
781	-0.76
781	-0.749
781	-0.764
782	-0.785
782	-0.788
783	-0.785
783	-0.793
784	-0.795
784	-0.79
784	-0.808
785	-0.802
785	-0.813
786	-0.818
786	-0.81
787	-0.798
787	-0.806
788	-0.799
788	-0.792
788	-0.794
789	-0.791
789	-0.782
790	-0.781
790	-0.765
791	-0.771
791	-0.767
791	-0.762
792	-0.756
792	-0.763
793	-0.766
793	-0.754
794	-0.748
794	-0.742
794	-0.749
795	-0.77
795	-0.755
796	-0.762
796	-0.757
797	-0.75
797	-0.741
797	-0.734
798	-0.755
798	-0.76
799	-0.759
799	-0.745
800	-0.739
800	-0.748
801	-0.745
801	-0.748
801	-0.746
802	-0.745
802	-0.745
803	-0.74
803	-0.733
804	-0.738
804	-0.746
804	-0.73
805	-0.71
805	-0.703
806	-0.703
806	-0.699
807	-0.698
807	-0.697
807	-0.682
808	-0.678
808	-0.671
809	-0.666
809	-0.669
810	-0.673
810	-0.671
810	-0.667
811	-0.672
811	-0.663
812	-0.657
812	-0.658
813	-0.66
813	-0.662
813	-0.659
814	-0.658
814	-0.663
815	-0.653
815	-0.65
816	-0.646
816	-0.665
817	-0.677
817	-0.68
817	-0.692
818	-0.689
818	-0.687
819	-0.698
819	-0.697
820	-0.709
820	-0.708
820	-0.707
821	-0.703
821	-0.699
822	-0.697
822	-0.683
823	-0.692
823	-0.691
823	-0.687
824	-0.684
824	-0.692
825	-0.692
825	-0.689
826	-0.682
826	-0.678
826	-0.678
827	-0.679
827	-0.668
828	-0.668
828	-0.659
829	-0.656
829	-0.642
829	-0.639
830	-0.637
830	-0.625
831	-0.619
831	-0.608
832	-0.599
832	-0.593
832	-0.588
833	-0.589
833	-0.594
834	-0.59
834	-0.585
835	-0.577
835	-0.577
835	-0.573
836	-0.57
836	-0.567
837	-0.557
837	-0.549
838	-0.535
838	-0.519
839	-0.515
839	-0.503
839	-0.496
840	-0.494
840	-0.484
841	-0.475
841	-0.47
842	-0.462
842	-0.451
842	-0.449
843	-0.446
843	-0.442
844	-0.442
844	-0.431
845	-0.421
845	-0.412
845	-0.403
846	-0.393
846	-0.382
847	-0.373
847	-0.363
848	-0.349
848	-0.336
848	-0.322
849	-0.311
849	-0.3
850	-0.293
850	-0.284
851	-0.273
851	-0.261
851	-0.252
852	-0.239
852	-0.23
853	-0.221
853	-0.214
854	-0.206
854	-0.196
854	-0.186
855	-0.178
855	-0.172
856	-0.166
856	-0.161
857	-0.155
857	-0.148
857	-0.137
858	-0.129
858	-0.123
859	-0.115
859	-0.105
860	-0.097
860	-0.086
860	-0.078
861	-0.071
861	-0.063
862	-0.057
862	-0.052
863	-0.046
863	-0.039
863	-0.035
864	-0.032
864	-0.027
865	-0.023
865	-0.019
866	-0.015
866	-0.012
866	-0.008
867	-0.004
867	0
868	0.003
868	0.006
869	0.01
869	0.012
869	0.014
870	0.016
870	0.018
871	0.019
871	0.02
872	0.021
872	0.021
872	0.022
873	0.022
873	0.022
874	0.021
874	0.021
875	0.02
875	0.02
875	0.019
876	0.019
876	0.018
877	0.018
877	0.017
878	0.016
878	0.015
878	0.015
879	0.014
879	0.013
880	0.013
880	0.012
881	0.012
881	0.011
881	0.011
882	0.01
882	0.01
883	0.01
883	0.009
884	0.009
884	0.01
884	0.01
885	0.009
885	0.009
886	0.008
886	0.008
887	0.007
887	0.006
887	0.005
888	0.004
888	0.004
889	0.003
889	0.002
890	0.002
890	0.002
890	0.001
891	0.001
891	0.001
892	0.002
892	0.002
893	0.003
893	0.002
893	0.002
894	0.002
894	0.002
895	0.002
895	0.001
895	0.002
896	0.002
896	0.002
897	0.002
897	0.002
898	0.003
898	0.003
898	0.004
899	0.004
899	0.005
900	0.006
900	0.006
901	0.006
901	0.006
901	0.006
902	0.006
902	0.006
903	0.006
903	0.006
904	0.005
904	0.005
904	0.004
905	0.004
905	0.004
906	0.004
906	0.004
907	0.005
907	0.005
907	0.005
908	0.006
908	0.007
909	0.008
909	0.008
910	0.009
910	0.01
910	0.01
911	0.011
911	0.013
912	0.014
912	0.016
913	0.017
913	0.018
913	0.019
914	0.02
914	0.021
915	0.021
915	0.021
916	0.021
916	0.02
916	0.019
917	0.018
917	0.017
918	0.017
918	0.016
918	0.016
919	0.016
919	0.015
920	0.015
920	0.015
921	0.015
921	0.015
921	0.015
922	0.015
922	0.015
923	0.014
923	0.014
924	0.014
924	0.013
924	0.013
925	0.013
925	0.012
926	0.012
926	0.012
927	0.012
927	0.012
927	0.013
928	0.013
928	0.013
929	0.014
929	0.014
930	0.015
930	0.016
930	0.017
931	0.017
931	0.018
932	0.019
932	0.019
933	0.02
933	0.02
933	0.02
934	0.02
934	0.019
935	0.019
935	0.018
935	0.016
936	0.015
936	0.014
937	0.012
937	0.011
938	0.01
938	0.008
938	0.007
939	0.007
939	0.006
940	0.006
940	0.006
941	0.005
941	0.005
941	0.005
942	0.005
942	0.005
943	0.005
943	0.005
944	0.005
944	0.005
944	0.005
945	0.005
945	0.005
946	0.005
946	0.004
946	0.004
947	0.003
947	0.003
948	0.002
948	0.002
949	0.002
949	0.001
949	0.002
950	0.002
950	0.003
951	0.003
951	0.003
952	0.003
952	0.004
952	0.005
953	0.005
953	0.006
954	0.006
954	0.006
955	0.007
955	0.006
955	0.006
956	0.006
956	0.006
957	0.006
957	0.005
957	0.004
958	0.004
958	0.004
959	0.003
959	0.003
960	0.003
960	0.002
960	0.002
961	0.002
961	0.002
962	0.002
962	0.002
963	0.002
963	0.002
963	0.002
964	0.002
964	0.002
965	0.002
965	0.002
966	0.002
966	0.003
966	0.003
967	0.003
967	0.003
968	0.003
968	0.003
968	0.003
969	0.003
969	0.002
970	0.001
970	0
971	-0
971	-0.001
971	-0.001
972	-0.001
972	-0.002
973	-0.002
973	-0.002
974	-0.001
974	-0
974	0.001
975	0.002
975	0.003
976	0.004
976	0.006
976	0.006
977	0.007
977	0.008
978	0.008
978	0.008
979	0.008
979	0.007
979	0.007
980	0.007
980	0.006
981	0.006
981	0.006
982	0.006
982	0.005
982	0.006
983	0.006
983	0.005
984	0.005
984	0.005
984	0.005
985	0.005
985	0.005
986	0.005
986	0.004
987	0.004
987	0.003
987	0.003
988	0.002
988	0.002
989	0.001
989	0
990	-0
990	-0.001
990	-0.002
991	-0.002
991	-0.002
992	-0.002
992	-0.002
992	-0.003
993	-0.003
993	-0.003
994	-0.003
994	-0.003
995	-0.003
995	-0.003
995	-0.004
996	-0.004
996	-0.005
997	-0.005
997	-0.005
997	-0.005
998	-0.005
998	-0.005
999	-0.004
999	-0.004
1000	-0.004
1000	-0.004
1000	-0.004
1001	-0.003
1001	-0.003
1002	-0.003
1002	-0.003
1003	-0.002
1003	-0.003
1003	-0.003
1004	-0.003
1004	-0.004
1005	-0.004
1005	-0.005
1005	-0.006
1006	-0.007
1006	-0.007
1007	-0.008
1007	-0.008
1008	-0.009
1008	-0.009
1008	-0.009
1009	-0.009
1009	-0.009
1010	-0.008
1010	-0.008
1010	-0.007
1011	-0.007
1011	-0.006
1012	-0.006
1012	-0.005
1013	-0.005
1013	-0.005
1013	-0.004
1014	-0.004
1014	-0.004
1015	-0.004
1015	-0.003
1016	-0.003
1016	-0.003
1016	-0.003
1017	-0.003
1017	-0.003
1018	-0.003
1018	-0.003
1018	-0.003
1019	-0.003
1019	-0.003
1020	-0.004
1020	-0.004
1021	-0.004
1021	-0.005
1021	-0.006
1022	-0.007
1022	-0.008
1023	-0.008
1023	-0.009
1023	-0.01
1024	-0.01
1024	-0.011
1025	-0.011
1025	-0.012
1026	-0.012
1026	-0.012
1026	-0.012
1027	-0.013
1027	-0.013
1028	-0.012
1028	-0.012
1028	-0.012
1029	-0.012
1029	-0.012
1030	-0.012
1030	-0.012
1031	-0.013
1031	-0.012
1031	-0.012
1032	-0.012
1032	-0.012
1033	-0.013
1033	-0.013
1033	-0.013
1034	-0.013
1034	-0.013
1035	-0.013
1035	-0.013
1036	-0.013
1036	-0.013
1036	-0.013
1037	-0.012
1037	-0.012
1038	-0.012
1038	-0.011
1039	-0.01
1039	-0.01
1039	-0.009
1040	-0.009
1040	-0.008
1041	-0.008
1041	-0.008
1041	-0.009
1042	-0.01
1042	-0.01
1043	-0.011
1043	-0.012
1044	-0.013
1044	-0.014
1044	-0.015
1045	-0.016
1045	-0.017
1046	-0.017
1046	-0.018
1046	-0.018
1047	-0.018
1047	-0.018
1048	-0.018
1048	-0.019
1049	-0.019
1049	-0.019
1049	-0.019
1050	-0.02
1050	-0.021
1051	-0.021
1051	-0.022
1051	-0.022
1052	-0.023
1052	-0.024
1053	-0.025
1053	-0.025
1053	-0.025
1054	-0.025
1054	-0.025
1055	-0.025
1055	-0.025
1056	-0.025
1056	-0.025
1056	-0.025
1057	-0.025
1057	-0.025
1058	-0.026
1058	-0.026
1058	-0.026
1059	-0.026
1059	-0.026
1060	-0.027
1060	-0.026
1061	-0.026
1061	-0.026
1061	-0.025
1062	-0.025
1062	-0.025
1063	-0.025
1063	-0.025
1063	-0.025
1064	-0.025
1064	-0.025
1065	-0.025
1065	-0.025
1066	-0.025
1066	-0.026
1066	-0.026
1067	-0.026
1067	-0.027
1068	-0.027
1068	-0.028
1068	-0.028
1069	-0.029
1069	-0.029
1070	-0.03
1070	-0.03
1071	-0.03
1071	-0.031
1071	-0.031
1072	-0.031
1072	-0.031
1073	-0.03
1073	-0.03
1073	-0.03
1074	-0.029
1074	-0.029
1075	-0.03
1075	-0.03
1076	-0.031
1076	-0.031
1076	-0.032
1077	-0.032
1077	-0.033
1078	-0.034
1078	-0.035
1078	-0.036
1079	-0.036
1079	-0.036
1080	-0.037
1080	-0.038
1080	-0.039
1081	-0.039
1081	-0.04
1082	-0.04
1082	-0.04
1083	-0.041
1083	-0.041
1083	-0.042
1084	-0.043
1084	-0.043
1085	-0.043
1085	-0.043
1085	-0.043
1086	-0.044
1086	-0.044
1087	-0.045
1087	-0.045
1088	-0.046
1088	-0.046
1088	-0.047
1089	-0.048
1089	-0.049
1090	-0.05
1090	-0.05
1090	-0.052
1091	-0.054
1091	-0.054
1092	-0.055
1092	-0.055
1092	-0.056
1093	-0.056
1093	-0.056
1094	-0.057
1094	-0.058
1095	-0.059
1095	-0.059
1095	-0.06
1096	-0.061
1096	-0.062
1097	-0.063
1097	-0.064
1097	-0.066
1098	-0.067
1098	-0.069
1099	-0.07
1099	-0.071
1100	-0.073
1100	-0.074
1100	-0.076
1101	-0.078
1101	-0.08
1102	-0.082
1102	-0.083
1102	-0.084
1103	-0.085
1103	-0.087
1104	-0.09
1104	-0.092
1104	-0.094
1105	-0.096
1105	-0.099
1106	-0.103
1106	-0.104
1107	-0.109
1107	-0.113
1107	-0.117
1108	-0.12
1108	-0.121
1109	-0.123
1109	-0.127
1109	-0.13
1110	-0.13
1110	-0.135
1111	-0.144
1111	-0.138
