Data from 3.5A_17C_Absorbance__167__00169.txt Node

Date: Tue Jun 20 15:02:17 CEST 2023
User: Marek
Spectrometer: MAYP115816
Trigger mode: 0
Integration Time (sec): 2.200000E-1
Scans to average: 10
Electric dark correction enabled: true
Nonlinearity correction enabled: true
Boxcar width: 5
XAxis mode: Wavelengths
Number of Pixels in Spectrum: 2068
>>>>>Begin Spectral Data<<<<<
199	-0.575
199	-0.558
200	-0.517
200	-0.462
201	-0.431
201	-0.422
202	-0.404
202	-0.395
203	-0.395
203	-0.388
204	-0.37
204	-0.353
205	-0.331
205	-0.321
205	-0.33
206	-0.333
206	-0.33
207	-0.323
207	-0.333
208	-0.331
208	-0.336
209	-0.337
209	-0.344
210	-0.356
210	-0.367
211	-0.358
211	-0.36
212	-0.368
212	-0.371
213	-0.365
213	-0.362
213	-0.359
214	-0.366
214	-0.366
215	-0.363
215	-0.364
216	-0.374
216	-0.38
217	-0.378
217	-0.381
218	-0.387
218	-0.389
219	-0.396
219	-0.398
220	-0.403
220	-0.408
221	-0.408
221	-0.41
221	-0.402
222	-0.4
222	-0.398
223	-0.395
223	-0.396
224	-0.395
224	-0.393
225	-0.391
225	-0.39
226	-0.391
226	-0.389
227	-0.395
227	-0.404
228	-0.405
228	-0.413
229	-0.42
229	-0.419
229	-0.419
230	-0.412
230	-0.413
231	-0.411
231	-0.406
232	-0.407
232	-0.403
233	-0.407
233	-0.398
234	-0.394
234	-0.389
235	-0.392
235	-0.402
236	-0.408
236	-0.409
236	-0.411
237	-0.411
237	-0.412
238	-0.413
238	-0.416
239	-0.419
239	-0.43
240	-0.423
240	-0.421
241	-0.416
241	-0.421
242	-0.423
242	-0.43
243	-0.43
243	-0.428
243	-0.432
244	-0.425
244	-0.424
245	-0.425
245	-0.427
246	-0.435
246	-0.433
247	-0.44
247	-0.427
248	-0.426
248	-0.428
249	-0.431
249	-0.435
250	-0.433
250	-0.441
250	-0.44
251	-0.44
251	-0.441
252	-0.442
252	-0.455
253	-0.45
253	-0.463
254	-0.468
254	-0.47
255	-0.479
255	-0.476
256	-0.479
256	-0.491
257	-0.499
257	-0.495
258	-0.493
258	-0.502
258	-0.498
259	-0.491
259	-0.508
260	-0.509
260	-0.5
261	-0.509
261	-0.496
262	-0.501
262	-0.5
263	-0.493
263	-0.496
264	-0.504
264	-0.503
265	-0.494
265	-0.492
265	-0.502
266	-0.492
266	-0.488
267	-0.49
267	-0.502
268	-0.507
268	-0.503
269	-0.499
269	-0.515
270	-0.518
270	-0.517
271	-0.528
271	-0.54
272	-0.544
272	-0.543
272	-0.538
273	-0.549
273	-0.56
274	-0.552
274	-0.544
275	-0.54
275	-0.529
276	-0.534
276	-0.54
277	-0.541
277	-0.537
278	-0.541
278	-0.54
278	-0.528
279	-0.536
279	-0.549
280	-0.55
280	-0.562
281	-0.555
281	-0.547
282	-0.554
282	-0.547
283	-0.541
283	-0.554
284	-0.565
284	-0.574
285	-0.555
285	-0.56
285	-0.549
286	-0.553
286	-0.568
287	-0.563
287	-0.563
288	-0.56
288	-0.544
289	-0.546
289	-0.552
290	-0.562
290	-0.554
291	-0.559
291	-0.56
292	-0.543
292	-0.543
292	-0.544
293	-0.535
293	-0.531
294	-0.531
294	-0.519
295	-0.503
295	-0.515
296	-0.528
296	-0.521
297	-0.509
297	-0.51
298	-0.507
298	-0.52
298	-0.522
299	-0.504
299	-0.494
300	-0.491
300	-0.472
301	-0.455
301	-0.458
302	-0.464
302	-0.451
303	-0.449
303	-0.44
304	-0.426
304	-0.427
305	-0.42
305	-0.427
305	-0.439
306	-0.422
306	-0.418
307	-0.412
307	-0.424
308	-0.425
308	-0.423
309	-0.429
309	-0.427
310	-0.427
310	-0.423
311	-0.412
311	-0.429
311	-0.418
312	-0.414
312	-0.402
313	-0.392
313	-0.392
314	-0.394
314	-0.392
315	-0.39
315	-0.382
316	-0.377
316	-0.371
317	-0.365
317	-0.366
318	-0.359
318	-0.357
318	-0.346
319	-0.334
319	-0.324
320	-0.323
320	-0.323
321	-0.318
321	-0.314
322	-0.31
322	-0.303
323	-0.306
323	-0.296
324	-0.296
324	-0.286
324	-0.279
325	-0.265
325	-0.25
326	-0.241
326	-0.218
327	-0.202
327	-0.183
328	-0.153
328	-0.134
329	-0.107
329	-0.08
330	-0.056
330	-0.022
330	0.009
331	0.04
331	0.067
332	0.094
332	0.123
333	0.149
333	0.176
334	0.198
334	0.217
335	0.238
335	0.255
336	0.273
336	0.289
336	0.302
337	0.315
337	0.327
338	0.336
338	0.343
339	0.352
339	0.361
340	0.366
340	0.372
341	0.376
341	0.381
342	0.385
342	0.388
342	0.391
343	0.394
343	0.398
344	0.4
344	0.402
345	0.403
345	0.405
346	0.406
346	0.407
347	0.409
347	0.41
348	0.41
348	0.411
348	0.412
349	0.412
349	0.412
350	0.413
350	0.413
351	0.413
351	0.413
352	0.413
352	0.413
353	0.413
353	0.413
354	0.413
354	0.413
354	0.413
355	0.413
355	0.412
356	0.412
356	0.413
357	0.412
357	0.412
358	0.412
358	0.412
359	0.412
359	0.412
360	0.412
360	0.412
360	0.412
361	0.412
361	0.411
362	0.411
362	0.411
363	0.411
363	0.41
364	0.41
364	0.41
365	0.41
365	0.409
366	0.409
366	0.409
366	0.409
367	0.409
367	0.408
368	0.408
368	0.407
369	0.406
369	0.406
370	0.406
370	0.405
371	0.405
371	0.405
372	0.404
372	0.404
372	0.404
373	0.403
373	0.403
374	0.403
374	0.402
375	0.402
375	0.401
376	0.401
376	0.4
377	0.4
377	0.399
378	0.399
378	0.398
378	0.397
379	0.397
379	0.397
380	0.396
380	0.396
381	0.396
381	0.395
382	0.395
382	0.395
383	0.394
383	0.394
383	0.393
384	0.393
384	0.392
385	0.392
385	0.391
386	0.391
386	0.39
387	0.39
387	0.389
388	0.389
388	0.388
389	0.388
389	0.388
389	0.387
390	0.387
390	0.386
391	0.386
391	0.385
392	0.385
392	0.385
393	0.384
393	0.384
394	0.383
394	0.383
394	0.383
395	0.382
395	0.382
396	0.381
396	0.381
397	0.38
397	0.38
398	0.379
398	0.379
399	0.378
399	0.378
400	0.377
400	0.377
400	0.376
401	0.376
401	0.375
402	0.375
402	0.375
403	0.374
403	0.374
404	0.373
404	0.373
405	0.373
405	0.372
405	0.372
406	0.371
406	0.371
407	0.37
407	0.37
408	0.369
408	0.369
409	0.369
409	0.369
410	0.368
410	0.368
411	0.368
411	0.367
411	0.367
412	0.367
412	0.366
413	0.366
413	0.366
414	0.366
414	0.365
415	0.365
415	0.365
416	0.365
416	0.364
416	0.364
417	0.364
417	0.363
418	0.363
418	0.363
419	0.363
419	0.363
420	0.362
420	0.362
421	0.362
421	0.362
421	0.362
422	0.362
422	0.362
423	0.362
423	0.362
424	0.361
424	0.361
425	0.361
425	0.36
426	0.36
426	0.36
427	0.36
427	0.36
427	0.36
428	0.359
428	0.359
429	0.359
429	0.358
430	0.358
430	0.358
431	0.358
431	0.358
432	0.357
432	0.357
432	0.357
433	0.357
433	0.357
434	0.357
434	0.357
435	0.357
435	0.357
436	0.357
436	0.357
437	0.357
437	0.357
437	0.357
438	0.357
438	0.357
439	0.357
439	0.357
440	0.357
440	0.357
441	0.357
441	0.357
442	0.357
442	0.357
442	0.357
443	0.357
443	0.356
444	0.356
444	0.356
445	0.356
445	0.356
446	0.356
446	0.356
447	0.356
447	0.357
447	0.357
448	0.357
448	0.357
449	0.357
449	0.358
450	0.358
450	0.358
451	0.358
451	0.358
452	0.358
452	0.358
452	0.358
453	0.358
453	0.359
454	0.359
454	0.359
455	0.359
455	0.359
456	0.36
456	0.36
457	0.36
457	0.361
458	0.361
458	0.361
458	0.361
459	0.361
459	0.361
460	0.361
460	0.362
461	0.362
461	0.362
462	0.363
462	0.364
463	0.365
463	0.366
463	0.366
464	0.367
464	0.367
465	0.368
465	0.369
466	0.369
466	0.37
467	0.371
467	0.371
467	0.371
468	0.372
468	0.372
469	0.373
469	0.374
470	0.375
470	0.375
471	0.376
471	0.377
472	0.377
472	0.378
472	0.379
473	0.38
473	0.381
474	0.382
474	0.383
475	0.384
475	0.386
476	0.386
476	0.388
477	0.389
477	0.39
477	0.392
478	0.393
478	0.394
479	0.396
479	0.397
480	0.399
480	0.4
481	0.402
481	0.404
482	0.405
482	0.407
482	0.409
483	0.411
483	0.413
484	0.415
484	0.417
485	0.419
485	0.421
486	0.422
486	0.424
487	0.426
487	0.428
487	0.43
488	0.432
488	0.434
489	0.436
489	0.439
490	0.441
490	0.444
491	0.447
491	0.45
492	0.452
492	0.455
492	0.457
493	0.46
493	0.463
494	0.466
494	0.469
495	0.472
495	0.474
496	0.477
496	0.48
496	0.484
497	0.487
497	0.49
498	0.493
498	0.497
499	0.5
499	0.504
500	0.507
500	0.511
501	0.515
501	0.518
501	0.521
502	0.525
502	0.529
503	0.533
503	0.536
504	0.54
504	0.544
505	0.548
505	0.552
506	0.555
506	0.559
506	0.563
507	0.567
507	0.571
508	0.575
508	0.579
509	0.583
509	0.587
510	0.591
510	0.595
511	0.599
511	0.603
511	0.606
512	0.61
512	0.613
513	0.616
513	0.619
514	0.622
514	0.626
515	0.629
515	0.632
515	0.634
516	0.637
516	0.64
517	0.643
517	0.645
518	0.648
518	0.65
519	0.653
519	0.654
520	0.656
520	0.659
520	0.661
521	0.663
521	0.664
522	0.666
522	0.668
523	0.669
523	0.67
524	0.671
524	0.672
524	0.673
525	0.674
525	0.675
526	0.675
526	0.676
527	0.676
527	0.676
528	0.676
528	0.675
529	0.675
529	0.674
529	0.673
530	0.672
530	0.671
531	0.669
531	0.668
532	0.666
532	0.665
533	0.663
533	0.661
533	0.659
534	0.657
534	0.655
535	0.652
535	0.65
536	0.647
536	0.645
537	0.642
537	0.639
538	0.636
538	0.633
538	0.629
539	0.626
539	0.623
540	0.619
540	0.615
541	0.611
541	0.607
542	0.603
542	0.599
542	0.595
543	0.59
543	0.586
544	0.581
544	0.577
545	0.572
545	0.567
546	0.561
546	0.556
547	0.551
547	0.545
547	0.54
548	0.536
548	0.53
549	0.526
549	0.521
550	0.516
550	0.51
551	0.504
551	0.499
551	0.493
552	0.488
552	0.483
553	0.477
553	0.472
554	0.467
554	0.461
555	0.455
555	0.45
556	0.445
556	0.439
556	0.434
557	0.429
557	0.424
558	0.418
558	0.413
559	0.407
559	0.402
560	0.397
560	0.392
560	0.388
561	0.384
561	0.379
562	0.375
562	0.371
563	0.366
563	0.362
564	0.358
564	0.353
564	0.349
565	0.345
565	0.34
566	0.336
566	0.332
567	0.328
567	0.323
568	0.319
568	0.314
568	0.309
569	0.305
569	0.3
570	0.295
570	0.291
571	0.287
571	0.283
572	0.279
572	0.275
573	0.271
573	0.267
573	0.264
574	0.261
574	0.258
575	0.254
575	0.252
576	0.249
576	0.245
577	0.242
577	0.239
577	0.236
578	0.234
578	0.232
579	0.23
579	0.227
580	0.223
580	0.22
581	0.217
581	0.214
581	0.212
582	0.21
582	0.208
583	0.205
583	0.202
584	0.198
584	0.194
585	0.191
585	0.189
585	0.186
586	0.183
586	0.18
587	0.178
587	0.175
588	0.173
588	0.171
589	0.17
589	0.168
590	0.166
590	0.165
590	0.164
591	0.162
591	0.16
592	0.158
592	0.157
593	0.155
593	0.154
594	0.152
594	0.15
594	0.148
595	0.147
595	0.145
596	0.143
596	0.142
597	0.141
597	0.139
598	0.138
598	0.136
598	0.135
599	0.134
599	0.132
600	0.131
600	0.129
601	0.129
601	0.127
602	0.126
602	0.125
602	0.124
603	0.123
603	0.122
604	0.121
604	0.12
605	0.119
605	0.118
606	0.117
606	0.115
606	0.114
607	0.112
607	0.111
608	0.11
608	0.108
609	0.107
609	0.106
610	0.105
610	0.103
610	0.102
611	0.101
611	0.1
612	0.099
612	0.099
613	0.098
613	0.098
614	0.097
614	0.096
614	0.095
615	0.094
615	0.093
616	0.093
616	0.092
617	0.091
617	0.091
618	0.09
618	0.089
618	0.088
619	0.088
619	0.088
620	0.088
620	0.087
621	0.086
621	0.085
622	0.084
622	0.084
622	0.082
623	0.081
623	0.081
624	0.08
624	0.079
625	0.079
625	0.078
626	0.077
626	0.077
626	0.077
627	0.076
627	0.076
628	0.075
628	0.074
629	0.073
629	0.072
630	0.071
630	0.071
630	0.07
631	0.069
631	0.068
632	0.068
632	0.067
633	0.067
633	0.066
634	0.066
634	0.065
634	0.064
635	0.063
635	0.062
636	0.061
636	0.06
637	0.059
637	0.058
638	0.057
638	0.056
638	0.055
639	0.054
639	0.053
640	0.052
640	0.051
641	0.05
641	0.05
642	0.049
642	0.048
642	0.047
643	0.047
643	0.046
644	0.045
644	0.044
645	0.043
645	0.042
646	0.041
646	0.039
646	0.037
647	0.035
647	0.033
648	0.03
648	0.028
649	0.026
649	0.024
650	0.021
650	0.018
650	0.016
651	0.013
651	0.009
652	0.005
652	-0.001
653	-0.004
653	-0.008
653	-0.005
654	-0
654	-0.001
655	-0.004
655	-0.006
656	-0.008
656	-0.011
657	-0.013
657	-0.015
657	-0.018
658	-0.021
658	-0.035
659	-0.069
659	-0.103
660	-0.12
660	-0.133
661	-0.146
661	-0.161
661	-0.176
662	-0.189
662	-0.203
663	-0.22
663	-0.239
664	-0.254
664	-0.274
665	-0.294
665	-0.316
665	-0.338
666	-0.362
666	-0.389
667	-0.419
667	-0.453
668	-0.485
668	-0.529
669	-0.574
669	-0.623
669	-0.684
670	-0.758
670	-0.917
671	-1.251
671	-1.681
672	-2.058
672	-2.314
672	-2.475
673	-2.534
673	-2.549
674	-2.566
674	-2.575
675	-2.589
675	-2.593
676	-2.587
676	-2.543
676	-2.435
677	-2.223
677	-1.792
678	-1.224
678	-0.932
679	-0.828
679	-0.766
680	-0.719
680	-0.687
680	-0.66
681	-0.649
681	-0.626
682	-0.612
682	-0.59
683	-0.569
683	-0.568
684	-0.562
684	-0.558
684	-0.553
685	-0.548
685	-0.552
686	-0.542
686	-0.537
687	-0.538
687	-0.538
687	-0.546
688	-0.538
688	-0.537
689	-0.551
689	-0.552
690	-0.545
690	-0.539
691	-0.54
691	-0.547
691	-0.55
692	-0.552
692	-0.552
693	-0.559
693	-0.572
694	-0.552
694	-0.554
695	-0.559
695	-0.556
695	-0.565
696	-0.571
696	-0.567
697	-0.562
697	-0.56
698	-0.557
698	-0.548
698	-0.564
699	-0.565
699	-0.567
700	-0.589
700	-0.583
701	-0.572
701	-0.568
702	-0.569
702	-0.57
702	-0.571
703	-0.563
703	-0.554
704	-0.56
704	-0.566
705	-0.555
705	-0.555
705	-0.554
706	-0.549
706	-0.549
707	-0.562
707	-0.568
708	-0.568
708	-0.567
709	-0.569
709	-0.566
709	-0.562
710	-0.571
710	-0.574
711	-0.571
711	-0.572
712	-0.564
712	-0.558
713	-0.564
713	-0.563
713	-0.542
714	-0.542
714	-0.545
715	-0.537
715	-0.544
716	-0.563
716	-0.57
716	-0.57
717	-0.576
717	-0.566
718	-0.561
718	-0.565
719	-0.564
719	-0.558
720	-0.554
720	-0.551
720	-0.545
721	-0.537
721	-0.541
722	-0.539
722	-0.537
723	-0.553
723	-0.564
723	-0.574
724	-0.572
724	-0.576
725	-0.57
725	-0.575
726	-0.577
726	-0.569
727	-0.573
727	-0.582
727	-0.575
728	-0.565
728	-0.562
729	-0.563
729	-0.567
730	-0.572
730	-0.561
730	-0.568
731	-0.571
731	-0.571
732	-0.572
732	-0.567
733	-0.58
733	-0.583
734	-0.591
734	-0.583
734	-0.567
735	-0.561
735	-0.556
736	-0.554
736	-0.548
737	-0.549
737	-0.536
737	-0.527
738	-0.516
738	-0.505
739	-0.509
739	-0.51
740	-0.523
740	-0.522
741	-0.533
741	-0.542
741	-0.549
742	-0.558
742	-0.576
743	-0.582
743	-0.586
744	-0.588
744	-0.595
744	-0.588
745	-0.595
745	-0.587
746	-0.584
746	-0.575
747	-0.578
747	-0.567
748	-0.57
748	-0.571
748	-0.572
749	-0.569
749	-0.576
750	-0.568
750	-0.566
751	-0.562
751	-0.561
751	-0.574
752	-0.577
752	-0.579
753	-0.581
753	-0.574
754	-0.588
754	-0.586
754	-0.595
755	-0.595
755	-0.591
756	-0.595
756	-0.579
757	-0.572
757	-0.559
758	-0.56
758	-0.559
758	-0.554
759	-0.56
759	-0.558
760	-0.559
760	-0.558
761	-0.549
761	-0.553
761	-0.556
762	-0.563
762	-0.563
763	-0.565
763	-0.572
764	-0.568
764	-0.565
764	-0.568
765	-0.568
765	-0.578
766	-0.582
766	-0.582
767	-0.597
767	-0.594
768	-0.59
768	-0.579
768	-0.575
769	-0.578
769	-0.587
770	-0.596
770	-0.603
771	-0.599
771	-0.598
771	-0.603
772	-0.607
772	-0.629
773	-0.633
773	-0.635
774	-0.631
774	-0.615
775	-0.602
775	-0.596
775	-0.599
776	-0.609
776	-0.605
777	-0.606
777	-0.589
778	-0.596
778	-0.602
778	-0.605
779	-0.61
779	-0.624
780	-0.623
780	-0.633
781	-0.624
781	-0.612
781	-0.622
782	-0.643
782	-0.643
783	-0.64
783	-0.648
784	-0.652
784	-0.647
784	-0.663
785	-0.655
785	-0.669
786	-0.674
786	-0.67
787	-0.659
787	-0.668
788	-0.665
788	-0.66
788	-0.664
789	-0.664
789	-0.656
790	-0.654
790	-0.637
791	-0.645
791	-0.644
791	-0.636
792	-0.631
792	-0.636
793	-0.636
793	-0.624
794	-0.618
794	-0.612
794	-0.619
795	-0.64
795	-0.627
796	-0.629
796	-0.629
797	-0.623
797	-0.611
797	-0.606
798	-0.628
798	-0.631
799	-0.628
799	-0.614
800	-0.607
800	-0.614
801	-0.612
801	-0.615
801	-0.611
802	-0.611
802	-0.612
803	-0.607
803	-0.601
804	-0.61
804	-0.616
804	-0.604
805	-0.586
805	-0.577
806	-0.578
806	-0.575
807	-0.58
807	-0.581
807	-0.564
808	-0.56
808	-0.553
809	-0.552
809	-0.55
810	-0.551
810	-0.549
810	-0.546
811	-0.553
811	-0.544
812	-0.536
812	-0.537
813	-0.541
813	-0.543
813	-0.538
814	-0.541
814	-0.546
815	-0.537
815	-0.532
816	-0.526
816	-0.539
817	-0.549
817	-0.553
817	-0.561
818	-0.555
818	-0.551
819	-0.559
819	-0.561
820	-0.571
820	-0.571
820	-0.571
821	-0.567
821	-0.563
822	-0.563
822	-0.552
823	-0.562
823	-0.563
823	-0.557
824	-0.551
824	-0.562
825	-0.564
825	-0.562
826	-0.561
826	-0.56
826	-0.556
827	-0.558
827	-0.547
828	-0.545
828	-0.54
829	-0.538
829	-0.528
829	-0.524
830	-0.523
830	-0.507
831	-0.498
831	-0.489
832	-0.481
832	-0.48
832	-0.476
833	-0.475
833	-0.483
834	-0.478
834	-0.474
835	-0.468
835	-0.47
835	-0.468
836	-0.464
836	-0.461
837	-0.454
837	-0.447
838	-0.435
838	-0.418
839	-0.412
839	-0.4
839	-0.391
840	-0.39
840	-0.38
841	-0.374
841	-0.368
842	-0.359
842	-0.35
842	-0.349
843	-0.348
843	-0.344
844	-0.345
844	-0.336
845	-0.324
845	-0.319
845	-0.31
846	-0.301
846	-0.294
847	-0.285
847	-0.276
848	-0.264
848	-0.254
848	-0.242
849	-0.234
849	-0.227
850	-0.22
850	-0.214
851	-0.205
851	-0.193
851	-0.188
852	-0.179
852	-0.172
853	-0.165
853	-0.158
854	-0.151
854	-0.144
854	-0.136
855	-0.128
855	-0.125
856	-0.121
856	-0.116
857	-0.112
857	-0.108
857	-0.099
858	-0.094
858	-0.091
859	-0.085
859	-0.078
860	-0.072
860	-0.063
860	-0.057
861	-0.052
861	-0.045
862	-0.042
862	-0.038
863	-0.033
863	-0.028
863	-0.024
864	-0.022
864	-0.019
865	-0.015
865	-0.012
866	-0.009
866	-0.006
866	-0.003
867	-0.001
867	0.002
868	0.004
868	0.006
869	0.009
869	0.012
869	0.013
870	0.015
870	0.017
871	0.018
871	0.019
872	0.019
872	0.019
872	0.019
873	0.019
873	0.019
874	0.018
874	0.018
875	0.017
875	0.017
875	0.016
876	0.016
876	0.015
877	0.014
877	0.013
878	0.013
878	0.012
878	0.011
879	0.01
879	0.01
880	0.009
880	0.009
881	0.008
881	0.008
881	0.008
882	0.008
882	0.008
883	0.008
883	0.007
884	0.007
884	0.007
884	0.007
885	0.006
885	0.006
886	0.005
886	0.004
887	0.003
887	0.002
887	0.001
888	0
888	-0
889	-0.001
889	-0.002
890	-0.002
890	-0.002
890	-0.002
891	-0.002
891	-0.002
892	-0.001
892	0
893	0.001
893	0.001
893	0.001
894	0.002
894	0.002
895	0.002
895	0.003
895	0.003
896	0.003
896	0.003
897	0.004
897	0.004
898	0.004
898	0.004
898	0.004
899	0.004
899	0.004
900	0.005
900	0.004
901	0.004
901	0.004
901	0.003
902	0.003
902	0.003
903	0.003
903	0.002
904	0.001
904	0.001
904	0
905	0
905	0
906	0
906	0.001
907	0.001
907	0.001
907	0.002
908	0.003
908	0.004
909	0.004
909	0.005
910	0.005
910	0.005
910	0.005
911	0.006
911	0.007
912	0.008
912	0.009
913	0.011
913	0.012
913	0.012
914	0.013
914	0.014
915	0.014
915	0.014
916	0.014
916	0.013
916	0.012
917	0.011
917	0.01
918	0.009
918	0.009
918	0.008
919	0.008
919	0.008
920	0.008
920	0.008
921	0.008
921	0.008
921	0.009
922	0.009
922	0.009
923	0.009
923	0.009
924	0.009
924	0.009
924	0.008
925	0.008
925	0.008
926	0.007
926	0.007
927	0.007
927	0.006
927	0.006
928	0.007
928	0.007
929	0.007
929	0.008
930	0.009
930	0.01
930	0.011
931	0.013
931	0.014
932	0.015
932	0.016
933	0.017
933	0.018
933	0.019
934	0.019
934	0.019
935	0.019
935	0.018
935	0.018
936	0.017
936	0.015
937	0.014
937	0.013
938	0.012
938	0.011
938	0.01
939	0.009
939	0.008
940	0.008
940	0.007
941	0.006
941	0.007
941	0.007
942	0.007
942	0.007
943	0.008
943	0.008
944	0.008
944	0.008
944	0.008
945	0.009
945	0.009
946	0.008
946	0.007
946	0.006
947	0.005
947	0.004
948	0.004
948	0.003
949	0.002
949	0.002
949	0.002
950	0.002
950	0.003
951	0.003
951	0.003
952	0.004
952	0.005
952	0.006
953	0.007
953	0.007
954	0.008
954	0.008
955	0.008
955	0.008
955	0.008
956	0.007
956	0.007
957	0.006
957	0.005
957	0.004
958	0.003
958	0.003
959	0.003
959	0.002
960	0.002
960	0.002
960	0.002
961	0.002
961	0.003
962	0.003
962	0.004
963	0.004
963	0.004
963	0.005
964	0.005
964	0.006
965	0.006
965	0.007
966	0.007
966	0.008
966	0.008
967	0.009
967	0.009
968	0.009
968	0.009
968	0.009
969	0.009
969	0.009
970	0.008
970	0.007
971	0.006
971	0.006
971	0.005
972	0.005
972	0.005
973	0.004
973	0.004
974	0.005
974	0.005
974	0.006
975	0.007
975	0.008
976	0.008
976	0.009
976	0.009
977	0.009
977	0.009
978	0.009
978	0.008
979	0.007
979	0.007
979	0.006
980	0.005
980	0.004
981	0.004
981	0.003
982	0.003
982	0.003
982	0.003
983	0.003
983	0.003
984	0.003
984	0.003
984	0.003
985	0.003
985	0.004
986	0.004
986	0.004
987	0.004
987	0.004
987	0.004
988	0.004
988	0.004
989	0.004
989	0.003
990	0.002
990	0.002
990	0.001
991	0.001
991	0
992	-0
992	-0.001
992	-0.001
993	-0.001
993	-0.001
994	-0.001
994	-0.001
995	-0.001
995	-0.002
995	-0.002
996	-0.002
996	-0.002
997	-0.002
997	-0.002
997	-0.002
998	-0.002
998	-0.001
999	-0.001
999	-0.001
1000	-0.001
1000	-0.001
1000	-0.001
1001	-0
1001	0
1002	0
1002	0
1003	0
1003	-0
1003	-0
1004	-0.001
1004	-0.001
1005	-0.002
1005	-0.003
1005	-0.004
1006	-0.005
1006	-0.006
1007	-0.007
1007	-0.007
1008	-0.009
1008	-0.01
1008	-0.01
1009	-0.01
1009	-0.01
1010	-0.01
1010	-0.01
1010	-0.009
1011	-0.009
1011	-0.008
1012	-0.008
1012	-0.007
1013	-0.005
1013	-0.005
1013	-0.004
1014	-0.004
1014	-0.003
1015	-0.002
1015	-0.002
1016	-0.001
1016	-0.001
1016	-0.001
1017	-0.001
1017	-0
1018	0
1018	0
1018	0
1019	-0
1019	-0.001
1020	-0.001
1020	-0.001
1021	-0.001
1021	-0.002
1021	-0.002
1022	-0.003
1022	-0.004
1023	-0.004
1023	-0.005
1023	-0.006
1024	-0.007
1024	-0.008
1025	-0.009
1025	-0.01
1026	-0.01
1026	-0.011
1026	-0.011
1027	-0.012
1027	-0.012
1028	-0.012
1028	-0.012
1028	-0.012
1029	-0.013
1029	-0.013
1030	-0.013
1030	-0.013
1031	-0.013
1031	-0.013
1031	-0.013
1032	-0.014
1032	-0.014
1033	-0.015
1033	-0.015
1033	-0.015
1034	-0.015
1034	-0.015
1035	-0.015
1035	-0.015
1036	-0.015
1036	-0.015
1036	-0.014
1037	-0.014
1037	-0.013
1038	-0.012
1038	-0.011
1039	-0.01
1039	-0.01
1039	-0.009
1040	-0.009
1040	-0.008
1041	-0.008
1041	-0.008
1041	-0.008
1042	-0.008
1042	-0.008
1043	-0.009
1043	-0.01
1044	-0.011
1044	-0.012
1044	-0.012
1045	-0.013
1045	-0.014
1046	-0.015
1046	-0.015
1046	-0.015
1047	-0.015
1047	-0.015
1048	-0.015
1048	-0.016
1049	-0.016
1049	-0.016
1049	-0.017
1050	-0.018
1050	-0.018
1051	-0.019
1051	-0.02
1051	-0.02
1052	-0.021
1052	-0.021
1053	-0.022
1053	-0.022
1053	-0.021
1054	-0.022
1054	-0.021
1055	-0.021
1055	-0.021
1056	-0.021
1056	-0.021
1056	-0.021
1057	-0.022
1057	-0.022
1058	-0.022
1058	-0.023
1058	-0.023
1059	-0.023
1059	-0.023
1060	-0.023
1060	-0.023
1061	-0.023
1061	-0.022
1061	-0.022
1062	-0.022
1062	-0.021
1063	-0.021
1063	-0.022
1063	-0.021
1064	-0.022
1064	-0.021
1065	-0.021
1065	-0.022
1066	-0.022
1066	-0.022
1066	-0.022
1067	-0.023
1067	-0.023
1068	-0.023
1068	-0.024
1068	-0.025
1069	-0.025
1069	-0.026
1070	-0.026
1070	-0.027
1071	-0.027
1071	-0.027
1071	-0.028
1072	-0.028
1072	-0.028
1073	-0.027
1073	-0.027
1073	-0.026
1074	-0.025
1074	-0.025
1075	-0.025
1075	-0.025
1076	-0.026
1076	-0.026
1076	-0.026
1077	-0.027
1077	-0.028
1078	-0.028
1078	-0.029
1078	-0.03
1079	-0.03
1079	-0.03
1080	-0.031
1080	-0.031
1080	-0.032
1081	-0.033
1081	-0.033
1082	-0.033
1082	-0.034
1083	-0.034
1083	-0.034
1083	-0.035
1084	-0.036
1084	-0.036
1085	-0.037
1085	-0.037
1085	-0.037
1086	-0.037
1086	-0.037
1087	-0.037
1087	-0.038
1088	-0.039
1088	-0.039
1088	-0.04
1089	-0.041
1089	-0.042
1090	-0.042
1090	-0.043
1090	-0.044
1091	-0.045
1091	-0.046
1092	-0.046
1092	-0.046
1092	-0.047
1093	-0.047
1093	-0.047
1094	-0.047
1094	-0.048
1095	-0.048
1095	-0.048
1095	-0.049
1096	-0.049
1096	-0.05
1097	-0.05
1097	-0.051
1097	-0.051
1098	-0.052
1098	-0.053
1099	-0.054
1099	-0.054
1100	-0.056
1100	-0.057
1100	-0.06
1101	-0.062
1101	-0.063
1102	-0.065
1102	-0.067
1102	-0.068
1103	-0.07
1103	-0.071
1104	-0.074
1104	-0.076
1104	-0.077
1105	-0.078
1105	-0.079
1106	-0.082
1106	-0.083
1107	-0.085
1107	-0.089
1107	-0.092
1108	-0.094
1108	-0.093
1109	-0.095
1109	-0.097
1109	-0.1
1110	-0.1
1110	-0.102
1111	-0.109
1111	-0.108
