Data from 3.5A_17C_Absorbance__38__00040.txt Node

Date: Tue Jun 20 14:57:33 CEST 2023
User: Marek
Spectrometer: MAYP115816
Trigger mode: 0
Integration Time (sec): 2.200000E-1
Scans to average: 10
Electric dark correction enabled: true
Nonlinearity correction enabled: true
Boxcar width: 5
XAxis mode: Wavelengths
Number of Pixels in Spectrum: 2068
>>>>>Begin Spectral Data<<<<<
199	-0.453
199	-0.446
200	-0.418
200	-0.37
201	-0.348
201	-0.346
202	-0.326
202	-0.319
203	-0.319
203	-0.312
204	-0.296
204	-0.284
205	-0.26
205	-0.253
205	-0.259
206	-0.256
206	-0.248
207	-0.242
207	-0.247
208	-0.249
208	-0.256
209	-0.259
209	-0.266
210	-0.28
210	-0.285
211	-0.281
211	-0.288
212	-0.295
212	-0.302
213	-0.3
213	-0.292
213	-0.284
214	-0.289
214	-0.289
215	-0.284
215	-0.289
216	-0.298
216	-0.303
217	-0.302
217	-0.301
218	-0.308
218	-0.312
219	-0.323
219	-0.327
220	-0.33
220	-0.336
221	-0.335
221	-0.332
221	-0.324
222	-0.324
222	-0.324
223	-0.32
223	-0.322
224	-0.322
224	-0.318
225	-0.317
225	-0.32
226	-0.322
226	-0.324
227	-0.332
227	-0.34
228	-0.344
228	-0.351
229	-0.357
229	-0.355
229	-0.355
230	-0.351
230	-0.348
231	-0.343
231	-0.341
232	-0.343
232	-0.34
233	-0.34
233	-0.33
234	-0.329
234	-0.323
235	-0.328
235	-0.339
236	-0.343
236	-0.346
236	-0.344
237	-0.337
237	-0.336
238	-0.338
238	-0.34
239	-0.341
239	-0.35
240	-0.342
240	-0.335
241	-0.331
241	-0.333
242	-0.336
242	-0.349
243	-0.348
243	-0.348
243	-0.351
244	-0.349
244	-0.348
245	-0.351
245	-0.357
246	-0.364
246	-0.368
247	-0.376
247	-0.361
248	-0.362
248	-0.363
249	-0.369
249	-0.369
250	-0.37
250	-0.374
250	-0.368
251	-0.372
251	-0.366
252	-0.367
252	-0.377
253	-0.372
253	-0.383
254	-0.385
254	-0.386
255	-0.396
255	-0.397
256	-0.4
256	-0.41
257	-0.415
257	-0.411
258	-0.413
258	-0.419
258	-0.415
259	-0.408
259	-0.424
260	-0.42
260	-0.411
261	-0.422
261	-0.409
262	-0.416
262	-0.413
263	-0.405
263	-0.411
264	-0.42
264	-0.422
265	-0.416
265	-0.418
265	-0.427
266	-0.415
266	-0.411
267	-0.41
267	-0.427
268	-0.429
268	-0.423
269	-0.415
269	-0.425
270	-0.424
270	-0.424
271	-0.432
271	-0.443
272	-0.445
272	-0.451
272	-0.443
273	-0.454
273	-0.464
274	-0.46
274	-0.453
275	-0.454
275	-0.439
276	-0.448
276	-0.45
277	-0.452
277	-0.443
278	-0.448
278	-0.449
278	-0.438
279	-0.447
279	-0.461
280	-0.461
280	-0.473
281	-0.463
281	-0.459
282	-0.466
282	-0.464
283	-0.455
283	-0.47
284	-0.482
284	-0.489
285	-0.471
285	-0.475
285	-0.465
286	-0.469
286	-0.484
287	-0.478
287	-0.476
288	-0.477
288	-0.46
289	-0.459
289	-0.467
290	-0.474
290	-0.466
291	-0.47
291	-0.469
292	-0.45
292	-0.45
292	-0.454
293	-0.442
293	-0.437
294	-0.44
294	-0.428
295	-0.413
295	-0.422
296	-0.436
296	-0.433
297	-0.423
297	-0.429
298	-0.425
298	-0.44
298	-0.44
299	-0.421
299	-0.411
300	-0.408
300	-0.387
301	-0.369
301	-0.369
302	-0.376
302	-0.359
303	-0.35
303	-0.342
304	-0.331
304	-0.332
305	-0.326
305	-0.333
305	-0.349
306	-0.335
306	-0.334
307	-0.33
307	-0.339
308	-0.343
308	-0.337
309	-0.341
309	-0.338
310	-0.337
310	-0.334
311	-0.323
311	-0.335
311	-0.328
312	-0.323
312	-0.312
313	-0.305
313	-0.307
314	-0.311
314	-0.309
315	-0.31
315	-0.306
316	-0.299
316	-0.294
317	-0.287
317	-0.285
318	-0.28
318	-0.279
318	-0.271
319	-0.26
319	-0.252
320	-0.247
320	-0.244
321	-0.24
321	-0.239
322	-0.229
322	-0.224
323	-0.226
323	-0.217
324	-0.215
324	-0.207
324	-0.197
325	-0.185
325	-0.168
326	-0.159
326	-0.136
327	-0.128
327	-0.108
328	-0.082
328	-0.062
329	-0.038
329	-0.013
330	0.01
330	0.039
330	0.069
331	0.097
331	0.122
332	0.148
332	0.173
333	0.195
333	0.218
334	0.239
334	0.256
335	0.275
335	0.288
336	0.302
336	0.315
336	0.325
337	0.337
337	0.347
338	0.354
338	0.36
339	0.369
339	0.375
340	0.379
340	0.384
341	0.387
341	0.39
342	0.394
342	0.397
342	0.399
343	0.401
343	0.404
344	0.405
344	0.407
345	0.408
345	0.409
346	0.41
346	0.412
347	0.413
347	0.413
348	0.414
348	0.414
348	0.415
349	0.415
349	0.415
350	0.415
350	0.416
351	0.416
351	0.416
352	0.415
352	0.415
353	0.416
353	0.416
354	0.416
354	0.416
354	0.416
355	0.416
355	0.415
356	0.415
356	0.415
357	0.415
357	0.415
358	0.414
358	0.414
359	0.414
359	0.413
360	0.413
360	0.413
360	0.413
361	0.413
361	0.413
362	0.413
362	0.412
363	0.412
363	0.412
364	0.412
364	0.412
365	0.412
365	0.411
366	0.411
366	0.411
366	0.411
367	0.411
367	0.41
368	0.41
368	0.409
369	0.409
369	0.408
370	0.408
370	0.408
371	0.407
371	0.407
372	0.406
372	0.406
372	0.406
373	0.405
373	0.405
374	0.404
374	0.404
375	0.404
375	0.403
376	0.403
376	0.402
377	0.401
377	0.401
378	0.4
378	0.4
378	0.4
379	0.399
379	0.399
380	0.399
380	0.398
381	0.398
381	0.398
382	0.397
382	0.397
383	0.396
383	0.396
383	0.395
384	0.395
384	0.394
385	0.393
385	0.392
386	0.392
386	0.392
387	0.391
387	0.391
388	0.39
388	0.39
389	0.389
389	0.389
389	0.389
390	0.389
390	0.388
391	0.387
391	0.387
392	0.387
392	0.386
393	0.386
393	0.385
394	0.385
394	0.384
394	0.384
395	0.383
395	0.383
396	0.382
396	0.382
397	0.381
397	0.381
398	0.38
398	0.38
399	0.379
399	0.379
400	0.379
400	0.378
400	0.378
401	0.377
401	0.377
402	0.376
402	0.376
403	0.376
403	0.375
404	0.375
404	0.374
405	0.374
405	0.374
405	0.373
406	0.373
406	0.373
407	0.372
407	0.372
408	0.372
408	0.371
409	0.371
409	0.37
410	0.37
410	0.37
411	0.369
411	0.369
411	0.369
412	0.369
412	0.368
413	0.368
413	0.368
414	0.367
414	0.367
415	0.367
415	0.366
416	0.366
416	0.366
416	0.365
417	0.365
417	0.364
418	0.364
418	0.364
419	0.364
419	0.364
420	0.364
420	0.364
421	0.363
421	0.363
421	0.363
422	0.363
422	0.363
423	0.363
423	0.363
424	0.363
424	0.362
425	0.362
425	0.362
426	0.362
426	0.361
427	0.361
427	0.361
427	0.361
428	0.361
428	0.361
429	0.36
429	0.36
430	0.36
430	0.36
431	0.359
431	0.359
432	0.359
432	0.359
432	0.358
433	0.358
433	0.358
434	0.358
434	0.358
435	0.358
435	0.358
436	0.358
436	0.358
437	0.358
437	0.358
437	0.358
438	0.358
438	0.358
439	0.358
439	0.358
440	0.358
440	0.357
441	0.357
441	0.357
442	0.357
442	0.357
442	0.357
443	0.358
443	0.358
444	0.358
444	0.358
445	0.358
445	0.358
446	0.358
446	0.358
447	0.358
447	0.359
447	0.359
448	0.359
448	0.359
449	0.359
449	0.359
450	0.36
450	0.36
451	0.36
451	0.36
452	0.36
452	0.36
452	0.36
453	0.36
453	0.36
454	0.36
454	0.36
455	0.361
455	0.361
456	0.361
456	0.361
457	0.361
457	0.362
458	0.362
458	0.362
458	0.362
459	0.363
459	0.363
460	0.363
460	0.363
461	0.363
461	0.364
462	0.365
462	0.365
463	0.366
463	0.367
463	0.368
464	0.368
464	0.369
465	0.369
465	0.37
466	0.37
466	0.371
467	0.372
467	0.372
467	0.372
468	0.373
468	0.373
469	0.374
469	0.376
470	0.377
470	0.377
471	0.378
471	0.379
472	0.38
472	0.38
472	0.381
473	0.382
473	0.383
474	0.384
474	0.385
475	0.386
475	0.387
476	0.388
476	0.389
477	0.391
477	0.392
477	0.393
478	0.395
478	0.396
479	0.397
479	0.399
480	0.4
480	0.402
481	0.403
481	0.405
482	0.406
482	0.408
482	0.41
483	0.412
483	0.414
484	0.416
484	0.418
485	0.42
485	0.422
486	0.424
486	0.426
487	0.428
487	0.43
487	0.432
488	0.434
488	0.436
489	0.438
489	0.441
490	0.443
490	0.446
491	0.449
491	0.451
492	0.454
492	0.457
492	0.459
493	0.462
493	0.465
494	0.468
494	0.471
495	0.474
495	0.477
496	0.479
496	0.482
496	0.486
497	0.489
497	0.492
498	0.495
498	0.499
499	0.502
499	0.506
500	0.509
500	0.513
501	0.516
501	0.52
501	0.523
502	0.527
502	0.531
503	0.534
503	0.538
504	0.541
504	0.545
505	0.549
505	0.553
506	0.557
506	0.561
506	0.566
507	0.57
507	0.573
508	0.578
508	0.581
509	0.586
509	0.589
510	0.594
510	0.597
511	0.601
511	0.604
511	0.608
512	0.611
512	0.615
513	0.618
513	0.622
514	0.625
514	0.628
515	0.631
515	0.633
515	0.636
516	0.639
516	0.642
517	0.645
517	0.647
518	0.65
518	0.652
519	0.654
519	0.656
520	0.659
520	0.661
520	0.663
521	0.665
521	0.667
522	0.668
522	0.67
523	0.671
523	0.673
524	0.674
524	0.674
524	0.675
525	0.676
525	0.676
526	0.677
526	0.677
527	0.678
527	0.678
528	0.677
528	0.677
529	0.677
529	0.677
529	0.676
530	0.675
530	0.674
531	0.673
531	0.671
532	0.669
532	0.668
533	0.666
533	0.664
533	0.662
534	0.659
534	0.657
535	0.654
535	0.652
536	0.649
536	0.646
537	0.643
537	0.64
538	0.637
538	0.634
538	0.631
539	0.627
539	0.624
540	0.62
540	0.616
541	0.613
541	0.608
542	0.604
542	0.6
542	0.595
543	0.59
543	0.586
544	0.581
544	0.577
545	0.572
545	0.567
546	0.561
546	0.556
547	0.551
547	0.546
547	0.541
548	0.537
548	0.532
549	0.527
549	0.522
550	0.517
550	0.512
551	0.506
551	0.5
551	0.495
552	0.489
552	0.484
553	0.479
553	0.474
554	0.468
554	0.462
555	0.457
555	0.451
556	0.446
556	0.441
556	0.435
557	0.43
557	0.425
558	0.419
558	0.414
559	0.408
559	0.403
560	0.397
560	0.393
560	0.389
561	0.384
561	0.38
562	0.376
562	0.371
563	0.367
563	0.362
564	0.358
564	0.354
564	0.35
565	0.345
565	0.341
566	0.336
566	0.332
567	0.327
567	0.323
568	0.318
568	0.314
568	0.309
569	0.304
569	0.299
570	0.295
570	0.29
571	0.287
571	0.283
572	0.279
572	0.275
573	0.271
573	0.267
573	0.264
574	0.261
574	0.258
575	0.255
575	0.252
576	0.249
576	0.245
577	0.242
577	0.239
577	0.237
578	0.234
578	0.232
579	0.229
579	0.226
580	0.223
580	0.22
581	0.217
581	0.214
581	0.212
582	0.21
582	0.207
583	0.205
583	0.202
584	0.198
584	0.195
585	0.192
585	0.189
585	0.186
586	0.184
586	0.181
587	0.179
587	0.177
588	0.174
588	0.172
589	0.171
589	0.169
590	0.167
590	0.165
590	0.164
591	0.162
591	0.16
592	0.158
592	0.156
593	0.155
593	0.153
594	0.151
594	0.15
594	0.148
595	0.146
595	0.144
596	0.142
596	0.141
597	0.14
597	0.138
598	0.136
598	0.135
598	0.133
599	0.132
599	0.131
600	0.13
600	0.128
601	0.128
601	0.126
602	0.125
602	0.124
602	0.123
603	0.122
603	0.121
604	0.12
604	0.119
605	0.118
605	0.117
606	0.115
606	0.114
606	0.112
607	0.111
607	0.11
608	0.109
608	0.107
609	0.106
609	0.105
610	0.104
610	0.102
610	0.101
611	0.1
611	0.099
612	0.098
612	0.098
613	0.097
613	0.097
614	0.096
614	0.095
614	0.095
615	0.094
615	0.094
616	0.093
616	0.093
617	0.092
617	0.091
618	0.091
618	0.09
618	0.089
619	0.089
619	0.089
620	0.088
620	0.087
621	0.086
621	0.085
622	0.084
622	0.083
622	0.081
623	0.08
623	0.08
624	0.079
624	0.078
625	0.078
625	0.077
626	0.077
626	0.076
626	0.076
627	0.076
627	0.076
628	0.075
628	0.075
629	0.074
629	0.073
630	0.072
630	0.072
630	0.071
631	0.071
631	0.069
632	0.069
632	0.068
633	0.067
633	0.066
634	0.066
634	0.065
634	0.064
635	0.063
635	0.062
636	0.06
636	0.06
637	0.059
637	0.058
638	0.057
638	0.056
638	0.055
639	0.054
639	0.053
640	0.052
640	0.051
641	0.051
641	0.05
642	0.049
642	0.048
642	0.047
643	0.046
643	0.045
644	0.044
644	0.043
645	0.043
645	0.042
646	0.041
646	0.04
646	0.039
647	0.037
647	0.035
648	0.033
648	0.031
649	0.029
649	0.028
650	0.026
650	0.024
650	0.021
651	0.019
651	0.015
652	0.011
652	0.007
653	0.003
653	0
653	0.002
654	0.008
654	0.007
655	0.005
655	0.003
656	0.001
656	-0.001
657	-0.003
657	-0.005
657	-0.007
658	-0.009
658	-0.021
659	-0.05
659	-0.079
660	-0.094
660	-0.105
661	-0.115
661	-0.131
661	-0.144
662	-0.157
662	-0.17
663	-0.185
663	-0.204
664	-0.221
664	-0.24
665	-0.263
665	-0.286
665	-0.309
666	-0.333
666	-0.366
667	-0.396
667	-0.433
668	-0.47
668	-0.519
669	-0.569
669	-0.627
669	-0.7
670	-0.82
670	-1.121
671	-1.517
671	-1.895
672	-2.22
672	-2.414
672	-2.514
673	-2.545
673	-2.556
674	-2.572
674	-2.58
675	-2.593
675	-2.591
676	-2.57
676	-2.497
676	-2.326
677	-2.023
677	-1.508
678	-1.026
678	-0.841
679	-0.759
679	-0.702
680	-0.659
680	-0.628
680	-0.605
681	-0.594
681	-0.572
682	-0.558
682	-0.535
683	-0.514
683	-0.509
684	-0.498
684	-0.492
684	-0.483
685	-0.481
685	-0.48
686	-0.465
686	-0.46
687	-0.459
687	-0.457
687	-0.467
688	-0.46
688	-0.46
689	-0.471
689	-0.473
690	-0.466
690	-0.461
691	-0.465
691	-0.472
691	-0.475
692	-0.478
692	-0.476
693	-0.485
693	-0.499
694	-0.484
694	-0.483
695	-0.484
695	-0.482
695	-0.492
696	-0.501
696	-0.495
697	-0.494
697	-0.488
698	-0.483
698	-0.476
698	-0.488
699	-0.489
699	-0.493
700	-0.511
700	-0.507
701	-0.494
701	-0.489
702	-0.489
702	-0.493
702	-0.496
703	-0.489
703	-0.483
704	-0.49
704	-0.492
705	-0.48
705	-0.477
705	-0.47
706	-0.464
706	-0.462
707	-0.471
707	-0.475
708	-0.475
708	-0.473
709	-0.477
709	-0.474
709	-0.472
710	-0.483
710	-0.486
711	-0.486
711	-0.488
712	-0.481
712	-0.477
713	-0.483
713	-0.481
713	-0.461
714	-0.467
714	-0.471
715	-0.463
715	-0.474
716	-0.489
716	-0.493
716	-0.494
717	-0.502
717	-0.492
718	-0.488
718	-0.494
719	-0.487
719	-0.478
720	-0.475
720	-0.471
720	-0.466
721	-0.463
721	-0.465
722	-0.463
722	-0.461
723	-0.474
723	-0.483
723	-0.492
724	-0.492
724	-0.496
725	-0.492
725	-0.499
726	-0.5
726	-0.491
727	-0.494
727	-0.5
727	-0.493
728	-0.482
728	-0.477
729	-0.481
729	-0.483
730	-0.483
730	-0.474
730	-0.478
731	-0.483
731	-0.484
732	-0.487
732	-0.486
733	-0.496
733	-0.505
734	-0.514
734	-0.506
734	-0.493
735	-0.484
735	-0.479
736	-0.476
736	-0.467
737	-0.465
737	-0.454
737	-0.45
738	-0.436
738	-0.424
739	-0.429
739	-0.429
740	-0.441
740	-0.441
741	-0.453
741	-0.465
741	-0.476
742	-0.483
742	-0.496
743	-0.503
743	-0.508
744	-0.508
744	-0.516
744	-0.509
745	-0.52
745	-0.51
746	-0.504
746	-0.496
747	-0.495
747	-0.488
748	-0.49
748	-0.491
748	-0.493
749	-0.487
749	-0.495
750	-0.484
750	-0.485
751	-0.483
751	-0.48
751	-0.492
752	-0.494
752	-0.495
753	-0.497
753	-0.49
754	-0.507
754	-0.504
754	-0.515
755	-0.514
755	-0.507
756	-0.513
756	-0.5
757	-0.494
757	-0.485
758	-0.483
758	-0.484
758	-0.481
759	-0.489
759	-0.489
760	-0.49
760	-0.492
761	-0.482
761	-0.488
761	-0.488
762	-0.494
762	-0.496
763	-0.495
763	-0.497
764	-0.495
764	-0.488
764	-0.489
765	-0.487
765	-0.494
766	-0.495
766	-0.498
767	-0.511
767	-0.507
768	-0.504
768	-0.497
768	-0.494
769	-0.499
769	-0.506
770	-0.518
770	-0.524
771	-0.522
771	-0.519
771	-0.523
772	-0.524
772	-0.544
773	-0.547
773	-0.543
774	-0.54
774	-0.525
775	-0.51
775	-0.507
775	-0.507
776	-0.519
776	-0.516
777	-0.517
777	-0.504
778	-0.51
778	-0.521
778	-0.523
779	-0.53
779	-0.547
780	-0.543
780	-0.553
781	-0.543
781	-0.535
781	-0.55
782	-0.568
782	-0.571
783	-0.567
783	-0.573
784	-0.578
784	-0.57
784	-0.587
785	-0.58
785	-0.59
786	-0.595
786	-0.585
787	-0.572
787	-0.582
788	-0.575
788	-0.567
788	-0.567
789	-0.567
789	-0.559
790	-0.556
790	-0.541
791	-0.546
791	-0.543
791	-0.54
792	-0.534
792	-0.539
793	-0.546
793	-0.532
794	-0.528
794	-0.524
794	-0.53
795	-0.552
795	-0.539
796	-0.545
796	-0.544
797	-0.539
797	-0.529
797	-0.522
798	-0.543
798	-0.548
799	-0.546
799	-0.536
800	-0.528
800	-0.539
801	-0.537
801	-0.542
801	-0.536
802	-0.536
802	-0.537
803	-0.532
803	-0.523
804	-0.534
804	-0.541
804	-0.529
805	-0.51
805	-0.5
806	-0.5
806	-0.498
807	-0.501
807	-0.501
807	-0.489
808	-0.486
808	-0.477
809	-0.472
809	-0.473
810	-0.476
810	-0.474
810	-0.472
811	-0.477
811	-0.468
812	-0.461
812	-0.462
813	-0.467
813	-0.467
813	-0.466
814	-0.463
814	-0.466
815	-0.459
815	-0.452
816	-0.445
816	-0.46
817	-0.471
817	-0.476
817	-0.485
818	-0.478
818	-0.474
819	-0.484
819	-0.482
820	-0.492
820	-0.494
820	-0.494
821	-0.493
821	-0.489
822	-0.489
822	-0.476
823	-0.489
823	-0.488
823	-0.484
824	-0.486
824	-0.495
825	-0.491
825	-0.488
826	-0.485
826	-0.481
826	-0.478
827	-0.479
827	-0.468
828	-0.468
828	-0.464
829	-0.459
829	-0.448
829	-0.448
830	-0.447
830	-0.431
831	-0.424
831	-0.415
832	-0.411
832	-0.405
832	-0.4
833	-0.399
833	-0.403
834	-0.4
834	-0.394
835	-0.39
835	-0.392
835	-0.391
836	-0.389
836	-0.385
837	-0.377
837	-0.371
838	-0.361
838	-0.346
839	-0.342
839	-0.333
839	-0.324
840	-0.325
840	-0.318
841	-0.308
841	-0.303
842	-0.296
842	-0.289
842	-0.289
843	-0.29
843	-0.289
844	-0.289
844	-0.285
845	-0.275
845	-0.271
845	-0.267
846	-0.258
846	-0.253
847	-0.245
847	-0.234
848	-0.223
848	-0.211
848	-0.201
849	-0.192
849	-0.185
850	-0.177
850	-0.172
851	-0.165
851	-0.156
851	-0.151
852	-0.144
852	-0.138
853	-0.134
853	-0.128
854	-0.122
854	-0.117
854	-0.11
855	-0.103
855	-0.099
856	-0.096
856	-0.092
857	-0.089
857	-0.085
857	-0.079
858	-0.074
858	-0.07
859	-0.065
859	-0.061
860	-0.056
860	-0.05
860	-0.045
861	-0.04
861	-0.036
862	-0.032
862	-0.029
863	-0.025
863	-0.021
863	-0.018
864	-0.015
864	-0.013
865	-0.01
865	-0.007
866	-0.005
866	-0.003
866	-0.001
867	0.001
867	0.003
868	0.005
868	0.007
869	0.009
869	0.011
869	0.013
870	0.015
870	0.016
871	0.017
871	0.018
872	0.018
872	0.018
872	0.019
873	0.019
873	0.019
874	0.018
874	0.018
875	0.017
875	0.017
875	0.016
876	0.016
876	0.016
877	0.015
877	0.014
878	0.014
878	0.013
878	0.012
879	0.011
879	0.011
880	0.011
880	0.01
881	0.01
881	0.01
881	0.01
882	0.01
882	0.01
883	0.009
883	0.009
884	0.009
884	0.009
884	0.009
885	0.009
885	0.008
886	0.008
886	0.007
887	0.006
887	0.005
887	0.005
888	0.004
888	0.004
889	0.003
889	0.002
890	0.001
890	0.001
890	0.001
891	0.001
891	0
892	0.001
892	0.002
893	0.003
893	0.003
893	0.003
894	0.004
894	0.004
895	0.005
895	0.005
895	0.006
896	0.006
896	0.006
897	0.007
897	0.006
898	0.006
898	0.006
898	0.006
899	0.006
899	0.006
900	0.006
900	0.005
901	0.005
901	0.004
901	0.004
902	0.003
902	0.003
903	0.002
903	0.002
904	0.001
904	-0
904	-0
905	-0.001
905	-0.001
906	-0
906	-0
907	0
907	0.001
907	0.001
908	0.002
908	0.003
909	0.004
909	0.004
910	0.004
910	0.004
910	0.004
911	0.005
911	0.006
912	0.007
912	0.008
913	0.009
913	0.01
913	0.01
914	0.011
914	0.011
915	0.012
915	0.012
916	0.012
916	0.011
916	0.01
917	0.009
917	0.008
918	0.008
918	0.007
918	0.006
919	0.006
919	0.006
920	0.006
920	0.006
921	0.006
921	0.006
921	0.007
922	0.007
922	0.007
923	0.008
923	0.008
924	0.007
924	0.007
924	0.007
925	0.007
925	0.006
926	0.006
926	0.006
927	0.005
927	0.005
927	0.005
928	0.006
928	0.006
929	0.006
929	0.007
930	0.008
930	0.009
930	0.01
931	0.011
931	0.012
932	0.014
932	0.015
933	0.016
933	0.017
933	0.017
934	0.017
934	0.018
935	0.018
935	0.017
935	0.017
936	0.016
936	0.015
937	0.014
937	0.013
938	0.012
938	0.011
938	0.01
939	0.01
939	0.009
940	0.009
940	0.009
941	0.008
941	0.009
941	0.009
942	0.009
942	0.009
943	0.01
943	0.011
944	0.011
944	0.01
944	0.011
945	0.011
945	0.011
946	0.01
946	0.01
946	0.009
947	0.009
947	0.008
948	0.007
948	0.007
949	0.007
949	0.007
949	0.007
950	0.007
950	0.008
951	0.008
951	0.009
952	0.009
952	0.01
952	0.011
953	0.011
953	0.011
954	0.011
954	0.011
955	0.011
955	0.011
955	0.01
956	0.01
956	0.01
957	0.009
957	0.008
957	0.007
958	0.007
958	0.006
959	0.006
959	0.006
960	0.006
960	0.006
960	0.006
961	0.006
961	0.006
962	0.007
962	0.007
963	0.008
963	0.008
963	0.009
964	0.01
964	0.01
965	0.011
965	0.012
966	0.012
966	0.013
966	0.014
967	0.014
967	0.014
968	0.014
968	0.014
968	0.014
969	0.014
969	0.014
970	0.013
970	0.012
971	0.012
971	0.011
971	0.011
972	0.011
972	0.01
973	0.01
973	0.01
974	0.01
974	0.011
974	0.011
975	0.012
975	0.012
976	0.013
976	0.013
976	0.013
977	0.013
977	0.012
978	0.012
978	0.011
979	0.01
979	0.009
979	0.008
980	0.007
980	0.006
981	0.005
981	0.005
982	0.004
982	0.004
982	0.004
983	0.004
983	0.003
984	0.003
984	0.003
984	0.003
985	0.004
985	0.005
986	0.005
986	0.005
987	0.005
987	0.005
987	0.005
988	0.005
988	0.005
989	0.005
989	0.005
990	0.004
990	0.003
990	0.003
991	0.002
991	0.002
992	0.002
992	0.001
992	0.001
993	0.001
993	0.001
994	0.001
994	0.001
995	0.001
995	0.001
995	0.001
996	0.001
996	0.001
997	0
997	0
997	0
998	0
998	0.001
999	0.001
999	0
1000	0
1000	-0
1000	-0
1001	-0
1001	-0
1002	-0
1002	-0
1003	-0.001
1003	-0.001
1003	-0.001
1004	-0.001
1004	-0.002
1005	-0.002
1005	-0.003
1005	-0.003
1006	-0.004
1006	-0.005
1007	-0.005
1007	-0.006
1008	-0.007
1008	-0.008
1008	-0.008
1009	-0.008
1009	-0.008
1010	-0.008
1010	-0.008
1010	-0.008
1011	-0.008
1011	-0.007
1012	-0.007
1012	-0.006
1013	-0.005
1013	-0.004
1013	-0.004
1014	-0.003
1014	-0.002
1015	-0.001
1015	-0.001
1016	0
1016	0.001
1016	0.001
1017	0.001
1017	0.002
1018	0.002
1018	0.002
1018	0.002
1019	0.002
1019	0.001
1020	0.001
1020	0
1021	-0
1021	-0.001
1021	-0.002
1022	-0.003
1022	-0.003
1023	-0.004
1023	-0.005
1023	-0.005
1024	-0.006
1024	-0.007
1025	-0.008
1025	-0.008
1026	-0.009
1026	-0.009
1026	-0.01
1027	-0.011
1027	-0.011
1028	-0.011
1028	-0.011
1028	-0.012
1029	-0.012
1029	-0.012
1030	-0.013
1030	-0.013
1031	-0.013
1031	-0.013
1031	-0.014
1032	-0.014
1032	-0.014
1033	-0.015
1033	-0.015
1033	-0.015
1034	-0.016
1034	-0.016
1035	-0.015
1035	-0.015
1036	-0.015
1036	-0.015
1036	-0.014
1037	-0.014
1037	-0.013
1038	-0.012
1038	-0.011
1039	-0.01
1039	-0.009
1039	-0.008
1040	-0.008
1040	-0.007
1041	-0.007
1041	-0.006
1041	-0.006
1042	-0.007
1042	-0.007
1043	-0.007
1043	-0.008
1044	-0.008
1044	-0.009
1044	-0.01
1045	-0.01
1045	-0.011
1046	-0.011
1046	-0.011
1046	-0.011
1047	-0.012
1047	-0.012
1048	-0.012
1048	-0.012
1049	-0.013
1049	-0.013
1049	-0.014
1050	-0.015
1050	-0.016
1051	-0.016
1051	-0.017
1051	-0.017
1052	-0.018
1052	-0.018
1053	-0.019
1053	-0.018
1053	-0.018
1054	-0.018
1054	-0.018
1055	-0.017
1055	-0.017
1056	-0.017
1056	-0.018
1056	-0.018
1057	-0.018
1057	-0.018
1058	-0.019
1058	-0.019
1058	-0.019
1059	-0.019
1059	-0.019
1060	-0.019
1060	-0.019
1061	-0.019
1061	-0.019
1061	-0.018
1062	-0.018
1062	-0.018
1063	-0.018
1063	-0.018
1063	-0.018
1064	-0.018
1064	-0.017
1065	-0.017
1065	-0.017
1066	-0.017
1066	-0.017
1066	-0.018
1067	-0.018
1067	-0.018
1068	-0.019
1068	-0.019
1068	-0.02
1069	-0.02
1069	-0.021
1070	-0.022
1070	-0.022
1071	-0.023
1071	-0.023
1071	-0.023
1072	-0.023
1072	-0.022
1073	-0.021
1073	-0.021
1073	-0.021
1074	-0.02
1074	-0.02
1075	-0.02
1075	-0.02
1076	-0.021
1076	-0.021
1076	-0.021
1077	-0.022
1077	-0.023
1078	-0.024
1078	-0.025
1078	-0.025
1079	-0.025
1079	-0.025
1080	-0.026
1080	-0.027
1080	-0.028
1081	-0.028
1081	-0.029
1082	-0.029
1082	-0.03
1083	-0.03
1083	-0.031
1083	-0.032
1084	-0.032
1084	-0.033
1085	-0.033
1085	-0.033
1085	-0.033
1086	-0.034
1086	-0.034
1087	-0.034
1087	-0.035
1088	-0.036
1088	-0.036
1088	-0.036
1089	-0.037
1089	-0.037
1090	-0.037
1090	-0.038
1090	-0.039
1091	-0.04
1091	-0.04
1092	-0.04
1092	-0.04
1092	-0.041
1093	-0.041
1093	-0.041
1094	-0.041
1094	-0.042
1095	-0.042
1095	-0.041
1095	-0.042
1096	-0.043
1096	-0.044
1097	-0.044
1097	-0.044
1097	-0.045
1098	-0.046
1098	-0.047
1099	-0.047
1099	-0.048
1100	-0.049
1100	-0.049
1100	-0.051
1101	-0.052
1101	-0.054
1102	-0.054
1102	-0.056
1102	-0.056
1103	-0.058
1103	-0.06
1104	-0.063
1104	-0.064
1104	-0.066
1105	-0.066
1105	-0.068
1106	-0.071
1106	-0.071
1107	-0.072
1107	-0.076
1107	-0.078
1108	-0.079
1108	-0.079
1109	-0.08
1109	-0.081
1109	-0.083
1110	-0.083
1110	-0.084
1111	-0.091
1111	-0.094
