Data from 3.5A_17C_Absorbance__231__00233.txt Node

Date: Tue Jun 20 15:04:37 CEST 2023
User: Marek
Spectrometer: MAYP115816
Trigger mode: 0
Integration Time (sec): 2.200000E-1
Scans to average: 10
Electric dark correction enabled: true
Nonlinearity correction enabled: true
Boxcar width: 5
XAxis mode: Wavelengths
Number of Pixels in Spectrum: 2068
>>>>>Begin Spectral Data<<<<<
199	-0.588
199	-0.561
200	-0.519
200	-0.47
201	-0.443
201	-0.439
202	-0.421
202	-0.414
203	-0.414
203	-0.407
204	-0.388
204	-0.372
205	-0.351
205	-0.344
205	-0.351
206	-0.352
206	-0.345
207	-0.339
207	-0.346
208	-0.345
208	-0.35
209	-0.349
209	-0.359
210	-0.371
210	-0.381
211	-0.376
211	-0.379
212	-0.387
212	-0.393
213	-0.389
213	-0.383
213	-0.381
214	-0.389
214	-0.388
215	-0.385
215	-0.388
216	-0.397
216	-0.404
217	-0.402
217	-0.402
218	-0.41
218	-0.413
219	-0.417
219	-0.417
220	-0.421
220	-0.429
221	-0.429
221	-0.428
221	-0.418
222	-0.42
222	-0.419
223	-0.414
223	-0.417
224	-0.418
224	-0.418
225	-0.414
225	-0.414
226	-0.414
226	-0.415
227	-0.425
227	-0.434
228	-0.439
228	-0.449
229	-0.454
229	-0.452
229	-0.451
230	-0.446
230	-0.445
231	-0.442
231	-0.437
232	-0.435
232	-0.43
233	-0.428
233	-0.416
234	-0.417
234	-0.413
235	-0.416
235	-0.426
236	-0.43
236	-0.431
236	-0.433
237	-0.432
237	-0.435
238	-0.434
238	-0.436
239	-0.436
239	-0.446
240	-0.441
240	-0.439
241	-0.437
241	-0.436
242	-0.436
242	-0.445
243	-0.44
243	-0.444
243	-0.45
244	-0.447
244	-0.448
245	-0.45
245	-0.452
246	-0.461
246	-0.468
247	-0.475
247	-0.462
248	-0.463
248	-0.466
249	-0.47
249	-0.471
250	-0.471
250	-0.478
250	-0.478
251	-0.478
251	-0.474
252	-0.476
252	-0.487
253	-0.481
253	-0.492
254	-0.496
254	-0.496
255	-0.502
255	-0.501
256	-0.5
256	-0.51
257	-0.519
257	-0.516
258	-0.515
258	-0.525
258	-0.522
259	-0.516
259	-0.535
260	-0.534
260	-0.524
261	-0.535
261	-0.524
262	-0.528
262	-0.527
263	-0.519
263	-0.525
264	-0.534
264	-0.535
265	-0.526
265	-0.531
265	-0.539
266	-0.529
266	-0.525
267	-0.524
267	-0.538
268	-0.545
268	-0.539
269	-0.532
269	-0.543
270	-0.547
270	-0.545
271	-0.558
271	-0.57
272	-0.574
272	-0.577
272	-0.572
273	-0.584
273	-0.595
274	-0.587
274	-0.583
275	-0.579
275	-0.566
276	-0.568
276	-0.572
277	-0.573
277	-0.572
278	-0.576
278	-0.573
278	-0.561
279	-0.568
279	-0.582
280	-0.583
280	-0.595
281	-0.59
281	-0.582
282	-0.588
282	-0.579
283	-0.571
283	-0.586
284	-0.599
284	-0.609
285	-0.59
285	-0.597
285	-0.587
286	-0.593
286	-0.608
287	-0.604
287	-0.605
288	-0.605
288	-0.585
289	-0.585
289	-0.591
290	-0.598
290	-0.586
291	-0.589
291	-0.586
292	-0.567
292	-0.564
292	-0.566
293	-0.553
293	-0.55
294	-0.549
294	-0.535
295	-0.519
295	-0.532
296	-0.545
296	-0.543
297	-0.531
297	-0.537
298	-0.533
298	-0.552
298	-0.555
299	-0.538
299	-0.531
300	-0.524
300	-0.504
301	-0.485
301	-0.486
302	-0.494
302	-0.479
303	-0.474
303	-0.462
304	-0.448
304	-0.449
305	-0.443
305	-0.456
305	-0.469
306	-0.456
306	-0.456
307	-0.45
307	-0.463
308	-0.467
308	-0.461
309	-0.463
309	-0.459
310	-0.457
310	-0.452
311	-0.44
311	-0.456
311	-0.443
312	-0.441
312	-0.427
313	-0.418
313	-0.419
314	-0.422
314	-0.422
315	-0.42
315	-0.412
316	-0.406
316	-0.398
317	-0.388
317	-0.386
318	-0.378
318	-0.378
318	-0.369
319	-0.359
319	-0.35
320	-0.349
320	-0.35
321	-0.347
321	-0.347
322	-0.342
322	-0.334
323	-0.337
323	-0.326
324	-0.324
324	-0.314
324	-0.305
325	-0.289
325	-0.269
326	-0.261
326	-0.236
327	-0.225
327	-0.205
328	-0.175
328	-0.155
329	-0.129
329	-0.104
330	-0.079
330	-0.048
330	-0.017
331	0.016
331	0.045
332	0.075
332	0.104
333	0.13
333	0.159
334	0.183
334	0.204
335	0.227
335	0.245
336	0.262
336	0.279
336	0.292
337	0.305
337	0.318
338	0.328
338	0.335
339	0.346
339	0.354
340	0.36
340	0.366
341	0.37
341	0.374
342	0.38
342	0.384
342	0.387
343	0.389
343	0.393
344	0.395
344	0.397
345	0.399
345	0.401
346	0.403
346	0.404
347	0.405
347	0.406
348	0.407
348	0.408
348	0.408
349	0.409
349	0.409
350	0.41
350	0.41
351	0.41
351	0.41
352	0.41
352	0.41
353	0.411
353	0.411
354	0.411
354	0.411
354	0.411
355	0.411
355	0.411
356	0.411
356	0.411
357	0.412
357	0.411
358	0.411
358	0.411
359	0.411
359	0.41
360	0.41
360	0.41
360	0.41
361	0.409
361	0.409
362	0.408
362	0.408
363	0.408
363	0.408
364	0.408
364	0.407
365	0.407
365	0.407
366	0.407
366	0.406
366	0.406
367	0.406
367	0.406
368	0.405
368	0.405
369	0.404
369	0.404
370	0.403
370	0.403
371	0.402
371	0.402
372	0.401
372	0.401
372	0.401
373	0.401
373	0.4
374	0.4
374	0.399
375	0.399
375	0.398
376	0.398
376	0.398
377	0.397
377	0.397
378	0.396
378	0.396
378	0.395
379	0.395
379	0.395
380	0.394
380	0.394
381	0.394
381	0.393
382	0.393
382	0.392
383	0.392
383	0.392
383	0.391
384	0.391
384	0.39
385	0.389
385	0.389
386	0.388
386	0.388
387	0.388
387	0.387
388	0.387
388	0.387
389	0.386
389	0.386
389	0.385
390	0.385
390	0.385
391	0.384
391	0.384
392	0.383
392	0.383
393	0.382
393	0.382
394	0.381
394	0.381
394	0.38
395	0.38
395	0.379
396	0.379
396	0.378
397	0.378
397	0.378
398	0.377
398	0.377
399	0.376
399	0.376
400	0.375
400	0.375
400	0.375
401	0.374
401	0.373
402	0.373
402	0.373
403	0.372
403	0.372
404	0.371
404	0.371
405	0.371
405	0.37
405	0.369
406	0.369
406	0.369
407	0.368
407	0.368
408	0.368
408	0.367
409	0.367
409	0.367
410	0.367
410	0.367
411	0.366
411	0.366
411	0.366
412	0.365
412	0.365
413	0.364
413	0.364
414	0.364
414	0.363
415	0.363
415	0.363
416	0.363
416	0.362
416	0.362
417	0.362
417	0.361
418	0.361
418	0.361
419	0.361
419	0.361
420	0.361
420	0.361
421	0.36
421	0.36
421	0.36
422	0.36
422	0.36
423	0.36
423	0.36
424	0.359
424	0.359
425	0.359
425	0.359
426	0.359
426	0.359
427	0.359
427	0.358
427	0.358
428	0.358
428	0.358
429	0.357
429	0.357
430	0.356
430	0.356
431	0.356
431	0.356
432	0.355
432	0.356
432	0.355
433	0.355
433	0.355
434	0.355
434	0.356
435	0.356
435	0.356
436	0.355
436	0.355
437	0.355
437	0.355
437	0.355
438	0.355
438	0.355
439	0.355
439	0.355
440	0.355
440	0.355
441	0.355
441	0.355
442	0.355
442	0.355
442	0.355
443	0.355
443	0.355
444	0.355
444	0.355
445	0.355
445	0.355
446	0.355
446	0.355
447	0.355
447	0.355
447	0.355
448	0.355
448	0.356
449	0.356
449	0.356
450	0.356
450	0.356
451	0.357
451	0.357
452	0.356
452	0.357
452	0.357
453	0.357
453	0.357
454	0.357
454	0.357
455	0.358
455	0.358
456	0.359
456	0.359
457	0.359
457	0.359
458	0.359
458	0.36
458	0.36
459	0.36
459	0.36
460	0.36
460	0.36
461	0.36
461	0.361
462	0.361
462	0.362
463	0.363
463	0.364
463	0.364
464	0.365
464	0.365
465	0.366
465	0.367
466	0.367
466	0.368
467	0.369
467	0.369
467	0.369
468	0.37
468	0.37
469	0.371
469	0.372
470	0.373
470	0.374
471	0.374
471	0.375
472	0.376
472	0.377
472	0.378
473	0.379
473	0.38
474	0.381
474	0.382
475	0.383
475	0.384
476	0.385
476	0.386
477	0.388
477	0.389
477	0.39
478	0.391
478	0.392
479	0.394
479	0.395
480	0.397
480	0.398
481	0.4
481	0.401
482	0.403
482	0.405
482	0.407
483	0.409
483	0.412
484	0.414
484	0.415
485	0.417
485	0.419
486	0.421
486	0.423
487	0.424
487	0.426
487	0.428
488	0.43
488	0.432
489	0.434
489	0.437
490	0.439
490	0.442
491	0.444
491	0.447
492	0.45
492	0.452
492	0.455
493	0.457
493	0.46
494	0.463
494	0.467
495	0.469
495	0.472
496	0.475
496	0.478
496	0.482
497	0.485
497	0.488
498	0.492
498	0.495
499	0.498
499	0.502
500	0.506
500	0.51
501	0.514
501	0.517
501	0.52
502	0.523
502	0.527
503	0.53
503	0.534
504	0.537
504	0.541
505	0.544
505	0.548
506	0.552
506	0.556
506	0.56
507	0.564
507	0.568
508	0.572
508	0.576
509	0.58
509	0.584
510	0.588
510	0.592
511	0.596
511	0.6
511	0.603
512	0.607
512	0.61
513	0.613
513	0.616
514	0.62
514	0.623
515	0.626
515	0.629
515	0.632
516	0.635
516	0.638
517	0.641
517	0.643
518	0.646
518	0.648
519	0.65
519	0.652
520	0.654
520	0.656
520	0.658
521	0.66
521	0.661
522	0.663
522	0.664
523	0.666
523	0.667
524	0.668
524	0.669
524	0.67
525	0.67
525	0.671
526	0.672
526	0.672
527	0.673
527	0.673
528	0.672
528	0.672
529	0.672
529	0.671
529	0.67
530	0.669
530	0.668
531	0.667
531	0.666
532	0.664
532	0.662
533	0.661
533	0.659
533	0.657
534	0.654
534	0.652
535	0.649
535	0.647
536	0.644
536	0.641
537	0.638
537	0.635
538	0.632
538	0.629
538	0.626
539	0.623
539	0.619
540	0.616
540	0.612
541	0.608
541	0.605
542	0.601
542	0.596
542	0.591
543	0.587
543	0.582
544	0.578
544	0.573
545	0.568
545	0.564
546	0.559
546	0.553
547	0.548
547	0.543
547	0.538
548	0.533
548	0.528
549	0.523
549	0.518
550	0.513
550	0.508
551	0.502
551	0.497
551	0.491
552	0.486
552	0.481
553	0.476
553	0.471
554	0.465
554	0.46
555	0.454
555	0.449
556	0.443
556	0.438
556	0.432
557	0.427
557	0.422
558	0.417
558	0.411
559	0.406
559	0.401
560	0.396
560	0.391
560	0.387
561	0.383
561	0.379
562	0.374
562	0.37
563	0.366
563	0.361
564	0.357
564	0.353
564	0.348
565	0.344
565	0.34
566	0.335
566	0.331
567	0.327
567	0.323
568	0.318
568	0.314
568	0.309
569	0.305
569	0.3
570	0.295
570	0.291
571	0.287
571	0.283
572	0.279
572	0.275
573	0.271
573	0.267
573	0.263
574	0.26
574	0.257
575	0.254
575	0.252
576	0.248
576	0.244
577	0.241
577	0.238
577	0.236
578	0.234
578	0.232
579	0.23
579	0.227
580	0.224
580	0.22
581	0.217
581	0.214
581	0.212
582	0.211
582	0.208
583	0.205
583	0.202
584	0.198
584	0.194
585	0.191
585	0.189
585	0.186
586	0.183
586	0.181
587	0.178
587	0.176
588	0.173
588	0.171
589	0.17
589	0.168
590	0.166
590	0.165
590	0.164
591	0.162
591	0.16
592	0.158
592	0.156
593	0.155
593	0.153
594	0.151
594	0.149
594	0.148
595	0.147
595	0.144
596	0.143
596	0.142
597	0.141
597	0.139
598	0.138
598	0.136
598	0.135
599	0.134
599	0.132
600	0.131
600	0.13
601	0.129
601	0.128
602	0.126
602	0.125
602	0.124
603	0.123
603	0.122
604	0.121
604	0.12
605	0.119
605	0.118
606	0.117
606	0.115
606	0.113
607	0.112
607	0.111
608	0.11
608	0.108
609	0.107
609	0.106
610	0.104
610	0.103
610	0.102
611	0.101
611	0.1
612	0.099
612	0.099
613	0.098
613	0.098
614	0.097
614	0.095
614	0.095
615	0.094
615	0.093
616	0.092
616	0.091
617	0.091
617	0.089
618	0.088
618	0.087
618	0.087
619	0.087
619	0.087
620	0.087
620	0.086
621	0.085
621	0.085
622	0.084
622	0.083
622	0.082
623	0.081
623	0.08
624	0.08
624	0.079
625	0.078
625	0.078
626	0.077
626	0.076
626	0.076
627	0.076
627	0.075
628	0.074
628	0.073
629	0.072
629	0.071
630	0.07
630	0.07
630	0.069
631	0.068
631	0.067
632	0.067
632	0.066
633	0.066
633	0.065
634	0.065
634	0.064
634	0.064
635	0.062
635	0.061
636	0.06
636	0.06
637	0.059
637	0.057
638	0.057
638	0.056
638	0.054
639	0.053
639	0.052
640	0.051
640	0.05
641	0.049
641	0.048
642	0.047
642	0.047
642	0.046
643	0.045
643	0.044
644	0.043
644	0.042
645	0.041
645	0.04
646	0.039
646	0.037
646	0.034
647	0.032
647	0.03
648	0.027
648	0.025
649	0.022
649	0.02
650	0.018
650	0.015
650	0.012
651	0.009
651	0.005
652	0
652	-0.005
653	-0.009
653	-0.013
653	-0.009
654	-0.004
654	-0.006
655	-0.009
655	-0.011
656	-0.014
656	-0.017
657	-0.019
657	-0.022
657	-0.025
658	-0.029
658	-0.044
659	-0.081
659	-0.117
660	-0.134
660	-0.149
661	-0.164
661	-0.178
661	-0.196
662	-0.21
662	-0.225
663	-0.241
663	-0.26
664	-0.276
664	-0.296
665	-0.316
665	-0.337
665	-0.356
666	-0.379
666	-0.404
667	-0.43
667	-0.461
668	-0.494
668	-0.536
669	-0.58
669	-0.628
669	-0.684
670	-0.752
670	-0.888
671	-1.175
671	-1.557
672	-1.967
672	-2.264
672	-2.444
673	-2.522
673	-2.542
674	-2.559
674	-2.567
675	-2.582
675	-2.587
676	-2.584
676	-2.555
676	-2.467
677	-2.275
677	-1.912
678	-1.332
678	-0.983
679	-0.867
679	-0.8
680	-0.753
680	-0.722
680	-0.694
681	-0.68
681	-0.657
682	-0.641
682	-0.618
683	-0.596
683	-0.596
684	-0.586
684	-0.584
684	-0.575
685	-0.569
685	-0.57
686	-0.558
686	-0.554
687	-0.555
687	-0.556
687	-0.566
688	-0.558
688	-0.559
689	-0.57
689	-0.573
690	-0.568
690	-0.565
691	-0.57
691	-0.576
691	-0.579
692	-0.579
692	-0.576
693	-0.586
693	-0.598
694	-0.581
694	-0.582
695	-0.586
695	-0.582
695	-0.589
696	-0.6
696	-0.597
697	-0.595
697	-0.595
698	-0.589
698	-0.584
698	-0.598
699	-0.596
699	-0.597
700	-0.619
700	-0.615
701	-0.601
701	-0.597
702	-0.597
702	-0.596
702	-0.6
703	-0.592
703	-0.582
704	-0.593
704	-0.597
705	-0.585
705	-0.586
705	-0.585
706	-0.58
706	-0.575
707	-0.589
707	-0.589
708	-0.589
708	-0.587
709	-0.587
709	-0.585
709	-0.58
710	-0.59
710	-0.592
711	-0.592
711	-0.594
712	-0.586
712	-0.588
713	-0.592
713	-0.593
713	-0.574
714	-0.578
714	-0.584
715	-0.576
715	-0.581
716	-0.596
716	-0.607
716	-0.608
717	-0.612
717	-0.603
718	-0.599
718	-0.6
719	-0.595
719	-0.587
720	-0.581
720	-0.578
720	-0.573
721	-0.561
721	-0.564
722	-0.563
722	-0.561
723	-0.577
723	-0.59
723	-0.598
724	-0.597
724	-0.601
725	-0.597
725	-0.603
726	-0.609
726	-0.601
727	-0.601
727	-0.609
727	-0.599
728	-0.585
728	-0.583
729	-0.585
729	-0.589
730	-0.594
730	-0.583
730	-0.588
731	-0.592
731	-0.593
732	-0.597
732	-0.593
733	-0.61
733	-0.615
734	-0.624
734	-0.614
734	-0.598
735	-0.588
735	-0.582
736	-0.579
736	-0.574
737	-0.569
737	-0.559
737	-0.551
738	-0.537
738	-0.525
739	-0.531
739	-0.533
740	-0.549
740	-0.549
741	-0.56
741	-0.572
741	-0.58
742	-0.589
742	-0.601
743	-0.608
743	-0.612
744	-0.614
744	-0.621
744	-0.615
745	-0.624
745	-0.612
746	-0.607
746	-0.6
747	-0.601
747	-0.596
748	-0.599
748	-0.603
748	-0.603
749	-0.597
749	-0.604
750	-0.597
750	-0.6
751	-0.6
751	-0.598
751	-0.61
752	-0.613
752	-0.615
753	-0.615
753	-0.609
754	-0.625
754	-0.624
754	-0.63
755	-0.63
755	-0.623
756	-0.624
756	-0.608
757	-0.6
757	-0.589
758	-0.588
758	-0.588
758	-0.584
759	-0.587
759	-0.588
760	-0.586
760	-0.588
761	-0.581
761	-0.587
761	-0.587
762	-0.597
762	-0.599
763	-0.6
763	-0.607
764	-0.608
764	-0.601
764	-0.606
765	-0.604
765	-0.611
766	-0.615
766	-0.615
767	-0.628
767	-0.623
768	-0.62
768	-0.608
768	-0.602
769	-0.606
769	-0.613
770	-0.625
770	-0.63
771	-0.624
771	-0.625
771	-0.631
772	-0.634
772	-0.654
773	-0.655
773	-0.657
774	-0.655
774	-0.638
775	-0.621
775	-0.62
775	-0.628
776	-0.636
776	-0.631
777	-0.63
777	-0.616
778	-0.627
778	-0.634
778	-0.637
779	-0.643
779	-0.659
780	-0.657
780	-0.661
781	-0.652
781	-0.641
781	-0.656
782	-0.672
782	-0.672
783	-0.67
783	-0.678
784	-0.685
784	-0.679
784	-0.698
785	-0.69
785	-0.704
786	-0.708
786	-0.701
787	-0.691
787	-0.698
788	-0.693
788	-0.683
788	-0.682
789	-0.683
789	-0.669
790	-0.67
790	-0.654
791	-0.662
791	-0.66
791	-0.655
792	-0.649
792	-0.653
793	-0.658
793	-0.647
794	-0.638
794	-0.635
794	-0.643
795	-0.661
795	-0.65
796	-0.652
796	-0.647
797	-0.642
797	-0.633
797	-0.625
798	-0.646
798	-0.655
799	-0.655
799	-0.64
800	-0.638
800	-0.643
801	-0.642
801	-0.649
801	-0.645
802	-0.645
802	-0.645
803	-0.641
803	-0.63
804	-0.637
804	-0.645
804	-0.631
805	-0.614
805	-0.606
806	-0.607
806	-0.602
807	-0.605
807	-0.605
807	-0.586
808	-0.583
808	-0.576
809	-0.572
809	-0.57
810	-0.577
810	-0.575
810	-0.571
811	-0.577
811	-0.567
812	-0.562
812	-0.565
813	-0.57
813	-0.57
813	-0.566
814	-0.568
814	-0.569
815	-0.56
815	-0.554
816	-0.548
816	-0.564
817	-0.574
817	-0.579
817	-0.589
818	-0.582
818	-0.579
819	-0.588
819	-0.59
820	-0.601
820	-0.602
820	-0.602
821	-0.599
821	-0.595
822	-0.595
822	-0.584
823	-0.593
823	-0.593
823	-0.587
824	-0.585
824	-0.594
825	-0.592
825	-0.592
826	-0.588
826	-0.584
826	-0.581
827	-0.579
827	-0.573
828	-0.571
828	-0.568
829	-0.563
829	-0.548
829	-0.545
830	-0.543
830	-0.529
831	-0.524
831	-0.517
832	-0.51
832	-0.504
832	-0.5
833	-0.499
833	-0.505
834	-0.502
834	-0.499
835	-0.492
835	-0.492
835	-0.488
836	-0.485
836	-0.482
837	-0.475
837	-0.466
838	-0.455
838	-0.439
839	-0.435
839	-0.425
839	-0.417
840	-0.417
840	-0.406
841	-0.397
841	-0.391
842	-0.383
842	-0.375
842	-0.373
843	-0.371
843	-0.368
844	-0.365
844	-0.356
845	-0.345
845	-0.34
845	-0.333
846	-0.322
846	-0.314
847	-0.305
847	-0.294
848	-0.283
848	-0.267
848	-0.259
849	-0.251
849	-0.242
850	-0.235
850	-0.226
851	-0.217
851	-0.207
851	-0.201
852	-0.192
852	-0.183
853	-0.178
853	-0.17
854	-0.161
854	-0.154
854	-0.146
855	-0.139
855	-0.134
856	-0.129
856	-0.124
857	-0.119
857	-0.114
857	-0.106
858	-0.1
858	-0.096
859	-0.09
859	-0.082
860	-0.076
860	-0.067
860	-0.062
861	-0.056
861	-0.05
862	-0.046
862	-0.042
863	-0.038
863	-0.032
863	-0.03
864	-0.026
864	-0.022
865	-0.019
865	-0.015
866	-0.012
866	-0.009
866	-0.006
867	-0.004
867	0
868	0.002
868	0.005
869	0.008
869	0.011
869	0.012
870	0.014
870	0.016
871	0.017
871	0.018
872	0.018
872	0.018
872	0.018
873	0.018
873	0.018
874	0.017
874	0.017
875	0.016
875	0.015
875	0.015
876	0.014
876	0.014
877	0.013
877	0.012
878	0.011
878	0.01
878	0.01
879	0.009
879	0.008
880	0.008
880	0.007
881	0.007
881	0.007
881	0.007
882	0.007
882	0.007
883	0.007
883	0.006
884	0.006
884	0.006
884	0.006
885	0.005
885	0.005
886	0.004
886	0.003
887	0.002
887	0
887	-0.001
888	-0.001
888	-0.002
889	-0.003
889	-0.003
890	-0.004
890	-0.004
890	-0.005
891	-0.004
891	-0.004
892	-0.003
892	-0.002
893	-0.001
893	-0.001
893	-0.001
894	-0.001
894	-0
895	-0
895	-0
895	0
896	0.001
896	0.001
897	0.001
897	0.001
898	0.001
898	0.002
898	0.002
899	0.002
899	0.003
900	0.003
900	0.003
901	0.003
901	0.002
901	0.002
902	0.002
902	0.002
903	0.002
903	0.001
904	0.001
904	0
904	0
905	-0
905	-0
906	0
906	0
907	0.001
907	0.001
907	0.002
908	0.002
908	0.003
909	0.004
909	0.004
910	0.005
910	0.005
910	0.005
911	0.006
911	0.007
912	0.008
912	0.009
913	0.01
913	0.011
913	0.012
914	0.013
914	0.014
915	0.014
915	0.014
916	0.013
916	0.012
916	0.012
917	0.011
917	0.01
918	0.009
918	0.008
918	0.008
919	0.007
919	0.007
920	0.007
920	0.007
921	0.008
921	0.008
921	0.008
922	0.008
922	0.009
923	0.008
923	0.008
924	0.008
924	0.008
924	0.008
925	0.007
925	0.007
926	0.006
926	0.006
927	0.006
927	0.006
927	0.006
928	0.006
928	0.006
929	0.007
929	0.007
930	0.008
930	0.009
930	0.011
931	0.012
931	0.013
932	0.014
932	0.015
933	0.016
933	0.017
933	0.018
934	0.018
934	0.018
935	0.018
935	0.018
935	0.017
936	0.016
936	0.015
937	0.013
937	0.012
938	0.011
938	0.01
938	0.008
939	0.007
939	0.007
940	0.006
940	0.006
941	0.005
941	0.005
941	0.005
942	0.005
942	0.005
943	0.005
943	0.006
944	0.006
944	0.005
944	0.005
945	0.006
945	0.006
946	0.005
946	0.004
946	0.004
947	0.003
947	0.002
948	0.002
948	0.001
949	0.001
949	0
949	0
950	-0
950	0
951	0.001
951	0.001
952	0.002
952	0.003
952	0.003
953	0.004
953	0.004
954	0.005
954	0.005
955	0.005
955	0.005
955	0.005
956	0.005
956	0.004
957	0.004
957	0.003
957	0.002
958	0.002
958	0.002
959	0.001
959	0.001
960	0.001
960	0.001
960	0.001
961	0.001
961	0.001
962	0.001
962	0.002
963	0.002
963	0.002
963	0.002
964	0.002
964	0.003
965	0.003
965	0.004
966	0.004
966	0.005
966	0.006
967	0.006
967	0.007
968	0.007
968	0.007
968	0.007
969	0.006
969	0.006
970	0.005
970	0.004
971	0.003
971	0.002
971	0.002
972	0.002
972	0.001
973	0.001
973	0.001
974	0.002
974	0.002
974	0.003
975	0.004
975	0.005
976	0.006
976	0.007
976	0.007
977	0.007
977	0.007
978	0.007
978	0.006
979	0.006
979	0.006
979	0.005
980	0.004
980	0.003
981	0.003
981	0.002
982	0.002
982	0.002
982	0.002
983	0.002
983	0.002
984	0.002
984	0.001
984	0.002
985	0.002
985	0.002
986	0.002
986	0.002
987	0.002
987	0.002
987	0.002
988	0.002
988	0.002
989	0.002
989	0.001
990	0.001
990	-0
990	-0.001
991	-0.001
991	-0.001
992	-0.001
992	-0.001
992	-0.002
993	-0.002
993	-0.002
994	-0.003
994	-0.003
995	-0.003
995	-0.003
995	-0.003
996	-0.003
996	-0.004
997	-0.004
997	-0.004
997	-0.003
998	-0.003
998	-0.002
999	-0.002
999	-0.002
1000	-0.002
1000	-0.002
1000	-0.002
1001	-0.002
1001	-0.001
1002	-0.001
1002	-0.001
1003	-0.001
1003	-0.001
1003	-0.001
1004	-0.002
1004	-0.003
1005	-0.003
1005	-0.004
1005	-0.005
1006	-0.006
1006	-0.007
1007	-0.008
1007	-0.009
1008	-0.009
1008	-0.01
1008	-0.011
1009	-0.011
1009	-0.011
1010	-0.01
1010	-0.01
1010	-0.01
1011	-0.009
1011	-0.009
1012	-0.008
1012	-0.007
1013	-0.006
1013	-0.006
1013	-0.005
1014	-0.005
1014	-0.004
1015	-0.003
1015	-0.003
1016	-0.002
1016	-0.002
1016	-0.002
1017	-0.001
1017	-0.001
1018	-0.001
1018	-0.001
1018	-0.001
1019	-0.001
1019	-0.001
1020	-0.002
1020	-0.002
1021	-0.002
1021	-0.003
1021	-0.004
1022	-0.004
1022	-0.005
1023	-0.006
1023	-0.007
1023	-0.007
1024	-0.008
1024	-0.009
1025	-0.01
1025	-0.011
1026	-0.012
1026	-0.012
1026	-0.013
1027	-0.013
1027	-0.014
1028	-0.014
1028	-0.014
1028	-0.014
1029	-0.014
1029	-0.014
1030	-0.015
1030	-0.015
1031	-0.015
1031	-0.015
1031	-0.015
1032	-0.015
1032	-0.015
1033	-0.016
1033	-0.016
1033	-0.016
1034	-0.016
1034	-0.016
1035	-0.016
1035	-0.016
1036	-0.016
1036	-0.016
1036	-0.015
1037	-0.015
1037	-0.014
1038	-0.013
1038	-0.012
1039	-0.011
1039	-0.011
1039	-0.01
1040	-0.01
1040	-0.009
1041	-0.009
1041	-0.009
1041	-0.009
1042	-0.01
1042	-0.011
1043	-0.012
1043	-0.013
1044	-0.013
1044	-0.014
1044	-0.015
1045	-0.016
1045	-0.017
1046	-0.017
1046	-0.018
1046	-0.018
1047	-0.018
1047	-0.018
1048	-0.017
1048	-0.018
1049	-0.018
1049	-0.018
1049	-0.019
1050	-0.019
1050	-0.02
1051	-0.021
1051	-0.022
1051	-0.022
1052	-0.023
1052	-0.024
1053	-0.024
1053	-0.024
1053	-0.024
1054	-0.024
1054	-0.024
1055	-0.023
1055	-0.023
1056	-0.023
1056	-0.023
1056	-0.023
1057	-0.024
1057	-0.024
1058	-0.024
1058	-0.025
1058	-0.025
1059	-0.025
1059	-0.025
1060	-0.026
1060	-0.025
1061	-0.025
1061	-0.025
1061	-0.024
1062	-0.024
1062	-0.024
1063	-0.024
1063	-0.024
1063	-0.024
1064	-0.024
1064	-0.024
1065	-0.024
1065	-0.024
1066	-0.025
1066	-0.025
1066	-0.025
1067	-0.025
1067	-0.026
1068	-0.026
1068	-0.027
1068	-0.027
1069	-0.028
1069	-0.028
1070	-0.029
1070	-0.029
1071	-0.029
1071	-0.03
1071	-0.03
1072	-0.03
1072	-0.03
1073	-0.029
1073	-0.029
1073	-0.029
1074	-0.028
1074	-0.028
1075	-0.028
1075	-0.028
1076	-0.028
1076	-0.028
1076	-0.029
1077	-0.029
1077	-0.03
1078	-0.03
1078	-0.031
1078	-0.031
1079	-0.031
1079	-0.031
1080	-0.032
1080	-0.033
1080	-0.033
1081	-0.034
1081	-0.034
1082	-0.034
1082	-0.035
1083	-0.036
1083	-0.036
1083	-0.037
1084	-0.038
1084	-0.038
1085	-0.038
1085	-0.038
1085	-0.038
1086	-0.039
1086	-0.039
1087	-0.04
1087	-0.04
1088	-0.041
1088	-0.042
1088	-0.043
1089	-0.044
1089	-0.044
1090	-0.045
1090	-0.045
1090	-0.046
1091	-0.047
1091	-0.047
1092	-0.048
1092	-0.047
1092	-0.048
1093	-0.048
1093	-0.048
1094	-0.048
1094	-0.049
1095	-0.049
1095	-0.05
1095	-0.05
1096	-0.051
1096	-0.053
1097	-0.054
1097	-0.055
1097	-0.056
1098	-0.057
1098	-0.058
1099	-0.059
1099	-0.06
1100	-0.061
1100	-0.063
1100	-0.065
1101	-0.066
1101	-0.068
1102	-0.07
1102	-0.072
1102	-0.073
1103	-0.074
1103	-0.076
1104	-0.079
1104	-0.081
1104	-0.082
1105	-0.082
1105	-0.085
1106	-0.088
1106	-0.088
1107	-0.092
1107	-0.095
1107	-0.098
1108	-0.1
1108	-0.101
1109	-0.102
1109	-0.104
1109	-0.108
1110	-0.109
1110	-0.112
1111	-0.119
1111	-0.114
