Data from 3.5A_17C_Absorbance__468__00470.txt Node

Date: Tue Jun 20 15:13:19 CEST 2023
User: Marek
Spectrometer: MAYP115816
Trigger mode: 0
Integration Time (sec): 2.200000E-1
Scans to average: 10
Electric dark correction enabled: true
Nonlinearity correction enabled: true
Boxcar width: 5
XAxis mode: Wavelengths
Number of Pixels in Spectrum: 2068
>>>>>Begin Spectral Data<<<<<
199	-0.666
199	-0.648
200	-0.608
200	-0.556
201	-0.527
201	-0.523
202	-0.504
202	-0.495
203	-0.496
203	-0.487
204	-0.467
204	-0.452
205	-0.429
205	-0.419
205	-0.428
206	-0.43
206	-0.424
207	-0.417
207	-0.423
208	-0.42
208	-0.425
209	-0.425
209	-0.432
210	-0.445
210	-0.453
211	-0.447
211	-0.451
212	-0.457
212	-0.465
213	-0.463
213	-0.461
213	-0.459
214	-0.468
214	-0.469
215	-0.466
215	-0.47
216	-0.48
216	-0.486
217	-0.485
217	-0.485
218	-0.49
218	-0.492
219	-0.5
219	-0.5
220	-0.503
220	-0.51
221	-0.508
221	-0.508
221	-0.498
222	-0.499
222	-0.499
223	-0.497
223	-0.499
224	-0.499
224	-0.499
225	-0.499
225	-0.498
226	-0.5
226	-0.5
227	-0.51
227	-0.518
228	-0.52
228	-0.528
229	-0.533
229	-0.532
229	-0.532
230	-0.525
230	-0.525
231	-0.523
231	-0.517
232	-0.517
232	-0.513
233	-0.512
233	-0.5
234	-0.502
234	-0.495
235	-0.501
235	-0.511
236	-0.517
236	-0.519
236	-0.517
237	-0.516
237	-0.519
238	-0.52
238	-0.521
239	-0.521
239	-0.53
240	-0.52
240	-0.513
241	-0.508
241	-0.511
242	-0.513
242	-0.523
243	-0.519
243	-0.521
243	-0.526
244	-0.523
244	-0.526
245	-0.529
245	-0.537
246	-0.548
246	-0.551
247	-0.561
247	-0.546
248	-0.546
248	-0.547
249	-0.553
249	-0.555
250	-0.552
250	-0.561
250	-0.556
251	-0.554
251	-0.55
252	-0.552
252	-0.563
253	-0.559
253	-0.571
254	-0.576
254	-0.577
255	-0.586
255	-0.585
256	-0.588
256	-0.602
257	-0.61
257	-0.605
258	-0.606
258	-0.613
258	-0.608
259	-0.6
259	-0.617
260	-0.617
260	-0.604
261	-0.613
261	-0.6
262	-0.605
262	-0.605
263	-0.595
263	-0.601
264	-0.612
264	-0.614
265	-0.607
265	-0.61
265	-0.62
266	-0.612
266	-0.61
267	-0.609
267	-0.622
268	-0.632
268	-0.625
269	-0.618
269	-0.631
270	-0.632
270	-0.631
271	-0.644
271	-0.655
272	-0.654
272	-0.655
272	-0.65
273	-0.659
273	-0.672
274	-0.664
274	-0.658
275	-0.655
275	-0.642
276	-0.647
276	-0.65
277	-0.654
277	-0.651
278	-0.657
278	-0.657
278	-0.646
279	-0.655
279	-0.667
280	-0.669
280	-0.682
281	-0.673
281	-0.665
282	-0.672
282	-0.668
283	-0.66
283	-0.672
284	-0.685
284	-0.694
285	-0.674
285	-0.68
285	-0.671
286	-0.676
286	-0.693
287	-0.69
287	-0.688
288	-0.687
288	-0.67
289	-0.67
289	-0.677
290	-0.687
290	-0.676
291	-0.681
291	-0.68
292	-0.662
292	-0.66
292	-0.664
293	-0.652
293	-0.651
294	-0.65
294	-0.64
295	-0.625
295	-0.637
296	-0.647
296	-0.64
297	-0.628
297	-0.633
298	-0.628
298	-0.646
298	-0.649
299	-0.631
299	-0.62
300	-0.615
300	-0.598
301	-0.578
301	-0.584
302	-0.593
302	-0.577
303	-0.572
303	-0.559
304	-0.542
304	-0.545
305	-0.537
305	-0.545
305	-0.559
306	-0.545
306	-0.54
307	-0.534
307	-0.545
308	-0.548
308	-0.544
309	-0.547
309	-0.543
310	-0.542
310	-0.537
311	-0.521
311	-0.541
311	-0.53
312	-0.527
312	-0.516
313	-0.505
313	-0.507
314	-0.511
314	-0.507
315	-0.504
315	-0.498
316	-0.494
316	-0.483
317	-0.477
317	-0.473
318	-0.464
318	-0.463
318	-0.454
319	-0.442
319	-0.435
320	-0.433
320	-0.431
321	-0.424
321	-0.423
322	-0.414
322	-0.406
323	-0.408
323	-0.4
324	-0.396
324	-0.385
324	-0.376
325	-0.362
325	-0.345
326	-0.337
326	-0.312
327	-0.301
327	-0.28
328	-0.25
328	-0.227
329	-0.202
329	-0.177
330	-0.15
330	-0.116
330	-0.082
331	-0.048
331	-0.017
332	0.014
332	0.045
333	0.074
333	0.106
334	0.134
334	0.157
335	0.183
335	0.203
336	0.221
336	0.24
336	0.255
337	0.271
337	0.286
338	0.298
338	0.305
339	0.317
339	0.327
340	0.333
340	0.341
341	0.347
341	0.352
342	0.359
342	0.364
342	0.367
343	0.37
343	0.375
344	0.377
344	0.379
345	0.382
345	0.384
346	0.385
346	0.387
347	0.388
347	0.389
348	0.39
348	0.391
348	0.392
349	0.392
349	0.393
350	0.394
350	0.394
351	0.395
351	0.395
352	0.395
352	0.395
353	0.396
353	0.396
354	0.396
354	0.396
354	0.396
355	0.396
355	0.395
356	0.395
356	0.396
357	0.395
357	0.395
358	0.395
358	0.395
359	0.395
359	0.394
360	0.394
360	0.394
360	0.394
361	0.394
361	0.393
362	0.394
362	0.393
363	0.393
363	0.393
364	0.393
364	0.392
365	0.392
365	0.392
366	0.392
366	0.391
366	0.391
367	0.391
367	0.391
368	0.39
368	0.39
369	0.389
369	0.389
370	0.389
370	0.388
371	0.388
371	0.388
372	0.388
372	0.387
372	0.387
373	0.387
373	0.386
374	0.386
374	0.386
375	0.386
375	0.385
376	0.385
376	0.384
377	0.384
377	0.384
378	0.383
378	0.382
378	0.382
379	0.382
379	0.381
380	0.381
380	0.381
381	0.38
381	0.38
382	0.38
382	0.379
383	0.379
383	0.378
383	0.378
384	0.378
384	0.377
385	0.377
385	0.376
386	0.376
386	0.375
387	0.375
387	0.374
388	0.374
388	0.374
389	0.373
389	0.373
389	0.373
390	0.372
390	0.372
391	0.372
391	0.371
392	0.371
392	0.371
393	0.37
393	0.37
394	0.369
394	0.369
394	0.368
395	0.368
395	0.367
396	0.367
396	0.366
397	0.366
397	0.365
398	0.365
398	0.364
399	0.364
399	0.363
400	0.363
400	0.363
400	0.363
401	0.362
401	0.362
402	0.361
402	0.361
403	0.361
403	0.36
404	0.36
404	0.359
405	0.359
405	0.358
405	0.358
406	0.358
406	0.357
407	0.357
407	0.356
408	0.356
408	0.356
409	0.356
409	0.355
410	0.355
410	0.355
411	0.355
411	0.354
411	0.354
412	0.353
412	0.353
413	0.353
413	0.353
414	0.352
414	0.352
415	0.351
415	0.351
416	0.351
416	0.351
416	0.35
417	0.35
417	0.35
418	0.35
418	0.35
419	0.35
419	0.35
420	0.35
420	0.35
421	0.349
421	0.349
421	0.349
422	0.349
422	0.348
423	0.348
423	0.348
424	0.347
424	0.347
425	0.347
425	0.347
426	0.347
426	0.347
427	0.347
427	0.346
427	0.346
428	0.346
428	0.346
429	0.346
429	0.345
430	0.345
430	0.345
431	0.345
431	0.345
432	0.345
432	0.344
432	0.344
433	0.344
433	0.344
434	0.344
434	0.344
435	0.345
435	0.345
436	0.345
436	0.345
437	0.345
437	0.344
437	0.344
438	0.344
438	0.344
439	0.344
439	0.344
440	0.344
440	0.344
441	0.344
441	0.344
442	0.344
442	0.344
442	0.344
443	0.344
443	0.344
444	0.343
444	0.344
445	0.344
445	0.344
446	0.344
446	0.344
447	0.344
447	0.344
447	0.344
448	0.344
448	0.344
449	0.344
449	0.345
450	0.345
450	0.345
451	0.345
451	0.345
452	0.344
452	0.345
452	0.345
453	0.345
453	0.345
454	0.345
454	0.345
455	0.346
455	0.346
456	0.346
456	0.347
457	0.347
457	0.347
458	0.347
458	0.347
458	0.347
459	0.348
459	0.348
460	0.347
460	0.348
461	0.348
461	0.349
462	0.349
462	0.35
463	0.351
463	0.352
463	0.352
464	0.353
464	0.353
465	0.354
465	0.354
466	0.355
466	0.355
467	0.356
467	0.356
467	0.356
468	0.356
468	0.357
469	0.357
469	0.359
470	0.36
470	0.36
471	0.361
471	0.362
472	0.362
472	0.363
472	0.364
473	0.366
473	0.367
474	0.368
474	0.369
475	0.37
475	0.371
476	0.372
476	0.373
477	0.374
477	0.375
477	0.376
478	0.377
478	0.378
479	0.379
479	0.381
480	0.382
480	0.383
481	0.385
481	0.386
482	0.388
482	0.39
482	0.391
483	0.394
483	0.396
484	0.398
484	0.399
485	0.401
485	0.403
486	0.405
486	0.406
487	0.408
487	0.41
487	0.411
488	0.413
488	0.414
489	0.416
489	0.419
490	0.421
490	0.423
491	0.426
491	0.429
492	0.431
492	0.433
492	0.436
493	0.438
493	0.441
494	0.444
494	0.446
495	0.449
495	0.452
496	0.455
496	0.458
496	0.461
497	0.464
497	0.467
498	0.47
498	0.473
499	0.477
499	0.48
500	0.484
500	0.488
501	0.491
501	0.494
501	0.497
502	0.501
502	0.504
503	0.507
503	0.511
504	0.514
504	0.518
505	0.521
505	0.525
506	0.529
506	0.532
506	0.536
507	0.54
507	0.544
508	0.547
508	0.551
509	0.555
509	0.559
510	0.562
510	0.566
511	0.569
511	0.572
511	0.576
512	0.579
512	0.582
513	0.585
513	0.589
514	0.592
514	0.595
515	0.598
515	0.601
515	0.604
516	0.607
516	0.61
517	0.613
517	0.615
518	0.617
518	0.619
519	0.621
519	0.623
520	0.625
520	0.627
520	0.629
521	0.631
521	0.632
522	0.634
522	0.636
523	0.637
523	0.639
524	0.639
524	0.64
524	0.641
525	0.642
525	0.643
526	0.644
526	0.644
527	0.645
527	0.645
528	0.645
528	0.645
529	0.644
529	0.644
529	0.643
530	0.642
530	0.641
531	0.64
531	0.639
532	0.637
532	0.636
533	0.634
533	0.632
533	0.631
534	0.629
534	0.627
535	0.625
535	0.622
536	0.62
536	0.617
537	0.614
537	0.612
538	0.609
538	0.606
538	0.603
539	0.6
539	0.597
540	0.594
540	0.59
541	0.587
541	0.583
542	0.58
542	0.576
542	0.572
543	0.568
543	0.564
544	0.56
544	0.556
545	0.552
545	0.548
546	0.543
546	0.539
547	0.534
547	0.529
547	0.525
548	0.521
548	0.516
549	0.511
549	0.507
550	0.502
550	0.497
551	0.492
551	0.486
551	0.481
552	0.476
552	0.471
553	0.466
553	0.462
554	0.457
554	0.452
555	0.447
555	0.442
556	0.437
556	0.432
556	0.427
557	0.422
557	0.418
558	0.413
558	0.408
559	0.404
559	0.399
560	0.394
560	0.39
560	0.386
561	0.383
561	0.379
562	0.375
562	0.371
563	0.367
563	0.363
564	0.359
564	0.355
564	0.352
565	0.348
565	0.344
566	0.34
566	0.336
567	0.332
567	0.328
568	0.324
568	0.32
568	0.316
569	0.312
569	0.307
570	0.303
570	0.298
571	0.295
571	0.291
572	0.287
572	0.284
573	0.28
573	0.276
573	0.273
574	0.27
574	0.267
575	0.264
575	0.262
576	0.259
576	0.255
577	0.252
577	0.249
577	0.247
578	0.245
578	0.243
579	0.242
579	0.24
580	0.236
580	0.233
581	0.229
581	0.227
581	0.225
582	0.223
582	0.221
583	0.219
583	0.215
584	0.211
584	0.207
585	0.205
585	0.203
585	0.2
586	0.198
586	0.195
587	0.192
587	0.189
588	0.187
588	0.184
589	0.182
589	0.181
590	0.179
590	0.177
590	0.176
591	0.175
591	0.173
592	0.171
592	0.169
593	0.167
593	0.166
594	0.164
594	0.162
594	0.161
595	0.16
595	0.158
596	0.156
596	0.155
597	0.155
597	0.153
598	0.152
598	0.15
598	0.149
599	0.148
599	0.146
600	0.145
600	0.144
601	0.143
601	0.141
602	0.139
602	0.138
602	0.137
603	0.136
603	0.135
604	0.134
604	0.133
605	0.132
605	0.131
606	0.129
606	0.128
606	0.126
607	0.125
607	0.124
608	0.123
608	0.122
609	0.121
609	0.12
610	0.118
610	0.117
610	0.116
611	0.115
611	0.114
612	0.114
612	0.113
613	0.113
613	0.112
614	0.11
614	0.109
614	0.108
615	0.107
615	0.106
616	0.105
616	0.104
617	0.103
617	0.102
618	0.101
618	0.1
618	0.099
619	0.099
619	0.099
620	0.099
620	0.098
621	0.097
621	0.096
622	0.095
622	0.095
622	0.094
623	0.093
623	0.093
624	0.092
624	0.091
625	0.09
625	0.09
626	0.089
626	0.088
626	0.088
627	0.087
627	0.086
628	0.085
628	0.084
629	0.083
629	0.081
630	0.08
630	0.079
630	0.078
631	0.077
631	0.075
632	0.074
632	0.073
633	0.072
633	0.072
634	0.071
634	0.07
634	0.069
635	0.068
635	0.067
636	0.066
636	0.065
637	0.064
637	0.062
638	0.061
638	0.06
638	0.058
639	0.057
639	0.055
640	0.054
640	0.052
641	0.05
641	0.049
642	0.048
642	0.046
642	0.045
643	0.043
643	0.041
644	0.039
644	0.037
645	0.035
645	0.033
646	0.03
646	0.027
646	0.023
647	0.02
647	0.016
648	0.013
648	0.009
649	0.006
649	0.002
650	-0.001
650	-0.004
650	-0.007
651	-0.012
651	-0.017
652	-0.024
652	-0.03
653	-0.035
653	-0.041
653	-0.037
654	-0.028
654	-0.029
655	-0.033
655	-0.035
656	-0.038
656	-0.042
657	-0.045
657	-0.048
657	-0.052
658	-0.056
658	-0.076
659	-0.126
659	-0.175
660	-0.198
660	-0.216
661	-0.233
661	-0.251
661	-0.271
662	-0.29
662	-0.307
663	-0.328
663	-0.35
664	-0.37
664	-0.394
665	-0.42
665	-0.446
665	-0.472
666	-0.502
666	-0.535
667	-0.569
667	-0.61
668	-0.649
668	-0.701
669	-0.752
669	-0.806
669	-0.869
670	-0.935
670	-1.036
671	-1.21
671	-1.572
672	-2.038
672	-2.301
672	-2.469
673	-2.593
673	-2.648
674	-2.671
674	-2.681
675	-2.697
675	-2.702
676	-2.704
676	-2.683
676	-2.601
677	-2.472
677	-2.287
678	-1.914
678	-1.399
679	-1.162
679	-1.046
680	-0.974
680	-0.925
680	-0.884
681	-0.861
681	-0.828
682	-0.806
682	-0.777
683	-0.751
683	-0.741
684	-0.727
684	-0.721
684	-0.708
685	-0.698
685	-0.696
686	-0.681
686	-0.677
687	-0.675
687	-0.673
687	-0.68
688	-0.671
688	-0.67
689	-0.68
689	-0.683
690	-0.674
690	-0.667
691	-0.668
691	-0.674
691	-0.677
692	-0.68
692	-0.682
693	-0.69
693	-0.701
694	-0.684
694	-0.682
695	-0.686
695	-0.684
695	-0.693
696	-0.702
696	-0.696
697	-0.69
697	-0.684
698	-0.679
698	-0.674
698	-0.688
699	-0.687
699	-0.691
700	-0.711
700	-0.706
701	-0.692
701	-0.686
702	-0.689
702	-0.687
702	-0.691
703	-0.684
703	-0.672
704	-0.68
704	-0.684
705	-0.672
705	-0.673
705	-0.67
706	-0.664
706	-0.663
707	-0.677
707	-0.678
708	-0.676
708	-0.676
709	-0.681
709	-0.676
709	-0.673
710	-0.68
710	-0.681
711	-0.68
711	-0.681
712	-0.671
712	-0.67
713	-0.674
713	-0.673
713	-0.653
714	-0.656
714	-0.66
715	-0.655
715	-0.665
716	-0.68
716	-0.69
716	-0.692
717	-0.698
717	-0.691
718	-0.685
718	-0.688
719	-0.684
719	-0.677
720	-0.67
720	-0.665
720	-0.66
721	-0.649
721	-0.653
722	-0.648
722	-0.647
723	-0.666
723	-0.678
723	-0.686
724	-0.682
724	-0.689
725	-0.682
725	-0.686
726	-0.692
726	-0.683
727	-0.687
727	-0.693
727	-0.683
728	-0.67
728	-0.668
729	-0.671
729	-0.674
730	-0.68
730	-0.671
730	-0.674
731	-0.676
731	-0.676
732	-0.68
732	-0.674
733	-0.688
733	-0.692
734	-0.7
734	-0.693
734	-0.676
735	-0.666
735	-0.663
736	-0.662
736	-0.657
737	-0.653
737	-0.643
737	-0.636
738	-0.624
738	-0.614
739	-0.616
739	-0.615
740	-0.63
740	-0.632
741	-0.643
741	-0.655
741	-0.666
742	-0.674
742	-0.691
743	-0.697
743	-0.699
744	-0.702
744	-0.713
744	-0.705
745	-0.712
745	-0.7
746	-0.693
746	-0.685
747	-0.687
747	-0.676
748	-0.679
748	-0.684
748	-0.686
749	-0.678
749	-0.685
750	-0.675
750	-0.676
751	-0.679
751	-0.677
751	-0.689
752	-0.692
752	-0.693
753	-0.695
753	-0.688
754	-0.705
754	-0.706
754	-0.714
755	-0.712
755	-0.702
756	-0.704
756	-0.69
757	-0.684
757	-0.673
758	-0.674
758	-0.673
758	-0.67
759	-0.675
759	-0.675
760	-0.674
760	-0.676
761	-0.668
761	-0.672
761	-0.672
762	-0.678
762	-0.68
763	-0.679
763	-0.683
764	-0.681
764	-0.677
764	-0.687
765	-0.687
765	-0.695
766	-0.698
766	-0.699
767	-0.713
767	-0.71
768	-0.71
768	-0.701
768	-0.697
769	-0.701
769	-0.709
770	-0.718
770	-0.724
771	-0.721
771	-0.721
771	-0.729
772	-0.727
772	-0.748
773	-0.75
773	-0.749
774	-0.748
774	-0.729
775	-0.716
775	-0.714
775	-0.717
776	-0.724
776	-0.718
777	-0.719
777	-0.702
778	-0.71
778	-0.717
778	-0.717
779	-0.724
779	-0.739
780	-0.733
780	-0.744
781	-0.735
781	-0.724
781	-0.738
782	-0.759
782	-0.76
783	-0.761
783	-0.769
784	-0.773
784	-0.767
784	-0.786
785	-0.779
785	-0.791
786	-0.799
786	-0.793
787	-0.783
787	-0.791
788	-0.783
788	-0.777
788	-0.78
789	-0.781
789	-0.77
790	-0.767
790	-0.751
791	-0.757
791	-0.752
791	-0.747
792	-0.74
792	-0.745
793	-0.748
793	-0.733
794	-0.728
794	-0.724
794	-0.731
795	-0.751
795	-0.738
796	-0.746
796	-0.74
797	-0.735
797	-0.726
797	-0.719
798	-0.739
798	-0.743
799	-0.741
799	-0.727
800	-0.723
800	-0.73
801	-0.727
801	-0.733
801	-0.73
802	-0.728
802	-0.729
803	-0.725
803	-0.716
804	-0.721
804	-0.73
804	-0.714
805	-0.696
805	-0.685
806	-0.685
806	-0.681
807	-0.683
807	-0.683
807	-0.667
808	-0.663
808	-0.659
809	-0.653
809	-0.657
810	-0.658
810	-0.655
810	-0.651
811	-0.655
811	-0.646
812	-0.639
812	-0.642
813	-0.647
813	-0.647
813	-0.642
814	-0.641
814	-0.646
815	-0.639
815	-0.634
816	-0.627
816	-0.644
817	-0.655
817	-0.657
817	-0.665
818	-0.659
818	-0.657
819	-0.668
819	-0.666
820	-0.677
820	-0.678
820	-0.68
821	-0.673
821	-0.671
822	-0.672
822	-0.66
823	-0.673
823	-0.672
823	-0.669
824	-0.667
824	-0.677
825	-0.675
825	-0.673
826	-0.67
826	-0.665
826	-0.664
827	-0.664
827	-0.654
828	-0.654
828	-0.646
829	-0.64
829	-0.627
829	-0.626
830	-0.625
830	-0.613
831	-0.609
831	-0.6
832	-0.59
832	-0.585
832	-0.581
833	-0.581
833	-0.586
834	-0.582
834	-0.576
835	-0.569
835	-0.567
835	-0.562
836	-0.558
836	-0.557
837	-0.547
837	-0.537
838	-0.526
838	-0.511
839	-0.506
839	-0.495
839	-0.486
840	-0.486
840	-0.476
841	-0.465
841	-0.459
842	-0.45
842	-0.439
842	-0.437
843	-0.435
843	-0.43
844	-0.428
844	-0.418
845	-0.407
845	-0.399
845	-0.39
846	-0.378
846	-0.37
847	-0.361
847	-0.351
848	-0.338
848	-0.323
848	-0.311
849	-0.301
849	-0.291
850	-0.284
850	-0.276
851	-0.266
851	-0.254
851	-0.247
852	-0.234
852	-0.223
853	-0.218
853	-0.208
854	-0.201
854	-0.193
854	-0.182
855	-0.174
855	-0.168
856	-0.162
856	-0.155
857	-0.15
857	-0.144
857	-0.133
858	-0.126
858	-0.12
859	-0.111
859	-0.104
860	-0.096
860	-0.085
860	-0.077
861	-0.071
861	-0.063
862	-0.058
862	-0.053
863	-0.047
863	-0.04
863	-0.036
864	-0.032
864	-0.028
865	-0.024
865	-0.02
866	-0.017
866	-0.013
866	-0.01
867	-0.007
867	-0.004
868	-0.001
868	0.002
869	0.005
869	0.008
869	0.01
870	0.012
870	0.014
871	0.015
871	0.016
872	0.017
872	0.017
872	0.018
873	0.018
873	0.018
874	0.017
874	0.017
875	0.016
875	0.015
875	0.015
876	0.014
876	0.014
877	0.013
877	0.012
878	0.011
878	0.01
878	0.01
879	0.009
879	0.008
880	0.008
880	0.007
881	0.007
881	0.007
881	0.007
882	0.007
882	0.007
883	0.007
883	0.006
884	0.007
884	0.007
884	0.007
885	0.006
885	0.006
886	0.005
886	0.004
887	0.003
887	0.002
887	0.001
888	0
888	-0.001
889	-0.001
889	-0.001
890	-0.002
890	-0.002
890	-0.002
891	-0.002
891	-0.002
892	-0.001
892	-0.001
893	-0.001
893	-0.001
893	-0.002
894	-0.002
894	-0.002
895	-0.002
895	-0.002
895	-0.002
896	-0.002
896	-0.002
897	-0.001
897	-0.001
898	-0.001
898	-0
898	0
899	0.001
899	0.001
900	0.001
900	0.001
901	0.001
901	0.001
901	0.001
902	0.001
902	0.001
903	0.001
903	0
904	-0
904	-0.001
904	-0.001
905	-0.001
905	-0.001
906	-0.001
906	-0
907	0
907	0.001
907	0.001
908	0.002
908	0.003
909	0.004
909	0.004
910	0.005
910	0.006
910	0.006
911	0.007
911	0.009
912	0.01
912	0.012
913	0.013
913	0.014
913	0.015
914	0.016
914	0.017
915	0.017
915	0.017
916	0.016
916	0.016
916	0.015
917	0.014
917	0.013
918	0.012
918	0.012
918	0.011
919	0.011
919	0.01
920	0.01
920	0.01
921	0.01
921	0.01
921	0.01
922	0.01
922	0.01
923	0.01
923	0.01
924	0.009
924	0.009
924	0.009
925	0.008
925	0.008
926	0.008
926	0.007
927	0.007
927	0.007
927	0.008
928	0.008
928	0.008
929	0.009
929	0.009
930	0.01
930	0.011
930	0.012
931	0.013
931	0.013
932	0.014
932	0.015
933	0.015
933	0.016
933	0.016
934	0.015
934	0.015
935	0.015
935	0.014
935	0.012
936	0.011
936	0.01
937	0.008
937	0.007
938	0.006
938	0.005
938	0.004
939	0.003
939	0.002
940	0.002
940	0.002
941	0.002
941	0.002
941	0.002
942	0.002
942	0.002
943	0.003
943	0.003
944	0.003
944	0.003
944	0.003
945	0.002
945	0.003
946	0.002
946	0.001
946	0.001
947	0
947	-0
948	-0.001
948	-0.001
949	-0.002
949	-0.002
949	-0.002
950	-0.002
950	-0.001
951	-0.001
951	-0
952	0
952	0.001
952	0.001
953	0.002
953	0.003
954	0.003
954	0.003
955	0.004
955	0.003
955	0.003
956	0.003
956	0.003
957	0.002
957	0.002
957	0.001
958	0.001
958	0
959	-0
959	-0.001
960	-0.001
960	-0.001
960	-0.001
961	-0.001
961	-0.001
962	-0.001
962	-0.001
963	-0.001
963	-0.001
963	-0.001
964	-0.001
964	-0.001
965	-0.001
965	-0.001
966	-0.001
966	-0
966	0
967	0.001
967	0.001
968	0.001
968	0.001
968	0
969	0
969	-0.001
970	-0.001
970	-0.002
971	-0.003
971	-0.004
971	-0.004
972	-0.005
972	-0.005
973	-0.005
973	-0.005
974	-0.004
974	-0.003
974	-0.002
975	-0.001
975	0
976	0.002
976	0.003
976	0.003
977	0.004
977	0.004
978	0.005
978	0.005
979	0.005
979	0.004
979	0.004
980	0.004
980	0.003
981	0.003
981	0.002
982	0.002
982	0.002
982	0.002
983	0.002
983	0.002
984	0.002
984	0.002
984	0.002
985	0.002
985	0.002
986	0.002
986	0.001
987	0.001
987	0
987	0
988	-0
988	-0.001
989	-0.001
989	-0.002
990	-0.003
990	-0.004
990	-0.004
991	-0.004
991	-0.004
992	-0.005
992	-0.005
992	-0.005
993	-0.005
993	-0.006
994	-0.006
994	-0.006
995	-0.006
995	-0.007
995	-0.007
996	-0.008
996	-0.008
997	-0.009
997	-0.009
997	-0.009
998	-0.009
998	-0.008
999	-0.008
999	-0.008
1000	-0.007
1000	-0.007
1000	-0.007
1001	-0.007
1001	-0.006
1002	-0.006
1002	-0.005
1003	-0.005
1003	-0.006
1003	-0.006
1004	-0.006
1004	-0.006
1005	-0.007
1005	-0.008
1005	-0.008
1006	-0.009
1006	-0.01
1007	-0.01
1007	-0.011
1008	-0.011
1008	-0.012
1008	-0.012
1009	-0.012
1009	-0.012
1010	-0.011
1010	-0.011
1010	-0.011
1011	-0.01
1011	-0.01
1012	-0.01
1012	-0.009
1013	-0.008
1013	-0.008
1013	-0.008
1014	-0.007
1014	-0.007
1015	-0.006
1015	-0.006
1016	-0.006
1016	-0.005
1016	-0.005
1017	-0.005
1017	-0.005
1018	-0.005
1018	-0.005
1018	-0.005
1019	-0.005
1019	-0.005
1020	-0.006
1020	-0.006
1021	-0.006
1021	-0.007
1021	-0.007
1022	-0.008
1022	-0.009
1023	-0.009
1023	-0.01
1023	-0.011
1024	-0.012
1024	-0.013
1025	-0.013
1025	-0.014
1026	-0.014
1026	-0.014
1026	-0.015
1027	-0.016
1027	-0.016
1028	-0.016
1028	-0.015
1028	-0.015
1029	-0.015
1029	-0.015
1030	-0.015
1030	-0.015
1031	-0.016
1031	-0.015
1031	-0.015
1032	-0.015
1032	-0.015
1033	-0.016
1033	-0.016
1033	-0.016
1034	-0.016
1034	-0.016
1035	-0.016
1035	-0.016
1036	-0.016
1036	-0.016
1036	-0.016
1037	-0.015
1037	-0.014
1038	-0.014
1038	-0.013
1039	-0.013
1039	-0.012
1039	-0.011
1040	-0.011
1040	-0.011
1041	-0.011
1041	-0.011
1041	-0.012
1042	-0.012
1042	-0.013
1043	-0.014
1043	-0.015
1044	-0.016
1044	-0.017
1044	-0.018
1045	-0.019
1045	-0.02
1046	-0.02
1046	-0.021
1046	-0.021
1047	-0.021
1047	-0.021
1048	-0.021
1048	-0.021
1049	-0.021
1049	-0.021
1049	-0.021
1050	-0.022
1050	-0.023
1051	-0.024
1051	-0.024
1051	-0.025
1052	-0.026
1052	-0.027
1053	-0.027
1053	-0.027
1053	-0.028
1054	-0.028
1054	-0.028
1055	-0.027
1055	-0.027
1056	-0.027
1056	-0.027
1056	-0.027
1057	-0.028
1057	-0.028
1058	-0.028
1058	-0.029
1058	-0.029
1059	-0.029
1059	-0.029
1060	-0.03
1060	-0.029
1061	-0.029
1061	-0.029
1061	-0.028
1062	-0.029
1062	-0.028
1063	-0.028
1063	-0.029
1063	-0.029
1064	-0.029
1064	-0.028
1065	-0.029
1065	-0.029
1066	-0.029
1066	-0.029
1066	-0.029
1067	-0.029
1067	-0.03
1068	-0.029
1068	-0.03
1068	-0.03
1069	-0.031
1069	-0.031
1070	-0.032
1070	-0.033
1071	-0.033
1071	-0.033
1071	-0.033
1072	-0.034
1072	-0.033
1073	-0.033
1073	-0.033
1073	-0.033
1074	-0.033
1074	-0.032
1075	-0.032
1075	-0.033
1076	-0.033
1076	-0.033
1076	-0.034
1077	-0.034
1077	-0.035
1078	-0.036
1078	-0.036
1078	-0.037
1079	-0.037
1079	-0.038
1080	-0.038
1080	-0.039
1080	-0.04
1081	-0.041
1081	-0.041
1082	-0.041
1082	-0.042
1083	-0.043
1083	-0.043
1083	-0.044
1084	-0.044
1084	-0.045
1085	-0.045
1085	-0.045
1085	-0.045
1086	-0.046
1086	-0.047
1087	-0.047
1087	-0.047
1088	-0.048
1088	-0.049
1088	-0.049
1089	-0.05
1089	-0.05
1090	-0.051
1090	-0.052
1090	-0.053
1091	-0.053
1091	-0.053
1092	-0.054
1092	-0.055
1092	-0.055
1093	-0.056
1093	-0.057
1094	-0.057
1094	-0.058
1095	-0.059
1095	-0.059
1095	-0.06
1096	-0.061
1096	-0.062
1097	-0.063
1097	-0.064
1097	-0.065
1098	-0.066
1098	-0.068
1099	-0.068
1099	-0.069
1100	-0.071
1100	-0.073
1100	-0.074
1101	-0.077
1101	-0.078
1102	-0.08
1102	-0.082
1102	-0.083
1103	-0.085
1103	-0.088
1104	-0.09
1104	-0.093
1104	-0.094
1105	-0.096
1105	-0.098
1106	-0.102
1106	-0.104
1107	-0.108
1107	-0.112
1107	-0.116
1108	-0.117
1108	-0.118
1109	-0.12
1109	-0.125
1109	-0.128
1110	-0.13
1110	-0.131
1111	-0.14
1111	-0.137
