Data from 3.5A_17C_Absorbance__574__00576.txt Node

Date: Tue Jun 20 15:17:12 CEST 2023
User: Marek
Spectrometer: MAYP115816
Trigger mode: 0
Integration Time (sec): 2.200000E-1
Scans to average: 10
Electric dark correction enabled: true
Nonlinearity correction enabled: true
Boxcar width: 5
XAxis mode: Wavelengths
Number of Pixels in Spectrum: 2068
>>>>>Begin Spectral Data<<<<<
199	-0.676
199	-0.662
200	-0.622
200	-0.569
201	-0.541
201	-0.536
202	-0.521
202	-0.513
203	-0.514
203	-0.507
204	-0.487
204	-0.471
205	-0.447
205	-0.44
205	-0.448
206	-0.452
206	-0.445
207	-0.437
207	-0.441
208	-0.442
208	-0.447
209	-0.448
209	-0.455
210	-0.47
210	-0.477
211	-0.472
211	-0.475
212	-0.483
212	-0.49
213	-0.487
213	-0.481
213	-0.477
214	-0.485
214	-0.488
215	-0.482
215	-0.486
216	-0.494
216	-0.499
217	-0.497
217	-0.5
218	-0.509
218	-0.509
219	-0.518
219	-0.519
220	-0.521
220	-0.529
221	-0.531
221	-0.53
221	-0.52
222	-0.521
222	-0.518
223	-0.514
223	-0.518
224	-0.517
224	-0.515
225	-0.513
225	-0.513
226	-0.513
226	-0.514
227	-0.524
227	-0.533
228	-0.537
228	-0.546
229	-0.551
229	-0.55
229	-0.551
230	-0.548
230	-0.545
231	-0.542
231	-0.537
232	-0.536
232	-0.533
233	-0.532
233	-0.519
234	-0.52
234	-0.514
235	-0.516
235	-0.525
236	-0.533
236	-0.534
236	-0.533
237	-0.532
237	-0.531
238	-0.531
238	-0.533
239	-0.534
239	-0.544
240	-0.538
240	-0.536
241	-0.53
241	-0.534
242	-0.538
242	-0.548
243	-0.549
243	-0.551
243	-0.556
244	-0.554
244	-0.555
245	-0.558
245	-0.561
246	-0.57
246	-0.571
247	-0.577
247	-0.563
248	-0.561
248	-0.565
249	-0.569
249	-0.57
250	-0.57
250	-0.576
250	-0.574
251	-0.575
251	-0.572
252	-0.576
252	-0.588
253	-0.584
253	-0.596
254	-0.602
254	-0.603
255	-0.614
255	-0.614
256	-0.613
256	-0.625
257	-0.635
257	-0.63
258	-0.631
258	-0.637
258	-0.631
259	-0.622
259	-0.638
260	-0.636
260	-0.625
261	-0.637
261	-0.623
262	-0.627
262	-0.623
263	-0.614
263	-0.621
264	-0.631
264	-0.632
265	-0.623
265	-0.625
265	-0.635
266	-0.628
266	-0.626
267	-0.627
267	-0.645
268	-0.652
268	-0.645
269	-0.638
269	-0.654
270	-0.657
270	-0.658
271	-0.67
271	-0.678
272	-0.681
272	-0.684
272	-0.678
273	-0.687
273	-0.7
274	-0.694
274	-0.689
275	-0.687
275	-0.673
276	-0.676
276	-0.684
277	-0.685
277	-0.681
278	-0.684
278	-0.683
278	-0.672
279	-0.681
279	-0.694
280	-0.696
280	-0.706
281	-0.7
281	-0.69
282	-0.697
282	-0.691
283	-0.686
283	-0.701
284	-0.715
284	-0.724
285	-0.704
285	-0.709
285	-0.703
286	-0.707
286	-0.723
287	-0.721
287	-0.719
288	-0.718
288	-0.7
289	-0.699
289	-0.705
290	-0.714
290	-0.701
291	-0.703
291	-0.702
292	-0.684
292	-0.681
292	-0.685
293	-0.673
293	-0.668
294	-0.667
294	-0.656
295	-0.639
295	-0.652
296	-0.664
296	-0.66
297	-0.648
297	-0.651
298	-0.648
298	-0.664
298	-0.67
299	-0.652
299	-0.643
300	-0.639
300	-0.62
301	-0.601
301	-0.603
302	-0.612
302	-0.596
303	-0.59
303	-0.581
304	-0.563
304	-0.565
305	-0.557
305	-0.566
305	-0.58
306	-0.566
306	-0.564
307	-0.556
307	-0.569
308	-0.57
308	-0.564
309	-0.566
309	-0.561
310	-0.561
310	-0.556
311	-0.542
311	-0.56
311	-0.549
312	-0.546
312	-0.535
313	-0.528
313	-0.529
314	-0.535
314	-0.534
315	-0.531
315	-0.526
316	-0.521
316	-0.511
317	-0.502
317	-0.499
318	-0.492
318	-0.487
318	-0.478
319	-0.466
319	-0.457
320	-0.456
320	-0.453
321	-0.449
321	-0.45
322	-0.446
322	-0.438
323	-0.439
323	-0.431
324	-0.428
324	-0.418
324	-0.408
325	-0.391
325	-0.374
326	-0.366
326	-0.341
327	-0.326
327	-0.306
328	-0.275
328	-0.253
329	-0.226
329	-0.199
330	-0.173
330	-0.14
330	-0.104
331	-0.067
331	-0.035
332	-0.002
332	0.03
333	0.059
333	0.09
334	0.117
334	0.141
335	0.167
335	0.187
336	0.205
336	0.224
336	0.239
337	0.254
337	0.269
338	0.281
338	0.291
339	0.303
339	0.313
340	0.319
340	0.328
341	0.334
341	0.338
342	0.344
342	0.349
342	0.354
343	0.357
343	0.361
344	0.363
344	0.366
345	0.369
345	0.371
346	0.372
346	0.374
347	0.375
347	0.376
348	0.377
348	0.379
348	0.379
349	0.38
349	0.38
350	0.381
350	0.381
351	0.382
351	0.382
352	0.382
352	0.382
353	0.383
353	0.383
354	0.383
354	0.383
354	0.383
355	0.383
355	0.383
356	0.383
356	0.383
357	0.384
357	0.384
358	0.383
358	0.383
359	0.383
359	0.383
360	0.383
360	0.383
360	0.383
361	0.383
361	0.382
362	0.381
362	0.381
363	0.381
363	0.381
364	0.381
364	0.381
365	0.38
365	0.38
366	0.38
366	0.379
366	0.379
367	0.379
367	0.379
368	0.378
368	0.378
369	0.377
369	0.377
370	0.377
370	0.376
371	0.376
371	0.376
372	0.375
372	0.375
372	0.375
373	0.375
373	0.374
374	0.375
374	0.374
375	0.374
375	0.374
376	0.373
376	0.373
377	0.373
377	0.372
378	0.372
378	0.371
378	0.371
379	0.37
379	0.37
380	0.37
380	0.37
381	0.369
381	0.369
382	0.368
382	0.368
383	0.368
383	0.367
383	0.367
384	0.366
384	0.366
385	0.365
385	0.365
386	0.364
386	0.364
387	0.363
387	0.363
388	0.362
388	0.362
389	0.362
389	0.362
389	0.362
390	0.361
390	0.361
391	0.361
391	0.361
392	0.36
392	0.36
393	0.36
393	0.36
394	0.359
394	0.358
394	0.358
395	0.358
395	0.357
396	0.356
396	0.356
397	0.355
397	0.355
398	0.354
398	0.354
399	0.353
399	0.353
400	0.353
400	0.352
400	0.352
401	0.352
401	0.351
402	0.351
402	0.35
403	0.35
403	0.35
404	0.349
404	0.349
405	0.348
405	0.348
405	0.347
406	0.347
406	0.347
407	0.347
407	0.346
408	0.346
408	0.346
409	0.346
409	0.346
410	0.346
410	0.345
411	0.345
411	0.345
411	0.344
412	0.344
412	0.343
413	0.343
413	0.343
414	0.342
414	0.342
415	0.341
415	0.341
416	0.341
416	0.341
416	0.34
417	0.34
417	0.34
418	0.34
418	0.34
419	0.34
419	0.34
420	0.34
420	0.34
421	0.339
421	0.339
421	0.339
422	0.339
422	0.339
423	0.339
423	0.338
424	0.338
424	0.338
425	0.338
425	0.337
426	0.337
426	0.337
427	0.337
427	0.337
427	0.337
428	0.337
428	0.337
429	0.337
429	0.337
430	0.336
430	0.336
431	0.336
431	0.336
432	0.336
432	0.335
432	0.335
433	0.335
433	0.335
434	0.335
434	0.335
435	0.335
435	0.335
436	0.335
436	0.335
437	0.335
437	0.335
437	0.335
438	0.335
438	0.335
439	0.335
439	0.334
440	0.334
440	0.334
441	0.334
441	0.334
442	0.334
442	0.334
442	0.334
443	0.334
443	0.334
444	0.334
444	0.334
445	0.334
445	0.334
446	0.334
446	0.334
447	0.334
447	0.335
447	0.335
448	0.335
448	0.335
449	0.335
449	0.335
450	0.335
450	0.335
451	0.335
451	0.335
452	0.335
452	0.335
452	0.335
453	0.335
453	0.335
454	0.335
454	0.336
455	0.336
455	0.336
456	0.337
456	0.337
457	0.337
457	0.337
458	0.337
458	0.337
458	0.338
459	0.338
459	0.338
460	0.338
460	0.338
461	0.338
461	0.339
462	0.339
462	0.34
463	0.34
463	0.341
463	0.342
464	0.342
464	0.342
465	0.343
465	0.343
466	0.344
466	0.344
467	0.345
467	0.345
467	0.345
468	0.345
468	0.346
469	0.346
469	0.347
470	0.348
470	0.349
471	0.35
471	0.35
472	0.351
472	0.352
472	0.353
473	0.354
473	0.355
474	0.356
474	0.356
475	0.357
475	0.358
476	0.359
476	0.36
477	0.361
477	0.362
477	0.363
478	0.364
478	0.365
479	0.367
479	0.368
480	0.369
480	0.37
481	0.372
481	0.373
482	0.375
482	0.376
482	0.378
483	0.38
483	0.382
484	0.384
484	0.385
485	0.387
485	0.389
486	0.39
486	0.392
487	0.393
487	0.395
487	0.396
488	0.398
488	0.399
489	0.402
489	0.404
490	0.406
490	0.408
491	0.411
491	0.413
492	0.416
492	0.418
492	0.42
493	0.422
493	0.424
494	0.427
494	0.43
495	0.432
495	0.434
496	0.437
496	0.44
496	0.443
497	0.446
497	0.449
498	0.451
498	0.455
499	0.458
499	0.461
500	0.465
500	0.469
501	0.472
501	0.475
501	0.478
502	0.48
502	0.484
503	0.487
503	0.49
504	0.493
504	0.496
505	0.499
505	0.503
506	0.506
506	0.51
506	0.513
507	0.517
507	0.521
508	0.524
508	0.528
509	0.531
509	0.535
510	0.538
510	0.541
511	0.544
511	0.548
511	0.551
512	0.554
512	0.557
513	0.56
513	0.563
514	0.566
514	0.57
515	0.573
515	0.576
515	0.578
516	0.581
516	0.584
517	0.586
517	0.589
518	0.591
518	0.593
519	0.595
519	0.596
520	0.599
520	0.601
520	0.603
521	0.604
521	0.606
522	0.607
522	0.608
523	0.61
523	0.611
524	0.612
524	0.613
524	0.613
525	0.614
525	0.615
526	0.616
526	0.616
527	0.617
527	0.617
528	0.617
528	0.617
529	0.616
529	0.616
529	0.615
530	0.614
530	0.614
531	0.613
531	0.612
532	0.611
532	0.61
533	0.609
533	0.607
533	0.606
534	0.604
534	0.602
535	0.6
535	0.598
536	0.596
536	0.593
537	0.591
537	0.589
538	0.586
538	0.583
538	0.581
539	0.578
539	0.576
540	0.573
540	0.569
541	0.566
541	0.563
542	0.56
542	0.556
542	0.552
543	0.549
543	0.545
544	0.541
544	0.537
545	0.534
545	0.53
546	0.526
546	0.522
547	0.518
547	0.514
547	0.51
548	0.506
548	0.502
549	0.498
549	0.494
550	0.489
550	0.485
551	0.48
551	0.475
551	0.47
552	0.466
552	0.461
553	0.457
553	0.453
554	0.449
554	0.444
555	0.439
555	0.435
556	0.43
556	0.426
556	0.422
557	0.418
557	0.413
558	0.409
558	0.405
559	0.401
559	0.396
560	0.392
560	0.388
560	0.385
561	0.381
561	0.378
562	0.374
562	0.371
563	0.367
563	0.363
564	0.36
564	0.356
564	0.353
565	0.35
565	0.346
566	0.343
566	0.339
567	0.336
567	0.333
568	0.329
568	0.325
568	0.321
569	0.317
569	0.314
570	0.309
570	0.305
571	0.302
571	0.299
572	0.295
572	0.292
573	0.288
573	0.285
573	0.281
574	0.279
574	0.276
575	0.274
575	0.272
576	0.269
576	0.266
577	0.263
577	0.26
577	0.259
578	0.257
578	0.255
579	0.254
579	0.252
580	0.249
580	0.245
581	0.242
581	0.24
581	0.239
582	0.237
582	0.235
583	0.233
583	0.23
584	0.226
584	0.222
585	0.22
585	0.218
585	0.215
586	0.213
586	0.21
587	0.208
587	0.205
588	0.202
588	0.2
589	0.199
589	0.197
590	0.196
590	0.194
590	0.193
591	0.192
591	0.19
592	0.188
592	0.186
593	0.185
593	0.184
594	0.182
594	0.181
594	0.179
595	0.178
595	0.176
596	0.174
596	0.174
597	0.174
597	0.173
598	0.171
598	0.17
598	0.168
599	0.167
599	0.166
600	0.164
600	0.163
601	0.162
601	0.161
602	0.159
602	0.158
602	0.156
603	0.155
603	0.154
604	0.153
604	0.152
605	0.151
605	0.151
606	0.149
606	0.147
606	0.146
607	0.145
607	0.144
608	0.143
608	0.142
609	0.14
609	0.14
610	0.138
610	0.137
610	0.136
611	0.135
611	0.135
612	0.134
612	0.134
613	0.133
613	0.132
614	0.131
614	0.129
614	0.129
615	0.127
615	0.126
616	0.126
616	0.125
617	0.124
617	0.123
618	0.122
618	0.12
618	0.12
619	0.119
619	0.119
620	0.119
620	0.118
621	0.117
621	0.116
622	0.115
622	0.114
622	0.113
623	0.112
623	0.111
624	0.111
624	0.11
625	0.109
625	0.108
626	0.107
626	0.106
626	0.106
627	0.105
627	0.104
628	0.103
628	0.102
629	0.101
629	0.099
630	0.098
630	0.096
630	0.095
631	0.094
631	0.092
632	0.09
632	0.089
633	0.088
633	0.087
634	0.086
634	0.085
634	0.083
635	0.082
635	0.081
636	0.08
636	0.078
637	0.077
637	0.075
638	0.074
638	0.072
638	0.07
639	0.068
639	0.066
640	0.064
640	0.062
641	0.06
641	0.058
642	0.056
642	0.054
642	0.052
643	0.049
643	0.047
644	0.044
644	0.041
645	0.038
645	0.036
646	0.032
646	0.028
646	0.024
647	0.02
647	0.016
648	0.012
648	0.007
649	0.003
649	-0.001
650	-0.006
650	-0.01
650	-0.014
651	-0.02
651	-0.027
652	-0.034
652	-0.043
653	-0.05
653	-0.056
653	-0.051
654	-0.04
654	-0.038
655	-0.041
655	-0.044
656	-0.048
656	-0.052
657	-0.055
657	-0.058
657	-0.063
658	-0.067
658	-0.089
659	-0.146
659	-0.206
660	-0.233
660	-0.252
661	-0.27
661	-0.292
661	-0.314
662	-0.333
662	-0.353
663	-0.377
663	-0.404
664	-0.43
664	-0.458
665	-0.491
665	-0.525
665	-0.557
666	-0.594
666	-0.636
667	-0.678
667	-0.729
668	-0.776
668	-0.834
669	-0.892
669	-0.956
669	-1.025
670	-1.099
670	-1.21
671	-1.385
671	-1.719
672	-2.142
672	-2.363
672	-2.513
673	-2.627
673	-2.719
674	-2.75
674	-2.761
675	-2.777
675	-2.782
676	-2.783
676	-2.759
676	-2.676
677	-2.572
677	-2.437
678	-2.214
678	-1.691
679	-1.363
679	-1.23
680	-1.144
680	-1.081
680	-1.028
681	-0.992
681	-0.949
682	-0.918
682	-0.884
683	-0.85
683	-0.835
684	-0.816
684	-0.806
684	-0.792
685	-0.778
685	-0.775
686	-0.757
686	-0.75
687	-0.744
687	-0.736
687	-0.739
688	-0.728
688	-0.724
689	-0.731
689	-0.732
690	-0.72
690	-0.712
691	-0.712
691	-0.717
691	-0.72
692	-0.722
692	-0.72
693	-0.728
693	-0.739
694	-0.721
694	-0.719
695	-0.725
695	-0.721
695	-0.73
696	-0.737
696	-0.73
697	-0.726
697	-0.725
698	-0.72
698	-0.715
698	-0.73
699	-0.731
699	-0.732
700	-0.751
700	-0.747
701	-0.735
701	-0.73
702	-0.73
702	-0.726
702	-0.729
703	-0.72
703	-0.708
704	-0.714
704	-0.716
705	-0.705
705	-0.703
705	-0.698
706	-0.692
706	-0.688
707	-0.702
707	-0.704
708	-0.701
708	-0.7
709	-0.704
709	-0.703
709	-0.7
710	-0.708
710	-0.712
711	-0.711
711	-0.713
712	-0.703
712	-0.701
713	-0.706
713	-0.706
713	-0.687
714	-0.689
714	-0.692
715	-0.684
715	-0.692
716	-0.709
716	-0.718
716	-0.721
717	-0.727
717	-0.72
718	-0.714
718	-0.714
719	-0.71
719	-0.704
720	-0.698
720	-0.695
720	-0.687
721	-0.678
721	-0.68
722	-0.678
722	-0.674
723	-0.691
723	-0.702
723	-0.71
724	-0.711
724	-0.714
725	-0.708
725	-0.714
726	-0.719
726	-0.71
727	-0.712
727	-0.72
727	-0.711
728	-0.699
728	-0.696
729	-0.697
729	-0.7
730	-0.707
730	-0.697
730	-0.703
731	-0.707
731	-0.705
732	-0.705
732	-0.7
733	-0.713
733	-0.719
734	-0.728
734	-0.719
734	-0.701
735	-0.693
735	-0.685
736	-0.682
736	-0.679
737	-0.68
737	-0.671
737	-0.665
738	-0.651
738	-0.639
739	-0.642
739	-0.642
740	-0.656
740	-0.657
741	-0.669
741	-0.679
741	-0.689
742	-0.695
742	-0.71
743	-0.717
743	-0.72
744	-0.724
744	-0.732
744	-0.726
745	-0.735
745	-0.723
746	-0.719
746	-0.711
747	-0.714
747	-0.704
748	-0.705
748	-0.71
748	-0.71
749	-0.706
749	-0.712
750	-0.702
750	-0.706
751	-0.703
751	-0.701
751	-0.711
752	-0.715
752	-0.719
753	-0.722
753	-0.715
754	-0.731
754	-0.733
754	-0.741
755	-0.739
755	-0.734
756	-0.736
756	-0.723
757	-0.713
757	-0.7
758	-0.699
758	-0.698
758	-0.695
759	-0.699
759	-0.697
760	-0.695
760	-0.694
761	-0.688
761	-0.694
761	-0.695
762	-0.702
762	-0.706
763	-0.706
763	-0.71
764	-0.707
764	-0.703
764	-0.709
765	-0.71
765	-0.719
766	-0.719
766	-0.722
767	-0.735
767	-0.73
768	-0.729
768	-0.721
768	-0.717
769	-0.721
769	-0.729
770	-0.738
770	-0.742
771	-0.737
771	-0.738
771	-0.746
772	-0.749
772	-0.769
773	-0.77
773	-0.77
774	-0.768
774	-0.75
775	-0.736
775	-0.734
775	-0.738
776	-0.748
776	-0.742
777	-0.739
777	-0.721
778	-0.73
778	-0.738
778	-0.739
779	-0.748
779	-0.767
780	-0.763
780	-0.771
781	-0.759
781	-0.75
781	-0.765
782	-0.785
782	-0.786
783	-0.785
783	-0.793
784	-0.794
784	-0.788
784	-0.808
785	-0.802
785	-0.815
786	-0.819
786	-0.812
787	-0.803
787	-0.812
788	-0.806
788	-0.798
788	-0.802
789	-0.802
789	-0.791
790	-0.79
790	-0.775
791	-0.781
791	-0.779
791	-0.771
792	-0.765
792	-0.77
793	-0.773
793	-0.761
794	-0.753
794	-0.748
794	-0.755
795	-0.774
795	-0.762
796	-0.766
796	-0.763
797	-0.755
797	-0.744
797	-0.737
798	-0.759
798	-0.764
799	-0.762
799	-0.748
800	-0.745
800	-0.755
801	-0.753
801	-0.758
801	-0.754
802	-0.755
802	-0.755
803	-0.749
803	-0.743
804	-0.75
804	-0.758
804	-0.74
805	-0.719
805	-0.711
806	-0.713
806	-0.711
807	-0.709
807	-0.711
807	-0.694
808	-0.69
808	-0.683
809	-0.678
809	-0.682
810	-0.686
810	-0.682
810	-0.679
811	-0.681
811	-0.675
812	-0.666
812	-0.668
813	-0.671
813	-0.67
813	-0.667
814	-0.664
814	-0.67
815	-0.662
815	-0.657
816	-0.654
816	-0.671
817	-0.683
817	-0.689
817	-0.698
818	-0.692
818	-0.689
819	-0.7
819	-0.697
820	-0.705
820	-0.706
820	-0.704
821	-0.698
821	-0.695
822	-0.69
822	-0.679
823	-0.693
823	-0.691
823	-0.687
824	-0.686
824	-0.698
825	-0.696
825	-0.694
826	-0.692
826	-0.687
826	-0.688
827	-0.689
827	-0.678
828	-0.68
828	-0.673
829	-0.666
829	-0.65
829	-0.647
830	-0.646
830	-0.631
831	-0.625
831	-0.615
832	-0.605
832	-0.599
832	-0.59
833	-0.591
833	-0.598
834	-0.595
834	-0.592
835	-0.584
835	-0.581
835	-0.576
836	-0.572
836	-0.569
837	-0.559
837	-0.553
838	-0.542
838	-0.526
839	-0.52
839	-0.509
839	-0.498
840	-0.499
840	-0.492
841	-0.482
841	-0.476
842	-0.467
842	-0.454
842	-0.45
843	-0.447
843	-0.443
844	-0.443
844	-0.432
845	-0.418
845	-0.41
845	-0.402
846	-0.39
846	-0.382
847	-0.374
847	-0.363
848	-0.35
848	-0.336
848	-0.324
849	-0.315
849	-0.305
850	-0.297
850	-0.287
851	-0.277
851	-0.263
851	-0.256
852	-0.244
852	-0.232
853	-0.225
853	-0.214
854	-0.204
854	-0.196
854	-0.186
855	-0.177
855	-0.171
856	-0.165
856	-0.158
857	-0.153
857	-0.147
857	-0.136
858	-0.128
858	-0.123
859	-0.114
859	-0.106
860	-0.097
860	-0.087
860	-0.079
861	-0.071
861	-0.064
862	-0.058
862	-0.053
863	-0.047
863	-0.04
863	-0.035
864	-0.03
864	-0.025
865	-0.02
865	-0.016
866	-0.013
866	-0.009
866	-0.005
867	-0.002
867	0.002
868	0.004
868	0.007
869	0.011
869	0.013
869	0.015
870	0.017
870	0.019
871	0.021
871	0.022
872	0.022
872	0.023
872	0.024
873	0.024
873	0.023
874	0.023
874	0.022
875	0.022
875	0.021
875	0.021
876	0.02
876	0.02
877	0.019
877	0.018
878	0.017
878	0.017
878	0.016
879	0.015
879	0.015
880	0.014
880	0.013
881	0.013
881	0.012
881	0.012
882	0.012
882	0.012
883	0.011
883	0.011
884	0.011
884	0.011
884	0.011
885	0.011
885	0.01
886	0.01
886	0.009
887	0.008
887	0.007
887	0.006
888	0.005
888	0.005
889	0.004
889	0.003
890	0.002
890	0.002
890	0.002
891	0.002
891	0.002
892	0.003
892	0.003
893	0.003
893	0.003
893	0.003
894	0.003
894	0.003
895	0.003
895	0.003
895	0.003
896	0.004
896	0.004
897	0.004
897	0.004
898	0.005
898	0.005
898	0.005
899	0.006
899	0.006
900	0.007
900	0.007
901	0.007
901	0.007
901	0.007
902	0.007
902	0.008
903	0.007
903	0.007
904	0.006
904	0.006
904	0.006
905	0.005
905	0.005
906	0.006
906	0.006
907	0.006
907	0.007
907	0.007
908	0.008
908	0.009
909	0.009
909	0.01
910	0.01
910	0.011
910	0.012
911	0.013
911	0.014
912	0.016
912	0.017
913	0.019
913	0.02
913	0.021
914	0.022
914	0.022
915	0.022
915	0.022
916	0.022
916	0.021
916	0.02
917	0.019
917	0.019
918	0.018
918	0.017
918	0.017
919	0.017
919	0.016
920	0.016
920	0.016
921	0.016
921	0.016
921	0.016
922	0.016
922	0.015
923	0.015
923	0.015
924	0.014
924	0.014
924	0.014
925	0.014
925	0.013
926	0.013
926	0.013
927	0.013
927	0.013
927	0.013
928	0.014
928	0.014
929	0.014
929	0.015
930	0.016
930	0.017
930	0.017
931	0.018
931	0.019
932	0.019
932	0.02
933	0.02
933	0.021
933	0.021
934	0.02
934	0.02
935	0.019
935	0.018
935	0.017
936	0.016
936	0.014
937	0.013
937	0.011
938	0.01
938	0.009
938	0.008
939	0.007
939	0.007
940	0.007
940	0.007
941	0.006
941	0.006
941	0.006
942	0.006
942	0.006
943	0.007
943	0.007
944	0.007
944	0.006
944	0.006
945	0.006
945	0.006
946	0.005
946	0.004
946	0.004
947	0.004
947	0.003
948	0.003
948	0.002
949	0.002
949	0.002
949	0.003
950	0.003
950	0.003
951	0.004
951	0.004
952	0.005
952	0.006
952	0.006
953	0.007
953	0.007
954	0.007
954	0.007
955	0.008
955	0.007
955	0.007
956	0.007
956	0.007
957	0.006
957	0.005
957	0.005
958	0.004
958	0.004
959	0.004
959	0.004
960	0.003
960	0.003
960	0.003
961	0.003
961	0.003
962	0.003
962	0.003
963	0.003
963	0.003
963	0.003
964	0.003
964	0.003
965	0.003
965	0.003
966	0.003
966	0.003
966	0.004
967	0.004
967	0.004
968	0.004
968	0.004
968	0.004
969	0.003
969	0.003
970	0.002
970	0.001
971	0
971	-0
971	-0.001
972	-0.001
972	-0.001
973	-0.001
973	-0.001
974	-0.001
974	0
974	0.001
975	0.002
975	0.004
976	0.005
976	0.006
976	0.007
977	0.008
977	0.008
978	0.008
978	0.009
979	0.009
979	0.008
979	0.008
980	0.007
980	0.007
981	0.006
981	0.006
982	0.006
982	0.006
982	0.006
983	0.006
983	0.006
984	0.006
984	0.006
984	0.006
985	0.006
985	0.006
986	0.005
986	0.005
987	0.004
987	0.003
987	0.003
988	0.002
988	0.002
989	0.001
989	0
990	-0
990	-0.001
990	-0.002
991	-0.002
991	-0.002
992	-0.002
992	-0.002
992	-0.002
993	-0.002
993	-0.002
994	-0.002
994	-0.003
995	-0.003
995	-0.003
995	-0.003
996	-0.004
996	-0.004
997	-0.005
997	-0.005
997	-0.005
998	-0.005
998	-0.004
999	-0.004
999	-0.004
1000	-0.004
1000	-0.004
1000	-0.003
1001	-0.003
1001	-0.003
1002	-0.002
1002	-0.002
1003	-0.002
1003	-0.002
1003	-0.002
1004	-0.003
1004	-0.003
1005	-0.004
1005	-0.005
1005	-0.005
1006	-0.006
1006	-0.007
1007	-0.007
1007	-0.008
1008	-0.008
1008	-0.009
1008	-0.009
1009	-0.008
1009	-0.008
1010	-0.008
1010	-0.007
1010	-0.007
1011	-0.007
1011	-0.007
1012	-0.006
1012	-0.006
1013	-0.005
1013	-0.005
1013	-0.005
1014	-0.005
1014	-0.004
1015	-0.004
1015	-0.004
1016	-0.003
1016	-0.003
1016	-0.003
1017	-0.003
1017	-0.003
1018	-0.002
1018	-0.002
1018	-0.002
1019	-0.003
1019	-0.003
1020	-0.003
1020	-0.004
1021	-0.004
1021	-0.005
1021	-0.005
1022	-0.006
1022	-0.007
1023	-0.007
1023	-0.008
1023	-0.009
1024	-0.01
1024	-0.01
1025	-0.011
1025	-0.011
1026	-0.012
1026	-0.012
1026	-0.013
1027	-0.013
1027	-0.013
1028	-0.013
1028	-0.012
1028	-0.012
1029	-0.012
1029	-0.012
1030	-0.012
1030	-0.013
1031	-0.012
1031	-0.012
1031	-0.012
1032	-0.012
1032	-0.012
1033	-0.013
1033	-0.013
1033	-0.013
1034	-0.013
1034	-0.013
1035	-0.013
1035	-0.013
1036	-0.013
1036	-0.013
1036	-0.013
1037	-0.013
1037	-0.012
1038	-0.012
1038	-0.011
1039	-0.01
1039	-0.01
1039	-0.009
1040	-0.009
1040	-0.008
1041	-0.008
1041	-0.008
1041	-0.009
1042	-0.009
1042	-0.01
1043	-0.011
1043	-0.012
1044	-0.012
1044	-0.014
1044	-0.015
1045	-0.016
1045	-0.017
1046	-0.017
1046	-0.018
1046	-0.018
1047	-0.018
1047	-0.018
1048	-0.018
1048	-0.018
1049	-0.018
1049	-0.019
1049	-0.019
1050	-0.019
1050	-0.02
1051	-0.021
1051	-0.022
1051	-0.022
1052	-0.023
1052	-0.024
1053	-0.024
1053	-0.024
1053	-0.024
1054	-0.025
1054	-0.025
1055	-0.024
1055	-0.024
1056	-0.024
1056	-0.024
1056	-0.025
1057	-0.025
1057	-0.025
1058	-0.026
1058	-0.026
1058	-0.026
1059	-0.026
1059	-0.026
1060	-0.027
1060	-0.026
1061	-0.026
1061	-0.026
1061	-0.025
1062	-0.025
1062	-0.025
1063	-0.025
1063	-0.025
1063	-0.025
1064	-0.025
1064	-0.025
1065	-0.025
1065	-0.026
1066	-0.026
1066	-0.026
1066	-0.027
1067	-0.027
1067	-0.027
1068	-0.028
1068	-0.028
1068	-0.029
1069	-0.029
1069	-0.029
1070	-0.03
1070	-0.03
1071	-0.03
1071	-0.03
1071	-0.031
1072	-0.031
1072	-0.03
1073	-0.03
1073	-0.03
1073	-0.029
1074	-0.029
1074	-0.029
1075	-0.029
1075	-0.03
1076	-0.03
1076	-0.03
1076	-0.031
1077	-0.032
1077	-0.033
1078	-0.034
1078	-0.035
1078	-0.036
1079	-0.036
1079	-0.036
1080	-0.037
1080	-0.038
1080	-0.039
1081	-0.04
1081	-0.04
1082	-0.041
1082	-0.041
1083	-0.042
1083	-0.042
1083	-0.043
1084	-0.044
1084	-0.044
1085	-0.044
1085	-0.044
1085	-0.044
1086	-0.044
1086	-0.045
1087	-0.045
1087	-0.045
1088	-0.046
1088	-0.046
1088	-0.047
1089	-0.048
1089	-0.049
1090	-0.05
1090	-0.051
1090	-0.052
1091	-0.053
1091	-0.053
1092	-0.054
1092	-0.054
1092	-0.056
1093	-0.056
1093	-0.056
1094	-0.057
1094	-0.058
1095	-0.059
1095	-0.059
1095	-0.06
1096	-0.061
1096	-0.062
1097	-0.063
1097	-0.065
1097	-0.065
1098	-0.067
1098	-0.069
1099	-0.07
1099	-0.071
1100	-0.072
1100	-0.073
1100	-0.076
1101	-0.078
1101	-0.08
1102	-0.081
1102	-0.084
1102	-0.084
1103	-0.086
1103	-0.089
1104	-0.092
1104	-0.095
1104	-0.097
1105	-0.098
1105	-0.1
1106	-0.104
1106	-0.106
1107	-0.111
1107	-0.116
1107	-0.12
1108	-0.122
1108	-0.122
1109	-0.125
1109	-0.128
1109	-0.131
1110	-0.134
1110	-0.135
1111	-0.146
1111	-0.145
