Data from 3.5A_17C_Absorbance__765__00767.txt Node

Date: Tue Jun 20 15:24:12 CEST 2023
User: Marek
Spectrometer: MAYP115816
Trigger mode: 0
Integration Time (sec): 2.200000E-1
Scans to average: 10
Electric dark correction enabled: true
Nonlinearity correction enabled: true
Boxcar width: 5
XAxis mode: Wavelengths
Number of Pixels in Spectrum: 2068
>>>>>Begin Spectral Data<<<<<
199	-0.712
199	-0.692
200	-0.655
200	-0.598
201	-0.573
201	-0.567
202	-0.548
202	-0.541
203	-0.54
203	-0.533
204	-0.515
204	-0.498
205	-0.477
205	-0.467
205	-0.476
206	-0.477
206	-0.472
207	-0.467
207	-0.474
208	-0.477
208	-0.481
209	-0.481
209	-0.489
210	-0.501
210	-0.507
211	-0.503
211	-0.507
212	-0.514
212	-0.521
213	-0.519
213	-0.514
213	-0.512
214	-0.519
214	-0.519
215	-0.516
215	-0.521
216	-0.532
216	-0.536
217	-0.534
217	-0.535
218	-0.541
218	-0.54
219	-0.548
219	-0.552
220	-0.555
220	-0.561
221	-0.562
221	-0.561
221	-0.552
222	-0.554
222	-0.551
223	-0.548
223	-0.551
224	-0.551
224	-0.547
225	-0.544
225	-0.544
226	-0.545
226	-0.544
227	-0.553
227	-0.563
228	-0.568
228	-0.577
229	-0.582
229	-0.578
229	-0.579
230	-0.575
230	-0.574
231	-0.571
231	-0.565
232	-0.568
232	-0.562
233	-0.562
233	-0.548
234	-0.547
234	-0.545
235	-0.549
235	-0.559
236	-0.566
236	-0.567
236	-0.565
237	-0.563
237	-0.564
238	-0.564
238	-0.566
239	-0.568
239	-0.578
240	-0.572
240	-0.571
241	-0.568
241	-0.568
242	-0.574
242	-0.583
243	-0.582
243	-0.584
243	-0.588
244	-0.585
244	-0.585
245	-0.585
245	-0.587
246	-0.596
246	-0.601
247	-0.607
247	-0.592
248	-0.591
248	-0.596
249	-0.603
249	-0.605
250	-0.604
250	-0.614
250	-0.611
251	-0.611
251	-0.609
252	-0.61
252	-0.624
253	-0.621
253	-0.631
254	-0.634
254	-0.636
255	-0.646
255	-0.644
256	-0.646
256	-0.659
257	-0.668
257	-0.664
258	-0.664
258	-0.671
258	-0.67
259	-0.662
259	-0.679
260	-0.677
260	-0.666
261	-0.677
261	-0.663
262	-0.669
262	-0.667
263	-0.658
263	-0.663
264	-0.669
264	-0.671
265	-0.661
265	-0.664
265	-0.673
266	-0.664
266	-0.663
267	-0.66
267	-0.676
268	-0.684
268	-0.678
269	-0.672
269	-0.687
270	-0.691
270	-0.689
271	-0.703
271	-0.714
272	-0.716
272	-0.72
272	-0.713
273	-0.724
273	-0.739
274	-0.73
274	-0.724
275	-0.721
275	-0.711
276	-0.712
276	-0.716
277	-0.719
277	-0.716
278	-0.722
278	-0.72
278	-0.707
279	-0.716
279	-0.73
280	-0.732
280	-0.743
281	-0.738
281	-0.731
282	-0.737
282	-0.731
283	-0.722
283	-0.739
284	-0.752
284	-0.761
285	-0.741
285	-0.747
285	-0.739
286	-0.744
286	-0.759
287	-0.753
287	-0.751
288	-0.751
288	-0.733
289	-0.731
289	-0.74
290	-0.749
290	-0.738
291	-0.74
291	-0.736
292	-0.718
292	-0.718
292	-0.723
293	-0.71
293	-0.705
294	-0.706
294	-0.693
295	-0.676
295	-0.689
296	-0.701
296	-0.695
297	-0.684
297	-0.686
298	-0.682
298	-0.7
298	-0.703
299	-0.684
299	-0.676
300	-0.674
300	-0.653
301	-0.634
301	-0.636
302	-0.646
302	-0.629
303	-0.624
303	-0.612
304	-0.596
304	-0.599
305	-0.589
305	-0.597
305	-0.613
306	-0.597
306	-0.597
307	-0.589
307	-0.602
308	-0.604
308	-0.599
309	-0.602
309	-0.597
310	-0.598
310	-0.593
311	-0.581
311	-0.6
311	-0.588
312	-0.585
312	-0.575
313	-0.565
313	-0.567
314	-0.572
314	-0.571
315	-0.568
315	-0.562
316	-0.555
316	-0.545
317	-0.538
317	-0.535
318	-0.528
318	-0.525
318	-0.515
319	-0.503
319	-0.495
320	-0.492
320	-0.49
321	-0.485
321	-0.487
322	-0.479
322	-0.472
323	-0.472
323	-0.464
324	-0.462
324	-0.45
324	-0.44
325	-0.422
325	-0.404
326	-0.396
326	-0.371
327	-0.359
327	-0.339
328	-0.309
328	-0.286
329	-0.258
329	-0.232
330	-0.205
330	-0.173
330	-0.139
331	-0.103
331	-0.07
332	-0.036
332	-0.003
333	0.025
333	0.057
334	0.084
334	0.107
335	0.132
335	0.151
336	0.171
336	0.19
336	0.205
337	0.22
337	0.234
338	0.246
338	0.254
339	0.266
339	0.276
340	0.283
340	0.29
341	0.296
341	0.302
342	0.307
342	0.313
342	0.317
343	0.321
343	0.326
344	0.328
344	0.331
345	0.334
345	0.336
346	0.338
346	0.339
347	0.341
347	0.342
348	0.343
348	0.345
348	0.345
349	0.346
349	0.347
350	0.347
350	0.348
351	0.349
351	0.349
352	0.349
352	0.349
353	0.349
353	0.349
354	0.349
354	0.349
354	0.349
355	0.349
355	0.349
356	0.349
356	0.349
357	0.349
357	0.349
358	0.348
358	0.349
359	0.348
359	0.348
360	0.348
360	0.348
360	0.348
361	0.348
361	0.347
362	0.347
362	0.347
363	0.347
363	0.347
364	0.347
364	0.347
365	0.347
365	0.347
366	0.347
366	0.346
366	0.346
367	0.346
367	0.346
368	0.345
368	0.345
369	0.345
369	0.345
370	0.344
370	0.344
371	0.344
371	0.344
372	0.343
372	0.343
372	0.343
373	0.343
373	0.343
374	0.343
374	0.343
375	0.342
375	0.342
376	0.342
376	0.341
377	0.341
377	0.341
378	0.34
378	0.34
378	0.339
379	0.339
379	0.339
380	0.339
380	0.338
381	0.338
381	0.338
382	0.337
382	0.337
383	0.336
383	0.336
383	0.336
384	0.335
384	0.335
385	0.334
385	0.334
386	0.334
386	0.333
387	0.333
387	0.333
388	0.332
388	0.332
389	0.332
389	0.332
389	0.332
390	0.332
390	0.331
391	0.331
391	0.331
392	0.331
392	0.331
393	0.33
393	0.33
394	0.33
394	0.329
394	0.329
395	0.328
395	0.328
396	0.327
396	0.327
397	0.326
397	0.326
398	0.326
398	0.325
399	0.325
399	0.325
400	0.324
400	0.324
400	0.324
401	0.324
401	0.323
402	0.323
402	0.323
403	0.323
403	0.322
404	0.322
404	0.321
405	0.321
405	0.32
405	0.32
406	0.319
406	0.319
407	0.319
407	0.319
408	0.318
408	0.318
409	0.318
409	0.318
410	0.318
410	0.318
411	0.318
411	0.318
411	0.318
412	0.318
412	0.317
413	0.316
413	0.316
414	0.316
414	0.315
415	0.315
415	0.315
416	0.314
416	0.314
416	0.314
417	0.314
417	0.313
418	0.314
418	0.314
419	0.314
419	0.313
420	0.313
420	0.313
421	0.313
421	0.313
421	0.313
422	0.313
422	0.312
423	0.312
423	0.312
424	0.311
424	0.311
425	0.311
425	0.311
426	0.311
426	0.311
427	0.311
427	0.311
427	0.311
428	0.311
428	0.311
429	0.311
429	0.31
430	0.31
430	0.31
431	0.309
431	0.309
432	0.309
432	0.308
432	0.308
433	0.308
433	0.308
434	0.308
434	0.309
435	0.309
435	0.309
436	0.309
436	0.309
437	0.309
437	0.309
437	0.309
438	0.309
438	0.309
439	0.308
439	0.308
440	0.308
440	0.308
441	0.308
441	0.308
442	0.308
442	0.308
442	0.308
443	0.307
443	0.308
444	0.308
444	0.308
445	0.308
445	0.308
446	0.308
446	0.308
447	0.308
447	0.308
447	0.308
448	0.308
448	0.308
449	0.308
449	0.308
450	0.308
450	0.308
451	0.308
451	0.308
452	0.308
452	0.308
452	0.308
453	0.308
453	0.308
454	0.308
454	0.309
455	0.309
455	0.309
456	0.309
456	0.309
457	0.31
457	0.309
458	0.309
458	0.309
458	0.31
459	0.31
459	0.31
460	0.309
460	0.309
461	0.31
461	0.31
462	0.31
462	0.311
463	0.312
463	0.312
463	0.313
464	0.313
464	0.314
465	0.314
465	0.314
466	0.315
466	0.315
467	0.316
467	0.316
467	0.316
468	0.316
468	0.316
469	0.317
469	0.318
470	0.319
470	0.319
471	0.32
471	0.32
472	0.321
472	0.322
472	0.322
473	0.323
473	0.324
474	0.325
474	0.325
475	0.326
475	0.327
476	0.328
476	0.328
477	0.33
477	0.331
477	0.331
478	0.332
478	0.333
479	0.334
479	0.335
480	0.336
480	0.337
481	0.338
481	0.339
482	0.34
482	0.341
482	0.343
483	0.345
483	0.346
484	0.348
484	0.349
485	0.35
485	0.351
486	0.352
486	0.354
487	0.355
487	0.357
487	0.358
488	0.359
488	0.361
489	0.363
489	0.365
490	0.367
490	0.369
491	0.371
491	0.373
492	0.375
492	0.376
492	0.378
493	0.38
493	0.381
494	0.384
494	0.386
495	0.388
495	0.39
496	0.393
496	0.395
496	0.397
497	0.4
497	0.403
498	0.405
498	0.408
499	0.41
499	0.413
500	0.417
500	0.42
501	0.422
501	0.425
501	0.428
502	0.43
502	0.433
503	0.436
503	0.439
504	0.441
504	0.444
505	0.447
505	0.45
506	0.452
506	0.455
506	0.459
507	0.461
507	0.464
508	0.468
508	0.471
509	0.473
509	0.476
510	0.479
510	0.482
511	0.484
511	0.487
511	0.49
512	0.493
512	0.495
513	0.498
513	0.5
514	0.503
514	0.507
515	0.509
515	0.512
515	0.514
516	0.517
516	0.519
517	0.522
517	0.524
518	0.525
518	0.527
519	0.528
519	0.53
520	0.531
520	0.533
520	0.535
521	0.536
521	0.538
522	0.539
522	0.54
523	0.542
523	0.543
524	0.544
524	0.545
524	0.546
525	0.546
525	0.546
526	0.547
526	0.547
527	0.548
527	0.548
528	0.548
528	0.548
529	0.548
529	0.547
529	0.547
530	0.546
530	0.546
531	0.546
531	0.545
532	0.544
532	0.543
533	0.542
533	0.541
533	0.54
534	0.539
534	0.537
535	0.536
535	0.535
536	0.533
536	0.531
537	0.529
537	0.527
538	0.525
538	0.523
538	0.521
539	0.519
539	0.516
540	0.514
540	0.511
541	0.509
541	0.506
542	0.503
542	0.5
542	0.497
543	0.494
543	0.491
544	0.489
544	0.486
545	0.483
545	0.48
546	0.477
546	0.474
547	0.471
547	0.467
547	0.464
548	0.461
548	0.458
549	0.454
549	0.451
550	0.448
550	0.444
551	0.44
551	0.436
551	0.432
552	0.429
552	0.426
553	0.422
553	0.419
554	0.415
554	0.411
555	0.407
555	0.404
556	0.4
556	0.397
556	0.393
557	0.39
557	0.387
558	0.383
558	0.38
559	0.377
559	0.373
560	0.37
560	0.367
560	0.364
561	0.362
561	0.359
562	0.356
562	0.354
563	0.351
563	0.348
564	0.345
564	0.343
564	0.34
565	0.338
565	0.335
566	0.332
566	0.329
567	0.327
567	0.324
568	0.321
568	0.318
568	0.315
569	0.312
569	0.308
570	0.305
570	0.301
571	0.299
571	0.296
572	0.293
572	0.29
573	0.288
573	0.285
573	0.283
574	0.28
574	0.279
575	0.277
575	0.276
576	0.274
576	0.271
577	0.268
577	0.267
577	0.266
578	0.264
578	0.263
579	0.262
579	0.261
580	0.258
580	0.255
581	0.252
581	0.251
581	0.25
582	0.249
582	0.247
583	0.246
583	0.243
584	0.24
584	0.236
585	0.235
585	0.233
585	0.232
586	0.23
586	0.228
587	0.225
587	0.223
588	0.22
588	0.219
589	0.218
589	0.217
590	0.216
590	0.214
590	0.214
591	0.214
591	0.212
592	0.211
592	0.209
593	0.208
593	0.207
594	0.206
594	0.205
594	0.204
595	0.203
595	0.201
596	0.2
596	0.2
597	0.2
597	0.199
598	0.198
598	0.197
598	0.196
599	0.195
599	0.194
600	0.193
600	0.192
601	0.191
601	0.19
602	0.188
602	0.187
602	0.186
603	0.185
603	0.184
604	0.183
604	0.183
605	0.182
605	0.182
606	0.18
606	0.179
606	0.178
607	0.177
607	0.176
608	0.175
608	0.174
609	0.173
609	0.173
610	0.171
610	0.17
610	0.169
611	0.169
611	0.169
612	0.168
612	0.168
613	0.168
613	0.168
614	0.166
614	0.165
614	0.164
615	0.163
615	0.162
616	0.162
616	0.161
617	0.16
617	0.159
618	0.158
618	0.157
618	0.156
619	0.155
619	0.155
620	0.155
620	0.154
621	0.153
621	0.152
622	0.151
622	0.15
622	0.149
623	0.148
623	0.148
624	0.148
624	0.146
625	0.145
625	0.145
626	0.144
626	0.143
626	0.143
627	0.142
627	0.141
628	0.14
628	0.138
629	0.137
629	0.135
630	0.133
630	0.131
630	0.13
631	0.128
631	0.126
632	0.125
632	0.123
633	0.122
633	0.12
634	0.119
634	0.117
634	0.116
635	0.115
635	0.113
636	0.112
636	0.11
637	0.108
637	0.106
638	0.105
638	0.103
638	0.101
639	0.098
639	0.096
640	0.093
640	0.091
641	0.088
641	0.086
642	0.083
642	0.081
642	0.078
643	0.075
643	0.071
644	0.068
644	0.064
645	0.061
645	0.057
646	0.053
646	0.048
646	0.043
647	0.037
647	0.032
648	0.027
648	0.022
649	0.017
649	0.012
650	0.007
650	0.001
650	-0.004
651	-0.011
651	-0.02
652	-0.029
652	-0.039
653	-0.049
653	-0.057
653	-0.053
654	-0.038
654	-0.035
655	-0.04
655	-0.044
656	-0.049
656	-0.054
657	-0.058
657	-0.062
657	-0.068
658	-0.073
658	-0.099
659	-0.169
659	-0.241
660	-0.275
660	-0.297
661	-0.32
661	-0.347
661	-0.374
662	-0.399
662	-0.425
663	-0.455
663	-0.489
664	-0.521
664	-0.558
665	-0.599
665	-0.642
665	-0.684
666	-0.731
666	-0.782
667	-0.834
667	-0.895
668	-0.951
668	-1.018
669	-1.083
669	-1.154
669	-1.231
670	-1.311
670	-1.421
671	-1.602
671	-1.947
672	-2.246
672	-2.429
672	-2.561
673	-2.664
673	-2.749
674	-2.798
674	-2.812
675	-2.828
675	-2.833
676	-2.831
676	-2.792
676	-2.717
677	-2.625
677	-2.51
678	-2.333
678	-2.01
679	-1.633
679	-1.47
680	-1.37
680	-1.295
680	-1.23
681	-1.185
681	-1.133
682	-1.092
682	-1.051
683	-1.009
683	-0.986
684	-0.96
684	-0.942
684	-0.92
685	-0.902
685	-0.893
686	-0.871
686	-0.858
687	-0.849
687	-0.839
687	-0.84
688	-0.824
688	-0.817
689	-0.822
689	-0.82
690	-0.806
690	-0.797
691	-0.793
691	-0.797
691	-0.797
692	-0.797
692	-0.793
693	-0.801
693	-0.81
694	-0.789
694	-0.787
695	-0.791
695	-0.784
695	-0.792
696	-0.8
696	-0.795
697	-0.788
697	-0.783
698	-0.778
698	-0.774
698	-0.787
699	-0.785
699	-0.786
700	-0.807
700	-0.803
701	-0.789
701	-0.783
702	-0.785
702	-0.783
702	-0.783
703	-0.772
703	-0.76
704	-0.771
704	-0.774
705	-0.763
705	-0.759
705	-0.753
706	-0.746
706	-0.742
707	-0.755
707	-0.757
708	-0.756
708	-0.756
709	-0.755
709	-0.751
709	-0.746
710	-0.757
710	-0.76
711	-0.76
711	-0.76
712	-0.751
712	-0.749
713	-0.752
713	-0.751
713	-0.73
714	-0.732
714	-0.735
715	-0.727
715	-0.736
716	-0.752
716	-0.761
716	-0.762
717	-0.768
717	-0.76
718	-0.754
718	-0.756
719	-0.753
719	-0.746
720	-0.741
720	-0.735
720	-0.727
721	-0.717
721	-0.72
722	-0.719
722	-0.716
723	-0.733
723	-0.745
723	-0.753
724	-0.752
724	-0.756
725	-0.748
725	-0.755
726	-0.757
726	-0.75
727	-0.75
727	-0.759
727	-0.747
728	-0.734
728	-0.731
729	-0.732
729	-0.738
730	-0.745
730	-0.733
730	-0.74
731	-0.741
731	-0.74
732	-0.743
732	-0.739
733	-0.754
733	-0.76
734	-0.77
734	-0.76
734	-0.743
735	-0.735
735	-0.73
736	-0.729
736	-0.725
737	-0.724
737	-0.715
737	-0.707
738	-0.693
738	-0.682
739	-0.683
739	-0.685
740	-0.7
740	-0.7
741	-0.713
741	-0.722
741	-0.731
742	-0.738
742	-0.753
743	-0.76
743	-0.762
744	-0.765
744	-0.772
744	-0.765
745	-0.773
745	-0.758
746	-0.754
746	-0.748
747	-0.751
747	-0.741
748	-0.742
748	-0.747
748	-0.75
749	-0.742
749	-0.747
750	-0.739
750	-0.742
751	-0.741
751	-0.737
751	-0.747
752	-0.752
752	-0.757
753	-0.758
753	-0.748
754	-0.769
754	-0.77
754	-0.778
755	-0.778
755	-0.77
756	-0.773
756	-0.756
757	-0.748
757	-0.735
758	-0.735
758	-0.735
758	-0.732
759	-0.735
759	-0.734
760	-0.731
760	-0.733
761	-0.728
761	-0.734
761	-0.734
762	-0.741
762	-0.744
763	-0.746
763	-0.748
764	-0.746
764	-0.743
764	-0.75
765	-0.749
765	-0.757
766	-0.76
766	-0.76
767	-0.776
767	-0.769
768	-0.767
768	-0.76
768	-0.755
769	-0.759
769	-0.767
770	-0.778
770	-0.779
771	-0.776
771	-0.775
771	-0.78
772	-0.784
772	-0.805
773	-0.806
773	-0.807
774	-0.805
774	-0.786
775	-0.772
775	-0.772
775	-0.775
776	-0.785
776	-0.781
777	-0.78
777	-0.761
778	-0.77
778	-0.779
778	-0.779
779	-0.788
779	-0.802
780	-0.799
780	-0.809
781	-0.8
781	-0.79
781	-0.805
782	-0.827
782	-0.828
783	-0.825
783	-0.833
784	-0.837
784	-0.833
784	-0.852
785	-0.845
785	-0.855
786	-0.859
786	-0.852
787	-0.841
787	-0.849
788	-0.844
788	-0.837
788	-0.836
789	-0.835
789	-0.825
790	-0.823
790	-0.807
791	-0.814
791	-0.807
791	-0.801
792	-0.794
792	-0.798
793	-0.802
793	-0.793
794	-0.787
794	-0.781
794	-0.789
795	-0.812
795	-0.799
796	-0.805
796	-0.802
797	-0.797
797	-0.786
797	-0.781
798	-0.8
798	-0.804
799	-0.803
799	-0.789
800	-0.782
800	-0.79
801	-0.788
801	-0.791
801	-0.79
802	-0.789
802	-0.788
803	-0.783
803	-0.774
804	-0.78
804	-0.786
804	-0.771
805	-0.755
805	-0.748
806	-0.748
806	-0.742
807	-0.742
807	-0.74
807	-0.722
808	-0.72
808	-0.713
809	-0.709
809	-0.71
810	-0.711
810	-0.707
810	-0.704
811	-0.709
811	-0.701
812	-0.694
812	-0.697
813	-0.7
813	-0.701
813	-0.697
814	-0.697
814	-0.701
815	-0.693
815	-0.689
816	-0.685
816	-0.702
817	-0.716
817	-0.719
817	-0.73
818	-0.724
818	-0.722
819	-0.731
819	-0.733
820	-0.741
820	-0.74
820	-0.737
821	-0.734
821	-0.73
822	-0.728
822	-0.715
823	-0.727
823	-0.725
823	-0.719
824	-0.715
824	-0.726
825	-0.725
825	-0.724
826	-0.719
826	-0.713
826	-0.713
827	-0.713
827	-0.701
828	-0.702
828	-0.7
829	-0.695
829	-0.68
829	-0.676
830	-0.675
830	-0.661
831	-0.655
831	-0.645
832	-0.636
832	-0.63
832	-0.622
833	-0.621
833	-0.625
834	-0.622
834	-0.618
835	-0.611
835	-0.611
835	-0.606
836	-0.603
836	-0.602
837	-0.593
837	-0.584
838	-0.571
838	-0.554
839	-0.548
839	-0.536
839	-0.529
840	-0.528
840	-0.518
841	-0.507
841	-0.499
842	-0.491
842	-0.48
842	-0.476
843	-0.473
843	-0.467
844	-0.464
844	-0.45
845	-0.437
845	-0.43
845	-0.42
846	-0.408
846	-0.4
847	-0.391
847	-0.381
848	-0.368
848	-0.354
848	-0.342
849	-0.332
849	-0.322
850	-0.313
850	-0.304
851	-0.292
851	-0.276
851	-0.267
852	-0.252
852	-0.24
853	-0.231
853	-0.221
854	-0.211
854	-0.201
854	-0.19
855	-0.18
855	-0.174
856	-0.168
856	-0.161
857	-0.155
857	-0.148
857	-0.138
858	-0.13
858	-0.123
859	-0.113
859	-0.104
860	-0.094
860	-0.082
860	-0.074
861	-0.065
861	-0.057
862	-0.05
862	-0.043
863	-0.037
863	-0.029
863	-0.025
864	-0.02
864	-0.015
865	-0.01
865	-0.005
866	-0.001
866	0.003
866	0.007
867	0.011
867	0.015
868	0.018
868	0.022
869	0.026
869	0.028
869	0.031
870	0.033
870	0.035
871	0.037
871	0.038
872	0.038
872	0.039
872	0.039
873	0.039
873	0.039
874	0.039
874	0.039
875	0.038
875	0.038
875	0.037
876	0.037
876	0.037
877	0.036
877	0.035
878	0.035
878	0.034
878	0.033
879	0.033
879	0.032
880	0.031
880	0.03
881	0.029
881	0.029
881	0.028
882	0.028
882	0.027
883	0.026
883	0.026
884	0.026
884	0.026
884	0.026
885	0.026
885	0.026
886	0.026
886	0.025
887	0.025
887	0.024
887	0.023
888	0.023
888	0.022
889	0.021
889	0.02
890	0.019
890	0.018
890	0.018
891	0.018
891	0.018
892	0.018
892	0.018
893	0.019
893	0.018
893	0.018
894	0.018
894	0.018
895	0.018
895	0.018
895	0.018
896	0.019
896	0.019
897	0.02
897	0.02
898	0.02
898	0.021
898	0.021
899	0.021
899	0.022
900	0.022
900	0.022
901	0.022
901	0.022
901	0.022
902	0.022
902	0.023
903	0.023
903	0.022
904	0.022
904	0.021
904	0.021
905	0.021
905	0.021
906	0.021
906	0.022
907	0.022
907	0.022
907	0.022
908	0.023
908	0.024
909	0.024
909	0.025
910	0.025
910	0.026
910	0.027
911	0.027
911	0.029
912	0.03
912	0.032
913	0.033
913	0.034
913	0.035
914	0.036
914	0.036
915	0.036
915	0.036
916	0.036
916	0.035
916	0.034
917	0.034
917	0.033
918	0.032
918	0.032
918	0.031
919	0.031
919	0.031
920	0.03
920	0.03
921	0.03
921	0.03
921	0.03
922	0.029
922	0.029
923	0.029
923	0.029
924	0.028
924	0.028
924	0.028
925	0.027
925	0.027
926	0.027
926	0.027
927	0.027
927	0.027
927	0.027
928	0.027
928	0.028
929	0.028
929	0.029
930	0.029
930	0.03
930	0.031
931	0.031
931	0.032
932	0.032
932	0.033
933	0.033
933	0.033
933	0.033
934	0.033
934	0.032
935	0.031
935	0.03
935	0.029
936	0.027
936	0.026
937	0.024
937	0.023
938	0.022
938	0.02
938	0.02
939	0.019
939	0.019
940	0.019
940	0.018
941	0.018
941	0.018
941	0.018
942	0.018
942	0.018
943	0.018
943	0.018
944	0.017
944	0.017
944	0.017
945	0.017
945	0.017
946	0.017
946	0.016
946	0.016
947	0.016
947	0.015
948	0.015
948	0.015
949	0.015
949	0.015
949	0.015
950	0.015
950	0.015
951	0.016
951	0.016
952	0.016
952	0.017
952	0.018
953	0.018
953	0.019
954	0.019
954	0.019
955	0.019
955	0.019
955	0.02
956	0.019
956	0.019
957	0.018
957	0.018
957	0.017
958	0.016
958	0.016
959	0.016
959	0.015
960	0.015
960	0.014
960	0.015
961	0.014
961	0.014
962	0.014
962	0.014
963	0.014
963	0.014
963	0.015
964	0.014
964	0.014
965	0.015
965	0.015
966	0.015
966	0.015
966	0.016
967	0.016
967	0.016
968	0.015
968	0.015
968	0.015
969	0.015
969	0.014
970	0.013
970	0.013
971	0.012
971	0.012
971	0.011
972	0.011
972	0.011
973	0.011
973	0.011
974	0.012
974	0.012
974	0.013
975	0.014
975	0.015
976	0.016
976	0.017
976	0.018
977	0.018
977	0.019
978	0.019
978	0.019
979	0.018
979	0.018
979	0.018
980	0.017
980	0.017
981	0.016
981	0.016
982	0.016
982	0.016
982	0.016
983	0.016
983	0.016
984	0.015
984	0.015
984	0.015
985	0.016
985	0.015
986	0.015
986	0.015
987	0.014
987	0.013
987	0.013
988	0.012
988	0.011
989	0.011
989	0.01
990	0.009
990	0.008
990	0.008
991	0.008
991	0.008
992	0.008
992	0.008
992	0.008
993	0.008
993	0.008
994	0.007
994	0.007
995	0.007
995	0.007
995	0.007
996	0.007
996	0.006
997	0.005
997	0.005
997	0.005
998	0.005
998	0.005
999	0.006
999	0.005
1000	0.005
1000	0.005
1000	0.006
1001	0.006
1001	0.006
1002	0.006
1002	0.006
1003	0.006
1003	0.006
1003	0.006
1004	0.006
1004	0.005
1005	0.005
1005	0.004
1005	0.003
1006	0.003
1006	0.002
1007	0.002
1007	0.002
1008	0.002
1008	0.001
1008	0.001
1009	0.001
1009	0.002
1010	0.002
1010	0.002
1010	0.003
1011	0.003
1011	0.003
1012	0.004
1012	0.004
1013	0.005
1013	0.005
1013	0.005
1014	0.005
1014	0.005
1015	0.005
1015	0.006
1016	0.006
1016	0.006
1016	0.006
1017	0.006
1017	0.006
1018	0.006
1018	0.006
1018	0.006
1019	0.006
1019	0.005
1020	0.005
1020	0.004
1021	0.004
1021	0.003
1021	0.003
1022	0.002
1022	0.001
1023	0
1023	-0
1023	-0.001
1024	-0.001
1024	-0.001
1025	-0.002
1025	-0.002
1026	-0.002
1026	-0.002
1026	-0.003
1027	-0.003
1027	-0.003
1028	-0.003
1028	-0.002
1028	-0.002
1029	-0.003
1029	-0.002
1030	-0.003
1030	-0.003
1031	-0.003
1031	-0.003
1031	-0.003
1032	-0.003
1032	-0.003
1033	-0.004
1033	-0.004
1033	-0.004
1034	-0.004
1034	-0.004
1035	-0.004
1035	-0.005
1036	-0.005
1036	-0.005
1036	-0.005
1037	-0.005
1037	-0.004
1038	-0.004
1038	-0.003
1039	-0.002
1039	-0.001
1039	-0
1040	0
1040	0.001
1041	0.001
1041	0
1041	0
1042	-0.001
1042	-0.001
1043	-0.002
1043	-0.003
1044	-0.004
1044	-0.005
1044	-0.006
1045	-0.007
1045	-0.008
1046	-0.009
1046	-0.009
1046	-0.01
1047	-0.01
1047	-0.01
1048	-0.01
1048	-0.01
1049	-0.01
1049	-0.011
1049	-0.011
1050	-0.011
1050	-0.012
1051	-0.013
1051	-0.014
1051	-0.014
1052	-0.015
1052	-0.016
1053	-0.016
1053	-0.017
1053	-0.017
1054	-0.017
1054	-0.017
1055	-0.017
1055	-0.016
1056	-0.017
1056	-0.017
1056	-0.017
1057	-0.017
1057	-0.018
1058	-0.018
1058	-0.018
1058	-0.018
1059	-0.018
1059	-0.019
1060	-0.019
1060	-0.019
1061	-0.019
1061	-0.018
1061	-0.018
1062	-0.017
1062	-0.017
1063	-0.017
1063	-0.018
1063	-0.018
1064	-0.018
1064	-0.018
1065	-0.018
1065	-0.018
1066	-0.019
1066	-0.019
1066	-0.019
1067	-0.02
1067	-0.02
1068	-0.02
1068	-0.021
1068	-0.021
1069	-0.022
1069	-0.022
1070	-0.023
1070	-0.023
1071	-0.024
1071	-0.024
1071	-0.025
1072	-0.025
1072	-0.024
1073	-0.024
1073	-0.024
1073	-0.023
1074	-0.023
1074	-0.023
1075	-0.023
1075	-0.023
1076	-0.024
1076	-0.024
1076	-0.025
1077	-0.026
1077	-0.027
1078	-0.028
1078	-0.029
1078	-0.029
1079	-0.03
1079	-0.03
1080	-0.031
1080	-0.031
1080	-0.033
1081	-0.033
1081	-0.034
1082	-0.034
1082	-0.035
1083	-0.036
1083	-0.037
1083	-0.038
1084	-0.038
1084	-0.039
1085	-0.039
1085	-0.039
1085	-0.039
1086	-0.04
1086	-0.04
1087	-0.041
1087	-0.041
1088	-0.042
1088	-0.042
1088	-0.043
1089	-0.044
1089	-0.045
1090	-0.045
1090	-0.047
1090	-0.049
1091	-0.049
1091	-0.049
1092	-0.051
1092	-0.051
1092	-0.052
1093	-0.053
1093	-0.054
1094	-0.054
1094	-0.055
1095	-0.056
1095	-0.057
1095	-0.057
1096	-0.059
1096	-0.06
1097	-0.061
1097	-0.063
1097	-0.064
1098	-0.065
1098	-0.067
1099	-0.067
1099	-0.068
1100	-0.07
1100	-0.072
1100	-0.074
1101	-0.077
1101	-0.079
1102	-0.081
1102	-0.083
1102	-0.084
1103	-0.087
1103	-0.09
1104	-0.093
1104	-0.095
1104	-0.097
1105	-0.098
1105	-0.1
1106	-0.104
1106	-0.106
1107	-0.111
1107	-0.116
1107	-0.121
1108	-0.123
1108	-0.124
1109	-0.127
1109	-0.131
1109	-0.136
1110	-0.137
1110	-0.141
1111	-0.151
1111	-0.147
