Data from 3.5A_17C_Absorbance__930__00932.txt Node

Date: Tue Jun 20 15:30:15 CEST 2023
User: Marek
Spectrometer: MAYP115816
Trigger mode: 0
Integration Time (sec): 2.200000E-1
Scans to average: 10
Electric dark correction enabled: true
Nonlinearity correction enabled: true
Boxcar width: 5
XAxis mode: Wavelengths
Number of Pixels in Spectrum: 2068
>>>>>Begin Spectral Data<<<<<
199	-0.733
199	-0.715
200	-0.677
200	-0.624
201	-0.595
201	-0.589
202	-0.572
202	-0.563
203	-0.562
203	-0.555
204	-0.535
204	-0.519
205	-0.496
205	-0.487
205	-0.496
206	-0.498
206	-0.491
207	-0.483
207	-0.49
208	-0.492
208	-0.497
209	-0.497
209	-0.503
210	-0.516
210	-0.522
211	-0.516
211	-0.519
212	-0.528
212	-0.536
213	-0.533
213	-0.528
213	-0.527
214	-0.535
214	-0.537
215	-0.535
215	-0.541
216	-0.548
216	-0.555
217	-0.555
217	-0.555
218	-0.562
218	-0.565
219	-0.571
219	-0.572
220	-0.576
220	-0.582
221	-0.581
221	-0.583
221	-0.573
222	-0.571
222	-0.57
223	-0.565
223	-0.566
224	-0.568
224	-0.564
225	-0.561
225	-0.563
226	-0.565
226	-0.564
227	-0.572
227	-0.581
228	-0.584
228	-0.594
229	-0.6
229	-0.596
229	-0.599
230	-0.593
230	-0.591
231	-0.586
231	-0.58
232	-0.582
232	-0.577
233	-0.577
233	-0.563
234	-0.565
234	-0.562
235	-0.564
235	-0.575
236	-0.581
236	-0.585
236	-0.584
237	-0.584
237	-0.586
238	-0.586
238	-0.59
239	-0.59
239	-0.6
240	-0.593
240	-0.589
241	-0.584
241	-0.585
242	-0.59
242	-0.598
243	-0.599
243	-0.601
243	-0.606
244	-0.603
244	-0.604
245	-0.609
245	-0.613
246	-0.623
246	-0.627
247	-0.633
247	-0.618
248	-0.617
248	-0.62
249	-0.626
249	-0.629
250	-0.627
250	-0.633
250	-0.629
251	-0.631
251	-0.628
252	-0.631
252	-0.645
253	-0.64
253	-0.65
254	-0.653
254	-0.653
255	-0.663
255	-0.661
256	-0.665
256	-0.676
257	-0.685
257	-0.68
258	-0.68
258	-0.687
258	-0.686
259	-0.68
259	-0.697
260	-0.696
260	-0.686
261	-0.696
261	-0.681
262	-0.685
262	-0.685
263	-0.675
263	-0.681
264	-0.69
264	-0.69
265	-0.681
265	-0.684
265	-0.694
266	-0.686
266	-0.688
267	-0.687
267	-0.702
268	-0.71
268	-0.704
269	-0.697
269	-0.712
270	-0.716
270	-0.716
271	-0.728
271	-0.739
272	-0.739
272	-0.743
272	-0.736
273	-0.747
273	-0.762
274	-0.751
274	-0.746
275	-0.744
275	-0.729
276	-0.731
276	-0.737
277	-0.738
277	-0.734
278	-0.738
278	-0.737
278	-0.724
279	-0.734
279	-0.749
280	-0.751
280	-0.765
281	-0.759
281	-0.753
282	-0.758
282	-0.754
283	-0.747
283	-0.761
284	-0.775
284	-0.785
285	-0.766
285	-0.77
285	-0.761
286	-0.77
286	-0.784
287	-0.78
287	-0.778
288	-0.777
288	-0.758
289	-0.758
289	-0.765
290	-0.773
290	-0.763
291	-0.766
291	-0.761
292	-0.741
292	-0.738
292	-0.743
293	-0.732
293	-0.73
294	-0.727
294	-0.713
295	-0.696
295	-0.706
296	-0.722
296	-0.715
297	-0.703
297	-0.709
298	-0.705
298	-0.724
298	-0.727
299	-0.709
299	-0.703
300	-0.697
300	-0.678
301	-0.658
301	-0.663
302	-0.673
302	-0.657
303	-0.65
303	-0.637
304	-0.62
304	-0.624
305	-0.616
305	-0.626
305	-0.643
306	-0.628
306	-0.626
307	-0.619
307	-0.629
308	-0.632
308	-0.629
309	-0.631
309	-0.625
310	-0.622
310	-0.618
311	-0.602
311	-0.62
311	-0.608
312	-0.606
312	-0.594
313	-0.586
313	-0.588
314	-0.593
314	-0.592
315	-0.589
315	-0.583
316	-0.578
316	-0.568
317	-0.56
317	-0.555
318	-0.546
318	-0.545
318	-0.532
319	-0.521
319	-0.515
320	-0.513
320	-0.51
321	-0.505
321	-0.505
322	-0.501
322	-0.495
323	-0.498
323	-0.488
324	-0.487
324	-0.478
324	-0.468
325	-0.452
325	-0.435
326	-0.428
326	-0.403
327	-0.389
327	-0.366
328	-0.334
328	-0.312
329	-0.284
329	-0.254
330	-0.228
330	-0.195
330	-0.161
331	-0.126
331	-0.095
332	-0.062
332	-0.033
333	-0.006
333	0.024
334	0.05
334	0.072
335	0.098
335	0.118
336	0.138
336	0.156
336	0.172
337	0.187
337	0.203
338	0.216
338	0.225
339	0.237
339	0.246
340	0.253
340	0.26
341	0.266
341	0.272
342	0.278
342	0.283
342	0.286
343	0.29
343	0.294
344	0.296
344	0.299
345	0.302
345	0.304
346	0.306
346	0.307
347	0.309
347	0.31
348	0.311
348	0.312
348	0.313
349	0.313
349	0.314
350	0.315
350	0.316
351	0.316
351	0.316
352	0.316
352	0.316
353	0.317
353	0.317
354	0.317
354	0.317
354	0.317
355	0.317
355	0.316
356	0.316
356	0.316
357	0.316
357	0.316
358	0.316
358	0.316
359	0.316
359	0.316
360	0.316
360	0.316
360	0.316
361	0.316
361	0.316
362	0.316
362	0.316
363	0.316
363	0.316
364	0.316
364	0.316
365	0.316
365	0.315
366	0.315
366	0.315
366	0.315
367	0.315
367	0.315
368	0.314
368	0.314
369	0.314
369	0.314
370	0.313
370	0.313
371	0.313
371	0.313
372	0.312
372	0.312
372	0.312
373	0.312
373	0.311
374	0.311
374	0.311
375	0.311
375	0.31
376	0.31
376	0.31
377	0.31
377	0.309
378	0.309
378	0.309
378	0.309
379	0.308
379	0.308
380	0.308
380	0.308
381	0.308
381	0.308
382	0.307
382	0.307
383	0.307
383	0.307
383	0.306
384	0.306
384	0.306
385	0.305
385	0.305
386	0.305
386	0.304
387	0.304
387	0.304
388	0.303
388	0.303
389	0.303
389	0.303
389	0.302
390	0.302
390	0.302
391	0.302
391	0.302
392	0.302
392	0.302
393	0.302
393	0.302
394	0.301
394	0.301
394	0.3
395	0.3
395	0.3
396	0.299
396	0.299
397	0.299
397	0.298
398	0.298
398	0.297
399	0.297
399	0.297
400	0.296
400	0.296
400	0.296
401	0.296
401	0.296
402	0.295
402	0.295
403	0.295
403	0.295
404	0.294
404	0.294
405	0.293
405	0.293
405	0.293
406	0.292
406	0.292
407	0.292
407	0.292
408	0.292
408	0.292
409	0.291
409	0.291
410	0.291
410	0.291
411	0.291
411	0.291
411	0.29
412	0.29
412	0.29
413	0.289
413	0.289
414	0.288
414	0.288
415	0.288
415	0.288
416	0.288
416	0.287
416	0.287
417	0.287
417	0.287
418	0.287
418	0.287
419	0.288
419	0.287
420	0.287
420	0.287
421	0.287
421	0.287
421	0.287
422	0.287
422	0.287
423	0.286
423	0.286
424	0.285
424	0.285
425	0.285
425	0.285
426	0.285
426	0.285
427	0.285
427	0.285
427	0.285
428	0.285
428	0.285
429	0.285
429	0.284
430	0.284
430	0.284
431	0.283
431	0.283
432	0.283
432	0.282
432	0.282
433	0.282
433	0.282
434	0.282
434	0.283
435	0.283
435	0.283
436	0.283
436	0.283
437	0.283
437	0.283
437	0.283
438	0.283
438	0.283
439	0.282
439	0.282
440	0.282
440	0.282
441	0.282
441	0.282
442	0.282
442	0.282
442	0.282
443	0.282
443	0.282
444	0.282
444	0.282
445	0.282
445	0.282
446	0.282
446	0.282
447	0.282
447	0.282
447	0.282
448	0.282
448	0.282
449	0.282
449	0.282
450	0.282
450	0.282
451	0.282
451	0.282
452	0.282
452	0.282
452	0.282
453	0.282
453	0.282
454	0.282
454	0.282
455	0.282
455	0.283
456	0.283
456	0.283
457	0.283
457	0.283
458	0.283
458	0.283
458	0.283
459	0.283
459	0.283
460	0.283
460	0.283
461	0.283
461	0.283
462	0.284
462	0.284
463	0.285
463	0.285
463	0.286
464	0.286
464	0.286
465	0.287
465	0.287
466	0.287
466	0.288
467	0.288
467	0.289
467	0.289
468	0.289
468	0.289
469	0.289
469	0.29
470	0.291
470	0.291
471	0.292
471	0.292
472	0.292
472	0.293
472	0.293
473	0.294
473	0.295
474	0.295
474	0.296
475	0.296
475	0.297
476	0.297
476	0.298
477	0.299
477	0.3
477	0.3
478	0.301
478	0.301
479	0.303
479	0.304
480	0.304
480	0.305
481	0.306
481	0.307
482	0.308
482	0.309
482	0.31
483	0.312
483	0.313
484	0.314
484	0.315
485	0.316
485	0.317
486	0.318
486	0.319
487	0.321
487	0.322
487	0.323
488	0.324
488	0.325
489	0.326
489	0.328
490	0.33
490	0.331
491	0.333
491	0.335
492	0.337
492	0.338
492	0.34
493	0.341
493	0.343
494	0.345
494	0.347
495	0.349
495	0.351
496	0.352
496	0.354
496	0.357
497	0.359
497	0.361
498	0.363
498	0.365
499	0.367
499	0.37
500	0.373
500	0.375
501	0.378
501	0.38
501	0.382
502	0.384
502	0.386
503	0.389
503	0.391
504	0.393
504	0.395
505	0.398
505	0.4
506	0.403
506	0.406
506	0.408
507	0.41
507	0.413
508	0.416
508	0.419
509	0.421
509	0.424
510	0.426
510	0.428
511	0.431
511	0.433
511	0.435
512	0.438
512	0.44
513	0.442
513	0.444
514	0.447
514	0.449
515	0.452
515	0.453
515	0.455
516	0.458
516	0.46
517	0.462
517	0.464
518	0.465
518	0.466
519	0.468
519	0.469
520	0.471
520	0.473
520	0.474
521	0.475
521	0.477
522	0.478
522	0.479
523	0.48
523	0.482
524	0.482
524	0.483
524	0.484
525	0.485
525	0.485
526	0.486
526	0.486
527	0.486
527	0.486
528	0.486
528	0.486
529	0.486
529	0.486
529	0.485
530	0.485
530	0.484
531	0.484
531	0.484
532	0.482
532	0.482
533	0.481
533	0.481
533	0.48
534	0.479
534	0.478
535	0.477
535	0.476
536	0.474
536	0.473
537	0.472
537	0.47
538	0.469
538	0.467
538	0.465
539	0.464
539	0.462
540	0.46
540	0.458
541	0.455
541	0.453
542	0.451
542	0.449
542	0.446
543	0.444
543	0.441
544	0.438
544	0.436
545	0.434
545	0.432
546	0.429
546	0.426
547	0.423
547	0.42
547	0.418
548	0.415
548	0.413
549	0.41
549	0.407
550	0.405
550	0.401
551	0.398
551	0.395
551	0.392
552	0.389
552	0.386
553	0.383
553	0.381
554	0.378
554	0.374
555	0.371
555	0.368
556	0.365
556	0.363
556	0.36
557	0.358
557	0.355
558	0.352
558	0.35
559	0.347
559	0.344
560	0.341
560	0.339
560	0.336
561	0.334
561	0.332
562	0.33
562	0.327
563	0.325
563	0.323
564	0.32
564	0.319
564	0.317
565	0.315
565	0.313
566	0.311
566	0.308
567	0.307
567	0.305
568	0.302
568	0.3
568	0.297
569	0.295
569	0.292
570	0.289
570	0.286
571	0.284
571	0.282
572	0.279
572	0.277
573	0.275
573	0.273
573	0.27
574	0.269
574	0.267
575	0.266
575	0.265
576	0.264
576	0.261
577	0.259
577	0.257
577	0.256
578	0.255
578	0.255
579	0.254
579	0.253
580	0.251
580	0.248
581	0.246
581	0.245
581	0.244
582	0.243
582	0.243
583	0.241
583	0.239
584	0.236
584	0.233
585	0.232
585	0.232
585	0.23
586	0.229
586	0.227
587	0.225
587	0.223
588	0.221
588	0.22
589	0.219
589	0.219
590	0.218
590	0.217
590	0.217
591	0.217
591	0.216
592	0.215
592	0.214
593	0.213
593	0.212
594	0.211
594	0.21
594	0.209
595	0.208
595	0.207
596	0.205
596	0.206
597	0.207
597	0.206
598	0.205
598	0.204
598	0.204
599	0.203
599	0.202
600	0.201
600	0.201
601	0.2
601	0.199
602	0.198
602	0.197
602	0.196
603	0.195
603	0.195
604	0.194
604	0.194
605	0.194
605	0.193
606	0.192
606	0.191
606	0.19
607	0.189
607	0.189
608	0.188
608	0.187
609	0.186
609	0.186
610	0.185
610	0.184
610	0.184
611	0.184
611	0.183
612	0.183
612	0.184
613	0.183
613	0.183
614	0.182
614	0.181
614	0.181
615	0.18
615	0.179
616	0.179
616	0.178
617	0.177
617	0.176
618	0.175
618	0.174
618	0.174
619	0.173
619	0.173
620	0.173
620	0.172
621	0.171
621	0.17
622	0.169
622	0.169
622	0.167
623	0.167
623	0.167
624	0.167
624	0.166
625	0.165
625	0.164
626	0.164
626	0.163
626	0.163
627	0.162
627	0.161
628	0.16
628	0.158
629	0.157
629	0.155
630	0.153
630	0.151
630	0.15
631	0.148
631	0.147
632	0.145
632	0.143
633	0.142
633	0.14
634	0.139
634	0.138
634	0.137
635	0.135
635	0.134
636	0.132
636	0.131
637	0.129
637	0.127
638	0.125
638	0.123
638	0.121
639	0.118
639	0.116
640	0.113
640	0.111
641	0.108
641	0.105
642	0.103
642	0.1
642	0.098
643	0.094
643	0.09
644	0.087
644	0.083
645	0.079
645	0.074
646	0.07
646	0.065
646	0.059
647	0.053
647	0.048
648	0.042
648	0.037
649	0.031
649	0.025
650	0.02
650	0.014
650	0.008
651	0.001
651	-0.009
652	-0.019
652	-0.03
653	-0.041
653	-0.05
653	-0.046
654	-0.031
654	-0.027
655	-0.032
655	-0.037
656	-0.043
656	-0.049
657	-0.054
657	-0.058
657	-0.065
658	-0.07
658	-0.098
659	-0.174
659	-0.254
660	-0.291
660	-0.315
661	-0.341
661	-0.369
661	-0.399
662	-0.426
662	-0.456
663	-0.49
663	-0.526
664	-0.563
664	-0.602
665	-0.647
665	-0.693
665	-0.738
666	-0.788
666	-0.843
667	-0.897
667	-0.96
668	-1.019
668	-1.088
669	-1.157
669	-1.231
669	-1.309
670	-1.391
670	-1.503
671	-1.676
671	-2.023
672	-2.287
672	-2.457
672	-2.581
673	-2.68
673	-2.762
674	-2.818
674	-2.834
675	-2.85
675	-2.854
676	-2.851
676	-2.807
676	-2.735
677	-2.647
677	-2.541
678	-2.38
678	-2.105
679	-1.73
679	-1.562
680	-1.459
680	-1.381
680	-1.312
681	-1.263
681	-1.208
682	-1.165
682	-1.121
683	-1.078
683	-1.052
684	-1.024
684	-1.004
684	-0.981
685	-0.961
685	-0.95
686	-0.926
686	-0.913
687	-0.902
687	-0.892
687	-0.89
688	-0.874
688	-0.864
689	-0.866
689	-0.862
690	-0.848
690	-0.839
691	-0.836
691	-0.837
691	-0.837
692	-0.835
692	-0.832
693	-0.839
693	-0.85
694	-0.829
694	-0.828
695	-0.83
695	-0.823
695	-0.83
696	-0.836
696	-0.829
697	-0.822
697	-0.817
698	-0.812
698	-0.802
698	-0.818
699	-0.814
699	-0.815
700	-0.833
700	-0.828
701	-0.815
701	-0.809
702	-0.811
702	-0.809
702	-0.808
703	-0.801
703	-0.788
704	-0.797
704	-0.801
705	-0.788
705	-0.788
705	-0.781
706	-0.774
706	-0.77
707	-0.781
707	-0.784
708	-0.782
708	-0.78
709	-0.782
709	-0.777
709	-0.774
710	-0.781
710	-0.785
711	-0.783
711	-0.783
712	-0.774
712	-0.772
713	-0.776
713	-0.776
713	-0.755
714	-0.758
714	-0.763
715	-0.754
715	-0.761
716	-0.78
716	-0.789
716	-0.79
717	-0.795
717	-0.786
718	-0.78
718	-0.78
719	-0.777
719	-0.768
720	-0.763
720	-0.759
720	-0.75
721	-0.741
721	-0.745
722	-0.744
722	-0.741
723	-0.757
723	-0.769
723	-0.776
724	-0.776
724	-0.782
725	-0.776
725	-0.781
726	-0.786
726	-0.776
727	-0.777
727	-0.786
727	-0.779
728	-0.765
728	-0.762
729	-0.763
729	-0.764
730	-0.769
730	-0.759
730	-0.766
731	-0.769
731	-0.768
732	-0.768
732	-0.761
733	-0.778
733	-0.783
734	-0.793
734	-0.784
734	-0.768
735	-0.758
735	-0.754
736	-0.751
736	-0.746
737	-0.747
737	-0.737
737	-0.73
738	-0.716
738	-0.703
739	-0.706
739	-0.707
740	-0.722
740	-0.719
741	-0.731
741	-0.74
741	-0.749
742	-0.757
742	-0.77
743	-0.778
743	-0.781
744	-0.783
744	-0.791
744	-0.785
745	-0.792
745	-0.781
746	-0.777
746	-0.769
747	-0.769
747	-0.76
748	-0.762
748	-0.766
748	-0.768
749	-0.76
749	-0.766
750	-0.758
750	-0.757
751	-0.757
751	-0.753
751	-0.766
752	-0.77
752	-0.771
753	-0.774
753	-0.765
754	-0.786
754	-0.784
754	-0.792
755	-0.793
755	-0.784
756	-0.788
756	-0.774
757	-0.769
757	-0.759
758	-0.758
758	-0.757
758	-0.751
759	-0.756
759	-0.755
760	-0.754
760	-0.758
761	-0.752
761	-0.756
761	-0.754
762	-0.76
762	-0.761
763	-0.764
763	-0.767
764	-0.767
764	-0.763
764	-0.768
765	-0.764
765	-0.77
766	-0.773
766	-0.775
767	-0.79
767	-0.784
768	-0.782
768	-0.775
768	-0.77
769	-0.772
769	-0.779
770	-0.79
770	-0.794
771	-0.788
771	-0.788
771	-0.794
772	-0.798
772	-0.817
773	-0.818
773	-0.819
774	-0.819
774	-0.804
775	-0.792
775	-0.791
775	-0.794
776	-0.803
776	-0.799
777	-0.8
777	-0.783
778	-0.792
778	-0.802
778	-0.802
779	-0.809
779	-0.824
780	-0.821
780	-0.833
781	-0.825
781	-0.815
781	-0.828
782	-0.849
782	-0.85
783	-0.849
783	-0.856
784	-0.858
784	-0.852
784	-0.872
785	-0.864
785	-0.875
786	-0.88
786	-0.873
787	-0.864
787	-0.871
788	-0.863
788	-0.857
788	-0.86
789	-0.86
789	-0.849
790	-0.849
790	-0.834
791	-0.841
791	-0.836
791	-0.828
792	-0.823
792	-0.827
793	-0.829
793	-0.818
794	-0.808
794	-0.802
794	-0.808
795	-0.828
795	-0.814
796	-0.82
796	-0.817
797	-0.81
797	-0.8
797	-0.793
798	-0.814
798	-0.819
799	-0.82
799	-0.808
800	-0.803
800	-0.811
801	-0.807
801	-0.811
801	-0.807
802	-0.807
802	-0.806
803	-0.801
803	-0.793
804	-0.798
804	-0.804
804	-0.787
805	-0.767
805	-0.759
806	-0.759
806	-0.758
807	-0.761
807	-0.762
807	-0.745
808	-0.743
808	-0.735
809	-0.73
809	-0.728
810	-0.733
810	-0.73
810	-0.726
811	-0.728
811	-0.718
812	-0.71
812	-0.711
813	-0.714
813	-0.715
813	-0.71
814	-0.713
814	-0.719
815	-0.71
815	-0.707
816	-0.706
816	-0.721
817	-0.731
817	-0.737
817	-0.746
818	-0.741
818	-0.741
819	-0.751
819	-0.747
820	-0.758
820	-0.757
820	-0.754
821	-0.751
821	-0.749
822	-0.748
822	-0.735
823	-0.746
823	-0.743
823	-0.737
824	-0.736
824	-0.746
825	-0.744
825	-0.742
826	-0.737
826	-0.731
826	-0.73
827	-0.73
827	-0.72
828	-0.719
828	-0.715
829	-0.708
829	-0.692
829	-0.689
830	-0.688
830	-0.675
831	-0.671
831	-0.661
832	-0.653
832	-0.647
832	-0.641
833	-0.64
833	-0.646
834	-0.643
834	-0.637
835	-0.63
835	-0.628
835	-0.624
836	-0.619
836	-0.616
837	-0.608
837	-0.601
838	-0.589
838	-0.573
839	-0.567
839	-0.554
839	-0.543
840	-0.541
840	-0.531
841	-0.521
841	-0.514
842	-0.504
842	-0.493
842	-0.49
843	-0.485
843	-0.481
844	-0.478
844	-0.468
845	-0.456
845	-0.447
845	-0.436
846	-0.425
846	-0.415
847	-0.404
847	-0.39
848	-0.377
848	-0.36
848	-0.349
849	-0.338
849	-0.327
850	-0.316
850	-0.309
851	-0.295
851	-0.281
851	-0.273
852	-0.259
852	-0.246
853	-0.239
853	-0.229
854	-0.218
854	-0.208
854	-0.196
855	-0.184
855	-0.177
856	-0.169
856	-0.161
857	-0.153
857	-0.146
857	-0.134
858	-0.124
858	-0.118
859	-0.109
859	-0.099
860	-0.09
860	-0.077
860	-0.068
861	-0.059
861	-0.05
862	-0.042
862	-0.035
863	-0.028
863	-0.02
863	-0.014
864	-0.009
864	-0.003
865	0.002
865	0.007
866	0.011
866	0.015
866	0.02
867	0.024
867	0.029
868	0.032
868	0.037
869	0.041
869	0.044
869	0.046
870	0.049
870	0.051
871	0.052
871	0.053
872	0.054
872	0.054
872	0.055
873	0.055
873	0.055
874	0.054
874	0.054
875	0.053
875	0.053
875	0.053
876	0.053
876	0.052
877	0.052
877	0.051
878	0.051
878	0.05
878	0.049
879	0.049
879	0.048
880	0.047
880	0.046
881	0.045
881	0.044
881	0.043
882	0.042
882	0.042
883	0.041
883	0.04
884	0.04
884	0.041
884	0.041
885	0.041
885	0.041
886	0.041
886	0.041
887	0.041
887	0.04
887	0.039
888	0.039
888	0.038
889	0.037
889	0.036
890	0.036
890	0.035
890	0.034
891	0.034
891	0.034
892	0.034
892	0.034
893	0.034
893	0.034
893	0.033
894	0.034
894	0.034
895	0.034
895	0.034
895	0.034
896	0.034
896	0.034
897	0.035
897	0.035
898	0.035
898	0.036
898	0.036
899	0.036
899	0.036
900	0.037
900	0.037
901	0.037
901	0.037
901	0.037
902	0.037
902	0.038
903	0.038
903	0.038
904	0.037
904	0.037
904	0.036
905	0.036
905	0.036
906	0.036
906	0.037
907	0.037
907	0.037
907	0.037
908	0.037
908	0.038
909	0.038
909	0.039
910	0.04
910	0.041
910	0.041
911	0.042
911	0.043
912	0.044
912	0.046
913	0.047
913	0.048
913	0.049
914	0.05
914	0.05
915	0.05
915	0.05
916	0.049
916	0.049
916	0.048
917	0.047
917	0.047
918	0.046
918	0.046
918	0.045
919	0.045
919	0.045
920	0.044
920	0.044
921	0.044
921	0.044
921	0.044
922	0.043
922	0.043
923	0.043
923	0.042
924	0.042
924	0.041
924	0.041
925	0.041
925	0.04
926	0.04
926	0.04
927	0.04
927	0.04
927	0.04
928	0.04
928	0.041
929	0.041
929	0.042
930	0.042
930	0.043
930	0.044
931	0.044
931	0.044
932	0.045
932	0.045
933	0.045
933	0.045
933	0.045
934	0.044
934	0.043
935	0.042
935	0.041
935	0.039
936	0.038
936	0.037
937	0.035
937	0.034
938	0.033
938	0.032
938	0.031
939	0.031
939	0.031
940	0.03
940	0.03
941	0.029
941	0.029
941	0.029
942	0.029
942	0.029
943	0.029
943	0.029
944	0.029
944	0.028
944	0.028
945	0.028
945	0.029
946	0.029
946	0.028
946	0.028
947	0.028
947	0.028
948	0.028
948	0.027
949	0.028
949	0.028
949	0.029
950	0.029
950	0.03
951	0.03
951	0.03
952	0.031
952	0.031
952	0.031
953	0.032
953	0.033
954	0.032
954	0.032
955	0.032
955	0.032
955	0.032
956	0.032
956	0.031
957	0.031
957	0.03
957	0.029
958	0.029
958	0.029
959	0.029
959	0.029
960	0.029
960	0.028
960	0.028
961	0.028
961	0.029
962	0.029
962	0.029
963	0.029
963	0.029
963	0.029
964	0.029
964	0.029
965	0.029
965	0.029
966	0.029
966	0.03
966	0.03
967	0.03
967	0.029
968	0.029
968	0.028
968	0.028
969	0.028
969	0.027
970	0.026
970	0.026
971	0.025
971	0.025
971	0.024
972	0.024
972	0.024
973	0.024
973	0.024
974	0.025
974	0.025
974	0.026
975	0.027
975	0.027
976	0.028
976	0.029
976	0.029
977	0.029
977	0.029
978	0.029
978	0.029
979	0.028
979	0.028
979	0.028
980	0.027
980	0.027
981	0.026
981	0.026
982	0.027
982	0.027
982	0.027
983	0.027
983	0.027
984	0.027
984	0.027
984	0.026
985	0.026
985	0.026
986	0.026
986	0.025
987	0.024
987	0.023
987	0.022
988	0.022
988	0.021
989	0.02
989	0.019
990	0.018
990	0.017
990	0.017
991	0.017
991	0.017
992	0.017
992	0.017
992	0.017
993	0.017
993	0.017
994	0.017
994	0.017
995	0.017
995	0.017
995	0.017
996	0.016
996	0.016
997	0.015
997	0.015
997	0.015
998	0.015
998	0.015
999	0.015
999	0.015
1000	0.016
1000	0.016
1000	0.016
1001	0.016
1001	0.017
1002	0.017
1002	0.016
1003	0.016
1003	0.016
1003	0.016
1004	0.015
1004	0.015
1005	0.014
1005	0.013
1005	0.013
1006	0.012
1006	0.012
1007	0.012
1007	0.011
1008	0.011
1008	0.011
1008	0.011
1009	0.011
1009	0.011
1010	0.012
1010	0.012
1010	0.013
1011	0.013
1011	0.013
1012	0.014
1012	0.014
1013	0.015
1013	0.015
1013	0.015
1014	0.015
1014	0.016
1015	0.016
1015	0.016
1016	0.016
1016	0.016
1016	0.016
1017	0.016
1017	0.016
1018	0.016
1018	0.016
1018	0.015
1019	0.015
1019	0.015
1020	0.014
1020	0.013
1021	0.013
1021	0.013
1021	0.012
1022	0.011
1022	0.011
1023	0.011
1023	0.01
1023	0.01
1024	0.01
1024	0.009
1025	0.009
1025	0.009
1026	0.009
1026	0.009
1026	0.009
1027	0.009
1027	0.009
1028	0.009
1028	0.009
1028	0.009
1029	0.009
1029	0.009
1030	0.008
1030	0.008
1031	0.008
1031	0.008
1031	0.007
1032	0.007
1032	0.007
1033	0.006
1033	0.005
1033	0.005
1034	0.005
1034	0.004
1035	0.004
1035	0.004
1036	0.003
1036	0.003
1036	0.004
1037	0.004
1037	0.005
1038	0.005
1038	0.005
1039	0.006
1039	0.007
1039	0.008
1040	0.008
1040	0.009
1041	0.009
1041	0.009
1041	0.009
1042	0.008
1042	0.008
1043	0.007
1043	0.006
1044	0.006
1044	0.005
1044	0.004
1045	0.003
1045	0.002
1046	0.001
1046	0
1046	-0
1047	-0.001
1047	-0.001
1048	-0
1048	-0.001
1049	-0.001
1049	-0.001
1049	-0.002
1050	-0.002
1050	-0.003
1051	-0.003
1051	-0.004
1051	-0.004
1052	-0.006
1052	-0.006
1053	-0.007
1053	-0.008
1053	-0.008
1054	-0.008
1054	-0.008
1055	-0.008
1055	-0.008
1056	-0.008
1056	-0.008
1056	-0.008
1057	-0.008
1057	-0.008
1058	-0.008
1058	-0.009
1058	-0.009
1059	-0.009
1059	-0.009
1060	-0.01
1060	-0.01
1061	-0.01
1061	-0.009
1061	-0.009
1062	-0.009
1062	-0.009
1063	-0.009
1063	-0.009
1063	-0.009
1064	-0.009
1064	-0.009
1065	-0.009
1065	-0.009
1066	-0.01
1066	-0.01
1066	-0.011
1067	-0.011
1067	-0.011
1068	-0.012
1068	-0.012
1068	-0.013
1069	-0.014
1069	-0.014
1070	-0.015
1070	-0.016
1071	-0.016
1071	-0.016
1071	-0.016
1072	-0.017
1072	-0.016
1073	-0.016
1073	-0.016
1073	-0.016
1074	-0.015
1074	-0.015
1075	-0.015
1075	-0.016
1076	-0.017
1076	-0.017
1076	-0.018
1077	-0.019
1077	-0.02
1078	-0.02
1078	-0.021
1078	-0.022
1079	-0.023
1079	-0.023
1080	-0.024
1080	-0.025
1080	-0.026
1081	-0.027
1081	-0.027
1082	-0.028
1082	-0.029
1083	-0.03
1083	-0.031
1083	-0.031
1084	-0.032
1084	-0.033
1085	-0.033
1085	-0.034
1085	-0.033
1086	-0.034
1086	-0.034
1087	-0.035
1087	-0.035
1088	-0.036
1088	-0.037
1088	-0.038
1089	-0.039
1089	-0.04
1090	-0.04
1090	-0.041
1090	-0.043
1091	-0.045
1091	-0.046
1092	-0.047
1092	-0.047
1092	-0.048
1093	-0.049
1093	-0.049
1094	-0.05
1094	-0.051
1095	-0.052
1095	-0.052
1095	-0.053
1096	-0.054
1096	-0.056
1097	-0.056
1097	-0.058
1097	-0.06
1098	-0.061
1098	-0.063
1099	-0.064
1099	-0.065
1100	-0.066
1100	-0.068
1100	-0.072
1101	-0.074
1101	-0.076
1102	-0.078
1102	-0.081
1102	-0.082
1103	-0.085
1103	-0.088
1104	-0.091
1104	-0.094
1104	-0.096
1105	-0.097
1105	-0.099
1106	-0.104
1106	-0.105
1107	-0.11
1107	-0.115
1107	-0.118
1108	-0.12
1108	-0.121
1109	-0.124
1109	-0.128
1109	-0.132
1110	-0.135
1110	-0.136
1111	-0.148
1111	-0.144
