Data from 3.5A_17C_Absorbance__364__00366.txt Node

Date: Tue Jun 20 15:09:30 CEST 2023
User: Marek
Spectrometer: MAYP115816
Trigger mode: 0
Integration Time (sec): 2.200000E-1
Scans to average: 10
Electric dark correction enabled: true
Nonlinearity correction enabled: true
Boxcar width: 5
XAxis mode: Wavelengths
Number of Pixels in Spectrum: 2068
>>>>>Begin Spectral Data<<<<<
199	-0.636
199	-0.618
200	-0.585
200	-0.532
201	-0.501
201	-0.492
202	-0.471
202	-0.464
203	-0.462
203	-0.457
204	-0.438
204	-0.423
205	-0.401
205	-0.391
205	-0.4
206	-0.401
206	-0.397
207	-0.392
207	-0.397
208	-0.4
208	-0.403
209	-0.404
209	-0.409
210	-0.421
210	-0.427
211	-0.421
211	-0.426
212	-0.437
212	-0.445
213	-0.44
213	-0.435
213	-0.432
214	-0.439
214	-0.441
215	-0.436
215	-0.44
216	-0.451
216	-0.455
217	-0.451
217	-0.451
218	-0.458
218	-0.462
219	-0.469
219	-0.472
220	-0.475
220	-0.482
221	-0.482
221	-0.48
221	-0.472
222	-0.474
222	-0.472
223	-0.47
223	-0.471
224	-0.469
224	-0.467
225	-0.465
225	-0.467
226	-0.468
226	-0.467
227	-0.475
227	-0.48
228	-0.484
228	-0.491
229	-0.497
229	-0.496
229	-0.497
230	-0.49
230	-0.489
231	-0.485
231	-0.482
232	-0.484
232	-0.482
233	-0.482
233	-0.47
234	-0.47
234	-0.466
235	-0.47
235	-0.481
236	-0.488
236	-0.489
236	-0.488
237	-0.488
237	-0.488
238	-0.489
238	-0.491
239	-0.492
239	-0.499
240	-0.493
240	-0.491
241	-0.487
241	-0.49
242	-0.493
242	-0.5
243	-0.501
243	-0.503
243	-0.507
244	-0.504
244	-0.506
245	-0.507
245	-0.51
246	-0.518
246	-0.519
247	-0.526
247	-0.51
248	-0.508
248	-0.509
249	-0.516
249	-0.517
250	-0.516
250	-0.524
250	-0.522
251	-0.523
251	-0.52
252	-0.524
252	-0.538
253	-0.532
253	-0.544
254	-0.547
254	-0.55
255	-0.559
255	-0.557
256	-0.558
256	-0.569
257	-0.58
257	-0.577
258	-0.576
258	-0.583
258	-0.58
259	-0.571
259	-0.588
260	-0.588
260	-0.579
261	-0.589
261	-0.576
262	-0.581
262	-0.576
263	-0.568
263	-0.575
264	-0.583
264	-0.586
265	-0.577
265	-0.578
265	-0.585
266	-0.577
266	-0.575
267	-0.572
267	-0.586
268	-0.594
268	-0.588
269	-0.583
269	-0.596
270	-0.596
270	-0.593
271	-0.608
271	-0.619
272	-0.621
272	-0.624
272	-0.617
273	-0.627
273	-0.64
274	-0.629
274	-0.623
275	-0.622
275	-0.61
276	-0.611
276	-0.616
277	-0.62
277	-0.616
278	-0.62
278	-0.62
278	-0.608
279	-0.618
279	-0.635
280	-0.637
280	-0.647
281	-0.639
281	-0.631
282	-0.635
282	-0.629
283	-0.624
283	-0.635
284	-0.649
284	-0.657
285	-0.637
285	-0.643
285	-0.636
286	-0.645
286	-0.662
287	-0.658
287	-0.656
288	-0.653
288	-0.637
289	-0.636
289	-0.644
290	-0.651
290	-0.643
291	-0.647
291	-0.645
292	-0.625
292	-0.624
292	-0.63
293	-0.621
293	-0.617
294	-0.617
294	-0.604
295	-0.585
295	-0.594
296	-0.608
296	-0.599
297	-0.587
297	-0.59
298	-0.586
298	-0.601
298	-0.606
299	-0.588
299	-0.582
300	-0.58
300	-0.564
301	-0.541
301	-0.547
302	-0.558
302	-0.544
303	-0.537
303	-0.526
304	-0.509
304	-0.513
305	-0.506
305	-0.515
305	-0.529
306	-0.516
306	-0.514
307	-0.507
307	-0.516
308	-0.52
308	-0.517
309	-0.519
309	-0.514
310	-0.511
310	-0.505
311	-0.491
311	-0.507
311	-0.494
312	-0.491
312	-0.482
313	-0.474
313	-0.475
314	-0.481
314	-0.479
315	-0.477
315	-0.47
316	-0.467
316	-0.459
317	-0.453
317	-0.448
318	-0.439
318	-0.437
318	-0.426
319	-0.412
319	-0.403
320	-0.401
320	-0.401
321	-0.396
321	-0.393
322	-0.389
322	-0.383
323	-0.386
323	-0.375
324	-0.374
324	-0.365
324	-0.354
325	-0.338
325	-0.319
326	-0.311
326	-0.289
327	-0.273
327	-0.251
328	-0.219
328	-0.198
329	-0.172
329	-0.146
330	-0.12
330	-0.088
330	-0.057
331	-0.023
331	0.008
332	0.039
332	0.068
333	0.095
333	0.125
334	0.152
334	0.174
335	0.198
335	0.217
336	0.236
336	0.255
336	0.269
337	0.284
337	0.3
338	0.312
338	0.32
339	0.332
339	0.341
340	0.348
340	0.355
341	0.36
341	0.365
342	0.37
342	0.375
342	0.378
343	0.381
343	0.385
344	0.387
344	0.389
345	0.391
345	0.393
346	0.395
346	0.397
347	0.398
347	0.399
348	0.4
348	0.402
348	0.402
349	0.403
349	0.403
350	0.404
350	0.404
351	0.404
351	0.404
352	0.404
352	0.404
353	0.405
353	0.404
354	0.404
354	0.404
354	0.404
355	0.404
355	0.404
356	0.404
356	0.404
357	0.403
357	0.403
358	0.403
358	0.403
359	0.403
359	0.403
360	0.403
360	0.403
360	0.403
361	0.403
361	0.403
362	0.403
362	0.402
363	0.402
363	0.402
364	0.402
364	0.401
365	0.401
365	0.401
366	0.4
366	0.4
366	0.4
367	0.4
367	0.4
368	0.399
368	0.399
369	0.398
369	0.398
370	0.398
370	0.397
371	0.397
371	0.396
372	0.396
372	0.396
372	0.395
373	0.395
373	0.395
374	0.394
374	0.394
375	0.394
375	0.393
376	0.393
376	0.392
377	0.392
377	0.391
378	0.391
378	0.39
378	0.39
379	0.389
379	0.389
380	0.389
380	0.389
381	0.388
381	0.388
382	0.388
382	0.387
383	0.387
383	0.387
383	0.386
384	0.385
384	0.385
385	0.384
385	0.384
386	0.384
386	0.383
387	0.383
387	0.383
388	0.382
388	0.382
389	0.381
389	0.381
389	0.381
390	0.38
390	0.38
391	0.379
391	0.379
392	0.378
392	0.378
393	0.377
393	0.377
394	0.376
394	0.376
394	0.376
395	0.375
395	0.374
396	0.374
396	0.373
397	0.373
397	0.372
398	0.372
398	0.371
399	0.371
399	0.37
400	0.37
400	0.37
400	0.369
401	0.369
401	0.369
402	0.368
402	0.368
403	0.368
403	0.367
404	0.367
404	0.367
405	0.366
405	0.366
405	0.365
406	0.365
406	0.364
407	0.364
407	0.363
408	0.363
408	0.362
409	0.362
409	0.362
410	0.362
410	0.362
411	0.362
411	0.361
411	0.361
412	0.361
412	0.36
413	0.36
413	0.36
414	0.359
414	0.359
415	0.359
415	0.358
416	0.358
416	0.358
416	0.357
417	0.357
417	0.357
418	0.357
418	0.357
419	0.357
419	0.356
420	0.356
420	0.356
421	0.356
421	0.356
421	0.355
422	0.355
422	0.355
423	0.355
423	0.355
424	0.355
424	0.354
425	0.354
425	0.354
426	0.354
426	0.354
427	0.354
427	0.354
427	0.354
428	0.353
428	0.353
429	0.353
429	0.352
430	0.352
430	0.352
431	0.352
431	0.351
432	0.351
432	0.351
432	0.351
433	0.351
433	0.351
434	0.351
434	0.351
435	0.352
435	0.352
436	0.352
436	0.352
437	0.351
437	0.351
437	0.351
438	0.351
438	0.351
439	0.351
439	0.351
440	0.351
440	0.351
441	0.351
441	0.351
442	0.351
442	0.351
442	0.351
443	0.351
443	0.351
444	0.351
444	0.351
445	0.351
445	0.351
446	0.351
446	0.351
447	0.351
447	0.351
447	0.351
448	0.352
448	0.352
449	0.352
449	0.352
450	0.352
450	0.352
451	0.352
451	0.352
452	0.352
452	0.352
452	0.352
453	0.352
453	0.353
454	0.352
454	0.353
455	0.353
455	0.353
456	0.353
456	0.354
457	0.354
457	0.354
458	0.354
458	0.354
458	0.355
459	0.355
459	0.355
460	0.355
460	0.356
461	0.356
461	0.357
462	0.357
462	0.358
463	0.359
463	0.36
463	0.361
464	0.361
464	0.361
465	0.362
465	0.362
466	0.363
466	0.364
467	0.364
467	0.364
467	0.364
468	0.364
468	0.365
469	0.366
469	0.367
470	0.367
470	0.368
471	0.369
471	0.37
472	0.37
472	0.372
472	0.373
473	0.374
473	0.375
474	0.376
474	0.377
475	0.378
475	0.379
476	0.38
476	0.381
477	0.382
477	0.383
477	0.384
478	0.385
478	0.387
479	0.388
479	0.39
480	0.391
480	0.392
481	0.394
481	0.395
482	0.397
482	0.399
482	0.401
483	0.403
483	0.405
484	0.407
484	0.409
485	0.411
485	0.413
486	0.414
486	0.416
487	0.418
487	0.42
487	0.421
488	0.423
488	0.425
489	0.427
489	0.43
490	0.432
490	0.434
491	0.437
491	0.44
492	0.442
492	0.445
492	0.447
493	0.45
493	0.452
494	0.455
494	0.458
495	0.461
495	0.464
496	0.467
496	0.47
496	0.473
497	0.476
497	0.48
498	0.483
498	0.486
499	0.49
499	0.494
500	0.498
500	0.501
501	0.505
501	0.508
501	0.511
502	0.514
502	0.518
503	0.522
503	0.525
504	0.528
504	0.532
505	0.535
505	0.539
506	0.543
506	0.547
506	0.551
507	0.555
507	0.558
508	0.563
508	0.566
509	0.57
509	0.574
510	0.578
510	0.582
511	0.585
511	0.589
511	0.593
512	0.596
512	0.6
513	0.603
513	0.606
514	0.609
514	0.613
515	0.616
515	0.619
515	0.622
516	0.625
516	0.628
517	0.63
517	0.633
518	0.635
518	0.637
519	0.639
519	0.641
520	0.643
520	0.646
520	0.648
521	0.649
521	0.651
522	0.653
522	0.654
523	0.656
523	0.657
524	0.658
524	0.659
524	0.66
525	0.66
525	0.661
526	0.662
526	0.662
527	0.663
527	0.663
528	0.662
528	0.662
529	0.662
529	0.661
529	0.66
530	0.659
530	0.658
531	0.657
531	0.655
532	0.653
532	0.652
533	0.651
533	0.649
533	0.647
534	0.645
534	0.642
535	0.64
535	0.638
536	0.635
536	0.633
537	0.63
537	0.627
538	0.624
538	0.621
538	0.618
539	0.615
539	0.612
540	0.608
540	0.604
541	0.601
541	0.597
542	0.593
542	0.589
542	0.584
543	0.58
543	0.576
544	0.571
544	0.567
545	0.563
545	0.558
546	0.553
546	0.548
547	0.543
547	0.538
547	0.533
548	0.529
548	0.524
549	0.519
549	0.515
550	0.51
550	0.504
551	0.499
551	0.493
551	0.488
552	0.482
552	0.477
553	0.472
553	0.467
554	0.462
554	0.456
555	0.451
555	0.446
556	0.441
556	0.436
556	0.431
557	0.426
557	0.421
558	0.416
558	0.411
559	0.405
559	0.4
560	0.395
560	0.391
560	0.387
561	0.383
561	0.379
562	0.374
562	0.37
563	0.366
563	0.362
564	0.358
564	0.354
564	0.349
565	0.345
565	0.341
566	0.337
566	0.333
567	0.329
567	0.325
568	0.32
568	0.315
568	0.311
569	0.307
569	0.302
570	0.298
570	0.293
571	0.29
571	0.286
572	0.282
572	0.278
573	0.274
573	0.27
573	0.267
574	0.263
574	0.26
575	0.257
575	0.255
576	0.252
576	0.248
577	0.244
577	0.242
577	0.24
578	0.237
578	0.235
579	0.234
579	0.231
580	0.228
580	0.224
581	0.221
581	0.218
581	0.217
582	0.215
582	0.213
583	0.21
583	0.207
584	0.203
584	0.199
585	0.196
585	0.193
585	0.191
586	0.188
586	0.185
587	0.182
587	0.18
588	0.177
588	0.175
589	0.173
589	0.172
590	0.17
590	0.168
590	0.167
591	0.166
591	0.163
592	0.161
592	0.159
593	0.158
593	0.157
594	0.155
594	0.153
594	0.152
595	0.15
595	0.148
596	0.147
596	0.146
597	0.145
597	0.144
598	0.142
598	0.141
598	0.139
599	0.138
599	0.137
600	0.135
600	0.134
601	0.133
601	0.132
602	0.13
602	0.129
602	0.128
603	0.126
603	0.126
604	0.125
604	0.124
605	0.123
605	0.122
606	0.12
606	0.118
606	0.117
607	0.116
607	0.115
608	0.114
608	0.112
609	0.111
609	0.11
610	0.109
610	0.107
610	0.106
611	0.105
611	0.104
612	0.104
612	0.103
613	0.103
613	0.102
614	0.101
614	0.099
614	0.098
615	0.097
615	0.096
616	0.096
616	0.095
617	0.094
617	0.093
618	0.092
618	0.091
618	0.09
619	0.09
619	0.09
620	0.09
620	0.089
621	0.088
621	0.088
622	0.087
622	0.086
622	0.085
623	0.084
623	0.083
624	0.083
624	0.082
625	0.081
625	0.081
626	0.08
626	0.079
626	0.079
627	0.078
627	0.077
628	0.077
628	0.075
629	0.074
629	0.073
630	0.072
630	0.071
630	0.071
631	0.07
631	0.069
632	0.068
632	0.068
633	0.067
633	0.066
634	0.066
634	0.065
634	0.064
635	0.063
635	0.062
636	0.061
636	0.06
637	0.059
637	0.058
638	0.057
638	0.056
638	0.055
639	0.053
639	0.052
640	0.051
640	0.05
641	0.049
641	0.048
642	0.046
642	0.046
642	0.045
643	0.043
643	0.042
644	0.04
644	0.039
645	0.038
645	0.036
646	0.034
646	0.032
646	0.029
647	0.026
647	0.023
648	0.02
648	0.018
649	0.014
649	0.012
650	0.009
650	0.006
650	0.003
651	-0.001
651	-0.005
652	-0.011
652	-0.017
653	-0.022
653	-0.027
653	-0.024
654	-0.017
654	-0.018
655	-0.022
655	-0.025
656	-0.028
656	-0.031
657	-0.034
657	-0.037
657	-0.041
658	-0.044
658	-0.061
659	-0.105
659	-0.146
660	-0.166
660	-0.18
661	-0.196
661	-0.214
661	-0.229
662	-0.243
662	-0.26
663	-0.278
663	-0.298
664	-0.316
664	-0.338
665	-0.362
665	-0.386
665	-0.407
666	-0.431
666	-0.46
667	-0.487
667	-0.524
668	-0.557
668	-0.603
669	-0.647
669	-0.697
669	-0.753
670	-0.819
670	-0.942
671	-1.215
671	-1.577
672	-1.969
672	-2.264
672	-2.444
673	-2.569
673	-2.602
674	-2.621
674	-2.63
675	-2.645
675	-2.65
676	-2.649
676	-2.624
676	-2.554
677	-2.405
677	-2.175
678	-1.635
678	-1.16
679	-0.985
679	-0.903
680	-0.846
680	-0.807
680	-0.775
681	-0.758
681	-0.732
682	-0.716
682	-0.692
683	-0.666
683	-0.662
684	-0.653
684	-0.65
684	-0.643
685	-0.637
685	-0.639
686	-0.626
686	-0.621
687	-0.618
687	-0.617
687	-0.628
688	-0.618
688	-0.619
689	-0.628
689	-0.629
690	-0.621
690	-0.617
691	-0.621
691	-0.628
691	-0.632
692	-0.636
692	-0.634
693	-0.645
693	-0.658
694	-0.641
694	-0.641
695	-0.645
695	-0.641
695	-0.649
696	-0.654
696	-0.651
697	-0.647
697	-0.644
698	-0.639
698	-0.632
698	-0.648
699	-0.647
699	-0.65
700	-0.67
700	-0.667
701	-0.657
701	-0.652
702	-0.651
702	-0.651
702	-0.653
703	-0.645
703	-0.634
704	-0.646
704	-0.65
705	-0.64
705	-0.638
705	-0.637
706	-0.631
706	-0.63
707	-0.644
707	-0.647
708	-0.646
708	-0.646
709	-0.645
709	-0.641
709	-0.639
710	-0.647
710	-0.649
711	-0.648
711	-0.648
712	-0.64
712	-0.637
713	-0.642
713	-0.643
713	-0.623
714	-0.626
714	-0.629
715	-0.622
715	-0.63
716	-0.647
716	-0.655
716	-0.653
717	-0.659
717	-0.651
718	-0.645
718	-0.646
719	-0.643
719	-0.635
720	-0.63
720	-0.627
720	-0.621
721	-0.615
721	-0.621
722	-0.619
722	-0.618
723	-0.635
723	-0.648
723	-0.655
724	-0.654
724	-0.659
725	-0.653
725	-0.658
726	-0.66
726	-0.653
727	-0.654
727	-0.659
727	-0.648
728	-0.636
728	-0.633
729	-0.638
729	-0.641
730	-0.647
730	-0.637
730	-0.645
731	-0.647
731	-0.647
732	-0.649
732	-0.647
733	-0.661
733	-0.668
734	-0.675
734	-0.665
734	-0.646
735	-0.638
735	-0.633
736	-0.635
736	-0.629
737	-0.628
737	-0.617
737	-0.609
738	-0.595
738	-0.584
739	-0.587
739	-0.591
740	-0.605
740	-0.606
741	-0.615
741	-0.627
741	-0.638
742	-0.646
742	-0.663
743	-0.669
743	-0.672
744	-0.676
744	-0.68
744	-0.673
745	-0.682
745	-0.673
746	-0.668
746	-0.659
747	-0.66
747	-0.646
748	-0.65
748	-0.655
748	-0.657
749	-0.652
749	-0.658
750	-0.648
750	-0.647
751	-0.647
751	-0.644
751	-0.655
752	-0.661
752	-0.664
753	-0.665
753	-0.658
754	-0.676
754	-0.677
754	-0.682
755	-0.681
755	-0.673
756	-0.678
756	-0.663
757	-0.655
757	-0.643
758	-0.641
758	-0.64
758	-0.636
759	-0.641
759	-0.644
760	-0.645
760	-0.648
761	-0.641
761	-0.647
761	-0.649
762	-0.657
762	-0.657
763	-0.656
763	-0.659
764	-0.656
764	-0.651
764	-0.656
765	-0.653
765	-0.659
766	-0.661
766	-0.662
767	-0.677
767	-0.674
768	-0.673
768	-0.665
768	-0.659
769	-0.66
769	-0.666
770	-0.675
770	-0.678
771	-0.676
771	-0.674
771	-0.679
772	-0.681
772	-0.702
773	-0.706
773	-0.708
774	-0.708
774	-0.692
775	-0.68
775	-0.681
775	-0.68
776	-0.691
776	-0.689
777	-0.689
777	-0.672
778	-0.679
778	-0.686
778	-0.688
779	-0.695
779	-0.711
780	-0.706
780	-0.719
781	-0.709
781	-0.698
781	-0.712
782	-0.73
782	-0.731
783	-0.73
783	-0.736
784	-0.74
784	-0.733
784	-0.753
785	-0.746
785	-0.759
786	-0.762
786	-0.755
787	-0.745
787	-0.754
788	-0.746
788	-0.741
788	-0.742
789	-0.741
789	-0.729
790	-0.725
790	-0.71
791	-0.719
791	-0.713
791	-0.708
792	-0.701
792	-0.708
793	-0.71
793	-0.698
794	-0.693
794	-0.69
794	-0.699
795	-0.717
795	-0.703
796	-0.707
796	-0.706
797	-0.702
797	-0.692
797	-0.687
798	-0.709
798	-0.713
799	-0.712
799	-0.697
800	-0.695
800	-0.703
801	-0.702
801	-0.705
801	-0.7
802	-0.7
802	-0.698
803	-0.689
803	-0.684
804	-0.691
804	-0.698
804	-0.681
805	-0.663
805	-0.653
806	-0.654
806	-0.652
807	-0.656
807	-0.657
807	-0.643
808	-0.639
808	-0.632
809	-0.628
809	-0.63
810	-0.634
810	-0.633
810	-0.63
811	-0.633
811	-0.622
812	-0.618
812	-0.617
813	-0.622
813	-0.622
813	-0.617
814	-0.618
814	-0.622
815	-0.612
815	-0.607
816	-0.605
816	-0.62
817	-0.631
817	-0.638
817	-0.645
818	-0.639
818	-0.637
819	-0.646
819	-0.644
820	-0.658
820	-0.655
820	-0.653
821	-0.65
821	-0.645
822	-0.644
822	-0.632
823	-0.643
823	-0.642
823	-0.637
824	-0.635
824	-0.643
825	-0.644
825	-0.642
826	-0.638
826	-0.633
826	-0.632
827	-0.633
827	-0.623
828	-0.624
828	-0.62
829	-0.617
829	-0.603
829	-0.6
830	-0.6
830	-0.585
831	-0.578
831	-0.569
832	-0.56
832	-0.554
832	-0.549
833	-0.546
833	-0.548
834	-0.546
834	-0.542
835	-0.534
835	-0.535
835	-0.532
836	-0.528
836	-0.526
837	-0.519
837	-0.508
838	-0.5
838	-0.485
839	-0.48
839	-0.467
839	-0.458
840	-0.458
840	-0.448
841	-0.44
841	-0.436
842	-0.425
842	-0.416
842	-0.412
843	-0.408
843	-0.404
844	-0.403
844	-0.394
845	-0.383
845	-0.374
845	-0.365
846	-0.352
846	-0.344
847	-0.335
847	-0.322
848	-0.311
848	-0.299
848	-0.289
849	-0.28
849	-0.271
850	-0.264
850	-0.258
851	-0.249
851	-0.238
851	-0.233
852	-0.224
852	-0.215
853	-0.207
853	-0.199
854	-0.191
854	-0.182
854	-0.172
855	-0.163
855	-0.158
856	-0.153
856	-0.146
857	-0.14
857	-0.134
857	-0.125
858	-0.117
858	-0.113
859	-0.105
859	-0.098
860	-0.091
860	-0.08
860	-0.073
861	-0.066
861	-0.06
862	-0.054
862	-0.049
863	-0.044
863	-0.038
863	-0.034
864	-0.031
864	-0.027
865	-0.023
865	-0.019
866	-0.016
866	-0.013
866	-0.01
867	-0.007
867	-0.003
868	-0.001
868	0.002
869	0.005
869	0.008
869	0.01
870	0.012
870	0.014
871	0.015
871	0.016
872	0.017
872	0.017
872	0.017
873	0.017
873	0.017
874	0.017
874	0.016
875	0.015
875	0.015
875	0.014
876	0.014
876	0.013
877	0.012
877	0.011
878	0.01
878	0.01
878	0.009
879	0.008
879	0.008
880	0.007
880	0.006
881	0.006
881	0.006
881	0.006
882	0.006
882	0.006
883	0.005
883	0.005
884	0.005
884	0.005
884	0.004
885	0.004
885	0.004
886	0.003
886	0.002
887	0.001
887	-0
887	-0.001
888	-0.001
888	-0.002
889	-0.003
889	-0.003
890	-0.004
890	-0.004
890	-0.004
891	-0.004
891	-0.004
892	-0.003
892	-0.002
893	-0.002
893	-0.002
893	-0.002
894	-0.001
894	-0.001
895	-0.001
895	-0.001
895	-0.001
896	-0.001
896	-0
897	-0
897	-0
898	-0
898	0
898	0.001
899	0.001
899	0.001
900	0.002
900	0.002
901	0.002
901	0.001
901	0.001
902	0.001
902	0.001
903	0.001
903	0.001
904	-0
904	-0.001
904	-0.001
905	-0.001
905	-0.001
906	-0.001
906	-0.001
907	0
907	0
907	0.001
908	0.001
908	0.002
909	0.003
909	0.004
910	0.004
910	0.005
910	0.005
911	0.006
911	0.007
912	0.009
912	0.01
913	0.012
913	0.013
913	0.013
914	0.014
914	0.015
915	0.015
915	0.015
916	0.014
916	0.014
916	0.013
917	0.011
917	0.011
918	0.01
918	0.009
918	0.009
919	0.008
919	0.008
920	0.008
920	0.008
921	0.008
921	0.008
921	0.009
922	0.009
922	0.009
923	0.009
923	0.009
924	0.009
924	0.008
924	0.008
925	0.008
925	0.007
926	0.007
926	0.007
927	0.006
927	0.006
927	0.006
928	0.007
928	0.007
929	0.007
929	0.008
930	0.009
930	0.01
930	0.011
931	0.012
931	0.013
932	0.014
932	0.015
933	0.016
933	0.016
933	0.017
934	0.017
934	0.017
935	0.017
935	0.016
935	0.015
936	0.014
936	0.012
937	0.011
937	0.009
938	0.008
938	0.006
938	0.005
939	0.005
939	0.004
940	0.003
940	0.003
941	0.002
941	0.002
941	0.002
942	0.002
942	0.003
943	0.003
943	0.003
944	0.003
944	0.003
944	0.003
945	0.003
945	0.003
946	0.002
946	0.001
946	0.001
947	0
947	-0.001
948	-0.002
948	-0.002
949	-0.003
949	-0.003
949	-0.003
950	-0.003
950	-0.002
951	-0.002
951	-0.001
952	-0.001
952	0
952	0.001
953	0.002
953	0.002
954	0.003
954	0.003
955	0.003
955	0.003
955	0.003
956	0.003
956	0.003
957	0.002
957	0.001
957	0
958	0
958	-0
959	-0.001
959	-0.001
960	-0.001
960	-0.001
960	-0.002
961	-0.002
961	-0.002
962	-0.002
962	-0.002
963	-0.002
963	-0.002
963	-0.002
964	-0.002
964	-0.002
965	-0.001
965	-0.001
966	-0.001
966	-0
966	0.001
967	0.001
967	0.002
968	0.002
968	0.002
968	0.002
969	0.002
969	0.001
970	0
970	-0.001
971	-0.001
971	-0.002
971	-0.003
972	-0.003
972	-0.003
973	-0.003
973	-0.003
974	-0.003
974	-0.002
974	-0.001
975	0
975	0.001
976	0.002
976	0.003
976	0.004
977	0.005
977	0.005
978	0.005
978	0.005
979	0.005
979	0.004
979	0.004
980	0.003
980	0.003
981	0.002
981	0.002
982	0.002
982	0.002
982	0.002
983	0.002
983	0.001
984	0.001
984	0.001
984	0.001
985	0.001
985	0.002
986	0.001
986	0.001
987	0.001
987	0
987	0
988	-0
988	-0.001
989	-0.001
989	-0.002
990	-0.002
990	-0.003
990	-0.003
991	-0.003
991	-0.003
992	-0.003
992	-0.004
992	-0.004
993	-0.004
993	-0.004
994	-0.004
994	-0.005
995	-0.005
995	-0.005
995	-0.005
996	-0.006
996	-0.006
997	-0.007
997	-0.007
997	-0.007
998	-0.007
998	-0.006
999	-0.006
999	-0.006
1000	-0.006
1000	-0.006
1000	-0.005
1001	-0.005
1001	-0.004
1002	-0.004
1002	-0.004
1003	-0.003
1003	-0.004
1003	-0.004
1004	-0.004
1004	-0.004
1005	-0.005
1005	-0.006
1005	-0.007
1006	-0.008
1006	-0.009
1007	-0.009
1007	-0.01
1008	-0.011
1008	-0.012
1008	-0.012
1009	-0.012
1009	-0.012
1010	-0.011
1010	-0.011
1010	-0.011
1011	-0.01
1011	-0.01
1012	-0.01
1012	-0.009
1013	-0.008
1013	-0.007
1013	-0.007
1014	-0.007
1014	-0.006
1015	-0.006
1015	-0.005
1016	-0.005
1016	-0.004
1016	-0.004
1017	-0.004
1017	-0.004
1018	-0.004
1018	-0.004
1018	-0.004
1019	-0.004
1019	-0.004
1020	-0.005
1020	-0.005
1021	-0.006
1021	-0.006
1021	-0.007
1022	-0.008
1022	-0.008
1023	-0.009
1023	-0.01
1023	-0.011
1024	-0.012
1024	-0.013
1025	-0.013
1025	-0.014
1026	-0.015
1026	-0.015
1026	-0.016
1027	-0.016
1027	-0.016
1028	-0.016
1028	-0.016
1028	-0.016
1029	-0.016
1029	-0.016
1030	-0.016
1030	-0.016
1031	-0.016
1031	-0.016
1031	-0.016
1032	-0.016
1032	-0.016
1033	-0.016
1033	-0.016
1033	-0.016
1034	-0.016
1034	-0.016
1035	-0.016
1035	-0.016
1036	-0.016
1036	-0.016
1036	-0.016
1037	-0.015
1037	-0.015
1038	-0.014
1038	-0.014
1039	-0.013
1039	-0.012
1039	-0.011
1040	-0.011
1040	-0.011
1041	-0.011
1041	-0.011
1041	-0.012
1042	-0.013
1042	-0.013
1043	-0.014
1043	-0.015
1044	-0.016
1044	-0.017
1044	-0.018
1045	-0.019
1045	-0.02
1046	-0.021
1046	-0.021
1046	-0.021
1047	-0.021
1047	-0.021
1048	-0.021
1048	-0.021
1049	-0.021
1049	-0.021
1049	-0.022
1050	-0.022
1050	-0.023
1051	-0.024
1051	-0.024
1051	-0.025
1052	-0.026
1052	-0.026
1053	-0.027
1053	-0.027
1053	-0.027
1054	-0.027
1054	-0.027
1055	-0.026
1055	-0.026
1056	-0.027
1056	-0.027
1056	-0.027
1057	-0.027
1057	-0.027
1058	-0.028
1058	-0.028
1058	-0.028
1059	-0.029
1059	-0.029
1060	-0.029
1060	-0.029
1061	-0.029
1061	-0.028
1061	-0.028
1062	-0.028
1062	-0.028
1063	-0.028
1063	-0.028
1063	-0.028
1064	-0.028
1064	-0.028
1065	-0.028
1065	-0.028
1066	-0.028
1066	-0.028
1066	-0.028
1067	-0.029
1067	-0.029
1068	-0.029
1068	-0.03
1068	-0.03
1069	-0.031
1069	-0.031
1070	-0.032
1070	-0.032
1071	-0.032
1071	-0.033
1071	-0.033
1072	-0.033
1072	-0.032
1073	-0.032
1073	-0.032
1073	-0.031
1074	-0.031
1074	-0.03
1075	-0.031
1075	-0.03
1076	-0.031
1076	-0.031
1076	-0.032
1077	-0.033
1077	-0.033
1078	-0.034
1078	-0.035
1078	-0.035
1079	-0.036
1079	-0.036
1080	-0.037
1080	-0.037
1080	-0.038
1081	-0.038
1081	-0.038
1082	-0.038
1082	-0.039
1083	-0.04
1083	-0.04
1083	-0.041
1084	-0.041
1084	-0.042
1085	-0.042
1085	-0.042
1085	-0.042
1086	-0.043
1086	-0.043
1087	-0.044
1087	-0.044
1088	-0.045
1088	-0.045
1088	-0.046
1089	-0.047
1089	-0.048
1090	-0.048
1090	-0.049
1090	-0.05
1091	-0.052
1091	-0.052
1092	-0.052
1092	-0.052
1092	-0.053
1093	-0.054
1093	-0.054
1094	-0.054
1094	-0.055
1095	-0.056
1095	-0.056
1095	-0.056
1096	-0.057
1096	-0.058
1097	-0.059
1097	-0.06
1097	-0.061
1098	-0.062
1098	-0.064
1099	-0.065
1099	-0.065
1100	-0.067
1100	-0.068
1100	-0.07
1101	-0.072
1101	-0.074
1102	-0.076
1102	-0.078
1102	-0.08
1103	-0.08
1103	-0.082
1104	-0.085
1104	-0.087
1104	-0.089
1105	-0.09
1105	-0.092
1106	-0.096
1106	-0.098
1107	-0.102
1107	-0.105
1107	-0.11
1108	-0.111
1108	-0.113
1109	-0.116
1109	-0.12
1109	-0.124
1110	-0.126
1110	-0.128
1111	-0.135
1111	-0.135
