Data from 3.5A_17C_Absorbance__388__00390.txt Node

Date: Tue Jun 20 15:10:23 CEST 2023
User: Marek
Spectrometer: MAYP115816
Trigger mode: 0
Integration Time (sec): 2.200000E-1
Scans to average: 10
Electric dark correction enabled: true
Nonlinearity correction enabled: true
Boxcar width: 5
XAxis mode: Wavelengths
Number of Pixels in Spectrum: 2068
>>>>>Begin Spectral Data<<<<<
199	-0.645
199	-0.627
200	-0.586
200	-0.531
201	-0.504
201	-0.494
202	-0.476
202	-0.471
203	-0.472
203	-0.466
204	-0.448
204	-0.431
205	-0.409
205	-0.402
205	-0.41
206	-0.41
206	-0.408
207	-0.403
207	-0.407
208	-0.406
208	-0.41
209	-0.41
209	-0.416
210	-0.428
210	-0.434
211	-0.429
211	-0.431
212	-0.439
212	-0.445
213	-0.442
213	-0.438
213	-0.435
214	-0.442
214	-0.447
215	-0.444
215	-0.45
216	-0.46
216	-0.47
217	-0.467
217	-0.469
218	-0.478
218	-0.479
219	-0.486
219	-0.489
220	-0.49
220	-0.498
221	-0.497
221	-0.495
221	-0.487
222	-0.484
222	-0.483
223	-0.477
223	-0.478
224	-0.478
224	-0.475
225	-0.472
225	-0.473
226	-0.472
226	-0.472
227	-0.478
227	-0.49
228	-0.494
228	-0.504
229	-0.51
229	-0.509
229	-0.509
230	-0.504
230	-0.502
231	-0.499
231	-0.494
232	-0.495
232	-0.488
233	-0.486
233	-0.475
234	-0.474
234	-0.469
235	-0.473
235	-0.485
236	-0.491
236	-0.492
236	-0.493
237	-0.491
237	-0.494
238	-0.495
238	-0.498
239	-0.501
239	-0.51
240	-0.503
240	-0.5
241	-0.497
241	-0.499
242	-0.501
242	-0.51
243	-0.51
243	-0.509
243	-0.514
244	-0.508
244	-0.509
245	-0.513
245	-0.518
246	-0.525
246	-0.528
247	-0.536
247	-0.522
248	-0.52
248	-0.526
249	-0.529
249	-0.531
250	-0.529
250	-0.537
250	-0.534
251	-0.534
251	-0.533
252	-0.534
252	-0.546
253	-0.542
253	-0.553
254	-0.559
254	-0.559
255	-0.57
255	-0.566
256	-0.568
256	-0.58
257	-0.588
257	-0.586
258	-0.586
258	-0.594
258	-0.59
259	-0.583
259	-0.601
260	-0.6
260	-0.591
261	-0.603
261	-0.587
262	-0.592
262	-0.591
263	-0.581
263	-0.586
264	-0.595
264	-0.594
265	-0.585
265	-0.586
265	-0.595
266	-0.584
266	-0.582
267	-0.582
267	-0.595
268	-0.601
268	-0.595
269	-0.587
269	-0.601
270	-0.601
270	-0.602
271	-0.614
271	-0.624
272	-0.625
272	-0.628
272	-0.623
273	-0.634
273	-0.649
274	-0.64
274	-0.635
275	-0.636
275	-0.623
276	-0.627
276	-0.632
277	-0.637
277	-0.635
278	-0.636
278	-0.635
278	-0.625
279	-0.634
279	-0.646
280	-0.648
280	-0.659
281	-0.65
281	-0.642
282	-0.646
282	-0.64
283	-0.635
283	-0.65
284	-0.661
284	-0.672
285	-0.654
285	-0.66
285	-0.652
286	-0.657
286	-0.673
287	-0.672
287	-0.672
288	-0.669
288	-0.649
289	-0.647
289	-0.654
290	-0.659
290	-0.648
291	-0.654
291	-0.652
292	-0.633
292	-0.63
292	-0.633
293	-0.624
293	-0.623
294	-0.622
294	-0.608
295	-0.594
295	-0.607
296	-0.617
296	-0.611
297	-0.6
297	-0.605
298	-0.601
298	-0.617
298	-0.62
299	-0.6
299	-0.594
300	-0.592
300	-0.573
301	-0.555
301	-0.556
302	-0.567
302	-0.552
303	-0.544
303	-0.533
304	-0.517
304	-0.521
305	-0.513
305	-0.519
305	-0.533
306	-0.516
306	-0.517
307	-0.509
307	-0.518
308	-0.522
308	-0.518
309	-0.52
309	-0.515
310	-0.512
310	-0.507
311	-0.496
311	-0.515
311	-0.505
312	-0.503
312	-0.491
313	-0.481
313	-0.483
314	-0.487
314	-0.484
315	-0.48
315	-0.475
316	-0.468
316	-0.457
317	-0.449
317	-0.444
318	-0.438
318	-0.435
318	-0.423
319	-0.414
319	-0.407
320	-0.408
320	-0.405
321	-0.402
321	-0.402
322	-0.397
322	-0.39
323	-0.39
323	-0.384
324	-0.381
324	-0.37
324	-0.361
325	-0.346
325	-0.33
326	-0.321
326	-0.296
327	-0.282
327	-0.262
328	-0.234
328	-0.212
329	-0.189
329	-0.16
330	-0.134
330	-0.101
330	-0.066
331	-0.032
331	-0.001
332	0.032
332	0.061
333	0.091
333	0.123
334	0.151
334	0.172
335	0.197
335	0.217
336	0.235
336	0.254
336	0.269
337	0.283
337	0.298
338	0.309
338	0.318
339	0.329
339	0.339
340	0.345
340	0.352
341	0.358
341	0.362
342	0.368
342	0.373
342	0.377
343	0.38
343	0.383
344	0.386
344	0.388
345	0.39
345	0.392
346	0.394
346	0.396
347	0.397
347	0.398
348	0.399
348	0.401
348	0.401
349	0.401
349	0.402
350	0.402
350	0.403
351	0.403
351	0.403
352	0.403
352	0.403
353	0.403
353	0.403
354	0.403
354	0.403
354	0.403
355	0.403
355	0.403
356	0.403
356	0.403
357	0.403
357	0.403
358	0.403
358	0.403
359	0.403
359	0.403
360	0.402
360	0.402
360	0.402
361	0.402
361	0.402
362	0.402
362	0.402
363	0.402
363	0.402
364	0.401
364	0.401
365	0.401
365	0.4
366	0.4
366	0.4
366	0.4
367	0.399
367	0.399
368	0.398
368	0.398
369	0.398
369	0.397
370	0.397
370	0.397
371	0.396
371	0.396
372	0.395
372	0.395
372	0.395
373	0.394
373	0.394
374	0.394
374	0.393
375	0.393
375	0.393
376	0.392
376	0.392
377	0.391
377	0.391
378	0.39
378	0.39
378	0.39
379	0.389
379	0.389
380	0.388
380	0.388
381	0.388
381	0.387
382	0.387
382	0.386
383	0.386
383	0.386
383	0.385
384	0.384
384	0.384
385	0.383
385	0.383
386	0.383
386	0.382
387	0.382
387	0.381
388	0.381
388	0.381
389	0.38
389	0.38
389	0.38
390	0.379
390	0.379
391	0.378
391	0.378
392	0.378
392	0.377
393	0.377
393	0.376
394	0.376
394	0.376
394	0.375
395	0.375
395	0.374
396	0.373
396	0.373
397	0.372
397	0.372
398	0.371
398	0.371
399	0.37
399	0.37
400	0.369
400	0.369
400	0.369
401	0.368
401	0.368
402	0.368
402	0.367
403	0.367
403	0.367
404	0.366
404	0.366
405	0.365
405	0.364
405	0.364
406	0.364
406	0.363
407	0.363
407	0.363
408	0.362
408	0.362
409	0.362
409	0.362
410	0.362
410	0.362
411	0.361
411	0.361
411	0.361
412	0.36
412	0.36
413	0.359
413	0.359
414	0.359
414	0.358
415	0.358
415	0.358
416	0.357
416	0.357
416	0.357
417	0.356
417	0.356
418	0.356
418	0.356
419	0.356
419	0.356
420	0.356
420	0.356
421	0.355
421	0.355
421	0.355
422	0.355
422	0.355
423	0.355
423	0.354
424	0.354
424	0.354
425	0.354
425	0.354
426	0.354
426	0.354
427	0.354
427	0.353
427	0.353
428	0.353
428	0.353
429	0.353
429	0.352
430	0.352
430	0.351
431	0.351
431	0.351
432	0.351
432	0.35
432	0.35
433	0.35
433	0.35
434	0.35
434	0.35
435	0.351
435	0.351
436	0.351
436	0.351
437	0.351
437	0.35
437	0.35
438	0.351
438	0.351
439	0.351
439	0.351
440	0.35
440	0.35
441	0.35
441	0.35
442	0.35
442	0.35
442	0.35
443	0.35
443	0.35
444	0.35
444	0.35
445	0.35
445	0.35
446	0.35
446	0.35
447	0.35
447	0.351
447	0.351
448	0.351
448	0.351
449	0.351
449	0.351
450	0.352
450	0.351
451	0.352
451	0.352
452	0.352
452	0.352
452	0.352
453	0.352
453	0.352
454	0.352
454	0.352
455	0.352
455	0.353
456	0.353
456	0.353
457	0.353
457	0.353
458	0.354
458	0.354
458	0.354
459	0.354
459	0.354
460	0.354
460	0.354
461	0.354
461	0.355
462	0.355
462	0.357
463	0.357
463	0.359
463	0.359
464	0.36
464	0.36
465	0.361
465	0.361
466	0.362
466	0.363
467	0.363
467	0.363
467	0.363
468	0.363
468	0.364
469	0.364
469	0.365
470	0.366
470	0.367
471	0.368
471	0.369
472	0.369
472	0.371
472	0.372
473	0.373
473	0.374
474	0.375
474	0.376
475	0.377
475	0.378
476	0.379
476	0.381
477	0.382
477	0.383
477	0.384
478	0.385
478	0.386
479	0.387
479	0.389
480	0.39
480	0.392
481	0.393
481	0.395
482	0.396
482	0.398
482	0.4
483	0.402
483	0.404
484	0.406
484	0.408
485	0.41
485	0.412
486	0.413
486	0.415
487	0.417
487	0.419
487	0.42
488	0.422
488	0.424
489	0.426
489	0.428
490	0.431
490	0.433
491	0.435
491	0.438
492	0.441
492	0.443
492	0.446
493	0.448
493	0.451
494	0.454
494	0.457
495	0.46
495	0.463
496	0.466
496	0.469
496	0.472
497	0.475
497	0.478
498	0.481
498	0.485
499	0.488
499	0.492
500	0.496
500	0.5
501	0.503
501	0.507
501	0.51
502	0.513
502	0.516
503	0.52
503	0.523
504	0.527
504	0.53
505	0.534
505	0.537
506	0.541
506	0.545
506	0.549
507	0.553
507	0.557
508	0.56
508	0.565
509	0.569
509	0.572
510	0.577
510	0.58
511	0.584
511	0.587
511	0.591
512	0.594
512	0.598
513	0.601
513	0.604
514	0.607
514	0.611
515	0.614
515	0.617
515	0.62
516	0.622
516	0.625
517	0.628
517	0.63
518	0.633
518	0.635
519	0.636
519	0.638
520	0.64
520	0.643
520	0.645
521	0.647
521	0.649
522	0.65
522	0.652
523	0.653
523	0.654
524	0.655
524	0.656
524	0.657
525	0.658
525	0.658
526	0.659
526	0.66
527	0.66
527	0.66
528	0.66
528	0.66
529	0.66
529	0.659
529	0.658
530	0.657
530	0.656
531	0.655
531	0.653
532	0.652
532	0.65
533	0.648
533	0.646
533	0.644
534	0.642
534	0.64
535	0.638
535	0.635
536	0.633
536	0.63
537	0.627
537	0.625
538	0.622
538	0.619
538	0.616
539	0.613
539	0.61
540	0.606
540	0.602
541	0.598
541	0.595
542	0.591
542	0.587
542	0.583
543	0.578
543	0.574
544	0.57
544	0.565
545	0.561
545	0.556
546	0.552
546	0.547
547	0.542
547	0.537
547	0.533
548	0.528
548	0.523
549	0.519
549	0.514
550	0.509
550	0.504
551	0.498
551	0.492
551	0.487
552	0.482
552	0.477
553	0.472
553	0.467
554	0.462
554	0.456
555	0.451
555	0.446
556	0.441
556	0.435
556	0.431
557	0.425
557	0.42
558	0.415
558	0.41
559	0.405
559	0.4
560	0.395
560	0.391
560	0.387
561	0.383
561	0.379
562	0.375
562	0.371
563	0.366
563	0.362
564	0.358
564	0.354
564	0.35
565	0.346
565	0.342
566	0.338
566	0.334
567	0.33
567	0.326
568	0.322
568	0.317
568	0.312
569	0.308
569	0.304
570	0.299
570	0.295
571	0.291
571	0.288
572	0.283
572	0.279
573	0.276
573	0.272
573	0.268
574	0.265
574	0.262
575	0.259
575	0.257
576	0.254
576	0.25
577	0.246
577	0.244
577	0.242
578	0.239
578	0.237
579	0.236
579	0.233
580	0.23
580	0.226
581	0.223
581	0.221
581	0.219
582	0.217
582	0.214
583	0.212
583	0.209
584	0.205
584	0.201
585	0.198
585	0.196
585	0.193
586	0.19
586	0.187
587	0.185
587	0.182
588	0.179
588	0.177
589	0.175
589	0.174
590	0.172
590	0.17
590	0.169
591	0.168
591	0.166
592	0.164
592	0.162
593	0.16
593	0.159
594	0.157
594	0.155
594	0.154
595	0.153
595	0.151
596	0.149
596	0.148
597	0.148
597	0.146
598	0.144
598	0.143
598	0.142
599	0.141
599	0.139
600	0.138
600	0.136
601	0.135
601	0.134
602	0.132
602	0.131
602	0.13
603	0.129
603	0.128
604	0.127
604	0.126
605	0.125
605	0.124
606	0.122
606	0.121
606	0.119
607	0.118
607	0.117
608	0.116
608	0.114
609	0.113
609	0.112
610	0.111
610	0.109
610	0.108
611	0.108
611	0.107
612	0.106
612	0.106
613	0.105
613	0.104
614	0.103
614	0.101
614	0.101
615	0.1
615	0.099
616	0.098
616	0.097
617	0.096
617	0.095
618	0.094
618	0.093
618	0.092
619	0.092
619	0.092
620	0.092
620	0.091
621	0.09
621	0.09
622	0.089
622	0.088
622	0.087
623	0.086
623	0.086
624	0.085
624	0.084
625	0.083
625	0.083
626	0.082
626	0.081
626	0.081
627	0.08
627	0.079
628	0.078
628	0.077
629	0.076
629	0.075
630	0.074
630	0.073
630	0.072
631	0.072
631	0.07
632	0.07
632	0.069
633	0.068
633	0.068
634	0.067
634	0.066
634	0.066
635	0.064
635	0.063
636	0.062
636	0.061
637	0.06
637	0.059
638	0.058
638	0.057
638	0.056
639	0.055
639	0.053
640	0.052
640	0.051
641	0.05
641	0.049
642	0.047
642	0.047
642	0.045
643	0.044
643	0.042
644	0.041
644	0.04
645	0.038
645	0.036
646	0.034
646	0.032
646	0.029
647	0.026
647	0.023
648	0.02
648	0.017
649	0.014
649	0.011
650	0.008
650	0.005
650	0.002
651	-0.002
651	-0.008
652	-0.013
652	-0.02
653	-0.025
653	-0.03
653	-0.026
654	-0.019
654	-0.02
655	-0.023
655	-0.026
656	-0.029
656	-0.032
657	-0.035
657	-0.038
657	-0.042
658	-0.045
658	-0.063
659	-0.107
659	-0.15
660	-0.172
660	-0.185
661	-0.2
661	-0.219
661	-0.237
662	-0.252
662	-0.268
663	-0.286
663	-0.306
664	-0.325
664	-0.348
665	-0.371
665	-0.398
665	-0.421
666	-0.446
666	-0.475
667	-0.506
667	-0.544
668	-0.579
668	-0.628
669	-0.673
669	-0.722
669	-0.781
670	-0.85
670	-0.998
671	-1.268
671	-1.606
672	-2.002
672	-2.282
672	-2.456
673	-2.583
673	-2.616
674	-2.635
674	-2.645
675	-2.659
675	-2.664
676	-2.661
676	-2.636
676	-2.562
677	-2.416
677	-2.195
678	-1.648
678	-1.181
679	-1.009
679	-0.926
680	-0.869
680	-0.828
680	-0.796
681	-0.779
681	-0.751
682	-0.734
682	-0.709
683	-0.683
683	-0.679
684	-0.667
684	-0.663
684	-0.655
685	-0.649
685	-0.651
686	-0.639
686	-0.635
687	-0.634
687	-0.631
687	-0.641
688	-0.631
688	-0.63
689	-0.641
689	-0.643
690	-0.637
690	-0.629
691	-0.632
691	-0.641
691	-0.647
692	-0.652
692	-0.65
693	-0.659
693	-0.673
694	-0.655
694	-0.656
695	-0.662
695	-0.656
695	-0.664
696	-0.671
696	-0.664
697	-0.658
697	-0.656
698	-0.653
698	-0.644
698	-0.66
699	-0.66
699	-0.659
700	-0.683
700	-0.678
701	-0.665
701	-0.661
702	-0.661
702	-0.663
702	-0.664
703	-0.659
703	-0.644
704	-0.651
704	-0.656
705	-0.644
705	-0.644
705	-0.639
706	-0.632
706	-0.629
707	-0.638
707	-0.643
708	-0.639
708	-0.639
709	-0.642
709	-0.639
709	-0.635
710	-0.645
710	-0.651
711	-0.652
711	-0.655
712	-0.649
712	-0.646
713	-0.653
713	-0.654
713	-0.636
714	-0.637
714	-0.642
715	-0.635
715	-0.64
716	-0.657
716	-0.665
716	-0.667
717	-0.674
717	-0.668
718	-0.661
718	-0.661
719	-0.657
719	-0.65
720	-0.645
720	-0.642
720	-0.637
721	-0.629
721	-0.63
722	-0.627
722	-0.623
723	-0.644
723	-0.656
723	-0.668
724	-0.666
724	-0.67
725	-0.665
725	-0.666
726	-0.67
726	-0.662
727	-0.665
727	-0.672
727	-0.661
728	-0.648
728	-0.642
729	-0.644
729	-0.647
730	-0.651
730	-0.644
730	-0.648
731	-0.652
731	-0.65
732	-0.652
732	-0.647
733	-0.662
733	-0.668
734	-0.677
734	-0.671
734	-0.655
735	-0.646
735	-0.641
736	-0.64
736	-0.636
737	-0.636
737	-0.627
737	-0.619
738	-0.606
738	-0.595
739	-0.597
739	-0.597
740	-0.612
740	-0.612
741	-0.622
741	-0.632
741	-0.641
742	-0.65
742	-0.664
743	-0.672
743	-0.676
744	-0.68
744	-0.69
744	-0.683
745	-0.693
745	-0.681
746	-0.677
746	-0.668
747	-0.669
747	-0.661
748	-0.66
748	-0.663
748	-0.664
749	-0.657
749	-0.662
750	-0.652
750	-0.653
751	-0.651
751	-0.649
751	-0.661
752	-0.665
752	-0.667
753	-0.669
753	-0.66
754	-0.677
754	-0.678
754	-0.685
755	-0.686
755	-0.682
756	-0.685
756	-0.67
757	-0.662
757	-0.649
758	-0.651
758	-0.651
758	-0.644
759	-0.65
759	-0.652
760	-0.65
760	-0.651
761	-0.644
761	-0.648
761	-0.649
762	-0.659
762	-0.657
763	-0.657
763	-0.661
764	-0.66
764	-0.655
764	-0.662
765	-0.657
765	-0.663
766	-0.667
766	-0.669
767	-0.685
767	-0.681
768	-0.68
768	-0.67
768	-0.664
769	-0.67
769	-0.678
770	-0.688
770	-0.693
771	-0.69
771	-0.69
771	-0.694
772	-0.7
772	-0.721
773	-0.723
773	-0.724
774	-0.721
774	-0.705
775	-0.694
775	-0.693
775	-0.695
776	-0.703
776	-0.697
777	-0.695
777	-0.676
778	-0.686
778	-0.693
778	-0.691
779	-0.698
779	-0.713
780	-0.708
780	-0.716
781	-0.706
781	-0.698
781	-0.711
782	-0.733
782	-0.733
783	-0.733
783	-0.742
784	-0.744
784	-0.737
784	-0.757
785	-0.749
785	-0.765
786	-0.77
786	-0.766
787	-0.756
787	-0.764
788	-0.758
788	-0.754
788	-0.755
789	-0.755
789	-0.746
790	-0.746
790	-0.728
791	-0.734
791	-0.731
791	-0.723
792	-0.719
792	-0.723
793	-0.726
793	-0.716
794	-0.709
794	-0.702
794	-0.709
795	-0.73
795	-0.715
796	-0.719
796	-0.719
797	-0.711
797	-0.701
797	-0.694
798	-0.714
798	-0.717
799	-0.717
799	-0.705
800	-0.701
800	-0.708
801	-0.706
801	-0.708
801	-0.705
802	-0.707
802	-0.707
803	-0.701
803	-0.696
804	-0.702
804	-0.708
804	-0.692
805	-0.676
805	-0.666
806	-0.668
806	-0.664
807	-0.665
807	-0.663
807	-0.647
808	-0.643
808	-0.638
809	-0.632
809	-0.634
810	-0.639
810	-0.636
810	-0.635
811	-0.639
811	-0.63
812	-0.624
812	-0.626
813	-0.629
813	-0.629
813	-0.626
814	-0.625
814	-0.628
815	-0.618
815	-0.611
816	-0.607
816	-0.622
817	-0.634
817	-0.64
817	-0.649
818	-0.642
818	-0.64
819	-0.647
819	-0.646
820	-0.657
820	-0.66
820	-0.659
821	-0.656
821	-0.65
822	-0.647
822	-0.633
823	-0.644
823	-0.643
823	-0.64
824	-0.639
824	-0.65
825	-0.648
825	-0.646
826	-0.64
826	-0.637
826	-0.639
827	-0.643
827	-0.634
828	-0.634
828	-0.628
829	-0.623
829	-0.607
829	-0.606
830	-0.603
830	-0.59
831	-0.585
831	-0.574
832	-0.564
832	-0.559
832	-0.55
833	-0.549
833	-0.554
834	-0.552
834	-0.546
835	-0.539
835	-0.538
835	-0.535
836	-0.531
836	-0.528
837	-0.519
837	-0.514
838	-0.504
838	-0.489
839	-0.484
839	-0.471
839	-0.463
840	-0.464
840	-0.453
841	-0.445
841	-0.44
842	-0.433
842	-0.423
842	-0.421
843	-0.418
843	-0.414
844	-0.413
844	-0.403
845	-0.39
845	-0.383
845	-0.373
846	-0.364
846	-0.355
847	-0.346
847	-0.336
848	-0.323
848	-0.311
848	-0.3
849	-0.291
849	-0.282
850	-0.275
850	-0.267
851	-0.258
851	-0.245
851	-0.238
852	-0.226
852	-0.217
853	-0.209
853	-0.201
854	-0.193
854	-0.185
854	-0.174
855	-0.166
855	-0.159
856	-0.154
856	-0.147
857	-0.142
857	-0.135
857	-0.126
858	-0.119
858	-0.113
859	-0.105
859	-0.098
860	-0.091
860	-0.081
860	-0.074
861	-0.068
861	-0.061
862	-0.057
862	-0.051
863	-0.045
863	-0.04
863	-0.035
864	-0.032
864	-0.027
865	-0.023
865	-0.019
866	-0.015
866	-0.012
866	-0.009
867	-0.005
867	-0.002
868	0
868	0.003
869	0.006
869	0.008
869	0.01
870	0.012
870	0.014
871	0.015
871	0.016
872	0.017
872	0.017
872	0.018
873	0.018
873	0.017
874	0.017
874	0.016
875	0.016
875	0.015
875	0.015
876	0.014
876	0.014
877	0.013
877	0.012
878	0.011
878	0.01
878	0.01
879	0.009
879	0.009
880	0.008
880	0.008
881	0.007
881	0.007
881	0.007
882	0.007
882	0.006
883	0.006
883	0.006
884	0.006
884	0.006
884	0.005
885	0.005
885	0.004
886	0.003
886	0.003
887	0.002
887	0.001
887	-0
888	-0.001
888	-0.002
889	-0.002
889	-0.003
890	-0.003
890	-0.004
890	-0.004
891	-0.004
891	-0.003
892	-0.002
892	-0.002
893	-0.001
893	-0.001
893	-0.001
894	-0.001
894	-0.001
895	-0.001
895	-0.001
895	-0.001
896	-0.001
896	-0
897	-0.001
897	-0.001
898	-0.001
898	-0
898	0
899	0.001
899	0.001
900	0.001
900	0.001
901	0.001
901	0.001
901	0.001
902	0.001
902	0.002
903	0.002
903	0.001
904	0.001
904	-0
904	-0
905	-0
905	-0
906	0
906	0.001
907	0.001
907	0.001
907	0.002
908	0.003
908	0.004
909	0.004
909	0.005
910	0.005
910	0.006
910	0.006
911	0.007
911	0.008
912	0.009
912	0.011
913	0.012
913	0.013
913	0.014
914	0.015
914	0.016
915	0.016
915	0.016
916	0.015
916	0.014
916	0.013
917	0.012
917	0.012
918	0.011
918	0.01
918	0.01
919	0.009
919	0.009
920	0.009
920	0.009
921	0.009
921	0.009
921	0.01
922	0.01
922	0.01
923	0.009
923	0.009
924	0.009
924	0.009
924	0.009
925	0.008
925	0.008
926	0.008
926	0.007
927	0.007
927	0.007
927	0.007
928	0.007
928	0.008
929	0.008
929	0.009
930	0.01
930	0.01
930	0.011
931	0.012
931	0.013
932	0.014
932	0.015
933	0.016
933	0.016
933	0.017
934	0.017
934	0.017
935	0.017
935	0.016
935	0.015
936	0.014
936	0.012
937	0.011
937	0.009
938	0.008
938	0.007
938	0.005
939	0.004
939	0.004
940	0.003
940	0.003
941	0.002
941	0.002
941	0.002
942	0.002
942	0.002
943	0.003
943	0.003
944	0.003
944	0.003
944	0.003
945	0.003
945	0.003
946	0.002
946	0.001
946	0.001
947	0
947	-0
948	-0.001
948	-0.001
949	-0.002
949	-0.002
949	-0.001
950	-0.001
950	-0.001
951	-0.001
951	-0
952	0
952	0.001
952	0.001
953	0.002
953	0.003
954	0.003
954	0.003
955	0.003
955	0.003
955	0.003
956	0.003
956	0.003
957	0.002
957	0.002
957	0.001
958	0.001
958	0.001
959	0
959	-0
960	-0
960	-0
960	-0
961	-0.001
961	-0.001
962	-0.001
962	-0.001
963	-0.001
963	-0.001
963	-0.001
964	-0.001
964	-0.001
965	-0.001
965	-0
966	-0
966	0
966	0.001
967	0.002
967	0.002
968	0.002
968	0.002
968	0.002
969	0.002
969	0.001
970	0
970	-0.001
971	-0.001
971	-0.002
971	-0.003
972	-0.003
972	-0.003
973	-0.003
973	-0.003
974	-0.003
974	-0.002
974	-0.001
975	0
975	0.002
976	0.003
976	0.004
976	0.004
977	0.005
977	0.005
978	0.005
978	0.005
979	0.005
979	0.005
979	0.004
980	0.004
980	0.003
981	0.003
981	0.002
982	0.002
982	0.002
982	0.002
983	0.002
983	0.002
984	0.002
984	0.002
984	0.002
985	0.002
985	0.002
986	0.002
986	0.002
987	0.001
987	0.001
987	0.001
988	0.001
988	0
989	-0
989	-0
990	-0.001
990	-0.002
990	-0.002
991	-0.002
991	-0.003
992	-0.003
992	-0.003
992	-0.003
993	-0.003
993	-0.004
994	-0.004
994	-0.004
995	-0.004
995	-0.005
995	-0.005
996	-0.005
996	-0.006
997	-0.006
997	-0.007
997	-0.007
998	-0.006
998	-0.006
999	-0.006
999	-0.006
1000	-0.005
1000	-0.005
1000	-0.005
1001	-0.004
1001	-0.004
1002	-0.004
1002	-0.003
1003	-0.003
1003	-0.004
1003	-0.004
1004	-0.004
1004	-0.004
1005	-0.005
1005	-0.006
1005	-0.007
1006	-0.008
1006	-0.009
1007	-0.009
1007	-0.01
1008	-0.011
1008	-0.012
1008	-0.012
1009	-0.012
1009	-0.012
1010	-0.011
1010	-0.011
1010	-0.01
1011	-0.01
1011	-0.009
1012	-0.009
1012	-0.008
1013	-0.007
1013	-0.007
1013	-0.007
1014	-0.006
1014	-0.006
1015	-0.006
1015	-0.005
1016	-0.005
1016	-0.004
1016	-0.004
1017	-0.004
1017	-0.004
1018	-0.003
1018	-0.003
1018	-0.004
1019	-0.004
1019	-0.004
1020	-0.004
1020	-0.005
1021	-0.005
1021	-0.006
1021	-0.007
1022	-0.008
1022	-0.008
1023	-0.009
1023	-0.01
1023	-0.011
1024	-0.011
1024	-0.012
1025	-0.013
1025	-0.014
1026	-0.014
1026	-0.014
1026	-0.015
1027	-0.015
1027	-0.016
1028	-0.016
1028	-0.015
1028	-0.015
1029	-0.015
1029	-0.015
1030	-0.015
1030	-0.015
1031	-0.015
1031	-0.015
1031	-0.015
1032	-0.015
1032	-0.015
1033	-0.015
1033	-0.016
1033	-0.016
1034	-0.016
1034	-0.016
1035	-0.016
1035	-0.016
1036	-0.016
1036	-0.016
1036	-0.015
1037	-0.015
1037	-0.014
1038	-0.013
1038	-0.013
1039	-0.012
1039	-0.011
1039	-0.011
1040	-0.01
1040	-0.01
1041	-0.01
1041	-0.01
1041	-0.01
1042	-0.011
1042	-0.012
1043	-0.013
1043	-0.014
1044	-0.015
1044	-0.016
1044	-0.017
1045	-0.018
1045	-0.019
1046	-0.019
1046	-0.02
1046	-0.02
1047	-0.02
1047	-0.02
1048	-0.02
1048	-0.02
1049	-0.02
1049	-0.02
1049	-0.021
1050	-0.022
1050	-0.022
1051	-0.023
1051	-0.024
1051	-0.024
1052	-0.025
1052	-0.026
1053	-0.026
1053	-0.026
1053	-0.027
1054	-0.027
1054	-0.027
1055	-0.026
1055	-0.026
1056	-0.026
1056	-0.026
1056	-0.026
1057	-0.027
1057	-0.027
1058	-0.028
1058	-0.028
1058	-0.028
1059	-0.028
1059	-0.028
1060	-0.029
1060	-0.028
1061	-0.028
1061	-0.028
1061	-0.027
1062	-0.027
1062	-0.027
1063	-0.027
1063	-0.027
1063	-0.027
1064	-0.027
1064	-0.027
1065	-0.027
1065	-0.028
1066	-0.028
1066	-0.028
1066	-0.028
1067	-0.028
1067	-0.028
1068	-0.029
1068	-0.029
1068	-0.029
1069	-0.03
1069	-0.031
1070	-0.031
1070	-0.031
1071	-0.032
1071	-0.032
1071	-0.032
1072	-0.032
1072	-0.032
1073	-0.031
1073	-0.031
1073	-0.031
1074	-0.03
1074	-0.03
1075	-0.03
1075	-0.03
1076	-0.031
1076	-0.03
1076	-0.031
1077	-0.032
1077	-0.033
1078	-0.034
1078	-0.034
1078	-0.035
1079	-0.036
1079	-0.035
1080	-0.036
1080	-0.037
1080	-0.038
1081	-0.038
1081	-0.038
1082	-0.038
1082	-0.039
1083	-0.039
1083	-0.04
1083	-0.041
1084	-0.042
1084	-0.042
1085	-0.043
1085	-0.042
1085	-0.042
1086	-0.043
1086	-0.043
1087	-0.044
1087	-0.044
1088	-0.045
1088	-0.045
1088	-0.046
1089	-0.047
1089	-0.048
1090	-0.049
1090	-0.049
1090	-0.05
1091	-0.051
1091	-0.051
1092	-0.052
1092	-0.052
1092	-0.052
1093	-0.053
1093	-0.053
1094	-0.053
1094	-0.053
1095	-0.054
1095	-0.055
1095	-0.055
1096	-0.057
1096	-0.058
1097	-0.059
1097	-0.06
1097	-0.061
1098	-0.063
1098	-0.064
1099	-0.065
1099	-0.066
1100	-0.068
1100	-0.07
1100	-0.072
1101	-0.074
1101	-0.075
1102	-0.077
1102	-0.079
1102	-0.08
1103	-0.082
1103	-0.085
1104	-0.088
1104	-0.09
1104	-0.091
1105	-0.092
1105	-0.093
1106	-0.097
1106	-0.098
1107	-0.102
1107	-0.105
1107	-0.108
1108	-0.109
1108	-0.11
1109	-0.112
1109	-0.115
1109	-0.118
1110	-0.119
1110	-0.121
1111	-0.128
1111	-0.125
