Data from 3.5A_17C_Absorbance__232__00234.txt Node

Date: Tue Jun 20 15:04:40 CEST 2023
User: Marek
Spectrometer: MAYP115816
Trigger mode: 0
Integration Time (sec): 2.200000E-1
Scans to average: 10
Electric dark correction enabled: true
Nonlinearity correction enabled: true
Boxcar width: 5
XAxis mode: Wavelengths
Number of Pixels in Spectrum: 2068
>>>>>Begin Spectral Data<<<<<
199	-0.594
199	-0.574
200	-0.536
200	-0.482
201	-0.457
201	-0.449
202	-0.432
202	-0.422
203	-0.421
203	-0.413
204	-0.393
204	-0.377
205	-0.354
205	-0.347
205	-0.355
206	-0.356
206	-0.353
207	-0.347
207	-0.353
208	-0.357
208	-0.363
209	-0.364
209	-0.372
210	-0.384
210	-0.39
211	-0.385
211	-0.385
212	-0.392
212	-0.399
213	-0.395
213	-0.389
213	-0.385
214	-0.392
214	-0.392
215	-0.391
215	-0.397
216	-0.405
216	-0.414
217	-0.412
217	-0.412
218	-0.421
218	-0.424
219	-0.431
219	-0.434
220	-0.436
220	-0.442
221	-0.439
221	-0.438
221	-0.428
222	-0.427
222	-0.425
223	-0.42
223	-0.421
224	-0.421
224	-0.419
225	-0.418
225	-0.419
226	-0.421
226	-0.423
227	-0.429
227	-0.439
228	-0.442
228	-0.451
229	-0.455
229	-0.455
229	-0.453
230	-0.449
230	-0.447
231	-0.445
231	-0.439
232	-0.441
232	-0.435
233	-0.437
233	-0.426
234	-0.427
234	-0.423
235	-0.428
235	-0.437
236	-0.441
236	-0.442
236	-0.442
237	-0.441
237	-0.441
238	-0.44
238	-0.439
239	-0.44
239	-0.45
240	-0.443
240	-0.442
241	-0.436
241	-0.436
242	-0.441
242	-0.451
243	-0.452
243	-0.453
243	-0.459
244	-0.457
244	-0.456
245	-0.457
245	-0.46
246	-0.468
246	-0.472
247	-0.478
247	-0.464
248	-0.461
248	-0.465
249	-0.468
249	-0.469
250	-0.47
250	-0.479
250	-0.476
251	-0.48
251	-0.48
252	-0.481
252	-0.491
253	-0.487
253	-0.499
254	-0.504
254	-0.503
255	-0.513
255	-0.511
256	-0.515
256	-0.525
257	-0.534
257	-0.531
258	-0.532
258	-0.541
258	-0.535
259	-0.527
259	-0.544
260	-0.542
260	-0.532
261	-0.54
261	-0.527
262	-0.53
262	-0.529
263	-0.521
263	-0.524
264	-0.533
264	-0.536
265	-0.528
265	-0.529
265	-0.539
266	-0.529
266	-0.527
267	-0.525
267	-0.538
268	-0.546
268	-0.541
269	-0.534
269	-0.546
270	-0.552
270	-0.552
271	-0.563
271	-0.575
272	-0.576
272	-0.582
272	-0.577
273	-0.583
273	-0.597
274	-0.589
274	-0.583
275	-0.576
275	-0.562
276	-0.568
276	-0.573
277	-0.574
277	-0.571
278	-0.575
278	-0.576
278	-0.566
279	-0.573
279	-0.587
280	-0.591
280	-0.605
281	-0.596
281	-0.587
282	-0.594
282	-0.587
283	-0.581
283	-0.596
284	-0.607
284	-0.616
285	-0.597
285	-0.602
285	-0.593
286	-0.598
286	-0.614
287	-0.608
287	-0.605
288	-0.604
288	-0.587
289	-0.584
289	-0.593
290	-0.603
290	-0.593
291	-0.594
291	-0.591
292	-0.572
292	-0.57
292	-0.576
293	-0.563
293	-0.558
294	-0.557
294	-0.543
295	-0.525
295	-0.537
296	-0.55
296	-0.544
297	-0.534
297	-0.54
298	-0.537
298	-0.555
298	-0.557
299	-0.542
299	-0.535
300	-0.53
300	-0.509
301	-0.492
301	-0.496
302	-0.506
302	-0.491
303	-0.479
303	-0.471
304	-0.457
304	-0.46
305	-0.453
305	-0.46
305	-0.476
306	-0.461
306	-0.457
307	-0.451
307	-0.461
308	-0.467
308	-0.461
309	-0.461
309	-0.457
310	-0.459
310	-0.455
311	-0.444
311	-0.462
311	-0.451
312	-0.447
312	-0.436
313	-0.429
313	-0.429
314	-0.433
314	-0.432
315	-0.425
315	-0.42
316	-0.414
316	-0.405
317	-0.399
317	-0.399
318	-0.391
318	-0.391
318	-0.38
319	-0.373
319	-0.365
320	-0.363
320	-0.362
321	-0.357
321	-0.357
322	-0.351
322	-0.343
323	-0.345
323	-0.334
324	-0.331
324	-0.32
324	-0.31
325	-0.296
325	-0.278
326	-0.269
326	-0.244
327	-0.23
327	-0.21
328	-0.18
328	-0.159
329	-0.134
329	-0.106
330	-0.078
330	-0.045
330	-0.013
331	0.021
331	0.05
332	0.079
332	0.108
333	0.136
333	0.166
334	0.189
334	0.21
335	0.231
335	0.247
336	0.263
336	0.279
336	0.293
337	0.306
337	0.319
338	0.329
338	0.336
339	0.346
339	0.354
340	0.359
340	0.366
341	0.371
341	0.376
342	0.38
342	0.384
342	0.388
343	0.39
343	0.394
344	0.396
344	0.398
345	0.4
345	0.402
346	0.403
346	0.405
347	0.406
347	0.407
348	0.408
348	0.409
348	0.409
349	0.409
349	0.41
350	0.41
350	0.41
351	0.411
351	0.411
352	0.411
352	0.41
353	0.411
353	0.411
354	0.411
354	0.411
354	0.411
355	0.411
355	0.411
356	0.411
356	0.411
357	0.412
357	0.412
358	0.411
358	0.411
359	0.411
359	0.411
360	0.411
360	0.411
360	0.411
361	0.411
361	0.41
362	0.409
362	0.409
363	0.409
363	0.408
364	0.408
364	0.408
365	0.408
365	0.407
366	0.407
366	0.407
366	0.407
367	0.406
367	0.406
368	0.406
368	0.405
369	0.405
369	0.404
370	0.404
370	0.403
371	0.403
371	0.402
372	0.402
372	0.402
372	0.401
373	0.401
373	0.4
374	0.4
374	0.4
375	0.399
375	0.399
376	0.399
376	0.398
377	0.398
377	0.397
378	0.396
378	0.396
378	0.395
379	0.395
379	0.395
380	0.394
380	0.394
381	0.393
381	0.393
382	0.393
382	0.392
383	0.392
383	0.392
383	0.391
384	0.391
384	0.39
385	0.39
385	0.389
386	0.389
386	0.389
387	0.388
387	0.388
388	0.387
388	0.387
389	0.386
389	0.386
389	0.386
390	0.385
390	0.385
391	0.385
391	0.384
392	0.384
392	0.383
393	0.383
393	0.382
394	0.382
394	0.381
394	0.381
395	0.381
395	0.38
396	0.38
396	0.379
397	0.379
397	0.378
398	0.378
398	0.377
399	0.377
399	0.377
400	0.376
400	0.376
400	0.375
401	0.375
401	0.374
402	0.374
402	0.373
403	0.373
403	0.372
404	0.372
404	0.371
405	0.371
405	0.37
405	0.369
406	0.369
406	0.369
407	0.369
407	0.368
408	0.368
408	0.367
409	0.367
409	0.367
410	0.367
410	0.367
411	0.366
411	0.366
411	0.366
412	0.365
412	0.365
413	0.365
413	0.365
414	0.364
414	0.364
415	0.364
415	0.363
416	0.363
416	0.363
416	0.362
417	0.362
417	0.362
418	0.362
418	0.361
419	0.361
419	0.361
420	0.361
420	0.361
421	0.361
421	0.36
421	0.36
422	0.36
422	0.36
423	0.36
423	0.36
424	0.359
424	0.359
425	0.36
425	0.359
426	0.359
426	0.359
427	0.359
427	0.359
427	0.359
428	0.358
428	0.358
429	0.358
429	0.357
430	0.357
430	0.356
431	0.356
431	0.356
432	0.356
432	0.355
432	0.355
433	0.355
433	0.355
434	0.355
434	0.356
435	0.356
435	0.356
436	0.356
436	0.356
437	0.356
437	0.356
437	0.356
438	0.356
438	0.356
439	0.356
439	0.356
440	0.356
440	0.356
441	0.355
441	0.355
442	0.355
442	0.355
442	0.355
443	0.355
443	0.355
444	0.355
444	0.355
445	0.355
445	0.355
446	0.355
446	0.355
447	0.355
447	0.356
447	0.356
448	0.356
448	0.356
449	0.356
449	0.356
450	0.357
450	0.356
451	0.356
451	0.357
452	0.356
452	0.356
452	0.356
453	0.357
453	0.357
454	0.357
454	0.357
455	0.357
455	0.358
456	0.358
456	0.358
457	0.359
457	0.359
458	0.359
458	0.359
458	0.36
459	0.36
459	0.36
460	0.36
460	0.36
461	0.36
461	0.361
462	0.362
462	0.363
463	0.363
463	0.364
463	0.365
464	0.365
464	0.366
465	0.366
465	0.367
466	0.368
466	0.368
467	0.369
467	0.369
467	0.369
468	0.37
468	0.37
469	0.371
469	0.372
470	0.373
470	0.374
471	0.374
471	0.375
472	0.376
472	0.377
472	0.378
473	0.379
473	0.38
474	0.381
474	0.383
475	0.383
475	0.385
476	0.386
476	0.387
477	0.388
477	0.389
477	0.39
478	0.391
478	0.392
479	0.394
479	0.395
480	0.397
480	0.398
481	0.4
481	0.401
482	0.403
482	0.405
482	0.407
483	0.409
483	0.412
484	0.414
484	0.415
485	0.417
485	0.419
486	0.421
486	0.423
487	0.425
487	0.426
487	0.428
488	0.43
488	0.432
489	0.434
489	0.437
490	0.439
490	0.442
491	0.444
491	0.447
492	0.45
492	0.453
492	0.455
493	0.458
493	0.46
494	0.464
494	0.466
495	0.469
495	0.472
496	0.475
496	0.478
496	0.482
497	0.485
497	0.488
498	0.492
498	0.495
499	0.498
499	0.502
500	0.506
500	0.51
501	0.513
501	0.516
501	0.52
502	0.523
502	0.527
503	0.53
503	0.534
504	0.537
504	0.541
505	0.544
505	0.548
506	0.552
506	0.556
506	0.56
507	0.564
507	0.568
508	0.572
508	0.576
509	0.58
509	0.584
510	0.588
510	0.592
511	0.596
511	0.6
511	0.603
512	0.607
512	0.61
513	0.613
513	0.617
514	0.62
514	0.623
515	0.626
515	0.629
515	0.632
516	0.635
516	0.638
517	0.64
517	0.643
518	0.645
518	0.647
519	0.649
519	0.651
520	0.654
520	0.656
520	0.658
521	0.66
521	0.661
522	0.663
522	0.665
523	0.666
523	0.667
524	0.668
524	0.669
524	0.67
525	0.671
525	0.672
526	0.673
526	0.673
527	0.674
527	0.674
528	0.674
528	0.673
529	0.673
529	0.672
529	0.671
530	0.67
530	0.669
531	0.667
531	0.666
532	0.664
532	0.662
533	0.66
533	0.658
533	0.656
534	0.654
534	0.652
535	0.649
535	0.647
536	0.644
536	0.642
537	0.639
537	0.635
538	0.633
538	0.629
538	0.626
539	0.623
539	0.62
540	0.616
540	0.613
541	0.609
541	0.605
542	0.601
542	0.597
542	0.592
543	0.588
543	0.583
544	0.578
544	0.574
545	0.569
545	0.564
546	0.559
546	0.554
547	0.548
547	0.543
547	0.538
548	0.534
548	0.529
549	0.524
549	0.519
550	0.514
550	0.509
551	0.503
551	0.498
551	0.492
552	0.487
552	0.482
553	0.476
553	0.471
554	0.466
554	0.46
555	0.454
555	0.449
556	0.444
556	0.438
556	0.433
557	0.428
557	0.423
558	0.417
558	0.412
559	0.407
559	0.401
560	0.396
560	0.392
560	0.387
561	0.383
561	0.379
562	0.375
562	0.37
563	0.366
563	0.361
564	0.357
564	0.353
564	0.348
565	0.344
565	0.34
566	0.335
566	0.331
567	0.327
567	0.323
568	0.319
568	0.314
568	0.309
569	0.304
569	0.3
570	0.295
570	0.291
571	0.287
571	0.283
572	0.279
572	0.275
573	0.271
573	0.267
573	0.264
574	0.26
574	0.257
575	0.254
575	0.252
576	0.249
576	0.245
577	0.242
577	0.239
577	0.237
578	0.234
578	0.232
579	0.23
579	0.227
580	0.224
580	0.22
581	0.217
581	0.215
581	0.213
582	0.211
582	0.208
583	0.206
583	0.202
584	0.198
584	0.194
585	0.191
585	0.189
585	0.186
586	0.183
586	0.181
587	0.178
587	0.175
588	0.173
588	0.171
589	0.17
589	0.168
590	0.166
590	0.165
590	0.164
591	0.162
591	0.16
592	0.158
592	0.157
593	0.155
593	0.154
594	0.151
594	0.15
594	0.148
595	0.147
595	0.145
596	0.143
596	0.142
597	0.142
597	0.14
598	0.138
598	0.137
598	0.136
599	0.134
599	0.133
600	0.132
600	0.13
601	0.129
601	0.128
602	0.127
602	0.126
602	0.124
603	0.123
603	0.123
604	0.122
604	0.12
605	0.119
605	0.118
606	0.117
606	0.115
606	0.114
607	0.112
607	0.111
608	0.11
608	0.108
609	0.107
609	0.106
610	0.105
610	0.103
610	0.102
611	0.101
611	0.1
612	0.1
612	0.099
613	0.099
613	0.098
614	0.097
614	0.096
614	0.095
615	0.094
615	0.093
616	0.093
616	0.092
617	0.091
617	0.09
618	0.089
618	0.088
618	0.088
619	0.087
619	0.087
620	0.087
620	0.086
621	0.085
621	0.085
622	0.084
622	0.083
622	0.082
623	0.081
623	0.08
624	0.08
624	0.079
625	0.078
625	0.078
626	0.077
626	0.076
626	0.076
627	0.076
627	0.075
628	0.074
628	0.073
629	0.072
629	0.072
630	0.07
630	0.07
630	0.069
631	0.069
631	0.068
632	0.067
632	0.067
633	0.066
633	0.066
634	0.066
634	0.065
634	0.064
635	0.063
635	0.062
636	0.061
636	0.06
637	0.059
637	0.058
638	0.057
638	0.056
638	0.055
639	0.054
639	0.053
640	0.052
640	0.051
641	0.05
641	0.049
642	0.048
642	0.047
642	0.046
643	0.045
643	0.044
644	0.043
644	0.042
645	0.041
645	0.04
646	0.039
646	0.037
646	0.035
647	0.032
647	0.03
648	0.028
648	0.025
649	0.023
649	0.021
650	0.018
650	0.015
650	0.013
651	0.009
651	0.005
652	0
652	-0.005
653	-0.009
653	-0.013
653	-0.009
654	-0.004
654	-0.005
655	-0.008
655	-0.011
656	-0.013
656	-0.016
657	-0.018
657	-0.021
657	-0.025
658	-0.029
658	-0.045
659	-0.082
659	-0.118
660	-0.135
660	-0.147
661	-0.161
661	-0.178
661	-0.194
662	-0.207
662	-0.222
663	-0.236
663	-0.255
664	-0.271
664	-0.291
665	-0.314
665	-0.337
665	-0.357
666	-0.379
666	-0.406
667	-0.434
667	-0.468
668	-0.5
668	-0.544
669	-0.587
669	-0.634
669	-0.689
670	-0.754
670	-0.887
671	-1.164
671	-1.542
672	-1.956
672	-2.258
672	-2.44
673	-2.518
673	-2.537
674	-2.554
674	-2.563
675	-2.578
675	-2.583
676	-2.58
676	-2.552
676	-2.466
677	-2.274
677	-1.908
678	-1.329
678	-0.982
679	-0.866
679	-0.801
680	-0.752
680	-0.719
680	-0.692
681	-0.679
681	-0.655
682	-0.643
682	-0.621
683	-0.6
683	-0.599
684	-0.589
684	-0.589
684	-0.584
685	-0.58
685	-0.583
686	-0.573
686	-0.57
687	-0.57
687	-0.567
687	-0.574
688	-0.565
688	-0.566
689	-0.573
689	-0.575
690	-0.567
690	-0.562
691	-0.568
691	-0.575
691	-0.577
692	-0.584
692	-0.583
693	-0.592
693	-0.604
694	-0.589
694	-0.592
695	-0.598
695	-0.594
695	-0.599
696	-0.606
696	-0.6
697	-0.595
697	-0.595
698	-0.593
698	-0.588
698	-0.602
699	-0.598
699	-0.601
700	-0.622
700	-0.62
701	-0.608
701	-0.607
702	-0.61
702	-0.608
702	-0.609
703	-0.6
703	-0.591
704	-0.601
704	-0.604
705	-0.592
705	-0.59
705	-0.587
706	-0.581
706	-0.579
707	-0.59
707	-0.593
708	-0.592
708	-0.59
709	-0.591
709	-0.589
709	-0.585
710	-0.594
710	-0.598
711	-0.595
711	-0.595
712	-0.589
712	-0.587
713	-0.594
713	-0.595
713	-0.576
714	-0.577
714	-0.581
715	-0.572
715	-0.579
716	-0.593
716	-0.606
716	-0.606
717	-0.612
717	-0.603
718	-0.597
718	-0.599
719	-0.594
719	-0.586
720	-0.585
720	-0.583
720	-0.58
721	-0.57
721	-0.572
722	-0.572
722	-0.569
723	-0.587
723	-0.6
723	-0.61
724	-0.612
724	-0.615
725	-0.61
725	-0.61
726	-0.612
726	-0.605
727	-0.609
727	-0.617
727	-0.607
728	-0.593
728	-0.59
729	-0.593
729	-0.598
730	-0.601
730	-0.594
730	-0.602
731	-0.604
731	-0.603
732	-0.606
732	-0.602
733	-0.619
733	-0.623
734	-0.629
734	-0.618
734	-0.603
735	-0.594
735	-0.589
736	-0.59
736	-0.584
737	-0.581
737	-0.571
737	-0.563
738	-0.552
738	-0.543
739	-0.546
739	-0.547
740	-0.561
740	-0.563
741	-0.572
741	-0.581
741	-0.59
742	-0.599
742	-0.613
743	-0.617
743	-0.619
744	-0.621
744	-0.628
744	-0.621
745	-0.627
745	-0.617
746	-0.613
746	-0.605
747	-0.605
747	-0.597
748	-0.601
748	-0.607
748	-0.609
749	-0.601
749	-0.606
750	-0.597
750	-0.596
751	-0.595
751	-0.593
751	-0.605
752	-0.611
752	-0.612
753	-0.611
753	-0.605
754	-0.626
754	-0.628
754	-0.636
755	-0.639
755	-0.632
756	-0.636
756	-0.622
757	-0.613
757	-0.603
758	-0.602
758	-0.601
758	-0.595
759	-0.598
759	-0.597
760	-0.594
760	-0.595
761	-0.59
761	-0.592
761	-0.593
762	-0.598
762	-0.598
763	-0.597
763	-0.6
764	-0.601
764	-0.596
764	-0.601
765	-0.602
765	-0.607
766	-0.612
766	-0.613
767	-0.629
767	-0.626
768	-0.624
768	-0.616
768	-0.608
769	-0.612
769	-0.621
770	-0.63
770	-0.633
771	-0.629
771	-0.629
771	-0.632
772	-0.633
772	-0.654
773	-0.657
773	-0.658
774	-0.658
774	-0.641
775	-0.627
775	-0.627
775	-0.63
776	-0.639
776	-0.635
777	-0.638
777	-0.621
778	-0.629
778	-0.637
778	-0.635
779	-0.643
779	-0.66
780	-0.656
780	-0.665
781	-0.654
781	-0.646
781	-0.658
782	-0.68
782	-0.679
783	-0.677
783	-0.684
784	-0.685
784	-0.679
784	-0.696
785	-0.689
785	-0.701
786	-0.708
786	-0.701
787	-0.69
787	-0.699
788	-0.694
788	-0.688
788	-0.693
789	-0.694
789	-0.685
790	-0.683
790	-0.668
791	-0.671
791	-0.667
791	-0.66
792	-0.654
792	-0.658
793	-0.659
793	-0.646
794	-0.64
794	-0.634
794	-0.644
795	-0.665
795	-0.652
796	-0.658
796	-0.657
797	-0.652
797	-0.643
797	-0.639
798	-0.661
798	-0.666
799	-0.665
799	-0.652
800	-0.645
800	-0.656
801	-0.654
801	-0.658
801	-0.654
802	-0.652
802	-0.651
803	-0.647
803	-0.64
804	-0.647
804	-0.654
804	-0.639
805	-0.619
805	-0.61
806	-0.611
806	-0.608
807	-0.613
807	-0.612
807	-0.596
808	-0.59
808	-0.583
809	-0.577
809	-0.58
810	-0.584
810	-0.582
810	-0.58
811	-0.585
811	-0.576
812	-0.57
812	-0.571
813	-0.576
813	-0.576
813	-0.573
814	-0.57
814	-0.573
815	-0.567
815	-0.56
816	-0.556
816	-0.572
817	-0.585
817	-0.591
817	-0.602
818	-0.594
818	-0.591
819	-0.602
819	-0.599
820	-0.609
820	-0.607
820	-0.605
821	-0.599
821	-0.595
822	-0.595
822	-0.582
823	-0.595
823	-0.596
823	-0.592
824	-0.591
824	-0.601
825	-0.602
825	-0.601
826	-0.599
826	-0.594
826	-0.59
827	-0.591
827	-0.58
828	-0.578
828	-0.574
829	-0.569
829	-0.554
829	-0.552
830	-0.55
830	-0.535
831	-0.531
831	-0.521
832	-0.515
832	-0.513
832	-0.507
833	-0.506
833	-0.511
834	-0.509
834	-0.501
835	-0.493
835	-0.494
835	-0.491
836	-0.487
836	-0.485
837	-0.476
837	-0.47
838	-0.458
838	-0.444
839	-0.438
839	-0.43
839	-0.422
840	-0.421
840	-0.41
841	-0.404
841	-0.397
842	-0.388
842	-0.376
842	-0.374
843	-0.372
843	-0.37
844	-0.367
844	-0.358
845	-0.348
845	-0.342
845	-0.333
846	-0.323
846	-0.316
847	-0.308
847	-0.299
848	-0.286
848	-0.273
848	-0.265
849	-0.256
849	-0.248
850	-0.241
850	-0.234
851	-0.226
851	-0.214
851	-0.209
852	-0.199
852	-0.19
853	-0.183
853	-0.176
854	-0.169
854	-0.161
854	-0.151
855	-0.141
855	-0.136
856	-0.132
856	-0.127
857	-0.122
857	-0.117
857	-0.109
858	-0.102
858	-0.097
859	-0.091
859	-0.085
860	-0.078
860	-0.07
860	-0.064
861	-0.057
861	-0.052
862	-0.047
862	-0.043
863	-0.038
863	-0.033
863	-0.029
864	-0.025
864	-0.022
865	-0.018
865	-0.015
866	-0.012
866	-0.008
866	-0.006
867	-0.003
867	0
868	0.002
868	0.005
869	0.008
869	0.01
869	0.012
870	0.014
870	0.016
871	0.017
871	0.018
872	0.018
872	0.018
872	0.018
873	0.018
873	0.018
874	0.017
874	0.017
875	0.016
875	0.015
875	0.015
876	0.014
876	0.014
877	0.013
877	0.012
878	0.011
878	0.011
878	0.01
879	0.009
879	0.008
880	0.008
880	0.008
881	0.007
881	0.007
881	0.007
882	0.007
882	0.006
883	0.006
883	0.006
884	0.006
884	0.006
884	0.006
885	0.005
885	0.004
886	0.003
886	0.002
887	0.001
887	0
887	-0.001
888	-0.002
888	-0.002
889	-0.003
889	-0.003
890	-0.004
890	-0.004
890	-0.004
891	-0.004
891	-0.004
892	-0.003
892	-0.002
893	-0.001
893	-0.001
893	-0.001
894	-0
894	0.001
895	0.001
895	0.001
895	0.002
896	0.002
896	0.003
897	0.003
897	0.003
898	0.003
898	0.003
898	0.003
899	0.004
899	0.004
900	0.004
900	0.003
901	0.003
901	0.003
901	0.003
902	0.003
902	0.003
903	0.002
903	0.001
904	0
904	-0
904	-0
905	-0
905	-0.001
906	-0
906	0
907	0.001
907	0.001
907	0.001
908	0.002
908	0.003
909	0.004
909	0.004
910	0.005
910	0.005
910	0.005
911	0.006
911	0.007
912	0.008
912	0.01
913	0.011
913	0.012
913	0.013
914	0.013
914	0.014
915	0.014
915	0.014
916	0.014
916	0.013
916	0.012
917	0.011
917	0.01
918	0.01
918	0.009
918	0.009
919	0.008
919	0.008
920	0.008
920	0.008
921	0.008
921	0.008
921	0.009
922	0.009
922	0.009
923	0.009
923	0.009
924	0.009
924	0.008
924	0.008
925	0.008
925	0.007
926	0.007
926	0.006
927	0.006
927	0.006
927	0.006
928	0.006
928	0.006
929	0.007
929	0.007
930	0.008
930	0.009
930	0.011
931	0.012
931	0.013
932	0.014
932	0.015
933	0.017
933	0.018
933	0.018
934	0.019
934	0.019
935	0.019
935	0.018
935	0.017
936	0.016
936	0.014
937	0.013
937	0.012
938	0.011
938	0.009
938	0.008
939	0.007
939	0.007
940	0.006
940	0.006
941	0.006
941	0.006
941	0.006
942	0.006
942	0.007
943	0.007
943	0.007
944	0.007
944	0.007
944	0.007
945	0.007
945	0.007
946	0.006
946	0.005
946	0.004
947	0.003
947	0.002
948	0.001
948	0.001
949	0.001
949	0
949	0
950	0
950	0.001
951	0.001
951	0.002
952	0.002
952	0.003
952	0.004
953	0.004
953	0.005
954	0.005
954	0.005
955	0.005
955	0.005
955	0.005
956	0.005
956	0.005
957	0.004
957	0.003
957	0.002
958	0.002
958	0.002
959	0.001
959	0.001
960	0.001
960	0.001
960	0.001
961	0.001
961	0.001
962	0.001
962	0.002
963	0.002
963	0.002
963	0.003
964	0.003
964	0.003
965	0.004
965	0.004
966	0.005
966	0.005
966	0.006
967	0.006
967	0.007
968	0.007
968	0.007
968	0.007
969	0.007
969	0.006
970	0.005
970	0.004
971	0.004
971	0.003
971	0.002
972	0.002
972	0.002
973	0.002
973	0.001
974	0.002
974	0.002
974	0.003
975	0.004
975	0.005
976	0.006
976	0.006
976	0.007
977	0.007
977	0.007
978	0.007
978	0.006
979	0.006
979	0.006
979	0.005
980	0.004
980	0.004
981	0.003
981	0.003
982	0.002
982	0.002
982	0.002
983	0.002
983	0.002
984	0.002
984	0.002
984	0.002
985	0.003
985	0.003
986	0.003
986	0.003
987	0.003
987	0.003
987	0.003
988	0.003
988	0.002
989	0.002
989	0.002
990	0.001
990	0
990	-0
991	-0
991	-0
992	-0.001
992	-0.001
992	-0.001
993	-0.002
993	-0.002
994	-0.002
994	-0.002
995	-0.002
995	-0.003
995	-0.003
996	-0.003
996	-0.004
997	-0.004
997	-0.004
997	-0.003
998	-0.003
998	-0.002
999	-0.002
999	-0.002
1000	-0.002
1000	-0.002
1000	-0.002
1001	-0.001
1001	-0.001
1002	-0.001
1002	-0.001
1003	-0.001
1003	-0.001
1003	-0.001
1004	-0.002
1004	-0.003
1005	-0.003
1005	-0.004
1005	-0.005
1006	-0.006
1006	-0.007
1007	-0.008
1007	-0.009
1008	-0.01
1008	-0.011
1008	-0.011
1009	-0.011
1009	-0.011
1010	-0.01
1010	-0.01
1010	-0.01
1011	-0.009
1011	-0.009
1012	-0.008
1012	-0.007
1013	-0.006
1013	-0.006
1013	-0.005
1014	-0.004
1014	-0.004
1015	-0.003
1015	-0.003
1016	-0.002
1016	-0.002
1016	-0.001
1017	-0.001
1017	-0.001
1018	-0.001
1018	-0.001
1018	-0.001
1019	-0.001
1019	-0.001
1020	-0.001
1020	-0.002
1021	-0.002
1021	-0.003
1021	-0.003
1022	-0.004
1022	-0.005
1023	-0.006
1023	-0.007
1023	-0.008
1024	-0.008
1024	-0.009
1025	-0.01
1025	-0.011
1026	-0.011
1026	-0.012
1026	-0.013
1027	-0.013
1027	-0.013
1028	-0.014
1028	-0.013
1028	-0.014
1029	-0.014
1029	-0.014
1030	-0.014
1030	-0.015
1031	-0.015
1031	-0.015
1031	-0.015
1032	-0.015
1032	-0.015
1033	-0.016
1033	-0.016
1033	-0.016
1034	-0.016
1034	-0.016
1035	-0.015
1035	-0.015
1036	-0.015
1036	-0.015
1036	-0.015
1037	-0.014
1037	-0.013
1038	-0.013
1038	-0.012
1039	-0.011
1039	-0.011
1039	-0.01
1040	-0.009
1040	-0.009
1041	-0.009
1041	-0.009
1041	-0.009
1042	-0.01
1042	-0.011
1043	-0.011
1043	-0.012
1044	-0.013
1044	-0.014
1044	-0.015
1045	-0.016
1045	-0.016
1046	-0.017
1046	-0.017
1046	-0.018
1047	-0.018
1047	-0.018
1048	-0.018
1048	-0.018
1049	-0.018
1049	-0.018
1049	-0.019
1050	-0.019
1050	-0.02
1051	-0.021
1051	-0.022
1051	-0.022
1052	-0.023
1052	-0.023
1053	-0.024
1053	-0.023
1053	-0.023
1054	-0.023
1054	-0.023
1055	-0.023
1055	-0.022
1056	-0.022
1056	-0.023
1056	-0.023
1057	-0.023
1057	-0.024
1058	-0.024
1058	-0.025
1058	-0.025
1059	-0.025
1059	-0.025
1060	-0.025
1060	-0.025
1061	-0.025
1061	-0.024
1061	-0.024
1062	-0.024
1062	-0.023
1063	-0.023
1063	-0.024
1063	-0.024
1064	-0.024
1064	-0.023
1065	-0.024
1065	-0.024
1066	-0.024
1066	-0.024
1066	-0.024
1067	-0.025
1067	-0.025
1068	-0.025
1068	-0.025
1068	-0.026
1069	-0.026
1069	-0.027
1070	-0.028
1070	-0.029
1071	-0.029
1071	-0.029
1071	-0.029
1072	-0.029
1072	-0.029
1073	-0.028
1073	-0.028
1073	-0.028
1074	-0.027
1074	-0.026
1075	-0.027
1075	-0.027
1076	-0.027
1076	-0.027
1076	-0.028
1077	-0.028
1077	-0.029
1078	-0.03
1078	-0.031
1078	-0.031
1079	-0.032
1079	-0.032
1080	-0.032
1080	-0.033
1080	-0.034
1081	-0.034
1081	-0.034
1082	-0.034
1082	-0.035
1083	-0.035
1083	-0.036
1083	-0.036
1084	-0.037
1084	-0.038
1085	-0.038
1085	-0.039
1085	-0.039
1086	-0.039
1086	-0.04
1087	-0.04
1087	-0.041
1088	-0.042
1088	-0.042
1088	-0.042
1089	-0.043
1089	-0.044
1090	-0.044
1090	-0.045
1090	-0.046
1091	-0.047
1091	-0.047
1092	-0.047
1092	-0.047
1092	-0.048
1093	-0.049
1093	-0.049
1094	-0.049
1094	-0.05
1095	-0.051
1095	-0.05
1095	-0.051
1096	-0.052
1096	-0.053
1097	-0.053
1097	-0.055
1097	-0.055
1098	-0.057
1098	-0.058
1099	-0.059
1099	-0.059
1100	-0.061
1100	-0.062
1100	-0.065
1101	-0.067
1101	-0.068
1102	-0.069
1102	-0.071
1102	-0.072
1103	-0.075
1103	-0.077
1104	-0.079
1104	-0.081
1104	-0.082
1105	-0.083
1105	-0.084
1106	-0.088
1106	-0.089
1107	-0.093
1107	-0.095
1107	-0.098
1108	-0.099
1108	-0.1
1109	-0.103
1109	-0.107
1109	-0.11
1110	-0.111
1110	-0.112
1111	-0.12
1111	-0.117
