Data from 3.5A_17C_Absorbance__918__00920.txt Node

Date: Tue Jun 20 15:29:49 CEST 2023
User: Marek
Spectrometer: MAYP115816
Trigger mode: 0
Integration Time (sec): 2.200000E-1
Scans to average: 10
Electric dark correction enabled: true
Nonlinearity correction enabled: true
Boxcar width: 5
XAxis mode: Wavelengths
Number of Pixels in Spectrum: 2068
>>>>>Begin Spectral Data<<<<<
199	-0.742
199	-0.72
200	-0.682
200	-0.625
201	-0.596
201	-0.588
202	-0.57
202	-0.563
203	-0.56
203	-0.554
204	-0.533
204	-0.518
205	-0.494
205	-0.485
205	-0.494
206	-0.495
206	-0.491
207	-0.483
207	-0.488
208	-0.49
208	-0.494
209	-0.496
209	-0.502
210	-0.516
210	-0.522
211	-0.516
211	-0.52
212	-0.528
212	-0.536
213	-0.532
213	-0.528
213	-0.524
214	-0.53
214	-0.532
215	-0.528
215	-0.533
216	-0.542
216	-0.548
217	-0.546
217	-0.547
218	-0.554
218	-0.556
219	-0.564
219	-0.568
220	-0.571
220	-0.578
221	-0.578
221	-0.578
221	-0.568
222	-0.569
222	-0.566
223	-0.563
223	-0.566
224	-0.568
224	-0.565
225	-0.562
225	-0.563
226	-0.564
226	-0.565
227	-0.575
227	-0.583
228	-0.587
228	-0.596
229	-0.601
229	-0.598
229	-0.597
230	-0.593
230	-0.591
231	-0.587
231	-0.582
232	-0.585
232	-0.58
233	-0.58
233	-0.567
234	-0.567
234	-0.561
235	-0.566
235	-0.576
236	-0.583
236	-0.585
236	-0.586
237	-0.585
237	-0.585
238	-0.584
238	-0.586
239	-0.588
239	-0.599
240	-0.592
240	-0.59
241	-0.583
241	-0.585
242	-0.586
242	-0.594
243	-0.595
243	-0.597
243	-0.602
244	-0.598
244	-0.599
245	-0.602
245	-0.606
246	-0.617
246	-0.62
247	-0.628
247	-0.615
248	-0.615
248	-0.618
249	-0.624
249	-0.626
250	-0.625
250	-0.634
250	-0.632
251	-0.631
251	-0.627
252	-0.628
252	-0.638
253	-0.631
253	-0.643
254	-0.648
254	-0.648
255	-0.658
255	-0.655
256	-0.656
256	-0.669
257	-0.679
257	-0.677
258	-0.679
258	-0.688
258	-0.683
259	-0.675
259	-0.692
260	-0.69
260	-0.68
261	-0.692
261	-0.678
262	-0.684
262	-0.682
263	-0.673
263	-0.677
264	-0.688
264	-0.689
265	-0.682
265	-0.684
265	-0.694
266	-0.684
266	-0.683
267	-0.681
267	-0.694
268	-0.702
268	-0.698
269	-0.69
269	-0.706
270	-0.709
270	-0.707
271	-0.72
271	-0.731
272	-0.734
272	-0.738
272	-0.734
273	-0.745
273	-0.759
274	-0.75
274	-0.742
275	-0.739
275	-0.728
276	-0.731
276	-0.736
277	-0.736
277	-0.735
278	-0.739
278	-0.738
278	-0.724
279	-0.732
279	-0.747
280	-0.75
280	-0.759
281	-0.752
281	-0.744
282	-0.749
282	-0.741
283	-0.734
283	-0.746
284	-0.761
284	-0.772
285	-0.752
285	-0.76
285	-0.752
286	-0.758
286	-0.775
287	-0.774
287	-0.774
288	-0.775
288	-0.758
289	-0.755
289	-0.762
290	-0.771
290	-0.759
291	-0.765
291	-0.764
292	-0.744
292	-0.741
292	-0.746
293	-0.733
293	-0.729
294	-0.73
294	-0.717
295	-0.7
295	-0.713
296	-0.724
296	-0.716
297	-0.705
297	-0.71
298	-0.705
298	-0.724
298	-0.728
299	-0.71
299	-0.702
300	-0.699
300	-0.68
301	-0.661
301	-0.665
302	-0.675
302	-0.66
303	-0.652
303	-0.636
304	-0.621
304	-0.626
305	-0.618
305	-0.624
305	-0.639
306	-0.625
306	-0.622
307	-0.613
307	-0.623
308	-0.626
308	-0.623
309	-0.623
309	-0.618
310	-0.618
310	-0.615
311	-0.601
311	-0.618
311	-0.607
312	-0.606
312	-0.597
313	-0.59
313	-0.592
314	-0.597
314	-0.595
315	-0.592
315	-0.585
316	-0.579
316	-0.569
317	-0.563
317	-0.56
318	-0.552
318	-0.548
318	-0.538
319	-0.528
319	-0.518
320	-0.515
320	-0.512
321	-0.508
321	-0.508
322	-0.501
322	-0.494
323	-0.494
323	-0.484
324	-0.48
324	-0.471
324	-0.461
325	-0.445
325	-0.428
326	-0.419
326	-0.394
327	-0.381
327	-0.36
328	-0.329
328	-0.308
329	-0.28
329	-0.252
330	-0.227
330	-0.194
330	-0.162
331	-0.126
331	-0.094
332	-0.061
332	-0.03
333	-0.002
333	0.03
334	0.056
334	0.081
335	0.106
335	0.124
336	0.145
336	0.164
336	0.178
337	0.193
337	0.208
338	0.22
338	0.229
339	0.241
339	0.249
340	0.256
340	0.263
341	0.269
341	0.274
342	0.28
342	0.285
342	0.289
343	0.292
343	0.297
344	0.299
344	0.302
345	0.305
345	0.307
346	0.309
346	0.31
347	0.311
347	0.313
348	0.314
348	0.315
348	0.316
349	0.316
349	0.317
350	0.317
350	0.318
351	0.319
351	0.32
352	0.32
352	0.32
353	0.32
353	0.32
354	0.32
354	0.32
354	0.32
355	0.32
355	0.32
356	0.32
356	0.32
357	0.32
357	0.32
358	0.32
358	0.32
359	0.32
359	0.32
360	0.32
360	0.32
360	0.32
361	0.32
361	0.32
362	0.32
362	0.32
363	0.32
363	0.32
364	0.32
364	0.32
365	0.32
365	0.319
366	0.319
366	0.319
366	0.319
367	0.318
367	0.318
368	0.317
368	0.317
369	0.317
369	0.316
370	0.316
370	0.316
371	0.316
371	0.315
372	0.315
372	0.315
372	0.315
373	0.315
373	0.315
374	0.314
374	0.314
375	0.314
375	0.314
376	0.314
376	0.313
377	0.313
377	0.313
378	0.312
378	0.312
378	0.312
379	0.311
379	0.311
380	0.311
380	0.311
381	0.311
381	0.31
382	0.31
382	0.31
383	0.31
383	0.31
383	0.309
384	0.309
384	0.309
385	0.308
385	0.308
386	0.308
386	0.307
387	0.307
387	0.307
388	0.306
388	0.306
389	0.306
389	0.306
389	0.306
390	0.306
390	0.305
391	0.305
391	0.305
392	0.305
392	0.305
393	0.305
393	0.304
394	0.304
394	0.304
394	0.304
395	0.303
395	0.303
396	0.302
396	0.302
397	0.302
397	0.301
398	0.301
398	0.301
399	0.3
399	0.3
400	0.3
400	0.3
400	0.3
401	0.299
401	0.299
402	0.299
402	0.299
403	0.298
403	0.298
404	0.298
404	0.297
405	0.297
405	0.296
405	0.296
406	0.296
406	0.295
407	0.295
407	0.295
408	0.294
408	0.294
409	0.294
409	0.294
410	0.294
410	0.294
411	0.294
411	0.294
411	0.293
412	0.293
412	0.293
413	0.293
413	0.292
414	0.292
414	0.292
415	0.291
415	0.291
416	0.291
416	0.291
416	0.291
417	0.29
417	0.29
418	0.291
418	0.29
419	0.291
419	0.29
420	0.29
420	0.29
421	0.29
421	0.29
421	0.29
422	0.29
422	0.29
423	0.289
423	0.289
424	0.289
424	0.288
425	0.288
425	0.288
426	0.288
426	0.288
427	0.288
427	0.288
427	0.288
428	0.288
428	0.287
429	0.287
429	0.287
430	0.287
430	0.286
431	0.286
431	0.285
432	0.285
432	0.285
432	0.285
433	0.285
433	0.285
434	0.285
434	0.286
435	0.286
435	0.286
436	0.286
436	0.286
437	0.286
437	0.286
437	0.286
438	0.286
438	0.286
439	0.285
439	0.285
440	0.285
440	0.285
441	0.285
441	0.285
442	0.285
442	0.285
442	0.285
443	0.285
443	0.285
444	0.285
444	0.285
445	0.285
445	0.285
446	0.285
446	0.285
447	0.285
447	0.285
447	0.285
448	0.285
448	0.285
449	0.285
449	0.285
450	0.285
450	0.285
451	0.285
451	0.285
452	0.285
452	0.285
452	0.285
453	0.285
453	0.285
454	0.285
454	0.286
455	0.286
455	0.286
456	0.286
456	0.286
457	0.286
457	0.286
458	0.286
458	0.286
458	0.286
459	0.286
459	0.286
460	0.285
460	0.286
461	0.286
461	0.286
462	0.287
462	0.287
463	0.288
463	0.289
463	0.289
464	0.289
464	0.29
465	0.29
465	0.291
466	0.291
466	0.291
467	0.292
467	0.292
467	0.292
468	0.292
468	0.292
469	0.293
469	0.293
470	0.294
470	0.294
471	0.295
471	0.295
472	0.295
472	0.296
472	0.297
473	0.297
473	0.298
474	0.299
474	0.299
475	0.3
475	0.301
476	0.301
476	0.302
477	0.303
477	0.303
477	0.304
478	0.304
478	0.305
479	0.306
479	0.307
480	0.308
480	0.308
481	0.309
481	0.31
482	0.311
482	0.313
482	0.314
483	0.316
483	0.317
484	0.318
484	0.319
485	0.32
485	0.321
486	0.322
486	0.323
487	0.324
487	0.325
487	0.326
488	0.327
488	0.328
489	0.33
489	0.332
490	0.334
490	0.335
491	0.337
491	0.339
492	0.341
492	0.342
492	0.343
493	0.345
493	0.347
494	0.349
494	0.351
495	0.353
495	0.354
496	0.356
496	0.358
496	0.361
497	0.363
497	0.365
498	0.367
498	0.369
499	0.371
499	0.374
500	0.377
500	0.38
501	0.382
501	0.384
501	0.386
502	0.388
502	0.39
503	0.393
503	0.395
504	0.397
504	0.4
505	0.402
505	0.405
506	0.407
506	0.41
506	0.413
507	0.415
507	0.418
508	0.421
508	0.424
509	0.426
509	0.429
510	0.431
510	0.433
511	0.436
511	0.438
511	0.44
512	0.443
512	0.445
513	0.447
513	0.449
514	0.452
514	0.454
515	0.457
515	0.459
515	0.461
516	0.463
516	0.465
517	0.467
517	0.469
518	0.471
518	0.472
519	0.474
519	0.475
520	0.477
520	0.479
520	0.48
521	0.481
521	0.482
522	0.484
522	0.485
523	0.486
523	0.487
524	0.488
524	0.489
524	0.489
525	0.49
525	0.49
526	0.491
526	0.491
527	0.492
527	0.492
528	0.491
528	0.492
529	0.492
529	0.491
529	0.491
530	0.491
530	0.491
531	0.49
531	0.489
532	0.488
532	0.488
533	0.487
533	0.486
533	0.485
534	0.484
534	0.483
535	0.482
535	0.481
536	0.479
536	0.478
537	0.476
537	0.475
538	0.473
538	0.471
538	0.47
539	0.468
539	0.467
540	0.465
540	0.463
541	0.46
541	0.458
542	0.456
542	0.454
542	0.451
543	0.449
543	0.446
544	0.443
544	0.441
545	0.439
545	0.436
546	0.434
546	0.431
547	0.428
547	0.425
547	0.422
548	0.42
548	0.417
549	0.414
549	0.411
550	0.408
550	0.405
551	0.402
551	0.399
551	0.396
552	0.393
552	0.39
553	0.387
553	0.385
554	0.382
554	0.378
555	0.375
555	0.372
556	0.369
556	0.366
556	0.364
557	0.361
557	0.359
558	0.356
558	0.353
559	0.35
559	0.347
560	0.344
560	0.342
560	0.34
561	0.338
561	0.336
562	0.333
562	0.331
563	0.328
563	0.326
564	0.324
564	0.322
564	0.32
565	0.318
565	0.316
566	0.314
566	0.312
567	0.31
567	0.308
568	0.305
568	0.302
568	0.3
569	0.297
569	0.295
570	0.292
570	0.289
571	0.287
571	0.284
572	0.282
572	0.28
573	0.277
573	0.275
573	0.273
574	0.271
574	0.27
575	0.268
575	0.268
576	0.266
576	0.264
577	0.261
577	0.26
577	0.259
578	0.258
578	0.257
579	0.256
579	0.255
580	0.253
580	0.25
581	0.248
581	0.247
581	0.246
582	0.245
582	0.244
583	0.243
583	0.241
584	0.238
584	0.235
585	0.234
585	0.233
585	0.232
586	0.231
586	0.229
587	0.227
587	0.225
588	0.223
588	0.222
589	0.221
589	0.22
590	0.219
590	0.218
590	0.219
591	0.218
591	0.217
592	0.216
592	0.215
593	0.214
593	0.214
594	0.212
594	0.211
594	0.21
595	0.209
595	0.208
596	0.206
596	0.207
597	0.208
597	0.207
598	0.206
598	0.205
598	0.205
599	0.204
599	0.203
600	0.202
600	0.202
601	0.201
601	0.2
602	0.199
602	0.198
602	0.197
603	0.196
603	0.196
604	0.196
604	0.195
605	0.195
605	0.195
606	0.193
606	0.192
606	0.191
607	0.19
607	0.19
608	0.189
608	0.187
609	0.186
609	0.186
610	0.185
610	0.184
610	0.184
611	0.184
611	0.184
612	0.184
612	0.184
613	0.184
613	0.184
614	0.183
614	0.181
614	0.181
615	0.18
615	0.179
616	0.179
616	0.178
617	0.177
617	0.176
618	0.175
618	0.174
618	0.174
619	0.173
619	0.173
620	0.173
620	0.172
621	0.171
621	0.171
622	0.17
622	0.169
622	0.168
623	0.167
623	0.167
624	0.167
624	0.166
625	0.165
625	0.165
626	0.164
626	0.163
626	0.163
627	0.162
627	0.161
628	0.16
628	0.158
629	0.157
629	0.155
630	0.153
630	0.151
630	0.15
631	0.148
631	0.146
632	0.144
632	0.143
633	0.142
633	0.14
634	0.139
634	0.138
634	0.137
635	0.135
635	0.134
636	0.132
636	0.131
637	0.129
637	0.127
638	0.125
638	0.123
638	0.121
639	0.118
639	0.116
640	0.113
640	0.11
641	0.108
641	0.105
642	0.103
642	0.1
642	0.097
643	0.094
643	0.09
644	0.086
644	0.083
645	0.079
645	0.075
646	0.07
646	0.065
646	0.06
647	0.054
647	0.049
648	0.043
648	0.038
649	0.032
649	0.026
650	0.02
650	0.015
650	0.008
651	0
651	-0.01
652	-0.02
652	-0.032
653	-0.042
653	-0.051
653	-0.047
654	-0.031
654	-0.028
655	-0.033
655	-0.038
656	-0.043
656	-0.048
657	-0.053
657	-0.057
657	-0.064
658	-0.07
658	-0.098
659	-0.174
659	-0.252
660	-0.289
660	-0.313
661	-0.339
661	-0.367
661	-0.397
662	-0.423
662	-0.453
663	-0.487
663	-0.524
664	-0.561
664	-0.6
665	-0.644
665	-0.69
665	-0.734
666	-0.784
666	-0.838
667	-0.893
667	-0.955
668	-1.014
668	-1.083
669	-1.151
669	-1.224
669	-1.302
670	-1.383
670	-1.491
671	-1.65
671	-1.969
672	-2.257
672	-2.436
672	-2.566
673	-2.668
673	-2.752
674	-2.809
674	-2.825
675	-2.841
675	-2.846
676	-2.845
676	-2.808
676	-2.737
677	-2.649
677	-2.543
678	-2.383
678	-2.111
679	-1.732
679	-1.562
680	-1.457
680	-1.379
680	-1.311
681	-1.262
681	-1.208
682	-1.165
682	-1.12
683	-1.076
683	-1.051
684	-1.023
684	-1.004
684	-0.981
685	-0.959
685	-0.947
686	-0.924
686	-0.908
687	-0.898
687	-0.886
687	-0.885
688	-0.869
688	-0.859
689	-0.861
689	-0.857
690	-0.843
690	-0.833
691	-0.83
691	-0.833
691	-0.832
692	-0.831
692	-0.828
693	-0.835
693	-0.845
694	-0.824
694	-0.822
695	-0.822
695	-0.816
695	-0.822
696	-0.829
696	-0.822
697	-0.816
697	-0.811
698	-0.806
698	-0.798
698	-0.811
699	-0.809
699	-0.811
700	-0.832
700	-0.827
701	-0.814
701	-0.806
702	-0.809
702	-0.809
702	-0.808
703	-0.799
703	-0.788
704	-0.796
704	-0.8
705	-0.787
705	-0.788
705	-0.783
706	-0.776
706	-0.772
707	-0.781
707	-0.785
708	-0.784
708	-0.781
709	-0.782
709	-0.776
709	-0.771
710	-0.778
710	-0.78
711	-0.779
711	-0.778
712	-0.769
712	-0.765
713	-0.77
713	-0.77
713	-0.75
714	-0.755
714	-0.758
715	-0.751
715	-0.756
716	-0.772
716	-0.783
716	-0.784
717	-0.789
717	-0.779
718	-0.776
718	-0.777
719	-0.771
719	-0.765
720	-0.758
720	-0.754
720	-0.747
721	-0.737
721	-0.739
722	-0.739
722	-0.736
723	-0.752
723	-0.764
723	-0.773
724	-0.771
724	-0.777
725	-0.772
725	-0.779
726	-0.783
726	-0.775
727	-0.777
727	-0.785
727	-0.776
728	-0.764
728	-0.76
729	-0.762
729	-0.764
730	-0.769
730	-0.758
730	-0.763
731	-0.765
731	-0.762
732	-0.765
732	-0.759
733	-0.775
733	-0.781
734	-0.79
734	-0.783
734	-0.765
735	-0.757
735	-0.751
736	-0.752
736	-0.748
737	-0.747
737	-0.736
737	-0.728
738	-0.713
738	-0.702
739	-0.704
739	-0.706
740	-0.721
740	-0.722
741	-0.73
741	-0.74
741	-0.749
742	-0.756
742	-0.77
743	-0.776
743	-0.779
744	-0.784
744	-0.79
744	-0.782
745	-0.791
745	-0.781
746	-0.775
746	-0.766
747	-0.769
747	-0.76
748	-0.763
748	-0.767
748	-0.767
749	-0.761
749	-0.768
750	-0.757
750	-0.758
751	-0.759
751	-0.756
751	-0.768
752	-0.772
752	-0.776
753	-0.778
753	-0.77
754	-0.789
754	-0.787
754	-0.796
755	-0.794
755	-0.787
756	-0.792
756	-0.776
757	-0.768
757	-0.756
758	-0.755
758	-0.755
758	-0.75
759	-0.756
759	-0.755
760	-0.756
760	-0.758
761	-0.752
761	-0.758
761	-0.758
762	-0.764
762	-0.764
763	-0.764
763	-0.768
764	-0.766
764	-0.762
764	-0.766
765	-0.765
765	-0.771
766	-0.774
766	-0.774
767	-0.789
767	-0.786
768	-0.785
768	-0.776
768	-0.773
769	-0.775
769	-0.783
770	-0.79
770	-0.794
771	-0.79
771	-0.789
771	-0.794
772	-0.796
772	-0.817
773	-0.82
773	-0.819
774	-0.819
774	-0.803
775	-0.793
775	-0.792
775	-0.796
776	-0.807
776	-0.807
777	-0.808
777	-0.789
778	-0.796
778	-0.803
778	-0.803
779	-0.811
779	-0.825
780	-0.82
780	-0.828
781	-0.817
781	-0.804
781	-0.818
782	-0.839
782	-0.842
783	-0.84
783	-0.848
784	-0.85
784	-0.844
784	-0.861
785	-0.854
785	-0.868
786	-0.872
786	-0.865
787	-0.856
787	-0.864
788	-0.857
788	-0.852
788	-0.852
789	-0.851
789	-0.843
790	-0.844
790	-0.827
791	-0.835
791	-0.83
791	-0.824
792	-0.818
792	-0.823
793	-0.826
793	-0.815
794	-0.809
794	-0.802
794	-0.808
795	-0.826
795	-0.81
796	-0.815
796	-0.81
797	-0.802
797	-0.794
797	-0.788
798	-0.807
798	-0.811
799	-0.812
799	-0.798
800	-0.794
800	-0.804
801	-0.801
801	-0.806
801	-0.804
802	-0.802
802	-0.801
803	-0.798
803	-0.793
804	-0.799
804	-0.808
804	-0.791
805	-0.772
805	-0.765
806	-0.766
806	-0.763
807	-0.766
807	-0.766
807	-0.748
808	-0.742
808	-0.734
809	-0.728
809	-0.729
810	-0.732
810	-0.728
810	-0.722
811	-0.726
811	-0.717
812	-0.709
812	-0.712
813	-0.715
813	-0.715
813	-0.711
814	-0.711
814	-0.716
815	-0.707
815	-0.703
816	-0.699
816	-0.714
817	-0.727
817	-0.729
817	-0.74
818	-0.735
818	-0.732
819	-0.741
819	-0.741
820	-0.753
820	-0.751
820	-0.752
821	-0.746
821	-0.742
822	-0.74
822	-0.728
823	-0.739
823	-0.736
823	-0.732
824	-0.731
824	-0.743
825	-0.741
825	-0.737
826	-0.734
826	-0.728
826	-0.729
827	-0.727
827	-0.718
828	-0.719
828	-0.714
829	-0.706
829	-0.69
829	-0.689
830	-0.688
830	-0.673
831	-0.665
831	-0.654
832	-0.646
832	-0.64
832	-0.633
833	-0.631
833	-0.638
834	-0.633
834	-0.627
835	-0.619
835	-0.621
835	-0.619
836	-0.615
836	-0.613
837	-0.605
837	-0.595
838	-0.585
838	-0.567
839	-0.561
839	-0.548
839	-0.538
840	-0.536
840	-0.526
841	-0.518
841	-0.51
842	-0.5
842	-0.488
842	-0.485
843	-0.482
843	-0.479
844	-0.478
844	-0.468
845	-0.456
845	-0.446
845	-0.435
846	-0.424
846	-0.414
847	-0.404
847	-0.392
848	-0.379
848	-0.362
848	-0.349
849	-0.336
849	-0.324
850	-0.315
850	-0.305
851	-0.292
851	-0.278
851	-0.269
852	-0.255
852	-0.243
853	-0.234
853	-0.224
854	-0.214
854	-0.203
854	-0.192
855	-0.181
855	-0.176
856	-0.169
856	-0.161
857	-0.155
857	-0.147
857	-0.136
858	-0.126
858	-0.12
859	-0.111
859	-0.1
860	-0.09
860	-0.076
860	-0.067
861	-0.058
861	-0.049
862	-0.042
862	-0.035
863	-0.027
863	-0.019
863	-0.014
864	-0.009
864	-0.003
865	0.002
865	0.007
866	0.012
866	0.016
866	0.021
867	0.025
867	0.03
868	0.033
868	0.037
869	0.041
869	0.044
869	0.046
870	0.048
870	0.05
871	0.052
871	0.053
872	0.054
872	0.054
872	0.055
873	0.055
873	0.055
874	0.054
874	0.054
875	0.054
875	0.053
875	0.053
876	0.052
876	0.052
877	0.051
877	0.051
878	0.05
878	0.049
878	0.049
879	0.048
879	0.047
880	0.047
880	0.046
881	0.045
881	0.044
881	0.044
882	0.042
882	0.042
883	0.041
883	0.04
884	0.04
884	0.04
884	0.04
885	0.04
885	0.04
886	0.04
886	0.04
887	0.04
887	0.039
887	0.039
888	0.038
888	0.038
889	0.037
889	0.036
890	0.035
890	0.034
890	0.033
891	0.033
891	0.033
892	0.034
892	0.034
893	0.034
893	0.033
893	0.033
894	0.033
894	0.033
895	0.033
895	0.033
895	0.034
896	0.034
896	0.034
897	0.035
897	0.035
898	0.035
898	0.035
898	0.036
899	0.036
899	0.037
900	0.037
900	0.037
901	0.037
901	0.037
901	0.037
902	0.037
902	0.038
903	0.038
903	0.037
904	0.037
904	0.037
904	0.037
905	0.037
905	0.037
906	0.037
906	0.037
907	0.037
907	0.037
907	0.037
908	0.037
908	0.038
909	0.038
909	0.039
910	0.04
910	0.04
910	0.041
911	0.042
911	0.043
912	0.044
912	0.046
913	0.047
913	0.048
913	0.049
914	0.05
914	0.05
915	0.05
915	0.05
916	0.049
916	0.049
916	0.048
917	0.047
917	0.047
918	0.046
918	0.046
918	0.045
919	0.045
919	0.045
920	0.044
920	0.044
921	0.044
921	0.044
921	0.044
922	0.043
922	0.043
923	0.042
923	0.042
924	0.042
924	0.041
924	0.041
925	0.041
925	0.041
926	0.04
926	0.04
927	0.04
927	0.04
927	0.041
928	0.041
928	0.041
929	0.042
929	0.042
930	0.043
930	0.043
930	0.044
931	0.044
931	0.045
932	0.045
932	0.045
933	0.046
933	0.046
933	0.045
934	0.044
934	0.043
935	0.042
935	0.041
935	0.04
936	0.038
936	0.037
937	0.035
937	0.034
938	0.033
938	0.032
938	0.032
939	0.031
939	0.031
940	0.031
940	0.031
941	0.031
941	0.031
941	0.03
942	0.03
942	0.03
943	0.031
943	0.03
944	0.03
944	0.03
944	0.029
945	0.029
945	0.03
946	0.029
946	0.029
946	0.028
947	0.028
947	0.028
948	0.028
948	0.027
949	0.027
949	0.027
949	0.028
950	0.029
950	0.029
951	0.03
951	0.03
952	0.03
952	0.031
952	0.031
953	0.032
953	0.033
954	0.033
954	0.032
955	0.032
955	0.032
955	0.032
956	0.032
956	0.032
957	0.031
957	0.03
957	0.029
958	0.029
958	0.029
959	0.028
959	0.028
960	0.028
960	0.028
960	0.028
961	0.028
961	0.028
962	0.029
962	0.029
963	0.029
963	0.029
963	0.029
964	0.029
964	0.029
965	0.029
965	0.029
966	0.029
966	0.029
966	0.029
967	0.029
967	0.029
968	0.028
968	0.028
968	0.028
969	0.028
969	0.027
970	0.026
970	0.026
971	0.025
971	0.025
971	0.024
972	0.024
972	0.025
973	0.025
973	0.025
974	0.025
974	0.025
974	0.026
975	0.027
975	0.028
976	0.028
976	0.029
976	0.03
977	0.03
977	0.03
978	0.03
978	0.029
979	0.029
979	0.029
979	0.028
980	0.028
980	0.027
981	0.027
981	0.027
982	0.027
982	0.027
982	0.027
983	0.027
983	0.027
984	0.027
984	0.027
984	0.027
985	0.027
985	0.027
986	0.026
986	0.025
987	0.024
987	0.023
987	0.023
988	0.022
988	0.021
989	0.02
989	0.02
990	0.019
990	0.018
990	0.017
991	0.017
991	0.017
992	0.017
992	0.017
992	0.017
993	0.017
993	0.017
994	0.017
994	0.017
995	0.017
995	0.017
995	0.017
996	0.016
996	0.016
997	0.015
997	0.015
997	0.015
998	0.015
998	0.015
999	0.015
999	0.015
1000	0.015
1000	0.015
1000	0.015
1001	0.016
1001	0.016
1002	0.016
1002	0.016
1003	0.016
1003	0.016
1003	0.016
1004	0.015
1004	0.015
1005	0.015
1005	0.014
1005	0.013
1006	0.012
1006	0.012
1007	0.012
1007	0.012
1008	0.011
1008	0.011
1008	0.011
1009	0.011
1009	0.012
1010	0.012
1010	0.012
1010	0.013
1011	0.013
1011	0.013
1012	0.013
1012	0.014
1013	0.014
1013	0.014
1013	0.015
1014	0.015
1014	0.015
1015	0.015
1015	0.015
1016	0.015
1016	0.016
1016	0.016
1017	0.015
1017	0.016
1018	0.016
1018	0.015
1018	0.015
1019	0.015
1019	0.015
1020	0.014
1020	0.014
1021	0.013
1021	0.013
1021	0.013
1022	0.012
1022	0.012
1023	0.011
1023	0.011
1023	0.011
1024	0.01
1024	0.01
1025	0.009
1025	0.009
1026	0.009
1026	0.009
1026	0.008
1027	0.008
1027	0.008
1028	0.008
1028	0.009
1028	0.009
1029	0.008
1029	0.008
1030	0.008
1030	0.008
1031	0.008
1031	0.008
1031	0.008
1032	0.007
1032	0.007
1033	0.006
1033	0.006
1033	0.005
1034	0.005
1034	0.005
1035	0.004
1035	0.004
1036	0.003
1036	0.003
1036	0.003
1037	0.004
1037	0.004
1038	0.005
1038	0.005
1039	0.006
1039	0.007
1039	0.008
1040	0.009
1040	0.009
1041	0.009
1041	0.009
1041	0.009
1042	0.008
1042	0.008
1043	0.007
1043	0.007
1044	0.006
1044	0.005
1044	0.004
1045	0.003
1045	0.002
1046	0.001
1046	0.001
1046	0
1047	-0
1047	-0
1048	-0
1048	-0
1049	-0.001
1049	-0.001
1049	-0.001
1050	-0.002
1050	-0.002
1051	-0.003
1051	-0.004
1051	-0.004
1052	-0.005
1052	-0.006
1053	-0.007
1053	-0.007
1053	-0.007
1054	-0.008
1054	-0.008
1055	-0.007
1055	-0.007
1056	-0.007
1056	-0.007
1056	-0.008
1057	-0.008
1057	-0.008
1058	-0.008
1058	-0.009
1058	-0.009
1059	-0.009
1059	-0.009
1060	-0.01
1060	-0.009
1061	-0.01
1061	-0.009
1061	-0.009
1062	-0.009
1062	-0.009
1063	-0.009
1063	-0.009
1063	-0.009
1064	-0.009
1064	-0.009
1065	-0.009
1065	-0.01
1066	-0.01
1066	-0.01
1066	-0.01
1067	-0.011
1067	-0.011
1068	-0.012
1068	-0.012
1068	-0.013
1069	-0.013
1069	-0.014
1070	-0.014
1070	-0.015
1071	-0.015
1071	-0.015
1071	-0.016
1072	-0.016
1072	-0.016
1073	-0.016
1073	-0.015
1073	-0.015
1074	-0.015
1074	-0.015
1075	-0.016
1075	-0.016
1076	-0.017
1076	-0.017
1076	-0.018
1077	-0.019
1077	-0.02
1078	-0.02
1078	-0.021
1078	-0.022
1079	-0.023
1079	-0.023
1080	-0.024
1080	-0.025
1080	-0.026
1081	-0.027
1081	-0.027
1082	-0.028
1082	-0.029
1083	-0.029
1083	-0.03
1083	-0.031
1084	-0.032
1084	-0.032
1085	-0.033
1085	-0.034
1085	-0.034
1086	-0.034
1086	-0.035
1087	-0.035
1087	-0.035
1088	-0.036
1088	-0.037
1088	-0.037
1089	-0.038
1089	-0.039
1090	-0.04
1090	-0.04
1090	-0.042
1091	-0.044
1091	-0.044
1092	-0.045
1092	-0.045
1092	-0.047
1093	-0.048
1093	-0.048
1094	-0.049
1094	-0.049
1095	-0.051
1095	-0.051
1095	-0.052
1096	-0.053
1096	-0.055
1097	-0.055
1097	-0.057
1097	-0.058
1098	-0.059
1098	-0.061
1099	-0.063
1099	-0.064
1100	-0.066
1100	-0.068
1100	-0.07
1101	-0.073
1101	-0.075
1102	-0.077
1102	-0.079
1102	-0.08
1103	-0.082
1103	-0.085
1104	-0.088
1104	-0.091
1104	-0.092
1105	-0.094
1105	-0.097
1106	-0.102
1106	-0.104
1107	-0.11
1107	-0.114
1107	-0.118
1108	-0.12
1108	-0.122
1109	-0.125
1109	-0.129
1109	-0.134
1110	-0.137
1110	-0.14
1111	-0.148
1111	-0.142
