Data from 3.5A_17C_Absorbance__656__00658.txt Node

Date: Tue Jun 20 15:20:12 CEST 2023
User: Marek
Spectrometer: MAYP115816
Trigger mode: 0
Integration Time (sec): 2.200000E-1
Scans to average: 10
Electric dark correction enabled: true
Nonlinearity correction enabled: true
Boxcar width: 5
XAxis mode: Wavelengths
Number of Pixels in Spectrum: 2068
>>>>>Begin Spectral Data<<<<<
199	-0.698
199	-0.672
200	-0.638
200	-0.587
201	-0.558
201	-0.55
202	-0.532
202	-0.523
203	-0.524
203	-0.517
204	-0.498
204	-0.483
205	-0.462
205	-0.454
205	-0.46
206	-0.463
206	-0.458
207	-0.45
207	-0.459
208	-0.459
208	-0.464
209	-0.464
209	-0.468
210	-0.482
210	-0.489
211	-0.484
211	-0.487
212	-0.495
212	-0.501
213	-0.496
213	-0.492
213	-0.49
214	-0.498
214	-0.5
215	-0.495
215	-0.5
216	-0.511
216	-0.515
217	-0.516
217	-0.515
218	-0.525
218	-0.527
219	-0.533
219	-0.535
220	-0.539
220	-0.547
221	-0.545
221	-0.546
221	-0.539
222	-0.537
222	-0.537
223	-0.532
223	-0.535
224	-0.536
224	-0.534
225	-0.532
225	-0.532
226	-0.533
226	-0.533
227	-0.542
227	-0.551
228	-0.556
228	-0.566
229	-0.571
229	-0.567
229	-0.567
230	-0.563
230	-0.561
231	-0.557
231	-0.552
232	-0.553
232	-0.549
233	-0.548
233	-0.534
234	-0.534
234	-0.529
235	-0.533
235	-0.544
236	-0.552
236	-0.552
236	-0.551
237	-0.547
237	-0.549
238	-0.55
238	-0.552
239	-0.554
239	-0.568
240	-0.561
240	-0.555
241	-0.549
241	-0.553
242	-0.557
242	-0.567
243	-0.568
243	-0.571
243	-0.574
244	-0.57
244	-0.569
245	-0.572
245	-0.577
246	-0.587
246	-0.588
247	-0.596
247	-0.581
248	-0.579
248	-0.579
249	-0.585
249	-0.587
250	-0.587
250	-0.597
250	-0.593
251	-0.594
251	-0.591
252	-0.593
252	-0.607
253	-0.601
253	-0.613
254	-0.617
254	-0.617
255	-0.625
255	-0.622
256	-0.625
256	-0.638
257	-0.649
257	-0.643
258	-0.643
258	-0.65
258	-0.646
259	-0.641
259	-0.66
260	-0.659
260	-0.649
261	-0.659
261	-0.644
262	-0.649
262	-0.648
263	-0.639
263	-0.646
264	-0.657
264	-0.656
265	-0.645
265	-0.648
265	-0.656
266	-0.646
266	-0.646
267	-0.645
267	-0.661
268	-0.67
268	-0.664
269	-0.656
269	-0.671
270	-0.674
270	-0.672
271	-0.686
271	-0.699
272	-0.699
272	-0.703
272	-0.697
273	-0.707
273	-0.72
274	-0.709
274	-0.705
275	-0.705
275	-0.693
276	-0.698
276	-0.702
277	-0.703
277	-0.7
278	-0.705
278	-0.704
278	-0.692
279	-0.703
279	-0.716
280	-0.719
280	-0.73
281	-0.724
281	-0.717
282	-0.723
282	-0.716
283	-0.708
283	-0.723
284	-0.736
284	-0.744
285	-0.723
285	-0.728
285	-0.719
286	-0.724
286	-0.739
287	-0.736
287	-0.735
288	-0.733
288	-0.714
289	-0.713
289	-0.721
290	-0.728
290	-0.719
291	-0.72
291	-0.716
292	-0.697
292	-0.695
292	-0.699
293	-0.689
293	-0.684
294	-0.685
294	-0.671
295	-0.655
295	-0.665
296	-0.677
296	-0.673
297	-0.663
297	-0.667
298	-0.663
298	-0.678
298	-0.682
299	-0.666
299	-0.656
300	-0.652
300	-0.635
301	-0.618
301	-0.622
302	-0.629
302	-0.615
303	-0.61
303	-0.599
304	-0.584
304	-0.585
305	-0.578
305	-0.586
305	-0.6
306	-0.586
306	-0.583
307	-0.579
307	-0.589
308	-0.591
308	-0.588
309	-0.587
309	-0.582
310	-0.582
310	-0.579
311	-0.566
311	-0.583
311	-0.571
312	-0.565
312	-0.554
313	-0.547
313	-0.546
314	-0.55
314	-0.548
315	-0.546
315	-0.54
316	-0.534
316	-0.523
317	-0.515
317	-0.513
318	-0.504
318	-0.502
318	-0.493
319	-0.486
319	-0.479
320	-0.475
320	-0.474
321	-0.469
321	-0.469
322	-0.463
322	-0.457
323	-0.459
323	-0.448
324	-0.445
324	-0.432
324	-0.421
325	-0.405
325	-0.387
326	-0.38
326	-0.355
327	-0.341
327	-0.322
328	-0.291
328	-0.267
329	-0.24
329	-0.213
330	-0.186
330	-0.152
330	-0.118
331	-0.081
331	-0.048
332	-0.016
332	0.017
333	0.045
333	0.075
334	0.102
334	0.126
335	0.149
335	0.169
336	0.189
336	0.206
336	0.221
337	0.236
337	0.252
338	0.265
338	0.274
339	0.286
339	0.297
340	0.304
340	0.312
341	0.318
341	0.323
342	0.33
342	0.335
342	0.34
343	0.343
343	0.348
344	0.35
344	0.352
345	0.355
345	0.357
346	0.359
346	0.36
347	0.361
347	0.363
348	0.363
348	0.364
348	0.365
349	0.365
349	0.366
350	0.366
350	0.367
351	0.367
351	0.368
352	0.368
352	0.368
353	0.368
353	0.368
354	0.368
354	0.368
354	0.368
355	0.368
355	0.368
356	0.369
356	0.369
357	0.37
357	0.37
358	0.369
358	0.369
359	0.369
359	0.369
360	0.369
360	0.369
360	0.369
361	0.368
361	0.368
362	0.367
362	0.367
363	0.367
363	0.367
364	0.367
364	0.367
365	0.367
365	0.366
366	0.366
366	0.366
366	0.366
367	0.366
367	0.365
368	0.365
368	0.365
369	0.364
369	0.364
370	0.363
370	0.363
371	0.363
371	0.363
372	0.363
372	0.363
372	0.363
373	0.362
373	0.362
374	0.362
374	0.362
375	0.362
375	0.361
376	0.361
376	0.36
377	0.36
377	0.36
378	0.359
378	0.359
378	0.358
379	0.358
379	0.358
380	0.357
380	0.357
381	0.357
381	0.356
382	0.356
382	0.356
383	0.355
383	0.355
383	0.354
384	0.354
384	0.353
385	0.353
385	0.353
386	0.352
386	0.352
387	0.351
387	0.351
388	0.35
388	0.35
389	0.35
389	0.35
389	0.35
390	0.349
390	0.349
391	0.349
391	0.349
392	0.349
392	0.348
393	0.348
393	0.348
394	0.347
394	0.347
394	0.346
395	0.346
395	0.345
396	0.345
396	0.345
397	0.344
397	0.343
398	0.343
398	0.343
399	0.342
399	0.342
400	0.342
400	0.341
400	0.341
401	0.341
401	0.34
402	0.34
402	0.34
403	0.339
403	0.339
404	0.338
404	0.338
405	0.337
405	0.337
405	0.336
406	0.336
406	0.336
407	0.336
407	0.335
408	0.335
408	0.335
409	0.334
409	0.334
410	0.334
410	0.334
411	0.334
411	0.333
411	0.333
412	0.333
412	0.333
413	0.333
413	0.332
414	0.332
414	0.332
415	0.331
415	0.331
416	0.331
416	0.33
416	0.33
417	0.33
417	0.33
418	0.33
418	0.33
419	0.33
419	0.33
420	0.33
420	0.329
421	0.329
421	0.329
421	0.329
422	0.329
422	0.328
423	0.328
423	0.328
424	0.327
424	0.327
425	0.327
425	0.327
426	0.327
426	0.327
427	0.327
427	0.327
427	0.327
428	0.326
428	0.326
429	0.326
429	0.326
430	0.325
430	0.325
431	0.325
431	0.325
432	0.325
432	0.324
432	0.324
433	0.324
433	0.324
434	0.324
434	0.325
435	0.325
435	0.325
436	0.325
436	0.325
437	0.325
437	0.325
437	0.324
438	0.324
438	0.324
439	0.324
439	0.324
440	0.324
440	0.324
441	0.324
441	0.324
442	0.324
442	0.324
442	0.324
443	0.324
443	0.323
444	0.323
444	0.324
445	0.324
445	0.324
446	0.324
446	0.324
447	0.324
447	0.324
447	0.324
448	0.324
448	0.324
449	0.324
449	0.324
450	0.324
450	0.324
451	0.324
451	0.324
452	0.324
452	0.324
452	0.324
453	0.324
453	0.324
454	0.325
454	0.325
455	0.325
455	0.325
456	0.326
456	0.326
457	0.326
457	0.326
458	0.326
458	0.326
458	0.326
459	0.326
459	0.326
460	0.326
460	0.326
461	0.326
461	0.327
462	0.327
462	0.328
463	0.328
463	0.329
463	0.33
464	0.33
464	0.33
465	0.331
465	0.331
466	0.332
466	0.332
467	0.333
467	0.333
467	0.333
468	0.333
468	0.334
469	0.334
469	0.335
470	0.336
470	0.337
471	0.337
471	0.338
472	0.338
472	0.339
472	0.34
473	0.341
473	0.342
474	0.343
474	0.344
475	0.344
475	0.345
476	0.346
476	0.347
477	0.348
477	0.349
477	0.35
478	0.351
478	0.352
479	0.353
479	0.354
480	0.355
480	0.357
481	0.358
481	0.359
482	0.361
482	0.362
482	0.364
483	0.366
483	0.368
484	0.369
484	0.37
485	0.372
485	0.373
486	0.374
486	0.376
487	0.377
487	0.379
487	0.38
488	0.381
488	0.383
489	0.385
489	0.387
490	0.389
490	0.391
491	0.394
491	0.396
492	0.398
492	0.4
492	0.402
493	0.404
493	0.406
494	0.409
494	0.412
495	0.414
495	0.416
496	0.419
496	0.421
496	0.424
497	0.427
497	0.43
498	0.432
498	0.435
499	0.438
499	0.441
500	0.445
500	0.448
501	0.451
501	0.454
501	0.457
502	0.46
502	0.463
503	0.466
503	0.468
504	0.471
504	0.474
505	0.478
505	0.481
506	0.484
506	0.487
506	0.491
507	0.494
507	0.497
508	0.501
508	0.504
509	0.507
509	0.51
510	0.513
510	0.516
511	0.519
511	0.522
511	0.525
512	0.528
512	0.531
513	0.533
513	0.537
514	0.54
514	0.543
515	0.546
515	0.548
515	0.551
516	0.554
516	0.556
517	0.559
517	0.561
518	0.563
518	0.564
519	0.566
519	0.568
520	0.57
520	0.572
520	0.573
521	0.575
521	0.576
522	0.578
522	0.579
523	0.581
523	0.583
524	0.584
524	0.585
524	0.585
525	0.586
525	0.587
526	0.587
526	0.588
527	0.588
527	0.588
528	0.588
528	0.588
529	0.588
529	0.587
529	0.587
530	0.586
530	0.585
531	0.585
531	0.584
532	0.583
532	0.582
533	0.581
533	0.579
533	0.578
534	0.576
534	0.575
535	0.573
535	0.572
536	0.57
536	0.568
537	0.566
537	0.563
538	0.561
538	0.559
538	0.556
539	0.554
539	0.551
540	0.549
540	0.546
541	0.543
541	0.54
542	0.537
542	0.533
542	0.53
543	0.526
543	0.523
544	0.52
544	0.517
545	0.514
545	0.51
546	0.506
546	0.503
547	0.499
547	0.495
547	0.491
548	0.488
548	0.484
549	0.48
549	0.476
550	0.472
550	0.468
551	0.464
551	0.46
551	0.456
552	0.452
552	0.448
553	0.444
553	0.44
554	0.437
554	0.432
555	0.428
555	0.424
556	0.42
556	0.416
556	0.412
557	0.409
557	0.405
558	0.401
558	0.397
559	0.393
559	0.389
560	0.386
560	0.382
560	0.379
561	0.376
561	0.373
562	0.37
562	0.366
563	0.363
563	0.36
564	0.356
564	0.353
564	0.35
565	0.347
565	0.344
566	0.341
566	0.338
567	0.335
567	0.331
568	0.328
568	0.324
568	0.321
569	0.318
569	0.314
570	0.31
570	0.306
571	0.304
571	0.301
572	0.298
572	0.295
573	0.292
573	0.289
573	0.286
574	0.283
574	0.281
575	0.279
575	0.277
576	0.275
576	0.271
577	0.268
577	0.266
577	0.265
578	0.263
578	0.262
579	0.261
579	0.259
580	0.256
580	0.252
581	0.25
581	0.248
581	0.246
582	0.245
582	0.243
583	0.242
583	0.239
584	0.235
584	0.231
585	0.23
585	0.228
585	0.226
586	0.224
586	0.221
587	0.219
587	0.216
588	0.213
588	0.212
589	0.21
589	0.209
590	0.207
590	0.206
590	0.205
591	0.204
591	0.202
592	0.201
592	0.199
593	0.198
593	0.197
594	0.195
594	0.194
594	0.193
595	0.192
595	0.19
596	0.188
596	0.188
597	0.189
597	0.187
598	0.186
598	0.185
598	0.184
599	0.183
599	0.181
600	0.18
600	0.179
601	0.178
601	0.177
602	0.175
602	0.174
602	0.172
603	0.171
603	0.171
604	0.169
604	0.168
605	0.168
605	0.167
606	0.165
606	0.164
606	0.162
607	0.161
607	0.161
608	0.16
608	0.158
609	0.157
609	0.156
610	0.155
610	0.154
610	0.153
611	0.152
611	0.152
612	0.151
612	0.151
613	0.151
613	0.15
614	0.149
614	0.147
614	0.147
615	0.145
615	0.144
616	0.144
616	0.143
617	0.142
617	0.141
618	0.14
618	0.139
618	0.138
619	0.137
619	0.137
620	0.137
620	0.136
621	0.135
621	0.134
622	0.133
622	0.132
622	0.13
623	0.129
623	0.129
624	0.129
624	0.127
625	0.127
625	0.126
626	0.125
626	0.124
626	0.123
627	0.123
627	0.122
628	0.12
628	0.119
629	0.118
629	0.116
630	0.114
630	0.113
630	0.111
631	0.11
631	0.108
632	0.106
632	0.105
633	0.103
633	0.102
634	0.101
634	0.1
634	0.098
635	0.097
635	0.096
636	0.094
636	0.093
637	0.091
637	0.089
638	0.088
638	0.086
638	0.084
639	0.082
639	0.08
640	0.077
640	0.075
641	0.072
641	0.07
642	0.068
642	0.066
642	0.063
643	0.06
643	0.057
644	0.054
644	0.051
645	0.048
645	0.044
646	0.04
646	0.036
646	0.031
647	0.027
647	0.022
648	0.017
648	0.012
649	0.007
649	0.003
650	-0.002
650	-0.007
650	-0.011
651	-0.018
651	-0.026
652	-0.035
652	-0.045
653	-0.053
653	-0.06
653	-0.056
654	-0.042
654	-0.041
655	-0.045
655	-0.049
656	-0.053
656	-0.058
657	-0.061
657	-0.064
657	-0.068
658	-0.073
658	-0.097
659	-0.161
659	-0.225
660	-0.255
660	-0.275
661	-0.295
661	-0.319
661	-0.344
662	-0.367
662	-0.392
663	-0.419
663	-0.45
664	-0.48
664	-0.514
665	-0.552
665	-0.591
665	-0.629
666	-0.671
666	-0.717
667	-0.766
667	-0.822
668	-0.874
668	-0.936
669	-0.999
669	-1.067
669	-1.14
670	-1.218
670	-1.328
671	-1.501
671	-1.842
672	-2.194
672	-2.395
672	-2.536
673	-2.645
673	-2.733
674	-2.77
674	-2.782
675	-2.797
675	-2.802
676	-2.801
676	-2.77
676	-2.69
677	-2.59
677	-2.462
678	-2.256
678	-1.822
679	-1.489
679	-1.35
680	-1.259
680	-1.191
680	-1.132
681	-1.092
681	-1.046
682	-1.01
682	-0.973
683	-0.935
683	-0.916
684	-0.894
684	-0.877
684	-0.859
685	-0.842
685	-0.834
686	-0.815
686	-0.805
687	-0.798
687	-0.789
687	-0.792
688	-0.779
688	-0.775
689	-0.78
689	-0.778
690	-0.767
690	-0.759
691	-0.757
691	-0.761
691	-0.762
692	-0.762
692	-0.759
693	-0.767
693	-0.778
694	-0.759
694	-0.758
695	-0.763
695	-0.757
695	-0.768
696	-0.774
696	-0.768
697	-0.764
697	-0.76
698	-0.756
698	-0.748
698	-0.765
699	-0.762
699	-0.761
700	-0.781
700	-0.775
701	-0.764
701	-0.758
702	-0.757
702	-0.755
702	-0.755
703	-0.745
703	-0.733
704	-0.741
704	-0.746
705	-0.734
705	-0.731
705	-0.726
706	-0.718
706	-0.716
707	-0.726
707	-0.729
708	-0.728
708	-0.727
709	-0.728
709	-0.724
709	-0.722
710	-0.73
710	-0.732
711	-0.731
711	-0.732
712	-0.723
712	-0.721
713	-0.727
713	-0.727
713	-0.708
714	-0.711
714	-0.714
715	-0.705
715	-0.713
716	-0.729
716	-0.736
716	-0.74
717	-0.745
717	-0.737
718	-0.731
718	-0.733
719	-0.728
719	-0.721
720	-0.717
720	-0.713
720	-0.708
721	-0.7
721	-0.704
722	-0.702
722	-0.696
723	-0.712
723	-0.726
723	-0.733
724	-0.73
724	-0.736
725	-0.731
725	-0.736
726	-0.74
726	-0.731
727	-0.733
727	-0.741
727	-0.734
728	-0.72
728	-0.716
729	-0.721
729	-0.724
730	-0.729
730	-0.719
730	-0.724
731	-0.727
731	-0.726
732	-0.729
732	-0.724
733	-0.74
733	-0.746
734	-0.753
734	-0.74
734	-0.723
735	-0.714
735	-0.71
736	-0.708
736	-0.702
737	-0.701
737	-0.689
737	-0.681
738	-0.667
738	-0.655
739	-0.66
739	-0.662
740	-0.675
740	-0.674
741	-0.688
741	-0.698
741	-0.708
742	-0.717
742	-0.732
743	-0.741
743	-0.744
744	-0.747
744	-0.755
744	-0.749
745	-0.757
745	-0.746
746	-0.742
746	-0.734
747	-0.736
747	-0.729
748	-0.73
748	-0.736
748	-0.739
749	-0.73
749	-0.736
750	-0.727
750	-0.727
751	-0.725
751	-0.721
751	-0.732
752	-0.733
752	-0.735
753	-0.736
753	-0.726
754	-0.746
754	-0.746
754	-0.754
755	-0.754
755	-0.748
756	-0.75
756	-0.734
757	-0.728
757	-0.717
758	-0.717
758	-0.717
758	-0.711
759	-0.714
759	-0.714
760	-0.712
760	-0.713
761	-0.709
761	-0.714
761	-0.713
762	-0.719
762	-0.719
763	-0.722
763	-0.725
764	-0.725
764	-0.721
764	-0.728
765	-0.728
765	-0.732
766	-0.734
766	-0.738
767	-0.752
767	-0.75
768	-0.746
768	-0.74
768	-0.733
769	-0.737
769	-0.744
770	-0.754
770	-0.758
771	-0.756
771	-0.755
771	-0.761
772	-0.763
772	-0.782
773	-0.782
773	-0.783
774	-0.783
774	-0.765
775	-0.751
775	-0.751
775	-0.754
776	-0.764
776	-0.759
777	-0.761
777	-0.746
778	-0.755
778	-0.765
778	-0.765
779	-0.772
779	-0.787
780	-0.784
780	-0.792
781	-0.782
781	-0.773
781	-0.784
782	-0.804
782	-0.806
783	-0.804
783	-0.812
784	-0.815
784	-0.81
784	-0.829
785	-0.823
785	-0.836
786	-0.838
786	-0.834
787	-0.824
787	-0.83
788	-0.825
788	-0.82
788	-0.822
789	-0.821
789	-0.811
790	-0.81
790	-0.792
791	-0.8
791	-0.796
791	-0.789
792	-0.783
792	-0.785
793	-0.786
793	-0.772
794	-0.765
794	-0.76
794	-0.768
795	-0.79
795	-0.778
796	-0.782
796	-0.779
797	-0.771
797	-0.764
797	-0.757
798	-0.779
798	-0.785
799	-0.784
799	-0.77
800	-0.764
800	-0.771
801	-0.768
801	-0.772
801	-0.769
802	-0.769
802	-0.768
803	-0.763
803	-0.752
804	-0.758
804	-0.764
804	-0.749
805	-0.729
805	-0.721
806	-0.722
806	-0.72
807	-0.719
807	-0.72
807	-0.703
808	-0.7
808	-0.694
809	-0.69
809	-0.691
810	-0.695
810	-0.692
810	-0.69
811	-0.694
811	-0.688
812	-0.682
812	-0.685
813	-0.691
813	-0.691
813	-0.687
814	-0.687
814	-0.693
815	-0.685
815	-0.68
816	-0.675
816	-0.693
817	-0.704
817	-0.706
817	-0.716
818	-0.709
818	-0.705
819	-0.714
819	-0.713
820	-0.725
820	-0.723
820	-0.723
821	-0.717
821	-0.715
822	-0.713
822	-0.7
823	-0.712
823	-0.711
823	-0.708
824	-0.705
824	-0.714
825	-0.713
825	-0.711
826	-0.707
826	-0.7
826	-0.701
827	-0.701
827	-0.691
828	-0.693
828	-0.687
829	-0.683
829	-0.668
829	-0.664
830	-0.661
830	-0.648
831	-0.642
831	-0.634
832	-0.625
832	-0.62
832	-0.612
833	-0.611
833	-0.616
834	-0.613
834	-0.609
835	-0.602
835	-0.601
835	-0.597
836	-0.592
836	-0.589
837	-0.58
837	-0.57
838	-0.559
838	-0.542
839	-0.536
839	-0.523
839	-0.514
840	-0.511
840	-0.502
841	-0.491
841	-0.485
842	-0.475
842	-0.465
842	-0.463
843	-0.458
843	-0.452
844	-0.451
844	-0.441
845	-0.429
845	-0.422
845	-0.412
846	-0.401
846	-0.394
847	-0.384
847	-0.372
848	-0.361
848	-0.347
848	-0.335
849	-0.323
849	-0.314
850	-0.304
850	-0.295
851	-0.283
851	-0.269
851	-0.26
852	-0.248
852	-0.237
853	-0.229
853	-0.219
854	-0.211
854	-0.201
854	-0.189
855	-0.18
855	-0.174
856	-0.167
856	-0.161
857	-0.154
857	-0.146
857	-0.136
858	-0.128
858	-0.122
859	-0.114
859	-0.106
860	-0.097
860	-0.086
860	-0.079
861	-0.071
861	-0.063
862	-0.056
862	-0.05
863	-0.043
863	-0.036
863	-0.031
864	-0.026
864	-0.021
865	-0.016
865	-0.012
866	-0.008
866	-0.004
866	-0
867	0.003
867	0.007
868	0.01
868	0.013
869	0.017
869	0.019
869	0.021
870	0.023
870	0.025
871	0.027
871	0.028
872	0.029
872	0.029
872	0.03
873	0.03
873	0.03
874	0.029
874	0.029
875	0.029
875	0.028
875	0.028
876	0.027
876	0.027
877	0.026
877	0.025
878	0.024
878	0.024
878	0.023
879	0.022
879	0.022
880	0.021
880	0.02
881	0.02
881	0.019
881	0.019
882	0.018
882	0.018
883	0.017
883	0.016
884	0.017
884	0.017
884	0.017
885	0.016
885	0.016
886	0.016
886	0.016
887	0.015
887	0.014
887	0.014
888	0.013
888	0.012
889	0.012
889	0.011
890	0.01
890	0.01
890	0.009
891	0.009
891	0.009
892	0.009
892	0.009
893	0.009
893	0.009
893	0.009
894	0.009
894	0.009
895	0.009
895	0.009
895	0.009
896	0.01
896	0.01
897	0.01
897	0.01
898	0.01
898	0.011
898	0.011
899	0.012
899	0.012
900	0.012
900	0.013
901	0.013
901	0.013
901	0.013
902	0.014
902	0.014
903	0.014
903	0.014
904	0.013
904	0.013
904	0.013
905	0.012
905	0.012
906	0.012
906	0.013
907	0.013
907	0.013
907	0.013
908	0.014
908	0.015
909	0.015
909	0.016
910	0.017
910	0.018
910	0.018
911	0.019
911	0.02
912	0.022
912	0.024
913	0.025
913	0.026
913	0.027
914	0.028
914	0.028
915	0.028
915	0.028
916	0.028
916	0.027
916	0.026
917	0.025
917	0.024
918	0.024
918	0.023
918	0.023
919	0.022
919	0.022
920	0.022
920	0.022
921	0.022
921	0.022
921	0.022
922	0.022
922	0.021
923	0.021
923	0.021
924	0.02
924	0.02
924	0.02
925	0.019
925	0.019
926	0.019
926	0.019
927	0.019
927	0.019
927	0.019
928	0.019
928	0.02
929	0.02
929	0.021
930	0.022
930	0.022
930	0.023
931	0.024
931	0.024
932	0.025
932	0.025
933	0.026
933	0.026
933	0.026
934	0.025
934	0.025
935	0.024
935	0.023
935	0.021
936	0.02
936	0.019
937	0.017
937	0.016
938	0.015
938	0.013
938	0.013
939	0.012
939	0.012
940	0.012
940	0.011
941	0.011
941	0.011
941	0.011
942	0.011
942	0.011
943	0.011
943	0.011
944	0.011
944	0.011
944	0.011
945	0.011
945	0.011
946	0.011
946	0.01
946	0.01
947	0.01
947	0.009
948	0.009
948	0.008
949	0.008
949	0.008
949	0.008
950	0.008
950	0.009
951	0.009
951	0.01
952	0.01
952	0.011
952	0.011
953	0.011
953	0.012
954	0.012
954	0.012
955	0.012
955	0.012
955	0.012
956	0.012
956	0.012
957	0.011
957	0.01
957	0.01
958	0.009
958	0.009
959	0.009
959	0.008
960	0.008
960	0.008
960	0.008
961	0.008
961	0.008
962	0.008
962	0.008
963	0.008
963	0.008
963	0.008
964	0.008
964	0.008
965	0.008
965	0.009
966	0.009
966	0.009
966	0.009
967	0.009
967	0.009
968	0.009
968	0.009
968	0.009
969	0.008
969	0.008
970	0.007
970	0.006
971	0.005
971	0.004
971	0.004
972	0.004
972	0.004
973	0.004
973	0.004
974	0.004
974	0.005
974	0.006
975	0.007
975	0.008
976	0.009
976	0.011
976	0.011
977	0.012
977	0.012
978	0.012
978	0.013
979	0.012
979	0.012
979	0.012
980	0.011
980	0.011
981	0.01
981	0.01
982	0.01
982	0.01
982	0.01
983	0.01
983	0.01
984	0.01
984	0.01
984	0.01
985	0.01
985	0.01
986	0.01
986	0.009
987	0.009
987	0.008
987	0.007
988	0.007
988	0.006
989	0.005
989	0.005
990	0.004
990	0.003
990	0.003
991	0.002
991	0.002
992	0.002
992	0.002
992	0.002
993	0.002
993	0.002
994	0.001
994	0.001
995	0.001
995	0.001
995	0.001
996	0
996	-0
997	-0.001
997	-0.001
997	-0.001
998	-0.001
998	-0
999	-0
999	-0
1000	0
1000	0
1000	0.001
1001	0.001
1001	0.002
1002	0.002
1002	0.002
1003	0.002
1003	0.002
1003	0.002
1004	0.001
1004	0.001
1005	0.001
1005	-0
1005	-0.001
1006	-0.001
1006	-0.002
1007	-0.003
1007	-0.003
1008	-0.003
1008	-0.004
1008	-0.004
1009	-0.004
1009	-0.004
1010	-0.004
1010	-0.003
1010	-0.003
1011	-0.003
1011	-0.003
1012	-0.002
1012	-0.002
1013	-0.001
1013	-0.001
1013	-0.001
1014	-0
1014	0
1015	0
1015	0
1016	0.001
1016	0.001
1016	0.001
1017	0.001
1017	0.001
1018	0.001
1018	0.001
1018	0.001
1019	0.001
1019	0.001
1020	0
1020	-0
1021	-0.001
1021	-0.001
1021	-0.002
1022	-0.003
1022	-0.004
1023	-0.004
1023	-0.005
1023	-0.006
1024	-0.006
1024	-0.007
1025	-0.007
1025	-0.008
1026	-0.008
1026	-0.008
1026	-0.009
1027	-0.009
1027	-0.009
1028	-0.009
1028	-0.008
1028	-0.008
1029	-0.008
1029	-0.008
1030	-0.008
1030	-0.008
1031	-0.008
1031	-0.008
1031	-0.008
1032	-0.008
1032	-0.008
1033	-0.009
1033	-0.009
1033	-0.009
1034	-0.01
1034	-0.01
1035	-0.01
1035	-0.01
1036	-0.01
1036	-0.01
1036	-0.01
1037	-0.009
1037	-0.009
1038	-0.008
1038	-0.008
1039	-0.007
1039	-0.006
1039	-0.005
1040	-0.005
1040	-0.005
1041	-0.005
1041	-0.005
1041	-0.005
1042	-0.006
1042	-0.007
1043	-0.008
1043	-0.008
1044	-0.009
1044	-0.01
1044	-0.011
1045	-0.012
1045	-0.013
1046	-0.014
1046	-0.015
1046	-0.015
1047	-0.015
1047	-0.015
1048	-0.015
1048	-0.015
1049	-0.015
1049	-0.016
1049	-0.016
1050	-0.017
1050	-0.017
1051	-0.018
1051	-0.019
1051	-0.019
1052	-0.02
1052	-0.021
1053	-0.021
1053	-0.022
1053	-0.022
1054	-0.022
1054	-0.022
1055	-0.021
1055	-0.021
1056	-0.021
1056	-0.022
1056	-0.022
1057	-0.022
1057	-0.022
1058	-0.022
1058	-0.023
1058	-0.023
1059	-0.023
1059	-0.023
1060	-0.024
1060	-0.023
1061	-0.023
1061	-0.023
1061	-0.023
1062	-0.022
1062	-0.022
1063	-0.022
1063	-0.022
1063	-0.022
1064	-0.022
1064	-0.022
1065	-0.022
1065	-0.023
1066	-0.023
1066	-0.023
1066	-0.023
1067	-0.024
1067	-0.024
1068	-0.025
1068	-0.025
1068	-0.025
1069	-0.026
1069	-0.026
1070	-0.027
1070	-0.027
1071	-0.027
1071	-0.028
1071	-0.028
1072	-0.028
1072	-0.027
1073	-0.027
1073	-0.027
1073	-0.027
1074	-0.026
1074	-0.026
1075	-0.027
1075	-0.027
1076	-0.028
1076	-0.028
1076	-0.029
1077	-0.029
1077	-0.03
1078	-0.031
1078	-0.032
1078	-0.033
1079	-0.033
1079	-0.033
1080	-0.034
1080	-0.035
1080	-0.036
1081	-0.036
1081	-0.037
1082	-0.037
1082	-0.038
1083	-0.038
1083	-0.039
1083	-0.04
1084	-0.041
1084	-0.041
1085	-0.041
1085	-0.042
1085	-0.042
1086	-0.042
1086	-0.043
1087	-0.043
1087	-0.043
1088	-0.044
1088	-0.045
1088	-0.045
1089	-0.046
1089	-0.047
1090	-0.047
1090	-0.048
1090	-0.049
1091	-0.05
1091	-0.051
1092	-0.052
1092	-0.052
1092	-0.053
1093	-0.054
1093	-0.054
1094	-0.055
1094	-0.056
1095	-0.057
1095	-0.058
1095	-0.058
1096	-0.059
1096	-0.06
1097	-0.061
1097	-0.063
1097	-0.064
1098	-0.065
1098	-0.067
1099	-0.069
1099	-0.069
1100	-0.071
1100	-0.073
1100	-0.076
1101	-0.078
1101	-0.079
1102	-0.081
1102	-0.083
1102	-0.084
1103	-0.086
1103	-0.088
1104	-0.091
1104	-0.094
1104	-0.095
1105	-0.096
1105	-0.098
1106	-0.103
1106	-0.105
1107	-0.109
1107	-0.114
1107	-0.118
1108	-0.119
1108	-0.121
1109	-0.123
1109	-0.127
1109	-0.131
1110	-0.134
1110	-0.136
1111	-0.146
1111	-0.141
