Data from 3.5A_17C_Absorbance__11__00013.txt Node

Date: Tue Jun 20 14:56:34 CEST 2023
User: Marek
Spectrometer: MAYP115816
Trigger mode: 0
Integration Time (sec): 2.200000E-1
Scans to average: 10
Electric dark correction enabled: true
Nonlinearity correction enabled: true
Boxcar width: 5
XAxis mode: Wavelengths
Number of Pixels in Spectrum: 2068
>>>>>Begin Spectral Data<<<<<
199	-0.48
199	-0.466
200	-0.418
200	-0.366
201	-0.342
201	-0.336
202	-0.315
202	-0.308
203	-0.304
203	-0.299
204	-0.279
204	-0.263
205	-0.24
205	-0.233
205	-0.243
206	-0.242
206	-0.238
207	-0.232
207	-0.238
208	-0.241
208	-0.245
209	-0.249
209	-0.249
210	-0.26
210	-0.269
211	-0.262
211	-0.266
212	-0.273
212	-0.281
213	-0.278
213	-0.275
213	-0.27
214	-0.278
214	-0.285
215	-0.283
215	-0.285
216	-0.294
216	-0.297
217	-0.295
217	-0.295
218	-0.299
218	-0.302
219	-0.309
219	-0.31
220	-0.312
220	-0.317
221	-0.318
221	-0.316
221	-0.311
222	-0.31
222	-0.311
223	-0.308
223	-0.305
224	-0.305
224	-0.303
225	-0.3
225	-0.302
226	-0.304
226	-0.308
227	-0.315
227	-0.326
228	-0.323
228	-0.332
229	-0.339
229	-0.339
229	-0.337
230	-0.333
230	-0.33
231	-0.327
231	-0.319
232	-0.323
232	-0.317
233	-0.32
233	-0.308
234	-0.307
234	-0.303
235	-0.305
235	-0.317
236	-0.325
236	-0.326
236	-0.327
237	-0.322
237	-0.324
238	-0.324
238	-0.327
239	-0.327
239	-0.337
240	-0.332
240	-0.331
241	-0.326
241	-0.326
242	-0.328
242	-0.338
243	-0.334
243	-0.337
243	-0.342
244	-0.34
244	-0.34
245	-0.345
245	-0.349
246	-0.358
246	-0.357
247	-0.361
247	-0.346
248	-0.346
248	-0.346
249	-0.351
249	-0.351
250	-0.35
250	-0.354
250	-0.346
251	-0.346
251	-0.346
252	-0.348
252	-0.359
253	-0.356
253	-0.368
254	-0.371
254	-0.373
255	-0.38
255	-0.377
256	-0.382
256	-0.39
257	-0.396
257	-0.395
258	-0.395
258	-0.401
258	-0.395
259	-0.389
259	-0.402
260	-0.404
260	-0.393
261	-0.401
261	-0.389
262	-0.395
262	-0.391
263	-0.383
263	-0.39
264	-0.401
264	-0.399
265	-0.388
265	-0.386
265	-0.398
266	-0.385
266	-0.388
267	-0.387
267	-0.401
268	-0.407
268	-0.399
269	-0.39
269	-0.405
270	-0.409
270	-0.406
271	-0.416
271	-0.426
272	-0.425
272	-0.429
272	-0.426
273	-0.434
273	-0.444
274	-0.437
274	-0.434
275	-0.429
275	-0.42
276	-0.428
276	-0.432
277	-0.43
277	-0.425
278	-0.426
278	-0.427
278	-0.419
279	-0.43
279	-0.44
280	-0.441
280	-0.452
281	-0.446
281	-0.439
282	-0.447
282	-0.444
283	-0.44
283	-0.454
284	-0.465
284	-0.468
285	-0.45
285	-0.457
285	-0.445
286	-0.447
286	-0.462
287	-0.459
287	-0.456
288	-0.452
288	-0.433
289	-0.429
289	-0.44
290	-0.45
290	-0.439
291	-0.446
291	-0.444
292	-0.428
292	-0.423
292	-0.426
293	-0.416
293	-0.409
294	-0.412
294	-0.398
295	-0.38
295	-0.396
296	-0.407
296	-0.402
297	-0.392
297	-0.397
298	-0.394
298	-0.411
298	-0.417
299	-0.399
299	-0.392
300	-0.386
300	-0.369
301	-0.349
301	-0.355
302	-0.362
302	-0.346
303	-0.338
303	-0.327
304	-0.312
304	-0.315
305	-0.306
305	-0.319
305	-0.33
306	-0.321
306	-0.314
307	-0.309
307	-0.323
308	-0.328
308	-0.324
309	-0.326
309	-0.324
310	-0.328
310	-0.323
311	-0.312
311	-0.327
311	-0.317
312	-0.312
312	-0.302
313	-0.295
313	-0.294
314	-0.299
314	-0.295
315	-0.289
315	-0.284
316	-0.275
316	-0.265
317	-0.259
317	-0.263
318	-0.254
318	-0.251
318	-0.243
319	-0.234
319	-0.226
320	-0.226
320	-0.223
321	-0.22
321	-0.22
322	-0.214
322	-0.203
323	-0.21
323	-0.204
324	-0.203
324	-0.196
324	-0.186
325	-0.173
325	-0.154
326	-0.15
326	-0.128
327	-0.118
327	-0.1
328	-0.072
328	-0.053
329	-0.03
329	-0.006
330	0.015
330	0.044
330	0.071
331	0.103
331	0.129
332	0.153
332	0.177
333	0.201
333	0.224
334	0.245
334	0.262
335	0.279
335	0.293
336	0.306
336	0.318
336	0.329
337	0.339
337	0.35
338	0.357
338	0.363
339	0.371
339	0.377
340	0.381
340	0.385
341	0.39
341	0.393
342	0.396
342	0.399
342	0.401
343	0.403
343	0.405
344	0.406
344	0.408
345	0.409
345	0.41
346	0.411
346	0.412
347	0.413
347	0.413
348	0.413
348	0.414
348	0.415
349	0.415
349	0.416
350	0.416
350	0.416
351	0.416
351	0.416
352	0.415
352	0.415
353	0.415
353	0.415
354	0.415
354	0.415
354	0.415
355	0.415
355	0.414
356	0.414
356	0.414
357	0.415
357	0.415
358	0.414
358	0.414
359	0.413
359	0.413
360	0.413
360	0.412
360	0.413
361	0.412
361	0.412
362	0.412
362	0.411
363	0.411
363	0.411
364	0.411
364	0.411
365	0.411
365	0.411
366	0.41
366	0.41
366	0.41
367	0.41
367	0.409
368	0.408
368	0.408
369	0.407
369	0.407
370	0.407
370	0.406
371	0.406
371	0.405
372	0.405
372	0.404
372	0.404
373	0.404
373	0.403
374	0.403
374	0.403
375	0.402
375	0.402
376	0.401
376	0.401
377	0.4
377	0.4
378	0.399
378	0.399
378	0.398
379	0.398
379	0.398
380	0.397
380	0.397
381	0.397
381	0.396
382	0.396
382	0.395
383	0.395
383	0.395
383	0.394
384	0.393
384	0.393
385	0.392
385	0.392
386	0.391
386	0.391
387	0.39
387	0.39
388	0.39
388	0.389
389	0.389
389	0.389
389	0.388
390	0.388
390	0.387
391	0.387
391	0.386
392	0.386
392	0.385
393	0.385
393	0.385
394	0.384
394	0.383
394	0.383
395	0.383
395	0.382
396	0.382
396	0.381
397	0.381
397	0.38
398	0.379
398	0.379
399	0.379
399	0.378
400	0.378
400	0.377
400	0.377
401	0.377
401	0.376
402	0.375
402	0.375
403	0.375
403	0.374
404	0.374
404	0.373
405	0.373
405	0.373
405	0.372
406	0.372
406	0.371
407	0.371
407	0.371
408	0.37
408	0.37
409	0.37
409	0.37
410	0.369
410	0.369
411	0.369
411	0.368
411	0.368
412	0.367
412	0.367
413	0.367
413	0.366
414	0.366
414	0.366
415	0.365
415	0.365
416	0.365
416	0.365
416	0.364
417	0.364
417	0.364
418	0.364
418	0.363
419	0.363
419	0.363
420	0.363
420	0.363
421	0.362
421	0.362
421	0.362
422	0.363
422	0.363
423	0.362
423	0.362
424	0.362
424	0.361
425	0.361
425	0.361
426	0.361
426	0.361
427	0.36
427	0.36
427	0.36
428	0.36
428	0.36
429	0.359
429	0.359
430	0.359
430	0.358
431	0.358
431	0.358
432	0.358
432	0.358
432	0.357
433	0.357
433	0.357
434	0.357
434	0.357
435	0.357
435	0.357
436	0.357
436	0.357
437	0.357
437	0.357
437	0.357
438	0.357
438	0.357
439	0.357
439	0.357
440	0.356
440	0.356
441	0.357
441	0.356
442	0.356
442	0.356
442	0.356
443	0.356
443	0.356
444	0.357
444	0.357
445	0.357
445	0.357
446	0.357
446	0.357
447	0.357
447	0.358
447	0.358
448	0.358
448	0.358
449	0.358
449	0.358
450	0.359
450	0.359
451	0.359
451	0.359
452	0.359
452	0.359
452	0.359
453	0.359
453	0.359
454	0.359
454	0.36
455	0.36
455	0.36
456	0.36
456	0.36
457	0.361
457	0.361
458	0.361
458	0.361
458	0.362
459	0.362
459	0.362
460	0.363
460	0.363
461	0.363
461	0.364
462	0.364
462	0.365
463	0.366
463	0.366
463	0.367
464	0.367
464	0.368
465	0.369
465	0.369
466	0.37
466	0.37
467	0.371
467	0.372
467	0.372
468	0.373
468	0.374
469	0.375
469	0.376
470	0.376
470	0.377
471	0.378
471	0.379
472	0.379
472	0.38
472	0.381
473	0.382
473	0.382
474	0.383
474	0.384
475	0.385
475	0.386
476	0.388
476	0.389
477	0.39
477	0.392
477	0.393
478	0.394
478	0.396
479	0.397
479	0.398
480	0.4
480	0.401
481	0.402
481	0.404
482	0.405
482	0.407
482	0.409
483	0.411
483	0.413
484	0.415
484	0.417
485	0.419
485	0.421
486	0.423
486	0.425
487	0.427
487	0.429
487	0.431
488	0.433
488	0.435
489	0.438
489	0.441
490	0.443
490	0.445
491	0.448
491	0.451
492	0.454
492	0.456
492	0.459
493	0.461
493	0.464
494	0.467
494	0.47
495	0.473
495	0.476
496	0.479
496	0.482
496	0.485
497	0.488
497	0.491
498	0.494
498	0.498
499	0.501
499	0.505
500	0.509
500	0.512
501	0.516
501	0.519
501	0.523
502	0.526
502	0.53
503	0.534
503	0.538
504	0.542
504	0.545
505	0.549
505	0.553
506	0.557
506	0.561
506	0.565
507	0.569
507	0.573
508	0.577
508	0.581
509	0.585
509	0.588
510	0.592
510	0.596
511	0.599
511	0.603
511	0.606
512	0.61
512	0.613
513	0.616
513	0.62
514	0.623
514	0.626
515	0.629
515	0.632
515	0.635
516	0.638
516	0.641
517	0.643
517	0.646
518	0.649
518	0.651
519	0.653
519	0.655
520	0.657
520	0.66
520	0.662
521	0.663
521	0.665
522	0.667
522	0.669
523	0.67
523	0.672
524	0.673
524	0.674
524	0.675
525	0.676
525	0.676
526	0.677
526	0.677
527	0.677
527	0.677
528	0.677
528	0.676
529	0.676
529	0.676
529	0.675
530	0.674
530	0.672
531	0.671
531	0.67
532	0.668
532	0.666
533	0.665
533	0.662
533	0.66
534	0.658
534	0.655
535	0.653
535	0.65
536	0.648
536	0.645
537	0.642
537	0.639
538	0.636
538	0.633
538	0.629
539	0.626
539	0.623
540	0.619
540	0.616
541	0.612
541	0.608
542	0.603
542	0.599
542	0.594
543	0.59
543	0.585
544	0.581
544	0.576
545	0.572
545	0.566
546	0.561
546	0.556
547	0.55
547	0.545
547	0.541
548	0.536
548	0.531
549	0.526
549	0.521
550	0.516
550	0.51
551	0.505
551	0.499
551	0.494
552	0.489
552	0.484
553	0.478
553	0.473
554	0.468
554	0.462
555	0.457
555	0.451
556	0.446
556	0.441
556	0.436
557	0.43
557	0.425
558	0.419
558	0.413
559	0.408
559	0.402
560	0.397
560	0.392
560	0.387
561	0.383
561	0.378
562	0.374
562	0.37
563	0.365
563	0.361
564	0.357
564	0.353
564	0.348
565	0.344
565	0.34
566	0.335
566	0.331
567	0.326
567	0.322
568	0.317
568	0.313
568	0.308
569	0.303
569	0.299
570	0.294
570	0.29
571	0.286
571	0.282
572	0.278
572	0.274
573	0.27
573	0.266
573	0.263
574	0.26
574	0.257
575	0.254
575	0.251
576	0.248
576	0.244
577	0.241
577	0.238
577	0.236
578	0.233
578	0.231
579	0.228
579	0.225
580	0.222
580	0.219
581	0.216
581	0.213
581	0.211
582	0.209
582	0.206
583	0.204
583	0.2
584	0.197
584	0.194
585	0.191
585	0.189
585	0.186
586	0.183
586	0.181
587	0.178
587	0.176
588	0.174
588	0.172
589	0.17
589	0.168
590	0.167
590	0.165
590	0.163
591	0.162
591	0.159
592	0.157
592	0.155
593	0.154
593	0.152
594	0.15
594	0.148
594	0.147
595	0.145
595	0.143
596	0.141
596	0.14
597	0.139
597	0.137
598	0.135
598	0.134
598	0.133
599	0.131
599	0.13
600	0.129
600	0.128
601	0.127
601	0.126
602	0.124
602	0.123
602	0.122
603	0.121
603	0.12
604	0.119
604	0.117
605	0.116
605	0.115
606	0.114
606	0.112
606	0.111
607	0.11
607	0.109
608	0.107
608	0.106
609	0.104
609	0.104
610	0.102
610	0.101
610	0.1
611	0.099
611	0.098
612	0.097
612	0.096
613	0.096
613	0.095
614	0.095
614	0.094
614	0.094
615	0.093
615	0.092
616	0.092
616	0.092
617	0.091
617	0.091
618	0.09
618	0.089
618	0.088
619	0.088
619	0.088
620	0.087
620	0.086
621	0.085
621	0.084
622	0.082
622	0.081
622	0.08
623	0.079
623	0.078
624	0.078
624	0.077
625	0.076
625	0.076
626	0.075
626	0.075
626	0.075
627	0.075
627	0.074
628	0.074
628	0.073
629	0.073
629	0.072
630	0.071
630	0.071
630	0.07
631	0.07
631	0.069
632	0.068
632	0.067
633	0.066
633	0.065
634	0.064
634	0.064
634	0.063
635	0.062
635	0.061
636	0.06
636	0.059
637	0.058
637	0.057
638	0.056
638	0.055
638	0.054
639	0.053
639	0.052
640	0.051
640	0.05
641	0.049
641	0.049
642	0.048
642	0.047
642	0.046
643	0.045
643	0.044
644	0.043
644	0.043
645	0.042
645	0.041
646	0.041
646	0.04
646	0.038
647	0.037
647	0.035
648	0.033
648	0.031
649	0.029
649	0.027
650	0.025
650	0.024
650	0.021
651	0.019
651	0.015
652	0.012
652	0.007
653	0.004
653	0.001
653	0.003
654	0.008
654	0.008
655	0.006
655	0.004
656	0.003
656	0.001
657	-0
657	-0.002
657	-0.004
658	-0.006
658	-0.016
659	-0.045
659	-0.075
660	-0.09
660	-0.101
661	-0.114
661	-0.127
661	-0.142
662	-0.154
662	-0.169
663	-0.185
663	-0.203
664	-0.218
664	-0.238
665	-0.261
665	-0.284
665	-0.307
666	-0.334
666	-0.366
667	-0.397
667	-0.435
668	-0.474
668	-0.525
669	-0.578
669	-0.637
669	-0.716
670	-0.855
670	-1.203
671	-1.634
671	-2.001
672	-2.277
672	-2.453
672	-2.534
673	-2.559
673	-2.569
674	-2.584
674	-2.593
675	-2.605
675	-2.6
676	-2.568
676	-2.474
676	-2.288
677	-1.943
677	-1.412
678	-0.979
678	-0.822
679	-0.747
679	-0.69
680	-0.646
680	-0.619
680	-0.591
681	-0.578
681	-0.555
682	-0.542
682	-0.521
683	-0.5
683	-0.495
684	-0.484
684	-0.479
684	-0.473
685	-0.466
685	-0.47
686	-0.458
686	-0.453
687	-0.452
687	-0.447
687	-0.456
688	-0.447
688	-0.444
689	-0.454
689	-0.456
690	-0.447
690	-0.443
691	-0.448
691	-0.455
691	-0.455
692	-0.457
692	-0.453
693	-0.458
693	-0.471
694	-0.457
694	-0.457
695	-0.465
695	-0.457
695	-0.466
696	-0.472
696	-0.469
697	-0.465
697	-0.464
698	-0.462
698	-0.461
698	-0.474
699	-0.471
699	-0.472
700	-0.494
700	-0.489
701	-0.479
701	-0.472
702	-0.473
702	-0.471
702	-0.474
703	-0.465
703	-0.453
704	-0.463
704	-0.465
705	-0.453
705	-0.455
705	-0.453
706	-0.45
706	-0.451
707	-0.463
707	-0.467
708	-0.466
708	-0.463
709	-0.463
709	-0.463
709	-0.458
710	-0.462
710	-0.465
711	-0.462
711	-0.462
712	-0.455
712	-0.455
713	-0.461
713	-0.463
713	-0.444
714	-0.445
714	-0.454
715	-0.447
715	-0.454
716	-0.469
716	-0.477
716	-0.478
717	-0.484
717	-0.475
718	-0.469
718	-0.476
719	-0.473
719	-0.462
720	-0.456
720	-0.451
720	-0.447
721	-0.438
721	-0.443
722	-0.442
722	-0.44
723	-0.455
723	-0.464
723	-0.472
724	-0.476
724	-0.483
725	-0.478
725	-0.481
726	-0.488
726	-0.478
727	-0.478
727	-0.483
727	-0.473
728	-0.462
728	-0.461
729	-0.459
729	-0.462
730	-0.468
730	-0.462
730	-0.466
731	-0.467
731	-0.466
732	-0.467
732	-0.465
733	-0.477
733	-0.482
734	-0.492
734	-0.484
734	-0.467
735	-0.457
735	-0.452
736	-0.452
736	-0.447
737	-0.447
737	-0.44
737	-0.432
738	-0.417
738	-0.406
739	-0.409
739	-0.407
740	-0.419
740	-0.418
741	-0.427
741	-0.439
741	-0.449
742	-0.457
742	-0.475
743	-0.479
743	-0.482
744	-0.485
744	-0.496
744	-0.492
745	-0.498
745	-0.488
746	-0.486
746	-0.48
747	-0.477
747	-0.467
748	-0.471
748	-0.478
748	-0.481
749	-0.475
749	-0.482
750	-0.476
750	-0.478
751	-0.474
751	-0.471
751	-0.484
752	-0.485
752	-0.487
753	-0.487
753	-0.475
754	-0.493
754	-0.491
754	-0.497
755	-0.497
755	-0.491
756	-0.496
756	-0.483
757	-0.479
757	-0.468
758	-0.467
758	-0.469
758	-0.465
759	-0.471
759	-0.47
760	-0.469
760	-0.472
761	-0.467
761	-0.471
761	-0.471
762	-0.476
762	-0.478
763	-0.478
763	-0.483
764	-0.478
764	-0.476
764	-0.481
765	-0.477
765	-0.481
766	-0.484
766	-0.483
767	-0.498
767	-0.491
768	-0.49
768	-0.48
768	-0.475
769	-0.476
769	-0.481
770	-0.494
770	-0.496
771	-0.492
771	-0.491
771	-0.493
772	-0.499
772	-0.52
773	-0.526
773	-0.527
774	-0.528
774	-0.514
775	-0.499
775	-0.498
775	-0.503
776	-0.512
776	-0.509
777	-0.509
777	-0.492
778	-0.497
778	-0.509
778	-0.508
779	-0.513
779	-0.525
780	-0.522
780	-0.528
781	-0.523
781	-0.512
781	-0.522
782	-0.543
782	-0.542
783	-0.535
783	-0.542
784	-0.548
784	-0.544
784	-0.565
785	-0.559
785	-0.568
786	-0.578
786	-0.571
787	-0.555
787	-0.566
788	-0.562
788	-0.559
788	-0.56
789	-0.558
789	-0.546
790	-0.545
790	-0.532
791	-0.536
791	-0.539
791	-0.534
792	-0.526
792	-0.531
793	-0.532
793	-0.52
794	-0.516
794	-0.51
794	-0.517
795	-0.534
795	-0.521
796	-0.523
796	-0.522
797	-0.517
797	-0.507
797	-0.499
798	-0.518
798	-0.523
799	-0.524
799	-0.511
800	-0.508
800	-0.513
801	-0.513
801	-0.52
801	-0.517
802	-0.517
802	-0.519
803	-0.511
803	-0.506
804	-0.515
804	-0.521
804	-0.506
805	-0.491
805	-0.481
806	-0.481
806	-0.478
807	-0.478
807	-0.477
807	-0.462
808	-0.458
808	-0.45
809	-0.448
809	-0.444
810	-0.449
810	-0.445
810	-0.44
811	-0.443
811	-0.44
812	-0.435
812	-0.436
813	-0.438
813	-0.439
813	-0.434
814	-0.437
814	-0.444
815	-0.435
815	-0.431
816	-0.428
816	-0.44
817	-0.452
817	-0.462
817	-0.469
818	-0.459
818	-0.457
819	-0.464
819	-0.463
820	-0.474
820	-0.472
820	-0.469
821	-0.466
821	-0.46
822	-0.458
822	-0.451
823	-0.466
823	-0.466
823	-0.463
824	-0.463
824	-0.471
825	-0.472
825	-0.473
826	-0.471
826	-0.469
826	-0.466
827	-0.466
827	-0.456
828	-0.457
828	-0.451
829	-0.446
829	-0.436
829	-0.433
830	-0.432
830	-0.416
831	-0.41
831	-0.403
832	-0.395
832	-0.39
832	-0.385
833	-0.386
833	-0.39
834	-0.389
834	-0.386
835	-0.38
835	-0.38
835	-0.379
836	-0.376
836	-0.373
837	-0.367
837	-0.359
838	-0.349
838	-0.334
839	-0.327
839	-0.319
839	-0.311
840	-0.313
840	-0.305
841	-0.297
841	-0.293
842	-0.287
842	-0.278
842	-0.278
843	-0.277
843	-0.275
844	-0.272
844	-0.264
845	-0.254
845	-0.248
845	-0.24
846	-0.232
846	-0.225
847	-0.219
847	-0.212
848	-0.203
848	-0.194
848	-0.188
849	-0.182
849	-0.177
850	-0.173
850	-0.168
851	-0.162
851	-0.154
851	-0.152
852	-0.142
852	-0.135
853	-0.131
853	-0.125
854	-0.12
854	-0.115
854	-0.106
855	-0.1
855	-0.097
856	-0.094
856	-0.09
857	-0.087
857	-0.085
857	-0.078
858	-0.073
858	-0.069
859	-0.064
859	-0.06
860	-0.055
860	-0.049
860	-0.044
861	-0.04
861	-0.035
862	-0.031
862	-0.028
863	-0.024
863	-0.021
863	-0.018
864	-0.016
864	-0.013
865	-0.01
865	-0.008
866	-0.005
866	-0.003
866	-0.002
867	0
867	0.002
868	0.004
868	0.006
869	0.008
869	0.01
869	0.011
870	0.013
870	0.014
871	0.015
871	0.016
872	0.016
872	0.016
872	0.016
873	0.017
873	0.017
874	0.017
874	0.016
875	0.016
875	0.015
875	0.015
876	0.015
876	0.014
877	0.014
877	0.013
878	0.012
878	0.012
878	0.011
879	0.01
879	0.009
880	0.009
880	0.009
881	0.009
881	0.009
881	0.009
882	0.008
882	0.008
883	0.008
883	0.008
884	0.008
884	0.008
884	0.009
885	0.009
885	0.008
886	0.008
886	0.007
887	0.007
887	0.006
887	0.006
888	0.005
888	0.005
889	0.004
889	0.003
890	0.002
890	0.002
890	0.001
891	0.001
891	0.001
892	0.002
892	0.002
893	0.003
893	0.003
893	0.003
894	0.004
894	0.005
895	0.005
895	0.005
895	0.006
896	0.006
896	0.006
897	0.006
897	0.006
898	0.005
898	0.005
898	0.005
899	0.005
899	0.005
900	0.004
900	0.004
901	0.003
901	0.003
901	0.002
902	0.002
902	0.001
903	0.001
903	-0
904	-0.001
904	-0.002
904	-0.002
905	-0.002
905	-0.003
906	-0.002
906	-0.002
907	-0.002
907	-0.002
907	-0.001
908	-0
908	0.001
909	0.002
909	0.002
910	0.002
910	0.003
910	0.003
911	0.003
911	0.004
912	0.005
912	0.006
913	0.007
913	0.008
913	0.008
914	0.009
914	0.01
915	0.01
915	0.01
916	0.01
916	0.01
916	0.009
917	0.008
917	0.007
918	0.006
918	0.006
918	0.005
919	0.005
919	0.005
920	0.005
920	0.005
921	0.005
921	0.005
921	0.006
922	0.006
922	0.006
923	0.006
923	0.006
924	0.006
924	0.006
924	0.006
925	0.006
925	0.005
926	0.005
926	0.004
927	0.004
927	0.004
927	0.004
928	0.004
928	0.004
929	0.004
929	0.005
930	0.006
930	0.007
930	0.008
931	0.009
931	0.01
932	0.012
932	0.013
933	0.014
933	0.015
933	0.015
934	0.016
934	0.016
935	0.016
935	0.016
935	0.016
936	0.015
936	0.014
937	0.013
937	0.012
938	0.012
938	0.011
938	0.01
939	0.009
939	0.008
940	0.008
940	0.008
941	0.007
941	0.008
941	0.008
942	0.008
942	0.009
943	0.009
943	0.009
944	0.009
944	0.009
944	0.01
945	0.01
945	0.01
946	0.009
946	0.009
946	0.008
947	0.008
947	0.007
948	0.007
948	0.006
949	0.006
949	0.006
949	0.006
950	0.007
950	0.007
951	0.008
951	0.008
952	0.009
952	0.01
952	0.011
953	0.012
953	0.012
954	0.012
954	0.012
955	0.012
955	0.012
955	0.011
956	0.011
956	0.01
957	0.009
957	0.008
957	0.008
958	0.007
958	0.007
959	0.006
959	0.006
960	0.006
960	0.006
960	0.006
961	0.006
961	0.006
962	0.006
962	0.007
963	0.007
963	0.008
963	0.009
964	0.009
964	0.01
965	0.01
965	0.011
966	0.012
966	0.013
966	0.013
967	0.014
967	0.014
968	0.014
968	0.014
968	0.014
969	0.014
969	0.014
970	0.013
970	0.012
971	0.012
971	0.011
971	0.011
972	0.011
972	0.01
973	0.01
973	0.01
974	0.01
974	0.011
974	0.011
975	0.012
975	0.012
976	0.012
976	0.013
976	0.012
977	0.012
977	0.012
978	0.011
978	0.011
979	0.01
979	0.009
979	0.008
980	0.007
980	0.006
981	0.005
981	0.005
982	0.004
982	0.004
982	0.003
983	0.003
983	0.002
984	0.002
984	0.002
984	0.002
985	0.003
985	0.003
986	0.004
986	0.004
987	0.004
987	0.004
987	0.004
988	0.005
988	0.005
989	0.004
989	0.004
990	0.003
990	0.002
990	0.002
991	0.001
991	0.001
992	0
992	0
992	-0
993	-0
993	-0
994	-0
994	-0
995	-0
995	-0
995	-0
996	-0
996	-0
997	-0.001
997	-0.001
997	-0.001
998	-0.001
998	-0
999	-0
999	-0.001
1000	-0.001
1000	-0.001
1000	-0.002
1001	-0.002
1001	-0.002
1002	-0.002
1002	-0.002
1003	-0.002
1003	-0.002
1003	-0.002
1004	-0.002
1004	-0.002
1005	-0.002
1005	-0.003
1005	-0.003
1006	-0.004
1006	-0.004
1007	-0.005
1007	-0.005
1008	-0.006
1008	-0.007
1008	-0.008
1009	-0.008
1009	-0.008
1010	-0.008
1010	-0.008
1010	-0.008
1011	-0.008
1011	-0.008
1012	-0.007
1012	-0.007
1013	-0.006
1013	-0.005
1013	-0.005
1014	-0.004
1014	-0.004
1015	-0.003
1015	-0.002
1016	-0.002
1016	-0.001
1016	-0.001
1017	-0.001
1017	-0
1018	0
1018	0
1018	0
1019	-0
1019	-0
1020	-0.001
1020	-0.001
1021	-0.002
1021	-0.002
1021	-0.003
1022	-0.004
1022	-0.005
1023	-0.005
1023	-0.006
1023	-0.006
1024	-0.007
1024	-0.008
1025	-0.009
1025	-0.009
1026	-0.01
1026	-0.01
1026	-0.011
1027	-0.012
1027	-0.012
1028	-0.012
1028	-0.012
1028	-0.013
1029	-0.013
1029	-0.013
1030	-0.014
1030	-0.014
1031	-0.015
1031	-0.015
1031	-0.015
1032	-0.015
1032	-0.015
1033	-0.016
1033	-0.016
1033	-0.016
1034	-0.016
1034	-0.016
1035	-0.016
1035	-0.016
1036	-0.016
1036	-0.016
1036	-0.015
1037	-0.015
1037	-0.014
1038	-0.013
1038	-0.013
1039	-0.012
1039	-0.011
1039	-0.01
1040	-0.009
1040	-0.008
1041	-0.008
1041	-0.007
1041	-0.007
1042	-0.007
1042	-0.008
1043	-0.008
1043	-0.008
1044	-0.008
1044	-0.009
1044	-0.009
1045	-0.01
1045	-0.01
1046	-0.011
1046	-0.011
1046	-0.011
1047	-0.011
1047	-0.012
1048	-0.012
1048	-0.013
1049	-0.013
1049	-0.014
1049	-0.015
1050	-0.015
1050	-0.016
1051	-0.017
1051	-0.018
1051	-0.018
1052	-0.019
1052	-0.019
1053	-0.019
1053	-0.019
1053	-0.019
1054	-0.019
1054	-0.019
1055	-0.018
1055	-0.018
1056	-0.018
1056	-0.019
1056	-0.019
1057	-0.02
1057	-0.02
1058	-0.02
1058	-0.02
1058	-0.02
1059	-0.02
1059	-0.02
1060	-0.02
1060	-0.02
1061	-0.02
1061	-0.02
1061	-0.019
1062	-0.019
1062	-0.019
1063	-0.019
1063	-0.019
1063	-0.019
1064	-0.019
1064	-0.019
1065	-0.018
1065	-0.018
1066	-0.018
1066	-0.019
1066	-0.018
1067	-0.019
1067	-0.019
1068	-0.019
1068	-0.02
1068	-0.02
1069	-0.021
1069	-0.022
1070	-0.022
1070	-0.023
1071	-0.023
1071	-0.023
1071	-0.023
1072	-0.023
1072	-0.023
1073	-0.022
1073	-0.022
1073	-0.021
1074	-0.021
1074	-0.021
1075	-0.021
1075	-0.021
1076	-0.021
1076	-0.022
1076	-0.022
1077	-0.022
1077	-0.023
1078	-0.024
1078	-0.024
1078	-0.025
1079	-0.026
1079	-0.026
1080	-0.027
1080	-0.028
1080	-0.028
1081	-0.029
1081	-0.029
1082	-0.03
1082	-0.031
1083	-0.031
1083	-0.031
1083	-0.032
1084	-0.032
1084	-0.032
1085	-0.033
1085	-0.033
1085	-0.033
1086	-0.034
1086	-0.034
1087	-0.034
1087	-0.034
1088	-0.035
1088	-0.036
1088	-0.036
1089	-0.037
1089	-0.038
1090	-0.038
1090	-0.038
1090	-0.039
1091	-0.04
1091	-0.04
1092	-0.04
1092	-0.04
1092	-0.041
1093	-0.04
1093	-0.04
1094	-0.04
1094	-0.04
1095	-0.041
1095	-0.041
1095	-0.041
1096	-0.041
1096	-0.042
1097	-0.042
1097	-0.042
1097	-0.043
1098	-0.044
1098	-0.045
1099	-0.046
1099	-0.046
1100	-0.048
1100	-0.049
1100	-0.051
1101	-0.053
1101	-0.054
1102	-0.056
1102	-0.057
1102	-0.058
1103	-0.059
1103	-0.061
1104	-0.063
1104	-0.064
1104	-0.065
1105	-0.066
1105	-0.066
1106	-0.069
1106	-0.07
1107	-0.073
1107	-0.075
1107	-0.077
1108	-0.078
1108	-0.079
1109	-0.081
1109	-0.082
1109	-0.085
1110	-0.086
1110	-0.086
1111	-0.091
1111	-0.083
