Data from 3.5A_17C_Absorbance__250__00252.txt Node

Date: Tue Jun 20 15:05:19 CEST 2023
User: Marek
Spectrometer: MAYP115816
Trigger mode: 0
Integration Time (sec): 2.200000E-1
Scans to average: 10
Electric dark correction enabled: true
Nonlinearity correction enabled: true
Boxcar width: 5
XAxis mode: Wavelengths
Number of Pixels in Spectrum: 2068
>>>>>Begin Spectral Data<<<<<
199	-0.6
199	-0.58
200	-0.534
200	-0.479
201	-0.449
201	-0.447
202	-0.429
202	-0.422
203	-0.419
203	-0.415
204	-0.395
204	-0.38
205	-0.359
205	-0.352
205	-0.362
206	-0.366
206	-0.361
207	-0.354
207	-0.361
208	-0.363
208	-0.366
209	-0.368
209	-0.372
210	-0.383
210	-0.39
211	-0.386
211	-0.392
212	-0.398
212	-0.407
213	-0.403
213	-0.4
213	-0.397
214	-0.406
214	-0.409
215	-0.405
215	-0.409
216	-0.415
216	-0.419
217	-0.415
217	-0.415
218	-0.425
218	-0.426
219	-0.432
219	-0.433
220	-0.436
220	-0.443
221	-0.444
221	-0.445
221	-0.435
222	-0.438
222	-0.435
223	-0.43
223	-0.431
224	-0.43
224	-0.427
225	-0.424
225	-0.426
226	-0.425
226	-0.426
227	-0.434
227	-0.441
228	-0.447
228	-0.457
229	-0.46
229	-0.46
229	-0.46
230	-0.458
230	-0.458
231	-0.453
231	-0.448
232	-0.452
232	-0.448
233	-0.445
233	-0.433
234	-0.436
234	-0.429
235	-0.433
235	-0.442
236	-0.446
236	-0.451
236	-0.45
237	-0.446
237	-0.448
238	-0.45
238	-0.452
239	-0.451
239	-0.462
240	-0.455
240	-0.451
241	-0.448
241	-0.448
242	-0.454
242	-0.463
243	-0.46
243	-0.465
243	-0.468
244	-0.468
244	-0.466
245	-0.466
245	-0.469
246	-0.478
246	-0.482
247	-0.488
247	-0.473
248	-0.471
248	-0.47
249	-0.476
249	-0.477
250	-0.476
250	-0.487
250	-0.487
251	-0.485
251	-0.483
252	-0.484
252	-0.498
253	-0.495
253	-0.508
254	-0.511
254	-0.511
255	-0.522
255	-0.52
256	-0.518
256	-0.531
257	-0.539
257	-0.536
258	-0.534
258	-0.541
258	-0.537
259	-0.532
259	-0.549
260	-0.547
260	-0.537
261	-0.55
261	-0.537
262	-0.541
262	-0.54
263	-0.532
263	-0.535
264	-0.542
264	-0.541
265	-0.532
265	-0.535
265	-0.541
266	-0.531
266	-0.532
267	-0.533
267	-0.547
268	-0.553
268	-0.55
269	-0.544
269	-0.557
270	-0.561
270	-0.559
271	-0.572
271	-0.583
272	-0.583
272	-0.582
272	-0.576
273	-0.585
273	-0.596
274	-0.586
274	-0.584
275	-0.581
275	-0.567
276	-0.57
276	-0.574
277	-0.574
277	-0.573
278	-0.578
278	-0.58
278	-0.57
279	-0.577
279	-0.585
280	-0.585
280	-0.598
281	-0.596
281	-0.591
282	-0.596
282	-0.593
283	-0.586
283	-0.598
284	-0.61
284	-0.624
285	-0.605
285	-0.613
285	-0.605
286	-0.607
286	-0.622
287	-0.619
287	-0.613
288	-0.611
288	-0.597
289	-0.596
289	-0.601
290	-0.611
290	-0.602
291	-0.605
291	-0.606
292	-0.587
292	-0.586
292	-0.591
293	-0.58
293	-0.574
294	-0.575
294	-0.562
295	-0.546
295	-0.556
296	-0.566
296	-0.558
297	-0.548
297	-0.548
298	-0.549
298	-0.565
298	-0.567
299	-0.55
299	-0.542
300	-0.539
300	-0.519
301	-0.501
301	-0.505
302	-0.512
302	-0.498
303	-0.49
303	-0.479
304	-0.463
304	-0.464
305	-0.457
305	-0.463
305	-0.479
306	-0.466
306	-0.466
307	-0.459
307	-0.472
308	-0.475
308	-0.469
309	-0.473
309	-0.469
310	-0.467
310	-0.464
311	-0.451
311	-0.468
311	-0.455
312	-0.45
312	-0.439
313	-0.429
313	-0.434
314	-0.438
314	-0.438
315	-0.439
315	-0.432
316	-0.426
316	-0.417
317	-0.411
317	-0.411
318	-0.404
318	-0.401
318	-0.389
319	-0.378
319	-0.368
320	-0.363
320	-0.362
321	-0.36
321	-0.358
322	-0.352
322	-0.345
323	-0.343
323	-0.337
324	-0.335
324	-0.326
324	-0.315
325	-0.301
325	-0.283
326	-0.275
326	-0.251
327	-0.238
327	-0.216
328	-0.187
328	-0.163
329	-0.135
329	-0.109
330	-0.085
330	-0.051
330	-0.019
331	0.015
331	0.044
332	0.074
332	0.103
333	0.128
333	0.154
334	0.178
334	0.199
335	0.221
335	0.24
336	0.258
336	0.275
336	0.288
337	0.302
337	0.316
338	0.326
338	0.335
339	0.346
339	0.354
340	0.36
340	0.366
341	0.371
341	0.375
342	0.38
342	0.384
342	0.387
343	0.39
343	0.394
344	0.396
344	0.398
345	0.4
345	0.401
346	0.403
346	0.404
347	0.405
347	0.407
348	0.407
348	0.408
348	0.408
349	0.409
349	0.41
350	0.41
350	0.41
351	0.411
351	0.411
352	0.41
352	0.41
353	0.41
353	0.411
354	0.411
354	0.41
354	0.41
355	0.41
355	0.41
356	0.41
356	0.41
357	0.41
357	0.41
358	0.41
358	0.41
359	0.41
359	0.41
360	0.41
360	0.41
360	0.41
361	0.41
361	0.409
362	0.409
362	0.409
363	0.409
363	0.408
364	0.408
364	0.408
365	0.408
365	0.407
366	0.407
366	0.407
366	0.406
367	0.406
367	0.406
368	0.405
368	0.405
369	0.404
369	0.404
370	0.403
370	0.403
371	0.402
371	0.402
372	0.402
372	0.401
372	0.401
373	0.401
373	0.4
374	0.4
374	0.4
375	0.399
375	0.399
376	0.398
376	0.398
377	0.398
377	0.397
378	0.396
378	0.396
378	0.396
379	0.395
379	0.395
380	0.394
380	0.394
381	0.394
381	0.393
382	0.393
382	0.393
383	0.392
383	0.392
383	0.391
384	0.391
384	0.39
385	0.39
385	0.389
386	0.389
386	0.388
387	0.388
387	0.387
388	0.387
388	0.386
389	0.386
389	0.386
389	0.386
390	0.385
390	0.385
391	0.384
391	0.384
392	0.384
392	0.383
393	0.383
393	0.382
394	0.382
394	0.381
394	0.381
395	0.381
395	0.38
396	0.379
396	0.379
397	0.378
397	0.378
398	0.377
398	0.377
399	0.376
399	0.376
400	0.375
400	0.375
400	0.375
401	0.374
401	0.374
402	0.374
402	0.373
403	0.373
403	0.372
404	0.372
404	0.371
405	0.371
405	0.37
405	0.37
406	0.369
406	0.369
407	0.368
407	0.368
408	0.367
408	0.367
409	0.367
409	0.367
410	0.367
410	0.367
411	0.366
411	0.366
411	0.366
412	0.365
412	0.365
413	0.365
413	0.364
414	0.364
414	0.364
415	0.363
415	0.363
416	0.363
416	0.362
416	0.362
417	0.362
417	0.361
418	0.361
418	0.361
419	0.361
419	0.361
420	0.361
420	0.361
421	0.36
421	0.36
421	0.36
422	0.36
422	0.36
423	0.36
423	0.36
424	0.359
424	0.359
425	0.359
425	0.359
426	0.359
426	0.359
427	0.359
427	0.358
427	0.358
428	0.358
428	0.358
429	0.357
429	0.357
430	0.356
430	0.356
431	0.356
431	0.356
432	0.356
432	0.355
432	0.355
433	0.355
433	0.355
434	0.355
434	0.356
435	0.356
435	0.356
436	0.356
436	0.356
437	0.356
437	0.356
437	0.356
438	0.356
438	0.356
439	0.356
439	0.356
440	0.355
440	0.355
441	0.355
441	0.355
442	0.355
442	0.355
442	0.355
443	0.355
443	0.355
444	0.355
444	0.355
445	0.355
445	0.355
446	0.355
446	0.355
447	0.355
447	0.355
447	0.355
448	0.356
448	0.356
449	0.356
449	0.356
450	0.356
450	0.356
451	0.356
451	0.357
452	0.357
452	0.357
452	0.357
453	0.357
453	0.357
454	0.357
454	0.357
455	0.358
455	0.358
456	0.358
456	0.359
457	0.359
457	0.359
458	0.359
458	0.359
458	0.359
459	0.36
459	0.359
460	0.359
460	0.36
461	0.36
461	0.361
462	0.361
462	0.362
463	0.363
463	0.364
463	0.365
464	0.365
464	0.366
465	0.367
465	0.367
466	0.368
466	0.368
467	0.369
467	0.369
467	0.369
468	0.37
468	0.37
469	0.371
469	0.372
470	0.373
470	0.373
471	0.374
471	0.375
472	0.376
472	0.377
472	0.378
473	0.379
473	0.38
474	0.381
474	0.382
475	0.383
475	0.385
476	0.385
476	0.386
477	0.387
477	0.388
477	0.39
478	0.391
478	0.392
479	0.393
479	0.395
480	0.397
480	0.398
481	0.4
481	0.401
482	0.403
482	0.405
482	0.407
483	0.409
483	0.412
484	0.413
484	0.415
485	0.417
485	0.419
486	0.421
486	0.423
487	0.425
487	0.426
487	0.428
488	0.43
488	0.432
489	0.434
489	0.437
490	0.439
490	0.442
491	0.444
491	0.447
492	0.45
492	0.452
492	0.455
493	0.457
493	0.46
494	0.463
494	0.466
495	0.469
495	0.472
496	0.475
496	0.478
496	0.481
497	0.484
497	0.488
498	0.491
498	0.495
499	0.498
499	0.502
500	0.506
500	0.509
501	0.513
501	0.516
501	0.519
502	0.522
502	0.526
503	0.529
503	0.533
504	0.536
504	0.54
505	0.544
505	0.547
506	0.551
506	0.555
506	0.559
507	0.563
507	0.568
508	0.572
508	0.576
509	0.58
509	0.584
510	0.588
510	0.592
511	0.595
511	0.599
511	0.603
512	0.606
512	0.609
513	0.612
513	0.616
514	0.619
514	0.622
515	0.625
515	0.628
515	0.631
516	0.634
516	0.637
517	0.639
517	0.642
518	0.644
518	0.646
519	0.648
519	0.65
520	0.653
520	0.655
520	0.657
521	0.659
521	0.66
522	0.662
522	0.663
523	0.665
523	0.666
524	0.667
524	0.668
524	0.669
525	0.67
525	0.671
526	0.672
526	0.672
527	0.673
527	0.673
528	0.673
528	0.672
529	0.671
529	0.67
529	0.67
530	0.669
530	0.668
531	0.666
531	0.665
532	0.663
532	0.662
533	0.661
533	0.659
533	0.657
534	0.655
534	0.652
535	0.65
535	0.647
536	0.645
536	0.642
537	0.639
537	0.636
538	0.633
538	0.63
538	0.626
539	0.623
539	0.62
540	0.616
540	0.612
541	0.608
541	0.604
542	0.6
542	0.596
542	0.591
543	0.587
543	0.582
544	0.578
544	0.574
545	0.569
545	0.564
546	0.559
546	0.554
547	0.549
547	0.543
547	0.538
548	0.534
548	0.529
549	0.524
549	0.519
550	0.514
550	0.509
551	0.503
551	0.497
551	0.492
552	0.487
552	0.482
553	0.477
553	0.471
554	0.466
554	0.46
555	0.455
555	0.449
556	0.444
556	0.438
556	0.433
557	0.428
557	0.422
558	0.417
558	0.412
559	0.406
559	0.401
560	0.396
560	0.391
560	0.387
561	0.383
561	0.379
562	0.375
562	0.37
563	0.366
563	0.362
564	0.358
564	0.354
564	0.35
565	0.345
565	0.341
566	0.337
566	0.332
567	0.328
567	0.324
568	0.319
568	0.315
568	0.31
569	0.305
569	0.301
570	0.296
570	0.291
571	0.288
571	0.284
572	0.279
572	0.275
573	0.271
573	0.267
573	0.264
574	0.261
574	0.258
575	0.255
575	0.252
576	0.249
576	0.245
577	0.242
577	0.239
577	0.237
578	0.234
578	0.232
579	0.23
579	0.228
580	0.225
580	0.221
581	0.218
581	0.215
581	0.213
582	0.211
582	0.209
583	0.206
583	0.203
584	0.199
584	0.195
585	0.192
585	0.19
585	0.187
586	0.184
586	0.182
587	0.179
587	0.176
588	0.174
588	0.172
589	0.17
589	0.169
590	0.167
590	0.165
590	0.165
591	0.163
591	0.161
592	0.159
592	0.157
593	0.156
593	0.154
594	0.152
594	0.15
594	0.149
595	0.148
595	0.146
596	0.144
596	0.143
597	0.142
597	0.141
598	0.139
598	0.138
598	0.136
599	0.135
599	0.133
600	0.132
600	0.131
601	0.13
601	0.129
602	0.127
602	0.126
602	0.125
603	0.124
603	0.123
604	0.122
604	0.121
605	0.12
605	0.119
606	0.117
606	0.116
606	0.114
607	0.113
607	0.112
608	0.111
608	0.109
609	0.108
609	0.107
610	0.106
610	0.104
610	0.103
611	0.102
611	0.101
612	0.1
612	0.1
613	0.1
613	0.099
614	0.098
614	0.096
614	0.096
615	0.095
615	0.094
616	0.093
616	0.092
617	0.092
617	0.09
618	0.089
618	0.089
618	0.088
619	0.088
619	0.088
620	0.088
620	0.087
621	0.086
621	0.086
622	0.084
622	0.084
622	0.083
623	0.082
623	0.081
624	0.081
624	0.08
625	0.079
625	0.078
626	0.078
626	0.077
626	0.077
627	0.076
627	0.075
628	0.075
628	0.074
629	0.073
629	0.072
630	0.071
630	0.07
630	0.07
631	0.069
631	0.068
632	0.067
632	0.067
633	0.067
633	0.066
634	0.066
634	0.065
634	0.064
635	0.063
635	0.062
636	0.061
636	0.06
637	0.059
637	0.058
638	0.057
638	0.056
638	0.055
639	0.054
639	0.053
640	0.052
640	0.051
641	0.05
641	0.049
642	0.048
642	0.047
642	0.046
643	0.045
643	0.044
644	0.043
644	0.043
645	0.042
645	0.04
646	0.039
646	0.037
646	0.035
647	0.032
647	0.03
648	0.027
648	0.025
649	0.022
649	0.019
650	0.017
650	0.014
650	0.011
651	0.008
651	0.004
652	-0.001
652	-0.006
653	-0.011
653	-0.015
653	-0.012
654	-0.006
654	-0.008
655	-0.011
655	-0.013
656	-0.016
656	-0.019
657	-0.022
657	-0.024
657	-0.027
658	-0.03
658	-0.046
659	-0.085
659	-0.122
660	-0.141
660	-0.155
661	-0.17
661	-0.185
661	-0.201
662	-0.215
662	-0.228
663	-0.243
663	-0.262
664	-0.277
664	-0.297
665	-0.317
665	-0.338
665	-0.358
666	-0.381
666	-0.409
667	-0.435
667	-0.468
668	-0.501
668	-0.547
669	-0.591
669	-0.638
669	-0.694
670	-0.757
670	-0.881
671	-1.161
671	-1.559
672	-1.963
672	-2.261
672	-2.442
673	-2.525
673	-2.547
674	-2.564
674	-2.573
675	-2.588
675	-2.593
676	-2.591
676	-2.561
676	-2.477
677	-2.291
677	-1.948
678	-1.384
678	-1.007
679	-0.88
679	-0.813
680	-0.764
680	-0.73
680	-0.703
681	-0.69
681	-0.667
682	-0.653
682	-0.631
683	-0.609
683	-0.606
684	-0.597
684	-0.595
684	-0.589
685	-0.583
685	-0.588
686	-0.576
686	-0.573
687	-0.573
687	-0.571
687	-0.578
688	-0.57
688	-0.571
689	-0.584
689	-0.586
690	-0.579
690	-0.575
691	-0.577
691	-0.585
691	-0.588
692	-0.593
692	-0.595
693	-0.604
693	-0.616
694	-0.6
694	-0.6
695	-0.604
695	-0.598
695	-0.606
696	-0.614
696	-0.608
697	-0.602
697	-0.601
698	-0.597
698	-0.593
698	-0.605
699	-0.604
699	-0.607
700	-0.628
700	-0.623
701	-0.612
701	-0.608
702	-0.611
702	-0.607
702	-0.608
703	-0.599
703	-0.589
704	-0.599
704	-0.603
705	-0.592
705	-0.592
705	-0.589
706	-0.584
706	-0.582
707	-0.596
707	-0.602
708	-0.602
708	-0.6
709	-0.602
709	-0.6
709	-0.598
710	-0.606
710	-0.607
711	-0.608
711	-0.609
712	-0.603
712	-0.6
713	-0.603
713	-0.604
713	-0.585
714	-0.587
714	-0.59
715	-0.582
715	-0.591
716	-0.607
716	-0.616
716	-0.615
717	-0.62
717	-0.614
718	-0.608
718	-0.611
719	-0.607
719	-0.6
720	-0.596
720	-0.591
720	-0.583
721	-0.575
721	-0.578
722	-0.576
722	-0.575
723	-0.593
723	-0.605
723	-0.612
724	-0.613
724	-0.616
725	-0.612
725	-0.619
726	-0.622
726	-0.616
727	-0.62
727	-0.625
727	-0.615
728	-0.601
728	-0.6
729	-0.603
729	-0.609
730	-0.612
730	-0.6
730	-0.605
731	-0.605
731	-0.605
732	-0.607
732	-0.6
733	-0.616
733	-0.622
734	-0.627
734	-0.618
734	-0.6
735	-0.595
735	-0.593
736	-0.593
736	-0.588
737	-0.586
737	-0.578
737	-0.57
738	-0.556
738	-0.544
739	-0.546
739	-0.547
740	-0.558
740	-0.557
741	-0.567
741	-0.576
741	-0.585
742	-0.594
742	-0.61
743	-0.617
743	-0.622
744	-0.626
744	-0.634
744	-0.629
745	-0.635
745	-0.624
746	-0.621
746	-0.615
747	-0.618
747	-0.61
748	-0.611
748	-0.616
748	-0.617
749	-0.611
749	-0.618
750	-0.611
750	-0.611
751	-0.612
751	-0.607
751	-0.617
752	-0.62
752	-0.624
753	-0.624
753	-0.618
754	-0.636
754	-0.636
754	-0.644
755	-0.643
755	-0.635
756	-0.641
756	-0.626
757	-0.619
757	-0.607
758	-0.609
758	-0.61
758	-0.605
759	-0.61
759	-0.61
760	-0.61
760	-0.612
761	-0.604
761	-0.608
761	-0.608
762	-0.615
762	-0.611
763	-0.609
763	-0.614
764	-0.611
764	-0.606
764	-0.61
765	-0.609
765	-0.616
766	-0.62
766	-0.622
767	-0.637
767	-0.634
768	-0.633
768	-0.626
768	-0.621
769	-0.623
769	-0.632
770	-0.643
770	-0.644
771	-0.641
771	-0.641
771	-0.644
772	-0.645
772	-0.664
773	-0.665
773	-0.668
774	-0.668
774	-0.652
775	-0.639
775	-0.639
775	-0.642
776	-0.649
776	-0.647
777	-0.649
777	-0.634
778	-0.642
778	-0.647
778	-0.645
779	-0.651
779	-0.666
780	-0.661
780	-0.673
781	-0.662
781	-0.65
781	-0.661
782	-0.681
782	-0.685
783	-0.684
783	-0.693
784	-0.694
784	-0.691
784	-0.71
785	-0.699
785	-0.711
786	-0.717
786	-0.712
787	-0.702
787	-0.706
788	-0.701
788	-0.694
788	-0.697
789	-0.693
789	-0.681
790	-0.681
790	-0.671
791	-0.675
791	-0.67
791	-0.665
792	-0.662
792	-0.664
793	-0.668
793	-0.656
794	-0.653
794	-0.648
794	-0.656
795	-0.675
795	-0.666
796	-0.671
796	-0.667
797	-0.66
797	-0.651
797	-0.645
798	-0.668
798	-0.672
799	-0.673
799	-0.662
800	-0.657
800	-0.663
801	-0.66
801	-0.662
801	-0.66
802	-0.66
802	-0.658
803	-0.65
803	-0.641
804	-0.647
804	-0.652
804	-0.636
805	-0.62
805	-0.612
806	-0.616
806	-0.613
807	-0.616
807	-0.617
807	-0.602
808	-0.601
808	-0.596
809	-0.592
809	-0.594
810	-0.595
810	-0.593
810	-0.587
811	-0.588
811	-0.577
812	-0.57
812	-0.571
813	-0.572
813	-0.573
813	-0.569
814	-0.57
814	-0.574
815	-0.566
815	-0.563
816	-0.56
816	-0.578
817	-0.589
817	-0.594
817	-0.602
818	-0.595
818	-0.591
819	-0.598
819	-0.597
820	-0.609
820	-0.609
820	-0.609
821	-0.602
821	-0.599
822	-0.598
822	-0.589
823	-0.6
823	-0.6
823	-0.595
824	-0.595
824	-0.605
825	-0.603
825	-0.6
826	-0.597
826	-0.594
826	-0.592
827	-0.593
827	-0.584
828	-0.584
828	-0.579
829	-0.573
829	-0.559
829	-0.558
830	-0.557
830	-0.542
831	-0.536
831	-0.527
832	-0.52
832	-0.517
832	-0.511
833	-0.509
833	-0.518
834	-0.513
834	-0.51
835	-0.505
835	-0.508
835	-0.503
836	-0.5
836	-0.495
837	-0.484
837	-0.477
838	-0.467
838	-0.446
839	-0.442
839	-0.432
839	-0.423
840	-0.419
840	-0.409
841	-0.4
841	-0.395
842	-0.388
842	-0.379
842	-0.378
843	-0.377
843	-0.373
844	-0.371
844	-0.362
845	-0.354
845	-0.348
845	-0.339
846	-0.329
846	-0.322
847	-0.313
847	-0.302
848	-0.291
848	-0.277
848	-0.265
849	-0.255
849	-0.245
850	-0.238
850	-0.232
851	-0.224
851	-0.212
851	-0.205
852	-0.195
852	-0.187
853	-0.182
853	-0.174
854	-0.168
854	-0.16
854	-0.152
855	-0.145
855	-0.139
856	-0.134
856	-0.13
857	-0.125
857	-0.12
857	-0.11
858	-0.104
858	-0.099
859	-0.093
859	-0.085
860	-0.079
860	-0.069
860	-0.063
861	-0.057
861	-0.051
862	-0.047
862	-0.043
863	-0.038
863	-0.033
863	-0.029
864	-0.026
864	-0.022
865	-0.019
865	-0.015
866	-0.012
866	-0.008
866	-0.006
867	-0.002
867	0
868	0.003
868	0.005
869	0.008
869	0.01
869	0.012
870	0.014
870	0.016
871	0.017
871	0.018
872	0.018
872	0.018
872	0.019
873	0.019
873	0.018
874	0.018
874	0.017
875	0.016
875	0.016
875	0.015
876	0.015
876	0.014
877	0.013
877	0.012
878	0.012
878	0.011
878	0.01
879	0.009
879	0.009
880	0.008
880	0.008
881	0.007
881	0.007
881	0.007
882	0.007
882	0.006
883	0.006
883	0.006
884	0.006
884	0.006
884	0.006
885	0.005
885	0.005
886	0.004
886	0.002
887	0.002
887	0.001
887	-0
888	-0.001
888	-0.002
889	-0.002
889	-0.003
890	-0.004
890	-0.004
890	-0.004
891	-0.003
891	-0.003
892	-0.002
892	-0.002
893	-0.001
893	-0.001
893	-0.001
894	-0.001
894	-0
895	0
895	0
895	0.001
896	0.002
896	0.002
897	0.002
897	0.002
898	0.002
898	0.003
898	0.003
899	0.004
899	0.004
900	0.004
900	0.004
901	0.004
901	0.003
901	0.003
902	0.002
902	0.003
903	0.002
903	0.002
904	0.001
904	0
904	-0
905	-0
905	-0
906	0
906	0.001
907	0.002
907	0.002
907	0.002
908	0.003
908	0.004
909	0.005
909	0.005
910	0.006
910	0.006
910	0.006
911	0.007
911	0.008
912	0.009
912	0.011
913	0.012
913	0.013
913	0.013
914	0.014
914	0.015
915	0.015
915	0.015
916	0.014
916	0.014
916	0.013
917	0.012
917	0.011
918	0.01
918	0.01
918	0.009
919	0.009
919	0.009
920	0.008
920	0.008
921	0.008
921	0.009
921	0.009
922	0.009
922	0.009
923	0.009
923	0.009
924	0.009
924	0.009
924	0.008
925	0.008
925	0.008
926	0.007
926	0.007
927	0.007
927	0.007
927	0.007
928	0.007
928	0.007
929	0.008
929	0.009
930	0.009
930	0.011
930	0.012
931	0.013
931	0.014
932	0.015
932	0.016
933	0.017
933	0.018
933	0.018
934	0.019
934	0.019
935	0.019
935	0.018
935	0.017
936	0.016
936	0.015
937	0.014
937	0.012
938	0.011
938	0.01
938	0.008
939	0.007
939	0.007
940	0.006
940	0.006
941	0.005
941	0.005
941	0.005
942	0.005
942	0.005
943	0.006
943	0.006
944	0.006
944	0.006
944	0.006
945	0.006
945	0.006
946	0.006
946	0.005
946	0.004
947	0.003
947	0.002
948	0.001
948	0.001
949	0
949	-0
949	-0
950	-0
950	0
951	0.001
951	0.001
952	0.002
952	0.003
952	0.003
953	0.004
953	0.004
954	0.005
954	0.005
955	0.005
955	0.005
955	0.005
956	0.005
956	0.005
957	0.004
957	0.003
957	0.003
958	0.002
958	0.002
959	0.002
959	0.001
960	0.001
960	0.001
960	0.001
961	0.001
961	0.001
962	0.001
962	0.002
963	0.002
963	0.002
963	0.002
964	0.003
964	0.003
965	0.004
965	0.004
966	0.005
966	0.005
966	0.006
967	0.006
967	0.006
968	0.007
968	0.007
968	0.007
969	0.006
969	0.006
970	0.005
970	0.004
971	0.003
971	0.002
971	0.002
972	0.001
972	0.001
973	0.001
973	0.001
974	0.001
974	0.002
974	0.003
975	0.004
975	0.005
976	0.006
976	0.007
976	0.007
977	0.008
977	0.007
978	0.007
978	0.007
979	0.006
979	0.006
979	0.005
980	0.005
980	0.004
981	0.003
981	0.003
982	0.003
982	0.003
982	0.003
983	0.003
983	0.003
984	0.003
984	0.002
984	0.002
985	0.003
985	0.003
986	0.003
986	0.003
987	0.003
987	0.003
987	0.003
988	0.003
988	0.003
989	0.002
989	0.002
990	0.001
990	0
990	0
991	-0
991	-0
992	-0.001
992	-0.001
992	-0.001
993	-0.001
993	-0.002
994	-0.002
994	-0.002
995	-0.002
995	-0.003
995	-0.003
996	-0.003
996	-0.004
997	-0.004
997	-0.004
997	-0.004
998	-0.003
998	-0.003
999	-0.002
999	-0.002
1000	-0.002
1000	-0.002
1000	-0.002
1001	-0.001
1001	-0.001
1002	-0
1002	-0
1003	-0
1003	-0.001
1003	-0.001
1004	-0.002
1004	-0.002
1005	-0.003
1005	-0.004
1005	-0.005
1006	-0.005
1006	-0.006
1007	-0.007
1007	-0.008
1008	-0.009
1008	-0.009
1008	-0.01
1009	-0.01
1009	-0.01
1010	-0.009
1010	-0.009
1010	-0.008
1011	-0.008
1011	-0.008
1012	-0.007
1012	-0.006
1013	-0.005
1013	-0.005
1013	-0.004
1014	-0.004
1014	-0.003
1015	-0.003
1015	-0.002
1016	-0.002
1016	-0.001
1016	-0.001
1017	-0.001
1017	-0.001
1018	-0
1018	-0
1018	-0
1019	-0
1019	-0.001
1020	-0.001
1020	-0.002
1021	-0.002
1021	-0.002
1021	-0.003
1022	-0.004
1022	-0.005
1023	-0.005
1023	-0.006
1023	-0.007
1024	-0.009
1024	-0.01
1025	-0.01
1025	-0.011
1026	-0.012
1026	-0.012
1026	-0.013
1027	-0.013
1027	-0.014
1028	-0.014
1028	-0.014
1028	-0.014
1029	-0.014
1029	-0.014
1030	-0.014
1030	-0.015
1031	-0.015
1031	-0.014
1031	-0.014
1032	-0.014
1032	-0.015
1033	-0.015
1033	-0.015
1033	-0.015
1034	-0.015
1034	-0.015
1035	-0.015
1035	-0.015
1036	-0.015
1036	-0.015
1036	-0.014
1037	-0.014
1037	-0.013
1038	-0.012
1038	-0.011
1039	-0.011
1039	-0.01
1039	-0.009
1040	-0.009
1040	-0.008
1041	-0.008
1041	-0.008
1041	-0.009
1042	-0.009
1042	-0.01
1043	-0.011
1043	-0.012
1044	-0.013
1044	-0.014
1044	-0.015
1045	-0.016
1045	-0.017
1046	-0.017
1046	-0.018
1046	-0.018
1047	-0.018
1047	-0.018
1048	-0.018
1048	-0.018
1049	-0.018
1049	-0.019
1049	-0.019
1050	-0.02
1050	-0.02
1051	-0.021
1051	-0.022
1051	-0.022
1052	-0.023
1052	-0.023
1053	-0.024
1053	-0.024
1053	-0.023
1054	-0.023
1054	-0.023
1055	-0.023
1055	-0.022
1056	-0.023
1056	-0.023
1056	-0.023
1057	-0.024
1057	-0.024
1058	-0.025
1058	-0.025
1058	-0.025
1059	-0.025
1059	-0.025
1060	-0.025
1060	-0.025
1061	-0.025
1061	-0.024
1061	-0.023
1062	-0.023
1062	-0.023
1063	-0.023
1063	-0.023
1063	-0.023
1064	-0.023
1064	-0.023
1065	-0.023
1065	-0.024
1066	-0.024
1066	-0.024
1066	-0.024
1067	-0.025
1067	-0.025
1068	-0.025
1068	-0.026
1068	-0.026
1069	-0.027
1069	-0.028
1070	-0.028
1070	-0.029
1071	-0.029
1071	-0.029
1071	-0.029
1072	-0.03
1072	-0.029
1073	-0.028
1073	-0.028
1073	-0.028
1074	-0.028
1074	-0.027
1075	-0.027
1075	-0.027
1076	-0.028
1076	-0.028
1076	-0.028
1077	-0.029
1077	-0.03
1078	-0.03
1078	-0.031
1078	-0.032
1079	-0.032
1079	-0.032
1080	-0.033
1080	-0.033
1080	-0.034
1081	-0.035
1081	-0.034
1082	-0.034
1082	-0.035
1083	-0.035
1083	-0.036
1083	-0.036
1084	-0.037
1084	-0.037
1085	-0.038
1085	-0.038
1085	-0.038
1086	-0.038
1086	-0.039
1087	-0.04
1087	-0.04
1088	-0.041
1088	-0.042
1088	-0.042
1089	-0.043
1089	-0.043
1090	-0.044
1090	-0.045
1090	-0.046
1091	-0.047
1091	-0.047
1092	-0.047
1092	-0.047
1092	-0.047
1093	-0.048
1093	-0.048
1094	-0.049
1094	-0.049
1095	-0.05
1095	-0.05
1095	-0.05
1096	-0.051
1096	-0.053
1097	-0.054
1097	-0.055
1097	-0.055
1098	-0.056
1098	-0.058
1099	-0.059
1099	-0.06
1100	-0.061
1100	-0.063
1100	-0.065
1101	-0.067
1101	-0.068
1102	-0.07
1102	-0.072
1102	-0.074
1103	-0.075
1103	-0.077
1104	-0.079
1104	-0.082
1104	-0.083
1105	-0.083
1105	-0.085
1106	-0.088
1106	-0.09
1107	-0.094
1107	-0.097
1107	-0.1
1108	-0.101
1108	-0.102
1109	-0.104
1109	-0.107
1109	-0.11
1110	-0.111
1110	-0.114
1111	-0.119
1111	-0.115
