Data from 40to5_hyst_3.5A_10sec_80mins_Absorbance__19__00641.txt Node

Date: Mon Jun 26 10:59:28 CEST 2023
User: Marek
Spectrometer: MAYP115816
Trigger mode: 0
Integration Time (sec): 2.500000E-1
Scans to average: 10
Electric dark correction enabled: true
Nonlinearity correction enabled: true
Boxcar width: 5
XAxis mode: Wavelengths
Number of Pixels in Spectrum: 2068
>>>>>Begin Spectral Data<<<<<
199	-0.784
199	-0.755
200	-0.725
200	-0.67
201	-0.63
201	-0.601
202	-0.58
202	-0.585
203	-0.575
203	-0.566
204	-0.55
204	-0.531
205	-0.516
205	-0.505
205	-0.506
206	-0.507
206	-0.519
207	-0.519
207	-0.514
208	-0.521
208	-0.525
209	-0.528
209	-0.539
210	-0.546
210	-0.547
211	-0.551
211	-0.558
212	-0.556
212	-0.56
213	-0.564
213	-0.564
213	-0.565
214	-0.566
214	-0.567
215	-0.563
215	-0.566
216	-0.565
216	-0.569
217	-0.567
217	-0.567
218	-0.567
218	-0.567
219	-0.569
219	-0.571
220	-0.573
220	-0.578
221	-0.587
221	-0.595
221	-0.593
222	-0.6
222	-0.599
223	-0.602
223	-0.598
224	-0.605
224	-0.598
225	-0.599
225	-0.601
226	-0.599
226	-0.595
227	-0.594
227	-0.601
228	-0.596
228	-0.598
229	-0.601
229	-0.596
229	-0.598
230	-0.601
230	-0.596
231	-0.585
231	-0.574
232	-0.573
232	-0.564
233	-0.575
233	-0.568
234	-0.573
234	-0.571
235	-0.572
235	-0.568
236	-0.573
236	-0.579
236	-0.588
237	-0.587
237	-0.585
238	-0.578
238	-0.583
239	-0.576
239	-0.578
240	-0.577
240	-0.575
241	-0.572
241	-0.577
242	-0.583
242	-0.589
243	-0.596
243	-0.602
243	-0.603
244	-0.606
244	-0.607
245	-0.621
245	-0.627
246	-0.637
246	-0.633
247	-0.636
247	-0.633
248	-0.627
248	-0.622
249	-0.627
249	-0.629
250	-0.633
250	-0.621
250	-0.616
251	-0.622
251	-0.629
252	-0.622
252	-0.621
253	-0.627
253	-0.636
254	-0.636
254	-0.638
255	-0.648
255	-0.655
256	-0.657
256	-0.654
257	-0.655
257	-0.656
258	-0.666
258	-0.665
258	-0.668
259	-0.665
259	-0.672
260	-0.668
260	-0.671
261	-0.673
261	-0.669
262	-0.669
262	-0.677
263	-0.671
263	-0.68
264	-0.685
264	-0.686
265	-0.681
265	-0.681
265	-0.68
266	-0.682
266	-0.69
267	-0.7
267	-0.699
268	-0.706
268	-0.694
269	-0.684
269	-0.692
270	-0.701
270	-0.701
271	-0.711
271	-0.718
272	-0.714
272	-0.701
272	-0.708
273	-0.707
273	-0.714
274	-0.708
274	-0.7
275	-0.697
275	-0.706
276	-0.699
276	-0.694
277	-0.69
277	-0.7
278	-0.704
278	-0.701
278	-0.716
279	-0.725
279	-0.729
280	-0.731
280	-0.728
281	-0.732
281	-0.752
282	-0.749
282	-0.749
283	-0.746
283	-0.757
284	-0.748
284	-0.747
285	-0.758
285	-0.743
285	-0.729
286	-0.727
286	-0.706
287	-0.709
287	-0.699
288	-0.683
288	-0.675
289	-0.665
289	-0.673
290	-0.669
290	-0.667
291	-0.673
291	-0.666
292	-0.666
292	-0.669
292	-0.677
293	-0.686
293	-0.684
294	-0.695
294	-0.681
295	-0.678
295	-0.684
296	-0.684
296	-0.687
297	-0.686
297	-0.676
298	-0.674
298	-0.673
298	-0.666
299	-0.652
299	-0.659
300	-0.657
300	-0.649
301	-0.646
301	-0.648
302	-0.653
302	-0.653
303	-0.64
303	-0.632
304	-0.633
304	-0.634
305	-0.628
305	-0.62
305	-0.627
306	-0.621
306	-0.615
307	-0.607
307	-0.606
308	-0.608
308	-0.606
309	-0.607
309	-0.606
310	-0.597
310	-0.594
311	-0.587
311	-0.584
311	-0.576
312	-0.563
312	-0.558
313	-0.549
313	-0.55
314	-0.548
314	-0.55
315	-0.55
315	-0.548
316	-0.543
316	-0.54
317	-0.532
317	-0.538
318	-0.532
318	-0.535
318	-0.518
319	-0.509
319	-0.491
320	-0.488
320	-0.491
321	-0.482
321	-0.479
322	-0.475
322	-0.471
323	-0.468
323	-0.462
324	-0.463
324	-0.452
324	-0.45
325	-0.433
325	-0.412
326	-0.407
326	-0.384
327	-0.371
327	-0.348
328	-0.32
328	-0.297
329	-0.27
329	-0.24
330	-0.208
330	-0.174
330	-0.14
331	-0.106
331	-0.073
332	-0.037
332	-0.005
333	0.026
333	0.06
334	0.091
334	0.117
335	0.147
335	0.169
336	0.193
336	0.217
336	0.236
337	0.257
337	0.276
338	0.293
338	0.305
339	0.32
339	0.333
340	0.342
340	0.352
341	0.361
341	0.368
342	0.376
342	0.382
342	0.388
343	0.392
343	0.398
344	0.401
344	0.404
345	0.407
345	0.41
346	0.412
346	0.414
347	0.415
347	0.417
348	0.418
348	0.42
348	0.421
349	0.421
349	0.423
350	0.424
350	0.425
351	0.425
351	0.426
352	0.426
352	0.426
353	0.426
353	0.426
354	0.427
354	0.427
354	0.426
355	0.426
355	0.425
356	0.425
356	0.425
357	0.425
357	0.424
358	0.424
358	0.424
359	0.424
359	0.423
360	0.423
360	0.423
360	0.423
361	0.423
361	0.423
362	0.423
362	0.423
363	0.423
363	0.422
364	0.422
364	0.421
365	0.421
365	0.421
366	0.421
366	0.42
366	0.42
367	0.419
367	0.419
368	0.418
368	0.418
369	0.418
369	0.417
370	0.417
370	0.416
371	0.416
371	0.416
372	0.415
372	0.414
372	0.414
373	0.414
373	0.413
374	0.413
374	0.412
375	0.412
375	0.412
376	0.411
376	0.411
377	0.41
377	0.41
378	0.409
378	0.409
378	0.408
379	0.408
379	0.407
380	0.407
380	0.406
381	0.406
381	0.405
382	0.405
382	0.404
383	0.404
383	0.403
383	0.402
384	0.402
384	0.401
385	0.401
385	0.4
386	0.4
386	0.399
387	0.399
387	0.399
388	0.398
388	0.398
389	0.398
389	0.397
389	0.397
390	0.396
390	0.396
391	0.395
391	0.395
392	0.394
392	0.394
393	0.393
393	0.393
394	0.393
394	0.392
394	0.392
395	0.391
395	0.391
396	0.39
396	0.39
397	0.389
397	0.389
398	0.388
398	0.388
399	0.387
399	0.387
400	0.386
400	0.386
400	0.386
401	0.385
401	0.384
402	0.384
402	0.383
403	0.383
403	0.383
404	0.382
404	0.381
405	0.381
405	0.38
405	0.38
406	0.38
406	0.379
407	0.379
407	0.379
408	0.378
408	0.378
409	0.378
409	0.377
410	0.377
410	0.377
411	0.376
411	0.376
411	0.376
412	0.375
412	0.375
413	0.374
413	0.374
414	0.373
414	0.373
415	0.373
415	0.372
416	0.372
416	0.371
416	0.371
417	0.37
417	0.37
418	0.37
418	0.37
419	0.37
419	0.37
420	0.37
420	0.37
421	0.37
421	0.369
421	0.369
422	0.369
422	0.369
423	0.369
423	0.369
424	0.369
424	0.369
425	0.368
425	0.368
426	0.368
426	0.368
427	0.368
427	0.367
427	0.367
428	0.367
428	0.367
429	0.367
429	0.366
430	0.366
430	0.366
431	0.365
431	0.365
432	0.365
432	0.365
432	0.365
433	0.364
433	0.364
434	0.364
434	0.364
435	0.364
435	0.364
436	0.364
436	0.364
437	0.363
437	0.363
437	0.363
438	0.363
438	0.363
439	0.363
439	0.363
440	0.363
440	0.363
441	0.363
441	0.363
442	0.363
442	0.364
442	0.364
443	0.364
443	0.364
444	0.364
444	0.364
445	0.365
445	0.365
446	0.365
446	0.364
447	0.364
447	0.364
447	0.364
448	0.364
448	0.364
449	0.364
449	0.364
450	0.364
450	0.364
451	0.365
451	0.365
452	0.366
452	0.366
452	0.367
453	0.367
453	0.368
454	0.368
454	0.368
455	0.369
455	0.369
456	0.369
456	0.37
457	0.37
457	0.37
458	0.371
458	0.371
458	0.371
459	0.372
459	0.372
460	0.372
460	0.372
461	0.373
461	0.373
462	0.374
462	0.375
463	0.375
463	0.376
463	0.376
464	0.377
464	0.378
465	0.378
465	0.379
466	0.379
466	0.38
467	0.381
467	0.381
467	0.382
468	0.383
468	0.383
469	0.384
469	0.386
470	0.387
470	0.388
471	0.388
471	0.389
472	0.39
472	0.391
472	0.392
473	0.393
473	0.394
474	0.396
474	0.397
475	0.398
475	0.399
476	0.401
476	0.402
477	0.404
477	0.405
477	0.407
478	0.409
478	0.41
479	0.412
479	0.413
480	0.415
480	0.417
481	0.419
481	0.421
482	0.422
482	0.424
482	0.425
483	0.428
483	0.43
484	0.433
484	0.434
485	0.437
485	0.439
486	0.441
486	0.443
487	0.445
487	0.448
487	0.45
488	0.453
488	0.455
489	0.458
489	0.461
490	0.464
490	0.466
491	0.469
491	0.472
492	0.475
492	0.478
492	0.481
493	0.484
493	0.487
494	0.491
494	0.494
495	0.498
495	0.501
496	0.504
496	0.508
496	0.511
497	0.515
497	0.518
498	0.522
498	0.525
499	0.529
499	0.533
500	0.537
500	0.541
501	0.545
501	0.549
501	0.553
502	0.557
502	0.561
503	0.565
503	0.569
504	0.572
504	0.576
505	0.58
505	0.585
506	0.589
506	0.593
506	0.598
507	0.602
507	0.606
508	0.61
508	0.615
509	0.619
509	0.623
510	0.627
510	0.631
511	0.635
511	0.639
511	0.642
512	0.647
512	0.65
513	0.654
513	0.658
514	0.661
514	0.665
515	0.668
515	0.671
515	0.674
516	0.677
516	0.681
517	0.683
517	0.686
518	0.688
518	0.691
519	0.693
519	0.695
520	0.697
520	0.7
520	0.701
521	0.703
521	0.704
522	0.705
522	0.707
523	0.708
523	0.71
524	0.711
524	0.712
524	0.713
525	0.714
525	0.714
526	0.715
526	0.715
527	0.715
527	0.715
528	0.714
528	0.713
529	0.712
529	0.711
529	0.71
530	0.708
530	0.707
531	0.705
531	0.704
532	0.702
532	0.7
533	0.698
533	0.695
533	0.693
534	0.69
534	0.688
535	0.685
535	0.682
536	0.679
536	0.675
537	0.672
537	0.668
538	0.664
538	0.66
538	0.657
539	0.653
539	0.649
540	0.645
540	0.641
541	0.636
541	0.632
542	0.627
542	0.623
542	0.618
543	0.613
543	0.608
544	0.603
544	0.598
545	0.593
545	0.588
546	0.583
546	0.577
547	0.571
547	0.565
547	0.559
548	0.554
548	0.548
549	0.542
549	0.536
550	0.53
550	0.524
551	0.517
551	0.51
551	0.504
552	0.498
552	0.492
553	0.486
553	0.48
554	0.474
554	0.468
555	0.462
555	0.457
556	0.451
556	0.445
556	0.439
557	0.434
557	0.428
558	0.422
558	0.416
559	0.41
559	0.404
560	0.398
560	0.392
560	0.387
561	0.382
561	0.377
562	0.372
562	0.367
563	0.361
563	0.356
564	0.351
564	0.346
564	0.341
565	0.336
565	0.331
566	0.326
566	0.321
567	0.316
567	0.311
568	0.306
568	0.301
568	0.297
569	0.293
569	0.289
570	0.284
570	0.28
571	0.276
571	0.272
572	0.268
572	0.264
573	0.26
573	0.255
573	0.251
574	0.247
574	0.243
575	0.239
575	0.236
576	0.232
576	0.228
577	0.223
577	0.22
577	0.217
578	0.214
578	0.211
579	0.208
579	0.205
580	0.2
580	0.196
581	0.193
581	0.19
581	0.188
582	0.186
582	0.184
583	0.181
583	0.178
584	0.174
584	0.17
585	0.168
585	0.166
585	0.163
586	0.161
586	0.158
587	0.155
587	0.153
588	0.15
588	0.148
589	0.146
589	0.144
590	0.142
590	0.14
590	0.138
591	0.136
591	0.133
592	0.131
592	0.128
593	0.127
593	0.125
594	0.123
594	0.121
594	0.119
595	0.117
595	0.115
596	0.112
596	0.111
597	0.11
597	0.109
598	0.107
598	0.105
598	0.104
599	0.102
599	0.101
600	0.099
600	0.098
601	0.097
601	0.095
602	0.093
602	0.092
602	0.09
603	0.089
603	0.088
604	0.086
604	0.085
605	0.084
605	0.083
606	0.081
606	0.078
606	0.076
607	0.074
607	0.073
608	0.072
608	0.07
609	0.068
609	0.068
610	0.066
610	0.065
610	0.065
611	0.065
611	0.064
612	0.064
612	0.064
613	0.063
613	0.063
614	0.062
614	0.06
614	0.059
615	0.058
615	0.057
616	0.056
616	0.054
617	0.053
617	0.051
618	0.05
618	0.048
618	0.047
619	0.046
619	0.045
620	0.045
620	0.044
621	0.043
621	0.043
622	0.042
622	0.041
622	0.04
623	0.039
623	0.039
624	0.039
624	0.038
625	0.036
625	0.035
626	0.034
626	0.033
626	0.032
627	0.032
627	0.031
628	0.03
628	0.029
629	0.029
629	0.028
630	0.027
630	0.027
630	0.026
631	0.026
631	0.025
632	0.024
632	0.024
633	0.023
633	0.023
634	0.023
634	0.023
634	0.023
635	0.023
635	0.023
636	0.023
636	0.022
637	0.022
637	0.021
638	0.02
638	0.019
638	0.018
639	0.016
639	0.014
640	0.013
640	0.011
641	0.01
641	0.009
642	0.007
642	0.006
642	0.004
643	0.003
643	0.001
644	-0
644	-0.002
645	-0.004
645	-0.007
646	-0.009
646	-0.012
646	-0.015
647	-0.019
647	-0.022
648	-0.026
648	-0.029
649	-0.032
649	-0.034
650	-0.037
650	-0.039
650	-0.043
651	-0.047
651	-0.051
652	-0.057
652	-0.062
653	-0.067
653	-0.072
653	-0.069
654	-0.064
654	-0.066
655	-0.071
655	-0.074
656	-0.077
656	-0.08
657	-0.083
657	-0.086
657	-0.091
658	-0.094
658	-0.111
659	-0.153
659	-0.194
660	-0.216
660	-0.232
661	-0.246
661	-0.265
661	-0.284
662	-0.301
662	-0.315
663	-0.329
663	-0.348
664	-0.363
664	-0.388
665	-0.404
665	-0.42
665	-0.441
666	-0.459
666	-0.477
667	-0.494
667	-0.516
668	-0.543
668	-0.568
669	-0.598
669	-0.628
669	-0.665
670	-0.704
670	-0.753
671	-0.809
671	-0.874
672	-1.087
672	-1.563
672	-2.021
673	-2.295
673	-2.421
674	-2.456
674	-2.469
675	-2.481
675	-2.487
676	-2.49
676	-2.529
676	-2.654
677	-2.652
677	-2.375
678	-2.024
678	-1.508
679	-1.114
679	-0.939
680	-0.865
680	-0.818
680	-0.784
681	-0.773
681	-0.756
682	-0.754
682	-0.746
683	-0.736
683	-0.743
684	-0.737
684	-0.733
684	-0.725
685	-0.73
685	-0.732
686	-0.723
686	-0.714
687	-0.71
687	-0.718
687	-0.711
688	-0.706
688	-0.707
689	-0.704
689	-0.704
690	-0.7
690	-0.701
691	-0.705
691	-0.707
691	-0.701
692	-0.694
692	-0.699
693	-0.703
693	-0.707
694	-0.705
694	-0.704
695	-0.709
695	-0.7
695	-0.696
696	-0.702
696	-0.701
697	-0.701
697	-0.697
698	-0.688
698	-0.689
698	-0.7
699	-0.701
699	-0.699
700	-0.72
700	-0.721
701	-0.727
701	-0.746
702	-0.765
702	-0.777
702	-0.782
703	-0.783
703	-0.774
704	-0.776
704	-0.771
705	-0.771
705	-0.773
705	-0.756
706	-0.746
706	-0.732
707	-0.735
707	-0.742
708	-0.736
708	-0.739
709	-0.746
709	-0.748
709	-0.734
710	-0.741
710	-0.746
711	-0.742
711	-0.748
712	-0.734
712	-0.724
713	-0.732
713	-0.74
713	-0.732
714	-0.739
714	-0.754
715	-0.75
715	-0.766
716	-0.78
716	-0.775
716	-0.786
717	-0.801
717	-0.799
718	-0.794
718	-0.802
719	-0.806
719	-0.783
720	-0.787
720	-0.775
720	-0.776
721	-0.773
721	-0.776
722	-0.768
722	-0.767
723	-0.762
723	-0.756
723	-0.746
724	-0.757
724	-0.748
725	-0.746
725	-0.744
726	-0.753
726	-0.748
727	-0.751
727	-0.747
727	-0.751
728	-0.758
728	-0.76
729	-0.756
729	-0.772
730	-0.781
730	-0.777
730	-0.772
731	-0.766
731	-0.777
732	-0.782
732	-0.781
733	-0.781
733	-0.787
734	-0.783
734	-0.774
734	-0.754
735	-0.76
735	-0.765
736	-0.768
736	-0.75
737	-0.745
737	-0.742
737	-0.726
738	-0.722
738	-0.732
739	-0.736
739	-0.745
740	-0.75
740	-0.745
741	-0.74
741	-0.753
741	-0.754
742	-0.748
742	-0.771
743	-0.763
743	-0.76
744	-0.747
744	-0.743
744	-0.734
745	-0.74
745	-0.751
746	-0.745
746	-0.754
747	-0.763
747	-0.747
748	-0.75
748	-0.752
748	-0.765
749	-0.777
749	-0.779
750	-0.766
750	-0.763
751	-0.767
751	-0.752
751	-0.753
752	-0.762
752	-0.766
753	-0.762
753	-0.756
754	-0.754
754	-0.736
754	-0.752
755	-0.752
755	-0.761
756	-0.778
756	-0.767
757	-0.754
757	-0.752
758	-0.744
758	-0.743
758	-0.74
759	-0.759
759	-0.763
760	-0.755
760	-0.739
761	-0.736
761	-0.744
761	-0.762
762	-0.754
762	-0.767
763	-0.757
763	-0.765
764	-0.758
764	-0.748
764	-0.765
765	-0.778
765	-0.779
766	-0.774
766	-0.759
767	-0.775
767	-0.768
768	-0.776
768	-0.783
768	-0.774
769	-0.78
769	-0.767
770	-0.773
770	-0.765
771	-0.772
771	-0.775
771	-0.778
772	-0.793
772	-0.806
773	-0.795
773	-0.815
774	-0.809
774	-0.811
775	-0.796
775	-0.8
775	-0.8
776	-0.807
776	-0.799
777	-0.79
777	-0.788
778	-0.792
778	-0.784
778	-0.796
779	-0.812
779	-0.828
780	-0.836
780	-0.842
781	-0.852
781	-0.858
781	-0.872
782	-0.874
782	-0.875
783	-0.883
783	-0.891
784	-0.876
784	-0.859
784	-0.875
785	-0.875
785	-0.878
786	-0.881
786	-0.865
787	-0.853
787	-0.877
788	-0.875
788	-0.854
788	-0.848
789	-0.843
789	-0.829
790	-0.83
790	-0.821
791	-0.834
791	-0.845
791	-0.849
792	-0.825
792	-0.834
793	-0.841
793	-0.855
794	-0.858
794	-0.866
794	-0.858
795	-0.848
795	-0.828
796	-0.809
796	-0.817
797	-0.825
797	-0.808
797	-0.816
798	-0.81
798	-0.823
799	-0.806
799	-0.815
800	-0.819
800	-0.83
801	-0.846
801	-0.835
801	-0.819
802	-0.816
802	-0.794
803	-0.788
803	-0.778
804	-0.781
804	-0.779
804	-0.778
805	-0.773
805	-0.763
806	-0.759
806	-0.766
807	-0.768
807	-0.78
807	-0.784
808	-0.782
808	-0.779
809	-0.772
809	-0.759
810	-0.765
810	-0.755
810	-0.759
811	-0.75
811	-0.752
812	-0.755
812	-0.768
813	-0.766
813	-0.768
813	-0.763
814	-0.775
814	-0.758
815	-0.766
815	-0.776
816	-0.774
816	-0.777
817	-0.78
817	-0.76
817	-0.777
818	-0.78
818	-0.785
819	-0.788
819	-0.797
820	-0.783
820	-0.781
820	-0.795
821	-0.795
821	-0.793
822	-0.796
822	-0.794
823	-0.8
823	-0.799
823	-0.781
824	-0.791
824	-0.816
825	-0.809
825	-0.796
826	-0.781
826	-0.768
826	-0.765
827	-0.744
827	-0.728
828	-0.73
828	-0.727
829	-0.713
829	-0.696
829	-0.692
830	-0.69
830	-0.696
831	-0.693
831	-0.676
832	-0.68
832	-0.672
832	-0.658
833	-0.651
833	-0.643
834	-0.637
834	-0.633
835	-0.627
835	-0.619
835	-0.61
836	-0.618
836	-0.615
837	-0.613
837	-0.609
838	-0.61
838	-0.602
839	-0.598
839	-0.592
839	-0.585
840	-0.579
840	-0.573
841	-0.564
841	-0.551
842	-0.545
842	-0.534
842	-0.523
843	-0.52
843	-0.513
844	-0.503
844	-0.492
845	-0.481
845	-0.472
845	-0.459
846	-0.45
846	-0.435
847	-0.431
847	-0.421
848	-0.407
848	-0.394
848	-0.383
849	-0.371
849	-0.36
850	-0.35
850	-0.34
851	-0.332
851	-0.321
851	-0.31
852	-0.299
852	-0.289
853	-0.283
853	-0.277
854	-0.268
854	-0.261
854	-0.253
855	-0.244
855	-0.235
856	-0.228
856	-0.221
857	-0.215
857	-0.208
857	-0.199
858	-0.188
858	-0.183
859	-0.173
859	-0.165
860	-0.159
860	-0.15
860	-0.141
861	-0.134
861	-0.127
862	-0.122
862	-0.117
863	-0.112
863	-0.106
863	-0.102
864	-0.099
864	-0.093
865	-0.089
865	-0.086
866	-0.082
866	-0.078
866	-0.075
867	-0.071
867	-0.068
868	-0.065
868	-0.063
869	-0.059
869	-0.057
869	-0.055
870	-0.054
870	-0.052
871	-0.051
871	-0.049
872	-0.049
872	-0.048
872	-0.047
873	-0.047
873	-0.047
874	-0.048
874	-0.048
875	-0.048
875	-0.049
875	-0.05
876	-0.051
876	-0.052
877	-0.053
877	-0.054
878	-0.055
878	-0.057
878	-0.058
879	-0.059
879	-0.06
880	-0.061
880	-0.062
881	-0.063
881	-0.063
881	-0.064
882	-0.064
882	-0.065
883	-0.066
883	-0.067
884	-0.068
884	-0.068
884	-0.068
885	-0.068
885	-0.069
886	-0.069
886	-0.069
887	-0.07
887	-0.07
887	-0.07
888	-0.07
888	-0.07
889	-0.071
889	-0.071
890	-0.071
890	-0.071
890	-0.072
891	-0.072
891	-0.073
892	-0.073
892	-0.074
893	-0.075
893	-0.076
893	-0.075
894	-0.075
894	-0.076
895	-0.075
895	-0.075
895	-0.074
896	-0.074
896	-0.073
897	-0.072
897	-0.071
898	-0.07
898	-0.069
898	-0.068
899	-0.067
899	-0.066
900	-0.065
900	-0.064
901	-0.064
901	-0.063
901	-0.063
902	-0.063
902	-0.063
903	-0.063
903	-0.062
904	-0.062
904	-0.063
904	-0.063
905	-0.063
905	-0.064
906	-0.064
906	-0.064
907	-0.064
907	-0.064
907	-0.063
908	-0.062
908	-0.062
909	-0.061
909	-0.06
910	-0.058
910	-0.057
910	-0.056
911	-0.055
911	-0.054
912	-0.053
912	-0.052
913	-0.051
913	-0.05
913	-0.049
914	-0.049
914	-0.048
915	-0.048
915	-0.047
916	-0.047
916	-0.047
916	-0.047
917	-0.047
917	-0.047
918	-0.047
918	-0.046
918	-0.045
919	-0.045
919	-0.044
920	-0.044
920	-0.043
921	-0.042
921	-0.041
921	-0.041
922	-0.041
922	-0.041
923	-0.041
923	-0.042
924	-0.043
924	-0.043
924	-0.044
925	-0.045
925	-0.046
926	-0.047
926	-0.047
927	-0.048
927	-0.048
927	-0.049
928	-0.049
928	-0.049
929	-0.049
929	-0.049
930	-0.05
930	-0.051
930	-0.051
931	-0.052
931	-0.053
932	-0.054
932	-0.055
933	-0.056
933	-0.058
933	-0.059
934	-0.06
934	-0.061
935	-0.062
935	-0.063
935	-0.064
936	-0.064
936	-0.064
937	-0.064
937	-0.064
938	-0.063
938	-0.063
938	-0.062
939	-0.062
939	-0.061
940	-0.06
940	-0.059
941	-0.058
941	-0.058
941	-0.057
942	-0.057
942	-0.057
943	-0.057
943	-0.057
944	-0.057
944	-0.057
944	-0.056
945	-0.056
945	-0.056
946	-0.055
946	-0.055
946	-0.054
947	-0.053
947	-0.052
948	-0.051
948	-0.05
949	-0.049
949	-0.047
949	-0.046
950	-0.045
950	-0.044
951	-0.043
951	-0.043
952	-0.043
952	-0.042
952	-0.042
953	-0.042
953	-0.041
954	-0.042
954	-0.041
955	-0.04
955	-0.039
955	-0.038
956	-0.037
956	-0.035
957	-0.034
957	-0.033
957	-0.032
958	-0.032
958	-0.031
959	-0.03
959	-0.029
960	-0.028
960	-0.027
960	-0.026
961	-0.025
961	-0.023
962	-0.022
962	-0.021
963	-0.02
963	-0.019
963	-0.019
964	-0.019
964	-0.019
965	-0.019
965	-0.019
966	-0.02
966	-0.021
966	-0.022
967	-0.023
967	-0.024
968	-0.026
968	-0.027
968	-0.028
969	-0.03
969	-0.031
970	-0.033
970	-0.034
971	-0.035
971	-0.036
971	-0.037
972	-0.038
972	-0.038
973	-0.039
973	-0.04
974	-0.04
974	-0.04
974	-0.041
975	-0.041
975	-0.041
976	-0.042
976	-0.042
976	-0.043
977	-0.044
977	-0.045
978	-0.045
978	-0.046
979	-0.047
979	-0.047
979	-0.048
980	-0.048
980	-0.048
981	-0.048
981	-0.048
982	-0.048
982	-0.048
982	-0.048
983	-0.047
983	-0.047
984	-0.047
984	-0.047
984	-0.047
985	-0.047
985	-0.047
986	-0.047
986	-0.048
987	-0.048
987	-0.049
987	-0.049
988	-0.049
988	-0.05
989	-0.05
989	-0.051
990	-0.051
990	-0.051
990	-0.051
991	-0.051
991	-0.052
992	-0.052
992	-0.052
992	-0.053
993	-0.053
993	-0.054
994	-0.055
994	-0.056
995	-0.057
995	-0.058
995	-0.059
996	-0.059
996	-0.06
997	-0.06
997	-0.061
997	-0.061
998	-0.061
998	-0.061
999	-0.061
999	-0.061
1000	-0.062
1000	-0.062
1000	-0.063
1001	-0.064
1001	-0.065
1002	-0.066
1002	-0.067
1003	-0.068
1003	-0.069
1003	-0.071
1004	-0.072
1004	-0.073
1005	-0.074
1005	-0.075
1005	-0.076
1006	-0.076
1006	-0.077
1007	-0.078
1007	-0.079
1008	-0.079
1008	-0.079
1008	-0.08
1009	-0.08
1009	-0.08
1010	-0.08
1010	-0.08
1010	-0.081
1011	-0.081
1011	-0.081
1012	-0.082
1012	-0.082
1013	-0.082
1013	-0.083
1013	-0.083
1014	-0.084
1014	-0.085
1015	-0.086
1015	-0.086
1016	-0.087
1016	-0.087
1016	-0.088
1017	-0.088
1017	-0.088
1018	-0.088
1018	-0.088
1018	-0.088
1019	-0.087
1019	-0.087
1020	-0.087
1020	-0.087
1021	-0.087
1021	-0.087
1021	-0.087
1022	-0.087
1022	-0.087
1023	-0.087
1023	-0.088
1023	-0.088
1024	-0.089
1024	-0.09
1025	-0.091
1025	-0.091
1026	-0.092
1026	-0.092
1026	-0.092
1027	-0.092
1027	-0.092
1028	-0.092
1028	-0.091
1028	-0.091
1029	-0.09
1029	-0.089
1030	-0.089
1030	-0.088
1031	-0.087
1031	-0.086
1031	-0.086
1032	-0.085
1032	-0.085
1033	-0.085
1033	-0.084
1033	-0.084
1034	-0.085
1034	-0.085
1035	-0.086
1035	-0.086
1036	-0.087
1036	-0.087
1036	-0.087
1037	-0.087
1037	-0.088
1038	-0.088
1038	-0.087
1039	-0.087
1039	-0.086
1039	-0.086
1040	-0.086
1040	-0.085
1041	-0.084
1041	-0.084
1041	-0.084
1042	-0.084
1042	-0.083
1043	-0.083
1043	-0.083
1044	-0.083
1044	-0.083
1044	-0.083
1045	-0.083
1045	-0.083
1046	-0.083
1046	-0.083
1046	-0.083
1047	-0.083
1047	-0.083
1048	-0.083
1048	-0.083
1049	-0.083
1049	-0.083
1049	-0.083
1050	-0.084
1050	-0.084
1051	-0.085
1051	-0.085
1051	-0.086
1052	-0.086
1052	-0.086
1053	-0.086
1053	-0.086
1053	-0.086
1054	-0.087
1054	-0.086
1055	-0.086
1055	-0.086
1056	-0.086
1056	-0.086
1056	-0.086
1057	-0.086
1057	-0.087
1058	-0.087
1058	-0.088
1058	-0.088
1059	-0.089
1059	-0.089
1060	-0.09
1060	-0.09
1061	-0.091
1061	-0.091
1061	-0.091
1062	-0.091
1062	-0.091
1063	-0.091
1063	-0.092
1063	-0.092
1064	-0.092
1064	-0.092
1065	-0.092
1065	-0.093
1066	-0.093
1066	-0.094
1066	-0.094
1067	-0.095
1067	-0.095
1068	-0.096
1068	-0.097
1068	-0.097
1069	-0.098
1069	-0.099
1070	-0.1
1070	-0.1
1071	-0.101
1071	-0.102
1071	-0.102
1072	-0.102
1072	-0.103
1073	-0.103
1073	-0.103
1073	-0.103
1074	-0.103
1074	-0.103
1075	-0.103
1075	-0.103
1076	-0.102
1076	-0.102
1076	-0.102
1077	-0.103
1077	-0.103
1078	-0.103
1078	-0.103
1078	-0.103
1079	-0.102
1079	-0.102
1080	-0.102
1080	-0.102
1080	-0.102
1081	-0.102
1081	-0.101
1082	-0.101
1082	-0.101
1083	-0.101
1083	-0.101
1083	-0.102
1084	-0.102
1084	-0.102
1085	-0.103
1085	-0.103
1085	-0.103
1086	-0.104
1086	-0.105
1087	-0.105
1087	-0.105
1088	-0.106
1088	-0.106
1088	-0.107
1089	-0.109
1089	-0.11
1090	-0.112
1090	-0.113
1090	-0.114
1091	-0.115
1091	-0.116
1092	-0.117
1092	-0.118
1092	-0.119
1093	-0.12
1093	-0.119
1094	-0.119
1094	-0.12
1095	-0.121
1095	-0.122
1095	-0.122
1096	-0.124
1096	-0.125
1097	-0.126
1097	-0.128
1097	-0.129
1098	-0.131
1098	-0.133
1099	-0.134
1099	-0.135
1100	-0.136
1100	-0.138
1100	-0.139
1101	-0.141
1101	-0.143
1102	-0.146
1102	-0.148
1102	-0.149
1103	-0.151
1103	-0.152
1104	-0.154
1104	-0.156
1104	-0.157
1105	-0.159
1105	-0.161
1106	-0.165
1106	-0.166
1107	-0.171
1107	-0.174
1107	-0.178
1108	-0.18
1108	-0.181
1109	-0.185
1109	-0.188
1109	-0.193
1110	-0.194
1110	-0.197
1111	-0.201
1111	-0.197
