Data from 40to5_hyst_3.5A_10sec_80mins_Absorbance__305__00927.txt Node

Date: Mon Jun 26 11:47:10 CEST 2023
User: Marek
Spectrometer: MAYP115816
Trigger mode: 0
Integration Time (sec): 2.500000E-1
Scans to average: 10
Electric dark correction enabled: true
Nonlinearity correction enabled: true
Boxcar width: 5
XAxis mode: Wavelengths
Number of Pixels in Spectrum: 2068
>>>>>Begin Spectral Data<<<<<
199	-0.786
199	-0.761
200	-0.73
200	-0.676
201	-0.636
201	-0.606
202	-0.588
202	-0.592
203	-0.585
203	-0.578
204	-0.56
204	-0.541
205	-0.525
205	-0.515
205	-0.517
206	-0.515
206	-0.53
207	-0.529
207	-0.525
208	-0.529
208	-0.532
209	-0.537
209	-0.548
210	-0.555
210	-0.555
211	-0.558
211	-0.567
212	-0.565
212	-0.572
213	-0.578
213	-0.579
213	-0.579
214	-0.579
214	-0.58
215	-0.575
215	-0.578
216	-0.574
216	-0.581
217	-0.578
217	-0.576
218	-0.574
218	-0.575
219	-0.578
219	-0.579
220	-0.58
220	-0.589
221	-0.601
221	-0.609
221	-0.606
222	-0.611
222	-0.61
223	-0.615
223	-0.612
224	-0.617
224	-0.61
225	-0.611
225	-0.613
226	-0.609
226	-0.608
227	-0.607
227	-0.613
228	-0.608
228	-0.609
229	-0.612
229	-0.609
229	-0.613
230	-0.614
230	-0.611
231	-0.601
231	-0.589
232	-0.588
232	-0.582
233	-0.593
233	-0.587
234	-0.591
234	-0.588
235	-0.588
235	-0.586
236	-0.589
236	-0.595
236	-0.605
237	-0.604
237	-0.6
238	-0.593
238	-0.598
239	-0.59
239	-0.593
240	-0.59
240	-0.589
241	-0.585
241	-0.589
242	-0.594
242	-0.601
243	-0.607
243	-0.617
243	-0.618
244	-0.62
244	-0.622
245	-0.636
245	-0.643
246	-0.652
246	-0.646
247	-0.65
247	-0.647
248	-0.643
248	-0.638
249	-0.641
249	-0.648
250	-0.652
250	-0.64
250	-0.635
251	-0.64
251	-0.649
252	-0.643
252	-0.642
253	-0.65
253	-0.657
254	-0.661
254	-0.663
255	-0.674
255	-0.681
256	-0.683
256	-0.682
257	-0.681
257	-0.683
258	-0.693
258	-0.689
258	-0.691
259	-0.684
259	-0.688
260	-0.682
260	-0.686
261	-0.688
261	-0.684
262	-0.686
262	-0.691
263	-0.684
263	-0.693
264	-0.699
264	-0.7
265	-0.697
265	-0.698
265	-0.699
266	-0.699
266	-0.703
267	-0.715
267	-0.715
268	-0.724
268	-0.714
269	-0.706
269	-0.712
270	-0.723
270	-0.724
271	-0.732
271	-0.74
272	-0.741
272	-0.725
272	-0.735
273	-0.735
273	-0.74
274	-0.734
274	-0.729
275	-0.724
275	-0.732
276	-0.725
276	-0.718
277	-0.714
277	-0.724
278	-0.728
278	-0.726
278	-0.742
279	-0.749
279	-0.752
280	-0.754
280	-0.752
281	-0.757
281	-0.778
282	-0.775
282	-0.776
283	-0.771
283	-0.78
284	-0.77
284	-0.767
285	-0.775
285	-0.761
285	-0.748
286	-0.745
286	-0.725
287	-0.73
287	-0.722
288	-0.706
288	-0.7
289	-0.691
289	-0.702
290	-0.7
290	-0.699
291	-0.703
291	-0.699
292	-0.7
292	-0.702
292	-0.709
293	-0.718
293	-0.715
294	-0.725
294	-0.711
295	-0.709
295	-0.71
296	-0.711
296	-0.714
297	-0.713
297	-0.705
298	-0.701
298	-0.698
298	-0.693
299	-0.679
299	-0.686
300	-0.684
300	-0.681
301	-0.675
301	-0.674
302	-0.677
302	-0.673
303	-0.661
303	-0.654
304	-0.655
304	-0.654
305	-0.646
305	-0.64
305	-0.647
306	-0.642
306	-0.639
307	-0.631
307	-0.631
308	-0.631
308	-0.63
309	-0.629
309	-0.63
310	-0.62
310	-0.616
311	-0.608
311	-0.606
311	-0.6
312	-0.589
312	-0.584
313	-0.578
313	-0.576
314	-0.576
314	-0.58
315	-0.581
315	-0.579
316	-0.576
316	-0.571
317	-0.564
317	-0.568
318	-0.561
318	-0.561
318	-0.545
319	-0.539
319	-0.522
320	-0.52
320	-0.524
321	-0.513
321	-0.51
322	-0.505
322	-0.501
323	-0.502
323	-0.5
324	-0.503
324	-0.489
324	-0.488
325	-0.47
325	-0.448
326	-0.445
326	-0.424
327	-0.411
327	-0.389
328	-0.359
328	-0.335
329	-0.31
329	-0.284
330	-0.254
330	-0.223
330	-0.193
331	-0.161
331	-0.133
332	-0.103
332	-0.074
333	-0.049
333	-0.02
334	0.007
334	0.029
335	0.054
335	0.073
336	0.094
336	0.114
336	0.13
337	0.147
337	0.162
338	0.177
338	0.188
339	0.201
339	0.212
340	0.22
340	0.229
341	0.236
341	0.242
342	0.249
342	0.254
342	0.259
343	0.263
343	0.268
344	0.271
344	0.274
345	0.277
345	0.28
346	0.283
346	0.286
347	0.288
347	0.29
348	0.292
348	0.295
348	0.296
349	0.298
349	0.3
350	0.301
350	0.302
351	0.303
351	0.304
352	0.305
352	0.306
353	0.307
353	0.308
354	0.309
354	0.31
354	0.31
355	0.311
355	0.311
356	0.312
356	0.312
357	0.312
357	0.312
358	0.312
358	0.313
359	0.313
359	0.313
360	0.314
360	0.314
360	0.314
361	0.315
361	0.315
362	0.316
362	0.316
363	0.317
363	0.318
364	0.318
364	0.318
365	0.319
365	0.319
366	0.319
366	0.319
366	0.319
367	0.32
367	0.319
368	0.319
368	0.319
369	0.319
369	0.319
370	0.318
370	0.318
371	0.318
371	0.318
372	0.318
372	0.318
372	0.318
373	0.318
373	0.318
374	0.318
374	0.318
375	0.318
375	0.318
376	0.317
376	0.317
377	0.317
377	0.317
378	0.317
378	0.317
378	0.317
379	0.316
379	0.316
380	0.316
380	0.316
381	0.316
381	0.315
382	0.315
382	0.315
383	0.314
383	0.314
383	0.314
384	0.313
384	0.313
385	0.313
385	0.313
386	0.313
386	0.313
387	0.313
387	0.313
388	0.313
388	0.313
389	0.313
389	0.313
389	0.312
390	0.312
390	0.311
391	0.311
391	0.311
392	0.311
392	0.31
393	0.31
393	0.31
394	0.309
394	0.309
394	0.308
395	0.308
395	0.308
396	0.308
396	0.307
397	0.307
397	0.307
398	0.307
398	0.306
399	0.306
399	0.306
400	0.306
400	0.305
400	0.305
401	0.305
401	0.305
402	0.305
402	0.304
403	0.304
403	0.304
404	0.303
404	0.303
405	0.303
405	0.303
405	0.303
406	0.302
406	0.302
407	0.302
407	0.302
408	0.301
408	0.301
409	0.301
409	0.301
410	0.301
410	0.3
411	0.3
411	0.3
411	0.3
412	0.299
412	0.299
413	0.299
413	0.298
414	0.298
414	0.298
415	0.297
415	0.297
416	0.297
416	0.296
416	0.296
417	0.296
417	0.296
418	0.296
418	0.296
419	0.296
419	0.296
420	0.296
420	0.296
421	0.296
421	0.296
421	0.296
422	0.296
422	0.296
423	0.296
423	0.295
424	0.295
424	0.295
425	0.295
425	0.295
426	0.295
426	0.294
427	0.294
427	0.294
427	0.294
428	0.293
428	0.293
429	0.293
429	0.293
430	0.292
430	0.292
431	0.292
431	0.292
432	0.292
432	0.292
432	0.292
433	0.292
433	0.292
434	0.292
434	0.292
435	0.292
435	0.292
436	0.291
436	0.291
437	0.291
437	0.29
437	0.29
438	0.29
438	0.29
439	0.29
439	0.29
440	0.289
440	0.289
441	0.29
441	0.29
442	0.29
442	0.29
442	0.29
443	0.29
443	0.29
444	0.291
444	0.291
445	0.291
445	0.291
446	0.291
446	0.291
447	0.29
447	0.29
447	0.29
448	0.29
448	0.29
449	0.29
449	0.29
450	0.29
450	0.29
451	0.29
451	0.29
452	0.29
452	0.29
452	0.29
453	0.291
453	0.291
454	0.291
454	0.291
455	0.291
455	0.292
456	0.292
456	0.292
457	0.292
457	0.292
458	0.292
458	0.292
458	0.292
459	0.293
459	0.293
460	0.292
460	0.292
461	0.293
461	0.293
462	0.293
462	0.293
463	0.294
463	0.294
463	0.295
464	0.295
464	0.295
465	0.296
465	0.296
466	0.296
466	0.296
467	0.297
467	0.297
467	0.297
468	0.297
468	0.298
469	0.298
469	0.299
470	0.299
470	0.299
471	0.3
471	0.3
472	0.3
472	0.301
472	0.301
473	0.302
473	0.303
474	0.303
474	0.304
475	0.305
475	0.306
476	0.306
476	0.307
477	0.308
477	0.309
477	0.31
478	0.311
478	0.312
479	0.313
479	0.314
480	0.315
480	0.316
481	0.317
481	0.318
482	0.319
482	0.32
482	0.321
483	0.323
483	0.324
484	0.325
484	0.326
485	0.327
485	0.328
486	0.329
486	0.331
487	0.332
487	0.334
487	0.335
488	0.336
488	0.337
489	0.339
489	0.341
490	0.343
490	0.345
491	0.347
491	0.348
492	0.35
492	0.352
492	0.353
493	0.355
493	0.357
494	0.36
494	0.362
495	0.364
495	0.366
496	0.368
496	0.371
496	0.373
497	0.375
497	0.378
498	0.38
498	0.381
499	0.383
499	0.385
500	0.388
500	0.391
501	0.393
501	0.396
501	0.398
502	0.401
502	0.403
503	0.406
503	0.409
504	0.411
504	0.414
505	0.417
505	0.419
506	0.422
506	0.425
506	0.428
507	0.43
507	0.433
508	0.435
508	0.438
509	0.441
509	0.444
510	0.447
510	0.449
511	0.452
511	0.455
511	0.457
512	0.46
512	0.463
513	0.465
513	0.467
514	0.47
514	0.472
515	0.475
515	0.477
515	0.478
516	0.48
516	0.483
517	0.485
517	0.486
518	0.488
518	0.489
519	0.491
519	0.493
520	0.494
520	0.496
520	0.498
521	0.499
521	0.5
522	0.501
522	0.503
523	0.504
523	0.505
524	0.506
524	0.507
524	0.508
525	0.509
525	0.509
526	0.51
526	0.51
527	0.511
527	0.511
528	0.511
528	0.511
529	0.511
529	0.511
529	0.51
530	0.51
530	0.51
531	0.51
531	0.51
532	0.509
532	0.509
533	0.508
533	0.507
533	0.506
534	0.505
534	0.504
535	0.503
535	0.502
536	0.501
536	0.499
537	0.498
537	0.497
538	0.495
538	0.494
538	0.492
539	0.491
539	0.49
540	0.488
540	0.486
541	0.484
541	0.482
542	0.48
542	0.478
542	0.476
543	0.474
543	0.471
544	0.469
544	0.467
545	0.464
545	0.462
546	0.46
546	0.457
547	0.454
547	0.451
547	0.449
548	0.446
548	0.443
549	0.441
549	0.438
550	0.435
550	0.432
551	0.428
551	0.425
551	0.422
552	0.419
552	0.417
553	0.414
553	0.411
554	0.408
554	0.406
555	0.403
555	0.4
556	0.397
556	0.394
556	0.392
557	0.389
557	0.386
558	0.383
558	0.38
559	0.377
559	0.374
560	0.371
560	0.369
560	0.366
561	0.364
561	0.361
562	0.359
562	0.356
563	0.354
563	0.351
564	0.348
564	0.346
564	0.343
565	0.341
565	0.339
566	0.336
566	0.334
567	0.332
567	0.33
568	0.328
568	0.326
568	0.324
569	0.322
569	0.32
570	0.318
570	0.315
571	0.314
571	0.312
572	0.31
572	0.307
573	0.305
573	0.303
573	0.3
574	0.298
574	0.296
575	0.294
575	0.293
576	0.291
576	0.288
577	0.286
577	0.284
577	0.283
578	0.281
578	0.28
579	0.279
579	0.278
580	0.275
580	0.272
581	0.27
581	0.269
581	0.268
582	0.267
582	0.267
583	0.266
583	0.264
584	0.261
584	0.259
585	0.259
585	0.258
585	0.257
586	0.255
586	0.254
587	0.252
587	0.25
588	0.248
588	0.247
589	0.247
589	0.246
590	0.245
590	0.244
590	0.244
591	0.243
591	0.242
592	0.241
592	0.239
593	0.238
593	0.237
594	0.236
594	0.235
594	0.234
595	0.233
595	0.231
596	0.229
596	0.229
597	0.229
597	0.228
598	0.227
598	0.227
598	0.226
599	0.225
599	0.224
600	0.223
600	0.222
601	0.222
601	0.221
602	0.22
602	0.219
602	0.217
603	0.217
603	0.216
604	0.215
604	0.215
605	0.214
605	0.214
606	0.212
606	0.21
606	0.209
607	0.208
607	0.207
608	0.206
608	0.204
609	0.203
609	0.203
610	0.202
610	0.201
610	0.201
611	0.201
611	0.201
612	0.201
612	0.201
613	0.201
613	0.2
614	0.199
614	0.198
614	0.198
615	0.197
615	0.196
616	0.195
616	0.194
617	0.193
617	0.191
618	0.19
618	0.188
618	0.187
619	0.186
619	0.185
620	0.185
620	0.185
621	0.184
621	0.184
622	0.183
622	0.182
622	0.181
623	0.18
623	0.18
624	0.179
624	0.178
625	0.177
625	0.175
626	0.174
626	0.172
626	0.172
627	0.171
627	0.17
628	0.169
628	0.168
629	0.167
629	0.166
630	0.165
630	0.164
630	0.162
631	0.161
631	0.16
632	0.158
632	0.156
633	0.155
633	0.153
634	0.152
634	0.151
634	0.15
635	0.148
635	0.147
636	0.145
636	0.143
637	0.141
637	0.139
638	0.136
638	0.133
638	0.13
639	0.127
639	0.123
640	0.12
640	0.117
641	0.113
641	0.11
642	0.107
642	0.104
642	0.101
643	0.098
643	0.094
644	0.09
644	0.086
645	0.082
645	0.078
646	0.073
646	0.067
646	0.062
647	0.056
647	0.05
648	0.043
648	0.037
649	0.031
649	0.025
650	0.02
650	0.014
650	0.007
651	-0.001
651	-0.011
652	-0.023
652	-0.036
653	-0.047
653	-0.057
653	-0.055
654	-0.037
654	-0.031
655	-0.035
655	-0.039
656	-0.044
656	-0.05
657	-0.054
657	-0.057
657	-0.063
658	-0.068
658	-0.093
659	-0.17
659	-0.258
660	-0.298
660	-0.323
661	-0.349
661	-0.376
661	-0.405
662	-0.434
662	-0.462
663	-0.491
663	-0.527
664	-0.56
664	-0.603
665	-0.642
665	-0.682
665	-0.727
666	-0.775
666	-0.824
667	-0.876
667	-0.933
668	-0.992
668	-1.048
669	-1.111
669	-1.177
669	-1.249
670	-1.329
670	-1.425
671	-1.552
671	-1.75
672	-2.021
672	-2.191
672	-2.38
673	-2.548
673	-2.647
674	-2.727
674	-2.754
675	-2.768
675	-2.773
676	-2.772
676	-2.793
676	-2.861
677	-2.838
677	-2.628
678	-2.426
678	-2.225
679	-1.854
679	-1.59
680	-1.467
680	-1.374
680	-1.296
681	-1.244
681	-1.192
682	-1.155
682	-1.123
683	-1.089
683	-1.069
684	-1.04
684	-1.019
684	-0.99
685	-0.976
685	-0.963
686	-0.94
686	-0.919
687	-0.903
687	-0.898
687	-0.881
688	-0.866
688	-0.861
689	-0.846
689	-0.84
690	-0.832
690	-0.829
691	-0.826
691	-0.822
691	-0.809
692	-0.798
692	-0.8
693	-0.799
693	-0.8
694	-0.796
694	-0.795
695	-0.797
695	-0.785
695	-0.784
696	-0.789
696	-0.789
697	-0.787
697	-0.783
698	-0.773
698	-0.767
698	-0.777
699	-0.776
699	-0.771
700	-0.79
700	-0.787
701	-0.791
701	-0.805
702	-0.821
702	-0.832
702	-0.836
703	-0.837
703	-0.827
704	-0.828
704	-0.823
705	-0.822
705	-0.823
705	-0.806
706	-0.797
706	-0.783
707	-0.783
707	-0.788
708	-0.781
708	-0.786
709	-0.789
709	-0.792
709	-0.78
710	-0.79
710	-0.794
711	-0.789
711	-0.793
712	-0.777
712	-0.767
713	-0.774
713	-0.781
713	-0.773
714	-0.78
714	-0.794
715	-0.788
715	-0.806
716	-0.821
716	-0.816
716	-0.828
717	-0.843
717	-0.844
718	-0.837
718	-0.846
719	-0.849
719	-0.826
720	-0.828
720	-0.811
720	-0.811
721	-0.809
721	-0.811
722	-0.803
722	-0.801
723	-0.797
723	-0.79
723	-0.777
724	-0.787
724	-0.778
725	-0.778
725	-0.773
726	-0.781
726	-0.778
727	-0.779
727	-0.774
727	-0.777
728	-0.784
728	-0.787
729	-0.783
729	-0.8
730	-0.808
730	-0.808
730	-0.802
731	-0.795
731	-0.808
732	-0.811
732	-0.808
733	-0.809
733	-0.816
734	-0.813
734	-0.806
734	-0.786
735	-0.79
735	-0.794
736	-0.797
736	-0.779
737	-0.775
737	-0.773
737	-0.757
738	-0.752
738	-0.76
739	-0.761
739	-0.77
740	-0.775
740	-0.768
741	-0.767
741	-0.778
741	-0.778
742	-0.773
742	-0.797
743	-0.788
743	-0.786
744	-0.773
744	-0.769
744	-0.76
745	-0.766
745	-0.774
746	-0.769
746	-0.778
747	-0.786
747	-0.768
748	-0.773
748	-0.776
748	-0.791
749	-0.802
749	-0.801
750	-0.789
750	-0.785
751	-0.788
751	-0.772
751	-0.773
752	-0.781
752	-0.786
753	-0.784
753	-0.774
754	-0.775
754	-0.759
754	-0.774
755	-0.774
755	-0.782
756	-0.8
756	-0.791
757	-0.778
757	-0.774
758	-0.761
758	-0.761
758	-0.756
759	-0.775
759	-0.779
760	-0.772
760	-0.756
761	-0.754
761	-0.762
761	-0.78
762	-0.771
762	-0.785
763	-0.776
763	-0.784
764	-0.78
764	-0.772
764	-0.788
765	-0.802
765	-0.802
766	-0.798
766	-0.783
767	-0.797
767	-0.791
768	-0.803
768	-0.81
768	-0.8
769	-0.804
769	-0.791
770	-0.798
770	-0.789
771	-0.793
771	-0.797
771	-0.799
772	-0.814
772	-0.825
773	-0.814
773	-0.834
774	-0.83
774	-0.831
775	-0.817
775	-0.822
775	-0.825
776	-0.832
776	-0.827
777	-0.818
777	-0.814
778	-0.817
778	-0.808
778	-0.819
779	-0.836
779	-0.854
780	-0.861
780	-0.863
781	-0.873
781	-0.878
781	-0.892
782	-0.896
782	-0.897
783	-0.909
783	-0.915
784	-0.899
784	-0.882
784	-0.897
785	-0.9
785	-0.9
786	-0.905
786	-0.891
787	-0.876
787	-0.901
788	-0.896
788	-0.876
788	-0.87
789	-0.865
789	-0.853
790	-0.853
790	-0.847
791	-0.857
791	-0.867
791	-0.871
792	-0.848
792	-0.855
793	-0.862
793	-0.874
794	-0.879
794	-0.884
794	-0.877
795	-0.866
795	-0.846
796	-0.826
796	-0.835
797	-0.842
797	-0.826
797	-0.837
798	-0.833
798	-0.844
799	-0.829
799	-0.837
800	-0.843
800	-0.854
801	-0.869
801	-0.858
801	-0.841
802	-0.839
802	-0.816
803	-0.81
803	-0.799
804	-0.799
804	-0.799
804	-0.797
805	-0.79
805	-0.781
806	-0.776
806	-0.783
807	-0.784
807	-0.792
807	-0.794
808	-0.79
808	-0.79
809	-0.78
809	-0.77
810	-0.776
810	-0.764
810	-0.769
811	-0.76
811	-0.764
812	-0.766
812	-0.782
813	-0.78
813	-0.78
813	-0.776
814	-0.788
814	-0.773
815	-0.78
815	-0.79
816	-0.789
816	-0.791
817	-0.794
817	-0.775
817	-0.794
818	-0.8
818	-0.802
819	-0.802
819	-0.81
820	-0.799
820	-0.798
820	-0.809
821	-0.808
821	-0.806
822	-0.807
822	-0.802
823	-0.805
823	-0.805
823	-0.792
824	-0.8
824	-0.824
825	-0.817
825	-0.808
826	-0.792
826	-0.778
826	-0.773
827	-0.752
827	-0.736
828	-0.739
828	-0.735
829	-0.72
829	-0.703
829	-0.697
830	-0.695
830	-0.702
831	-0.699
831	-0.683
832	-0.685
832	-0.68
832	-0.665
833	-0.657
833	-0.65
834	-0.644
834	-0.639
835	-0.632
835	-0.62
835	-0.612
836	-0.618
836	-0.614
837	-0.611
837	-0.605
838	-0.606
838	-0.595
839	-0.588
839	-0.584
839	-0.577
840	-0.572
840	-0.567
841	-0.558
841	-0.544
842	-0.536
842	-0.524
842	-0.514
843	-0.512
843	-0.506
844	-0.495
844	-0.483
845	-0.47
845	-0.463
845	-0.448
846	-0.44
846	-0.426
847	-0.419
847	-0.407
848	-0.389
848	-0.375
848	-0.361
849	-0.349
849	-0.338
850	-0.325
850	-0.314
851	-0.304
851	-0.291
851	-0.281
852	-0.268
852	-0.257
853	-0.25
853	-0.245
854	-0.235
854	-0.225
854	-0.215
855	-0.205
855	-0.195
856	-0.189
856	-0.18
857	-0.173
857	-0.166
857	-0.154
858	-0.142
858	-0.136
859	-0.125
859	-0.114
860	-0.106
860	-0.094
860	-0.084
861	-0.076
861	-0.067
862	-0.06
862	-0.054
863	-0.047
863	-0.039
863	-0.035
864	-0.03
864	-0.025
865	-0.02
865	-0.016
866	-0.012
866	-0.007
866	-0.004
867	0
867	0.004
868	0.007
868	0.01
869	0.013
869	0.016
869	0.017
870	0.018
870	0.019
871	0.02
871	0.02
872	0.02
872	0.02
872	0.021
873	0.022
873	0.024
874	0.025
874	0.026
875	0.028
875	0.029
875	0.029
876	0.03
876	0.031
877	0.032
877	0.033
878	0.034
878	0.034
878	0.034
879	0.033
879	0.032
880	0.031
880	0.03
881	0.029
881	0.028
881	0.027
882	0.026
882	0.025
883	0.024
883	0.023
884	0.022
884	0.021
884	0.021
885	0.02
885	0.02
886	0.019
886	0.018
887	0.017
887	0.016
887	0.016
888	0.016
888	0.016
889	0.015
889	0.014
890	0.013
890	0.013
890	0.013
891	0.012
891	0.011
892	0.011
892	0.01
893	0.009
893	0.008
893	0.008
894	0.008
894	0.008
895	0.008
895	0.008
895	0.008
896	0.009
896	0.009
897	0.01
897	0.01
898	0.011
898	0.012
898	0.012
899	0.013
899	0.014
900	0.014
900	0.014
901	0.014
901	0.015
901	0.015
902	0.015
902	0.015
903	0.015
903	0.015
904	0.015
904	0.014
904	0.014
905	0.014
905	0.013
906	0.012
906	0.013
907	0.012
907	0.012
907	0.012
908	0.012
908	0.012
909	0.012
909	0.013
910	0.014
910	0.014
910	0.015
911	0.015
911	0.016
912	0.017
912	0.018
913	0.018
913	0.019
913	0.019
914	0.019
914	0.019
915	0.019
915	0.02
916	0.02
916	0.02
916	0.019
917	0.019
917	0.019
918	0.02
918	0.02
918	0.021
919	0.021
919	0.022
920	0.023
920	0.024
921	0.024
921	0.025
921	0.026
922	0.026
922	0.027
923	0.027
923	0.026
924	0.026
924	0.026
924	0.025
925	0.025
925	0.024
926	0.023
926	0.023
927	0.022
927	0.022
927	0.022
928	0.021
928	0.021
929	0.021
929	0.02
930	0.02
930	0.019
930	0.018
931	0.017
931	0.015
932	0.014
932	0.013
933	0.011
933	0.009
933	0.008
934	0.006
934	0.005
935	0.004
935	0.002
935	0.001
936	0
936	0
937	-0
937	-0
938	0
938	0.001
938	0.001
939	0.001
939	0.001
940	0.002
940	0.003
941	0.003
941	0.003
941	0.003
942	0.003
942	0.003
943	0.002
943	0.002
944	0.002
944	0.001
944	0.001
945	0.001
945	0.001
946	0.001
946	0.001
946	0.002
947	0.002
947	0.003
948	0.004
948	0.005
949	0.005
949	0.006
949	0.007
950	0.007
950	0.007
951	0.008
951	0.007
952	0.007
952	0.007
952	0.007
953	0.007
953	0.007
954	0.007
954	0.007
955	0.007
955	0.008
955	0.008
956	0.009
956	0.01
957	0.01
957	0.011
957	0.011
958	0.011
958	0.012
959	0.012
959	0.013
960	0.013
960	0.014
960	0.015
961	0.015
961	0.016
962	0.017
962	0.018
963	0.019
963	0.02
963	0.019
964	0.019
964	0.019
965	0.019
965	0.019
966	0.018
966	0.017
966	0.016
967	0.015
967	0.014
968	0.013
968	0.012
968	0.011
969	0.01
969	0.009
970	0.008
970	0.007
971	0.006
971	0.005
971	0.004
972	0.004
972	0.003
973	0.003
973	0.003
974	0.002
974	0.002
974	0.002
975	0.002
975	0.002
976	0.001
976	0.001
976	-0
977	-0.001
977	-0.002
978	-0.002
978	-0.003
979	-0.003
979	-0.004
979	-0.004
980	-0.004
980	-0.005
981	-0.004
981	-0.004
982	-0.004
982	-0.003
982	-0.002
983	-0.001
983	-0
984	0
984	0.001
984	0.002
985	0.002
985	0.003
986	0.003
986	0.003
987	0.003
987	0.002
987	0.002
988	0.002
988	0.002
989	0.002
989	0.002
990	0.002
990	0.003
990	0.003
991	0.003
991	0.004
992	0.004
992	0.004
992	0.003
993	0.003
993	0.003
994	0.002
994	0.002
995	0.001
995	0
995	-0
996	-0.001
996	-0.001
997	-0.001
997	-0.001
997	-0.001
998	-0.001
998	-0.001
999	-0.001
999	-0.002
1000	-0.002
1000	-0.002
1000	-0.003
1001	-0.004
1001	-0.004
1002	-0.005
1002	-0.005
1003	-0.006
1003	-0.008
1003	-0.009
1004	-0.01
1004	-0.01
1005	-0.011
1005	-0.012
1005	-0.012
1006	-0.013
1006	-0.014
1007	-0.015
1007	-0.015
1008	-0.015
1008	-0.016
1008	-0.016
1009	-0.017
1009	-0.017
1010	-0.017
1010	-0.017
1010	-0.017
1011	-0.018
1011	-0.018
1012	-0.019
1012	-0.019
1013	-0.019
1013	-0.02
1013	-0.02
1014	-0.021
1014	-0.022
1015	-0.022
1015	-0.023
1016	-0.023
1016	-0.023
1016	-0.024
1017	-0.024
1017	-0.025
1018	-0.024
1018	-0.024
1018	-0.024
1019	-0.024
1019	-0.023
1020	-0.023
1020	-0.023
1021	-0.023
1021	-0.023
1021	-0.023
1022	-0.023
1022	-0.023
1023	-0.023
1023	-0.024
1023	-0.025
1024	-0.026
1024	-0.027
1025	-0.028
1025	-0.028
1026	-0.029
1026	-0.029
1026	-0.03
1027	-0.03
1027	-0.03
1028	-0.03
1028	-0.03
1028	-0.029
1029	-0.029
1029	-0.028
1030	-0.027
1030	-0.026
1031	-0.026
1031	-0.024
1031	-0.024
1032	-0.023
1032	-0.023
1033	-0.023
1033	-0.022
1033	-0.023
1034	-0.023
1034	-0.024
1035	-0.025
1035	-0.025
1036	-0.026
1036	-0.026
1036	-0.027
1037	-0.026
1037	-0.026
1038	-0.027
1038	-0.027
1039	-0.026
1039	-0.025
1039	-0.025
1040	-0.025
1040	-0.024
1041	-0.024
1041	-0.023
1041	-0.023
1042	-0.023
1042	-0.023
1043	-0.023
1043	-0.023
1044	-0.023
1044	-0.023
1044	-0.023
1045	-0.024
1045	-0.024
1046	-0.024
1046	-0.025
1046	-0.025
1047	-0.025
1047	-0.025
1048	-0.025
1048	-0.025
1049	-0.025
1049	-0.025
1049	-0.025
1050	-0.026
1050	-0.026
1051	-0.027
1051	-0.027
1051	-0.027
1052	-0.028
1052	-0.028
1053	-0.028
1053	-0.029
1053	-0.029
1054	-0.029
1054	-0.029
1055	-0.029
1055	-0.029
1056	-0.029
1056	-0.03
1056	-0.03
1057	-0.031
1057	-0.031
1058	-0.032
1058	-0.032
1058	-0.033
1059	-0.034
1059	-0.034
1060	-0.035
1060	-0.036
1061	-0.036
1061	-0.037
1061	-0.037
1062	-0.038
1062	-0.038
1063	-0.038
1063	-0.038
1063	-0.038
1064	-0.039
1064	-0.039
1065	-0.039
1065	-0.04
1066	-0.04
1066	-0.041
1066	-0.041
1067	-0.042
1067	-0.043
1068	-0.044
1068	-0.044
1068	-0.045
1069	-0.046
1069	-0.047
1070	-0.047
1070	-0.048
1071	-0.049
1071	-0.05
1071	-0.05
1072	-0.051
1072	-0.051
1073	-0.051
1073	-0.052
1073	-0.052
1074	-0.052
1074	-0.052
1075	-0.052
1075	-0.052
1076	-0.052
1076	-0.052
1076	-0.052
1077	-0.053
1077	-0.053
1078	-0.053
1078	-0.053
1078	-0.053
1079	-0.053
1079	-0.053
1080	-0.054
1080	-0.053
1080	-0.054
1081	-0.053
1081	-0.053
1082	-0.052
1082	-0.052
1083	-0.053
1083	-0.053
1083	-0.054
1084	-0.054
1084	-0.055
1085	-0.055
1085	-0.056
1085	-0.056
1086	-0.057
1086	-0.059
1087	-0.059
1087	-0.059
1088	-0.06
1088	-0.061
1088	-0.062
1089	-0.063
1089	-0.064
1090	-0.066
1090	-0.068
1090	-0.069
1091	-0.07
1091	-0.071
1092	-0.072
1092	-0.072
1092	-0.073
1093	-0.073
1093	-0.073
1094	-0.073
1094	-0.074
1095	-0.075
1095	-0.076
1095	-0.077
1096	-0.078
1096	-0.08
1097	-0.082
1097	-0.084
1097	-0.086
1098	-0.088
1098	-0.09
1099	-0.091
1099	-0.093
1100	-0.095
1100	-0.097
1100	-0.099
1101	-0.101
1101	-0.103
1102	-0.106
1102	-0.108
1102	-0.11
1103	-0.113
1103	-0.114
1104	-0.116
1104	-0.119
1104	-0.12
1105	-0.122
1105	-0.124
1106	-0.128
1106	-0.13
1107	-0.136
1107	-0.138
1107	-0.143
1108	-0.145
1108	-0.147
1109	-0.151
1109	-0.155
1109	-0.16
1110	-0.162
1110	-0.164
1111	-0.169
1111	-0.165
