Data from 40to5_hyst_3.5A_10sec_80mins_Absorbance__63__00685.txt Node

Date: Mon Jun 26 11:06:48 CEST 2023
User: Marek
Spectrometer: MAYP115816
Trigger mode: 0
Integration Time (sec): 2.500000E-1
Scans to average: 10
Electric dark correction enabled: true
Nonlinearity correction enabled: true
Boxcar width: 5
XAxis mode: Wavelengths
Number of Pixels in Spectrum: 2068
>>>>>Begin Spectral Data<<<<<
199	-0.782
199	-0.763
200	-0.729
200	-0.675
201	-0.631
201	-0.603
202	-0.582
202	-0.585
203	-0.574
203	-0.567
204	-0.549
204	-0.531
205	-0.514
205	-0.505
205	-0.507
206	-0.507
206	-0.521
207	-0.522
207	-0.519
208	-0.526
208	-0.53
209	-0.534
209	-0.547
210	-0.555
210	-0.557
211	-0.559
211	-0.569
212	-0.567
212	-0.57
213	-0.572
213	-0.572
213	-0.573
214	-0.572
214	-0.573
215	-0.567
215	-0.571
216	-0.569
216	-0.572
217	-0.57
217	-0.569
218	-0.572
218	-0.571
219	-0.572
219	-0.574
220	-0.575
220	-0.582
221	-0.59
221	-0.597
221	-0.598
222	-0.604
222	-0.601
223	-0.604
223	-0.601
224	-0.609
224	-0.602
225	-0.602
225	-0.605
226	-0.604
226	-0.601
227	-0.6
227	-0.608
228	-0.605
228	-0.606
229	-0.608
229	-0.601
229	-0.605
230	-0.606
230	-0.601
231	-0.589
231	-0.58
232	-0.577
232	-0.567
233	-0.58
233	-0.575
234	-0.581
234	-0.578
235	-0.578
235	-0.576
236	-0.579
236	-0.585
236	-0.594
237	-0.591
237	-0.588
238	-0.579
238	-0.583
239	-0.576
239	-0.579
240	-0.579
240	-0.578
241	-0.577
241	-0.58
242	-0.585
242	-0.592
243	-0.6
243	-0.607
243	-0.61
244	-0.611
244	-0.612
245	-0.625
245	-0.632
246	-0.641
246	-0.637
247	-0.638
247	-0.637
248	-0.631
248	-0.627
249	-0.629
249	-0.636
250	-0.642
250	-0.63
250	-0.625
251	-0.63
251	-0.636
252	-0.633
252	-0.633
253	-0.64
253	-0.648
254	-0.648
254	-0.648
255	-0.657
255	-0.665
256	-0.667
256	-0.663
257	-0.667
257	-0.666
258	-0.677
258	-0.673
258	-0.675
259	-0.672
259	-0.678
260	-0.673
260	-0.676
261	-0.677
261	-0.674
262	-0.673
262	-0.682
263	-0.674
263	-0.683
264	-0.688
264	-0.688
265	-0.685
265	-0.685
265	-0.684
266	-0.684
266	-0.692
267	-0.704
267	-0.701
268	-0.711
268	-0.7
269	-0.692
269	-0.701
270	-0.71
270	-0.711
271	-0.718
271	-0.727
272	-0.723
272	-0.709
272	-0.717
273	-0.714
273	-0.72
274	-0.717
274	-0.709
275	-0.705
275	-0.715
276	-0.708
276	-0.705
277	-0.702
277	-0.713
278	-0.716
278	-0.715
278	-0.73
279	-0.736
279	-0.738
280	-0.741
280	-0.737
281	-0.742
281	-0.759
282	-0.757
282	-0.755
283	-0.75
283	-0.759
284	-0.749
284	-0.748
285	-0.758
285	-0.742
285	-0.73
286	-0.73
286	-0.709
287	-0.714
287	-0.704
288	-0.69
288	-0.683
289	-0.674
289	-0.684
290	-0.679
290	-0.679
291	-0.684
291	-0.675
292	-0.675
292	-0.676
292	-0.685
293	-0.696
293	-0.692
294	-0.703
294	-0.686
295	-0.688
295	-0.691
296	-0.692
296	-0.696
297	-0.696
297	-0.687
298	-0.685
298	-0.681
298	-0.677
299	-0.663
299	-0.671
300	-0.669
300	-0.663
301	-0.658
301	-0.66
302	-0.665
302	-0.663
303	-0.651
303	-0.645
304	-0.645
304	-0.643
305	-0.637
305	-0.629
305	-0.64
306	-0.634
306	-0.63
307	-0.622
307	-0.621
308	-0.623
308	-0.62
309	-0.618
309	-0.62
310	-0.61
310	-0.603
311	-0.591
311	-0.589
311	-0.584
312	-0.571
312	-0.566
313	-0.554
313	-0.552
314	-0.551
314	-0.554
315	-0.554
315	-0.555
316	-0.551
316	-0.547
317	-0.538
317	-0.545
318	-0.54
318	-0.542
318	-0.528
319	-0.521
319	-0.503
320	-0.501
320	-0.502
321	-0.493
321	-0.491
322	-0.486
322	-0.48
323	-0.478
323	-0.474
324	-0.476
324	-0.465
324	-0.463
325	-0.445
325	-0.423
326	-0.419
326	-0.396
327	-0.382
327	-0.36
328	-0.329
328	-0.305
329	-0.278
329	-0.247
330	-0.213
330	-0.179
330	-0.146
331	-0.112
331	-0.078
332	-0.041
332	-0.009
333	0.021
333	0.056
334	0.087
334	0.112
335	0.141
335	0.162
336	0.188
336	0.213
336	0.231
337	0.251
337	0.269
338	0.287
338	0.299
339	0.314
339	0.328
340	0.338
340	0.348
341	0.356
341	0.363
342	0.371
342	0.378
342	0.383
343	0.388
343	0.394
344	0.398
344	0.401
345	0.404
345	0.407
346	0.41
346	0.413
347	0.415
347	0.416
348	0.419
348	0.42
348	0.422
349	0.422
349	0.424
350	0.425
350	0.426
351	0.426
351	0.427
352	0.427
352	0.428
353	0.428
353	0.428
354	0.428
354	0.429
354	0.429
355	0.428
355	0.428
356	0.428
356	0.428
357	0.429
357	0.429
358	0.428
358	0.429
359	0.429
359	0.428
360	0.428
360	0.428
360	0.428
361	0.428
361	0.428
362	0.427
362	0.427
363	0.427
363	0.427
364	0.426
364	0.426
365	0.427
365	0.426
366	0.426
366	0.426
366	0.426
367	0.425
367	0.425
368	0.424
368	0.424
369	0.423
369	0.423
370	0.422
370	0.422
371	0.421
371	0.421
372	0.421
372	0.42
372	0.42
373	0.419
373	0.419
374	0.418
374	0.418
375	0.417
375	0.417
376	0.416
376	0.416
377	0.416
377	0.415
378	0.415
378	0.414
378	0.414
379	0.414
379	0.414
380	0.413
380	0.412
381	0.412
381	0.411
382	0.411
382	0.41
383	0.41
383	0.409
383	0.408
384	0.408
384	0.407
385	0.406
385	0.406
386	0.406
386	0.405
387	0.405
387	0.405
388	0.404
388	0.404
389	0.404
389	0.403
389	0.403
390	0.402
390	0.402
391	0.401
391	0.401
392	0.4
392	0.399
393	0.399
393	0.399
394	0.398
394	0.398
394	0.397
395	0.397
395	0.396
396	0.396
396	0.395
397	0.395
397	0.395
398	0.394
398	0.394
399	0.393
399	0.393
400	0.392
400	0.392
400	0.392
401	0.391
401	0.39
402	0.39
402	0.389
403	0.389
403	0.388
404	0.388
404	0.387
405	0.387
405	0.386
405	0.386
406	0.386
406	0.385
407	0.385
407	0.385
408	0.384
408	0.384
409	0.384
409	0.383
410	0.383
410	0.383
411	0.382
411	0.382
411	0.382
412	0.381
412	0.381
413	0.38
413	0.38
414	0.379
414	0.379
415	0.379
415	0.378
416	0.378
416	0.377
416	0.377
417	0.377
417	0.376
418	0.376
418	0.376
419	0.376
419	0.376
420	0.376
420	0.376
421	0.375
421	0.375
421	0.375
422	0.375
422	0.375
423	0.375
423	0.375
424	0.375
424	0.374
425	0.374
425	0.374
426	0.374
426	0.373
427	0.373
427	0.373
427	0.372
428	0.372
428	0.372
429	0.372
429	0.371
430	0.371
430	0.371
431	0.371
431	0.371
432	0.371
432	0.371
432	0.371
433	0.37
433	0.37
434	0.37
434	0.37
435	0.37
435	0.37
436	0.37
436	0.369
437	0.369
437	0.369
437	0.369
438	0.368
438	0.368
439	0.368
439	0.368
440	0.368
440	0.368
441	0.368
441	0.369
442	0.369
442	0.369
442	0.369
443	0.369
443	0.369
444	0.369
444	0.37
445	0.37
445	0.37
446	0.37
446	0.37
447	0.37
447	0.37
447	0.37
448	0.37
448	0.37
449	0.369
449	0.369
450	0.369
450	0.37
451	0.37
451	0.37
452	0.371
452	0.371
452	0.371
453	0.372
453	0.372
454	0.373
454	0.373
455	0.373
455	0.374
456	0.374
456	0.374
457	0.375
457	0.375
458	0.375
458	0.375
458	0.376
459	0.376
459	0.376
460	0.376
460	0.377
461	0.377
461	0.378
462	0.378
462	0.379
463	0.38
463	0.38
463	0.381
464	0.381
464	0.382
465	0.383
465	0.384
466	0.384
466	0.385
467	0.386
467	0.386
467	0.387
468	0.387
468	0.388
469	0.389
469	0.391
470	0.391
470	0.392
471	0.393
471	0.394
472	0.395
472	0.396
472	0.397
473	0.398
473	0.399
474	0.4
474	0.401
475	0.402
475	0.404
476	0.405
476	0.407
477	0.408
477	0.41
477	0.411
478	0.413
478	0.415
479	0.416
479	0.418
480	0.419
480	0.421
481	0.423
481	0.425
482	0.427
482	0.428
482	0.43
483	0.432
483	0.435
484	0.437
484	0.439
485	0.441
485	0.444
486	0.446
486	0.448
487	0.45
487	0.453
487	0.455
488	0.457
488	0.46
489	0.463
489	0.466
490	0.469
490	0.472
491	0.475
491	0.478
492	0.481
492	0.484
492	0.486
493	0.49
493	0.493
494	0.497
494	0.501
495	0.504
495	0.507
496	0.511
496	0.515
496	0.518
497	0.522
497	0.526
498	0.529
498	0.533
499	0.537
499	0.541
500	0.545
500	0.55
501	0.554
501	0.558
501	0.561
502	0.566
502	0.57
503	0.575
503	0.579
504	0.582
504	0.586
505	0.591
505	0.595
506	0.599
506	0.604
506	0.609
507	0.613
507	0.617
508	0.622
508	0.626
509	0.63
509	0.635
510	0.64
510	0.644
511	0.648
511	0.652
511	0.656
512	0.66
512	0.664
513	0.668
513	0.672
514	0.676
514	0.68
515	0.683
515	0.686
515	0.689
516	0.693
516	0.696
517	0.699
517	0.701
518	0.704
518	0.706
519	0.708
519	0.71
520	0.713
520	0.715
520	0.717
521	0.719
521	0.72
522	0.722
522	0.724
523	0.725
523	0.727
524	0.728
524	0.729
524	0.73
525	0.73
525	0.731
526	0.731
526	0.731
527	0.731
527	0.731
528	0.73
528	0.729
529	0.729
529	0.728
529	0.727
530	0.726
530	0.725
531	0.724
531	0.722
532	0.72
532	0.718
533	0.716
533	0.714
533	0.712
534	0.709
534	0.706
535	0.703
535	0.7
536	0.697
536	0.693
537	0.689
537	0.686
538	0.682
538	0.679
538	0.675
539	0.671
539	0.667
540	0.663
540	0.658
541	0.654
541	0.649
542	0.644
542	0.639
542	0.634
543	0.629
543	0.624
544	0.619
544	0.614
545	0.608
545	0.603
546	0.598
546	0.592
547	0.586
547	0.58
547	0.574
548	0.569
548	0.563
549	0.557
549	0.551
550	0.545
550	0.538
551	0.531
551	0.525
551	0.518
552	0.512
552	0.506
553	0.5
553	0.494
554	0.488
554	0.482
555	0.476
555	0.47
556	0.464
556	0.458
556	0.453
557	0.447
557	0.441
558	0.435
558	0.429
559	0.422
559	0.416
560	0.41
560	0.404
560	0.399
561	0.394
561	0.388
562	0.383
562	0.378
563	0.372
563	0.367
564	0.362
564	0.356
564	0.351
565	0.346
565	0.341
566	0.335
566	0.33
567	0.325
567	0.321
568	0.316
568	0.311
568	0.307
569	0.303
569	0.298
570	0.294
570	0.289
571	0.286
571	0.282
572	0.277
572	0.273
573	0.269
573	0.265
573	0.26
574	0.256
574	0.252
575	0.248
575	0.245
576	0.241
576	0.236
577	0.232
577	0.228
577	0.225
578	0.222
578	0.219
579	0.217
579	0.213
580	0.208
580	0.204
581	0.2
581	0.197
581	0.195
582	0.193
582	0.191
583	0.189
583	0.185
584	0.181
584	0.177
585	0.175
585	0.173
585	0.17
586	0.167
586	0.165
587	0.162
587	0.159
588	0.156
588	0.154
589	0.152
589	0.15
590	0.148
590	0.146
590	0.144
591	0.142
591	0.139
592	0.137
592	0.134
593	0.133
593	0.131
594	0.129
594	0.127
594	0.125
595	0.123
595	0.121
596	0.118
596	0.117
597	0.116
597	0.114
598	0.112
598	0.111
598	0.109
599	0.108
599	0.106
600	0.104
600	0.103
601	0.102
601	0.1
602	0.098
602	0.097
602	0.095
603	0.094
603	0.093
604	0.092
604	0.09
605	0.089
605	0.088
606	0.086
606	0.083
606	0.081
607	0.08
607	0.078
608	0.077
608	0.074
609	0.073
609	0.072
610	0.071
610	0.07
610	0.069
611	0.069
611	0.069
612	0.068
612	0.068
613	0.068
613	0.067
614	0.066
614	0.065
614	0.064
615	0.063
615	0.062
616	0.061
616	0.059
617	0.058
617	0.056
618	0.054
618	0.053
618	0.052
619	0.05
619	0.05
620	0.049
620	0.049
621	0.048
621	0.047
622	0.046
622	0.046
622	0.044
623	0.044
623	0.044
624	0.043
624	0.042
625	0.04
625	0.039
626	0.038
626	0.037
626	0.036
627	0.035
627	0.034
628	0.033
628	0.033
629	0.032
629	0.032
630	0.031
630	0.03
630	0.03
631	0.03
631	0.029
632	0.028
632	0.028
633	0.028
633	0.027
634	0.027
634	0.027
634	0.027
635	0.027
635	0.027
636	0.027
636	0.026
637	0.026
637	0.025
638	0.024
638	0.023
638	0.022
639	0.02
639	0.018
640	0.017
640	0.016
641	0.015
641	0.013
642	0.012
642	0.01
642	0.009
643	0.007
643	0.006
644	0.004
644	0.002
645	0
645	-0.002
646	-0.005
646	-0.008
646	-0.011
647	-0.014
647	-0.018
648	-0.022
648	-0.025
649	-0.028
649	-0.031
650	-0.033
650	-0.036
650	-0.039
651	-0.043
651	-0.047
652	-0.053
652	-0.058
653	-0.063
653	-0.068
653	-0.066
654	-0.061
654	-0.062
655	-0.066
655	-0.07
656	-0.072
656	-0.077
657	-0.079
657	-0.083
657	-0.087
658	-0.09
658	-0.107
659	-0.151
659	-0.197
660	-0.222
660	-0.237
661	-0.254
661	-0.272
661	-0.292
662	-0.309
662	-0.325
663	-0.341
663	-0.362
664	-0.378
664	-0.403
665	-0.42
665	-0.438
665	-0.46
666	-0.482
666	-0.502
667	-0.524
667	-0.552
668	-0.582
668	-0.612
669	-0.648
669	-0.686
669	-0.733
670	-0.791
670	-0.895
671	-1.136
671	-1.478
672	-1.793
672	-2.059
672	-2.289
673	-2.452
673	-2.488
674	-2.5
674	-2.508
675	-2.519
675	-2.522
676	-2.518
676	-2.529
676	-2.584
677	-2.47
677	-2.074
678	-1.452
678	-1.035
679	-0.909
679	-0.863
680	-0.829
680	-0.795
680	-0.767
681	-0.764
681	-0.75
682	-0.752
682	-0.745
683	-0.737
683	-0.744
684	-0.738
684	-0.737
684	-0.728
685	-0.734
685	-0.739
686	-0.73
686	-0.721
687	-0.717
687	-0.722
687	-0.715
688	-0.711
688	-0.715
689	-0.711
689	-0.71
690	-0.707
690	-0.71
691	-0.709
691	-0.711
691	-0.703
692	-0.7
692	-0.707
693	-0.71
693	-0.713
694	-0.711
694	-0.713
695	-0.717
695	-0.708
695	-0.708
696	-0.714
696	-0.713
697	-0.714
697	-0.71
698	-0.7
698	-0.697
698	-0.708
699	-0.708
699	-0.706
700	-0.727
700	-0.729
701	-0.735
701	-0.753
702	-0.77
702	-0.782
702	-0.79
703	-0.793
703	-0.781
704	-0.783
704	-0.779
705	-0.779
705	-0.78
705	-0.764
706	-0.756
706	-0.74
707	-0.743
707	-0.748
708	-0.741
708	-0.747
709	-0.752
709	-0.754
709	-0.74
710	-0.749
710	-0.753
711	-0.749
711	-0.755
712	-0.742
712	-0.733
713	-0.742
713	-0.747
713	-0.74
714	-0.747
714	-0.763
715	-0.759
715	-0.776
716	-0.791
716	-0.784
716	-0.792
717	-0.806
717	-0.805
718	-0.8
718	-0.81
719	-0.814
719	-0.789
720	-0.791
720	-0.78
720	-0.778
721	-0.778
721	-0.781
722	-0.775
722	-0.772
723	-0.768
723	-0.762
723	-0.75
724	-0.763
724	-0.754
725	-0.751
725	-0.749
726	-0.757
726	-0.754
727	-0.756
727	-0.754
727	-0.758
728	-0.764
728	-0.767
729	-0.765
729	-0.781
730	-0.79
730	-0.788
730	-0.781
731	-0.774
731	-0.785
732	-0.786
732	-0.783
733	-0.784
733	-0.791
734	-0.786
734	-0.779
734	-0.759
735	-0.763
735	-0.769
736	-0.775
736	-0.759
737	-0.758
737	-0.755
737	-0.739
738	-0.735
738	-0.743
739	-0.746
739	-0.753
740	-0.758
740	-0.754
741	-0.75
741	-0.761
741	-0.761
742	-0.757
742	-0.78
743	-0.771
743	-0.769
744	-0.757
744	-0.756
744	-0.746
745	-0.751
745	-0.762
746	-0.755
746	-0.763
747	-0.77
747	-0.753
748	-0.759
748	-0.762
748	-0.777
749	-0.785
749	-0.786
750	-0.773
750	-0.768
751	-0.77
751	-0.756
751	-0.759
752	-0.768
752	-0.771
753	-0.768
753	-0.757
754	-0.758
754	-0.741
754	-0.757
755	-0.756
755	-0.766
756	-0.783
756	-0.772
757	-0.76
757	-0.757
758	-0.745
758	-0.747
758	-0.742
759	-0.76
759	-0.766
760	-0.76
760	-0.743
761	-0.74
761	-0.748
761	-0.765
762	-0.758
762	-0.77
763	-0.762
763	-0.772
764	-0.767
764	-0.756
764	-0.773
765	-0.788
765	-0.788
766	-0.785
766	-0.769
767	-0.784
767	-0.78
768	-0.787
768	-0.795
768	-0.785
769	-0.79
769	-0.775
770	-0.78
770	-0.772
771	-0.776
771	-0.781
771	-0.782
772	-0.796
772	-0.808
773	-0.796
773	-0.818
774	-0.814
774	-0.818
775	-0.805
775	-0.809
775	-0.809
776	-0.815
776	-0.81
777	-0.802
777	-0.796
778	-0.801
778	-0.79
778	-0.802
779	-0.815
779	-0.831
780	-0.839
780	-0.843
781	-0.854
781	-0.857
781	-0.87
782	-0.874
782	-0.874
783	-0.885
783	-0.89
784	-0.875
784	-0.86
784	-0.875
785	-0.879
785	-0.881
786	-0.888
786	-0.873
787	-0.862
787	-0.887
788	-0.882
788	-0.86
788	-0.856
789	-0.853
789	-0.84
790	-0.839
790	-0.832
791	-0.843
791	-0.856
791	-0.859
792	-0.835
792	-0.842
793	-0.851
793	-0.865
794	-0.87
794	-0.873
794	-0.867
795	-0.856
795	-0.837
796	-0.812
796	-0.823
797	-0.831
797	-0.815
797	-0.825
798	-0.819
798	-0.83
799	-0.817
799	-0.826
800	-0.83
800	-0.841
801	-0.859
801	-0.846
801	-0.831
802	-0.83
802	-0.807
803	-0.8
803	-0.79
804	-0.791
804	-0.788
804	-0.786
805	-0.779
805	-0.769
806	-0.764
806	-0.77
807	-0.774
807	-0.783
807	-0.788
808	-0.784
808	-0.783
809	-0.775
809	-0.765
810	-0.768
810	-0.758
810	-0.763
811	-0.754
811	-0.757
812	-0.757
812	-0.772
813	-0.769
813	-0.77
813	-0.766
814	-0.779
814	-0.766
815	-0.773
815	-0.783
816	-0.781
816	-0.784
817	-0.791
817	-0.77
817	-0.787
818	-0.792
818	-0.795
819	-0.796
819	-0.804
820	-0.793
820	-0.792
820	-0.805
821	-0.802
821	-0.8
822	-0.804
822	-0.802
823	-0.807
823	-0.806
823	-0.792
824	-0.798
824	-0.823
825	-0.816
825	-0.806
826	-0.79
826	-0.775
826	-0.773
827	-0.753
827	-0.738
828	-0.739
828	-0.733
829	-0.723
829	-0.706
829	-0.701
830	-0.698
830	-0.706
831	-0.703
831	-0.687
832	-0.687
832	-0.68
832	-0.666
833	-0.658
833	-0.649
834	-0.644
834	-0.64
835	-0.63
835	-0.621
835	-0.614
836	-0.621
836	-0.619
837	-0.616
837	-0.613
838	-0.613
838	-0.604
839	-0.599
839	-0.595
839	-0.592
840	-0.586
840	-0.58
841	-0.57
841	-0.556
842	-0.549
842	-0.538
842	-0.528
843	-0.526
843	-0.518
844	-0.504
844	-0.493
845	-0.48
845	-0.473
845	-0.458
846	-0.45
846	-0.436
847	-0.432
847	-0.421
848	-0.405
848	-0.394
848	-0.384
849	-0.371
849	-0.362
850	-0.35
850	-0.341
851	-0.334
851	-0.324
851	-0.313
852	-0.301
852	-0.291
853	-0.285
853	-0.28
854	-0.271
854	-0.264
854	-0.256
855	-0.248
855	-0.237
856	-0.23
856	-0.224
857	-0.218
857	-0.212
857	-0.201
858	-0.191
858	-0.186
859	-0.177
859	-0.168
860	-0.161
860	-0.152
860	-0.143
861	-0.136
861	-0.129
862	-0.123
862	-0.119
863	-0.114
863	-0.107
863	-0.103
864	-0.099
864	-0.093
865	-0.088
865	-0.085
866	-0.081
866	-0.077
866	-0.074
867	-0.07
867	-0.066
868	-0.063
868	-0.061
869	-0.057
869	-0.055
869	-0.054
870	-0.052
870	-0.051
871	-0.049
871	-0.048
872	-0.048
872	-0.047
872	-0.047
873	-0.046
873	-0.046
874	-0.046
874	-0.046
875	-0.046
875	-0.047
875	-0.047
876	-0.048
876	-0.048
877	-0.049
877	-0.05
878	-0.051
878	-0.052
878	-0.053
879	-0.054
879	-0.055
880	-0.056
880	-0.056
881	-0.057
881	-0.057
881	-0.058
882	-0.059
882	-0.06
883	-0.06
883	-0.061
884	-0.062
884	-0.063
884	-0.063
885	-0.064
885	-0.064
886	-0.065
886	-0.066
887	-0.066
887	-0.066
887	-0.066
888	-0.066
888	-0.067
889	-0.068
889	-0.068
890	-0.068
890	-0.069
890	-0.069
891	-0.069
891	-0.07
892	-0.071
892	-0.072
893	-0.072
893	-0.073
893	-0.072
894	-0.072
894	-0.072
895	-0.072
895	-0.072
895	-0.071
896	-0.07
896	-0.07
897	-0.069
897	-0.068
898	-0.067
898	-0.066
898	-0.065
899	-0.064
899	-0.063
900	-0.062
900	-0.062
901	-0.061
901	-0.06
901	-0.06
902	-0.059
902	-0.059
903	-0.06
903	-0.059
904	-0.059
904	-0.06
904	-0.06
905	-0.06
905	-0.061
906	-0.061
906	-0.061
907	-0.061
907	-0.061
907	-0.06
908	-0.06
908	-0.059
909	-0.058
909	-0.057
910	-0.056
910	-0.055
910	-0.054
911	-0.053
911	-0.052
912	-0.051
912	-0.05
913	-0.049
913	-0.048
913	-0.047
914	-0.047
914	-0.046
915	-0.046
915	-0.045
916	-0.045
916	-0.045
916	-0.045
917	-0.045
917	-0.044
918	-0.044
918	-0.044
918	-0.043
919	-0.043
919	-0.042
920	-0.042
920	-0.041
921	-0.04
921	-0.04
921	-0.039
922	-0.039
922	-0.039
923	-0.04
923	-0.04
924	-0.041
924	-0.042
924	-0.042
925	-0.043
925	-0.044
926	-0.045
926	-0.046
927	-0.046
927	-0.047
927	-0.047
928	-0.048
928	-0.048
929	-0.049
929	-0.049
930	-0.05
930	-0.051
930	-0.052
931	-0.053
931	-0.054
932	-0.055
932	-0.056
933	-0.057
933	-0.059
933	-0.06
934	-0.061
934	-0.063
935	-0.064
935	-0.065
935	-0.066
936	-0.067
936	-0.067
937	-0.068
937	-0.068
938	-0.068
938	-0.067
938	-0.067
939	-0.067
939	-0.066
940	-0.066
940	-0.065
941	-0.065
941	-0.064
941	-0.064
942	-0.064
942	-0.064
943	-0.064
943	-0.064
944	-0.065
944	-0.065
944	-0.065
945	-0.064
945	-0.064
946	-0.063
946	-0.063
946	-0.062
947	-0.061
947	-0.06
948	-0.059
948	-0.058
949	-0.057
949	-0.056
949	-0.055
950	-0.055
950	-0.055
951	-0.054
951	-0.054
952	-0.054
952	-0.054
952	-0.055
953	-0.055
953	-0.054
954	-0.055
954	-0.055
955	-0.054
955	-0.054
955	-0.053
956	-0.052
956	-0.051
957	-0.051
957	-0.05
957	-0.05
958	-0.05
958	-0.049
959	-0.048
959	-0.047
960	-0.047
960	-0.046
960	-0.045
961	-0.044
961	-0.043
962	-0.041
962	-0.04
963	-0.039
963	-0.038
963	-0.038
964	-0.038
964	-0.038
965	-0.038
965	-0.039
966	-0.04
966	-0.04
966	-0.041
967	-0.042
967	-0.043
968	-0.044
968	-0.045
968	-0.046
969	-0.048
969	-0.049
970	-0.05
970	-0.051
971	-0.052
971	-0.053
971	-0.053
972	-0.054
972	-0.054
973	-0.054
973	-0.055
974	-0.055
974	-0.055
974	-0.055
975	-0.055
975	-0.055
976	-0.055
976	-0.055
976	-0.056
977	-0.056
977	-0.056
978	-0.057
978	-0.057
979	-0.057
979	-0.057
979	-0.057
980	-0.057
980	-0.057
981	-0.057
981	-0.056
982	-0.056
982	-0.055
982	-0.054
983	-0.054
983	-0.053
984	-0.052
984	-0.052
984	-0.051
985	-0.051
985	-0.051
986	-0.051
986	-0.051
987	-0.051
987	-0.051
987	-0.052
988	-0.052
988	-0.052
989	-0.052
989	-0.052
990	-0.052
990	-0.052
990	-0.052
991	-0.051
991	-0.051
992	-0.051
992	-0.051
992	-0.052
993	-0.052
993	-0.052
994	-0.053
994	-0.054
995	-0.054
995	-0.055
995	-0.055
996	-0.056
996	-0.056
997	-0.056
997	-0.057
997	-0.056
998	-0.056
998	-0.056
999	-0.056
999	-0.056
1000	-0.056
1000	-0.057
1000	-0.057
1001	-0.058
1001	-0.058
1002	-0.059
1002	-0.06
1003	-0.061
1003	-0.062
1003	-0.063
1004	-0.064
1004	-0.065
1005	-0.066
1005	-0.067
1005	-0.069
1006	-0.07
1006	-0.07
1007	-0.071
1007	-0.072
1008	-0.072
1008	-0.072
1008	-0.073
1009	-0.073
1009	-0.073
1010	-0.073
1010	-0.073
1010	-0.073
1011	-0.073
1011	-0.073
1012	-0.073
1012	-0.073
1013	-0.074
1013	-0.074
1013	-0.075
1014	-0.075
1014	-0.076
1015	-0.077
1015	-0.077
1016	-0.078
1016	-0.078
1016	-0.078
1017	-0.079
1017	-0.079
1018	-0.079
1018	-0.079
1018	-0.078
1019	-0.077
1019	-0.077
1020	-0.077
1020	-0.077
1021	-0.077
1021	-0.077
1021	-0.077
1022	-0.077
1022	-0.077
1023	-0.078
1023	-0.078
1023	-0.079
1024	-0.08
1024	-0.081
1025	-0.081
1025	-0.082
1026	-0.082
1026	-0.082
1026	-0.082
1027	-0.082
1027	-0.082
1028	-0.081
1028	-0.081
1028	-0.08
1029	-0.079
1029	-0.078
1030	-0.078
1030	-0.077
1031	-0.076
1031	-0.076
1031	-0.075
1032	-0.075
1032	-0.074
1033	-0.074
1033	-0.074
1033	-0.075
1034	-0.075
1034	-0.076
1035	-0.076
1035	-0.077
1036	-0.078
1036	-0.078
1036	-0.079
1037	-0.079
1037	-0.078
1038	-0.078
1038	-0.078
1039	-0.077
1039	-0.077
1039	-0.076
1040	-0.076
1040	-0.075
1041	-0.074
1041	-0.074
1041	-0.074
1042	-0.074
1042	-0.073
1043	-0.073
1043	-0.073
1044	-0.073
1044	-0.073
1044	-0.073
1045	-0.073
1045	-0.073
1046	-0.074
1046	-0.074
1046	-0.074
1047	-0.074
1047	-0.074
1048	-0.074
1048	-0.074
1049	-0.074
1049	-0.075
1049	-0.075
1050	-0.076
1050	-0.076
1051	-0.077
1051	-0.077
1051	-0.077
1052	-0.078
1052	-0.078
1053	-0.078
1053	-0.078
1053	-0.078
1054	-0.078
1054	-0.078
1055	-0.077
1055	-0.077
1056	-0.077
1056	-0.077
1056	-0.077
1057	-0.078
1057	-0.078
1058	-0.079
1058	-0.079
1058	-0.08
1059	-0.08
1059	-0.081
1060	-0.082
1060	-0.082
1061	-0.082
1061	-0.082
1061	-0.082
1062	-0.083
1062	-0.082
1063	-0.083
1063	-0.083
1063	-0.083
1064	-0.083
1064	-0.083
1065	-0.084
1065	-0.085
1066	-0.085
1066	-0.086
1066	-0.086
1067	-0.087
1067	-0.088
1068	-0.088
1068	-0.089
1068	-0.089
1069	-0.09
1069	-0.091
1070	-0.092
1070	-0.092
1071	-0.093
1071	-0.094
1071	-0.094
1072	-0.095
1072	-0.095
1073	-0.096
1073	-0.096
1073	-0.097
1074	-0.097
1074	-0.097
1075	-0.097
1075	-0.096
1076	-0.096
1076	-0.096
1076	-0.097
1077	-0.097
1077	-0.097
1078	-0.097
1078	-0.097
1078	-0.097
1079	-0.097
1079	-0.097
1080	-0.097
1080	-0.096
1080	-0.097
1081	-0.096
1081	-0.096
1082	-0.095
1082	-0.096
1083	-0.096
1083	-0.097
1083	-0.097
1084	-0.097
1084	-0.097
1085	-0.098
1085	-0.098
1085	-0.099
1086	-0.099
1086	-0.1
1087	-0.1
1087	-0.1
1088	-0.1
1088	-0.101
1088	-0.102
1089	-0.104
1089	-0.105
1090	-0.106
1090	-0.107
1090	-0.109
1091	-0.11
1091	-0.111
1092	-0.113
1092	-0.113
1092	-0.113
1093	-0.115
1093	-0.114
1094	-0.115
1094	-0.116
1095	-0.116
1095	-0.117
1095	-0.118
1096	-0.119
1096	-0.121
1097	-0.122
1097	-0.124
1097	-0.125
1098	-0.128
1098	-0.13
1099	-0.13
1099	-0.132
1100	-0.132
1100	-0.134
1100	-0.136
1101	-0.138
1101	-0.14
1102	-0.143
1102	-0.145
1102	-0.146
1103	-0.148
1103	-0.149
1104	-0.151
1104	-0.154
1104	-0.155
1105	-0.157
1105	-0.159
1106	-0.162
1106	-0.163
1107	-0.168
1107	-0.171
1107	-0.175
1108	-0.177
1108	-0.179
1109	-0.183
1109	-0.185
1109	-0.189
1110	-0.19
1110	-0.194
1111	-0.201
1111	-0.197
