Data from 40to5_hyst_3.5A_10sec_80mins_Absorbance__221__00843.txt Node

Date: Mon Jun 26 11:33:08 CEST 2023
User: Marek
Spectrometer: MAYP115816
Trigger mode: 0
Integration Time (sec): 2.500000E-1
Scans to average: 10
Electric dark correction enabled: true
Nonlinearity correction enabled: true
Boxcar width: 5
XAxis mode: Wavelengths
Number of Pixels in Spectrum: 2068
>>>>>Begin Spectral Data<<<<<
199	-0.756
199	-0.741
200	-0.71
200	-0.658
201	-0.618
201	-0.592
202	-0.576
202	-0.583
203	-0.575
203	-0.568
204	-0.549
204	-0.533
205	-0.515
205	-0.506
205	-0.509
206	-0.51
206	-0.524
207	-0.524
207	-0.519
208	-0.524
208	-0.528
209	-0.533
209	-0.544
210	-0.555
210	-0.556
211	-0.557
211	-0.565
212	-0.563
212	-0.568
213	-0.573
213	-0.572
213	-0.572
214	-0.571
214	-0.574
215	-0.568
215	-0.573
216	-0.572
216	-0.576
217	-0.574
217	-0.571
218	-0.57
218	-0.571
219	-0.574
219	-0.576
220	-0.578
220	-0.586
221	-0.594
221	-0.602
221	-0.602
222	-0.606
222	-0.606
223	-0.609
223	-0.607
224	-0.614
224	-0.608
225	-0.607
225	-0.609
226	-0.608
226	-0.605
227	-0.604
227	-0.611
228	-0.606
228	-0.608
229	-0.61
229	-0.603
229	-0.606
230	-0.608
230	-0.604
231	-0.593
231	-0.582
232	-0.58
232	-0.572
233	-0.583
233	-0.577
234	-0.584
234	-0.581
235	-0.582
235	-0.578
236	-0.582
236	-0.588
236	-0.597
237	-0.596
237	-0.594
238	-0.588
238	-0.594
239	-0.585
239	-0.588
240	-0.587
240	-0.589
241	-0.585
241	-0.587
242	-0.592
242	-0.597
243	-0.604
243	-0.61
243	-0.612
244	-0.615
244	-0.617
245	-0.628
245	-0.634
246	-0.644
246	-0.641
247	-0.647
247	-0.644
248	-0.638
248	-0.635
249	-0.637
249	-0.643
250	-0.649
250	-0.64
250	-0.635
251	-0.64
251	-0.649
252	-0.642
252	-0.644
253	-0.651
253	-0.661
254	-0.661
254	-0.663
255	-0.673
255	-0.678
256	-0.68
256	-0.679
257	-0.68
257	-0.682
258	-0.691
258	-0.689
258	-0.689
259	-0.687
259	-0.69
260	-0.685
260	-0.688
261	-0.689
261	-0.686
262	-0.688
262	-0.696
263	-0.691
263	-0.699
264	-0.706
264	-0.708
265	-0.705
265	-0.705
265	-0.705
266	-0.706
266	-0.712
267	-0.721
267	-0.716
268	-0.723
268	-0.715
269	-0.705
269	-0.713
270	-0.722
270	-0.722
271	-0.732
271	-0.74
272	-0.74
272	-0.726
272	-0.734
273	-0.734
273	-0.738
274	-0.734
274	-0.727
275	-0.726
275	-0.737
276	-0.73
276	-0.725
277	-0.719
277	-0.728
278	-0.732
278	-0.729
278	-0.745
279	-0.75
279	-0.755
280	-0.755
280	-0.751
281	-0.756
281	-0.776
282	-0.773
282	-0.775
283	-0.77
283	-0.782
284	-0.771
284	-0.77
285	-0.781
285	-0.766
285	-0.755
286	-0.754
286	-0.734
287	-0.74
287	-0.729
288	-0.714
288	-0.706
289	-0.698
289	-0.707
290	-0.702
290	-0.699
291	-0.705
291	-0.696
292	-0.695
292	-0.697
292	-0.708
293	-0.718
293	-0.716
294	-0.728
294	-0.715
295	-0.712
295	-0.715
296	-0.715
296	-0.719
297	-0.718
297	-0.708
298	-0.703
298	-0.703
298	-0.696
299	-0.681
299	-0.688
300	-0.688
300	-0.683
301	-0.677
301	-0.677
302	-0.68
302	-0.679
303	-0.666
303	-0.657
304	-0.659
304	-0.659
305	-0.653
305	-0.646
305	-0.655
306	-0.652
306	-0.649
307	-0.64
307	-0.638
308	-0.641
308	-0.639
309	-0.637
309	-0.637
310	-0.624
310	-0.621
311	-0.612
311	-0.608
311	-0.602
312	-0.589
312	-0.588
313	-0.578
313	-0.579
314	-0.579
314	-0.58
315	-0.583
315	-0.58
316	-0.576
316	-0.573
317	-0.565
317	-0.572
318	-0.564
318	-0.566
318	-0.55
319	-0.545
319	-0.528
320	-0.527
320	-0.527
321	-0.517
321	-0.514
322	-0.511
322	-0.508
323	-0.508
323	-0.504
324	-0.507
324	-0.497
324	-0.496
325	-0.478
325	-0.459
326	-0.455
326	-0.435
327	-0.421
327	-0.399
328	-0.373
328	-0.352
329	-0.329
329	-0.303
330	-0.274
330	-0.248
330	-0.221
331	-0.195
331	-0.171
332	-0.144
332	-0.12
333	-0.096
333	-0.07
334	-0.048
334	-0.031
335	-0.01
335	0.005
336	0.022
336	0.039
336	0.052
337	0.065
337	0.078
338	0.089
338	0.097
339	0.109
339	0.118
340	0.125
340	0.133
341	0.138
341	0.144
342	0.15
342	0.155
342	0.159
343	0.162
343	0.167
344	0.169
344	0.172
345	0.176
345	0.178
346	0.181
346	0.184
347	0.186
347	0.188
348	0.19
348	0.192
348	0.194
349	0.196
349	0.197
350	0.199
350	0.2
351	0.201
351	0.202
352	0.203
352	0.204
353	0.206
353	0.207
354	0.208
354	0.209
354	0.21
355	0.21
355	0.211
356	0.212
356	0.212
357	0.214
357	0.214
358	0.215
358	0.215
359	0.216
359	0.216
360	0.217
360	0.217
360	0.218
361	0.218
361	0.219
362	0.219
362	0.22
363	0.221
363	0.221
364	0.222
364	0.223
365	0.223
365	0.224
366	0.224
366	0.225
366	0.225
367	0.225
367	0.225
368	0.225
368	0.225
369	0.225
369	0.225
370	0.225
370	0.226
371	0.226
371	0.226
372	0.226
372	0.227
372	0.227
373	0.227
373	0.227
374	0.228
374	0.228
375	0.228
375	0.228
376	0.228
376	0.229
377	0.228
377	0.229
378	0.229
378	0.229
378	0.229
379	0.229
379	0.229
380	0.229
380	0.229
381	0.229
381	0.229
382	0.229
382	0.229
383	0.229
383	0.229
383	0.229
384	0.229
384	0.229
385	0.229
385	0.229
386	0.229
386	0.229
387	0.23
387	0.23
388	0.23
388	0.23
389	0.23
389	0.23
389	0.23
390	0.23
390	0.23
391	0.23
391	0.23
392	0.23
392	0.229
393	0.229
393	0.229
394	0.229
394	0.229
394	0.229
395	0.229
395	0.229
396	0.229
396	0.229
397	0.229
397	0.229
398	0.229
398	0.229
399	0.229
399	0.229
400	0.228
400	0.228
400	0.228
401	0.228
401	0.228
402	0.228
402	0.228
403	0.228
403	0.228
404	0.228
404	0.228
405	0.228
405	0.228
405	0.227
406	0.228
406	0.227
407	0.228
407	0.227
408	0.227
408	0.227
409	0.227
409	0.227
410	0.227
410	0.227
411	0.227
411	0.227
411	0.227
412	0.226
412	0.226
413	0.226
413	0.226
414	0.226
414	0.226
415	0.225
415	0.225
416	0.225
416	0.225
416	0.225
417	0.224
417	0.224
418	0.225
418	0.224
419	0.224
419	0.224
420	0.225
420	0.225
421	0.225
421	0.225
421	0.225
422	0.225
422	0.225
423	0.225
423	0.225
424	0.224
424	0.224
425	0.224
425	0.224
426	0.224
426	0.224
427	0.224
427	0.223
427	0.223
428	0.223
428	0.223
429	0.223
429	0.222
430	0.222
430	0.222
431	0.222
431	0.222
432	0.222
432	0.222
432	0.222
433	0.221
433	0.221
434	0.221
434	0.221
435	0.222
435	0.221
436	0.221
436	0.221
437	0.22
437	0.22
437	0.22
438	0.22
438	0.22
439	0.22
439	0.219
440	0.219
440	0.219
441	0.219
441	0.219
442	0.219
442	0.219
442	0.219
443	0.219
443	0.219
444	0.219
444	0.219
445	0.219
445	0.219
446	0.219
446	0.218
447	0.218
447	0.218
447	0.218
448	0.218
448	0.217
449	0.217
449	0.217
450	0.217
450	0.217
451	0.217
451	0.217
452	0.217
452	0.217
452	0.217
453	0.217
453	0.217
454	0.217
454	0.217
455	0.217
455	0.217
456	0.217
456	0.217
457	0.216
457	0.216
458	0.216
458	0.216
458	0.216
459	0.216
459	0.215
460	0.215
460	0.215
461	0.215
461	0.215
462	0.215
462	0.215
463	0.215
463	0.215
463	0.215
464	0.215
464	0.215
465	0.215
465	0.215
466	0.215
466	0.215
467	0.215
467	0.215
467	0.214
468	0.214
468	0.214
469	0.214
469	0.214
470	0.214
470	0.214
471	0.214
471	0.214
472	0.213
472	0.213
472	0.213
473	0.214
473	0.214
474	0.214
474	0.214
475	0.214
475	0.214
476	0.215
476	0.215
477	0.215
477	0.215
477	0.215
478	0.216
478	0.216
479	0.216
479	0.216
480	0.216
480	0.217
481	0.217
481	0.217
482	0.217
482	0.218
482	0.218
483	0.218
483	0.219
484	0.219
484	0.219
485	0.219
485	0.219
486	0.22
486	0.22
487	0.22
487	0.221
487	0.221
488	0.221
488	0.222
489	0.222
489	0.223
490	0.224
490	0.224
491	0.225
491	0.225
492	0.226
492	0.226
492	0.227
493	0.227
493	0.228
494	0.229
494	0.23
495	0.23
495	0.231
496	0.231
496	0.232
496	0.233
497	0.234
497	0.235
498	0.235
498	0.236
499	0.236
499	0.237
500	0.238
500	0.239
501	0.24
501	0.241
501	0.241
502	0.242
502	0.243
503	0.245
503	0.245
504	0.246
504	0.247
505	0.248
505	0.249
506	0.25
506	0.252
506	0.253
507	0.254
507	0.255
508	0.256
508	0.257
509	0.258
509	0.259
510	0.261
510	0.262
511	0.263
511	0.264
511	0.265
512	0.267
512	0.268
513	0.269
513	0.27
514	0.271
514	0.272
515	0.273
515	0.274
515	0.275
516	0.276
516	0.277
517	0.278
517	0.279
518	0.28
518	0.281
519	0.282
519	0.283
520	0.284
520	0.285
520	0.286
521	0.287
521	0.287
522	0.288
522	0.289
523	0.29
523	0.292
524	0.293
524	0.294
524	0.294
525	0.296
525	0.296
526	0.297
526	0.298
527	0.299
527	0.3
528	0.301
528	0.302
529	0.302
529	0.303
529	0.304
530	0.305
530	0.306
531	0.307
531	0.308
532	0.309
532	0.31
533	0.311
533	0.312
533	0.312
534	0.313
534	0.314
535	0.315
535	0.316
536	0.316
536	0.317
537	0.318
537	0.319
538	0.321
538	0.322
538	0.323
539	0.324
539	0.325
540	0.326
540	0.326
541	0.327
541	0.328
542	0.329
542	0.33
542	0.331
543	0.332
543	0.332
544	0.333
544	0.334
545	0.335
545	0.336
546	0.337
546	0.337
547	0.338
547	0.338
547	0.338
548	0.339
548	0.339
549	0.339
549	0.34
550	0.34
550	0.34
551	0.341
551	0.341
551	0.342
552	0.342
552	0.343
553	0.343
553	0.344
554	0.344
554	0.344
555	0.345
555	0.345
556	0.346
556	0.346
556	0.347
557	0.347
557	0.348
558	0.348
558	0.349
559	0.349
559	0.35
560	0.35
560	0.35
560	0.351
561	0.352
561	0.352
562	0.352
562	0.353
563	0.352
563	0.353
564	0.353
564	0.353
564	0.354
565	0.354
565	0.354
566	0.355
566	0.355
567	0.356
567	0.357
568	0.358
568	0.358
568	0.359
569	0.36
569	0.36
570	0.36
570	0.36
571	0.36
571	0.361
572	0.361
572	0.361
573	0.361
573	0.361
573	0.36
574	0.36
574	0.36
575	0.36
575	0.361
576	0.361
576	0.361
577	0.36
577	0.36
577	0.361
578	0.361
578	0.362
579	0.363
579	0.363
580	0.362
580	0.361
581	0.361
581	0.362
581	0.362
582	0.363
582	0.363
583	0.364
583	0.364
584	0.362
584	0.361
585	0.363
585	0.364
585	0.364
586	0.364
586	0.364
587	0.363
587	0.363
588	0.362
588	0.362
589	0.363
589	0.363
590	0.363
590	0.363
590	0.364
591	0.365
591	0.365
592	0.365
592	0.364
593	0.364
593	0.364
594	0.363
594	0.363
594	0.363
595	0.363
595	0.362
596	0.361
596	0.362
597	0.363
597	0.363
598	0.363
598	0.363
598	0.364
599	0.363
599	0.363
600	0.362
600	0.362
601	0.362
601	0.362
602	0.361
602	0.361
602	0.36
603	0.36
603	0.361
604	0.36
604	0.36
605	0.361
605	0.36
606	0.359
606	0.358
606	0.357
607	0.356
607	0.355
608	0.355
608	0.353
609	0.353
609	0.353
610	0.352
610	0.351
610	0.351
611	0.352
611	0.352
612	0.352
612	0.353
613	0.353
613	0.353
614	0.353
614	0.352
614	0.352
615	0.351
615	0.35
616	0.35
616	0.348
617	0.348
617	0.346
618	0.345
618	0.343
618	0.342
619	0.341
619	0.34
620	0.34
620	0.339
621	0.338
621	0.338
622	0.337
622	0.336
622	0.334
623	0.334
623	0.333
624	0.333
624	0.331
625	0.33
625	0.328
626	0.326
626	0.324
626	0.323
627	0.321
627	0.32
628	0.318
628	0.316
629	0.314
629	0.313
630	0.31
630	0.308
630	0.306
631	0.303
631	0.3
632	0.297
632	0.294
633	0.291
633	0.287
634	0.284
634	0.281
634	0.278
635	0.275
635	0.272
636	0.268
636	0.264
637	0.26
637	0.255
638	0.251
638	0.245
638	0.24
639	0.234
639	0.227
640	0.221
640	0.215
641	0.209
641	0.203
642	0.197
642	0.191
642	0.185
643	0.179
643	0.172
644	0.165
644	0.158
645	0.15
645	0.143
646	0.135
646	0.126
646	0.117
647	0.108
647	0.099
648	0.089
648	0.079
649	0.07
649	0.061
650	0.052
650	0.043
650	0.033
651	0.021
651	0.007
652	-0.01
652	-0.028
653	-0.045
653	-0.06
653	-0.057
654	-0.03
654	-0.015
655	-0.019
655	-0.025
656	-0.031
656	-0.039
657	-0.044
657	-0.049
657	-0.056
658	-0.063
658	-0.096
659	-0.198
659	-0.317
660	-0.367
660	-0.397
661	-0.427
661	-0.46
661	-0.496
662	-0.532
662	-0.567
663	-0.607
663	-0.654
664	-0.699
664	-0.753
665	-0.804
665	-0.856
665	-0.912
666	-0.972
666	-1.032
667	-1.094
667	-1.161
668	-1.228
668	-1.291
669	-1.361
669	-1.434
669	-1.514
670	-1.601
670	-1.707
671	-1.844
671	-2.074
672	-2.198
672	-2.313
672	-2.472
673	-2.62
673	-2.706
674	-2.775
674	-2.805
675	-2.82
675	-2.823
676	-2.817
676	-2.814
676	-2.888
677	-2.871
677	-2.67
678	-2.485
678	-2.316
679	-2.049
679	-1.835
680	-1.713
680	-1.614
680	-1.528
681	-1.47
681	-1.411
682	-1.366
682	-1.327
683	-1.287
683	-1.258
684	-1.221
684	-1.191
684	-1.156
685	-1.134
685	-1.114
686	-1.085
686	-1.057
687	-1.035
687	-1.022
687	-0.998
688	-0.979
688	-0.967
689	-0.949
689	-0.939
690	-0.927
690	-0.921
691	-0.914
691	-0.907
691	-0.89
692	-0.879
692	-0.877
693	-0.874
693	-0.872
694	-0.869
694	-0.865
695	-0.863
695	-0.849
695	-0.844
696	-0.848
696	-0.845
697	-0.843
697	-0.836
698	-0.823
698	-0.817
698	-0.819
699	-0.819
699	-0.814
700	-0.832
700	-0.828
701	-0.831
701	-0.844
702	-0.86
702	-0.87
702	-0.875
703	-0.877
703	-0.867
704	-0.866
704	-0.858
705	-0.856
705	-0.857
705	-0.837
706	-0.827
706	-0.812
707	-0.813
707	-0.817
708	-0.808
708	-0.812
709	-0.816
709	-0.821
709	-0.807
710	-0.813
710	-0.817
711	-0.814
711	-0.816
712	-0.799
712	-0.788
713	-0.797
713	-0.801
713	-0.791
714	-0.795
714	-0.811
715	-0.807
715	-0.824
716	-0.837
716	-0.833
716	-0.844
717	-0.858
717	-0.855
718	-0.85
718	-0.859
719	-0.862
719	-0.836
720	-0.839
720	-0.825
720	-0.826
721	-0.824
721	-0.825
722	-0.816
722	-0.817
723	-0.813
723	-0.806
723	-0.793
724	-0.804
724	-0.795
725	-0.794
725	-0.79
726	-0.797
726	-0.796
727	-0.798
727	-0.791
727	-0.795
728	-0.802
728	-0.805
729	-0.801
729	-0.815
730	-0.821
730	-0.819
730	-0.811
731	-0.803
731	-0.814
732	-0.816
732	-0.811
733	-0.812
733	-0.818
734	-0.814
734	-0.807
734	-0.788
735	-0.792
735	-0.797
736	-0.802
736	-0.786
737	-0.782
737	-0.779
737	-0.762
738	-0.758
738	-0.767
739	-0.768
739	-0.776
740	-0.781
740	-0.776
741	-0.771
741	-0.782
741	-0.783
742	-0.779
742	-0.803
743	-0.794
743	-0.791
744	-0.779
744	-0.774
744	-0.766
745	-0.771
745	-0.782
746	-0.776
746	-0.784
747	-0.791
747	-0.775
748	-0.778
748	-0.78
748	-0.794
749	-0.806
749	-0.805
750	-0.795
750	-0.79
751	-0.793
751	-0.777
751	-0.78
752	-0.787
752	-0.793
753	-0.791
753	-0.783
754	-0.782
754	-0.765
754	-0.778
755	-0.778
755	-0.785
756	-0.804
756	-0.791
757	-0.779
757	-0.777
758	-0.766
758	-0.765
758	-0.761
759	-0.778
759	-0.785
760	-0.776
760	-0.762
761	-0.759
761	-0.767
761	-0.786
762	-0.777
762	-0.79
763	-0.781
763	-0.789
764	-0.784
764	-0.773
764	-0.79
765	-0.804
765	-0.804
766	-0.801
766	-0.786
767	-0.801
767	-0.794
768	-0.803
768	-0.81
768	-0.8
769	-0.804
769	-0.79
770	-0.796
770	-0.787
771	-0.792
771	-0.796
771	-0.797
772	-0.813
772	-0.824
773	-0.811
773	-0.833
774	-0.829
774	-0.83
775	-0.816
775	-0.821
775	-0.822
776	-0.83
776	-0.826
777	-0.818
777	-0.818
778	-0.824
778	-0.812
778	-0.823
779	-0.84
779	-0.857
780	-0.866
780	-0.869
781	-0.88
781	-0.884
781	-0.897
782	-0.898
782	-0.899
783	-0.911
783	-0.919
784	-0.902
784	-0.884
784	-0.898
785	-0.901
785	-0.899
786	-0.903
786	-0.886
787	-0.873
787	-0.898
788	-0.892
788	-0.869
788	-0.865
789	-0.86
789	-0.847
790	-0.846
790	-0.84
791	-0.851
791	-0.862
791	-0.865
792	-0.841
792	-0.849
793	-0.857
793	-0.869
794	-0.873
794	-0.877
794	-0.87
795	-0.86
795	-0.84
796	-0.82
796	-0.83
797	-0.837
797	-0.82
797	-0.828
798	-0.824
798	-0.836
799	-0.822
799	-0.831
800	-0.833
800	-0.846
801	-0.861
801	-0.846
801	-0.831
802	-0.83
802	-0.809
803	-0.802
803	-0.79
804	-0.79
804	-0.788
804	-0.788
805	-0.779
805	-0.77
806	-0.766
806	-0.769
807	-0.771
807	-0.782
807	-0.788
808	-0.785
808	-0.785
809	-0.777
809	-0.765
810	-0.772
810	-0.76
810	-0.766
811	-0.758
811	-0.759
812	-0.759
812	-0.772
813	-0.769
813	-0.771
813	-0.767
814	-0.779
814	-0.762
815	-0.77
815	-0.781
816	-0.78
816	-0.786
817	-0.79
817	-0.771
817	-0.787
818	-0.792
818	-0.793
819	-0.796
819	-0.804
820	-0.795
820	-0.791
820	-0.803
821	-0.801
821	-0.798
822	-0.799
822	-0.796
823	-0.8
823	-0.802
823	-0.788
824	-0.796
824	-0.819
825	-0.812
825	-0.802
826	-0.785
826	-0.771
826	-0.767
827	-0.746
827	-0.729
828	-0.728
828	-0.721
829	-0.707
829	-0.689
829	-0.685
830	-0.68
830	-0.687
831	-0.682
831	-0.667
832	-0.67
832	-0.664
832	-0.651
833	-0.644
833	-0.636
834	-0.631
834	-0.626
835	-0.62
835	-0.609
835	-0.601
836	-0.608
836	-0.605
837	-0.601
837	-0.597
838	-0.595
838	-0.585
839	-0.577
839	-0.571
839	-0.566
840	-0.558
840	-0.554
841	-0.543
841	-0.529
842	-0.522
842	-0.509
842	-0.5
843	-0.498
843	-0.492
844	-0.48
844	-0.467
845	-0.454
845	-0.446
845	-0.431
846	-0.423
846	-0.406
847	-0.397
847	-0.384
848	-0.366
848	-0.351
848	-0.337
849	-0.322
849	-0.311
850	-0.295
850	-0.284
851	-0.273
851	-0.261
851	-0.25
852	-0.235
852	-0.223
853	-0.216
853	-0.21
854	-0.199
854	-0.189
854	-0.18
855	-0.168
855	-0.155
856	-0.145
856	-0.135
857	-0.128
857	-0.119
857	-0.105
858	-0.093
858	-0.085
859	-0.072
859	-0.06
860	-0.051
860	-0.039
860	-0.029
861	-0.019
861	-0.01
862	-0.001
862	0.005
863	0.014
863	0.022
863	0.027
864	0.032
864	0.039
865	0.045
865	0.05
866	0.055
866	0.06
866	0.065
867	0.07
867	0.074
868	0.078
868	0.082
869	0.085
869	0.088
869	0.09
870	0.091
870	0.092
871	0.093
871	0.093
872	0.093
872	0.093
872	0.094
873	0.095
873	0.097
874	0.098
874	0.099
875	0.101
875	0.102
875	0.103
876	0.105
876	0.106
877	0.107
877	0.108
878	0.109
878	0.11
878	0.11
879	0.11
879	0.109
880	0.108
880	0.107
881	0.106
881	0.105
881	0.104
882	0.102
882	0.101
883	0.099
883	0.097
884	0.096
884	0.096
884	0.095
885	0.094
885	0.093
886	0.092
886	0.091
887	0.09
887	0.089
887	0.089
888	0.088
888	0.087
889	0.086
889	0.085
890	0.084
890	0.084
890	0.083
891	0.083
891	0.082
892	0.081
892	0.08
893	0.079
893	0.079
893	0.079
894	0.078
894	0.078
895	0.078
895	0.078
895	0.078
896	0.079
896	0.079
897	0.08
897	0.08
898	0.081
898	0.081
898	0.081
899	0.082
899	0.082
900	0.083
900	0.083
901	0.083
901	0.083
901	0.083
902	0.083
902	0.083
903	0.083
903	0.083
904	0.083
904	0.082
904	0.081
905	0.081
905	0.08
906	0.079
906	0.079
907	0.078
907	0.078
907	0.078
908	0.078
908	0.078
909	0.079
909	0.079
910	0.08
910	0.081
910	0.081
911	0.082
911	0.082
912	0.083
912	0.083
913	0.084
913	0.084
913	0.084
914	0.084
914	0.084
915	0.084
915	0.084
916	0.084
916	0.084
916	0.084
917	0.083
917	0.083
918	0.084
918	0.084
918	0.085
919	0.085
919	0.086
920	0.087
920	0.088
921	0.089
921	0.089
921	0.09
922	0.09
922	0.091
923	0.09
923	0.09
924	0.089
924	0.089
924	0.088
925	0.088
925	0.087
926	0.086
926	0.086
927	0.085
927	0.085
927	0.084
928	0.084
928	0.084
929	0.083
929	0.082
930	0.081
930	0.08
930	0.079
931	0.077
931	0.076
932	0.075
932	0.073
933	0.071
933	0.07
933	0.068
934	0.067
934	0.065
935	0.064
935	0.062
935	0.061
936	0.06
936	0.059
937	0.059
937	0.059
938	0.059
938	0.058
938	0.058
939	0.058
939	0.058
940	0.058
940	0.058
941	0.058
941	0.058
941	0.058
942	0.058
942	0.057
943	0.057
943	0.057
944	0.057
944	0.056
944	0.055
945	0.056
945	0.055
946	0.055
946	0.055
946	0.055
947	0.056
947	0.056
948	0.056
948	0.056
949	0.057
949	0.057
949	0.057
950	0.058
950	0.057
951	0.057
951	0.057
952	0.057
952	0.056
952	0.056
953	0.055
953	0.055
954	0.055
954	0.055
955	0.055
955	0.055
955	0.056
956	0.056
956	0.056
957	0.057
957	0.057
957	0.057
958	0.056
958	0.057
959	0.057
959	0.057
960	0.057
960	0.057
960	0.058
961	0.059
961	0.06
962	0.061
962	0.062
963	0.063
963	0.064
963	0.064
964	0.064
964	0.064
965	0.064
965	0.064
966	0.063
966	0.062
966	0.062
967	0.061
967	0.06
968	0.059
968	0.058
968	0.057
969	0.056
969	0.055
970	0.054
970	0.053
971	0.052
971	0.051
971	0.051
972	0.05
972	0.05
973	0.05
973	0.049
974	0.049
974	0.049
974	0.049
975	0.049
975	0.048
976	0.048
976	0.047
976	0.047
977	0.046
977	0.045
978	0.044
978	0.044
979	0.043
979	0.043
979	0.043
980	0.043
980	0.043
981	0.043
981	0.043
982	0.044
982	0.045
982	0.045
983	0.046
983	0.047
984	0.048
984	0.049
984	0.05
985	0.051
985	0.051
986	0.052
986	0.052
987	0.052
987	0.052
987	0.051
988	0.051
988	0.051
989	0.051
989	0.051
990	0.052
990	0.052
990	0.052
991	0.053
991	0.054
992	0.054
992	0.054
992	0.054
993	0.054
993	0.053
994	0.053
994	0.053
995	0.052
995	0.052
995	0.052
996	0.051
996	0.051
997	0.051
997	0.051
997	0.051
998	0.051
998	0.051
999	0.051
999	0.051
1000	0.05
1000	0.05
1000	0.049
1001	0.049
1001	0.048
1002	0.047
1002	0.047
1003	0.046
1003	0.044
1003	0.043
1004	0.043
1004	0.042
1005	0.041
1005	0.04
1005	0.039
1006	0.038
1006	0.038
1007	0.037
1007	0.037
1008	0.036
1008	0.036
1008	0.036
1009	0.035
1009	0.035
1010	0.034
1010	0.034
1010	0.034
1011	0.034
1011	0.033
1012	0.033
1012	0.033
1013	0.033
1013	0.032
1013	0.032
1014	0.031
1014	0.03
1015	0.03
1015	0.029
1016	0.028
1016	0.028
1016	0.028
1017	0.027
1017	0.027
1018	0.027
1018	0.027
1018	0.027
1019	0.028
1019	0.028
1020	0.028
1020	0.028
1021	0.029
1021	0.029
1021	0.029
1022	0.029
1022	0.028
1023	0.028
1023	0.027
1023	0.026
1024	0.025
1024	0.024
1025	0.022
1025	0.022
1026	0.022
1026	0.021
1026	0.021
1027	0.021
1027	0.021
1028	0.021
1028	0.022
1028	0.022
1029	0.023
1029	0.024
1030	0.025
1030	0.025
1031	0.026
1031	0.027
1031	0.028
1032	0.028
1032	0.028
1033	0.029
1033	0.028
1033	0.028
1034	0.028
1034	0.027
1035	0.027
1035	0.026
1036	0.025
1036	0.024
1036	0.024
1037	0.024
1037	0.023
1038	0.023
1038	0.023
1039	0.024
1039	0.024
1039	0.024
1040	0.024
1040	0.025
1041	0.025
1041	0.026
1041	0.026
1042	0.026
1042	0.026
1043	0.026
1043	0.025
1044	0.025
1044	0.025
1044	0.025
1045	0.024
1045	0.023
1046	0.023
1046	0.022
1046	0.022
1047	0.022
1047	0.022
1048	0.022
1048	0.022
1049	0.022
1049	0.021
1049	0.021
1050	0.021
1050	0.02
1051	0.019
1051	0.019
1051	0.019
1052	0.018
1052	0.018
1053	0.018
1053	0.017
1053	0.017
1054	0.017
1054	0.017
1055	0.017
1055	0.017
1056	0.016
1056	0.016
1056	0.015
1057	0.015
1057	0.014
1058	0.013
1058	0.012
1058	0.012
1059	0.011
1059	0.01
1060	0.009
1060	0.008
1061	0.008
1061	0.007
1061	0.007
1062	0.006
1062	0.006
1063	0.006
1063	0.005
1063	0.005
1064	0.005
1064	0.005
1065	0.004
1065	0.004
1066	0.003
1066	0.003
1066	0.002
1067	0.001
1067	0.001
1068	-0
1068	-0.001
1068	-0.001
1069	-0.002
1069	-0.004
1070	-0.004
1070	-0.005
1071	-0.006
1071	-0.007
1071	-0.008
1072	-0.008
1072	-0.009
1073	-0.009
1073	-0.01
1073	-0.01
1074	-0.009
1074	-0.009
1075	-0.01
1075	-0.01
1076	-0.01
1076	-0.01
1076	-0.01
1077	-0.011
1077	-0.011
1078	-0.012
1078	-0.012
1078	-0.012
1079	-0.012
1079	-0.012
1080	-0.012
1080	-0.011
1080	-0.012
1081	-0.011
1081	-0.011
1082	-0.01
1082	-0.011
1083	-0.011
1083	-0.012
1083	-0.012
1084	-0.013
1084	-0.014
1085	-0.014
1085	-0.015
1085	-0.016
1086	-0.017
1086	-0.018
1087	-0.018
1087	-0.019
1088	-0.019
1088	-0.02
1088	-0.021
1089	-0.023
1089	-0.024
1090	-0.025
1090	-0.026
1090	-0.028
1091	-0.029
1091	-0.031
1092	-0.032
1092	-0.032
1092	-0.033
1093	-0.034
1093	-0.033
1094	-0.034
1094	-0.035
1095	-0.036
1095	-0.037
1095	-0.038
1096	-0.039
1096	-0.042
1097	-0.043
1097	-0.045
1097	-0.047
1098	-0.05
1098	-0.052
1099	-0.054
1099	-0.055
1100	-0.057
1100	-0.06
1100	-0.062
1101	-0.064
1101	-0.067
1102	-0.07
1102	-0.073
1102	-0.075
1103	-0.078
1103	-0.08
1104	-0.082
1104	-0.085
1104	-0.086
1105	-0.089
1105	-0.091
1106	-0.096
1106	-0.098
1107	-0.103
1107	-0.106
1107	-0.111
1108	-0.114
1108	-0.116
1109	-0.12
1109	-0.125
1109	-0.129
1110	-0.132
1110	-0.136
1111	-0.142
1111	-0.139
