Data from 40to5_hyst_3.5A_10sec_80mins_Absorbance__415__01037.txt Node

Date: Mon Jun 26 12:05:30 CEST 2023
User: Marek
Spectrometer: MAYP115816
Trigger mode: 0
Integration Time (sec): 2.500000E-1
Scans to average: 10
Electric dark correction enabled: true
Nonlinearity correction enabled: true
Boxcar width: 5
XAxis mode: Wavelengths
Number of Pixels in Spectrum: 2068
>>>>>Begin Spectral Data<<<<<
199	-0.79
199	-0.768
200	-0.732
200	-0.677
201	-0.636
201	-0.605
202	-0.585
202	-0.59
203	-0.58
203	-0.573
204	-0.555
204	-0.537
205	-0.518
205	-0.51
205	-0.512
206	-0.511
206	-0.526
207	-0.526
207	-0.522
208	-0.53
208	-0.532
209	-0.536
209	-0.548
210	-0.557
210	-0.558
211	-0.559
211	-0.57
212	-0.567
212	-0.574
213	-0.58
213	-0.578
213	-0.581
214	-0.579
214	-0.58
215	-0.575
215	-0.58
216	-0.58
216	-0.583
217	-0.582
217	-0.577
218	-0.575
218	-0.575
219	-0.576
219	-0.579
220	-0.581
220	-0.588
221	-0.597
221	-0.605
221	-0.605
222	-0.61
222	-0.61
223	-0.614
223	-0.613
224	-0.62
224	-0.614
225	-0.612
225	-0.615
226	-0.613
226	-0.609
227	-0.606
227	-0.613
228	-0.609
228	-0.611
229	-0.612
229	-0.605
229	-0.608
230	-0.611
230	-0.608
231	-0.595
231	-0.584
232	-0.581
232	-0.574
233	-0.584
233	-0.578
234	-0.586
234	-0.583
235	-0.582
235	-0.578
236	-0.58
236	-0.587
236	-0.595
237	-0.595
237	-0.593
238	-0.587
238	-0.593
239	-0.583
239	-0.587
240	-0.586
240	-0.587
241	-0.585
241	-0.589
242	-0.596
242	-0.603
243	-0.609
243	-0.616
243	-0.615
244	-0.617
244	-0.617
245	-0.632
245	-0.639
246	-0.647
246	-0.642
247	-0.646
247	-0.641
248	-0.635
248	-0.632
249	-0.638
249	-0.643
250	-0.651
250	-0.639
250	-0.632
251	-0.638
251	-0.645
252	-0.64
252	-0.641
253	-0.648
253	-0.655
254	-0.655
254	-0.657
255	-0.667
255	-0.673
256	-0.676
256	-0.674
257	-0.675
257	-0.675
258	-0.683
258	-0.683
258	-0.682
259	-0.68
259	-0.685
260	-0.677
260	-0.681
261	-0.682
261	-0.68
262	-0.682
262	-0.689
263	-0.684
263	-0.689
264	-0.697
264	-0.697
265	-0.692
265	-0.692
265	-0.69
266	-0.691
266	-0.697
267	-0.708
267	-0.707
268	-0.713
268	-0.704
269	-0.696
269	-0.704
270	-0.715
270	-0.714
271	-0.724
271	-0.732
272	-0.73
272	-0.715
272	-0.723
273	-0.72
273	-0.725
274	-0.719
274	-0.71
275	-0.707
275	-0.719
276	-0.714
276	-0.709
277	-0.703
277	-0.713
278	-0.718
278	-0.719
278	-0.734
279	-0.742
279	-0.748
280	-0.748
280	-0.743
281	-0.747
281	-0.767
282	-0.764
282	-0.765
283	-0.758
283	-0.768
284	-0.758
284	-0.756
285	-0.765
285	-0.752
285	-0.739
286	-0.737
286	-0.716
287	-0.72
287	-0.709
288	-0.695
288	-0.688
289	-0.68
289	-0.69
290	-0.686
290	-0.685
291	-0.691
291	-0.683
292	-0.683
292	-0.687
292	-0.698
293	-0.709
293	-0.706
294	-0.715
294	-0.7
295	-0.7
295	-0.702
296	-0.703
296	-0.707
297	-0.707
297	-0.695
298	-0.69
298	-0.686
298	-0.68
299	-0.665
299	-0.673
300	-0.67
300	-0.664
301	-0.657
301	-0.658
302	-0.661
302	-0.661
303	-0.651
303	-0.644
304	-0.646
304	-0.647
305	-0.642
305	-0.635
305	-0.645
306	-0.64
306	-0.637
307	-0.628
307	-0.625
308	-0.625
308	-0.623
309	-0.621
309	-0.62
310	-0.607
310	-0.603
311	-0.594
311	-0.59
311	-0.582
312	-0.57
312	-0.567
313	-0.557
313	-0.556
314	-0.554
314	-0.558
315	-0.56
315	-0.56
316	-0.556
316	-0.553
317	-0.547
317	-0.554
318	-0.547
318	-0.55
318	-0.536
319	-0.53
319	-0.51
320	-0.506
320	-0.509
321	-0.499
321	-0.496
322	-0.489
322	-0.481
323	-0.482
323	-0.477
324	-0.479
324	-0.467
324	-0.466
325	-0.449
325	-0.427
326	-0.421
326	-0.398
327	-0.383
327	-0.361
328	-0.329
328	-0.305
329	-0.279
329	-0.252
330	-0.22
330	-0.186
330	-0.153
331	-0.12
331	-0.087
332	-0.052
332	-0.019
333	0.012
333	0.046
334	0.077
334	0.103
335	0.133
335	0.155
336	0.181
336	0.205
336	0.225
337	0.245
337	0.264
338	0.281
338	0.293
339	0.31
339	0.324
340	0.334
340	0.345
341	0.353
341	0.36
342	0.368
342	0.375
342	0.38
343	0.384
343	0.391
344	0.394
344	0.397
345	0.4
345	0.403
346	0.406
346	0.409
347	0.41
347	0.412
348	0.414
348	0.416
348	0.417
349	0.418
349	0.419
350	0.421
350	0.421
351	0.422
351	0.423
352	0.423
352	0.424
353	0.425
353	0.425
354	0.425
354	0.425
354	0.425
355	0.425
355	0.425
356	0.426
356	0.426
357	0.427
357	0.426
358	0.426
358	0.426
359	0.426
359	0.426
360	0.426
360	0.426
360	0.426
361	0.426
361	0.426
362	0.425
362	0.425
363	0.425
363	0.425
364	0.425
364	0.425
365	0.425
365	0.424
366	0.424
366	0.424
366	0.424
367	0.423
367	0.423
368	0.422
368	0.422
369	0.421
369	0.421
370	0.42
370	0.42
371	0.419
371	0.419
372	0.418
372	0.418
372	0.418
373	0.418
373	0.417
374	0.417
374	0.416
375	0.416
375	0.415
376	0.415
376	0.415
377	0.414
377	0.414
378	0.413
378	0.413
378	0.412
379	0.412
379	0.412
380	0.411
380	0.411
381	0.41
381	0.41
382	0.409
382	0.409
383	0.408
383	0.408
383	0.407
384	0.406
384	0.406
385	0.405
385	0.405
386	0.404
386	0.404
387	0.404
387	0.403
388	0.403
388	0.403
389	0.403
389	0.402
389	0.402
390	0.401
390	0.401
391	0.4
391	0.399
392	0.399
392	0.398
393	0.398
393	0.397
394	0.397
394	0.396
394	0.395
395	0.395
395	0.394
396	0.394
396	0.393
397	0.393
397	0.392
398	0.392
398	0.392
399	0.391
399	0.391
400	0.39
400	0.39
400	0.39
401	0.389
401	0.389
402	0.388
402	0.388
403	0.387
403	0.387
404	0.386
404	0.386
405	0.385
405	0.385
405	0.385
406	0.384
406	0.384
407	0.384
407	0.384
408	0.383
408	0.383
409	0.383
409	0.383
410	0.382
410	0.382
411	0.381
411	0.381
411	0.381
412	0.38
412	0.38
413	0.379
413	0.379
414	0.378
414	0.378
415	0.377
415	0.376
416	0.376
416	0.375
416	0.375
417	0.375
417	0.375
418	0.375
418	0.375
419	0.374
419	0.374
420	0.374
420	0.374
421	0.374
421	0.374
421	0.374
422	0.374
422	0.374
423	0.374
423	0.373
424	0.373
424	0.373
425	0.373
425	0.373
426	0.373
426	0.372
427	0.372
427	0.372
427	0.371
428	0.371
428	0.371
429	0.371
429	0.37
430	0.37
430	0.37
431	0.37
431	0.37
432	0.37
432	0.369
432	0.369
433	0.369
433	0.369
434	0.369
434	0.369
435	0.369
435	0.369
436	0.368
436	0.368
437	0.368
437	0.368
437	0.368
438	0.367
438	0.368
439	0.367
439	0.367
440	0.367
440	0.367
441	0.367
441	0.368
442	0.368
442	0.368
442	0.368
443	0.368
443	0.368
444	0.369
444	0.369
445	0.369
445	0.369
446	0.369
446	0.369
447	0.369
447	0.369
447	0.369
448	0.369
448	0.369
449	0.369
449	0.369
450	0.369
450	0.369
451	0.369
451	0.37
452	0.37
452	0.371
452	0.371
453	0.372
453	0.372
454	0.372
454	0.373
455	0.373
455	0.373
456	0.374
456	0.374
457	0.374
457	0.374
458	0.375
458	0.375
458	0.375
459	0.376
459	0.376
460	0.376
460	0.377
461	0.377
461	0.378
462	0.378
462	0.379
463	0.38
463	0.38
463	0.381
464	0.381
464	0.382
465	0.382
465	0.383
466	0.384
466	0.384
467	0.385
467	0.386
467	0.386
468	0.387
468	0.388
469	0.389
469	0.39
470	0.391
470	0.392
471	0.393
471	0.393
472	0.394
472	0.395
472	0.396
473	0.398
473	0.399
474	0.4
474	0.401
475	0.402
475	0.403
476	0.405
476	0.406
477	0.408
477	0.409
477	0.411
478	0.412
478	0.414
479	0.415
479	0.417
480	0.419
480	0.421
481	0.423
481	0.425
482	0.426
482	0.428
482	0.43
483	0.432
483	0.435
484	0.437
484	0.439
485	0.442
485	0.443
486	0.445
486	0.447
487	0.45
487	0.452
487	0.454
488	0.457
488	0.459
489	0.462
489	0.465
490	0.468
490	0.47
491	0.474
491	0.477
492	0.479
492	0.482
492	0.485
493	0.487
493	0.49
494	0.494
494	0.498
495	0.501
495	0.505
496	0.508
496	0.512
496	0.516
497	0.519
497	0.523
498	0.527
498	0.531
499	0.534
499	0.538
500	0.542
500	0.547
501	0.551
501	0.554
501	0.558
502	0.562
502	0.566
503	0.57
503	0.574
504	0.577
504	0.581
505	0.585
505	0.59
506	0.594
506	0.598
506	0.603
507	0.607
507	0.611
508	0.616
508	0.62
509	0.624
509	0.628
510	0.633
510	0.636
511	0.64
511	0.644
511	0.648
512	0.652
512	0.655
513	0.659
513	0.663
514	0.667
514	0.671
515	0.674
515	0.678
515	0.681
516	0.684
516	0.687
517	0.691
517	0.693
518	0.696
518	0.697
519	0.7
519	0.701
520	0.704
520	0.706
520	0.707
521	0.709
521	0.71
522	0.711
522	0.713
523	0.714
523	0.716
524	0.717
524	0.719
524	0.719
525	0.719
525	0.72
526	0.721
526	0.721
527	0.721
527	0.72
528	0.72
528	0.719
529	0.718
529	0.718
529	0.717
530	0.716
530	0.714
531	0.713
531	0.711
532	0.71
532	0.708
533	0.706
533	0.704
533	0.701
534	0.698
534	0.695
535	0.692
535	0.69
536	0.686
536	0.683
537	0.679
537	0.675
538	0.672
538	0.668
538	0.664
539	0.66
539	0.657
540	0.653
540	0.649
541	0.644
541	0.64
542	0.635
542	0.631
542	0.626
543	0.621
543	0.616
544	0.61
544	0.605
545	0.6
545	0.594
546	0.589
546	0.583
547	0.577
547	0.57
547	0.564
548	0.559
548	0.553
549	0.548
549	0.542
550	0.536
550	0.529
551	0.523
551	0.517
551	0.51
552	0.505
552	0.499
553	0.493
553	0.487
554	0.481
554	0.475
555	0.469
555	0.464
556	0.458
556	0.452
556	0.446
557	0.44
557	0.435
558	0.429
558	0.423
559	0.416
559	0.41
560	0.404
560	0.398
560	0.393
561	0.388
561	0.382
562	0.377
562	0.372
563	0.366
563	0.361
564	0.356
564	0.351
564	0.345
565	0.34
565	0.335
566	0.33
566	0.325
567	0.32
567	0.316
568	0.311
568	0.306
568	0.302
569	0.298
569	0.294
570	0.289
570	0.285
571	0.281
571	0.277
572	0.273
572	0.269
573	0.265
573	0.26
573	0.256
574	0.252
574	0.248
575	0.244
575	0.241
576	0.237
576	0.232
577	0.228
577	0.224
577	0.221
578	0.218
578	0.215
579	0.213
579	0.21
580	0.204
580	0.2
581	0.196
581	0.194
581	0.191
582	0.189
582	0.187
583	0.185
583	0.182
584	0.178
584	0.174
585	0.172
585	0.17
585	0.167
586	0.165
586	0.162
587	0.159
587	0.157
588	0.154
588	0.151
589	0.149
589	0.148
590	0.145
590	0.143
590	0.142
591	0.14
591	0.137
592	0.134
592	0.132
593	0.13
593	0.128
594	0.126
594	0.125
594	0.123
595	0.121
595	0.118
596	0.116
596	0.115
597	0.114
597	0.112
598	0.11
598	0.109
598	0.107
599	0.106
599	0.104
600	0.103
600	0.101
601	0.1
601	0.099
602	0.097
602	0.096
602	0.094
603	0.092
603	0.091
604	0.09
604	0.089
605	0.088
605	0.087
606	0.084
606	0.082
606	0.08
607	0.078
607	0.077
608	0.076
608	0.073
609	0.072
609	0.071
610	0.069
610	0.068
610	0.067
611	0.066
611	0.066
612	0.066
612	0.065
613	0.065
613	0.065
614	0.063
614	0.062
614	0.061
615	0.06
615	0.059
616	0.058
616	0.057
617	0.055
617	0.054
618	0.052
618	0.051
618	0.049
619	0.048
619	0.048
620	0.048
620	0.047
621	0.046
621	0.045
622	0.045
622	0.044
622	0.043
623	0.042
623	0.042
624	0.041
624	0.04
625	0.038
625	0.037
626	0.036
626	0.035
626	0.034
627	0.033
627	0.032
628	0.032
628	0.031
629	0.031
629	0.03
630	0.03
630	0.029
630	0.029
631	0.029
631	0.028
632	0.027
632	0.027
633	0.027
633	0.026
634	0.026
634	0.026
634	0.026
635	0.026
635	0.025
636	0.025
636	0.025
637	0.024
637	0.023
638	0.022
638	0.021
638	0.02
639	0.018
639	0.016
640	0.015
640	0.014
641	0.012
641	0.011
642	0.01
642	0.009
642	0.008
643	0.006
643	0.005
644	0.003
644	0.001
645	-0
645	-0.002
646	-0.005
646	-0.008
646	-0.011
647	-0.014
647	-0.018
648	-0.021
648	-0.024
649	-0.027
649	-0.03
650	-0.032
650	-0.035
650	-0.038
651	-0.042
651	-0.047
652	-0.053
652	-0.059
653	-0.064
653	-0.068
653	-0.066
654	-0.06
654	-0.062
655	-0.066
655	-0.069
656	-0.072
656	-0.076
657	-0.079
657	-0.081
657	-0.086
658	-0.09
658	-0.107
659	-0.149
659	-0.194
660	-0.217
660	-0.233
661	-0.25
661	-0.268
661	-0.289
662	-0.306
662	-0.321
663	-0.337
663	-0.359
664	-0.376
664	-0.4
665	-0.419
665	-0.435
665	-0.458
666	-0.477
666	-0.497
667	-0.518
667	-0.542
668	-0.568
668	-0.596
669	-0.628
669	-0.661
669	-0.701
670	-0.748
670	-0.812
671	-0.932
671	-1.184
672	-1.505
672	-1.873
672	-2.172
673	-2.395
673	-2.468
674	-2.488
674	-2.496
675	-2.508
675	-2.513
676	-2.514
676	-2.543
676	-2.64
677	-2.584
677	-2.272
678	-1.799
678	-1.255
679	-0.972
679	-0.889
680	-0.846
680	-0.809
680	-0.78
681	-0.775
681	-0.761
682	-0.761
682	-0.755
683	-0.746
683	-0.755
684	-0.75
684	-0.747
684	-0.739
685	-0.742
685	-0.745
686	-0.735
686	-0.724
687	-0.719
687	-0.727
687	-0.719
688	-0.713
688	-0.715
689	-0.712
689	-0.713
690	-0.711
690	-0.713
691	-0.714
691	-0.717
691	-0.711
692	-0.706
692	-0.712
693	-0.718
693	-0.724
694	-0.723
694	-0.724
695	-0.727
695	-0.717
695	-0.717
696	-0.723
696	-0.721
697	-0.723
697	-0.719
698	-0.707
698	-0.705
698	-0.714
699	-0.716
699	-0.714
700	-0.735
700	-0.734
701	-0.74
701	-0.757
702	-0.773
702	-0.785
702	-0.793
703	-0.794
703	-0.783
704	-0.784
704	-0.776
705	-0.778
705	-0.781
705	-0.765
706	-0.755
706	-0.742
707	-0.742
707	-0.748
708	-0.741
708	-0.746
709	-0.751
709	-0.758
709	-0.746
710	-0.755
710	-0.76
711	-0.757
711	-0.761
712	-0.749
712	-0.739
713	-0.749
713	-0.754
713	-0.746
714	-0.752
714	-0.766
715	-0.759
715	-0.776
716	-0.795
716	-0.791
716	-0.799
717	-0.815
717	-0.815
718	-0.81
718	-0.819
719	-0.823
719	-0.798
720	-0.801
720	-0.788
720	-0.786
721	-0.784
721	-0.79
722	-0.78
722	-0.779
723	-0.777
723	-0.772
723	-0.759
724	-0.771
724	-0.76
725	-0.761
725	-0.756
726	-0.765
726	-0.76
727	-0.764
727	-0.758
727	-0.762
728	-0.769
728	-0.772
729	-0.768
729	-0.787
730	-0.793
730	-0.793
730	-0.785
731	-0.779
731	-0.787
732	-0.792
732	-0.788
733	-0.787
733	-0.796
734	-0.794
734	-0.787
734	-0.767
735	-0.773
735	-0.778
736	-0.783
736	-0.769
737	-0.764
737	-0.762
737	-0.745
738	-0.741
738	-0.749
739	-0.75
739	-0.759
740	-0.76
740	-0.757
741	-0.752
741	-0.766
741	-0.766
742	-0.762
742	-0.786
743	-0.775
743	-0.771
744	-0.76
744	-0.756
744	-0.749
745	-0.752
745	-0.764
746	-0.755
746	-0.764
747	-0.773
747	-0.755
748	-0.761
748	-0.766
748	-0.781
749	-0.789
749	-0.791
750	-0.78
750	-0.775
751	-0.779
751	-0.763
751	-0.764
752	-0.775
752	-0.778
753	-0.776
753	-0.766
754	-0.768
754	-0.75
754	-0.765
755	-0.766
755	-0.776
756	-0.796
756	-0.785
757	-0.771
757	-0.77
758	-0.759
758	-0.759
758	-0.754
759	-0.775
759	-0.78
760	-0.772
760	-0.754
761	-0.751
761	-0.757
761	-0.776
762	-0.768
762	-0.779
763	-0.77
763	-0.778
764	-0.772
764	-0.761
764	-0.778
765	-0.794
765	-0.794
766	-0.79
766	-0.773
767	-0.787
767	-0.784
768	-0.794
768	-0.802
768	-0.793
769	-0.799
769	-0.786
770	-0.792
770	-0.782
771	-0.787
771	-0.793
771	-0.795
772	-0.807
772	-0.82
773	-0.806
773	-0.825
774	-0.819
774	-0.822
775	-0.807
775	-0.811
775	-0.81
776	-0.816
776	-0.809
777	-0.803
777	-0.799
778	-0.803
778	-0.794
778	-0.806
779	-0.82
779	-0.835
780	-0.843
780	-0.848
781	-0.861
781	-0.865
781	-0.877
782	-0.878
782	-0.88
783	-0.889
783	-0.895
784	-0.882
784	-0.865
784	-0.882
785	-0.887
785	-0.887
786	-0.889
786	-0.875
787	-0.864
787	-0.89
788	-0.889
788	-0.869
788	-0.862
789	-0.857
789	-0.843
790	-0.843
790	-0.837
791	-0.85
791	-0.861
791	-0.865
792	-0.843
792	-0.847
793	-0.855
793	-0.868
794	-0.873
794	-0.877
794	-0.87
795	-0.86
795	-0.843
796	-0.821
796	-0.832
797	-0.838
797	-0.823
797	-0.833
798	-0.827
798	-0.84
799	-0.827
799	-0.834
800	-0.838
800	-0.849
801	-0.868
801	-0.854
801	-0.837
802	-0.837
802	-0.814
803	-0.807
803	-0.796
804	-0.798
804	-0.797
804	-0.795
805	-0.785
805	-0.775
806	-0.77
806	-0.777
807	-0.777
807	-0.789
807	-0.795
808	-0.792
808	-0.792
809	-0.783
809	-0.772
810	-0.778
810	-0.766
810	-0.772
811	-0.764
811	-0.767
812	-0.767
812	-0.783
813	-0.781
813	-0.781
813	-0.777
814	-0.79
814	-0.773
815	-0.781
815	-0.79
816	-0.788
816	-0.791
817	-0.793
817	-0.772
817	-0.79
818	-0.795
818	-0.798
819	-0.799
819	-0.809
820	-0.797
820	-0.796
820	-0.808
821	-0.807
821	-0.808
822	-0.81
822	-0.806
823	-0.81
823	-0.81
823	-0.796
824	-0.805
824	-0.829
825	-0.822
825	-0.812
826	-0.796
826	-0.781
826	-0.778
827	-0.759
827	-0.744
828	-0.743
828	-0.739
829	-0.727
829	-0.711
829	-0.706
830	-0.704
830	-0.713
831	-0.709
831	-0.693
832	-0.692
832	-0.685
832	-0.672
833	-0.666
833	-0.658
834	-0.652
834	-0.65
835	-0.642
835	-0.632
835	-0.622
836	-0.628
836	-0.629
837	-0.625
837	-0.622
838	-0.621
838	-0.611
839	-0.605
839	-0.598
839	-0.593
840	-0.588
840	-0.584
841	-0.576
841	-0.564
842	-0.56
842	-0.549
842	-0.539
843	-0.537
843	-0.531
844	-0.521
844	-0.51
845	-0.497
845	-0.491
845	-0.476
846	-0.466
846	-0.45
847	-0.444
847	-0.432
848	-0.418
848	-0.405
848	-0.393
849	-0.381
849	-0.371
850	-0.359
850	-0.35
851	-0.342
851	-0.332
851	-0.322
852	-0.309
852	-0.3
853	-0.293
853	-0.287
854	-0.278
854	-0.269
854	-0.261
855	-0.252
855	-0.242
856	-0.235
856	-0.226
857	-0.22
857	-0.212
857	-0.201
858	-0.192
858	-0.186
859	-0.176
859	-0.167
860	-0.16
860	-0.15
860	-0.142
861	-0.135
861	-0.129
862	-0.123
862	-0.119
863	-0.113
863	-0.106
863	-0.103
864	-0.1
864	-0.095
865	-0.09
865	-0.087
866	-0.083
866	-0.079
866	-0.076
867	-0.072
867	-0.068
868	-0.066
868	-0.063
869	-0.06
869	-0.058
869	-0.056
870	-0.055
870	-0.053
871	-0.052
871	-0.051
872	-0.05
872	-0.05
872	-0.049
873	-0.048
873	-0.048
874	-0.048
874	-0.048
875	-0.048
875	-0.049
875	-0.049
876	-0.05
876	-0.05
877	-0.051
877	-0.052
878	-0.052
878	-0.053
878	-0.054
879	-0.055
879	-0.056
880	-0.058
880	-0.058
881	-0.059
881	-0.059
881	-0.06
882	-0.061
882	-0.061
883	-0.062
883	-0.064
884	-0.065
884	-0.065
884	-0.066
885	-0.066
885	-0.067
886	-0.067
886	-0.068
887	-0.069
887	-0.07
887	-0.07
888	-0.07
888	-0.07
889	-0.07
889	-0.071
890	-0.071
890	-0.071
890	-0.072
891	-0.071
891	-0.072
892	-0.072
892	-0.073
893	-0.074
893	-0.074
893	-0.073
894	-0.073
894	-0.073
895	-0.073
895	-0.072
895	-0.072
896	-0.071
896	-0.07
897	-0.07
897	-0.069
898	-0.068
898	-0.067
898	-0.066
899	-0.065
899	-0.064
900	-0.064
900	-0.063
901	-0.062
901	-0.062
901	-0.062
902	-0.061
902	-0.061
903	-0.061
903	-0.061
904	-0.061
904	-0.06
904	-0.06
905	-0.06
905	-0.06
906	-0.061
906	-0.061
907	-0.061
907	-0.06
907	-0.06
908	-0.06
908	-0.06
909	-0.059
909	-0.059
910	-0.058
910	-0.057
910	-0.057
911	-0.056
911	-0.056
912	-0.055
912	-0.054
913	-0.053
913	-0.053
913	-0.052
914	-0.052
914	-0.051
915	-0.051
915	-0.05
916	-0.049
916	-0.049
916	-0.049
917	-0.048
917	-0.048
918	-0.047
918	-0.047
918	-0.046
919	-0.046
919	-0.045
920	-0.045
920	-0.044
921	-0.043
921	-0.043
921	-0.042
922	-0.042
922	-0.042
923	-0.042
923	-0.042
924	-0.043
924	-0.043
924	-0.043
925	-0.044
925	-0.045
926	-0.045
926	-0.046
927	-0.046
927	-0.046
927	-0.047
928	-0.047
928	-0.047
929	-0.047
929	-0.048
930	-0.048
930	-0.049
930	-0.05
931	-0.051
931	-0.052
932	-0.053
932	-0.054
933	-0.055
933	-0.056
933	-0.058
934	-0.059
934	-0.06
935	-0.06
935	-0.061
935	-0.062
936	-0.063
936	-0.063
937	-0.063
937	-0.063
938	-0.062
938	-0.062
938	-0.062
939	-0.061
939	-0.061
940	-0.06
940	-0.06
941	-0.059
941	-0.059
941	-0.059
942	-0.059
942	-0.058
943	-0.058
943	-0.058
944	-0.058
944	-0.058
944	-0.058
945	-0.057
945	-0.056
946	-0.055
946	-0.055
946	-0.054
947	-0.053
947	-0.052
948	-0.051
948	-0.049
949	-0.048
949	-0.047
949	-0.046
950	-0.045
950	-0.045
951	-0.043
951	-0.043
952	-0.043
952	-0.043
952	-0.043
953	-0.042
953	-0.042
954	-0.042
954	-0.041
955	-0.041
955	-0.04
955	-0.039
956	-0.038
956	-0.036
957	-0.036
957	-0.034
957	-0.034
958	-0.033
958	-0.031
959	-0.03
959	-0.029
960	-0.028
960	-0.027
960	-0.026
961	-0.025
961	-0.023
962	-0.022
962	-0.021
963	-0.021
963	-0.021
963	-0.021
964	-0.022
964	-0.022
965	-0.022
965	-0.024
966	-0.024
966	-0.025
966	-0.026
967	-0.027
967	-0.028
968	-0.029
968	-0.03
968	-0.031
969	-0.033
969	-0.034
970	-0.035
970	-0.036
971	-0.037
971	-0.038
971	-0.038
972	-0.039
972	-0.039
973	-0.039
973	-0.04
974	-0.04
974	-0.04
974	-0.041
975	-0.041
975	-0.042
976	-0.042
976	-0.043
976	-0.044
977	-0.045
977	-0.046
978	-0.047
978	-0.048
979	-0.048
979	-0.049
979	-0.049
980	-0.05
980	-0.05
981	-0.05
981	-0.05
982	-0.05
982	-0.05
982	-0.049
983	-0.049
983	-0.049
984	-0.049
984	-0.049
984	-0.049
985	-0.049
985	-0.049
986	-0.049
986	-0.05
987	-0.05
987	-0.051
987	-0.051
988	-0.051
988	-0.052
989	-0.052
989	-0.052
990	-0.053
990	-0.053
990	-0.053
991	-0.053
991	-0.053
992	-0.053
992	-0.053
992	-0.054
993	-0.055
993	-0.055
994	-0.056
994	-0.057
995	-0.058
995	-0.059
995	-0.059
996	-0.06
996	-0.061
997	-0.062
997	-0.062
997	-0.062
998	-0.063
998	-0.062
999	-0.063
999	-0.063
1000	-0.063
1000	-0.064
1000	-0.064
1001	-0.065
1001	-0.065
1002	-0.066
1002	-0.066
1003	-0.067
1003	-0.068
1003	-0.069
1004	-0.07
1004	-0.071
1005	-0.072
1005	-0.073
1005	-0.074
1006	-0.075
1006	-0.076
1007	-0.077
1007	-0.077
1008	-0.078
1008	-0.078
1008	-0.078
1009	-0.079
1009	-0.079
1010	-0.079
1010	-0.079
1010	-0.079
1011	-0.079
1011	-0.079
1012	-0.078
1012	-0.078
1013	-0.078
1013	-0.079
1013	-0.079
1014	-0.08
1014	-0.081
1015	-0.082
1015	-0.082
1016	-0.083
1016	-0.083
1016	-0.084
1017	-0.084
1017	-0.085
1018	-0.084
1018	-0.084
1018	-0.084
1019	-0.083
1019	-0.083
1020	-0.083
1020	-0.083
1021	-0.083
1021	-0.083
1021	-0.082
1022	-0.082
1022	-0.082
1023	-0.083
1023	-0.083
1023	-0.084
1024	-0.085
1024	-0.086
1025	-0.087
1025	-0.088
1026	-0.088
1026	-0.089
1026	-0.089
1027	-0.09
1027	-0.09
1028	-0.09
1028	-0.09
1028	-0.089
1029	-0.089
1029	-0.088
1030	-0.087
1030	-0.087
1031	-0.086
1031	-0.085
1031	-0.085
1032	-0.084
1032	-0.084
1033	-0.083
1033	-0.083
1033	-0.083
1034	-0.083
1034	-0.084
1035	-0.084
1035	-0.084
1036	-0.085
1036	-0.085
1036	-0.086
1037	-0.086
1037	-0.085
1038	-0.085
1038	-0.085
1039	-0.084
1039	-0.084
1039	-0.083
1040	-0.083
1040	-0.082
1041	-0.081
1041	-0.081
1041	-0.08
1042	-0.08
1042	-0.08
1043	-0.079
1043	-0.079
1044	-0.079
1044	-0.079
1044	-0.079
1045	-0.079
1045	-0.079
1046	-0.079
1046	-0.079
1046	-0.079
1047	-0.079
1047	-0.079
1048	-0.079
1048	-0.079
1049	-0.079
1049	-0.079
1049	-0.079
1050	-0.079
1050	-0.08
1051	-0.081
1051	-0.081
1051	-0.081
1052	-0.082
1052	-0.082
1053	-0.082
1053	-0.082
1053	-0.082
1054	-0.082
1054	-0.082
1055	-0.082
1055	-0.081
1056	-0.081
1056	-0.082
1056	-0.082
1057	-0.082
1057	-0.083
1058	-0.083
1058	-0.084
1058	-0.084
1059	-0.085
1059	-0.085
1060	-0.086
1060	-0.086
1061	-0.087
1061	-0.087
1061	-0.087
1062	-0.087
1062	-0.087
1063	-0.087
1063	-0.088
1063	-0.088
1064	-0.088
1064	-0.088
1065	-0.089
1065	-0.089
1066	-0.09
1066	-0.091
1066	-0.091
1067	-0.092
1067	-0.092
1068	-0.093
1068	-0.093
1068	-0.094
1069	-0.094
1069	-0.095
1070	-0.096
1070	-0.096
1071	-0.097
1071	-0.097
1071	-0.098
1072	-0.098
1072	-0.099
1073	-0.099
1073	-0.099
1073	-0.099
1074	-0.099
1074	-0.099
1075	-0.099
1075	-0.099
1076	-0.1
1076	-0.099
1076	-0.1
1077	-0.1
1077	-0.101
1078	-0.101
1078	-0.101
1078	-0.101
1079	-0.1
1079	-0.1
1080	-0.1
1080	-0.1
1080	-0.1
1081	-0.1
1081	-0.099
1082	-0.099
1082	-0.099
1083	-0.099
1083	-0.1
1083	-0.101
1084	-0.101
1084	-0.102
1085	-0.102
1085	-0.103
1085	-0.103
1086	-0.104
1086	-0.105
1087	-0.105
1087	-0.105
1088	-0.105
1088	-0.106
1088	-0.106
1089	-0.107
1089	-0.109
1090	-0.11
1090	-0.111
1090	-0.111
1091	-0.113
1091	-0.114
1092	-0.115
1092	-0.115
1092	-0.116
1093	-0.116
1093	-0.116
1094	-0.116
1094	-0.117
1095	-0.118
1095	-0.119
1095	-0.12
1096	-0.121
1096	-0.123
1097	-0.124
1097	-0.126
1097	-0.127
1098	-0.129
1098	-0.131
1099	-0.132
1099	-0.133
1100	-0.135
1100	-0.136
1100	-0.138
1101	-0.139
1101	-0.141
1102	-0.144
1102	-0.145
1102	-0.147
1103	-0.15
1103	-0.151
1104	-0.153
1104	-0.154
1104	-0.156
1105	-0.158
1105	-0.161
1106	-0.164
1106	-0.165
1107	-0.17
1107	-0.173
1107	-0.177
1108	-0.18
1108	-0.182
1109	-0.185
1109	-0.188
1109	-0.193
1110	-0.194
1110	-0.198
1111	-0.205
1111	-0.201
