Data from 40to5_hyst_3.5A_10sec_80mins_Absorbance__111__00733.txt Node

Date: Mon Jun 26 11:14:48 CEST 2023
User: Marek
Spectrometer: MAYP115816
Trigger mode: 0
Integration Time (sec): 2.500000E-1
Scans to average: 10
Electric dark correction enabled: true
Nonlinearity correction enabled: true
Boxcar width: 5
XAxis mode: Wavelengths
Number of Pixels in Spectrum: 2068
>>>>>Begin Spectral Data<<<<<
199	-0.788
199	-0.767
200	-0.735
200	-0.677
201	-0.634
201	-0.607
202	-0.586
202	-0.59
203	-0.581
203	-0.57
204	-0.553
204	-0.534
205	-0.518
205	-0.508
205	-0.511
206	-0.511
206	-0.523
207	-0.523
207	-0.52
208	-0.524
208	-0.528
209	-0.53
209	-0.541
210	-0.548
210	-0.547
211	-0.55
211	-0.56
212	-0.56
212	-0.564
213	-0.57
213	-0.572
213	-0.574
214	-0.574
214	-0.575
215	-0.572
215	-0.58
216	-0.579
216	-0.581
217	-0.578
217	-0.577
218	-0.576
218	-0.575
219	-0.578
219	-0.581
220	-0.583
220	-0.589
221	-0.598
221	-0.604
221	-0.604
222	-0.61
222	-0.609
223	-0.613
223	-0.61
224	-0.615
224	-0.608
225	-0.606
225	-0.607
226	-0.604
226	-0.6
227	-0.6
227	-0.606
228	-0.601
228	-0.603
229	-0.605
229	-0.599
229	-0.605
230	-0.607
230	-0.605
231	-0.594
231	-0.584
232	-0.58
232	-0.571
233	-0.586
233	-0.579
234	-0.586
234	-0.584
235	-0.583
235	-0.579
236	-0.582
236	-0.587
236	-0.596
237	-0.595
237	-0.592
238	-0.583
238	-0.589
239	-0.579
239	-0.581
240	-0.581
240	-0.58
241	-0.579
241	-0.581
242	-0.586
242	-0.593
243	-0.602
243	-0.61
243	-0.611
244	-0.612
244	-0.613
245	-0.627
245	-0.635
246	-0.642
246	-0.638
247	-0.643
247	-0.64
248	-0.631
248	-0.626
249	-0.63
249	-0.635
250	-0.64
250	-0.628
250	-0.622
251	-0.629
251	-0.636
252	-0.63
252	-0.63
253	-0.638
253	-0.649
254	-0.648
254	-0.652
255	-0.662
255	-0.67
256	-0.671
256	-0.668
257	-0.671
257	-0.671
258	-0.681
258	-0.679
258	-0.677
259	-0.675
259	-0.679
260	-0.673
260	-0.675
261	-0.676
261	-0.673
262	-0.673
262	-0.679
263	-0.671
263	-0.678
264	-0.685
264	-0.686
265	-0.684
265	-0.683
265	-0.685
266	-0.687
266	-0.694
267	-0.704
267	-0.703
268	-0.714
268	-0.704
269	-0.696
269	-0.701
270	-0.71
270	-0.71
271	-0.716
271	-0.725
272	-0.723
272	-0.709
272	-0.717
273	-0.715
273	-0.722
274	-0.716
274	-0.712
275	-0.71
275	-0.72
276	-0.714
276	-0.708
277	-0.703
277	-0.713
278	-0.716
278	-0.713
278	-0.727
279	-0.734
279	-0.736
280	-0.737
280	-0.735
281	-0.742
281	-0.763
282	-0.76
282	-0.762
283	-0.76
283	-0.769
284	-0.759
284	-0.757
285	-0.767
285	-0.75
285	-0.737
286	-0.734
286	-0.712
287	-0.715
287	-0.705
288	-0.687
288	-0.681
289	-0.671
289	-0.682
290	-0.676
290	-0.675
291	-0.681
291	-0.674
292	-0.674
292	-0.677
292	-0.687
293	-0.697
293	-0.694
294	-0.705
294	-0.691
295	-0.689
295	-0.692
296	-0.691
296	-0.695
297	-0.695
297	-0.684
298	-0.679
298	-0.677
298	-0.673
299	-0.66
299	-0.665
300	-0.665
300	-0.66
301	-0.655
301	-0.657
302	-0.661
302	-0.659
303	-0.648
303	-0.642
304	-0.642
304	-0.643
305	-0.637
305	-0.631
305	-0.641
306	-0.635
306	-0.631
307	-0.621
307	-0.621
308	-0.623
308	-0.621
309	-0.62
309	-0.62
310	-0.611
310	-0.607
311	-0.596
311	-0.595
311	-0.588
312	-0.576
312	-0.572
313	-0.563
313	-0.563
314	-0.561
314	-0.563
315	-0.563
315	-0.562
316	-0.561
316	-0.557
317	-0.548
317	-0.554
318	-0.548
318	-0.549
318	-0.53
319	-0.524
319	-0.507
320	-0.505
320	-0.506
321	-0.493
321	-0.49
322	-0.486
322	-0.482
323	-0.483
323	-0.477
324	-0.48
324	-0.468
324	-0.465
325	-0.447
325	-0.424
326	-0.42
326	-0.398
327	-0.382
327	-0.359
328	-0.326
328	-0.305
329	-0.278
329	-0.248
330	-0.215
330	-0.182
330	-0.149
331	-0.114
331	-0.082
332	-0.048
332	-0.015
333	0.015
333	0.05
334	0.081
334	0.107
335	0.134
335	0.156
336	0.18
336	0.203
336	0.222
337	0.241
337	0.26
338	0.278
338	0.289
339	0.304
339	0.316
340	0.327
340	0.338
341	0.345
341	0.352
342	0.36
342	0.367
342	0.371
343	0.375
343	0.381
344	0.385
344	0.389
345	0.392
345	0.395
346	0.398
346	0.401
347	0.403
347	0.405
348	0.407
348	0.409
348	0.411
349	0.412
349	0.413
350	0.415
350	0.416
351	0.417
351	0.417
352	0.417
352	0.418
353	0.419
353	0.419
354	0.42
354	0.42
354	0.42
355	0.421
355	0.421
356	0.421
356	0.421
357	0.421
357	0.421
358	0.421
358	0.421
359	0.421
359	0.421
360	0.421
360	0.421
360	0.421
361	0.421
361	0.421
362	0.422
362	0.422
363	0.422
363	0.422
364	0.422
364	0.422
365	0.422
365	0.422
366	0.422
366	0.421
366	0.421
367	0.421
367	0.42
368	0.42
368	0.419
369	0.419
369	0.418
370	0.418
370	0.417
371	0.417
371	0.417
372	0.417
372	0.416
372	0.416
373	0.416
373	0.415
374	0.415
374	0.415
375	0.415
375	0.414
376	0.414
376	0.414
377	0.413
377	0.413
378	0.412
378	0.412
378	0.411
379	0.411
379	0.411
380	0.41
380	0.41
381	0.409
381	0.409
382	0.408
382	0.407
383	0.407
383	0.406
383	0.405
384	0.405
384	0.404
385	0.404
385	0.403
386	0.403
386	0.403
387	0.402
387	0.402
388	0.402
388	0.402
389	0.401
389	0.401
389	0.401
390	0.4
390	0.4
391	0.399
391	0.399
392	0.398
392	0.397
393	0.397
393	0.396
394	0.396
394	0.395
394	0.395
395	0.394
395	0.394
396	0.393
396	0.393
397	0.392
397	0.392
398	0.392
398	0.391
399	0.391
399	0.39
400	0.39
400	0.389
400	0.389
401	0.388
401	0.388
402	0.387
402	0.386
403	0.386
403	0.386
404	0.385
404	0.385
405	0.385
405	0.384
405	0.384
406	0.383
406	0.383
407	0.383
407	0.382
408	0.382
408	0.382
409	0.381
409	0.381
410	0.38
410	0.38
411	0.38
411	0.379
411	0.379
412	0.379
412	0.378
413	0.377
413	0.377
414	0.377
414	0.376
415	0.376
415	0.375
416	0.375
416	0.374
416	0.374
417	0.374
417	0.374
418	0.374
418	0.374
419	0.373
419	0.373
420	0.373
420	0.373
421	0.373
421	0.373
421	0.373
422	0.373
422	0.373
423	0.373
423	0.372
424	0.372
424	0.372
425	0.372
425	0.371
426	0.371
426	0.371
427	0.371
427	0.371
427	0.37
428	0.37
428	0.37
429	0.37
429	0.369
430	0.369
430	0.369
431	0.368
431	0.368
432	0.368
432	0.368
432	0.368
433	0.368
433	0.368
434	0.368
434	0.368
435	0.368
435	0.368
436	0.367
436	0.367
437	0.367
437	0.366
437	0.366
438	0.366
438	0.366
439	0.366
439	0.366
440	0.366
440	0.366
441	0.366
441	0.366
442	0.366
442	0.367
442	0.367
443	0.367
443	0.367
444	0.367
444	0.367
445	0.368
445	0.368
446	0.368
446	0.368
447	0.368
447	0.368
447	0.368
448	0.368
448	0.367
449	0.367
449	0.367
450	0.367
450	0.368
451	0.368
451	0.368
452	0.369
452	0.369
452	0.37
453	0.37
453	0.37
454	0.371
454	0.371
455	0.371
455	0.372
456	0.372
456	0.373
457	0.373
457	0.373
458	0.373
458	0.373
458	0.374
459	0.374
459	0.375
460	0.375
460	0.375
461	0.375
461	0.376
462	0.376
462	0.377
463	0.378
463	0.378
463	0.379
464	0.38
464	0.38
465	0.381
465	0.382
466	0.382
466	0.383
467	0.384
467	0.384
467	0.385
468	0.386
468	0.386
469	0.387
469	0.388
470	0.389
470	0.39
471	0.391
471	0.392
472	0.392
472	0.393
472	0.395
473	0.396
473	0.397
474	0.398
474	0.4
475	0.401
475	0.402
476	0.403
476	0.405
477	0.406
477	0.408
477	0.41
478	0.411
478	0.413
479	0.414
479	0.416
480	0.418
480	0.42
481	0.422
481	0.423
482	0.425
482	0.427
482	0.429
483	0.431
483	0.433
484	0.436
484	0.438
485	0.44
485	0.442
486	0.444
486	0.446
487	0.448
487	0.451
487	0.453
488	0.455
488	0.458
489	0.46
489	0.464
490	0.467
490	0.47
491	0.473
491	0.476
492	0.479
492	0.481
492	0.485
493	0.488
493	0.491
494	0.495
494	0.499
495	0.502
495	0.505
496	0.509
496	0.512
496	0.516
497	0.52
497	0.523
498	0.527
498	0.53
499	0.534
499	0.538
500	0.543
500	0.547
501	0.551
501	0.555
501	0.559
502	0.563
502	0.567
503	0.572
503	0.576
504	0.579
504	0.583
505	0.588
505	0.592
506	0.596
506	0.601
506	0.606
507	0.609
507	0.614
508	0.618
508	0.623
509	0.627
509	0.631
510	0.636
510	0.64
511	0.644
511	0.648
511	0.651
512	0.656
512	0.66
513	0.663
513	0.667
514	0.671
514	0.676
515	0.679
515	0.682
515	0.685
516	0.688
516	0.691
517	0.694
517	0.697
518	0.7
518	0.702
519	0.704
519	0.706
520	0.708
520	0.711
520	0.713
521	0.715
521	0.716
522	0.717
522	0.719
523	0.721
523	0.723
524	0.724
524	0.725
524	0.726
525	0.726
525	0.727
526	0.727
526	0.727
527	0.727
527	0.727
528	0.726
528	0.726
529	0.724
529	0.724
529	0.723
530	0.722
530	0.72
531	0.719
531	0.718
532	0.716
532	0.714
533	0.712
533	0.709
533	0.707
534	0.704
534	0.702
535	0.699
535	0.696
536	0.693
536	0.689
537	0.686
537	0.682
538	0.679
538	0.675
538	0.671
539	0.667
539	0.663
540	0.659
540	0.655
541	0.65
541	0.645
542	0.641
542	0.636
542	0.63
543	0.626
543	0.62
544	0.615
544	0.61
545	0.605
545	0.6
546	0.594
546	0.588
547	0.582
547	0.576
547	0.57
548	0.564
548	0.558
549	0.553
549	0.547
550	0.541
550	0.534
551	0.527
551	0.521
551	0.515
552	0.508
552	0.503
553	0.497
553	0.491
554	0.484
554	0.478
555	0.472
555	0.467
556	0.461
556	0.455
556	0.449
557	0.444
557	0.438
558	0.432
558	0.425
559	0.419
559	0.413
560	0.407
560	0.401
560	0.396
561	0.391
561	0.385
562	0.38
562	0.375
563	0.369
563	0.364
564	0.359
564	0.353
564	0.348
565	0.343
565	0.338
566	0.332
566	0.327
567	0.323
567	0.318
568	0.313
568	0.308
568	0.303
569	0.299
569	0.295
570	0.29
570	0.286
571	0.282
571	0.279
572	0.274
572	0.27
573	0.266
573	0.261
573	0.257
574	0.253
574	0.249
575	0.245
575	0.242
576	0.237
576	0.232
577	0.228
577	0.225
577	0.221
578	0.218
578	0.215
579	0.213
579	0.21
580	0.205
580	0.2
581	0.197
581	0.194
581	0.192
582	0.19
582	0.187
583	0.185
583	0.182
584	0.177
584	0.173
585	0.172
585	0.17
585	0.167
586	0.164
586	0.162
587	0.159
587	0.156
588	0.153
588	0.151
589	0.149
589	0.147
590	0.145
590	0.143
590	0.142
591	0.14
591	0.137
592	0.134
592	0.132
593	0.13
593	0.128
594	0.126
594	0.124
594	0.122
595	0.121
595	0.118
596	0.115
596	0.114
597	0.113
597	0.111
598	0.109
598	0.108
598	0.106
599	0.105
599	0.103
600	0.101
600	0.1
601	0.099
601	0.098
602	0.096
602	0.094
602	0.092
603	0.091
603	0.09
604	0.089
604	0.087
605	0.086
605	0.085
606	0.083
606	0.08
606	0.078
607	0.076
607	0.075
608	0.074
608	0.071
609	0.07
609	0.069
610	0.068
610	0.066
610	0.066
611	0.066
611	0.065
612	0.065
612	0.065
613	0.064
613	0.064
614	0.063
614	0.062
614	0.061
615	0.06
615	0.058
616	0.057
616	0.056
617	0.054
617	0.053
618	0.051
618	0.05
618	0.048
619	0.047
619	0.046
620	0.046
620	0.046
621	0.045
621	0.044
622	0.044
622	0.043
622	0.042
623	0.041
623	0.041
624	0.041
624	0.039
625	0.038
625	0.036
626	0.035
626	0.034
626	0.033
627	0.033
627	0.032
628	0.031
628	0.03
629	0.03
629	0.029
630	0.028
630	0.028
630	0.028
631	0.027
631	0.026
632	0.026
632	0.025
633	0.025
633	0.025
634	0.025
634	0.025
634	0.025
635	0.024
635	0.024
636	0.024
636	0.023
637	0.023
637	0.022
638	0.021
638	0.02
638	0.019
639	0.017
639	0.016
640	0.015
640	0.013
641	0.013
641	0.011
642	0.01
642	0.01
642	0.009
643	0.008
643	0.006
644	0.005
644	0.004
645	0.002
645	0
646	-0.001
646	-0.004
646	-0.007
647	-0.01
647	-0.014
648	-0.017
648	-0.02
649	-0.023
649	-0.026
650	-0.029
650	-0.031
650	-0.034
651	-0.038
651	-0.043
652	-0.048
652	-0.054
653	-0.059
653	-0.064
653	-0.061
654	-0.055
654	-0.057
655	-0.061
655	-0.065
656	-0.068
656	-0.072
657	-0.075
657	-0.078
657	-0.083
658	-0.086
658	-0.103
659	-0.147
659	-0.192
660	-0.216
660	-0.232
661	-0.247
661	-0.266
661	-0.285
662	-0.304
662	-0.319
663	-0.334
663	-0.356
664	-0.371
664	-0.396
665	-0.414
665	-0.43
665	-0.451
666	-0.469
666	-0.488
667	-0.508
667	-0.532
668	-0.559
668	-0.586
669	-0.619
669	-0.651
669	-0.69
670	-0.734
670	-0.793
671	-0.882
671	-1.047
672	-1.369
672	-1.797
672	-2.13
673	-2.366
673	-2.447
674	-2.468
674	-2.476
675	-2.488
675	-2.493
676	-2.496
676	-2.53
676	-2.637
677	-2.591
677	-2.282
678	-1.824
678	-1.263
679	-0.973
679	-0.891
680	-0.847
680	-0.809
680	-0.779
681	-0.772
681	-0.756
682	-0.755
682	-0.75
683	-0.743
683	-0.748
684	-0.743
684	-0.741
684	-0.732
685	-0.736
685	-0.738
686	-0.727
686	-0.718
687	-0.712
687	-0.719
687	-0.711
688	-0.708
688	-0.712
689	-0.707
689	-0.707
690	-0.706
690	-0.709
691	-0.712
691	-0.714
691	-0.708
692	-0.703
692	-0.71
693	-0.714
693	-0.718
694	-0.716
694	-0.716
695	-0.719
695	-0.709
695	-0.708
696	-0.714
696	-0.714
697	-0.715
697	-0.712
698	-0.702
698	-0.698
698	-0.708
699	-0.71
699	-0.709
700	-0.729
700	-0.729
701	-0.736
701	-0.751
702	-0.77
702	-0.782
702	-0.788
703	-0.791
703	-0.781
704	-0.783
704	-0.777
705	-0.777
705	-0.779
705	-0.762
706	-0.756
706	-0.74
707	-0.743
707	-0.748
708	-0.74
708	-0.745
709	-0.749
709	-0.755
709	-0.74
710	-0.75
710	-0.754
711	-0.748
711	-0.753
712	-0.737
712	-0.729
713	-0.741
713	-0.749
713	-0.739
714	-0.747
714	-0.763
715	-0.757
715	-0.774
716	-0.792
716	-0.787
716	-0.796
717	-0.811
717	-0.807
718	-0.802
718	-0.814
719	-0.82
719	-0.796
720	-0.8
720	-0.788
720	-0.787
721	-0.785
721	-0.79
722	-0.782
722	-0.782
723	-0.778
723	-0.772
723	-0.756
724	-0.769
724	-0.761
725	-0.76
725	-0.756
726	-0.764
726	-0.762
727	-0.764
727	-0.761
727	-0.763
728	-0.77
728	-0.776
729	-0.77
729	-0.785
730	-0.792
730	-0.791
730	-0.785
731	-0.776
731	-0.788
732	-0.791
732	-0.788
733	-0.786
733	-0.791
734	-0.789
734	-0.78
734	-0.761
735	-0.766
735	-0.768
736	-0.774
736	-0.756
737	-0.753
737	-0.751
737	-0.737
738	-0.735
738	-0.742
739	-0.746
739	-0.755
740	-0.76
740	-0.757
741	-0.751
741	-0.765
741	-0.765
742	-0.761
742	-0.784
743	-0.776
743	-0.774
744	-0.761
744	-0.758
744	-0.746
745	-0.752
745	-0.763
746	-0.757
746	-0.764
747	-0.772
747	-0.755
748	-0.759
748	-0.762
748	-0.776
749	-0.786
749	-0.788
750	-0.775
750	-0.771
751	-0.774
751	-0.76
751	-0.761
752	-0.77
752	-0.772
753	-0.769
753	-0.76
754	-0.761
754	-0.744
754	-0.758
755	-0.758
755	-0.767
756	-0.783
756	-0.773
757	-0.759
757	-0.757
758	-0.748
758	-0.748
758	-0.744
759	-0.765
759	-0.771
760	-0.764
760	-0.747
761	-0.746
761	-0.754
761	-0.773
762	-0.766
762	-0.778
763	-0.77
763	-0.778
764	-0.771
764	-0.761
764	-0.779
765	-0.794
765	-0.793
766	-0.791
766	-0.775
767	-0.789
767	-0.784
768	-0.792
768	-0.798
768	-0.788
769	-0.793
769	-0.778
770	-0.783
770	-0.773
771	-0.778
771	-0.781
771	-0.783
772	-0.799
772	-0.813
773	-0.801
773	-0.822
774	-0.817
774	-0.821
775	-0.809
775	-0.815
775	-0.812
776	-0.819
776	-0.813
777	-0.804
777	-0.801
778	-0.804
778	-0.793
778	-0.803
779	-0.819
779	-0.833
780	-0.839
780	-0.846
781	-0.857
781	-0.862
781	-0.873
782	-0.874
782	-0.875
783	-0.885
783	-0.893
784	-0.876
784	-0.86
784	-0.878
785	-0.88
785	-0.882
786	-0.886
786	-0.872
787	-0.858
787	-0.885
788	-0.883
788	-0.862
788	-0.857
789	-0.852
789	-0.839
790	-0.837
790	-0.831
791	-0.844
791	-0.855
791	-0.86
792	-0.836
792	-0.842
793	-0.852
793	-0.864
794	-0.87
794	-0.874
794	-0.868
795	-0.858
795	-0.837
796	-0.816
796	-0.826
797	-0.834
797	-0.818
797	-0.825
798	-0.821
798	-0.832
799	-0.819
799	-0.828
800	-0.831
800	-0.842
801	-0.861
801	-0.847
801	-0.832
802	-0.83
802	-0.809
803	-0.802
803	-0.792
804	-0.791
804	-0.79
804	-0.789
805	-0.783
805	-0.772
806	-0.768
806	-0.774
807	-0.777
807	-0.787
807	-0.793
808	-0.789
808	-0.789
809	-0.779
809	-0.767
810	-0.771
810	-0.76
810	-0.766
811	-0.757
811	-0.759
812	-0.758
812	-0.773
813	-0.771
813	-0.771
813	-0.769
814	-0.783
814	-0.768
815	-0.775
815	-0.784
816	-0.783
816	-0.786
817	-0.792
817	-0.772
817	-0.79
818	-0.797
818	-0.798
819	-0.798
819	-0.809
820	-0.797
820	-0.795
820	-0.808
821	-0.808
821	-0.806
822	-0.807
822	-0.805
823	-0.808
823	-0.809
823	-0.795
824	-0.802
824	-0.828
825	-0.82
825	-0.81
826	-0.795
826	-0.781
826	-0.779
827	-0.756
827	-0.743
828	-0.743
828	-0.736
829	-0.722
829	-0.705
829	-0.7
830	-0.697
830	-0.704
831	-0.699
831	-0.683
832	-0.685
832	-0.68
832	-0.665
833	-0.662
833	-0.655
834	-0.648
834	-0.644
835	-0.638
835	-0.628
835	-0.62
836	-0.627
836	-0.626
837	-0.621
837	-0.62
838	-0.62
838	-0.612
839	-0.606
839	-0.602
839	-0.596
840	-0.59
840	-0.585
841	-0.577
841	-0.564
842	-0.557
842	-0.543
842	-0.533
843	-0.531
843	-0.524
844	-0.514
844	-0.501
845	-0.489
845	-0.482
845	-0.468
846	-0.46
846	-0.445
847	-0.439
847	-0.428
848	-0.412
848	-0.401
848	-0.389
849	-0.378
849	-0.367
850	-0.357
850	-0.346
851	-0.336
851	-0.326
851	-0.317
852	-0.305
852	-0.295
853	-0.289
853	-0.282
854	-0.273
854	-0.265
854	-0.256
855	-0.247
855	-0.239
856	-0.231
856	-0.224
857	-0.217
857	-0.211
857	-0.2
858	-0.191
858	-0.186
859	-0.177
859	-0.168
860	-0.162
860	-0.152
860	-0.144
861	-0.137
861	-0.131
862	-0.125
862	-0.121
863	-0.115
863	-0.109
863	-0.104
864	-0.101
864	-0.096
865	-0.091
865	-0.088
866	-0.084
866	-0.081
866	-0.077
867	-0.074
867	-0.071
868	-0.068
868	-0.066
869	-0.063
869	-0.061
869	-0.06
870	-0.059
870	-0.057
871	-0.056
871	-0.056
872	-0.055
872	-0.055
872	-0.054
873	-0.053
873	-0.053
874	-0.052
874	-0.052
875	-0.051
875	-0.051
875	-0.05
876	-0.05
876	-0.05
877	-0.05
877	-0.05
878	-0.05
878	-0.05
878	-0.05
879	-0.05
879	-0.051
880	-0.052
880	-0.053
881	-0.054
881	-0.055
881	-0.056
882	-0.056
882	-0.057
883	-0.058
883	-0.06
884	-0.061
884	-0.061
884	-0.062
885	-0.062
885	-0.063
886	-0.063
886	-0.064
887	-0.065
887	-0.065
887	-0.065
888	-0.065
888	-0.065
889	-0.066
889	-0.067
890	-0.067
890	-0.068
890	-0.068
891	-0.068
891	-0.069
892	-0.07
892	-0.07
893	-0.071
893	-0.072
893	-0.071
894	-0.071
894	-0.071
895	-0.071
895	-0.07
895	-0.069
896	-0.068
896	-0.067
897	-0.067
897	-0.066
898	-0.065
898	-0.065
898	-0.064
899	-0.063
899	-0.062
900	-0.062
900	-0.062
901	-0.061
901	-0.061
901	-0.061
902	-0.06
902	-0.06
903	-0.06
903	-0.06
904	-0.06
904	-0.061
904	-0.061
905	-0.061
905	-0.062
906	-0.062
906	-0.062
907	-0.062
907	-0.062
907	-0.062
908	-0.061
908	-0.061
909	-0.06
909	-0.059
910	-0.058
910	-0.057
910	-0.056
911	-0.055
911	-0.055
912	-0.054
912	-0.053
913	-0.052
913	-0.051
913	-0.051
914	-0.05
914	-0.05
915	-0.05
915	-0.049
916	-0.049
916	-0.049
916	-0.049
917	-0.049
917	-0.049
918	-0.048
918	-0.048
918	-0.047
919	-0.047
919	-0.046
920	-0.045
920	-0.044
921	-0.044
921	-0.043
921	-0.043
922	-0.042
922	-0.042
923	-0.042
923	-0.042
924	-0.043
924	-0.043
924	-0.044
925	-0.045
925	-0.045
926	-0.046
926	-0.046
927	-0.047
927	-0.047
927	-0.047
928	-0.048
928	-0.048
929	-0.048
929	-0.049
930	-0.05
930	-0.05
930	-0.051
931	-0.052
931	-0.054
932	-0.055
932	-0.056
933	-0.058
933	-0.059
933	-0.06
934	-0.062
934	-0.063
935	-0.064
935	-0.065
935	-0.066
936	-0.066
936	-0.066
937	-0.067
937	-0.066
938	-0.066
938	-0.066
938	-0.066
939	-0.065
939	-0.064
940	-0.064
940	-0.063
941	-0.063
941	-0.062
941	-0.062
942	-0.062
942	-0.062
943	-0.062
943	-0.063
944	-0.062
944	-0.063
944	-0.063
945	-0.062
945	-0.062
946	-0.061
946	-0.061
946	-0.06
947	-0.059
947	-0.058
948	-0.057
948	-0.056
949	-0.055
949	-0.054
949	-0.054
950	-0.053
950	-0.053
951	-0.052
951	-0.052
952	-0.052
952	-0.052
952	-0.053
953	-0.053
953	-0.052
954	-0.052
954	-0.052
955	-0.052
955	-0.051
955	-0.05
956	-0.049
956	-0.048
957	-0.048
957	-0.047
957	-0.046
958	-0.046
958	-0.045
959	-0.044
959	-0.043
960	-0.042
960	-0.042
960	-0.041
961	-0.04
961	-0.038
962	-0.037
962	-0.036
963	-0.035
963	-0.035
963	-0.035
964	-0.035
964	-0.035
965	-0.035
965	-0.036
966	-0.037
966	-0.038
966	-0.039
967	-0.039
967	-0.041
968	-0.042
968	-0.043
968	-0.044
969	-0.045
969	-0.047
970	-0.047
970	-0.048
971	-0.049
971	-0.05
971	-0.05
972	-0.051
972	-0.051
973	-0.051
973	-0.051
974	-0.052
974	-0.052
974	-0.052
975	-0.052
975	-0.052
976	-0.053
976	-0.053
976	-0.054
977	-0.054
977	-0.055
978	-0.055
978	-0.056
979	-0.056
979	-0.057
979	-0.057
980	-0.057
980	-0.057
981	-0.057
981	-0.057
982	-0.056
982	-0.056
982	-0.055
983	-0.055
983	-0.055
984	-0.054
984	-0.054
984	-0.054
985	-0.053
985	-0.053
986	-0.053
986	-0.053
987	-0.054
987	-0.054
987	-0.054
988	-0.054
988	-0.055
989	-0.055
989	-0.055
990	-0.055
990	-0.055
990	-0.055
991	-0.055
991	-0.054
992	-0.055
992	-0.055
992	-0.055
993	-0.056
993	-0.056
994	-0.056
994	-0.057
995	-0.058
995	-0.058
995	-0.059
996	-0.059
996	-0.06
997	-0.06
997	-0.06
997	-0.06
998	-0.06
998	-0.06
999	-0.06
999	-0.06
1000	-0.061
1000	-0.061
1000	-0.062
1001	-0.062
1001	-0.063
1002	-0.063
1002	-0.064
1003	-0.065
1003	-0.066
1003	-0.068
1004	-0.069
1004	-0.07
1005	-0.071
1005	-0.071
1005	-0.072
1006	-0.073
1006	-0.074
1007	-0.075
1007	-0.075
1008	-0.075
1008	-0.076
1008	-0.076
1009	-0.076
1009	-0.076
1010	-0.077
1010	-0.076
1010	-0.076
1011	-0.076
1011	-0.076
1012	-0.077
1012	-0.077
1013	-0.077
1013	-0.077
1013	-0.078
1014	-0.078
1014	-0.079
1015	-0.08
1015	-0.081
1016	-0.081
1016	-0.082
1016	-0.082
1017	-0.082
1017	-0.082
1018	-0.082
1018	-0.082
1018	-0.081
1019	-0.081
1019	-0.08
1020	-0.08
1020	-0.08
1021	-0.08
1021	-0.08
1021	-0.08
1022	-0.08
1022	-0.08
1023	-0.081
1023	-0.081
1023	-0.082
1024	-0.083
1024	-0.084
1025	-0.085
1025	-0.085
1026	-0.085
1026	-0.086
1026	-0.086
1027	-0.087
1027	-0.086
1028	-0.086
1028	-0.086
1028	-0.085
1029	-0.085
1029	-0.084
1030	-0.084
1030	-0.083
1031	-0.082
1031	-0.081
1031	-0.08
1032	-0.08
1032	-0.08
1033	-0.079
1033	-0.08
1033	-0.079
1034	-0.08
1034	-0.081
1035	-0.081
1035	-0.081
1036	-0.082
1036	-0.082
1036	-0.082
1037	-0.083
1037	-0.082
1038	-0.082
1038	-0.082
1039	-0.081
1039	-0.081
1039	-0.08
1040	-0.08
1040	-0.079
1041	-0.079
1041	-0.078
1041	-0.078
1042	-0.078
1042	-0.077
1043	-0.077
1043	-0.077
1044	-0.077
1044	-0.077
1044	-0.077
1045	-0.077
1045	-0.077
1046	-0.078
1046	-0.078
1046	-0.078
1047	-0.077
1047	-0.077
1048	-0.077
1048	-0.077
1049	-0.078
1049	-0.078
1049	-0.078
1050	-0.078
1050	-0.079
1051	-0.08
1051	-0.08
1051	-0.081
1052	-0.081
1052	-0.081
1053	-0.081
1053	-0.081
1053	-0.081
1054	-0.081
1054	-0.081
1055	-0.081
1055	-0.081
1056	-0.081
1056	-0.081
1056	-0.081
1057	-0.082
1057	-0.082
1058	-0.083
1058	-0.083
1058	-0.084
1059	-0.084
1059	-0.085
1060	-0.086
1060	-0.086
1061	-0.086
1061	-0.086
1061	-0.087
1062	-0.087
1062	-0.087
1063	-0.087
1063	-0.088
1063	-0.088
1064	-0.089
1064	-0.089
1065	-0.09
1065	-0.09
1066	-0.091
1066	-0.091
1066	-0.091
1067	-0.092
1067	-0.092
1068	-0.093
1068	-0.093
1068	-0.093
1069	-0.094
1069	-0.094
1070	-0.095
1070	-0.095
1071	-0.096
1071	-0.097
1071	-0.097
1072	-0.098
1072	-0.098
1073	-0.099
1073	-0.099
1073	-0.099
1074	-0.099
1074	-0.098
1075	-0.099
1075	-0.099
1076	-0.099
1076	-0.099
1076	-0.1
1077	-0.1
1077	-0.1
1078	-0.101
1078	-0.101
1078	-0.1
1079	-0.1
1079	-0.1
1080	-0.1
1080	-0.1
1080	-0.1
1081	-0.099
1081	-0.098
1082	-0.098
1082	-0.098
1083	-0.098
1083	-0.098
1083	-0.099
1084	-0.099
1084	-0.1
1085	-0.1
1085	-0.101
1085	-0.101
1086	-0.102
1086	-0.103
1087	-0.103
1087	-0.103
1088	-0.104
1088	-0.104
1088	-0.105
1089	-0.107
1089	-0.108
1090	-0.109
1090	-0.11
1090	-0.111
1091	-0.112
1091	-0.113
1092	-0.114
1092	-0.115
1092	-0.115
1093	-0.116
1093	-0.116
1094	-0.117
1094	-0.118
1095	-0.119
1095	-0.12
1095	-0.12
1096	-0.121
1096	-0.122
1097	-0.124
1097	-0.126
1097	-0.127
1098	-0.128
1098	-0.13
1099	-0.131
1099	-0.133
1100	-0.133
1100	-0.135
1100	-0.137
1101	-0.139
1101	-0.141
1102	-0.143
1102	-0.145
1102	-0.147
1103	-0.149
1103	-0.15
1104	-0.152
1104	-0.155
1104	-0.156
1105	-0.158
1105	-0.16
1106	-0.164
1106	-0.166
1107	-0.17
1107	-0.174
1107	-0.178
1108	-0.18
1108	-0.183
1109	-0.186
1109	-0.19
1109	-0.194
1110	-0.196
1110	-0.198
1111	-0.205
1111	-0.202
