Data from 40to5_hyst_3.5A_10sec_80mins_Absorbance__98__00720.txt Node

Date: Mon Jun 26 11:12:38 CEST 2023
User: Marek
Spectrometer: MAYP115816
Trigger mode: 0
Integration Time (sec): 2.500000E-1
Scans to average: 10
Electric dark correction enabled: true
Nonlinearity correction enabled: true
Boxcar width: 5
XAxis mode: Wavelengths
Number of Pixels in Spectrum: 2068
>>>>>Begin Spectral Data<<<<<
199	-0.78
199	-0.763
200	-0.733
200	-0.679
201	-0.638
201	-0.608
202	-0.587
202	-0.592
203	-0.584
203	-0.575
204	-0.557
204	-0.539
205	-0.519
205	-0.51
205	-0.511
206	-0.511
206	-0.524
207	-0.522
207	-0.518
208	-0.523
208	-0.528
209	-0.534
209	-0.545
210	-0.555
210	-0.555
211	-0.558
211	-0.566
212	-0.566
212	-0.573
213	-0.579
213	-0.579
213	-0.579
214	-0.579
214	-0.581
215	-0.576
215	-0.582
216	-0.581
216	-0.584
217	-0.582
217	-0.579
218	-0.577
218	-0.578
219	-0.58
219	-0.581
220	-0.584
220	-0.591
221	-0.598
221	-0.606
221	-0.606
222	-0.611
222	-0.612
223	-0.613
223	-0.612
224	-0.617
224	-0.611
225	-0.611
225	-0.615
226	-0.613
226	-0.609
227	-0.608
227	-0.613
228	-0.608
228	-0.611
229	-0.613
229	-0.609
229	-0.611
230	-0.612
230	-0.606
231	-0.595
231	-0.585
232	-0.583
232	-0.575
233	-0.587
233	-0.578
234	-0.584
234	-0.581
235	-0.586
235	-0.582
236	-0.585
236	-0.589
236	-0.599
237	-0.598
237	-0.594
238	-0.589
238	-0.595
239	-0.585
239	-0.588
240	-0.584
240	-0.585
241	-0.582
241	-0.586
242	-0.59
242	-0.595
243	-0.606
243	-0.611
243	-0.613
244	-0.615
244	-0.617
245	-0.63
245	-0.636
246	-0.647
246	-0.643
247	-0.647
247	-0.644
248	-0.636
248	-0.632
249	-0.636
249	-0.642
250	-0.647
250	-0.636
250	-0.63
251	-0.635
251	-0.643
252	-0.634
252	-0.635
253	-0.643
253	-0.651
254	-0.652
254	-0.652
255	-0.66
255	-0.665
256	-0.668
256	-0.665
257	-0.665
257	-0.668
258	-0.677
258	-0.674
258	-0.676
259	-0.673
259	-0.678
260	-0.674
260	-0.678
261	-0.68
261	-0.678
262	-0.679
262	-0.686
263	-0.681
263	-0.688
264	-0.693
264	-0.693
265	-0.69
265	-0.689
265	-0.689
266	-0.687
266	-0.695
267	-0.706
267	-0.705
268	-0.713
268	-0.703
269	-0.696
269	-0.706
270	-0.716
270	-0.717
271	-0.724
271	-0.733
272	-0.73
272	-0.713
272	-0.721
273	-0.722
273	-0.725
274	-0.72
274	-0.71
275	-0.706
275	-0.716
276	-0.711
276	-0.707
277	-0.702
277	-0.714
278	-0.719
278	-0.715
278	-0.732
279	-0.736
279	-0.744
280	-0.745
280	-0.742
281	-0.747
281	-0.768
282	-0.764
282	-0.765
283	-0.76
283	-0.769
284	-0.758
284	-0.759
285	-0.765
285	-0.749
285	-0.735
286	-0.735
286	-0.714
287	-0.72
287	-0.709
288	-0.694
288	-0.688
289	-0.68
289	-0.689
290	-0.685
290	-0.686
291	-0.693
291	-0.684
292	-0.684
292	-0.687
292	-0.697
293	-0.706
293	-0.703
294	-0.712
294	-0.7
295	-0.698
295	-0.7
296	-0.701
296	-0.706
297	-0.703
297	-0.691
298	-0.686
298	-0.684
298	-0.679
299	-0.665
299	-0.671
300	-0.67
300	-0.664
301	-0.657
301	-0.658
302	-0.663
302	-0.664
303	-0.653
303	-0.647
304	-0.647
304	-0.647
305	-0.642
305	-0.636
305	-0.645
306	-0.64
306	-0.637
307	-0.628
307	-0.625
308	-0.626
308	-0.624
309	-0.623
309	-0.623
310	-0.613
310	-0.606
311	-0.598
311	-0.595
311	-0.588
312	-0.575
312	-0.572
313	-0.563
313	-0.56
314	-0.557
314	-0.56
315	-0.56
315	-0.56
316	-0.554
316	-0.552
317	-0.544
317	-0.551
318	-0.544
318	-0.545
318	-0.529
319	-0.523
319	-0.505
320	-0.502
320	-0.503
321	-0.494
321	-0.489
322	-0.485
322	-0.479
323	-0.479
323	-0.475
324	-0.479
324	-0.468
324	-0.467
325	-0.449
325	-0.428
326	-0.423
326	-0.403
327	-0.387
327	-0.365
328	-0.335
328	-0.312
329	-0.283
329	-0.254
330	-0.221
330	-0.187
330	-0.155
331	-0.122
331	-0.088
332	-0.053
332	-0.021
333	0.01
333	0.043
334	0.074
334	0.101
335	0.131
335	0.152
336	0.178
336	0.202
336	0.221
337	0.241
337	0.259
338	0.276
338	0.289
339	0.303
339	0.316
340	0.327
340	0.337
341	0.346
341	0.353
342	0.362
342	0.369
342	0.375
343	0.38
343	0.386
344	0.39
344	0.394
345	0.397
345	0.4
346	0.403
346	0.405
347	0.407
347	0.409
348	0.411
348	0.412
348	0.414
349	0.414
349	0.416
350	0.417
350	0.418
351	0.418
351	0.419
352	0.42
352	0.421
353	0.421
353	0.421
354	0.422
354	0.422
354	0.422
355	0.422
355	0.422
356	0.423
356	0.423
357	0.424
357	0.424
358	0.424
358	0.424
359	0.424
359	0.424
360	0.424
360	0.424
360	0.424
361	0.424
361	0.424
362	0.423
362	0.423
363	0.423
363	0.423
364	0.423
364	0.423
365	0.423
365	0.422
366	0.423
366	0.422
366	0.422
367	0.422
367	0.421
368	0.421
368	0.42
369	0.42
369	0.42
370	0.419
370	0.419
371	0.418
371	0.418
372	0.417
372	0.417
372	0.417
373	0.416
373	0.416
374	0.415
374	0.415
375	0.414
375	0.414
376	0.414
376	0.413
377	0.413
377	0.413
378	0.412
378	0.412
378	0.411
379	0.411
379	0.411
380	0.411
380	0.41
381	0.41
381	0.409
382	0.408
382	0.408
383	0.407
383	0.407
383	0.406
384	0.406
384	0.405
385	0.405
385	0.404
386	0.404
386	0.404
387	0.403
387	0.403
388	0.402
388	0.402
389	0.402
389	0.401
389	0.401
390	0.4
390	0.4
391	0.399
391	0.399
392	0.398
392	0.398
393	0.397
393	0.397
394	0.396
394	0.396
394	0.395
395	0.395
395	0.394
396	0.394
396	0.393
397	0.393
397	0.392
398	0.392
398	0.391
399	0.391
399	0.391
400	0.39
400	0.39
400	0.389
401	0.389
401	0.388
402	0.388
402	0.387
403	0.387
403	0.387
404	0.386
404	0.385
405	0.385
405	0.385
405	0.384
406	0.384
406	0.384
407	0.383
407	0.383
408	0.383
408	0.382
409	0.382
409	0.382
410	0.382
410	0.381
411	0.381
411	0.38
411	0.38
412	0.379
412	0.379
413	0.378
413	0.377
414	0.377
414	0.377
415	0.376
415	0.375
416	0.375
416	0.375
416	0.375
417	0.374
417	0.374
418	0.374
418	0.375
419	0.374
419	0.374
420	0.374
420	0.374
421	0.374
421	0.373
421	0.373
422	0.373
422	0.373
423	0.373
423	0.372
424	0.372
424	0.372
425	0.372
425	0.372
426	0.372
426	0.371
427	0.371
427	0.371
427	0.371
428	0.37
428	0.37
429	0.37
429	0.37
430	0.369
430	0.369
431	0.369
431	0.369
432	0.369
432	0.369
432	0.369
433	0.368
433	0.368
434	0.368
434	0.368
435	0.368
435	0.368
436	0.368
436	0.368
437	0.367
437	0.367
437	0.367
438	0.367
438	0.367
439	0.367
439	0.367
440	0.367
440	0.367
441	0.367
441	0.367
442	0.367
442	0.367
442	0.367
443	0.367
443	0.367
444	0.367
444	0.368
445	0.368
445	0.368
446	0.368
446	0.368
447	0.368
447	0.368
447	0.368
448	0.368
448	0.368
449	0.368
449	0.368
450	0.368
450	0.368
451	0.368
451	0.369
452	0.369
452	0.37
452	0.37
453	0.37
453	0.371
454	0.371
454	0.372
455	0.372
455	0.372
456	0.373
456	0.373
457	0.373
457	0.373
458	0.373
458	0.373
458	0.373
459	0.374
459	0.374
460	0.375
460	0.375
461	0.375
461	0.376
462	0.377
462	0.377
463	0.378
463	0.379
463	0.38
464	0.38
464	0.381
465	0.381
465	0.382
466	0.383
466	0.383
467	0.384
467	0.384
467	0.385
468	0.385
468	0.386
469	0.387
469	0.389
470	0.39
470	0.39
471	0.391
471	0.392
472	0.393
472	0.394
472	0.395
473	0.397
473	0.398
474	0.399
474	0.4
475	0.401
475	0.402
476	0.404
476	0.405
477	0.407
477	0.408
477	0.41
478	0.411
478	0.413
479	0.415
479	0.416
480	0.418
480	0.42
481	0.422
481	0.424
482	0.425
482	0.427
482	0.429
483	0.432
483	0.434
484	0.436
484	0.438
485	0.44
485	0.442
486	0.444
486	0.446
487	0.449
487	0.451
487	0.454
488	0.456
488	0.458
489	0.461
489	0.465
490	0.468
490	0.47
491	0.473
491	0.476
492	0.479
492	0.482
492	0.485
493	0.488
493	0.491
494	0.495
494	0.499
495	0.502
495	0.506
496	0.509
496	0.513
496	0.517
497	0.521
497	0.524
498	0.528
498	0.531
499	0.535
499	0.538
500	0.543
500	0.547
501	0.552
501	0.555
501	0.559
502	0.563
502	0.567
503	0.572
503	0.576
504	0.579
504	0.583
505	0.588
505	0.592
506	0.596
506	0.601
506	0.605
507	0.609
507	0.614
508	0.618
508	0.623
509	0.627
509	0.632
510	0.636
510	0.64
511	0.644
511	0.649
511	0.653
512	0.657
512	0.66
513	0.664
513	0.668
514	0.672
514	0.676
515	0.679
515	0.682
515	0.685
516	0.688
516	0.692
517	0.695
517	0.698
518	0.7
518	0.702
519	0.704
519	0.706
520	0.709
520	0.711
520	0.713
521	0.715
521	0.716
522	0.717
522	0.719
523	0.721
523	0.723
524	0.724
524	0.725
524	0.726
525	0.726
525	0.726
526	0.727
526	0.727
527	0.727
527	0.727
528	0.727
528	0.726
529	0.725
529	0.724
529	0.724
530	0.723
530	0.722
531	0.72
531	0.719
532	0.717
532	0.715
533	0.712
533	0.709
533	0.707
534	0.704
534	0.702
535	0.698
535	0.696
536	0.693
536	0.689
537	0.685
537	0.682
538	0.678
538	0.675
538	0.671
539	0.667
539	0.663
540	0.659
540	0.654
541	0.649
541	0.645
542	0.64
542	0.635
542	0.63
543	0.625
543	0.62
544	0.614
544	0.609
545	0.604
545	0.599
546	0.594
546	0.588
547	0.582
547	0.576
547	0.57
548	0.565
548	0.559
549	0.553
549	0.547
550	0.541
550	0.535
551	0.528
551	0.521
551	0.515
552	0.508
552	0.503
553	0.497
553	0.491
554	0.484
554	0.478
555	0.472
555	0.466
556	0.46
556	0.454
556	0.449
557	0.443
557	0.438
558	0.431
558	0.425
559	0.419
559	0.413
560	0.407
560	0.401
560	0.396
561	0.391
561	0.386
562	0.38
562	0.375
563	0.369
563	0.364
564	0.358
564	0.353
564	0.348
565	0.343
565	0.337
566	0.332
566	0.327
567	0.322
567	0.317
568	0.313
568	0.308
568	0.303
569	0.299
569	0.295
570	0.29
570	0.286
571	0.282
571	0.278
572	0.274
572	0.27
573	0.266
573	0.261
573	0.257
574	0.253
574	0.249
575	0.245
575	0.241
576	0.237
576	0.232
577	0.228
577	0.225
577	0.222
578	0.218
578	0.216
579	0.213
579	0.21
580	0.205
580	0.201
581	0.197
581	0.194
581	0.192
582	0.19
582	0.187
583	0.185
583	0.182
584	0.177
584	0.173
585	0.172
585	0.17
585	0.167
586	0.164
586	0.162
587	0.159
587	0.156
588	0.153
588	0.151
589	0.149
589	0.147
590	0.145
590	0.142
590	0.141
591	0.139
591	0.136
592	0.134
592	0.131
593	0.13
593	0.128
594	0.126
594	0.124
594	0.122
595	0.12
595	0.118
596	0.115
596	0.114
597	0.113
597	0.111
598	0.109
598	0.107
598	0.106
599	0.105
599	0.103
600	0.101
600	0.1
601	0.099
601	0.097
602	0.095
602	0.094
602	0.092
603	0.091
603	0.09
604	0.089
604	0.087
605	0.086
605	0.085
606	0.083
606	0.08
606	0.078
607	0.076
607	0.075
608	0.074
608	0.071
609	0.07
609	0.069
610	0.068
610	0.066
610	0.066
611	0.065
611	0.065
612	0.065
612	0.065
613	0.064
613	0.064
614	0.063
614	0.061
614	0.061
615	0.059
615	0.058
616	0.057
616	0.056
617	0.054
617	0.053
618	0.051
618	0.05
618	0.049
619	0.047
619	0.047
620	0.047
620	0.046
621	0.045
621	0.045
622	0.044
622	0.043
622	0.042
623	0.041
623	0.04
624	0.04
624	0.038
625	0.037
625	0.036
626	0.034
626	0.033
626	0.033
627	0.032
627	0.031
628	0.031
628	0.03
629	0.029
629	0.029
630	0.028
630	0.028
630	0.027
631	0.027
631	0.026
632	0.025
632	0.025
633	0.025
633	0.024
634	0.024
634	0.024
634	0.024
635	0.024
635	0.024
636	0.024
636	0.023
637	0.023
637	0.022
638	0.021
638	0.02
638	0.018
639	0.017
639	0.015
640	0.014
640	0.013
641	0.012
641	0.011
642	0.01
642	0.009
642	0.008
643	0.007
643	0.005
644	0.004
644	0.003
645	0.001
645	-0.001
646	-0.003
646	-0.006
646	-0.009
647	-0.013
647	-0.016
648	-0.019
648	-0.022
649	-0.025
649	-0.028
650	-0.03
650	-0.033
650	-0.036
651	-0.04
651	-0.045
652	-0.05
652	-0.056
653	-0.061
653	-0.066
653	-0.064
654	-0.058
654	-0.06
655	-0.064
655	-0.067
656	-0.07
656	-0.073
657	-0.076
657	-0.078
657	-0.083
658	-0.086
658	-0.103
659	-0.147
659	-0.193
660	-0.217
660	-0.233
661	-0.249
661	-0.269
661	-0.289
662	-0.307
662	-0.322
663	-0.34
663	-0.36
664	-0.376
664	-0.399
665	-0.417
665	-0.433
665	-0.455
666	-0.474
666	-0.493
667	-0.515
667	-0.539
668	-0.565
668	-0.592
669	-0.625
669	-0.658
669	-0.697
670	-0.743
670	-0.803
671	-0.906
671	-1.123
672	-1.443
672	-1.838
672	-2.152
673	-2.381
673	-2.457
674	-2.478
674	-2.487
675	-2.498
675	-2.503
676	-2.505
676	-2.537
676	-2.639
677	-2.587
677	-2.277
678	-1.811
678	-1.263
679	-0.973
679	-0.892
680	-0.848
680	-0.81
680	-0.782
681	-0.775
681	-0.759
682	-0.759
682	-0.752
683	-0.742
683	-0.75
684	-0.744
684	-0.741
684	-0.731
685	-0.736
685	-0.741
686	-0.731
686	-0.722
687	-0.716
687	-0.724
687	-0.718
688	-0.712
688	-0.715
689	-0.711
689	-0.712
690	-0.709
690	-0.711
691	-0.713
691	-0.717
691	-0.71
692	-0.704
692	-0.711
693	-0.715
693	-0.721
694	-0.721
694	-0.725
695	-0.729
695	-0.717
695	-0.715
696	-0.722
696	-0.721
697	-0.721
697	-0.717
698	-0.707
698	-0.702
698	-0.71
699	-0.711
699	-0.709
700	-0.73
700	-0.731
701	-0.738
701	-0.754
702	-0.772
702	-0.785
702	-0.791
703	-0.794
703	-0.784
704	-0.787
704	-0.781
705	-0.781
705	-0.781
705	-0.763
706	-0.755
706	-0.74
707	-0.742
707	-0.749
708	-0.742
708	-0.749
709	-0.754
709	-0.757
709	-0.746
710	-0.756
710	-0.76
711	-0.758
711	-0.764
712	-0.748
712	-0.741
713	-0.749
713	-0.755
713	-0.746
714	-0.754
714	-0.767
715	-0.761
715	-0.778
716	-0.794
716	-0.789
716	-0.799
717	-0.81
717	-0.811
718	-0.805
718	-0.817
719	-0.82
719	-0.798
720	-0.8
720	-0.787
720	-0.785
721	-0.783
721	-0.787
722	-0.782
722	-0.78
723	-0.776
723	-0.769
723	-0.756
724	-0.769
724	-0.761
725	-0.76
725	-0.759
726	-0.767
726	-0.764
727	-0.765
727	-0.76
727	-0.763
728	-0.77
728	-0.774
729	-0.767
729	-0.785
730	-0.793
730	-0.791
730	-0.786
731	-0.777
731	-0.788
732	-0.793
732	-0.789
733	-0.788
733	-0.797
734	-0.796
734	-0.786
734	-0.766
735	-0.771
735	-0.774
736	-0.781
736	-0.765
737	-0.761
737	-0.761
737	-0.743
738	-0.737
738	-0.745
739	-0.75
739	-0.757
740	-0.763
740	-0.758
741	-0.755
741	-0.768
741	-0.767
742	-0.763
742	-0.788
743	-0.779
743	-0.777
744	-0.764
744	-0.762
744	-0.752
745	-0.756
745	-0.765
746	-0.756
746	-0.765
747	-0.77
747	-0.754
748	-0.759
748	-0.76
748	-0.773
749	-0.783
749	-0.784
750	-0.772
750	-0.77
751	-0.774
751	-0.758
751	-0.76
752	-0.768
752	-0.773
753	-0.773
753	-0.765
754	-0.766
754	-0.749
754	-0.764
755	-0.763
755	-0.772
756	-0.79
756	-0.78
757	-0.765
757	-0.764
758	-0.752
758	-0.752
758	-0.746
759	-0.765
759	-0.771
760	-0.766
760	-0.749
761	-0.746
761	-0.755
761	-0.775
762	-0.766
762	-0.778
763	-0.769
763	-0.78
764	-0.775
764	-0.763
764	-0.778
765	-0.794
765	-0.793
766	-0.789
766	-0.775
767	-0.791
767	-0.786
768	-0.795
768	-0.799
768	-0.79
769	-0.796
769	-0.782
770	-0.786
770	-0.777
771	-0.782
771	-0.784
771	-0.784
772	-0.799
772	-0.812
773	-0.801
773	-0.82
774	-0.816
774	-0.817
775	-0.804
775	-0.81
775	-0.81
776	-0.818
776	-0.813
777	-0.804
777	-0.799
778	-0.803
778	-0.796
778	-0.805
779	-0.822
779	-0.838
780	-0.846
780	-0.85
781	-0.859
781	-0.862
781	-0.877
782	-0.881
782	-0.88
783	-0.888
783	-0.895
784	-0.878
784	-0.861
784	-0.877
785	-0.879
785	-0.882
786	-0.887
786	-0.872
787	-0.859
787	-0.885
788	-0.882
788	-0.861
788	-0.856
789	-0.853
789	-0.84
790	-0.841
790	-0.834
791	-0.847
791	-0.858
791	-0.863
792	-0.84
792	-0.848
793	-0.856
793	-0.87
794	-0.873
794	-0.878
794	-0.872
795	-0.86
795	-0.838
796	-0.815
796	-0.827
797	-0.832
797	-0.814
797	-0.825
798	-0.82
798	-0.832
799	-0.817
799	-0.822
800	-0.827
800	-0.84
801	-0.859
801	-0.844
801	-0.83
802	-0.829
802	-0.806
803	-0.799
803	-0.788
804	-0.791
804	-0.792
804	-0.791
805	-0.785
805	-0.775
806	-0.773
806	-0.781
807	-0.783
807	-0.794
807	-0.799
808	-0.797
808	-0.795
809	-0.786
809	-0.775
810	-0.778
810	-0.765
810	-0.768
811	-0.759
811	-0.76
812	-0.761
812	-0.776
813	-0.772
813	-0.773
813	-0.771
814	-0.782
814	-0.77
815	-0.777
815	-0.787
816	-0.785
816	-0.79
817	-0.792
817	-0.771
817	-0.788
818	-0.794
818	-0.795
819	-0.797
819	-0.804
820	-0.792
820	-0.79
820	-0.802
821	-0.8
821	-0.799
822	-0.803
822	-0.802
823	-0.806
823	-0.805
823	-0.79
824	-0.799
824	-0.822
825	-0.815
825	-0.806
826	-0.79
826	-0.776
826	-0.773
827	-0.751
827	-0.736
828	-0.737
828	-0.734
829	-0.721
829	-0.708
829	-0.704
830	-0.702
830	-0.71
831	-0.707
831	-0.689
832	-0.692
832	-0.686
832	-0.672
833	-0.665
833	-0.658
834	-0.651
834	-0.646
835	-0.639
835	-0.627
835	-0.619
836	-0.627
836	-0.625
837	-0.622
837	-0.618
838	-0.615
838	-0.605
839	-0.599
839	-0.595
839	-0.589
840	-0.584
840	-0.58
841	-0.571
841	-0.56
842	-0.554
842	-0.541
842	-0.532
843	-0.529
843	-0.524
844	-0.513
844	-0.503
845	-0.49
845	-0.483
845	-0.467
846	-0.459
846	-0.444
847	-0.439
847	-0.429
848	-0.414
848	-0.402
848	-0.391
849	-0.377
849	-0.367
850	-0.356
850	-0.346
851	-0.336
851	-0.326
851	-0.315
852	-0.304
852	-0.294
853	-0.288
853	-0.281
854	-0.273
854	-0.266
854	-0.257
855	-0.249
855	-0.24
856	-0.232
856	-0.225
857	-0.219
857	-0.213
857	-0.203
858	-0.193
858	-0.188
859	-0.178
859	-0.169
860	-0.163
860	-0.153
860	-0.146
861	-0.139
861	-0.132
862	-0.126
862	-0.12
863	-0.114
863	-0.108
863	-0.105
864	-0.101
864	-0.096
865	-0.092
865	-0.089
866	-0.085
866	-0.081
866	-0.078
867	-0.074
867	-0.071
868	-0.069
868	-0.066
869	-0.063
869	-0.061
869	-0.06
870	-0.058
870	-0.057
871	-0.056
871	-0.055
872	-0.055
872	-0.054
872	-0.053
873	-0.052
873	-0.052
874	-0.051
874	-0.051
875	-0.05
875	-0.05
875	-0.05
876	-0.05
876	-0.05
877	-0.05
877	-0.05
878	-0.051
878	-0.051
878	-0.051
879	-0.052
879	-0.053
880	-0.054
880	-0.055
881	-0.056
881	-0.056
881	-0.057
882	-0.058
882	-0.059
883	-0.06
883	-0.061
884	-0.062
884	-0.062
884	-0.063
885	-0.063
885	-0.063
886	-0.064
886	-0.065
887	-0.066
887	-0.066
887	-0.066
888	-0.066
888	-0.066
889	-0.067
889	-0.068
890	-0.068
890	-0.068
890	-0.069
891	-0.069
891	-0.069
892	-0.07
892	-0.071
893	-0.072
893	-0.072
893	-0.072
894	-0.072
894	-0.072
895	-0.072
895	-0.071
895	-0.071
896	-0.07
896	-0.069
897	-0.068
897	-0.068
898	-0.067
898	-0.066
898	-0.065
899	-0.064
899	-0.063
900	-0.063
900	-0.063
901	-0.062
901	-0.062
901	-0.062
902	-0.061
902	-0.061
903	-0.062
903	-0.061
904	-0.061
904	-0.061
904	-0.062
905	-0.062
905	-0.063
906	-0.063
906	-0.063
907	-0.063
907	-0.063
907	-0.063
908	-0.062
908	-0.062
909	-0.061
909	-0.06
910	-0.059
910	-0.058
910	-0.057
911	-0.056
911	-0.055
912	-0.054
912	-0.053
913	-0.052
913	-0.052
913	-0.051
914	-0.051
914	-0.05
915	-0.05
915	-0.049
916	-0.049
916	-0.049
916	-0.049
917	-0.049
917	-0.048
918	-0.048
918	-0.048
918	-0.047
919	-0.047
919	-0.046
920	-0.046
920	-0.045
921	-0.044
921	-0.043
921	-0.043
922	-0.042
922	-0.042
923	-0.042
923	-0.043
924	-0.043
924	-0.044
924	-0.044
925	-0.045
925	-0.045
926	-0.046
926	-0.047
927	-0.047
927	-0.048
927	-0.048
928	-0.048
928	-0.048
929	-0.049
929	-0.049
930	-0.05
930	-0.051
930	-0.052
931	-0.053
931	-0.054
932	-0.055
932	-0.056
933	-0.058
933	-0.059
933	-0.061
934	-0.062
934	-0.063
935	-0.064
935	-0.065
935	-0.066
936	-0.067
936	-0.067
937	-0.067
937	-0.067
938	-0.067
938	-0.067
938	-0.066
939	-0.066
939	-0.066
940	-0.065
940	-0.064
941	-0.064
941	-0.063
941	-0.063
942	-0.063
942	-0.063
943	-0.063
943	-0.063
944	-0.063
944	-0.063
944	-0.063
945	-0.062
945	-0.062
946	-0.061
946	-0.061
946	-0.06
947	-0.059
947	-0.058
948	-0.057
948	-0.056
949	-0.055
949	-0.054
949	-0.053
950	-0.053
950	-0.052
951	-0.052
951	-0.052
952	-0.052
952	-0.051
952	-0.051
953	-0.052
953	-0.051
954	-0.052
954	-0.051
955	-0.051
955	-0.05
955	-0.049
956	-0.048
956	-0.047
957	-0.046
957	-0.046
957	-0.045
958	-0.045
958	-0.044
959	-0.043
959	-0.042
960	-0.041
960	-0.041
960	-0.04
961	-0.039
961	-0.038
962	-0.036
962	-0.035
963	-0.034
963	-0.034
963	-0.034
964	-0.034
964	-0.034
965	-0.034
965	-0.034
966	-0.035
966	-0.036
966	-0.037
967	-0.037
967	-0.039
968	-0.04
968	-0.041
968	-0.042
969	-0.043
969	-0.045
970	-0.046
970	-0.047
971	-0.048
971	-0.049
971	-0.049
972	-0.05
972	-0.05
973	-0.05
973	-0.05
974	-0.051
974	-0.051
974	-0.051
975	-0.051
975	-0.051
976	-0.052
976	-0.052
976	-0.053
977	-0.053
977	-0.054
978	-0.055
978	-0.055
979	-0.055
979	-0.056
979	-0.056
980	-0.056
980	-0.056
981	-0.056
981	-0.056
982	-0.056
982	-0.055
982	-0.055
983	-0.054
983	-0.054
984	-0.053
984	-0.053
984	-0.053
985	-0.053
985	-0.052
986	-0.052
986	-0.053
987	-0.053
987	-0.053
987	-0.054
988	-0.054
988	-0.054
989	-0.054
989	-0.055
990	-0.055
990	-0.055
990	-0.055
991	-0.055
991	-0.055
992	-0.055
992	-0.055
992	-0.055
993	-0.056
993	-0.056
994	-0.057
994	-0.058
995	-0.058
995	-0.059
995	-0.059
996	-0.06
996	-0.06
997	-0.061
997	-0.061
997	-0.061
998	-0.061
998	-0.061
999	-0.061
999	-0.061
1000	-0.061
1000	-0.062
1000	-0.062
1001	-0.063
1001	-0.063
1002	-0.064
1002	-0.065
1003	-0.066
1003	-0.067
1003	-0.068
1004	-0.069
1004	-0.07
1005	-0.071
1005	-0.072
1005	-0.072
1006	-0.073
1006	-0.074
1007	-0.075
1007	-0.076
1008	-0.076
1008	-0.076
1008	-0.077
1009	-0.077
1009	-0.077
1010	-0.077
1010	-0.077
1010	-0.077
1011	-0.077
1011	-0.077
1012	-0.077
1012	-0.077
1013	-0.078
1013	-0.078
1013	-0.078
1014	-0.079
1014	-0.08
1015	-0.081
1015	-0.081
1016	-0.082
1016	-0.082
1016	-0.082
1017	-0.083
1017	-0.083
1018	-0.083
1018	-0.082
1018	-0.082
1019	-0.081
1019	-0.081
1020	-0.081
1020	-0.08
1021	-0.08
1021	-0.08
1021	-0.08
1022	-0.081
1022	-0.081
1023	-0.081
1023	-0.082
1023	-0.083
1024	-0.083
1024	-0.084
1025	-0.085
1025	-0.086
1026	-0.086
1026	-0.086
1026	-0.087
1027	-0.087
1027	-0.087
1028	-0.087
1028	-0.086
1028	-0.086
1029	-0.085
1029	-0.084
1030	-0.083
1030	-0.083
1031	-0.082
1031	-0.081
1031	-0.081
1032	-0.08
1032	-0.08
1033	-0.08
1033	-0.08
1033	-0.08
1034	-0.081
1034	-0.082
1035	-0.082
1035	-0.083
1036	-0.083
1036	-0.084
1036	-0.084
1037	-0.084
1037	-0.084
1038	-0.084
1038	-0.083
1039	-0.083
1039	-0.082
1039	-0.081
1040	-0.081
1040	-0.08
1041	-0.08
1041	-0.079
1041	-0.079
1042	-0.078
1042	-0.078
1043	-0.077
1043	-0.077
1044	-0.077
1044	-0.078
1044	-0.078
1045	-0.078
1045	-0.078
1046	-0.078
1046	-0.079
1046	-0.079
1047	-0.078
1047	-0.079
1048	-0.078
1048	-0.078
1049	-0.078
1049	-0.079
1049	-0.079
1050	-0.079
1050	-0.08
1051	-0.081
1051	-0.081
1051	-0.081
1052	-0.082
1052	-0.082
1053	-0.082
1053	-0.082
1053	-0.082
1054	-0.083
1054	-0.082
1055	-0.082
1055	-0.082
1056	-0.082
1056	-0.082
1056	-0.083
1057	-0.083
1057	-0.083
1058	-0.084
1058	-0.084
1058	-0.085
1059	-0.085
1059	-0.086
1060	-0.086
1060	-0.087
1061	-0.087
1061	-0.087
1061	-0.087
1062	-0.088
1062	-0.088
1063	-0.088
1063	-0.089
1063	-0.089
1064	-0.089
1064	-0.089
1065	-0.09
1065	-0.09
1066	-0.091
1066	-0.091
1066	-0.091
1067	-0.092
1067	-0.092
1068	-0.093
1068	-0.093
1068	-0.094
1069	-0.094
1069	-0.095
1070	-0.096
1070	-0.096
1071	-0.097
1071	-0.098
1071	-0.098
1072	-0.099
1072	-0.099
1073	-0.099
1073	-0.099
1073	-0.1
1074	-0.1
1074	-0.099
1075	-0.1
1075	-0.1
1076	-0.1
1076	-0.1
1076	-0.1
1077	-0.101
1077	-0.101
1078	-0.101
1078	-0.101
1078	-0.1
1079	-0.101
1079	-0.101
1080	-0.101
1080	-0.1
1080	-0.1
1081	-0.099
1081	-0.099
1082	-0.098
1082	-0.099
1083	-0.099
1083	-0.1
1083	-0.1
1084	-0.101
1084	-0.101
1085	-0.102
1085	-0.103
1085	-0.103
1086	-0.103
1086	-0.104
1087	-0.104
1087	-0.104
1088	-0.105
1088	-0.105
1088	-0.106
1089	-0.108
1089	-0.109
1090	-0.11
1090	-0.111
1090	-0.113
1091	-0.114
1091	-0.115
1092	-0.116
1092	-0.116
1092	-0.117
1093	-0.117
1093	-0.117
1094	-0.117
1094	-0.118
1095	-0.12
1095	-0.12
1095	-0.121
1096	-0.122
1096	-0.124
1097	-0.125
1097	-0.127
1097	-0.128
1098	-0.13
1098	-0.131
1099	-0.133
1099	-0.134
1100	-0.135
1100	-0.136
1100	-0.139
1101	-0.14
1101	-0.143
1102	-0.145
1102	-0.147
1102	-0.148
1103	-0.152
1103	-0.153
1104	-0.154
1104	-0.156
1104	-0.158
1105	-0.159
1105	-0.162
1106	-0.166
1106	-0.167
1107	-0.172
1107	-0.175
1107	-0.179
1108	-0.181
1108	-0.183
1109	-0.186
1109	-0.19
1109	-0.195
1110	-0.196
1110	-0.199
1111	-0.206
1111	-0.203
