Data from 40to5_hyst_3.5A_10sec_80mins_Absorbance__276__00898.txt Node

Date: Mon Jun 26 11:42:20 CEST 2023
User: Marek
Spectrometer: MAYP115816
Trigger mode: 0
Integration Time (sec): 2.500000E-1
Scans to average: 10
Electric dark correction enabled: true
Nonlinearity correction enabled: true
Boxcar width: 5
XAxis mode: Wavelengths
Number of Pixels in Spectrum: 2068
>>>>>Begin Spectral Data<<<<<
199	-0.799
199	-0.771
200	-0.739
200	-0.686
201	-0.641
201	-0.611
202	-0.59
202	-0.592
203	-0.583
203	-0.574
204	-0.557
204	-0.538
205	-0.522
205	-0.512
205	-0.514
206	-0.513
206	-0.527
207	-0.527
207	-0.525
208	-0.531
208	-0.535
209	-0.537
209	-0.547
210	-0.555
210	-0.556
211	-0.556
211	-0.568
212	-0.566
212	-0.57
213	-0.574
213	-0.574
213	-0.576
214	-0.575
214	-0.577
215	-0.573
215	-0.578
216	-0.578
216	-0.582
217	-0.579
217	-0.579
218	-0.581
218	-0.581
219	-0.582
219	-0.584
220	-0.587
220	-0.593
221	-0.601
221	-0.607
221	-0.607
222	-0.613
222	-0.611
223	-0.611
223	-0.608
224	-0.615
224	-0.61
225	-0.609
225	-0.612
226	-0.611
226	-0.609
227	-0.608
227	-0.615
228	-0.61
228	-0.612
229	-0.614
229	-0.608
229	-0.61
230	-0.613
230	-0.611
231	-0.598
231	-0.589
232	-0.586
232	-0.577
233	-0.591
233	-0.585
234	-0.592
234	-0.59
235	-0.589
235	-0.584
236	-0.586
236	-0.592
236	-0.6
237	-0.598
237	-0.594
238	-0.587
238	-0.591
239	-0.585
239	-0.589
240	-0.59
240	-0.59
241	-0.587
241	-0.592
242	-0.598
242	-0.606
243	-0.616
243	-0.624
243	-0.624
244	-0.624
244	-0.625
245	-0.638
245	-0.646
246	-0.655
246	-0.651
247	-0.653
247	-0.652
248	-0.646
248	-0.64
249	-0.646
249	-0.65
250	-0.655
250	-0.646
250	-0.64
251	-0.645
251	-0.655
252	-0.649
252	-0.649
253	-0.656
253	-0.666
254	-0.667
254	-0.67
255	-0.68
255	-0.685
256	-0.686
256	-0.686
257	-0.684
257	-0.686
258	-0.694
258	-0.692
258	-0.693
259	-0.69
259	-0.694
260	-0.687
260	-0.693
261	-0.695
261	-0.691
262	-0.692
262	-0.701
263	-0.695
263	-0.702
264	-0.707
264	-0.707
265	-0.707
265	-0.708
265	-0.709
266	-0.709
266	-0.715
267	-0.725
267	-0.722
268	-0.732
268	-0.725
269	-0.717
269	-0.723
270	-0.732
270	-0.732
271	-0.74
271	-0.749
272	-0.748
272	-0.735
272	-0.744
273	-0.743
273	-0.748
274	-0.742
274	-0.736
275	-0.732
275	-0.744
276	-0.737
276	-0.733
277	-0.727
277	-0.737
278	-0.739
278	-0.737
278	-0.75
279	-0.759
279	-0.763
280	-0.765
280	-0.761
281	-0.766
281	-0.787
282	-0.786
282	-0.788
283	-0.783
283	-0.791
284	-0.782
284	-0.779
285	-0.789
285	-0.775
285	-0.763
286	-0.762
286	-0.74
287	-0.744
287	-0.735
288	-0.72
288	-0.714
289	-0.706
289	-0.717
290	-0.713
290	-0.711
291	-0.716
291	-0.707
292	-0.708
292	-0.709
292	-0.717
293	-0.729
293	-0.724
294	-0.733
294	-0.718
295	-0.717
295	-0.719
296	-0.72
296	-0.723
297	-0.72
297	-0.711
298	-0.706
298	-0.706
298	-0.703
299	-0.69
299	-0.695
300	-0.693
300	-0.688
301	-0.684
301	-0.687
302	-0.693
302	-0.692
303	-0.681
303	-0.672
304	-0.672
304	-0.672
305	-0.667
305	-0.661
305	-0.672
306	-0.665
306	-0.66
307	-0.65
307	-0.652
308	-0.654
308	-0.652
309	-0.652
309	-0.651
310	-0.643
310	-0.637
311	-0.627
311	-0.625
311	-0.618
312	-0.606
312	-0.6
313	-0.591
313	-0.59
314	-0.588
314	-0.591
315	-0.589
315	-0.589
316	-0.586
316	-0.583
317	-0.578
317	-0.585
318	-0.581
318	-0.582
318	-0.567
319	-0.56
319	-0.543
320	-0.541
320	-0.544
321	-0.533
321	-0.529
322	-0.524
322	-0.518
323	-0.517
323	-0.513
324	-0.515
324	-0.506
324	-0.505
325	-0.488
325	-0.467
326	-0.464
326	-0.444
327	-0.432
327	-0.412
328	-0.386
328	-0.367
329	-0.344
329	-0.321
330	-0.295
330	-0.268
330	-0.242
331	-0.217
331	-0.191
332	-0.165
332	-0.144
333	-0.123
333	-0.098
334	-0.076
334	-0.058
335	-0.039
335	-0.026
336	-0.01
336	0.006
336	0.017
337	0.03
337	0.042
338	0.053
338	0.061
339	0.071
339	0.08
340	0.087
340	0.094
341	0.099
341	0.105
342	0.111
342	0.114
342	0.118
343	0.121
343	0.125
344	0.128
344	0.131
345	0.134
345	0.136
346	0.139
346	0.141
347	0.143
347	0.145
348	0.148
348	0.15
348	0.151
349	0.153
349	0.154
350	0.156
350	0.157
351	0.158
351	0.159
352	0.16
352	0.162
353	0.163
353	0.164
354	0.165
354	0.165
354	0.166
355	0.167
355	0.167
356	0.168
356	0.169
357	0.169
357	0.169
358	0.17
358	0.17
359	0.171
359	0.171
360	0.172
360	0.173
360	0.173
361	0.173
361	0.174
362	0.175
362	0.176
363	0.177
363	0.177
364	0.178
364	0.179
365	0.179
365	0.18
366	0.18
366	0.181
366	0.181
367	0.181
367	0.181
368	0.181
368	0.181
369	0.181
369	0.181
370	0.181
370	0.182
371	0.182
371	0.182
372	0.182
372	0.182
372	0.183
373	0.183
373	0.183
374	0.184
374	0.184
375	0.184
375	0.184
376	0.185
376	0.185
377	0.185
377	0.185
378	0.185
378	0.185
378	0.186
379	0.186
379	0.186
380	0.186
380	0.186
381	0.186
381	0.186
382	0.186
382	0.186
383	0.186
383	0.186
383	0.186
384	0.186
384	0.186
385	0.186
385	0.186
386	0.186
386	0.186
387	0.187
387	0.187
388	0.187
388	0.187
389	0.187
389	0.187
389	0.187
390	0.187
390	0.187
391	0.187
391	0.187
392	0.186
392	0.186
393	0.186
393	0.186
394	0.186
394	0.186
394	0.186
395	0.186
395	0.186
396	0.186
396	0.186
397	0.186
397	0.186
398	0.186
398	0.186
399	0.186
399	0.187
400	0.186
400	0.186
400	0.186
401	0.186
401	0.186
402	0.186
402	0.186
403	0.186
403	0.186
404	0.186
404	0.186
405	0.186
405	0.186
405	0.186
406	0.186
406	0.186
407	0.186
407	0.186
408	0.185
408	0.185
409	0.185
409	0.185
410	0.186
410	0.186
411	0.186
411	0.186
411	0.185
412	0.185
412	0.185
413	0.185
413	0.185
414	0.185
414	0.185
415	0.185
415	0.184
416	0.184
416	0.184
416	0.184
417	0.184
417	0.184
418	0.184
418	0.184
419	0.184
419	0.184
420	0.184
420	0.184
421	0.185
421	0.185
421	0.185
422	0.185
422	0.185
423	0.185
423	0.185
424	0.184
424	0.184
425	0.184
425	0.184
426	0.184
426	0.184
427	0.184
427	0.184
427	0.183
428	0.183
428	0.183
429	0.183
429	0.183
430	0.183
430	0.182
431	0.182
431	0.182
432	0.182
432	0.182
432	0.182
433	0.182
433	0.182
434	0.182
434	0.182
435	0.182
435	0.182
436	0.182
436	0.182
437	0.181
437	0.181
437	0.181
438	0.181
438	0.181
439	0.181
439	0.18
440	0.18
440	0.18
441	0.18
441	0.18
442	0.18
442	0.18
442	0.18
443	0.181
443	0.181
444	0.181
444	0.181
445	0.181
445	0.181
446	0.181
446	0.181
447	0.181
447	0.181
447	0.18
448	0.18
448	0.18
449	0.179
449	0.179
450	0.179
450	0.179
451	0.179
451	0.179
452	0.179
452	0.179
452	0.179
453	0.179
453	0.179
454	0.179
454	0.179
455	0.179
455	0.179
456	0.179
456	0.179
457	0.179
457	0.179
458	0.179
458	0.178
458	0.178
459	0.178
459	0.178
460	0.178
460	0.177
461	0.177
461	0.177
462	0.177
462	0.178
463	0.178
463	0.178
463	0.178
464	0.178
464	0.178
465	0.178
465	0.178
466	0.178
466	0.178
467	0.178
467	0.177
467	0.177
468	0.177
468	0.177
469	0.177
469	0.177
470	0.177
470	0.177
471	0.177
471	0.176
472	0.176
472	0.176
472	0.176
473	0.176
473	0.176
474	0.176
474	0.176
475	0.176
475	0.176
476	0.177
476	0.177
477	0.177
477	0.177
477	0.178
478	0.178
478	0.178
479	0.178
479	0.178
480	0.179
480	0.179
481	0.179
481	0.179
482	0.179
482	0.179
482	0.179
483	0.18
483	0.18
484	0.18
484	0.18
485	0.18
485	0.18
486	0.181
486	0.181
487	0.181
487	0.182
487	0.182
488	0.182
488	0.183
489	0.183
489	0.184
490	0.184
490	0.184
491	0.185
491	0.185
492	0.186
492	0.186
492	0.186
493	0.186
493	0.186
494	0.187
494	0.188
495	0.188
495	0.189
496	0.19
496	0.19
496	0.191
497	0.191
497	0.192
498	0.192
498	0.193
499	0.193
499	0.193
500	0.194
500	0.195
501	0.196
501	0.196
501	0.196
502	0.197
502	0.198
503	0.199
503	0.199
504	0.2
504	0.2
505	0.201
505	0.202
506	0.203
506	0.204
506	0.205
507	0.205
507	0.206
508	0.207
508	0.208
509	0.209
509	0.21
510	0.211
510	0.212
511	0.212
511	0.213
511	0.214
512	0.215
512	0.216
513	0.217
513	0.217
514	0.218
514	0.219
515	0.22
515	0.22
515	0.221
516	0.221
516	0.222
517	0.223
517	0.223
518	0.224
518	0.225
519	0.225
519	0.226
520	0.227
520	0.227
520	0.228
521	0.229
521	0.229
522	0.23
522	0.23
523	0.231
523	0.232
524	0.233
524	0.233
524	0.234
525	0.235
525	0.235
526	0.236
526	0.237
527	0.238
527	0.238
528	0.239
528	0.239
529	0.239
529	0.24
529	0.241
530	0.241
530	0.242
531	0.243
531	0.243
532	0.244
532	0.244
533	0.245
533	0.245
533	0.246
534	0.246
534	0.247
535	0.247
535	0.248
536	0.249
536	0.249
537	0.25
537	0.251
538	0.251
538	0.252
538	0.253
539	0.254
539	0.255
540	0.255
540	0.256
541	0.256
541	0.257
542	0.257
542	0.258
542	0.259
543	0.26
543	0.26
544	0.261
544	0.261
545	0.262
545	0.262
546	0.263
546	0.263
547	0.263
547	0.263
547	0.263
548	0.264
548	0.264
549	0.264
549	0.264
550	0.264
550	0.264
551	0.264
551	0.264
551	0.265
552	0.265
552	0.265
553	0.265
553	0.266
554	0.266
554	0.266
555	0.266
555	0.266
556	0.266
556	0.266
556	0.267
557	0.267
557	0.267
558	0.267
558	0.268
559	0.268
559	0.268
560	0.269
560	0.269
560	0.269
561	0.27
561	0.27
562	0.27
562	0.27
563	0.27
563	0.27
564	0.27
564	0.27
564	0.27
565	0.27
565	0.27
566	0.27
566	0.271
567	0.272
567	0.272
568	0.273
568	0.273
568	0.273
569	0.274
569	0.275
570	0.275
570	0.274
571	0.275
571	0.275
572	0.275
572	0.275
573	0.275
573	0.274
573	0.274
574	0.274
574	0.274
575	0.274
575	0.274
576	0.274
576	0.274
577	0.273
577	0.273
577	0.274
578	0.274
578	0.274
579	0.275
579	0.276
580	0.274
580	0.274
581	0.273
581	0.273
581	0.274
582	0.274
582	0.275
583	0.276
583	0.275
584	0.274
584	0.273
585	0.275
585	0.275
585	0.276
586	0.276
586	0.275
587	0.275
587	0.274
588	0.274
588	0.274
589	0.275
589	0.275
590	0.275
590	0.276
590	0.277
591	0.278
591	0.278
592	0.278
592	0.277
593	0.277
593	0.277
594	0.277
594	0.277
594	0.276
595	0.276
595	0.276
596	0.275
596	0.276
597	0.277
597	0.277
598	0.278
598	0.278
598	0.278
599	0.278
599	0.278
600	0.278
600	0.278
601	0.278
601	0.278
602	0.277
602	0.277
602	0.277
603	0.277
603	0.277
604	0.277
604	0.278
605	0.278
605	0.278
606	0.277
606	0.276
606	0.275
607	0.275
607	0.274
608	0.274
608	0.273
609	0.273
609	0.273
610	0.272
610	0.272
610	0.272
611	0.273
611	0.274
612	0.275
612	0.275
613	0.276
613	0.277
614	0.276
614	0.276
614	0.276
615	0.275
615	0.275
616	0.275
616	0.274
617	0.273
617	0.272
618	0.271
618	0.27
618	0.269
619	0.268
619	0.268
620	0.269
620	0.268
621	0.268
621	0.268
622	0.267
622	0.267
622	0.266
623	0.266
623	0.266
624	0.266
624	0.265
625	0.264
625	0.263
626	0.261
626	0.26
626	0.26
627	0.259
627	0.258
628	0.257
628	0.256
629	0.255
629	0.254
630	0.253
630	0.251
630	0.25
631	0.248
631	0.246
632	0.244
632	0.242
633	0.24
633	0.238
634	0.236
634	0.234
634	0.233
635	0.231
635	0.229
636	0.227
636	0.224
637	0.221
637	0.218
638	0.214
638	0.211
638	0.207
639	0.202
639	0.197
640	0.192
640	0.188
641	0.184
641	0.179
642	0.175
642	0.171
642	0.166
643	0.162
643	0.156
644	0.151
644	0.146
645	0.14
645	0.134
646	0.128
646	0.121
646	0.113
647	0.106
647	0.098
648	0.089
648	0.081
649	0.073
649	0.065
650	0.057
650	0.05
650	0.041
651	0.03
651	0.017
652	0.001
652	-0.015
653	-0.031
653	-0.043
653	-0.041
654	-0.018
654	-0.005
655	-0.009
655	-0.014
656	-0.02
656	-0.027
657	-0.032
657	-0.037
657	-0.044
658	-0.052
658	-0.083
659	-0.177
659	-0.289
660	-0.337
660	-0.367
661	-0.397
661	-0.43
661	-0.464
662	-0.499
662	-0.534
663	-0.571
663	-0.616
664	-0.658
664	-0.709
665	-0.757
665	-0.807
665	-0.861
666	-0.917
666	-0.974
667	-1.034
667	-1.099
668	-1.164
668	-1.226
669	-1.294
669	-1.366
669	-1.444
670	-1.529
670	-1.633
671	-1.773
671	-1.995
672	-2.149
672	-2.278
672	-2.445
673	-2.598
673	-2.688
674	-2.76
674	-2.793
675	-2.809
675	-2.813
676	-2.808
676	-2.813
676	-2.886
677	-2.868
677	-2.667
678	-2.48
678	-2.308
679	-2.033
679	-1.785
680	-1.658
680	-1.559
680	-1.475
681	-1.416
681	-1.359
682	-1.316
682	-1.277
683	-1.238
683	-1.21
684	-1.174
684	-1.147
684	-1.113
685	-1.093
685	-1.075
686	-1.049
686	-1.023
687	-1.001
687	-0.991
687	-0.969
688	-0.953
688	-0.943
689	-0.926
689	-0.917
690	-0.907
690	-0.899
691	-0.893
691	-0.887
691	-0.873
692	-0.862
692	-0.862
693	-0.859
693	-0.859
694	-0.855
694	-0.851
695	-0.849
695	-0.837
695	-0.831
696	-0.835
696	-0.832
697	-0.831
697	-0.823
698	-0.811
698	-0.805
698	-0.809
699	-0.808
699	-0.802
700	-0.82
700	-0.817
701	-0.821
701	-0.833
702	-0.848
702	-0.858
702	-0.863
703	-0.866
703	-0.855
704	-0.857
704	-0.852
705	-0.853
705	-0.854
705	-0.837
706	-0.83
706	-0.814
707	-0.813
707	-0.818
708	-0.808
708	-0.813
709	-0.817
709	-0.819
709	-0.804
710	-0.81
710	-0.813
711	-0.807
711	-0.811
712	-0.796
712	-0.785
713	-0.794
713	-0.799
713	-0.79
714	-0.797
714	-0.812
715	-0.807
715	-0.824
716	-0.84
716	-0.835
716	-0.843
717	-0.858
717	-0.858
718	-0.852
718	-0.862
719	-0.863
719	-0.838
720	-0.839
720	-0.825
720	-0.821
721	-0.819
721	-0.821
722	-0.813
722	-0.811
723	-0.807
723	-0.799
723	-0.787
724	-0.796
724	-0.788
725	-0.788
725	-0.787
726	-0.795
726	-0.794
727	-0.796
727	-0.792
727	-0.793
728	-0.801
728	-0.805
729	-0.804
729	-0.819
730	-0.826
730	-0.824
730	-0.817
731	-0.81
731	-0.821
732	-0.823
732	-0.821
733	-0.818
733	-0.826
734	-0.819
734	-0.813
734	-0.793
735	-0.798
735	-0.801
736	-0.804
736	-0.786
737	-0.782
737	-0.778
737	-0.764
738	-0.76
738	-0.77
739	-0.772
739	-0.78
740	-0.785
740	-0.781
741	-0.778
741	-0.792
741	-0.791
742	-0.786
742	-0.81
743	-0.799
743	-0.797
744	-0.783
744	-0.779
744	-0.768
745	-0.772
745	-0.782
746	-0.774
746	-0.784
747	-0.793
747	-0.775
748	-0.78
748	-0.782
748	-0.794
749	-0.804
749	-0.804
750	-0.791
750	-0.787
751	-0.791
751	-0.775
751	-0.776
752	-0.786
752	-0.789
753	-0.786
753	-0.778
754	-0.778
754	-0.763
754	-0.777
755	-0.776
755	-0.784
756	-0.802
756	-0.791
757	-0.777
757	-0.774
758	-0.765
758	-0.764
758	-0.76
759	-0.779
759	-0.785
760	-0.779
760	-0.761
761	-0.761
761	-0.769
761	-0.787
762	-0.781
762	-0.791
763	-0.783
763	-0.792
764	-0.786
764	-0.776
764	-0.791
765	-0.807
765	-0.806
766	-0.803
766	-0.785
767	-0.8
767	-0.796
768	-0.804
768	-0.811
768	-0.8
769	-0.806
769	-0.791
770	-0.795
770	-0.784
771	-0.789
771	-0.796
771	-0.797
772	-0.812
772	-0.825
773	-0.813
773	-0.835
774	-0.828
774	-0.832
775	-0.819
775	-0.825
775	-0.825
776	-0.831
776	-0.827
777	-0.818
777	-0.815
778	-0.819
778	-0.809
778	-0.821
779	-0.839
779	-0.856
780	-0.865
780	-0.872
781	-0.884
781	-0.887
781	-0.901
782	-0.904
782	-0.906
783	-0.919
783	-0.926
784	-0.909
784	-0.893
784	-0.906
785	-0.904
785	-0.903
786	-0.906
786	-0.89
787	-0.875
787	-0.897
788	-0.891
788	-0.871
788	-0.863
789	-0.859
789	-0.846
790	-0.846
790	-0.84
791	-0.852
791	-0.862
791	-0.868
792	-0.845
792	-0.852
793	-0.861
793	-0.875
794	-0.877
794	-0.882
794	-0.875
795	-0.864
795	-0.843
796	-0.823
796	-0.832
797	-0.84
797	-0.822
797	-0.83
798	-0.824
798	-0.834
799	-0.822
799	-0.83
800	-0.835
800	-0.848
801	-0.864
801	-0.85
801	-0.833
802	-0.832
802	-0.81
803	-0.803
803	-0.793
804	-0.794
804	-0.791
804	-0.789
805	-0.783
805	-0.774
806	-0.77
806	-0.776
807	-0.777
807	-0.787
807	-0.791
808	-0.788
808	-0.785
809	-0.778
809	-0.767
810	-0.771
810	-0.757
810	-0.762
811	-0.754
811	-0.756
812	-0.756
812	-0.773
813	-0.77
813	-0.771
813	-0.766
814	-0.778
814	-0.762
815	-0.771
815	-0.781
816	-0.778
816	-0.782
817	-0.785
817	-0.765
817	-0.782
818	-0.789
818	-0.792
819	-0.795
819	-0.805
820	-0.792
820	-0.79
820	-0.804
821	-0.803
821	-0.803
822	-0.804
822	-0.801
823	-0.805
823	-0.802
823	-0.787
824	-0.794
824	-0.819
825	-0.811
825	-0.799
826	-0.784
826	-0.769
826	-0.765
827	-0.744
827	-0.729
828	-0.73
828	-0.725
829	-0.711
829	-0.694
829	-0.689
830	-0.688
830	-0.695
831	-0.691
831	-0.675
832	-0.676
832	-0.668
832	-0.655
833	-0.648
833	-0.64
834	-0.632
834	-0.629
835	-0.622
835	-0.611
835	-0.602
836	-0.61
836	-0.606
837	-0.601
837	-0.596
838	-0.596
838	-0.586
839	-0.579
839	-0.57
839	-0.564
840	-0.557
840	-0.551
841	-0.538
841	-0.526
842	-0.519
842	-0.504
842	-0.494
843	-0.492
843	-0.486
844	-0.475
844	-0.462
845	-0.449
845	-0.441
845	-0.426
846	-0.417
846	-0.402
847	-0.395
847	-0.383
848	-0.365
848	-0.351
848	-0.337
849	-0.323
849	-0.31
850	-0.295
850	-0.283
851	-0.272
851	-0.259
851	-0.246
852	-0.231
852	-0.217
853	-0.209
853	-0.201
854	-0.189
854	-0.178
854	-0.168
855	-0.158
855	-0.147
856	-0.136
856	-0.127
857	-0.118
857	-0.109
857	-0.095
858	-0.082
858	-0.074
859	-0.062
859	-0.05
860	-0.04
860	-0.026
860	-0.014
861	-0.004
861	0.005
862	0.013
862	0.02
863	0.028
863	0.037
863	0.043
864	0.048
864	0.056
865	0.062
865	0.067
866	0.072
866	0.078
866	0.083
867	0.089
867	0.094
868	0.097
868	0.102
869	0.106
869	0.109
869	0.111
870	0.112
870	0.113
871	0.114
871	0.114
872	0.114
872	0.114
872	0.115
873	0.116
873	0.118
874	0.119
874	0.121
875	0.122
875	0.123
875	0.124
876	0.125
876	0.127
877	0.128
877	0.129
878	0.13
878	0.13
878	0.131
879	0.13
879	0.129
880	0.128
880	0.127
881	0.126
881	0.125
881	0.124
882	0.123
882	0.121
883	0.12
883	0.118
884	0.117
884	0.116
884	0.115
885	0.114
885	0.113
886	0.113
886	0.111
887	0.11
887	0.11
887	0.109
888	0.109
888	0.108
889	0.107
889	0.106
890	0.105
890	0.105
890	0.104
891	0.104
891	0.102
892	0.101
892	0.1
893	0.1
893	0.099
893	0.099
894	0.099
894	0.099
895	0.098
895	0.099
895	0.099
896	0.099
896	0.1
897	0.101
897	0.101
898	0.101
898	0.102
898	0.102
899	0.103
899	0.104
900	0.104
900	0.104
901	0.105
901	0.105
901	0.105
902	0.105
902	0.106
903	0.105
903	0.105
904	0.105
904	0.104
904	0.104
905	0.104
905	0.103
906	0.103
906	0.103
907	0.102
907	0.102
907	0.101
908	0.101
908	0.101
909	0.102
909	0.102
910	0.103
910	0.103
910	0.104
911	0.104
911	0.105
912	0.105
912	0.106
913	0.107
913	0.107
913	0.107
914	0.107
914	0.107
915	0.107
915	0.107
916	0.107
916	0.107
916	0.107
917	0.106
917	0.106
918	0.107
918	0.107
918	0.108
919	0.109
919	0.109
920	0.11
920	0.111
921	0.112
921	0.113
921	0.113
922	0.114
922	0.114
923	0.114
923	0.114
924	0.113
924	0.113
924	0.112
925	0.112
925	0.111
926	0.11
926	0.11
927	0.109
927	0.109
927	0.108
928	0.108
928	0.107
929	0.107
929	0.106
930	0.105
930	0.104
930	0.103
931	0.102
931	0.1
932	0.099
932	0.098
933	0.096
933	0.095
933	0.093
934	0.091
934	0.09
935	0.089
935	0.087
935	0.086
936	0.085
936	0.084
937	0.084
937	0.084
938	0.084
938	0.083
938	0.083
939	0.083
939	0.083
940	0.084
940	0.084
941	0.084
941	0.084
941	0.085
942	0.084
942	0.083
943	0.083
943	0.082
944	0.082
944	0.081
944	0.081
945	0.081
945	0.081
946	0.081
946	0.081
946	0.081
947	0.081
947	0.082
948	0.083
948	0.083
949	0.083
949	0.084
949	0.085
950	0.085
950	0.085
951	0.085
951	0.085
952	0.084
952	0.084
952	0.084
953	0.083
953	0.084
954	0.083
954	0.083
955	0.083
955	0.084
955	0.084
956	0.085
956	0.086
957	0.086
957	0.086
957	0.086
958	0.086
958	0.086
959	0.087
959	0.087
960	0.087
960	0.088
960	0.089
961	0.09
961	0.091
962	0.092
962	0.093
963	0.094
963	0.094
963	0.094
964	0.094
964	0.094
965	0.094
965	0.093
966	0.093
966	0.092
966	0.091
967	0.09
967	0.089
968	0.088
968	0.087
968	0.086
969	0.085
969	0.083
970	0.082
970	0.081
971	0.08
971	0.079
971	0.079
972	0.078
972	0.078
973	0.077
973	0.077
974	0.077
974	0.077
974	0.077
975	0.076
975	0.076
976	0.075
976	0.075
976	0.074
977	0.073
977	0.072
978	0.072
978	0.071
979	0.071
979	0.07
979	0.07
980	0.07
980	0.07
981	0.07
981	0.071
982	0.071
982	0.072
982	0.073
983	0.073
983	0.074
984	0.075
984	0.076
984	0.076
985	0.077
985	0.078
986	0.078
986	0.078
987	0.078
987	0.078
987	0.077
988	0.077
988	0.077
989	0.077
989	0.077
990	0.077
990	0.077
990	0.077
991	0.078
991	0.078
992	0.078
992	0.078
992	0.078
993	0.077
993	0.077
994	0.077
994	0.076
995	0.076
995	0.075
995	0.075
996	0.075
996	0.074
997	0.074
997	0.074
997	0.074
998	0.074
998	0.074
999	0.074
999	0.073
1000	0.073
1000	0.073
1000	0.072
1001	0.071
1001	0.071
1002	0.07
1002	0.069
1003	0.068
1003	0.067
1003	0.066
1004	0.065
1004	0.064
1005	0.064
1005	0.063
1005	0.062
1006	0.061
1006	0.061
1007	0.06
1007	0.06
1008	0.059
1008	0.059
1008	0.058
1009	0.058
1009	0.057
1010	0.057
1010	0.057
1010	0.056
1011	0.056
1011	0.056
1012	0.055
1012	0.055
1013	0.055
1013	0.055
1013	0.054
1014	0.053
1014	0.053
1015	0.052
1015	0.051
1016	0.051
1016	0.05
1016	0.05
1017	0.05
1017	0.049
1018	0.049
1018	0.049
1018	0.05
1019	0.05
1019	0.051
1020	0.051
1020	0.051
1021	0.051
1021	0.051
1021	0.051
1022	0.05
1022	0.05
1023	0.05
1023	0.049
1023	0.048
1024	0.047
1024	0.045
1025	0.044
1025	0.043
1026	0.043
1026	0.042
1026	0.042
1027	0.042
1027	0.042
1028	0.042
1028	0.043
1028	0.043
1029	0.044
1029	0.045
1030	0.045
1030	0.046
1031	0.047
1031	0.048
1031	0.049
1032	0.049
1032	0.049
1033	0.05
1033	0.05
1033	0.05
1034	0.049
1034	0.048
1035	0.048
1035	0.047
1036	0.046
1036	0.046
1036	0.045
1037	0.045
1037	0.045
1038	0.044
1038	0.045
1039	0.045
1039	0.046
1039	0.046
1040	0.046
1040	0.047
1041	0.047
1041	0.047
1041	0.047
1042	0.048
1042	0.048
1043	0.048
1043	0.047
1044	0.047
1044	0.047
1044	0.047
1045	0.046
1045	0.045
1046	0.045
1046	0.044
1046	0.044
1047	0.044
1047	0.044
1048	0.044
1048	0.044
1049	0.044
1049	0.044
1049	0.044
1050	0.043
1050	0.043
1051	0.042
1051	0.041
1051	0.041
1052	0.04
1052	0.04
1053	0.04
1053	0.04
1053	0.04
1054	0.039
1054	0.039
1055	0.039
1055	0.039
1056	0.039
1056	0.039
1056	0.038
1057	0.037
1057	0.037
1058	0.036
1058	0.035
1058	0.034
1059	0.033
1059	0.032
1060	0.031
1060	0.031
1061	0.03
1061	0.029
1061	0.029
1062	0.028
1062	0.028
1063	0.028
1063	0.027
1063	0.027
1064	0.027
1064	0.027
1065	0.026
1065	0.026
1066	0.025
1066	0.025
1066	0.024
1067	0.023
1067	0.023
1068	0.022
1068	0.021
1068	0.021
1069	0.02
1069	0.019
1070	0.018
1070	0.017
1071	0.016
1071	0.016
1071	0.015
1072	0.014
1072	0.014
1073	0.013
1073	0.013
1073	0.012
1074	0.012
1074	0.012
1075	0.012
1075	0.012
1076	0.012
1076	0.012
1076	0.011
1077	0.011
1077	0.01
1078	0.01
1078	0.01
1078	0.01
1079	0.01
1079	0.01
1080	0.01
1080	0.01
1080	0.01
1081	0.01
1081	0.011
1082	0.011
1082	0.011
1083	0.011
1083	0.01
1083	0.009
1084	0.008
1084	0.008
1085	0.007
1085	0.006
1085	0.005
1086	0.005
1086	0.003
1087	0.003
1087	0.002
1088	0.001
1088	0
1088	-0.001
1089	-0.002
1089	-0.004
1090	-0.006
1090	-0.007
1090	-0.008
1091	-0.01
1091	-0.011
1092	-0.012
1092	-0.013
1092	-0.014
1093	-0.015
1093	-0.015
1094	-0.016
1094	-0.017
1095	-0.019
1095	-0.02
1095	-0.02
1096	-0.022
1096	-0.024
1097	-0.025
1097	-0.027
1097	-0.029
1098	-0.031
1098	-0.033
1099	-0.034
1099	-0.036
1100	-0.038
1100	-0.041
1100	-0.043
1101	-0.045
1101	-0.048
1102	-0.051
1102	-0.054
1102	-0.055
1103	-0.059
1103	-0.061
1104	-0.063
1104	-0.065
1104	-0.067
1105	-0.069
1105	-0.072
1106	-0.076
1106	-0.079
1107	-0.085
1107	-0.088
1107	-0.094
1108	-0.097
1108	-0.099
1109	-0.104
1109	-0.107
1109	-0.114
1110	-0.116
1110	-0.12
1111	-0.126
1111	-0.121
