Data from 40to5_hyst_3.5A_10sec_80mins_Absorbance__51__00673.txt Node

Date: Mon Jun 26 11:04:48 CEST 2023
User: Marek
Spectrometer: MAYP115816
Trigger mode: 0
Integration Time (sec): 2.500000E-1
Scans to average: 10
Electric dark correction enabled: true
Nonlinearity correction enabled: true
Boxcar width: 5
XAxis mode: Wavelengths
Number of Pixels in Spectrum: 2068
>>>>>Begin Spectral Data<<<<<
199	-0.789
199	-0.764
200	-0.729
200	-0.673
201	-0.628
201	-0.599
202	-0.58
202	-0.582
203	-0.573
203	-0.564
204	-0.545
204	-0.525
205	-0.508
205	-0.497
205	-0.501
206	-0.501
206	-0.514
207	-0.513
207	-0.508
208	-0.516
208	-0.519
209	-0.527
209	-0.537
210	-0.545
210	-0.547
211	-0.549
211	-0.558
212	-0.557
212	-0.561
213	-0.567
213	-0.567
213	-0.569
214	-0.567
214	-0.571
215	-0.566
215	-0.571
216	-0.569
216	-0.572
217	-0.569
217	-0.57
218	-0.569
218	-0.569
219	-0.571
219	-0.573
220	-0.574
220	-0.581
221	-0.591
221	-0.599
221	-0.6
222	-0.608
222	-0.606
223	-0.608
223	-0.604
224	-0.611
224	-0.602
225	-0.603
225	-0.604
226	-0.6
226	-0.597
227	-0.594
227	-0.6
228	-0.596
228	-0.599
229	-0.604
229	-0.598
229	-0.602
230	-0.604
230	-0.604
231	-0.593
231	-0.584
232	-0.582
232	-0.574
233	-0.586
233	-0.579
234	-0.585
234	-0.581
235	-0.582
235	-0.578
236	-0.579
236	-0.585
236	-0.594
237	-0.591
237	-0.589
238	-0.582
238	-0.587
239	-0.576
239	-0.579
240	-0.58
240	-0.577
241	-0.576
241	-0.579
242	-0.584
242	-0.591
243	-0.597
243	-0.605
243	-0.605
244	-0.609
244	-0.609
245	-0.623
245	-0.631
246	-0.638
246	-0.635
247	-0.638
247	-0.636
248	-0.629
248	-0.625
249	-0.63
249	-0.636
250	-0.642
250	-0.629
250	-0.623
251	-0.631
251	-0.638
252	-0.633
252	-0.633
253	-0.641
253	-0.65
254	-0.651
254	-0.652
255	-0.663
255	-0.671
256	-0.672
256	-0.668
257	-0.669
257	-0.668
258	-0.678
258	-0.676
258	-0.677
259	-0.674
259	-0.678
260	-0.671
260	-0.673
261	-0.676
261	-0.673
262	-0.675
262	-0.683
263	-0.677
263	-0.683
264	-0.689
264	-0.691
265	-0.688
265	-0.687
265	-0.687
266	-0.687
266	-0.692
267	-0.701
267	-0.698
268	-0.706
268	-0.696
269	-0.687
269	-0.691
270	-0.701
270	-0.703
271	-0.712
271	-0.721
272	-0.72
272	-0.705
272	-0.714
273	-0.711
273	-0.718
274	-0.713
274	-0.707
275	-0.703
275	-0.713
276	-0.708
276	-0.703
277	-0.698
277	-0.709
278	-0.713
278	-0.712
278	-0.727
279	-0.733
279	-0.739
280	-0.74
280	-0.735
281	-0.739
281	-0.759
282	-0.756
282	-0.759
283	-0.752
283	-0.762
284	-0.751
284	-0.75
285	-0.758
285	-0.744
285	-0.732
286	-0.731
286	-0.711
287	-0.715
287	-0.704
288	-0.691
288	-0.684
289	-0.675
289	-0.686
290	-0.68
290	-0.679
291	-0.685
291	-0.676
292	-0.676
292	-0.677
292	-0.686
293	-0.695
293	-0.691
294	-0.701
294	-0.687
295	-0.686
295	-0.691
296	-0.691
296	-0.694
297	-0.692
297	-0.682
298	-0.679
298	-0.679
298	-0.675
299	-0.661
299	-0.667
300	-0.665
300	-0.658
301	-0.652
301	-0.654
302	-0.658
302	-0.658
303	-0.645
303	-0.636
304	-0.635
304	-0.634
305	-0.627
305	-0.62
305	-0.629
306	-0.624
306	-0.619
307	-0.609
307	-0.608
308	-0.61
308	-0.609
309	-0.609
309	-0.608
310	-0.598
310	-0.595
311	-0.587
311	-0.583
311	-0.578
312	-0.565
312	-0.562
313	-0.553
313	-0.552
314	-0.55
314	-0.553
315	-0.553
315	-0.553
316	-0.548
316	-0.546
317	-0.537
317	-0.544
318	-0.537
318	-0.537
318	-0.522
319	-0.516
319	-0.498
320	-0.495
320	-0.496
321	-0.485
321	-0.482
322	-0.479
322	-0.473
323	-0.471
323	-0.469
324	-0.471
324	-0.459
324	-0.456
325	-0.439
325	-0.417
326	-0.412
326	-0.39
327	-0.375
327	-0.351
328	-0.322
328	-0.297
329	-0.27
329	-0.241
330	-0.207
330	-0.175
330	-0.142
331	-0.109
331	-0.075
332	-0.041
332	-0.01
333	0.021
333	0.055
334	0.087
334	0.113
335	0.141
335	0.163
336	0.187
336	0.212
336	0.23
337	0.251
337	0.27
338	0.288
338	0.3
339	0.316
339	0.329
340	0.339
340	0.35
341	0.358
341	0.365
342	0.374
342	0.381
342	0.387
343	0.391
343	0.397
344	0.4
344	0.403
345	0.406
345	0.409
346	0.411
346	0.413
347	0.415
347	0.417
348	0.418
348	0.42
348	0.421
349	0.422
349	0.423
350	0.425
350	0.425
351	0.426
351	0.427
352	0.427
352	0.427
353	0.428
353	0.428
354	0.428
354	0.428
354	0.428
355	0.428
355	0.427
356	0.427
356	0.427
357	0.427
357	0.427
358	0.426
358	0.426
359	0.426
359	0.426
360	0.426
360	0.426
360	0.426
361	0.426
361	0.426
362	0.426
362	0.426
363	0.426
363	0.426
364	0.426
364	0.425
365	0.425
365	0.424
366	0.424
366	0.424
366	0.424
367	0.423
367	0.423
368	0.422
368	0.422
369	0.421
369	0.421
370	0.421
370	0.42
371	0.42
371	0.419
372	0.419
372	0.418
372	0.418
373	0.418
373	0.418
374	0.417
374	0.417
375	0.416
375	0.416
376	0.415
376	0.415
377	0.414
377	0.414
378	0.413
378	0.413
378	0.412
379	0.412
379	0.412
380	0.411
380	0.41
381	0.41
381	0.41
382	0.409
382	0.408
383	0.408
383	0.407
383	0.406
384	0.406
384	0.405
385	0.405
385	0.404
386	0.404
386	0.404
387	0.403
387	0.403
388	0.402
388	0.402
389	0.402
389	0.401
389	0.401
390	0.401
390	0.4
391	0.399
391	0.399
392	0.399
392	0.398
393	0.397
393	0.397
394	0.397
394	0.396
394	0.396
395	0.395
395	0.395
396	0.394
396	0.394
397	0.393
397	0.393
398	0.393
398	0.392
399	0.392
399	0.391
400	0.391
400	0.39
400	0.39
401	0.389
401	0.389
402	0.388
402	0.388
403	0.387
403	0.387
404	0.386
404	0.385
405	0.385
405	0.385
405	0.384
406	0.384
406	0.383
407	0.383
407	0.382
408	0.382
408	0.382
409	0.382
409	0.381
410	0.381
410	0.381
411	0.381
411	0.38
411	0.38
412	0.379
412	0.379
413	0.378
413	0.378
414	0.377
414	0.377
415	0.376
415	0.376
416	0.375
416	0.375
416	0.375
417	0.374
417	0.374
418	0.374
418	0.374
419	0.374
419	0.374
420	0.374
420	0.374
421	0.374
421	0.373
421	0.374
422	0.374
422	0.373
423	0.373
423	0.373
424	0.373
424	0.372
425	0.372
425	0.372
426	0.372
426	0.372
427	0.371
427	0.371
427	0.371
428	0.37
428	0.37
429	0.37
429	0.369
430	0.369
430	0.369
431	0.369
431	0.369
432	0.369
432	0.369
432	0.368
433	0.368
433	0.368
434	0.368
434	0.368
435	0.368
435	0.368
436	0.368
436	0.368
437	0.367
437	0.367
437	0.367
438	0.366
438	0.366
439	0.366
439	0.366
440	0.366
440	0.366
441	0.366
441	0.366
442	0.367
442	0.367
442	0.367
443	0.367
443	0.367
444	0.368
444	0.368
445	0.368
445	0.368
446	0.368
446	0.368
447	0.368
447	0.368
447	0.368
448	0.368
448	0.368
449	0.368
449	0.367
450	0.368
450	0.368
451	0.368
451	0.369
452	0.369
452	0.369
452	0.37
453	0.37
453	0.371
454	0.371
454	0.372
455	0.372
455	0.372
456	0.372
456	0.373
457	0.373
457	0.373
458	0.374
458	0.374
458	0.374
459	0.374
459	0.375
460	0.375
460	0.375
461	0.376
461	0.376
462	0.377
462	0.378
463	0.378
463	0.379
463	0.38
464	0.38
464	0.381
465	0.381
465	0.382
466	0.383
466	0.383
467	0.384
467	0.385
467	0.385
468	0.386
468	0.387
469	0.388
469	0.389
470	0.39
470	0.391
471	0.391
471	0.392
472	0.393
472	0.394
472	0.395
473	0.396
473	0.397
474	0.398
474	0.399
475	0.401
475	0.402
476	0.403
476	0.405
477	0.406
477	0.408
477	0.409
478	0.411
478	0.413
479	0.415
479	0.416
480	0.418
480	0.42
481	0.422
481	0.423
482	0.425
482	0.427
482	0.429
483	0.431
483	0.434
484	0.436
484	0.438
485	0.44
485	0.442
486	0.444
486	0.446
487	0.449
487	0.451
487	0.454
488	0.456
488	0.458
489	0.461
489	0.464
490	0.467
490	0.47
491	0.473
491	0.476
492	0.48
492	0.482
492	0.485
493	0.488
493	0.492
494	0.496
494	0.499
495	0.503
495	0.506
496	0.51
496	0.513
496	0.517
497	0.521
497	0.524
498	0.528
498	0.531
499	0.535
499	0.539
500	0.543
500	0.548
501	0.552
501	0.556
501	0.56
502	0.564
502	0.568
503	0.573
503	0.577
504	0.581
504	0.585
505	0.589
505	0.593
506	0.597
506	0.602
506	0.607
507	0.611
507	0.615
508	0.62
508	0.624
509	0.629
509	0.633
510	0.638
510	0.642
511	0.646
511	0.65
511	0.654
512	0.658
512	0.662
513	0.666
513	0.67
514	0.674
514	0.678
515	0.681
515	0.685
515	0.687
516	0.691
516	0.694
517	0.697
517	0.7
518	0.703
518	0.705
519	0.707
519	0.709
520	0.711
520	0.713
520	0.715
521	0.717
521	0.718
522	0.72
522	0.722
523	0.723
523	0.725
524	0.726
524	0.727
524	0.728
525	0.729
525	0.729
526	0.73
526	0.729
527	0.73
527	0.73
528	0.729
528	0.728
529	0.727
529	0.726
529	0.725
530	0.724
530	0.723
531	0.722
531	0.72
532	0.718
532	0.716
533	0.714
533	0.712
533	0.71
534	0.707
534	0.704
535	0.701
535	0.698
536	0.695
536	0.691
537	0.688
537	0.684
538	0.681
538	0.677
538	0.672
539	0.669
539	0.665
540	0.661
540	0.657
541	0.652
541	0.647
542	0.643
542	0.637
542	0.633
543	0.628
543	0.623
544	0.618
544	0.613
545	0.607
545	0.602
546	0.597
546	0.591
547	0.585
547	0.579
547	0.573
548	0.567
548	0.562
549	0.556
549	0.55
550	0.543
550	0.537
551	0.53
551	0.523
551	0.516
552	0.51
552	0.504
553	0.498
553	0.492
554	0.485
554	0.479
555	0.473
555	0.468
556	0.462
556	0.456
556	0.45
557	0.445
557	0.439
558	0.433
558	0.427
559	0.42
559	0.414
560	0.408
560	0.402
560	0.397
561	0.392
561	0.386
562	0.381
562	0.376
563	0.371
563	0.366
564	0.36
564	0.355
564	0.35
565	0.345
565	0.34
566	0.334
566	0.329
567	0.324
567	0.319
568	0.314
568	0.309
568	0.305
569	0.301
569	0.297
570	0.292
570	0.287
571	0.284
571	0.28
572	0.276
572	0.272
573	0.267
573	0.263
573	0.258
574	0.254
574	0.25
575	0.246
575	0.243
576	0.239
576	0.234
577	0.229
577	0.226
577	0.223
578	0.219
578	0.217
579	0.214
579	0.211
580	0.206
580	0.202
581	0.198
581	0.195
581	0.193
582	0.191
582	0.189
583	0.187
583	0.183
584	0.179
584	0.175
585	0.174
585	0.171
585	0.168
586	0.166
586	0.163
587	0.16
587	0.157
588	0.154
588	0.152
589	0.15
589	0.148
590	0.146
590	0.144
590	0.143
591	0.14
591	0.138
592	0.135
592	0.133
593	0.131
593	0.129
594	0.127
594	0.125
594	0.123
595	0.121
595	0.119
596	0.116
596	0.115
597	0.114
597	0.112
598	0.11
598	0.109
598	0.107
599	0.106
599	0.104
600	0.102
600	0.101
601	0.1
601	0.098
602	0.096
602	0.095
602	0.093
603	0.091
603	0.09
604	0.089
604	0.088
605	0.087
605	0.086
606	0.084
606	0.081
606	0.079
607	0.078
607	0.076
608	0.075
608	0.073
609	0.071
609	0.071
610	0.069
610	0.068
610	0.068
611	0.067
611	0.067
612	0.067
612	0.067
613	0.066
613	0.066
614	0.064
614	0.063
614	0.062
615	0.061
615	0.06
616	0.059
616	0.057
617	0.056
617	0.054
618	0.053
618	0.051
618	0.05
619	0.049
619	0.048
620	0.048
620	0.047
621	0.046
621	0.046
622	0.045
622	0.044
622	0.043
623	0.042
623	0.042
624	0.042
624	0.041
625	0.039
625	0.038
626	0.037
626	0.036
626	0.035
627	0.035
627	0.034
628	0.033
628	0.032
629	0.032
629	0.031
630	0.031
630	0.03
630	0.03
631	0.029
631	0.029
632	0.028
632	0.028
633	0.028
633	0.028
634	0.028
634	0.028
634	0.028
635	0.028
635	0.028
636	0.029
636	0.029
637	0.029
637	0.028
638	0.028
638	0.027
638	0.026
639	0.024
639	0.023
640	0.023
640	0.022
641	0.021
641	0.02
642	0.019
642	0.018
642	0.017
643	0.016
643	0.015
644	0.013
644	0.012
645	0.01
645	0.008
646	0.007
646	0.004
646	0.001
647	-0.001
647	-0.004
648	-0.007
648	-0.01
649	-0.012
649	-0.014
650	-0.017
650	-0.019
650	-0.022
651	-0.026
651	-0.029
652	-0.034
652	-0.039
653	-0.043
653	-0.047
653	-0.046
654	-0.043
654	-0.046
655	-0.051
655	-0.054
656	-0.057
656	-0.061
657	-0.064
657	-0.067
657	-0.072
658	-0.075
658	-0.091
659	-0.13
659	-0.166
660	-0.186
660	-0.201
661	-0.217
661	-0.235
661	-0.252
662	-0.267
662	-0.279
663	-0.291
663	-0.306
664	-0.316
664	-0.337
665	-0.348
665	-0.358
665	-0.371
666	-0.379
666	-0.387
667	-0.394
667	-0.403
668	-0.412
668	-0.421
669	-0.432
669	-0.433
669	-0.441
670	-0.441
670	-0.434
671	-0.385
671	-0.094
672	-0
672	-0
672	-0
673	-0
673	-0
674	-0
674	-0
675	-0
675	-0
676	-0
676	-0
676	-0
677	-0
677	-0.184
678	-0.519
678	-0.563
679	-0.577
679	-0.6
680	-0.617
680	-0.618
680	-0.621
681	-0.638
681	-0.639
682	-0.654
682	-0.659
683	-0.658
683	-0.673
684	-0.676
684	-0.681
684	-0.675
685	-0.684
685	-0.69
686	-0.685
686	-0.679
687	-0.677
687	-0.687
687	-0.683
688	-0.681
688	-0.683
689	-0.68
689	-0.68
690	-0.679
690	-0.683
691	-0.686
691	-0.688
691	-0.683
692	-0.679
692	-0.686
693	-0.689
693	-0.696
694	-0.694
694	-0.698
695	-0.702
695	-0.691
695	-0.69
696	-0.698
696	-0.697
697	-0.699
697	-0.696
698	-0.687
698	-0.685
698	-0.696
699	-0.696
699	-0.694
700	-0.719
700	-0.718
701	-0.724
701	-0.738
702	-0.756
702	-0.767
702	-0.773
703	-0.776
703	-0.765
704	-0.768
704	-0.766
705	-0.763
705	-0.766
705	-0.751
706	-0.743
706	-0.73
707	-0.732
707	-0.738
708	-0.732
708	-0.738
709	-0.745
709	-0.748
709	-0.736
710	-0.745
710	-0.748
711	-0.745
711	-0.75
712	-0.736
712	-0.728
713	-0.735
713	-0.741
713	-0.731
714	-0.737
714	-0.751
715	-0.746
715	-0.765
716	-0.78
716	-0.776
716	-0.786
717	-0.799
717	-0.8
718	-0.795
718	-0.806
719	-0.81
719	-0.786
720	-0.789
720	-0.775
720	-0.777
721	-0.774
721	-0.778
722	-0.771
722	-0.771
723	-0.768
723	-0.761
723	-0.747
724	-0.759
724	-0.751
725	-0.748
725	-0.744
726	-0.751
726	-0.749
727	-0.752
727	-0.747
727	-0.75
728	-0.756
728	-0.762
729	-0.76
729	-0.776
730	-0.783
730	-0.781
730	-0.774
731	-0.766
731	-0.776
732	-0.78
732	-0.778
733	-0.777
733	-0.784
734	-0.781
734	-0.772
734	-0.754
735	-0.762
735	-0.769
736	-0.773
736	-0.756
737	-0.751
737	-0.75
737	-0.735
738	-0.731
738	-0.737
739	-0.742
739	-0.751
740	-0.753
740	-0.748
741	-0.743
741	-0.757
741	-0.758
742	-0.753
742	-0.778
743	-0.771
743	-0.768
744	-0.756
744	-0.753
744	-0.745
745	-0.75
745	-0.763
746	-0.756
746	-0.765
747	-0.771
747	-0.754
748	-0.757
748	-0.76
748	-0.773
749	-0.785
749	-0.784
750	-0.77
750	-0.765
751	-0.768
751	-0.751
751	-0.754
752	-0.763
752	-0.768
753	-0.765
753	-0.757
754	-0.757
754	-0.739
754	-0.754
755	-0.754
755	-0.764
756	-0.782
756	-0.771
757	-0.759
757	-0.756
758	-0.746
758	-0.745
758	-0.738
759	-0.76
759	-0.765
760	-0.757
760	-0.739
761	-0.739
761	-0.747
761	-0.763
762	-0.755
762	-0.768
763	-0.759
763	-0.767
764	-0.763
764	-0.755
764	-0.771
765	-0.782
765	-0.782
766	-0.778
766	-0.765
767	-0.778
767	-0.771
768	-0.779
768	-0.787
768	-0.776
769	-0.779
769	-0.766
770	-0.773
770	-0.763
771	-0.769
771	-0.774
771	-0.779
772	-0.793
772	-0.808
773	-0.795
773	-0.816
774	-0.812
774	-0.815
775	-0.803
775	-0.808
775	-0.808
776	-0.815
776	-0.808
777	-0.8
777	-0.795
778	-0.8
778	-0.793
778	-0.804
779	-0.819
779	-0.832
780	-0.839
780	-0.843
781	-0.851
781	-0.854
781	-0.867
782	-0.87
782	-0.87
783	-0.879
783	-0.885
784	-0.869
784	-0.853
784	-0.871
785	-0.874
785	-0.876
786	-0.882
786	-0.868
787	-0.856
787	-0.884
788	-0.879
788	-0.857
788	-0.855
789	-0.85
789	-0.837
790	-0.836
790	-0.83
791	-0.841
791	-0.851
791	-0.853
792	-0.829
792	-0.839
793	-0.848
793	-0.86
794	-0.867
794	-0.872
794	-0.865
795	-0.854
795	-0.834
796	-0.815
796	-0.826
797	-0.835
797	-0.816
797	-0.827
798	-0.822
798	-0.831
799	-0.817
799	-0.826
800	-0.831
800	-0.844
801	-0.858
801	-0.845
801	-0.828
802	-0.827
802	-0.804
803	-0.799
803	-0.789
804	-0.788
804	-0.786
804	-0.784
805	-0.775
805	-0.767
806	-0.763
806	-0.767
807	-0.768
807	-0.779
807	-0.782
808	-0.779
808	-0.779
809	-0.773
809	-0.761
810	-0.765
810	-0.753
810	-0.758
811	-0.75
811	-0.754
812	-0.754
812	-0.765
813	-0.763
813	-0.763
813	-0.757
814	-0.772
814	-0.76
815	-0.766
815	-0.776
816	-0.777
816	-0.779
817	-0.784
817	-0.768
817	-0.785
818	-0.792
818	-0.795
819	-0.796
819	-0.806
820	-0.796
820	-0.793
820	-0.806
821	-0.805
821	-0.803
822	-0.804
822	-0.802
823	-0.805
823	-0.803
823	-0.789
824	-0.794
824	-0.817
825	-0.812
825	-0.801
826	-0.784
826	-0.768
826	-0.766
827	-0.744
827	-0.728
828	-0.729
828	-0.723
829	-0.711
829	-0.694
829	-0.688
830	-0.685
830	-0.692
831	-0.691
831	-0.675
832	-0.678
832	-0.673
832	-0.66
833	-0.654
833	-0.645
834	-0.641
834	-0.638
835	-0.633
835	-0.625
835	-0.617
836	-0.624
836	-0.622
837	-0.618
837	-0.614
838	-0.615
838	-0.607
839	-0.6
839	-0.594
839	-0.589
840	-0.584
840	-0.58
841	-0.571
841	-0.558
842	-0.551
842	-0.539
842	-0.53
843	-0.528
843	-0.523
844	-0.513
844	-0.501
845	-0.487
845	-0.478
845	-0.463
846	-0.455
846	-0.442
847	-0.436
847	-0.423
848	-0.408
848	-0.397
848	-0.385
849	-0.372
849	-0.363
850	-0.351
850	-0.341
851	-0.333
851	-0.323
851	-0.315
852	-0.303
852	-0.293
853	-0.287
853	-0.28
854	-0.272
854	-0.264
854	-0.256
855	-0.248
855	-0.239
856	-0.232
856	-0.223
857	-0.217
857	-0.21
857	-0.199
858	-0.189
858	-0.183
859	-0.174
859	-0.164
860	-0.158
860	-0.148
860	-0.141
861	-0.134
861	-0.126
862	-0.121
862	-0.117
863	-0.112
863	-0.105
863	-0.102
864	-0.098
864	-0.093
865	-0.089
865	-0.085
866	-0.081
866	-0.077
866	-0.073
867	-0.069
867	-0.066
868	-0.063
868	-0.06
869	-0.057
869	-0.054
869	-0.053
870	-0.051
870	-0.049
871	-0.048
871	-0.046
872	-0.046
872	-0.045
872	-0.044
873	-0.044
873	-0.044
874	-0.044
874	-0.044
875	-0.044
875	-0.045
875	-0.046
876	-0.046
876	-0.047
877	-0.048
877	-0.049
878	-0.05
878	-0.051
878	-0.052
879	-0.053
879	-0.055
880	-0.056
880	-0.056
881	-0.057
881	-0.058
881	-0.058
882	-0.059
882	-0.06
883	-0.061
883	-0.062
884	-0.063
884	-0.063
884	-0.063
885	-0.063
885	-0.064
886	-0.064
886	-0.065
887	-0.066
887	-0.066
887	-0.066
888	-0.066
888	-0.066
889	-0.067
889	-0.067
890	-0.068
890	-0.069
890	-0.069
891	-0.07
891	-0.071
892	-0.072
892	-0.072
893	-0.074
893	-0.074
893	-0.074
894	-0.074
894	-0.074
895	-0.074
895	-0.073
895	-0.073
896	-0.072
896	-0.071
897	-0.07
897	-0.069
898	-0.068
898	-0.067
898	-0.067
899	-0.066
899	-0.064
900	-0.064
900	-0.063
901	-0.062
901	-0.062
901	-0.062
902	-0.061
902	-0.061
903	-0.061
903	-0.061
904	-0.061
904	-0.062
904	-0.062
905	-0.063
905	-0.063
906	-0.063
906	-0.063
907	-0.063
907	-0.063
907	-0.062
908	-0.061
908	-0.061
909	-0.06
909	-0.058
910	-0.057
910	-0.056
910	-0.055
911	-0.054
911	-0.053
912	-0.052
912	-0.05
913	-0.049
913	-0.049
913	-0.048
914	-0.048
914	-0.047
915	-0.047
915	-0.046
916	-0.046
916	-0.046
916	-0.045
917	-0.045
917	-0.045
918	-0.045
918	-0.044
918	-0.044
919	-0.043
919	-0.043
920	-0.042
920	-0.042
921	-0.041
921	-0.041
921	-0.04
922	-0.04
922	-0.041
923	-0.041
923	-0.042
924	-0.042
924	-0.043
924	-0.044
925	-0.045
925	-0.046
926	-0.047
926	-0.047
927	-0.048
927	-0.049
927	-0.049
928	-0.049
928	-0.05
929	-0.05
929	-0.051
930	-0.051
930	-0.052
930	-0.053
931	-0.054
931	-0.055
932	-0.056
932	-0.057
933	-0.058
933	-0.059
933	-0.06
934	-0.062
934	-0.063
935	-0.064
935	-0.066
935	-0.067
936	-0.067
936	-0.068
937	-0.068
937	-0.068
938	-0.068
938	-0.068
938	-0.068
939	-0.068
939	-0.067
940	-0.067
940	-0.066
941	-0.066
941	-0.065
941	-0.065
942	-0.065
942	-0.065
943	-0.065
943	-0.065
944	-0.065
944	-0.066
944	-0.066
945	-0.065
945	-0.065
946	-0.065
946	-0.065
946	-0.064
947	-0.063
947	-0.062
948	-0.061
948	-0.06
949	-0.059
949	-0.057
949	-0.056
950	-0.056
950	-0.055
951	-0.055
951	-0.055
952	-0.055
952	-0.055
952	-0.055
953	-0.055
953	-0.055
954	-0.055
954	-0.055
955	-0.055
955	-0.054
955	-0.053
956	-0.052
956	-0.051
957	-0.05
957	-0.05
957	-0.049
958	-0.049
958	-0.048
959	-0.047
959	-0.047
960	-0.046
960	-0.046
960	-0.045
961	-0.044
961	-0.042
962	-0.041
962	-0.04
963	-0.039
963	-0.038
963	-0.038
964	-0.037
964	-0.037
965	-0.037
965	-0.038
966	-0.038
966	-0.039
966	-0.04
967	-0.04
967	-0.041
968	-0.043
968	-0.044
968	-0.045
969	-0.047
969	-0.048
970	-0.049
970	-0.05
971	-0.051
971	-0.052
971	-0.053
972	-0.054
972	-0.054
973	-0.055
973	-0.055
974	-0.055
974	-0.055
974	-0.055
975	-0.055
975	-0.055
976	-0.055
976	-0.055
976	-0.055
977	-0.056
977	-0.056
978	-0.056
978	-0.056
979	-0.056
979	-0.057
979	-0.057
980	-0.057
980	-0.057
981	-0.057
981	-0.057
982	-0.056
982	-0.056
982	-0.055
983	-0.054
983	-0.054
984	-0.053
984	-0.053
984	-0.052
985	-0.052
985	-0.051
986	-0.051
986	-0.051
987	-0.051
987	-0.051
987	-0.052
988	-0.052
988	-0.052
989	-0.052
989	-0.052
990	-0.052
990	-0.052
990	-0.052
991	-0.052
991	-0.051
992	-0.051
992	-0.052
992	-0.052
993	-0.052
993	-0.053
994	-0.053
994	-0.054
995	-0.055
995	-0.055
995	-0.056
996	-0.056
996	-0.057
997	-0.057
997	-0.057
997	-0.057
998	-0.056
998	-0.056
999	-0.056
999	-0.056
1000	-0.057
1000	-0.057
1000	-0.058
1001	-0.058
1001	-0.059
1002	-0.06
1002	-0.061
1003	-0.062
1003	-0.064
1003	-0.065
1004	-0.066
1004	-0.067
1005	-0.068
1005	-0.069
1005	-0.07
1006	-0.071
1006	-0.072
1007	-0.072
1007	-0.073
1008	-0.073
1008	-0.073
1008	-0.074
1009	-0.074
1009	-0.074
1010	-0.075
1010	-0.075
1010	-0.074
1011	-0.075
1011	-0.075
1012	-0.076
1012	-0.076
1013	-0.076
1013	-0.076
1013	-0.077
1014	-0.077
1014	-0.078
1015	-0.079
1015	-0.079
1016	-0.08
1016	-0.08
1016	-0.08
1017	-0.081
1017	-0.081
1018	-0.081
1018	-0.081
1018	-0.08
1019	-0.08
1019	-0.079
1020	-0.079
1020	-0.079
1021	-0.079
1021	-0.079
1021	-0.079
1022	-0.079
1022	-0.079
1023	-0.079
1023	-0.08
1023	-0.081
1024	-0.082
1024	-0.082
1025	-0.083
1025	-0.084
1026	-0.084
1026	-0.084
1026	-0.084
1027	-0.084
1027	-0.084
1028	-0.083
1028	-0.083
1028	-0.082
1029	-0.081
1029	-0.08
1030	-0.08
1030	-0.079
1031	-0.079
1031	-0.077
1031	-0.077
1032	-0.076
1032	-0.076
1033	-0.076
1033	-0.076
1033	-0.076
1034	-0.077
1034	-0.077
1035	-0.078
1035	-0.078
1036	-0.079
1036	-0.08
1036	-0.08
1037	-0.08
1037	-0.08
1038	-0.08
1038	-0.08
1039	-0.079
1039	-0.079
1039	-0.079
1040	-0.078
1040	-0.078
1041	-0.077
1041	-0.077
1041	-0.076
1042	-0.076
1042	-0.076
1043	-0.075
1043	-0.075
1044	-0.075
1044	-0.075
1044	-0.075
1045	-0.076
1045	-0.076
1046	-0.076
1046	-0.076
1046	-0.076
1047	-0.076
1047	-0.077
1048	-0.077
1048	-0.077
1049	-0.077
1049	-0.077
1049	-0.078
1050	-0.078
1050	-0.079
1051	-0.079
1051	-0.08
1051	-0.08
1052	-0.08
1052	-0.08
1053	-0.08
1053	-0.08
1053	-0.08
1054	-0.08
1054	-0.08
1055	-0.079
1055	-0.079
1056	-0.079
1056	-0.079
1056	-0.079
1057	-0.08
1057	-0.08
1058	-0.08
1058	-0.081
1058	-0.081
1059	-0.082
1059	-0.082
1060	-0.083
1060	-0.083
1061	-0.084
1061	-0.084
1061	-0.084
1062	-0.084
1062	-0.085
1063	-0.085
1063	-0.085
1063	-0.085
1064	-0.085
1064	-0.086
1065	-0.086
1065	-0.086
1066	-0.087
1066	-0.088
1066	-0.088
1067	-0.089
1067	-0.089
1068	-0.09
1068	-0.09
1068	-0.091
1069	-0.092
1069	-0.093
1070	-0.094
1070	-0.094
1071	-0.095
1071	-0.096
1071	-0.097
1072	-0.098
1072	-0.098
1073	-0.098
1073	-0.099
1073	-0.1
1074	-0.099
1074	-0.099
1075	-0.099
1075	-0.099
1076	-0.099
1076	-0.098
1076	-0.099
1077	-0.099
1077	-0.099
1078	-0.099
1078	-0.099
1078	-0.099
1079	-0.099
1079	-0.099
1080	-0.099
1080	-0.098
1080	-0.099
1081	-0.098
1081	-0.098
1082	-0.097
1082	-0.097
1083	-0.097
1083	-0.098
1083	-0.098
1084	-0.099
1084	-0.098
1085	-0.099
1085	-0.099
1085	-0.099
1086	-0.099
1086	-0.1
1087	-0.101
1087	-0.101
1088	-0.102
1088	-0.102
1088	-0.103
1089	-0.104
1089	-0.106
1090	-0.107
1090	-0.109
1090	-0.11
1091	-0.111
1091	-0.112
1092	-0.113
1092	-0.114
1092	-0.115
1093	-0.116
1093	-0.115
1094	-0.116
1094	-0.117
1095	-0.117
1095	-0.118
1095	-0.119
1096	-0.12
1096	-0.121
1097	-0.123
1097	-0.124
1097	-0.126
1098	-0.128
1098	-0.13
1099	-0.132
1099	-0.133
1100	-0.134
1100	-0.136
1100	-0.138
1101	-0.14
1101	-0.142
1102	-0.144
1102	-0.146
1102	-0.146
1103	-0.148
1103	-0.149
1104	-0.151
1104	-0.154
1104	-0.155
1105	-0.156
1105	-0.159
1106	-0.162
1106	-0.164
1107	-0.169
1107	-0.172
1107	-0.176
1108	-0.178
1108	-0.181
1109	-0.183
1109	-0.187
1109	-0.192
1110	-0.193
1110	-0.197
1111	-0.202
1111	-0.198
