Data from 40to5_hyst_3.5A_10sec_80mins_Absorbance__184__00806.txt Node

Date: Mon Jun 26 11:26:58 CEST 2023
User: Marek
Spectrometer: MAYP115816
Trigger mode: 0
Integration Time (sec): 2.500000E-1
Scans to average: 10
Electric dark correction enabled: true
Nonlinearity correction enabled: true
Boxcar width: 5
XAxis mode: Wavelengths
Number of Pixels in Spectrum: 2068
>>>>>Begin Spectral Data<<<<<
199	-0.779
199	-0.761
200	-0.728
200	-0.672
201	-0.63
201	-0.602
202	-0.583
202	-0.586
203	-0.578
203	-0.57
204	-0.552
204	-0.534
205	-0.515
205	-0.506
205	-0.509
206	-0.509
206	-0.52
207	-0.521
207	-0.518
208	-0.524
208	-0.528
209	-0.53
209	-0.542
210	-0.55
210	-0.55
211	-0.552
211	-0.561
212	-0.563
212	-0.567
213	-0.572
213	-0.57
213	-0.573
214	-0.573
214	-0.575
215	-0.571
215	-0.578
216	-0.576
216	-0.58
217	-0.574
217	-0.571
218	-0.572
218	-0.573
219	-0.575
219	-0.575
220	-0.578
220	-0.585
221	-0.593
221	-0.603
221	-0.602
222	-0.608
222	-0.607
223	-0.611
223	-0.607
224	-0.613
224	-0.608
225	-0.607
225	-0.609
226	-0.606
226	-0.601
227	-0.6
227	-0.608
228	-0.606
228	-0.608
229	-0.61
229	-0.604
229	-0.608
230	-0.611
230	-0.606
231	-0.595
231	-0.586
232	-0.585
232	-0.576
233	-0.587
233	-0.581
234	-0.586
234	-0.582
235	-0.583
235	-0.58
236	-0.585
236	-0.59
236	-0.597
237	-0.594
237	-0.591
238	-0.584
238	-0.588
239	-0.581
239	-0.587
240	-0.585
240	-0.583
241	-0.581
241	-0.586
242	-0.593
242	-0.603
243	-0.61
243	-0.616
243	-0.619
244	-0.621
244	-0.62
245	-0.634
245	-0.641
246	-0.649
246	-0.642
247	-0.644
247	-0.639
248	-0.632
248	-0.628
249	-0.631
249	-0.636
250	-0.642
250	-0.631
250	-0.627
251	-0.633
251	-0.643
252	-0.639
252	-0.641
253	-0.65
253	-0.66
254	-0.66
254	-0.661
255	-0.671
255	-0.677
256	-0.677
256	-0.674
257	-0.675
257	-0.676
258	-0.686
258	-0.682
258	-0.682
259	-0.679
259	-0.686
260	-0.68
260	-0.684
261	-0.688
261	-0.688
262	-0.687
262	-0.693
263	-0.686
263	-0.694
264	-0.701
264	-0.704
265	-0.698
265	-0.698
265	-0.696
266	-0.696
266	-0.701
267	-0.713
267	-0.711
268	-0.72
268	-0.708
269	-0.699
269	-0.705
270	-0.717
270	-0.716
271	-0.724
271	-0.732
272	-0.731
272	-0.717
272	-0.725
273	-0.724
273	-0.73
274	-0.726
274	-0.72
275	-0.718
275	-0.73
276	-0.725
276	-0.722
277	-0.717
277	-0.726
278	-0.731
278	-0.729
278	-0.742
279	-0.749
279	-0.753
280	-0.752
280	-0.747
281	-0.75
281	-0.768
282	-0.764
282	-0.764
283	-0.759
283	-0.768
284	-0.759
284	-0.758
285	-0.767
285	-0.752
285	-0.739
286	-0.739
286	-0.718
287	-0.725
287	-0.717
288	-0.703
288	-0.698
289	-0.691
289	-0.702
290	-0.699
290	-0.698
291	-0.704
291	-0.695
292	-0.697
292	-0.697
292	-0.704
293	-0.713
293	-0.709
294	-0.717
294	-0.702
295	-0.701
295	-0.705
296	-0.705
296	-0.711
297	-0.708
297	-0.699
298	-0.695
298	-0.694
298	-0.689
299	-0.677
299	-0.682
300	-0.681
300	-0.673
301	-0.668
301	-0.667
302	-0.672
302	-0.67
303	-0.658
303	-0.651
304	-0.649
304	-0.648
305	-0.643
305	-0.633
305	-0.643
306	-0.638
306	-0.635
307	-0.626
307	-0.63
308	-0.632
308	-0.628
309	-0.628
309	-0.629
310	-0.618
310	-0.614
311	-0.606
311	-0.602
311	-0.596
312	-0.583
312	-0.577
313	-0.568
313	-0.568
314	-0.566
314	-0.57
315	-0.57
315	-0.571
316	-0.567
316	-0.565
317	-0.557
317	-0.563
318	-0.555
318	-0.556
318	-0.539
319	-0.533
319	-0.514
320	-0.512
320	-0.514
321	-0.506
321	-0.502
322	-0.496
322	-0.493
323	-0.495
323	-0.491
324	-0.496
324	-0.485
324	-0.484
325	-0.467
325	-0.446
326	-0.438
326	-0.418
327	-0.407
327	-0.385
328	-0.354
328	-0.333
329	-0.308
329	-0.28
330	-0.251
330	-0.221
330	-0.193
331	-0.164
331	-0.136
332	-0.103
332	-0.075
333	-0.05
333	-0.021
334	0.006
334	0.029
335	0.054
335	0.072
336	0.093
336	0.113
336	0.127
337	0.143
337	0.158
338	0.172
338	0.182
339	0.194
339	0.204
340	0.213
340	0.221
341	0.227
341	0.233
342	0.241
342	0.247
342	0.251
343	0.255
343	0.26
344	0.264
344	0.267
345	0.27
345	0.274
346	0.277
346	0.279
347	0.281
347	0.284
348	0.286
348	0.289
348	0.29
349	0.291
349	0.293
350	0.294
350	0.295
351	0.296
351	0.297
352	0.298
352	0.299
353	0.3
353	0.301
354	0.302
354	0.303
354	0.303
355	0.304
355	0.305
356	0.306
356	0.306
357	0.306
357	0.307
358	0.307
358	0.307
359	0.308
359	0.308
360	0.308
360	0.309
360	0.309
361	0.309
361	0.31
362	0.311
362	0.311
363	0.312
363	0.313
364	0.313
364	0.313
365	0.314
365	0.314
366	0.314
366	0.315
366	0.315
367	0.315
367	0.315
368	0.315
368	0.315
369	0.314
369	0.315
370	0.314
370	0.315
371	0.315
371	0.315
372	0.315
372	0.315
372	0.315
373	0.315
373	0.315
374	0.315
374	0.315
375	0.315
375	0.315
376	0.316
376	0.316
377	0.316
377	0.316
378	0.316
378	0.316
378	0.316
379	0.316
379	0.316
380	0.316
380	0.316
381	0.316
381	0.315
382	0.315
382	0.315
383	0.315
383	0.315
383	0.315
384	0.314
384	0.314
385	0.314
385	0.315
386	0.315
386	0.315
387	0.315
387	0.315
388	0.315
388	0.315
389	0.315
389	0.315
389	0.315
390	0.314
390	0.314
391	0.314
391	0.314
392	0.314
392	0.313
393	0.313
393	0.313
394	0.313
394	0.313
394	0.313
395	0.312
395	0.312
396	0.312
396	0.312
397	0.312
397	0.312
398	0.311
398	0.311
399	0.311
399	0.311
400	0.311
400	0.311
400	0.31
401	0.31
401	0.31
402	0.31
402	0.31
403	0.31
403	0.309
404	0.309
404	0.309
405	0.308
405	0.308
405	0.308
406	0.308
406	0.308
407	0.308
407	0.308
408	0.307
408	0.307
409	0.307
409	0.307
410	0.307
410	0.307
411	0.307
411	0.306
411	0.306
412	0.306
412	0.305
413	0.305
413	0.305
414	0.304
414	0.304
415	0.304
415	0.304
416	0.303
416	0.303
416	0.303
417	0.303
417	0.303
418	0.303
418	0.303
419	0.303
419	0.303
420	0.303
420	0.303
421	0.303
421	0.303
421	0.303
422	0.303
422	0.303
423	0.303
423	0.302
424	0.302
424	0.302
425	0.302
425	0.301
426	0.301
426	0.301
427	0.301
427	0.3
427	0.3
428	0.3
428	0.299
429	0.299
429	0.299
430	0.299
430	0.298
431	0.298
431	0.298
432	0.298
432	0.298
432	0.298
433	0.297
433	0.297
434	0.297
434	0.297
435	0.297
435	0.297
436	0.297
436	0.296
437	0.296
437	0.296
437	0.295
438	0.295
438	0.295
439	0.295
439	0.294
440	0.294
440	0.294
441	0.294
441	0.294
442	0.294
442	0.294
442	0.294
443	0.294
443	0.294
444	0.294
444	0.294
445	0.294
445	0.294
446	0.294
446	0.294
447	0.293
447	0.293
447	0.293
448	0.293
448	0.292
449	0.292
449	0.292
450	0.292
450	0.292
451	0.291
451	0.291
452	0.292
452	0.292
452	0.292
453	0.292
453	0.292
454	0.292
454	0.292
455	0.291
455	0.291
456	0.291
456	0.291
457	0.291
457	0.291
458	0.291
458	0.291
458	0.291
459	0.291
459	0.291
460	0.29
460	0.29
461	0.29
461	0.29
462	0.29
462	0.29
463	0.29
463	0.29
463	0.29
464	0.29
464	0.29
465	0.29
465	0.291
466	0.29
466	0.29
467	0.29
467	0.29
467	0.29
468	0.29
468	0.29
469	0.29
469	0.29
470	0.29
470	0.29
471	0.29
471	0.29
472	0.29
472	0.29
472	0.29
473	0.291
473	0.291
474	0.291
474	0.292
475	0.292
475	0.292
476	0.293
476	0.293
477	0.293
477	0.294
477	0.295
478	0.295
478	0.295
479	0.296
479	0.296
480	0.297
480	0.297
481	0.298
481	0.298
482	0.299
482	0.299
482	0.299
483	0.3
483	0.301
484	0.302
484	0.302
485	0.302
485	0.303
486	0.303
486	0.304
487	0.305
487	0.306
487	0.307
488	0.307
488	0.308
489	0.309
489	0.31
490	0.311
490	0.313
491	0.314
491	0.315
492	0.316
492	0.316
492	0.317
493	0.318
493	0.319
494	0.321
494	0.323
495	0.324
495	0.325
496	0.326
496	0.328
496	0.329
497	0.331
497	0.332
498	0.333
498	0.335
499	0.336
499	0.337
500	0.339
500	0.341
501	0.342
501	0.344
501	0.345
502	0.347
502	0.349
503	0.351
503	0.352
504	0.354
504	0.356
505	0.357
505	0.359
506	0.361
506	0.363
506	0.365
507	0.367
507	0.368
508	0.37
508	0.372
509	0.374
509	0.376
510	0.379
510	0.381
511	0.383
511	0.385
511	0.387
512	0.389
512	0.391
513	0.392
513	0.394
514	0.397
514	0.399
515	0.4
515	0.402
515	0.404
516	0.406
516	0.408
517	0.41
517	0.411
518	0.413
518	0.414
519	0.416
519	0.418
520	0.419
520	0.421
520	0.423
521	0.425
521	0.426
522	0.428
522	0.43
523	0.432
523	0.434
524	0.435
524	0.437
524	0.438
525	0.44
525	0.441
526	0.443
526	0.445
527	0.446
527	0.448
528	0.449
528	0.45
529	0.451
529	0.452
529	0.454
530	0.455
530	0.457
531	0.458
531	0.459
532	0.46
532	0.461
533	0.463
533	0.464
533	0.465
534	0.466
534	0.467
535	0.468
535	0.469
536	0.471
536	0.472
537	0.473
537	0.475
538	0.476
538	0.478
538	0.479
539	0.481
539	0.482
540	0.483
540	0.484
541	0.485
541	0.486
542	0.487
542	0.488
542	0.489
543	0.49
543	0.491
544	0.492
544	0.493
545	0.494
545	0.495
546	0.496
546	0.496
547	0.497
547	0.497
547	0.497
548	0.498
548	0.498
549	0.498
549	0.498
550	0.498
550	0.498
551	0.498
551	0.499
551	0.499
552	0.5
552	0.5
553	0.501
553	0.501
554	0.502
554	0.502
555	0.502
555	0.502
556	0.503
556	0.503
556	0.503
557	0.504
557	0.504
558	0.504
558	0.504
559	0.504
559	0.505
560	0.505
560	0.505
560	0.505
561	0.506
561	0.506
562	0.506
562	0.506
563	0.506
563	0.506
564	0.506
564	0.507
564	0.507
565	0.507
565	0.507
566	0.507
566	0.508
567	0.508
567	0.508
568	0.509
568	0.509
568	0.509
569	0.51
569	0.51
570	0.51
570	0.509
571	0.51
571	0.51
572	0.51
572	0.509
573	0.509
573	0.508
573	0.507
574	0.507
574	0.507
575	0.506
575	0.507
576	0.506
576	0.505
577	0.505
577	0.504
577	0.505
578	0.504
578	0.505
579	0.505
579	0.505
580	0.503
580	0.501
581	0.501
581	0.501
581	0.501
582	0.501
582	0.5
583	0.501
583	0.5
584	0.498
584	0.496
585	0.498
585	0.498
585	0.497
586	0.496
586	0.495
587	0.494
587	0.493
588	0.491
588	0.491
589	0.49
589	0.49
590	0.489
590	0.489
590	0.489
591	0.489
591	0.487
592	0.486
592	0.485
593	0.484
593	0.483
594	0.482
594	0.481
594	0.48
595	0.479
595	0.477
596	0.476
596	0.476
597	0.476
597	0.475
598	0.474
598	0.473
598	0.473
599	0.472
599	0.47
600	0.469
600	0.468
601	0.468
601	0.466
602	0.464
602	0.463
602	0.462
603	0.46
603	0.46
604	0.458
604	0.457
605	0.456
605	0.455
606	0.453
606	0.451
606	0.449
607	0.448
607	0.446
608	0.444
608	0.442
609	0.441
609	0.44
610	0.438
610	0.437
610	0.436
611	0.435
611	0.434
612	0.434
612	0.433
613	0.433
613	0.432
614	0.43
614	0.428
614	0.427
615	0.425
615	0.423
616	0.422
616	0.42
617	0.418
617	0.415
618	0.413
618	0.41
618	0.408
619	0.405
619	0.403
620	0.402
620	0.4
621	0.398
621	0.397
622	0.394
622	0.392
622	0.39
623	0.388
623	0.387
624	0.385
624	0.383
625	0.38
625	0.377
626	0.373
626	0.37
626	0.368
627	0.365
627	0.362
628	0.358
628	0.355
629	0.352
629	0.349
630	0.345
630	0.341
630	0.337
631	0.333
631	0.329
632	0.324
632	0.319
633	0.314
633	0.309
634	0.303
634	0.299
634	0.294
635	0.289
635	0.284
636	0.278
636	0.272
637	0.266
637	0.259
638	0.252
638	0.245
638	0.237
639	0.228
639	0.219
640	0.21
640	0.202
641	0.194
641	0.185
642	0.177
642	0.169
642	0.161
643	0.153
643	0.144
644	0.135
644	0.126
645	0.116
645	0.106
646	0.097
646	0.086
646	0.076
647	0.065
647	0.055
648	0.044
648	0.033
649	0.023
649	0.012
650	0.003
650	-0.007
650	-0.017
651	-0.03
651	-0.045
652	-0.063
652	-0.083
653	-0.1
653	-0.115
653	-0.111
654	-0.081
654	-0.063
655	-0.066
655	-0.071
656	-0.076
656	-0.084
657	-0.089
657	-0.092
657	-0.099
658	-0.105
658	-0.139
659	-0.245
659	-0.367
660	-0.419
660	-0.449
661	-0.48
661	-0.514
661	-0.55
662	-0.586
662	-0.624
663	-0.664
663	-0.711
664	-0.757
664	-0.813
665	-0.865
665	-0.919
665	-0.977
666	-1.037
666	-1.097
667	-1.161
667	-1.228
668	-1.296
668	-1.36
669	-1.43
669	-1.503
669	-1.583
670	-1.671
670	-1.774
671	-1.9
671	-2.083
672	-2.203
672	-2.316
672	-2.474
673	-2.62
673	-2.705
674	-2.774
674	-2.807
675	-2.823
675	-2.826
676	-2.82
676	-2.824
676	-2.9
677	-2.885
677	-2.689
678	-2.509
678	-2.352
679	-2.116
679	-1.906
680	-1.784
680	-1.684
680	-1.596
681	-1.536
681	-1.476
682	-1.429
682	-1.389
683	-1.346
683	-1.316
684	-1.275
684	-1.244
684	-1.207
685	-1.184
685	-1.162
686	-1.131
686	-1.101
687	-1.076
687	-1.062
687	-1.037
688	-1.017
688	-1.005
689	-0.985
689	-0.974
690	-0.96
690	-0.954
691	-0.946
691	-0.938
691	-0.921
692	-0.908
692	-0.907
693	-0.903
693	-0.9
694	-0.894
694	-0.887
695	-0.885
695	-0.869
695	-0.862
696	-0.864
696	-0.861
697	-0.858
697	-0.849
698	-0.834
698	-0.828
698	-0.832
699	-0.832
699	-0.828
700	-0.846
700	-0.841
701	-0.844
701	-0.858
702	-0.872
702	-0.883
702	-0.886
703	-0.889
703	-0.878
704	-0.876
704	-0.87
705	-0.869
705	-0.87
705	-0.851
706	-0.841
706	-0.828
707	-0.828
707	-0.832
708	-0.821
708	-0.825
709	-0.829
709	-0.832
709	-0.817
710	-0.824
710	-0.827
711	-0.822
711	-0.824
712	-0.808
712	-0.798
713	-0.806
713	-0.81
713	-0.802
714	-0.808
714	-0.824
715	-0.817
715	-0.834
716	-0.846
716	-0.841
716	-0.851
717	-0.864
717	-0.864
718	-0.86
718	-0.869
719	-0.87
719	-0.844
720	-0.847
720	-0.834
720	-0.835
721	-0.832
721	-0.835
722	-0.827
722	-0.825
723	-0.82
723	-0.814
723	-0.801
724	-0.813
724	-0.803
725	-0.802
725	-0.797
726	-0.803
726	-0.8
727	-0.803
727	-0.797
727	-0.799
728	-0.806
728	-0.807
729	-0.801
729	-0.817
730	-0.822
730	-0.821
730	-0.815
731	-0.808
731	-0.818
732	-0.822
732	-0.821
733	-0.818
733	-0.826
734	-0.823
734	-0.816
734	-0.797
735	-0.802
735	-0.805
736	-0.809
736	-0.792
737	-0.789
737	-0.786
737	-0.77
738	-0.766
738	-0.774
739	-0.776
739	-0.784
740	-0.786
740	-0.783
741	-0.777
741	-0.789
741	-0.787
742	-0.781
742	-0.806
743	-0.798
743	-0.796
744	-0.783
744	-0.781
744	-0.771
745	-0.776
745	-0.789
746	-0.782
746	-0.793
747	-0.799
747	-0.78
748	-0.784
748	-0.785
748	-0.799
749	-0.807
749	-0.806
750	-0.793
750	-0.789
751	-0.792
751	-0.776
751	-0.777
752	-0.788
752	-0.79
753	-0.787
753	-0.778
754	-0.779
754	-0.765
754	-0.78
755	-0.779
755	-0.788
756	-0.804
756	-0.794
757	-0.778
757	-0.779
758	-0.769
758	-0.769
758	-0.764
759	-0.782
759	-0.785
760	-0.777
760	-0.762
761	-0.76
761	-0.769
761	-0.787
762	-0.778
762	-0.789
763	-0.779
763	-0.788
764	-0.785
764	-0.778
764	-0.796
765	-0.809
765	-0.811
766	-0.806
766	-0.794
767	-0.809
767	-0.805
768	-0.813
768	-0.82
768	-0.811
769	-0.813
769	-0.797
770	-0.803
770	-0.791
771	-0.797
771	-0.799
771	-0.799
772	-0.813
772	-0.828
773	-0.815
773	-0.834
774	-0.829
774	-0.832
775	-0.817
775	-0.823
775	-0.824
776	-0.831
776	-0.827
777	-0.82
777	-0.816
778	-0.819
778	-0.811
778	-0.822
779	-0.839
779	-0.857
780	-0.867
780	-0.871
781	-0.884
781	-0.89
781	-0.905
782	-0.909
782	-0.911
783	-0.922
783	-0.931
784	-0.915
784	-0.898
784	-0.909
785	-0.91
785	-0.909
786	-0.911
786	-0.893
787	-0.877
787	-0.9
788	-0.893
788	-0.869
788	-0.863
789	-0.858
789	-0.846
790	-0.846
790	-0.837
791	-0.848
791	-0.859
791	-0.863
792	-0.84
792	-0.848
793	-0.86
793	-0.872
794	-0.877
794	-0.88
794	-0.874
795	-0.863
795	-0.842
796	-0.822
796	-0.831
797	-0.838
797	-0.822
797	-0.83
798	-0.827
798	-0.838
799	-0.826
799	-0.835
800	-0.839
800	-0.852
801	-0.867
801	-0.855
801	-0.839
802	-0.836
802	-0.814
803	-0.807
803	-0.796
804	-0.798
804	-0.794
804	-0.792
805	-0.784
805	-0.775
806	-0.771
806	-0.777
807	-0.778
807	-0.789
807	-0.791
808	-0.79
808	-0.785
809	-0.779
809	-0.768
810	-0.773
810	-0.761
810	-0.766
811	-0.757
811	-0.759
812	-0.76
812	-0.775
813	-0.77
813	-0.773
813	-0.769
814	-0.782
814	-0.767
815	-0.776
815	-0.788
816	-0.787
816	-0.79
817	-0.792
817	-0.771
817	-0.79
818	-0.795
818	-0.796
819	-0.799
819	-0.807
820	-0.795
820	-0.79
820	-0.803
821	-0.804
821	-0.802
822	-0.804
822	-0.802
823	-0.804
823	-0.807
823	-0.792
824	-0.799
824	-0.824
825	-0.818
825	-0.805
826	-0.788
826	-0.773
826	-0.771
827	-0.747
827	-0.734
828	-0.732
828	-0.727
829	-0.715
829	-0.697
829	-0.693
830	-0.691
830	-0.698
831	-0.696
831	-0.678
832	-0.682
832	-0.674
832	-0.661
833	-0.655
833	-0.645
834	-0.64
834	-0.634
835	-0.628
835	-0.617
835	-0.608
836	-0.614
836	-0.61
837	-0.607
837	-0.602
838	-0.6
838	-0.59
839	-0.584
839	-0.578
839	-0.572
840	-0.566
840	-0.56
841	-0.552
841	-0.539
842	-0.531
842	-0.521
842	-0.51
843	-0.508
843	-0.501
844	-0.489
844	-0.478
845	-0.466
845	-0.458
845	-0.443
846	-0.434
846	-0.419
847	-0.411
847	-0.401
848	-0.385
848	-0.371
848	-0.36
849	-0.346
849	-0.333
850	-0.319
850	-0.307
851	-0.297
851	-0.284
851	-0.272
852	-0.257
852	-0.245
853	-0.238
853	-0.231
854	-0.221
854	-0.212
854	-0.203
855	-0.194
855	-0.184
856	-0.174
856	-0.165
857	-0.157
857	-0.148
857	-0.136
858	-0.123
858	-0.116
859	-0.104
859	-0.092
860	-0.084
860	-0.072
860	-0.063
861	-0.055
861	-0.047
862	-0.041
862	-0.035
863	-0.028
863	-0.021
863	-0.016
864	-0.012
864	-0.006
865	-0.001
865	0.004
866	0.008
866	0.013
866	0.017
867	0.021
867	0.026
868	0.028
868	0.031
869	0.035
869	0.037
869	0.038
870	0.04
870	0.041
871	0.041
871	0.041
872	0.041
872	0.041
872	0.042
873	0.043
873	0.045
874	0.046
874	0.047
875	0.048
875	0.049
875	0.05
876	0.051
876	0.052
877	0.053
877	0.054
878	0.055
878	0.055
878	0.055
879	0.055
879	0.054
880	0.053
880	0.052
881	0.05
881	0.05
881	0.048
882	0.047
882	0.046
883	0.044
883	0.043
884	0.042
884	0.041
884	0.041
885	0.04
885	0.039
886	0.038
886	0.038
887	0.037
887	0.036
887	0.036
888	0.036
888	0.035
889	0.035
889	0.033
890	0.033
890	0.032
890	0.032
891	0.031
891	0.03
892	0.029
892	0.029
893	0.027
893	0.026
893	0.026
894	0.026
894	0.026
895	0.026
895	0.026
895	0.026
896	0.026
896	0.027
897	0.027
897	0.027
898	0.028
898	0.028
898	0.029
899	0.029
899	0.03
900	0.03
900	0.03
901	0.03
901	0.031
901	0.031
902	0.031
902	0.031
903	0.031
903	0.031
904	0.03
904	0.03
904	0.029
905	0.029
905	0.028
906	0.027
906	0.027
907	0.026
907	0.026
907	0.026
908	0.026
908	0.026
909	0.026
909	0.027
910	0.028
910	0.029
910	0.03
911	0.03
911	0.031
912	0.032
912	0.033
913	0.033
913	0.034
913	0.034
914	0.034
914	0.034
915	0.034
915	0.034
916	0.034
916	0.034
916	0.034
917	0.034
917	0.033
918	0.034
918	0.034
918	0.035
919	0.035
919	0.036
920	0.037
920	0.037
921	0.038
921	0.039
921	0.04
922	0.04
922	0.04
923	0.04
923	0.04
924	0.039
924	0.039
924	0.038
925	0.037
925	0.037
926	0.036
926	0.036
927	0.035
927	0.034
927	0.034
928	0.033
928	0.033
929	0.033
929	0.032
930	0.031
930	0.03
930	0.029
931	0.028
931	0.027
932	0.025
932	0.024
933	0.022
933	0.02
933	0.019
934	0.017
934	0.016
935	0.014
935	0.013
935	0.011
936	0.01
936	0.01
937	0.01
937	0.01
938	0.01
938	0.01
938	0.01
939	0.01
939	0.01
940	0.011
940	0.011
941	0.011
941	0.011
941	0.012
942	0.011
942	0.011
943	0.011
943	0.01
944	0.01
944	0.009
944	0.009
945	0.009
945	0.009
946	0.01
946	0.009
946	0.01
947	0.01
947	0.011
948	0.012
948	0.012
949	0.012
949	0.013
949	0.014
950	0.014
950	0.014
951	0.014
951	0.014
952	0.014
952	0.013
952	0.013
953	0.012
953	0.012
954	0.012
954	0.012
955	0.012
955	0.012
955	0.012
956	0.013
956	0.013
957	0.014
957	0.014
957	0.015
958	0.014
958	0.015
959	0.015
959	0.015
960	0.016
960	0.016
960	0.017
961	0.017
961	0.018
962	0.02
962	0.021
963	0.022
963	0.023
963	0.023
964	0.023
964	0.024
965	0.024
965	0.023
966	0.023
966	0.022
966	0.022
967	0.021
967	0.02
968	0.019
968	0.018
968	0.017
969	0.015
969	0.014
970	0.013
970	0.012
971	0.011
971	0.01
971	0.009
972	0.008
972	0.008
973	0.007
973	0.007
974	0.007
974	0.007
974	0.006
975	0.006
975	0.006
976	0.005
976	0.005
976	0.004
977	0.004
977	0.003
978	0.003
978	0.002
979	0.002
979	0.001
979	0.001
980	0.001
980	0.001
981	0.001
981	0.001
982	0.002
982	0.002
982	0.003
983	0.004
983	0.004
984	0.005
984	0.006
984	0.007
985	0.008
985	0.008
986	0.008
986	0.008
987	0.008
987	0.008
987	0.008
988	0.008
988	0.008
989	0.008
989	0.008
990	0.008
990	0.008
990	0.008
991	0.009
991	0.009
992	0.009
992	0.009
992	0.009
993	0.009
993	0.009
994	0.008
994	0.008
995	0.007
995	0.007
995	0.006
996	0.006
996	0.006
997	0.005
997	0.005
997	0.005
998	0.005
998	0.005
999	0.006
999	0.005
1000	0.005
1000	0.004
1000	0.003
1001	0.003
1001	0.002
1002	0.001
1002	0.001
1003	-0
1003	-0.002
1003	-0.003
1004	-0.004
1004	-0.005
1005	-0.006
1005	-0.006
1005	-0.007
1006	-0.008
1006	-0.009
1007	-0.009
1007	-0.01
1008	-0.01
1008	-0.01
1008	-0.011
1009	-0.011
1009	-0.011
1010	-0.012
1010	-0.012
1010	-0.012
1011	-0.012
1011	-0.013
1012	-0.013
1012	-0.013
1013	-0.014
1013	-0.014
1013	-0.015
1014	-0.015
1014	-0.016
1015	-0.016
1015	-0.017
1016	-0.018
1016	-0.018
1016	-0.019
1017	-0.019
1017	-0.019
1018	-0.019
1018	-0.019
1018	-0.018
1019	-0.018
1019	-0.018
1020	-0.017
1020	-0.017
1021	-0.017
1021	-0.017
1021	-0.017
1022	-0.018
1022	-0.018
1023	-0.018
1023	-0.019
1023	-0.02
1024	-0.021
1024	-0.023
1025	-0.023
1025	-0.024
1026	-0.024
1026	-0.024
1026	-0.025
1027	-0.025
1027	-0.025
1028	-0.024
1028	-0.024
1028	-0.023
1029	-0.022
1029	-0.021
1030	-0.02
1030	-0.02
1031	-0.019
1031	-0.018
1031	-0.018
1032	-0.017
1032	-0.017
1033	-0.017
1033	-0.017
1033	-0.017
1034	-0.018
1034	-0.019
1035	-0.019
1035	-0.019
1036	-0.02
1036	-0.021
1036	-0.022
1037	-0.022
1037	-0.022
1038	-0.022
1038	-0.022
1039	-0.022
1039	-0.022
1039	-0.021
1040	-0.021
1040	-0.021
1041	-0.02
1041	-0.02
1041	-0.02
1042	-0.019
1042	-0.019
1043	-0.019
1043	-0.019
1044	-0.019
1044	-0.02
1044	-0.02
1045	-0.021
1045	-0.021
1046	-0.021
1046	-0.021
1046	-0.022
1047	-0.022
1047	-0.022
1048	-0.022
1048	-0.022
1049	-0.022
1049	-0.022
1049	-0.023
1050	-0.023
1050	-0.024
1051	-0.025
1051	-0.025
1051	-0.026
1052	-0.026
1052	-0.026
1053	-0.026
1053	-0.027
1053	-0.027
1054	-0.027
1054	-0.027
1055	-0.027
1055	-0.027
1056	-0.027
1056	-0.027
1056	-0.028
1057	-0.028
1057	-0.029
1058	-0.03
1058	-0.03
1058	-0.031
1059	-0.032
1059	-0.032
1060	-0.034
1060	-0.034
1061	-0.035
1061	-0.035
1061	-0.036
1062	-0.036
1062	-0.036
1063	-0.036
1063	-0.037
1063	-0.037
1064	-0.037
1064	-0.037
1065	-0.038
1065	-0.038
1066	-0.039
1066	-0.039
1066	-0.039
1067	-0.04
1067	-0.041
1068	-0.041
1068	-0.042
1068	-0.043
1069	-0.043
1069	-0.044
1070	-0.045
1070	-0.046
1071	-0.047
1071	-0.048
1071	-0.048
1072	-0.049
1072	-0.05
1073	-0.05
1073	-0.05
1073	-0.051
1074	-0.051
1074	-0.051
1075	-0.051
1075	-0.051
1076	-0.051
1076	-0.051
1076	-0.051
1077	-0.052
1077	-0.052
1078	-0.052
1078	-0.052
1078	-0.052
1079	-0.052
1079	-0.052
1080	-0.052
1080	-0.052
1080	-0.052
1081	-0.051
1081	-0.051
1082	-0.051
1082	-0.051
1083	-0.051
1083	-0.052
1083	-0.053
1084	-0.053
1084	-0.053
1085	-0.054
1085	-0.055
1085	-0.055
1086	-0.056
1086	-0.057
1087	-0.057
1087	-0.058
1088	-0.058
1088	-0.059
1088	-0.06
1089	-0.062
1089	-0.063
1090	-0.064
1090	-0.066
1090	-0.067
1091	-0.069
1091	-0.07
1092	-0.071
1092	-0.071
1092	-0.072
1093	-0.073
1093	-0.072
1094	-0.073
1094	-0.074
1095	-0.075
1095	-0.076
1095	-0.076
1096	-0.077
1096	-0.079
1097	-0.081
1097	-0.083
1097	-0.083
1098	-0.086
1098	-0.088
1099	-0.089
1099	-0.091
1100	-0.092
1100	-0.094
1100	-0.096
1101	-0.098
1101	-0.101
1102	-0.104
1102	-0.107
1102	-0.108
1103	-0.11
1103	-0.112
1104	-0.114
1104	-0.117
1104	-0.118
1105	-0.12
1105	-0.122
1106	-0.126
1106	-0.129
1107	-0.134
1107	-0.138
1107	-0.143
1108	-0.144
1108	-0.147
1109	-0.152
1109	-0.155
1109	-0.161
1110	-0.163
1110	-0.167
1111	-0.174
1111	-0.168
