Data from 40to5_hyst_3.5A_10sec_80mins_Absorbance__210__00832.txt Node

Date: Mon Jun 26 11:31:18 CEST 2023
User: Marek
Spectrometer: MAYP115816
Trigger mode: 0
Integration Time (sec): 2.500000E-1
Scans to average: 10
Electric dark correction enabled: true
Nonlinearity correction enabled: true
Boxcar width: 5
XAxis mode: Wavelengths
Number of Pixels in Spectrum: 2068
>>>>>Begin Spectral Data<<<<<
199	-0.779
199	-0.755
200	-0.721
200	-0.664
201	-0.625
201	-0.599
202	-0.582
202	-0.586
203	-0.577
203	-0.57
204	-0.554
204	-0.534
205	-0.52
205	-0.511
205	-0.514
206	-0.513
206	-0.526
207	-0.526
207	-0.523
208	-0.53
208	-0.534
209	-0.537
209	-0.549
210	-0.554
210	-0.555
211	-0.557
211	-0.566
212	-0.565
212	-0.569
213	-0.574
213	-0.572
213	-0.574
214	-0.575
214	-0.577
215	-0.572
215	-0.577
216	-0.575
216	-0.579
217	-0.576
217	-0.574
218	-0.574
218	-0.575
219	-0.575
219	-0.577
220	-0.578
220	-0.587
221	-0.596
221	-0.604
221	-0.602
222	-0.609
222	-0.606
223	-0.609
223	-0.607
224	-0.613
224	-0.607
225	-0.607
225	-0.608
226	-0.607
226	-0.605
227	-0.603
227	-0.61
228	-0.607
228	-0.609
229	-0.61
229	-0.604
229	-0.608
230	-0.609
230	-0.608
231	-0.596
231	-0.587
232	-0.586
232	-0.578
233	-0.589
233	-0.582
234	-0.59
234	-0.587
235	-0.587
235	-0.584
236	-0.585
236	-0.59
236	-0.598
237	-0.596
237	-0.594
238	-0.587
238	-0.594
239	-0.586
239	-0.59
240	-0.588
240	-0.59
241	-0.59
241	-0.594
242	-0.6
242	-0.606
243	-0.614
243	-0.621
243	-0.622
244	-0.623
244	-0.622
245	-0.636
245	-0.642
246	-0.65
246	-0.645
247	-0.65
247	-0.647
248	-0.641
248	-0.637
249	-0.639
249	-0.643
250	-0.651
250	-0.639
250	-0.633
251	-0.64
251	-0.648
252	-0.642
252	-0.643
253	-0.649
253	-0.659
254	-0.662
254	-0.663
255	-0.674
255	-0.68
256	-0.683
256	-0.679
257	-0.68
257	-0.68
258	-0.691
258	-0.688
258	-0.689
259	-0.687
259	-0.691
260	-0.686
260	-0.69
261	-0.693
261	-0.689
262	-0.691
262	-0.699
263	-0.693
263	-0.701
264	-0.706
264	-0.704
265	-0.702
265	-0.702
265	-0.702
266	-0.703
266	-0.71
267	-0.72
267	-0.716
268	-0.725
268	-0.714
269	-0.707
269	-0.716
270	-0.727
270	-0.727
271	-0.733
271	-0.742
272	-0.741
272	-0.725
272	-0.737
273	-0.734
273	-0.74
274	-0.736
274	-0.729
275	-0.724
275	-0.734
276	-0.73
276	-0.726
277	-0.72
277	-0.732
278	-0.734
278	-0.732
278	-0.747
279	-0.754
279	-0.755
280	-0.758
280	-0.755
281	-0.759
281	-0.778
282	-0.777
282	-0.776
283	-0.771
283	-0.781
284	-0.773
284	-0.772
285	-0.782
285	-0.766
285	-0.752
286	-0.751
286	-0.729
287	-0.733
287	-0.725
288	-0.708
288	-0.703
289	-0.692
289	-0.701
290	-0.697
290	-0.697
291	-0.702
291	-0.693
292	-0.693
292	-0.694
292	-0.703
293	-0.715
293	-0.71
294	-0.721
294	-0.706
295	-0.704
295	-0.705
296	-0.705
296	-0.709
297	-0.708
297	-0.7
298	-0.695
298	-0.693
298	-0.687
299	-0.674
299	-0.681
300	-0.679
300	-0.676
301	-0.67
301	-0.671
302	-0.676
302	-0.675
303	-0.662
303	-0.657
304	-0.657
304	-0.657
305	-0.651
305	-0.644
305	-0.653
306	-0.648
306	-0.646
307	-0.636
307	-0.637
308	-0.64
308	-0.638
309	-0.636
309	-0.635
310	-0.626
310	-0.623
311	-0.614
311	-0.613
311	-0.605
312	-0.591
312	-0.586
313	-0.577
313	-0.575
314	-0.576
314	-0.58
315	-0.58
315	-0.579
316	-0.575
316	-0.571
317	-0.565
317	-0.573
318	-0.568
318	-0.567
318	-0.551
319	-0.544
319	-0.527
320	-0.523
320	-0.525
321	-0.518
321	-0.514
322	-0.508
322	-0.505
323	-0.504
323	-0.502
324	-0.505
324	-0.493
324	-0.492
325	-0.476
325	-0.457
326	-0.45
326	-0.429
327	-0.417
327	-0.395
328	-0.368
328	-0.346
329	-0.323
329	-0.298
330	-0.269
330	-0.24
330	-0.211
331	-0.185
331	-0.158
332	-0.13
332	-0.106
333	-0.082
333	-0.056
334	-0.032
334	-0.013
335	0.008
335	0.023
336	0.042
336	0.059
336	0.072
337	0.085
337	0.099
338	0.111
338	0.118
339	0.129
339	0.138
340	0.146
340	0.154
341	0.16
341	0.166
342	0.172
342	0.177
342	0.181
343	0.184
343	0.189
344	0.193
344	0.196
345	0.199
345	0.202
346	0.204
346	0.207
347	0.209
347	0.211
348	0.214
348	0.216
348	0.217
349	0.219
349	0.22
350	0.222
350	0.223
351	0.224
351	0.225
352	0.226
352	0.227
353	0.228
353	0.229
354	0.23
354	0.231
354	0.232
355	0.233
355	0.234
356	0.235
356	0.235
357	0.236
357	0.236
358	0.237
358	0.237
359	0.238
359	0.238
360	0.239
360	0.24
360	0.24
361	0.24
361	0.241
362	0.242
362	0.242
363	0.243
363	0.244
364	0.244
364	0.244
365	0.245
365	0.246
366	0.246
366	0.246
366	0.247
367	0.247
367	0.247
368	0.247
368	0.247
369	0.247
369	0.247
370	0.247
370	0.247
371	0.247
371	0.248
372	0.248
372	0.248
372	0.248
373	0.248
373	0.248
374	0.249
374	0.249
375	0.249
375	0.249
376	0.249
376	0.249
377	0.25
377	0.25
378	0.25
378	0.25
378	0.25
379	0.25
379	0.25
380	0.25
380	0.25
381	0.25
381	0.25
382	0.25
382	0.25
383	0.25
383	0.25
383	0.25
384	0.25
384	0.25
385	0.25
385	0.25
386	0.25
386	0.25
387	0.25
387	0.251
388	0.251
388	0.251
389	0.251
389	0.251
389	0.251
390	0.251
390	0.251
391	0.25
391	0.25
392	0.25
392	0.25
393	0.25
393	0.25
394	0.25
394	0.25
394	0.25
395	0.249
395	0.249
396	0.249
396	0.249
397	0.249
397	0.249
398	0.249
398	0.249
399	0.249
399	0.249
400	0.249
400	0.249
400	0.249
401	0.248
401	0.248
402	0.248
402	0.248
403	0.248
403	0.248
404	0.247
404	0.247
405	0.247
405	0.247
405	0.247
406	0.247
406	0.247
407	0.247
407	0.247
408	0.247
408	0.247
409	0.247
409	0.247
410	0.247
410	0.247
411	0.247
411	0.247
411	0.246
412	0.246
412	0.246
413	0.246
413	0.245
414	0.245
414	0.245
415	0.245
415	0.244
416	0.244
416	0.244
416	0.244
417	0.244
417	0.244
418	0.244
418	0.244
419	0.244
419	0.244
420	0.244
420	0.244
421	0.244
421	0.244
421	0.244
422	0.244
422	0.244
423	0.244
423	0.244
424	0.244
424	0.244
425	0.244
425	0.243
426	0.243
426	0.243
427	0.243
427	0.243
427	0.242
428	0.242
428	0.242
429	0.242
429	0.241
430	0.241
430	0.241
431	0.241
431	0.241
432	0.241
432	0.241
432	0.241
433	0.24
433	0.24
434	0.24
434	0.241
435	0.241
435	0.24
436	0.24
436	0.24
437	0.239
437	0.239
437	0.238
438	0.238
438	0.238
439	0.238
439	0.237
440	0.237
440	0.237
441	0.237
441	0.237
442	0.237
442	0.237
442	0.238
443	0.238
443	0.238
444	0.238
444	0.238
445	0.238
445	0.238
446	0.237
446	0.237
447	0.237
447	0.237
447	0.237
448	0.236
448	0.236
449	0.236
449	0.235
450	0.235
450	0.235
451	0.235
451	0.235
452	0.235
452	0.235
452	0.235
453	0.235
453	0.235
454	0.235
454	0.235
455	0.235
455	0.235
456	0.235
456	0.235
457	0.235
457	0.234
458	0.234
458	0.234
458	0.234
459	0.234
459	0.234
460	0.234
460	0.233
461	0.233
461	0.233
462	0.233
462	0.234
463	0.234
463	0.234
463	0.234
464	0.233
464	0.233
465	0.233
465	0.233
466	0.233
466	0.233
467	0.233
467	0.233
467	0.233
468	0.232
468	0.232
469	0.232
469	0.232
470	0.232
470	0.232
471	0.232
471	0.232
472	0.232
472	0.232
472	0.232
473	0.232
473	0.232
474	0.232
474	0.232
475	0.232
475	0.232
476	0.232
476	0.233
477	0.233
477	0.233
477	0.234
478	0.234
478	0.234
479	0.234
479	0.235
480	0.235
480	0.236
481	0.236
481	0.236
482	0.236
482	0.236
482	0.237
483	0.237
483	0.238
484	0.238
484	0.238
485	0.238
485	0.238
486	0.239
486	0.239
487	0.239
487	0.24
487	0.241
488	0.241
488	0.241
489	0.241
489	0.242
490	0.243
490	0.244
491	0.244
491	0.245
492	0.246
492	0.246
492	0.246
493	0.247
493	0.248
494	0.249
494	0.25
495	0.251
495	0.251
496	0.252
496	0.253
496	0.254
497	0.255
497	0.256
498	0.257
498	0.257
499	0.258
499	0.259
500	0.26
500	0.261
501	0.262
501	0.263
501	0.264
502	0.265
502	0.266
503	0.268
503	0.269
504	0.27
504	0.271
505	0.272
505	0.273
506	0.275
506	0.276
506	0.277
507	0.279
507	0.28
508	0.281
508	0.282
509	0.283
509	0.285
510	0.286
510	0.287
511	0.288
511	0.29
511	0.291
512	0.292
512	0.294
513	0.295
513	0.296
514	0.298
514	0.299
515	0.3
515	0.301
515	0.302
516	0.303
516	0.305
517	0.306
517	0.306
518	0.307
518	0.308
519	0.31
519	0.311
520	0.312
520	0.313
520	0.314
521	0.315
521	0.316
522	0.317
522	0.319
523	0.32
523	0.322
524	0.323
524	0.324
524	0.325
525	0.326
525	0.327
526	0.328
526	0.329
527	0.33
527	0.331
528	0.332
528	0.333
529	0.334
529	0.335
529	0.336
530	0.337
530	0.338
531	0.339
531	0.34
532	0.341
532	0.342
533	0.343
533	0.344
533	0.345
534	0.346
534	0.347
535	0.348
535	0.349
536	0.35
536	0.351
537	0.352
537	0.354
538	0.355
538	0.356
538	0.357
539	0.358
539	0.36
540	0.36
540	0.361
541	0.362
541	0.363
542	0.364
542	0.365
542	0.366
543	0.367
543	0.368
544	0.369
544	0.37
545	0.371
545	0.372
546	0.373
546	0.374
547	0.374
547	0.374
547	0.375
548	0.375
548	0.376
549	0.377
549	0.377
550	0.377
550	0.378
551	0.378
551	0.379
551	0.379
552	0.38
552	0.38
553	0.381
553	0.381
554	0.382
554	0.382
555	0.382
555	0.383
556	0.383
556	0.384
556	0.384
557	0.385
557	0.386
558	0.386
558	0.387
559	0.387
559	0.388
560	0.389
560	0.389
560	0.389
561	0.39
561	0.391
562	0.391
562	0.391
563	0.391
563	0.391
564	0.392
564	0.392
564	0.393
565	0.393
565	0.394
566	0.394
566	0.395
567	0.396
567	0.397
568	0.398
568	0.398
568	0.399
569	0.4
569	0.4
570	0.4
570	0.4
571	0.401
571	0.401
572	0.401
572	0.401
573	0.401
573	0.401
573	0.4
574	0.4
574	0.401
575	0.401
575	0.402
576	0.402
576	0.401
577	0.401
577	0.401
577	0.401
578	0.402
578	0.402
579	0.403
579	0.404
580	0.402
580	0.402
581	0.401
581	0.402
581	0.402
582	0.403
582	0.403
583	0.404
583	0.404
584	0.402
584	0.401
585	0.403
585	0.404
585	0.404
586	0.404
586	0.403
587	0.403
587	0.402
588	0.402
588	0.402
589	0.402
589	0.403
590	0.403
590	0.402
590	0.403
591	0.404
591	0.404
592	0.404
592	0.403
593	0.403
593	0.403
594	0.402
594	0.402
594	0.402
595	0.402
595	0.401
596	0.4
596	0.401
597	0.401
597	0.401
598	0.401
598	0.401
598	0.401
599	0.401
599	0.4
600	0.4
600	0.399
601	0.399
601	0.399
602	0.398
602	0.397
602	0.397
603	0.396
603	0.396
604	0.396
604	0.396
605	0.396
605	0.396
606	0.394
606	0.393
606	0.392
607	0.391
607	0.39
608	0.389
608	0.387
609	0.387
609	0.386
610	0.385
610	0.385
610	0.385
611	0.385
611	0.385
612	0.385
612	0.385
613	0.386
613	0.386
614	0.385
614	0.384
614	0.383
615	0.382
615	0.381
616	0.381
616	0.379
617	0.378
617	0.376
618	0.375
618	0.373
618	0.372
619	0.37
619	0.369
620	0.369
620	0.368
621	0.367
621	0.366
622	0.365
622	0.364
622	0.362
623	0.361
623	0.36
624	0.36
624	0.358
625	0.356
625	0.354
626	0.352
626	0.35
626	0.348
627	0.346
627	0.344
628	0.342
628	0.34
629	0.338
629	0.336
630	0.333
630	0.33
630	0.327
631	0.324
631	0.321
632	0.317
632	0.313
633	0.31
633	0.306
634	0.302
634	0.298
634	0.295
635	0.291
635	0.287
636	0.283
636	0.278
637	0.274
637	0.268
638	0.263
638	0.257
638	0.251
639	0.244
639	0.237
640	0.23
640	0.223
641	0.216
641	0.209
642	0.202
642	0.196
642	0.189
643	0.182
643	0.175
644	0.167
644	0.159
645	0.151
645	0.143
646	0.135
646	0.125
646	0.116
647	0.106
647	0.096
648	0.086
648	0.076
649	0.066
649	0.056
650	0.047
650	0.038
650	0.028
651	0.015
651	-0
652	-0.019
652	-0.038
653	-0.055
653	-0.069
653	-0.066
654	-0.037
654	-0.022
655	-0.025
655	-0.03
656	-0.035
656	-0.043
657	-0.047
657	-0.052
657	-0.059
658	-0.067
658	-0.1
659	-0.205
659	-0.326
660	-0.377
660	-0.409
661	-0.44
661	-0.475
661	-0.511
662	-0.548
662	-0.585
663	-0.625
663	-0.672
664	-0.718
664	-0.773
665	-0.825
665	-0.877
665	-0.935
666	-0.994
666	-1.054
667	-1.117
667	-1.184
668	-1.252
668	-1.314
669	-1.384
669	-1.458
669	-1.538
670	-1.626
670	-1.731
671	-1.863
671	-2.066
672	-2.192
672	-2.309
672	-2.468
673	-2.616
673	-2.703
674	-2.772
674	-2.802
675	-2.818
675	-2.821
676	-2.815
676	-2.816
676	-2.89
677	-2.874
677	-2.675
678	-2.49
678	-2.325
679	-2.065
679	-1.855
680	-1.734
680	-1.636
680	-1.55
681	-1.491
681	-1.432
682	-1.388
682	-1.349
683	-1.307
683	-1.276
684	-1.238
684	-1.208
684	-1.172
685	-1.15
685	-1.128
686	-1.099
686	-1.07
687	-1.047
687	-1.034
687	-1.01
688	-0.991
688	-0.979
689	-0.961
689	-0.95
690	-0.939
690	-0.932
691	-0.925
691	-0.917
691	-0.901
692	-0.888
692	-0.887
693	-0.884
693	-0.881
694	-0.878
694	-0.874
695	-0.871
695	-0.855
695	-0.849
696	-0.851
696	-0.848
697	-0.844
697	-0.836
698	-0.823
698	-0.818
698	-0.82
699	-0.819
699	-0.816
700	-0.837
700	-0.833
701	-0.837
701	-0.85
702	-0.865
702	-0.874
702	-0.88
703	-0.881
703	-0.87
704	-0.868
704	-0.862
705	-0.858
705	-0.859
705	-0.84
706	-0.831
706	-0.815
707	-0.816
707	-0.819
708	-0.811
708	-0.815
709	-0.82
709	-0.822
709	-0.807
710	-0.815
710	-0.82
711	-0.815
711	-0.822
712	-0.807
712	-0.797
713	-0.805
713	-0.81
713	-0.801
714	-0.807
714	-0.823
715	-0.816
715	-0.831
716	-0.846
716	-0.839
716	-0.849
717	-0.864
717	-0.863
718	-0.857
718	-0.869
719	-0.87
719	-0.845
720	-0.848
720	-0.836
720	-0.834
721	-0.833
721	-0.834
722	-0.824
722	-0.823
723	-0.816
723	-0.808
723	-0.797
724	-0.808
724	-0.798
725	-0.797
725	-0.793
726	-0.799
726	-0.795
727	-0.798
727	-0.793
727	-0.796
728	-0.803
728	-0.806
729	-0.802
729	-0.818
730	-0.823
730	-0.821
730	-0.815
731	-0.809
731	-0.821
732	-0.824
732	-0.821
733	-0.819
733	-0.823
734	-0.82
734	-0.81
734	-0.79
735	-0.795
735	-0.798
736	-0.801
736	-0.783
737	-0.78
737	-0.776
737	-0.759
738	-0.756
738	-0.766
739	-0.77
739	-0.778
740	-0.781
740	-0.777
741	-0.773
741	-0.784
741	-0.783
742	-0.779
742	-0.804
743	-0.795
743	-0.793
744	-0.779
744	-0.777
744	-0.768
745	-0.774
745	-0.786
746	-0.779
746	-0.787
747	-0.793
747	-0.776
748	-0.781
748	-0.781
748	-0.795
749	-0.805
749	-0.804
750	-0.793
750	-0.788
751	-0.791
751	-0.776
751	-0.778
752	-0.787
752	-0.791
753	-0.789
753	-0.78
754	-0.78
754	-0.765
754	-0.777
755	-0.777
755	-0.785
756	-0.804
756	-0.793
757	-0.78
757	-0.775
758	-0.764
758	-0.763
758	-0.757
759	-0.776
759	-0.782
760	-0.775
760	-0.76
761	-0.758
761	-0.762
761	-0.781
762	-0.776
762	-0.789
763	-0.781
763	-0.79
764	-0.784
764	-0.774
764	-0.789
765	-0.802
765	-0.802
766	-0.8
766	-0.784
767	-0.799
767	-0.795
768	-0.804
768	-0.815
768	-0.806
769	-0.81
769	-0.797
770	-0.804
770	-0.795
771	-0.8
771	-0.805
771	-0.805
772	-0.819
772	-0.832
773	-0.818
773	-0.837
774	-0.832
774	-0.832
775	-0.817
775	-0.822
775	-0.824
776	-0.833
776	-0.829
777	-0.82
777	-0.817
778	-0.82
778	-0.812
778	-0.825
779	-0.842
779	-0.861
780	-0.87
780	-0.873
781	-0.883
781	-0.887
781	-0.902
782	-0.905
782	-0.907
783	-0.917
783	-0.922
784	-0.907
784	-0.889
784	-0.903
785	-0.904
785	-0.906
786	-0.909
786	-0.892
787	-0.876
787	-0.9
788	-0.894
788	-0.872
788	-0.866
789	-0.862
789	-0.849
790	-0.848
790	-0.838
791	-0.85
791	-0.861
791	-0.865
792	-0.841
792	-0.849
793	-0.861
793	-0.874
794	-0.877
794	-0.881
794	-0.874
795	-0.863
795	-0.841
796	-0.82
796	-0.831
797	-0.84
797	-0.823
797	-0.831
798	-0.826
798	-0.839
799	-0.826
799	-0.834
800	-0.838
800	-0.853
801	-0.868
801	-0.856
801	-0.841
802	-0.838
802	-0.815
803	-0.809
803	-0.798
804	-0.797
804	-0.796
804	-0.795
805	-0.787
805	-0.777
806	-0.772
806	-0.775
807	-0.777
807	-0.788
807	-0.79
808	-0.786
808	-0.784
809	-0.775
809	-0.764
810	-0.767
810	-0.756
810	-0.762
811	-0.753
811	-0.755
812	-0.755
812	-0.77
813	-0.767
813	-0.77
813	-0.766
814	-0.777
814	-0.761
815	-0.769
815	-0.779
816	-0.778
816	-0.783
817	-0.787
817	-0.767
817	-0.787
818	-0.791
818	-0.794
819	-0.794
819	-0.804
820	-0.792
820	-0.788
820	-0.801
821	-0.799
821	-0.798
822	-0.799
822	-0.794
823	-0.798
823	-0.799
823	-0.786
824	-0.793
824	-0.819
825	-0.812
825	-0.802
826	-0.786
826	-0.77
826	-0.766
827	-0.744
827	-0.729
828	-0.728
828	-0.722
829	-0.71
829	-0.692
829	-0.688
830	-0.686
830	-0.693
831	-0.691
831	-0.676
832	-0.678
832	-0.671
832	-0.657
833	-0.652
833	-0.643
834	-0.637
834	-0.631
835	-0.623
835	-0.613
835	-0.604
836	-0.609
836	-0.606
837	-0.602
837	-0.599
838	-0.598
838	-0.587
839	-0.58
839	-0.575
839	-0.568
840	-0.562
840	-0.559
841	-0.55
841	-0.537
842	-0.529
842	-0.514
842	-0.503
843	-0.501
843	-0.495
844	-0.484
844	-0.472
845	-0.455
845	-0.444
845	-0.428
846	-0.419
846	-0.404
847	-0.396
847	-0.383
848	-0.365
848	-0.351
848	-0.338
849	-0.323
849	-0.313
850	-0.301
850	-0.289
851	-0.278
851	-0.266
851	-0.255
852	-0.241
852	-0.23
853	-0.222
853	-0.214
854	-0.203
854	-0.193
854	-0.183
855	-0.173
855	-0.162
856	-0.152
856	-0.143
857	-0.135
857	-0.126
857	-0.111
858	-0.099
858	-0.092
859	-0.08
859	-0.067
860	-0.057
860	-0.045
860	-0.033
861	-0.024
861	-0.015
862	-0.008
862	-0.002
863	0.006
863	0.014
863	0.019
864	0.023
864	0.03
865	0.036
865	0.04
866	0.045
866	0.051
866	0.055
867	0.06
867	0.065
868	0.068
868	0.072
869	0.076
869	0.078
869	0.08
870	0.081
870	0.082
871	0.083
871	0.083
872	0.082
872	0.083
872	0.083
873	0.085
873	0.086
874	0.087
874	0.089
875	0.09
875	0.092
875	0.093
876	0.094
876	0.095
877	0.096
877	0.097
878	0.098
878	0.099
878	0.099
879	0.099
879	0.098
880	0.097
880	0.096
881	0.095
881	0.094
881	0.092
882	0.091
882	0.09
883	0.088
883	0.086
884	0.085
884	0.084
884	0.084
885	0.083
885	0.082
886	0.082
886	0.081
887	0.079
887	0.079
887	0.078
888	0.078
888	0.077
889	0.075
889	0.074
890	0.074
890	0.073
890	0.072
891	0.072
891	0.071
892	0.07
892	0.069
893	0.068
893	0.067
893	0.067
894	0.067
894	0.067
895	0.067
895	0.066
895	0.067
896	0.067
896	0.067
897	0.068
897	0.068
898	0.068
898	0.069
898	0.069
899	0.07
899	0.071
900	0.071
900	0.071
901	0.071
901	0.072
901	0.071
902	0.072
902	0.072
903	0.072
903	0.072
904	0.071
904	0.071
904	0.07
905	0.07
905	0.069
906	0.068
906	0.068
907	0.067
907	0.067
907	0.067
908	0.067
908	0.067
909	0.067
909	0.068
910	0.068
910	0.069
910	0.07
911	0.07
911	0.071
912	0.071
912	0.072
913	0.072
913	0.073
913	0.073
914	0.073
914	0.073
915	0.073
915	0.073
916	0.073
916	0.073
916	0.072
917	0.072
917	0.072
918	0.072
918	0.073
918	0.073
919	0.074
919	0.075
920	0.076
920	0.077
921	0.078
921	0.078
921	0.079
922	0.079
922	0.079
923	0.079
923	0.079
924	0.078
924	0.078
924	0.077
925	0.077
925	0.076
926	0.075
926	0.075
927	0.074
927	0.074
927	0.073
928	0.073
928	0.072
929	0.072
929	0.071
930	0.07
930	0.069
930	0.068
931	0.066
931	0.065
932	0.064
932	0.062
933	0.06
933	0.059
933	0.057
934	0.055
934	0.054
935	0.052
935	0.051
935	0.05
936	0.049
936	0.048
937	0.048
937	0.048
938	0.048
938	0.048
938	0.047
939	0.047
939	0.048
940	0.049
940	0.048
941	0.048
941	0.048
941	0.049
942	0.048
942	0.048
943	0.047
943	0.047
944	0.046
944	0.045
944	0.045
945	0.045
945	0.045
946	0.045
946	0.044
946	0.044
947	0.045
947	0.045
948	0.045
948	0.045
949	0.046
949	0.046
949	0.047
950	0.047
950	0.047
951	0.047
951	0.047
952	0.046
952	0.046
952	0.046
953	0.046
953	0.045
954	0.045
954	0.044
955	0.044
955	0.045
955	0.045
956	0.046
956	0.046
957	0.046
957	0.047
957	0.046
958	0.046
958	0.047
959	0.047
959	0.047
960	0.047
960	0.048
960	0.048
961	0.049
961	0.05
962	0.051
962	0.052
963	0.053
963	0.054
963	0.054
964	0.054
964	0.054
965	0.054
965	0.054
966	0.053
966	0.053
966	0.052
967	0.052
967	0.05
968	0.049
968	0.048
968	0.047
969	0.046
969	0.045
970	0.045
970	0.043
971	0.042
971	0.041
971	0.041
972	0.04
972	0.04
973	0.039
973	0.039
974	0.039
974	0.039
974	0.039
975	0.038
975	0.038
976	0.038
976	0.037
976	0.036
977	0.036
977	0.035
978	0.034
978	0.034
979	0.033
979	0.033
979	0.033
980	0.033
980	0.033
981	0.033
981	0.033
982	0.034
982	0.034
982	0.035
983	0.036
983	0.037
984	0.037
984	0.038
984	0.039
985	0.04
985	0.04
986	0.04
986	0.04
987	0.04
987	0.04
987	0.04
988	0.04
988	0.04
989	0.04
989	0.04
990	0.04
990	0.04
990	0.041
991	0.042
991	0.042
992	0.042
992	0.042
992	0.042
993	0.042
993	0.042
994	0.041
994	0.041
995	0.04
995	0.04
995	0.04
996	0.039
996	0.039
997	0.039
997	0.039
997	0.039
998	0.039
998	0.039
999	0.039
999	0.039
1000	0.038
1000	0.038
1000	0.037
1001	0.037
1001	0.036
1002	0.036
1002	0.035
1003	0.034
1003	0.032
1003	0.031
1004	0.03
1004	0.03
1005	0.029
1005	0.028
1005	0.027
1006	0.027
1006	0.026
1007	0.025
1007	0.025
1008	0.024
1008	0.024
1008	0.024
1009	0.023
1009	0.023
1010	0.023
1010	0.023
1010	0.023
1011	0.022
1011	0.022
1012	0.022
1012	0.022
1013	0.021
1013	0.021
1013	0.02
1014	0.02
1014	0.019
1015	0.019
1015	0.018
1016	0.017
1016	0.017
1016	0.017
1017	0.016
1017	0.016
1018	0.016
1018	0.016
1018	0.017
1019	0.017
1019	0.018
1020	0.018
1020	0.018
1021	0.019
1021	0.018
1021	0.018
1022	0.018
1022	0.018
1023	0.017
1023	0.016
1023	0.015
1024	0.014
1024	0.013
1025	0.012
1025	0.011
1026	0.011
1026	0.01
1026	0.01
1027	0.009
1027	0.009
1028	0.01
1028	0.01
1028	0.011
1029	0.011
1029	0.012
1030	0.013
1030	0.014
1031	0.014
1031	0.015
1031	0.016
1032	0.017
1032	0.017
1033	0.017
1033	0.017
1033	0.017
1034	0.016
1034	0.015
1035	0.015
1035	0.014
1036	0.013
1036	0.012
1036	0.012
1037	0.012
1037	0.011
1038	0.011
1038	0.011
1039	0.012
1039	0.012
1039	0.012
1040	0.012
1040	0.013
1041	0.013
1041	0.013
1041	0.013
1042	0.013
1042	0.013
1043	0.014
1043	0.013
1044	0.013
1044	0.013
1044	0.013
1045	0.012
1045	0.012
1046	0.011
1046	0.011
1046	0.011
1047	0.011
1047	0.011
1048	0.011
1048	0.011
1049	0.01
1049	0.01
1049	0.01
1050	0.009
1050	0.009
1051	0.008
1051	0.008
1051	0.008
1052	0.007
1052	0.007
1053	0.007
1053	0.007
1053	0.006
1054	0.006
1054	0.006
1055	0.006
1055	0.006
1056	0.005
1056	0.005
1056	0.004
1057	0.004
1057	0.003
1058	0.002
1058	0.002
1058	0.001
1059	0
1059	-0.001
1060	-0.002
1060	-0.002
1061	-0.003
1061	-0.003
1061	-0.004
1062	-0.005
1062	-0.005
1063	-0.005
1063	-0.005
1063	-0.006
1064	-0.006
1064	-0.006
1065	-0.006
1065	-0.007
1066	-0.008
1066	-0.008
1066	-0.008
1067	-0.009
1067	-0.01
1068	-0.011
1068	-0.012
1068	-0.012
1069	-0.013
1069	-0.014
1070	-0.015
1070	-0.016
1071	-0.017
1071	-0.018
1071	-0.018
1072	-0.019
1072	-0.019
1073	-0.02
1073	-0.02
1073	-0.02
1074	-0.02
1074	-0.02
1075	-0.02
1075	-0.02
1076	-0.02
1076	-0.02
1076	-0.02
1077	-0.021
1077	-0.021
1078	-0.022
1078	-0.022
1078	-0.022
1079	-0.022
1079	-0.022
1080	-0.022
1080	-0.021
1080	-0.022
1081	-0.022
1081	-0.022
1082	-0.021
1082	-0.022
1083	-0.022
1083	-0.023
1083	-0.023
1084	-0.024
1084	-0.025
1085	-0.025
1085	-0.026
1085	-0.026
1086	-0.027
1086	-0.029
1087	-0.029
1087	-0.029
1088	-0.03
1088	-0.031
1088	-0.032
1089	-0.034
1089	-0.036
1090	-0.037
1090	-0.038
1090	-0.04
1091	-0.041
1091	-0.042
1092	-0.044
1092	-0.044
1092	-0.045
1093	-0.046
1093	-0.045
1094	-0.045
1094	-0.046
1095	-0.048
1095	-0.049
1095	-0.049
1096	-0.05
1096	-0.052
1097	-0.054
1097	-0.055
1097	-0.057
1098	-0.06
1098	-0.062
1099	-0.063
1099	-0.065
1100	-0.066
1100	-0.069
1100	-0.071
1101	-0.073
1101	-0.076
1102	-0.079
1102	-0.081
1102	-0.083
1103	-0.085
1103	-0.087
1104	-0.09
1104	-0.093
1104	-0.094
1105	-0.096
1105	-0.099
1106	-0.103
1106	-0.106
1107	-0.112
1107	-0.115
1107	-0.12
1108	-0.122
1108	-0.125
1109	-0.127
1109	-0.132
1109	-0.137
1110	-0.139
1110	-0.144
1111	-0.148
1111	-0.141
