Data from 40to5_hyst_3.5A_10sec_80mins_Absorbance__387__01009.txt Node

Date: Mon Jun 26 12:00:50 CEST 2023
User: Marek
Spectrometer: MAYP115816
Trigger mode: 0
Integration Time (sec): 2.500000E-1
Scans to average: 10
Electric dark correction enabled: true
Nonlinearity correction enabled: true
Boxcar width: 5
XAxis mode: Wavelengths
Number of Pixels in Spectrum: 2068
>>>>>Begin Spectral Data<<<<<
199	-0.797
199	-0.774
200	-0.742
200	-0.682
201	-0.641
201	-0.614
202	-0.592
202	-0.595
203	-0.586
203	-0.577
204	-0.558
204	-0.539
205	-0.52
205	-0.51
205	-0.514
206	-0.513
206	-0.524
207	-0.523
207	-0.52
208	-0.529
208	-0.533
209	-0.536
209	-0.549
210	-0.557
210	-0.556
211	-0.558
211	-0.567
212	-0.566
212	-0.572
213	-0.576
213	-0.576
213	-0.577
214	-0.577
214	-0.578
215	-0.574
215	-0.581
216	-0.58
216	-0.585
217	-0.583
217	-0.581
218	-0.581
218	-0.58
219	-0.583
219	-0.585
220	-0.588
220	-0.594
221	-0.602
221	-0.61
221	-0.608
222	-0.612
222	-0.611
223	-0.613
223	-0.611
224	-0.616
224	-0.61
225	-0.609
225	-0.611
226	-0.611
226	-0.608
227	-0.608
227	-0.616
228	-0.612
228	-0.615
229	-0.617
229	-0.611
229	-0.617
230	-0.619
230	-0.616
231	-0.603
231	-0.592
232	-0.59
232	-0.582
233	-0.594
233	-0.587
234	-0.593
234	-0.59
235	-0.588
235	-0.585
236	-0.586
236	-0.592
236	-0.6
237	-0.598
237	-0.595
238	-0.588
238	-0.593
239	-0.585
239	-0.589
240	-0.589
240	-0.588
241	-0.587
241	-0.592
242	-0.597
242	-0.604
243	-0.61
243	-0.616
243	-0.618
244	-0.619
244	-0.619
245	-0.631
245	-0.638
246	-0.646
246	-0.642
247	-0.645
247	-0.642
248	-0.636
248	-0.634
249	-0.637
249	-0.643
250	-0.647
250	-0.637
250	-0.632
251	-0.636
251	-0.644
252	-0.638
252	-0.639
253	-0.645
253	-0.654
254	-0.655
254	-0.656
255	-0.667
255	-0.672
256	-0.673
256	-0.671
257	-0.671
257	-0.671
258	-0.681
258	-0.68
258	-0.679
259	-0.675
259	-0.681
260	-0.675
260	-0.677
261	-0.68
261	-0.676
262	-0.678
262	-0.687
263	-0.68
263	-0.687
264	-0.693
264	-0.694
265	-0.69
265	-0.691
265	-0.693
266	-0.692
266	-0.7
267	-0.71
267	-0.706
268	-0.714
268	-0.703
269	-0.696
269	-0.704
270	-0.714
270	-0.712
271	-0.721
271	-0.731
272	-0.731
272	-0.718
272	-0.726
273	-0.725
273	-0.732
274	-0.725
274	-0.719
275	-0.717
275	-0.727
276	-0.719
276	-0.713
277	-0.706
277	-0.716
278	-0.719
278	-0.717
278	-0.733
279	-0.741
279	-0.744
280	-0.745
280	-0.743
281	-0.749
281	-0.77
282	-0.768
282	-0.769
283	-0.764
283	-0.775
284	-0.763
284	-0.761
285	-0.772
285	-0.755
285	-0.742
286	-0.741
286	-0.718
287	-0.723
287	-0.712
288	-0.698
288	-0.69
289	-0.683
289	-0.694
290	-0.69
290	-0.69
291	-0.696
291	-0.687
292	-0.689
292	-0.691
292	-0.702
293	-0.712
293	-0.71
294	-0.72
294	-0.704
295	-0.701
295	-0.703
296	-0.704
296	-0.709
297	-0.708
297	-0.697
298	-0.693
298	-0.689
298	-0.684
299	-0.669
299	-0.675
300	-0.675
300	-0.67
301	-0.663
301	-0.665
302	-0.669
302	-0.668
303	-0.656
303	-0.65
304	-0.649
304	-0.649
305	-0.643
305	-0.636
305	-0.644
306	-0.639
306	-0.633
307	-0.623
307	-0.624
308	-0.624
308	-0.622
309	-0.621
309	-0.62
310	-0.609
310	-0.606
311	-0.596
311	-0.593
311	-0.588
312	-0.575
312	-0.569
313	-0.561
313	-0.561
314	-0.559
314	-0.564
315	-0.566
315	-0.562
316	-0.56
316	-0.559
317	-0.548
317	-0.553
318	-0.547
318	-0.549
318	-0.531
319	-0.526
319	-0.507
320	-0.502
320	-0.507
321	-0.497
321	-0.493
322	-0.491
322	-0.487
323	-0.485
323	-0.48
324	-0.484
324	-0.47
324	-0.468
325	-0.453
325	-0.43
326	-0.427
326	-0.404
327	-0.389
327	-0.367
328	-0.336
328	-0.313
329	-0.285
329	-0.258
330	-0.225
330	-0.191
330	-0.157
331	-0.121
331	-0.088
332	-0.053
332	-0.02
333	0.009
333	0.043
334	0.072
334	0.099
335	0.128
335	0.152
336	0.176
336	0.2
336	0.218
337	0.238
337	0.257
338	0.274
338	0.287
339	0.303
339	0.316
340	0.326
340	0.336
341	0.344
341	0.351
342	0.36
342	0.367
342	0.372
343	0.377
343	0.382
344	0.386
344	0.389
345	0.393
345	0.396
346	0.399
346	0.402
347	0.404
347	0.406
348	0.408
348	0.41
348	0.412
349	0.413
349	0.414
350	0.416
350	0.417
351	0.417
351	0.418
352	0.418
352	0.419
353	0.42
353	0.42
354	0.42
354	0.421
354	0.421
355	0.421
355	0.421
356	0.422
356	0.421
357	0.423
357	0.423
358	0.423
358	0.423
359	0.423
359	0.423
360	0.423
360	0.423
360	0.423
361	0.423
361	0.423
362	0.422
362	0.423
363	0.423
363	0.423
364	0.423
364	0.423
365	0.423
365	0.422
366	0.422
366	0.422
366	0.422
367	0.421
367	0.421
368	0.42
368	0.42
369	0.42
369	0.419
370	0.419
370	0.419
371	0.418
371	0.418
372	0.417
372	0.417
372	0.417
373	0.416
373	0.416
374	0.416
374	0.415
375	0.415
375	0.414
376	0.414
376	0.413
377	0.413
377	0.413
378	0.412
378	0.412
378	0.411
379	0.411
379	0.411
380	0.41
380	0.41
381	0.409
381	0.409
382	0.408
382	0.408
383	0.408
383	0.407
383	0.406
384	0.406
384	0.405
385	0.405
385	0.404
386	0.404
386	0.404
387	0.403
387	0.403
388	0.402
388	0.402
389	0.401
389	0.401
389	0.4
390	0.4
390	0.4
391	0.399
391	0.399
392	0.398
392	0.398
393	0.397
393	0.397
394	0.396
394	0.396
394	0.395
395	0.395
395	0.394
396	0.393
396	0.393
397	0.393
397	0.392
398	0.392
398	0.391
399	0.391
399	0.39
400	0.39
400	0.39
400	0.389
401	0.389
401	0.388
402	0.388
402	0.387
403	0.387
403	0.386
404	0.386
404	0.385
405	0.385
405	0.385
405	0.384
406	0.384
406	0.383
407	0.383
407	0.383
408	0.382
408	0.382
409	0.382
409	0.381
410	0.381
410	0.381
411	0.381
411	0.38
411	0.38
412	0.379
412	0.379
413	0.378
413	0.378
414	0.377
414	0.377
415	0.376
415	0.375
416	0.375
416	0.375
416	0.375
417	0.374
417	0.374
418	0.374
418	0.374
419	0.374
419	0.374
420	0.374
420	0.374
421	0.374
421	0.374
421	0.374
422	0.373
422	0.373
423	0.373
423	0.373
424	0.372
424	0.372
425	0.372
425	0.372
426	0.372
426	0.372
427	0.371
427	0.371
427	0.371
428	0.371
428	0.37
429	0.37
429	0.37
430	0.369
430	0.369
431	0.369
431	0.369
432	0.369
432	0.369
432	0.368
433	0.368
433	0.368
434	0.368
434	0.369
435	0.369
435	0.368
436	0.368
436	0.368
437	0.368
437	0.367
437	0.367
438	0.367
438	0.367
439	0.367
439	0.367
440	0.367
440	0.367
441	0.367
441	0.367
442	0.367
442	0.367
442	0.367
443	0.368
443	0.368
444	0.368
444	0.368
445	0.369
445	0.369
446	0.369
446	0.369
447	0.368
447	0.368
447	0.368
448	0.368
448	0.368
449	0.368
449	0.368
450	0.368
450	0.368
451	0.368
451	0.369
452	0.369
452	0.369
452	0.37
453	0.37
453	0.371
454	0.371
454	0.371
455	0.372
455	0.372
456	0.372
456	0.373
457	0.373
457	0.373
458	0.374
458	0.374
458	0.374
459	0.375
459	0.375
460	0.375
460	0.375
461	0.376
461	0.377
462	0.377
462	0.378
463	0.378
463	0.379
463	0.38
464	0.38
464	0.381
465	0.382
465	0.383
466	0.383
466	0.384
467	0.384
467	0.385
467	0.385
468	0.386
468	0.387
469	0.388
469	0.389
470	0.39
470	0.391
471	0.391
471	0.392
472	0.393
472	0.394
472	0.395
473	0.396
473	0.397
474	0.398
474	0.4
475	0.401
475	0.402
476	0.404
476	0.405
477	0.407
477	0.408
477	0.41
478	0.411
478	0.413
479	0.415
479	0.416
480	0.418
480	0.42
481	0.422
481	0.424
482	0.425
482	0.427
482	0.429
483	0.432
483	0.434
484	0.436
484	0.438
485	0.44
485	0.442
486	0.444
486	0.446
487	0.448
487	0.451
487	0.453
488	0.455
488	0.457
489	0.46
489	0.464
490	0.467
490	0.47
491	0.473
491	0.475
492	0.478
492	0.481
492	0.484
493	0.487
493	0.49
494	0.494
494	0.498
495	0.501
495	0.504
496	0.508
496	0.511
496	0.515
497	0.519
497	0.523
498	0.526
498	0.529
499	0.533
499	0.537
500	0.542
500	0.546
501	0.55
501	0.554
501	0.557
502	0.562
502	0.566
503	0.57
503	0.574
504	0.578
504	0.581
505	0.585
505	0.59
506	0.594
506	0.598
506	0.603
507	0.607
507	0.611
508	0.616
508	0.62
509	0.624
509	0.629
510	0.634
510	0.638
511	0.642
511	0.646
511	0.649
512	0.654
512	0.657
513	0.661
513	0.665
514	0.669
514	0.672
515	0.676
515	0.678
515	0.682
516	0.685
516	0.689
517	0.692
517	0.694
518	0.697
518	0.699
519	0.701
519	0.703
520	0.705
520	0.708
520	0.71
521	0.711
521	0.712
522	0.713
522	0.716
523	0.718
523	0.719
524	0.72
524	0.721
524	0.722
525	0.723
525	0.723
526	0.724
526	0.724
527	0.725
527	0.724
528	0.724
528	0.723
529	0.722
529	0.721
529	0.72
530	0.719
530	0.718
531	0.716
531	0.715
532	0.713
532	0.711
533	0.709
533	0.706
533	0.704
534	0.701
534	0.699
535	0.696
535	0.693
536	0.69
536	0.686
537	0.683
537	0.679
538	0.676
538	0.672
538	0.668
539	0.665
539	0.661
540	0.657
540	0.653
541	0.648
541	0.643
542	0.638
542	0.633
542	0.629
543	0.624
543	0.619
544	0.613
544	0.608
545	0.603
545	0.597
546	0.592
546	0.586
547	0.579
547	0.573
547	0.568
548	0.562
548	0.557
549	0.551
549	0.545
550	0.539
550	0.533
551	0.526
551	0.52
551	0.514
552	0.508
552	0.502
553	0.496
553	0.49
554	0.484
554	0.478
555	0.472
555	0.466
556	0.461
556	0.455
556	0.449
557	0.444
557	0.438
558	0.432
558	0.426
559	0.419
559	0.413
560	0.407
560	0.401
560	0.396
561	0.39
561	0.385
562	0.38
562	0.375
563	0.369
563	0.364
564	0.358
564	0.353
564	0.348
565	0.343
565	0.338
566	0.333
566	0.328
567	0.323
567	0.318
568	0.313
568	0.308
568	0.304
569	0.3
569	0.296
570	0.291
570	0.287
571	0.283
571	0.279
572	0.275
572	0.271
573	0.267
573	0.262
573	0.258
574	0.254
574	0.25
575	0.246
575	0.243
576	0.239
576	0.234
577	0.23
577	0.226
577	0.223
578	0.22
578	0.217
579	0.215
579	0.212
580	0.206
580	0.202
581	0.198
581	0.195
581	0.193
582	0.19
582	0.188
583	0.186
583	0.183
584	0.178
584	0.174
585	0.173
585	0.171
585	0.168
586	0.166
586	0.163
587	0.16
587	0.158
588	0.154
588	0.152
589	0.15
589	0.148
590	0.146
590	0.144
590	0.143
591	0.141
591	0.138
592	0.136
592	0.133
593	0.132
593	0.13
594	0.128
594	0.125
594	0.124
595	0.122
595	0.119
596	0.116
596	0.115
597	0.114
597	0.113
598	0.111
598	0.109
598	0.108
599	0.107
599	0.105
600	0.103
600	0.102
601	0.101
601	0.1
602	0.098
602	0.096
602	0.094
603	0.093
603	0.092
604	0.091
604	0.089
605	0.088
605	0.087
606	0.085
606	0.082
606	0.08
607	0.079
607	0.077
608	0.076
608	0.074
609	0.072
609	0.071
610	0.07
610	0.068
610	0.068
611	0.067
611	0.067
612	0.067
612	0.067
613	0.066
613	0.066
614	0.065
614	0.063
614	0.062
615	0.061
615	0.06
616	0.059
616	0.057
617	0.056
617	0.054
618	0.053
618	0.051
618	0.05
619	0.049
619	0.048
620	0.048
620	0.047
621	0.046
621	0.045
622	0.045
622	0.044
622	0.043
623	0.042
623	0.042
624	0.041
624	0.04
625	0.038
625	0.037
626	0.036
626	0.035
626	0.034
627	0.034
627	0.033
628	0.032
628	0.032
629	0.031
629	0.031
630	0.031
630	0.03
630	0.03
631	0.029
631	0.029
632	0.028
632	0.027
633	0.027
633	0.026
634	0.026
634	0.026
634	0.026
635	0.026
635	0.026
636	0.026
636	0.025
637	0.025
637	0.024
638	0.023
638	0.022
638	0.02
639	0.018
639	0.017
640	0.015
640	0.014
641	0.013
641	0.012
642	0.011
642	0.01
642	0.009
643	0.008
643	0.007
644	0.006
644	0.004
645	0.003
645	0.001
646	-0.002
646	-0.004
646	-0.007
647	-0.011
647	-0.014
648	-0.017
648	-0.021
649	-0.023
649	-0.026
650	-0.029
650	-0.031
650	-0.035
651	-0.04
651	-0.044
652	-0.051
652	-0.057
653	-0.062
653	-0.067
653	-0.064
654	-0.058
654	-0.06
655	-0.064
655	-0.067
656	-0.07
656	-0.074
657	-0.077
657	-0.079
657	-0.084
658	-0.088
658	-0.106
659	-0.151
659	-0.197
660	-0.222
660	-0.239
661	-0.256
661	-0.275
661	-0.294
662	-0.314
662	-0.329
663	-0.344
663	-0.365
664	-0.382
664	-0.407
665	-0.424
665	-0.441
665	-0.462
666	-0.484
666	-0.503
667	-0.524
667	-0.55
668	-0.578
668	-0.606
669	-0.641
669	-0.677
669	-0.721
670	-0.773
670	-0.852
671	-1.021
671	-1.361
672	-1.701
672	-2.013
672	-2.258
673	-2.44
673	-2.485
674	-2.499
674	-2.507
675	-2.518
675	-2.522
676	-2.522
676	-2.541
676	-2.611
677	-2.51
677	-2.147
678	-1.563
678	-1.084
679	-0.927
679	-0.875
680	-0.839
680	-0.805
680	-0.778
681	-0.774
681	-0.76
682	-0.758
682	-0.751
683	-0.74
683	-0.747
684	-0.741
684	-0.74
684	-0.73
685	-0.737
685	-0.739
686	-0.73
686	-0.722
687	-0.718
687	-0.725
687	-0.718
688	-0.714
688	-0.717
689	-0.712
689	-0.711
690	-0.707
690	-0.711
691	-0.714
691	-0.716
691	-0.711
692	-0.707
692	-0.716
693	-0.72
693	-0.726
694	-0.726
694	-0.726
695	-0.731
695	-0.721
695	-0.72
696	-0.726
696	-0.723
697	-0.725
697	-0.721
698	-0.711
698	-0.705
698	-0.715
699	-0.716
699	-0.714
700	-0.735
700	-0.733
701	-0.738
701	-0.754
702	-0.769
702	-0.778
702	-0.786
703	-0.79
703	-0.779
704	-0.781
704	-0.777
705	-0.777
705	-0.78
705	-0.764
706	-0.758
706	-0.746
707	-0.75
707	-0.754
708	-0.746
708	-0.752
709	-0.757
709	-0.763
709	-0.748
710	-0.757
710	-0.762
711	-0.756
711	-0.763
712	-0.747
712	-0.74
713	-0.751
713	-0.756
713	-0.747
714	-0.753
714	-0.769
715	-0.762
715	-0.779
716	-0.795
716	-0.791
716	-0.801
717	-0.814
717	-0.811
718	-0.806
718	-0.817
719	-0.821
719	-0.797
720	-0.803
720	-0.79
720	-0.79
721	-0.787
721	-0.79
722	-0.783
722	-0.782
723	-0.78
723	-0.773
723	-0.76
724	-0.771
724	-0.762
725	-0.762
725	-0.759
726	-0.767
726	-0.765
727	-0.768
727	-0.764
727	-0.767
728	-0.775
728	-0.778
729	-0.775
729	-0.789
730	-0.797
730	-0.795
730	-0.789
731	-0.782
731	-0.793
732	-0.794
732	-0.79
733	-0.79
733	-0.797
734	-0.793
734	-0.785
734	-0.764
735	-0.771
735	-0.775
736	-0.778
736	-0.761
737	-0.759
737	-0.759
737	-0.743
738	-0.742
738	-0.75
739	-0.753
739	-0.76
740	-0.763
740	-0.756
741	-0.753
741	-0.767
741	-0.767
742	-0.76
742	-0.79
743	-0.779
743	-0.777
744	-0.764
744	-0.762
744	-0.753
745	-0.76
745	-0.771
746	-0.765
746	-0.774
747	-0.78
747	-0.756
748	-0.762
748	-0.766
748	-0.78
749	-0.792
749	-0.793
750	-0.78
750	-0.775
751	-0.778
751	-0.762
751	-0.766
752	-0.776
752	-0.779
753	-0.777
753	-0.769
754	-0.77
754	-0.753
754	-0.767
755	-0.77
755	-0.779
756	-0.796
756	-0.785
757	-0.772
757	-0.77
758	-0.759
758	-0.759
758	-0.754
759	-0.772
759	-0.777
760	-0.77
760	-0.754
761	-0.752
761	-0.76
761	-0.778
762	-0.77
762	-0.78
763	-0.769
763	-0.777
764	-0.772
764	-0.763
764	-0.779
765	-0.793
765	-0.792
766	-0.789
766	-0.773
767	-0.787
767	-0.782
768	-0.792
768	-0.799
768	-0.788
769	-0.793
769	-0.779
770	-0.783
770	-0.774
771	-0.779
771	-0.783
771	-0.786
772	-0.802
772	-0.814
773	-0.803
773	-0.824
774	-0.819
774	-0.82
775	-0.809
775	-0.815
775	-0.814
776	-0.82
776	-0.816
777	-0.809
777	-0.806
778	-0.81
778	-0.8
778	-0.813
779	-0.83
779	-0.843
780	-0.851
780	-0.856
781	-0.866
781	-0.868
781	-0.879
782	-0.882
782	-0.882
783	-0.896
783	-0.9
784	-0.883
784	-0.868
784	-0.885
785	-0.886
785	-0.888
786	-0.893
786	-0.88
787	-0.865
787	-0.891
788	-0.886
788	-0.867
788	-0.864
789	-0.861
789	-0.848
790	-0.849
790	-0.84
791	-0.852
791	-0.863
791	-0.867
792	-0.844
792	-0.851
793	-0.859
793	-0.87
794	-0.874
794	-0.879
794	-0.871
795	-0.861
795	-0.841
796	-0.819
796	-0.83
797	-0.836
797	-0.82
797	-0.829
798	-0.825
798	-0.838
799	-0.824
799	-0.832
800	-0.838
800	-0.851
801	-0.871
801	-0.857
801	-0.843
802	-0.842
802	-0.82
803	-0.815
803	-0.802
804	-0.803
804	-0.802
804	-0.8
805	-0.793
805	-0.782
806	-0.779
806	-0.785
807	-0.786
807	-0.796
807	-0.798
808	-0.796
808	-0.795
809	-0.785
809	-0.774
810	-0.778
810	-0.766
810	-0.769
811	-0.76
811	-0.763
812	-0.764
812	-0.781
813	-0.778
813	-0.78
813	-0.778
814	-0.788
814	-0.774
815	-0.783
815	-0.793
816	-0.791
816	-0.794
817	-0.798
817	-0.777
817	-0.795
818	-0.799
818	-0.8
819	-0.802
819	-0.812
820	-0.799
820	-0.797
820	-0.811
821	-0.811
821	-0.809
822	-0.81
822	-0.807
823	-0.813
823	-0.814
823	-0.799
824	-0.807
824	-0.831
825	-0.826
825	-0.815
826	-0.797
826	-0.783
826	-0.78
827	-0.76
827	-0.743
828	-0.744
828	-0.739
829	-0.727
829	-0.711
829	-0.707
830	-0.705
830	-0.712
831	-0.708
831	-0.691
832	-0.693
832	-0.687
832	-0.674
833	-0.669
833	-0.66
834	-0.654
834	-0.649
835	-0.643
835	-0.634
835	-0.627
836	-0.633
836	-0.63
837	-0.626
837	-0.621
838	-0.62
838	-0.611
839	-0.605
839	-0.6
839	-0.592
840	-0.586
840	-0.581
841	-0.574
841	-0.561
842	-0.556
842	-0.546
842	-0.536
843	-0.533
843	-0.527
844	-0.516
844	-0.506
845	-0.494
845	-0.488
845	-0.473
846	-0.464
846	-0.448
847	-0.441
847	-0.43
848	-0.415
848	-0.403
848	-0.391
849	-0.379
849	-0.368
850	-0.356
850	-0.347
851	-0.34
851	-0.33
851	-0.32
852	-0.308
852	-0.298
853	-0.291
853	-0.284
854	-0.275
854	-0.266
854	-0.257
855	-0.248
855	-0.237
856	-0.231
856	-0.224
857	-0.218
857	-0.211
857	-0.201
858	-0.192
858	-0.187
859	-0.177
859	-0.168
860	-0.163
860	-0.154
860	-0.146
861	-0.139
861	-0.132
862	-0.125
862	-0.12
863	-0.115
863	-0.108
863	-0.104
864	-0.101
864	-0.096
865	-0.092
865	-0.089
866	-0.084
866	-0.081
866	-0.077
867	-0.074
867	-0.07
868	-0.068
868	-0.065
869	-0.062
869	-0.06
869	-0.059
870	-0.057
870	-0.056
871	-0.054
871	-0.053
872	-0.053
872	-0.052
872	-0.051
873	-0.05
873	-0.05
874	-0.049
874	-0.049
875	-0.049
875	-0.049
875	-0.049
876	-0.049
876	-0.049
877	-0.049
877	-0.049
878	-0.05
878	-0.051
878	-0.051
879	-0.052
879	-0.053
880	-0.054
880	-0.055
881	-0.056
881	-0.057
881	-0.057
882	-0.058
882	-0.059
883	-0.06
883	-0.061
884	-0.062
884	-0.063
884	-0.063
885	-0.064
885	-0.064
886	-0.065
886	-0.065
887	-0.066
887	-0.067
887	-0.067
888	-0.067
888	-0.067
889	-0.068
889	-0.068
890	-0.069
890	-0.069
890	-0.07
891	-0.07
891	-0.07
892	-0.071
892	-0.071
893	-0.072
893	-0.072
893	-0.072
894	-0.072
894	-0.072
895	-0.072
895	-0.071
895	-0.07
896	-0.069
896	-0.069
897	-0.068
897	-0.067
898	-0.066
898	-0.065
898	-0.064
899	-0.063
899	-0.062
900	-0.062
900	-0.062
901	-0.061
901	-0.061
901	-0.06
902	-0.06
902	-0.06
903	-0.06
903	-0.06
904	-0.06
904	-0.06
904	-0.06
905	-0.06
905	-0.061
906	-0.061
906	-0.061
907	-0.061
907	-0.06
907	-0.06
908	-0.06
908	-0.059
909	-0.059
909	-0.058
910	-0.057
910	-0.057
910	-0.056
911	-0.056
911	-0.055
912	-0.055
912	-0.054
913	-0.054
913	-0.053
913	-0.053
914	-0.052
914	-0.052
915	-0.051
915	-0.051
916	-0.05
916	-0.05
916	-0.05
917	-0.049
917	-0.049
918	-0.049
918	-0.048
918	-0.048
919	-0.047
919	-0.047
920	-0.046
920	-0.045
921	-0.044
921	-0.044
921	-0.043
922	-0.043
922	-0.042
923	-0.042
923	-0.043
924	-0.043
924	-0.043
924	-0.044
925	-0.044
925	-0.045
926	-0.045
926	-0.046
927	-0.046
927	-0.047
927	-0.047
928	-0.047
928	-0.047
929	-0.047
929	-0.048
930	-0.049
930	-0.05
930	-0.05
931	-0.051
931	-0.052
932	-0.053
932	-0.055
933	-0.056
933	-0.057
933	-0.058
934	-0.06
934	-0.06
935	-0.061
935	-0.063
935	-0.064
936	-0.064
936	-0.065
937	-0.065
937	-0.065
938	-0.065
938	-0.065
938	-0.064
939	-0.064
939	-0.064
940	-0.063
940	-0.062
941	-0.062
941	-0.061
941	-0.061
942	-0.061
942	-0.061
943	-0.061
943	-0.061
944	-0.061
944	-0.061
944	-0.061
945	-0.06
945	-0.06
946	-0.059
946	-0.059
946	-0.058
947	-0.057
947	-0.056
948	-0.055
948	-0.053
949	-0.052
949	-0.052
949	-0.051
950	-0.05
950	-0.05
951	-0.049
951	-0.049
952	-0.049
952	-0.048
952	-0.048
953	-0.048
953	-0.047
954	-0.047
954	-0.047
955	-0.046
955	-0.045
955	-0.045
956	-0.043
956	-0.042
957	-0.041
957	-0.04
957	-0.04
958	-0.039
958	-0.038
959	-0.038
959	-0.037
960	-0.036
960	-0.035
960	-0.034
961	-0.033
961	-0.032
962	-0.031
962	-0.03
963	-0.03
963	-0.029
963	-0.03
964	-0.03
964	-0.03
965	-0.03
965	-0.031
966	-0.032
966	-0.033
966	-0.034
967	-0.035
967	-0.036
968	-0.037
968	-0.038
968	-0.039
969	-0.04
969	-0.042
970	-0.043
970	-0.044
971	-0.044
971	-0.045
971	-0.046
972	-0.046
972	-0.046
973	-0.047
973	-0.047
974	-0.047
974	-0.047
974	-0.047
975	-0.048
975	-0.048
976	-0.049
976	-0.049
976	-0.05
977	-0.051
977	-0.052
978	-0.052
978	-0.053
979	-0.054
979	-0.054
979	-0.054
980	-0.054
980	-0.054
981	-0.054
981	-0.054
982	-0.054
982	-0.053
982	-0.053
983	-0.052
983	-0.052
984	-0.051
984	-0.051
984	-0.051
985	-0.051
985	-0.051
986	-0.051
986	-0.051
987	-0.052
987	-0.052
987	-0.052
988	-0.052
988	-0.052
989	-0.053
989	-0.053
990	-0.053
990	-0.053
990	-0.052
991	-0.052
991	-0.052
992	-0.052
992	-0.053
992	-0.053
993	-0.054
993	-0.054
994	-0.055
994	-0.056
995	-0.056
995	-0.057
995	-0.058
996	-0.058
996	-0.059
997	-0.06
997	-0.06
997	-0.06
998	-0.06
998	-0.06
999	-0.06
999	-0.061
1000	-0.061
1000	-0.061
1000	-0.062
1001	-0.062
1001	-0.062
1002	-0.063
1002	-0.063
1003	-0.064
1003	-0.065
1003	-0.066
1004	-0.067
1004	-0.068
1005	-0.069
1005	-0.069
1005	-0.07
1006	-0.071
1006	-0.072
1007	-0.073
1007	-0.074
1008	-0.074
1008	-0.074
1008	-0.075
1009	-0.075
1009	-0.076
1010	-0.076
1010	-0.076
1010	-0.076
1011	-0.076
1011	-0.076
1012	-0.076
1012	-0.076
1013	-0.076
1013	-0.076
1013	-0.077
1014	-0.078
1014	-0.078
1015	-0.079
1015	-0.08
1016	-0.08
1016	-0.08
1016	-0.081
1017	-0.082
1017	-0.082
1018	-0.082
1018	-0.081
1018	-0.081
1019	-0.081
1019	-0.08
1020	-0.08
1020	-0.08
1021	-0.08
1021	-0.08
1021	-0.079
1022	-0.08
1022	-0.08
1023	-0.08
1023	-0.081
1023	-0.081
1024	-0.082
1024	-0.083
1025	-0.084
1025	-0.085
1026	-0.085
1026	-0.086
1026	-0.086
1027	-0.087
1027	-0.086
1028	-0.086
1028	-0.086
1028	-0.085
1029	-0.085
1029	-0.084
1030	-0.083
1030	-0.083
1031	-0.082
1031	-0.081
1031	-0.081
1032	-0.08
1032	-0.08
1033	-0.08
1033	-0.08
1033	-0.08
1034	-0.08
1034	-0.081
1035	-0.081
1035	-0.081
1036	-0.081
1036	-0.081
1036	-0.082
1037	-0.081
1037	-0.081
1038	-0.081
1038	-0.081
1039	-0.08
1039	-0.08
1039	-0.079
1040	-0.079
1040	-0.078
1041	-0.078
1041	-0.078
1041	-0.077
1042	-0.077
1042	-0.076
1043	-0.076
1043	-0.076
1044	-0.076
1044	-0.076
1044	-0.076
1045	-0.076
1045	-0.076
1046	-0.076
1046	-0.077
1046	-0.076
1047	-0.076
1047	-0.076
1048	-0.076
1048	-0.076
1049	-0.076
1049	-0.076
1049	-0.076
1050	-0.077
1050	-0.077
1051	-0.078
1051	-0.078
1051	-0.079
1052	-0.079
1052	-0.079
1053	-0.079
1053	-0.079
1053	-0.079
1054	-0.079
1054	-0.079
1055	-0.079
1055	-0.079
1056	-0.079
1056	-0.079
1056	-0.08
1057	-0.08
1057	-0.081
1058	-0.082
1058	-0.082
1058	-0.083
1059	-0.083
1059	-0.084
1060	-0.084
1060	-0.085
1061	-0.085
1061	-0.085
1061	-0.086
1062	-0.086
1062	-0.086
1063	-0.086
1063	-0.087
1063	-0.087
1064	-0.088
1064	-0.088
1065	-0.088
1065	-0.089
1066	-0.089
1066	-0.09
1066	-0.09
1067	-0.091
1067	-0.091
1068	-0.091
1068	-0.092
1068	-0.092
1069	-0.093
1069	-0.093
1070	-0.094
1070	-0.094
1071	-0.095
1071	-0.096
1071	-0.097
1072	-0.097
1072	-0.098
1073	-0.098
1073	-0.098
1073	-0.098
1074	-0.098
1074	-0.098
1075	-0.098
1075	-0.098
1076	-0.099
1076	-0.098
1076	-0.099
1077	-0.099
1077	-0.099
1078	-0.1
1078	-0.1
1078	-0.099
1079	-0.099
1079	-0.099
1080	-0.099
1080	-0.099
1080	-0.099
1081	-0.099
1081	-0.098
1082	-0.098
1082	-0.099
1083	-0.098
1083	-0.099
1083	-0.099
1084	-0.1
1084	-0.1
1085	-0.1
1085	-0.101
1085	-0.101
1086	-0.102
1086	-0.103
1087	-0.103
1087	-0.103
1088	-0.103
1088	-0.104
1088	-0.105
1089	-0.106
1089	-0.107
1090	-0.109
1090	-0.11
1090	-0.111
1091	-0.112
1091	-0.113
1092	-0.114
1092	-0.114
1092	-0.114
1093	-0.115
1093	-0.115
1094	-0.116
1094	-0.116
1095	-0.118
1095	-0.118
1095	-0.119
1096	-0.12
1096	-0.122
1097	-0.123
1097	-0.125
1097	-0.126
1098	-0.128
1098	-0.13
1099	-0.131
1099	-0.133
1100	-0.134
1100	-0.136
1100	-0.137
1101	-0.139
1101	-0.141
1102	-0.143
1102	-0.145
1102	-0.146
1103	-0.148
1103	-0.149
1104	-0.151
1104	-0.153
1104	-0.155
1105	-0.157
1105	-0.16
1106	-0.164
1106	-0.165
1107	-0.17
1107	-0.173
1107	-0.177
1108	-0.18
1108	-0.182
1109	-0.186
1109	-0.189
1109	-0.193
1110	-0.194
1110	-0.197
1111	-0.203
1111	-0.199
