Data from 40to5_hyst_3.5A_10sec_80mins_Absorbance__162__00784.txt Node

Date: Mon Jun 26 11:23:18 CEST 2023
User: Marek
Spectrometer: MAYP115816
Trigger mode: 0
Integration Time (sec): 2.500000E-1
Scans to average: 10
Electric dark correction enabled: true
Nonlinearity correction enabled: true
Boxcar width: 5
XAxis mode: Wavelengths
Number of Pixels in Spectrum: 2068
>>>>>Begin Spectral Data<<<<<
199	-0.796
199	-0.769
200	-0.733
200	-0.677
201	-0.636
201	-0.606
202	-0.586
202	-0.591
203	-0.583
203	-0.573
204	-0.555
204	-0.534
205	-0.517
205	-0.509
205	-0.512
206	-0.51
206	-0.525
207	-0.524
207	-0.522
208	-0.527
208	-0.531
209	-0.534
209	-0.548
210	-0.556
210	-0.557
211	-0.559
211	-0.57
212	-0.569
212	-0.573
213	-0.578
213	-0.576
213	-0.58
214	-0.58
214	-0.581
215	-0.575
215	-0.579
216	-0.576
216	-0.579
217	-0.576
217	-0.577
218	-0.576
218	-0.576
219	-0.577
219	-0.579
220	-0.583
220	-0.589
221	-0.599
221	-0.606
221	-0.606
222	-0.61
222	-0.607
223	-0.612
223	-0.61
224	-0.617
224	-0.61
225	-0.609
225	-0.612
226	-0.609
226	-0.607
227	-0.606
227	-0.614
228	-0.609
228	-0.61
229	-0.612
229	-0.606
229	-0.609
230	-0.61
230	-0.607
231	-0.595
231	-0.586
232	-0.584
232	-0.577
233	-0.589
233	-0.582
234	-0.59
234	-0.586
235	-0.587
235	-0.584
236	-0.588
236	-0.594
236	-0.601
237	-0.601
237	-0.595
238	-0.588
238	-0.594
239	-0.585
239	-0.589
240	-0.587
240	-0.588
241	-0.585
241	-0.588
242	-0.594
242	-0.6
243	-0.609
243	-0.616
243	-0.618
244	-0.619
244	-0.621
245	-0.632
245	-0.638
246	-0.648
246	-0.645
247	-0.648
247	-0.644
248	-0.639
248	-0.634
249	-0.637
249	-0.643
250	-0.648
250	-0.637
250	-0.63
251	-0.635
251	-0.643
252	-0.639
252	-0.639
253	-0.645
253	-0.653
254	-0.654
254	-0.655
255	-0.668
255	-0.675
256	-0.677
256	-0.674
257	-0.674
257	-0.675
258	-0.685
258	-0.683
258	-0.684
259	-0.68
259	-0.683
260	-0.676
260	-0.679
261	-0.681
261	-0.678
262	-0.68
262	-0.687
263	-0.681
263	-0.689
264	-0.693
264	-0.696
265	-0.695
265	-0.694
265	-0.692
266	-0.692
266	-0.699
267	-0.71
267	-0.706
268	-0.713
268	-0.703
269	-0.696
269	-0.702
270	-0.71
270	-0.71
271	-0.719
271	-0.726
272	-0.725
272	-0.71
272	-0.72
273	-0.72
273	-0.726
274	-0.72
274	-0.713
275	-0.709
275	-0.719
276	-0.714
276	-0.712
277	-0.706
277	-0.715
278	-0.717
278	-0.713
278	-0.728
279	-0.735
279	-0.74
280	-0.744
280	-0.74
281	-0.745
281	-0.762
282	-0.76
282	-0.762
283	-0.756
283	-0.769
284	-0.758
284	-0.758
285	-0.766
285	-0.749
285	-0.736
286	-0.735
286	-0.715
287	-0.72
287	-0.709
288	-0.696
288	-0.687
289	-0.679
289	-0.69
290	-0.685
290	-0.684
291	-0.691
291	-0.683
292	-0.682
292	-0.685
292	-0.697
293	-0.704
293	-0.703
294	-0.712
294	-0.697
295	-0.696
295	-0.7
296	-0.701
296	-0.706
297	-0.705
297	-0.695
298	-0.689
298	-0.688
298	-0.683
299	-0.67
299	-0.675
300	-0.672
300	-0.667
301	-0.661
301	-0.661
302	-0.665
302	-0.663
303	-0.653
303	-0.646
304	-0.647
304	-0.648
305	-0.643
305	-0.637
305	-0.645
306	-0.639
306	-0.636
307	-0.627
307	-0.625
308	-0.625
308	-0.621
309	-0.62
309	-0.617
310	-0.608
310	-0.602
311	-0.594
311	-0.592
311	-0.583
312	-0.57
312	-0.569
313	-0.561
313	-0.561
314	-0.559
314	-0.563
315	-0.563
315	-0.562
316	-0.557
316	-0.552
317	-0.546
317	-0.551
318	-0.544
318	-0.544
318	-0.529
319	-0.522
319	-0.505
320	-0.5
320	-0.504
321	-0.494
321	-0.49
322	-0.485
322	-0.481
323	-0.48
323	-0.475
324	-0.478
324	-0.466
324	-0.466
325	-0.45
325	-0.427
326	-0.423
326	-0.402
327	-0.388
327	-0.366
328	-0.337
328	-0.312
329	-0.287
329	-0.258
330	-0.224
330	-0.191
330	-0.159
331	-0.125
331	-0.093
332	-0.058
332	-0.026
333	0.004
333	0.038
334	0.069
334	0.094
335	0.122
335	0.142
336	0.166
336	0.189
336	0.207
337	0.225
337	0.243
338	0.259
338	0.271
339	0.286
339	0.299
340	0.309
340	0.319
341	0.328
341	0.335
342	0.343
342	0.35
342	0.355
343	0.36
343	0.366
344	0.37
344	0.374
345	0.378
345	0.381
346	0.384
346	0.387
347	0.39
347	0.392
348	0.394
348	0.397
348	0.398
349	0.399
349	0.401
350	0.403
350	0.404
351	0.405
351	0.406
352	0.406
352	0.408
353	0.409
353	0.41
354	0.41
354	0.411
354	0.412
355	0.412
355	0.412
356	0.413
356	0.414
357	0.413
357	0.414
358	0.414
358	0.414
359	0.414
359	0.414
360	0.415
360	0.415
360	0.415
361	0.415
361	0.415
362	0.416
362	0.416
363	0.416
363	0.416
364	0.416
364	0.417
365	0.417
365	0.417
366	0.417
366	0.417
366	0.417
367	0.416
367	0.416
368	0.416
368	0.415
369	0.415
369	0.414
370	0.414
370	0.414
371	0.414
371	0.413
372	0.413
372	0.413
372	0.413
373	0.412
373	0.412
374	0.412
374	0.412
375	0.412
375	0.411
376	0.411
376	0.411
377	0.411
377	0.41
378	0.41
378	0.409
378	0.409
379	0.408
379	0.408
380	0.408
380	0.407
381	0.406
381	0.405
382	0.405
382	0.404
383	0.404
383	0.403
383	0.403
384	0.402
384	0.402
385	0.402
385	0.402
386	0.401
386	0.401
387	0.401
387	0.401
388	0.4
388	0.4
389	0.4
389	0.399
389	0.399
390	0.398
390	0.397
391	0.397
391	0.396
392	0.396
392	0.395
393	0.395
393	0.394
394	0.394
394	0.394
394	0.393
395	0.392
395	0.392
396	0.392
396	0.391
397	0.39
397	0.39
398	0.389
398	0.389
399	0.389
399	0.388
400	0.388
400	0.388
400	0.387
401	0.386
401	0.386
402	0.386
402	0.385
403	0.385
403	0.385
404	0.384
404	0.383
405	0.383
405	0.383
405	0.382
406	0.382
406	0.382
407	0.382
407	0.381
408	0.381
408	0.38
409	0.38
409	0.38
410	0.38
410	0.379
411	0.379
411	0.379
411	0.378
412	0.378
412	0.377
413	0.377
413	0.376
414	0.376
414	0.375
415	0.375
415	0.374
416	0.374
416	0.373
416	0.373
417	0.373
417	0.373
418	0.373
418	0.373
419	0.373
419	0.372
420	0.372
420	0.372
421	0.372
421	0.372
421	0.372
422	0.372
422	0.372
423	0.372
423	0.371
424	0.371
424	0.371
425	0.37
425	0.37
426	0.37
426	0.37
427	0.369
427	0.369
427	0.369
428	0.368
428	0.368
429	0.368
429	0.368
430	0.368
430	0.367
431	0.367
431	0.367
432	0.367
432	0.367
432	0.367
433	0.366
433	0.366
434	0.366
434	0.366
435	0.366
435	0.366
436	0.366
436	0.366
437	0.366
437	0.365
437	0.365
438	0.365
438	0.365
439	0.365
439	0.365
440	0.365
440	0.364
441	0.365
441	0.364
442	0.365
442	0.365
442	0.365
443	0.365
443	0.365
444	0.365
444	0.365
445	0.366
445	0.366
446	0.366
446	0.366
447	0.366
447	0.366
447	0.365
448	0.366
448	0.365
449	0.365
449	0.365
450	0.365
450	0.366
451	0.366
451	0.366
452	0.366
452	0.367
452	0.367
453	0.368
453	0.368
454	0.369
454	0.369
455	0.369
455	0.37
456	0.37
456	0.37
457	0.37
457	0.37
458	0.371
458	0.371
458	0.371
459	0.371
459	0.372
460	0.372
460	0.372
461	0.373
461	0.373
462	0.374
462	0.375
463	0.376
463	0.376
463	0.377
464	0.377
464	0.378
465	0.379
465	0.379
466	0.38
466	0.38
467	0.381
467	0.381
467	0.382
468	0.382
468	0.383
469	0.384
469	0.385
470	0.386
470	0.387
471	0.387
471	0.388
472	0.389
472	0.389
472	0.391
473	0.392
473	0.393
474	0.394
474	0.395
475	0.397
475	0.398
476	0.399
476	0.401
477	0.402
477	0.404
477	0.406
478	0.407
478	0.409
479	0.41
479	0.412
480	0.414
480	0.416
481	0.417
481	0.419
482	0.421
482	0.422
482	0.424
483	0.426
483	0.429
484	0.431
484	0.433
485	0.435
485	0.437
486	0.439
486	0.441
487	0.444
487	0.446
487	0.448
488	0.45
488	0.453
489	0.456
489	0.459
490	0.462
490	0.464
491	0.467
491	0.47
492	0.473
492	0.476
492	0.479
493	0.482
493	0.485
494	0.489
494	0.492
495	0.496
495	0.499
496	0.503
496	0.506
496	0.51
497	0.514
497	0.517
498	0.521
498	0.524
499	0.528
499	0.532
500	0.536
500	0.541
501	0.545
501	0.549
501	0.553
502	0.557
502	0.561
503	0.565
503	0.569
504	0.573
504	0.577
505	0.581
505	0.585
506	0.59
506	0.594
506	0.599
507	0.603
507	0.607
508	0.611
508	0.616
509	0.62
509	0.625
510	0.629
510	0.633
511	0.637
511	0.642
511	0.645
512	0.65
512	0.653
513	0.657
513	0.661
514	0.665
514	0.669
515	0.672
515	0.676
515	0.679
516	0.682
516	0.686
517	0.689
517	0.692
518	0.695
518	0.697
519	0.699
519	0.701
520	0.704
520	0.706
520	0.708
521	0.71
521	0.712
522	0.713
522	0.715
523	0.717
523	0.719
524	0.72
524	0.721
524	0.722
525	0.723
525	0.724
526	0.724
526	0.724
527	0.725
527	0.724
528	0.724
528	0.724
529	0.723
529	0.723
529	0.722
530	0.721
530	0.72
531	0.719
531	0.718
532	0.717
532	0.715
533	0.714
533	0.711
533	0.709
534	0.707
534	0.704
535	0.702
535	0.699
536	0.696
536	0.693
537	0.69
537	0.687
538	0.683
538	0.68
538	0.676
539	0.673
539	0.669
540	0.666
540	0.661
541	0.657
541	0.653
542	0.649
542	0.644
542	0.639
543	0.635
543	0.63
544	0.625
544	0.62
545	0.616
545	0.611
546	0.606
546	0.6
547	0.595
547	0.589
547	0.584
548	0.578
548	0.573
549	0.567
549	0.562
550	0.556
550	0.549
551	0.543
551	0.537
551	0.531
552	0.525
552	0.519
553	0.513
553	0.508
554	0.502
554	0.496
555	0.491
555	0.485
556	0.479
556	0.473
556	0.468
557	0.463
557	0.457
558	0.452
558	0.446
559	0.44
559	0.434
560	0.428
560	0.422
560	0.417
561	0.412
561	0.407
562	0.402
562	0.396
563	0.391
563	0.386
564	0.381
564	0.375
564	0.37
565	0.365
565	0.36
566	0.355
566	0.35
567	0.345
567	0.34
568	0.335
568	0.33
568	0.326
569	0.322
569	0.318
570	0.313
570	0.309
571	0.305
571	0.301
572	0.297
572	0.293
573	0.288
573	0.284
573	0.279
574	0.275
574	0.271
575	0.267
575	0.264
576	0.26
576	0.255
577	0.25
577	0.247
577	0.244
578	0.24
578	0.238
579	0.235
579	0.232
580	0.227
580	0.222
581	0.219
581	0.216
581	0.213
582	0.211
582	0.209
583	0.207
583	0.203
584	0.199
584	0.194
585	0.193
585	0.19
585	0.187
586	0.185
586	0.182
587	0.179
587	0.176
588	0.173
588	0.171
589	0.169
589	0.167
590	0.164
590	0.162
590	0.161
591	0.158
591	0.155
592	0.153
592	0.15
593	0.148
593	0.146
594	0.144
594	0.142
594	0.14
595	0.138
595	0.135
596	0.133
596	0.131
597	0.13
597	0.128
598	0.126
598	0.125
598	0.123
599	0.122
599	0.12
600	0.118
600	0.116
601	0.115
601	0.113
602	0.111
602	0.109
602	0.107
603	0.106
603	0.105
604	0.103
604	0.102
605	0.1
605	0.099
606	0.097
606	0.094
606	0.092
607	0.091
607	0.089
608	0.088
608	0.086
609	0.084
609	0.083
610	0.082
610	0.08
610	0.08
611	0.08
611	0.079
612	0.079
612	0.079
613	0.078
613	0.077
614	0.076
614	0.075
614	0.074
615	0.072
615	0.071
616	0.07
616	0.068
617	0.066
617	0.065
618	0.063
618	0.061
618	0.06
619	0.059
619	0.058
620	0.057
620	0.057
621	0.056
621	0.055
622	0.054
622	0.053
622	0.052
623	0.051
623	0.051
624	0.051
624	0.049
625	0.048
625	0.047
626	0.045
626	0.044
626	0.043
627	0.042
627	0.041
628	0.04
628	0.04
629	0.039
629	0.038
630	0.037
630	0.036
630	0.036
631	0.035
631	0.034
632	0.033
632	0.032
633	0.031
633	0.031
634	0.03
634	0.03
634	0.03
635	0.029
635	0.029
636	0.028
636	0.028
637	0.027
637	0.026
638	0.025
638	0.023
638	0.022
639	0.019
639	0.018
640	0.016
640	0.015
641	0.013
641	0.012
642	0.011
642	0.01
642	0.008
643	0.007
643	0.005
644	0.004
644	0.002
645	0
645	-0.002
646	-0.005
646	-0.008
646	-0.011
647	-0.014
647	-0.018
648	-0.022
648	-0.025
649	-0.028
649	-0.031
650	-0.034
650	-0.037
650	-0.041
651	-0.046
651	-0.051
652	-0.058
652	-0.066
653	-0.071
653	-0.077
653	-0.074
654	-0.066
654	-0.066
655	-0.07
655	-0.073
656	-0.076
656	-0.081
657	-0.083
657	-0.086
657	-0.091
658	-0.094
658	-0.112
659	-0.16
659	-0.211
660	-0.238
660	-0.256
661	-0.273
661	-0.293
661	-0.314
662	-0.333
662	-0.349
663	-0.366
663	-0.388
664	-0.407
664	-0.434
665	-0.455
665	-0.475
665	-0.501
666	-0.527
666	-0.552
667	-0.579
667	-0.613
668	-0.647
668	-0.681
669	-0.721
669	-0.761
669	-0.809
670	-0.863
670	-0.93
671	-1.014
671	-1.152
672	-1.461
672	-1.915
672	-2.196
673	-2.412
673	-2.54
674	-2.579
674	-2.589
675	-2.602
675	-2.607
676	-2.61
676	-2.645
676	-2.754
677	-2.704
677	-2.45
678	-2.158
678	-1.654
679	-1.205
679	-1.062
680	-0.993
680	-0.935
680	-0.889
681	-0.868
681	-0.842
682	-0.833
682	-0.82
683	-0.804
683	-0.807
684	-0.795
684	-0.79
684	-0.776
685	-0.778
685	-0.777
686	-0.766
686	-0.753
687	-0.746
687	-0.751
687	-0.742
688	-0.735
688	-0.736
689	-0.728
689	-0.726
690	-0.724
690	-0.726
691	-0.725
691	-0.725
691	-0.717
692	-0.71
692	-0.716
693	-0.72
693	-0.725
694	-0.725
694	-0.726
695	-0.728
695	-0.718
695	-0.718
696	-0.727
696	-0.728
697	-0.728
697	-0.723
698	-0.713
698	-0.71
698	-0.72
699	-0.72
699	-0.717
700	-0.738
700	-0.737
701	-0.741
701	-0.756
702	-0.776
702	-0.787
702	-0.794
703	-0.796
703	-0.788
704	-0.791
704	-0.788
705	-0.789
705	-0.791
705	-0.775
706	-0.766
706	-0.752
707	-0.753
707	-0.759
708	-0.751
708	-0.756
709	-0.758
709	-0.763
709	-0.751
710	-0.759
710	-0.764
711	-0.76
711	-0.767
712	-0.753
712	-0.743
713	-0.75
713	-0.758
713	-0.752
714	-0.758
714	-0.77
715	-0.763
715	-0.778
716	-0.795
716	-0.787
716	-0.796
717	-0.811
717	-0.812
718	-0.804
718	-0.816
719	-0.818
719	-0.797
720	-0.802
720	-0.791
720	-0.79
721	-0.789
721	-0.792
722	-0.786
722	-0.785
723	-0.781
723	-0.772
723	-0.761
724	-0.771
724	-0.762
725	-0.759
725	-0.758
726	-0.767
726	-0.765
727	-0.767
727	-0.764
727	-0.767
728	-0.775
728	-0.78
729	-0.777
729	-0.794
730	-0.802
730	-0.8
730	-0.791
731	-0.783
731	-0.792
732	-0.795
732	-0.793
733	-0.794
733	-0.8
734	-0.796
734	-0.787
734	-0.767
735	-0.771
735	-0.777
736	-0.782
736	-0.768
737	-0.765
737	-0.763
737	-0.745
738	-0.741
738	-0.749
739	-0.752
739	-0.758
740	-0.764
740	-0.761
741	-0.756
741	-0.767
741	-0.766
742	-0.763
742	-0.786
743	-0.778
743	-0.776
744	-0.763
744	-0.761
744	-0.75
745	-0.754
745	-0.767
746	-0.761
746	-0.768
747	-0.773
747	-0.756
748	-0.759
748	-0.762
748	-0.777
749	-0.788
749	-0.791
750	-0.78
750	-0.775
751	-0.777
751	-0.763
751	-0.767
752	-0.776
752	-0.78
753	-0.779
753	-0.77
754	-0.771
754	-0.753
754	-0.768
755	-0.769
755	-0.778
756	-0.796
756	-0.783
757	-0.771
757	-0.769
758	-0.758
758	-0.758
758	-0.753
759	-0.772
759	-0.775
760	-0.769
760	-0.751
761	-0.748
761	-0.756
761	-0.773
762	-0.765
762	-0.777
763	-0.768
763	-0.777
764	-0.772
764	-0.76
764	-0.777
765	-0.791
765	-0.792
766	-0.788
766	-0.774
767	-0.788
767	-0.783
768	-0.79
768	-0.797
768	-0.786
769	-0.794
769	-0.78
770	-0.787
770	-0.78
771	-0.786
771	-0.79
771	-0.792
772	-0.805
772	-0.819
773	-0.806
773	-0.831
774	-0.827
774	-0.829
775	-0.815
775	-0.818
775	-0.818
776	-0.825
776	-0.819
777	-0.811
777	-0.807
778	-0.811
778	-0.8
778	-0.81
779	-0.825
779	-0.84
780	-0.848
780	-0.852
781	-0.863
781	-0.867
781	-0.879
782	-0.883
782	-0.884
783	-0.894
783	-0.899
784	-0.884
784	-0.867
784	-0.882
785	-0.883
785	-0.885
786	-0.891
786	-0.876
787	-0.863
787	-0.889
788	-0.884
788	-0.863
788	-0.858
789	-0.856
789	-0.844
790	-0.844
790	-0.836
791	-0.848
791	-0.858
791	-0.862
792	-0.838
792	-0.847
793	-0.856
793	-0.87
794	-0.872
794	-0.876
794	-0.871
795	-0.86
795	-0.84
796	-0.821
796	-0.83
797	-0.838
797	-0.822
797	-0.832
798	-0.827
798	-0.84
799	-0.827
799	-0.832
800	-0.835
800	-0.845
801	-0.86
801	-0.846
801	-0.831
802	-0.827
802	-0.807
803	-0.801
803	-0.788
804	-0.79
804	-0.791
804	-0.791
805	-0.785
805	-0.776
806	-0.772
806	-0.778
807	-0.78
807	-0.79
807	-0.796
808	-0.793
808	-0.789
809	-0.781
809	-0.771
810	-0.777
810	-0.767
810	-0.773
811	-0.764
811	-0.767
812	-0.766
812	-0.781
813	-0.779
813	-0.781
813	-0.778
814	-0.791
814	-0.774
815	-0.78
815	-0.789
816	-0.788
816	-0.791
817	-0.798
817	-0.777
817	-0.794
818	-0.801
818	-0.803
819	-0.805
819	-0.813
820	-0.801
820	-0.8
820	-0.813
821	-0.811
821	-0.808
822	-0.81
822	-0.805
823	-0.809
823	-0.81
823	-0.794
824	-0.804
824	-0.828
825	-0.819
825	-0.809
826	-0.795
826	-0.781
826	-0.776
827	-0.757
827	-0.741
828	-0.739
828	-0.734
829	-0.72
829	-0.705
829	-0.702
830	-0.699
830	-0.708
831	-0.704
831	-0.688
832	-0.691
832	-0.685
832	-0.672
833	-0.668
833	-0.659
834	-0.653
834	-0.648
835	-0.641
835	-0.63
835	-0.621
836	-0.628
836	-0.626
837	-0.623
837	-0.619
838	-0.617
838	-0.608
839	-0.601
839	-0.596
839	-0.592
840	-0.585
840	-0.582
841	-0.572
841	-0.56
842	-0.555
842	-0.542
842	-0.533
843	-0.531
843	-0.525
844	-0.514
844	-0.503
845	-0.491
845	-0.482
845	-0.468
846	-0.458
846	-0.444
847	-0.439
847	-0.429
848	-0.415
848	-0.404
848	-0.391
849	-0.38
849	-0.369
850	-0.358
850	-0.35
851	-0.342
851	-0.331
851	-0.321
852	-0.308
852	-0.298
853	-0.291
853	-0.285
854	-0.276
854	-0.268
854	-0.259
855	-0.251
855	-0.241
856	-0.234
856	-0.227
857	-0.221
857	-0.214
857	-0.203
858	-0.193
858	-0.187
859	-0.177
859	-0.168
860	-0.162
860	-0.152
860	-0.144
861	-0.137
861	-0.13
862	-0.125
862	-0.12
863	-0.115
863	-0.109
863	-0.107
864	-0.103
864	-0.098
865	-0.094
865	-0.091
866	-0.087
866	-0.083
866	-0.08
867	-0.076
867	-0.073
868	-0.071
868	-0.068
869	-0.065
869	-0.063
869	-0.062
870	-0.061
870	-0.06
871	-0.059
871	-0.058
872	-0.058
872	-0.058
872	-0.057
873	-0.056
873	-0.055
874	-0.054
874	-0.052
875	-0.051
875	-0.05
875	-0.049
876	-0.049
876	-0.048
877	-0.047
877	-0.046
878	-0.046
878	-0.045
878	-0.045
879	-0.046
879	-0.047
880	-0.048
880	-0.049
881	-0.05
881	-0.051
881	-0.052
882	-0.053
882	-0.054
883	-0.055
883	-0.056
884	-0.057
884	-0.057
884	-0.057
885	-0.058
885	-0.058
886	-0.059
886	-0.059
887	-0.06
887	-0.06
887	-0.06
888	-0.06
888	-0.061
889	-0.061
889	-0.062
890	-0.062
890	-0.063
890	-0.063
891	-0.064
891	-0.065
892	-0.066
892	-0.066
893	-0.067
893	-0.068
893	-0.068
894	-0.068
894	-0.068
895	-0.068
895	-0.067
895	-0.066
896	-0.066
896	-0.065
897	-0.064
897	-0.064
898	-0.063
898	-0.063
898	-0.062
899	-0.062
899	-0.061
900	-0.061
900	-0.061
901	-0.06
901	-0.06
901	-0.06
902	-0.059
902	-0.059
903	-0.059
903	-0.059
904	-0.059
904	-0.06
904	-0.06
905	-0.06
905	-0.061
906	-0.062
906	-0.062
907	-0.062
907	-0.063
907	-0.062
908	-0.062
908	-0.062
909	-0.061
909	-0.06
910	-0.059
910	-0.058
910	-0.057
911	-0.056
911	-0.055
912	-0.054
912	-0.053
913	-0.052
913	-0.052
913	-0.051
914	-0.051
914	-0.051
915	-0.05
915	-0.05
916	-0.05
916	-0.05
916	-0.05
917	-0.05
917	-0.05
918	-0.05
918	-0.049
918	-0.049
919	-0.048
919	-0.047
920	-0.046
920	-0.045
921	-0.044
921	-0.043
921	-0.043
922	-0.042
922	-0.042
923	-0.042
923	-0.042
924	-0.043
924	-0.043
924	-0.044
925	-0.044
925	-0.045
926	-0.045
926	-0.046
927	-0.046
927	-0.047
927	-0.047
928	-0.047
928	-0.047
929	-0.048
929	-0.048
930	-0.049
930	-0.05
930	-0.051
931	-0.052
931	-0.053
932	-0.054
932	-0.056
933	-0.057
933	-0.059
933	-0.06
934	-0.062
934	-0.063
935	-0.064
935	-0.066
935	-0.067
936	-0.067
936	-0.068
937	-0.068
937	-0.068
938	-0.068
938	-0.067
938	-0.067
939	-0.067
939	-0.066
940	-0.066
940	-0.065
941	-0.065
941	-0.064
941	-0.064
942	-0.064
942	-0.064
943	-0.064
943	-0.064
944	-0.064
944	-0.065
944	-0.065
945	-0.064
945	-0.064
946	-0.064
946	-0.064
946	-0.064
947	-0.063
947	-0.062
948	-0.061
948	-0.06
949	-0.059
949	-0.059
949	-0.058
950	-0.058
950	-0.057
951	-0.057
951	-0.057
952	-0.057
952	-0.057
952	-0.058
953	-0.058
953	-0.057
954	-0.058
954	-0.057
955	-0.057
955	-0.057
955	-0.056
956	-0.055
956	-0.054
957	-0.053
957	-0.053
957	-0.053
958	-0.053
958	-0.053
959	-0.052
959	-0.052
960	-0.051
960	-0.051
960	-0.05
961	-0.049
961	-0.048
962	-0.047
962	-0.046
963	-0.044
963	-0.044
963	-0.043
964	-0.043
964	-0.043
965	-0.043
965	-0.043
966	-0.044
966	-0.044
966	-0.045
967	-0.045
967	-0.046
968	-0.047
968	-0.048
968	-0.049
969	-0.051
969	-0.052
970	-0.053
970	-0.054
971	-0.055
971	-0.056
971	-0.057
972	-0.057
972	-0.058
973	-0.058
973	-0.059
974	-0.059
974	-0.059
974	-0.059
975	-0.059
975	-0.059
976	-0.059
976	-0.059
976	-0.06
977	-0.06
977	-0.061
978	-0.061
978	-0.061
979	-0.062
979	-0.062
979	-0.062
980	-0.062
980	-0.062
981	-0.062
981	-0.062
982	-0.062
982	-0.061
982	-0.06
983	-0.059
983	-0.059
984	-0.058
984	-0.057
984	-0.057
985	-0.056
985	-0.055
986	-0.055
986	-0.055
987	-0.055
987	-0.055
987	-0.056
988	-0.056
988	-0.056
989	-0.056
989	-0.055
990	-0.056
990	-0.055
990	-0.055
991	-0.054
991	-0.054
992	-0.054
992	-0.054
992	-0.054
993	-0.054
993	-0.055
994	-0.055
994	-0.055
995	-0.056
995	-0.056
995	-0.057
996	-0.057
996	-0.057
997	-0.057
997	-0.057
997	-0.057
998	-0.057
998	-0.057
999	-0.057
999	-0.057
1000	-0.057
1000	-0.058
1000	-0.059
1001	-0.059
1001	-0.06
1002	-0.06
1002	-0.061
1003	-0.063
1003	-0.064
1003	-0.065
1004	-0.066
1004	-0.066
1005	-0.067
1005	-0.068
1005	-0.069
1006	-0.069
1006	-0.07
1007	-0.07
1007	-0.071
1008	-0.071
1008	-0.071
1008	-0.072
1009	-0.072
1009	-0.073
1010	-0.073
1010	-0.073
1010	-0.073
1011	-0.073
1011	-0.074
1012	-0.074
1012	-0.074
1013	-0.075
1013	-0.075
1013	-0.075
1014	-0.076
1014	-0.076
1015	-0.077
1015	-0.078
1016	-0.078
1016	-0.079
1016	-0.079
1017	-0.079
1017	-0.079
1018	-0.079
1018	-0.079
1018	-0.078
1019	-0.078
1019	-0.077
1020	-0.077
1020	-0.077
1021	-0.076
1021	-0.076
1021	-0.076
1022	-0.076
1022	-0.077
1023	-0.077
1023	-0.078
1023	-0.079
1024	-0.079
1024	-0.08
1025	-0.081
1025	-0.082
1026	-0.082
1026	-0.082
1026	-0.083
1027	-0.083
1027	-0.082
1028	-0.082
1028	-0.082
1028	-0.081
1029	-0.08
1029	-0.079
1030	-0.079
1030	-0.078
1031	-0.077
1031	-0.076
1031	-0.076
1032	-0.075
1032	-0.075
1033	-0.074
1033	-0.074
1033	-0.074
1034	-0.075
1034	-0.076
1035	-0.076
1035	-0.077
1036	-0.077
1036	-0.078
1036	-0.078
1037	-0.078
1037	-0.078
1038	-0.078
1038	-0.078
1039	-0.077
1039	-0.076
1039	-0.076
1040	-0.076
1040	-0.075
1041	-0.075
1041	-0.074
1041	-0.074
1042	-0.074
1042	-0.074
1043	-0.074
1043	-0.074
1044	-0.074
1044	-0.074
1044	-0.074
1045	-0.075
1045	-0.075
1046	-0.076
1046	-0.076
1046	-0.076
1047	-0.076
1047	-0.076
1048	-0.076
1048	-0.076
1049	-0.076
1049	-0.076
1049	-0.076
1050	-0.076
1050	-0.077
1051	-0.077
1051	-0.078
1051	-0.078
1052	-0.078
1052	-0.078
1053	-0.079
1053	-0.079
1053	-0.079
1054	-0.079
1054	-0.079
1055	-0.079
1055	-0.078
1056	-0.079
1056	-0.079
1056	-0.079
1057	-0.08
1057	-0.08
1058	-0.081
1058	-0.082
1058	-0.082
1059	-0.083
1059	-0.084
1060	-0.084
1060	-0.085
1061	-0.085
1061	-0.085
1061	-0.085
1062	-0.086
1062	-0.086
1063	-0.086
1063	-0.086
1063	-0.087
1064	-0.087
1064	-0.087
1065	-0.087
1065	-0.088
1066	-0.088
1066	-0.089
1066	-0.089
1067	-0.09
1067	-0.09
1068	-0.091
1068	-0.091
1068	-0.092
1069	-0.093
1069	-0.094
1070	-0.094
1070	-0.095
1071	-0.096
1071	-0.096
1071	-0.097
1072	-0.097
1072	-0.098
1073	-0.098
1073	-0.098
1073	-0.099
1074	-0.099
1074	-0.098
1075	-0.099
1075	-0.098
1076	-0.099
1076	-0.098
1076	-0.099
1077	-0.099
1077	-0.099
1078	-0.1
1078	-0.099
1078	-0.099
1079	-0.099
1079	-0.099
1080	-0.099
1080	-0.099
1080	-0.099
1081	-0.098
1081	-0.098
1082	-0.097
1082	-0.098
1083	-0.098
1083	-0.099
1083	-0.099
1084	-0.099
1084	-0.099
1085	-0.1
1085	-0.1
1085	-0.101
1086	-0.101
1086	-0.102
1087	-0.102
1087	-0.102
1088	-0.102
1088	-0.103
1088	-0.104
1089	-0.106
1089	-0.107
1090	-0.108
1090	-0.11
1090	-0.111
1091	-0.112
1091	-0.113
1092	-0.114
1092	-0.114
1092	-0.115
1093	-0.116
1093	-0.115
1094	-0.116
1094	-0.117
1095	-0.118
1095	-0.118
1095	-0.119
1096	-0.12
1096	-0.122
1097	-0.123
1097	-0.125
1097	-0.126
1098	-0.128
1098	-0.13
1099	-0.131
1099	-0.132
1100	-0.134
1100	-0.136
1100	-0.137
1101	-0.139
1101	-0.142
1102	-0.144
1102	-0.146
1102	-0.147
1103	-0.149
1103	-0.152
1104	-0.153
1104	-0.156
1104	-0.157
1105	-0.16
1105	-0.162
1106	-0.166
1106	-0.168
1107	-0.172
1107	-0.175
1107	-0.179
1108	-0.181
1108	-0.184
1109	-0.187
1109	-0.19
1109	-0.194
1110	-0.197
1110	-0.199
1111	-0.205
1111	-0.204
