Data from 40to5_hyst_3.5A_10sec_80mins_Absorbance__54__00676.txt Node

Date: Mon Jun 26 11:05:18 CEST 2023
User: Marek
Spectrometer: MAYP115816
Trigger mode: 0
Integration Time (sec): 2.500000E-1
Scans to average: 10
Electric dark correction enabled: true
Nonlinearity correction enabled: true
Boxcar width: 5
XAxis mode: Wavelengths
Number of Pixels in Spectrum: 2068
>>>>>Begin Spectral Data<<<<<
199	-0.774
199	-0.751
200	-0.718
200	-0.662
201	-0.621
201	-0.595
202	-0.576
202	-0.58
203	-0.571
203	-0.564
204	-0.546
204	-0.528
205	-0.512
205	-0.503
205	-0.505
206	-0.505
206	-0.517
207	-0.516
207	-0.51
208	-0.517
208	-0.52
209	-0.524
209	-0.536
210	-0.544
210	-0.543
211	-0.546
211	-0.556
212	-0.554
212	-0.56
213	-0.567
213	-0.566
213	-0.568
214	-0.567
214	-0.569
215	-0.564
215	-0.57
216	-0.568
216	-0.573
217	-0.57
217	-0.566
218	-0.566
218	-0.566
219	-0.567
219	-0.569
220	-0.573
220	-0.58
221	-0.589
221	-0.596
221	-0.594
222	-0.601
222	-0.601
223	-0.603
223	-0.601
224	-0.606
224	-0.6
225	-0.597
225	-0.598
226	-0.597
226	-0.594
227	-0.591
227	-0.596
228	-0.593
228	-0.595
229	-0.596
229	-0.592
229	-0.595
230	-0.599
230	-0.597
231	-0.585
231	-0.575
232	-0.576
232	-0.568
233	-0.579
233	-0.572
234	-0.579
234	-0.576
235	-0.577
235	-0.572
236	-0.575
236	-0.581
236	-0.589
237	-0.587
237	-0.584
238	-0.579
238	-0.584
239	-0.576
239	-0.578
240	-0.578
240	-0.578
241	-0.575
241	-0.578
242	-0.584
242	-0.59
243	-0.598
243	-0.606
243	-0.607
244	-0.609
244	-0.61
245	-0.623
245	-0.629
246	-0.638
246	-0.634
247	-0.637
247	-0.634
248	-0.626
248	-0.62
249	-0.624
249	-0.629
250	-0.632
250	-0.62
250	-0.615
251	-0.62
251	-0.627
252	-0.623
252	-0.623
253	-0.63
253	-0.641
254	-0.641
254	-0.644
255	-0.654
255	-0.661
256	-0.663
256	-0.659
257	-0.659
257	-0.659
258	-0.67
258	-0.668
258	-0.668
259	-0.666
259	-0.67
260	-0.666
260	-0.671
261	-0.672
261	-0.67
262	-0.672
262	-0.68
263	-0.673
263	-0.681
264	-0.685
264	-0.686
265	-0.682
265	-0.681
265	-0.679
266	-0.68
266	-0.686
267	-0.696
267	-0.692
268	-0.701
268	-0.691
269	-0.684
269	-0.692
270	-0.701
270	-0.702
271	-0.711
271	-0.719
272	-0.717
272	-0.702
272	-0.712
273	-0.711
273	-0.717
274	-0.71
274	-0.703
275	-0.699
275	-0.707
276	-0.701
276	-0.697
277	-0.692
277	-0.703
278	-0.704
278	-0.702
278	-0.716
279	-0.726
279	-0.729
280	-0.731
280	-0.727
281	-0.731
281	-0.751
282	-0.748
282	-0.748
283	-0.746
283	-0.756
284	-0.746
284	-0.741
285	-0.751
285	-0.738
285	-0.726
286	-0.726
286	-0.705
287	-0.71
287	-0.701
288	-0.683
288	-0.679
289	-0.672
289	-0.683
290	-0.679
290	-0.676
291	-0.684
291	-0.674
292	-0.673
292	-0.676
292	-0.685
293	-0.698
293	-0.694
294	-0.703
294	-0.689
295	-0.687
295	-0.691
296	-0.69
296	-0.695
297	-0.695
297	-0.684
298	-0.679
298	-0.675
298	-0.669
299	-0.654
299	-0.66
300	-0.658
300	-0.652
301	-0.646
301	-0.647
302	-0.651
302	-0.648
303	-0.637
303	-0.63
304	-0.632
304	-0.632
305	-0.627
305	-0.621
305	-0.63
306	-0.625
306	-0.62
307	-0.612
307	-0.614
308	-0.615
308	-0.612
309	-0.611
309	-0.612
310	-0.599
310	-0.595
311	-0.587
311	-0.584
311	-0.577
312	-0.564
312	-0.559
313	-0.55
313	-0.551
314	-0.549
314	-0.552
315	-0.552
315	-0.55
316	-0.546
316	-0.543
317	-0.537
317	-0.544
318	-0.537
318	-0.537
318	-0.52
319	-0.513
319	-0.494
320	-0.492
320	-0.494
321	-0.483
321	-0.478
322	-0.473
322	-0.468
323	-0.467
323	-0.464
324	-0.464
324	-0.453
324	-0.45
325	-0.434
325	-0.411
326	-0.407
326	-0.386
327	-0.37
327	-0.347
328	-0.316
328	-0.292
329	-0.267
329	-0.238
330	-0.207
330	-0.173
330	-0.139
331	-0.106
331	-0.073
332	-0.039
332	-0.007
333	0.023
333	0.057
334	0.09
334	0.116
335	0.144
335	0.167
336	0.192
336	0.216
336	0.236
337	0.255
337	0.273
338	0.291
338	0.304
339	0.318
339	0.331
340	0.341
340	0.351
341	0.358
341	0.365
342	0.373
342	0.38
342	0.385
343	0.389
343	0.395
344	0.399
344	0.402
345	0.406
345	0.408
346	0.411
346	0.413
347	0.415
347	0.417
348	0.419
348	0.421
348	0.422
349	0.423
349	0.424
350	0.425
350	0.426
351	0.427
351	0.427
352	0.427
352	0.428
353	0.428
353	0.428
354	0.428
354	0.428
354	0.428
355	0.428
355	0.428
356	0.428
356	0.428
357	0.429
357	0.429
358	0.429
358	0.429
359	0.428
359	0.428
360	0.428
360	0.428
360	0.428
361	0.428
361	0.428
362	0.427
362	0.427
363	0.427
363	0.427
364	0.426
364	0.426
365	0.426
365	0.425
366	0.425
366	0.425
366	0.425
367	0.425
367	0.424
368	0.423
368	0.423
369	0.422
369	0.422
370	0.421
370	0.421
371	0.42
371	0.42
372	0.419
372	0.419
372	0.419
373	0.418
373	0.418
374	0.418
374	0.417
375	0.417
375	0.416
376	0.416
376	0.416
377	0.415
377	0.415
378	0.414
378	0.414
378	0.413
379	0.413
379	0.412
380	0.412
380	0.411
381	0.411
381	0.41
382	0.41
382	0.409
383	0.409
383	0.408
383	0.407
384	0.407
384	0.406
385	0.406
385	0.406
386	0.405
386	0.405
387	0.404
387	0.404
388	0.403
388	0.403
389	0.403
389	0.402
389	0.402
390	0.401
390	0.401
391	0.4
391	0.4
392	0.399
392	0.398
393	0.398
393	0.398
394	0.397
394	0.397
394	0.396
395	0.396
395	0.395
396	0.395
396	0.395
397	0.394
397	0.394
398	0.393
398	0.393
399	0.392
399	0.392
400	0.391
400	0.391
400	0.391
401	0.39
401	0.389
402	0.389
402	0.388
403	0.388
403	0.387
404	0.386
404	0.386
405	0.386
405	0.385
405	0.385
406	0.385
406	0.384
407	0.384
407	0.383
408	0.383
408	0.383
409	0.382
409	0.382
410	0.382
410	0.381
411	0.381
411	0.381
411	0.38
412	0.38
412	0.379
413	0.379
413	0.379
414	0.378
414	0.378
415	0.378
415	0.377
416	0.376
416	0.376
416	0.376
417	0.376
417	0.375
418	0.375
418	0.375
419	0.375
419	0.374
420	0.374
420	0.374
421	0.374
421	0.374
421	0.374
422	0.374
422	0.374
423	0.374
423	0.374
424	0.373
424	0.373
425	0.373
425	0.373
426	0.373
426	0.373
427	0.372
427	0.372
427	0.371
428	0.371
428	0.371
429	0.371
429	0.37
430	0.37
430	0.37
431	0.37
431	0.37
432	0.37
432	0.369
432	0.369
433	0.369
433	0.369
434	0.369
434	0.369
435	0.369
435	0.369
436	0.369
436	0.368
437	0.368
437	0.368
437	0.368
438	0.367
438	0.367
439	0.367
439	0.367
440	0.367
440	0.367
441	0.367
441	0.367
442	0.367
442	0.367
442	0.367
443	0.368
443	0.368
444	0.368
444	0.369
445	0.369
445	0.369
446	0.369
446	0.369
447	0.369
447	0.369
447	0.369
448	0.369
448	0.369
449	0.368
449	0.368
450	0.369
450	0.369
451	0.369
451	0.369
452	0.37
452	0.37
452	0.371
453	0.371
453	0.372
454	0.372
454	0.372
455	0.373
455	0.373
456	0.373
456	0.373
457	0.374
457	0.374
458	0.374
458	0.374
458	0.375
459	0.375
459	0.375
460	0.375
460	0.376
461	0.376
461	0.377
462	0.377
462	0.378
463	0.379
463	0.38
463	0.38
464	0.381
464	0.382
465	0.382
465	0.383
466	0.384
466	0.385
467	0.385
467	0.386
467	0.386
468	0.387
468	0.387
469	0.388
469	0.389
470	0.39
470	0.391
471	0.392
471	0.392
472	0.393
472	0.394
472	0.395
473	0.396
473	0.398
474	0.399
474	0.4
475	0.401
475	0.403
476	0.404
476	0.405
477	0.407
477	0.409
477	0.411
478	0.412
478	0.414
479	0.416
479	0.418
480	0.419
480	0.421
481	0.423
481	0.425
482	0.426
482	0.428
482	0.43
483	0.432
483	0.434
484	0.437
484	0.439
485	0.441
485	0.443
486	0.445
486	0.447
487	0.45
487	0.452
487	0.455
488	0.457
488	0.459
489	0.462
489	0.465
490	0.468
490	0.471
491	0.475
491	0.478
492	0.481
492	0.484
492	0.487
493	0.49
493	0.493
494	0.497
494	0.501
495	0.505
495	0.508
496	0.511
496	0.515
496	0.519
497	0.522
497	0.526
498	0.529
498	0.533
499	0.536
499	0.54
500	0.545
500	0.549
501	0.553
501	0.557
501	0.561
502	0.565
502	0.569
503	0.574
503	0.578
504	0.582
504	0.586
505	0.59
505	0.595
506	0.599
506	0.603
506	0.608
507	0.612
507	0.617
508	0.621
508	0.626
509	0.63
509	0.634
510	0.639
510	0.643
511	0.647
511	0.651
511	0.655
512	0.66
512	0.663
513	0.667
513	0.671
514	0.675
514	0.679
515	0.682
515	0.686
515	0.689
516	0.692
516	0.695
517	0.698
517	0.701
518	0.704
518	0.706
519	0.708
519	0.71
520	0.713
520	0.715
520	0.717
521	0.718
521	0.72
522	0.721
522	0.724
523	0.725
523	0.727
524	0.728
524	0.73
524	0.73
525	0.731
525	0.731
526	0.731
526	0.732
527	0.732
527	0.732
528	0.731
528	0.731
529	0.729
529	0.728
529	0.727
530	0.726
530	0.725
531	0.724
531	0.723
532	0.72
532	0.718
533	0.716
533	0.714
533	0.711
534	0.708
534	0.706
535	0.703
535	0.699
536	0.696
536	0.692
537	0.688
537	0.685
538	0.681
538	0.677
538	0.674
539	0.67
539	0.666
540	0.662
540	0.658
541	0.653
541	0.649
542	0.645
542	0.64
542	0.634
543	0.63
543	0.625
544	0.619
544	0.614
545	0.609
545	0.604
546	0.598
546	0.592
547	0.586
547	0.58
547	0.574
548	0.568
548	0.562
549	0.557
549	0.551
550	0.544
550	0.537
551	0.53
551	0.523
551	0.517
552	0.511
552	0.505
553	0.499
553	0.493
554	0.487
554	0.481
555	0.475
555	0.469
556	0.463
556	0.457
556	0.452
557	0.446
557	0.44
558	0.434
558	0.427
559	0.421
559	0.415
560	0.409
560	0.403
560	0.398
561	0.393
561	0.387
562	0.382
562	0.377
563	0.371
563	0.366
564	0.361
564	0.355
564	0.35
565	0.345
565	0.34
566	0.334
566	0.329
567	0.324
567	0.32
568	0.315
568	0.31
568	0.306
569	0.302
569	0.298
570	0.293
570	0.288
571	0.285
571	0.281
572	0.276
572	0.272
573	0.268
573	0.263
573	0.259
574	0.255
574	0.251
575	0.247
575	0.243
576	0.239
576	0.235
577	0.23
577	0.227
577	0.223
578	0.22
578	0.217
579	0.215
579	0.212
580	0.207
580	0.202
581	0.199
581	0.196
581	0.194
582	0.192
582	0.19
583	0.187
583	0.184
584	0.18
584	0.176
585	0.174
585	0.172
585	0.169
586	0.166
586	0.164
587	0.161
587	0.158
588	0.155
588	0.152
589	0.151
589	0.149
590	0.147
590	0.144
590	0.143
591	0.141
591	0.138
592	0.136
592	0.133
593	0.131
593	0.129
594	0.127
594	0.125
594	0.124
595	0.122
595	0.119
596	0.117
596	0.115
597	0.114
597	0.113
598	0.111
598	0.109
598	0.108
599	0.106
599	0.105
600	0.103
600	0.101
601	0.1
601	0.099
602	0.097
602	0.096
602	0.094
603	0.092
603	0.092
604	0.09
604	0.089
605	0.088
605	0.087
606	0.085
606	0.082
606	0.08
607	0.079
607	0.077
608	0.076
608	0.074
609	0.072
609	0.071
610	0.07
610	0.069
610	0.068
611	0.068
611	0.068
612	0.068
612	0.067
613	0.067
613	0.066
614	0.065
614	0.064
614	0.063
615	0.062
615	0.06
616	0.059
616	0.058
617	0.056
617	0.055
618	0.053
618	0.052
618	0.05
619	0.049
619	0.049
620	0.049
620	0.048
621	0.047
621	0.046
622	0.046
622	0.045
622	0.044
623	0.043
623	0.043
624	0.043
624	0.041
625	0.04
625	0.039
626	0.038
626	0.036
626	0.036
627	0.035
627	0.034
628	0.034
628	0.033
629	0.032
629	0.032
630	0.031
630	0.031
630	0.03
631	0.03
631	0.029
632	0.029
632	0.028
633	0.028
633	0.028
634	0.028
634	0.029
634	0.029
635	0.029
635	0.029
636	0.029
636	0.029
637	0.029
637	0.029
638	0.028
638	0.028
638	0.027
639	0.025
639	0.024
640	0.023
640	0.022
641	0.022
641	0.021
642	0.02
642	0.019
642	0.018
643	0.017
643	0.015
644	0.014
644	0.013
645	0.011
645	0.01
646	0.008
646	0.005
646	0.003
647	-0
647	-0.003
648	-0.006
648	-0.008
649	-0.011
649	-0.013
650	-0.015
650	-0.017
650	-0.02
651	-0.024
651	-0.027
652	-0.032
652	-0.037
653	-0.041
653	-0.045
653	-0.043
654	-0.041
654	-0.045
655	-0.05
655	-0.053
656	-0.056
656	-0.061
657	-0.063
657	-0.066
657	-0.071
658	-0.075
658	-0.09
659	-0.127
659	-0.165
660	-0.184
660	-0.198
661	-0.214
661	-0.232
661	-0.25
662	-0.266
662	-0.28
663	-0.291
663	-0.308
664	-0.318
664	-0.337
665	-0.35
665	-0.36
665	-0.372
666	-0.379
666	-0.385
667	-0.391
667	-0.399
668	-0.408
668	-0.416
669	-0.426
669	-0.431
669	-0.437
670	-0.438
670	-0.432
671	-0.382
671	-0.086
672	-0
672	-0
672	-0
673	-0
673	-0
674	-0
674	-0
675	-0
675	-0
676	-0
676	-0
676	-0
677	-0
677	-0.183
678	-0.52
678	-0.562
679	-0.576
679	-0.598
680	-0.613
680	-0.612
680	-0.614
681	-0.63
681	-0.633
682	-0.648
682	-0.654
683	-0.654
683	-0.671
684	-0.672
684	-0.677
684	-0.673
685	-0.684
685	-0.692
686	-0.685
686	-0.679
687	-0.675
687	-0.684
687	-0.678
688	-0.674
688	-0.681
689	-0.677
689	-0.679
690	-0.678
690	-0.682
691	-0.686
691	-0.689
691	-0.687
692	-0.681
692	-0.688
693	-0.692
693	-0.696
694	-0.697
694	-0.698
695	-0.701
695	-0.691
695	-0.69
696	-0.695
696	-0.693
697	-0.694
697	-0.692
698	-0.685
698	-0.682
698	-0.691
699	-0.693
699	-0.693
700	-0.716
700	-0.715
701	-0.724
701	-0.741
702	-0.761
702	-0.772
702	-0.776
703	-0.779
703	-0.769
704	-0.771
704	-0.765
705	-0.764
705	-0.766
705	-0.749
706	-0.74
706	-0.725
707	-0.729
707	-0.734
708	-0.728
708	-0.734
709	-0.739
709	-0.743
709	-0.73
710	-0.739
710	-0.743
711	-0.741
711	-0.746
712	-0.729
712	-0.721
713	-0.729
713	-0.736
713	-0.727
714	-0.733
714	-0.748
715	-0.742
715	-0.758
716	-0.773
716	-0.769
716	-0.78
717	-0.793
717	-0.793
718	-0.786
718	-0.799
719	-0.802
719	-0.78
720	-0.784
720	-0.774
720	-0.771
721	-0.769
721	-0.771
722	-0.766
722	-0.766
723	-0.764
723	-0.757
723	-0.745
724	-0.757
724	-0.749
725	-0.747
725	-0.745
726	-0.753
726	-0.753
727	-0.753
727	-0.749
727	-0.752
728	-0.758
728	-0.762
729	-0.757
729	-0.773
730	-0.781
730	-0.78
730	-0.775
731	-0.766
731	-0.776
732	-0.78
732	-0.776
733	-0.776
733	-0.783
734	-0.78
734	-0.772
734	-0.751
735	-0.756
735	-0.761
736	-0.767
736	-0.751
737	-0.746
737	-0.746
737	-0.73
738	-0.725
738	-0.732
739	-0.736
739	-0.744
740	-0.748
740	-0.743
741	-0.737
741	-0.752
741	-0.752
742	-0.746
742	-0.769
743	-0.761
743	-0.759
744	-0.746
744	-0.744
744	-0.733
745	-0.738
745	-0.751
746	-0.743
746	-0.754
747	-0.761
747	-0.746
748	-0.75
748	-0.754
748	-0.767
749	-0.776
749	-0.778
750	-0.766
750	-0.76
751	-0.763
751	-0.745
751	-0.75
752	-0.757
752	-0.76
753	-0.756
753	-0.748
754	-0.749
754	-0.733
754	-0.748
755	-0.751
755	-0.762
756	-0.781
756	-0.769
757	-0.756
757	-0.756
758	-0.746
758	-0.744
758	-0.74
759	-0.76
759	-0.765
760	-0.756
760	-0.737
761	-0.734
761	-0.743
761	-0.761
762	-0.753
762	-0.763
763	-0.755
763	-0.764
764	-0.756
764	-0.748
764	-0.765
765	-0.778
765	-0.779
766	-0.773
766	-0.758
767	-0.774
767	-0.769
768	-0.775
768	-0.781
768	-0.772
769	-0.774
769	-0.763
770	-0.77
770	-0.763
771	-0.769
771	-0.774
771	-0.777
772	-0.791
772	-0.807
773	-0.794
773	-0.815
774	-0.811
774	-0.813
775	-0.8
775	-0.804
775	-0.803
776	-0.809
776	-0.801
777	-0.794
777	-0.79
778	-0.794
778	-0.785
778	-0.796
779	-0.809
779	-0.825
780	-0.831
780	-0.836
781	-0.845
781	-0.849
781	-0.861
782	-0.864
782	-0.866
783	-0.876
783	-0.884
784	-0.869
784	-0.852
784	-0.87
785	-0.872
785	-0.874
786	-0.879
786	-0.867
787	-0.852
787	-0.879
788	-0.875
788	-0.854
788	-0.849
789	-0.844
789	-0.829
790	-0.827
790	-0.821
791	-0.832
791	-0.843
791	-0.849
792	-0.826
792	-0.834
793	-0.842
793	-0.856
794	-0.861
794	-0.866
794	-0.86
795	-0.851
795	-0.832
796	-0.812
796	-0.822
797	-0.827
797	-0.809
797	-0.819
798	-0.814
798	-0.825
799	-0.812
799	-0.821
800	-0.822
800	-0.833
801	-0.847
801	-0.834
801	-0.82
802	-0.818
802	-0.8
803	-0.793
803	-0.782
804	-0.784
804	-0.783
804	-0.785
805	-0.778
805	-0.769
806	-0.763
806	-0.768
807	-0.77
807	-0.776
807	-0.782
808	-0.78
808	-0.777
809	-0.769
809	-0.757
810	-0.762
810	-0.751
810	-0.757
811	-0.75
811	-0.752
812	-0.752
812	-0.768
813	-0.763
813	-0.766
813	-0.761
814	-0.772
814	-0.758
815	-0.763
815	-0.773
816	-0.771
816	-0.775
817	-0.78
817	-0.759
817	-0.778
818	-0.783
818	-0.786
819	-0.787
819	-0.797
820	-0.787
820	-0.787
820	-0.8
821	-0.798
821	-0.796
822	-0.797
822	-0.794
823	-0.798
823	-0.798
823	-0.785
824	-0.794
824	-0.818
825	-0.809
825	-0.799
826	-0.783
826	-0.766
826	-0.764
827	-0.744
827	-0.73
828	-0.731
828	-0.725
829	-0.711
829	-0.696
829	-0.695
830	-0.693
830	-0.7
831	-0.698
831	-0.682
832	-0.684
832	-0.679
832	-0.665
833	-0.66
833	-0.652
834	-0.644
834	-0.639
835	-0.633
835	-0.623
835	-0.616
836	-0.622
836	-0.618
837	-0.611
837	-0.608
838	-0.608
838	-0.599
839	-0.592
839	-0.585
839	-0.58
840	-0.575
840	-0.571
841	-0.563
841	-0.55
842	-0.543
842	-0.53
842	-0.521
843	-0.518
843	-0.515
844	-0.504
844	-0.492
845	-0.479
845	-0.471
845	-0.458
846	-0.451
846	-0.438
847	-0.434
847	-0.423
848	-0.408
848	-0.396
848	-0.384
849	-0.372
849	-0.363
850	-0.352
850	-0.342
851	-0.332
851	-0.322
851	-0.312
852	-0.3
852	-0.289
853	-0.283
853	-0.278
854	-0.269
854	-0.261
854	-0.253
855	-0.244
855	-0.236
856	-0.228
856	-0.22
857	-0.214
857	-0.208
857	-0.198
858	-0.188
858	-0.183
859	-0.174
859	-0.165
860	-0.159
860	-0.15
860	-0.142
861	-0.135
861	-0.129
862	-0.123
862	-0.118
863	-0.113
863	-0.106
863	-0.102
864	-0.099
864	-0.093
865	-0.088
865	-0.085
866	-0.08
866	-0.076
866	-0.072
867	-0.068
867	-0.065
868	-0.063
868	-0.06
869	-0.056
869	-0.054
869	-0.052
870	-0.05
870	-0.049
871	-0.048
871	-0.046
872	-0.046
872	-0.045
872	-0.044
873	-0.044
873	-0.044
874	-0.044
874	-0.044
875	-0.044
875	-0.045
875	-0.045
876	-0.046
876	-0.046
877	-0.047
877	-0.048
878	-0.049
878	-0.05
878	-0.051
879	-0.052
879	-0.053
880	-0.054
880	-0.055
881	-0.056
881	-0.056
881	-0.057
882	-0.058
882	-0.059
883	-0.06
883	-0.061
884	-0.062
884	-0.062
884	-0.062
885	-0.063
885	-0.063
886	-0.063
886	-0.064
887	-0.064
887	-0.065
887	-0.065
888	-0.064
888	-0.065
889	-0.066
889	-0.066
890	-0.067
890	-0.067
890	-0.068
891	-0.068
891	-0.069
892	-0.07
892	-0.071
893	-0.072
893	-0.073
893	-0.073
894	-0.073
894	-0.073
895	-0.074
895	-0.073
895	-0.073
896	-0.072
896	-0.071
897	-0.07
897	-0.069
898	-0.068
898	-0.067
898	-0.066
899	-0.065
899	-0.064
900	-0.063
900	-0.062
901	-0.061
901	-0.061
901	-0.061
902	-0.061
902	-0.06
903	-0.061
903	-0.061
904	-0.061
904	-0.061
904	-0.061
905	-0.062
905	-0.062
906	-0.062
906	-0.062
907	-0.062
907	-0.062
907	-0.061
908	-0.061
908	-0.06
909	-0.059
909	-0.058
910	-0.057
910	-0.056
910	-0.055
911	-0.054
911	-0.052
912	-0.051
912	-0.05
913	-0.049
913	-0.048
913	-0.048
914	-0.047
914	-0.047
915	-0.046
915	-0.046
916	-0.045
916	-0.045
916	-0.045
917	-0.045
917	-0.045
918	-0.044
918	-0.044
918	-0.044
919	-0.043
919	-0.042
920	-0.042
920	-0.041
921	-0.041
921	-0.04
921	-0.04
922	-0.04
922	-0.04
923	-0.041
923	-0.041
924	-0.042
924	-0.043
924	-0.043
925	-0.044
925	-0.045
926	-0.046
926	-0.047
927	-0.047
927	-0.048
927	-0.049
928	-0.049
928	-0.049
929	-0.05
929	-0.05
930	-0.051
930	-0.052
930	-0.053
931	-0.053
931	-0.055
932	-0.056
932	-0.057
933	-0.058
933	-0.059
933	-0.06
934	-0.062
934	-0.063
935	-0.064
935	-0.066
935	-0.067
936	-0.068
936	-0.068
937	-0.069
937	-0.069
938	-0.069
938	-0.069
938	-0.069
939	-0.069
939	-0.068
940	-0.067
940	-0.066
941	-0.066
941	-0.065
941	-0.064
942	-0.064
942	-0.065
943	-0.065
943	-0.065
944	-0.065
944	-0.065
944	-0.065
945	-0.065
945	-0.065
946	-0.064
946	-0.064
946	-0.063
947	-0.062
947	-0.061
948	-0.06
948	-0.059
949	-0.058
949	-0.057
949	-0.056
950	-0.056
950	-0.055
951	-0.055
951	-0.055
952	-0.055
952	-0.056
952	-0.056
953	-0.056
953	-0.055
954	-0.055
954	-0.055
955	-0.055
955	-0.054
955	-0.054
956	-0.053
956	-0.052
957	-0.051
957	-0.051
957	-0.05
958	-0.05
958	-0.05
959	-0.049
959	-0.048
960	-0.047
960	-0.047
960	-0.046
961	-0.045
961	-0.043
962	-0.042
962	-0.041
963	-0.04
963	-0.039
963	-0.039
964	-0.039
964	-0.039
965	-0.038
965	-0.039
966	-0.04
966	-0.04
966	-0.041
967	-0.042
967	-0.043
968	-0.044
968	-0.045
968	-0.046
969	-0.048
969	-0.049
970	-0.05
970	-0.051
971	-0.052
971	-0.053
971	-0.054
972	-0.054
972	-0.055
973	-0.055
973	-0.055
974	-0.055
974	-0.055
974	-0.056
975	-0.055
975	-0.055
976	-0.055
976	-0.056
976	-0.056
977	-0.056
977	-0.056
978	-0.057
978	-0.057
979	-0.057
979	-0.057
979	-0.057
980	-0.057
980	-0.057
981	-0.057
981	-0.057
982	-0.056
982	-0.056
982	-0.055
983	-0.055
983	-0.054
984	-0.053
984	-0.053
984	-0.052
985	-0.052
985	-0.052
986	-0.051
986	-0.051
987	-0.051
987	-0.052
987	-0.052
988	-0.052
988	-0.052
989	-0.052
989	-0.052
990	-0.052
990	-0.052
990	-0.052
991	-0.052
991	-0.051
992	-0.052
992	-0.052
992	-0.052
993	-0.053
993	-0.053
994	-0.053
994	-0.054
995	-0.055
995	-0.055
995	-0.056
996	-0.056
996	-0.056
997	-0.056
997	-0.056
997	-0.056
998	-0.056
998	-0.056
999	-0.056
999	-0.056
1000	-0.056
1000	-0.056
1000	-0.057
1001	-0.058
1001	-0.059
1002	-0.059
1002	-0.06
1003	-0.061
1003	-0.063
1003	-0.064
1004	-0.065
1004	-0.067
1005	-0.068
1005	-0.069
1005	-0.069
1006	-0.07
1006	-0.071
1007	-0.072
1007	-0.073
1008	-0.073
1008	-0.073
1008	-0.073
1009	-0.074
1009	-0.074
1010	-0.074
1010	-0.074
1010	-0.074
1011	-0.074
1011	-0.074
1012	-0.074
1012	-0.074
1013	-0.074
1013	-0.075
1013	-0.075
1014	-0.076
1014	-0.076
1015	-0.077
1015	-0.078
1016	-0.078
1016	-0.078
1016	-0.079
1017	-0.079
1017	-0.079
1018	-0.079
1018	-0.079
1018	-0.079
1019	-0.078
1019	-0.078
1020	-0.078
1020	-0.078
1021	-0.078
1021	-0.078
1021	-0.078
1022	-0.078
1022	-0.078
1023	-0.078
1023	-0.079
1023	-0.08
1024	-0.08
1024	-0.081
1025	-0.082
1025	-0.082
1026	-0.083
1026	-0.083
1026	-0.083
1027	-0.083
1027	-0.083
1028	-0.083
1028	-0.082
1028	-0.082
1029	-0.081
1029	-0.08
1030	-0.079
1030	-0.078
1031	-0.078
1031	-0.077
1031	-0.076
1032	-0.076
1032	-0.075
1033	-0.075
1033	-0.075
1033	-0.075
1034	-0.076
1034	-0.077
1035	-0.077
1035	-0.078
1036	-0.078
1036	-0.079
1036	-0.079
1037	-0.079
1037	-0.079
1038	-0.079
1038	-0.079
1039	-0.078
1039	-0.078
1039	-0.077
1040	-0.077
1040	-0.076
1041	-0.076
1041	-0.076
1041	-0.075
1042	-0.075
1042	-0.075
1043	-0.075
1043	-0.075
1044	-0.075
1044	-0.075
1044	-0.075
1045	-0.075
1045	-0.075
1046	-0.076
1046	-0.076
1046	-0.076
1047	-0.076
1047	-0.076
1048	-0.076
1048	-0.075
1049	-0.076
1049	-0.076
1049	-0.076
1050	-0.076
1050	-0.077
1051	-0.077
1051	-0.078
1051	-0.078
1052	-0.078
1052	-0.078
1053	-0.079
1053	-0.079
1053	-0.079
1054	-0.079
1054	-0.079
1055	-0.078
1055	-0.078
1056	-0.078
1056	-0.078
1056	-0.079
1057	-0.079
1057	-0.079
1058	-0.08
1058	-0.08
1058	-0.08
1059	-0.081
1059	-0.081
1060	-0.082
1060	-0.082
1061	-0.083
1061	-0.083
1061	-0.083
1062	-0.084
1062	-0.084
1063	-0.084
1063	-0.084
1063	-0.085
1064	-0.085
1064	-0.085
1065	-0.086
1065	-0.086
1066	-0.086
1066	-0.087
1066	-0.087
1067	-0.088
1067	-0.088
1068	-0.089
1068	-0.09
1068	-0.09
1069	-0.091
1069	-0.092
1070	-0.093
1070	-0.094
1071	-0.094
1071	-0.095
1071	-0.096
1072	-0.097
1072	-0.097
1073	-0.097
1073	-0.097
1073	-0.098
1074	-0.097
1074	-0.097
1075	-0.097
1075	-0.097
1076	-0.097
1076	-0.097
1076	-0.098
1077	-0.098
1077	-0.098
1078	-0.098
1078	-0.098
1078	-0.098
1079	-0.098
1079	-0.098
1080	-0.098
1080	-0.097
1080	-0.097
1081	-0.097
1081	-0.097
1082	-0.097
1082	-0.097
1083	-0.097
1083	-0.098
1083	-0.098
1084	-0.099
1084	-0.099
1085	-0.099
1085	-0.1
1085	-0.1
1086	-0.101
1086	-0.101
1087	-0.101
1087	-0.101
1088	-0.102
1088	-0.102
1088	-0.103
1089	-0.104
1089	-0.105
1090	-0.107
1090	-0.108
1090	-0.109
1091	-0.111
1091	-0.112
1092	-0.113
1092	-0.113
1092	-0.114
1093	-0.115
1093	-0.115
1094	-0.115
1094	-0.116
1095	-0.117
1095	-0.118
1095	-0.118
1096	-0.12
1096	-0.122
1097	-0.123
1097	-0.124
1097	-0.125
1098	-0.127
1098	-0.129
1099	-0.13
1099	-0.132
1100	-0.132
1100	-0.134
1100	-0.136
1101	-0.137
1101	-0.139
1102	-0.142
1102	-0.144
1102	-0.145
1103	-0.147
1103	-0.148
1104	-0.149
1104	-0.152
1104	-0.153
1105	-0.154
1105	-0.157
1106	-0.16
1106	-0.162
1107	-0.166
1107	-0.17
1107	-0.174
1108	-0.177
1108	-0.179
1109	-0.182
1109	-0.187
1109	-0.19
1110	-0.193
1110	-0.197
1111	-0.204
1111	-0.202
