Data from 40to5_hyst_3.5A_10sec_80mins_Absorbance__226__00848.txt Node

Date: Mon Jun 26 11:34:00 CEST 2023
User: Marek
Spectrometer: MAYP115816
Trigger mode: 0
Integration Time (sec): 2.500000E-1
Scans to average: 10
Electric dark correction enabled: true
Nonlinearity correction enabled: true
Boxcar width: 5
XAxis mode: Wavelengths
Number of Pixels in Spectrum: 2068
>>>>>Begin Spectral Data<<<<<
199	-0.772
199	-0.757
200	-0.724
200	-0.672
201	-0.631
201	-0.601
202	-0.583
202	-0.588
203	-0.579
203	-0.572
204	-0.555
204	-0.537
205	-0.519
205	-0.508
205	-0.51
206	-0.508
206	-0.521
207	-0.52
207	-0.518
208	-0.524
208	-0.527
209	-0.529
209	-0.541
210	-0.548
210	-0.548
211	-0.551
211	-0.561
212	-0.562
212	-0.565
213	-0.569
213	-0.568
213	-0.568
214	-0.567
214	-0.57
215	-0.567
215	-0.574
216	-0.572
216	-0.575
217	-0.57
217	-0.571
218	-0.572
218	-0.573
219	-0.574
219	-0.577
220	-0.58
220	-0.586
221	-0.594
221	-0.602
221	-0.601
222	-0.609
222	-0.606
223	-0.609
223	-0.607
224	-0.614
224	-0.607
225	-0.606
225	-0.608
226	-0.607
226	-0.602
227	-0.603
227	-0.61
228	-0.606
228	-0.608
229	-0.609
229	-0.605
229	-0.607
230	-0.608
230	-0.605
231	-0.591
231	-0.584
232	-0.583
232	-0.573
233	-0.585
233	-0.578
234	-0.585
234	-0.581
235	-0.583
235	-0.58
236	-0.583
236	-0.591
236	-0.6
237	-0.597
237	-0.594
238	-0.588
238	-0.593
239	-0.585
239	-0.59
240	-0.588
240	-0.59
241	-0.589
241	-0.594
242	-0.597
242	-0.603
243	-0.612
243	-0.619
243	-0.62
244	-0.622
244	-0.621
245	-0.634
245	-0.642
246	-0.648
246	-0.644
247	-0.649
247	-0.646
248	-0.64
248	-0.635
249	-0.638
249	-0.645
250	-0.65
250	-0.639
250	-0.632
251	-0.638
251	-0.646
252	-0.639
252	-0.639
253	-0.646
253	-0.654
254	-0.657
254	-0.658
255	-0.67
255	-0.676
256	-0.678
256	-0.676
257	-0.676
257	-0.679
258	-0.687
258	-0.687
258	-0.689
259	-0.683
259	-0.689
260	-0.682
260	-0.687
261	-0.689
261	-0.686
262	-0.688
262	-0.694
263	-0.688
263	-0.695
264	-0.702
264	-0.703
265	-0.7
265	-0.701
265	-0.7
266	-0.7
266	-0.708
267	-0.718
267	-0.717
268	-0.727
268	-0.716
269	-0.708
269	-0.717
270	-0.727
270	-0.726
271	-0.734
271	-0.741
272	-0.74
272	-0.726
272	-0.733
273	-0.731
273	-0.736
274	-0.73
274	-0.724
275	-0.72
275	-0.731
276	-0.725
276	-0.721
277	-0.715
277	-0.724
278	-0.727
278	-0.726
278	-0.744
279	-0.75
279	-0.753
280	-0.755
280	-0.752
281	-0.756
281	-0.777
282	-0.774
282	-0.776
283	-0.774
283	-0.783
284	-0.77
284	-0.768
285	-0.778
285	-0.766
285	-0.751
286	-0.751
286	-0.731
287	-0.738
287	-0.728
288	-0.713
288	-0.707
289	-0.7
289	-0.71
290	-0.705
290	-0.703
291	-0.709
291	-0.701
292	-0.701
292	-0.702
292	-0.712
293	-0.721
293	-0.717
294	-0.728
294	-0.714
295	-0.712
295	-0.715
296	-0.718
296	-0.721
297	-0.719
297	-0.709
298	-0.704
298	-0.7
298	-0.695
299	-0.681
299	-0.689
300	-0.687
300	-0.683
301	-0.676
301	-0.678
302	-0.685
302	-0.685
303	-0.671
303	-0.666
304	-0.666
304	-0.666
305	-0.659
305	-0.652
305	-0.66
306	-0.655
306	-0.651
307	-0.639
307	-0.637
308	-0.642
308	-0.639
309	-0.638
309	-0.638
310	-0.63
310	-0.626
311	-0.616
311	-0.614
311	-0.608
312	-0.596
312	-0.592
313	-0.58
313	-0.581
314	-0.582
314	-0.585
315	-0.583
315	-0.582
316	-0.576
316	-0.574
317	-0.566
317	-0.573
318	-0.568
318	-0.57
318	-0.553
319	-0.545
319	-0.528
320	-0.525
320	-0.529
321	-0.521
321	-0.515
322	-0.511
322	-0.507
323	-0.505
323	-0.502
324	-0.505
324	-0.496
324	-0.494
325	-0.479
325	-0.459
326	-0.455
326	-0.437
327	-0.424
327	-0.404
328	-0.38
328	-0.36
329	-0.337
329	-0.311
330	-0.283
330	-0.254
330	-0.229
331	-0.201
331	-0.176
332	-0.149
332	-0.125
333	-0.102
333	-0.078
334	-0.055
334	-0.036
335	-0.016
335	-0.002
336	0.016
336	0.031
336	0.044
337	0.057
337	0.069
338	0.081
338	0.089
339	0.1
339	0.109
340	0.116
340	0.123
341	0.128
341	0.134
342	0.139
342	0.144
342	0.148
343	0.151
343	0.156
344	0.159
344	0.161
345	0.165
345	0.168
346	0.17
346	0.173
347	0.175
347	0.178
348	0.18
348	0.182
348	0.183
349	0.184
349	0.186
350	0.188
350	0.189
351	0.19
351	0.191
352	0.192
352	0.194
353	0.195
353	0.196
354	0.197
354	0.198
354	0.199
355	0.2
355	0.201
356	0.201
356	0.202
357	0.202
357	0.203
358	0.203
358	0.204
359	0.205
359	0.205
360	0.206
360	0.206
360	0.207
361	0.208
361	0.208
362	0.209
362	0.21
363	0.21
363	0.211
364	0.211
364	0.212
365	0.213
365	0.213
366	0.214
366	0.214
366	0.215
367	0.215
367	0.215
368	0.215
368	0.215
369	0.215
369	0.215
370	0.215
370	0.216
371	0.216
371	0.216
372	0.216
372	0.216
372	0.217
373	0.217
373	0.217
374	0.217
374	0.218
375	0.218
375	0.218
376	0.218
376	0.218
377	0.219
377	0.219
378	0.219
378	0.219
378	0.219
379	0.219
379	0.219
380	0.219
380	0.219
381	0.219
381	0.219
382	0.219
382	0.219
383	0.219
383	0.219
383	0.219
384	0.219
384	0.219
385	0.219
385	0.22
386	0.22
386	0.22
387	0.22
387	0.22
388	0.22
388	0.22
389	0.221
389	0.221
389	0.221
390	0.22
390	0.22
391	0.22
391	0.22
392	0.22
392	0.219
393	0.219
393	0.219
394	0.219
394	0.219
394	0.219
395	0.219
395	0.219
396	0.219
396	0.219
397	0.219
397	0.219
398	0.219
398	0.219
399	0.219
399	0.219
400	0.219
400	0.219
400	0.219
401	0.219
401	0.219
402	0.219
402	0.219
403	0.219
403	0.219
404	0.219
404	0.218
405	0.218
405	0.218
405	0.218
406	0.218
406	0.218
407	0.218
407	0.218
408	0.218
408	0.218
409	0.218
409	0.218
410	0.218
410	0.218
411	0.218
411	0.218
411	0.217
412	0.217
412	0.217
413	0.217
413	0.216
414	0.216
414	0.216
415	0.216
415	0.216
416	0.216
416	0.215
416	0.216
417	0.215
417	0.216
418	0.216
418	0.216
419	0.216
419	0.216
420	0.216
420	0.216
421	0.216
421	0.216
421	0.216
422	0.216
422	0.216
423	0.216
423	0.216
424	0.216
424	0.216
425	0.215
425	0.215
426	0.215
426	0.215
427	0.215
427	0.215
427	0.214
428	0.214
428	0.214
429	0.214
429	0.213
430	0.213
430	0.213
431	0.213
431	0.213
432	0.213
432	0.213
432	0.212
433	0.212
433	0.212
434	0.212
434	0.213
435	0.213
435	0.212
436	0.212
436	0.212
437	0.211
437	0.211
437	0.211
438	0.211
438	0.211
439	0.211
439	0.21
440	0.21
440	0.21
441	0.21
441	0.21
442	0.21
442	0.21
442	0.21
443	0.211
443	0.21
444	0.21
444	0.211
445	0.211
445	0.211
446	0.211
446	0.21
447	0.21
447	0.21
447	0.21
448	0.21
448	0.209
449	0.209
449	0.208
450	0.208
450	0.208
451	0.208
451	0.208
452	0.208
452	0.208
452	0.208
453	0.208
453	0.209
454	0.209
454	0.208
455	0.208
455	0.208
456	0.208
456	0.208
457	0.208
457	0.208
458	0.207
458	0.207
458	0.207
459	0.207
459	0.207
460	0.207
460	0.206
461	0.206
461	0.206
462	0.206
462	0.207
463	0.207
463	0.207
463	0.207
464	0.207
464	0.206
465	0.206
465	0.206
466	0.206
466	0.206
467	0.206
467	0.206
467	0.206
468	0.206
468	0.205
469	0.205
469	0.205
470	0.206
470	0.205
471	0.205
471	0.205
472	0.205
472	0.205
472	0.205
473	0.205
473	0.205
474	0.205
474	0.205
475	0.205
475	0.206
476	0.206
476	0.206
477	0.206
477	0.207
477	0.207
478	0.207
478	0.207
479	0.207
479	0.208
480	0.208
480	0.208
481	0.209
481	0.209
482	0.209
482	0.209
482	0.209
483	0.21
483	0.21
484	0.21
484	0.21
485	0.21
485	0.211
486	0.211
486	0.211
487	0.211
487	0.212
487	0.212
488	0.212
488	0.213
489	0.213
489	0.214
490	0.215
490	0.215
491	0.216
491	0.216
492	0.217
492	0.217
492	0.217
493	0.218
493	0.219
494	0.22
494	0.22
495	0.221
495	0.222
496	0.222
496	0.223
496	0.224
497	0.224
497	0.225
498	0.226
498	0.226
499	0.227
499	0.227
500	0.228
500	0.229
501	0.23
501	0.231
501	0.231
502	0.232
502	0.233
503	0.234
503	0.235
504	0.236
504	0.237
505	0.238
505	0.239
506	0.24
506	0.241
506	0.242
507	0.243
507	0.244
508	0.245
508	0.246
509	0.247
509	0.248
510	0.25
510	0.251
511	0.252
511	0.253
511	0.254
512	0.255
512	0.256
513	0.257
513	0.258
514	0.259
514	0.26
515	0.261
515	0.262
515	0.263
516	0.263
516	0.265
517	0.266
517	0.266
518	0.267
518	0.268
519	0.269
519	0.269
520	0.27
520	0.272
520	0.272
521	0.273
521	0.274
522	0.274
522	0.276
523	0.277
523	0.278
524	0.279
524	0.279
524	0.28
525	0.281
525	0.282
526	0.283
526	0.284
527	0.285
527	0.286
528	0.287
528	0.288
529	0.288
529	0.289
529	0.29
530	0.291
530	0.292
531	0.293
531	0.294
532	0.295
532	0.295
533	0.296
533	0.297
533	0.298
534	0.298
534	0.299
535	0.3
535	0.301
536	0.301
536	0.302
537	0.303
537	0.304
538	0.305
538	0.306
538	0.307
539	0.308
539	0.309
540	0.31
540	0.311
541	0.311
541	0.312
542	0.313
542	0.314
542	0.315
543	0.316
543	0.317
544	0.317
544	0.318
545	0.319
545	0.32
546	0.321
546	0.322
547	0.322
547	0.322
547	0.322
548	0.323
548	0.323
549	0.323
549	0.323
550	0.324
550	0.324
551	0.324
551	0.324
551	0.325
552	0.325
552	0.326
553	0.326
553	0.327
554	0.327
554	0.328
555	0.328
555	0.328
556	0.328
556	0.329
556	0.329
557	0.33
557	0.33
558	0.33
558	0.331
559	0.331
559	0.332
560	0.333
560	0.333
560	0.334
561	0.334
561	0.335
562	0.335
562	0.335
563	0.335
563	0.336
564	0.336
564	0.336
564	0.336
565	0.337
565	0.337
566	0.337
566	0.338
567	0.339
567	0.339
568	0.34
568	0.34
568	0.341
569	0.341
569	0.342
570	0.342
570	0.342
571	0.342
571	0.343
572	0.343
572	0.343
573	0.343
573	0.343
573	0.342
574	0.342
574	0.342
575	0.343
575	0.343
576	0.343
576	0.343
577	0.343
577	0.342
577	0.343
578	0.343
578	0.344
579	0.345
579	0.345
580	0.344
580	0.343
581	0.343
581	0.343
581	0.344
582	0.344
582	0.345
583	0.346
583	0.345
584	0.344
584	0.343
585	0.345
585	0.346
585	0.346
586	0.346
586	0.346
587	0.345
587	0.344
588	0.344
588	0.344
589	0.345
589	0.345
590	0.345
590	0.345
590	0.347
591	0.347
591	0.347
592	0.347
592	0.346
593	0.346
593	0.346
594	0.346
594	0.345
594	0.345
595	0.345
595	0.344
596	0.344
596	0.344
597	0.346
597	0.346
598	0.346
598	0.346
598	0.346
599	0.346
599	0.346
600	0.345
600	0.345
601	0.345
601	0.345
602	0.344
602	0.344
602	0.343
603	0.343
603	0.343
604	0.343
604	0.343
605	0.343
605	0.343
606	0.342
606	0.341
606	0.34
607	0.339
607	0.339
608	0.338
608	0.336
609	0.336
609	0.336
610	0.335
610	0.335
610	0.335
611	0.335
611	0.336
612	0.336
612	0.337
613	0.337
613	0.337
614	0.337
614	0.336
614	0.336
615	0.335
615	0.335
616	0.334
616	0.333
617	0.332
617	0.331
618	0.329
618	0.328
618	0.327
619	0.325
619	0.325
620	0.325
620	0.324
621	0.323
621	0.323
622	0.322
622	0.321
622	0.32
623	0.319
623	0.319
624	0.319
624	0.317
625	0.316
625	0.314
626	0.313
626	0.311
626	0.31
627	0.309
627	0.307
628	0.306
628	0.304
629	0.302
629	0.301
630	0.299
630	0.296
630	0.294
631	0.292
631	0.289
632	0.286
632	0.283
633	0.28
633	0.277
634	0.274
634	0.271
634	0.269
635	0.266
635	0.263
636	0.259
636	0.256
637	0.252
637	0.247
638	0.243
638	0.238
638	0.233
639	0.227
639	0.22
640	0.215
640	0.209
641	0.203
641	0.197
642	0.192
642	0.186
642	0.181
643	0.175
643	0.168
644	0.162
644	0.155
645	0.148
645	0.141
646	0.133
646	0.125
646	0.116
647	0.107
647	0.098
648	0.089
648	0.08
649	0.07
649	0.061
650	0.053
650	0.044
650	0.035
651	0.023
651	0.009
652	-0.008
652	-0.026
653	-0.042
653	-0.055
653	-0.053
654	-0.026
654	-0.013
655	-0.017
655	-0.023
656	-0.029
656	-0.036
657	-0.041
657	-0.046
657	-0.053
658	-0.061
658	-0.093
659	-0.194
659	-0.312
660	-0.362
660	-0.392
661	-0.422
661	-0.457
661	-0.493
662	-0.528
662	-0.564
663	-0.604
663	-0.65
664	-0.694
664	-0.747
665	-0.797
665	-0.849
665	-0.905
666	-0.964
666	-1.023
667	-1.084
667	-1.151
668	-1.217
668	-1.279
669	-1.349
669	-1.422
669	-1.501
670	-1.588
670	-1.694
671	-1.833
671	-2.056
672	-2.187
672	-2.305
672	-2.466
673	-2.615
673	-2.701
674	-2.771
674	-2.801
675	-2.816
675	-2.82
676	-2.814
676	-2.813
676	-2.886
677	-2.869
677	-2.668
678	-2.482
678	-2.311
679	-2.04
679	-1.825
680	-1.704
680	-1.606
680	-1.521
681	-1.462
681	-1.403
682	-1.359
682	-1.32
683	-1.28
683	-1.252
684	-1.214
684	-1.185
684	-1.149
685	-1.127
685	-1.106
686	-1.078
686	-1.05
687	-1.028
687	-1.017
687	-0.993
688	-0.974
688	-0.963
689	-0.946
689	-0.937
690	-0.927
690	-0.92
691	-0.913
691	-0.905
691	-0.891
692	-0.878
692	-0.879
693	-0.876
693	-0.875
694	-0.869
694	-0.865
695	-0.862
695	-0.847
695	-0.841
696	-0.845
696	-0.841
697	-0.839
697	-0.831
698	-0.818
698	-0.814
698	-0.817
699	-0.816
699	-0.811
700	-0.83
700	-0.827
701	-0.83
701	-0.842
702	-0.858
702	-0.868
702	-0.873
703	-0.872
703	-0.862
704	-0.861
704	-0.855
705	-0.854
705	-0.855
705	-0.836
706	-0.827
706	-0.81
707	-0.811
707	-0.814
708	-0.808
708	-0.813
709	-0.817
709	-0.819
709	-0.805
710	-0.814
710	-0.819
711	-0.815
711	-0.82
712	-0.803
712	-0.795
713	-0.799
713	-0.804
713	-0.796
714	-0.802
714	-0.816
715	-0.808
715	-0.825
716	-0.839
716	-0.833
716	-0.843
717	-0.855
717	-0.855
718	-0.85
718	-0.858
719	-0.86
719	-0.836
720	-0.84
720	-0.825
720	-0.824
721	-0.824
721	-0.825
722	-0.818
722	-0.817
723	-0.81
723	-0.803
723	-0.791
724	-0.803
724	-0.792
725	-0.791
725	-0.788
726	-0.796
726	-0.793
727	-0.793
727	-0.789
727	-0.792
728	-0.798
728	-0.8
729	-0.796
729	-0.812
730	-0.82
730	-0.818
730	-0.81
731	-0.8
731	-0.811
732	-0.814
732	-0.812
733	-0.812
733	-0.82
734	-0.814
734	-0.806
734	-0.786
735	-0.791
735	-0.796
736	-0.801
736	-0.783
737	-0.778
737	-0.776
737	-0.76
738	-0.755
738	-0.763
739	-0.765
739	-0.774
740	-0.777
740	-0.773
741	-0.768
741	-0.781
741	-0.782
742	-0.778
742	-0.801
743	-0.792
743	-0.79
744	-0.776
744	-0.771
744	-0.762
745	-0.767
745	-0.778
746	-0.773
746	-0.781
747	-0.788
747	-0.772
748	-0.778
748	-0.782
748	-0.797
749	-0.809
749	-0.808
750	-0.796
750	-0.791
751	-0.794
751	-0.779
751	-0.779
752	-0.788
752	-0.789
753	-0.784
753	-0.775
754	-0.772
754	-0.756
754	-0.769
755	-0.771
755	-0.78
756	-0.798
756	-0.789
757	-0.774
757	-0.774
758	-0.765
758	-0.766
758	-0.762
759	-0.781
759	-0.788
760	-0.78
760	-0.764
761	-0.761
761	-0.768
761	-0.787
762	-0.78
762	-0.791
763	-0.783
763	-0.792
764	-0.785
764	-0.775
764	-0.792
765	-0.805
765	-0.805
766	-0.801
766	-0.785
767	-0.799
767	-0.794
768	-0.802
768	-0.81
768	-0.8
769	-0.804
769	-0.789
770	-0.795
770	-0.785
771	-0.791
771	-0.796
771	-0.798
772	-0.812
772	-0.825
773	-0.813
773	-0.832
774	-0.826
774	-0.825
775	-0.811
775	-0.817
775	-0.817
776	-0.823
776	-0.82
777	-0.812
777	-0.808
778	-0.811
778	-0.805
778	-0.817
779	-0.837
779	-0.855
780	-0.864
780	-0.871
781	-0.883
781	-0.886
781	-0.901
782	-0.904
782	-0.905
783	-0.916
783	-0.924
784	-0.906
784	-0.889
784	-0.905
785	-0.905
785	-0.904
786	-0.906
786	-0.889
787	-0.875
787	-0.901
788	-0.895
788	-0.874
788	-0.868
789	-0.862
789	-0.845
790	-0.844
790	-0.837
791	-0.85
791	-0.861
791	-0.865
792	-0.839
792	-0.848
793	-0.854
793	-0.866
794	-0.871
794	-0.875
794	-0.869
795	-0.856
795	-0.836
796	-0.813
796	-0.823
797	-0.831
797	-0.814
797	-0.824
798	-0.819
798	-0.832
799	-0.821
799	-0.827
800	-0.832
800	-0.844
801	-0.863
801	-0.849
801	-0.833
802	-0.833
802	-0.81
803	-0.804
803	-0.791
804	-0.792
804	-0.79
804	-0.788
805	-0.781
805	-0.77
806	-0.765
806	-0.771
807	-0.771
807	-0.781
807	-0.784
808	-0.781
808	-0.779
809	-0.773
809	-0.762
810	-0.766
810	-0.754
810	-0.759
811	-0.752
811	-0.754
812	-0.755
812	-0.771
813	-0.77
813	-0.77
813	-0.763
814	-0.775
814	-0.763
815	-0.771
815	-0.782
816	-0.78
816	-0.785
817	-0.787
817	-0.767
817	-0.782
818	-0.788
818	-0.792
819	-0.795
819	-0.802
820	-0.789
820	-0.787
820	-0.798
821	-0.796
821	-0.796
822	-0.795
822	-0.793
823	-0.797
823	-0.797
823	-0.782
824	-0.792
824	-0.816
825	-0.807
825	-0.797
826	-0.781
826	-0.765
826	-0.765
827	-0.745
827	-0.729
828	-0.727
828	-0.723
829	-0.707
829	-0.691
829	-0.688
830	-0.685
830	-0.691
831	-0.688
831	-0.67
832	-0.671
832	-0.664
832	-0.652
833	-0.645
833	-0.64
834	-0.633
834	-0.627
835	-0.618
835	-0.609
835	-0.6
836	-0.606
836	-0.604
837	-0.599
837	-0.595
838	-0.594
838	-0.582
839	-0.574
839	-0.567
839	-0.564
840	-0.557
840	-0.552
841	-0.543
841	-0.53
842	-0.524
842	-0.51
842	-0.499
843	-0.496
843	-0.489
844	-0.478
844	-0.465
845	-0.451
845	-0.442
845	-0.426
846	-0.416
846	-0.4
847	-0.393
847	-0.38
848	-0.363
848	-0.351
848	-0.338
849	-0.322
849	-0.312
850	-0.297
850	-0.285
851	-0.274
851	-0.26
851	-0.248
852	-0.235
852	-0.222
853	-0.211
853	-0.205
854	-0.194
854	-0.183
854	-0.174
855	-0.162
855	-0.151
856	-0.141
856	-0.131
857	-0.124
857	-0.114
857	-0.102
858	-0.088
858	-0.081
859	-0.068
859	-0.057
860	-0.048
860	-0.036
860	-0.026
861	-0.017
861	-0.007
862	0
862	0.007
863	0.015
863	0.025
863	0.029
864	0.034
864	0.042
865	0.048
865	0.052
866	0.058
866	0.062
866	0.067
867	0.073
867	0.077
868	0.08
868	0.085
869	0.089
869	0.092
869	0.093
870	0.095
870	0.095
871	0.096
871	0.096
872	0.095
872	0.096
872	0.097
873	0.098
873	0.099
874	0.101
874	0.102
875	0.104
875	0.105
875	0.106
876	0.108
876	0.109
877	0.11
877	0.112
878	0.113
878	0.113
878	0.113
879	0.113
879	0.112
880	0.111
880	0.11
881	0.109
881	0.108
881	0.107
882	0.105
882	0.104
883	0.103
883	0.101
884	0.099
884	0.099
884	0.098
885	0.097
885	0.097
886	0.096
886	0.095
887	0.093
887	0.092
887	0.092
888	0.092
888	0.091
889	0.09
889	0.089
890	0.089
890	0.088
890	0.087
891	0.087
891	0.086
892	0.085
892	0.084
893	0.083
893	0.082
893	0.082
894	0.082
894	0.081
895	0.081
895	0.081
895	0.081
896	0.081
896	0.082
897	0.083
897	0.083
898	0.084
898	0.084
898	0.085
899	0.085
899	0.086
900	0.086
900	0.086
901	0.087
901	0.086
901	0.086
902	0.087
902	0.087
903	0.086
903	0.086
904	0.086
904	0.085
904	0.085
905	0.084
905	0.083
906	0.083
906	0.083
907	0.082
907	0.082
907	0.082
908	0.082
908	0.082
909	0.083
909	0.083
910	0.084
910	0.084
910	0.085
911	0.086
911	0.086
912	0.087
912	0.088
913	0.088
913	0.088
913	0.088
914	0.088
914	0.088
915	0.089
915	0.089
916	0.088
916	0.088
916	0.088
917	0.087
917	0.087
918	0.088
918	0.088
918	0.089
919	0.089
919	0.09
920	0.091
920	0.092
921	0.093
921	0.094
921	0.094
922	0.095
922	0.095
923	0.095
923	0.094
924	0.094
924	0.093
924	0.093
925	0.092
925	0.091
926	0.09
926	0.09
927	0.089
927	0.088
927	0.088
928	0.088
928	0.087
929	0.087
929	0.087
930	0.086
930	0.085
930	0.083
931	0.082
931	0.081
932	0.079
932	0.078
933	0.076
933	0.075
933	0.073
934	0.071
934	0.07
935	0.068
935	0.066
935	0.065
936	0.064
936	0.064
937	0.063
937	0.063
938	0.063
938	0.062
938	0.062
939	0.062
939	0.062
940	0.063
940	0.063
941	0.063
941	0.063
941	0.063
942	0.062
942	0.062
943	0.062
943	0.061
944	0.061
944	0.06
944	0.059
945	0.059
945	0.059
946	0.059
946	0.058
946	0.059
947	0.059
947	0.059
948	0.059
948	0.06
949	0.06
949	0.06
949	0.061
950	0.061
950	0.061
951	0.061
951	0.061
952	0.06
952	0.06
952	0.06
953	0.059
953	0.059
954	0.059
954	0.059
955	0.059
955	0.059
955	0.059
956	0.06
956	0.061
957	0.061
957	0.061
957	0.061
958	0.061
958	0.061
959	0.061
959	0.061
960	0.061
960	0.061
960	0.062
961	0.062
961	0.064
962	0.065
962	0.066
963	0.067
963	0.068
963	0.068
964	0.068
964	0.068
965	0.069
965	0.068
966	0.068
966	0.067
966	0.067
967	0.066
967	0.065
968	0.064
968	0.063
968	0.062
969	0.061
969	0.059
970	0.059
970	0.058
971	0.056
971	0.055
971	0.055
972	0.054
972	0.053
973	0.053
973	0.053
974	0.052
974	0.052
974	0.052
975	0.052
975	0.052
976	0.051
976	0.051
976	0.05
977	0.05
977	0.049
978	0.048
978	0.048
979	0.047
979	0.047
979	0.047
980	0.047
980	0.046
981	0.047
981	0.047
982	0.047
982	0.048
982	0.049
983	0.05
983	0.051
984	0.051
984	0.052
984	0.053
985	0.054
985	0.055
986	0.055
986	0.056
987	0.056
987	0.056
987	0.056
988	0.056
988	0.056
989	0.056
989	0.056
990	0.056
990	0.056
990	0.057
991	0.057
991	0.058
992	0.058
992	0.058
992	0.058
993	0.058
993	0.058
994	0.057
994	0.057
995	0.056
995	0.056
995	0.056
996	0.055
996	0.055
997	0.055
997	0.055
997	0.055
998	0.055
998	0.055
999	0.055
999	0.055
1000	0.055
1000	0.054
1000	0.054
1001	0.053
1001	0.053
1002	0.052
1002	0.051
1003	0.05
1003	0.049
1003	0.048
1004	0.047
1004	0.046
1005	0.045
1005	0.044
1005	0.043
1006	0.043
1006	0.042
1007	0.042
1007	0.041
1008	0.041
1008	0.04
1008	0.04
1009	0.039
1009	0.039
1010	0.039
1010	0.039
1010	0.038
1011	0.038
1011	0.037
1012	0.037
1012	0.037
1013	0.037
1013	0.036
1013	0.035
1014	0.035
1014	0.034
1015	0.034
1015	0.033
1016	0.032
1016	0.032
1016	0.032
1017	0.031
1017	0.031
1018	0.031
1018	0.031
1018	0.032
1019	0.032
1019	0.032
1020	0.032
1020	0.033
1021	0.033
1021	0.033
1021	0.033
1022	0.033
1022	0.032
1023	0.032
1023	0.031
1023	0.03
1024	0.029
1024	0.028
1025	0.027
1025	0.026
1026	0.026
1026	0.025
1026	0.025
1027	0.025
1027	0.025
1028	0.025
1028	0.025
1028	0.026
1029	0.027
1029	0.028
1030	0.028
1030	0.029
1031	0.03
1031	0.031
1031	0.031
1032	0.032
1032	0.032
1033	0.033
1033	0.033
1033	0.033
1034	0.032
1034	0.031
1035	0.031
1035	0.03
1036	0.029
1036	0.028
1036	0.028
1037	0.028
1037	0.027
1038	0.027
1038	0.027
1039	0.027
1039	0.028
1039	0.028
1040	0.028
1040	0.029
1041	0.029
1041	0.029
1041	0.029
1042	0.029
1042	0.03
1043	0.029
1043	0.029
1044	0.029
1044	0.029
1044	0.028
1045	0.027
1045	0.027
1046	0.026
1046	0.026
1046	0.026
1047	0.026
1047	0.026
1048	0.025
1048	0.025
1049	0.025
1049	0.025
1049	0.025
1050	0.025
1050	0.024
1051	0.023
1051	0.023
1051	0.023
1052	0.022
1052	0.022
1053	0.022
1053	0.021
1053	0.021
1054	0.02
1054	0.02
1055	0.02
1055	0.02
1056	0.019
1056	0.019
1056	0.019
1057	0.018
1057	0.017
1058	0.016
1058	0.016
1058	0.015
1059	0.015
1059	0.014
1060	0.013
1060	0.012
1061	0.011
1061	0.011
1061	0.011
1062	0.01
1062	0.01
1063	0.01
1063	0.009
1063	0.009
1064	0.008
1064	0.008
1065	0.008
1065	0.008
1066	0.007
1066	0.006
1066	0.006
1067	0.005
1067	0.004
1068	0.003
1068	0.003
1068	0.002
1069	0.001
1069	-0
1070	-0.001
1070	-0.002
1071	-0.003
1071	-0.004
1071	-0.005
1072	-0.005
1072	-0.005
1073	-0.006
1073	-0.006
1073	-0.006
1074	-0.006
1074	-0.006
1075	-0.006
1075	-0.006
1076	-0.006
1076	-0.006
1076	-0.007
1077	-0.007
1077	-0.007
1078	-0.008
1078	-0.008
1078	-0.008
1079	-0.008
1079	-0.008
1080	-0.008
1080	-0.008
1080	-0.008
1081	-0.008
1081	-0.007
1082	-0.007
1082	-0.008
1083	-0.008
1083	-0.009
1083	-0.009
1084	-0.01
1084	-0.01
1085	-0.01
1085	-0.011
1085	-0.012
1086	-0.012
1086	-0.014
1087	-0.014
1087	-0.014
1088	-0.015
1088	-0.016
1088	-0.017
1089	-0.02
1089	-0.021
1090	-0.023
1090	-0.024
1090	-0.026
1091	-0.027
1091	-0.028
1092	-0.03
1092	-0.03
1092	-0.031
1093	-0.033
1093	-0.032
1094	-0.033
1094	-0.034
1095	-0.036
1095	-0.037
1095	-0.038
1096	-0.039
1096	-0.041
1097	-0.043
1097	-0.045
1097	-0.046
1098	-0.048
1098	-0.051
1099	-0.052
1099	-0.054
1100	-0.055
1100	-0.057
1100	-0.06
1101	-0.062
1101	-0.064
1102	-0.067
1102	-0.069
1102	-0.071
1103	-0.074
1103	-0.075
1104	-0.077
1104	-0.081
1104	-0.083
1105	-0.085
1105	-0.088
1106	-0.092
1106	-0.094
1107	-0.099
1107	-0.103
1107	-0.108
1108	-0.11
1108	-0.113
1109	-0.115
1109	-0.119
1109	-0.124
1110	-0.126
1110	-0.13
1111	-0.136
1111	-0.134
