Data from 40to5_hyst_3.5A_10sec_80mins_Absorbance__287__00909.txt Node

Date: Mon Jun 26 11:44:10 CEST 2023
User: Marek
Spectrometer: MAYP115816
Trigger mode: 0
Integration Time (sec): 2.500000E-1
Scans to average: 10
Electric dark correction enabled: true
Nonlinearity correction enabled: true
Boxcar width: 5
XAxis mode: Wavelengths
Number of Pixels in Spectrum: 2068
>>>>>Begin Spectral Data<<<<<
199	-0.77
199	-0.757
200	-0.728
200	-0.672
201	-0.633
201	-0.606
202	-0.586
202	-0.59
203	-0.584
203	-0.575
204	-0.559
204	-0.541
205	-0.524
205	-0.512
205	-0.517
206	-0.515
206	-0.527
207	-0.527
207	-0.524
208	-0.531
208	-0.535
209	-0.539
209	-0.55
210	-0.557
210	-0.559
211	-0.56
211	-0.57
212	-0.568
212	-0.575
213	-0.58
213	-0.578
213	-0.578
214	-0.578
214	-0.579
215	-0.574
215	-0.579
216	-0.576
216	-0.58
217	-0.577
217	-0.576
218	-0.573
218	-0.572
219	-0.574
219	-0.577
220	-0.578
220	-0.585
221	-0.596
221	-0.604
221	-0.601
222	-0.607
222	-0.606
223	-0.611
223	-0.609
224	-0.617
224	-0.607
225	-0.607
225	-0.609
226	-0.606
226	-0.604
227	-0.605
227	-0.613
228	-0.608
228	-0.609
229	-0.611
229	-0.604
229	-0.61
230	-0.613
230	-0.612
231	-0.599
231	-0.589
232	-0.586
232	-0.577
233	-0.591
233	-0.585
234	-0.592
234	-0.591
235	-0.592
235	-0.59
236	-0.592
236	-0.598
236	-0.606
237	-0.604
237	-0.601
238	-0.591
238	-0.597
239	-0.589
239	-0.592
240	-0.591
240	-0.591
241	-0.59
241	-0.593
242	-0.6
242	-0.608
243	-0.616
243	-0.624
243	-0.625
244	-0.625
244	-0.626
245	-0.639
245	-0.644
246	-0.652
246	-0.65
247	-0.652
247	-0.649
248	-0.645
248	-0.64
249	-0.644
249	-0.65
250	-0.655
250	-0.643
250	-0.636
251	-0.643
251	-0.649
252	-0.644
252	-0.644
253	-0.65
253	-0.66
254	-0.66
254	-0.662
255	-0.672
255	-0.678
256	-0.681
256	-0.678
257	-0.681
257	-0.681
258	-0.69
258	-0.689
258	-0.69
259	-0.688
259	-0.693
260	-0.687
260	-0.692
261	-0.693
261	-0.69
262	-0.689
262	-0.699
263	-0.693
263	-0.701
264	-0.706
264	-0.706
265	-0.703
265	-0.704
265	-0.703
266	-0.705
266	-0.711
267	-0.722
267	-0.718
268	-0.725
268	-0.715
269	-0.707
269	-0.717
270	-0.726
270	-0.723
271	-0.732
271	-0.739
272	-0.739
272	-0.725
272	-0.736
273	-0.735
273	-0.738
274	-0.733
274	-0.725
275	-0.722
275	-0.736
276	-0.73
276	-0.729
277	-0.725
277	-0.733
278	-0.737
278	-0.736
278	-0.752
279	-0.76
279	-0.763
280	-0.765
280	-0.76
281	-0.764
281	-0.782
282	-0.779
282	-0.782
283	-0.774
283	-0.785
284	-0.775
284	-0.773
285	-0.783
285	-0.768
285	-0.755
286	-0.756
286	-0.733
287	-0.739
287	-0.729
288	-0.716
288	-0.709
289	-0.702
289	-0.712
290	-0.707
290	-0.706
291	-0.711
291	-0.701
292	-0.703
292	-0.706
292	-0.714
293	-0.724
293	-0.719
294	-0.727
294	-0.711
295	-0.711
295	-0.714
296	-0.716
296	-0.72
297	-0.718
297	-0.707
298	-0.704
298	-0.701
298	-0.696
299	-0.684
299	-0.691
300	-0.69
300	-0.685
301	-0.679
301	-0.679
302	-0.683
302	-0.681
303	-0.668
303	-0.662
304	-0.664
304	-0.663
305	-0.659
305	-0.651
305	-0.661
306	-0.656
306	-0.653
307	-0.645
307	-0.646
308	-0.647
308	-0.646
309	-0.643
309	-0.644
310	-0.633
310	-0.629
311	-0.619
311	-0.616
311	-0.61
312	-0.598
312	-0.594
313	-0.583
313	-0.582
314	-0.582
314	-0.585
315	-0.587
315	-0.587
316	-0.583
316	-0.58
317	-0.574
317	-0.578
318	-0.572
318	-0.575
318	-0.561
319	-0.556
319	-0.537
320	-0.533
320	-0.536
321	-0.527
321	-0.525
322	-0.52
322	-0.515
323	-0.516
323	-0.511
324	-0.514
324	-0.503
324	-0.501
325	-0.484
325	-0.463
326	-0.46
326	-0.44
327	-0.429
327	-0.411
328	-0.383
328	-0.364
329	-0.342
329	-0.319
330	-0.291
330	-0.266
330	-0.24
331	-0.215
331	-0.189
332	-0.161
332	-0.136
333	-0.115
333	-0.09
334	-0.068
334	-0.049
335	-0.03
335	-0.015
336	0.002
336	0.018
336	0.03
337	0.042
337	0.054
338	0.066
338	0.074
339	0.084
339	0.093
340	0.099
340	0.106
341	0.111
341	0.116
342	0.123
342	0.127
342	0.131
343	0.134
343	0.138
344	0.141
344	0.143
345	0.147
345	0.149
346	0.152
346	0.154
347	0.156
347	0.158
348	0.16
348	0.162
348	0.164
349	0.165
349	0.166
350	0.168
350	0.169
351	0.17
351	0.171
352	0.172
352	0.173
353	0.175
353	0.176
354	0.177
354	0.177
354	0.178
355	0.179
355	0.18
356	0.18
356	0.181
357	0.182
357	0.183
358	0.183
358	0.183
359	0.184
359	0.184
360	0.185
360	0.185
360	0.185
361	0.186
361	0.187
362	0.187
362	0.187
363	0.188
363	0.189
364	0.189
364	0.19
365	0.19
365	0.191
366	0.191
366	0.192
366	0.192
367	0.192
367	0.192
368	0.192
368	0.192
369	0.192
369	0.192
370	0.192
370	0.192
371	0.192
371	0.192
372	0.192
372	0.193
372	0.193
373	0.193
373	0.193
374	0.194
374	0.194
375	0.194
375	0.194
376	0.194
376	0.195
377	0.195
377	0.195
378	0.195
378	0.195
378	0.195
379	0.195
379	0.195
380	0.195
380	0.195
381	0.195
381	0.195
382	0.195
382	0.195
383	0.195
383	0.195
383	0.195
384	0.195
384	0.195
385	0.195
385	0.195
386	0.195
386	0.195
387	0.195
387	0.195
388	0.196
388	0.196
389	0.196
389	0.196
389	0.196
390	0.196
390	0.196
391	0.196
391	0.196
392	0.196
392	0.196
393	0.196
393	0.196
394	0.195
394	0.195
394	0.195
395	0.195
395	0.195
396	0.195
396	0.195
397	0.195
397	0.195
398	0.195
398	0.195
399	0.195
399	0.195
400	0.195
400	0.195
400	0.195
401	0.195
401	0.195
402	0.195
402	0.195
403	0.195
403	0.195
404	0.194
404	0.194
405	0.194
405	0.194
405	0.194
406	0.194
406	0.194
407	0.194
407	0.194
408	0.194
408	0.194
409	0.194
409	0.194
410	0.194
410	0.194
411	0.194
411	0.194
411	0.193
412	0.193
412	0.193
413	0.193
413	0.193
414	0.192
414	0.192
415	0.192
415	0.192
416	0.192
416	0.192
416	0.192
417	0.192
417	0.192
418	0.192
418	0.192
419	0.192
419	0.192
420	0.192
420	0.192
421	0.193
421	0.192
421	0.192
422	0.192
422	0.193
423	0.192
423	0.192
424	0.192
424	0.192
425	0.192
425	0.192
426	0.192
426	0.192
427	0.192
427	0.192
427	0.192
428	0.191
428	0.191
429	0.191
429	0.191
430	0.191
430	0.19
431	0.19
431	0.19
432	0.19
432	0.19
432	0.19
433	0.19
433	0.19
434	0.19
434	0.19
435	0.19
435	0.19
436	0.19
436	0.19
437	0.189
437	0.189
437	0.189
438	0.189
438	0.189
439	0.188
439	0.188
440	0.188
440	0.188
441	0.188
441	0.188
442	0.188
442	0.188
442	0.188
443	0.188
443	0.188
444	0.189
444	0.189
445	0.189
445	0.189
446	0.188
446	0.188
447	0.188
447	0.188
447	0.188
448	0.187
448	0.187
449	0.187
449	0.186
450	0.186
450	0.186
451	0.186
451	0.186
452	0.186
452	0.186
452	0.187
453	0.187
453	0.187
454	0.187
454	0.187
455	0.187
455	0.187
456	0.187
456	0.187
457	0.187
457	0.187
458	0.187
458	0.187
458	0.187
459	0.186
459	0.186
460	0.186
460	0.186
461	0.186
461	0.186
462	0.186
462	0.186
463	0.186
463	0.186
463	0.186
464	0.186
464	0.186
465	0.186
465	0.186
466	0.186
466	0.186
467	0.186
467	0.186
467	0.186
468	0.185
468	0.185
469	0.186
469	0.186
470	0.186
470	0.186
471	0.186
471	0.186
472	0.185
472	0.185
472	0.185
473	0.186
473	0.186
474	0.186
474	0.186
475	0.186
475	0.186
476	0.186
476	0.186
477	0.187
477	0.187
477	0.187
478	0.188
478	0.188
479	0.188
479	0.188
480	0.189
480	0.189
481	0.19
481	0.19
482	0.19
482	0.19
482	0.191
483	0.191
483	0.192
484	0.192
484	0.192
485	0.192
485	0.192
486	0.192
486	0.192
487	0.193
487	0.193
487	0.194
488	0.194
488	0.194
489	0.195
489	0.195
490	0.196
490	0.196
491	0.197
491	0.198
492	0.198
492	0.198
492	0.199
493	0.199
493	0.2
494	0.201
494	0.202
495	0.202
495	0.203
496	0.203
496	0.204
496	0.205
497	0.205
497	0.206
498	0.207
498	0.207
499	0.207
499	0.208
500	0.209
500	0.21
501	0.211
501	0.212
501	0.212
502	0.213
502	0.214
503	0.215
503	0.216
504	0.216
504	0.217
505	0.219
505	0.219
506	0.22
506	0.222
506	0.222
507	0.223
507	0.224
508	0.225
508	0.226
509	0.228
509	0.228
510	0.23
510	0.231
511	0.232
511	0.233
511	0.234
512	0.235
512	0.236
513	0.237
513	0.238
514	0.239
514	0.24
515	0.24
515	0.241
515	0.242
516	0.243
516	0.244
517	0.244
517	0.245
518	0.246
518	0.246
519	0.247
519	0.248
520	0.249
520	0.249
520	0.25
521	0.251
521	0.251
522	0.251
522	0.252
523	0.253
523	0.254
524	0.255
524	0.255
524	0.256
525	0.257
525	0.257
526	0.258
526	0.259
527	0.26
527	0.26
528	0.261
528	0.261
529	0.261
529	0.262
529	0.263
530	0.263
530	0.264
531	0.264
531	0.265
532	0.266
532	0.266
533	0.266
533	0.267
533	0.267
534	0.267
534	0.267
535	0.268
535	0.268
536	0.268
536	0.269
537	0.269
537	0.27
538	0.27
538	0.271
538	0.271
539	0.272
539	0.273
540	0.274
540	0.274
541	0.274
541	0.274
542	0.275
542	0.275
542	0.276
543	0.276
543	0.276
544	0.277
544	0.277
545	0.277
545	0.277
546	0.278
546	0.278
547	0.277
547	0.277
547	0.277
548	0.277
548	0.277
549	0.276
549	0.276
550	0.276
550	0.276
551	0.276
551	0.276
551	0.276
552	0.276
552	0.275
553	0.276
553	0.276
554	0.276
554	0.275
555	0.275
555	0.275
556	0.275
556	0.275
556	0.275
557	0.275
557	0.275
558	0.275
558	0.274
559	0.275
559	0.275
560	0.274
560	0.274
560	0.274
561	0.274
561	0.274
562	0.274
562	0.274
563	0.274
563	0.274
564	0.273
564	0.273
564	0.273
565	0.274
565	0.274
566	0.273
566	0.274
567	0.274
567	0.275
568	0.275
568	0.275
568	0.275
569	0.275
569	0.276
570	0.275
570	0.275
571	0.275
571	0.275
572	0.275
572	0.275
573	0.274
573	0.274
573	0.273
574	0.273
574	0.272
575	0.272
575	0.273
576	0.273
576	0.272
577	0.271
577	0.271
577	0.271
578	0.271
578	0.271
579	0.272
579	0.273
580	0.271
580	0.27
581	0.269
581	0.269
581	0.27
582	0.27
582	0.271
583	0.271
583	0.271
584	0.269
584	0.268
585	0.27
585	0.27
585	0.27
586	0.271
586	0.27
587	0.27
587	0.269
588	0.268
588	0.269
589	0.269
589	0.269
590	0.27
590	0.27
590	0.271
591	0.271
591	0.271
592	0.271
592	0.27
593	0.27
593	0.27
594	0.27
594	0.269
594	0.269
595	0.269
595	0.268
596	0.268
596	0.268
597	0.269
597	0.27
598	0.27
598	0.27
598	0.27
599	0.271
599	0.27
600	0.27
600	0.269
601	0.27
601	0.269
602	0.269
602	0.269
602	0.268
603	0.268
603	0.269
604	0.269
604	0.269
605	0.269
605	0.269
606	0.268
606	0.267
606	0.266
607	0.266
607	0.266
608	0.265
608	0.264
609	0.263
609	0.264
610	0.263
610	0.263
610	0.263
611	0.264
611	0.264
612	0.265
612	0.265
613	0.266
613	0.266
614	0.266
614	0.266
614	0.266
615	0.265
615	0.265
616	0.264
616	0.264
617	0.263
617	0.262
618	0.261
618	0.26
618	0.259
619	0.258
619	0.258
620	0.258
620	0.258
621	0.258
621	0.258
622	0.257
622	0.257
622	0.256
623	0.255
623	0.256
624	0.255
624	0.254
625	0.253
625	0.252
626	0.251
626	0.25
626	0.249
627	0.249
627	0.248
628	0.247
628	0.246
629	0.245
629	0.244
630	0.243
630	0.241
630	0.24
631	0.238
631	0.237
632	0.234
632	0.233
633	0.231
633	0.229
634	0.227
634	0.225
634	0.224
635	0.222
635	0.22
636	0.218
636	0.215
637	0.213
637	0.209
638	0.206
638	0.202
638	0.198
639	0.194
639	0.189
640	0.185
640	0.18
641	0.176
641	0.172
642	0.168
642	0.164
642	0.16
643	0.155
643	0.15
644	0.145
644	0.14
645	0.135
645	0.129
646	0.122
646	0.115
646	0.108
647	0.1
647	0.093
648	0.084
648	0.076
649	0.068
649	0.06
650	0.053
650	0.045
650	0.036
651	0.026
651	0.013
652	-0.002
652	-0.018
653	-0.033
653	-0.046
653	-0.043
654	-0.02
654	-0.008
655	-0.012
655	-0.018
656	-0.023
656	-0.03
657	-0.035
657	-0.04
657	-0.047
658	-0.054
658	-0.085
659	-0.178
659	-0.286
660	-0.334
660	-0.362
661	-0.39
661	-0.423
661	-0.457
662	-0.491
662	-0.525
663	-0.562
663	-0.605
664	-0.646
664	-0.697
665	-0.745
665	-0.795
665	-0.849
666	-0.905
666	-0.961
667	-1.021
667	-1.085
668	-1.15
668	-1.211
669	-1.279
669	-1.35
669	-1.428
670	-1.513
670	-1.615
671	-1.75
671	-1.97
672	-2.135
672	-2.268
672	-2.437
673	-2.592
673	-2.683
674	-2.756
674	-2.787
675	-2.803
675	-2.807
676	-2.803
676	-2.81
676	-2.882
677	-2.863
677	-2.661
678	-2.471
678	-2.295
679	-2.008
679	-1.77
680	-1.645
680	-1.546
680	-1.462
681	-1.403
681	-1.346
682	-1.303
682	-1.266
683	-1.227
683	-1.199
684	-1.163
684	-1.136
684	-1.104
685	-1.086
685	-1.068
686	-1.042
686	-1.015
687	-0.995
687	-0.985
687	-0.962
688	-0.945
688	-0.935
689	-0.919
689	-0.91
690	-0.899
690	-0.891
691	-0.884
691	-0.88
691	-0.865
692	-0.853
692	-0.855
693	-0.853
693	-0.854
694	-0.849
694	-0.845
695	-0.842
695	-0.83
695	-0.826
696	-0.828
696	-0.826
697	-0.824
697	-0.816
698	-0.804
698	-0.799
698	-0.803
699	-0.804
699	-0.801
700	-0.821
700	-0.817
701	-0.821
701	-0.835
702	-0.852
702	-0.861
702	-0.865
703	-0.868
703	-0.859
704	-0.859
704	-0.853
705	-0.851
705	-0.852
705	-0.832
706	-0.823
706	-0.807
707	-0.809
707	-0.812
708	-0.801
708	-0.804
709	-0.806
709	-0.809
709	-0.795
710	-0.803
710	-0.809
711	-0.803
711	-0.808
712	-0.792
712	-0.782
713	-0.791
713	-0.799
713	-0.792
714	-0.799
714	-0.813
715	-0.807
715	-0.82
716	-0.837
716	-0.83
716	-0.84
717	-0.856
717	-0.853
718	-0.846
718	-0.855
719	-0.857
719	-0.832
720	-0.834
720	-0.823
720	-0.82
721	-0.819
721	-0.82
722	-0.811
722	-0.811
723	-0.804
723	-0.795
723	-0.784
724	-0.794
724	-0.785
725	-0.782
725	-0.781
726	-0.787
726	-0.784
727	-0.785
727	-0.78
727	-0.785
728	-0.793
728	-0.796
729	-0.793
729	-0.81
730	-0.816
730	-0.814
730	-0.809
731	-0.803
731	-0.815
732	-0.819
732	-0.815
733	-0.814
733	-0.819
734	-0.814
734	-0.804
734	-0.787
735	-0.792
735	-0.795
736	-0.798
736	-0.78
737	-0.777
737	-0.776
737	-0.76
738	-0.758
738	-0.768
739	-0.772
739	-0.779
740	-0.783
740	-0.779
741	-0.772
741	-0.785
741	-0.784
742	-0.779
742	-0.804
743	-0.793
743	-0.79
744	-0.777
744	-0.772
744	-0.761
745	-0.765
745	-0.777
746	-0.769
746	-0.779
747	-0.786
747	-0.768
748	-0.775
748	-0.777
748	-0.791
749	-0.802
749	-0.803
750	-0.793
750	-0.789
751	-0.793
751	-0.775
751	-0.775
752	-0.783
752	-0.786
753	-0.783
753	-0.775
754	-0.775
754	-0.759
754	-0.773
755	-0.774
755	-0.783
756	-0.803
756	-0.794
757	-0.781
757	-0.776
758	-0.767
758	-0.767
758	-0.763
759	-0.782
759	-0.786
760	-0.778
760	-0.76
761	-0.758
761	-0.762
761	-0.781
762	-0.775
762	-0.786
763	-0.777
763	-0.784
764	-0.777
764	-0.768
764	-0.784
765	-0.799
765	-0.8
766	-0.8
766	-0.784
767	-0.8
767	-0.794
768	-0.803
768	-0.81
768	-0.802
769	-0.807
769	-0.794
770	-0.8
770	-0.788
771	-0.793
771	-0.797
771	-0.798
772	-0.814
772	-0.826
773	-0.812
773	-0.833
774	-0.825
774	-0.827
775	-0.813
775	-0.818
775	-0.817
776	-0.825
776	-0.819
777	-0.812
777	-0.809
778	-0.815
778	-0.804
778	-0.817
779	-0.834
779	-0.851
780	-0.861
780	-0.866
781	-0.876
781	-0.883
781	-0.895
782	-0.898
782	-0.899
783	-0.91
783	-0.918
784	-0.901
784	-0.884
784	-0.899
785	-0.901
785	-0.902
786	-0.904
786	-0.889
787	-0.876
787	-0.902
788	-0.899
788	-0.875
788	-0.869
789	-0.866
789	-0.851
790	-0.851
790	-0.842
791	-0.852
791	-0.864
791	-0.865
792	-0.839
792	-0.846
793	-0.856
793	-0.869
794	-0.873
794	-0.877
794	-0.869
795	-0.859
795	-0.841
796	-0.821
796	-0.831
797	-0.841
797	-0.82
797	-0.829
798	-0.823
798	-0.836
799	-0.823
799	-0.834
800	-0.838
800	-0.852
801	-0.866
801	-0.853
801	-0.839
802	-0.839
802	-0.816
803	-0.81
803	-0.797
804	-0.797
804	-0.793
804	-0.791
805	-0.781
805	-0.772
806	-0.768
806	-0.772
807	-0.774
807	-0.784
807	-0.789
808	-0.787
808	-0.786
809	-0.776
809	-0.765
810	-0.77
810	-0.759
810	-0.762
811	-0.754
811	-0.756
812	-0.756
812	-0.771
813	-0.768
813	-0.768
813	-0.764
814	-0.776
814	-0.759
815	-0.765
815	-0.777
816	-0.773
816	-0.777
817	-0.782
817	-0.762
817	-0.778
818	-0.784
818	-0.789
819	-0.792
819	-0.801
820	-0.79
820	-0.786
820	-0.799
821	-0.798
821	-0.797
822	-0.798
822	-0.796
823	-0.801
823	-0.799
823	-0.784
824	-0.793
824	-0.82
825	-0.812
825	-0.802
826	-0.786
826	-0.772
826	-0.769
827	-0.747
827	-0.732
828	-0.731
828	-0.726
829	-0.712
829	-0.692
829	-0.688
830	-0.686
830	-0.693
831	-0.689
831	-0.672
832	-0.673
832	-0.666
832	-0.653
833	-0.645
833	-0.638
834	-0.632
834	-0.628
835	-0.62
835	-0.61
835	-0.603
836	-0.607
836	-0.605
837	-0.6
837	-0.595
838	-0.595
838	-0.584
839	-0.576
839	-0.568
839	-0.563
840	-0.555
840	-0.549
841	-0.54
841	-0.528
842	-0.523
842	-0.509
842	-0.5
843	-0.497
843	-0.492
844	-0.481
844	-0.468
845	-0.456
845	-0.447
845	-0.431
846	-0.421
846	-0.403
847	-0.398
847	-0.384
848	-0.366
848	-0.352
848	-0.339
849	-0.322
849	-0.31
850	-0.296
850	-0.285
851	-0.272
851	-0.259
851	-0.246
852	-0.232
852	-0.22
853	-0.21
853	-0.201
854	-0.19
854	-0.179
854	-0.168
855	-0.157
855	-0.145
856	-0.136
856	-0.127
857	-0.117
857	-0.109
857	-0.095
858	-0.083
858	-0.075
859	-0.063
859	-0.051
860	-0.043
860	-0.03
860	-0.019
861	-0.009
861	0.001
862	0.009
862	0.016
863	0.023
863	0.032
863	0.038
864	0.043
864	0.051
865	0.057
865	0.062
866	0.068
866	0.073
866	0.078
867	0.083
867	0.088
868	0.091
868	0.095
869	0.099
869	0.101
869	0.103
870	0.105
870	0.106
871	0.107
871	0.106
872	0.106
872	0.107
872	0.107
873	0.109
873	0.11
874	0.111
874	0.113
875	0.114
875	0.115
875	0.116
876	0.117
876	0.118
877	0.119
877	0.121
878	0.121
878	0.121
878	0.122
879	0.121
879	0.121
880	0.119
880	0.118
881	0.117
881	0.116
881	0.115
882	0.114
882	0.113
883	0.112
883	0.11
884	0.109
884	0.108
884	0.107
885	0.107
885	0.106
886	0.105
886	0.103
887	0.102
887	0.101
887	0.1
888	0.1
888	0.1
889	0.098
889	0.097
890	0.097
890	0.096
890	0.095
891	0.095
891	0.094
892	0.093
892	0.092
893	0.091
893	0.09
893	0.09
894	0.09
894	0.09
895	0.09
895	0.091
895	0.091
896	0.092
896	0.092
897	0.093
897	0.094
898	0.095
898	0.095
898	0.096
899	0.096
899	0.097
900	0.097
900	0.097
901	0.098
901	0.098
901	0.097
902	0.098
902	0.098
903	0.098
903	0.098
904	0.098
904	0.097
904	0.097
905	0.096
905	0.096
906	0.095
906	0.095
907	0.094
907	0.094
907	0.094
908	0.093
908	0.094
909	0.094
909	0.094
910	0.095
910	0.095
910	0.096
911	0.096
911	0.097
912	0.097
912	0.098
913	0.098
913	0.098
913	0.098
914	0.098
914	0.098
915	0.098
915	0.099
916	0.099
916	0.099
916	0.099
917	0.099
917	0.099
918	0.099
918	0.099
918	0.1
919	0.101
919	0.101
920	0.102
920	0.103
921	0.104
921	0.105
921	0.105
922	0.106
922	0.106
923	0.106
923	0.106
924	0.105
924	0.105
924	0.104
925	0.104
925	0.103
926	0.102
926	0.102
927	0.101
927	0.101
927	0.1
928	0.1
928	0.1
929	0.099
929	0.098
930	0.097
930	0.096
930	0.095
931	0.094
931	0.093
932	0.091
932	0.09
933	0.088
933	0.087
933	0.085
934	0.083
934	0.082
935	0.081
935	0.079
935	0.078
936	0.077
936	0.077
937	0.077
937	0.077
938	0.077
938	0.077
938	0.077
939	0.077
939	0.077
940	0.077
940	0.078
941	0.078
941	0.077
941	0.077
942	0.077
942	0.076
943	0.075
943	0.075
944	0.075
944	0.074
944	0.073
945	0.074
945	0.073
946	0.074
946	0.074
946	0.074
947	0.075
947	0.075
948	0.076
948	0.077
949	0.078
949	0.078
949	0.079
950	0.079
950	0.079
951	0.08
951	0.079
952	0.079
952	0.078
952	0.078
953	0.078
953	0.078
954	0.078
954	0.078
955	0.078
955	0.078
955	0.079
956	0.079
956	0.08
957	0.08
957	0.081
957	0.081
958	0.081
958	0.082
959	0.082
959	0.083
960	0.083
960	0.084
960	0.084
961	0.085
961	0.086
962	0.087
962	0.088
963	0.089
963	0.089
963	0.089
964	0.089
964	0.088
965	0.088
965	0.088
966	0.087
966	0.086
966	0.086
967	0.085
967	0.084
968	0.082
968	0.081
968	0.08
969	0.079
969	0.078
970	0.077
970	0.076
971	0.075
971	0.074
971	0.073
972	0.073
972	0.072
973	0.072
973	0.072
974	0.072
974	0.071
974	0.071
975	0.071
975	0.071
976	0.07
976	0.069
976	0.069
977	0.068
977	0.067
978	0.066
978	0.066
979	0.065
979	0.064
979	0.064
980	0.064
980	0.064
981	0.064
981	0.064
982	0.065
982	0.066
982	0.066
983	0.067
983	0.068
984	0.068
984	0.069
984	0.07
985	0.07
985	0.071
986	0.071
986	0.071
987	0.071
987	0.07
987	0.07
988	0.07
988	0.07
989	0.07
989	0.07
990	0.07
990	0.07
990	0.07
991	0.071
991	0.071
992	0.071
992	0.071
992	0.071
993	0.07
993	0.07
994	0.07
994	0.069
995	0.068
995	0.068
995	0.068
996	0.067
996	0.067
997	0.066
997	0.066
997	0.066
998	0.066
998	0.066
999	0.066
999	0.066
1000	0.065
1000	0.065
1000	0.064
1001	0.064
1001	0.063
1002	0.063
1002	0.062
1003	0.061
1003	0.06
1003	0.059
1004	0.058
1004	0.057
1005	0.056
1005	0.056
1005	0.055
1006	0.054
1006	0.053
1007	0.052
1007	0.052
1008	0.051
1008	0.051
1008	0.05
1009	0.05
1009	0.05
1010	0.049
1010	0.049
1010	0.049
1011	0.049
1011	0.049
1012	0.048
1012	0.048
1013	0.048
1013	0.048
1013	0.047
1014	0.047
1014	0.046
1015	0.045
1015	0.045
1016	0.044
1016	0.044
1016	0.043
1017	0.043
1017	0.043
1018	0.043
1018	0.043
1018	0.043
1019	0.044
1019	0.044
1020	0.044
1020	0.044
1021	0.044
1021	0.044
1021	0.044
1022	0.043
1022	0.043
1023	0.042
1023	0.041
1023	0.04
1024	0.04
1024	0.038
1025	0.037
1025	0.037
1026	0.036
1026	0.036
1026	0.035
1027	0.035
1027	0.035
1028	0.035
1028	0.036
1028	0.036
1029	0.037
1029	0.038
1030	0.038
1030	0.039
1031	0.04
1031	0.041
1031	0.041
1032	0.041
1032	0.042
1033	0.042
1033	0.042
1033	0.042
1034	0.041
1034	0.04
1035	0.039
1035	0.039
1036	0.038
1036	0.038
1036	0.037
1037	0.037
1037	0.037
1038	0.037
1038	0.037
1039	0.038
1039	0.038
1039	0.039
1040	0.039
1040	0.039
1041	0.04
1041	0.04
1041	0.04
1042	0.04
1042	0.04
1043	0.04
1043	0.04
1044	0.04
1044	0.039
1044	0.039
1045	0.039
1045	0.038
1046	0.038
1046	0.037
1046	0.038
1047	0.037
1047	0.037
1048	0.037
1048	0.037
1049	0.037
1049	0.037
1049	0.037
1050	0.037
1050	0.036
1051	0.035
1051	0.035
1051	0.034
1052	0.034
1052	0.034
1053	0.033
1053	0.033
1053	0.033
1054	0.033
1054	0.032
1055	0.032
1055	0.032
1056	0.032
1056	0.032
1056	0.031
1057	0.031
1057	0.03
1058	0.029
1058	0.029
1058	0.028
1059	0.027
1059	0.026
1060	0.025
1060	0.025
1061	0.024
1061	0.023
1061	0.023
1062	0.022
1062	0.022
1063	0.022
1063	0.021
1063	0.021
1064	0.021
1064	0.021
1065	0.02
1065	0.02
1066	0.019
1066	0.019
1066	0.018
1067	0.018
1067	0.017
1068	0.016
1068	0.015
1068	0.014
1069	0.013
1069	0.012
1070	0.012
1070	0.011
1071	0.01
1071	0.009
1071	0.009
1072	0.008
1072	0.008
1073	0.007
1073	0.006
1073	0.006
1074	0.006
1074	0.006
1075	0.006
1075	0.005
1076	0.005
1076	0.005
1076	0.005
1077	0.004
1077	0.004
1078	0.004
1078	0.004
1078	0.004
1079	0.004
1079	0.004
1080	0.004
1080	0.004
1080	0.004
1081	0.004
1081	0.005
1082	0.005
1082	0.005
1083	0.005
1083	0.004
1083	0.003
1084	0.002
1084	0.002
1085	0.001
1085	0
1085	-0
1086	-0.001
1086	-0.003
1087	-0.003
1087	-0.004
1088	-0.005
1088	-0.006
1088	-0.007
1089	-0.009
1089	-0.01
1090	-0.012
1090	-0.013
1090	-0.015
1091	-0.016
1091	-0.017
1092	-0.018
1092	-0.018
1092	-0.019
1093	-0.021
1093	-0.02
1094	-0.021
1094	-0.021
1095	-0.023
1095	-0.024
1095	-0.025
1096	-0.027
1096	-0.029
1097	-0.03
1097	-0.032
1097	-0.034
1098	-0.036
1098	-0.039
1099	-0.04
1099	-0.042
1100	-0.044
1100	-0.046
1100	-0.048
1101	-0.05
1101	-0.054
1102	-0.057
1102	-0.06
1102	-0.061
1103	-0.064
1103	-0.066
1104	-0.068
1104	-0.071
1104	-0.072
1105	-0.075
1105	-0.078
1106	-0.082
1106	-0.084
1107	-0.09
1107	-0.093
1107	-0.098
1108	-0.101
1108	-0.104
1109	-0.107
1109	-0.111
1109	-0.116
1110	-0.118
1110	-0.122
1111	-0.13
1111	-0.127
