Data from 40to5_hyst_3.5A_10sec_80mins_Absorbance__214__00836.txt Node

Date: Mon Jun 26 11:31:58 CEST 2023
User: Marek
Spectrometer: MAYP115816
Trigger mode: 0
Integration Time (sec): 2.500000E-1
Scans to average: 10
Electric dark correction enabled: true
Nonlinearity correction enabled: true
Boxcar width: 5
XAxis mode: Wavelengths
Number of Pixels in Spectrum: 2068
>>>>>Begin Spectral Data<<<<<
199	-0.789
199	-0.758
200	-0.723
200	-0.668
201	-0.628
201	-0.6
202	-0.579
202	-0.584
203	-0.578
203	-0.569
204	-0.55
204	-0.531
205	-0.516
205	-0.508
205	-0.511
206	-0.509
206	-0.521
207	-0.522
207	-0.516
208	-0.521
208	-0.526
209	-0.531
209	-0.543
210	-0.55
210	-0.549
211	-0.551
211	-0.562
212	-0.561
212	-0.567
213	-0.574
213	-0.572
213	-0.575
214	-0.573
214	-0.575
215	-0.572
215	-0.578
216	-0.576
216	-0.579
217	-0.577
217	-0.574
218	-0.573
218	-0.574
219	-0.575
219	-0.578
220	-0.58
220	-0.587
221	-0.595
221	-0.605
221	-0.604
222	-0.61
222	-0.61
223	-0.613
223	-0.609
224	-0.615
224	-0.608
225	-0.609
225	-0.609
226	-0.609
226	-0.606
227	-0.605
227	-0.611
228	-0.606
228	-0.608
229	-0.61
229	-0.604
229	-0.608
230	-0.608
230	-0.604
231	-0.592
231	-0.582
232	-0.577
232	-0.571
233	-0.581
233	-0.576
234	-0.583
234	-0.582
235	-0.583
235	-0.579
236	-0.583
236	-0.589
236	-0.599
237	-0.601
237	-0.597
238	-0.592
238	-0.596
239	-0.588
239	-0.59
240	-0.589
240	-0.59
241	-0.587
241	-0.591
242	-0.594
242	-0.6
243	-0.607
243	-0.615
243	-0.617
244	-0.618
244	-0.618
245	-0.63
245	-0.637
246	-0.644
246	-0.64
247	-0.644
247	-0.64
248	-0.634
248	-0.626
249	-0.63
249	-0.635
250	-0.642
250	-0.632
250	-0.629
251	-0.635
251	-0.643
252	-0.638
252	-0.64
253	-0.647
253	-0.659
254	-0.659
254	-0.661
255	-0.67
255	-0.678
256	-0.678
256	-0.675
257	-0.679
257	-0.682
258	-0.69
258	-0.688
258	-0.69
259	-0.686
259	-0.692
260	-0.685
260	-0.688
261	-0.689
261	-0.687
262	-0.687
262	-0.695
263	-0.69
263	-0.699
264	-0.703
264	-0.705
265	-0.702
265	-0.703
265	-0.702
266	-0.703
266	-0.709
267	-0.718
267	-0.715
268	-0.723
268	-0.714
269	-0.707
269	-0.716
270	-0.725
270	-0.727
271	-0.735
271	-0.744
272	-0.741
272	-0.727
272	-0.736
273	-0.732
273	-0.737
274	-0.733
274	-0.724
275	-0.721
275	-0.729
276	-0.723
276	-0.717
277	-0.714
277	-0.725
278	-0.73
278	-0.727
278	-0.742
279	-0.749
279	-0.753
280	-0.754
280	-0.75
281	-0.757
281	-0.781
282	-0.776
282	-0.778
283	-0.772
283	-0.783
284	-0.773
284	-0.769
285	-0.778
285	-0.764
285	-0.752
286	-0.748
286	-0.725
287	-0.732
287	-0.721
288	-0.706
288	-0.699
289	-0.691
289	-0.703
290	-0.699
290	-0.697
291	-0.704
291	-0.697
292	-0.697
292	-0.698
292	-0.707
293	-0.717
293	-0.715
294	-0.726
294	-0.711
295	-0.709
295	-0.713
296	-0.713
296	-0.718
297	-0.717
297	-0.707
298	-0.702
298	-0.699
298	-0.694
299	-0.679
299	-0.685
300	-0.684
300	-0.679
301	-0.673
301	-0.673
302	-0.677
302	-0.679
303	-0.667
303	-0.661
304	-0.661
304	-0.662
305	-0.656
305	-0.649
305	-0.657
306	-0.654
306	-0.65
307	-0.642
307	-0.64
308	-0.641
308	-0.64
309	-0.639
309	-0.639
310	-0.63
310	-0.624
311	-0.618
311	-0.616
311	-0.609
312	-0.595
312	-0.592
313	-0.585
313	-0.583
314	-0.583
314	-0.586
315	-0.587
315	-0.586
316	-0.581
316	-0.577
317	-0.57
317	-0.576
318	-0.57
318	-0.57
318	-0.554
319	-0.547
319	-0.529
320	-0.526
320	-0.527
321	-0.516
321	-0.51
322	-0.505
322	-0.5
323	-0.5
323	-0.495
324	-0.498
324	-0.487
324	-0.486
325	-0.471
325	-0.451
326	-0.446
326	-0.429
327	-0.418
327	-0.397
328	-0.371
328	-0.35
329	-0.328
329	-0.304
330	-0.274
330	-0.246
330	-0.221
331	-0.194
331	-0.168
332	-0.139
332	-0.116
333	-0.092
333	-0.067
334	-0.042
334	-0.023
335	-0.002
335	0.013
336	0.032
336	0.049
336	0.062
337	0.075
337	0.088
338	0.101
338	0.11
339	0.121
339	0.13
340	0.137
340	0.145
341	0.151
341	0.157
342	0.163
342	0.169
342	0.173
343	0.176
343	0.181
344	0.184
344	0.187
345	0.191
345	0.193
346	0.196
346	0.198
347	0.2
347	0.202
348	0.204
348	0.207
348	0.208
349	0.21
349	0.211
350	0.213
350	0.214
351	0.216
351	0.217
352	0.218
352	0.219
353	0.221
353	0.221
354	0.223
354	0.223
354	0.224
355	0.225
355	0.226
356	0.227
356	0.227
357	0.227
357	0.228
358	0.228
358	0.229
359	0.229
359	0.23
360	0.23
360	0.231
360	0.232
361	0.232
361	0.233
362	0.233
362	0.234
363	0.235
363	0.236
364	0.236
364	0.237
365	0.237
365	0.238
366	0.238
366	0.239
366	0.239
367	0.239
367	0.239
368	0.239
368	0.239
369	0.239
369	0.239
370	0.239
370	0.239
371	0.239
371	0.24
372	0.24
372	0.24
372	0.24
373	0.241
373	0.241
374	0.241
374	0.241
375	0.241
375	0.241
376	0.241
376	0.241
377	0.242
377	0.242
378	0.242
378	0.242
378	0.242
379	0.242
379	0.242
380	0.242
380	0.242
381	0.242
381	0.242
382	0.242
382	0.242
383	0.242
383	0.242
383	0.242
384	0.242
384	0.242
385	0.242
385	0.242
386	0.242
386	0.242
387	0.243
387	0.243
388	0.243
388	0.243
389	0.243
389	0.243
389	0.243
390	0.243
390	0.243
391	0.243
391	0.242
392	0.242
392	0.242
393	0.242
393	0.242
394	0.242
394	0.242
394	0.242
395	0.241
395	0.241
396	0.241
396	0.241
397	0.241
397	0.241
398	0.241
398	0.241
399	0.241
399	0.241
400	0.241
400	0.241
400	0.241
401	0.241
401	0.241
402	0.241
402	0.241
403	0.241
403	0.241
404	0.24
404	0.24
405	0.24
405	0.24
405	0.24
406	0.24
406	0.24
407	0.24
407	0.24
408	0.239
408	0.239
409	0.24
409	0.239
410	0.239
410	0.239
411	0.239
411	0.239
411	0.239
412	0.239
412	0.238
413	0.238
413	0.238
414	0.238
414	0.238
415	0.237
415	0.237
416	0.237
416	0.237
416	0.237
417	0.237
417	0.237
418	0.237
418	0.237
419	0.237
419	0.237
420	0.237
420	0.237
421	0.237
421	0.237
421	0.237
422	0.237
422	0.237
423	0.237
423	0.237
424	0.237
424	0.236
425	0.236
425	0.236
426	0.236
426	0.236
427	0.236
427	0.235
427	0.235
428	0.235
428	0.235
429	0.234
429	0.234
430	0.234
430	0.234
431	0.234
431	0.234
432	0.234
432	0.234
432	0.233
433	0.233
433	0.233
434	0.233
434	0.233
435	0.234
435	0.233
436	0.233
436	0.233
437	0.232
437	0.232
437	0.232
438	0.231
438	0.231
439	0.231
439	0.231
440	0.23
440	0.23
441	0.23
441	0.23
442	0.23
442	0.23
442	0.23
443	0.23
443	0.23
444	0.231
444	0.231
445	0.231
445	0.231
446	0.231
446	0.23
447	0.23
447	0.23
447	0.23
448	0.229
448	0.229
449	0.228
449	0.228
450	0.228
450	0.228
451	0.228
451	0.228
452	0.228
452	0.228
452	0.228
453	0.228
453	0.228
454	0.228
454	0.228
455	0.228
455	0.228
456	0.228
456	0.228
457	0.228
457	0.228
458	0.227
458	0.227
458	0.227
459	0.227
459	0.227
460	0.227
460	0.226
461	0.226
461	0.227
462	0.227
462	0.227
463	0.227
463	0.227
463	0.227
464	0.227
464	0.226
465	0.226
465	0.226
466	0.226
466	0.226
467	0.226
467	0.226
467	0.226
468	0.226
468	0.225
469	0.225
469	0.226
470	0.226
470	0.226
471	0.225
471	0.225
472	0.225
472	0.225
472	0.225
473	0.225
473	0.225
474	0.225
474	0.226
475	0.226
475	0.226
476	0.226
476	0.226
477	0.226
477	0.227
477	0.227
478	0.227
478	0.227
479	0.228
479	0.228
480	0.228
480	0.229
481	0.229
481	0.229
482	0.229
482	0.229
482	0.23
483	0.23
483	0.231
484	0.231
484	0.231
485	0.231
485	0.231
486	0.232
486	0.232
487	0.232
487	0.233
487	0.234
488	0.234
488	0.234
489	0.235
489	0.236
490	0.236
490	0.237
491	0.238
491	0.238
492	0.239
492	0.239
492	0.239
493	0.24
493	0.241
494	0.242
494	0.243
495	0.244
495	0.244
496	0.245
496	0.246
496	0.247
497	0.248
497	0.248
498	0.249
498	0.25
499	0.25
499	0.251
500	0.252
500	0.253
501	0.254
501	0.255
501	0.256
502	0.257
502	0.258
503	0.259
503	0.26
504	0.261
504	0.262
505	0.263
505	0.264
506	0.265
506	0.267
506	0.268
507	0.269
507	0.27
508	0.271
508	0.273
509	0.274
509	0.275
510	0.277
510	0.278
511	0.279
511	0.28
511	0.281
512	0.283
512	0.284
513	0.285
513	0.287
514	0.288
514	0.289
515	0.29
515	0.291
515	0.292
516	0.293
516	0.294
517	0.295
517	0.296
518	0.297
518	0.298
519	0.299
519	0.3
520	0.301
520	0.302
520	0.303
521	0.304
521	0.305
522	0.306
522	0.307
523	0.308
523	0.31
524	0.311
524	0.312
524	0.313
525	0.314
525	0.315
526	0.316
526	0.317
527	0.319
527	0.32
528	0.32
528	0.321
529	0.322
529	0.323
529	0.324
530	0.325
530	0.326
531	0.327
531	0.328
532	0.329
532	0.33
533	0.331
533	0.332
533	0.332
534	0.333
534	0.334
535	0.335
535	0.336
536	0.337
536	0.338
537	0.339
537	0.34
538	0.341
538	0.342
538	0.344
539	0.345
539	0.346
540	0.347
540	0.348
541	0.349
541	0.349
542	0.35
542	0.351
542	0.352
543	0.353
543	0.354
544	0.355
544	0.356
545	0.357
545	0.358
546	0.359
546	0.359
547	0.36
547	0.36
547	0.361
548	0.361
548	0.362
549	0.362
549	0.363
550	0.363
550	0.363
551	0.364
551	0.364
551	0.365
552	0.365
552	0.365
553	0.366
553	0.367
554	0.367
554	0.367
555	0.368
555	0.368
556	0.368
556	0.369
556	0.37
557	0.37
557	0.371
558	0.371
558	0.372
559	0.372
559	0.373
560	0.374
560	0.374
560	0.375
561	0.376
561	0.376
562	0.376
562	0.376
563	0.376
563	0.376
564	0.377
564	0.377
564	0.377
565	0.378
565	0.378
566	0.379
566	0.38
567	0.38
567	0.381
568	0.382
568	0.383
568	0.383
569	0.384
569	0.385
570	0.385
570	0.384
571	0.385
571	0.385
572	0.385
572	0.386
573	0.386
573	0.385
573	0.385
574	0.385
574	0.385
575	0.385
575	0.386
576	0.386
576	0.386
577	0.386
577	0.386
577	0.386
578	0.386
578	0.387
579	0.388
579	0.388
580	0.387
580	0.386
581	0.386
581	0.386
581	0.387
582	0.387
582	0.388
583	0.389
583	0.388
584	0.387
584	0.386
585	0.388
585	0.389
585	0.389
586	0.388
586	0.388
587	0.387
587	0.387
588	0.386
588	0.387
589	0.387
589	0.387
590	0.387
590	0.387
590	0.389
591	0.389
591	0.389
592	0.389
592	0.388
593	0.388
593	0.388
594	0.388
594	0.387
594	0.387
595	0.387
595	0.386
596	0.386
596	0.386
597	0.387
597	0.387
598	0.387
598	0.387
598	0.387
599	0.387
599	0.387
600	0.386
600	0.386
601	0.385
601	0.385
602	0.384
602	0.384
602	0.383
603	0.383
603	0.383
604	0.383
604	0.383
605	0.383
605	0.383
606	0.381
606	0.38
606	0.379
607	0.378
607	0.377
608	0.376
608	0.375
609	0.374
609	0.374
610	0.373
610	0.372
610	0.372
611	0.373
611	0.373
612	0.373
612	0.374
613	0.374
613	0.374
614	0.373
614	0.373
614	0.372
615	0.371
615	0.37
616	0.37
616	0.368
617	0.367
617	0.366
618	0.364
618	0.363
618	0.361
619	0.359
619	0.359
620	0.358
620	0.357
621	0.356
621	0.356
622	0.354
622	0.353
622	0.352
623	0.351
623	0.351
624	0.35
624	0.348
625	0.346
625	0.345
626	0.343
626	0.341
626	0.339
627	0.338
627	0.336
628	0.334
628	0.332
629	0.33
629	0.328
630	0.325
630	0.323
630	0.32
631	0.317
631	0.314
632	0.311
632	0.307
633	0.303
633	0.3
634	0.296
634	0.293
634	0.289
635	0.286
635	0.282
636	0.278
636	0.274
637	0.269
637	0.265
638	0.259
638	0.254
638	0.248
639	0.241
639	0.234
640	0.227
640	0.221
641	0.214
641	0.208
642	0.201
642	0.195
642	0.188
643	0.182
643	0.174
644	0.167
644	0.16
645	0.152
645	0.144
646	0.135
646	0.126
646	0.117
647	0.108
647	0.098
648	0.088
648	0.078
649	0.068
649	0.059
650	0.05
650	0.042
650	0.032
651	0.02
651	0.004
652	-0.013
652	-0.032
653	-0.049
653	-0.063
653	-0.06
654	-0.033
654	-0.018
655	-0.022
655	-0.028
656	-0.034
656	-0.041
657	-0.046
657	-0.051
657	-0.058
658	-0.066
658	-0.098
659	-0.202
659	-0.321
660	-0.373
660	-0.403
661	-0.434
661	-0.469
661	-0.504
662	-0.541
662	-0.578
663	-0.617
663	-0.665
664	-0.71
664	-0.764
665	-0.816
665	-0.869
665	-0.925
666	-0.984
666	-1.045
667	-1.107
667	-1.174
668	-1.241
668	-1.304
669	-1.373
669	-1.447
669	-1.526
670	-1.613
670	-1.718
671	-1.85
671	-2.056
672	-2.186
672	-2.304
672	-2.465
673	-2.614
673	-2.7
674	-2.77
674	-2.802
675	-2.818
675	-2.821
676	-2.816
676	-2.818
676	-2.892
677	-2.876
677	-2.677
678	-2.493
678	-2.329
679	-2.073
679	-1.852
680	-1.729
680	-1.63
680	-1.544
681	-1.484
681	-1.425
682	-1.381
682	-1.341
683	-1.3
683	-1.271
684	-1.232
684	-1.202
684	-1.167
685	-1.145
685	-1.124
686	-1.096
686	-1.067
687	-1.044
687	-1.03
687	-1.006
688	-0.987
688	-0.975
689	-0.958
689	-0.947
690	-0.935
690	-0.929
691	-0.921
691	-0.914
691	-0.898
692	-0.888
692	-0.886
693	-0.884
693	-0.882
694	-0.876
694	-0.872
695	-0.868
695	-0.853
695	-0.847
696	-0.85
696	-0.847
697	-0.842
697	-0.833
698	-0.82
698	-0.815
698	-0.818
699	-0.818
699	-0.815
700	-0.834
700	-0.83
701	-0.832
701	-0.846
702	-0.861
702	-0.872
702	-0.876
703	-0.879
703	-0.868
704	-0.869
704	-0.862
705	-0.861
705	-0.864
705	-0.846
706	-0.837
706	-0.821
707	-0.821
707	-0.825
708	-0.815
708	-0.82
709	-0.822
709	-0.826
709	-0.809
710	-0.815
710	-0.818
711	-0.814
711	-0.819
712	-0.804
712	-0.794
713	-0.802
713	-0.805
713	-0.797
714	-0.802
714	-0.818
715	-0.813
715	-0.828
716	-0.841
716	-0.835
716	-0.844
717	-0.859
717	-0.857
718	-0.852
718	-0.861
719	-0.865
719	-0.839
720	-0.841
720	-0.83
720	-0.83
721	-0.828
721	-0.83
722	-0.82
722	-0.819
723	-0.815
723	-0.807
723	-0.793
724	-0.806
724	-0.796
725	-0.794
725	-0.79
726	-0.797
726	-0.794
727	-0.797
727	-0.792
727	-0.795
728	-0.802
728	-0.806
729	-0.803
729	-0.819
730	-0.825
730	-0.822
730	-0.816
731	-0.808
731	-0.818
732	-0.82
732	-0.817
733	-0.816
733	-0.821
734	-0.816
734	-0.808
734	-0.789
735	-0.795
735	-0.8
736	-0.803
736	-0.788
737	-0.785
737	-0.783
737	-0.766
738	-0.764
738	-0.772
739	-0.774
739	-0.781
740	-0.786
740	-0.78
741	-0.776
741	-0.786
741	-0.787
742	-0.783
742	-0.805
743	-0.796
743	-0.792
744	-0.779
744	-0.777
744	-0.764
745	-0.77
745	-0.782
746	-0.779
746	-0.785
747	-0.793
747	-0.775
748	-0.781
748	-0.785
748	-0.797
749	-0.807
749	-0.809
750	-0.797
750	-0.791
751	-0.79
751	-0.774
751	-0.775
752	-0.785
752	-0.787
753	-0.782
753	-0.777
754	-0.779
754	-0.761
754	-0.774
755	-0.776
755	-0.786
756	-0.806
756	-0.795
757	-0.782
757	-0.78
758	-0.769
758	-0.767
758	-0.759
759	-0.778
759	-0.785
760	-0.777
760	-0.761
761	-0.758
761	-0.766
761	-0.784
762	-0.775
762	-0.788
763	-0.78
763	-0.79
764	-0.786
764	-0.776
764	-0.792
765	-0.807
765	-0.806
766	-0.803
766	-0.79
767	-0.805
767	-0.801
768	-0.81
768	-0.816
768	-0.806
769	-0.81
769	-0.796
770	-0.8
770	-0.792
771	-0.796
771	-0.801
771	-0.802
772	-0.815
772	-0.83
773	-0.817
773	-0.837
774	-0.833
774	-0.835
775	-0.824
775	-0.829
775	-0.83
776	-0.836
776	-0.834
777	-0.828
777	-0.826
778	-0.83
778	-0.82
778	-0.831
779	-0.847
779	-0.864
780	-0.871
780	-0.877
781	-0.887
781	-0.89
781	-0.901
782	-0.903
782	-0.904
783	-0.917
783	-0.924
784	-0.909
784	-0.891
784	-0.905
785	-0.905
785	-0.906
786	-0.91
786	-0.895
787	-0.881
787	-0.904
788	-0.898
788	-0.876
788	-0.869
789	-0.864
789	-0.852
790	-0.851
790	-0.845
791	-0.856
791	-0.866
791	-0.869
792	-0.845
792	-0.852
793	-0.863
793	-0.876
794	-0.879
794	-0.883
794	-0.876
795	-0.864
795	-0.842
796	-0.822
796	-0.833
797	-0.842
797	-0.826
797	-0.834
798	-0.827
798	-0.838
799	-0.823
799	-0.832
800	-0.836
800	-0.849
801	-0.864
801	-0.85
801	-0.834
802	-0.831
802	-0.81
803	-0.805
803	-0.795
804	-0.798
804	-0.796
804	-0.795
805	-0.787
805	-0.777
806	-0.773
806	-0.778
807	-0.78
807	-0.788
807	-0.792
808	-0.789
808	-0.789
809	-0.779
809	-0.767
810	-0.773
810	-0.761
810	-0.765
811	-0.754
811	-0.757
812	-0.757
812	-0.772
813	-0.768
813	-0.768
813	-0.765
814	-0.779
814	-0.763
815	-0.769
815	-0.778
816	-0.779
816	-0.783
817	-0.789
817	-0.768
817	-0.784
818	-0.79
818	-0.793
819	-0.792
819	-0.801
820	-0.794
820	-0.791
820	-0.804
821	-0.804
821	-0.802
822	-0.805
822	-0.804
823	-0.808
823	-0.808
823	-0.793
824	-0.799
824	-0.821
825	-0.813
825	-0.801
826	-0.784
826	-0.768
826	-0.763
827	-0.74
827	-0.723
828	-0.72
828	-0.717
829	-0.704
829	-0.687
829	-0.682
830	-0.679
830	-0.687
831	-0.683
831	-0.668
832	-0.669
832	-0.664
832	-0.651
833	-0.646
833	-0.637
834	-0.629
834	-0.626
835	-0.62
835	-0.61
835	-0.604
836	-0.61
836	-0.61
837	-0.605
837	-0.601
838	-0.598
838	-0.589
839	-0.583
839	-0.576
839	-0.571
840	-0.562
840	-0.556
841	-0.544
841	-0.53
842	-0.525
842	-0.511
842	-0.502
843	-0.499
843	-0.492
844	-0.481
844	-0.469
845	-0.456
845	-0.448
845	-0.433
846	-0.425
846	-0.408
847	-0.4
847	-0.386
848	-0.369
848	-0.355
848	-0.341
849	-0.327
849	-0.315
850	-0.301
850	-0.289
851	-0.277
851	-0.264
851	-0.254
852	-0.24
852	-0.226
853	-0.218
853	-0.21
854	-0.199
854	-0.188
854	-0.177
855	-0.166
855	-0.154
856	-0.147
856	-0.137
857	-0.128
857	-0.121
857	-0.106
858	-0.094
858	-0.086
859	-0.075
859	-0.064
860	-0.055
860	-0.043
860	-0.031
861	-0.023
861	-0.014
862	-0.007
862	-0
863	0.006
863	0.015
863	0.02
864	0.025
864	0.032
865	0.039
865	0.043
866	0.048
866	0.053
866	0.058
867	0.063
867	0.068
868	0.071
868	0.075
869	0.08
869	0.082
869	0.084
870	0.085
870	0.086
871	0.087
871	0.087
872	0.087
872	0.087
872	0.088
873	0.089
873	0.091
874	0.092
874	0.094
875	0.095
875	0.096
875	0.097
876	0.099
876	0.1
877	0.101
877	0.102
878	0.103
878	0.104
878	0.104
879	0.104
879	0.102
880	0.101
880	0.1
881	0.099
881	0.098
881	0.097
882	0.096
882	0.094
883	0.093
883	0.091
884	0.09
884	0.089
884	0.089
885	0.088
885	0.087
886	0.086
886	0.085
887	0.083
887	0.082
887	0.082
888	0.082
888	0.081
889	0.079
889	0.078
890	0.078
890	0.077
890	0.076
891	0.076
891	0.075
892	0.074
892	0.073
893	0.072
893	0.071
893	0.072
894	0.072
894	0.071
895	0.071
895	0.071
895	0.072
896	0.072
896	0.072
897	0.072
897	0.073
898	0.073
898	0.074
898	0.074
899	0.075
899	0.075
900	0.075
900	0.075
901	0.076
901	0.076
901	0.076
902	0.076
902	0.076
903	0.076
903	0.076
904	0.075
904	0.075
904	0.074
905	0.074
905	0.073
906	0.072
906	0.072
907	0.071
907	0.071
907	0.071
908	0.071
908	0.071
909	0.072
909	0.072
910	0.073
910	0.074
910	0.075
911	0.075
911	0.076
912	0.076
912	0.077
913	0.077
913	0.077
913	0.078
914	0.078
914	0.077
915	0.077
915	0.078
916	0.077
916	0.077
916	0.077
917	0.077
917	0.077
918	0.077
918	0.078
918	0.078
919	0.079
919	0.08
920	0.08
920	0.081
921	0.082
921	0.083
921	0.084
922	0.084
922	0.084
923	0.084
923	0.084
924	0.083
924	0.082
924	0.082
925	0.081
925	0.08
926	0.08
926	0.079
927	0.078
927	0.078
927	0.077
928	0.077
928	0.077
929	0.076
929	0.075
930	0.074
930	0.073
930	0.072
931	0.071
931	0.069
932	0.068
932	0.066
933	0.065
933	0.063
933	0.061
934	0.059
934	0.058
935	0.057
935	0.055
935	0.054
936	0.053
936	0.053
937	0.052
937	0.052
938	0.052
938	0.052
938	0.052
939	0.052
939	0.052
940	0.053
940	0.053
941	0.053
941	0.053
941	0.053
942	0.052
942	0.051
943	0.051
943	0.05
944	0.05
944	0.049
944	0.049
945	0.049
945	0.048
946	0.048
946	0.048
946	0.048
947	0.048
947	0.049
948	0.049
948	0.05
949	0.05
949	0.051
949	0.051
950	0.051
950	0.051
951	0.051
951	0.051
952	0.05
952	0.05
952	0.049
953	0.049
953	0.049
954	0.048
954	0.048
955	0.048
955	0.048
955	0.049
956	0.049
956	0.049
957	0.05
957	0.05
957	0.05
958	0.05
958	0.05
959	0.05
959	0.05
960	0.051
960	0.051
960	0.051
961	0.052
961	0.053
962	0.054
962	0.056
963	0.056
963	0.057
963	0.057
964	0.057
964	0.058
965	0.058
965	0.057
966	0.057
966	0.057
966	0.056
967	0.056
967	0.054
968	0.053
968	0.053
968	0.052
969	0.051
969	0.049
970	0.049
970	0.048
971	0.047
971	0.046
971	0.045
972	0.044
972	0.044
973	0.044
973	0.043
974	0.043
974	0.043
974	0.042
975	0.042
975	0.042
976	0.041
976	0.041
976	0.04
977	0.039
977	0.039
978	0.038
978	0.038
979	0.038
979	0.037
979	0.037
980	0.037
980	0.037
981	0.037
981	0.038
982	0.038
982	0.039
982	0.039
983	0.04
983	0.041
984	0.042
984	0.043
984	0.043
985	0.044
985	0.045
986	0.045
986	0.045
987	0.045
987	0.045
987	0.045
988	0.045
988	0.045
989	0.045
989	0.045
990	0.045
990	0.045
990	0.046
991	0.047
991	0.047
992	0.047
992	0.047
992	0.047
993	0.047
993	0.046
994	0.046
994	0.046
995	0.045
995	0.045
995	0.044
996	0.044
996	0.044
997	0.043
997	0.043
997	0.044
998	0.044
998	0.044
999	0.044
999	0.043
1000	0.043
1000	0.043
1000	0.042
1001	0.041
1001	0.041
1002	0.04
1002	0.039
1003	0.038
1003	0.037
1003	0.036
1004	0.035
1004	0.034
1005	0.034
1005	0.033
1005	0.032
1006	0.031
1006	0.031
1007	0.03
1007	0.03
1008	0.03
1008	0.029
1008	0.029
1009	0.028
1009	0.028
1010	0.027
1010	0.027
1010	0.027
1011	0.027
1011	0.026
1012	0.026
1012	0.026
1013	0.025
1013	0.025
1013	0.024
1014	0.024
1014	0.023
1015	0.023
1015	0.022
1016	0.022
1016	0.022
1016	0.021
1017	0.021
1017	0.021
1018	0.021
1018	0.021
1018	0.021
1019	0.022
1019	0.022
1020	0.022
1020	0.023
1021	0.023
1021	0.022
1021	0.023
1022	0.022
1022	0.022
1023	0.021
1023	0.02
1023	0.019
1024	0.018
1024	0.017
1025	0.016
1025	0.016
1026	0.015
1026	0.014
1026	0.014
1027	0.014
1027	0.014
1028	0.014
1028	0.015
1028	0.015
1029	0.016
1029	0.017
1030	0.017
1030	0.018
1031	0.019
1031	0.02
1031	0.02
1032	0.021
1032	0.021
1033	0.021
1033	0.021
1033	0.021
1034	0.02
1034	0.019
1035	0.019
1035	0.018
1036	0.017
1036	0.016
1036	0.016
1037	0.015
1037	0.015
1038	0.015
1038	0.014
1039	0.015
1039	0.015
1039	0.016
1040	0.016
1040	0.016
1041	0.017
1041	0.017
1041	0.017
1042	0.017
1042	0.018
1043	0.018
1043	0.018
1044	0.018
1044	0.017
1044	0.017
1045	0.016
1045	0.016
1046	0.015
1046	0.015
1046	0.015
1047	0.015
1047	0.015
1048	0.015
1048	0.015
1049	0.015
1049	0.014
1049	0.014
1050	0.014
1050	0.013
1051	0.012
1051	0.012
1051	0.012
1052	0.011
1052	0.011
1053	0.01
1053	0.01
1053	0.01
1054	0.01
1054	0.01
1055	0.01
1055	0.01
1056	0.01
1056	0.01
1056	0.009
1057	0.008
1057	0.008
1058	0.007
1058	0.006
1058	0.006
1059	0.005
1059	0.004
1060	0.003
1060	0.002
1061	0.001
1061	0.001
1061	0.001
1062	0
1062	-0
1063	-0
1063	-0.001
1063	-0.001
1064	-0.002
1064	-0.002
1065	-0.002
1065	-0.003
1066	-0.003
1066	-0.004
1066	-0.005
1067	-0.006
1067	-0.006
1068	-0.007
1068	-0.008
1068	-0.008
1069	-0.009
1069	-0.01
1070	-0.011
1070	-0.012
1071	-0.013
1071	-0.013
1071	-0.014
1072	-0.015
1072	-0.015
1073	-0.015
1073	-0.016
1073	-0.016
1074	-0.016
1074	-0.016
1075	-0.016
1075	-0.016
1076	-0.017
1076	-0.016
1076	-0.017
1077	-0.018
1077	-0.018
1078	-0.018
1078	-0.019
1078	-0.019
1079	-0.019
1079	-0.019
1080	-0.019
1080	-0.018
1080	-0.018
1081	-0.018
1081	-0.018
1082	-0.017
1082	-0.018
1083	-0.018
1083	-0.018
1083	-0.019
1084	-0.02
1084	-0.02
1085	-0.021
1085	-0.022
1085	-0.022
1086	-0.023
1086	-0.024
1087	-0.024
1087	-0.024
1088	-0.025
1088	-0.026
1088	-0.027
1089	-0.028
1089	-0.03
1090	-0.031
1090	-0.033
1090	-0.035
1091	-0.036
1091	-0.037
1092	-0.038
1092	-0.039
1092	-0.04
1093	-0.041
1093	-0.04
1094	-0.041
1094	-0.041
1095	-0.042
1095	-0.043
1095	-0.044
1096	-0.045
1096	-0.048
1097	-0.049
1097	-0.051
1097	-0.053
1098	-0.056
1098	-0.058
1099	-0.06
1099	-0.062
1100	-0.064
1100	-0.066
1100	-0.069
1101	-0.071
1101	-0.073
1102	-0.076
1102	-0.079
1102	-0.08
1103	-0.082
1103	-0.084
1104	-0.085
1104	-0.088
1104	-0.089
1105	-0.091
1105	-0.095
1106	-0.099
1106	-0.101
1107	-0.106
1107	-0.11
1107	-0.116
1108	-0.118
1108	-0.12
1109	-0.124
1109	-0.129
1109	-0.133
1110	-0.135
1110	-0.137
1111	-0.144
1111	-0.138
