Data from 40to5_hyst_3.5A_10sec_80mins_Absorbance__27__00649.txt Node

Date: Mon Jun 26 11:00:48 CEST 2023
User: Marek
Spectrometer: MAYP115816
Trigger mode: 0
Integration Time (sec): 2.500000E-1
Scans to average: 10
Electric dark correction enabled: true
Nonlinearity correction enabled: true
Boxcar width: 5
XAxis mode: Wavelengths
Number of Pixels in Spectrum: 2068
>>>>>Begin Spectral Data<<<<<
199	-0.768
199	-0.746
200	-0.711
200	-0.655
201	-0.617
201	-0.59
202	-0.571
202	-0.577
203	-0.568
203	-0.56
204	-0.542
204	-0.523
205	-0.505
205	-0.497
205	-0.501
206	-0.499
206	-0.51
207	-0.509
207	-0.505
208	-0.51
208	-0.514
209	-0.518
209	-0.531
210	-0.54
210	-0.541
211	-0.544
211	-0.554
212	-0.554
212	-0.558
213	-0.565
213	-0.566
213	-0.567
214	-0.566
214	-0.567
215	-0.561
215	-0.567
216	-0.567
216	-0.571
217	-0.568
217	-0.567
218	-0.566
218	-0.565
219	-0.568
219	-0.573
220	-0.576
220	-0.583
221	-0.59
221	-0.597
221	-0.596
222	-0.602
222	-0.602
223	-0.604
223	-0.602
224	-0.608
224	-0.6
225	-0.6
225	-0.601
226	-0.601
226	-0.597
227	-0.595
227	-0.602
228	-0.597
228	-0.6
229	-0.602
229	-0.596
229	-0.598
230	-0.6
230	-0.597
231	-0.584
231	-0.575
232	-0.573
232	-0.564
233	-0.574
233	-0.568
234	-0.574
234	-0.571
235	-0.573
235	-0.569
236	-0.572
236	-0.578
236	-0.586
237	-0.587
237	-0.585
238	-0.579
238	-0.584
239	-0.575
239	-0.579
240	-0.579
240	-0.579
241	-0.577
241	-0.579
242	-0.584
242	-0.589
243	-0.597
243	-0.603
243	-0.603
244	-0.605
244	-0.605
245	-0.617
245	-0.625
246	-0.634
246	-0.631
247	-0.636
247	-0.633
248	-0.626
248	-0.621
249	-0.625
249	-0.63
250	-0.635
250	-0.625
250	-0.619
251	-0.624
251	-0.631
252	-0.625
252	-0.625
253	-0.633
253	-0.641
254	-0.641
254	-0.643
255	-0.652
255	-0.659
256	-0.659
256	-0.655
257	-0.657
257	-0.657
258	-0.665
258	-0.662
258	-0.661
259	-0.659
259	-0.665
260	-0.658
260	-0.66
261	-0.663
261	-0.662
262	-0.661
262	-0.67
263	-0.665
263	-0.674
264	-0.683
264	-0.684
265	-0.68
265	-0.682
265	-0.682
266	-0.682
266	-0.686
267	-0.697
267	-0.697
268	-0.706
268	-0.695
269	-0.686
269	-0.693
270	-0.702
270	-0.7
271	-0.707
271	-0.716
272	-0.714
272	-0.7
272	-0.705
273	-0.703
273	-0.708
274	-0.7
274	-0.695
275	-0.691
275	-0.701
276	-0.695
276	-0.692
277	-0.686
277	-0.697
278	-0.704
278	-0.701
278	-0.717
279	-0.725
279	-0.729
280	-0.731
280	-0.73
281	-0.736
281	-0.757
282	-0.753
282	-0.753
283	-0.748
283	-0.757
284	-0.747
284	-0.746
285	-0.754
285	-0.737
285	-0.724
286	-0.723
286	-0.701
287	-0.707
287	-0.697
288	-0.681
288	-0.674
289	-0.665
289	-0.675
290	-0.672
290	-0.672
291	-0.676
291	-0.667
292	-0.669
292	-0.67
292	-0.681
293	-0.69
293	-0.688
294	-0.7
294	-0.685
295	-0.684
295	-0.686
296	-0.688
296	-0.692
297	-0.689
297	-0.681
298	-0.674
298	-0.675
298	-0.668
299	-0.653
299	-0.66
300	-0.657
300	-0.652
301	-0.645
301	-0.647
302	-0.65
302	-0.649
303	-0.637
303	-0.629
304	-0.628
304	-0.629
305	-0.624
305	-0.617
305	-0.625
306	-0.621
306	-0.616
307	-0.608
307	-0.608
308	-0.61
308	-0.609
309	-0.607
309	-0.605
310	-0.593
310	-0.588
311	-0.58
311	-0.578
311	-0.57
312	-0.556
312	-0.552
313	-0.542
313	-0.541
314	-0.54
314	-0.545
315	-0.547
315	-0.547
316	-0.542
316	-0.54
317	-0.534
317	-0.539
318	-0.534
318	-0.535
318	-0.519
319	-0.513
319	-0.495
320	-0.49
320	-0.492
321	-0.483
321	-0.479
322	-0.474
322	-0.471
323	-0.47
323	-0.465
324	-0.467
324	-0.455
324	-0.453
325	-0.437
325	-0.414
326	-0.41
326	-0.388
327	-0.373
327	-0.348
328	-0.317
328	-0.293
329	-0.265
329	-0.235
330	-0.201
330	-0.168
330	-0.137
331	-0.1
331	-0.068
332	-0.033
332	-0.002
333	0.027
333	0.061
334	0.09
334	0.115
335	0.144
335	0.167
336	0.192
336	0.214
336	0.232
337	0.252
337	0.27
338	0.288
338	0.3
339	0.315
339	0.328
340	0.338
340	0.348
341	0.356
341	0.363
342	0.372
342	0.378
342	0.384
343	0.388
343	0.395
344	0.398
344	0.401
345	0.405
345	0.407
346	0.41
346	0.413
347	0.414
347	0.416
348	0.417
348	0.418
348	0.419
349	0.42
349	0.421
350	0.422
350	0.423
351	0.423
351	0.423
352	0.423
352	0.423
353	0.424
353	0.424
354	0.424
354	0.424
354	0.424
355	0.423
355	0.423
356	0.423
356	0.423
357	0.424
357	0.424
358	0.424
358	0.424
359	0.424
359	0.424
360	0.423
360	0.423
360	0.423
361	0.422
361	0.423
362	0.421
362	0.421
363	0.421
363	0.42
364	0.42
364	0.42
365	0.419
365	0.419
366	0.419
366	0.419
366	0.418
367	0.418
367	0.418
368	0.417
368	0.417
369	0.416
369	0.416
370	0.415
370	0.415
371	0.414
371	0.414
372	0.413
372	0.413
372	0.412
373	0.412
373	0.411
374	0.411
374	0.41
375	0.41
375	0.409
376	0.409
376	0.408
377	0.408
377	0.408
378	0.407
378	0.407
378	0.406
379	0.406
379	0.406
380	0.405
380	0.405
381	0.404
381	0.404
382	0.403
382	0.403
383	0.402
383	0.401
383	0.401
384	0.4
384	0.4
385	0.399
385	0.399
386	0.398
386	0.398
387	0.397
387	0.397
388	0.397
388	0.396
389	0.396
389	0.396
389	0.395
390	0.395
390	0.394
391	0.393
391	0.393
392	0.393
392	0.392
393	0.392
393	0.391
394	0.391
394	0.39
394	0.39
395	0.389
395	0.389
396	0.388
396	0.388
397	0.387
397	0.387
398	0.386
398	0.386
399	0.385
399	0.385
400	0.385
400	0.384
400	0.384
401	0.383
401	0.382
402	0.382
402	0.382
403	0.381
403	0.381
404	0.38
404	0.38
405	0.379
405	0.379
405	0.378
406	0.378
406	0.378
407	0.378
407	0.377
408	0.376
408	0.376
409	0.376
409	0.375
410	0.375
410	0.375
411	0.375
411	0.374
411	0.374
412	0.373
412	0.373
413	0.373
413	0.372
414	0.372
414	0.371
415	0.371
415	0.371
416	0.37
416	0.37
416	0.369
417	0.369
417	0.369
418	0.369
418	0.368
419	0.368
419	0.368
420	0.368
420	0.368
421	0.368
421	0.368
421	0.368
422	0.368
422	0.368
423	0.367
423	0.367
424	0.367
424	0.367
425	0.366
425	0.366
426	0.366
426	0.366
427	0.366
427	0.365
427	0.365
428	0.365
428	0.364
429	0.364
429	0.364
430	0.364
430	0.363
431	0.363
431	0.363
432	0.363
432	0.363
432	0.363
433	0.363
433	0.363
434	0.363
434	0.363
435	0.363
435	0.363
436	0.362
436	0.362
437	0.362
437	0.361
437	0.361
438	0.361
438	0.361
439	0.361
439	0.361
440	0.361
440	0.361
441	0.361
441	0.361
442	0.361
442	0.361
442	0.362
443	0.362
443	0.362
444	0.362
444	0.363
445	0.363
445	0.363
446	0.363
446	0.363
447	0.363
447	0.363
447	0.363
448	0.363
448	0.363
449	0.363
449	0.363
450	0.363
450	0.363
451	0.364
451	0.364
452	0.364
452	0.365
452	0.365
453	0.366
453	0.366
454	0.367
454	0.367
455	0.367
455	0.367
456	0.368
456	0.368
457	0.368
457	0.368
458	0.369
458	0.369
458	0.369
459	0.37
459	0.37
460	0.37
460	0.37
461	0.371
461	0.372
462	0.372
462	0.373
463	0.374
463	0.374
463	0.375
464	0.376
464	0.376
465	0.377
465	0.378
466	0.378
466	0.379
467	0.379
467	0.38
467	0.38
468	0.381
468	0.382
469	0.383
469	0.384
470	0.385
470	0.386
471	0.387
471	0.387
472	0.388
472	0.389
472	0.39
473	0.391
473	0.393
474	0.394
474	0.395
475	0.396
475	0.397
476	0.399
476	0.4
477	0.402
477	0.403
477	0.405
478	0.407
478	0.408
479	0.41
479	0.411
480	0.413
480	0.415
481	0.417
481	0.418
482	0.42
482	0.422
482	0.424
483	0.426
483	0.429
484	0.431
484	0.433
485	0.435
485	0.437
486	0.439
486	0.441
487	0.444
487	0.446
487	0.448
488	0.45
488	0.453
489	0.455
489	0.459
490	0.461
490	0.464
491	0.467
491	0.47
492	0.473
492	0.476
492	0.479
493	0.482
493	0.485
494	0.489
494	0.492
495	0.495
495	0.499
496	0.502
496	0.506
496	0.509
497	0.513
497	0.516
498	0.52
498	0.523
499	0.527
499	0.531
500	0.535
500	0.539
501	0.543
501	0.547
501	0.551
502	0.555
502	0.559
503	0.563
503	0.567
504	0.571
504	0.574
505	0.579
505	0.583
506	0.587
506	0.591
506	0.596
507	0.6
507	0.605
508	0.609
508	0.613
509	0.618
509	0.622
510	0.626
510	0.63
511	0.634
511	0.637
511	0.641
512	0.645
512	0.649
513	0.652
513	0.656
514	0.659
514	0.663
515	0.667
515	0.67
515	0.673
516	0.676
516	0.679
517	0.682
517	0.684
518	0.687
518	0.689
519	0.691
519	0.693
520	0.695
520	0.698
520	0.7
521	0.701
521	0.703
522	0.704
522	0.706
523	0.708
523	0.709
524	0.71
524	0.711
524	0.712
525	0.712
525	0.712
526	0.713
526	0.713
527	0.714
527	0.713
528	0.712
528	0.711
529	0.71
529	0.709
529	0.708
530	0.708
530	0.707
531	0.705
531	0.704
532	0.701
532	0.7
533	0.698
533	0.695
533	0.693
534	0.69
534	0.687
535	0.684
535	0.681
536	0.678
536	0.674
537	0.67
537	0.667
538	0.663
538	0.659
538	0.655
539	0.652
539	0.648
540	0.644
540	0.639
541	0.635
541	0.631
542	0.626
542	0.621
542	0.616
543	0.612
543	0.607
544	0.602
544	0.597
545	0.592
545	0.587
546	0.581
546	0.575
547	0.57
547	0.564
547	0.558
548	0.552
548	0.547
549	0.541
549	0.535
550	0.529
550	0.522
551	0.515
551	0.509
551	0.502
552	0.496
552	0.49
553	0.484
553	0.478
554	0.472
554	0.466
555	0.461
555	0.455
556	0.449
556	0.443
556	0.438
557	0.433
557	0.427
558	0.421
558	0.415
559	0.409
559	0.403
560	0.397
560	0.391
560	0.386
561	0.381
561	0.376
562	0.37
562	0.365
563	0.36
563	0.355
564	0.349
564	0.344
564	0.339
565	0.334
565	0.329
566	0.324
566	0.319
567	0.314
567	0.309
568	0.305
568	0.3
568	0.296
569	0.292
569	0.288
570	0.283
570	0.278
571	0.275
571	0.271
572	0.267
572	0.263
573	0.259
573	0.254
573	0.25
574	0.246
574	0.242
575	0.238
575	0.235
576	0.231
576	0.226
577	0.222
577	0.219
577	0.215
578	0.212
578	0.21
579	0.207
579	0.204
580	0.199
580	0.195
581	0.191
581	0.189
581	0.186
582	0.185
582	0.183
583	0.18
583	0.177
584	0.173
584	0.169
585	0.167
585	0.165
585	0.162
586	0.159
586	0.157
587	0.154
587	0.151
588	0.148
588	0.146
589	0.144
589	0.142
590	0.14
590	0.138
590	0.137
591	0.135
591	0.132
592	0.129
592	0.127
593	0.125
593	0.123
594	0.121
594	0.119
594	0.118
595	0.116
595	0.113
596	0.111
596	0.11
597	0.109
597	0.107
598	0.105
598	0.104
598	0.102
599	0.101
599	0.099
600	0.098
600	0.096
601	0.095
601	0.094
602	0.092
602	0.09
602	0.089
603	0.087
603	0.086
604	0.085
604	0.083
605	0.082
605	0.081
606	0.079
606	0.076
606	0.074
607	0.073
607	0.072
608	0.07
608	0.068
609	0.067
609	0.066
610	0.065
610	0.064
610	0.063
611	0.063
611	0.063
612	0.063
612	0.062
613	0.062
613	0.061
614	0.06
614	0.059
614	0.058
615	0.057
615	0.056
616	0.055
616	0.053
617	0.051
617	0.05
618	0.048
618	0.047
618	0.046
619	0.044
619	0.044
620	0.043
620	0.043
621	0.042
621	0.041
622	0.04
622	0.04
622	0.038
623	0.038
623	0.038
624	0.037
624	0.036
625	0.035
625	0.034
626	0.033
626	0.032
626	0.031
627	0.03
627	0.03
628	0.029
628	0.028
629	0.027
629	0.027
630	0.026
630	0.025
630	0.025
631	0.024
631	0.023
632	0.023
632	0.022
633	0.022
633	0.022
634	0.022
634	0.022
634	0.022
635	0.021
635	0.021
636	0.021
636	0.021
637	0.021
637	0.02
638	0.019
638	0.018
638	0.017
639	0.015
639	0.013
640	0.012
640	0.01
641	0.009
641	0.008
642	0.006
642	0.005
642	0.004
643	0.002
643	0
644	-0.001
644	-0.003
645	-0.005
645	-0.008
646	-0.01
646	-0.014
646	-0.017
647	-0.02
647	-0.024
648	-0.027
648	-0.03
649	-0.033
649	-0.035
650	-0.037
650	-0.04
650	-0.043
651	-0.047
651	-0.051
652	-0.057
652	-0.063
653	-0.067
653	-0.072
653	-0.07
654	-0.065
654	-0.068
655	-0.072
655	-0.075
656	-0.078
656	-0.082
657	-0.084
657	-0.087
657	-0.091
658	-0.095
658	-0.112
659	-0.153
659	-0.196
660	-0.219
660	-0.234
661	-0.249
661	-0.269
661	-0.288
662	-0.305
662	-0.32
663	-0.335
663	-0.352
664	-0.366
664	-0.39
665	-0.405
665	-0.423
665	-0.443
666	-0.46
666	-0.477
667	-0.496
667	-0.521
668	-0.546
668	-0.572
669	-0.602
669	-0.631
669	-0.668
670	-0.705
670	-0.753
671	-0.803
671	-0.859
672	-1.083
672	-1.568
672	-2.023
673	-2.297
673	-2.424
674	-2.459
674	-2.471
675	-2.483
675	-2.489
676	-2.492
676	-2.531
676	-2.656
677	-2.653
677	-2.377
678	-2.027
678	-1.507
679	-1.093
679	-0.928
680	-0.86
680	-0.814
680	-0.782
681	-0.772
681	-0.755
682	-0.754
682	-0.747
683	-0.737
683	-0.742
684	-0.736
684	-0.735
684	-0.725
685	-0.73
685	-0.734
686	-0.724
686	-0.715
687	-0.71
687	-0.715
687	-0.709
688	-0.705
688	-0.708
689	-0.703
689	-0.703
690	-0.7
690	-0.701
691	-0.704
691	-0.704
691	-0.699
692	-0.694
692	-0.701
693	-0.704
693	-0.709
694	-0.709
694	-0.71
695	-0.713
695	-0.701
695	-0.7
696	-0.708
696	-0.705
697	-0.705
697	-0.7
698	-0.691
698	-0.686
698	-0.697
699	-0.698
699	-0.698
700	-0.721
700	-0.72
701	-0.723
701	-0.74
702	-0.759
702	-0.77
702	-0.776
703	-0.781
703	-0.77
704	-0.772
704	-0.766
705	-0.766
705	-0.768
705	-0.753
706	-0.744
706	-0.732
707	-0.735
707	-0.74
708	-0.732
708	-0.738
709	-0.743
709	-0.747
709	-0.733
710	-0.742
710	-0.746
711	-0.741
711	-0.744
712	-0.727
712	-0.718
713	-0.727
713	-0.733
713	-0.725
714	-0.733
714	-0.749
715	-0.744
715	-0.761
716	-0.778
716	-0.775
716	-0.787
717	-0.802
717	-0.799
718	-0.795
718	-0.804
719	-0.809
719	-0.785
720	-0.789
720	-0.776
720	-0.774
721	-0.772
721	-0.775
722	-0.768
722	-0.767
723	-0.762
723	-0.755
723	-0.742
724	-0.751
724	-0.741
725	-0.741
725	-0.742
726	-0.75
726	-0.747
727	-0.748
727	-0.746
727	-0.75
728	-0.758
728	-0.763
729	-0.76
729	-0.777
730	-0.785
730	-0.782
730	-0.775
731	-0.768
731	-0.781
732	-0.785
732	-0.783
733	-0.783
733	-0.79
734	-0.788
734	-0.778
734	-0.758
735	-0.763
735	-0.768
736	-0.771
736	-0.753
737	-0.749
737	-0.747
737	-0.73
738	-0.725
738	-0.732
739	-0.735
739	-0.742
740	-0.745
740	-0.742
741	-0.74
741	-0.752
741	-0.751
742	-0.746
742	-0.77
743	-0.76
743	-0.759
744	-0.746
744	-0.744
744	-0.736
745	-0.741
745	-0.752
746	-0.745
746	-0.753
747	-0.761
747	-0.745
748	-0.751
748	-0.752
748	-0.768
749	-0.778
749	-0.779
750	-0.767
750	-0.762
751	-0.766
751	-0.75
751	-0.75
752	-0.759
752	-0.763
753	-0.761
753	-0.751
754	-0.75
754	-0.734
754	-0.746
755	-0.747
755	-0.756
756	-0.776
756	-0.765
757	-0.752
757	-0.751
758	-0.739
758	-0.74
758	-0.735
759	-0.751
759	-0.759
760	-0.75
760	-0.733
761	-0.73
761	-0.739
761	-0.757
762	-0.75
762	-0.762
763	-0.753
763	-0.763
764	-0.758
764	-0.748
764	-0.766
765	-0.781
765	-0.78
766	-0.776
766	-0.76
767	-0.773
767	-0.769
768	-0.778
768	-0.786
768	-0.777
769	-0.781
769	-0.769
770	-0.775
770	-0.765
771	-0.771
771	-0.776
771	-0.781
772	-0.795
772	-0.807
773	-0.794
773	-0.815
774	-0.811
774	-0.813
775	-0.798
775	-0.804
775	-0.804
776	-0.811
776	-0.804
777	-0.796
777	-0.791
778	-0.794
778	-0.785
778	-0.794
779	-0.809
779	-0.827
780	-0.836
780	-0.841
781	-0.848
781	-0.851
781	-0.864
782	-0.867
782	-0.869
783	-0.878
783	-0.884
784	-0.869
784	-0.852
784	-0.868
785	-0.868
785	-0.872
786	-0.878
786	-0.863
787	-0.85
787	-0.875
788	-0.873
788	-0.855
788	-0.848
789	-0.844
789	-0.828
790	-0.829
790	-0.82
791	-0.832
791	-0.844
791	-0.847
792	-0.823
792	-0.83
793	-0.838
793	-0.853
794	-0.857
794	-0.865
794	-0.857
795	-0.849
795	-0.828
796	-0.808
796	-0.819
797	-0.829
797	-0.81
797	-0.82
798	-0.813
798	-0.823
799	-0.81
799	-0.818
800	-0.822
800	-0.836
801	-0.852
801	-0.838
801	-0.821
802	-0.82
802	-0.8
803	-0.794
803	-0.782
804	-0.782
804	-0.781
804	-0.779
805	-0.771
805	-0.76
806	-0.756
806	-0.762
807	-0.764
807	-0.773
807	-0.778
808	-0.777
808	-0.776
809	-0.768
809	-0.757
810	-0.762
810	-0.75
810	-0.758
811	-0.749
811	-0.752
812	-0.751
812	-0.765
813	-0.761
813	-0.762
813	-0.757
814	-0.77
814	-0.755
815	-0.762
815	-0.771
816	-0.77
816	-0.772
817	-0.778
817	-0.758
817	-0.776
818	-0.781
818	-0.784
819	-0.786
819	-0.795
820	-0.785
820	-0.781
820	-0.795
821	-0.793
821	-0.79
822	-0.791
822	-0.79
823	-0.794
823	-0.794
823	-0.779
824	-0.787
824	-0.811
825	-0.804
825	-0.793
826	-0.778
826	-0.762
826	-0.761
827	-0.738
827	-0.722
828	-0.723
828	-0.718
829	-0.705
829	-0.687
829	-0.682
830	-0.68
830	-0.689
831	-0.688
831	-0.672
832	-0.676
832	-0.672
832	-0.658
833	-0.654
833	-0.645
834	-0.64
834	-0.638
835	-0.631
835	-0.621
835	-0.614
836	-0.619
836	-0.618
837	-0.612
837	-0.61
838	-0.608
838	-0.6
839	-0.592
839	-0.586
839	-0.58
840	-0.575
840	-0.569
841	-0.562
841	-0.548
842	-0.544
842	-0.53
842	-0.521
843	-0.52
843	-0.516
844	-0.506
844	-0.495
845	-0.482
845	-0.475
845	-0.461
846	-0.454
846	-0.439
847	-0.434
847	-0.422
848	-0.407
848	-0.394
848	-0.382
849	-0.371
849	-0.361
850	-0.349
850	-0.34
851	-0.33
851	-0.32
851	-0.31
852	-0.3
852	-0.29
853	-0.284
853	-0.279
854	-0.27
854	-0.262
854	-0.255
855	-0.247
855	-0.237
856	-0.23
856	-0.224
857	-0.216
857	-0.21
857	-0.201
858	-0.191
858	-0.186
859	-0.177
859	-0.167
860	-0.16
860	-0.151
860	-0.144
861	-0.136
861	-0.13
862	-0.124
862	-0.119
863	-0.115
863	-0.108
863	-0.104
864	-0.101
864	-0.096
865	-0.091
865	-0.088
866	-0.084
866	-0.08
866	-0.077
867	-0.073
867	-0.069
868	-0.067
868	-0.064
869	-0.061
869	-0.058
869	-0.057
870	-0.055
870	-0.053
871	-0.052
871	-0.051
872	-0.05
872	-0.049
872	-0.049
873	-0.048
873	-0.048
874	-0.049
874	-0.049
875	-0.05
875	-0.051
875	-0.051
876	-0.052
876	-0.053
877	-0.054
877	-0.055
878	-0.056
878	-0.058
878	-0.059
879	-0.06
879	-0.061
880	-0.062
880	-0.063
881	-0.063
881	-0.064
881	-0.065
882	-0.065
882	-0.066
883	-0.067
883	-0.068
884	-0.068
884	-0.068
884	-0.069
885	-0.069
885	-0.069
886	-0.069
886	-0.07
887	-0.07
887	-0.07
887	-0.07
888	-0.07
888	-0.071
889	-0.071
889	-0.072
890	-0.072
890	-0.073
890	-0.073
891	-0.073
891	-0.074
892	-0.075
892	-0.076
893	-0.077
893	-0.077
893	-0.077
894	-0.077
894	-0.077
895	-0.076
895	-0.076
895	-0.075
896	-0.074
896	-0.073
897	-0.072
897	-0.072
898	-0.071
898	-0.07
898	-0.069
899	-0.068
899	-0.067
900	-0.066
900	-0.066
901	-0.065
901	-0.065
901	-0.065
902	-0.064
902	-0.064
903	-0.064
903	-0.063
904	-0.063
904	-0.064
904	-0.064
905	-0.064
905	-0.065
906	-0.065
906	-0.065
907	-0.065
907	-0.065
907	-0.064
908	-0.064
908	-0.063
909	-0.062
909	-0.061
910	-0.06
910	-0.059
910	-0.057
911	-0.056
911	-0.055
912	-0.054
912	-0.053
913	-0.052
913	-0.051
913	-0.05
914	-0.05
914	-0.049
915	-0.049
915	-0.048
916	-0.048
916	-0.048
916	-0.048
917	-0.048
917	-0.048
918	-0.048
918	-0.047
918	-0.047
919	-0.046
919	-0.046
920	-0.045
920	-0.044
921	-0.044
921	-0.043
921	-0.043
922	-0.042
922	-0.043
923	-0.043
923	-0.043
924	-0.044
924	-0.045
924	-0.045
925	-0.046
925	-0.047
926	-0.048
926	-0.048
927	-0.049
927	-0.049
927	-0.05
928	-0.05
928	-0.05
929	-0.05
929	-0.051
930	-0.051
930	-0.052
930	-0.053
931	-0.054
931	-0.055
932	-0.056
932	-0.057
933	-0.058
933	-0.059
933	-0.06
934	-0.061
934	-0.062
935	-0.063
935	-0.064
935	-0.065
936	-0.065
936	-0.066
937	-0.066
937	-0.066
938	-0.065
938	-0.065
938	-0.064
939	-0.064
939	-0.063
940	-0.062
940	-0.061
941	-0.061
941	-0.06
941	-0.059
942	-0.058
942	-0.058
943	-0.058
943	-0.058
944	-0.058
944	-0.058
944	-0.058
945	-0.057
945	-0.057
946	-0.056
946	-0.056
946	-0.055
947	-0.054
947	-0.053
948	-0.052
948	-0.051
949	-0.049
949	-0.048
949	-0.047
950	-0.046
950	-0.046
951	-0.045
951	-0.045
952	-0.044
952	-0.044
952	-0.044
953	-0.044
953	-0.044
954	-0.044
954	-0.043
955	-0.043
955	-0.041
955	-0.04
956	-0.039
956	-0.037
957	-0.036
957	-0.035
957	-0.035
958	-0.034
958	-0.033
959	-0.032
959	-0.031
960	-0.03
960	-0.03
960	-0.029
961	-0.028
961	-0.027
962	-0.025
962	-0.024
963	-0.022
963	-0.022
963	-0.021
964	-0.022
964	-0.021
965	-0.021
965	-0.022
966	-0.022
966	-0.023
966	-0.024
967	-0.025
967	-0.026
968	-0.028
968	-0.029
968	-0.03
969	-0.032
969	-0.033
970	-0.034
970	-0.036
971	-0.037
971	-0.038
971	-0.039
972	-0.04
972	-0.041
973	-0.041
973	-0.042
974	-0.042
974	-0.043
974	-0.043
975	-0.043
975	-0.044
976	-0.044
976	-0.045
976	-0.045
977	-0.046
977	-0.046
978	-0.047
978	-0.047
979	-0.048
979	-0.048
979	-0.049
980	-0.049
980	-0.05
981	-0.05
981	-0.05
982	-0.05
982	-0.05
982	-0.05
983	-0.049
983	-0.049
984	-0.049
984	-0.049
984	-0.049
985	-0.048
985	-0.048
986	-0.049
986	-0.049
987	-0.049
987	-0.05
987	-0.05
988	-0.051
988	-0.051
989	-0.052
989	-0.052
990	-0.052
990	-0.053
990	-0.053
991	-0.052
991	-0.053
992	-0.053
992	-0.053
992	-0.054
993	-0.054
993	-0.055
994	-0.056
994	-0.057
995	-0.057
995	-0.058
995	-0.059
996	-0.06
996	-0.061
997	-0.061
997	-0.061
997	-0.061
998	-0.062
998	-0.062
999	-0.062
999	-0.062
1000	-0.063
1000	-0.064
1000	-0.064
1001	-0.065
1001	-0.066
1002	-0.067
1002	-0.068
1003	-0.069
1003	-0.071
1003	-0.072
1004	-0.073
1004	-0.074
1005	-0.075
1005	-0.076
1005	-0.076
1006	-0.077
1006	-0.078
1007	-0.078
1007	-0.079
1008	-0.079
1008	-0.08
1008	-0.08
1009	-0.08
1009	-0.081
1010	-0.081
1010	-0.081
1010	-0.081
1011	-0.082
1011	-0.082
1012	-0.082
1012	-0.083
1013	-0.083
1013	-0.084
1013	-0.084
1014	-0.085
1014	-0.086
1015	-0.087
1015	-0.087
1016	-0.088
1016	-0.088
1016	-0.089
1017	-0.089
1017	-0.089
1018	-0.089
1018	-0.089
1018	-0.088
1019	-0.088
1019	-0.088
1020	-0.087
1020	-0.087
1021	-0.087
1021	-0.087
1021	-0.087
1022	-0.087
1022	-0.087
1023	-0.088
1023	-0.088
1023	-0.089
1024	-0.09
1024	-0.091
1025	-0.092
1025	-0.092
1026	-0.092
1026	-0.093
1026	-0.093
1027	-0.093
1027	-0.093
1028	-0.092
1028	-0.092
1028	-0.091
1029	-0.091
1029	-0.09
1030	-0.089
1030	-0.088
1031	-0.088
1031	-0.087
1031	-0.086
1032	-0.085
1032	-0.085
1033	-0.085
1033	-0.085
1033	-0.085
1034	-0.085
1034	-0.086
1035	-0.086
1035	-0.087
1036	-0.088
1036	-0.088
1036	-0.088
1037	-0.088
1037	-0.088
1038	-0.089
1038	-0.088
1039	-0.088
1039	-0.087
1039	-0.086
1040	-0.086
1040	-0.085
1041	-0.085
1041	-0.085
1041	-0.084
1042	-0.084
1042	-0.084
1043	-0.084
1043	-0.084
1044	-0.084
1044	-0.084
1044	-0.083
1045	-0.084
1045	-0.084
1046	-0.084
1046	-0.084
1046	-0.084
1047	-0.084
1047	-0.084
1048	-0.084
1048	-0.084
1049	-0.084
1049	-0.084
1049	-0.085
1050	-0.085
1050	-0.086
1051	-0.086
1051	-0.086
1051	-0.087
1052	-0.087
1052	-0.087
1053	-0.087
1053	-0.087
1053	-0.087
1054	-0.087
1054	-0.087
1055	-0.087
1055	-0.086
1056	-0.087
1056	-0.087
1056	-0.087
1057	-0.087
1057	-0.088
1058	-0.088
1058	-0.089
1058	-0.089
1059	-0.089
1059	-0.09
1060	-0.091
1060	-0.091
1061	-0.091
1061	-0.092
1061	-0.092
1062	-0.092
1062	-0.092
1063	-0.092
1063	-0.093
1063	-0.093
1064	-0.093
1064	-0.093
1065	-0.094
1065	-0.094
1066	-0.094
1066	-0.095
1066	-0.095
1067	-0.096
1067	-0.096
1068	-0.097
1068	-0.097
1068	-0.098
1069	-0.099
1069	-0.099
1070	-0.1
1070	-0.101
1071	-0.102
1071	-0.102
1071	-0.103
1072	-0.103
1072	-0.104
1073	-0.104
1073	-0.104
1073	-0.105
1074	-0.104
1074	-0.104
1075	-0.105
1075	-0.104
1076	-0.104
1076	-0.104
1076	-0.105
1077	-0.105
1077	-0.105
1078	-0.105
1078	-0.105
1078	-0.105
1079	-0.104
1079	-0.104
1080	-0.104
1080	-0.103
1080	-0.103
1081	-0.103
1081	-0.102
1082	-0.102
1082	-0.102
1083	-0.102
1083	-0.102
1083	-0.102
1084	-0.103
1084	-0.103
1085	-0.104
1085	-0.104
1085	-0.105
1086	-0.105
1086	-0.106
1087	-0.106
1087	-0.106
1088	-0.107
1088	-0.108
1088	-0.108
1089	-0.11
1089	-0.111
1090	-0.112
1090	-0.113
1090	-0.115
1091	-0.116
1091	-0.117
1092	-0.118
1092	-0.118
1092	-0.119
1093	-0.12
1093	-0.119
1094	-0.12
1094	-0.12
1095	-0.121
1095	-0.122
1095	-0.122
1096	-0.124
1096	-0.126
1097	-0.127
1097	-0.128
1097	-0.129
1098	-0.132
1098	-0.133
1099	-0.134
1099	-0.136
1100	-0.136
1100	-0.138
1100	-0.14
1101	-0.141
1101	-0.143
1102	-0.146
1102	-0.147
1102	-0.149
1103	-0.151
1103	-0.152
1104	-0.154
1104	-0.157
1104	-0.158
1105	-0.16
1105	-0.162
1106	-0.166
1106	-0.167
1107	-0.171
1107	-0.174
1107	-0.179
1108	-0.181
1108	-0.183
1109	-0.185
1109	-0.189
1109	-0.192
1110	-0.194
1110	-0.198
1111	-0.204
1111	-0.203
