Data from 15c-1-8a_Absorbance__1398__04999.txt Node

Date: Thu Jan 25 16:52:35 CET 2024
User: Marek
Spectrometer: MAYP115816
Trigger mode: 0
Integration Time (sec): 2.000000E-1
Scans to average: 10
Electric dark correction enabled: true
Nonlinearity correction enabled: true
Boxcar width: 5
XAxis mode: Wavelengths
Number of Pixels in Spectrum: 2068
>>>>>Begin Spectral Data<<<<<
199	-0.556
199	-0.509
200	-0.439
200	-0.379
201	-0.345
201	-0.321
202	-0.298
202	-0.291
203	-0.283
203	-0.278
204	-0.268
204	-0.252
205	-0.239
205	-0.232
205	-0.231
206	-0.231
206	-0.232
207	-0.232
207	-0.231
208	-0.229
208	-0.228
209	-0.224
209	-0.227
210	-0.228
210	-0.229
211	-0.229
211	-0.231
212	-0.232
212	-0.231
213	-0.232
213	-0.235
213	-0.239
214	-0.24
214	-0.24
215	-0.238
215	-0.239
216	-0.24
216	-0.241
217	-0.239
217	-0.24
218	-0.24
218	-0.237
219	-0.235
219	-0.235
220	-0.237
220	-0.238
221	-0.238
221	-0.238
221	-0.236
222	-0.236
222	-0.236
223	-0.233
223	-0.232
224	-0.231
224	-0.223
225	-0.215
225	-0.211
226	-0.206
226	-0.197
227	-0.187
227	-0.183
228	-0.172
228	-0.164
229	-0.152
229	-0.136
229	-0.122
230	-0.108
230	-0.092
231	-0.074
231	-0.055
232	-0.04
232	-0.021
233	-0.004
233	0.013
234	0.026
234	0.04
235	0.052
235	0.063
236	0.073
236	0.08
236	0.088
237	0.094
237	0.099
238	0.103
238	0.107
239	0.11
239	0.113
240	0.115
240	0.118
241	0.119
241	0.121
242	0.122
242	0.123
243	0.124
243	0.125
243	0.127
244	0.128
244	0.129
245	0.13
245	0.131
246	0.132
246	0.133
247	0.134
247	0.135
248	0.137
248	0.138
249	0.139
249	0.14
250	0.141
250	0.143
250	0.144
251	0.145
251	0.147
252	0.148
252	0.149
253	0.15
253	0.151
254	0.152
254	0.153
255	0.154
255	0.155
256	0.156
256	0.156
257	0.157
257	0.158
258	0.158
258	0.158
258	0.159
259	0.159
259	0.159
260	0.159
260	0.159
261	0.159
261	0.159
262	0.159
262	0.158
263	0.158
263	0.158
264	0.157
264	0.156
265	0.156
265	0.155
265	0.154
266	0.154
266	0.153
267	0.152
267	0.151
268	0.15
268	0.149
269	0.148
269	0.147
270	0.145
270	0.143
271	0.142
271	0.14
272	0.139
272	0.137
272	0.136
273	0.134
273	0.133
274	0.131
274	0.129
275	0.128
275	0.126
276	0.125
276	0.123
277	0.122
277	0.12
278	0.119
278	0.117
278	0.115
279	0.113
279	0.111
280	0.11
280	0.108
281	0.106
281	0.104
282	0.102
282	0.101
283	0.099
283	0.098
284	0.096
284	0.095
285	0.094
285	0.092
285	0.091
286	0.09
286	0.089
287	0.087
287	0.086
288	0.085
288	0.083
289	0.082
289	0.081
290	0.08
290	0.079
291	0.078
291	0.077
292	0.076
292	0.076
292	0.075
293	0.074
293	0.074
294	0.073
294	0.072
295	0.072
295	0.071
296	0.071
296	0.071
297	0.07
297	0.07
298	0.07
298	0.069
298	0.069
299	0.069
299	0.068
300	0.068
300	0.068
301	0.068
301	0.068
302	0.067
302	0.067
303	0.067
303	0.067
304	0.067
304	0.067
305	0.067
305	0.067
305	0.066
306	0.066
306	0.066
307	0.066
307	0.066
308	0.066
308	0.065
309	0.065
309	0.065
310	0.065
310	0.065
311	0.065
311	0.064
311	0.065
312	0.064
312	0.064
313	0.064
313	0.064
314	0.064
314	0.064
315	0.064
315	0.064
316	0.064
316	0.064
317	0.063
317	0.063
318	0.063
318	0.063
318	0.063
319	0.063
319	0.063
320	0.063
320	0.063
321	0.062
321	0.062
322	0.062
322	0.062
323	0.062
323	0.061
324	0.061
324	0.061
324	0.061
325	0.061
325	0.061
326	0.061
326	0.06
327	0.06
327	0.06
328	0.06
328	0.06
329	0.06
329	0.06
330	0.059
330	0.059
330	0.059
331	0.059
331	0.059
332	0.059
332	0.058
333	0.058
333	0.058
334	0.058
334	0.058
335	0.058
335	0.057
336	0.057
336	0.057
336	0.057
337	0.057
337	0.057
338	0.057
338	0.057
339	0.056
339	0.056
340	0.056
340	0.056
341	0.056
341	0.056
342	0.055
342	0.055
342	0.055
343	0.055
343	0.055
344	0.054
344	0.054
345	0.054
345	0.054
346	0.054
346	0.054
347	0.053
347	0.053
348	0.053
348	0.053
348	0.053
349	0.053
349	0.052
350	0.052
350	0.052
351	0.052
351	0.052
352	0.052
352	0.052
353	0.052
353	0.052
354	0.052
354	0.052
354	0.052
355	0.052
355	0.052
356	0.052
356	0.052
357	0.052
357	0.051
358	0.051
358	0.051
359	0.051
359	0.052
360	0.052
360	0.052
360	0.052
361	0.052
361	0.052
362	0.052
362	0.052
363	0.052
363	0.052
364	0.052
364	0.052
365	0.052
365	0.051
366	0.051
366	0.051
366	0.051
367	0.052
367	0.052
368	0.052
368	0.052
369	0.052
369	0.052
370	0.052
370	0.052
371	0.052
371	0.052
372	0.052
372	0.052
372	0.052
373	0.052
373	0.052
374	0.052
374	0.052
375	0.052
375	0.052
376	0.052
376	0.052
377	0.052
377	0.052
378	0.052
378	0.052
378	0.052
379	0.052
379	0.052
380	0.052
380	0.052
381	0.052
381	0.052
382	0.052
382	0.052
383	0.052
383	0.052
383	0.052
384	0.052
384	0.052
385	0.052
385	0.052
386	0.052
386	0.052
387	0.052
387	0.052
388	0.052
388	0.052
389	0.052
389	0.052
389	0.052
390	0.052
390	0.052
391	0.052
391	0.052
392	0.052
392	0.052
393	0.052
393	0.052
394	0.052
394	0.052
394	0.052
395	0.052
395	0.052
396	0.052
396	0.052
397	0.052
397	0.051
398	0.051
398	0.051
399	0.051
399	0.051
400	0.051
400	0.051
400	0.051
401	0.051
401	0.05
402	0.05
402	0.05
403	0.05
403	0.05
404	0.05
404	0.05
405	0.05
405	0.05
405	0.05
406	0.05
406	0.05
407	0.05
407	0.05
408	0.05
408	0.05
409	0.05
409	0.051
410	0.051
410	0.051
411	0.051
411	0.051
411	0.051
412	0.051
412	0.051
413	0.051
413	0.051
414	0.051
414	0.051
415	0.051
415	0.051
416	0.05
416	0.05
416	0.05
417	0.05
417	0.05
418	0.05
418	0.05
419	0.05
419	0.05
420	0.051
420	0.051
421	0.051
421	0.051
421	0.051
422	0.051
422	0.051
423	0.051
423	0.051
424	0.05
424	0.05
425	0.05
425	0.05
426	0.05
426	0.05
427	0.05
427	0.05
427	0.05
428	0.049
428	0.049
429	0.049
429	0.049
430	0.049
430	0.049
431	0.049
431	0.049
432	0.049
432	0.048
432	0.048
433	0.048
433	0.048
434	0.048
434	0.048
435	0.048
435	0.048
436	0.048
436	0.048
437	0.048
437	0.047
437	0.048
438	0.048
438	0.048
439	0.048
439	0.048
440	0.048
440	0.048
441	0.048
441	0.048
442	0.048
442	0.048
442	0.048
443	0.048
443	0.047
444	0.047
444	0.047
445	0.047
445	0.047
446	0.047
446	0.047
447	0.047
447	0.047
447	0.047
448	0.047
448	0.047
449	0.047
449	0.047
450	0.047
450	0.047
451	0.047
451	0.047
452	0.047
452	0.047
452	0.047
453	0.047
453	0.047
454	0.047
454	0.047
455	0.047
455	0.047
456	0.047
456	0.047
457	0.047
457	0.047
458	0.047
458	0.047
458	0.047
459	0.046
459	0.046
460	0.046
460	0.045
461	0.045
461	0.046
462	0.045
462	0.046
463	0.046
463	0.046
463	0.046
464	0.046
464	0.046
465	0.046
465	0.046
466	0.046
466	0.046
467	0.046
467	0.045
467	0.045
468	0.045
468	0.045
469	0.045
469	0.045
470	0.045
470	0.045
471	0.045
471	0.045
472	0.045
472	0.045
472	0.045
473	0.045
473	0.046
474	0.046
474	0.046
475	0.046
475	0.046
476	0.047
476	0.047
477	0.047
477	0.047
477	0.047
478	0.047
478	0.047
479	0.047
479	0.047
480	0.047
480	0.047
481	0.047
481	0.047
482	0.047
482	0.048
482	0.048
483	0.048
483	0.049
484	0.049
484	0.049
485	0.048
485	0.048
486	0.048
486	0.048
487	0.048
487	0.048
487	0.048
488	0.048
488	0.047
489	0.047
489	0.048
490	0.048
490	0.048
491	0.049
491	0.049
492	0.049
492	0.05
492	0.05
493	0.05
493	0.051
494	0.051
494	0.052
495	0.052
495	0.052
496	0.053
496	0.053
496	0.054
497	0.054
497	0.054
498	0.054
498	0.054
499	0.054
499	0.054
500	0.055
500	0.055
501	0.055
501	0.055
501	0.056
502	0.056
502	0.056
503	0.056
503	0.057
504	0.057
504	0.057
505	0.057
505	0.057
506	0.058
506	0.058
506	0.058
507	0.058
507	0.059
508	0.06
508	0.06
509	0.06
509	0.061
510	0.061
510	0.061
511	0.061
511	0.062
511	0.062
512	0.062
512	0.062
513	0.062
513	0.063
514	0.063
514	0.063
515	0.063
515	0.063
515	0.063
516	0.063
516	0.063
517	0.064
517	0.064
518	0.063
518	0.063
519	0.063
519	0.064
520	0.064
520	0.064
520	0.064
521	0.064
521	0.064
522	0.064
522	0.064
523	0.064
523	0.064
524	0.064
524	0.064
524	0.064
525	0.063
525	0.063
526	0.063
526	0.063
527	0.063
527	0.062
528	0.062
528	0.062
529	0.062
529	0.062
529	0.061
530	0.062
530	0.062
531	0.062
531	0.062
532	0.062
532	0.062
533	0.062
533	0.062
533	0.062
534	0.062
534	0.062
535	0.062
535	0.062
536	0.062
536	0.061
537	0.061
537	0.061
538	0.06
538	0.06
538	0.06
539	0.06
539	0.06
540	0.059
540	0.059
541	0.059
541	0.059
542	0.059
542	0.059
542	0.059
543	0.06
543	0.06
544	0.06
544	0.06
545	0.061
545	0.061
546	0.061
546	0.061
547	0.06
547	0.06
547	0.06
548	0.06
548	0.059
549	0.059
549	0.059
550	0.059
550	0.058
551	0.057
551	0.057
551	0.058
552	0.058
552	0.058
553	0.058
553	0.058
554	0.058
554	0.057
555	0.056
555	0.056
556	0.056
556	0.055
556	0.055
557	0.055
557	0.055
558	0.055
558	0.055
559	0.055
559	0.055
560	0.055
560	0.055
560	0.056
561	0.057
561	0.057
562	0.057
562	0.056
563	0.056
563	0.055
564	0.054
564	0.054
564	0.053
565	0.053
565	0.053
566	0.051
566	0.051
567	0.051
567	0.051
568	0.051
568	0.051
568	0.051
569	0.052
569	0.052
570	0.051
570	0.051
571	0.051
571	0.051
572	0.051
572	0.051
573	0.05
573	0.05
573	0.049
574	0.049
574	0.05
575	0.05
575	0.052
576	0.052
576	0.051
577	0.051
577	0.051
577	0.051
578	0.051
578	0.052
579	0.052
579	0.053
580	0.051
580	0.049
581	0.047
581	0.047
581	0.048
582	0.048
582	0.049
583	0.05
583	0.049
584	0.048
584	0.046
585	0.048
585	0.049
585	0.049
586	0.049
586	0.049
587	0.048
587	0.047
588	0.046
588	0.045
589	0.045
589	0.046
590	0.046
590	0.046
590	0.047
591	0.047
591	0.047
592	0.046
592	0.045
593	0.045
593	0.046
594	0.045
594	0.045
594	0.044
595	0.045
595	0.044
596	0.044
596	0.046
597	0.048
597	0.048
598	0.048
598	0.049
598	0.049
599	0.049
599	0.048
600	0.048
600	0.047
601	0.047
601	0.047
602	0.045
602	0.045
602	0.045
603	0.045
603	0.047
604	0.047
604	0.048
605	0.049
605	0.049
606	0.049
606	0.047
606	0.047
607	0.047
607	0.047
608	0.047
608	0.045
609	0.045
609	0.045
610	0.044
610	0.044
610	0.044
611	0.046
611	0.047
612	0.047
612	0.048
613	0.049
613	0.05
614	0.049
614	0.049
614	0.049
615	0.049
615	0.049
616	0.049
616	0.048
617	0.048
617	0.047
618	0.047
618	0.047
618	0.047
619	0.047
619	0.048
620	0.049
620	0.049
621	0.049
621	0.049
622	0.048
622	0.048
622	0.047
623	0.047
623	0.047
624	0.047
624	0.046
625	0.046
625	0.046
626	0.046
626	0.046
626	0.047
627	0.048
627	0.048
628	0.049
628	0.049
629	0.05
629	0.05
630	0.049
630	0.049
630	0.05
631	0.05
631	0.05
632	0.049
632	0.049
633	0.049
633	0.049
634	0.05
634	0.05
634	0.051
635	0.051
635	0.051
636	0.051
636	0.051
637	0.051
637	0.051
638	0.052
638	0.052
638	0.052
639	0.052
639	0.052
640	0.052
640	0.053
641	0.054
641	0.054
642	0.055
642	0.056
642	0.057
643	0.058
643	0.059
644	0.06
644	0.061
645	0.061
645	0.062
646	0.063
646	0.063
646	0.064
647	0.064
647	0.065
648	0.065
648	0.065
649	0.066
649	0.067
650	0.068
650	0.069
650	0.069
651	0.07
651	0.07
652	0.071
652	0.072
653	0.073
653	0.078
653	0.081
654	0.065
654	0.054
655	0.052
655	0.053
656	0.054
656	0.055
657	0.056
657	0.057
657	0.058
658	0.056
658	0.052
659	0.066
659	0.083
660	0.09
660	0.091
661	0.091
661	0.092
661	0.094
662	0.095
662	0.096
663	0.097
663	0.098
664	0.098
664	0.099
665	0.1
665	0.101
665	0.102
666	0.102
666	0.103
667	0.104
667	0.104
668	0.105
668	0.106
669	0.107
669	0.108
669	0.109
670	0.11
670	0.11
671	0.11
671	0.111
672	0.111
672	0.112
672	0.112
673	0.113
673	0.113
674	0.114
674	0.114
675	0.115
675	0.116
676	0.118
676	0.119
676	0.119
677	0.12
677	0.121
678	0.121
678	0.121
679	0.121
679	0.121
680	0.122
680	0.121
680	0.121
681	0.121
681	0.121
682	0.122
682	0.122
683	0.122
683	0.123
684	0.123
684	0.122
684	0.122
685	0.121
685	0.122
686	0.121
686	0.12
687	0.12
687	0.12
687	0.12
688	0.119
688	0.119
689	0.12
689	0.12
690	0.12
690	0.12
691	0.12
691	0.12
691	0.12
692	0.12
692	0.119
693	0.119
693	0.12
694	0.119
694	0.119
695	0.121
695	0.122
695	0.122
696	0.122
696	0.122
697	0.122
697	0.122
698	0.122
698	0.121
698	0.121
699	0.12
699	0.119
700	0.117
700	0.117
701	0.117
701	0.116
702	0.116
702	0.116
702	0.115
703	0.114
703	0.114
704	0.113
704	0.112
705	0.112
705	0.11
705	0.109
706	0.108
706	0.108
707	0.107
707	0.106
708	0.106
708	0.106
709	0.106
709	0.105
709	0.105
710	0.104
710	0.105
711	0.105
711	0.104
712	0.104
712	0.104
713	0.103
713	0.103
713	0.102
714	0.102
714	0.101
715	0.1
715	0.099
716	0.099
716	0.098
716	0.097
717	0.096
717	0.095
718	0.094
718	0.094
719	0.093
719	0.093
720	0.092
720	0.091
720	0.091
721	0.09
721	0.09
722	0.089
722	0.088
723	0.088
723	0.087
723	0.086
724	0.085
724	0.085
725	0.084
725	0.084
726	0.084
726	0.083
727	0.082
727	0.081
727	0.081
728	0.08
728	0.079
729	0.079
729	0.078
730	0.076
730	0.075
730	0.075
731	0.074
731	0.073
732	0.073
732	0.072
733	0.072
733	0.071
734	0.071
734	0.07
734	0.069
735	0.069
735	0.069
736	0.068
736	0.068
737	0.068
737	0.069
737	0.068
738	0.067
738	0.066
739	0.066
739	0.066
740	0.065
740	0.065
741	0.065
741	0.064
741	0.063
742	0.062
742	0.061
743	0.062
743	0.061
744	0.061
744	0.06
744	0.06
745	0.059
745	0.058
746	0.058
746	0.057
747	0.057
747	0.057
748	0.056
748	0.056
748	0.055
749	0.054
749	0.054
750	0.053
750	0.052
751	0.051
751	0.05
751	0.05
752	0.049
752	0.048
753	0.047
753	0.047
754	0.046
754	0.046
754	0.045
755	0.045
755	0.044
756	0.043
756	0.041
757	0.041
757	0.04
758	0.039
758	0.038
758	0.038
759	0.037
759	0.036
760	0.035
760	0.034
761	0.033
761	0.033
761	0.033
762	0.033
762	0.033
763	0.033
763	0.032
764	0.031
764	0.031
764	0.031
765	0.031
765	0.031
766	0.031
766	0.03
767	0.03
767	0.028
768	0.027
768	0.026
768	0.026
769	0.025
769	0.024
770	0.022
770	0.021
771	0.02
771	0.018
771	0.017
772	0.016
772	0.014
773	0.013
773	0.012
774	0.01
774	0.008
775	0.007
775	0.005
775	0.003
776	0.001
776	-0
777	-0.002
777	-0.003
778	-0.004
778	-0.006
778	-0.007
779	-0.007
779	-0.008
780	-0.009
780	-0.01
781	-0.012
781	-0.014
781	-0.016
782	-0.018
782	-0.021
783	-0.023
783	-0.026
784	-0.029
784	-0.033
784	-0.036
785	-0.04
785	-0.044
786	-0.047
786	-0.05
787	-0.052
787	-0.056
788	-0.06
788	-0.064
788	-0.068
789	-0.073
789	-0.077
790	-0.082
790	-0.086
791	-0.092
791	-0.098
791	-0.104
792	-0.104
792	-0.099
793	-0.099
793	-0.101
794	-0.104
794	-0.11
794	-0.116
795	-0.12
795	-0.123
796	-0.125
796	-0.127
797	-0.136
797	-0.147
797	-0.154
798	-0.16
798	-0.164
799	-0.165
799	-0.165
800	-0.165
800	-0.167
801	-0.17
801	-0.171
801	-0.171
802	-0.172
802	-0.173
803	-0.173
803	-0.173
804	-0.172
804	-0.166
804	-0.159
805	-0.155
805	-0.152
806	-0.15
806	-0.149
807	-0.147
807	-0.146
807	-0.146
808	-0.145
808	-0.146
809	-0.15
809	-0.155
810	-0.158
810	-0.16
810	-0.162
811	-0.163
811	-0.16
812	-0.155
812	-0.149
813	-0.144
813	-0.138
813	-0.131
814	-0.124
814	-0.115
815	-0.105
815	-0.095
816	-0.086
816	-0.079
817	-0.073
817	-0.067
817	-0.061
818	-0.055
818	-0.049
819	-0.044
819	-0.04
820	-0.036
820	-0.033
820	-0.029
821	-0.026
821	-0.022
822	-0.02
822	-0.017
823	-0.014
823	-0.013
823	-0.011
824	-0.009
824	-0.007
825	-0.005
825	-0.003
826	-0.002
826	-0.001
826	-0
827	0
827	0
828	0.001
828	0.001
829	0.001
829	0.002
829	0.002
830	0.002
830	0.003
831	0.005
831	0.006
832	0.007
832	0.009
832	0.01
833	0.011
833	0.011
834	0.011
834	0.011
835	0.011
835	0.01
835	0.01
836	0.009
836	0.009
837	0.009
837	0.008
838	0.008
838	0.008
839	0.009
839	0.009
839	0.009
840	0.009
840	0.009
841	0.008
841	0.008
842	0.008
842	0.008
842	0.007
843	0.007
843	0.007
844	0.007
844	0.008
845	0.008
845	0.008
845	0.009
846	0.009
846	0.01
847	0.01
847	0.011
848	0.012
848	0.013
848	0.013
849	0.014
849	0.014
850	0.014
850	0.014
851	0.014
851	0.014
851	0.014
852	0.014
852	0.013
853	0.013
853	0.012
854	0.011
854	0.011
854	0.011
855	0.011
855	0.011
856	0.011
856	0.012
857	0.013
857	0.014
857	0.015
858	0.016
858	0.017
859	0.018
859	0.019
860	0.02
860	0.02
860	0.02
861	0.021
861	0.021
862	0.02
862	0.02
863	0.02
863	0.019
863	0.019
864	0.019
864	0.019
865	0.02
865	0.02
866	0.02
866	0.02
866	0.021
867	0.021
867	0.022
868	0.022
868	0.022
869	0.023
869	0.023
869	0.022
870	0.022
870	0.022
871	0.021
871	0.02
872	0.019
872	0.018
872	0.017
873	0.016
873	0.014
874	0.013
874	0.012
875	0.01
875	0.009
875	0.007
876	0.007
876	0.006
877	0.005
877	0.005
878	0.005
878	0.005
878	0.005
879	0.005
879	0.005
880	0.005
880	0.005
881	0.006
881	0.006
881	0.007
882	0.007
882	0.008
883	0.008
883	0.009
884	0.01
884	0.01
884	0.011
885	0.012
885	0.012
886	0.013
886	0.013
887	0.013
887	0.013
887	0.013
888	0.013
888	0.013
889	0.013
889	0.014
890	0.014
890	0.015
890	0.015
891	0.016
891	0.016
892	0.016
892	0.016
893	0.017
893	0.017
893	0.016
894	0.016
894	0.015
895	0.014
895	0.013
895	0.012
896	0.011
896	0.01
897	0.009
897	0.009
898	0.008
898	0.007
898	0.006
899	0.006
899	0.006
900	0.006
900	0.007
901	0.007
901	0.007
901	0.007
902	0.008
902	0.008
903	0.009
903	0.009
904	0.009
904	0.01
904	0.01
905	0.01
905	0.011
906	0.011
906	0.011
907	0.011
907	0.011
907	0.011
908	0.011
908	0.011
909	0.01
909	0.01
910	0.01
910	0.01
910	0.01
911	0.01
911	0.01
912	0.011
912	0.012
913	0.013
913	0.014
913	0.015
914	0.016
914	0.016
915	0.017
915	0.018
916	0.018
916	0.018
916	0.018
917	0.018
917	0.018
918	0.018
918	0.017
918	0.017
919	0.016
919	0.015
920	0.014
920	0.013
921	0.012
921	0.011
921	0.01
922	0.009
922	0.008
923	0.007
923	0.006
924	0.005
924	0.005
924	0.005
925	0.004
925	0.004
926	0.005
926	0.005
927	0.005
927	0.004
927	0.005
928	0.005
928	0.005
929	0.005
929	0.005
930	0.005
930	0.005
930	0.005
931	0.005
931	0.005
932	0.006
932	0.005
933	0.006
933	0.006
933	0.006
934	0.005
934	0.005
935	0.005
935	0.005
935	0.005
936	0.005
936	0.004
937	0.004
937	0.004
938	0.003
938	0.003
938	0.002
939	0.002
939	0.002
940	0.002
940	0.002
941	0.002
941	0.002
941	0.003
942	0.004
942	0.005
943	0.006
943	0.007
944	0.007
944	0.008
944	0.009
945	0.01
945	0.011
946	0.011
946	0.012
946	0.012
947	0.012
947	0.011
948	0.011
948	0.011
949	0.01
949	0.009
949	0.008
950	0.007
950	0.007
951	0.006
951	0.006
952	0.005
952	0.005
952	0.005
953	0.005
953	0.005
954	0.005
954	0.005
955	0.005
955	0.005
955	0.005
956	0.005
956	0.005
957	0.005
957	0.005
957	0.004
958	0.004
958	0.003
959	0.003
959	0.003
960	0.002
960	0.002
960	0.002
961	0.001
961	0.001
962	0.001
962	0.001
963	0.001
963	0.001
963	0.001
964	0.001
964	0.001
965	0.001
965	0.002
966	0.002
966	0.003
966	0.003
967	0.003
967	0.003
968	0.003
968	0.003
968	0.003
969	0.003
969	0.003
970	0.003
970	0.002
971	0.001
971	0
971	-0
972	-0.001
972	-0.001
973	-0.001
973	-0.002
974	-0.003
974	-0.003
974	-0.003
975	-0.003
975	-0.004
976	-0.005
976	-0.005
976	-0.006
977	-0.006
977	-0.007
978	-0.007
978	-0.008
979	-0.008
979	-0.009
979	-0.009
980	-0.009
980	-0.009
981	-0.009
981	-0.009
982	-0.009
982	-0.009
982	-0.009
983	-0.009
983	-0.009
984	-0.009
984	-0.009
984	-0.009
985	-0.008
985	-0.009
986	-0.009
986	-0.009
987	-0.009
987	-0.009
987	-0.009
988	-0.009
988	-0.009
989	-0.009
989	-0.008
990	-0.008
990	-0.007
990	-0.007
991	-0.006
991	-0.005
992	-0.005
992	-0.004
992	-0.004
993	-0.004
993	-0.004
994	-0.004
994	-0.004
995	-0.004
995	-0.005
995	-0.005
996	-0.005
996	-0.006
997	-0.007
997	-0.007
997	-0.007
998	-0.007
998	-0.007
999	-0.006
999	-0.006
1000	-0.006
1000	-0.005
1000	-0.004
1001	-0.003
1001	-0.002
1002	-0.002
1002	-0.002
1003	-0.001
1003	-0.001
1003	-0.001
1004	-0.002
1004	-0.002
1005	-0.003
1005	-0.003
1005	-0.004
1006	-0.005
1006	-0.005
1007	-0.006
1007	-0.006
1008	-0.006
1008	-0.007
1008	-0.007
1009	-0.007
1009	-0.006
1010	-0.006
1010	-0.006
1010	-0.005
1011	-0.004
1011	-0.004
1012	-0.003
1012	-0.003
1013	-0.002
1013	-0.002
1013	-0.003
1014	-0.003
1014	-0.004
1015	-0.004
1015	-0.005
1016	-0.006
1016	-0.007
1016	-0.008
1017	-0.009
1017	-0.01
1018	-0.01
1018	-0.01
1018	-0.01
1019	-0.01
1019	-0.01
1020	-0.01
1020	-0.009
1021	-0.009
1021	-0.009
1021	-0.009
1022	-0.009
1022	-0.009
1023	-0.009
1023	-0.009
1023	-0.009
1024	-0.01
1024	-0.01
1025	-0.011
1025	-0.011
1026	-0.011
1026	-0.011
1026	-0.012
1027	-0.013
1027	-0.013
1028	-0.013
1028	-0.013
1028	-0.013
1029	-0.014
1029	-0.014
1030	-0.014
1030	-0.015
1031	-0.015
1031	-0.015
1031	-0.015
1032	-0.015
1032	-0.015
1033	-0.016
1033	-0.016
1033	-0.016
1034	-0.017
1034	-0.017
1035	-0.018
1035	-0.018
1036	-0.019
1036	-0.019
1036	-0.019
1037	-0.02
1037	-0.02
1038	-0.02
1038	-0.019
1039	-0.019
1039	-0.019
1039	-0.019
1040	-0.019
1040	-0.019
1041	-0.019
1041	-0.019
1041	-0.019
1042	-0.02
1042	-0.02
1043	-0.02
1043	-0.02
1044	-0.02
1044	-0.02
1044	-0.02
1045	-0.02
1045	-0.019
1046	-0.019
1046	-0.019
1046	-0.018
1047	-0.017
1047	-0.016
1048	-0.015
1048	-0.014
1049	-0.014
1049	-0.013
1049	-0.013
1050	-0.013
1050	-0.014
1051	-0.014
1051	-0.015
1051	-0.015
1052	-0.016
1052	-0.018
1053	-0.019
1053	-0.02
1053	-0.021
1054	-0.022
1054	-0.023
1055	-0.024
1055	-0.025
1056	-0.026
1056	-0.027
1056	-0.028
1057	-0.029
1057	-0.03
1058	-0.03
1058	-0.031
1058	-0.031
1059	-0.032
1059	-0.033
1060	-0.033
1060	-0.033
1061	-0.033
1061	-0.033
1061	-0.032
1062	-0.032
1062	-0.032
1063	-0.032
1063	-0.033
1063	-0.033
1064	-0.033
1064	-0.033
1065	-0.033
1065	-0.033
1066	-0.033
1066	-0.032
1066	-0.031
1067	-0.031
1067	-0.03
1068	-0.028
1068	-0.028
1068	-0.027
1069	-0.027
1069	-0.027
1070	-0.027
1070	-0.026
1071	-0.027
1071	-0.027
1071	-0.028
1072	-0.029
1072	-0.03
1073	-0.03
1073	-0.031
1073	-0.032
1074	-0.032
1074	-0.033
1075	-0.035
1075	-0.036
1076	-0.038
1076	-0.039
1076	-0.041
1077	-0.042
1077	-0.044
1078	-0.045
1078	-0.046
1078	-0.047
1079	-0.048
1079	-0.047
1080	-0.048
1080	-0.048
1080	-0.048
1081	-0.048
1081	-0.047
1082	-0.047
1082	-0.048
1083	-0.048
1083	-0.049
1083	-0.049
1084	-0.049
1084	-0.049
1085	-0.05
1085	-0.05
1085	-0.05
1086	-0.051
1086	-0.051
1087	-0.05
1087	-0.051
1088	-0.051
1088	-0.052
1088	-0.052
1089	-0.053
1089	-0.054
1090	-0.055
1090	-0.055
1090	-0.055
1091	-0.056
1091	-0.056
1092	-0.057
1092	-0.057
1092	-0.057
1093	-0.058
1093	-0.058
1094	-0.058
1094	-0.059
1095	-0.06
1095	-0.061
1095	-0.062
1096	-0.062
1096	-0.063
1097	-0.064
1097	-0.065
1097	-0.066
1098	-0.068
1098	-0.069
1099	-0.07
1099	-0.071
1100	-0.072
1100	-0.073
1100	-0.075
1101	-0.076
1101	-0.078
1102	-0.079
1102	-0.08
1102	-0.081
1103	-0.083
1103	-0.083
1104	-0.085
1104	-0.087
1104	-0.089
1105	-0.092
1105	-0.093
1106	-0.097
1106	-0.098
1107	-0.103
1107	-0.105
1107	-0.11
1108	-0.112
1108	-0.113
1109	-0.115
1109	-0.118
1109	-0.12
1110	-0.122
1110	-0.124
1111	-0.129
1111	-0.121
