Data from 15c-1-8a_Absorbance__1601__05202.txt Node

Date: Thu Jan 25 16:59:21 CET 2024
User: Marek
Spectrometer: MAYP115816
Trigger mode: 0
Integration Time (sec): 2.000000E-1
Scans to average: 10
Electric dark correction enabled: true
Nonlinearity correction enabled: true
Boxcar width: 5
XAxis mode: Wavelengths
Number of Pixels in Spectrum: 2068
>>>>>Begin Spectral Data<<<<<
199	-0.545
199	-0.508
200	-0.433
200	-0.371
201	-0.336
201	-0.313
202	-0.287
202	-0.281
203	-0.273
203	-0.268
204	-0.258
204	-0.242
205	-0.229
205	-0.224
205	-0.224
206	-0.222
206	-0.226
207	-0.227
207	-0.226
208	-0.227
208	-0.226
209	-0.222
209	-0.225
210	-0.227
210	-0.225
211	-0.225
211	-0.228
212	-0.227
212	-0.226
213	-0.228
213	-0.229
213	-0.234
214	-0.234
214	-0.234
215	-0.231
215	-0.234
216	-0.234
216	-0.236
217	-0.234
217	-0.235
218	-0.235
218	-0.233
219	-0.227
219	-0.229
220	-0.232
220	-0.233
221	-0.233
221	-0.234
221	-0.231
222	-0.23
222	-0.229
223	-0.225
223	-0.225
224	-0.223
224	-0.216
225	-0.208
225	-0.205
226	-0.199
226	-0.191
227	-0.181
227	-0.178
228	-0.166
228	-0.157
229	-0.145
229	-0.13
229	-0.116
230	-0.102
230	-0.086
231	-0.069
231	-0.05
232	-0.034
232	-0.014
233	0.001
233	0.018
234	0.03
234	0.043
235	0.054
235	0.064
236	0.074
236	0.082
236	0.088
237	0.094
237	0.098
238	0.103
238	0.106
239	0.109
239	0.112
240	0.114
240	0.116
241	0.117
241	0.119
242	0.12
242	0.122
243	0.123
243	0.124
243	0.125
244	0.127
244	0.127
245	0.128
245	0.129
246	0.131
246	0.132
247	0.133
247	0.134
248	0.135
248	0.136
249	0.137
249	0.138
250	0.14
250	0.141
250	0.142
251	0.143
251	0.144
252	0.146
252	0.147
253	0.148
253	0.149
254	0.15
254	0.151
255	0.152
255	0.153
256	0.154
256	0.155
257	0.156
257	0.156
258	0.157
258	0.157
258	0.157
259	0.157
259	0.157
260	0.157
260	0.157
261	0.157
261	0.157
262	0.157
262	0.157
263	0.156
263	0.156
264	0.155
264	0.155
265	0.154
265	0.154
265	0.153
266	0.152
266	0.151
267	0.15
267	0.149
268	0.148
268	0.146
269	0.145
269	0.144
270	0.143
270	0.141
271	0.14
271	0.138
272	0.137
272	0.135
272	0.134
273	0.132
273	0.13
274	0.129
274	0.127
275	0.126
275	0.124
276	0.123
276	0.121
277	0.119
277	0.118
278	0.116
278	0.115
278	0.113
279	0.111
279	0.109
280	0.108
280	0.106
281	0.104
281	0.102
282	0.101
282	0.099
283	0.097
283	0.096
284	0.094
284	0.093
285	0.092
285	0.09
285	0.089
286	0.088
286	0.086
287	0.085
287	0.084
288	0.082
288	0.081
289	0.08
289	0.079
290	0.078
290	0.077
291	0.076
291	0.075
292	0.074
292	0.073
292	0.073
293	0.072
293	0.071
294	0.071
294	0.07
295	0.07
295	0.069
296	0.069
296	0.068
297	0.068
297	0.068
298	0.067
298	0.067
298	0.067
299	0.066
299	0.066
300	0.066
300	0.066
301	0.066
301	0.065
302	0.065
302	0.065
303	0.065
303	0.065
304	0.065
304	0.065
305	0.065
305	0.064
305	0.064
306	0.064
306	0.064
307	0.064
307	0.064
308	0.063
308	0.063
309	0.063
309	0.063
310	0.063
310	0.063
311	0.063
311	0.062
311	0.062
312	0.062
312	0.062
313	0.062
313	0.062
314	0.062
314	0.062
315	0.062
315	0.062
316	0.061
316	0.061
317	0.061
317	0.061
318	0.061
318	0.061
318	0.061
319	0.061
319	0.061
320	0.06
320	0.06
321	0.06
321	0.06
322	0.06
322	0.059
323	0.059
323	0.059
324	0.059
324	0.059
324	0.059
325	0.058
325	0.058
326	0.058
326	0.058
327	0.058
327	0.058
328	0.058
328	0.058
329	0.058
329	0.057
330	0.057
330	0.057
330	0.057
331	0.057
331	0.057
332	0.056
332	0.056
333	0.056
333	0.056
334	0.056
334	0.056
335	0.055
335	0.055
336	0.055
336	0.055
336	0.055
337	0.054
337	0.054
338	0.054
338	0.054
339	0.054
339	0.054
340	0.054
340	0.054
341	0.054
341	0.053
342	0.053
342	0.053
342	0.053
343	0.053
343	0.052
344	0.052
344	0.052
345	0.052
345	0.052
346	0.052
346	0.052
347	0.051
347	0.051
348	0.051
348	0.051
348	0.051
349	0.051
349	0.051
350	0.051
350	0.051
351	0.051
351	0.051
352	0.05
352	0.05
353	0.051
353	0.051
354	0.051
354	0.051
354	0.051
355	0.05
355	0.05
356	0.05
356	0.05
357	0.05
357	0.05
358	0.05
358	0.05
359	0.05
359	0.049
360	0.05
360	0.05
360	0.05
361	0.05
361	0.05
362	0.05
362	0.05
363	0.05
363	0.05
364	0.05
364	0.05
365	0.05
365	0.05
366	0.05
366	0.05
366	0.05
367	0.05
367	0.05
368	0.05
368	0.05
369	0.05
369	0.05
370	0.05
370	0.05
371	0.05
371	0.05
372	0.05
372	0.05
372	0.05
373	0.05
373	0.05
374	0.05
374	0.05
375	0.05
375	0.05
376	0.05
376	0.05
377	0.05
377	0.05
378	0.05
378	0.049
378	0.05
379	0.05
379	0.05
380	0.05
380	0.05
381	0.05
381	0.05
382	0.05
382	0.05
383	0.05
383	0.05
383	0.05
384	0.05
384	0.05
385	0.049
385	0.049
386	0.05
386	0.05
387	0.05
387	0.05
388	0.05
388	0.05
389	0.05
389	0.05
389	0.05
390	0.05
390	0.05
391	0.05
391	0.05
392	0.05
392	0.05
393	0.05
393	0.05
394	0.05
394	0.049
394	0.049
395	0.049
395	0.049
396	0.049
396	0.049
397	0.049
397	0.049
398	0.049
398	0.049
399	0.049
399	0.049
400	0.049
400	0.049
400	0.049
401	0.048
401	0.048
402	0.048
402	0.048
403	0.048
403	0.048
404	0.048
404	0.048
405	0.048
405	0.048
405	0.048
406	0.049
406	0.049
407	0.049
407	0.049
408	0.049
408	0.049
409	0.049
409	0.049
410	0.049
410	0.049
411	0.049
411	0.049
411	0.049
412	0.049
412	0.049
413	0.049
413	0.049
414	0.049
414	0.049
415	0.049
415	0.048
416	0.048
416	0.048
416	0.048
417	0.048
417	0.048
418	0.048
418	0.048
419	0.048
419	0.049
420	0.049
420	0.049
421	0.049
421	0.049
421	0.049
422	0.049
422	0.049
423	0.049
423	0.048
424	0.048
424	0.048
425	0.048
425	0.048
426	0.047
426	0.047
427	0.047
427	0.048
427	0.047
428	0.047
428	0.047
429	0.047
429	0.047
430	0.047
430	0.046
431	0.046
431	0.046
432	0.046
432	0.046
432	0.046
433	0.045
433	0.046
434	0.046
434	0.046
435	0.046
435	0.046
436	0.046
436	0.046
437	0.046
437	0.046
437	0.046
438	0.046
438	0.046
439	0.046
439	0.046
440	0.046
440	0.046
441	0.046
441	0.046
442	0.046
442	0.046
442	0.046
443	0.046
443	0.045
444	0.045
444	0.045
445	0.045
445	0.045
446	0.045
446	0.045
447	0.045
447	0.045
447	0.045
448	0.045
448	0.045
449	0.045
449	0.045
450	0.045
450	0.045
451	0.045
451	0.045
452	0.045
452	0.045
452	0.045
453	0.045
453	0.045
454	0.045
454	0.045
455	0.045
455	0.045
456	0.045
456	0.045
457	0.045
457	0.045
458	0.045
458	0.044
458	0.045
459	0.044
459	0.044
460	0.044
460	0.043
461	0.043
461	0.043
462	0.043
462	0.044
463	0.044
463	0.044
463	0.044
464	0.044
464	0.044
465	0.044
465	0.044
466	0.044
466	0.044
467	0.044
467	0.043
467	0.043
468	0.043
468	0.043
469	0.043
469	0.043
470	0.043
470	0.043
471	0.043
471	0.043
472	0.043
472	0.043
472	0.043
473	0.043
473	0.043
474	0.043
474	0.043
475	0.044
475	0.044
476	0.044
476	0.045
477	0.045
477	0.045
477	0.045
478	0.046
478	0.046
479	0.046
479	0.046
480	0.046
480	0.046
481	0.046
481	0.046
482	0.046
482	0.046
482	0.046
483	0.046
483	0.047
484	0.047
484	0.047
485	0.046
485	0.046
486	0.046
486	0.046
487	0.046
487	0.046
487	0.046
488	0.046
488	0.046
489	0.046
489	0.046
490	0.047
490	0.047
491	0.047
491	0.048
492	0.048
492	0.048
492	0.048
493	0.049
493	0.049
494	0.05
494	0.05
495	0.05
495	0.051
496	0.051
496	0.051
496	0.052
497	0.052
497	0.052
498	0.052
498	0.052
499	0.052
499	0.052
500	0.052
500	0.053
501	0.053
501	0.053
501	0.054
502	0.054
502	0.054
503	0.054
503	0.054
504	0.054
504	0.054
505	0.055
505	0.055
506	0.055
506	0.056
506	0.056
507	0.056
507	0.057
508	0.057
508	0.058
509	0.058
509	0.059
510	0.059
510	0.06
511	0.06
511	0.06
511	0.06
512	0.061
512	0.06
513	0.06
513	0.061
514	0.061
514	0.061
515	0.061
515	0.061
515	0.061
516	0.061
516	0.061
517	0.061
517	0.061
518	0.061
518	0.061
519	0.061
519	0.061
520	0.061
520	0.062
520	0.062
521	0.062
521	0.062
522	0.062
522	0.062
523	0.062
523	0.062
524	0.062
524	0.061
524	0.061
525	0.061
525	0.06
526	0.06
526	0.06
527	0.06
527	0.06
528	0.06
528	0.06
529	0.059
529	0.059
529	0.059
530	0.059
530	0.059
531	0.059
531	0.06
532	0.06
532	0.06
533	0.06
533	0.06
533	0.06
534	0.059
534	0.059
535	0.059
535	0.059
536	0.059
536	0.059
537	0.058
537	0.058
538	0.058
538	0.057
538	0.057
539	0.057
539	0.057
540	0.057
540	0.056
541	0.056
541	0.057
542	0.057
542	0.057
542	0.057
543	0.058
543	0.058
544	0.058
544	0.058
545	0.059
545	0.059
546	0.059
546	0.059
547	0.058
547	0.057
547	0.057
548	0.057
548	0.056
549	0.056
549	0.055
550	0.055
550	0.054
551	0.054
551	0.054
551	0.054
552	0.054
552	0.054
553	0.055
553	0.055
554	0.055
554	0.054
555	0.054
555	0.054
556	0.054
556	0.053
556	0.053
557	0.053
557	0.053
558	0.053
558	0.053
559	0.053
559	0.053
560	0.053
560	0.052
560	0.053
561	0.054
561	0.054
562	0.054
562	0.054
563	0.053
563	0.052
564	0.052
564	0.051
564	0.051
565	0.051
565	0.05
566	0.049
566	0.049
567	0.049
567	0.049
568	0.048
568	0.048
568	0.049
569	0.049
569	0.049
570	0.048
570	0.048
571	0.048
571	0.048
572	0.048
572	0.048
573	0.047
573	0.047
573	0.046
574	0.047
574	0.047
575	0.048
575	0.05
576	0.05
576	0.049
577	0.049
577	0.048
577	0.049
578	0.049
578	0.049
579	0.05
579	0.05
580	0.048
580	0.046
581	0.044
581	0.044
581	0.045
582	0.046
582	0.046
583	0.047
583	0.047
584	0.045
584	0.044
585	0.045
585	0.046
585	0.047
586	0.047
586	0.046
587	0.045
587	0.044
588	0.043
588	0.042
589	0.043
589	0.043
590	0.043
590	0.043
590	0.044
591	0.045
591	0.044
592	0.044
592	0.043
593	0.043
593	0.044
594	0.043
594	0.043
594	0.043
595	0.043
595	0.043
596	0.043
596	0.044
597	0.046
597	0.046
598	0.046
598	0.046
598	0.046
599	0.046
599	0.046
600	0.045
600	0.044
601	0.044
601	0.044
602	0.042
602	0.043
602	0.042
603	0.043
603	0.044
604	0.045
604	0.045
605	0.046
605	0.046
606	0.046
606	0.045
606	0.045
607	0.045
607	0.045
608	0.044
608	0.043
609	0.043
609	0.043
610	0.043
610	0.042
610	0.043
611	0.044
611	0.045
612	0.046
612	0.047
613	0.048
613	0.048
614	0.048
614	0.047
614	0.048
615	0.047
615	0.047
616	0.047
616	0.047
617	0.047
617	0.046
618	0.045
618	0.046
618	0.046
619	0.046
619	0.047
620	0.048
620	0.048
621	0.048
621	0.047
622	0.047
622	0.047
622	0.046
623	0.046
623	0.046
624	0.046
624	0.045
625	0.045
625	0.045
626	0.045
626	0.045
626	0.045
627	0.046
627	0.046
628	0.047
628	0.047
629	0.047
629	0.047
630	0.047
630	0.047
630	0.048
631	0.048
631	0.048
632	0.048
632	0.048
633	0.048
633	0.049
634	0.049
634	0.049
634	0.05
635	0.05
635	0.05
636	0.05
636	0.051
637	0.051
637	0.051
638	0.051
638	0.051
638	0.051
639	0.051
639	0.051
640	0.052
640	0.053
641	0.053
641	0.054
642	0.055
642	0.056
642	0.057
643	0.058
643	0.059
644	0.06
644	0.06
645	0.061
645	0.062
646	0.062
646	0.063
646	0.064
647	0.064
647	0.065
648	0.065
648	0.065
649	0.066
649	0.067
650	0.068
650	0.069
650	0.07
651	0.07
651	0.071
652	0.071
652	0.072
653	0.073
653	0.078
653	0.081
654	0.065
654	0.054
655	0.052
655	0.053
656	0.054
656	0.054
657	0.055
657	0.056
657	0.057
658	0.055
658	0.051
659	0.064
659	0.082
660	0.089
660	0.09
661	0.091
661	0.092
661	0.093
662	0.095
662	0.095
663	0.096
663	0.097
664	0.098
664	0.098
665	0.099
665	0.1
665	0.101
666	0.101
666	0.102
667	0.102
667	0.103
668	0.104
668	0.105
669	0.106
669	0.107
669	0.108
670	0.108
670	0.109
671	0.109
671	0.109
672	0.11
672	0.11
672	0.111
673	0.112
673	0.112
674	0.113
674	0.113
675	0.114
675	0.115
676	0.116
676	0.117
676	0.117
677	0.118
677	0.119
678	0.119
678	0.118
679	0.118
679	0.119
680	0.119
680	0.119
680	0.118
681	0.119
681	0.119
682	0.119
682	0.12
683	0.121
683	0.122
684	0.122
684	0.122
684	0.121
685	0.122
685	0.122
686	0.122
686	0.121
687	0.121
687	0.121
687	0.121
688	0.121
688	0.121
689	0.122
689	0.123
690	0.122
690	0.122
691	0.122
691	0.122
691	0.121
692	0.121
692	0.12
693	0.121
693	0.121
694	0.12
694	0.12
695	0.121
695	0.122
695	0.122
696	0.122
696	0.122
697	0.122
697	0.122
698	0.121
698	0.12
698	0.12
699	0.119
699	0.117
700	0.116
700	0.116
701	0.116
701	0.115
702	0.114
702	0.114
702	0.113
703	0.113
703	0.112
704	0.111
704	0.111
705	0.11
705	0.11
705	0.108
706	0.108
706	0.107
707	0.107
707	0.106
708	0.106
708	0.106
709	0.106
709	0.105
709	0.104
710	0.104
710	0.104
711	0.104
711	0.103
712	0.102
712	0.102
713	0.101
713	0.101
713	0.1
714	0.099
714	0.099
715	0.098
715	0.097
716	0.096
716	0.096
716	0.095
717	0.094
717	0.093
718	0.092
718	0.091
719	0.091
719	0.09
720	0.089
720	0.089
720	0.088
721	0.087
721	0.087
722	0.086
722	0.085
723	0.085
723	0.084
723	0.083
724	0.083
724	0.082
725	0.081
725	0.081
726	0.08
726	0.08
727	0.079
727	0.078
727	0.078
728	0.077
728	0.076
729	0.076
729	0.075
730	0.075
730	0.074
730	0.073
731	0.072
731	0.072
732	0.072
732	0.071
733	0.07
733	0.07
734	0.069
734	0.069
734	0.068
735	0.068
735	0.067
736	0.067
736	0.067
737	0.067
737	0.067
737	0.066
738	0.065
738	0.064
739	0.064
739	0.063
740	0.063
740	0.062
741	0.062
741	0.061
741	0.06
742	0.058
742	0.058
743	0.058
743	0.058
744	0.057
744	0.057
744	0.056
745	0.056
745	0.055
746	0.055
746	0.055
747	0.054
747	0.054
748	0.054
748	0.054
748	0.053
749	0.052
749	0.052
750	0.051
750	0.05
751	0.05
751	0.05
751	0.049
752	0.048
752	0.047
753	0.046
753	0.046
754	0.045
754	0.044
754	0.043
755	0.042
755	0.042
756	0.041
756	0.039
757	0.038
757	0.038
758	0.037
758	0.036
758	0.036
759	0.035
759	0.034
760	0.033
760	0.032
761	0.031
761	0.031
761	0.031
762	0.031
762	0.031
763	0.031
763	0.03
764	0.03
764	0.03
764	0.03
765	0.03
765	0.03
766	0.03
766	0.03
767	0.03
767	0.028
768	0.027
768	0.026
768	0.025
769	0.024
769	0.023
770	0.022
770	0.02
771	0.019
771	0.017
771	0.016
772	0.015
772	0.014
773	0.013
773	0.012
774	0.01
774	0.008
775	0.007
775	0.005
775	0.003
776	0.001
776	-0
777	-0.002
777	-0.003
778	-0.005
778	-0.006
778	-0.007
779	-0.008
779	-0.009
780	-0.01
780	-0.011
781	-0.012
781	-0.014
781	-0.016
782	-0.019
782	-0.022
783	-0.024
783	-0.027
784	-0.03
784	-0.034
784	-0.038
785	-0.041
785	-0.045
786	-0.048
786	-0.051
787	-0.054
787	-0.056
788	-0.06
788	-0.064
788	-0.068
789	-0.073
789	-0.077
790	-0.08
790	-0.085
791	-0.09
791	-0.096
791	-0.102
792	-0.102
792	-0.097
793	-0.098
793	-0.099
794	-0.103
794	-0.108
794	-0.115
795	-0.12
795	-0.123
796	-0.125
796	-0.127
797	-0.136
797	-0.147
797	-0.154
798	-0.16
798	-0.164
799	-0.165
799	-0.165
800	-0.165
800	-0.167
801	-0.17
801	-0.171
801	-0.171
802	-0.172
802	-0.173
803	-0.173
803	-0.173
804	-0.172
804	-0.166
804	-0.159
805	-0.155
805	-0.152
806	-0.15
806	-0.149
807	-0.147
807	-0.146
807	-0.146
808	-0.145
808	-0.146
809	-0.15
809	-0.155
810	-0.158
810	-0.16
810	-0.162
811	-0.162
811	-0.159
812	-0.154
812	-0.148
813	-0.142
813	-0.135
813	-0.128
814	-0.121
814	-0.112
815	-0.102
815	-0.092
816	-0.083
816	-0.076
817	-0.071
817	-0.065
817	-0.06
818	-0.054
818	-0.049
819	-0.044
819	-0.04
820	-0.037
820	-0.033
820	-0.03
821	-0.026
821	-0.023
822	-0.02
822	-0.017
823	-0.014
823	-0.012
823	-0.01
824	-0.008
824	-0.006
825	-0.004
825	-0.002
826	-0
826	0
826	0
827	0.001
827	0.001
828	0.001
828	0.001
829	0.001
829	0.001
829	0.001
830	0.002
830	0.002
831	0.004
831	0.005
832	0.006
832	0.008
832	0.009
833	0.01
833	0.01
834	0.01
834	0.01
835	0.009
835	0.009
835	0.008
836	0.007
836	0.007
837	0.006
837	0.006
838	0.006
838	0.006
839	0.006
839	0.006
839	0.006
840	0.006
840	0.006
841	0.006
841	0.006
842	0.006
842	0.006
842	0.006
843	0.006
843	0.006
844	0.006
844	0.007
845	0.007
845	0.008
845	0.009
846	0.009
846	0.01
847	0.011
847	0.012
848	0.013
848	0.013
848	0.013
849	0.013
849	0.013
850	0.013
850	0.013
851	0.013
851	0.013
851	0.012
852	0.012
852	0.012
853	0.011
853	0.01
854	0.01
854	0.01
854	0.01
855	0.01
855	0.01
856	0.01
856	0.011
857	0.012
857	0.012
857	0.013
858	0.014
858	0.015
859	0.016
859	0.016
860	0.017
860	0.017
860	0.017
861	0.017
861	0.016
862	0.016
862	0.015
863	0.015
863	0.015
863	0.015
864	0.015
864	0.015
865	0.015
865	0.015
866	0.016
866	0.016
866	0.017
867	0.017
867	0.018
868	0.018
868	0.018
869	0.019
869	0.019
869	0.019
870	0.019
870	0.018
871	0.018
871	0.018
872	0.017
872	0.016
872	0.015
873	0.015
873	0.014
874	0.012
874	0.011
875	0.01
875	0.009
875	0.007
876	0.006
876	0.006
877	0.005
877	0.004
878	0.004
878	0.004
878	0.004
879	0.004
879	0.004
880	0.004
880	0.005
881	0.005
881	0.006
881	0.006
882	0.007
882	0.007
883	0.008
883	0.008
884	0.009
884	0.009
884	0.01
885	0.01
885	0.011
886	0.011
886	0.011
887	0.011
887	0.011
887	0.011
888	0.011
888	0.011
889	0.011
889	0.011
890	0.012
890	0.012
890	0.013
891	0.013
891	0.013
892	0.013
892	0.013
893	0.013
893	0.013
893	0.013
894	0.012
894	0.011
895	0.01
895	0.008
895	0.007
896	0.006
896	0.005
897	0.004
897	0.003
898	0.002
898	0.001
898	0
899	0
899	0
900	0.001
900	0.001
901	0.001
901	0.002
901	0.002
902	0.003
902	0.004
903	0.004
903	0.005
904	0.006
904	0.006
904	0.007
905	0.008
905	0.009
906	0.01
906	0.01
907	0.011
907	0.011
907	0.011
908	0.011
908	0.011
909	0.011
909	0.011
910	0.011
910	0.011
910	0.011
911	0.011
911	0.011
912	0.012
912	0.012
913	0.013
913	0.014
913	0.014
914	0.015
914	0.016
915	0.016
915	0.017
916	0.018
916	0.018
916	0.018
917	0.019
917	0.019
918	0.018
918	0.018
918	0.018
919	0.017
919	0.017
920	0.016
920	0.014
921	0.013
921	0.012
921	0.01
922	0.009
922	0.008
923	0.007
923	0.006
924	0.005
924	0.004
924	0.004
925	0.003
925	0.003
926	0.003
926	0.003
927	0.003
927	0.003
927	0.003
928	0.003
928	0.003
929	0.004
929	0.004
930	0.004
930	0.005
930	0.004
931	0.004
931	0.004
932	0.004
932	0.004
933	0.004
933	0.004
933	0.004
934	0.003
934	0.003
935	0.003
935	0.003
935	0.003
936	0.003
936	0.003
937	0.003
937	0.003
938	0.002
938	0.002
938	0.001
939	0.001
939	0.001
940	0
940	0
941	0
941	0.001
941	0.001
942	0.002
942	0.002
943	0.003
943	0.004
944	0.005
944	0.006
944	0.007
945	0.008
945	0.008
946	0.009
946	0.009
946	0.01
947	0.01
947	0.01
948	0.009
948	0.009
949	0.008
949	0.008
949	0.007
950	0.007
950	0.006
951	0.006
951	0.005
952	0.005
952	0.005
952	0.005
953	0.004
953	0.004
954	0.004
954	0.004
955	0.004
955	0.004
955	0.005
956	0.005
956	0.004
957	0.004
957	0.004
957	0.003
958	0.003
958	0.003
959	0.002
959	0.002
960	0.002
960	0.001
960	0.001
961	0.001
961	0.001
962	0.001
962	0.001
963	0.001
963	0.001
963	0.001
964	0.001
964	0.001
965	0.002
965	0.002
966	0.003
966	0.003
966	0.004
967	0.004
967	0.004
968	0.004
968	0.004
968	0.004
969	0.004
969	0.004
970	0.003
970	0.002
971	0.001
971	0.001
971	-0
972	-0
972	-0.001
973	-0.001
973	-0.002
974	-0.002
974	-0.003
974	-0.003
975	-0.004
975	-0.004
976	-0.005
976	-0.005
976	-0.006
977	-0.007
977	-0.008
978	-0.008
978	-0.009
979	-0.009
979	-0.009
979	-0.009
980	-0.009
980	-0.009
981	-0.009
981	-0.009
982	-0.009
982	-0.009
982	-0.009
983	-0.009
983	-0.009
984	-0.008
984	-0.008
984	-0.008
985	-0.009
985	-0.009
986	-0.009
986	-0.01
987	-0.01
987	-0.01
987	-0.01
988	-0.01
988	-0.01
989	-0.01
989	-0.009
990	-0.009
990	-0.008
990	-0.008
991	-0.006
991	-0.006
992	-0.005
992	-0.004
992	-0.004
993	-0.004
993	-0.004
994	-0.004
994	-0.005
995	-0.005
995	-0.005
995	-0.006
996	-0.006
996	-0.007
997	-0.008
997	-0.008
997	-0.008
998	-0.009
998	-0.008
999	-0.008
999	-0.008
1000	-0.007
1000	-0.007
1000	-0.006
1001	-0.005
1001	-0.004
1002	-0.004
1002	-0.003
1003	-0.003
1003	-0.003
1003	-0.003
1004	-0.003
1004	-0.004
1005	-0.004
1005	-0.005
1005	-0.005
1006	-0.006
1006	-0.007
1007	-0.007
1007	-0.007
1008	-0.007
1008	-0.008
1008	-0.008
1009	-0.008
1009	-0.008
1010	-0.008
1010	-0.007
1010	-0.006
1011	-0.006
1011	-0.005
1012	-0.005
1012	-0.004
1013	-0.003
1013	-0.003
1013	-0.003
1014	-0.003
1014	-0.004
1015	-0.004
1015	-0.005
1016	-0.006
1016	-0.007
1016	-0.009
1017	-0.01
1017	-0.011
1018	-0.011
1018	-0.012
1018	-0.012
1019	-0.012
1019	-0.012
1020	-0.012
1020	-0.011
1021	-0.011
1021	-0.011
1021	-0.011
1022	-0.011
1022	-0.01
1023	-0.01
1023	-0.01
1023	-0.011
1024	-0.011
1024	-0.011
1025	-0.012
1025	-0.012
1026	-0.012
1026	-0.013
1026	-0.013
1027	-0.014
1027	-0.014
1028	-0.015
1028	-0.015
1028	-0.015
1029	-0.015
1029	-0.016
1030	-0.016
1030	-0.016
1031	-0.016
1031	-0.016
1031	-0.016
1032	-0.016
1032	-0.017
1033	-0.017
1033	-0.017
1033	-0.017
1034	-0.018
1034	-0.019
1035	-0.019
1035	-0.019
1036	-0.02
1036	-0.02
1036	-0.02
1037	-0.02
1037	-0.019
1038	-0.019
1038	-0.019
1039	-0.019
1039	-0.018
1039	-0.018
1040	-0.018
1040	-0.017
1041	-0.017
1041	-0.017
1041	-0.017
1042	-0.018
1042	-0.018
1043	-0.017
1043	-0.017
1044	-0.017
1044	-0.018
1044	-0.017
1045	-0.017
1045	-0.017
1046	-0.017
1046	-0.017
1046	-0.016
1047	-0.015
1047	-0.015
1048	-0.013
1048	-0.013
1049	-0.013
1049	-0.013
1049	-0.012
1050	-0.013
1050	-0.013
1051	-0.014
1051	-0.015
1051	-0.016
1052	-0.017
1052	-0.018
1053	-0.019
1053	-0.021
1053	-0.022
1054	-0.023
1054	-0.024
1055	-0.025
1055	-0.026
1056	-0.027
1056	-0.028
1056	-0.029
1057	-0.031
1057	-0.032
1058	-0.032
1058	-0.033
1058	-0.033
1059	-0.034
1059	-0.034
1060	-0.035
1060	-0.035
1061	-0.035
1061	-0.034
1061	-0.034
1062	-0.034
1062	-0.034
1063	-0.034
1063	-0.034
1063	-0.034
1064	-0.034
1064	-0.034
1065	-0.033
1065	-0.033
1066	-0.033
1066	-0.032
1066	-0.031
1067	-0.031
1067	-0.03
1068	-0.029
1068	-0.029
1068	-0.028
1069	-0.028
1069	-0.028
1070	-0.028
1070	-0.028
1071	-0.029
1071	-0.029
1071	-0.03
1072	-0.03
1072	-0.031
1073	-0.031
1073	-0.031
1073	-0.032
1074	-0.032
1074	-0.033
1075	-0.034
1075	-0.035
1076	-0.036
1076	-0.037
1076	-0.039
1077	-0.041
1077	-0.043
1078	-0.044
1078	-0.045
1078	-0.046
1079	-0.047
1079	-0.046
1080	-0.047
1080	-0.047
1080	-0.047
1081	-0.047
1081	-0.046
1082	-0.046
1082	-0.047
1083	-0.047
1083	-0.047
1083	-0.048
1084	-0.048
1084	-0.048
1085	-0.049
1085	-0.049
1085	-0.049
1086	-0.05
1086	-0.05
1087	-0.05
1087	-0.05
1088	-0.051
1088	-0.051
1088	-0.052
1089	-0.053
1089	-0.054
1090	-0.055
1090	-0.055
1090	-0.056
1091	-0.056
1091	-0.057
1092	-0.057
1092	-0.057
1092	-0.058
1093	-0.058
1093	-0.058
1094	-0.058
1094	-0.058
1095	-0.059
1095	-0.059
1095	-0.06
1096	-0.06
1096	-0.061
1097	-0.062
1097	-0.063
1097	-0.064
1098	-0.065
1098	-0.066
1099	-0.067
1099	-0.068
1100	-0.069
1100	-0.07
1100	-0.072
1101	-0.074
1101	-0.076
1102	-0.077
1102	-0.078
1102	-0.079
1103	-0.081
1103	-0.083
1104	-0.085
1104	-0.087
1104	-0.089
1105	-0.09
1105	-0.092
1106	-0.095
1106	-0.098
1107	-0.101
1107	-0.104
1107	-0.108
1108	-0.109
1108	-0.11
1109	-0.112
1109	-0.116
1109	-0.119
1110	-0.121
1110	-0.123
1111	-0.126
1111	-0.125
