Data from 15c-1-8a_Absorbance__1039__04640.txt Node

Date: Thu Jan 25 16:40:37 CET 2024
User: Marek
Spectrometer: MAYP115816
Trigger mode: 0
Integration Time (sec): 2.000000E-1
Scans to average: 10
Electric dark correction enabled: true
Nonlinearity correction enabled: true
Boxcar width: 5
XAxis mode: Wavelengths
Number of Pixels in Spectrum: 2068
>>>>>Begin Spectral Data<<<<<
199	-0.525
199	-0.479
200	-0.412
200	-0.354
201	-0.322
201	-0.298
202	-0.275
202	-0.269
203	-0.26
203	-0.255
204	-0.244
204	-0.23
205	-0.217
205	-0.21
205	-0.208
206	-0.207
206	-0.208
207	-0.208
207	-0.207
208	-0.206
208	-0.205
209	-0.202
209	-0.205
210	-0.208
210	-0.209
211	-0.209
211	-0.21
212	-0.21
212	-0.209
213	-0.211
213	-0.213
213	-0.217
214	-0.217
214	-0.216
215	-0.213
215	-0.214
216	-0.215
216	-0.216
217	-0.215
217	-0.216
218	-0.216
218	-0.215
219	-0.211
219	-0.212
220	-0.214
220	-0.215
221	-0.215
221	-0.216
221	-0.214
222	-0.213
222	-0.212
223	-0.209
223	-0.209
224	-0.208
224	-0.202
225	-0.196
225	-0.194
226	-0.188
226	-0.179
227	-0.17
227	-0.166
228	-0.154
228	-0.145
229	-0.131
229	-0.116
229	-0.102
230	-0.088
230	-0.072
231	-0.055
231	-0.038
232	-0.023
232	-0.005
233	0.011
233	0.027
234	0.04
234	0.053
235	0.065
235	0.074
236	0.083
236	0.09
236	0.097
237	0.103
237	0.107
238	0.111
238	0.115
239	0.118
239	0.12
240	0.122
240	0.124
241	0.125
241	0.127
242	0.128
242	0.129
243	0.13
243	0.131
243	0.132
244	0.134
244	0.134
245	0.135
245	0.136
246	0.137
246	0.139
247	0.14
247	0.141
248	0.142
248	0.143
249	0.145
249	0.145
250	0.147
250	0.148
250	0.149
251	0.15
251	0.151
252	0.153
252	0.154
253	0.155
253	0.156
254	0.157
254	0.158
255	0.159
255	0.16
256	0.161
256	0.161
257	0.162
257	0.162
258	0.163
258	0.163
258	0.164
259	0.164
259	0.164
260	0.164
260	0.164
261	0.164
261	0.164
262	0.164
262	0.164
263	0.163
263	0.163
264	0.162
264	0.162
265	0.161
265	0.161
265	0.16
266	0.159
266	0.158
267	0.157
267	0.156
268	0.155
268	0.154
269	0.153
269	0.152
270	0.15
270	0.149
271	0.147
271	0.146
272	0.144
272	0.143
272	0.141
273	0.139
273	0.138
274	0.136
274	0.134
275	0.133
275	0.131
276	0.129
276	0.128
277	0.126
277	0.125
278	0.123
278	0.121
278	0.12
279	0.118
279	0.116
280	0.114
280	0.112
281	0.111
281	0.109
282	0.107
282	0.106
283	0.104
283	0.103
284	0.101
284	0.1
285	0.099
285	0.097
285	0.096
286	0.095
286	0.094
287	0.093
287	0.091
288	0.09
288	0.089
289	0.088
289	0.087
290	0.086
290	0.084
291	0.083
291	0.082
292	0.082
292	0.081
292	0.08
293	0.079
293	0.079
294	0.078
294	0.077
295	0.077
295	0.077
296	0.076
296	0.075
297	0.075
297	0.075
298	0.074
298	0.074
298	0.074
299	0.073
299	0.073
300	0.073
300	0.073
301	0.072
301	0.072
302	0.072
302	0.072
303	0.072
303	0.072
304	0.072
304	0.072
305	0.071
305	0.071
305	0.071
306	0.071
306	0.071
307	0.071
307	0.071
308	0.071
308	0.071
309	0.071
309	0.07
310	0.07
310	0.07
311	0.07
311	0.07
311	0.07
312	0.07
312	0.07
313	0.07
313	0.069
314	0.069
314	0.069
315	0.069
315	0.069
316	0.069
316	0.069
317	0.068
317	0.068
318	0.068
318	0.068
318	0.068
319	0.068
319	0.068
320	0.068
320	0.067
321	0.067
321	0.067
322	0.067
322	0.067
323	0.066
323	0.066
324	0.066
324	0.066
324	0.065
325	0.065
325	0.065
326	0.065
326	0.065
327	0.065
327	0.065
328	0.065
328	0.065
329	0.064
329	0.064
330	0.064
330	0.064
330	0.064
331	0.064
331	0.064
332	0.063
332	0.063
333	0.063
333	0.063
334	0.063
334	0.063
335	0.063
335	0.062
336	0.062
336	0.062
336	0.062
337	0.062
337	0.062
338	0.062
338	0.062
339	0.062
339	0.061
340	0.061
340	0.061
341	0.061
341	0.061
342	0.061
342	0.061
342	0.06
343	0.06
343	0.06
344	0.06
344	0.059
345	0.059
345	0.059
346	0.059
346	0.059
347	0.058
347	0.058
348	0.058
348	0.058
348	0.058
349	0.058
349	0.057
350	0.057
350	0.057
351	0.057
351	0.057
352	0.057
352	0.057
353	0.057
353	0.057
354	0.057
354	0.057
354	0.057
355	0.057
355	0.057
356	0.057
356	0.057
357	0.056
357	0.056
358	0.056
358	0.056
359	0.056
359	0.056
360	0.056
360	0.057
360	0.057
361	0.057
361	0.056
362	0.057
362	0.057
363	0.057
363	0.057
364	0.056
364	0.056
365	0.056
365	0.056
366	0.056
366	0.056
366	0.056
367	0.056
367	0.056
368	0.056
368	0.056
369	0.057
369	0.057
370	0.057
370	0.057
371	0.057
371	0.056
372	0.057
372	0.057
372	0.057
373	0.057
373	0.057
374	0.057
374	0.057
375	0.056
375	0.056
376	0.056
376	0.057
377	0.057
377	0.057
378	0.057
378	0.057
378	0.057
379	0.057
379	0.057
380	0.057
380	0.057
381	0.057
381	0.057
382	0.057
382	0.057
383	0.057
383	0.057
383	0.057
384	0.056
384	0.056
385	0.056
385	0.056
386	0.056
386	0.057
387	0.057
387	0.057
388	0.056
388	0.057
389	0.057
389	0.057
389	0.057
390	0.057
390	0.057
391	0.057
391	0.057
392	0.057
392	0.057
393	0.057
393	0.057
394	0.057
394	0.057
394	0.057
395	0.057
395	0.057
396	0.057
396	0.057
397	0.057
397	0.057
398	0.056
398	0.056
399	0.056
399	0.056
400	0.056
400	0.056
400	0.055
401	0.055
401	0.055
402	0.055
402	0.055
403	0.055
403	0.055
404	0.056
404	0.055
405	0.056
405	0.056
405	0.056
406	0.056
406	0.056
407	0.056
407	0.056
408	0.056
408	0.056
409	0.056
409	0.056
410	0.056
410	0.056
411	0.056
411	0.056
411	0.056
412	0.056
412	0.056
413	0.056
413	0.055
414	0.055
414	0.055
415	0.055
415	0.055
416	0.055
416	0.055
416	0.055
417	0.055
417	0.055
418	0.055
418	0.055
419	0.055
419	0.056
420	0.056
420	0.056
421	0.056
421	0.055
421	0.055
422	0.055
422	0.055
423	0.055
423	0.055
424	0.054
424	0.054
425	0.054
425	0.054
426	0.054
426	0.054
427	0.054
427	0.055
427	0.055
428	0.055
428	0.055
429	0.055
429	0.054
430	0.054
430	0.054
431	0.054
431	0.054
432	0.054
432	0.053
432	0.053
433	0.053
433	0.053
434	0.053
434	0.053
435	0.053
435	0.053
436	0.053
436	0.053
437	0.053
437	0.053
437	0.053
438	0.053
438	0.053
439	0.053
439	0.053
440	0.053
440	0.053
441	0.053
441	0.053
442	0.053
442	0.053
442	0.053
443	0.053
443	0.053
444	0.052
444	0.053
445	0.052
445	0.052
446	0.052
446	0.052
447	0.052
447	0.053
447	0.053
448	0.053
448	0.053
449	0.053
449	0.052
450	0.053
450	0.053
451	0.053
451	0.052
452	0.052
452	0.052
452	0.052
453	0.052
453	0.052
454	0.052
454	0.052
455	0.052
455	0.052
456	0.052
456	0.052
457	0.052
457	0.052
458	0.052
458	0.052
458	0.052
459	0.051
459	0.051
460	0.051
460	0.05
461	0.05
461	0.051
462	0.051
462	0.051
463	0.051
463	0.052
463	0.052
464	0.052
464	0.051
465	0.051
465	0.052
466	0.052
466	0.052
467	0.052
467	0.051
467	0.051
468	0.051
468	0.05
469	0.05
469	0.051
470	0.051
470	0.051
471	0.051
471	0.05
472	0.05
472	0.05
472	0.05
473	0.051
473	0.051
474	0.051
474	0.051
475	0.051
475	0.052
476	0.052
476	0.052
477	0.052
477	0.053
477	0.053
478	0.053
478	0.053
479	0.053
479	0.053
480	0.053
480	0.053
481	0.052
481	0.052
482	0.053
482	0.053
482	0.053
483	0.053
483	0.054
484	0.054
484	0.054
485	0.054
485	0.054
486	0.054
486	0.054
487	0.054
487	0.054
487	0.054
488	0.054
488	0.053
489	0.053
489	0.053
490	0.054
490	0.054
491	0.054
491	0.055
492	0.055
492	0.056
492	0.056
493	0.057
493	0.057
494	0.058
494	0.059
495	0.059
495	0.059
496	0.059
496	0.059
496	0.06
497	0.06
497	0.06
498	0.06
498	0.06
499	0.059
499	0.06
500	0.06
500	0.061
501	0.061
501	0.061
501	0.062
502	0.062
502	0.062
503	0.062
503	0.062
504	0.063
504	0.063
505	0.063
505	0.063
506	0.064
506	0.064
506	0.064
507	0.065
507	0.065
508	0.066
508	0.066
509	0.066
509	0.067
510	0.067
510	0.067
511	0.068
511	0.068
511	0.068
512	0.068
512	0.068
513	0.068
513	0.068
514	0.069
514	0.069
515	0.069
515	0.069
515	0.068
516	0.069
516	0.069
517	0.069
517	0.069
518	0.069
518	0.069
519	0.07
519	0.07
520	0.07
520	0.071
520	0.071
521	0.071
521	0.071
522	0.071
522	0.071
523	0.071
523	0.071
524	0.071
524	0.071
524	0.071
525	0.07
525	0.07
526	0.07
526	0.07
527	0.07
527	0.07
528	0.071
528	0.071
529	0.07
529	0.07
529	0.07
530	0.07
530	0.071
531	0.07
531	0.07
532	0.07
532	0.07
533	0.07
533	0.069
533	0.069
534	0.069
534	0.068
535	0.069
535	0.069
536	0.069
536	0.068
537	0.068
537	0.068
538	0.068
538	0.068
538	0.068
539	0.068
539	0.068
540	0.067
540	0.067
541	0.066
541	0.066
542	0.066
542	0.066
542	0.066
543	0.067
543	0.067
544	0.067
544	0.067
545	0.068
545	0.068
546	0.069
546	0.068
547	0.067
547	0.067
547	0.066
548	0.066
548	0.066
549	0.066
549	0.065
550	0.065
550	0.065
551	0.064
551	0.064
551	0.065
552	0.065
552	0.065
553	0.065
553	0.066
554	0.066
554	0.065
555	0.065
555	0.064
556	0.064
556	0.063
556	0.063
557	0.063
557	0.062
558	0.062
558	0.062
559	0.062
559	0.061
560	0.061
560	0.061
560	0.062
561	0.063
561	0.063
562	0.063
562	0.063
563	0.062
563	0.062
564	0.062
564	0.061
564	0.061
565	0.061
565	0.06
566	0.06
566	0.06
567	0.06
567	0.059
568	0.059
568	0.059
568	0.06
569	0.06
569	0.06
570	0.06
570	0.059
571	0.059
571	0.059
572	0.059
572	0.059
573	0.058
573	0.058
573	0.057
574	0.057
574	0.057
575	0.058
575	0.059
576	0.059
576	0.058
577	0.057
577	0.057
577	0.057
578	0.058
578	0.058
579	0.059
579	0.059
580	0.058
580	0.056
581	0.054
581	0.054
581	0.055
582	0.055
582	0.056
583	0.057
583	0.057
584	0.055
584	0.054
585	0.055
585	0.056
585	0.057
586	0.057
586	0.056
587	0.055
587	0.053
588	0.052
588	0.052
589	0.052
589	0.052
590	0.052
590	0.051
590	0.053
591	0.053
591	0.053
592	0.053
592	0.052
593	0.052
593	0.053
594	0.053
594	0.052
594	0.052
595	0.053
595	0.052
596	0.052
596	0.054
597	0.056
597	0.056
598	0.056
598	0.056
598	0.056
599	0.056
599	0.055
600	0.054
600	0.053
601	0.053
601	0.052
602	0.051
602	0.051
602	0.05
603	0.051
603	0.052
604	0.052
604	0.053
605	0.053
605	0.054
606	0.053
606	0.052
606	0.052
607	0.052
607	0.052
608	0.052
608	0.051
609	0.05
609	0.051
610	0.05
610	0.05
610	0.05
611	0.051
611	0.052
612	0.052
612	0.053
613	0.054
613	0.055
614	0.055
614	0.054
614	0.055
615	0.055
615	0.054
616	0.055
616	0.054
617	0.054
617	0.054
618	0.053
618	0.053
618	0.054
619	0.054
619	0.055
620	0.056
620	0.056
621	0.056
621	0.056
622	0.055
622	0.055
622	0.055
623	0.054
623	0.054
624	0.054
624	0.053
625	0.052
625	0.052
626	0.052
626	0.052
626	0.052
627	0.053
627	0.053
628	0.053
628	0.054
629	0.054
629	0.054
630	0.054
630	0.054
630	0.054
631	0.054
631	0.055
632	0.054
632	0.054
633	0.055
633	0.055
634	0.056
634	0.056
634	0.057
635	0.057
635	0.057
636	0.057
636	0.058
637	0.058
637	0.058
638	0.058
638	0.058
638	0.058
639	0.058
639	0.058
640	0.059
640	0.06
641	0.06
641	0.061
642	0.063
642	0.064
642	0.065
643	0.066
643	0.067
644	0.067
644	0.068
645	0.069
645	0.069
646	0.07
646	0.07
646	0.07
647	0.071
647	0.071
648	0.071
648	0.072
649	0.073
649	0.073
650	0.074
650	0.075
650	0.076
651	0.076
651	0.077
652	0.078
652	0.078
653	0.08
653	0.085
653	0.089
654	0.072
654	0.059
655	0.057
655	0.058
656	0.058
656	0.059
657	0.06
657	0.061
657	0.061
658	0.059
658	0.054
659	0.068
659	0.087
660	0.094
660	0.095
661	0.095
661	0.096
661	0.097
662	0.098
662	0.099
663	0.099
663	0.1
664	0.101
664	0.102
665	0.103
665	0.104
665	0.105
666	0.106
666	0.107
667	0.108
667	0.109
668	0.11
668	0.111
669	0.111
669	0.112
669	0.113
670	0.114
670	0.114
671	0.114
671	0.115
672	0.116
672	0.116
672	0.117
673	0.118
673	0.119
674	0.12
674	0.12
675	0.121
675	0.122
676	0.123
676	0.124
676	0.124
677	0.125
677	0.125
678	0.124
678	0.124
679	0.124
679	0.124
680	0.124
680	0.124
680	0.124
681	0.125
681	0.126
682	0.126
682	0.127
683	0.129
683	0.13
684	0.13
684	0.13
684	0.13
685	0.13
685	0.13
686	0.13
686	0.129
687	0.129
687	0.128
687	0.128
688	0.128
688	0.128
689	0.128
689	0.128
690	0.128
690	0.128
691	0.128
691	0.128
691	0.128
692	0.127
692	0.127
693	0.127
693	0.127
694	0.127
694	0.127
695	0.128
695	0.129
695	0.129
696	0.129
696	0.129
697	0.129
697	0.129
698	0.129
698	0.128
698	0.128
699	0.127
699	0.125
700	0.123
700	0.123
701	0.123
701	0.122
702	0.121
702	0.121
702	0.12
703	0.119
703	0.118
704	0.117
704	0.117
705	0.117
705	0.116
705	0.115
706	0.114
706	0.113
707	0.113
707	0.112
708	0.113
708	0.113
709	0.113
709	0.113
709	0.112
710	0.112
710	0.113
711	0.113
711	0.113
712	0.113
712	0.112
713	0.112
713	0.111
713	0.11
714	0.11
714	0.109
715	0.108
715	0.107
716	0.106
716	0.105
716	0.104
717	0.103
717	0.102
718	0.101
718	0.1
719	0.099
719	0.099
720	0.098
720	0.097
720	0.097
721	0.096
721	0.095
722	0.094
722	0.094
723	0.093
723	0.092
723	0.091
724	0.091
724	0.09
725	0.089
725	0.088
726	0.088
726	0.087
727	0.086
727	0.085
727	0.085
728	0.084
728	0.083
729	0.083
729	0.082
730	0.082
730	0.081
730	0.08
731	0.079
731	0.079
732	0.079
732	0.078
733	0.077
733	0.077
734	0.076
734	0.076
734	0.075
735	0.075
735	0.075
736	0.074
736	0.074
737	0.074
737	0.075
737	0.074
738	0.073
738	0.072
739	0.072
739	0.072
740	0.071
740	0.071
741	0.071
741	0.069
741	0.068
742	0.067
742	0.067
743	0.067
743	0.067
744	0.066
744	0.066
744	0.066
745	0.065
745	0.065
746	0.065
746	0.064
747	0.064
747	0.064
748	0.064
748	0.063
748	0.062
749	0.061
749	0.06
750	0.059
750	0.058
751	0.057
751	0.057
751	0.056
752	0.055
752	0.054
753	0.054
753	0.054
754	0.053
754	0.053
754	0.052
755	0.052
755	0.052
756	0.051
756	0.049
757	0.049
757	0.048
758	0.047
758	0.046
758	0.046
759	0.045
759	0.043
760	0.042
760	0.04
761	0.04
761	0.04
761	0.039
762	0.039
762	0.039
763	0.039
763	0.038
764	0.037
764	0.037
764	0.037
765	0.037
765	0.037
766	0.037
766	0.037
767	0.037
767	0.035
768	0.034
768	0.033
768	0.033
769	0.032
769	0.031
770	0.03
770	0.029
771	0.028
771	0.026
771	0.025
772	0.024
772	0.023
773	0.021
773	0.02
774	0.018
774	0.016
775	0.015
775	0.013
775	0.011
776	0.009
776	0.007
777	0.006
777	0.005
778	0.004
778	0.003
778	0.002
779	0.002
779	0.001
780	-0
780	-0.002
781	-0.003
781	-0.005
781	-0.007
782	-0.01
782	-0.014
783	-0.016
783	-0.019
784	-0.024
784	-0.028
784	-0.031
785	-0.035
785	-0.04
786	-0.044
786	-0.047
787	-0.05
787	-0.053
788	-0.058
788	-0.063
788	-0.068
789	-0.074
789	-0.078
790	-0.083
790	-0.088
791	-0.094
791	-0.1
791	-0.106
792	-0.106
792	-0.101
793	-0.101
793	-0.102
794	-0.105
794	-0.11
794	-0.116
795	-0.121
795	-0.123
796	-0.125
796	-0.127
797	-0.136
797	-0.147
797	-0.154
798	-0.16
798	-0.164
799	-0.165
799	-0.165
800	-0.165
800	-0.167
801	-0.17
801	-0.171
801	-0.171
802	-0.172
802	-0.173
803	-0.173
803	-0.173
804	-0.172
804	-0.166
804	-0.159
805	-0.155
805	-0.152
806	-0.15
806	-0.149
807	-0.147
807	-0.146
807	-0.146
808	-0.145
808	-0.146
809	-0.15
809	-0.155
810	-0.158
810	-0.16
810	-0.162
811	-0.163
811	-0.16
812	-0.154
812	-0.148
813	-0.143
813	-0.136
813	-0.129
814	-0.122
814	-0.113
815	-0.102
815	-0.092
816	-0.083
816	-0.075
817	-0.069
817	-0.063
817	-0.056
818	-0.05
818	-0.044
819	-0.038
819	-0.034
820	-0.03
820	-0.027
820	-0.023
821	-0.019
821	-0.016
822	-0.013
822	-0.011
823	-0.008
823	-0.007
823	-0.005
824	-0.003
824	-0.001
825	0
825	0.002
826	0.004
826	0.004
826	0.005
827	0.006
827	0.006
828	0.007
828	0.007
829	0.008
829	0.009
829	0.009
830	0.01
830	0.012
831	0.014
831	0.016
832	0.017
832	0.019
832	0.02
833	0.021
833	0.021
834	0.021
834	0.021
835	0.021
835	0.02
835	0.018
836	0.017
836	0.016
837	0.015
837	0.015
838	0.014
838	0.014
839	0.015
839	0.015
839	0.015
840	0.015
840	0.016
841	0.016
841	0.016
842	0.016
842	0.017
842	0.017
843	0.017
843	0.018
844	0.019
844	0.019
845	0.02
845	0.021
845	0.022
846	0.022
846	0.023
847	0.024
847	0.025
848	0.025
848	0.026
848	0.026
849	0.027
849	0.027
850	0.027
850	0.027
851	0.027
851	0.026
851	0.026
852	0.025
852	0.024
853	0.024
853	0.023
854	0.022
854	0.022
854	0.021
855	0.021
855	0.021
856	0.021
856	0.021
857	0.021
857	0.022
857	0.022
858	0.023
858	0.023
859	0.023
859	0.023
860	0.023
860	0.024
860	0.024
861	0.024
861	0.024
862	0.024
862	0.024
863	0.024
863	0.025
863	0.025
864	0.025
864	0.025
865	0.025
865	0.025
866	0.025
866	0.025
866	0.025
867	0.025
867	0.025
868	0.024
868	0.024
869	0.024
869	0.024
869	0.024
870	0.024
870	0.024
871	0.024
871	0.023
872	0.023
872	0.023
872	0.023
873	0.023
873	0.022
874	0.022
874	0.022
875	0.021
875	0.021
875	0.02
876	0.02
876	0.019
877	0.019
877	0.018
878	0.018
878	0.018
878	0.017
879	0.017
879	0.017
880	0.016
880	0.016
881	0.016
881	0.017
881	0.017
882	0.017
882	0.017
883	0.018
883	0.018
884	0.019
884	0.02
884	0.021
885	0.022
885	0.023
886	0.023
886	0.023
887	0.024
887	0.024
887	0.024
888	0.023
888	0.023
889	0.023
889	0.023
890	0.024
890	0.024
890	0.024
891	0.024
891	0.024
892	0.024
892	0.023
893	0.023
893	0.023
893	0.023
894	0.022
894	0.021
895	0.02
895	0.02
895	0.019
896	0.018
896	0.017
897	0.017
897	0.016
898	0.015
898	0.015
898	0.014
899	0.014
899	0.014
900	0.015
900	0.015
901	0.015
901	0.015
901	0.015
902	0.015
902	0.015
903	0.015
903	0.015
904	0.015
904	0.014
904	0.014
905	0.014
905	0.014
906	0.014
906	0.014
907	0.014
907	0.014
907	0.014
908	0.014
908	0.013
909	0.013
909	0.013
910	0.012
910	0.012
910	0.012
911	0.012
911	0.012
912	0.013
912	0.014
913	0.015
913	0.016
913	0.017
914	0.018
914	0.02
915	0.021
915	0.022
916	0.023
916	0.024
916	0.024
917	0.024
917	0.024
918	0.024
918	0.023
918	0.023
919	0.022
919	0.021
920	0.019
920	0.018
921	0.017
921	0.016
921	0.015
922	0.014
922	0.013
923	0.012
923	0.011
924	0.011
924	0.01
924	0.01
925	0.01
925	0.01
926	0.01
926	0.01
927	0.009
927	0.009
927	0.01
928	0.01
928	0.01
929	0.011
929	0.011
930	0.011
930	0.012
930	0.011
931	0.011
931	0.011
932	0.011
932	0.011
933	0.011
933	0.011
933	0.01
934	0.01
934	0.01
935	0.01
935	0.01
935	0.01
936	0.009
936	0.009
937	0.009
937	0.009
938	0.009
938	0.008
938	0.008
939	0.007
939	0.007
940	0.007
940	0.007
941	0.007
941	0.007
941	0.007
942	0.008
942	0.008
943	0.008
943	0.009
944	0.009
944	0.01
944	0.011
945	0.012
945	0.012
946	0.013
946	0.014
946	0.014
947	0.015
947	0.015
948	0.015
948	0.015
949	0.015
949	0.015
949	0.015
950	0.015
950	0.014
951	0.014
951	0.013
952	0.013
952	0.013
952	0.013
953	0.013
953	0.013
954	0.012
954	0.012
955	0.012
955	0.012
955	0.012
956	0.012
956	0.012
957	0.012
957	0.012
957	0.012
958	0.012
958	0.012
959	0.012
959	0.012
960	0.012
960	0.012
960	0.012
961	0.012
961	0.012
962	0.012
962	0.012
963	0.012
963	0.012
963	0.012
964	0.012
964	0.013
965	0.013
965	0.014
966	0.015
966	0.015
966	0.016
967	0.016
967	0.016
968	0.016
968	0.016
968	0.015
969	0.015
969	0.014
970	0.013
970	0.012
971	0.01
971	0.01
971	0.009
972	0.008
972	0.008
973	0.007
973	0.007
974	0.006
974	0.006
974	0.006
975	0.005
975	0.005
976	0.004
976	0.003
976	0.002
977	0.001
977	-0
978	-0.001
978	-0.002
979	-0.003
979	-0.003
979	-0.004
980	-0.004
980	-0.004
981	-0.004
981	-0.004
982	-0.004
982	-0.003
982	-0.003
983	-0.002
983	-0.002
984	-0.002
984	-0.001
984	-0.001
985	-0
985	-0
986	-0.001
986	-0.001
987	-0.001
987	-0.001
987	-0.001
988	-0.001
988	-0.001
989	-0.001
989	-0.001
990	-0.001
990	-0.001
990	-0.001
991	-0
991	-0
992	0
992	0
992	0
993	0
993	0
994	0
994	-0
995	-0
995	-0.001
995	-0.001
996	-0.001
996	-0.002
997	-0.002
997	-0.003
997	-0.003
998	-0.003
998	-0.003
999	-0.002
999	-0.002
1000	-0.002
1000	-0.001
1000	-0
1001	0.001
1001	0.001
1002	0.002
1002	0.002
1003	0.003
1003	0.003
1003	0.003
1004	0.003
1004	0.003
1005	0.003
1005	0.003
1005	0.003
1006	0.002
1006	0.002
1007	0.002
1007	0.001
1008	0.001
1008	0
1008	-0
1009	-0.001
1009	-0.001
1010	-0.001
1010	-0.001
1010	-0.001
1011	-0.001
1011	-0.001
1012	-0.001
1012	-0.001
1013	-0.001
1013	-0.001
1013	-0.001
1014	-0.002
1014	-0.003
1015	-0.003
1015	-0.004
1016	-0.005
1016	-0.006
1016	-0.007
1017	-0.007
1017	-0.007
1018	-0.007
1018	-0.007
1018	-0.006
1019	-0.006
1019	-0.005
1020	-0.005
1020	-0.005
1021	-0.004
1021	-0.004
1021	-0.004
1022	-0.004
1022	-0.004
1023	-0.003
1023	-0.004
1023	-0.004
1024	-0.005
1024	-0.005
1025	-0.005
1025	-0.005
1026	-0.005
1026	-0.005
1026	-0.006
1027	-0.006
1027	-0.006
1028	-0.006
1028	-0.006
1028	-0.006
1029	-0.006
1029	-0.006
1030	-0.006
1030	-0.006
1031	-0.006
1031	-0.005
1031	-0.005
1032	-0.005
1032	-0.004
1033	-0.004
1033	-0.004
1033	-0.004
1034	-0.005
1034	-0.005
1035	-0.005
1035	-0.006
1036	-0.007
1036	-0.008
1036	-0.009
1037	-0.009
1037	-0.01
1038	-0.01
1038	-0.01
1039	-0.01
1039	-0.01
1039	-0.01
1040	-0.01
1040	-0.01
1041	-0.009
1041	-0.009
1041	-0.009
1042	-0.009
1042	-0.009
1043	-0.009
1043	-0.009
1044	-0.009
1044	-0.009
1044	-0.009
1045	-0.009
1045	-0.009
1046	-0.009
1046	-0.009
1046	-0.008
1047	-0.008
1047	-0.007
1048	-0.007
1048	-0.006
1049	-0.006
1049	-0.006
1049	-0.006
1050	-0.007
1050	-0.007
1051	-0.007
1051	-0.008
1051	-0.009
1052	-0.01
1052	-0.011
1053	-0.013
1053	-0.014
1053	-0.015
1054	-0.016
1054	-0.017
1055	-0.018
1055	-0.019
1056	-0.02
1056	-0.021
1056	-0.023
1057	-0.024
1057	-0.025
1058	-0.025
1058	-0.025
1058	-0.026
1059	-0.026
1059	-0.026
1060	-0.027
1060	-0.026
1061	-0.026
1061	-0.026
1061	-0.025
1062	-0.025
1062	-0.025
1063	-0.025
1063	-0.025
1063	-0.025
1064	-0.025
1064	-0.024
1065	-0.024
1065	-0.024
1066	-0.024
1066	-0.024
1066	-0.023
1067	-0.023
1067	-0.022
1068	-0.021
1068	-0.02
1068	-0.02
1069	-0.02
1069	-0.019
1070	-0.019
1070	-0.019
1071	-0.019
1071	-0.019
1071	-0.02
1072	-0.02
1072	-0.021
1073	-0.021
1073	-0.022
1073	-0.022
1074	-0.023
1074	-0.024
1075	-0.026
1075	-0.027
1076	-0.029
1076	-0.03
1076	-0.032
1077	-0.033
1077	-0.035
1078	-0.036
1078	-0.037
1078	-0.038
1079	-0.039
1079	-0.04
1080	-0.041
1080	-0.041
1080	-0.041
1081	-0.04
1081	-0.041
1082	-0.041
1082	-0.042
1083	-0.042
1083	-0.042
1083	-0.042
1084	-0.042
1084	-0.042
1085	-0.042
1085	-0.042
1085	-0.043
1086	-0.043
1086	-0.043
1087	-0.043
1087	-0.043
1088	-0.044
1088	-0.044
1088	-0.045
1089	-0.046
1089	-0.047
1090	-0.048
1090	-0.048
1090	-0.049
1091	-0.05
1091	-0.05
1092	-0.051
1092	-0.05
1092	-0.051
1093	-0.051
1093	-0.051
1094	-0.051
1094	-0.051
1095	-0.051
1095	-0.052
1095	-0.052
1096	-0.052
1096	-0.053
1097	-0.053
1097	-0.055
1097	-0.056
1098	-0.057
1098	-0.059
1099	-0.06
1099	-0.061
1100	-0.062
1100	-0.063
1100	-0.065
1101	-0.068
1101	-0.07
1102	-0.071
1102	-0.071
1102	-0.072
1103	-0.074
1103	-0.075
1104	-0.078
1104	-0.08
1104	-0.081
1105	-0.083
1105	-0.084
1106	-0.087
1106	-0.089
1107	-0.092
1107	-0.094
1107	-0.098
1108	-0.099
1108	-0.1
1109	-0.102
1109	-0.105
1109	-0.107
1110	-0.108
1110	-0.111
1111	-0.112
1111	-0.106
