Data from 15c-1-8a_Absorbance__164__03765.txt Node

Date: Thu Jan 25 16:11:27 CET 2024
User: Marek
Spectrometer: MAYP115816
Trigger mode: 0
Integration Time (sec): 2.000000E-1
Scans to average: 10
Electric dark correction enabled: true
Nonlinearity correction enabled: true
Boxcar width: 5
XAxis mode: Wavelengths
Number of Pixels in Spectrum: 2068
>>>>>Begin Spectral Data<<<<<
199	-0.499
199	-0.457
200	-0.39
200	-0.335
201	-0.305
201	-0.281
202	-0.258
202	-0.252
203	-0.245
203	-0.239
204	-0.229
204	-0.216
205	-0.203
205	-0.197
205	-0.197
206	-0.196
206	-0.199
207	-0.199
207	-0.199
208	-0.198
208	-0.197
209	-0.195
209	-0.197
210	-0.199
210	-0.2
211	-0.199
211	-0.198
212	-0.198
212	-0.199
213	-0.2
213	-0.202
213	-0.206
214	-0.206
214	-0.205
215	-0.204
215	-0.205
216	-0.206
216	-0.208
217	-0.207
217	-0.207
218	-0.206
218	-0.205
219	-0.202
219	-0.203
220	-0.206
220	-0.206
221	-0.206
221	-0.206
221	-0.203
222	-0.202
222	-0.202
223	-0.2
223	-0.199
224	-0.197
224	-0.191
225	-0.184
225	-0.18
226	-0.176
226	-0.168
227	-0.159
227	-0.155
228	-0.143
228	-0.135
229	-0.123
229	-0.108
229	-0.095
230	-0.081
230	-0.065
231	-0.049
231	-0.031
232	-0.016
232	0.003
233	0.018
233	0.035
234	0.047
234	0.06
235	0.07
235	0.08
236	0.088
236	0.095
236	0.102
237	0.107
237	0.111
238	0.115
238	0.118
239	0.122
239	0.124
240	0.127
240	0.128
241	0.13
241	0.132
242	0.133
242	0.134
243	0.135
243	0.136
243	0.137
244	0.139
244	0.14
245	0.141
245	0.142
246	0.143
246	0.144
247	0.146
247	0.147
248	0.148
248	0.149
249	0.15
249	0.151
250	0.152
250	0.154
250	0.155
251	0.156
251	0.157
252	0.159
252	0.16
253	0.161
253	0.162
254	0.164
254	0.165
255	0.165
255	0.167
256	0.167
256	0.168
257	0.169
257	0.169
258	0.17
258	0.17
258	0.17
259	0.171
259	0.171
260	0.171
260	0.171
261	0.171
261	0.171
262	0.171
262	0.17
263	0.17
263	0.169
264	0.169
264	0.168
265	0.168
265	0.167
265	0.166
266	0.165
266	0.164
267	0.163
267	0.162
268	0.161
268	0.16
269	0.159
269	0.157
270	0.156
270	0.155
271	0.153
271	0.152
272	0.15
272	0.148
272	0.147
273	0.145
273	0.144
274	0.142
274	0.14
275	0.139
275	0.137
276	0.136
276	0.134
277	0.133
277	0.131
278	0.13
278	0.128
278	0.126
279	0.124
279	0.123
280	0.121
280	0.119
281	0.117
281	0.116
282	0.114
282	0.112
283	0.111
283	0.109
284	0.108
284	0.107
285	0.105
285	0.104
285	0.102
286	0.101
286	0.1
287	0.098
287	0.097
288	0.096
288	0.095
289	0.094
289	0.093
290	0.091
290	0.09
291	0.09
291	0.089
292	0.088
292	0.087
292	0.086
293	0.086
293	0.085
294	0.084
294	0.084
295	0.083
295	0.083
296	0.082
296	0.082
297	0.081
297	0.081
298	0.081
298	0.08
298	0.08
299	0.08
299	0.079
300	0.079
300	0.079
301	0.079
301	0.079
302	0.078
302	0.078
303	0.078
303	0.078
304	0.078
304	0.078
305	0.078
305	0.077
305	0.077
306	0.077
306	0.077
307	0.077
307	0.077
308	0.077
308	0.076
309	0.076
309	0.076
310	0.076
310	0.076
311	0.076
311	0.076
311	0.075
312	0.075
312	0.075
313	0.075
313	0.075
314	0.075
314	0.075
315	0.075
315	0.074
316	0.074
316	0.074
317	0.074
317	0.074
318	0.074
318	0.074
318	0.074
319	0.074
319	0.074
320	0.074
320	0.073
321	0.073
321	0.073
322	0.073
322	0.073
323	0.072
323	0.072
324	0.072
324	0.072
324	0.071
325	0.071
325	0.071
326	0.071
326	0.071
327	0.071
327	0.071
328	0.071
328	0.071
329	0.07
329	0.07
330	0.07
330	0.07
330	0.07
331	0.07
331	0.069
332	0.069
332	0.069
333	0.069
333	0.069
334	0.069
334	0.069
335	0.068
335	0.068
336	0.068
336	0.068
336	0.068
337	0.068
337	0.068
338	0.068
338	0.068
339	0.067
339	0.067
340	0.067
340	0.067
341	0.067
341	0.067
342	0.066
342	0.066
342	0.066
343	0.066
343	0.065
344	0.065
344	0.065
345	0.065
345	0.065
346	0.065
346	0.064
347	0.064
347	0.064
348	0.064
348	0.064
348	0.064
349	0.063
349	0.063
350	0.063
350	0.063
351	0.063
351	0.063
352	0.063
352	0.063
353	0.063
353	0.063
354	0.063
354	0.063
354	0.063
355	0.062
355	0.062
356	0.062
356	0.062
357	0.062
357	0.062
358	0.062
358	0.062
359	0.062
359	0.062
360	0.062
360	0.062
360	0.062
361	0.062
361	0.062
362	0.062
362	0.062
363	0.062
363	0.062
364	0.062
364	0.062
365	0.062
365	0.062
366	0.062
366	0.062
366	0.062
367	0.062
367	0.062
368	0.062
368	0.062
369	0.062
369	0.062
370	0.062
370	0.062
371	0.062
371	0.062
372	0.062
372	0.062
372	0.063
373	0.063
373	0.063
374	0.063
374	0.063
375	0.062
375	0.062
376	0.062
376	0.062
377	0.062
377	0.062
378	0.062
378	0.062
378	0.062
379	0.062
379	0.062
380	0.062
380	0.062
381	0.062
381	0.062
382	0.062
382	0.062
383	0.062
383	0.062
383	0.062
384	0.062
384	0.062
385	0.062
385	0.062
386	0.062
386	0.062
387	0.062
387	0.062
388	0.062
388	0.062
389	0.062
389	0.062
389	0.062
390	0.062
390	0.063
391	0.063
391	0.062
392	0.062
392	0.062
393	0.063
393	0.062
394	0.062
394	0.062
394	0.062
395	0.062
395	0.062
396	0.062
396	0.062
397	0.062
397	0.062
398	0.062
398	0.062
399	0.061
399	0.061
400	0.061
400	0.061
400	0.061
401	0.061
401	0.061
402	0.061
402	0.061
403	0.061
403	0.061
404	0.061
404	0.061
405	0.061
405	0.061
405	0.061
406	0.061
406	0.061
407	0.061
407	0.061
408	0.061
408	0.061
409	0.061
409	0.061
410	0.061
410	0.061
411	0.061
411	0.061
411	0.061
412	0.061
412	0.061
413	0.06
413	0.06
414	0.06
414	0.06
415	0.06
415	0.06
416	0.06
416	0.06
416	0.06
417	0.06
417	0.06
418	0.06
418	0.06
419	0.06
419	0.061
420	0.061
420	0.061
421	0.061
421	0.06
421	0.06
422	0.06
422	0.06
423	0.06
423	0.06
424	0.059
424	0.059
425	0.059
425	0.059
426	0.059
426	0.059
427	0.059
427	0.059
427	0.06
428	0.059
428	0.059
429	0.059
429	0.059
430	0.059
430	0.059
431	0.059
431	0.058
432	0.058
432	0.058
432	0.057
433	0.057
433	0.057
434	0.057
434	0.058
435	0.058
435	0.058
436	0.058
436	0.058
437	0.058
437	0.058
437	0.058
438	0.058
438	0.058
439	0.058
439	0.058
440	0.058
440	0.058
441	0.058
441	0.057
442	0.057
442	0.057
442	0.057
443	0.057
443	0.057
444	0.057
444	0.057
445	0.057
445	0.057
446	0.057
446	0.057
447	0.057
447	0.057
447	0.057
448	0.057
448	0.057
449	0.057
449	0.057
450	0.057
450	0.057
451	0.057
451	0.057
452	0.057
452	0.057
452	0.057
453	0.057
453	0.057
454	0.057
454	0.057
455	0.057
455	0.057
456	0.057
456	0.057
457	0.057
457	0.057
458	0.057
458	0.057
458	0.057
459	0.057
459	0.056
460	0.056
460	0.055
461	0.055
461	0.055
462	0.055
462	0.056
463	0.056
463	0.056
463	0.056
464	0.056
464	0.056
465	0.056
465	0.056
466	0.057
466	0.057
467	0.057
467	0.056
467	0.056
468	0.055
468	0.055
469	0.055
469	0.056
470	0.056
470	0.056
471	0.055
471	0.055
472	0.055
472	0.055
472	0.055
473	0.055
473	0.055
474	0.056
474	0.056
475	0.056
475	0.056
476	0.056
476	0.056
477	0.056
477	0.057
477	0.057
478	0.057
478	0.057
479	0.057
479	0.057
480	0.057
480	0.057
481	0.057
481	0.058
482	0.058
482	0.058
482	0.058
483	0.058
483	0.059
484	0.059
484	0.059
485	0.059
485	0.059
486	0.059
486	0.059
487	0.059
487	0.059
487	0.059
488	0.059
488	0.058
489	0.059
489	0.059
490	0.059
490	0.06
491	0.06
491	0.061
492	0.061
492	0.061
492	0.061
493	0.062
493	0.063
494	0.063
494	0.064
495	0.064
495	0.064
496	0.064
496	0.065
496	0.065
497	0.065
497	0.065
498	0.065
498	0.065
499	0.065
499	0.065
500	0.066
500	0.066
501	0.067
501	0.067
501	0.067
502	0.068
502	0.068
503	0.069
503	0.069
504	0.069
504	0.069
505	0.07
505	0.07
506	0.071
506	0.071
506	0.071
507	0.071
507	0.072
508	0.072
508	0.073
509	0.073
509	0.073
510	0.074
510	0.074
511	0.074
511	0.075
511	0.075
512	0.076
512	0.076
513	0.076
513	0.076
514	0.077
514	0.077
515	0.077
515	0.077
515	0.077
516	0.077
516	0.077
517	0.078
517	0.078
518	0.078
518	0.078
519	0.079
519	0.079
520	0.079
520	0.08
520	0.08
521	0.08
521	0.08
522	0.08
522	0.08
523	0.08
523	0.08
524	0.08
524	0.079
524	0.079
525	0.079
525	0.079
526	0.079
526	0.079
527	0.079
527	0.079
528	0.079
528	0.079
529	0.079
529	0.079
529	0.079
530	0.079
530	0.079
531	0.079
531	0.079
532	0.078
532	0.078
533	0.078
533	0.078
533	0.077
534	0.077
534	0.077
535	0.077
535	0.077
536	0.077
536	0.077
537	0.076
537	0.076
538	0.076
538	0.076
538	0.076
539	0.076
539	0.075
540	0.075
540	0.075
541	0.075
541	0.075
542	0.075
542	0.075
542	0.075
543	0.075
543	0.075
544	0.074
544	0.075
545	0.075
545	0.075
546	0.075
546	0.075
547	0.074
547	0.073
547	0.073
548	0.073
548	0.073
549	0.072
549	0.072
550	0.072
550	0.071
551	0.071
551	0.071
551	0.071
552	0.071
552	0.071
553	0.071
553	0.071
554	0.071
554	0.07
555	0.07
555	0.069
556	0.069
556	0.068
556	0.068
557	0.068
557	0.068
558	0.067
558	0.068
559	0.068
559	0.068
560	0.068
560	0.068
560	0.069
561	0.069
561	0.069
562	0.069
562	0.069
563	0.068
563	0.068
564	0.067
564	0.067
564	0.067
565	0.067
565	0.066
566	0.065
566	0.065
567	0.065
567	0.065
568	0.065
568	0.065
568	0.065
569	0.065
569	0.065
570	0.065
570	0.064
571	0.064
571	0.065
572	0.064
572	0.064
573	0.063
573	0.063
573	0.062
574	0.062
574	0.062
575	0.062
575	0.064
576	0.064
576	0.063
577	0.062
577	0.062
577	0.062
578	0.062
578	0.063
579	0.063
579	0.064
580	0.062
580	0.061
581	0.059
581	0.059
581	0.06
582	0.061
582	0.061
583	0.062
583	0.062
584	0.06
584	0.059
585	0.06
585	0.061
585	0.061
586	0.061
586	0.06
587	0.059
587	0.058
588	0.057
588	0.056
589	0.056
589	0.056
590	0.056
590	0.056
590	0.057
591	0.057
591	0.056
592	0.056
592	0.055
593	0.055
593	0.055
594	0.055
594	0.054
594	0.054
595	0.054
595	0.054
596	0.054
596	0.055
597	0.057
597	0.057
598	0.057
598	0.057
598	0.057
599	0.057
599	0.056
600	0.056
600	0.055
601	0.055
601	0.055
602	0.053
602	0.053
602	0.053
603	0.053
603	0.054
604	0.055
604	0.055
605	0.056
605	0.056
606	0.056
606	0.055
606	0.055
607	0.056
607	0.056
608	0.056
608	0.055
609	0.055
609	0.055
610	0.054
610	0.053
610	0.054
611	0.054
611	0.054
612	0.054
612	0.055
613	0.055
613	0.055
614	0.055
614	0.055
614	0.055
615	0.055
615	0.055
616	0.055
616	0.055
617	0.055
617	0.055
618	0.054
618	0.054
618	0.054
619	0.054
619	0.055
620	0.056
620	0.056
621	0.055
621	0.055
622	0.055
622	0.055
622	0.055
623	0.054
623	0.055
624	0.055
624	0.054
625	0.054
625	0.054
626	0.054
626	0.054
626	0.055
627	0.055
627	0.055
628	0.056
628	0.056
629	0.056
629	0.056
630	0.056
630	0.056
630	0.057
631	0.057
631	0.057
632	0.056
632	0.057
633	0.057
633	0.058
634	0.058
634	0.059
634	0.059
635	0.06
635	0.06
636	0.06
636	0.06
637	0.06
637	0.06
638	0.06
638	0.06
638	0.06
639	0.059
639	0.059
640	0.059
640	0.06
641	0.06
641	0.061
642	0.061
642	0.062
642	0.063
643	0.064
643	0.064
644	0.065
644	0.066
645	0.066
645	0.067
646	0.067
646	0.068
646	0.068
647	0.068
647	0.069
648	0.069
648	0.07
649	0.071
649	0.072
650	0.073
650	0.074
650	0.075
651	0.075
651	0.076
652	0.077
652	0.078
653	0.079
653	0.084
653	0.086
654	0.069
654	0.057
655	0.056
655	0.057
656	0.058
656	0.059
657	0.06
657	0.061
657	0.061
658	0.059
658	0.057
659	0.071
659	0.09
660	0.097
660	0.098
661	0.098
661	0.099
661	0.1
662	0.101
662	0.102
663	0.103
663	0.104
664	0.105
664	0.106
665	0.106
665	0.108
665	0.108
666	0.109
666	0.11
667	0.11
667	0.111
668	0.111
668	0.112
669	0.112
669	0.113
669	0.114
670	0.114
670	0.114
671	0.115
671	0.115
672	0.116
672	0.117
672	0.117
673	0.118
673	0.119
674	0.12
674	0.121
675	0.121
675	0.122
676	0.123
676	0.124
676	0.125
677	0.126
677	0.126
678	0.127
678	0.127
679	0.127
679	0.127
680	0.128
680	0.128
680	0.128
681	0.129
681	0.129
682	0.13
682	0.13
683	0.131
683	0.131
684	0.132
684	0.131
684	0.131
685	0.131
685	0.131
686	0.131
686	0.13
687	0.13
687	0.13
687	0.131
688	0.131
688	0.131
689	0.131
689	0.132
690	0.131
690	0.131
691	0.131
691	0.131
691	0.13
692	0.13
692	0.129
693	0.129
693	0.129
694	0.129
694	0.129
695	0.131
695	0.132
695	0.132
696	0.131
696	0.131
697	0.131
697	0.131
698	0.131
698	0.13
698	0.13
699	0.129
699	0.128
700	0.126
700	0.126
701	0.126
701	0.125
702	0.124
702	0.123
702	0.122
703	0.121
703	0.121
704	0.12
704	0.12
705	0.119
705	0.118
705	0.118
706	0.117
706	0.117
707	0.116
707	0.115
708	0.115
708	0.114
709	0.114
709	0.113
709	0.112
710	0.111
710	0.111
711	0.111
711	0.111
712	0.11
712	0.11
713	0.11
713	0.109
713	0.109
714	0.109
714	0.108
715	0.108
715	0.107
716	0.106
716	0.105
716	0.105
717	0.104
717	0.104
718	0.103
718	0.102
719	0.102
719	0.101
720	0.1
720	0.099
720	0.098
721	0.097
721	0.097
722	0.096
722	0.095
723	0.095
723	0.094
723	0.093
724	0.093
724	0.093
725	0.092
725	0.093
726	0.093
726	0.093
727	0.093
727	0.093
727	0.093
728	0.092
728	0.092
729	0.092
729	0.092
730	0.091
730	0.09
730	0.089
731	0.088
731	0.087
732	0.086
732	0.085
733	0.083
733	0.082
734	0.081
734	0.08
734	0.079
735	0.078
735	0.077
736	0.077
736	0.076
737	0.076
737	0.075
737	0.075
738	0.074
738	0.073
739	0.073
739	0.073
740	0.072
740	0.072
741	0.072
741	0.072
741	0.071
742	0.07
742	0.071
743	0.071
743	0.07
744	0.07
744	0.07
744	0.069
745	0.068
745	0.067
746	0.066
746	0.065
747	0.065
747	0.064
748	0.063
748	0.063
748	0.062
749	0.061
749	0.06
750	0.06
750	0.059
751	0.059
751	0.058
751	0.058
752	0.057
752	0.057
753	0.056
753	0.056
754	0.056
754	0.056
754	0.056
755	0.056
755	0.056
756	0.056
756	0.055
757	0.054
757	0.054
758	0.054
758	0.053
758	0.052
759	0.051
759	0.05
760	0.048
760	0.047
761	0.046
761	0.046
761	0.046
762	0.045
762	0.045
763	0.044
763	0.043
764	0.042
764	0.042
764	0.042
765	0.041
765	0.041
766	0.04
766	0.04
767	0.039
767	0.038
768	0.036
768	0.036
768	0.035
769	0.034
769	0.032
770	0.031
770	0.029
771	0.027
771	0.025
771	0.023
772	0.022
772	0.02
773	0.019
773	0.017
774	0.015
774	0.013
775	0.011
775	0.01
775	0.008
776	0.006
776	0.004
777	0.002
777	0.001
778	-0.001
778	-0.002
778	-0.003
779	-0.004
779	-0.005
780	-0.006
780	-0.008
781	-0.009
781	-0.011
781	-0.013
782	-0.016
782	-0.019
783	-0.022
783	-0.025
784	-0.029
784	-0.033
784	-0.038
785	-0.042
785	-0.046
786	-0.05
786	-0.054
787	-0.057
787	-0.061
788	-0.065
788	-0.07
788	-0.075
789	-0.08
789	-0.085
790	-0.09
790	-0.095
791	-0.101
791	-0.108
791	-0.114
792	-0.113
792	-0.108
793	-0.107
793	-0.108
794	-0.11
794	-0.114
794	-0.119
795	-0.123
795	-0.125
796	-0.125
796	-0.127
797	-0.136
797	-0.147
797	-0.154
798	-0.16
798	-0.164
799	-0.165
799	-0.165
800	-0.165
800	-0.167
801	-0.17
801	-0.171
801	-0.171
802	-0.172
802	-0.173
803	-0.173
803	-0.173
804	-0.172
804	-0.166
804	-0.159
805	-0.155
805	-0.152
806	-0.15
806	-0.149
807	-0.147
807	-0.146
807	-0.146
808	-0.146
808	-0.146
809	-0.15
809	-0.155
810	-0.158
810	-0.159
810	-0.16
811	-0.159
811	-0.156
812	-0.15
812	-0.143
813	-0.136
813	-0.129
813	-0.122
814	-0.114
814	-0.104
815	-0.094
815	-0.084
816	-0.076
816	-0.068
817	-0.063
817	-0.056
817	-0.05
818	-0.044
818	-0.038
819	-0.033
819	-0.029
820	-0.025
820	-0.022
820	-0.018
821	-0.015
821	-0.012
822	-0.009
822	-0.006
823	-0.004
823	-0.002
823	-0.001
824	0.001
824	0.004
825	0.006
825	0.008
826	0.009
826	0.01
826	0.011
827	0.011
827	0.011
828	0.012
828	0.012
829	0.012
829	0.012
829	0.011
830	0.011
830	0.011
831	0.012
831	0.013
832	0.013
832	0.014
832	0.014
833	0.015
833	0.015
834	0.015
834	0.015
835	0.015
835	0.014
835	0.014
836	0.014
836	0.014
837	0.014
837	0.015
838	0.015
838	0.015
839	0.016
839	0.016
839	0.017
840	0.017
840	0.018
841	0.018
841	0.018
842	0.018
842	0.018
842	0.018
843	0.018
843	0.018
844	0.018
844	0.019
845	0.019
845	0.019
845	0.019
846	0.019
846	0.019
847	0.02
847	0.02
848	0.021
848	0.021
848	0.021
849	0.021
849	0.022
850	0.022
850	0.021
851	0.022
851	0.022
851	0.022
852	0.021
852	0.021
853	0.021
853	0.021
854	0.021
854	0.021
854	0.021
855	0.021
855	0.021
856	0.022
856	0.022
857	0.023
857	0.023
857	0.024
858	0.024
858	0.025
859	0.025
859	0.025
860	0.026
860	0.026
860	0.026
861	0.027
861	0.027
862	0.027
862	0.026
863	0.026
863	0.027
863	0.027
864	0.027
864	0.028
865	0.028
865	0.029
866	0.029
866	0.029
866	0.03
867	0.031
867	0.031
868	0.032
868	0.032
869	0.032
869	0.032
869	0.032
870	0.032
870	0.032
871	0.031
871	0.031
872	0.03
872	0.029
872	0.028
873	0.027
873	0.026
874	0.025
874	0.024
875	0.023
875	0.022
875	0.021
876	0.02
876	0.019
877	0.019
877	0.018
878	0.018
878	0.017
878	0.017
879	0.017
879	0.016
880	0.016
880	0.017
881	0.017
881	0.017
881	0.018
882	0.019
882	0.02
883	0.021
883	0.022
884	0.024
884	0.025
884	0.026
885	0.027
885	0.027
886	0.028
886	0.028
887	0.027
887	0.027
887	0.026
888	0.026
888	0.025
889	0.025
889	0.025
890	0.025
890	0.024
890	0.024
891	0.023
891	0.022
892	0.022
892	0.021
893	0.021
893	0.02
893	0.02
894	0.019
894	0.018
895	0.017
895	0.017
895	0.016
896	0.015
896	0.015
897	0.014
897	0.013
898	0.013
898	0.012
898	0.012
899	0.012
899	0.012
900	0.012
900	0.013
901	0.013
901	0.014
901	0.015
902	0.015
902	0.016
903	0.016
903	0.017
904	0.017
904	0.017
904	0.017
905	0.017
905	0.018
906	0.018
906	0.018
907	0.018
907	0.018
907	0.017
908	0.017
908	0.017
909	0.016
909	0.016
910	0.016
910	0.016
910	0.015
911	0.015
911	0.015
912	0.016
912	0.017
913	0.018
913	0.019
913	0.02
914	0.021
914	0.022
915	0.023
915	0.024
916	0.025
916	0.026
916	0.026
917	0.026
917	0.026
918	0.025
918	0.025
918	0.025
919	0.024
919	0.024
920	0.023
920	0.022
921	0.021
921	0.019
921	0.018
922	0.017
922	0.016
923	0.015
923	0.013
924	0.012
924	0.012
924	0.011
925	0.011
925	0.011
926	0.011
926	0.011
927	0.011
927	0.011
927	0.011
928	0.011
928	0.011
929	0.011
929	0.011
930	0.012
930	0.012
930	0.011
931	0.011
931	0.011
932	0.011
932	0.011
933	0.011
933	0.011
933	0.011
934	0.01
934	0.009
935	0.009
935	0.009
935	0.008
936	0.008
936	0.008
937	0.007
937	0.007
938	0.007
938	0.006
938	0.007
939	0.007
939	0.007
940	0.007
940	0.007
941	0.008
941	0.008
941	0.008
942	0.008
942	0.008
943	0.009
943	0.009
944	0.009
944	0.009
944	0.009
945	0.01
945	0.01
946	0.01
946	0.011
946	0.011
947	0.012
947	0.012
948	0.012
948	0.012
949	0.012
949	0.012
949	0.012
950	0.011
950	0.011
951	0.011
951	0.01
952	0.01
952	0.01
952	0.01
953	0.01
953	0.01
954	0.01
954	0.011
955	0.011
955	0.011
955	0.012
956	0.012
956	0.012
957	0.012
957	0.012
957	0.012
958	0.012
958	0.012
959	0.012
959	0.012
960	0.012
960	0.012
960	0.012
961	0.012
961	0.013
962	0.013
962	0.013
963	0.014
963	0.014
963	0.014
964	0.014
964	0.014
965	0.015
965	0.015
966	0.015
966	0.015
966	0.016
967	0.016
967	0.016
968	0.016
968	0.016
968	0.015
969	0.015
969	0.014
970	0.014
970	0.013
971	0.012
971	0.012
971	0.011
972	0.011
972	0.011
973	0.011
973	0.012
974	0.012
974	0.012
974	0.013
975	0.013
975	0.013
976	0.013
976	0.013
976	0.012
977	0.012
977	0.011
978	0.01
978	0.008
979	0.008
979	0.007
979	0.006
980	0.005
980	0.004
981	0.003
981	0.003
982	0.002
982	0.002
982	0.001
983	0.001
983	0.001
984	0.001
984	0.001
984	0.001
985	0.001
985	0.001
986	0.001
986	0.001
987	0.001
987	0.002
987	0.002
988	0.002
988	0.003
989	0.003
989	0.003
990	0.004
990	0.004
990	0.005
991	0.006
991	0.006
992	0.007
992	0.007
992	0.007
993	0.007
993	0.007
994	0.006
994	0.006
995	0.005
995	0.005
995	0.004
996	0.003
996	0.002
997	0.001
997	0.001
997	0
998	-0
998	-0
999	-0
999	-0
1000	-0
1000	-0
1000	0
1001	0.001
1001	0.001
1002	0.001
1002	0.001
1003	0.001
1003	-0
1003	-0.001
1004	-0.001
1004	-0.002
1005	-0.003
1005	-0.004
1005	-0.004
1006	-0.005
1006	-0.005
1007	-0.005
1007	-0.005
1008	-0.005
1008	-0.004
1008	-0.004
1009	-0.003
1009	-0.003
1010	-0.002
1010	-0.002
1010	-0.001
1011	-0.001
1011	-0.001
1012	-0.001
1012	-0
1013	-0
1013	-0.001
1013	-0.001
1014	-0.001
1014	-0.002
1015	-0.002
1015	-0.003
1016	-0.003
1016	-0.004
1016	-0.004
1017	-0.005
1017	-0.005
1018	-0.005
1018	-0.005
1018	-0.005
1019	-0.004
1019	-0.004
1020	-0.004
1020	-0.004
1021	-0.004
1021	-0.004
1021	-0.004
1022	-0.004
1022	-0.004
1023	-0.004
1023	-0.004
1023	-0.005
1024	-0.005
1024	-0.005
1025	-0.005
1025	-0.005
1026	-0.005
1026	-0.005
1026	-0.006
1027	-0.006
1027	-0.006
1028	-0.006
1028	-0.007
1028	-0.007
1029	-0.008
1029	-0.008
1030	-0.009
1030	-0.01
1031	-0.011
1031	-0.011
1031	-0.012
1032	-0.012
1032	-0.013
1033	-0.013
1033	-0.013
1033	-0.013
1034	-0.014
1034	-0.014
1035	-0.014
1035	-0.014
1036	-0.014
1036	-0.014
1036	-0.013
1037	-0.013
1037	-0.012
1038	-0.012
1038	-0.011
1039	-0.011
1039	-0.01
1039	-0.01
1040	-0.01
1040	-0.01
1041	-0.01
1041	-0.011
1041	-0.011
1042	-0.012
1042	-0.013
1043	-0.013
1043	-0.014
1044	-0.015
1044	-0.015
1044	-0.015
1045	-0.016
1045	-0.016
1046	-0.016
1046	-0.015
1046	-0.014
1047	-0.013
1047	-0.012
1048	-0.011
1048	-0.01
1049	-0.009
1049	-0.008
1049	-0.008
1050	-0.007
1050	-0.007
1051	-0.007
1051	-0.007
1051	-0.008
1052	-0.008
1052	-0.009
1053	-0.01
1053	-0.011
1053	-0.012
1054	-0.012
1054	-0.013
1055	-0.013
1055	-0.014
1056	-0.015
1056	-0.016
1056	-0.016
1057	-0.017
1057	-0.018
1058	-0.018
1058	-0.019
1058	-0.019
1059	-0.02
1059	-0.02
1060	-0.02
1060	-0.02
1061	-0.02
1061	-0.02
1061	-0.019
1062	-0.019
1062	-0.019
1063	-0.019
1063	-0.02
1063	-0.02
1064	-0.02
1064	-0.02
1065	-0.021
1065	-0.021
1066	-0.022
1066	-0.022
1066	-0.022
1067	-0.022
1067	-0.021
1068	-0.021
1068	-0.021
1068	-0.021
1069	-0.021
1069	-0.022
1070	-0.022
1070	-0.022
1071	-0.022
1071	-0.022
1071	-0.023
1072	-0.023
1072	-0.024
1073	-0.023
1073	-0.023
1073	-0.023
1074	-0.023
1074	-0.023
1075	-0.024
1075	-0.025
1076	-0.026
1076	-0.027
1076	-0.028
1077	-0.029
1077	-0.031
1078	-0.032
1078	-0.033
1078	-0.035
1079	-0.036
1079	-0.036
1080	-0.038
1080	-0.038
1080	-0.039
1081	-0.039
1081	-0.04
1082	-0.04
1082	-0.041
1083	-0.042
1083	-0.043
1083	-0.043
1084	-0.044
1084	-0.044
1085	-0.044
1085	-0.045
1085	-0.045
1086	-0.045
1086	-0.045
1087	-0.044
1087	-0.044
1088	-0.045
1088	-0.045
1088	-0.045
1089	-0.045
1089	-0.046
1090	-0.047
1090	-0.047
1090	-0.048
1091	-0.048
1091	-0.049
1092	-0.05
1092	-0.049
1092	-0.05
1093	-0.051
1093	-0.051
1094	-0.05
1094	-0.051
1095	-0.052
1095	-0.052
1095	-0.052
1096	-0.053
1096	-0.053
1097	-0.054
1097	-0.054
1097	-0.055
1098	-0.057
1098	-0.058
1099	-0.059
1099	-0.059
1100	-0.061
1100	-0.061
1100	-0.062
1101	-0.065
1101	-0.067
1102	-0.068
1102	-0.069
1102	-0.069
1103	-0.071
1103	-0.072
1104	-0.073
1104	-0.074
1104	-0.076
1105	-0.078
1105	-0.079
1106	-0.082
1106	-0.083
1107	-0.086
1107	-0.088
1107	-0.092
1108	-0.094
1108	-0.096
1109	-0.099
1109	-0.102
1109	-0.104
1110	-0.106
1110	-0.108
1111	-0.112
1111	-0.108
