Data from 15c-1-8a_Absorbance__1357__04958.txt Node

Date: Thu Jan 25 16:51:13 CET 2024
User: Marek
Spectrometer: MAYP115816
Trigger mode: 0
Integration Time (sec): 2.000000E-1
Scans to average: 10
Electric dark correction enabled: true
Nonlinearity correction enabled: true
Boxcar width: 5
XAxis mode: Wavelengths
Number of Pixels in Spectrum: 2068
>>>>>Begin Spectral Data<<<<<
199	-0.562
199	-0.51
200	-0.437
200	-0.38
201	-0.345
201	-0.321
202	-0.297
202	-0.289
203	-0.282
203	-0.276
204	-0.265
204	-0.251
205	-0.24
205	-0.233
205	-0.231
206	-0.232
206	-0.234
207	-0.233
207	-0.234
208	-0.232
208	-0.231
209	-0.228
209	-0.23
210	-0.23
210	-0.231
211	-0.232
211	-0.233
212	-0.233
212	-0.232
213	-0.231
213	-0.234
213	-0.237
214	-0.237
214	-0.237
215	-0.235
215	-0.238
216	-0.237
216	-0.239
217	-0.236
217	-0.238
218	-0.238
218	-0.237
219	-0.235
219	-0.236
220	-0.239
220	-0.24
221	-0.24
221	-0.242
221	-0.24
222	-0.24
222	-0.24
223	-0.236
223	-0.233
224	-0.231
224	-0.224
225	-0.216
225	-0.213
226	-0.206
226	-0.197
227	-0.186
227	-0.181
228	-0.168
228	-0.161
229	-0.149
229	-0.134
229	-0.12
230	-0.106
230	-0.089
231	-0.071
231	-0.053
232	-0.038
232	-0.019
233	-0.003
233	0.014
234	0.027
234	0.041
235	0.053
235	0.064
236	0.074
236	0.081
236	0.088
237	0.094
237	0.099
238	0.103
238	0.107
239	0.11
239	0.113
240	0.115
240	0.117
241	0.119
241	0.121
242	0.122
242	0.123
243	0.125
243	0.126
243	0.127
244	0.129
244	0.13
245	0.13
245	0.132
246	0.133
246	0.134
247	0.135
247	0.136
248	0.137
248	0.138
249	0.14
249	0.141
250	0.142
250	0.143
250	0.145
251	0.146
251	0.147
252	0.148
252	0.149
253	0.151
253	0.152
254	0.153
254	0.154
255	0.155
255	0.156
256	0.156
256	0.157
257	0.158
257	0.158
258	0.158
258	0.159
258	0.159
259	0.159
259	0.159
260	0.16
260	0.159
261	0.159
261	0.159
262	0.159
262	0.159
263	0.158
263	0.158
264	0.158
264	0.157
265	0.156
265	0.156
265	0.155
266	0.154
266	0.153
267	0.152
267	0.151
268	0.15
268	0.149
269	0.148
269	0.147
270	0.145
270	0.144
271	0.142
271	0.141
272	0.14
272	0.138
272	0.137
273	0.135
273	0.133
274	0.131
274	0.13
275	0.128
275	0.126
276	0.125
276	0.123
277	0.122
277	0.12
278	0.119
278	0.117
278	0.115
279	0.113
279	0.111
280	0.11
280	0.108
281	0.106
281	0.104
282	0.103
282	0.101
283	0.099
283	0.098
284	0.096
284	0.095
285	0.094
285	0.092
285	0.091
286	0.09
286	0.089
287	0.087
287	0.086
288	0.085
288	0.084
289	0.083
289	0.082
290	0.08
290	0.08
291	0.079
291	0.078
292	0.077
292	0.076
292	0.075
293	0.074
293	0.074
294	0.073
294	0.073
295	0.072
295	0.072
296	0.071
296	0.071
297	0.07
297	0.07
298	0.07
298	0.069
298	0.069
299	0.069
299	0.069
300	0.068
300	0.068
301	0.068
301	0.068
302	0.068
302	0.068
303	0.068
303	0.068
304	0.068
304	0.067
305	0.067
305	0.067
305	0.067
306	0.067
306	0.067
307	0.067
307	0.066
308	0.066
308	0.066
309	0.066
309	0.065
310	0.065
310	0.065
311	0.065
311	0.065
311	0.065
312	0.065
312	0.065
313	0.065
313	0.065
314	0.064
314	0.064
315	0.064
315	0.064
316	0.064
316	0.064
317	0.064
317	0.064
318	0.063
318	0.063
318	0.063
319	0.063
319	0.063
320	0.063
320	0.063
321	0.062
321	0.062
322	0.062
322	0.062
323	0.062
323	0.062
324	0.061
324	0.061
324	0.061
325	0.061
325	0.061
326	0.061
326	0.061
327	0.061
327	0.061
328	0.061
328	0.061
329	0.06
329	0.06
330	0.06
330	0.06
330	0.06
331	0.06
331	0.059
332	0.059
332	0.059
333	0.059
333	0.058
334	0.058
334	0.058
335	0.058
335	0.058
336	0.058
336	0.058
336	0.057
337	0.057
337	0.057
338	0.057
338	0.057
339	0.057
339	0.057
340	0.057
340	0.057
341	0.056
341	0.056
342	0.056
342	0.056
342	0.056
343	0.055
343	0.055
344	0.055
344	0.055
345	0.054
345	0.054
346	0.054
346	0.054
347	0.054
347	0.054
348	0.054
348	0.054
348	0.053
349	0.053
349	0.053
350	0.053
350	0.053
351	0.053
351	0.053
352	0.053
352	0.053
353	0.053
353	0.053
354	0.053
354	0.052
354	0.052
355	0.052
355	0.052
356	0.052
356	0.052
357	0.052
357	0.052
358	0.052
358	0.052
359	0.052
359	0.052
360	0.052
360	0.052
360	0.052
361	0.052
361	0.052
362	0.052
362	0.052
363	0.052
363	0.052
364	0.052
364	0.052
365	0.052
365	0.052
366	0.052
366	0.052
366	0.052
367	0.052
367	0.052
368	0.052
368	0.052
369	0.052
369	0.052
370	0.052
370	0.052
371	0.052
371	0.052
372	0.052
372	0.052
372	0.052
373	0.052
373	0.052
374	0.052
374	0.052
375	0.052
375	0.052
376	0.052
376	0.052
377	0.052
377	0.052
378	0.052
378	0.052
378	0.052
379	0.052
379	0.052
380	0.052
380	0.052
381	0.052
381	0.052
382	0.052
382	0.052
383	0.052
383	0.052
383	0.052
384	0.052
384	0.052
385	0.052
385	0.052
386	0.052
386	0.052
387	0.052
387	0.052
388	0.052
388	0.052
389	0.052
389	0.052
389	0.052
390	0.052
390	0.052
391	0.052
391	0.052
392	0.052
392	0.052
393	0.052
393	0.052
394	0.052
394	0.052
394	0.052
395	0.052
395	0.052
396	0.052
396	0.052
397	0.052
397	0.052
398	0.052
398	0.051
399	0.051
399	0.051
400	0.051
400	0.051
400	0.051
401	0.051
401	0.05
402	0.05
402	0.05
403	0.05
403	0.05
404	0.05
404	0.05
405	0.05
405	0.05
405	0.05
406	0.051
406	0.051
407	0.051
407	0.051
408	0.051
408	0.051
409	0.051
409	0.051
410	0.051
410	0.051
411	0.051
411	0.051
411	0.051
412	0.051
412	0.051
413	0.051
413	0.051
414	0.051
414	0.051
415	0.051
415	0.051
416	0.05
416	0.05
416	0.05
417	0.05
417	0.05
418	0.05
418	0.05
419	0.05
419	0.051
420	0.051
420	0.051
421	0.051
421	0.05
421	0.051
422	0.051
422	0.051
423	0.051
423	0.05
424	0.05
424	0.05
425	0.049
425	0.049
426	0.049
426	0.049
427	0.049
427	0.05
427	0.05
428	0.049
428	0.049
429	0.049
429	0.049
430	0.049
430	0.049
431	0.049
431	0.049
432	0.049
432	0.049
432	0.048
433	0.048
433	0.048
434	0.048
434	0.049
435	0.048
435	0.048
436	0.048
436	0.048
437	0.048
437	0.048
437	0.048
438	0.048
438	0.048
439	0.048
439	0.048
440	0.048
440	0.048
441	0.048
441	0.047
442	0.047
442	0.048
442	0.048
443	0.048
443	0.047
444	0.047
444	0.047
445	0.047
445	0.047
446	0.047
446	0.047
447	0.047
447	0.047
447	0.047
448	0.047
448	0.047
449	0.047
449	0.047
450	0.048
450	0.048
451	0.047
451	0.047
452	0.047
452	0.047
452	0.047
453	0.047
453	0.047
454	0.047
454	0.047
455	0.047
455	0.047
456	0.047
456	0.047
457	0.047
457	0.047
458	0.047
458	0.047
458	0.047
459	0.047
459	0.046
460	0.046
460	0.046
461	0.046
461	0.046
462	0.046
462	0.046
463	0.046
463	0.046
463	0.046
464	0.046
464	0.046
465	0.046
465	0.046
466	0.046
466	0.046
467	0.046
467	0.045
467	0.045
468	0.045
468	0.045
469	0.045
469	0.045
470	0.045
470	0.045
471	0.045
471	0.045
472	0.045
472	0.045
472	0.045
473	0.045
473	0.046
474	0.046
474	0.046
475	0.046
475	0.047
476	0.047
476	0.047
477	0.047
477	0.047
477	0.047
478	0.048
478	0.048
479	0.048
479	0.048
480	0.048
480	0.048
481	0.047
481	0.048
482	0.047
482	0.048
482	0.048
483	0.048
483	0.049
484	0.049
484	0.049
485	0.049
485	0.049
486	0.049
486	0.048
487	0.049
487	0.049
487	0.049
488	0.048
488	0.048
489	0.048
489	0.049
490	0.049
490	0.049
491	0.049
491	0.05
492	0.05
492	0.05
492	0.05
493	0.05
493	0.051
494	0.052
494	0.052
495	0.052
495	0.053
496	0.053
496	0.053
496	0.054
497	0.054
497	0.054
498	0.054
498	0.054
499	0.054
499	0.054
500	0.055
500	0.055
501	0.055
501	0.055
501	0.056
502	0.056
502	0.056
503	0.057
503	0.057
504	0.057
504	0.057
505	0.057
505	0.057
506	0.058
506	0.058
506	0.058
507	0.059
507	0.06
508	0.06
508	0.06
509	0.061
509	0.061
510	0.061
510	0.062
511	0.062
511	0.062
511	0.063
512	0.063
512	0.063
513	0.063
513	0.063
514	0.063
514	0.063
515	0.063
515	0.063
515	0.063
516	0.064
516	0.064
517	0.064
517	0.064
518	0.064
518	0.064
519	0.064
519	0.064
520	0.064
520	0.065
520	0.065
521	0.065
521	0.065
522	0.065
522	0.065
523	0.065
523	0.065
524	0.065
524	0.065
524	0.064
525	0.064
525	0.064
526	0.064
526	0.063
527	0.063
527	0.063
528	0.063
528	0.063
529	0.063
529	0.063
529	0.062
530	0.063
530	0.063
531	0.063
531	0.063
532	0.063
532	0.063
533	0.063
533	0.063
533	0.063
534	0.063
534	0.063
535	0.062
535	0.062
536	0.062
536	0.062
537	0.062
537	0.061
538	0.061
538	0.06
538	0.06
539	0.06
539	0.06
540	0.06
540	0.059
541	0.059
541	0.06
542	0.06
542	0.06
542	0.06
543	0.06
543	0.06
544	0.06
544	0.061
545	0.061
545	0.061
546	0.061
546	0.061
547	0.06
547	0.06
547	0.06
548	0.06
548	0.06
549	0.059
549	0.059
550	0.059
550	0.058
551	0.058
551	0.058
551	0.058
552	0.058
552	0.058
553	0.058
553	0.058
554	0.058
554	0.057
555	0.057
555	0.057
556	0.056
556	0.056
556	0.055
557	0.055
557	0.055
558	0.055
558	0.055
559	0.055
559	0.056
560	0.056
560	0.056
560	0.056
561	0.057
561	0.057
562	0.057
562	0.057
563	0.056
563	0.055
564	0.055
564	0.054
564	0.054
565	0.053
565	0.053
566	0.052
566	0.052
567	0.051
567	0.051
568	0.051
568	0.052
568	0.052
569	0.052
569	0.052
570	0.052
570	0.051
571	0.051
571	0.051
572	0.051
572	0.051
573	0.05
573	0.05
573	0.049
574	0.049
574	0.05
575	0.05
575	0.052
576	0.053
576	0.052
577	0.051
577	0.051
577	0.051
578	0.051
578	0.052
579	0.053
579	0.053
580	0.051
580	0.049
581	0.048
581	0.048
581	0.048
582	0.049
582	0.049
583	0.05
583	0.049
584	0.048
584	0.046
585	0.048
585	0.049
585	0.049
586	0.05
586	0.049
587	0.048
587	0.047
588	0.046
588	0.046
589	0.046
589	0.046
590	0.046
590	0.046
590	0.047
591	0.048
591	0.047
592	0.047
592	0.046
593	0.046
593	0.046
594	0.046
594	0.046
594	0.045
595	0.046
595	0.045
596	0.045
596	0.047
597	0.049
597	0.049
598	0.049
598	0.05
598	0.05
599	0.05
599	0.049
600	0.049
600	0.048
601	0.048
601	0.047
602	0.046
602	0.046
602	0.045
603	0.046
603	0.047
604	0.047
604	0.048
605	0.048
605	0.049
606	0.048
606	0.047
606	0.047
607	0.047
607	0.047
608	0.047
608	0.045
609	0.045
609	0.045
610	0.044
610	0.044
610	0.045
611	0.046
611	0.047
612	0.048
612	0.049
613	0.049
613	0.05
614	0.05
614	0.049
614	0.049
615	0.049
615	0.049
616	0.049
616	0.048
617	0.048
617	0.047
618	0.047
618	0.047
618	0.047
619	0.047
619	0.048
620	0.049
620	0.049
621	0.049
621	0.049
622	0.049
622	0.048
622	0.048
623	0.047
623	0.048
624	0.048
624	0.047
625	0.046
625	0.046
626	0.046
626	0.047
626	0.047
627	0.048
627	0.049
628	0.049
628	0.05
629	0.05
629	0.051
630	0.05
630	0.05
630	0.05
631	0.051
631	0.05
632	0.05
632	0.05
633	0.05
633	0.05
634	0.05
634	0.05
634	0.051
635	0.051
635	0.051
636	0.051
636	0.051
637	0.052
637	0.052
638	0.052
638	0.052
638	0.052
639	0.052
639	0.053
640	0.053
640	0.054
641	0.054
641	0.055
642	0.056
642	0.057
642	0.058
643	0.058
643	0.059
644	0.06
644	0.061
645	0.061
645	0.062
646	0.063
646	0.064
646	0.064
647	0.065
647	0.065
648	0.065
648	0.066
649	0.067
649	0.068
650	0.069
650	0.07
650	0.07
651	0.071
651	0.071
652	0.071
652	0.072
653	0.073
653	0.078
653	0.081
654	0.066
654	0.054
655	0.053
655	0.053
656	0.054
656	0.055
657	0.057
657	0.058
657	0.058
658	0.056
658	0.052
659	0.066
659	0.084
660	0.091
660	0.092
661	0.092
661	0.093
661	0.094
662	0.095
662	0.096
663	0.097
663	0.098
664	0.098
664	0.099
665	0.1
665	0.101
665	0.102
666	0.102
666	0.103
667	0.103
667	0.104
668	0.105
668	0.106
669	0.107
669	0.108
669	0.109
670	0.11
670	0.11
671	0.11
671	0.111
672	0.111
672	0.112
672	0.112
673	0.113
673	0.114
674	0.114
674	0.115
675	0.116
675	0.117
676	0.119
676	0.119
676	0.12
677	0.121
677	0.122
678	0.122
678	0.122
679	0.122
679	0.122
680	0.122
680	0.122
680	0.121
681	0.121
681	0.122
682	0.122
682	0.122
683	0.122
683	0.123
684	0.123
684	0.122
684	0.122
685	0.122
685	0.122
686	0.122
686	0.121
687	0.121
687	0.12
687	0.12
688	0.12
688	0.12
689	0.121
689	0.122
690	0.121
690	0.121
691	0.121
691	0.121
691	0.121
692	0.12
692	0.12
693	0.12
693	0.12
694	0.12
694	0.12
695	0.121
695	0.122
695	0.122
696	0.122
696	0.123
697	0.123
697	0.123
698	0.123
698	0.122
698	0.122
699	0.121
699	0.12
700	0.118
700	0.118
701	0.118
701	0.117
702	0.117
702	0.116
702	0.116
703	0.115
703	0.114
704	0.113
704	0.113
705	0.112
705	0.111
705	0.109
706	0.108
706	0.108
707	0.107
707	0.106
708	0.106
708	0.106
709	0.106
709	0.106
709	0.105
710	0.105
710	0.105
711	0.106
711	0.106
712	0.105
712	0.105
713	0.105
713	0.104
713	0.104
714	0.103
714	0.102
715	0.102
715	0.101
716	0.1
716	0.099
716	0.098
717	0.097
717	0.096
718	0.095
718	0.094
719	0.094
719	0.094
720	0.093
720	0.092
720	0.091
721	0.09
721	0.09
722	0.089
722	0.088
723	0.088
723	0.087
723	0.086
724	0.086
724	0.085
725	0.084
725	0.084
726	0.084
726	0.083
727	0.083
727	0.082
727	0.081
728	0.08
728	0.079
729	0.079
729	0.078
730	0.077
730	0.076
730	0.075
731	0.074
731	0.074
732	0.074
732	0.073
733	0.072
733	0.072
734	0.071
734	0.07
734	0.07
735	0.07
735	0.069
736	0.069
736	0.069
737	0.069
737	0.069
737	0.069
738	0.068
738	0.067
739	0.067
739	0.067
740	0.066
740	0.067
741	0.066
741	0.065
741	0.064
742	0.063
742	0.063
743	0.063
743	0.062
744	0.062
744	0.061
744	0.06
745	0.059
745	0.059
746	0.058
746	0.058
747	0.057
747	0.057
748	0.057
748	0.057
748	0.056
749	0.055
749	0.054
750	0.054
750	0.053
751	0.052
751	0.051
751	0.051
752	0.05
752	0.049
753	0.048
753	0.048
754	0.047
754	0.047
754	0.046
755	0.046
755	0.045
756	0.044
756	0.042
757	0.041
757	0.041
758	0.04
758	0.039
758	0.039
759	0.038
759	0.037
760	0.035
760	0.034
761	0.034
761	0.034
761	0.034
762	0.034
762	0.034
763	0.034
763	0.033
764	0.032
764	0.032
764	0.032
765	0.032
765	0.032
766	0.032
766	0.032
767	0.031
767	0.029
768	0.028
768	0.027
768	0.027
769	0.026
769	0.025
770	0.023
770	0.022
771	0.021
771	0.019
771	0.018
772	0.017
772	0.016
773	0.015
773	0.013
774	0.012
774	0.01
775	0.008
775	0.006
775	0.004
776	0.002
776	0.001
777	-0.001
777	-0.002
778	-0.004
778	-0.005
778	-0.006
779	-0.006
779	-0.007
780	-0.008
780	-0.01
781	-0.011
781	-0.013
781	-0.015
782	-0.017
782	-0.02
783	-0.023
783	-0.025
784	-0.029
784	-0.032
784	-0.036
785	-0.039
785	-0.043
786	-0.047
786	-0.05
787	-0.052
787	-0.055
788	-0.059
788	-0.063
788	-0.068
789	-0.073
789	-0.077
790	-0.081
790	-0.086
791	-0.091
791	-0.098
791	-0.104
792	-0.103
792	-0.099
793	-0.099
793	-0.101
794	-0.104
794	-0.11
794	-0.116
795	-0.12
795	-0.123
796	-0.125
796	-0.127
797	-0.136
797	-0.147
797	-0.154
798	-0.16
798	-0.164
799	-0.165
799	-0.165
800	-0.165
800	-0.167
801	-0.17
801	-0.171
801	-0.171
802	-0.172
802	-0.173
803	-0.173
803	-0.173
804	-0.172
804	-0.166
804	-0.159
805	-0.155
805	-0.152
806	-0.15
806	-0.149
807	-0.147
807	-0.146
807	-0.146
808	-0.145
808	-0.146
809	-0.15
809	-0.155
810	-0.158
810	-0.16
810	-0.162
811	-0.163
811	-0.161
812	-0.156
812	-0.15
813	-0.144
813	-0.138
813	-0.132
814	-0.125
814	-0.116
815	-0.106
815	-0.095
816	-0.086
816	-0.079
817	-0.073
817	-0.067
817	-0.06
818	-0.054
818	-0.049
819	-0.043
819	-0.039
820	-0.036
820	-0.032
820	-0.029
821	-0.025
821	-0.022
822	-0.019
822	-0.016
823	-0.014
823	-0.012
823	-0.011
824	-0.009
824	-0.007
825	-0.005
825	-0.003
826	-0.002
826	-0.001
826	-0.001
827	-0
827	0
828	0.001
828	0.001
829	0.001
829	0.002
829	0.002
830	0.003
830	0.003
831	0.005
831	0.007
832	0.008
832	0.009
832	0.01
833	0.011
833	0.012
834	0.012
834	0.012
835	0.012
835	0.012
835	0.011
836	0.011
836	0.011
837	0.01
837	0.01
838	0.01
838	0.01
839	0.01
839	0.01
839	0.01
840	0.01
840	0.01
841	0.009
841	0.009
842	0.009
842	0.008
842	0.008
843	0.008
843	0.008
844	0.008
844	0.008
845	0.008
845	0.009
845	0.009
846	0.01
846	0.01
847	0.011
847	0.012
848	0.013
848	0.013
848	0.014
849	0.015
849	0.015
850	0.015
850	0.015
851	0.015
851	0.015
851	0.015
852	0.014
852	0.014
853	0.013
853	0.012
854	0.012
854	0.011
854	0.011
855	0.011
855	0.011
856	0.012
856	0.012
857	0.013
857	0.014
857	0.015
858	0.017
858	0.018
859	0.018
859	0.019
860	0.02
860	0.02
860	0.02
861	0.021
861	0.02
862	0.02
862	0.019
863	0.019
863	0.019
863	0.019
864	0.019
864	0.019
865	0.02
865	0.02
866	0.02
866	0.021
866	0.022
867	0.023
867	0.023
868	0.023
868	0.024
869	0.024
869	0.024
869	0.024
870	0.024
870	0.023
871	0.023
871	0.022
872	0.02
872	0.019
872	0.018
873	0.017
873	0.015
874	0.014
874	0.012
875	0.011
875	0.009
875	0.008
876	0.007
876	0.007
877	0.006
877	0.006
878	0.005
878	0.005
878	0.005
879	0.005
879	0.005
880	0.005
880	0.005
881	0.006
881	0.006
881	0.007
882	0.008
882	0.008
883	0.009
883	0.009
884	0.01
884	0.011
884	0.012
885	0.012
885	0.013
886	0.013
886	0.013
887	0.013
887	0.013
887	0.013
888	0.013
888	0.013
889	0.013
889	0.014
890	0.014
890	0.015
890	0.015
891	0.015
891	0.016
892	0.016
892	0.016
893	0.016
893	0.016
893	0.016
894	0.016
894	0.015
895	0.014
895	0.013
895	0.012
896	0.012
896	0.011
897	0.01
897	0.01
898	0.009
898	0.008
898	0.008
899	0.008
899	0.008
900	0.008
900	0.008
901	0.009
901	0.009
901	0.009
902	0.01
902	0.01
903	0.01
903	0.01
904	0.01
904	0.01
904	0.011
905	0.011
905	0.011
906	0.011
906	0.011
907	0.011
907	0.011
907	0.011
908	0.011
908	0.011
909	0.011
909	0.011
910	0.011
910	0.01
910	0.01
911	0.011
911	0.011
912	0.012
912	0.013
913	0.014
913	0.015
913	0.016
914	0.017
914	0.017
915	0.018
915	0.019
916	0.019
916	0.02
916	0.02
917	0.02
917	0.02
918	0.019
918	0.019
918	0.018
919	0.018
919	0.016
920	0.015
920	0.014
921	0.013
921	0.012
921	0.01
922	0.009
922	0.008
923	0.007
923	0.006
924	0.006
924	0.005
924	0.005
925	0.005
925	0.005
926	0.005
926	0.006
927	0.006
927	0.005
927	0.006
928	0.006
928	0.006
929	0.006
929	0.006
930	0.006
930	0.006
930	0.006
931	0.006
931	0.006
932	0.006
932	0.006
933	0.006
933	0.006
933	0.006
934	0.006
934	0.005
935	0.005
935	0.005
935	0.005
936	0.005
936	0.004
937	0.004
937	0.004
938	0.004
938	0.003
938	0.003
939	0.002
939	0.002
940	0.002
940	0.002
941	0.002
941	0.003
941	0.004
942	0.004
942	0.005
943	0.006
943	0.007
944	0.008
944	0.008
944	0.009
945	0.01
945	0.011
946	0.012
946	0.012
946	0.013
947	0.013
947	0.013
948	0.012
948	0.012
949	0.011
949	0.01
949	0.01
950	0.009
950	0.008
951	0.007
951	0.007
952	0.006
952	0.006
952	0.006
953	0.006
953	0.006
954	0.006
954	0.006
955	0.006
955	0.006
955	0.006
956	0.006
956	0.006
957	0.006
957	0.005
957	0.005
958	0.004
958	0.004
959	0.004
959	0.004
960	0.004
960	0.003
960	0.003
961	0.003
961	0.003
962	0.003
962	0.003
963	0.003
963	0.003
963	0.003
964	0.002
964	0.002
965	0.002
965	0.003
966	0.003
966	0.003
966	0.003
967	0.004
967	0.004
968	0.004
968	0.004
968	0.004
969	0.003
969	0.003
970	0.003
970	0.002
971	0.001
971	0.001
971	0
972	0
972	-0
973	-0.001
973	-0.001
974	-0.001
974	-0.002
974	-0.002
975	-0.002
975	-0.003
976	-0.003
976	-0.004
976	-0.004
977	-0.005
977	-0.006
978	-0.006
978	-0.007
979	-0.007
979	-0.007
979	-0.008
980	-0.008
980	-0.008
981	-0.008
981	-0.008
982	-0.008
982	-0.008
982	-0.007
983	-0.007
983	-0.007
984	-0.007
984	-0.007
984	-0.007
985	-0.007
985	-0.007
986	-0.007
986	-0.007
987	-0.007
987	-0.007
987	-0.007
988	-0.007
988	-0.007
989	-0.007
989	-0.007
990	-0.006
990	-0.006
990	-0.005
991	-0.004
991	-0.004
992	-0.003
992	-0.003
992	-0.003
993	-0.003
993	-0.002
994	-0.003
994	-0.003
995	-0.003
995	-0.003
995	-0.004
996	-0.004
996	-0.005
997	-0.006
997	-0.006
997	-0.006
998	-0.006
998	-0.006
999	-0.006
999	-0.006
1000	-0.005
1000	-0.004
1000	-0.004
1001	-0.003
1001	-0.002
1002	-0.002
1002	-0.001
1003	-0.001
1003	-0.001
1003	-0.001
1004	-0.001
1004	-0.001
1005	-0.002
1005	-0.002
1005	-0.003
1006	-0.004
1006	-0.004
1007	-0.005
1007	-0.005
1008	-0.005
1008	-0.006
1008	-0.006
1009	-0.006
1009	-0.005
1010	-0.005
1010	-0.005
1010	-0.004
1011	-0.004
1011	-0.003
1012	-0.003
1012	-0.003
1013	-0.002
1013	-0.002
1013	-0.003
1014	-0.003
1014	-0.004
1015	-0.005
1015	-0.006
1016	-0.007
1016	-0.008
1016	-0.009
1017	-0.009
1017	-0.01
1018	-0.01
1018	-0.01
1018	-0.01
1019	-0.01
1019	-0.01
1020	-0.01
1020	-0.01
1021	-0.009
1021	-0.009
1021	-0.009
1022	-0.009
1022	-0.009
1023	-0.009
1023	-0.009
1023	-0.009
1024	-0.009
1024	-0.01
1025	-0.01
1025	-0.01
1026	-0.01
1026	-0.011
1026	-0.011
1027	-0.012
1027	-0.012
1028	-0.012
1028	-0.012
1028	-0.013
1029	-0.013
1029	-0.013
1030	-0.013
1030	-0.014
1031	-0.014
1031	-0.014
1031	-0.014
1032	-0.014
1032	-0.014
1033	-0.015
1033	-0.015
1033	-0.015
1034	-0.016
1034	-0.016
1035	-0.017
1035	-0.017
1036	-0.018
1036	-0.018
1036	-0.018
1037	-0.018
1037	-0.018
1038	-0.018
1038	-0.018
1039	-0.018
1039	-0.018
1039	-0.018
1040	-0.018
1040	-0.018
1041	-0.018
1041	-0.018
1041	-0.018
1042	-0.019
1042	-0.019
1043	-0.019
1043	-0.019
1044	-0.019
1044	-0.02
1044	-0.019
1045	-0.019
1045	-0.019
1046	-0.019
1046	-0.019
1046	-0.018
1047	-0.017
1047	-0.016
1048	-0.015
1048	-0.014
1049	-0.014
1049	-0.013
1049	-0.013
1050	-0.013
1050	-0.014
1051	-0.014
1051	-0.015
1051	-0.015
1052	-0.016
1052	-0.017
1053	-0.018
1053	-0.019
1053	-0.02
1054	-0.022
1054	-0.022
1055	-0.023
1055	-0.024
1056	-0.025
1056	-0.026
1056	-0.027
1057	-0.028
1057	-0.03
1058	-0.03
1058	-0.031
1058	-0.031
1059	-0.032
1059	-0.033
1060	-0.033
1060	-0.033
1061	-0.033
1061	-0.032
1061	-0.032
1062	-0.032
1062	-0.032
1063	-0.032
1063	-0.032
1063	-0.032
1064	-0.032
1064	-0.032
1065	-0.032
1065	-0.032
1066	-0.031
1066	-0.031
1066	-0.03
1067	-0.029
1067	-0.029
1068	-0.028
1068	-0.027
1068	-0.027
1069	-0.026
1069	-0.026
1070	-0.026
1070	-0.026
1071	-0.026
1071	-0.027
1071	-0.028
1072	-0.028
1072	-0.029
1073	-0.03
1073	-0.031
1073	-0.031
1074	-0.032
1074	-0.033
1075	-0.035
1075	-0.036
1076	-0.038
1076	-0.039
1076	-0.041
1077	-0.042
1077	-0.044
1078	-0.045
1078	-0.046
1078	-0.047
1079	-0.048
1079	-0.048
1080	-0.049
1080	-0.049
1080	-0.049
1081	-0.048
1081	-0.048
1082	-0.048
1082	-0.049
1083	-0.049
1083	-0.049
1083	-0.049
1084	-0.049
1084	-0.049
1085	-0.049
1085	-0.049
1085	-0.05
1086	-0.05
1086	-0.05
1087	-0.05
1087	-0.05
1088	-0.051
1088	-0.052
1088	-0.052
1089	-0.052
1089	-0.053
1090	-0.055
1090	-0.055
1090	-0.056
1091	-0.057
1091	-0.058
1092	-0.058
1092	-0.058
1092	-0.059
1093	-0.059
1093	-0.06
1094	-0.059
1094	-0.06
1095	-0.06
1095	-0.061
1095	-0.062
1096	-0.062
1096	-0.063
1097	-0.064
1097	-0.065
1097	-0.067
1098	-0.068
1098	-0.069
1099	-0.071
1099	-0.072
1100	-0.073
1100	-0.073
1100	-0.075
1101	-0.078
1101	-0.08
1102	-0.081
1102	-0.082
1102	-0.083
1103	-0.085
1103	-0.086
1104	-0.088
1104	-0.09
1104	-0.093
1105	-0.095
1105	-0.096
1106	-0.099
1106	-0.1
1107	-0.104
1107	-0.106
1107	-0.11
1108	-0.111
1108	-0.113
1109	-0.115
1109	-0.117
1109	-0.119
1110	-0.12
1110	-0.123
1111	-0.127
1111	-0.122
