Data from 17c-2a_Absorbance__1017__01018.txt Node

Date: Fri Jan 26 10:21:24 CET 2024
User: Marek
Spectrometer: MAYP115816
Trigger mode: 0
Integration Time (sec): 2.000000E-1
Scans to average: 10
Electric dark correction enabled: true
Nonlinearity correction enabled: true
Boxcar width: 5
XAxis mode: Wavelengths
Number of Pixels in Spectrum: 2068
>>>>>Begin Spectral Data<<<<<
199	-1.329
199	-1.197
200	-1.055
200	-0.947
201	-0.88
201	-0.84
202	-0.78
202	-0.735
203	-0.697
203	-0.665
204	-0.641
204	-0.621
205	-0.601
205	-0.592
205	-0.59
206	-0.587
206	-0.584
207	-0.58
207	-0.58
208	-0.579
208	-0.578
209	-0.575
209	-0.572
210	-0.573
210	-0.574
211	-0.574
211	-0.576
212	-0.577
212	-0.576
213	-0.574
213	-0.572
213	-0.572
214	-0.572
214	-0.571
215	-0.566
215	-0.565
216	-0.563
216	-0.562
217	-0.559
217	-0.558
218	-0.555
218	-0.553
219	-0.548
219	-0.547
220	-0.546
220	-0.546
221	-0.543
221	-0.542
221	-0.538
222	-0.533
222	-0.529
223	-0.526
223	-0.523
224	-0.519
224	-0.513
225	-0.505
225	-0.499
226	-0.491
226	-0.481
227	-0.472
227	-0.463
228	-0.448
228	-0.434
229	-0.416
229	-0.395
229	-0.374
230	-0.35
230	-0.323
231	-0.295
231	-0.265
232	-0.235
232	-0.203
233	-0.169
233	-0.135
234	-0.103
234	-0.072
235	-0.042
235	-0.014
236	0.013
236	0.038
236	0.062
237	0.083
237	0.103
238	0.12
238	0.136
239	0.151
239	0.164
240	0.176
240	0.186
241	0.196
241	0.204
242	0.212
242	0.219
243	0.226
243	0.231
243	0.237
244	0.241
244	0.246
245	0.25
245	0.254
246	0.257
246	0.261
247	0.264
247	0.267
248	0.27
248	0.273
249	0.275
249	0.278
250	0.281
250	0.283
250	0.286
251	0.288
251	0.29
252	0.293
252	0.295
253	0.296
253	0.298
254	0.3
254	0.301
255	0.303
255	0.304
256	0.306
256	0.307
257	0.308
257	0.309
258	0.309
258	0.31
258	0.311
259	0.311
259	0.311
260	0.312
260	0.312
261	0.312
261	0.312
262	0.312
262	0.312
263	0.312
263	0.311
264	0.311
264	0.311
265	0.31
265	0.309
265	0.308
266	0.307
266	0.306
267	0.305
267	0.304
268	0.302
268	0.301
269	0.299
269	0.298
270	0.296
270	0.295
271	0.293
271	0.291
272	0.29
272	0.288
272	0.286
273	0.284
273	0.282
274	0.28
274	0.278
275	0.276
275	0.275
276	0.273
276	0.271
277	0.269
277	0.267
278	0.264
278	0.262
278	0.26
279	0.257
279	0.255
280	0.253
280	0.251
281	0.248
281	0.246
282	0.244
282	0.243
283	0.241
283	0.239
284	0.238
284	0.236
285	0.234
285	0.233
285	0.231
286	0.229
286	0.228
287	0.226
287	0.224
288	0.223
288	0.221
289	0.22
289	0.218
290	0.217
290	0.216
291	0.215
291	0.213
292	0.212
292	0.211
292	0.21
293	0.209
293	0.208
294	0.207
294	0.206
295	0.205
295	0.204
296	0.203
296	0.202
297	0.202
297	0.201
298	0.2
298	0.2
298	0.199
299	0.199
299	0.198
300	0.197
300	0.197
301	0.196
301	0.195
302	0.195
302	0.194
303	0.194
303	0.193
304	0.193
304	0.192
305	0.192
305	0.191
305	0.19
306	0.19
306	0.189
307	0.189
307	0.188
308	0.187
308	0.187
309	0.186
309	0.186
310	0.185
310	0.185
311	0.185
311	0.184
311	0.184
312	0.183
312	0.183
313	0.183
313	0.182
314	0.181
314	0.181
315	0.18
315	0.18
316	0.179
316	0.179
317	0.178
317	0.178
318	0.177
318	0.177
318	0.177
319	0.176
319	0.176
320	0.176
320	0.175
321	0.174
321	0.174
322	0.174
322	0.173
323	0.172
323	0.172
324	0.171
324	0.171
324	0.17
325	0.17
325	0.17
326	0.169
326	0.169
327	0.168
327	0.168
328	0.167
328	0.167
329	0.167
329	0.166
330	0.166
330	0.165
330	0.165
331	0.164
331	0.164
332	0.163
332	0.163
333	0.163
333	0.162
334	0.162
334	0.161
335	0.161
335	0.161
336	0.16
336	0.16
336	0.159
337	0.159
337	0.159
338	0.158
338	0.158
339	0.157
339	0.157
340	0.157
340	0.156
341	0.156
341	0.156
342	0.155
342	0.155
342	0.155
343	0.155
343	0.154
344	0.154
344	0.154
345	0.153
345	0.153
346	0.153
346	0.153
347	0.153
347	0.152
348	0.152
348	0.152
348	0.151
349	0.151
349	0.151
350	0.151
350	0.151
351	0.15
351	0.15
352	0.15
352	0.15
353	0.15
353	0.149
354	0.149
354	0.149
354	0.149
355	0.148
355	0.148
356	0.148
356	0.148
357	0.147
357	0.147
358	0.147
358	0.147
359	0.147
359	0.147
360	0.147
360	0.147
360	0.147
361	0.147
361	0.147
362	0.148
362	0.147
363	0.147
363	0.147
364	0.147
364	0.147
365	0.147
365	0.147
366	0.147
366	0.147
366	0.147
367	0.147
367	0.147
368	0.147
368	0.147
369	0.147
369	0.147
370	0.146
370	0.146
371	0.146
371	0.146
372	0.145
372	0.145
372	0.145
373	0.145
373	0.145
374	0.145
374	0.145
375	0.145
375	0.145
376	0.146
376	0.146
377	0.146
377	0.146
378	0.146
378	0.146
378	0.146
379	0.146
379	0.146
380	0.146
380	0.146
381	0.146
381	0.145
382	0.145
382	0.145
383	0.145
383	0.144
383	0.144
384	0.144
384	0.144
385	0.144
385	0.144
386	0.144
386	0.144
387	0.144
387	0.144
388	0.144
388	0.144
389	0.144
389	0.144
389	0.144
390	0.144
390	0.144
391	0.144
391	0.144
392	0.144
392	0.144
393	0.144
393	0.144
394	0.144
394	0.144
394	0.143
395	0.143
395	0.143
396	0.143
396	0.143
397	0.143
397	0.143
398	0.143
398	0.143
399	0.142
399	0.142
400	0.142
400	0.142
400	0.142
401	0.141
401	0.141
402	0.141
402	0.141
403	0.141
403	0.141
404	0.141
404	0.141
405	0.141
405	0.141
405	0.141
406	0.141
406	0.141
407	0.141
407	0.14
408	0.14
408	0.14
409	0.14
409	0.14
410	0.14
410	0.14
411	0.14
411	0.14
411	0.14
412	0.14
412	0.14
413	0.139
413	0.139
414	0.139
414	0.139
415	0.139
415	0.139
416	0.138
416	0.138
416	0.138
417	0.138
417	0.138
418	0.138
418	0.138
419	0.139
419	0.139
420	0.139
420	0.139
421	0.139
421	0.139
421	0.139
422	0.14
422	0.14
423	0.14
423	0.139
424	0.139
424	0.139
425	0.139
425	0.139
426	0.139
426	0.139
427	0.139
427	0.139
427	0.139
428	0.139
428	0.139
429	0.139
429	0.139
430	0.139
430	0.139
431	0.139
431	0.139
432	0.139
432	0.139
432	0.138
433	0.138
433	0.138
434	0.138
434	0.138
435	0.138
435	0.138
436	0.138
436	0.138
437	0.138
437	0.138
437	0.139
438	0.138
438	0.138
439	0.138
439	0.138
440	0.138
440	0.137
441	0.138
441	0.138
442	0.138
442	0.138
442	0.138
443	0.138
443	0.138
444	0.138
444	0.138
445	0.139
445	0.139
446	0.139
446	0.139
447	0.139
447	0.139
447	0.139
448	0.139
448	0.139
449	0.139
449	0.138
450	0.139
450	0.139
451	0.139
451	0.139
452	0.139
452	0.139
452	0.138
453	0.138
453	0.138
454	0.138
454	0.138
455	0.138
455	0.138
456	0.138
456	0.138
457	0.138
457	0.138
458	0.138
458	0.138
458	0.139
459	0.139
459	0.139
460	0.139
460	0.138
461	0.139
461	0.139
462	0.139
462	0.14
463	0.14
463	0.14
463	0.141
464	0.141
464	0.141
465	0.141
465	0.142
466	0.142
466	0.142
467	0.142
467	0.142
467	0.141
468	0.141
468	0.14
469	0.14
469	0.14
470	0.14
470	0.14
471	0.14
471	0.14
472	0.141
472	0.141
472	0.141
473	0.142
473	0.142
474	0.143
474	0.143
475	0.144
475	0.144
476	0.145
476	0.145
477	0.146
477	0.146
477	0.146
478	0.147
478	0.147
479	0.148
479	0.148
480	0.149
480	0.149
481	0.149
481	0.15
482	0.151
482	0.151
482	0.152
483	0.154
483	0.156
484	0.157
484	0.157
485	0.158
485	0.159
486	0.16
486	0.16
487	0.161
487	0.162
487	0.162
488	0.162
488	0.162
489	0.162
489	0.163
490	0.163
490	0.164
491	0.165
491	0.166
492	0.167
492	0.167
492	0.168
493	0.169
493	0.17
494	0.171
494	0.172
495	0.173
495	0.174
496	0.175
496	0.176
496	0.177
497	0.178
497	0.179
498	0.18
498	0.181
499	0.182
499	0.184
500	0.185
500	0.186
501	0.188
501	0.189
501	0.19
502	0.191
502	0.192
503	0.194
503	0.195
504	0.196
504	0.197
505	0.198
505	0.199
506	0.2
506	0.201
506	0.202
507	0.203
507	0.204
508	0.205
508	0.206
509	0.207
509	0.208
510	0.209
510	0.21
511	0.211
511	0.212
511	0.213
512	0.214
512	0.214
513	0.215
513	0.215
514	0.216
514	0.216
515	0.217
515	0.217
515	0.217
516	0.217
516	0.218
517	0.219
517	0.219
518	0.22
518	0.22
519	0.22
519	0.22
520	0.22
520	0.22
520	0.22
521	0.219
521	0.218
522	0.218
522	0.217
523	0.217
523	0.217
524	0.217
524	0.218
524	0.218
525	0.218
525	0.219
526	0.219
526	0.22
527	0.22
527	0.221
528	0.221
528	0.221
529	0.221
529	0.221
529	0.22
530	0.22
530	0.219
531	0.219
531	0.218
532	0.217
532	0.217
533	0.216
533	0.215
533	0.214
534	0.213
534	0.212
535	0.21
535	0.21
536	0.209
536	0.207
537	0.206
537	0.205
538	0.204
538	0.203
538	0.202
539	0.201
539	0.2
540	0.198
540	0.197
541	0.195
541	0.194
542	0.192
542	0.191
542	0.19
543	0.188
543	0.187
544	0.185
544	0.184
545	0.183
545	0.182
546	0.181
546	0.179
547	0.178
547	0.176
547	0.175
548	0.174
548	0.173
549	0.172
549	0.17
550	0.169
550	0.168
551	0.166
551	0.165
551	0.163
552	0.162
552	0.161
553	0.16
553	0.158
554	0.157
554	0.155
555	0.153
555	0.151
556	0.149
556	0.147
556	0.144
557	0.142
557	0.141
558	0.139
558	0.137
559	0.135
559	0.134
560	0.132
560	0.131
560	0.13
561	0.13
561	0.129
562	0.128
562	0.127
563	0.125
563	0.124
564	0.122
564	0.121
564	0.12
565	0.119
565	0.118
566	0.116
566	0.115
567	0.114
567	0.113
568	0.113
568	0.112
568	0.112
569	0.111
569	0.111
570	0.11
570	0.109
571	0.109
571	0.109
572	0.108
572	0.108
573	0.107
573	0.106
573	0.105
574	0.104
574	0.103
575	0.103
575	0.103
576	0.103
576	0.101
577	0.1
577	0.099
577	0.098
578	0.098
578	0.098
579	0.098
579	0.098
580	0.097
580	0.094
581	0.092
581	0.091
581	0.091
582	0.09
582	0.09
583	0.09
583	0.089
584	0.087
584	0.084
585	0.084
585	0.085
585	0.085
586	0.084
586	0.084
587	0.082
587	0.081
588	0.079
588	0.078
589	0.078
589	0.078
590	0.077
590	0.077
590	0.078
591	0.079
591	0.078
592	0.078
592	0.077
593	0.077
593	0.077
594	0.077
594	0.076
594	0.075
595	0.075
595	0.074
596	0.073
596	0.074
597	0.076
597	0.077
598	0.077
598	0.077
598	0.077
599	0.077
599	0.077
600	0.076
600	0.075
601	0.075
601	0.074
602	0.072
602	0.071
602	0.07
603	0.07
603	0.071
604	0.071
604	0.072
605	0.072
605	0.073
606	0.073
606	0.072
606	0.072
607	0.071
607	0.071
608	0.071
608	0.07
609	0.069
609	0.069
610	0.069
610	0.068
610	0.069
611	0.07
611	0.071
612	0.072
612	0.074
613	0.075
613	0.076
614	0.077
614	0.076
614	0.077
615	0.077
615	0.077
616	0.077
616	0.077
617	0.077
617	0.077
618	0.077
618	0.076
618	0.076
619	0.077
619	0.078
620	0.079
620	0.079
621	0.08
621	0.08
622	0.08
622	0.08
622	0.08
623	0.08
623	0.081
624	0.082
624	0.082
625	0.082
625	0.082
626	0.082
626	0.082
626	0.083
627	0.084
627	0.084
628	0.085
628	0.085
629	0.085
629	0.085
630	0.085
630	0.085
630	0.086
631	0.086
631	0.086
632	0.086
632	0.086
633	0.087
633	0.088
634	0.089
634	0.091
634	0.092
635	0.093
635	0.094
636	0.095
636	0.095
637	0.096
637	0.097
638	0.097
638	0.098
638	0.099
639	0.099
639	0.1
640	0.1
640	0.101
641	0.102
641	0.103
642	0.104
642	0.106
642	0.107
643	0.108
643	0.109
644	0.111
644	0.112
645	0.114
645	0.116
646	0.118
646	0.12
646	0.122
647	0.124
647	0.127
648	0.128
648	0.13
649	0.133
649	0.135
650	0.137
650	0.139
650	0.141
651	0.143
651	0.145
652	0.146
652	0.148
653	0.15
653	0.156
653	0.158
654	0.127
654	0.103
655	0.105
655	0.106
656	0.107
656	0.108
657	0.11
657	0.111
657	0.113
658	0.111
658	0.107
659	0.135
659	0.172
660	0.18
660	0.182
661	0.183
661	0.185
661	0.188
662	0.19
662	0.192
663	0.195
663	0.196
664	0.198
664	0.2
665	0.202
665	0.204
665	0.206
666	0.208
666	0.209
667	0.211
667	0.212
668	0.214
668	0.216
669	0.218
669	0.22
669	0.222
670	0.224
670	0.225
671	0.226
671	0.228
672	0.229
672	0.23
672	0.232
673	0.233
673	0.235
674	0.236
674	0.237
675	0.238
675	0.24
676	0.243
676	0.244
676	0.246
677	0.247
677	0.249
678	0.25
678	0.251
679	0.252
679	0.254
680	0.255
680	0.256
680	0.257
681	0.257
681	0.258
682	0.259
682	0.26
683	0.261
683	0.262
684	0.263
684	0.263
684	0.263
685	0.263
685	0.264
686	0.264
686	0.263
687	0.263
687	0.262
687	0.262
688	0.261
688	0.261
689	0.262
689	0.263
690	0.263
690	0.263
691	0.263
691	0.263
691	0.263
692	0.262
692	0.262
693	0.262
693	0.261
694	0.26
694	0.259
695	0.259
695	0.259
695	0.258
696	0.257
696	0.256
697	0.256
697	0.255
698	0.254
698	0.252
698	0.251
699	0.25
699	0.248
700	0.246
700	0.244
701	0.243
701	0.241
702	0.239
702	0.238
702	0.236
703	0.234
703	0.232
704	0.231
704	0.23
705	0.229
705	0.228
705	0.227
706	0.226
706	0.225
707	0.224
707	0.223
708	0.222
708	0.221
709	0.22
709	0.218
709	0.216
710	0.214
710	0.213
711	0.212
711	0.21
712	0.208
712	0.206
713	0.204
713	0.202
713	0.201
714	0.198
714	0.196
715	0.194
715	0.192
716	0.189
716	0.187
716	0.185
717	0.183
717	0.181
718	0.179
718	0.176
719	0.175
719	0.173
720	0.171
720	0.169
720	0.167
721	0.165
721	0.164
722	0.162
722	0.16
723	0.158
723	0.157
723	0.155
724	0.154
724	0.152
725	0.15
725	0.149
726	0.147
726	0.146
727	0.145
727	0.144
727	0.142
728	0.14
728	0.139
729	0.138
729	0.137
730	0.135
730	0.133
730	0.132
731	0.13
731	0.129
732	0.128
732	0.127
733	0.126
733	0.125
734	0.124
734	0.123
734	0.123
735	0.123
735	0.122
736	0.121
736	0.12
737	0.118
737	0.118
737	0.116
738	0.114
738	0.112
739	0.11
739	0.109
740	0.107
740	0.106
741	0.105
741	0.104
741	0.102
742	0.1
742	0.099
743	0.098
743	0.098
744	0.097
744	0.096
744	0.095
745	0.093
745	0.091
746	0.09
746	0.089
747	0.088
747	0.087
748	0.086
748	0.084
748	0.083
749	0.081
749	0.081
750	0.08
750	0.079
751	0.079
751	0.078
751	0.079
752	0.078
752	0.077
753	0.077
753	0.077
754	0.077
754	0.076
754	0.077
755	0.076
755	0.076
756	0.076
756	0.074
757	0.073
757	0.073
758	0.073
758	0.072
758	0.073
759	0.072
759	0.071
760	0.07
760	0.069
761	0.068
761	0.068
761	0.067
762	0.065
762	0.065
763	0.063
763	0.061
764	0.059
764	0.057
764	0.056
765	0.055
765	0.053
766	0.052
766	0.052
767	0.051
767	0.049
768	0.047
768	0.045
768	0.045
769	0.044
769	0.043
770	0.041
770	0.04
771	0.038
771	0.036
771	0.034
772	0.033
772	0.031
773	0.03
773	0.028
774	0.026
774	0.025
775	0.023
775	0.022
775	0.02
776	0.019
776	0.018
777	0.017
777	0.016
778	0.014
778	0.013
778	0.011
779	0.01
779	0.009
780	0.007
780	0.005
781	0.003
781	0.001
781	-0.002
782	-0.005
782	-0.009
783	-0.012
783	-0.015
784	-0.019
784	-0.023
784	-0.027
785	-0.031
785	-0.036
786	-0.039
786	-0.043
787	-0.045
787	-0.049
788	-0.053
788	-0.059
788	-0.064
789	-0.071
789	-0.077
790	-0.081
790	-0.087
791	-0.094
791	-0.1
791	-0.105
792	-0.102
792	-0.096
793	-0.093
793	-0.092
794	-0.093
794	-0.096
794	-0.1
795	-0.103
795	-0.103
796	-0.104
796	-0.107
797	-0.115
797	-0.126
797	-0.133
798	-0.138
798	-0.142
799	-0.142
799	-0.142
800	-0.141
800	-0.143
801	-0.145
801	-0.146
801	-0.146
802	-0.147
802	-0.148
803	-0.148
803	-0.149
804	-0.147
804	-0.142
804	-0.136
805	-0.132
805	-0.13
806	-0.128
806	-0.128
807	-0.127
807	-0.127
807	-0.128
808	-0.128
808	-0.129
809	-0.134
809	-0.14
810	-0.144
810	-0.146
810	-0.15
811	-0.153
811	-0.153
812	-0.149
812	-0.146
813	-0.146
813	-0.147
813	-0.147
814	-0.145
814	-0.142
815	-0.136
815	-0.13
816	-0.122
816	-0.116
817	-0.113
817	-0.107
817	-0.097
818	-0.086
818	-0.075
819	-0.064
819	-0.056
820	-0.049
820	-0.043
820	-0.037
821	-0.03
821	-0.025
822	-0.02
822	-0.016
823	-0.012
823	-0.009
823	-0.006
824	-0.003
824	0
825	0.004
825	0.007
826	0.01
826	0.011
826	0.013
827	0.016
827	0.017
828	0.019
828	0.02
829	0.021
829	0.022
829	0.022
830	0.023
830	0.023
831	0.025
831	0.025
832	0.025
832	0.026
832	0.026
833	0.026
833	0.027
834	0.027
834	0.027
835	0.027
835	0.027
835	0.027
836	0.027
836	0.027
837	0.028
837	0.028
838	0.029
838	0.029
839	0.029
839	0.029
839	0.029
840	0.029
840	0.029
841	0.029
841	0.028
842	0.028
842	0.028
842	0.028
843	0.028
843	0.028
844	0.028
844	0.028
845	0.028
845	0.028
845	0.029
846	0.029
846	0.028
847	0.028
847	0.029
848	0.029
848	0.029
848	0.029
849	0.03
849	0.03
850	0.03
850	0.03
851	0.03
851	0.031
851	0.031
852	0.031
852	0.03
853	0.03
853	0.03
854	0.03
854	0.03
854	0.03
855	0.03
855	0.029
856	0.029
856	0.029
857	0.028
857	0.028
857	0.028
858	0.028
858	0.028
859	0.029
859	0.029
860	0.03
860	0.031
860	0.031
861	0.032
861	0.033
862	0.034
862	0.034
863	0.035
863	0.035
863	0.035
864	0.035
864	0.035
865	0.035
865	0.035
866	0.035
866	0.035
866	0.036
867	0.036
867	0.036
868	0.036
868	0.036
869	0.036
869	0.035
869	0.034
870	0.034
870	0.033
871	0.032
871	0.032
872	0.031
872	0.031
872	0.032
873	0.032
873	0.033
874	0.033
874	0.034
875	0.034
875	0.034
875	0.033
876	0.033
876	0.032
877	0.032
877	0.031
878	0.03
878	0.029
878	0.028
879	0.028
879	0.027
880	0.027
880	0.027
881	0.027
881	0.027
881	0.027
882	0.028
882	0.028
883	0.027
883	0.027
884	0.027
884	0.026
884	0.026
885	0.025
885	0.025
886	0.025
886	0.025
887	0.024
887	0.024
887	0.025
888	0.025
888	0.026
889	0.027
889	0.028
890	0.028
890	0.029
890	0.03
891	0.03
891	0.031
892	0.031
892	0.032
893	0.032
893	0.032
893	0.032
894	0.032
894	0.032
895	0.031
895	0.03
895	0.029
896	0.028
896	0.027
897	0.026
897	0.026
898	0.025
898	0.025
898	0.024
899	0.023
899	0.023
900	0.023
900	0.023
901	0.023
901	0.023
901	0.023
902	0.023
902	0.023
903	0.024
903	0.024
904	0.025
904	0.025
904	0.026
905	0.027
905	0.028
906	0.029
906	0.029
907	0.029
907	0.03
907	0.03
908	0.031
908	0.032
909	0.032
909	0.033
910	0.033
910	0.033
910	0.034
911	0.034
911	0.034
912	0.034
912	0.034
913	0.034
913	0.033
913	0.033
914	0.032
914	0.032
915	0.031
915	0.03
916	0.029
916	0.028
916	0.027
917	0.025
917	0.024
918	0.022
918	0.02
918	0.019
919	0.017
919	0.016
920	0.015
920	0.015
921	0.015
921	0.015
921	0.015
922	0.015
922	0.016
923	0.016
923	0.017
924	0.018
924	0.018
924	0.019
925	0.02
925	0.02
926	0.021
926	0.021
927	0.022
927	0.022
927	0.022
928	0.022
928	0.021
929	0.021
929	0.021
930	0.02
930	0.019
930	0.018
931	0.018
931	0.017
932	0.017
932	0.017
933	0.016
933	0.016
933	0.016
934	0.015
934	0.015
935	0.015
935	0.014
935	0.014
936	0.013
936	0.013
937	0.012
937	0.012
938	0.011
938	0.011
938	0.011
939	0.011
939	0.012
940	0.013
940	0.013
941	0.014
941	0.015
941	0.016
942	0.018
942	0.019
943	0.02
943	0.021
944	0.021
944	0.022
944	0.022
945	0.023
945	0.023
946	0.024
946	0.024
946	0.024
947	0.025
947	0.025
948	0.025
948	0.026
949	0.026
949	0.026
949	0.026
950	0.026
950	0.026
951	0.026
951	0.025
952	0.025
952	0.024
952	0.024
953	0.024
953	0.023
954	0.023
954	0.022
955	0.022
955	0.023
955	0.023
956	0.023
956	0.023
957	0.023
957	0.023
957	0.023
958	0.023
958	0.023
959	0.023
959	0.023
960	0.023
960	0.023
960	0.023
961	0.024
961	0.024
962	0.024
962	0.025
963	0.026
963	0.026
963	0.026
964	0.027
964	0.027
965	0.027
965	0.028
966	0.028
966	0.028
966	0.027
967	0.027
967	0.026
968	0.026
968	0.025
968	0.024
969	0.023
969	0.022
970	0.021
970	0.021
971	0.02
971	0.019
971	0.019
972	0.019
972	0.019
973	0.019
973	0.019
974	0.02
974	0.02
974	0.021
975	0.022
975	0.023
976	0.024
976	0.024
976	0.025
977	0.026
977	0.026
978	0.026
978	0.027
979	0.027
979	0.027
979	0.026
980	0.025
980	0.025
981	0.024
981	0.023
982	0.022
982	0.021
982	0.02
983	0.019
983	0.018
984	0.017
984	0.016
984	0.015
985	0.014
985	0.013
986	0.012
986	0.011
987	0.011
987	0.01
987	0.01
988	0.01
988	0.01
989	0.01
989	0.011
990	0.011
990	0.012
990	0.013
991	0.015
991	0.016
992	0.017
992	0.018
992	0.019
993	0.02
993	0.021
994	0.021
994	0.021
995	0.021
995	0.021
995	0.02
996	0.02
996	0.019
997	0.018
997	0.018
997	0.017
998	0.017
998	0.017
999	0.017
999	0.018
1000	0.018
1000	0.019
1000	0.019
1001	0.02
1001	0.021
1002	0.022
1002	0.022
1003	0.023
1003	0.023
1003	0.023
1004	0.023
1004	0.023
1005	0.023
1005	0.022
1005	0.022
1006	0.022
1006	0.021
1007	0.021
1007	0.021
1008	0.021
1008	0.021
1008	0.021
1009	0.021
1009	0.021
1010	0.021
1010	0.021
1010	0.02
1011	0.02
1011	0.02
1012	0.02
1012	0.019
1013	0.019
1013	0.018
1013	0.018
1014	0.017
1014	0.016
1015	0.015
1015	0.014
1016	0.013
1016	0.013
1016	0.012
1017	0.011
1017	0.01
1018	0.009
1018	0.009
1018	0.009
1019	0.008
1019	0.008
1020	0.008
1020	0.008
1021	0.007
1021	0.007
1021	0.008
1022	0.008
1022	0.008
1023	0.009
1023	0.009
1023	0.009
1024	0.009
1024	0.009
1025	0.009
1025	0.009
1026	0.008
1026	0.008
1026	0.008
1027	0.007
1027	0.007
1028	0.007
1028	0.006
1028	0.006
1029	0.005
1029	0.005
1030	0.005
1030	0.004
1031	0.004
1031	0.004
1031	0.004
1032	0.004
1032	0.004
1033	0.004
1033	0.004
1033	0.004
1034	0.004
1034	0.003
1035	0.003
1035	0.003
1036	0.002
1036	0.002
1036	0.002
1037	0.002
1037	0.003
1038	0.003
1038	0.003
1039	0.004
1039	0.004
1039	0.005
1040	0.006
1040	0.007
1041	0.008
1041	0.009
1041	0.009
1042	0.01
1042	0.011
1043	0.012
1043	0.012
1044	0.013
1044	0.013
1044	0.014
1045	0.014
1045	0.014
1046	0.013
1046	0.013
1046	0.013
1047	0.013
1047	0.013
1048	0.013
1048	0.013
1049	0.012
1049	0.011
1049	0.01
1050	0.01
1050	0.009
1051	0.008
1051	0.008
1051	0.007
1052	0.006
1052	0.005
1053	0.005
1053	0.004
1053	0.003
1054	0.003
1054	0.002
1055	0.001
1055	0.001
1056	-0
1056	-0.001
1056	-0.002
1057	-0.003
1057	-0.003
1058	-0.004
1058	-0.005
1058	-0.005
1059	-0.005
1059	-0.005
1060	-0.005
1060	-0.005
1061	-0.004
1061	-0.004
1061	-0.004
1062	-0.004
1062	-0.003
1063	-0.003
1063	-0.004
1063	-0.003
1064	-0.003
1064	-0.003
1065	-0.003
1065	-0.003
1066	-0.003
1066	-0.003
1066	-0.002
1067	-0.002
1067	-0.002
1068	-0.002
1068	-0.002
1068	-0.002
1069	-0.003
1069	-0.004
1070	-0.004
1070	-0.005
1071	-0.006
1071	-0.007
1071	-0.008
1072	-0.008
1072	-0.009
1073	-0.011
1073	-0.012
1073	-0.012
1074	-0.013
1074	-0.013
1075	-0.014
1075	-0.015
1076	-0.016
1076	-0.017
1076	-0.018
1077	-0.018
1077	-0.018
1078	-0.018
1078	-0.018
1078	-0.018
1079	-0.018
1079	-0.017
1080	-0.017
1080	-0.016
1080	-0.016
1081	-0.015
1081	-0.015
1082	-0.014
1082	-0.014
1083	-0.014
1083	-0.014
1083	-0.014
1084	-0.014
1084	-0.013
1085	-0.013
1085	-0.012
1085	-0.012
1086	-0.012
1086	-0.012
1087	-0.012
1087	-0.011
1088	-0.011
1088	-0.011
1088	-0.012
1089	-0.013
1089	-0.014
1090	-0.014
1090	-0.015
1090	-0.015
1091	-0.016
1091	-0.015
1092	-0.016
1092	-0.016
1092	-0.016
1093	-0.016
1093	-0.015
1094	-0.015
1094	-0.016
1095	-0.016
1095	-0.016
1095	-0.016
1096	-0.015
1096	-0.015
1097	-0.014
1097	-0.014
1097	-0.013
1098	-0.013
1098	-0.012
1099	-0.01
1099	-0.009
1100	-0.008
1100	-0.007
1100	-0.007
1101	-0.006
1101	-0.005
1102	-0.003
1102	-0.003
1102	-0.002
1103	-0.001
1103	-0
1104	0.002
1104	0.004
1104	0.006
1105	0.008
1105	0.01
1106	0.011
1106	0.013
1107	0.015
1107	0.018
1107	0.023
1108	0.041
1108	0.065
1109	0.096
1109	0.141
1109	0.171
1110	0.222
1110	0.309
1111	0.526
1111	-0
