Data from 17c-2a_Absorbance__1921__01922.txt Node

Date: Fri Jan 26 10:51:32 CET 2024
User: Marek
Spectrometer: MAYP115816
Trigger mode: 0
Integration Time (sec): 2.000000E-1
Scans to average: 10
Electric dark correction enabled: true
Nonlinearity correction enabled: true
Boxcar width: 5
XAxis mode: Wavelengths
Number of Pixels in Spectrum: 2068
>>>>>Begin Spectral Data<<<<<
199	-1.485
199	-1.347
200	-1.2
200	-1.09
201	-1.021
201	-0.978
202	-0.914
202	-0.863
203	-0.822
203	-0.787
204	-0.761
204	-0.738
205	-0.718
205	-0.708
205	-0.706
206	-0.701
206	-0.698
207	-0.695
207	-0.695
208	-0.694
208	-0.692
209	-0.689
209	-0.687
210	-0.688
210	-0.689
211	-0.689
211	-0.691
212	-0.691
212	-0.69
213	-0.689
213	-0.685
213	-0.686
214	-0.684
214	-0.682
215	-0.677
215	-0.674
216	-0.67
216	-0.67
217	-0.666
217	-0.665
218	-0.661
218	-0.66
219	-0.655
219	-0.655
220	-0.653
220	-0.655
221	-0.653
221	-0.652
221	-0.648
222	-0.642
222	-0.638
223	-0.634
223	-0.63
224	-0.626
224	-0.619
225	-0.612
225	-0.604
226	-0.594
226	-0.583
227	-0.573
227	-0.563
228	-0.547
228	-0.531
229	-0.511
229	-0.488
229	-0.465
230	-0.438
230	-0.408
231	-0.377
231	-0.342
232	-0.308
232	-0.271
233	-0.231
233	-0.191
234	-0.153
234	-0.114
235	-0.076
235	-0.041
236	-0.006
236	0.027
236	0.059
237	0.089
237	0.116
238	0.14
238	0.163
239	0.184
239	0.203
240	0.22
240	0.236
241	0.25
241	0.263
242	0.274
242	0.285
243	0.295
243	0.303
243	0.311
244	0.318
244	0.324
245	0.33
245	0.336
246	0.341
246	0.346
247	0.351
247	0.355
248	0.358
248	0.363
249	0.366
249	0.369
250	0.373
250	0.376
250	0.379
251	0.382
251	0.384
252	0.387
252	0.389
253	0.392
253	0.393
254	0.395
254	0.397
255	0.399
255	0.401
256	0.403
256	0.404
257	0.405
257	0.406
258	0.407
258	0.408
258	0.409
259	0.409
259	0.41
260	0.41
260	0.41
261	0.41
261	0.411
262	0.411
262	0.41
263	0.41
263	0.41
264	0.41
264	0.409
265	0.409
265	0.408
265	0.407
266	0.406
266	0.405
267	0.404
267	0.403
268	0.401
268	0.4
269	0.398
269	0.397
270	0.395
270	0.393
271	0.391
271	0.39
272	0.388
272	0.386
272	0.384
273	0.382
273	0.38
274	0.378
274	0.376
275	0.374
275	0.371
276	0.369
276	0.367
277	0.365
277	0.362
278	0.36
278	0.358
278	0.355
279	0.353
279	0.35
280	0.348
280	0.345
281	0.343
281	0.341
282	0.338
282	0.336
283	0.335
283	0.333
284	0.331
284	0.329
285	0.327
285	0.325
285	0.323
286	0.321
286	0.319
287	0.317
287	0.316
288	0.314
288	0.312
289	0.311
289	0.309
290	0.307
290	0.306
291	0.304
291	0.303
292	0.302
292	0.3
292	0.299
293	0.297
293	0.296
294	0.295
294	0.293
295	0.292
295	0.291
296	0.29
296	0.289
297	0.288
297	0.287
298	0.286
298	0.285
298	0.285
299	0.284
299	0.283
300	0.282
300	0.281
301	0.281
301	0.28
302	0.279
302	0.278
303	0.278
303	0.277
304	0.276
304	0.275
305	0.274
305	0.274
305	0.273
306	0.272
306	0.271
307	0.271
307	0.27
308	0.269
308	0.268
309	0.267
309	0.267
310	0.266
310	0.265
311	0.265
311	0.264
311	0.263
312	0.263
312	0.262
313	0.261
313	0.261
314	0.26
314	0.259
315	0.259
315	0.258
316	0.257
316	0.256
317	0.256
317	0.255
318	0.254
318	0.254
318	0.253
319	0.252
319	0.252
320	0.251
320	0.251
321	0.25
321	0.249
322	0.248
322	0.248
323	0.247
323	0.246
324	0.245
324	0.245
324	0.244
325	0.243
325	0.243
326	0.242
326	0.241
327	0.241
327	0.24
328	0.239
328	0.239
329	0.238
329	0.238
330	0.237
330	0.236
330	0.235
331	0.235
331	0.234
332	0.234
332	0.233
333	0.233
333	0.232
334	0.231
334	0.231
335	0.23
335	0.23
336	0.229
336	0.229
336	0.228
337	0.228
337	0.227
338	0.226
338	0.226
339	0.225
339	0.225
340	0.224
340	0.224
341	0.223
341	0.223
342	0.223
342	0.222
342	0.222
343	0.222
343	0.221
344	0.221
344	0.221
345	0.22
345	0.22
346	0.22
346	0.219
347	0.219
347	0.218
348	0.218
348	0.217
348	0.217
349	0.217
349	0.216
350	0.216
350	0.216
351	0.215
351	0.215
352	0.215
352	0.215
353	0.214
353	0.214
354	0.214
354	0.213
354	0.213
355	0.213
355	0.213
356	0.212
356	0.212
357	0.212
357	0.211
358	0.211
358	0.211
359	0.211
359	0.212
360	0.212
360	0.212
360	0.211
361	0.212
361	0.212
362	0.212
362	0.212
363	0.211
363	0.211
364	0.211
364	0.211
365	0.211
365	0.21
366	0.21
366	0.21
366	0.21
367	0.21
367	0.21
368	0.209
368	0.209
369	0.209
369	0.209
370	0.209
370	0.208
371	0.208
371	0.208
372	0.208
372	0.207
372	0.208
373	0.207
373	0.207
374	0.207
374	0.207
375	0.207
375	0.207
376	0.207
376	0.207
377	0.207
377	0.207
378	0.207
378	0.207
378	0.207
379	0.207
379	0.207
380	0.207
380	0.207
381	0.206
381	0.206
382	0.206
382	0.206
383	0.205
383	0.205
383	0.205
384	0.205
384	0.204
385	0.204
385	0.204
386	0.204
386	0.204
387	0.204
387	0.204
388	0.203
388	0.203
389	0.203
389	0.203
389	0.203
390	0.203
390	0.203
391	0.203
391	0.203
392	0.203
392	0.203
393	0.203
393	0.203
394	0.203
394	0.203
394	0.202
395	0.202
395	0.202
396	0.201
396	0.201
397	0.201
397	0.201
398	0.2
398	0.2
399	0.2
399	0.2
400	0.2
400	0.199
400	0.199
401	0.199
401	0.198
402	0.198
402	0.198
403	0.198
403	0.197
404	0.197
404	0.197
405	0.197
405	0.197
405	0.197
406	0.197
406	0.197
407	0.197
407	0.196
408	0.196
408	0.196
409	0.196
409	0.196
410	0.196
410	0.196
411	0.195
411	0.195
411	0.195
412	0.195
412	0.195
413	0.195
413	0.195
414	0.195
414	0.194
415	0.194
415	0.194
416	0.193
416	0.193
416	0.193
417	0.193
417	0.193
418	0.193
418	0.193
419	0.193
419	0.193
420	0.193
420	0.194
421	0.194
421	0.194
421	0.194
422	0.194
422	0.194
423	0.194
423	0.194
424	0.193
424	0.193
425	0.193
425	0.193
426	0.193
426	0.193
427	0.193
427	0.193
427	0.193
428	0.193
428	0.193
429	0.193
429	0.193
430	0.193
430	0.193
431	0.193
431	0.192
432	0.192
432	0.192
432	0.191
433	0.19
433	0.19
434	0.19
434	0.19
435	0.191
435	0.191
436	0.191
436	0.191
437	0.191
437	0.191
437	0.191
438	0.191
438	0.191
439	0.191
439	0.19
440	0.19
440	0.19
441	0.19
441	0.189
442	0.189
442	0.19
442	0.19
443	0.19
443	0.19
444	0.19
444	0.19
445	0.19
445	0.191
446	0.19
446	0.19
447	0.19
447	0.19
447	0.19
448	0.19
448	0.19
449	0.19
449	0.19
450	0.19
450	0.19
451	0.19
451	0.19
452	0.19
452	0.19
452	0.19
453	0.19
453	0.19
454	0.19
454	0.19
455	0.189
455	0.19
456	0.19
456	0.189
457	0.189
457	0.189
458	0.189
458	0.19
458	0.19
459	0.19
459	0.191
460	0.19
460	0.19
461	0.19
461	0.19
462	0.19
462	0.191
463	0.191
463	0.192
463	0.192
464	0.192
464	0.192
465	0.193
465	0.193
466	0.193
466	0.194
467	0.194
467	0.194
467	0.193
468	0.193
468	0.192
469	0.192
469	0.192
470	0.192
470	0.192
471	0.192
471	0.192
472	0.192
472	0.193
472	0.193
473	0.194
473	0.194
474	0.195
474	0.196
475	0.196
475	0.197
476	0.198
476	0.198
477	0.199
477	0.2
477	0.2
478	0.201
478	0.201
479	0.202
479	0.203
480	0.203
480	0.204
481	0.204
481	0.205
482	0.206
482	0.207
482	0.208
483	0.21
483	0.212
484	0.213
484	0.214
485	0.215
485	0.217
486	0.217
486	0.218
487	0.219
487	0.22
487	0.22
488	0.221
488	0.22
489	0.22
489	0.221
490	0.222
490	0.222
491	0.224
491	0.225
492	0.226
492	0.227
492	0.228
493	0.228
493	0.23
494	0.232
494	0.234
495	0.236
495	0.237
496	0.238
496	0.239
496	0.241
497	0.242
497	0.244
498	0.245
498	0.246
499	0.248
499	0.249
500	0.251
500	0.252
501	0.254
501	0.256
501	0.257
502	0.259
502	0.261
503	0.263
503	0.264
504	0.265
504	0.266
505	0.268
505	0.269
506	0.27
506	0.272
506	0.273
507	0.274
507	0.275
508	0.276
508	0.278
509	0.279
509	0.281
510	0.282
510	0.284
511	0.285
511	0.286
511	0.287
512	0.288
512	0.289
513	0.29
513	0.29
514	0.29
514	0.291
515	0.291
515	0.292
515	0.292
516	0.293
516	0.294
517	0.295
517	0.295
518	0.296
518	0.296
519	0.296
519	0.296
520	0.295
520	0.295
520	0.295
521	0.294
521	0.293
522	0.292
522	0.291
523	0.291
523	0.291
524	0.292
524	0.292
524	0.293
525	0.293
525	0.294
526	0.295
526	0.296
527	0.297
527	0.297
528	0.297
528	0.297
529	0.297
529	0.296
529	0.296
530	0.296
530	0.295
531	0.295
531	0.294
532	0.292
532	0.291
533	0.291
533	0.289
533	0.288
534	0.287
534	0.285
535	0.284
535	0.283
536	0.281
536	0.28
537	0.278
537	0.277
538	0.276
538	0.274
538	0.273
539	0.271
539	0.27
540	0.268
540	0.266
541	0.264
541	0.262
542	0.26
542	0.258
542	0.256
543	0.254
543	0.252
544	0.25
544	0.248
545	0.247
545	0.245
546	0.244
546	0.242
547	0.241
547	0.238
547	0.236
548	0.234
548	0.233
549	0.231
549	0.229
550	0.227
550	0.225
551	0.222
551	0.22
551	0.217
552	0.216
552	0.214
553	0.212
553	0.211
554	0.209
554	0.206
555	0.204
555	0.202
556	0.199
556	0.196
556	0.193
557	0.191
557	0.188
558	0.186
558	0.183
559	0.181
559	0.179
560	0.177
560	0.175
560	0.173
561	0.172
561	0.171
562	0.17
562	0.169
563	0.167
563	0.165
564	0.163
564	0.161
564	0.159
565	0.157
565	0.156
566	0.154
566	0.152
567	0.151
567	0.15
568	0.149
568	0.148
568	0.147
569	0.147
569	0.147
570	0.146
570	0.145
571	0.145
571	0.144
572	0.143
572	0.143
573	0.141
573	0.14
573	0.138
574	0.137
574	0.136
575	0.135
575	0.136
576	0.135
576	0.133
577	0.131
577	0.13
577	0.13
578	0.129
578	0.128
579	0.129
579	0.129
580	0.127
580	0.124
581	0.121
581	0.12
581	0.119
582	0.119
582	0.118
583	0.118
583	0.117
584	0.114
584	0.111
585	0.11
585	0.111
585	0.111
586	0.11
586	0.11
587	0.108
587	0.106
588	0.104
588	0.102
589	0.102
589	0.101
590	0.1
590	0.1
590	0.101
591	0.101
591	0.101
592	0.1
592	0.099
593	0.099
593	0.099
594	0.099
594	0.098
594	0.097
595	0.097
595	0.095
596	0.094
596	0.095
597	0.097
597	0.098
598	0.098
598	0.098
598	0.098
599	0.099
599	0.098
600	0.097
600	0.096
601	0.096
601	0.095
602	0.093
602	0.092
602	0.091
603	0.091
603	0.091
604	0.091
604	0.092
605	0.092
605	0.093
606	0.093
606	0.092
606	0.091
607	0.09
607	0.09
608	0.09
608	0.089
609	0.088
609	0.088
610	0.087
610	0.087
610	0.087
611	0.088
611	0.09
612	0.091
612	0.092
613	0.094
613	0.095
614	0.096
614	0.096
614	0.096
615	0.096
615	0.096
616	0.097
616	0.097
617	0.096
617	0.096
618	0.095
618	0.095
618	0.095
619	0.095
619	0.096
620	0.097
620	0.097
621	0.097
621	0.097
622	0.098
622	0.098
622	0.098
623	0.098
623	0.099
624	0.099
624	0.099
625	0.099
625	0.1
626	0.1
626	0.101
626	0.102
627	0.103
627	0.104
628	0.104
628	0.105
629	0.105
629	0.106
630	0.106
630	0.106
630	0.107
631	0.107
631	0.107
632	0.107
632	0.108
633	0.109
633	0.109
634	0.111
634	0.113
634	0.114
635	0.116
635	0.117
636	0.118
636	0.119
637	0.12
637	0.12
638	0.122
638	0.123
638	0.124
639	0.124
639	0.125
640	0.126
640	0.128
641	0.129
641	0.131
642	0.133
642	0.135
642	0.137
643	0.138
643	0.14
644	0.142
644	0.144
645	0.145
645	0.147
646	0.15
646	0.152
646	0.155
647	0.158
647	0.16
648	0.162
648	0.165
649	0.168
649	0.17
650	0.173
650	0.176
650	0.179
651	0.181
651	0.183
652	0.185
652	0.187
653	0.189
653	0.196
653	0.202
654	0.161
654	0.13
655	0.132
655	0.134
656	0.136
656	0.137
657	0.139
657	0.141
657	0.143
658	0.141
658	0.134
659	0.17
659	0.221
660	0.229
660	0.232
661	0.234
661	0.236
661	0.239
662	0.242
662	0.245
663	0.247
663	0.25
664	0.252
664	0.254
665	0.257
665	0.26
665	0.262
666	0.265
666	0.267
667	0.269
667	0.272
668	0.274
668	0.277
669	0.279
669	0.282
669	0.285
670	0.288
670	0.29
671	0.292
671	0.294
672	0.296
672	0.297
672	0.299
673	0.3
673	0.302
674	0.304
674	0.305
675	0.306
675	0.308
676	0.311
676	0.313
676	0.314
677	0.317
677	0.319
678	0.32
678	0.321
679	0.322
679	0.324
680	0.325
680	0.326
680	0.327
681	0.328
681	0.329
682	0.33
682	0.331
683	0.333
683	0.335
684	0.336
684	0.336
684	0.336
685	0.336
685	0.337
686	0.337
686	0.337
687	0.336
687	0.336
687	0.336
688	0.335
688	0.335
689	0.335
689	0.336
690	0.336
690	0.336
691	0.336
691	0.337
691	0.336
692	0.335
692	0.335
693	0.334
693	0.334
694	0.333
694	0.331
695	0.33
695	0.33
695	0.329
696	0.328
696	0.327
697	0.326
697	0.325
698	0.324
698	0.322
698	0.321
699	0.319
699	0.316
700	0.313
700	0.311
701	0.309
701	0.307
702	0.305
702	0.302
702	0.3
703	0.297
703	0.295
704	0.293
704	0.292
705	0.291
705	0.29
705	0.288
706	0.287
706	0.286
707	0.284
707	0.283
708	0.281
708	0.28
709	0.279
709	0.277
709	0.274
710	0.272
710	0.27
711	0.268
711	0.266
712	0.263
712	0.261
713	0.259
713	0.257
713	0.255
714	0.252
714	0.249
715	0.247
715	0.244
716	0.241
716	0.238
716	0.235
717	0.232
717	0.23
718	0.226
718	0.224
719	0.222
719	0.22
720	0.217
720	0.215
720	0.213
721	0.21
721	0.208
722	0.206
722	0.203
723	0.201
723	0.199
723	0.197
724	0.195
724	0.193
725	0.191
725	0.189
726	0.187
726	0.185
727	0.183
727	0.181
727	0.179
728	0.177
728	0.175
729	0.174
729	0.172
730	0.17
730	0.168
730	0.166
731	0.165
731	0.163
732	0.162
732	0.161
733	0.159
733	0.158
734	0.157
734	0.155
734	0.154
735	0.154
735	0.152
736	0.151
736	0.149
737	0.147
737	0.146
737	0.144
738	0.141
738	0.138
739	0.136
739	0.134
740	0.132
740	0.13
741	0.129
741	0.127
741	0.125
742	0.123
742	0.121
743	0.12
743	0.119
744	0.118
744	0.116
744	0.115
745	0.113
745	0.111
746	0.109
746	0.108
747	0.106
747	0.105
748	0.104
748	0.103
748	0.101
749	0.1
749	0.099
750	0.098
750	0.097
751	0.097
751	0.096
751	0.096
752	0.095
752	0.094
753	0.093
753	0.092
754	0.091
754	0.09
754	0.09
755	0.09
755	0.089
756	0.088
756	0.087
757	0.086
757	0.086
758	0.086
758	0.086
758	0.086
759	0.086
759	0.084
760	0.083
760	0.081
761	0.08
761	0.079
761	0.077
762	0.075
762	0.074
763	0.072
763	0.069
764	0.066
764	0.064
764	0.062
765	0.06
765	0.059
766	0.057
766	0.057
767	0.056
767	0.053
768	0.051
768	0.05
768	0.049
769	0.049
769	0.048
770	0.047
770	0.046
771	0.044
771	0.041
771	0.039
772	0.038
772	0.036
773	0.034
773	0.032
774	0.029
774	0.027
775	0.025
775	0.023
775	0.021
776	0.019
776	0.017
777	0.015
777	0.013
778	0.011
778	0.008
778	0.005
779	0.003
779	0.002
780	-0.001
780	-0.004
781	-0.007
781	-0.01
781	-0.013
782	-0.017
782	-0.022
783	-0.026
783	-0.029
784	-0.034
784	-0.04
784	-0.045
785	-0.05
785	-0.056
786	-0.06
786	-0.065
787	-0.068
787	-0.072
788	-0.077
788	-0.084
788	-0.091
789	-0.098
789	-0.102
790	-0.104
790	-0.108
791	-0.112
791	-0.116
791	-0.119
792	-0.114
792	-0.104
793	-0.099
793	-0.095
794	-0.093
794	-0.096
794	-0.1
795	-0.102
795	-0.103
796	-0.103
796	-0.106
797	-0.115
797	-0.126
797	-0.132
798	-0.138
798	-0.141
799	-0.142
799	-0.141
800	-0.14
800	-0.142
801	-0.145
801	-0.146
801	-0.145
802	-0.146
802	-0.147
803	-0.148
803	-0.148
804	-0.147
804	-0.142
804	-0.135
805	-0.131
805	-0.13
806	-0.128
806	-0.127
807	-0.127
807	-0.127
807	-0.127
808	-0.127
808	-0.128
809	-0.133
809	-0.139
810	-0.143
810	-0.146
810	-0.149
811	-0.152
811	-0.152
812	-0.148
812	-0.145
813	-0.145
813	-0.146
813	-0.147
814	-0.149
814	-0.149
815	-0.147
815	-0.143
816	-0.14
816	-0.137
817	-0.136
817	-0.134
817	-0.127
818	-0.118
818	-0.107
819	-0.096
819	-0.086
820	-0.077
820	-0.068
820	-0.06
821	-0.052
821	-0.045
822	-0.038
822	-0.032
823	-0.027
823	-0.024
823	-0.02
824	-0.016
824	-0.012
825	-0.008
825	-0.004
826	-0
826	0.002
826	0.005
827	0.007
827	0.009
828	0.011
828	0.013
829	0.014
829	0.016
829	0.016
830	0.017
830	0.018
831	0.02
831	0.021
832	0.021
832	0.022
832	0.022
833	0.023
833	0.023
834	0.024
834	0.024
835	0.024
835	0.024
835	0.024
836	0.024
836	0.025
837	0.025
837	0.026
838	0.026
838	0.027
839	0.027
839	0.027
839	0.027
840	0.026
840	0.026
841	0.026
841	0.025
842	0.025
842	0.025
842	0.024
843	0.023
843	0.023
844	0.023
844	0.023
845	0.023
845	0.023
845	0.023
846	0.023
846	0.023
847	0.024
847	0.025
848	0.025
848	0.026
848	0.027
849	0.028
849	0.028
850	0.029
850	0.029
851	0.029
851	0.03
851	0.03
852	0.029
852	0.029
853	0.029
853	0.028
854	0.028
854	0.028
854	0.027
855	0.027
855	0.027
856	0.027
856	0.027
857	0.026
857	0.026
857	0.026
858	0.026
858	0.026
859	0.026
859	0.027
860	0.027
860	0.028
860	0.028
861	0.029
861	0.03
862	0.031
862	0.031
863	0.032
863	0.032
863	0.032
864	0.032
864	0.032
865	0.032
865	0.032
866	0.032
866	0.032
866	0.032
867	0.032
867	0.033
868	0.033
868	0.033
869	0.033
869	0.032
869	0.032
870	0.031
870	0.031
871	0.031
871	0.03
872	0.03
872	0.03
872	0.03
873	0.031
873	0.031
874	0.031
874	0.031
875	0.032
875	0.031
875	0.031
876	0.03
876	0.03
877	0.029
877	0.028
878	0.027
878	0.026
878	0.026
879	0.025
879	0.025
880	0.024
880	0.024
881	0.024
881	0.024
881	0.024
882	0.024
882	0.024
883	0.023
883	0.023
884	0.022
884	0.022
884	0.021
885	0.021
885	0.021
886	0.022
886	0.022
887	0.022
887	0.023
887	0.023
888	0.024
888	0.025
889	0.026
889	0.026
890	0.027
890	0.027
890	0.027
891	0.027
891	0.028
892	0.028
892	0.028
893	0.028
893	0.028
893	0.028
894	0.028
894	0.028
895	0.028
895	0.027
895	0.027
896	0.026
896	0.026
897	0.026
897	0.026
898	0.026
898	0.026
898	0.026
899	0.026
899	0.026
900	0.026
900	0.026
901	0.026
901	0.026
901	0.026
902	0.026
902	0.026
903	0.026
903	0.026
904	0.027
904	0.027
904	0.028
905	0.029
905	0.029
906	0.03
906	0.03
907	0.03
907	0.03
907	0.03
908	0.031
908	0.031
909	0.032
909	0.032
910	0.032
910	0.033
910	0.033
911	0.033
911	0.033
912	0.033
912	0.033
913	0.033
913	0.032
913	0.032
914	0.031
914	0.031
915	0.03
915	0.029
916	0.028
916	0.027
916	0.027
917	0.026
917	0.024
918	0.023
918	0.022
918	0.021
919	0.02
919	0.019
920	0.019
920	0.019
921	0.018
921	0.018
921	0.018
922	0.019
922	0.019
923	0.019
923	0.02
924	0.02
924	0.02
924	0.021
925	0.021
925	0.021
926	0.022
926	0.022
927	0.022
927	0.022
927	0.022
928	0.022
928	0.022
929	0.022
929	0.022
930	0.022
930	0.021
930	0.021
931	0.02
931	0.02
932	0.02
932	0.02
933	0.02
933	0.02
933	0.019
934	0.019
934	0.019
935	0.018
935	0.018
935	0.017
936	0.017
936	0.016
937	0.016
937	0.016
938	0.015
938	0.015
938	0.015
939	0.016
939	0.016
940	0.017
940	0.018
941	0.019
941	0.02
941	0.021
942	0.022
942	0.023
943	0.024
943	0.024
944	0.025
944	0.025
944	0.026
945	0.026
945	0.026
946	0.026
946	0.027
946	0.027
947	0.027
947	0.027
948	0.028
948	0.028
949	0.028
949	0.028
949	0.029
950	0.029
950	0.029
951	0.029
951	0.028
952	0.028
952	0.027
952	0.027
953	0.026
953	0.026
954	0.025
954	0.025
955	0.024
955	0.024
955	0.024
956	0.025
956	0.025
957	0.024
957	0.024
957	0.025
958	0.025
958	0.025
959	0.025
959	0.025
960	0.025
960	0.025
960	0.025
961	0.025
961	0.025
962	0.025
962	0.025
963	0.026
963	0.026
963	0.026
964	0.026
964	0.026
965	0.026
965	0.027
966	0.027
966	0.027
966	0.027
967	0.026
967	0.026
968	0.025
968	0.024
968	0.023
969	0.022
969	0.022
970	0.021
970	0.02
971	0.019
971	0.019
971	0.018
972	0.018
972	0.019
973	0.019
973	0.019
974	0.019
974	0.02
974	0.021
975	0.022
975	0.023
976	0.024
976	0.025
976	0.025
977	0.026
977	0.027
978	0.027
978	0.028
979	0.028
979	0.028
979	0.028
980	0.027
980	0.027
981	0.026
981	0.025
982	0.024
982	0.024
982	0.023
983	0.021
983	0.02
984	0.019
984	0.018
984	0.017
985	0.016
985	0.015
986	0.013
986	0.012
987	0.012
987	0.011
987	0.011
988	0.011
988	0.011
989	0.01
989	0.011
990	0.011
990	0.012
990	0.013
991	0.014
991	0.015
992	0.016
992	0.017
992	0.018
993	0.019
993	0.02
994	0.02
994	0.02
995	0.02
995	0.02
995	0.019
996	0.018
996	0.017
997	0.016
997	0.015
997	0.014
998	0.014
998	0.014
999	0.014
999	0.014
1000	0.015
1000	0.015
1000	0.016
1001	0.016
1001	0.017
1002	0.018
1002	0.018
1003	0.019
1003	0.019
1003	0.019
1004	0.019
1004	0.019
1005	0.019
1005	0.019
1005	0.018
1006	0.018
1006	0.018
1007	0.018
1007	0.018
1008	0.018
1008	0.018
1008	0.018
1009	0.018
1009	0.018
1010	0.018
1010	0.018
1010	0.018
1011	0.019
1011	0.019
1012	0.019
1012	0.018
1013	0.019
1013	0.018
1013	0.018
1014	0.017
1014	0.016
1015	0.015
1015	0.014
1016	0.014
1016	0.013
1016	0.011
1017	0.011
1017	0.01
1018	0.009
1018	0.008
1018	0.008
1019	0.008
1019	0.007
1020	0.007
1020	0.008
1021	0.008
1021	0.008
1021	0.008
1022	0.009
1022	0.01
1023	0.01
1023	0.011
1023	0.011
1024	0.012
1024	0.012
1025	0.011
1025	0.011
1026	0.011
1026	0.011
1026	0.01
1027	0.01
1027	0.009
1028	0.008
1028	0.008
1028	0.008
1029	0.007
1029	0.007
1030	0.006
1030	0.006
1031	0.006
1031	0.006
1031	0.006
1032	0.006
1032	0.006
1033	0.006
1033	0.006
1033	0.006
1034	0.006
1034	0.006
1035	0.006
1035	0.005
1036	0.005
1036	0.005
1036	0.005
1037	0.005
1037	0.006
1038	0.006
1038	0.006
1039	0.007
1039	0.007
1039	0.008
1040	0.008
1040	0.009
1041	0.01
1041	0.01
1041	0.011
1042	0.011
1042	0.011
1043	0.012
1043	0.013
1044	0.013
1044	0.014
1044	0.014
1045	0.014
1045	0.014
1046	0.014
1046	0.014
1046	0.015
1047	0.015
1047	0.015
1048	0.015
1048	0.015
1049	0.014
1049	0.014
1049	0.013
1050	0.012
1050	0.011
1051	0.01
1051	0.01
1051	0.009
1052	0.008
1052	0.007
1053	0.006
1053	0.005
1053	0.005
1054	0.004
1054	0.004
1055	0.003
1055	0.002
1056	0.001
1056	-0
1056	-0.001
1057	-0.002
1057	-0.003
1058	-0.004
1058	-0.005
1058	-0.005
1059	-0.005
1059	-0.006
1060	-0.006
1060	-0.006
1061	-0.005
1061	-0.005
1061	-0.005
1062	-0.005
1062	-0.005
1063	-0.005
1063	-0.005
1063	-0.005
1064	-0.005
1064	-0.004
1065	-0.004
1065	-0.004
1066	-0.004
1066	-0.003
1066	-0.002
1067	-0.002
1067	-0.001
1068	-0.001
1068	-0.001
1068	-0.002
1069	-0.002
1069	-0.003
1070	-0.003
1070	-0.004
1071	-0.005
1071	-0.005
1071	-0.006
1072	-0.007
1072	-0.008
1073	-0.009
1073	-0.009
1073	-0.01
1074	-0.011
1074	-0.011
1075	-0.012
1075	-0.013
1076	-0.014
1076	-0.015
1076	-0.016
1077	-0.017
1077	-0.016
1078	-0.017
1078	-0.017
1078	-0.017
1079	-0.017
1079	-0.016
1080	-0.015
1080	-0.014
1080	-0.013
1081	-0.012
1081	-0.011
1082	-0.01
1082	-0.01
1083	-0.009
1083	-0.009
1083	-0.008
1084	-0.008
1084	-0.007
1085	-0.006
1085	-0.006
1085	-0.005
1086	-0.005
1086	-0.006
1087	-0.005
1087	-0.005
1088	-0.005
1088	-0.006
1088	-0.006
1089	-0.007
1089	-0.008
1090	-0.008
1090	-0.008
1090	-0.009
1091	-0.009
1091	-0.009
1092	-0.009
1092	-0.009
1092	-0.008
1093	-0.008
1093	-0.007
1094	-0.006
1094	-0.006
1095	-0.007
1095	-0.006
1095	-0.004
1096	-0.004
1096	-0.003
1097	-0.001
1097	-0
1097	0.001
1098	0.003
1098	0.004
1099	0.005
1099	0.008
1100	0.009
1100	0.011
1100	0.012
1101	0.014
1101	0.016
1102	0.017
1102	0.019
1102	0.021
1103	0.025
1103	0.028
1104	0.031
1104	0.035
1104	0.041
1105	0.045
1105	0.048
1106	0.051
1106	0.057
1107	0.06
1107	0.068
1107	0.075
1108	0.106
1108	0.149
1109	0.207
1109	0.295
1109	0.361
1110	0.495
1110	0.816
1111	-0
1111	-0
