Data from 17c-2a_Absorbance__1898__01899.txt Node

Date: Fri Jan 26 10:50:46 CET 2024
User: Marek
Spectrometer: MAYP115816
Trigger mode: 0
Integration Time (sec): 2.000000E-1
Scans to average: 10
Electric dark correction enabled: true
Nonlinearity correction enabled: true
Boxcar width: 5
XAxis mode: Wavelengths
Number of Pixels in Spectrum: 2068
>>>>>Begin Spectral Data<<<<<
199	-1.486
199	-1.35
200	-1.202
200	-1.092
201	-1.022
201	-0.979
202	-0.914
202	-0.864
203	-0.823
203	-0.788
204	-0.762
204	-0.739
205	-0.718
205	-0.709
205	-0.707
206	-0.703
206	-0.7
207	-0.697
207	-0.697
208	-0.696
208	-0.694
209	-0.691
209	-0.69
210	-0.69
210	-0.69
211	-0.69
211	-0.692
212	-0.692
212	-0.692
213	-0.689
213	-0.685
213	-0.685
214	-0.683
214	-0.68
215	-0.674
215	-0.673
216	-0.67
216	-0.669
217	-0.665
217	-0.664
218	-0.661
218	-0.66
219	-0.656
219	-0.656
220	-0.655
220	-0.657
221	-0.654
221	-0.653
221	-0.648
222	-0.643
222	-0.639
223	-0.634
223	-0.631
224	-0.626
224	-0.619
225	-0.611
225	-0.603
226	-0.594
226	-0.583
227	-0.572
227	-0.562
228	-0.546
228	-0.531
229	-0.511
229	-0.49
229	-0.467
230	-0.44
230	-0.41
231	-0.379
231	-0.345
232	-0.31
232	-0.272
233	-0.233
233	-0.194
234	-0.154
234	-0.116
235	-0.077
235	-0.041
236	-0.006
236	0.027
236	0.058
237	0.088
237	0.115
238	0.14
238	0.163
239	0.184
239	0.203
240	0.22
240	0.235
241	0.249
241	0.261
242	0.273
242	0.283
243	0.293
243	0.302
243	0.309
244	0.316
244	0.323
245	0.328
245	0.334
246	0.34
246	0.345
247	0.349
247	0.354
248	0.358
248	0.362
249	0.365
249	0.368
250	0.372
250	0.375
250	0.378
251	0.381
251	0.383
252	0.386
252	0.389
253	0.391
253	0.393
254	0.395
254	0.397
255	0.399
255	0.401
256	0.402
256	0.403
257	0.405
257	0.405
258	0.406
258	0.407
258	0.408
259	0.409
259	0.409
260	0.41
260	0.41
261	0.41
261	0.41
262	0.41
262	0.41
263	0.41
263	0.409
264	0.409
264	0.408
265	0.408
265	0.407
265	0.406
266	0.405
266	0.404
267	0.402
267	0.401
268	0.4
268	0.398
269	0.397
269	0.395
270	0.393
270	0.392
271	0.39
271	0.388
272	0.386
272	0.385
272	0.383
273	0.381
273	0.379
274	0.377
274	0.375
275	0.373
275	0.371
276	0.369
276	0.366
277	0.364
277	0.362
278	0.359
278	0.357
278	0.354
279	0.351
279	0.349
280	0.346
280	0.344
281	0.342
281	0.339
282	0.337
282	0.335
283	0.333
283	0.331
284	0.33
284	0.328
285	0.326
285	0.324
285	0.322
286	0.32
286	0.319
287	0.317
287	0.315
288	0.313
288	0.311
289	0.31
289	0.308
290	0.306
290	0.305
291	0.304
291	0.302
292	0.301
292	0.299
292	0.298
293	0.297
293	0.295
294	0.294
294	0.293
295	0.292
295	0.29
296	0.289
296	0.288
297	0.287
297	0.287
298	0.286
298	0.285
298	0.284
299	0.283
299	0.283
300	0.282
300	0.281
301	0.28
301	0.279
302	0.278
302	0.278
303	0.277
303	0.276
304	0.275
304	0.274
305	0.274
305	0.273
305	0.272
306	0.271
306	0.27
307	0.27
307	0.269
308	0.268
308	0.267
309	0.267
309	0.266
310	0.265
310	0.264
311	0.264
311	0.263
311	0.263
312	0.262
312	0.262
313	0.261
313	0.26
314	0.259
314	0.259
315	0.258
315	0.257
316	0.257
316	0.256
317	0.255
317	0.254
318	0.254
318	0.253
318	0.252
319	0.252
319	0.251
320	0.251
320	0.25
321	0.249
321	0.248
322	0.247
322	0.247
323	0.246
323	0.245
324	0.244
324	0.244
324	0.243
325	0.242
325	0.242
326	0.241
326	0.241
327	0.24
327	0.239
328	0.238
328	0.238
329	0.237
329	0.236
330	0.236
330	0.235
330	0.235
331	0.234
331	0.233
332	0.233
332	0.232
333	0.232
333	0.231
334	0.231
334	0.23
335	0.23
335	0.229
336	0.228
336	0.228
336	0.227
337	0.227
337	0.227
338	0.226
338	0.225
339	0.225
339	0.224
340	0.224
340	0.223
341	0.223
341	0.222
342	0.222
342	0.222
342	0.221
343	0.221
343	0.22
344	0.22
344	0.22
345	0.219
345	0.219
346	0.219
346	0.218
347	0.218
347	0.217
348	0.217
348	0.217
348	0.216
349	0.216
349	0.216
350	0.215
350	0.215
351	0.215
351	0.214
352	0.214
352	0.214
353	0.214
353	0.213
354	0.213
354	0.213
354	0.212
355	0.212
355	0.212
356	0.211
356	0.211
357	0.211
357	0.211
358	0.21
358	0.21
359	0.21
359	0.21
360	0.21
360	0.211
360	0.211
361	0.21
361	0.211
362	0.211
362	0.211
363	0.21
363	0.21
364	0.21
364	0.21
365	0.21
365	0.209
366	0.21
366	0.209
366	0.21
367	0.209
367	0.209
368	0.209
368	0.209
369	0.208
369	0.208
370	0.208
370	0.208
371	0.207
371	0.207
372	0.207
372	0.207
372	0.207
373	0.207
373	0.206
374	0.207
374	0.207
375	0.207
375	0.206
376	0.207
376	0.207
377	0.207
377	0.207
378	0.207
378	0.207
378	0.207
379	0.207
379	0.206
380	0.206
380	0.206
381	0.206
381	0.206
382	0.206
382	0.206
383	0.205
383	0.205
383	0.204
384	0.204
384	0.204
385	0.204
385	0.203
386	0.203
386	0.203
387	0.203
387	0.203
388	0.202
388	0.202
389	0.202
389	0.202
389	0.202
390	0.203
390	0.203
391	0.203
391	0.203
392	0.203
392	0.203
393	0.203
393	0.203
394	0.202
394	0.202
394	0.202
395	0.202
395	0.201
396	0.201
396	0.201
397	0.2
397	0.2
398	0.2
398	0.199
399	0.199
399	0.199
400	0.199
400	0.199
400	0.198
401	0.198
401	0.198
402	0.198
402	0.197
403	0.197
403	0.197
404	0.197
404	0.197
405	0.197
405	0.197
405	0.196
406	0.196
406	0.196
407	0.196
407	0.196
408	0.196
408	0.196
409	0.195
409	0.195
410	0.195
410	0.195
411	0.195
411	0.195
411	0.195
412	0.194
412	0.194
413	0.194
413	0.194
414	0.194
414	0.194
415	0.193
415	0.193
416	0.193
416	0.192
416	0.192
417	0.192
417	0.192
418	0.192
418	0.192
419	0.193
419	0.193
420	0.193
420	0.193
421	0.194
421	0.194
421	0.194
422	0.194
422	0.194
423	0.194
423	0.193
424	0.193
424	0.193
425	0.192
425	0.192
426	0.192
426	0.192
427	0.192
427	0.192
427	0.192
428	0.192
428	0.192
429	0.192
429	0.192
430	0.192
430	0.192
431	0.192
431	0.192
432	0.191
432	0.191
432	0.191
433	0.19
433	0.19
434	0.19
434	0.19
435	0.19
435	0.19
436	0.191
436	0.191
437	0.191
437	0.191
437	0.191
438	0.191
438	0.19
439	0.19
439	0.19
440	0.189
440	0.189
441	0.189
441	0.189
442	0.189
442	0.189
442	0.189
443	0.19
443	0.19
444	0.19
444	0.19
445	0.19
445	0.19
446	0.19
446	0.19
447	0.19
447	0.19
447	0.19
448	0.19
448	0.19
449	0.19
449	0.19
450	0.19
450	0.19
451	0.19
451	0.19
452	0.189
452	0.189
452	0.189
453	0.189
453	0.189
454	0.189
454	0.189
455	0.189
455	0.189
456	0.189
456	0.189
457	0.189
457	0.189
458	0.189
458	0.189
458	0.19
459	0.19
459	0.19
460	0.189
460	0.189
461	0.189
461	0.189
462	0.19
462	0.19
463	0.19
463	0.191
463	0.191
464	0.191
464	0.192
465	0.192
465	0.193
466	0.193
466	0.193
467	0.193
467	0.193
467	0.193
468	0.192
468	0.192
469	0.191
469	0.191
470	0.191
470	0.191
471	0.191
471	0.191
472	0.192
472	0.192
472	0.193
473	0.193
473	0.194
474	0.195
474	0.195
475	0.196
475	0.197
476	0.197
476	0.198
477	0.198
477	0.199
477	0.199
478	0.2
478	0.2
479	0.201
479	0.202
480	0.202
480	0.203
481	0.204
481	0.204
482	0.205
482	0.206
482	0.207
483	0.209
483	0.211
484	0.213
484	0.214
485	0.215
485	0.216
486	0.217
486	0.218
487	0.219
487	0.219
487	0.22
488	0.22
488	0.22
489	0.22
489	0.22
490	0.221
490	0.222
491	0.223
491	0.224
492	0.225
492	0.226
492	0.227
493	0.228
493	0.229
494	0.231
494	0.233
495	0.235
495	0.236
496	0.237
496	0.239
496	0.24
497	0.242
497	0.243
498	0.244
498	0.246
499	0.247
499	0.248
500	0.25
500	0.252
501	0.254
501	0.255
501	0.256
502	0.258
502	0.259
503	0.261
503	0.263
504	0.264
504	0.265
505	0.267
505	0.268
506	0.27
506	0.271
506	0.272
507	0.273
507	0.275
508	0.276
508	0.277
509	0.279
509	0.28
510	0.281
510	0.283
511	0.284
511	0.285
511	0.286
512	0.287
512	0.288
513	0.288
513	0.289
514	0.289
514	0.29
515	0.29
515	0.291
515	0.291
516	0.292
516	0.293
517	0.294
517	0.295
518	0.295
518	0.295
519	0.295
519	0.295
520	0.295
520	0.294
520	0.294
521	0.293
521	0.292
522	0.291
522	0.29
523	0.29
523	0.291
524	0.291
524	0.292
524	0.292
525	0.293
525	0.293
526	0.294
526	0.295
527	0.296
527	0.296
528	0.297
528	0.297
529	0.297
529	0.296
529	0.296
530	0.295
530	0.295
531	0.294
531	0.293
532	0.292
532	0.291
533	0.29
533	0.288
533	0.287
534	0.286
534	0.284
535	0.283
535	0.282
536	0.28
536	0.279
537	0.278
537	0.276
538	0.275
538	0.273
538	0.272
539	0.271
539	0.269
540	0.267
540	0.265
541	0.263
541	0.262
542	0.26
542	0.257
542	0.255
543	0.253
543	0.251
544	0.249
544	0.247
545	0.246
545	0.244
546	0.243
546	0.241
547	0.239
547	0.237
547	0.235
548	0.233
548	0.232
549	0.23
549	0.228
550	0.226
550	0.224
551	0.221
551	0.219
551	0.217
552	0.215
552	0.213
553	0.212
553	0.21
554	0.208
554	0.206
555	0.203
555	0.201
556	0.198
556	0.195
556	0.192
557	0.19
557	0.187
558	0.185
558	0.182
559	0.18
559	0.178
560	0.176
560	0.174
560	0.173
561	0.172
561	0.171
562	0.17
562	0.168
563	0.166
563	0.164
564	0.162
564	0.16
564	0.159
565	0.157
565	0.156
566	0.154
566	0.152
567	0.15
567	0.149
568	0.149
568	0.148
568	0.147
569	0.147
569	0.147
570	0.146
570	0.145
571	0.144
571	0.144
572	0.143
572	0.142
573	0.141
573	0.14
573	0.138
574	0.137
574	0.136
575	0.135
575	0.135
576	0.135
576	0.133
577	0.131
577	0.13
577	0.129
578	0.128
578	0.128
579	0.128
579	0.128
580	0.126
580	0.123
581	0.121
581	0.119
581	0.119
582	0.118
582	0.118
583	0.118
583	0.116
584	0.114
584	0.111
585	0.11
585	0.11
585	0.11
586	0.11
586	0.109
587	0.108
587	0.106
588	0.104
588	0.102
589	0.102
589	0.101
590	0.1
590	0.1
590	0.101
591	0.101
591	0.1
592	0.099
592	0.099
593	0.099
593	0.099
594	0.098
594	0.097
594	0.097
595	0.097
595	0.095
596	0.094
596	0.095
597	0.097
597	0.098
598	0.098
598	0.098
598	0.099
599	0.099
599	0.098
600	0.097
600	0.096
601	0.095
601	0.094
602	0.093
602	0.092
602	0.091
603	0.09
603	0.091
604	0.091
604	0.092
605	0.092
605	0.093
606	0.093
606	0.092
606	0.091
607	0.091
607	0.09
608	0.09
608	0.088
609	0.088
609	0.088
610	0.087
610	0.086
610	0.087
611	0.088
611	0.09
612	0.091
612	0.092
613	0.093
613	0.095
614	0.095
614	0.095
614	0.096
615	0.096
615	0.096
616	0.096
616	0.096
617	0.096
617	0.096
618	0.095
618	0.095
618	0.094
619	0.094
619	0.095
620	0.096
620	0.097
621	0.097
621	0.097
622	0.097
622	0.098
622	0.097
623	0.097
623	0.099
624	0.099
624	0.099
625	0.099
625	0.1
626	0.1
626	0.1
626	0.101
627	0.102
627	0.103
628	0.104
628	0.104
629	0.105
629	0.105
630	0.105
630	0.105
630	0.106
631	0.106
631	0.107
632	0.107
632	0.107
633	0.108
633	0.109
634	0.11
634	0.112
634	0.114
635	0.115
635	0.116
636	0.117
636	0.118
637	0.119
637	0.12
638	0.122
638	0.123
638	0.124
639	0.124
639	0.125
640	0.126
640	0.127
641	0.129
641	0.131
642	0.132
642	0.134
642	0.136
643	0.137
643	0.139
644	0.141
644	0.143
645	0.145
645	0.147
646	0.149
646	0.152
646	0.154
647	0.157
647	0.16
648	0.162
648	0.164
649	0.167
649	0.17
650	0.173
650	0.176
650	0.178
651	0.181
651	0.183
652	0.185
652	0.187
653	0.189
653	0.196
653	0.202
654	0.161
654	0.13
655	0.132
655	0.134
656	0.135
656	0.137
657	0.139
657	0.141
657	0.142
658	0.14
658	0.134
659	0.17
659	0.22
660	0.228
660	0.231
661	0.233
661	0.236
661	0.239
662	0.241
662	0.244
663	0.247
663	0.25
664	0.252
664	0.254
665	0.256
665	0.259
665	0.261
666	0.263
666	0.266
667	0.268
667	0.27
668	0.273
668	0.276
669	0.278
669	0.281
669	0.284
670	0.287
670	0.289
671	0.291
671	0.293
672	0.295
672	0.296
672	0.298
673	0.299
673	0.301
674	0.303
674	0.304
675	0.305
675	0.307
676	0.31
676	0.312
676	0.314
677	0.316
677	0.318
678	0.32
678	0.32
679	0.321
679	0.323
680	0.324
680	0.326
680	0.326
681	0.327
681	0.328
682	0.329
682	0.33
683	0.331
683	0.333
684	0.334
684	0.334
684	0.334
685	0.335
685	0.335
686	0.336
686	0.335
687	0.335
687	0.335
687	0.334
688	0.334
688	0.334
689	0.335
689	0.335
690	0.336
690	0.336
691	0.336
691	0.336
691	0.336
692	0.335
692	0.334
693	0.334
693	0.334
694	0.332
694	0.33
695	0.33
695	0.33
695	0.329
696	0.327
696	0.326
697	0.325
697	0.324
698	0.323
698	0.321
698	0.32
699	0.319
699	0.316
700	0.313
700	0.311
701	0.309
701	0.307
702	0.304
702	0.302
702	0.3
703	0.297
703	0.295
704	0.293
704	0.292
705	0.29
705	0.289
705	0.287
706	0.286
706	0.285
707	0.284
707	0.282
708	0.281
708	0.28
709	0.278
709	0.276
709	0.274
710	0.271
710	0.269
711	0.267
711	0.265
712	0.263
712	0.26
713	0.258
713	0.256
713	0.254
714	0.251
714	0.249
715	0.246
715	0.243
716	0.24
716	0.237
716	0.234
717	0.232
717	0.229
718	0.225
718	0.223
719	0.221
719	0.219
720	0.216
720	0.214
720	0.212
721	0.209
721	0.207
722	0.205
722	0.203
723	0.201
723	0.199
723	0.197
724	0.195
724	0.193
725	0.19
725	0.188
726	0.186
726	0.184
727	0.182
727	0.18
727	0.179
728	0.176
728	0.174
729	0.173
729	0.172
730	0.17
730	0.167
730	0.166
731	0.164
731	0.163
732	0.162
732	0.161
733	0.159
733	0.158
734	0.156
734	0.155
734	0.154
735	0.153
735	0.152
736	0.15
736	0.149
737	0.147
737	0.145
737	0.143
738	0.14
738	0.138
739	0.136
739	0.133
740	0.131
740	0.13
741	0.128
741	0.127
741	0.125
742	0.122
742	0.121
743	0.12
743	0.119
744	0.117
744	0.116
744	0.114
745	0.112
745	0.11
746	0.109
746	0.107
747	0.106
747	0.105
748	0.104
748	0.103
748	0.101
749	0.1
749	0.099
750	0.098
750	0.097
751	0.097
751	0.096
751	0.096
752	0.095
752	0.094
753	0.093
753	0.092
754	0.091
754	0.09
754	0.09
755	0.09
755	0.089
756	0.088
756	0.087
757	0.086
757	0.086
758	0.086
758	0.086
758	0.086
759	0.086
759	0.084
760	0.082
760	0.081
761	0.079
761	0.078
761	0.077
762	0.075
762	0.073
763	0.072
763	0.069
764	0.066
764	0.064
764	0.062
765	0.06
765	0.058
766	0.057
766	0.056
767	0.055
767	0.053
768	0.051
768	0.05
768	0.049
769	0.048
769	0.048
770	0.046
770	0.045
771	0.043
771	0.041
771	0.038
772	0.037
772	0.035
773	0.033
773	0.031
774	0.028
774	0.026
775	0.024
775	0.022
775	0.02
776	0.018
776	0.016
777	0.015
777	0.012
778	0.01
778	0.007
778	0.005
779	0.003
779	0.001
780	-0.002
780	-0.004
781	-0.007
781	-0.01
781	-0.014
782	-0.018
782	-0.022
783	-0.026
783	-0.03
784	-0.035
784	-0.04
784	-0.046
785	-0.051
785	-0.056
786	-0.061
786	-0.066
787	-0.069
787	-0.073
788	-0.078
788	-0.085
788	-0.092
789	-0.098
789	-0.103
790	-0.105
790	-0.108
791	-0.113
791	-0.116
791	-0.119
792	-0.114
792	-0.104
793	-0.099
793	-0.095
794	-0.093
794	-0.096
794	-0.1
795	-0.102
795	-0.103
796	-0.103
796	-0.106
797	-0.115
797	-0.126
797	-0.132
798	-0.138
798	-0.141
799	-0.142
799	-0.141
800	-0.14
800	-0.142
801	-0.145
801	-0.145
801	-0.145
802	-0.146
802	-0.147
803	-0.148
803	-0.148
804	-0.147
804	-0.142
804	-0.135
805	-0.131
805	-0.13
806	-0.128
806	-0.127
807	-0.127
807	-0.127
807	-0.127
808	-0.127
808	-0.128
809	-0.133
809	-0.139
810	-0.143
810	-0.146
810	-0.149
811	-0.152
811	-0.152
812	-0.148
812	-0.145
813	-0.145
813	-0.146
813	-0.147
814	-0.148
814	-0.149
815	-0.147
815	-0.144
816	-0.14
816	-0.137
817	-0.136
817	-0.134
817	-0.127
818	-0.119
818	-0.108
819	-0.097
819	-0.087
820	-0.078
820	-0.069
820	-0.061
821	-0.052
821	-0.045
822	-0.039
822	-0.033
823	-0.027
823	-0.024
823	-0.02
824	-0.017
824	-0.013
825	-0.008
825	-0.004
826	-0.001
826	0.002
826	0.005
827	0.007
827	0.009
828	0.011
828	0.012
829	0.014
829	0.016
829	0.016
830	0.017
830	0.018
831	0.02
831	0.021
832	0.021
832	0.022
832	0.023
833	0.023
833	0.024
834	0.024
834	0.025
835	0.025
835	0.024
835	0.024
836	0.024
836	0.025
837	0.025
837	0.026
838	0.026
838	0.026
839	0.027
839	0.026
839	0.026
840	0.026
840	0.026
841	0.026
841	0.025
842	0.025
842	0.025
842	0.024
843	0.024
843	0.023
844	0.023
844	0.023
845	0.023
845	0.023
845	0.024
846	0.024
846	0.024
847	0.024
847	0.025
848	0.026
848	0.026
848	0.027
849	0.028
849	0.028
850	0.029
850	0.029
851	0.029
851	0.03
851	0.029
852	0.029
852	0.029
853	0.028
853	0.028
854	0.027
854	0.027
854	0.027
855	0.027
855	0.027
856	0.027
856	0.027
857	0.027
857	0.027
857	0.027
858	0.027
858	0.027
859	0.027
859	0.027
860	0.028
860	0.028
860	0.029
861	0.03
861	0.031
862	0.031
862	0.032
863	0.032
863	0.032
863	0.032
864	0.032
864	0.032
865	0.032
865	0.032
866	0.032
866	0.032
866	0.032
867	0.033
867	0.033
868	0.033
868	0.033
869	0.033
869	0.033
869	0.032
870	0.031
870	0.031
871	0.031
871	0.03
872	0.03
872	0.03
872	0.03
873	0.031
873	0.031
874	0.031
874	0.032
875	0.032
875	0.031
875	0.031
876	0.031
876	0.03
877	0.029
877	0.028
878	0.027
878	0.026
878	0.026
879	0.025
879	0.025
880	0.024
880	0.024
881	0.024
881	0.024
881	0.024
882	0.024
882	0.024
883	0.023
883	0.023
884	0.023
884	0.022
884	0.022
885	0.022
885	0.022
886	0.022
886	0.022
887	0.023
887	0.023
887	0.024
888	0.024
888	0.025
889	0.026
889	0.026
890	0.027
890	0.027
890	0.027
891	0.027
891	0.028
892	0.028
892	0.028
893	0.028
893	0.028
893	0.029
894	0.029
894	0.029
895	0.028
895	0.028
895	0.027
896	0.027
896	0.027
897	0.026
897	0.026
898	0.026
898	0.026
898	0.026
899	0.026
899	0.026
900	0.026
900	0.026
901	0.026
901	0.026
901	0.026
902	0.026
902	0.026
903	0.026
903	0.027
904	0.027
904	0.028
904	0.028
905	0.029
905	0.029
906	0.03
906	0.03
907	0.03
907	0.03
907	0.031
908	0.031
908	0.031
909	0.032
909	0.032
910	0.033
910	0.033
910	0.033
911	0.033
911	0.033
912	0.034
912	0.034
913	0.033
913	0.033
913	0.032
914	0.032
914	0.031
915	0.03
915	0.03
916	0.029
916	0.028
916	0.027
917	0.026
917	0.025
918	0.024
918	0.023
918	0.022
919	0.021
919	0.02
920	0.019
920	0.019
921	0.019
921	0.019
921	0.019
922	0.019
922	0.019
923	0.02
923	0.02
924	0.02
924	0.021
924	0.021
925	0.021
925	0.022
926	0.022
926	0.022
927	0.022
927	0.022
927	0.022
928	0.022
928	0.022
929	0.022
929	0.022
930	0.022
930	0.021
930	0.021
931	0.02
931	0.02
932	0.02
932	0.02
933	0.02
933	0.02
933	0.019
934	0.019
934	0.018
935	0.018
935	0.018
935	0.017
936	0.017
936	0.016
937	0.016
937	0.015
938	0.015
938	0.015
938	0.015
939	0.016
939	0.016
940	0.017
940	0.018
941	0.018
941	0.019
941	0.02
942	0.021
942	0.022
943	0.023
943	0.024
944	0.024
944	0.024
944	0.025
945	0.025
945	0.026
946	0.026
946	0.026
946	0.026
947	0.027
947	0.027
948	0.028
948	0.028
949	0.028
949	0.028
949	0.029
950	0.029
950	0.029
951	0.029
951	0.028
952	0.028
952	0.027
952	0.027
953	0.026
953	0.026
954	0.025
954	0.025
955	0.025
955	0.025
955	0.025
956	0.025
956	0.025
957	0.025
957	0.025
957	0.025
958	0.025
958	0.025
959	0.025
959	0.025
960	0.025
960	0.025
960	0.025
961	0.025
961	0.025
962	0.025
962	0.026
963	0.026
963	0.026
963	0.026
964	0.026
964	0.027
965	0.027
965	0.027
966	0.027
966	0.027
966	0.027
967	0.026
967	0.025
968	0.024
968	0.023
968	0.023
969	0.022
969	0.021
970	0.02
970	0.019
971	0.018
971	0.018
971	0.018
972	0.018
972	0.018
973	0.018
973	0.018
974	0.019
974	0.019
974	0.02
975	0.021
975	0.022
976	0.023
976	0.024
976	0.025
977	0.026
977	0.027
978	0.027
978	0.027
979	0.028
979	0.028
979	0.028
980	0.027
980	0.027
981	0.026
981	0.025
982	0.025
982	0.024
982	0.023
983	0.022
983	0.02
984	0.019
984	0.018
984	0.017
985	0.016
985	0.015
986	0.014
986	0.013
987	0.012
987	0.012
987	0.012
988	0.011
988	0.011
989	0.011
989	0.011
990	0.012
990	0.012
990	0.013
991	0.015
991	0.016
992	0.017
992	0.018
992	0.019
993	0.019
993	0.02
994	0.02
994	0.02
995	0.02
995	0.02
995	0.019
996	0.018
996	0.017
997	0.016
997	0.015
997	0.014
998	0.014
998	0.014
999	0.014
999	0.014
1000	0.015
1000	0.015
1000	0.016
1001	0.017
1001	0.018
1002	0.019
1002	0.019
1003	0.02
1003	0.02
1003	0.02
1004	0.02
1004	0.02
1005	0.02
1005	0.02
1005	0.019
1006	0.019
1006	0.019
1007	0.019
1007	0.018
1008	0.018
1008	0.018
1008	0.018
1009	0.018
1009	0.018
1010	0.018
1010	0.019
1010	0.019
1011	0.019
1011	0.019
1012	0.019
1012	0.019
1013	0.019
1013	0.018
1013	0.018
1014	0.017
1014	0.016
1015	0.015
1015	0.014
1016	0.013
1016	0.012
1016	0.011
1017	0.011
1017	0.01
1018	0.009
1018	0.008
1018	0.008
1019	0.008
1019	0.007
1020	0.007
1020	0.007
1021	0.008
1021	0.008
1021	0.008
1022	0.009
1022	0.009
1023	0.01
1023	0.011
1023	0.011
1024	0.011
1024	0.011
1025	0.011
1025	0.011
1026	0.011
1026	0.01
1026	0.01
1027	0.01
1027	0.009
1028	0.009
1028	0.008
1028	0.008
1029	0.007
1029	0.007
1030	0.007
1030	0.007
1031	0.007
1031	0.006
1031	0.006
1032	0.006
1032	0.006
1033	0.006
1033	0.006
1033	0.006
1034	0.006
1034	0.006
1035	0.006
1035	0.005
1036	0.005
1036	0.005
1036	0.005
1037	0.006
1037	0.006
1038	0.006
1038	0.006
1039	0.007
1039	0.007
1039	0.008
1040	0.008
1040	0.009
1041	0.009
1041	0.01
1041	0.011
1042	0.011
1042	0.012
1043	0.012
1043	0.013
1044	0.013
1044	0.014
1044	0.014
1045	0.015
1045	0.015
1046	0.015
1046	0.015
1046	0.014
1047	0.014
1047	0.014
1048	0.014
1048	0.014
1049	0.013
1049	0.013
1049	0.012
1050	0.012
1050	0.011
1051	0.01
1051	0.01
1051	0.009
1052	0.008
1052	0.007
1053	0.007
1053	0.006
1053	0.005
1054	0.004
1054	0.004
1055	0.003
1055	0.003
1056	0.001
1056	0
1056	-0.001
1057	-0.002
1057	-0.003
1058	-0.004
1058	-0.004
1058	-0.005
1059	-0.005
1059	-0.006
1060	-0.006
1060	-0.006
1061	-0.006
1061	-0.005
1061	-0.005
1062	-0.005
1062	-0.005
1063	-0.005
1063	-0.005
1063	-0.005
1064	-0.005
1064	-0.004
1065	-0.004
1065	-0.004
1066	-0.004
1066	-0.004
1066	-0.003
1067	-0.003
1067	-0.002
1068	-0.002
1068	-0.002
1068	-0.002
1069	-0.003
1069	-0.003
1070	-0.004
1070	-0.004
1071	-0.005
1071	-0.005
1071	-0.006
1072	-0.007
1072	-0.008
1073	-0.009
1073	-0.009
1073	-0.01
1074	-0.011
1074	-0.011
1075	-0.013
1075	-0.014
1076	-0.015
1076	-0.016
1076	-0.017
1077	-0.017
1077	-0.017
1078	-0.018
1078	-0.017
1078	-0.017
1079	-0.017
1079	-0.015
1080	-0.015
1080	-0.014
1080	-0.013
1081	-0.012
1081	-0.011
1082	-0.01
1082	-0.01
1083	-0.009
1083	-0.008
1083	-0.008
1084	-0.007
1084	-0.006
1085	-0.006
1085	-0.006
1085	-0.005
1086	-0.005
1086	-0.005
1087	-0.005
1087	-0.004
1088	-0.005
1088	-0.005
1088	-0.005
1089	-0.007
1089	-0.007
1090	-0.008
1090	-0.008
1090	-0.009
1091	-0.009
1091	-0.009
1092	-0.01
1092	-0.009
1092	-0.009
1093	-0.008
1093	-0.007
1094	-0.006
1094	-0.006
1095	-0.007
1095	-0.006
1095	-0.004
1096	-0.004
1096	-0.003
1097	-0.001
1097	0
1097	0.001
1098	0.002
1098	0.004
1099	0.006
1099	0.008
1100	0.01
1100	0.011
1100	0.012
1101	0.013
1101	0.015
1102	0.017
1102	0.019
1102	0.022
1103	0.024
1103	0.027
1104	0.031
1104	0.034
1104	0.039
1105	0.045
1105	0.049
1106	0.052
1106	0.058
1107	0.061
1107	0.068
1107	0.077
1108	0.109
1108	0.152
1109	0.213
1109	0.305
1109	0.373
1110	0.508
1110	0.85
1111	-0
1111	-0
