Data from 17c-2a_Absorbance__1368__01369.txt Node

Date: Fri Jan 26 10:33:06 CET 2024
User: Marek
Spectrometer: MAYP115816
Trigger mode: 0
Integration Time (sec): 2.000000E-1
Scans to average: 10
Electric dark correction enabled: true
Nonlinearity correction enabled: true
Boxcar width: 5
XAxis mode: Wavelengths
Number of Pixels in Spectrum: 2068
>>>>>Begin Spectral Data<<<<<
199	-1.444
199	-1.309
200	-1.162
200	-1.054
201	-0.985
201	-0.942
202	-0.879
202	-0.83
203	-0.789
203	-0.755
204	-0.731
204	-0.709
205	-0.688
205	-0.679
205	-0.676
206	-0.672
206	-0.669
207	-0.665
207	-0.665
208	-0.665
208	-0.663
209	-0.66
209	-0.657
210	-0.658
210	-0.658
211	-0.659
211	-0.661
212	-0.663
212	-0.662
213	-0.66
213	-0.657
213	-0.657
214	-0.656
214	-0.654
215	-0.649
215	-0.647
216	-0.645
216	-0.644
217	-0.64
217	-0.638
218	-0.635
218	-0.633
219	-0.629
219	-0.628
220	-0.627
220	-0.629
221	-0.626
221	-0.623
221	-0.619
222	-0.614
222	-0.611
223	-0.607
223	-0.604
224	-0.599
224	-0.591
225	-0.585
225	-0.576
226	-0.569
226	-0.558
227	-0.549
227	-0.538
228	-0.522
228	-0.507
229	-0.487
229	-0.467
229	-0.444
230	-0.417
230	-0.389
231	-0.359
231	-0.327
232	-0.293
232	-0.257
233	-0.22
233	-0.183
234	-0.146
234	-0.11
235	-0.076
235	-0.042
236	-0.01
236	0.02
236	0.048
237	0.075
237	0.099
238	0.12
238	0.14
239	0.158
239	0.175
240	0.19
240	0.203
241	0.215
241	0.226
242	0.236
242	0.244
243	0.253
243	0.26
243	0.266
244	0.272
244	0.278
245	0.283
245	0.288
246	0.292
246	0.296
247	0.3
247	0.304
248	0.307
248	0.311
249	0.314
249	0.317
250	0.32
250	0.323
250	0.326
251	0.328
251	0.331
252	0.333
252	0.335
253	0.338
253	0.339
254	0.341
254	0.343
255	0.344
255	0.346
256	0.347
256	0.349
257	0.35
257	0.351
258	0.352
258	0.353
258	0.354
259	0.354
259	0.355
260	0.355
260	0.356
261	0.356
261	0.356
262	0.356
262	0.356
263	0.356
263	0.356
264	0.355
264	0.354
265	0.354
265	0.353
265	0.352
266	0.351
266	0.35
267	0.349
267	0.347
268	0.346
268	0.344
269	0.343
269	0.342
270	0.34
270	0.338
271	0.337
271	0.335
272	0.333
272	0.331
272	0.329
273	0.328
273	0.326
274	0.323
274	0.321
275	0.319
275	0.317
276	0.315
276	0.313
277	0.311
277	0.309
278	0.307
278	0.304
278	0.302
279	0.3
279	0.297
280	0.295
280	0.293
281	0.291
281	0.288
282	0.286
282	0.285
283	0.283
283	0.281
284	0.279
284	0.277
285	0.276
285	0.274
285	0.272
286	0.27
286	0.269
287	0.267
287	0.265
288	0.263
288	0.262
289	0.26
289	0.259
290	0.257
290	0.256
291	0.255
291	0.253
292	0.252
292	0.251
292	0.249
293	0.248
293	0.247
294	0.246
294	0.245
295	0.244
295	0.243
296	0.242
296	0.241
297	0.24
297	0.239
298	0.239
298	0.238
298	0.237
299	0.236
299	0.235
300	0.235
300	0.234
301	0.233
301	0.233
302	0.232
302	0.231
303	0.231
303	0.23
304	0.229
304	0.229
305	0.228
305	0.227
305	0.227
306	0.226
306	0.225
307	0.225
307	0.224
308	0.223
308	0.223
309	0.222
309	0.221
310	0.221
310	0.22
311	0.22
311	0.219
311	0.219
312	0.218
312	0.218
313	0.217
313	0.217
314	0.216
314	0.216
315	0.215
315	0.214
316	0.214
316	0.213
317	0.213
317	0.212
318	0.212
318	0.211
318	0.21
319	0.21
319	0.209
320	0.208
320	0.208
321	0.207
321	0.206
322	0.206
322	0.205
323	0.204
323	0.204
324	0.203
324	0.202
324	0.202
325	0.201
325	0.201
326	0.201
326	0.2
327	0.2
327	0.199
328	0.198
328	0.198
329	0.197
329	0.197
330	0.196
330	0.196
330	0.195
331	0.194
331	0.194
332	0.193
332	0.193
333	0.193
333	0.192
334	0.192
334	0.191
335	0.191
335	0.19
336	0.19
336	0.19
336	0.189
337	0.189
337	0.188
338	0.188
338	0.187
339	0.187
339	0.187
340	0.186
340	0.186
341	0.185
341	0.185
342	0.184
342	0.184
342	0.184
343	0.183
343	0.183
344	0.183
344	0.182
345	0.182
345	0.182
346	0.182
346	0.181
347	0.181
347	0.181
348	0.18
348	0.18
348	0.18
349	0.179
349	0.179
350	0.179
350	0.178
351	0.178
351	0.178
352	0.177
352	0.177
353	0.177
353	0.177
354	0.176
354	0.176
354	0.176
355	0.175
355	0.175
356	0.175
356	0.175
357	0.174
357	0.174
358	0.174
358	0.174
359	0.174
359	0.174
360	0.174
360	0.174
360	0.174
361	0.174
361	0.175
362	0.175
362	0.175
363	0.175
363	0.175
364	0.174
364	0.174
365	0.174
365	0.174
366	0.174
366	0.174
366	0.174
367	0.174
367	0.174
368	0.174
368	0.173
369	0.173
369	0.173
370	0.173
370	0.172
371	0.172
371	0.172
372	0.171
372	0.171
372	0.171
373	0.171
373	0.171
374	0.171
374	0.171
375	0.171
375	0.171
376	0.171
376	0.171
377	0.171
377	0.172
378	0.172
378	0.172
378	0.172
379	0.172
379	0.171
380	0.171
380	0.171
381	0.171
381	0.171
382	0.171
382	0.17
383	0.17
383	0.17
383	0.17
384	0.169
384	0.169
385	0.169
385	0.169
386	0.169
386	0.169
387	0.169
387	0.168
388	0.168
388	0.168
389	0.168
389	0.168
389	0.168
390	0.168
390	0.168
391	0.168
391	0.168
392	0.168
392	0.168
393	0.168
393	0.168
394	0.168
394	0.168
394	0.168
395	0.168
395	0.168
396	0.167
396	0.167
397	0.167
397	0.167
398	0.167
398	0.167
399	0.166
399	0.166
400	0.166
400	0.166
400	0.166
401	0.165
401	0.165
402	0.164
402	0.164
403	0.164
403	0.164
404	0.164
404	0.164
405	0.164
405	0.164
405	0.163
406	0.163
406	0.163
407	0.163
407	0.163
408	0.163
408	0.163
409	0.163
409	0.163
410	0.163
410	0.163
411	0.163
411	0.163
411	0.163
412	0.163
412	0.163
413	0.163
413	0.162
414	0.162
414	0.162
415	0.161
415	0.161
416	0.161
416	0.161
416	0.16
417	0.16
417	0.16
418	0.16
418	0.16
419	0.16
419	0.161
420	0.161
420	0.161
421	0.161
421	0.162
421	0.162
422	0.162
422	0.162
423	0.162
423	0.161
424	0.161
424	0.161
425	0.161
425	0.161
426	0.161
426	0.161
427	0.161
427	0.161
427	0.161
428	0.161
428	0.161
429	0.161
429	0.161
430	0.161
430	0.161
431	0.161
431	0.161
432	0.161
432	0.16
432	0.16
433	0.16
433	0.16
434	0.159
434	0.159
435	0.159
435	0.159
436	0.159
436	0.16
437	0.16
437	0.16
437	0.159
438	0.159
438	0.159
439	0.159
439	0.159
440	0.159
440	0.158
441	0.158
441	0.158
442	0.158
442	0.159
442	0.159
443	0.159
443	0.159
444	0.159
444	0.159
445	0.159
445	0.159
446	0.159
446	0.16
447	0.16
447	0.16
447	0.16
448	0.16
448	0.16
449	0.16
449	0.16
450	0.16
450	0.16
451	0.16
451	0.16
452	0.16
452	0.16
452	0.16
453	0.16
453	0.159
454	0.159
454	0.159
455	0.159
455	0.159
456	0.159
456	0.159
457	0.158
457	0.159
458	0.159
458	0.159
458	0.16
459	0.16
459	0.16
460	0.16
460	0.159
461	0.159
461	0.16
462	0.16
462	0.16
463	0.16
463	0.161
463	0.161
464	0.161
464	0.161
465	0.162
465	0.162
466	0.162
466	0.162
467	0.162
467	0.162
467	0.162
468	0.161
468	0.161
469	0.161
469	0.161
470	0.161
470	0.161
471	0.161
471	0.161
472	0.161
472	0.161
472	0.162
473	0.163
473	0.163
474	0.164
474	0.164
475	0.165
475	0.165
476	0.166
476	0.166
477	0.167
477	0.167
477	0.167
478	0.168
478	0.168
479	0.168
479	0.169
480	0.17
480	0.17
481	0.171
481	0.171
482	0.172
482	0.173
482	0.174
483	0.175
483	0.177
484	0.179
484	0.18
485	0.181
485	0.182
486	0.183
486	0.183
487	0.184
487	0.185
487	0.185
488	0.185
488	0.185
489	0.185
489	0.185
490	0.186
490	0.186
491	0.187
491	0.188
492	0.189
492	0.19
492	0.191
493	0.191
493	0.193
494	0.195
494	0.196
495	0.198
495	0.199
496	0.2
496	0.201
496	0.203
497	0.204
497	0.205
498	0.206
498	0.207
499	0.208
499	0.209
500	0.211
500	0.212
501	0.214
501	0.215
501	0.216
502	0.218
502	0.219
503	0.221
503	0.222
504	0.223
504	0.224
505	0.225
505	0.226
506	0.228
506	0.229
506	0.23
507	0.231
507	0.232
508	0.234
508	0.235
509	0.236
509	0.237
510	0.238
510	0.239
511	0.24
511	0.241
511	0.241
512	0.243
512	0.243
513	0.243
513	0.244
514	0.244
514	0.245
515	0.245
515	0.246
515	0.246
516	0.247
516	0.248
517	0.248
517	0.249
518	0.249
518	0.249
519	0.249
519	0.249
520	0.249
520	0.249
520	0.248
521	0.247
521	0.247
522	0.246
522	0.245
523	0.245
523	0.246
524	0.246
524	0.247
524	0.247
525	0.248
525	0.248
526	0.249
526	0.249
527	0.25
527	0.25
528	0.25
528	0.251
529	0.25
529	0.25
529	0.249
530	0.249
530	0.248
531	0.248
531	0.247
532	0.246
532	0.245
533	0.244
533	0.243
533	0.243
534	0.242
534	0.24
535	0.239
535	0.238
536	0.237
536	0.236
537	0.235
537	0.233
538	0.232
538	0.23
538	0.229
539	0.228
539	0.227
540	0.225
540	0.223
541	0.222
541	0.22
542	0.218
542	0.217
542	0.215
543	0.214
543	0.212
544	0.21
544	0.208
545	0.207
545	0.206
546	0.205
546	0.204
547	0.202
547	0.2
547	0.199
548	0.197
548	0.196
549	0.194
549	0.193
550	0.191
550	0.189
551	0.187
551	0.185
551	0.184
552	0.182
552	0.181
553	0.179
553	0.178
554	0.176
554	0.174
555	0.171
555	0.17
556	0.167
556	0.165
556	0.163
557	0.16
557	0.158
558	0.156
558	0.154
559	0.152
559	0.15
560	0.149
560	0.147
560	0.146
561	0.145
561	0.144
562	0.143
562	0.142
563	0.14
563	0.138
564	0.136
564	0.135
564	0.134
565	0.132
565	0.131
566	0.129
566	0.128
567	0.127
567	0.126
568	0.126
568	0.125
568	0.125
569	0.125
569	0.124
570	0.124
570	0.123
571	0.123
571	0.122
572	0.121
572	0.121
573	0.12
573	0.119
573	0.117
574	0.117
574	0.116
575	0.115
575	0.116
576	0.115
576	0.113
577	0.112
577	0.111
577	0.11
578	0.109
578	0.109
579	0.11
579	0.11
580	0.108
580	0.105
581	0.103
581	0.102
581	0.102
582	0.102
582	0.101
583	0.101
583	0.1
584	0.098
584	0.095
585	0.094
585	0.094
585	0.094
586	0.094
586	0.093
587	0.091
587	0.09
588	0.088
588	0.086
589	0.086
589	0.085
590	0.085
590	0.085
590	0.086
591	0.086
591	0.085
592	0.085
592	0.084
593	0.084
593	0.084
594	0.084
594	0.083
594	0.082
595	0.082
595	0.081
596	0.08
596	0.081
597	0.083
597	0.083
598	0.084
598	0.084
598	0.084
599	0.084
599	0.084
600	0.083
600	0.082
601	0.082
601	0.081
602	0.079
602	0.078
602	0.077
603	0.077
603	0.078
604	0.078
604	0.078
605	0.079
605	0.08
606	0.08
606	0.079
606	0.079
607	0.079
607	0.079
608	0.078
608	0.077
609	0.077
609	0.077
610	0.076
610	0.075
610	0.076
611	0.077
611	0.078
612	0.079
612	0.081
613	0.082
613	0.083
614	0.083
614	0.083
614	0.084
615	0.084
615	0.083
616	0.083
616	0.083
617	0.083
617	0.082
618	0.081
618	0.081
618	0.081
619	0.081
619	0.082
620	0.083
620	0.083
621	0.084
621	0.084
622	0.084
622	0.085
622	0.085
623	0.085
623	0.086
624	0.087
624	0.086
625	0.086
625	0.087
626	0.087
626	0.088
626	0.089
627	0.09
627	0.091
628	0.091
628	0.092
629	0.092
629	0.092
630	0.092
630	0.092
630	0.093
631	0.093
631	0.093
632	0.093
632	0.094
633	0.094
633	0.095
634	0.096
634	0.098
634	0.099
635	0.1
635	0.101
636	0.102
636	0.103
637	0.104
637	0.105
638	0.106
638	0.107
638	0.108
639	0.108
639	0.109
640	0.11
640	0.111
641	0.112
641	0.113
642	0.115
642	0.116
642	0.118
643	0.119
643	0.12
644	0.121
644	0.123
645	0.124
645	0.126
646	0.128
646	0.13
646	0.133
647	0.135
647	0.138
648	0.14
648	0.142
649	0.145
649	0.147
650	0.149
650	0.152
650	0.154
651	0.156
651	0.158
652	0.16
652	0.161
653	0.164
653	0.17
653	0.175
654	0.14
654	0.114
655	0.116
655	0.118
656	0.119
656	0.121
657	0.123
657	0.124
657	0.126
658	0.123
658	0.118
659	0.149
659	0.191
660	0.199
660	0.201
661	0.203
661	0.205
661	0.207
662	0.21
662	0.213
663	0.215
663	0.218
664	0.22
664	0.222
665	0.224
665	0.226
665	0.228
666	0.229
666	0.231
667	0.233
667	0.235
668	0.237
668	0.239
669	0.241
669	0.244
669	0.247
670	0.249
670	0.251
671	0.253
671	0.254
672	0.256
672	0.257
672	0.259
673	0.261
673	0.262
674	0.264
674	0.265
675	0.267
675	0.269
676	0.271
676	0.273
676	0.275
677	0.277
677	0.279
678	0.28
678	0.28
679	0.281
679	0.282
680	0.283
680	0.284
680	0.284
681	0.285
681	0.286
682	0.287
682	0.288
683	0.289
683	0.291
684	0.292
684	0.292
684	0.292
685	0.293
685	0.293
686	0.293
686	0.293
687	0.292
687	0.292
687	0.291
688	0.291
688	0.291
689	0.291
689	0.292
690	0.292
690	0.293
691	0.293
691	0.293
691	0.293
692	0.293
692	0.292
693	0.292
693	0.292
694	0.291
694	0.29
695	0.289
695	0.29
695	0.289
696	0.288
696	0.287
697	0.286
697	0.285
698	0.283
698	0.281
698	0.28
699	0.278
699	0.276
700	0.273
700	0.272
701	0.27
701	0.269
702	0.267
702	0.265
702	0.263
703	0.261
703	0.259
704	0.257
704	0.256
705	0.255
705	0.253
705	0.252
706	0.25
706	0.249
707	0.247
707	0.246
708	0.245
708	0.244
709	0.242
709	0.24
709	0.238
710	0.236
710	0.234
711	0.233
711	0.231
712	0.229
712	0.227
713	0.225
713	0.223
713	0.221
714	0.219
714	0.216
715	0.214
715	0.212
716	0.209
716	0.207
716	0.204
717	0.202
717	0.2
718	0.197
718	0.195
719	0.193
719	0.191
720	0.189
720	0.187
720	0.185
721	0.182
721	0.18
722	0.179
722	0.176
723	0.175
723	0.173
723	0.172
724	0.17
724	0.169
725	0.167
725	0.166
726	0.165
726	0.164
727	0.162
727	0.161
727	0.16
728	0.158
728	0.156
729	0.155
729	0.153
730	0.151
730	0.149
730	0.147
731	0.145
731	0.143
732	0.142
732	0.141
733	0.139
733	0.138
734	0.137
734	0.135
734	0.135
735	0.134
735	0.133
736	0.132
736	0.131
737	0.13
737	0.129
737	0.127
738	0.124
738	0.122
739	0.12
739	0.118
740	0.116
740	0.114
741	0.113
741	0.111
741	0.109
742	0.107
742	0.106
743	0.105
743	0.104
744	0.103
744	0.102
744	0.1
745	0.099
745	0.097
746	0.095
746	0.094
747	0.093
747	0.092
748	0.091
748	0.09
748	0.089
749	0.088
749	0.087
750	0.086
750	0.086
751	0.086
751	0.086
751	0.086
752	0.085
752	0.084
753	0.084
753	0.083
754	0.083
754	0.082
754	0.082
755	0.082
755	0.082
756	0.081
756	0.079
757	0.079
757	0.078
758	0.078
758	0.077
758	0.077
759	0.076
759	0.074
760	0.073
760	0.071
761	0.069
761	0.069
761	0.068
762	0.066
762	0.065
763	0.063
763	0.061
764	0.059
764	0.057
764	0.055
765	0.054
765	0.052
766	0.051
766	0.05
767	0.049
767	0.047
768	0.044
768	0.043
768	0.042
769	0.041
769	0.04
770	0.039
770	0.037
771	0.035
771	0.033
771	0.031
772	0.029
772	0.028
773	0.026
773	0.024
774	0.022
774	0.02
775	0.018
775	0.017
775	0.015
776	0.014
776	0.012
777	0.011
777	0.01
778	0.008
778	0.006
778	0.004
779	0.003
779	0.001
780	-0.001
780	-0.003
781	-0.006
781	-0.009
781	-0.012
782	-0.016
782	-0.021
783	-0.024
783	-0.028
784	-0.033
784	-0.038
784	-0.043
785	-0.048
785	-0.053
786	-0.057
786	-0.061
787	-0.064
787	-0.068
788	-0.073
788	-0.079
788	-0.086
789	-0.093
789	-0.098
790	-0.101
790	-0.105
791	-0.11
791	-0.114
791	-0.117
792	-0.112
792	-0.103
793	-0.099
793	-0.095
794	-0.094
794	-0.096
794	-0.1
795	-0.103
795	-0.103
796	-0.103
796	-0.106
797	-0.115
797	-0.126
797	-0.133
798	-0.138
798	-0.141
799	-0.142
799	-0.141
800	-0.141
800	-0.142
801	-0.145
801	-0.146
801	-0.145
802	-0.146
802	-0.147
803	-0.148
803	-0.148
804	-0.147
804	-0.142
804	-0.135
805	-0.132
805	-0.13
806	-0.128
806	-0.127
807	-0.127
807	-0.127
807	-0.127
808	-0.127
808	-0.129
809	-0.133
809	-0.139
810	-0.143
810	-0.146
810	-0.149
811	-0.152
811	-0.153
812	-0.149
812	-0.145
813	-0.145
813	-0.146
813	-0.148
814	-0.149
814	-0.149
815	-0.146
815	-0.142
816	-0.138
816	-0.134
817	-0.133
817	-0.129
817	-0.122
818	-0.113
818	-0.102
819	-0.091
819	-0.08
820	-0.071
820	-0.063
820	-0.055
821	-0.048
821	-0.041
822	-0.035
822	-0.029
823	-0.025
823	-0.021
823	-0.018
824	-0.014
824	-0.01
825	-0.006
825	-0.002
826	0.002
826	0.004
826	0.006
827	0.009
827	0.01
828	0.012
828	0.013
829	0.015
829	0.016
829	0.016
830	0.016
830	0.016
831	0.017
831	0.018
832	0.018
832	0.018
832	0.019
833	0.019
833	0.02
834	0.02
834	0.021
835	0.021
835	0.021
835	0.021
836	0.021
836	0.022
837	0.023
837	0.023
838	0.024
838	0.024
839	0.025
839	0.025
839	0.025
840	0.026
840	0.026
841	0.026
841	0.026
842	0.026
842	0.026
842	0.026
843	0.027
843	0.027
844	0.027
844	0.027
845	0.027
845	0.027
845	0.027
846	0.027
846	0.026
847	0.026
847	0.026
848	0.026
848	0.026
848	0.027
849	0.027
849	0.027
850	0.028
850	0.028
851	0.028
851	0.029
851	0.029
852	0.028
852	0.028
853	0.028
853	0.027
854	0.027
854	0.027
854	0.027
855	0.027
855	0.026
856	0.026
856	0.025
857	0.025
857	0.025
857	0.025
858	0.025
858	0.025
859	0.025
859	0.026
860	0.026
860	0.027
860	0.027
861	0.028
861	0.029
862	0.029
862	0.029
863	0.03
863	0.03
863	0.03
864	0.03
864	0.031
865	0.031
865	0.032
866	0.032
866	0.033
866	0.034
867	0.034
867	0.035
868	0.035
868	0.036
869	0.036
869	0.036
869	0.035
870	0.035
870	0.034
871	0.034
871	0.034
872	0.033
872	0.033
872	0.033
873	0.033
873	0.033
874	0.032
874	0.032
875	0.032
875	0.031
875	0.031
876	0.03
876	0.029
877	0.028
877	0.027
878	0.026
878	0.025
878	0.024
879	0.024
879	0.023
880	0.023
880	0.022
881	0.022
881	0.023
881	0.023
882	0.023
882	0.023
883	0.023
883	0.023
884	0.023
884	0.023
884	0.022
885	0.022
885	0.022
886	0.022
886	0.022
887	0.022
887	0.022
887	0.023
888	0.023
888	0.023
889	0.024
889	0.025
890	0.026
890	0.026
890	0.027
891	0.027
891	0.027
892	0.028
892	0.028
893	0.028
893	0.029
893	0.029
894	0.03
894	0.029
895	0.029
895	0.029
895	0.028
896	0.028
896	0.027
897	0.027
897	0.026
898	0.026
898	0.025
898	0.025
899	0.025
899	0.025
900	0.025
900	0.025
901	0.025
901	0.026
901	0.026
902	0.027
902	0.027
903	0.028
903	0.028
904	0.029
904	0.029
904	0.03
905	0.03
905	0.031
906	0.031
906	0.031
907	0.031
907	0.031
907	0.031
908	0.031
908	0.031
909	0.032
909	0.032
910	0.032
910	0.033
910	0.033
911	0.033
911	0.033
912	0.033
912	0.033
913	0.032
913	0.032
913	0.031
914	0.031
914	0.03
915	0.029
915	0.029
916	0.028
916	0.027
916	0.026
917	0.025
917	0.023
918	0.022
918	0.021
918	0.02
919	0.018
919	0.018
920	0.017
920	0.016
921	0.015
921	0.015
921	0.015
922	0.015
922	0.016
923	0.016
923	0.016
924	0.017
924	0.017
924	0.018
925	0.019
925	0.02
926	0.021
926	0.021
927	0.022
927	0.022
927	0.022
928	0.022
928	0.022
929	0.021
929	0.021
930	0.02
930	0.019
930	0.019
931	0.018
931	0.017
932	0.017
932	0.016
933	0.016
933	0.015
933	0.015
934	0.014
934	0.014
935	0.013
935	0.012
935	0.012
936	0.011
936	0.011
937	0.01
937	0.01
938	0.01
938	0.01
938	0.01
939	0.011
939	0.011
940	0.012
940	0.013
941	0.014
941	0.015
941	0.016
942	0.017
942	0.018
943	0.019
943	0.019
944	0.02
944	0.02
944	0.021
945	0.021
945	0.021
946	0.022
946	0.022
946	0.022
947	0.023
947	0.023
948	0.024
948	0.024
949	0.024
949	0.025
949	0.025
950	0.026
950	0.026
951	0.026
951	0.026
952	0.026
952	0.026
952	0.025
953	0.025
953	0.024
954	0.024
954	0.023
955	0.023
955	0.023
955	0.022
956	0.022
956	0.022
957	0.022
957	0.022
957	0.022
958	0.022
958	0.022
959	0.023
959	0.023
960	0.023
960	0.023
960	0.023
961	0.023
961	0.023
962	0.023
962	0.024
963	0.024
963	0.025
963	0.025
964	0.025
964	0.026
965	0.026
965	0.026
966	0.026
966	0.026
966	0.026
967	0.025
967	0.024
968	0.024
968	0.023
968	0.022
969	0.021
969	0.021
970	0.02
970	0.02
971	0.019
971	0.019
971	0.019
972	0.019
972	0.019
973	0.019
973	0.019
974	0.019
974	0.019
974	0.019
975	0.02
975	0.021
976	0.021
976	0.022
976	0.023
977	0.023
977	0.024
978	0.024
978	0.025
979	0.025
979	0.025
979	0.025
980	0.025
980	0.024
981	0.023
981	0.022
982	0.022
982	0.021
982	0.02
983	0.019
983	0.018
984	0.017
984	0.016
984	0.016
985	0.015
985	0.014
986	0.013
986	0.013
987	0.012
987	0.012
987	0.012
988	0.011
988	0.011
989	0.011
989	0.011
990	0.011
990	0.012
990	0.012
991	0.013
991	0.013
992	0.014
992	0.015
992	0.015
993	0.015
993	0.016
994	0.016
994	0.016
995	0.016
995	0.016
995	0.015
996	0.015
996	0.015
997	0.014
997	0.014
997	0.014
998	0.014
998	0.015
999	0.016
999	0.016
1000	0.017
1000	0.018
1000	0.019
1001	0.02
1001	0.021
1002	0.022
1002	0.023
1003	0.023
1003	0.024
1003	0.024
1004	0.024
1004	0.024
1005	0.023
1005	0.023
1005	0.022
1006	0.021
1006	0.021
1007	0.02
1007	0.02
1008	0.019
1008	0.019
1008	0.019
1009	0.019
1009	0.018
1010	0.018
1010	0.019
1010	0.019
1011	0.019
1011	0.018
1012	0.018
1012	0.018
1013	0.017
1013	0.017
1013	0.016
1014	0.015
1014	0.014
1015	0.013
1015	0.012
1016	0.011
1016	0.01
1016	0.009
1017	0.008
1017	0.007
1018	0.006
1018	0.005
1018	0.005
1019	0.004
1019	0.003
1020	0.003
1020	0.003
1021	0.003
1021	0.003
1021	0.003
1022	0.004
1022	0.004
1023	0.005
1023	0.005
1023	0.005
1024	0.006
1024	0.006
1025	0.006
1025	0.006
1026	0.006
1026	0.006
1026	0.006
1027	0.006
1027	0.006
1028	0.006
1028	0.006
1028	0.006
1029	0.005
1029	0.005
1030	0.004
1030	0.004
1031	0.004
1031	0.004
1031	0.003
1032	0.004
1032	0.003
1033	0.003
1033	0.003
1033	0.003
1034	0.003
1034	0.003
1035	0.003
1035	0.002
1036	0.002
1036	0.002
1036	0.002
1037	0.002
1037	0.002
1038	0.003
1038	0.003
1039	0.004
1039	0.004
1039	0.005
1040	0.006
1040	0.007
1041	0.007
1041	0.008
1041	0.009
1042	0.009
1042	0.01
1043	0.011
1043	0.011
1044	0.012
1044	0.012
1044	0.013
1045	0.013
1045	0.013
1046	0.013
1046	0.012
1046	0.012
1047	0.012
1047	0.012
1048	0.012
1048	0.012
1049	0.011
1049	0.01
1049	0.009
1050	0.008
1050	0.007
1051	0.006
1051	0.006
1051	0.005
1052	0.004
1052	0.003
1053	0.002
1053	0.002
1053	0.001
1054	0
1054	-0
1055	-0.001
1055	-0.001
1056	-0.002
1056	-0.003
1056	-0.004
1057	-0.006
1057	-0.006
1058	-0.007
1058	-0.007
1058	-0.008
1059	-0.008
1059	-0.008
1060	-0.008
1060	-0.008
1061	-0.008
1061	-0.007
1061	-0.007
1062	-0.007
1062	-0.007
1063	-0.007
1063	-0.007
1063	-0.006
1064	-0.006
1064	-0.006
1065	-0.006
1065	-0.005
1066	-0.005
1066	-0.004
1066	-0.004
1067	-0.004
1067	-0.003
1068	-0.003
1068	-0.003
1068	-0.004
1069	-0.004
1069	-0.005
1070	-0.005
1070	-0.006
1071	-0.007
1071	-0.007
1071	-0.009
1072	-0.009
1072	-0.011
1073	-0.011
1073	-0.012
1073	-0.013
1074	-0.013
1074	-0.014
1075	-0.014
1075	-0.015
1076	-0.017
1076	-0.017
1076	-0.018
1077	-0.018
1077	-0.018
1078	-0.019
1078	-0.019
1078	-0.018
1079	-0.019
1079	-0.018
1080	-0.018
1080	-0.018
1080	-0.018
1081	-0.017
1081	-0.016
1082	-0.016
1082	-0.016
1083	-0.015
1083	-0.015
1083	-0.015
1084	-0.015
1084	-0.014
1085	-0.014
1085	-0.013
1085	-0.013
1086	-0.012
1086	-0.013
1087	-0.012
1087	-0.011
1088	-0.011
1088	-0.011
1088	-0.011
1089	-0.011
1089	-0.012
1090	-0.012
1090	-0.012
1090	-0.013
1091	-0.013
1091	-0.013
1092	-0.013
1092	-0.013
1092	-0.013
1093	-0.013
1093	-0.011
1094	-0.011
1094	-0.011
1095	-0.012
1095	-0.012
1095	-0.01
1096	-0.01
1096	-0.009
1097	-0.009
1097	-0.008
1097	-0.008
1098	-0.007
1098	-0.006
1099	-0.004
1099	-0.002
1100	-0
1100	0
1100	0.001
1101	0.003
1101	0.004
1102	0.006
1102	0.008
1102	0.01
1103	0.012
1103	0.014
1104	0.017
1104	0.02
1104	0.025
1105	0.029
1105	0.032
1106	0.035
1106	0.04
1107	0.043
1107	0.049
1107	0.056
1108	0.085
1108	0.122
1109	0.171
1109	0.244
1109	0.298
1110	0.396
1110	0.604
1111	-0
1111	-0
