Data from 17c-2a_Absorbance__118__00119.txt Node

Date: Fri Jan 26 09:51:27 CET 2024
User: Marek
Spectrometer: MAYP115816
Trigger mode: 0
Integration Time (sec): 2.000000E-1
Scans to average: 10
Electric dark correction enabled: true
Nonlinearity correction enabled: true
Boxcar width: 5
XAxis mode: Wavelengths
Number of Pixels in Spectrum: 2068
>>>>>Begin Spectral Data<<<<<
199	-1.165
199	-1.032
200	-0.892
200	-0.789
201	-0.726
201	-0.688
202	-0.63
202	-0.586
203	-0.55
203	-0.52
204	-0.5
204	-0.481
205	-0.465
205	-0.457
205	-0.456
206	-0.452
206	-0.449
207	-0.446
207	-0.446
208	-0.446
208	-0.444
209	-0.441
209	-0.439
210	-0.439
210	-0.441
211	-0.441
211	-0.443
212	-0.444
212	-0.444
213	-0.441
213	-0.438
213	-0.439
214	-0.438
214	-0.436
215	-0.433
215	-0.43
216	-0.427
216	-0.427
217	-0.424
217	-0.423
218	-0.42
218	-0.419
219	-0.416
219	-0.415
220	-0.413
220	-0.412
221	-0.411
221	-0.411
221	-0.407
222	-0.403
222	-0.4
223	-0.397
223	-0.395
224	-0.391
224	-0.385
225	-0.381
225	-0.376
226	-0.369
226	-0.36
227	-0.351
227	-0.344
228	-0.333
228	-0.321
229	-0.306
229	-0.291
229	-0.275
230	-0.256
230	-0.236
231	-0.217
231	-0.196
232	-0.177
232	-0.155
233	-0.133
233	-0.111
234	-0.091
234	-0.073
235	-0.055
235	-0.04
236	-0.025
236	-0.011
236	0.003
237	0.014
237	0.025
238	0.033
238	0.041
239	0.049
239	0.055
240	0.062
240	0.067
241	0.072
241	0.076
242	0.081
242	0.084
243	0.088
243	0.091
243	0.094
244	0.097
244	0.1
245	0.102
245	0.105
246	0.107
246	0.109
247	0.112
247	0.114
248	0.116
248	0.118
249	0.121
249	0.122
250	0.124
250	0.126
250	0.128
251	0.13
251	0.132
252	0.134
252	0.136
253	0.137
253	0.138
254	0.14
254	0.141
255	0.143
255	0.144
256	0.146
256	0.147
257	0.148
257	0.149
258	0.149
258	0.15
258	0.151
259	0.151
259	0.152
260	0.152
260	0.152
261	0.152
261	0.152
262	0.152
262	0.152
263	0.152
263	0.152
264	0.152
264	0.151
265	0.151
265	0.15
265	0.15
266	0.149
266	0.148
267	0.147
267	0.146
268	0.145
268	0.144
269	0.143
269	0.141
270	0.14
270	0.139
271	0.137
271	0.136
272	0.135
272	0.133
272	0.132
273	0.13
273	0.129
274	0.127
274	0.126
275	0.124
275	0.123
276	0.121
276	0.12
277	0.118
277	0.116
278	0.115
278	0.113
278	0.111
279	0.109
279	0.108
280	0.106
280	0.104
281	0.103
281	0.101
282	0.099
282	0.098
283	0.096
283	0.095
284	0.094
284	0.092
285	0.091
285	0.089
285	0.088
286	0.087
286	0.085
287	0.084
287	0.083
288	0.082
288	0.08
289	0.079
289	0.078
290	0.077
290	0.076
291	0.075
291	0.075
292	0.074
292	0.073
292	0.072
293	0.072
293	0.071
294	0.07
294	0.07
295	0.069
295	0.069
296	0.068
296	0.068
297	0.067
297	0.067
298	0.067
298	0.067
298	0.066
299	0.066
299	0.066
300	0.065
300	0.065
301	0.065
301	0.065
302	0.065
302	0.065
303	0.064
303	0.064
304	0.064
304	0.064
305	0.063
305	0.063
305	0.063
306	0.063
306	0.063
307	0.062
307	0.062
308	0.062
308	0.062
309	0.061
309	0.061
310	0.061
310	0.061
311	0.061
311	0.061
311	0.061
312	0.061
312	0.06
313	0.06
313	0.06
314	0.06
314	0.06
315	0.06
315	0.06
316	0.06
316	0.059
317	0.059
317	0.059
318	0.059
318	0.059
318	0.059
319	0.058
319	0.058
320	0.058
320	0.058
321	0.058
321	0.057
322	0.057
322	0.057
323	0.057
323	0.057
324	0.056
324	0.056
324	0.056
325	0.056
325	0.056
326	0.056
326	0.056
327	0.056
327	0.056
328	0.055
328	0.055
329	0.055
329	0.055
330	0.055
330	0.054
330	0.054
331	0.054
331	0.054
332	0.054
332	0.053
333	0.053
333	0.053
334	0.053
334	0.053
335	0.052
335	0.052
336	0.052
336	0.052
336	0.052
337	0.052
337	0.052
338	0.052
338	0.051
339	0.051
339	0.051
340	0.051
340	0.051
341	0.051
341	0.051
342	0.051
342	0.051
342	0.05
343	0.05
343	0.05
344	0.05
344	0.05
345	0.05
345	0.05
346	0.05
346	0.05
347	0.049
347	0.049
348	0.049
348	0.049
348	0.049
349	0.049
349	0.049
350	0.049
350	0.048
351	0.048
351	0.048
352	0.048
352	0.048
353	0.048
353	0.048
354	0.048
354	0.048
354	0.048
355	0.048
355	0.048
356	0.048
356	0.047
357	0.047
357	0.047
358	0.047
358	0.047
359	0.047
359	0.047
360	0.047
360	0.047
360	0.047
361	0.047
361	0.047
362	0.048
362	0.048
363	0.048
363	0.048
364	0.048
364	0.048
365	0.048
365	0.048
366	0.048
366	0.048
366	0.048
367	0.048
367	0.048
368	0.048
368	0.048
369	0.048
369	0.048
370	0.048
370	0.048
371	0.047
371	0.047
372	0.047
372	0.047
372	0.047
373	0.047
373	0.047
374	0.047
374	0.047
375	0.047
375	0.048
376	0.048
376	0.048
377	0.048
377	0.048
378	0.048
378	0.049
378	0.049
379	0.049
379	0.049
380	0.049
380	0.049
381	0.049
381	0.049
382	0.049
382	0.049
383	0.049
383	0.049
383	0.049
384	0.049
384	0.049
385	0.049
385	0.049
386	0.049
386	0.049
387	0.049
387	0.049
388	0.049
388	0.049
389	0.049
389	0.049
389	0.049
390	0.049
390	0.049
391	0.049
391	0.049
392	0.049
392	0.049
393	0.05
393	0.05
394	0.05
394	0.05
394	0.05
395	0.05
395	0.05
396	0.05
396	0.049
397	0.049
397	0.049
398	0.05
398	0.049
399	0.049
399	0.049
400	0.049
400	0.049
400	0.049
401	0.049
401	0.049
402	0.049
402	0.049
403	0.048
403	0.048
404	0.049
404	0.049
405	0.049
405	0.049
405	0.049
406	0.049
406	0.049
407	0.049
407	0.049
408	0.049
408	0.049
409	0.049
409	0.049
410	0.049
410	0.049
411	0.049
411	0.049
411	0.049
412	0.049
412	0.049
413	0.049
413	0.049
414	0.049
414	0.049
415	0.049
415	0.049
416	0.049
416	0.049
416	0.049
417	0.049
417	0.049
418	0.049
418	0.049
419	0.049
419	0.049
420	0.049
420	0.05
421	0.05
421	0.05
421	0.05
422	0.051
422	0.051
423	0.051
423	0.051
424	0.051
424	0.051
425	0.051
425	0.051
426	0.051
426	0.051
427	0.051
427	0.05
427	0.051
428	0.051
428	0.051
429	0.051
429	0.051
430	0.051
430	0.051
431	0.051
431	0.051
432	0.051
432	0.051
432	0.051
433	0.051
433	0.051
434	0.051
434	0.051
435	0.051
435	0.051
436	0.051
436	0.051
437	0.051
437	0.051
437	0.051
438	0.051
438	0.051
439	0.051
439	0.051
440	0.05
440	0.05
441	0.05
441	0.05
442	0.05
442	0.05
442	0.05
443	0.05
443	0.051
444	0.05
444	0.051
445	0.051
445	0.051
446	0.051
446	0.051
447	0.051
447	0.051
447	0.051
448	0.051
448	0.051
449	0.051
449	0.051
450	0.052
450	0.052
451	0.052
451	0.052
452	0.052
452	0.052
452	0.052
453	0.052
453	0.052
454	0.052
454	0.052
455	0.052
455	0.052
456	0.051
456	0.051
457	0.051
457	0.051
458	0.051
458	0.052
458	0.052
459	0.052
459	0.052
460	0.053
460	0.053
461	0.053
461	0.053
462	0.053
462	0.053
463	0.053
463	0.054
463	0.053
464	0.053
464	0.053
465	0.053
465	0.053
466	0.053
466	0.053
467	0.053
467	0.053
467	0.053
468	0.052
468	0.052
469	0.052
469	0.052
470	0.052
470	0.052
471	0.052
471	0.052
472	0.052
472	0.052
472	0.053
473	0.053
473	0.053
474	0.053
474	0.054
475	0.054
475	0.054
476	0.054
476	0.054
477	0.054
477	0.054
477	0.054
478	0.054
478	0.054
479	0.055
479	0.055
480	0.055
480	0.055
481	0.056
481	0.056
482	0.056
482	0.057
482	0.057
483	0.058
483	0.059
484	0.059
484	0.059
485	0.059
485	0.06
486	0.06
486	0.06
487	0.06
487	0.061
487	0.061
488	0.06
488	0.06
489	0.061
489	0.061
490	0.061
490	0.061
491	0.061
491	0.062
492	0.062
492	0.062
492	0.062
493	0.062
493	0.063
494	0.063
494	0.064
495	0.064
495	0.064
496	0.065
496	0.065
496	0.066
497	0.066
497	0.067
498	0.067
498	0.068
499	0.068
499	0.069
500	0.069
500	0.069
501	0.07
501	0.07
501	0.07
502	0.071
502	0.071
503	0.072
503	0.072
504	0.073
504	0.073
505	0.073
505	0.074
506	0.074
506	0.075
506	0.075
507	0.075
507	0.075
508	0.076
508	0.076
509	0.076
509	0.077
510	0.077
510	0.077
511	0.078
511	0.078
511	0.078
512	0.078
512	0.079
513	0.079
513	0.079
514	0.078
514	0.078
515	0.079
515	0.079
515	0.078
516	0.079
516	0.079
517	0.08
517	0.08
518	0.08
518	0.08
519	0.08
519	0.08
520	0.08
520	0.08
520	0.08
521	0.079
521	0.078
522	0.077
522	0.077
523	0.077
523	0.077
524	0.077
524	0.076
524	0.076
525	0.076
525	0.077
526	0.077
526	0.077
527	0.078
527	0.078
528	0.078
528	0.079
529	0.079
529	0.078
529	0.079
530	0.079
530	0.079
531	0.079
531	0.078
532	0.078
532	0.078
533	0.078
533	0.077
533	0.077
534	0.076
534	0.076
535	0.075
535	0.075
536	0.074
536	0.074
537	0.073
537	0.073
538	0.072
538	0.072
538	0.071
539	0.071
539	0.071
540	0.07
540	0.07
541	0.069
541	0.069
542	0.069
542	0.068
542	0.068
543	0.067
543	0.067
544	0.066
544	0.066
545	0.065
545	0.065
546	0.065
546	0.065
547	0.065
547	0.065
547	0.064
548	0.064
548	0.064
549	0.064
549	0.063
550	0.063
550	0.062
551	0.061
551	0.061
551	0.061
552	0.06
552	0.06
553	0.06
553	0.059
554	0.059
554	0.058
555	0.058
555	0.057
556	0.056
556	0.055
556	0.055
557	0.054
557	0.054
558	0.053
558	0.052
559	0.052
559	0.051
560	0.051
560	0.051
560	0.051
561	0.051
561	0.051
562	0.05
562	0.05
563	0.049
563	0.048
564	0.048
564	0.048
564	0.047
565	0.047
565	0.046
566	0.045
566	0.045
567	0.045
567	0.045
568	0.045
568	0.045
568	0.045
569	0.045
569	0.045
570	0.045
570	0.045
571	0.045
571	0.045
572	0.045
572	0.045
573	0.044
573	0.044
573	0.043
574	0.043
574	0.043
575	0.043
575	0.043
576	0.043
576	0.042
577	0.042
577	0.041
577	0.041
578	0.041
578	0.042
579	0.042
579	0.042
580	0.042
580	0.041
581	0.04
581	0.04
581	0.04
582	0.04
582	0.04
583	0.04
583	0.04
584	0.038
584	0.037
585	0.037
585	0.038
585	0.038
586	0.038
586	0.038
587	0.037
587	0.036
588	0.036
588	0.036
589	0.036
589	0.035
590	0.035
590	0.036
590	0.036
591	0.036
591	0.036
592	0.036
592	0.036
593	0.036
593	0.036
594	0.036
594	0.035
594	0.035
595	0.035
595	0.035
596	0.035
596	0.036
597	0.037
597	0.037
598	0.038
598	0.038
598	0.039
599	0.039
599	0.039
600	0.039
600	0.039
601	0.039
601	0.038
602	0.038
602	0.037
602	0.037
603	0.037
603	0.038
604	0.038
604	0.038
605	0.039
605	0.039
606	0.039
606	0.039
606	0.039
607	0.038
607	0.038
608	0.038
608	0.037
609	0.036
609	0.036
610	0.036
610	0.035
610	0.036
611	0.036
611	0.037
612	0.038
612	0.039
613	0.04
613	0.041
614	0.041
614	0.041
614	0.041
615	0.041
615	0.041
616	0.042
616	0.041
617	0.041
617	0.041
618	0.041
618	0.041
618	0.041
619	0.041
619	0.041
620	0.042
620	0.042
621	0.042
621	0.042
622	0.043
622	0.043
622	0.043
623	0.043
623	0.043
624	0.043
624	0.043
625	0.043
625	0.044
626	0.044
626	0.044
626	0.044
627	0.045
627	0.045
628	0.046
628	0.046
629	0.046
629	0.047
630	0.047
630	0.047
630	0.047
631	0.047
631	0.047
632	0.047
632	0.047
633	0.047
633	0.047
634	0.048
634	0.049
634	0.049
635	0.05
635	0.05
636	0.051
636	0.051
637	0.051
637	0.052
638	0.052
638	0.053
638	0.053
639	0.053
639	0.053
640	0.054
640	0.054
641	0.055
641	0.055
642	0.056
642	0.057
642	0.058
643	0.059
643	0.059
644	0.06
644	0.06
645	0.061
645	0.062
646	0.063
646	0.064
646	0.065
647	0.066
647	0.067
648	0.068
648	0.069
649	0.07
649	0.071
650	0.072
650	0.074
650	0.075
651	0.076
651	0.077
652	0.077
652	0.078
653	0.079
653	0.083
653	0.076
654	0.062
654	0.051
655	0.052
655	0.053
656	0.053
656	0.054
657	0.055
657	0.056
657	0.057
658	0.056
658	0.06
659	0.074
659	0.093
660	0.096
660	0.097
661	0.098
661	0.099
661	0.1
662	0.101
662	0.101
663	0.103
663	0.103
664	0.104
664	0.105
665	0.106
665	0.107
665	0.108
666	0.109
666	0.109
667	0.11
667	0.111
668	0.112
668	0.113
669	0.114
669	0.115
669	0.116
670	0.117
670	0.118
671	0.118
671	0.119
672	0.12
672	0.12
672	0.12
673	0.121
673	0.122
674	0.122
674	0.123
675	0.124
675	0.125
676	0.127
676	0.128
676	0.129
677	0.131
677	0.132
678	0.132
678	0.133
679	0.133
679	0.134
680	0.135
680	0.136
680	0.136
681	0.136
681	0.137
682	0.137
682	0.138
683	0.138
683	0.139
684	0.14
684	0.14
684	0.139
685	0.139
685	0.139
686	0.139
686	0.139
687	0.138
687	0.138
687	0.138
688	0.137
688	0.137
689	0.138
689	0.138
690	0.138
690	0.138
691	0.138
691	0.138
691	0.138
692	0.138
692	0.137
693	0.137
693	0.137
694	0.137
694	0.136
695	0.136
695	0.137
695	0.136
696	0.136
696	0.135
697	0.135
697	0.135
698	0.134
698	0.133
698	0.133
699	0.132
699	0.131
700	0.13
700	0.129
701	0.129
701	0.128
702	0.127
702	0.126
702	0.126
703	0.124
703	0.123
704	0.123
704	0.122
705	0.122
705	0.121
705	0.121
706	0.121
706	0.121
707	0.12
707	0.12
708	0.12
708	0.119
709	0.119
709	0.118
709	0.117
710	0.117
710	0.116
711	0.115
711	0.114
712	0.113
712	0.111
713	0.11
713	0.109
713	0.108
714	0.107
714	0.105
715	0.104
715	0.103
716	0.102
716	0.1
716	0.099
717	0.098
717	0.097
718	0.096
718	0.095
719	0.094
719	0.093
720	0.093
720	0.092
720	0.09
721	0.089
721	0.089
722	0.088
722	0.087
723	0.086
723	0.086
723	0.085
724	0.085
724	0.084
725	0.084
725	0.083
726	0.083
726	0.083
727	0.082
727	0.082
727	0.081
728	0.08
728	0.08
729	0.079
729	0.079
730	0.078
730	0.077
730	0.076
731	0.075
731	0.075
732	0.074
732	0.073
733	0.073
733	0.072
734	0.071
734	0.071
734	0.07
735	0.07
735	0.07
736	0.069
736	0.069
737	0.068
737	0.068
737	0.067
738	0.065
738	0.064
739	0.063
739	0.062
740	0.061
740	0.061
741	0.061
741	0.06
741	0.059
742	0.059
742	0.058
743	0.058
743	0.058
744	0.058
744	0.057
744	0.056
745	0.056
745	0.055
746	0.054
746	0.053
747	0.052
747	0.052
748	0.051
748	0.05
748	0.049
749	0.049
749	0.048
750	0.048
750	0.047
751	0.047
751	0.047
751	0.047
752	0.047
752	0.047
753	0.047
753	0.047
754	0.047
754	0.047
754	0.047
755	0.048
755	0.048
756	0.047
756	0.046
757	0.046
757	0.045
758	0.045
758	0.044
758	0.044
759	0.043
759	0.043
760	0.042
760	0.041
761	0.04
761	0.04
761	0.04
762	0.039
762	0.039
763	0.039
763	0.038
764	0.037
764	0.037
764	0.036
765	0.035
765	0.035
766	0.034
766	0.034
767	0.034
767	0.032
768	0.031
768	0.03
768	0.029
769	0.028
769	0.027
770	0.025
770	0.024
771	0.022
771	0.021
771	0.019
772	0.018
772	0.017
773	0.016
773	0.015
774	0.014
774	0.014
775	0.013
775	0.013
775	0.013
776	0.013
776	0.012
777	0.012
777	0.011
778	0.011
778	0.01
778	0.009
779	0.008
779	0.008
780	0.006
780	0.005
781	0.003
781	0.001
781	-0.001
782	-0.003
782	-0.006
783	-0.009
783	-0.011
784	-0.014
784	-0.017
784	-0.02
785	-0.023
785	-0.027
786	-0.03
786	-0.032
787	-0.034
787	-0.037
788	-0.041
788	-0.045
788	-0.05
789	-0.055
789	-0.06
790	-0.065
790	-0.071
791	-0.077
791	-0.084
791	-0.09
792	-0.089
792	-0.084
793	-0.084
793	-0.085
794	-0.088
794	-0.093
794	-0.098
795	-0.102
795	-0.104
796	-0.104
796	-0.107
797	-0.116
797	-0.127
797	-0.134
798	-0.139
798	-0.142
799	-0.143
799	-0.142
800	-0.142
800	-0.143
801	-0.146
801	-0.147
801	-0.146
802	-0.147
802	-0.148
803	-0.149
803	-0.149
804	-0.148
804	-0.143
804	-0.136
805	-0.133
805	-0.131
806	-0.129
806	-0.128
807	-0.128
807	-0.128
807	-0.128
808	-0.128
808	-0.13
809	-0.134
809	-0.14
810	-0.144
810	-0.147
810	-0.15
811	-0.153
811	-0.154
812	-0.15
812	-0.146
813	-0.143
813	-0.14
813	-0.135
814	-0.13
814	-0.123
815	-0.114
815	-0.105
816	-0.094
816	-0.085
817	-0.079
817	-0.07
817	-0.061
818	-0.053
818	-0.045
819	-0.038
819	-0.032
820	-0.028
820	-0.023
820	-0.019
821	-0.015
821	-0.012
822	-0.009
822	-0.006
823	-0.003
823	-0.002
823	0
824	0.002
824	0.004
825	0.006
825	0.009
826	0.011
826	0.012
826	0.014
827	0.015
827	0.017
828	0.018
828	0.019
829	0.02
829	0.02
829	0.02
830	0.02
830	0.02
831	0.02
831	0.021
832	0.021
832	0.021
832	0.021
833	0.022
833	0.022
834	0.023
834	0.023
835	0.024
835	0.024
835	0.024
836	0.024
836	0.025
837	0.025
837	0.025
838	0.025
838	0.025
839	0.025
839	0.025
839	0.024
840	0.024
840	0.023
841	0.023
841	0.022
842	0.022
842	0.022
842	0.022
843	0.022
843	0.021
844	0.021
844	0.021
845	0.021
845	0.021
845	0.022
846	0.022
846	0.022
847	0.022
847	0.022
848	0.022
848	0.023
848	0.023
849	0.023
849	0.023
850	0.023
850	0.022
851	0.022
851	0.022
851	0.022
852	0.021
852	0.021
853	0.021
853	0.021
854	0.021
854	0.021
854	0.022
855	0.022
855	0.022
856	0.022
856	0.022
857	0.021
857	0.021
857	0.021
858	0.021
858	0.021
859	0.021
859	0.021
860	0.022
860	0.022
860	0.023
861	0.024
861	0.025
862	0.025
862	0.026
863	0.027
863	0.027
863	0.028
864	0.028
864	0.028
865	0.028
865	0.028
866	0.028
866	0.028
866	0.028
867	0.028
867	0.028
868	0.028
868	0.028
869	0.028
869	0.027
869	0.027
870	0.027
870	0.027
871	0.028
871	0.028
872	0.029
872	0.029
872	0.03
873	0.031
873	0.031
874	0.032
874	0.032
875	0.032
875	0.032
875	0.032
876	0.031
876	0.03
877	0.029
877	0.028
878	0.027
878	0.026
878	0.025
879	0.024
879	0.023
880	0.023
880	0.022
881	0.022
881	0.022
881	0.022
882	0.022
882	0.022
883	0.022
883	0.022
884	0.022
884	0.022
884	0.022
885	0.022
885	0.022
886	0.022
886	0.022
887	0.022
887	0.022
887	0.022
888	0.023
888	0.023
889	0.024
889	0.025
890	0.026
890	0.027
890	0.027
891	0.028
891	0.029
892	0.029
892	0.03
893	0.03
893	0.031
893	0.031
894	0.031
894	0.03
895	0.029
895	0.028
895	0.027
896	0.026
896	0.025
897	0.024
897	0.023
898	0.022
898	0.022
898	0.021
899	0.021
899	0.021
900	0.02
900	0.021
901	0.021
901	0.021
901	0.02
902	0.021
902	0.02
903	0.02
903	0.021
904	0.021
904	0.021
904	0.022
905	0.022
905	0.022
906	0.023
906	0.023
907	0.024
907	0.024
907	0.025
908	0.026
908	0.026
909	0.027
909	0.028
910	0.029
910	0.03
910	0.031
911	0.031
911	0.032
912	0.032
912	0.032
913	0.032
913	0.032
913	0.031
914	0.03
914	0.03
915	0.029
915	0.028
916	0.027
916	0.025
916	0.024
917	0.022
917	0.02
918	0.018
918	0.016
918	0.014
919	0.013
919	0.011
920	0.01
920	0.009
921	0.008
921	0.008
921	0.008
922	0.009
922	0.01
923	0.01
923	0.011
924	0.012
924	0.013
924	0.014
925	0.016
925	0.017
926	0.018
926	0.019
927	0.019
927	0.02
927	0.02
928	0.021
928	0.021
929	0.021
929	0.021
930	0.021
930	0.02
930	0.02
931	0.02
931	0.02
932	0.019
932	0.019
933	0.019
933	0.018
933	0.018
934	0.017
934	0.016
935	0.016
935	0.015
935	0.014
936	0.014
936	0.013
937	0.013
937	0.013
938	0.013
938	0.012
938	0.013
939	0.013
939	0.013
940	0.014
940	0.014
941	0.015
941	0.016
941	0.017
942	0.018
942	0.019
943	0.02
943	0.021
944	0.022
944	0.023
944	0.023
945	0.024
945	0.025
946	0.025
946	0.026
946	0.026
947	0.026
947	0.027
948	0.027
948	0.027
949	0.027
949	0.027
949	0.027
950	0.027
950	0.026
951	0.026
951	0.025
952	0.025
952	0.024
952	0.023
953	0.022
953	0.022
954	0.021
954	0.021
955	0.02
955	0.02
955	0.02
956	0.02
956	0.02
957	0.02
957	0.02
957	0.02
958	0.021
958	0.021
959	0.022
959	0.022
960	0.023
960	0.023
960	0.024
961	0.024
961	0.025
962	0.025
962	0.025
963	0.026
963	0.026
963	0.026
964	0.026
964	0.026
965	0.026
965	0.026
966	0.026
966	0.027
966	0.026
967	0.026
967	0.026
968	0.026
968	0.026
968	0.026
969	0.026
969	0.026
970	0.025
970	0.025
971	0.025
971	0.024
971	0.024
972	0.024
972	0.023
973	0.023
973	0.022
974	0.022
974	0.022
974	0.022
975	0.022
975	0.023
976	0.023
976	0.024
976	0.024
977	0.025
977	0.025
978	0.026
978	0.026
979	0.026
979	0.026
979	0.026
980	0.026
980	0.025
981	0.024
981	0.024
982	0.023
982	0.022
982	0.021
983	0.02
983	0.019
984	0.018
984	0.016
984	0.015
985	0.014
985	0.014
986	0.013
986	0.012
987	0.012
987	0.012
987	0.012
988	0.012
988	0.012
989	0.013
989	0.014
990	0.015
990	0.016
990	0.017
991	0.018
991	0.018
992	0.019
992	0.02
992	0.02
993	0.02
993	0.021
994	0.021
994	0.021
995	0.021
995	0.021
995	0.021
996	0.021
996	0.021
997	0.021
997	0.02
997	0.021
998	0.021
998	0.021
999	0.022
999	0.022
1000	0.022
1000	0.022
1000	0.023
1001	0.023
1001	0.023
1002	0.024
1002	0.024
1003	0.024
1003	0.024
1003	0.024
1004	0.024
1004	0.024
1005	0.024
1005	0.023
1005	0.023
1006	0.023
1006	0.023
1007	0.022
1007	0.022
1008	0.022
1008	0.022
1008	0.021
1009	0.021
1009	0.021
1010	0.02
1010	0.02
1010	0.02
1011	0.02
1011	0.02
1012	0.02
1012	0.019
1013	0.019
1013	0.019
1013	0.018
1014	0.018
1014	0.017
1015	0.017
1015	0.016
1016	0.015
1016	0.015
1016	0.014
1017	0.014
1017	0.013
1018	0.012
1018	0.012
1018	0.012
1019	0.011
1019	0.01
1020	0.01
1020	0.01
1021	0.01
1021	0.01
1021	0.01
1022	0.01
1022	0.01
1023	0.01
1023	0.011
1023	0.011
1024	0.011
1024	0.011
1025	0.012
1025	0.012
1026	0.012
1026	0.012
1026	0.011
1027	0.011
1027	0.011
1028	0.011
1028	0.01
1028	0.01
1029	0.009
1029	0.009
1030	0.009
1030	0.008
1031	0.008
1031	0.008
1031	0.008
1032	0.008
1032	0.008
1033	0.008
1033	0.008
1033	0.008
1034	0.008
1034	0.008
1035	0.008
1035	0.008
1036	0.009
1036	0.009
1036	0.009
1037	0.01
1037	0.01
1038	0.01
1038	0.011
1039	0.012
1039	0.012
1039	0.013
1040	0.014
1040	0.015
1041	0.017
1041	0.018
1041	0.019
1042	0.019
1042	0.02
1043	0.021
1043	0.022
1044	0.023
1044	0.023
1044	0.023
1045	0.024
1045	0.023
1046	0.023
1046	0.023
1046	0.022
1047	0.022
1047	0.021
1048	0.02
1048	0.02
1049	0.019
1049	0.017
1049	0.017
1050	0.016
1050	0.015
1051	0.014
1051	0.014
1051	0.014
1052	0.013
1052	0.012
1053	0.012
1053	0.011
1053	0.011
1054	0.011
1054	0.01
1055	0.01
1055	0.01
1056	0.009
1056	0.009
1056	0.008
1057	0.008
1057	0.008
1058	0.008
1058	0.008
1058	0.008
1059	0.009
1059	0.008
1060	0.009
1060	0.009
1061	0.01
1061	0.01
1061	0.01
1062	0.011
1062	0.011
1063	0.011
1063	0.011
1063	0.011
1064	0.011
1064	0.011
1065	0.011
1065	0.011
1066	0.01
1066	0.01
1066	0.01
1067	0.01
1067	0.01
1068	0.01
1068	0.009
1068	0.009
1069	0.008
1069	0.008
1070	0.007
1070	0.007
1071	0.006
1071	0.006
1071	0.005
1072	0.005
1072	0.004
1073	0.003
1073	0.003
1073	0.003
1074	0.003
1074	0.003
1075	0.002
1075	0.002
1076	0.001
1076	0.001
1076	0.001
1077	0.002
1077	0.002
1078	0.002
1078	0.002
1078	0.003
1079	0.003
1079	0.003
1080	0.003
1080	0.004
1080	0.003
1081	0.004
1081	0.004
1082	0.004
1082	0.004
1083	0.004
1083	0.004
1083	0.004
1084	0.004
1084	0.004
1085	0.004
1085	0.004
1085	0.004
1086	0.004
1086	0.003
1087	0.004
1087	0.004
1088	0.004
1088	0.004
1088	0.004
1089	0.004
1089	0.004
1090	0.004
1090	0.004
1090	0.004
1091	0.004
1091	0.004
1092	0.004
1092	0.004
1092	0.004
1093	0.005
1093	0.005
1094	0.006
1094	0.006
1095	0.005
1095	0.006
1095	0.007
1096	0.006
1096	0.007
1097	0.007
1097	0.008
1097	0.009
1098	0.01
1098	0.011
1099	0.012
1099	0.013
1100	0.014
1100	0.015
1100	0.016
1101	0.017
1101	0.019
1102	0.02
1102	0.021
1102	0.022
1103	0.023
1103	0.025
1104	0.027
1104	0.029
1104	0.032
1105	0.034
1105	0.037
1106	0.039
1106	0.042
1107	0.045
1107	0.048
1107	0.053
1108	0.067
1108	0.087
1109	0.111
1109	0.142
1109	0.163
1110	0.198
1110	0.254
1111	0.372
1111	0.811
