Data from 17c-2a_Absorbance__92__00093.txt Node

Date: Fri Jan 26 09:50:35 CET 2024
User: Marek
Spectrometer: MAYP115816
Trigger mode: 0
Integration Time (sec): 2.000000E-1
Scans to average: 10
Electric dark correction enabled: true
Nonlinearity correction enabled: true
Boxcar width: 5
XAxis mode: Wavelengths
Number of Pixels in Spectrum: 2068
>>>>>Begin Spectral Data<<<<<
199	-1.145
199	-1.012
200	-0.875
200	-0.774
201	-0.712
201	-0.675
202	-0.618
202	-0.576
203	-0.541
203	-0.511
204	-0.491
204	-0.472
205	-0.456
205	-0.448
205	-0.446
206	-0.442
206	-0.439
207	-0.436
207	-0.436
208	-0.435
208	-0.433
209	-0.431
209	-0.428
210	-0.429
210	-0.43
211	-0.431
211	-0.432
212	-0.433
212	-0.432
213	-0.431
213	-0.428
213	-0.429
214	-0.427
214	-0.426
215	-0.422
215	-0.421
216	-0.417
216	-0.417
217	-0.414
217	-0.412
218	-0.409
218	-0.408
219	-0.405
219	-0.404
220	-0.404
220	-0.405
221	-0.402
221	-0.401
221	-0.398
222	-0.392
222	-0.391
223	-0.387
223	-0.385
224	-0.382
224	-0.376
225	-0.371
225	-0.366
226	-0.36
226	-0.351
227	-0.345
227	-0.339
228	-0.327
228	-0.316
229	-0.301
229	-0.286
229	-0.269
230	-0.25
230	-0.231
231	-0.211
231	-0.191
232	-0.169
232	-0.147
233	-0.125
233	-0.105
234	-0.086
234	-0.067
235	-0.05
235	-0.034
236	-0.019
236	-0.005
236	0.007
237	0.018
237	0.028
238	0.036
238	0.044
239	0.052
239	0.058
240	0.064
240	0.069
241	0.074
241	0.078
242	0.082
242	0.086
243	0.09
243	0.093
243	0.096
244	0.099
244	0.101
245	0.104
245	0.106
246	0.109
246	0.111
247	0.113
247	0.115
248	0.117
248	0.12
249	0.122
249	0.124
250	0.126
250	0.128
250	0.129
251	0.131
251	0.133
252	0.135
252	0.137
253	0.138
253	0.14
254	0.142
254	0.143
255	0.145
255	0.146
256	0.147
256	0.149
257	0.15
257	0.15
258	0.151
258	0.152
258	0.153
259	0.153
259	0.153
260	0.154
260	0.154
261	0.154
261	0.154
262	0.154
262	0.154
263	0.154
263	0.154
264	0.153
264	0.153
265	0.153
265	0.152
265	0.152
266	0.151
266	0.15
267	0.149
267	0.148
268	0.147
268	0.146
269	0.145
269	0.144
270	0.142
270	0.141
271	0.14
271	0.138
272	0.137
272	0.135
272	0.133
273	0.132
273	0.13
274	0.129
274	0.127
275	0.126
275	0.124
276	0.123
276	0.121
277	0.119
277	0.118
278	0.116
278	0.114
278	0.113
279	0.111
279	0.109
280	0.107
280	0.106
281	0.104
281	0.102
282	0.101
282	0.099
283	0.098
283	0.097
284	0.095
284	0.094
285	0.093
285	0.091
285	0.09
286	0.088
286	0.087
287	0.086
287	0.085
288	0.083
288	0.082
289	0.081
289	0.08
290	0.079
290	0.078
291	0.077
291	0.076
292	0.075
292	0.075
292	0.074
293	0.073
293	0.072
294	0.072
294	0.071
295	0.071
295	0.07
296	0.07
296	0.069
297	0.069
297	0.069
298	0.068
298	0.068
298	0.068
299	0.067
299	0.067
300	0.067
300	0.067
301	0.066
301	0.066
302	0.066
302	0.066
303	0.066
303	0.065
304	0.065
304	0.065
305	0.065
305	0.065
305	0.064
306	0.064
306	0.064
307	0.064
307	0.063
308	0.063
308	0.063
309	0.063
309	0.063
310	0.062
310	0.062
311	0.062
311	0.062
311	0.062
312	0.062
312	0.062
313	0.062
313	0.062
314	0.062
314	0.061
315	0.061
315	0.061
316	0.061
316	0.061
317	0.061
317	0.061
318	0.061
318	0.06
318	0.06
319	0.06
319	0.06
320	0.06
320	0.059
321	0.059
321	0.059
322	0.059
322	0.058
323	0.058
323	0.058
324	0.057
324	0.057
324	0.057
325	0.057
325	0.057
326	0.057
326	0.057
327	0.057
327	0.057
328	0.056
328	0.056
329	0.056
329	0.056
330	0.056
330	0.055
330	0.055
331	0.055
331	0.055
332	0.055
332	0.054
333	0.054
333	0.054
334	0.054
334	0.054
335	0.054
335	0.054
336	0.053
336	0.053
336	0.053
337	0.053
337	0.053
338	0.053
338	0.053
339	0.053
339	0.053
340	0.053
340	0.052
341	0.052
341	0.052
342	0.052
342	0.052
342	0.052
343	0.051
343	0.051
344	0.051
344	0.051
345	0.051
345	0.051
346	0.051
346	0.051
347	0.051
347	0.051
348	0.05
348	0.05
348	0.05
349	0.05
349	0.05
350	0.05
350	0.05
351	0.05
351	0.05
352	0.05
352	0.05
353	0.049
353	0.049
354	0.049
354	0.049
354	0.049
355	0.049
355	0.049
356	0.049
356	0.048
357	0.048
357	0.048
358	0.048
358	0.048
359	0.048
359	0.049
360	0.049
360	0.049
360	0.049
361	0.049
361	0.049
362	0.049
362	0.049
363	0.049
363	0.049
364	0.049
364	0.049
365	0.049
365	0.049
366	0.049
366	0.05
366	0.05
367	0.05
367	0.05
368	0.049
368	0.049
369	0.049
369	0.049
370	0.049
370	0.049
371	0.049
371	0.049
372	0.049
372	0.049
372	0.049
373	0.049
373	0.049
374	0.049
374	0.049
375	0.049
375	0.049
376	0.049
376	0.049
377	0.049
377	0.05
378	0.05
378	0.05
378	0.05
379	0.05
379	0.05
380	0.05
380	0.05
381	0.05
381	0.05
382	0.05
382	0.05
383	0.05
383	0.05
383	0.05
384	0.05
384	0.05
385	0.05
385	0.05
386	0.05
386	0.05
387	0.05
387	0.05
388	0.05
388	0.05
389	0.05
389	0.05
389	0.05
390	0.05
390	0.05
391	0.05
391	0.05
392	0.05
392	0.05
393	0.05
393	0.05
394	0.05
394	0.05
394	0.05
395	0.05
395	0.05
396	0.05
396	0.05
397	0.05
397	0.05
398	0.05
398	0.05
399	0.05
399	0.05
400	0.05
400	0.05
400	0.05
401	0.05
401	0.05
402	0.05
402	0.05
403	0.05
403	0.049
404	0.049
404	0.05
405	0.05
405	0.05
405	0.05
406	0.05
406	0.05
407	0.05
407	0.05
408	0.05
408	0.05
409	0.051
409	0.051
410	0.051
410	0.051
411	0.051
411	0.051
411	0.051
412	0.051
412	0.051
413	0.051
413	0.051
414	0.051
414	0.051
415	0.05
415	0.05
416	0.05
416	0.05
416	0.05
417	0.05
417	0.05
418	0.05
418	0.05
419	0.05
419	0.051
420	0.051
420	0.051
421	0.051
421	0.052
421	0.052
422	0.052
422	0.052
423	0.052
423	0.052
424	0.052
424	0.052
425	0.052
425	0.052
426	0.052
426	0.052
427	0.051
427	0.051
427	0.052
428	0.052
428	0.052
429	0.052
429	0.052
430	0.052
430	0.052
431	0.052
431	0.052
432	0.052
432	0.052
432	0.052
433	0.052
433	0.052
434	0.052
434	0.052
435	0.052
435	0.052
436	0.052
436	0.052
437	0.052
437	0.052
437	0.052
438	0.052
438	0.052
439	0.052
439	0.051
440	0.051
440	0.051
441	0.051
441	0.051
442	0.051
442	0.052
442	0.052
443	0.052
443	0.052
444	0.052
444	0.052
445	0.052
445	0.052
446	0.052
446	0.052
447	0.052
447	0.052
447	0.052
448	0.052
448	0.052
449	0.052
449	0.053
450	0.053
450	0.053
451	0.053
451	0.053
452	0.054
452	0.053
452	0.053
453	0.053
453	0.053
454	0.053
454	0.053
455	0.052
455	0.052
456	0.052
456	0.052
457	0.052
457	0.052
458	0.052
458	0.052
458	0.053
459	0.053
459	0.053
460	0.053
460	0.053
461	0.053
461	0.053
462	0.054
462	0.054
463	0.054
463	0.054
463	0.054
464	0.054
464	0.054
465	0.054
465	0.054
466	0.054
466	0.055
467	0.054
467	0.054
467	0.054
468	0.054
468	0.054
469	0.054
469	0.053
470	0.053
470	0.053
471	0.053
471	0.053
472	0.053
472	0.054
472	0.054
473	0.054
473	0.054
474	0.055
474	0.055
475	0.055
475	0.055
476	0.055
476	0.055
477	0.055
477	0.056
477	0.055
478	0.055
478	0.055
479	0.056
479	0.056
480	0.056
480	0.056
481	0.056
481	0.057
482	0.057
482	0.057
482	0.058
483	0.059
483	0.059
484	0.06
484	0.06
485	0.06
485	0.061
486	0.061
486	0.061
487	0.061
487	0.062
487	0.062
488	0.062
488	0.061
489	0.062
489	0.062
490	0.062
490	0.062
491	0.063
491	0.063
492	0.063
492	0.063
492	0.064
493	0.064
493	0.064
494	0.065
494	0.065
495	0.065
495	0.066
496	0.066
496	0.066
496	0.067
497	0.067
497	0.068
498	0.068
498	0.069
499	0.069
499	0.07
500	0.07
500	0.07
501	0.071
501	0.071
501	0.072
502	0.072
502	0.073
503	0.073
503	0.074
504	0.074
504	0.075
505	0.075
505	0.075
506	0.076
506	0.076
506	0.077
507	0.077
507	0.077
508	0.077
508	0.078
509	0.078
509	0.078
510	0.079
510	0.079
511	0.079
511	0.08
511	0.08
512	0.08
512	0.08
513	0.08
513	0.08
514	0.08
514	0.08
515	0.08
515	0.08
515	0.08
516	0.08
516	0.081
517	0.081
517	0.081
518	0.081
518	0.081
519	0.082
519	0.082
520	0.082
520	0.081
520	0.081
521	0.081
521	0.08
522	0.079
522	0.079
523	0.078
523	0.078
524	0.078
524	0.078
524	0.078
525	0.078
525	0.079
526	0.079
526	0.079
527	0.079
527	0.08
528	0.08
528	0.08
529	0.08
529	0.08
529	0.08
530	0.08
530	0.08
531	0.08
531	0.08
532	0.08
532	0.08
533	0.08
533	0.079
533	0.079
534	0.079
534	0.078
535	0.077
535	0.077
536	0.076
536	0.076
537	0.075
537	0.075
538	0.074
538	0.074
538	0.073
539	0.073
539	0.073
540	0.072
540	0.072
541	0.072
541	0.071
542	0.071
542	0.07
542	0.07
543	0.069
543	0.069
544	0.068
544	0.068
545	0.067
545	0.067
546	0.067
546	0.066
547	0.066
547	0.066
547	0.065
548	0.065
548	0.065
549	0.065
549	0.064
550	0.064
550	0.063
551	0.063
551	0.062
551	0.062
552	0.062
552	0.061
553	0.061
553	0.061
554	0.06
554	0.06
555	0.059
555	0.058
556	0.058
556	0.057
556	0.056
557	0.055
557	0.055
558	0.054
558	0.053
559	0.053
559	0.052
560	0.052
560	0.052
560	0.052
561	0.052
561	0.052
562	0.051
562	0.051
563	0.05
563	0.049
564	0.049
564	0.049
564	0.048
565	0.047
565	0.047
566	0.046
566	0.046
567	0.045
567	0.045
568	0.046
568	0.046
568	0.046
569	0.046
569	0.046
570	0.046
570	0.046
571	0.046
571	0.046
572	0.046
572	0.045
573	0.045
573	0.044
573	0.044
574	0.044
574	0.044
575	0.044
575	0.044
576	0.044
576	0.043
577	0.043
577	0.042
577	0.042
578	0.042
578	0.043
579	0.043
579	0.043
580	0.043
580	0.042
581	0.041
581	0.041
581	0.041
582	0.041
582	0.041
583	0.041
583	0.04
584	0.039
584	0.038
585	0.038
585	0.038
585	0.038
586	0.038
586	0.038
587	0.038
587	0.037
588	0.036
588	0.036
589	0.036
589	0.036
590	0.036
590	0.036
590	0.037
591	0.037
591	0.037
592	0.037
592	0.036
593	0.037
593	0.037
594	0.036
594	0.036
594	0.035
595	0.035
595	0.035
596	0.035
596	0.036
597	0.037
597	0.037
598	0.038
598	0.039
598	0.039
599	0.04
599	0.04
600	0.04
600	0.039
601	0.039
601	0.039
602	0.038
602	0.038
602	0.037
603	0.037
603	0.038
604	0.038
604	0.038
605	0.039
605	0.039
606	0.039
606	0.039
606	0.039
607	0.038
607	0.038
608	0.038
608	0.037
609	0.036
609	0.036
610	0.036
610	0.035
610	0.036
611	0.036
611	0.037
612	0.038
612	0.039
613	0.04
613	0.041
614	0.041
614	0.041
614	0.042
615	0.042
615	0.042
616	0.042
616	0.042
617	0.042
617	0.041
618	0.041
618	0.041
618	0.041
619	0.041
619	0.041
620	0.042
620	0.042
621	0.042
621	0.042
622	0.042
622	0.043
622	0.043
623	0.043
623	0.043
624	0.043
624	0.043
625	0.043
625	0.044
626	0.044
626	0.044
626	0.045
627	0.045
627	0.046
628	0.046
628	0.046
629	0.047
629	0.047
630	0.047
630	0.047
630	0.047
631	0.048
631	0.047
632	0.047
632	0.047
633	0.047
633	0.047
634	0.048
634	0.049
634	0.049
635	0.05
635	0.05
636	0.05
636	0.051
637	0.051
637	0.051
638	0.052
638	0.053
638	0.053
639	0.053
639	0.053
640	0.054
640	0.054
641	0.055
641	0.056
642	0.056
642	0.057
642	0.058
643	0.059
643	0.059
644	0.06
644	0.061
645	0.061
645	0.062
646	0.063
646	0.064
646	0.065
647	0.066
647	0.067
648	0.068
648	0.069
649	0.07
649	0.071
650	0.073
650	0.074
650	0.075
651	0.076
651	0.077
652	0.078
652	0.078
653	0.079
653	0.083
653	0.076
654	0.062
654	0.05
655	0.052
655	0.052
656	0.053
656	0.054
657	0.055
657	0.056
657	0.057
658	0.056
658	0.06
659	0.074
659	0.093
660	0.096
660	0.097
661	0.098
661	0.099
661	0.1
662	0.101
662	0.102
663	0.103
663	0.104
664	0.105
664	0.106
665	0.107
665	0.107
665	0.108
666	0.109
666	0.11
667	0.111
667	0.111
668	0.112
668	0.113
669	0.114
669	0.115
669	0.116
670	0.117
670	0.118
671	0.119
671	0.119
672	0.12
672	0.121
672	0.121
673	0.121
673	0.122
674	0.123
674	0.124
675	0.125
675	0.126
676	0.128
676	0.129
676	0.13
677	0.131
677	0.132
678	0.133
678	0.133
679	0.134
679	0.135
680	0.135
680	0.136
680	0.136
681	0.136
681	0.137
682	0.137
682	0.138
683	0.139
683	0.139
684	0.14
684	0.14
684	0.14
685	0.14
685	0.139
686	0.139
686	0.139
687	0.138
687	0.138
687	0.138
688	0.138
688	0.137
689	0.138
689	0.138
690	0.138
690	0.138
691	0.138
691	0.138
691	0.138
692	0.137
692	0.137
693	0.137
693	0.137
694	0.137
694	0.136
695	0.137
695	0.137
695	0.136
696	0.136
696	0.135
697	0.135
697	0.135
698	0.134
698	0.133
698	0.132
699	0.132
699	0.131
700	0.13
700	0.129
701	0.129
701	0.128
702	0.127
702	0.127
702	0.126
703	0.125
703	0.124
704	0.123
704	0.122
705	0.122
705	0.121
705	0.121
706	0.121
706	0.121
707	0.12
707	0.12
708	0.12
708	0.12
709	0.119
709	0.119
709	0.118
710	0.117
710	0.116
711	0.115
711	0.114
712	0.113
712	0.112
713	0.11
713	0.109
713	0.108
714	0.107
714	0.106
715	0.105
715	0.103
716	0.102
716	0.101
716	0.1
717	0.099
717	0.098
718	0.096
718	0.095
719	0.094
719	0.093
720	0.092
720	0.091
720	0.09
721	0.089
721	0.088
722	0.087
722	0.086
723	0.086
723	0.086
723	0.085
724	0.085
724	0.084
725	0.084
725	0.084
726	0.083
726	0.083
727	0.082
727	0.082
727	0.082
728	0.081
728	0.08
729	0.08
729	0.079
730	0.078
730	0.077
730	0.076
731	0.076
731	0.075
732	0.074
732	0.074
733	0.073
733	0.072
734	0.072
734	0.071
734	0.07
735	0.07
735	0.07
736	0.069
736	0.068
737	0.068
737	0.067
737	0.066
738	0.065
738	0.064
739	0.063
739	0.062
740	0.061
740	0.061
741	0.06
741	0.06
741	0.059
742	0.059
742	0.058
743	0.058
743	0.058
744	0.057
744	0.057
744	0.056
745	0.055
745	0.054
746	0.054
746	0.053
747	0.052
747	0.052
748	0.051
748	0.05
748	0.049
749	0.049
749	0.048
750	0.048
750	0.047
751	0.047
751	0.047
751	0.047
752	0.047
752	0.047
753	0.047
753	0.047
754	0.047
754	0.047
754	0.047
755	0.048
755	0.048
756	0.047
756	0.046
757	0.046
757	0.046
758	0.045
758	0.044
758	0.044
759	0.043
759	0.043
760	0.042
760	0.041
761	0.04
761	0.04
761	0.04
762	0.039
762	0.039
763	0.039
763	0.038
764	0.038
764	0.037
764	0.036
765	0.036
765	0.035
766	0.034
766	0.034
767	0.033
767	0.032
768	0.031
768	0.03
768	0.029
769	0.028
769	0.026
770	0.025
770	0.024
771	0.022
771	0.021
771	0.019
772	0.018
772	0.017
773	0.017
773	0.016
774	0.015
774	0.014
775	0.014
775	0.013
775	0.013
776	0.013
776	0.013
777	0.012
777	0.012
778	0.011
778	0.01
778	0.009
779	0.009
779	0.008
780	0.007
780	0.005
781	0.004
781	0.002
781	-0.001
782	-0.003
782	-0.006
783	-0.009
783	-0.011
784	-0.014
784	-0.017
784	-0.02
785	-0.023
785	-0.026
786	-0.029
786	-0.032
787	-0.034
787	-0.037
788	-0.041
788	-0.045
788	-0.05
789	-0.055
789	-0.06
790	-0.065
790	-0.071
791	-0.077
791	-0.084
791	-0.09
792	-0.089
792	-0.084
793	-0.084
793	-0.085
794	-0.088
794	-0.093
794	-0.098
795	-0.102
795	-0.104
796	-0.104
796	-0.107
797	-0.116
797	-0.127
797	-0.134
798	-0.139
798	-0.142
799	-0.143
799	-0.142
800	-0.142
800	-0.143
801	-0.146
801	-0.147
801	-0.146
802	-0.147
802	-0.148
803	-0.149
803	-0.149
804	-0.148
804	-0.143
804	-0.136
805	-0.133
805	-0.131
806	-0.129
806	-0.128
807	-0.128
807	-0.128
807	-0.128
808	-0.128
808	-0.13
809	-0.135
809	-0.14
810	-0.144
810	-0.147
810	-0.15
811	-0.153
811	-0.154
812	-0.15
812	-0.146
813	-0.143
813	-0.139
813	-0.134
814	-0.129
814	-0.122
815	-0.113
815	-0.102
816	-0.092
816	-0.083
817	-0.076
817	-0.067
817	-0.059
818	-0.051
818	-0.043
819	-0.036
819	-0.031
820	-0.026
820	-0.022
820	-0.018
821	-0.014
821	-0.011
822	-0.008
822	-0.005
823	-0.003
823	-0.001
823	0.001
824	0.002
824	0.004
825	0.007
825	0.009
826	0.011
826	0.012
826	0.014
827	0.016
827	0.017
828	0.018
828	0.019
829	0.02
829	0.02
829	0.02
830	0.02
830	0.02
831	0.02
831	0.021
832	0.021
832	0.021
832	0.021
833	0.022
833	0.022
834	0.023
834	0.023
835	0.024
835	0.024
835	0.024
836	0.025
836	0.025
837	0.025
837	0.025
838	0.025
838	0.025
839	0.025
839	0.025
839	0.024
840	0.024
840	0.023
841	0.023
841	0.022
842	0.022
842	0.022
842	0.022
843	0.021
843	0.021
844	0.021
844	0.021
845	0.021
845	0.021
845	0.021
846	0.021
846	0.022
847	0.022
847	0.022
848	0.022
848	0.022
848	0.022
849	0.023
849	0.023
850	0.022
850	0.022
851	0.022
851	0.021
851	0.021
852	0.021
852	0.021
853	0.02
853	0.02
854	0.02
854	0.021
854	0.021
855	0.021
855	0.021
856	0.021
856	0.021
857	0.021
857	0.021
857	0.021
858	0.021
858	0.021
859	0.021
859	0.021
860	0.022
860	0.022
860	0.023
861	0.024
861	0.024
862	0.025
862	0.026
863	0.027
863	0.027
863	0.027
864	0.028
864	0.028
865	0.028
865	0.028
866	0.028
866	0.028
866	0.028
867	0.028
867	0.028
868	0.028
868	0.027
869	0.027
869	0.027
869	0.027
870	0.027
870	0.027
871	0.027
871	0.028
872	0.028
872	0.029
872	0.029
873	0.03
873	0.031
874	0.031
874	0.032
875	0.032
875	0.032
875	0.031
876	0.031
876	0.03
877	0.029
877	0.028
878	0.027
878	0.026
878	0.025
879	0.024
879	0.023
880	0.023
880	0.022
881	0.022
881	0.022
881	0.022
882	0.022
882	0.022
883	0.022
883	0.022
884	0.022
884	0.022
884	0.022
885	0.022
885	0.021
886	0.021
886	0.021
887	0.021
887	0.022
887	0.022
888	0.022
888	0.023
889	0.024
889	0.025
890	0.026
890	0.027
890	0.027
891	0.028
891	0.029
892	0.029
892	0.03
893	0.03
893	0.03
893	0.03
894	0.03
894	0.03
895	0.029
895	0.028
895	0.027
896	0.026
896	0.025
897	0.024
897	0.023
898	0.022
898	0.022
898	0.021
899	0.021
899	0.02
900	0.02
900	0.02
901	0.02
901	0.02
901	0.02
902	0.02
902	0.02
903	0.02
903	0.02
904	0.021
904	0.021
904	0.021
905	0.022
905	0.022
906	0.023
906	0.023
907	0.023
907	0.024
907	0.025
908	0.025
908	0.026
909	0.028
909	0.028
910	0.029
910	0.03
910	0.031
911	0.031
911	0.032
912	0.032
912	0.032
913	0.032
913	0.032
913	0.031
914	0.03
914	0.03
915	0.029
915	0.028
916	0.027
916	0.026
916	0.024
917	0.022
917	0.02
918	0.018
918	0.016
918	0.014
919	0.012
919	0.011
920	0.01
920	0.009
921	0.008
921	0.008
921	0.008
922	0.009
922	0.009
923	0.01
923	0.011
924	0.012
924	0.013
924	0.015
925	0.016
925	0.017
926	0.018
926	0.019
927	0.019
927	0.02
927	0.02
928	0.021
928	0.021
929	0.021
929	0.021
930	0.021
930	0.02
930	0.02
931	0.02
931	0.02
932	0.02
932	0.019
933	0.019
933	0.018
933	0.018
934	0.017
934	0.017
935	0.016
935	0.015
935	0.015
936	0.014
936	0.013
937	0.013
937	0.013
938	0.013
938	0.013
938	0.013
939	0.013
939	0.013
940	0.014
940	0.015
941	0.015
941	0.016
941	0.017
942	0.019
942	0.02
943	0.021
943	0.021
944	0.022
944	0.023
944	0.024
945	0.024
945	0.025
946	0.025
946	0.026
946	0.026
947	0.026
947	0.027
948	0.027
948	0.027
949	0.027
949	0.027
949	0.027
950	0.027
950	0.026
951	0.026
951	0.025
952	0.025
952	0.024
952	0.023
953	0.023
953	0.022
954	0.021
954	0.021
955	0.02
955	0.02
955	0.02
956	0.02
956	0.02
957	0.02
957	0.02
957	0.02
958	0.021
958	0.021
959	0.022
959	0.022
960	0.023
960	0.023
960	0.024
961	0.024
961	0.025
962	0.025
962	0.026
963	0.026
963	0.026
963	0.026
964	0.026
964	0.026
965	0.026
965	0.026
966	0.026
966	0.026
966	0.026
967	0.026
967	0.026
968	0.026
968	0.026
968	0.026
969	0.026
969	0.026
970	0.026
970	0.025
971	0.025
971	0.025
971	0.024
972	0.024
972	0.024
973	0.023
973	0.023
974	0.023
974	0.023
974	0.022
975	0.023
975	0.023
976	0.023
976	0.024
976	0.024
977	0.025
977	0.025
978	0.026
978	0.026
979	0.026
979	0.026
979	0.026
980	0.026
980	0.025
981	0.025
981	0.024
982	0.023
982	0.022
982	0.021
983	0.02
983	0.018
984	0.017
984	0.016
984	0.015
985	0.014
985	0.013
986	0.012
986	0.012
987	0.012
987	0.012
987	0.012
988	0.012
988	0.013
989	0.013
989	0.014
990	0.015
990	0.016
990	0.017
991	0.018
991	0.018
992	0.019
992	0.02
992	0.02
993	0.02
993	0.021
994	0.021
994	0.021
995	0.021
995	0.021
995	0.021
996	0.021
996	0.021
997	0.021
997	0.021
997	0.021
998	0.021
998	0.021
999	0.022
999	0.022
1000	0.022
1000	0.022
1000	0.023
1001	0.023
1001	0.023
1002	0.024
1002	0.024
1003	0.024
1003	0.024
1003	0.024
1004	0.024
1004	0.024
1005	0.023
1005	0.023
1005	0.023
1006	0.023
1006	0.022
1007	0.022
1007	0.022
1008	0.022
1008	0.021
1008	0.021
1009	0.021
1009	0.021
1010	0.02
1010	0.02
1010	0.02
1011	0.02
1011	0.02
1012	0.02
1012	0.019
1013	0.019
1013	0.019
1013	0.019
1014	0.018
1014	0.018
1015	0.017
1015	0.016
1016	0.016
1016	0.015
1016	0.015
1017	0.014
1017	0.013
1018	0.013
1018	0.012
1018	0.012
1019	0.011
1019	0.011
1020	0.011
1020	0.011
1021	0.01
1021	0.01
1021	0.01
1022	0.01
1022	0.011
1023	0.011
1023	0.011
1023	0.011
1024	0.012
1024	0.012
1025	0.012
1025	0.012
1026	0.012
1026	0.012
1026	0.012
1027	0.012
1027	0.011
1028	0.011
1028	0.011
1028	0.01
1029	0.01
1029	0.009
1030	0.009
1030	0.008
1031	0.008
1031	0.008
1031	0.007
1032	0.007
1032	0.007
1033	0.007
1033	0.007
1033	0.008
1034	0.008
1034	0.008
1035	0.008
1035	0.008
1036	0.008
1036	0.009
1036	0.009
1037	0.01
1037	0.01
1038	0.011
1038	0.011
1039	0.012
1039	0.013
1039	0.014
1040	0.015
1040	0.016
1041	0.017
1041	0.018
1041	0.019
1042	0.02
1042	0.02
1043	0.021
1043	0.022
1044	0.023
1044	0.023
1044	0.024
1045	0.024
1045	0.024
1046	0.023
1046	0.023
1046	0.023
1047	0.022
1047	0.022
1048	0.021
1048	0.02
1049	0.019
1049	0.018
1049	0.017
1050	0.017
1050	0.016
1051	0.015
1051	0.015
1051	0.014
1052	0.014
1052	0.013
1053	0.013
1053	0.012
1053	0.012
1054	0.011
1054	0.011
1055	0.01
1055	0.01
1056	0.01
1056	0.009
1056	0.009
1057	0.008
1057	0.008
1058	0.008
1058	0.008
1058	0.008
1059	0.008
1059	0.008
1060	0.008
1060	0.009
1061	0.009
1061	0.01
1061	0.01
1062	0.01
1062	0.01
1063	0.01
1063	0.01
1063	0.011
1064	0.011
1064	0.011
1065	0.011
1065	0.011
1066	0.011
1066	0.011
1066	0.011
1067	0.011
1067	0.012
1068	0.011
1068	0.011
1068	0.01
1069	0.01
1069	0.009
1070	0.008
1070	0.008
1071	0.007
1071	0.006
1071	0.006
1072	0.005
1072	0.004
1073	0.003
1073	0.003
1073	0.003
1074	0.002
1074	0.002
1075	0.002
1075	0.002
1076	0.001
1076	0.001
1076	0.002
1077	0.002
1077	0.002
1078	0.002
1078	0.002
1078	0.003
1079	0.003
1079	0.004
1080	0.004
1080	0.004
1080	0.004
1081	0.004
1081	0.005
1082	0.005
1082	0.005
1083	0.005
1083	0.005
1083	0.005
1084	0.005
1084	0.005
1085	0.006
1085	0.006
1085	0.006
1086	0.006
1086	0.005
1087	0.006
1087	0.006
1088	0.006
1088	0.006
1088	0.006
1089	0.005
1089	0.005
1090	0.005
1090	0.005
1090	0.005
1091	0.005
1091	0.005
1092	0.004
1092	0.004
1092	0.005
1093	0.005
1093	0.005
1094	0.006
1094	0.006
1095	0.005
1095	0.005
1095	0.006
1096	0.007
1096	0.008
1097	0.008
1097	0.009
1097	0.009
1098	0.011
1098	0.012
1099	0.012
1099	0.014
1100	0.016
1100	0.016
1100	0.017
1101	0.017
1101	0.019
1102	0.02
1102	0.021
1102	0.023
1103	0.023
1103	0.025
1104	0.027
1104	0.029
1104	0.03
1105	0.033
1105	0.035
1106	0.036
1106	0.04
1107	0.042
1107	0.045
1107	0.049
1108	0.063
1108	0.079
1109	0.1
1109	0.13
1109	0.149
1110	0.18
1110	0.234
1111	0.331
1111	0.687
