Data from 17c-2a_Absorbance__630__00631.txt Node

Date: Fri Jan 26 10:08:31 CET 2024
User: Marek
Spectrometer: MAYP115816
Trigger mode: 0
Integration Time (sec): 2.000000E-1
Scans to average: 10
Electric dark correction enabled: true
Nonlinearity correction enabled: true
Boxcar width: 5
XAxis mode: Wavelengths
Number of Pixels in Spectrum: 2068
>>>>>Begin Spectral Data<<<<<
199	-1.272
199	-1.142
200	-1
200	-0.895
201	-0.83
201	-0.79
202	-0.731
202	-0.686
203	-0.649
203	-0.618
204	-0.596
204	-0.575
205	-0.556
205	-0.549
205	-0.546
206	-0.542
206	-0.54
207	-0.536
207	-0.537
208	-0.537
208	-0.535
209	-0.532
209	-0.531
210	-0.532
210	-0.532
211	-0.534
211	-0.536
212	-0.537
212	-0.536
213	-0.534
213	-0.531
213	-0.532
214	-0.53
214	-0.528
215	-0.522
215	-0.521
216	-0.518
216	-0.517
217	-0.514
217	-0.513
218	-0.51
218	-0.508
219	-0.504
219	-0.503
220	-0.503
220	-0.504
221	-0.502
221	-0.502
221	-0.497
222	-0.492
222	-0.489
223	-0.485
223	-0.483
224	-0.479
224	-0.473
225	-0.466
225	-0.46
226	-0.453
226	-0.443
227	-0.435
227	-0.427
228	-0.413
228	-0.4
229	-0.382
229	-0.364
229	-0.344
230	-0.32
230	-0.295
231	-0.27
231	-0.243
232	-0.215
232	-0.186
233	-0.156
233	-0.126
234	-0.098
234	-0.071
235	-0.046
235	-0.023
236	0
236	0.021
236	0.04
237	0.057
237	0.073
238	0.087
238	0.099
239	0.11
239	0.12
240	0.129
240	0.137
241	0.145
241	0.151
242	0.157
242	0.163
243	0.168
243	0.173
243	0.177
244	0.181
244	0.185
245	0.188
245	0.191
246	0.195
246	0.198
247	0.201
247	0.203
248	0.206
248	0.209
249	0.211
249	0.213
250	0.216
250	0.218
250	0.22
251	0.222
251	0.224
252	0.226
252	0.228
253	0.23
253	0.232
254	0.233
254	0.234
255	0.236
255	0.237
256	0.238
256	0.24
257	0.241
257	0.241
258	0.242
258	0.243
258	0.244
259	0.244
259	0.245
260	0.245
260	0.245
261	0.245
261	0.245
262	0.246
262	0.245
263	0.245
263	0.245
264	0.245
264	0.244
265	0.244
265	0.243
265	0.242
266	0.241
266	0.24
267	0.239
267	0.238
268	0.237
268	0.235
269	0.234
269	0.233
270	0.231
270	0.23
271	0.228
271	0.227
272	0.225
272	0.224
272	0.222
273	0.22
273	0.219
274	0.217
274	0.215
275	0.213
275	0.212
276	0.21
276	0.208
277	0.206
277	0.204
278	0.202
278	0.2
278	0.199
279	0.196
279	0.194
280	0.192
280	0.19
281	0.188
281	0.186
282	0.185
282	0.183
283	0.182
283	0.18
284	0.179
284	0.177
285	0.176
285	0.174
285	0.172
286	0.171
286	0.169
287	0.168
287	0.166
288	0.165
288	0.164
289	0.162
289	0.161
290	0.16
290	0.159
291	0.158
291	0.157
292	0.155
292	0.154
292	0.153
293	0.152
293	0.151
294	0.151
294	0.15
295	0.149
295	0.148
296	0.148
296	0.147
297	0.146
297	0.146
298	0.146
298	0.145
298	0.145
299	0.144
299	0.144
300	0.143
300	0.143
301	0.142
301	0.142
302	0.141
302	0.141
303	0.141
303	0.141
304	0.14
304	0.14
305	0.139
305	0.139
305	0.138
306	0.138
306	0.138
307	0.137
307	0.137
308	0.136
308	0.136
309	0.136
309	0.135
310	0.135
310	0.135
311	0.134
311	0.134
311	0.134
312	0.133
312	0.133
313	0.133
313	0.132
314	0.132
314	0.132
315	0.131
315	0.131
316	0.131
316	0.13
317	0.13
317	0.13
318	0.129
318	0.129
318	0.129
319	0.128
319	0.128
320	0.128
320	0.127
321	0.127
321	0.126
322	0.126
322	0.126
323	0.125
323	0.125
324	0.124
324	0.124
324	0.124
325	0.124
325	0.123
326	0.123
326	0.123
327	0.122
327	0.122
328	0.122
328	0.121
329	0.121
329	0.121
330	0.12
330	0.12
330	0.119
331	0.119
331	0.119
332	0.118
332	0.118
333	0.118
333	0.118
334	0.117
334	0.117
335	0.117
335	0.116
336	0.116
336	0.116
336	0.116
337	0.116
337	0.115
338	0.115
338	0.115
339	0.115
339	0.114
340	0.114
340	0.114
341	0.113
341	0.113
342	0.113
342	0.113
342	0.112
343	0.112
343	0.112
344	0.112
344	0.111
345	0.111
345	0.111
346	0.111
346	0.111
347	0.111
347	0.11
348	0.11
348	0.11
348	0.11
349	0.11
349	0.109
350	0.109
350	0.109
351	0.109
351	0.109
352	0.109
352	0.108
353	0.108
353	0.108
354	0.108
354	0.108
354	0.108
355	0.108
355	0.108
356	0.107
356	0.107
357	0.107
357	0.107
358	0.107
358	0.107
359	0.106
359	0.106
360	0.106
360	0.107
360	0.107
361	0.107
361	0.107
362	0.107
362	0.107
363	0.107
363	0.107
364	0.107
364	0.107
365	0.107
365	0.107
366	0.107
366	0.107
366	0.107
367	0.107
367	0.107
368	0.107
368	0.107
369	0.106
369	0.106
370	0.106
370	0.106
371	0.106
371	0.105
372	0.105
372	0.105
372	0.105
373	0.105
373	0.105
374	0.106
374	0.106
375	0.106
375	0.106
376	0.106
376	0.106
377	0.106
377	0.106
378	0.107
378	0.107
378	0.107
379	0.107
379	0.107
380	0.106
380	0.106
381	0.107
381	0.106
382	0.106
382	0.106
383	0.106
383	0.106
383	0.105
384	0.105
384	0.105
385	0.105
385	0.105
386	0.105
386	0.105
387	0.105
387	0.105
388	0.105
388	0.105
389	0.105
389	0.105
389	0.105
390	0.105
390	0.105
391	0.106
391	0.106
392	0.106
392	0.106
393	0.106
393	0.106
394	0.106
394	0.106
394	0.106
395	0.106
395	0.106
396	0.105
396	0.105
397	0.105
397	0.105
398	0.105
398	0.105
399	0.105
399	0.105
400	0.105
400	0.104
400	0.104
401	0.104
401	0.104
402	0.103
402	0.103
403	0.103
403	0.103
404	0.103
404	0.103
405	0.103
405	0.103
405	0.103
406	0.103
406	0.103
407	0.103
407	0.103
408	0.103
408	0.103
409	0.103
409	0.103
410	0.104
410	0.104
411	0.104
411	0.104
411	0.104
412	0.104
412	0.104
413	0.104
413	0.104
414	0.104
414	0.103
415	0.103
415	0.103
416	0.103
416	0.103
416	0.103
417	0.102
417	0.103
418	0.103
418	0.103
419	0.103
419	0.103
420	0.103
420	0.103
421	0.103
421	0.103
421	0.104
422	0.104
422	0.104
423	0.104
423	0.104
424	0.104
424	0.104
425	0.104
425	0.104
426	0.104
426	0.104
427	0.104
427	0.104
427	0.104
428	0.104
428	0.104
429	0.104
429	0.104
430	0.104
430	0.104
431	0.104
431	0.104
432	0.104
432	0.103
432	0.103
433	0.103
433	0.103
434	0.103
434	0.103
435	0.103
435	0.103
436	0.103
436	0.103
437	0.103
437	0.103
437	0.103
438	0.103
438	0.103
439	0.103
439	0.103
440	0.103
440	0.102
441	0.103
441	0.102
442	0.103
442	0.103
442	0.103
443	0.103
443	0.103
444	0.103
444	0.103
445	0.103
445	0.103
446	0.103
446	0.103
447	0.103
447	0.104
447	0.104
448	0.104
448	0.104
449	0.104
449	0.104
450	0.104
450	0.104
451	0.104
451	0.104
452	0.104
452	0.104
452	0.104
453	0.104
453	0.104
454	0.103
454	0.104
455	0.104
455	0.104
456	0.104
456	0.104
457	0.103
457	0.104
458	0.104
458	0.104
458	0.104
459	0.105
459	0.105
460	0.104
460	0.104
461	0.104
461	0.105
462	0.105
462	0.105
463	0.105
463	0.105
463	0.106
464	0.106
464	0.106
465	0.106
465	0.106
466	0.106
466	0.106
467	0.106
467	0.106
467	0.106
468	0.106
468	0.105
469	0.105
469	0.105
470	0.105
470	0.105
471	0.105
471	0.105
472	0.106
472	0.106
472	0.106
473	0.107
473	0.107
474	0.108
474	0.108
475	0.108
475	0.109
476	0.109
476	0.11
477	0.11
477	0.11
477	0.11
478	0.111
478	0.111
479	0.111
479	0.111
480	0.112
480	0.112
481	0.113
481	0.113
482	0.113
482	0.114
482	0.115
483	0.116
483	0.117
484	0.118
484	0.119
485	0.119
485	0.12
486	0.12
486	0.121
487	0.121
487	0.122
487	0.122
488	0.122
488	0.122
489	0.122
489	0.122
490	0.122
490	0.123
491	0.123
491	0.124
492	0.125
492	0.125
492	0.126
493	0.126
493	0.128
494	0.129
494	0.13
495	0.131
495	0.131
496	0.132
496	0.133
496	0.134
497	0.134
497	0.135
498	0.136
498	0.137
499	0.137
499	0.138
500	0.139
500	0.14
501	0.141
501	0.142
501	0.143
502	0.144
502	0.144
503	0.145
503	0.146
504	0.147
504	0.148
505	0.149
505	0.15
506	0.151
506	0.151
506	0.152
507	0.153
507	0.153
508	0.154
508	0.154
509	0.155
509	0.156
510	0.157
510	0.158
511	0.158
511	0.159
511	0.159
512	0.16
512	0.161
513	0.161
513	0.162
514	0.162
514	0.162
515	0.162
515	0.162
515	0.162
516	0.163
516	0.163
517	0.164
517	0.164
518	0.164
518	0.164
519	0.164
519	0.164
520	0.164
520	0.164
520	0.165
521	0.164
521	0.164
522	0.163
522	0.163
523	0.162
523	0.163
524	0.163
524	0.163
524	0.163
525	0.163
525	0.163
526	0.164
526	0.164
527	0.164
527	0.164
528	0.165
528	0.165
529	0.164
529	0.164
529	0.164
530	0.164
530	0.163
531	0.163
531	0.163
532	0.162
532	0.161
533	0.161
533	0.16
533	0.159
534	0.159
534	0.158
535	0.157
535	0.157
536	0.156
536	0.155
537	0.154
537	0.153
538	0.152
538	0.151
538	0.15
539	0.15
539	0.149
540	0.148
540	0.147
541	0.145
541	0.145
542	0.144
542	0.143
542	0.142
543	0.14
543	0.139
544	0.138
544	0.137
545	0.136
545	0.136
546	0.135
546	0.134
547	0.133
547	0.132
547	0.131
548	0.13
548	0.129
549	0.129
549	0.128
550	0.127
550	0.126
551	0.124
551	0.123
551	0.122
552	0.121
552	0.12
553	0.12
553	0.119
554	0.118
554	0.116
555	0.114
555	0.113
556	0.111
556	0.11
556	0.108
557	0.106
557	0.105
558	0.104
558	0.102
559	0.101
559	0.1
560	0.099
560	0.098
560	0.098
561	0.097
561	0.097
562	0.096
562	0.095
563	0.094
563	0.093
564	0.092
564	0.091
564	0.09
565	0.089
565	0.089
566	0.087
566	0.087
567	0.086
567	0.086
568	0.086
568	0.085
568	0.085
569	0.085
569	0.085
570	0.085
570	0.084
571	0.084
571	0.084
572	0.083
572	0.083
573	0.082
573	0.081
573	0.08
574	0.08
574	0.079
575	0.079
575	0.079
576	0.079
576	0.077
577	0.077
577	0.076
577	0.076
578	0.075
578	0.075
579	0.076
579	0.076
580	0.075
580	0.073
581	0.072
581	0.071
581	0.071
582	0.071
582	0.071
583	0.071
583	0.07
584	0.068
584	0.066
585	0.066
585	0.067
585	0.067
586	0.066
586	0.066
587	0.065
587	0.063
588	0.062
588	0.062
589	0.061
589	0.061
590	0.061
590	0.061
590	0.061
591	0.062
591	0.061
592	0.061
592	0.061
593	0.061
593	0.061
594	0.06
594	0.059
594	0.059
595	0.059
595	0.058
596	0.058
596	0.059
597	0.06
597	0.061
598	0.061
598	0.062
598	0.062
599	0.062
599	0.062
600	0.061
600	0.061
601	0.06
601	0.06
602	0.058
602	0.058
602	0.057
603	0.057
603	0.057
604	0.058
604	0.058
605	0.059
605	0.06
606	0.06
606	0.059
606	0.059
607	0.059
607	0.059
608	0.058
608	0.057
609	0.057
609	0.057
610	0.056
610	0.056
610	0.056
611	0.057
611	0.058
612	0.06
612	0.061
613	0.062
613	0.063
614	0.064
614	0.064
614	0.064
615	0.064
615	0.064
616	0.064
616	0.064
617	0.064
617	0.063
618	0.063
618	0.062
618	0.062
619	0.063
619	0.063
620	0.064
620	0.065
621	0.065
621	0.065
622	0.065
622	0.066
622	0.066
623	0.066
623	0.066
624	0.066
624	0.066
625	0.066
625	0.067
626	0.067
626	0.067
626	0.068
627	0.068
627	0.069
628	0.07
628	0.07
629	0.07
629	0.07
630	0.07
630	0.07
630	0.07
631	0.071
631	0.071
632	0.071
632	0.071
633	0.071
633	0.072
634	0.073
634	0.074
634	0.075
635	0.076
635	0.077
636	0.078
636	0.079
637	0.08
637	0.08
638	0.082
638	0.082
638	0.083
639	0.084
639	0.084
640	0.085
640	0.086
641	0.087
641	0.088
642	0.09
642	0.091
642	0.092
643	0.093
643	0.094
644	0.095
644	0.096
645	0.097
645	0.099
646	0.1
646	0.102
646	0.104
647	0.105
647	0.107
648	0.108
648	0.11
649	0.112
649	0.114
650	0.115
650	0.117
650	0.119
651	0.12
651	0.122
652	0.123
652	0.124
653	0.126
653	0.131
653	0.13
654	0.105
654	0.086
655	0.087
655	0.089
656	0.09
656	0.091
657	0.093
657	0.094
657	0.095
658	0.093
658	0.092
659	0.116
659	0.148
660	0.153
660	0.155
661	0.156
661	0.158
661	0.16
662	0.162
662	0.163
663	0.165
663	0.166
664	0.168
664	0.169
665	0.17
665	0.172
665	0.173
666	0.174
666	0.175
667	0.176
667	0.177
668	0.179
668	0.18
669	0.182
669	0.184
669	0.186
670	0.188
670	0.189
671	0.191
671	0.192
672	0.193
672	0.195
672	0.196
673	0.197
673	0.198
674	0.199
674	0.201
675	0.202
675	0.204
676	0.206
676	0.208
676	0.209
677	0.211
677	0.212
678	0.212
678	0.213
679	0.213
679	0.214
680	0.215
680	0.216
680	0.216
681	0.216
681	0.217
682	0.218
682	0.218
683	0.219
683	0.22
684	0.221
684	0.221
684	0.22
685	0.22
685	0.22
686	0.22
686	0.219
687	0.219
687	0.219
687	0.218
688	0.218
688	0.218
689	0.219
689	0.22
690	0.22
690	0.22
691	0.22
691	0.221
691	0.22
692	0.22
692	0.219
693	0.219
693	0.219
694	0.218
694	0.217
695	0.218
695	0.218
695	0.217
696	0.217
696	0.216
697	0.215
697	0.215
698	0.214
698	0.213
698	0.212
699	0.211
699	0.209
700	0.207
700	0.206
701	0.205
701	0.204
702	0.203
702	0.202
702	0.2
703	0.198
703	0.197
704	0.195
704	0.194
705	0.193
705	0.191
705	0.19
706	0.189
706	0.188
707	0.187
707	0.186
708	0.185
708	0.184
709	0.183
709	0.181
709	0.18
710	0.179
710	0.178
711	0.177
711	0.175
712	0.174
712	0.173
713	0.172
713	0.17
713	0.169
714	0.167
714	0.165
715	0.164
715	0.162
716	0.16
716	0.158
716	0.156
717	0.154
717	0.152
718	0.149
718	0.147
719	0.146
719	0.144
720	0.143
720	0.141
720	0.139
721	0.137
721	0.136
722	0.134
722	0.133
723	0.132
723	0.131
723	0.13
724	0.129
724	0.128
725	0.127
725	0.126
726	0.126
726	0.125
727	0.124
727	0.123
727	0.122
728	0.121
728	0.12
729	0.119
729	0.118
730	0.117
730	0.115
730	0.114
731	0.112
731	0.111
732	0.11
732	0.109
733	0.108
733	0.107
734	0.106
734	0.105
734	0.104
735	0.104
735	0.103
736	0.102
736	0.101
737	0.1
737	0.099
737	0.097
738	0.096
738	0.094
739	0.092
739	0.091
740	0.089
740	0.088
741	0.087
741	0.086
741	0.084
742	0.083
742	0.083
743	0.083
743	0.082
744	0.081
744	0.08
744	0.079
745	0.078
745	0.077
746	0.075
746	0.074
747	0.073
747	0.072
748	0.071
748	0.07
748	0.069
749	0.069
749	0.068
750	0.068
750	0.068
751	0.068
751	0.068
751	0.068
752	0.067
752	0.066
753	0.066
753	0.066
754	0.065
754	0.065
754	0.065
755	0.064
755	0.064
756	0.064
756	0.063
757	0.062
757	0.062
758	0.062
758	0.061
758	0.061
759	0.061
759	0.06
760	0.059
760	0.058
761	0.057
761	0.056
761	0.056
762	0.055
762	0.054
763	0.053
763	0.052
764	0.05
764	0.049
764	0.048
765	0.047
765	0.046
766	0.045
766	0.044
767	0.043
767	0.041
768	0.039
768	0.038
768	0.036
769	0.035
769	0.034
770	0.033
770	0.031
771	0.03
771	0.028
771	0.026
772	0.025
772	0.023
773	0.022
773	0.021
774	0.019
774	0.018
775	0.017
775	0.016
775	0.016
776	0.015
776	0.015
777	0.015
777	0.014
778	0.014
778	0.012
778	0.011
779	0.011
779	0.01
780	0.008
780	0.006
781	0.004
781	0.001
781	-0.002
782	-0.006
782	-0.01
783	-0.013
783	-0.016
784	-0.02
784	-0.024
784	-0.028
785	-0.032
785	-0.036
786	-0.039
786	-0.042
787	-0.044
787	-0.047
788	-0.051
788	-0.055
788	-0.06
789	-0.066
789	-0.071
790	-0.076
790	-0.083
791	-0.09
791	-0.096
791	-0.101
792	-0.099
792	-0.093
793	-0.092
793	-0.091
794	-0.093
794	-0.096
794	-0.101
795	-0.103
795	-0.103
796	-0.104
796	-0.107
797	-0.115
797	-0.127
797	-0.133
798	-0.139
798	-0.142
799	-0.142
799	-0.142
800	-0.141
800	-0.143
801	-0.146
801	-0.146
801	-0.146
802	-0.147
802	-0.148
803	-0.149
803	-0.149
804	-0.148
804	-0.143
804	-0.136
805	-0.132
805	-0.13
806	-0.129
806	-0.128
807	-0.127
807	-0.127
807	-0.128
808	-0.128
808	-0.129
809	-0.134
809	-0.14
810	-0.144
810	-0.146
810	-0.15
811	-0.153
811	-0.153
812	-0.149
812	-0.146
813	-0.146
813	-0.145
813	-0.144
814	-0.141
814	-0.137
815	-0.13
815	-0.121
816	-0.113
816	-0.106
817	-0.101
817	-0.094
817	-0.084
818	-0.073
818	-0.063
819	-0.054
819	-0.046
820	-0.04
820	-0.035
820	-0.029
821	-0.024
821	-0.02
822	-0.016
822	-0.012
823	-0.009
823	-0.007
823	-0.005
824	-0.002
824	0
825	0.003
825	0.006
826	0.008
826	0.01
826	0.012
827	0.014
827	0.015
828	0.017
828	0.018
829	0.019
829	0.019
829	0.02
830	0.02
830	0.02
831	0.021
831	0.021
832	0.021
832	0.021
832	0.021
833	0.022
833	0.022
834	0.023
834	0.023
835	0.024
835	0.024
835	0.024
836	0.024
836	0.025
837	0.025
837	0.026
838	0.026
838	0.027
839	0.027
839	0.027
839	0.027
840	0.027
840	0.027
841	0.027
841	0.026
842	0.026
842	0.026
842	0.025
843	0.025
843	0.025
844	0.025
844	0.025
845	0.025
845	0.025
845	0.025
846	0.025
846	0.025
847	0.025
847	0.025
848	0.025
848	0.025
848	0.025
849	0.025
849	0.026
850	0.026
850	0.026
851	0.027
851	0.027
851	0.027
852	0.027
852	0.027
853	0.027
853	0.027
854	0.027
854	0.027
854	0.027
855	0.027
855	0.026
856	0.026
856	0.025
857	0.025
857	0.025
857	0.024
858	0.024
858	0.024
859	0.024
859	0.024
860	0.024
860	0.024
860	0.025
861	0.025
861	0.026
862	0.026
862	0.026
863	0.027
863	0.027
863	0.028
864	0.028
864	0.029
865	0.029
865	0.03
866	0.03
866	0.031
866	0.031
867	0.032
867	0.032
868	0.033
868	0.033
869	0.033
869	0.033
869	0.033
870	0.033
870	0.033
871	0.033
871	0.032
872	0.032
872	0.032
872	0.033
873	0.033
873	0.033
874	0.032
874	0.032
875	0.032
875	0.031
875	0.031
876	0.03
876	0.029
877	0.028
877	0.027
878	0.026
878	0.025
878	0.024
879	0.023
879	0.023
880	0.022
880	0.022
881	0.022
881	0.022
881	0.022
882	0.023
882	0.023
883	0.023
883	0.023
884	0.023
884	0.023
884	0.023
885	0.023
885	0.022
886	0.022
886	0.022
887	0.022
887	0.022
887	0.022
888	0.022
888	0.022
889	0.023
889	0.023
890	0.024
890	0.024
890	0.024
891	0.025
891	0.025
892	0.026
892	0.026
893	0.027
893	0.028
893	0.028
894	0.029
894	0.029
895	0.029
895	0.029
895	0.029
896	0.028
896	0.028
897	0.027
897	0.027
898	0.026
898	0.026
898	0.025
899	0.025
899	0.024
900	0.024
900	0.025
901	0.025
901	0.025
901	0.026
902	0.026
902	0.027
903	0.027
903	0.028
904	0.028
904	0.029
904	0.029
905	0.03
905	0.03
906	0.03
906	0.029
907	0.029
907	0.029
907	0.029
908	0.029
908	0.029
909	0.03
909	0.03
910	0.031
910	0.031
910	0.031
911	0.031
911	0.032
912	0.032
912	0.032
913	0.032
913	0.032
913	0.031
914	0.031
914	0.03
915	0.03
915	0.029
916	0.028
916	0.027
916	0.026
917	0.025
917	0.023
918	0.021
918	0.02
918	0.018
919	0.017
919	0.016
920	0.015
920	0.014
921	0.014
921	0.014
921	0.014
922	0.014
922	0.015
923	0.015
923	0.016
924	0.017
924	0.017
924	0.018
925	0.019
925	0.02
926	0.021
926	0.021
927	0.022
927	0.022
927	0.022
928	0.022
928	0.021
929	0.021
929	0.02
930	0.02
930	0.019
930	0.018
931	0.017
931	0.017
932	0.017
932	0.016
933	0.016
933	0.016
933	0.015
934	0.015
934	0.014
935	0.014
935	0.014
935	0.013
936	0.013
936	0.013
937	0.013
937	0.013
938	0.013
938	0.013
938	0.013
939	0.013
939	0.014
940	0.014
940	0.015
941	0.016
941	0.016
941	0.017
942	0.018
942	0.019
943	0.019
943	0.02
944	0.02
944	0.02
944	0.021
945	0.021
945	0.022
946	0.022
946	0.022
946	0.023
947	0.023
947	0.023
948	0.024
948	0.025
949	0.025
949	0.026
949	0.026
950	0.026
950	0.026
951	0.027
951	0.026
952	0.026
952	0.026
952	0.025
953	0.024
953	0.024
954	0.023
954	0.022
955	0.022
955	0.021
955	0.021
956	0.021
956	0.021
957	0.021
957	0.021
957	0.021
958	0.021
958	0.021
959	0.022
959	0.022
960	0.022
960	0.022
960	0.023
961	0.023
961	0.023
962	0.023
962	0.024
963	0.024
963	0.025
963	0.024
964	0.024
964	0.024
965	0.024
965	0.024
966	0.024
966	0.023
966	0.023
967	0.022
967	0.021
968	0.021
968	0.02
968	0.02
969	0.02
969	0.02
970	0.019
970	0.019
971	0.019
971	0.019
971	0.019
972	0.02
972	0.02
973	0.02
973	0.02
974	0.02
974	0.02
974	0.02
975	0.02
975	0.021
976	0.021
976	0.022
976	0.023
977	0.023
977	0.024
978	0.024
978	0.024
979	0.025
979	0.025
979	0.025
980	0.025
980	0.025
981	0.024
981	0.024
982	0.023
982	0.023
982	0.022
983	0.021
983	0.02
984	0.02
984	0.019
984	0.019
985	0.018
985	0.017
986	0.017
986	0.016
987	0.016
987	0.015
987	0.015
988	0.015
988	0.015
989	0.015
989	0.015
990	0.015
990	0.016
990	0.016
991	0.017
991	0.017
992	0.017
992	0.017
992	0.018
993	0.018
993	0.018
994	0.018
994	0.018
995	0.018
995	0.018
995	0.018
996	0.018
996	0.017
997	0.017
997	0.017
997	0.018
998	0.018
998	0.018
999	0.019
999	0.02
1000	0.02
1000	0.021
1000	0.021
1001	0.022
1001	0.023
1002	0.024
1002	0.024
1003	0.025
1003	0.025
1003	0.025
1004	0.025
1004	0.025
1005	0.025
1005	0.024
1005	0.024
1006	0.023
1006	0.022
1007	0.022
1007	0.021
1008	0.02
1008	0.02
1008	0.019
1009	0.019
1009	0.019
1010	0.018
1010	0.018
1010	0.018
1011	0.018
1011	0.018
1012	0.018
1012	0.017
1013	0.017
1013	0.016
1013	0.016
1014	0.015
1014	0.014
1015	0.013
1015	0.013
1016	0.012
1016	0.011
1016	0.01
1017	0.009
1017	0.008
1018	0.007
1018	0.006
1018	0.006
1019	0.005
1019	0.005
1020	0.004
1020	0.004
1021	0.004
1021	0.004
1021	0.004
1022	0.004
1022	0.005
1023	0.005
1023	0.005
1023	0.006
1024	0.006
1024	0.006
1025	0.006
1025	0.006
1026	0.007
1026	0.007
1026	0.007
1027	0.007
1027	0.007
1028	0.007
1028	0.007
1028	0.007
1029	0.006
1029	0.006
1030	0.006
1030	0.005
1031	0.005
1031	0.005
1031	0.005
1032	0.005
1032	0.005
1033	0.005
1033	0.005
1033	0.005
1034	0.005
1034	0.005
1035	0.005
1035	0.005
1036	0.005
1036	0.005
1036	0.005
1037	0.006
1037	0.006
1038	0.006
1038	0.006
1039	0.007
1039	0.008
1039	0.008
1040	0.009
1040	0.01
1041	0.01
1041	0.011
1041	0.011
1042	0.012
1042	0.012
1043	0.013
1043	0.013
1044	0.013
1044	0.014
1044	0.014
1045	0.014
1045	0.014
1046	0.014
1046	0.014
1046	0.014
1047	0.014
1047	0.014
1048	0.014
1048	0.013
1049	0.013
1049	0.012
1049	0.011
1050	0.011
1050	0.01
1051	0.009
1051	0.009
1051	0.009
1052	0.008
1052	0.008
1053	0.007
1053	0.006
1053	0.006
1054	0.005
1054	0.005
1055	0.004
1055	0.003
1056	0.002
1056	0.001
1056	0
1057	-0.001
1057	-0.001
1058	-0.001
1058	-0.002
1058	-0.002
1059	-0.002
1059	-0.002
1060	-0.002
1060	-0.002
1061	-0.001
1061	-0.001
1061	-0.001
1062	-0
1062	-0.001
1063	-0.001
1063	-0.001
1063	-0
1064	-0
1064	-0
1065	-0
1065	-0
1066	-0
1066	0
1066	0
1067	0
1067	0.001
1068	0.001
1068	0.001
1068	0
1069	0
1069	-0.001
1070	-0.002
1070	-0.003
1071	-0.003
1071	-0.004
1071	-0.005
1072	-0.006
1072	-0.007
1073	-0.008
1073	-0.008
1073	-0.009
1074	-0.01
1074	-0.01
1075	-0.011
1075	-0.012
1076	-0.013
1076	-0.013
1076	-0.013
1077	-0.013
1077	-0.013
1078	-0.014
1078	-0.014
1078	-0.014
1079	-0.014
1079	-0.013
1080	-0.013
1080	-0.012
1080	-0.012
1081	-0.012
1081	-0.012
1082	-0.012
1082	-0.012
1083	-0.012
1083	-0.012
1083	-0.012
1084	-0.012
1084	-0.012
1085	-0.012
1085	-0.012
1085	-0.012
1086	-0.011
1086	-0.011
1087	-0.011
1087	-0.011
1088	-0.011
1088	-0.011
1088	-0.011
1089	-0.012
1089	-0.012
1090	-0.012
1090	-0.013
1090	-0.013
1091	-0.014
1091	-0.014
1092	-0.014
1092	-0.014
1092	-0.014
1093	-0.014
1093	-0.013
1094	-0.014
1094	-0.014
1095	-0.014
1095	-0.014
1095	-0.013
1096	-0.014
1096	-0.014
1097	-0.013
1097	-0.014
1097	-0.013
1098	-0.012
1098	-0.011
1099	-0.011
1099	-0.009
1100	-0.008
1100	-0.008
1100	-0.007
1101	-0.006
1101	-0.005
1102	-0.003
1102	-0.002
1102	-0.001
1103	0.001
1103	0.002
1104	0.003
1104	0.005
1104	0.009
1105	0.011
1105	0.013
1106	0.014
1106	0.017
1107	0.017
1107	0.02
1107	0.024
1108	0.04
1108	0.06
1109	0.087
1109	0.121
1109	0.147
1110	0.189
1110	0.262
1111	0.415
1111	1.3
