Data from 17c-2a_Absorbance__2057__02058.txt Node

Date: Fri Jan 26 10:56:04 CET 2024
User: Marek
Spectrometer: MAYP115816
Trigger mode: 0
Integration Time (sec): 2.000000E-1
Scans to average: 10
Electric dark correction enabled: true
Nonlinearity correction enabled: true
Boxcar width: 5
XAxis mode: Wavelengths
Number of Pixels in Spectrum: 2068
>>>>>Begin Spectral Data<<<<<
199	-1.485
199	-1.349
200	-1.202
200	-1.091
201	-1.02
201	-0.978
202	-0.913
202	-0.863
203	-0.821
203	-0.786
204	-0.761
204	-0.739
205	-0.717
205	-0.708
205	-0.706
206	-0.702
206	-0.698
207	-0.695
207	-0.695
208	-0.694
208	-0.692
209	-0.689
209	-0.685
210	-0.685
210	-0.686
211	-0.687
211	-0.689
212	-0.689
212	-0.688
213	-0.686
213	-0.683
213	-0.684
214	-0.682
214	-0.68
215	-0.676
215	-0.674
216	-0.672
216	-0.67
217	-0.667
217	-0.665
218	-0.662
218	-0.66
219	-0.656
219	-0.655
220	-0.655
220	-0.656
221	-0.653
221	-0.652
221	-0.647
222	-0.641
222	-0.638
223	-0.633
223	-0.631
224	-0.626
224	-0.619
225	-0.611
225	-0.603
226	-0.594
226	-0.582
227	-0.572
227	-0.562
228	-0.546
228	-0.531
229	-0.511
229	-0.488
229	-0.464
230	-0.437
230	-0.407
231	-0.376
231	-0.342
232	-0.306
232	-0.269
233	-0.229
233	-0.189
234	-0.15
234	-0.111
235	-0.073
235	-0.038
236	-0.002
236	0.032
236	0.064
237	0.094
237	0.121
238	0.147
238	0.17
239	0.192
239	0.211
240	0.229
240	0.245
241	0.258
241	0.272
242	0.283
242	0.294
243	0.304
243	0.312
243	0.32
244	0.327
244	0.334
245	0.34
245	0.346
246	0.351
246	0.356
247	0.361
247	0.365
248	0.369
248	0.373
249	0.377
249	0.38
250	0.383
250	0.386
250	0.39
251	0.392
251	0.395
252	0.398
252	0.4
253	0.403
253	0.405
254	0.407
254	0.409
255	0.41
255	0.412
256	0.414
256	0.415
257	0.417
257	0.418
258	0.418
258	0.419
258	0.42
259	0.421
259	0.421
260	0.422
260	0.422
261	0.422
261	0.422
262	0.422
262	0.421
263	0.421
263	0.421
264	0.421
264	0.42
265	0.42
265	0.419
265	0.418
266	0.417
266	0.415
267	0.414
267	0.413
268	0.412
268	0.41
269	0.409
269	0.407
270	0.406
270	0.404
271	0.402
271	0.4
272	0.398
272	0.397
272	0.395
273	0.393
273	0.391
274	0.388
274	0.386
275	0.384
275	0.382
276	0.38
276	0.378
277	0.375
277	0.373
278	0.371
278	0.368
278	0.366
279	0.363
279	0.361
280	0.358
280	0.356
281	0.353
281	0.351
282	0.349
282	0.347
283	0.345
283	0.343
284	0.341
284	0.339
285	0.337
285	0.335
285	0.334
286	0.332
286	0.33
287	0.328
287	0.326
288	0.324
288	0.323
289	0.321
289	0.319
290	0.317
290	0.316
291	0.314
291	0.313
292	0.311
292	0.31
292	0.309
293	0.307
293	0.306
294	0.304
294	0.303
295	0.302
295	0.301
296	0.3
296	0.299
297	0.298
297	0.297
298	0.296
298	0.295
298	0.294
299	0.294
299	0.293
300	0.292
300	0.291
301	0.29
301	0.289
302	0.288
302	0.287
303	0.287
303	0.286
304	0.285
304	0.284
305	0.283
305	0.282
305	0.282
306	0.281
306	0.28
307	0.279
307	0.279
308	0.278
308	0.277
309	0.276
309	0.276
310	0.275
310	0.274
311	0.274
311	0.273
311	0.272
312	0.271
312	0.271
313	0.27
313	0.269
314	0.268
314	0.268
315	0.267
315	0.266
316	0.266
316	0.265
317	0.264
317	0.263
318	0.263
318	0.262
318	0.262
319	0.261
319	0.26
320	0.259
320	0.259
321	0.258
321	0.257
322	0.257
322	0.256
323	0.255
323	0.254
324	0.253
324	0.252
324	0.252
325	0.251
325	0.251
326	0.25
326	0.249
327	0.248
327	0.248
328	0.247
328	0.246
329	0.246
329	0.245
330	0.245
330	0.244
330	0.244
331	0.243
331	0.242
332	0.242
332	0.241
333	0.241
333	0.24
334	0.24
334	0.239
335	0.238
335	0.237
336	0.237
336	0.236
336	0.236
337	0.235
337	0.235
338	0.234
338	0.233
339	0.233
339	0.233
340	0.232
340	0.232
341	0.231
341	0.231
342	0.23
342	0.23
342	0.229
343	0.229
343	0.229
344	0.228
344	0.228
345	0.228
345	0.227
346	0.227
346	0.227
347	0.226
347	0.226
348	0.225
348	0.225
348	0.225
349	0.224
349	0.224
350	0.224
350	0.223
351	0.223
351	0.223
352	0.222
352	0.222
353	0.222
353	0.222
354	0.221
354	0.221
354	0.22
355	0.22
355	0.22
356	0.219
356	0.219
357	0.219
357	0.219
358	0.219
358	0.219
359	0.219
359	0.219
360	0.219
360	0.219
360	0.219
361	0.219
361	0.219
362	0.219
362	0.219
363	0.219
363	0.219
364	0.218
364	0.218
365	0.218
365	0.218
366	0.218
366	0.218
366	0.218
367	0.218
367	0.217
368	0.217
368	0.217
369	0.216
369	0.216
370	0.216
370	0.216
371	0.215
371	0.215
372	0.214
372	0.214
372	0.215
373	0.215
373	0.214
374	0.215
374	0.215
375	0.214
375	0.214
376	0.214
376	0.214
377	0.215
377	0.214
378	0.214
378	0.214
378	0.214
379	0.214
379	0.214
380	0.214
380	0.213
381	0.213
381	0.213
382	0.213
382	0.213
383	0.213
383	0.212
383	0.212
384	0.212
384	0.212
385	0.211
385	0.211
386	0.211
386	0.211
387	0.211
387	0.211
388	0.21
388	0.21
389	0.21
389	0.21
389	0.21
390	0.21
390	0.21
391	0.21
391	0.21
392	0.21
392	0.21
393	0.21
393	0.21
394	0.21
394	0.209
394	0.209
395	0.209
395	0.209
396	0.209
396	0.208
397	0.208
397	0.208
398	0.207
398	0.207
399	0.207
399	0.207
400	0.206
400	0.206
400	0.206
401	0.205
401	0.205
402	0.205
402	0.205
403	0.205
403	0.204
404	0.204
404	0.204
405	0.204
405	0.204
405	0.204
406	0.204
406	0.204
407	0.204
407	0.204
408	0.203
408	0.203
409	0.203
409	0.203
410	0.203
410	0.203
411	0.202
411	0.202
411	0.202
412	0.202
412	0.202
413	0.201
413	0.201
414	0.201
414	0.201
415	0.2
415	0.2
416	0.2
416	0.2
416	0.199
417	0.199
417	0.199
418	0.199
418	0.199
419	0.199
419	0.2
420	0.2
420	0.2
421	0.2
421	0.2
421	0.2
422	0.201
422	0.201
423	0.201
423	0.2
424	0.2
424	0.199
425	0.199
425	0.199
426	0.199
426	0.199
427	0.199
427	0.199
427	0.199
428	0.199
428	0.2
429	0.2
429	0.2
430	0.2
430	0.2
431	0.199
431	0.199
432	0.199
432	0.198
432	0.198
433	0.197
433	0.197
434	0.197
434	0.197
435	0.197
435	0.197
436	0.198
436	0.198
437	0.198
437	0.198
437	0.198
438	0.198
438	0.197
439	0.197
439	0.197
440	0.196
440	0.196
441	0.196
441	0.196
442	0.196
442	0.196
442	0.196
443	0.197
443	0.197
444	0.197
444	0.197
445	0.197
445	0.197
446	0.197
446	0.197
447	0.197
447	0.197
447	0.197
448	0.197
448	0.197
449	0.197
449	0.197
450	0.197
450	0.197
451	0.197
451	0.197
452	0.197
452	0.197
452	0.197
453	0.196
453	0.196
454	0.196
454	0.196
455	0.196
455	0.196
456	0.196
456	0.196
457	0.196
457	0.196
458	0.196
458	0.197
458	0.197
459	0.197
459	0.197
460	0.197
460	0.196
461	0.196
461	0.197
462	0.197
462	0.197
463	0.198
463	0.198
463	0.198
464	0.199
464	0.199
465	0.199
465	0.2
466	0.2
466	0.2
467	0.2
467	0.2
467	0.2
468	0.199
468	0.199
469	0.198
469	0.198
470	0.198
470	0.198
471	0.198
471	0.198
472	0.198
472	0.199
472	0.199
473	0.2
473	0.201
474	0.202
474	0.203
475	0.203
475	0.204
476	0.205
476	0.205
477	0.206
477	0.207
477	0.207
478	0.208
478	0.208
479	0.209
479	0.209
480	0.21
480	0.211
481	0.211
481	0.212
482	0.213
482	0.214
482	0.215
483	0.217
483	0.219
484	0.221
484	0.222
485	0.223
485	0.224
486	0.225
486	0.226
487	0.227
487	0.228
487	0.228
488	0.228
488	0.228
489	0.228
489	0.229
490	0.23
490	0.23
491	0.231
491	0.232
492	0.234
492	0.235
492	0.236
493	0.237
493	0.239
494	0.241
494	0.242
495	0.244
495	0.245
496	0.247
496	0.248
496	0.25
497	0.251
497	0.253
498	0.254
498	0.255
499	0.256
499	0.258
500	0.259
500	0.261
501	0.263
501	0.264
501	0.266
502	0.268
502	0.269
503	0.271
503	0.273
504	0.274
504	0.275
505	0.277
505	0.278
506	0.28
506	0.281
506	0.282
507	0.283
507	0.284
508	0.286
508	0.288
509	0.289
509	0.29
510	0.292
510	0.293
511	0.294
511	0.295
511	0.296
512	0.298
512	0.299
513	0.299
513	0.299
514	0.3
514	0.301
515	0.301
515	0.302
515	0.302
516	0.303
516	0.304
517	0.305
517	0.305
518	0.306
518	0.306
519	0.305
519	0.305
520	0.305
520	0.305
520	0.304
521	0.303
521	0.303
522	0.302
522	0.302
523	0.302
523	0.302
524	0.303
524	0.304
524	0.305
525	0.305
525	0.306
526	0.307
526	0.307
527	0.308
527	0.308
528	0.309
528	0.309
529	0.308
529	0.307
529	0.307
530	0.306
530	0.305
531	0.305
531	0.304
532	0.302
532	0.301
533	0.3
533	0.299
533	0.298
534	0.297
534	0.295
535	0.294
535	0.293
536	0.291
536	0.29
537	0.289
537	0.287
538	0.286
538	0.284
538	0.282
539	0.281
539	0.279
540	0.278
540	0.275
541	0.273
541	0.271
542	0.269
542	0.267
542	0.265
543	0.263
543	0.261
544	0.258
544	0.256
545	0.255
545	0.254
546	0.253
546	0.251
547	0.249
547	0.246
547	0.244
548	0.243
548	0.241
549	0.239
549	0.237
550	0.235
550	0.232
551	0.229
551	0.227
551	0.225
552	0.223
552	0.221
553	0.22
553	0.218
554	0.216
554	0.213
555	0.211
555	0.209
556	0.206
556	0.203
556	0.2
557	0.197
557	0.195
558	0.192
558	0.19
559	0.187
559	0.185
560	0.183
560	0.181
560	0.18
561	0.179
561	0.178
562	0.176
562	0.175
563	0.173
563	0.171
564	0.169
564	0.167
564	0.165
565	0.163
565	0.162
566	0.16
566	0.158
567	0.156
567	0.155
568	0.155
568	0.154
568	0.153
569	0.152
569	0.152
570	0.151
570	0.15
571	0.15
571	0.149
572	0.148
572	0.147
573	0.146
573	0.145
573	0.143
574	0.142
574	0.141
575	0.14
575	0.14
576	0.139
576	0.137
577	0.135
577	0.134
577	0.133
578	0.132
578	0.132
579	0.132
579	0.133
580	0.131
580	0.128
581	0.125
581	0.124
581	0.123
582	0.123
582	0.122
583	0.122
583	0.121
584	0.118
584	0.114
585	0.114
585	0.114
585	0.114
586	0.114
586	0.113
587	0.111
587	0.109
588	0.107
588	0.106
589	0.105
589	0.105
590	0.104
590	0.103
590	0.104
591	0.104
591	0.104
592	0.103
592	0.103
593	0.103
593	0.103
594	0.102
594	0.101
594	0.101
595	0.1
595	0.099
596	0.098
596	0.099
597	0.1
597	0.101
598	0.101
598	0.101
598	0.102
599	0.102
599	0.101
600	0.1
600	0.099
601	0.098
601	0.098
602	0.096
602	0.095
602	0.094
603	0.093
603	0.094
604	0.094
604	0.094
605	0.095
605	0.096
606	0.096
606	0.095
606	0.094
607	0.094
607	0.093
608	0.093
608	0.092
609	0.091
609	0.091
610	0.09
610	0.09
610	0.09
611	0.092
611	0.093
612	0.094
612	0.096
613	0.097
613	0.098
614	0.099
614	0.099
614	0.099
615	0.099
615	0.099
616	0.1
616	0.1
617	0.099
617	0.099
618	0.098
618	0.098
618	0.097
619	0.098
619	0.098
620	0.1
620	0.1
621	0.1
621	0.1
622	0.101
622	0.101
622	0.101
623	0.101
623	0.102
624	0.103
624	0.103
625	0.103
625	0.103
626	0.103
626	0.104
626	0.105
627	0.106
627	0.107
628	0.108
628	0.108
629	0.109
629	0.109
630	0.109
630	0.109
630	0.11
631	0.111
631	0.111
632	0.111
632	0.111
633	0.112
633	0.113
634	0.114
634	0.116
634	0.118
635	0.119
635	0.12
636	0.121
636	0.122
637	0.123
637	0.124
638	0.126
638	0.127
638	0.128
639	0.129
639	0.129
640	0.131
640	0.132
641	0.133
641	0.135
642	0.137
642	0.139
642	0.141
643	0.142
643	0.144
644	0.146
644	0.148
645	0.149
645	0.151
646	0.154
646	0.156
646	0.159
647	0.162
647	0.165
648	0.167
648	0.17
649	0.173
649	0.176
650	0.179
650	0.182
650	0.185
651	0.187
651	0.189
652	0.191
652	0.193
653	0.196
653	0.202
653	0.209
654	0.166
654	0.134
655	0.136
655	0.138
656	0.14
656	0.142
657	0.144
657	0.146
657	0.147
658	0.145
658	0.138
659	0.176
659	0.228
660	0.237
660	0.239
661	0.241
661	0.244
661	0.247
662	0.25
662	0.252
663	0.255
663	0.258
664	0.26
664	0.262
665	0.265
665	0.267
665	0.27
666	0.272
666	0.275
667	0.277
667	0.28
668	0.282
668	0.285
669	0.287
669	0.29
669	0.294
670	0.297
670	0.299
671	0.301
671	0.303
672	0.305
672	0.306
672	0.308
673	0.309
673	0.311
674	0.313
674	0.314
675	0.316
675	0.318
676	0.321
676	0.323
676	0.324
677	0.327
677	0.329
678	0.33
678	0.331
679	0.332
679	0.334
680	0.335
680	0.337
680	0.337
681	0.338
681	0.339
682	0.34
682	0.341
683	0.343
683	0.345
684	0.346
684	0.346
684	0.346
685	0.347
685	0.347
686	0.347
686	0.347
687	0.347
687	0.346
687	0.346
688	0.345
688	0.345
689	0.345
689	0.346
690	0.346
690	0.346
691	0.347
691	0.347
691	0.347
692	0.346
692	0.345
693	0.345
693	0.344
694	0.343
694	0.341
695	0.341
695	0.341
695	0.34
696	0.338
696	0.337
697	0.337
697	0.336
698	0.334
698	0.332
698	0.331
699	0.329
699	0.326
700	0.323
700	0.321
701	0.319
701	0.316
702	0.314
702	0.311
702	0.309
703	0.306
703	0.304
704	0.302
704	0.301
705	0.3
705	0.298
705	0.297
706	0.296
706	0.294
707	0.293
707	0.292
708	0.29
708	0.289
709	0.287
709	0.285
709	0.283
710	0.28
710	0.278
711	0.276
711	0.274
712	0.272
712	0.269
713	0.267
713	0.265
713	0.263
714	0.26
714	0.257
715	0.254
715	0.251
716	0.248
716	0.245
716	0.242
717	0.239
717	0.236
718	0.233
718	0.23
719	0.228
719	0.226
720	0.223
720	0.221
720	0.219
721	0.216
721	0.214
722	0.212
722	0.209
723	0.207
723	0.205
723	0.203
724	0.201
724	0.199
725	0.196
725	0.195
726	0.193
726	0.19
727	0.188
727	0.186
727	0.185
728	0.182
728	0.18
729	0.179
729	0.177
730	0.175
730	0.173
730	0.171
731	0.17
731	0.168
732	0.168
732	0.166
733	0.165
733	0.163
734	0.162
734	0.16
734	0.16
735	0.159
735	0.158
736	0.156
736	0.154
737	0.152
737	0.151
737	0.148
738	0.146
738	0.143
739	0.14
739	0.138
740	0.136
740	0.134
741	0.133
741	0.131
741	0.129
742	0.127
742	0.125
743	0.124
743	0.123
744	0.122
744	0.121
744	0.119
745	0.117
745	0.114
746	0.113
746	0.111
747	0.11
747	0.109
748	0.108
748	0.106
748	0.105
749	0.103
749	0.103
750	0.102
750	0.101
751	0.101
751	0.1
751	0.1
752	0.099
752	0.097
753	0.096
753	0.095
754	0.095
754	0.093
754	0.093
755	0.092
755	0.092
756	0.091
756	0.089
757	0.089
757	0.089
758	0.089
758	0.088
758	0.088
759	0.088
759	0.086
760	0.085
760	0.083
761	0.082
761	0.081
761	0.08
762	0.077
762	0.076
763	0.074
763	0.071
764	0.069
764	0.066
764	0.064
765	0.062
765	0.061
766	0.059
766	0.059
767	0.057
767	0.055
768	0.053
768	0.052
768	0.051
769	0.05
769	0.05
770	0.048
770	0.047
771	0.045
771	0.043
771	0.04
772	0.039
772	0.037
773	0.035
773	0.033
774	0.031
774	0.028
775	0.026
775	0.024
775	0.022
776	0.02
776	0.019
777	0.017
777	0.015
778	0.012
778	0.009
778	0.007
779	0.005
779	0.003
780	0
780	-0.002
781	-0.005
781	-0.008
781	-0.012
782	-0.016
782	-0.02
783	-0.024
783	-0.028
784	-0.033
784	-0.038
784	-0.043
785	-0.049
785	-0.054
786	-0.059
786	-0.063
787	-0.067
787	-0.071
788	-0.077
788	-0.083
788	-0.09
789	-0.097
789	-0.102
790	-0.104
790	-0.108
791	-0.112
791	-0.116
791	-0.118
792	-0.113
792	-0.104
793	-0.099
793	-0.095
794	-0.093
794	-0.096
794	-0.1
795	-0.102
795	-0.103
796	-0.103
796	-0.106
797	-0.115
797	-0.126
797	-0.132
798	-0.138
798	-0.141
799	-0.142
799	-0.141
800	-0.14
800	-0.142
801	-0.145
801	-0.145
801	-0.145
802	-0.146
802	-0.147
803	-0.148
803	-0.148
804	-0.147
804	-0.142
804	-0.135
805	-0.131
805	-0.13
806	-0.128
806	-0.127
807	-0.127
807	-0.127
807	-0.127
808	-0.127
808	-0.128
809	-0.133
809	-0.139
810	-0.143
810	-0.146
810	-0.149
811	-0.152
811	-0.152
812	-0.148
812	-0.145
813	-0.145
813	-0.146
813	-0.147
814	-0.148
814	-0.149
815	-0.147
815	-0.144
816	-0.14
816	-0.138
817	-0.137
817	-0.135
817	-0.128
818	-0.12
818	-0.109
819	-0.098
819	-0.088
820	-0.079
820	-0.07
820	-0.062
821	-0.053
821	-0.046
822	-0.039
822	-0.033
823	-0.028
823	-0.024
823	-0.02
824	-0.017
824	-0.012
825	-0.008
825	-0.004
826	-0
826	0.002
826	0.005
827	0.007
827	0.009
828	0.011
828	0.012
829	0.014
829	0.016
829	0.016
830	0.017
830	0.018
831	0.02
831	0.021
832	0.022
832	0.023
832	0.023
833	0.024
833	0.024
834	0.025
834	0.025
835	0.025
835	0.025
835	0.025
836	0.025
836	0.025
837	0.025
837	0.026
838	0.026
838	0.027
839	0.027
839	0.027
839	0.027
840	0.027
840	0.026
841	0.026
841	0.026
842	0.025
842	0.025
842	0.024
843	0.024
843	0.024
844	0.024
844	0.024
845	0.024
845	0.024
845	0.024
846	0.025
846	0.025
847	0.025
847	0.026
848	0.027
848	0.027
848	0.028
849	0.029
849	0.029
850	0.03
850	0.03
851	0.031
851	0.031
851	0.031
852	0.03
852	0.03
853	0.029
853	0.029
854	0.029
854	0.029
854	0.028
855	0.028
855	0.028
856	0.027
856	0.027
857	0.027
857	0.027
857	0.027
858	0.028
858	0.028
859	0.028
859	0.028
860	0.029
860	0.029
860	0.03
861	0.031
861	0.032
862	0.032
862	0.032
863	0.033
863	0.033
863	0.033
864	0.033
864	0.033
865	0.033
865	0.033
866	0.033
866	0.033
866	0.033
867	0.033
867	0.034
868	0.034
868	0.034
869	0.034
869	0.034
869	0.033
870	0.032
870	0.032
871	0.032
871	0.031
872	0.031
872	0.031
872	0.031
873	0.032
873	0.032
874	0.032
874	0.032
875	0.032
875	0.031
875	0.031
876	0.03
876	0.03
877	0.029
877	0.028
878	0.027
878	0.026
878	0.025
879	0.025
879	0.024
880	0.024
880	0.024
881	0.024
881	0.024
881	0.024
882	0.024
882	0.024
883	0.023
883	0.023
884	0.023
884	0.022
884	0.022
885	0.022
885	0.022
886	0.022
886	0.023
887	0.023
887	0.023
887	0.024
888	0.025
888	0.025
889	0.026
889	0.027
890	0.028
890	0.028
890	0.028
891	0.028
891	0.028
892	0.029
892	0.029
893	0.029
893	0.029
893	0.03
894	0.03
894	0.029
895	0.029
895	0.029
895	0.028
896	0.028
896	0.028
897	0.027
897	0.027
898	0.027
898	0.027
898	0.027
899	0.027
899	0.027
900	0.027
900	0.027
901	0.027
901	0.027
901	0.027
902	0.027
902	0.028
903	0.027
903	0.028
904	0.028
904	0.029
904	0.029
905	0.03
905	0.031
906	0.031
906	0.031
907	0.031
907	0.031
907	0.031
908	0.031
908	0.032
909	0.032
909	0.032
910	0.033
910	0.033
910	0.033
911	0.033
911	0.033
912	0.033
912	0.033
913	0.033
913	0.033
913	0.032
914	0.032
914	0.031
915	0.03
915	0.03
916	0.029
916	0.028
916	0.027
917	0.026
917	0.025
918	0.023
918	0.022
918	0.021
919	0.02
919	0.02
920	0.019
920	0.019
921	0.019
921	0.018
921	0.018
922	0.019
922	0.019
923	0.02
923	0.02
924	0.02
924	0.021
924	0.021
925	0.021
925	0.022
926	0.022
926	0.023
927	0.023
927	0.023
927	0.023
928	0.023
928	0.023
929	0.023
929	0.023
930	0.022
930	0.022
930	0.021
931	0.021
931	0.021
932	0.021
932	0.02
933	0.02
933	0.02
933	0.02
934	0.019
934	0.019
935	0.018
935	0.018
935	0.018
936	0.017
936	0.016
937	0.016
937	0.016
938	0.015
938	0.015
938	0.015
939	0.016
939	0.017
940	0.018
940	0.018
941	0.019
941	0.021
941	0.022
942	0.023
942	0.024
943	0.025
943	0.026
944	0.026
944	0.026
944	0.027
945	0.027
945	0.028
946	0.028
946	0.028
946	0.028
947	0.029
947	0.029
948	0.029
948	0.029
949	0.029
949	0.03
949	0.03
950	0.03
950	0.03
951	0.03
951	0.03
952	0.029
952	0.029
952	0.028
953	0.027
953	0.027
954	0.026
954	0.026
955	0.026
955	0.026
955	0.026
956	0.026
956	0.026
957	0.026
957	0.026
957	0.026
958	0.026
958	0.026
959	0.026
959	0.026
960	0.026
960	0.026
960	0.026
961	0.025
961	0.025
962	0.026
962	0.026
963	0.026
963	0.026
963	0.026
964	0.026
964	0.027
965	0.027
965	0.027
966	0.027
966	0.027
966	0.027
967	0.027
967	0.026
968	0.025
968	0.024
968	0.024
969	0.023
969	0.022
970	0.021
970	0.021
971	0.02
971	0.019
971	0.019
972	0.019
972	0.019
973	0.019
973	0.02
974	0.02
974	0.021
974	0.021
975	0.022
975	0.023
976	0.024
976	0.025
976	0.026
977	0.027
977	0.027
978	0.027
978	0.028
979	0.028
979	0.028
979	0.028
980	0.028
980	0.027
981	0.026
981	0.026
982	0.025
982	0.024
982	0.023
983	0.021
983	0.02
984	0.019
984	0.017
984	0.016
985	0.015
985	0.014
986	0.013
986	0.012
987	0.011
987	0.011
987	0.011
988	0.011
988	0.011
989	0.011
989	0.011
990	0.011
990	0.012
990	0.013
991	0.014
991	0.015
992	0.016
992	0.017
992	0.018
993	0.018
993	0.019
994	0.019
994	0.019
995	0.019
995	0.019
995	0.019
996	0.018
996	0.017
997	0.016
997	0.015
997	0.014
998	0.014
998	0.014
999	0.015
999	0.015
1000	0.015
1000	0.016
1000	0.016
1001	0.017
1001	0.018
1002	0.019
1002	0.019
1003	0.02
1003	0.02
1003	0.02
1004	0.02
1004	0.02
1005	0.02
1005	0.019
1005	0.019
1006	0.019
1006	0.019
1007	0.018
1007	0.018
1008	0.018
1008	0.018
1008	0.018
1009	0.018
1009	0.018
1010	0.018
1010	0.018
1010	0.019
1011	0.019
1011	0.019
1012	0.019
1012	0.019
1013	0.019
1013	0.018
1013	0.018
1014	0.017
1014	0.016
1015	0.015
1015	0.015
1016	0.013
1016	0.012
1016	0.011
1017	0.01
1017	0.009
1018	0.009
1018	0.008
1018	0.008
1019	0.007
1019	0.007
1020	0.007
1020	0.007
1021	0.007
1021	0.008
1021	0.008
1022	0.009
1022	0.01
1023	0.01
1023	0.011
1023	0.011
1024	0.012
1024	0.012
1025	0.012
1025	0.012
1026	0.012
1026	0.011
1026	0.011
1027	0.01
1027	0.01
1028	0.009
1028	0.009
1028	0.008
1029	0.008
1029	0.008
1030	0.007
1030	0.007
1031	0.007
1031	0.007
1031	0.007
1032	0.007
1032	0.007
1033	0.007
1033	0.007
1033	0.007
1034	0.007
1034	0.006
1035	0.006
1035	0.006
1036	0.006
1036	0.006
1036	0.006
1037	0.007
1037	0.007
1038	0.007
1038	0.007
1039	0.008
1039	0.008
1039	0.009
1040	0.009
1040	0.01
1041	0.011
1041	0.011
1041	0.012
1042	0.012
1042	0.013
1043	0.013
1043	0.014
1044	0.014
1044	0.014
1044	0.015
1045	0.015
1045	0.015
1046	0.015
1046	0.015
1046	0.016
1047	0.015
1047	0.016
1048	0.016
1048	0.016
1049	0.015
1049	0.014
1049	0.013
1050	0.012
1050	0.012
1051	0.011
1051	0.01
1051	0.01
1052	0.009
1052	0.008
1053	0.007
1053	0.006
1053	0.006
1054	0.005
1054	0.004
1055	0.004
1055	0.003
1056	0.002
1056	0.001
1056	-0.001
1057	-0.002
1057	-0.003
1058	-0.003
1058	-0.004
1058	-0.005
1059	-0.005
1059	-0.006
1060	-0.006
1060	-0.006
1061	-0.005
1061	-0.005
1061	-0.005
1062	-0.005
1062	-0.005
1063	-0.005
1063	-0.005
1063	-0.005
1064	-0.005
1064	-0.004
1065	-0.004
1065	-0.004
1066	-0.004
1066	-0.003
1066	-0.003
1067	-0.003
1067	-0.002
1068	-0.002
1068	-0.002
1068	-0.002
1069	-0.002
1069	-0.004
1070	-0.004
1070	-0.005
1071	-0.006
1071	-0.006
1071	-0.007
1072	-0.008
1072	-0.009
1073	-0.01
1073	-0.01
1073	-0.011
1074	-0.011
1074	-0.011
1075	-0.013
1075	-0.014
1076	-0.015
1076	-0.015
1076	-0.016
1077	-0.016
1077	-0.016
1078	-0.017
1078	-0.017
1078	-0.016
1079	-0.016
1079	-0.015
1080	-0.014
1080	-0.013
1080	-0.013
1081	-0.011
1081	-0.01
1082	-0.009
1082	-0.009
1083	-0.008
1083	-0.008
1083	-0.007
1084	-0.007
1084	-0.006
1085	-0.006
1085	-0.005
1085	-0.005
1086	-0.005
1086	-0.006
1087	-0.005
1087	-0.005
1088	-0.005
1088	-0.006
1088	-0.006
1089	-0.007
1089	-0.008
1090	-0.009
1090	-0.009
1090	-0.009
1091	-0.01
1091	-0.009
1092	-0.01
1092	-0.008
1092	-0.007
1093	-0.007
1093	-0.006
1094	-0.005
1094	-0.005
1095	-0.005
1095	-0.005
1095	-0.003
1096	-0.003
1096	-0.003
1097	-0.002
1097	-0.001
1097	-0
1098	0.001
1098	0.003
1099	0.004
1099	0.007
1100	0.009
1100	0.01
1100	0.012
1101	0.013
1101	0.015
1102	0.017
1102	0.019
1102	0.021
1103	0.023
1103	0.026
1104	0.03
1104	0.033
1104	0.038
1105	0.043
1105	0.047
1106	0.05
1106	0.055
1107	0.059
1107	0.067
1107	0.076
1108	0.108
1108	0.151
1109	0.212
1109	0.305
1109	0.372
1110	0.509
1110	0.868
1111	-0
1111	-0
