Data from 17c-2a_Absorbance__1210__01211.txt Node

Date: Fri Jan 26 10:27:50 CET 2024
User: Marek
Spectrometer: MAYP115816
Trigger mode: 0
Integration Time (sec): 2.000000E-1
Scans to average: 10
Electric dark correction enabled: true
Nonlinearity correction enabled: true
Boxcar width: 5
XAxis mode: Wavelengths
Number of Pixels in Spectrum: 2068
>>>>>Begin Spectral Data<<<<<
199	-1.407
199	-1.272
200	-1.125
200	-1.017
201	-0.949
201	-0.908
202	-0.846
202	-0.798
203	-0.758
203	-0.725
204	-0.701
204	-0.679
205	-0.658
205	-0.65
205	-0.648
206	-0.643
206	-0.641
207	-0.636
207	-0.635
208	-0.634
208	-0.632
209	-0.629
209	-0.627
210	-0.629
210	-0.629
211	-0.629
211	-0.632
212	-0.632
212	-0.632
213	-0.631
213	-0.627
213	-0.628
214	-0.627
214	-0.625
215	-0.62
215	-0.618
216	-0.615
216	-0.614
217	-0.611
217	-0.609
218	-0.605
218	-0.603
219	-0.599
219	-0.598
220	-0.597
220	-0.598
221	-0.596
221	-0.595
221	-0.591
222	-0.585
222	-0.582
223	-0.578
223	-0.575
224	-0.571
224	-0.564
225	-0.557
225	-0.55
226	-0.541
226	-0.53
227	-0.52
227	-0.511
228	-0.496
228	-0.481
229	-0.461
229	-0.44
229	-0.417
230	-0.391
230	-0.362
231	-0.332
231	-0.3
232	-0.268
232	-0.232
233	-0.196
233	-0.159
234	-0.123
234	-0.089
235	-0.055
235	-0.023
236	0.008
236	0.037
236	0.064
237	0.089
237	0.112
238	0.133
238	0.152
239	0.169
239	0.185
240	0.199
240	0.212
241	0.223
241	0.234
242	0.243
242	0.252
243	0.26
243	0.267
243	0.273
244	0.279
244	0.285
245	0.289
245	0.294
246	0.299
246	0.303
247	0.307
247	0.31
248	0.313
248	0.317
249	0.32
249	0.323
250	0.326
250	0.329
250	0.332
251	0.334
251	0.336
252	0.339
252	0.341
253	0.343
253	0.345
254	0.347
254	0.348
255	0.35
255	0.352
256	0.353
256	0.354
257	0.356
257	0.357
258	0.358
258	0.359
258	0.359
259	0.36
259	0.36
260	0.361
260	0.361
261	0.361
261	0.361
262	0.361
262	0.36
263	0.36
263	0.36
264	0.359
264	0.359
265	0.358
265	0.357
265	0.356
266	0.355
266	0.354
267	0.353
267	0.352
268	0.35
268	0.349
269	0.348
269	0.346
270	0.344
270	0.343
271	0.341
271	0.34
272	0.338
272	0.336
272	0.334
273	0.333
273	0.33
274	0.328
274	0.326
275	0.324
275	0.323
276	0.321
276	0.318
277	0.316
277	0.314
278	0.311
278	0.309
278	0.307
279	0.304
279	0.302
280	0.3
280	0.298
281	0.295
281	0.293
282	0.291
282	0.289
283	0.287
283	0.285
284	0.284
284	0.282
285	0.28
285	0.278
285	0.276
286	0.274
286	0.273
287	0.271
287	0.27
288	0.268
288	0.266
289	0.265
289	0.263
290	0.262
290	0.26
291	0.259
291	0.258
292	0.257
292	0.255
292	0.254
293	0.253
293	0.252
294	0.25
294	0.249
295	0.248
295	0.247
296	0.246
296	0.245
297	0.245
297	0.244
298	0.243
298	0.242
298	0.242
299	0.241
299	0.24
300	0.239
300	0.239
301	0.238
301	0.237
302	0.237
302	0.236
303	0.236
303	0.235
304	0.234
304	0.234
305	0.233
305	0.232
305	0.232
306	0.231
306	0.23
307	0.23
307	0.229
308	0.228
308	0.228
309	0.227
309	0.226
310	0.226
310	0.225
311	0.225
311	0.224
311	0.224
312	0.223
312	0.223
313	0.222
313	0.222
314	0.221
314	0.22
315	0.22
315	0.219
316	0.219
316	0.218
317	0.218
317	0.217
318	0.216
318	0.216
318	0.215
319	0.215
319	0.214
320	0.214
320	0.213
321	0.212
321	0.212
322	0.211
322	0.21
323	0.21
323	0.209
324	0.209
324	0.208
324	0.208
325	0.207
325	0.207
326	0.206
326	0.205
327	0.205
327	0.204
328	0.204
328	0.203
329	0.203
329	0.202
330	0.201
330	0.201
330	0.2
331	0.2
331	0.199
332	0.199
332	0.198
333	0.198
333	0.198
334	0.197
334	0.197
335	0.196
335	0.196
336	0.195
336	0.195
336	0.194
337	0.194
337	0.194
338	0.193
338	0.192
339	0.192
339	0.192
340	0.191
340	0.191
341	0.19
341	0.19
342	0.19
342	0.189
342	0.189
343	0.189
343	0.189
344	0.188
344	0.188
345	0.188
345	0.187
346	0.187
346	0.187
347	0.186
347	0.186
348	0.186
348	0.185
348	0.185
349	0.185
349	0.185
350	0.184
350	0.184
351	0.184
351	0.184
352	0.184
352	0.184
353	0.183
353	0.183
354	0.183
354	0.183
354	0.182
355	0.182
355	0.182
356	0.181
356	0.181
357	0.18
357	0.18
358	0.18
358	0.18
359	0.18
359	0.18
360	0.18
360	0.18
360	0.18
361	0.18
361	0.18
362	0.18
362	0.18
363	0.18
363	0.18
364	0.18
364	0.18
365	0.18
365	0.18
366	0.18
366	0.18
366	0.18
367	0.18
367	0.18
368	0.18
368	0.179
369	0.179
369	0.179
370	0.179
370	0.179
371	0.178
371	0.178
372	0.178
372	0.177
372	0.177
373	0.177
373	0.177
374	0.177
374	0.177
375	0.177
375	0.177
376	0.178
376	0.178
377	0.178
377	0.178
378	0.178
378	0.178
378	0.178
379	0.178
379	0.178
380	0.178
380	0.178
381	0.177
381	0.177
382	0.177
382	0.177
383	0.177
383	0.176
383	0.176
384	0.176
384	0.176
385	0.176
385	0.175
386	0.175
386	0.175
387	0.175
387	0.175
388	0.175
388	0.175
389	0.174
389	0.174
389	0.174
390	0.174
390	0.174
391	0.174
391	0.175
392	0.175
392	0.175
393	0.175
393	0.175
394	0.175
394	0.175
394	0.175
395	0.174
395	0.174
396	0.174
396	0.174
397	0.174
397	0.174
398	0.173
398	0.173
399	0.173
399	0.173
400	0.172
400	0.172
400	0.172
401	0.172
401	0.171
402	0.171
402	0.171
403	0.171
403	0.17
404	0.17
404	0.171
405	0.171
405	0.17
405	0.17
406	0.17
406	0.17
407	0.17
407	0.17
408	0.17
408	0.17
409	0.17
409	0.17
410	0.17
410	0.17
411	0.17
411	0.169
411	0.169
412	0.169
412	0.169
413	0.169
413	0.169
414	0.169
414	0.169
415	0.168
415	0.168
416	0.168
416	0.168
416	0.167
417	0.167
417	0.167
418	0.167
418	0.167
419	0.168
419	0.168
420	0.168
420	0.168
421	0.168
421	0.168
421	0.168
422	0.169
422	0.169
423	0.169
423	0.168
424	0.168
424	0.168
425	0.168
425	0.168
426	0.168
426	0.168
427	0.168
427	0.168
427	0.168
428	0.168
428	0.168
429	0.168
429	0.168
430	0.168
430	0.168
431	0.168
431	0.168
432	0.168
432	0.168
432	0.167
433	0.167
433	0.167
434	0.167
434	0.167
435	0.167
435	0.167
436	0.167
436	0.167
437	0.167
437	0.167
437	0.167
438	0.167
438	0.167
439	0.167
439	0.166
440	0.166
440	0.166
441	0.166
441	0.166
442	0.166
442	0.166
442	0.166
443	0.166
443	0.166
444	0.166
444	0.166
445	0.166
445	0.167
446	0.167
446	0.166
447	0.166
447	0.166
447	0.167
448	0.167
448	0.166
449	0.166
449	0.166
450	0.167
450	0.167
451	0.166
451	0.167
452	0.167
452	0.167
452	0.167
453	0.166
453	0.166
454	0.166
454	0.166
455	0.166
455	0.166
456	0.166
456	0.166
457	0.166
457	0.166
458	0.166
458	0.167
458	0.167
459	0.167
459	0.167
460	0.167
460	0.167
461	0.167
461	0.167
462	0.167
462	0.168
463	0.168
463	0.168
463	0.169
464	0.169
464	0.169
465	0.17
465	0.17
466	0.17
466	0.17
467	0.17
467	0.17
467	0.17
468	0.17
468	0.169
469	0.169
469	0.169
470	0.169
470	0.169
471	0.169
471	0.169
472	0.169
472	0.17
472	0.17
473	0.171
473	0.172
474	0.172
474	0.173
475	0.173
475	0.174
476	0.174
476	0.175
477	0.175
477	0.175
477	0.176
478	0.176
478	0.177
479	0.177
479	0.178
480	0.179
480	0.179
481	0.18
481	0.18
482	0.181
482	0.182
482	0.183
483	0.185
483	0.186
484	0.188
484	0.189
485	0.19
485	0.191
486	0.192
486	0.192
487	0.193
487	0.194
487	0.194
488	0.194
488	0.194
489	0.194
489	0.195
490	0.196
490	0.196
491	0.197
491	0.198
492	0.2
492	0.2
492	0.201
493	0.202
493	0.203
494	0.205
494	0.207
495	0.208
495	0.209
496	0.21
496	0.212
496	0.213
497	0.214
497	0.215
498	0.216
498	0.218
499	0.219
499	0.22
500	0.221
500	0.223
501	0.224
501	0.226
501	0.227
502	0.229
502	0.23
503	0.232
503	0.233
504	0.234
504	0.235
505	0.237
505	0.238
506	0.239
506	0.241
506	0.242
507	0.243
507	0.244
508	0.245
508	0.246
509	0.248
509	0.249
510	0.25
510	0.252
511	0.253
511	0.254
511	0.255
512	0.256
512	0.257
513	0.258
513	0.258
514	0.258
514	0.259
515	0.259
515	0.26
515	0.26
516	0.26
516	0.261
517	0.262
517	0.262
518	0.262
518	0.263
519	0.262
519	0.262
520	0.262
520	0.262
520	0.262
521	0.261
521	0.26
522	0.259
522	0.259
523	0.259
523	0.259
524	0.259
524	0.26
524	0.26
525	0.261
525	0.261
526	0.262
526	0.263
527	0.263
527	0.264
528	0.264
528	0.264
529	0.264
529	0.263
529	0.263
530	0.263
530	0.262
531	0.262
531	0.261
532	0.26
532	0.259
533	0.258
533	0.257
533	0.256
534	0.255
534	0.253
535	0.252
535	0.251
536	0.25
536	0.249
537	0.247
537	0.246
538	0.245
538	0.243
538	0.242
539	0.241
539	0.24
540	0.238
540	0.236
541	0.234
541	0.232
542	0.231
542	0.229
542	0.227
543	0.225
543	0.223
544	0.221
544	0.22
545	0.219
545	0.217
546	0.216
546	0.215
547	0.213
547	0.211
547	0.209
548	0.208
548	0.207
549	0.205
549	0.204
550	0.202
550	0.2
551	0.198
551	0.196
551	0.195
552	0.193
552	0.191
553	0.19
553	0.189
554	0.187
554	0.185
555	0.182
555	0.18
556	0.178
556	0.175
556	0.173
557	0.17
557	0.168
558	0.166
558	0.164
559	0.162
559	0.16
560	0.158
560	0.157
560	0.156
561	0.155
561	0.154
562	0.153
562	0.152
563	0.15
563	0.148
564	0.146
564	0.145
564	0.143
565	0.142
565	0.14
566	0.138
566	0.137
567	0.136
567	0.135
568	0.134
568	0.134
568	0.133
569	0.133
569	0.133
570	0.132
570	0.131
571	0.131
571	0.13
572	0.13
572	0.129
573	0.127
573	0.126
573	0.125
574	0.124
574	0.123
575	0.122
575	0.123
576	0.122
576	0.12
577	0.119
577	0.118
577	0.117
578	0.116
578	0.116
579	0.116
579	0.116
580	0.114
580	0.112
581	0.109
581	0.108
581	0.107
582	0.107
582	0.107
583	0.107
583	0.106
584	0.103
584	0.101
585	0.1
585	0.1
585	0.1
586	0.1
586	0.099
587	0.097
587	0.096
588	0.094
588	0.093
589	0.092
589	0.092
590	0.091
590	0.091
590	0.092
591	0.093
591	0.092
592	0.091
592	0.091
593	0.091
593	0.091
594	0.09
594	0.09
594	0.089
595	0.088
595	0.087
596	0.087
596	0.087
597	0.089
597	0.089
598	0.089
598	0.09
598	0.09
599	0.09
599	0.09
600	0.089
600	0.088
601	0.087
601	0.086
602	0.085
602	0.084
602	0.083
603	0.083
603	0.083
604	0.084
604	0.084
605	0.085
605	0.086
606	0.085
606	0.085
606	0.084
607	0.084
607	0.084
608	0.083
608	0.082
609	0.082
609	0.082
610	0.081
610	0.081
610	0.081
611	0.082
611	0.083
612	0.085
612	0.086
613	0.087
613	0.089
614	0.089
614	0.089
614	0.089
615	0.089
615	0.089
616	0.09
616	0.09
617	0.089
617	0.089
618	0.088
618	0.088
618	0.088
619	0.088
619	0.089
620	0.09
620	0.091
621	0.091
621	0.091
622	0.092
622	0.092
622	0.092
623	0.092
623	0.093
624	0.094
624	0.094
625	0.094
625	0.095
626	0.095
626	0.095
626	0.096
627	0.097
627	0.098
628	0.098
628	0.099
629	0.099
629	0.099
630	0.099
630	0.099
630	0.099
631	0.1
631	0.1
632	0.1
632	0.101
633	0.101
633	0.102
634	0.103
634	0.105
634	0.107
635	0.108
635	0.109
636	0.11
636	0.111
637	0.111
637	0.112
638	0.113
638	0.114
638	0.115
639	0.115
639	0.116
640	0.117
640	0.118
641	0.119
641	0.12
642	0.122
642	0.123
642	0.125
643	0.126
643	0.127
644	0.129
644	0.131
645	0.133
645	0.135
646	0.137
646	0.139
646	0.142
647	0.145
647	0.147
648	0.149
648	0.152
649	0.154
649	0.157
650	0.159
650	0.162
650	0.164
651	0.166
651	0.168
652	0.17
652	0.171
653	0.174
653	0.18
653	0.184
654	0.147
654	0.119
655	0.121
655	0.123
656	0.124
656	0.126
657	0.128
657	0.129
657	0.131
658	0.129
658	0.123
659	0.156
659	0.201
660	0.209
660	0.211
661	0.213
661	0.215
661	0.218
662	0.22
662	0.223
663	0.225
663	0.228
664	0.23
664	0.232
665	0.235
665	0.237
665	0.24
666	0.242
666	0.244
667	0.246
667	0.248
668	0.251
668	0.253
669	0.255
669	0.257
669	0.26
670	0.262
670	0.264
671	0.265
671	0.267
672	0.268
672	0.27
672	0.271
673	0.273
673	0.275
674	0.276
674	0.278
675	0.279
675	0.281
676	0.284
676	0.286
676	0.287
677	0.29
677	0.292
678	0.293
678	0.294
679	0.295
679	0.296
680	0.298
680	0.299
680	0.299
681	0.3
681	0.301
682	0.302
682	0.303
683	0.304
683	0.306
684	0.307
684	0.307
684	0.307
685	0.307
685	0.308
686	0.308
686	0.308
687	0.307
687	0.307
687	0.307
688	0.306
688	0.306
689	0.306
689	0.307
690	0.307
690	0.307
691	0.307
691	0.307
691	0.307
692	0.306
692	0.306
693	0.306
693	0.305
694	0.304
694	0.303
695	0.303
695	0.303
695	0.302
696	0.3
696	0.299
697	0.299
697	0.298
698	0.296
698	0.295
698	0.293
699	0.292
699	0.289
700	0.286
700	0.285
701	0.283
701	0.281
702	0.279
702	0.277
702	0.275
703	0.273
703	0.271
704	0.269
704	0.268
705	0.267
705	0.266
705	0.264
706	0.263
706	0.262
707	0.261
707	0.26
708	0.259
708	0.257
709	0.256
709	0.254
709	0.252
710	0.25
710	0.248
711	0.246
711	0.244
712	0.242
712	0.24
713	0.238
713	0.236
713	0.234
714	0.231
714	0.228
715	0.226
715	0.224
716	0.221
716	0.219
716	0.217
717	0.214
717	0.212
718	0.209
718	0.207
719	0.205
719	0.203
720	0.201
720	0.199
720	0.197
721	0.194
721	0.192
722	0.19
722	0.187
723	0.186
723	0.184
723	0.182
724	0.18
724	0.178
725	0.176
725	0.174
726	0.173
726	0.171
727	0.17
727	0.168
727	0.167
728	0.165
728	0.163
729	0.162
729	0.161
730	0.159
730	0.157
730	0.155
731	0.153
731	0.152
732	0.15
732	0.149
733	0.147
733	0.146
734	0.145
734	0.144
734	0.143
735	0.143
735	0.142
736	0.14
736	0.139
737	0.138
737	0.137
737	0.135
738	0.133
738	0.13
739	0.128
739	0.126
740	0.124
740	0.123
741	0.122
741	0.12
741	0.118
742	0.116
742	0.114
743	0.114
743	0.113
744	0.112
744	0.111
744	0.109
745	0.107
745	0.105
746	0.104
746	0.102
747	0.101
747	0.1
748	0.099
748	0.098
748	0.096
749	0.094
749	0.094
750	0.093
750	0.092
751	0.091
751	0.091
751	0.091
752	0.09
752	0.089
753	0.089
753	0.089
754	0.088
754	0.088
754	0.088
755	0.088
755	0.088
756	0.087
756	0.085
757	0.084
757	0.084
758	0.083
758	0.083
758	0.083
759	0.082
759	0.081
760	0.08
760	0.078
761	0.077
761	0.077
761	0.076
762	0.074
762	0.073
763	0.072
763	0.069
764	0.067
764	0.065
764	0.063
765	0.062
765	0.06
766	0.059
766	0.058
767	0.057
767	0.055
768	0.053
768	0.052
768	0.051
769	0.05
769	0.049
770	0.048
770	0.046
771	0.044
771	0.042
771	0.04
772	0.038
772	0.037
773	0.035
773	0.033
774	0.031
774	0.029
775	0.028
775	0.026
775	0.024
776	0.023
776	0.021
777	0.02
777	0.018
778	0.017
778	0.015
778	0.013
779	0.012
779	0.01
780	0.008
780	0.006
781	0.004
781	0.001
781	-0.002
782	-0.006
782	-0.01
783	-0.013
783	-0.017
784	-0.021
784	-0.026
784	-0.03
785	-0.035
785	-0.04
786	-0.044
786	-0.048
787	-0.051
787	-0.055
788	-0.06
788	-0.066
788	-0.073
789	-0.08
789	-0.086
790	-0.09
790	-0.095
791	-0.101
791	-0.106
791	-0.11
792	-0.107
792	-0.1
793	-0.096
793	-0.094
794	-0.094
794	-0.096
794	-0.1
795	-0.103
795	-0.103
796	-0.104
796	-0.106
797	-0.115
797	-0.126
797	-0.133
798	-0.138
798	-0.141
799	-0.142
799	-0.141
800	-0.141
800	-0.142
801	-0.145
801	-0.146
801	-0.146
802	-0.147
802	-0.148
803	-0.148
803	-0.148
804	-0.147
804	-0.142
804	-0.136
805	-0.132
805	-0.13
806	-0.128
806	-0.127
807	-0.127
807	-0.127
807	-0.127
808	-0.128
808	-0.129
809	-0.134
809	-0.14
810	-0.143
810	-0.146
810	-0.149
811	-0.152
811	-0.153
812	-0.149
812	-0.145
813	-0.145
813	-0.146
813	-0.148
814	-0.149
814	-0.147
815	-0.143
815	-0.138
816	-0.132
816	-0.127
817	-0.125
817	-0.12
817	-0.112
818	-0.102
818	-0.09
819	-0.077
819	-0.067
820	-0.059
820	-0.052
820	-0.045
821	-0.038
821	-0.031
822	-0.026
822	-0.02
823	-0.016
823	-0.012
823	-0.009
824	-0.006
824	-0.002
825	0.002
825	0.006
826	0.009
826	0.011
826	0.014
827	0.016
827	0.018
828	0.019
828	0.021
829	0.022
829	0.023
829	0.023
830	0.023
830	0.024
831	0.025
831	0.026
832	0.026
832	0.027
832	0.028
833	0.028
833	0.028
834	0.028
834	0.029
835	0.029
835	0.029
835	0.028
836	0.028
836	0.029
837	0.029
837	0.029
838	0.03
838	0.03
839	0.031
839	0.031
839	0.031
840	0.031
840	0.031
841	0.031
841	0.031
842	0.031
842	0.031
842	0.03
843	0.03
843	0.03
844	0.031
844	0.031
845	0.031
845	0.031
845	0.031
846	0.031
846	0.031
847	0.031
847	0.031
848	0.032
848	0.032
848	0.032
849	0.033
849	0.033
850	0.033
850	0.033
851	0.034
851	0.034
851	0.034
852	0.034
852	0.034
853	0.034
853	0.033
854	0.033
854	0.033
854	0.033
855	0.033
855	0.032
856	0.032
856	0.031
857	0.031
857	0.031
857	0.031
858	0.032
858	0.032
859	0.032
859	0.032
860	0.033
860	0.034
860	0.035
861	0.036
861	0.037
862	0.037
862	0.037
863	0.038
863	0.038
863	0.038
864	0.038
864	0.038
865	0.038
865	0.038
866	0.038
866	0.038
866	0.038
867	0.038
867	0.039
868	0.039
868	0.039
869	0.038
869	0.038
869	0.037
870	0.036
870	0.036
871	0.035
871	0.034
872	0.034
872	0.034
872	0.034
873	0.035
873	0.035
874	0.035
874	0.036
875	0.036
875	0.036
875	0.036
876	0.035
876	0.035
877	0.034
877	0.033
878	0.032
878	0.031
878	0.031
879	0.03
879	0.03
880	0.03
880	0.029
881	0.029
881	0.029
881	0.03
882	0.029
882	0.029
883	0.029
883	0.029
884	0.028
884	0.028
884	0.027
885	0.027
885	0.027
886	0.027
886	0.027
887	0.027
887	0.027
887	0.027
888	0.028
888	0.028
889	0.029
889	0.03
890	0.031
890	0.031
890	0.032
891	0.032
891	0.033
892	0.033
892	0.034
893	0.034
893	0.034
893	0.034
894	0.034
894	0.033
895	0.033
895	0.032
895	0.031
896	0.03
896	0.03
897	0.029
897	0.028
898	0.028
898	0.027
898	0.027
899	0.026
899	0.026
900	0.026
900	0.026
901	0.026
901	0.026
901	0.026
902	0.027
902	0.027
903	0.027
903	0.027
904	0.028
904	0.029
904	0.03
905	0.03
905	0.031
906	0.032
906	0.032
907	0.032
907	0.033
907	0.033
908	0.034
908	0.034
909	0.035
909	0.035
910	0.036
910	0.036
910	0.036
911	0.037
911	0.037
912	0.037
912	0.036
913	0.036
913	0.036
913	0.035
914	0.034
914	0.034
915	0.033
915	0.032
916	0.031
916	0.03
916	0.029
917	0.027
917	0.026
918	0.024
918	0.022
918	0.021
919	0.019
919	0.018
920	0.017
920	0.017
921	0.017
921	0.017
921	0.017
922	0.017
922	0.018
923	0.019
923	0.019
924	0.02
924	0.021
924	0.021
925	0.022
925	0.022
926	0.023
926	0.024
927	0.024
927	0.024
927	0.024
928	0.024
928	0.023
929	0.023
929	0.023
930	0.022
930	0.021
930	0.021
931	0.02
931	0.02
932	0.02
932	0.02
933	0.02
933	0.019
933	0.019
934	0.019
934	0.018
935	0.018
935	0.017
935	0.017
936	0.016
936	0.015
937	0.015
937	0.014
938	0.014
938	0.014
938	0.014
939	0.014
939	0.015
940	0.016
940	0.016
941	0.018
941	0.019
941	0.02
942	0.021
942	0.022
943	0.023
943	0.024
944	0.024
944	0.025
944	0.025
945	0.025
945	0.026
946	0.026
946	0.026
946	0.026
947	0.027
947	0.027
948	0.027
948	0.028
949	0.028
949	0.028
949	0.028
950	0.028
950	0.028
951	0.028
951	0.028
952	0.027
952	0.027
952	0.026
953	0.026
953	0.026
954	0.026
954	0.025
955	0.025
955	0.025
955	0.026
956	0.026
956	0.026
957	0.026
957	0.026
957	0.026
958	0.026
958	0.026
959	0.027
959	0.027
960	0.027
960	0.027
960	0.027
961	0.027
961	0.027
962	0.028
962	0.028
963	0.029
963	0.029
963	0.029
964	0.029
964	0.03
965	0.03
965	0.03
966	0.03
966	0.03
966	0.03
967	0.029
967	0.028
968	0.028
968	0.027
968	0.026
969	0.025
969	0.025
970	0.024
970	0.023
971	0.023
971	0.022
971	0.022
972	0.022
972	0.022
973	0.022
973	0.023
974	0.023
974	0.023
974	0.024
975	0.025
975	0.026
976	0.027
976	0.028
976	0.028
977	0.029
977	0.029
978	0.029
978	0.029
979	0.029
979	0.029
979	0.029
980	0.028
980	0.027
981	0.026
981	0.025
982	0.024
982	0.023
982	0.022
983	0.021
983	0.019
984	0.018
984	0.017
984	0.017
985	0.016
985	0.015
986	0.014
986	0.013
987	0.013
987	0.012
987	0.012
988	0.012
988	0.012
989	0.012
989	0.012
990	0.013
990	0.013
990	0.015
991	0.016
991	0.017
992	0.018
992	0.019
992	0.02
993	0.021
993	0.022
994	0.022
994	0.022
995	0.022
995	0.022
995	0.021
996	0.021
996	0.02
997	0.019
997	0.019
997	0.018
998	0.018
998	0.018
999	0.018
999	0.019
1000	0.019
1000	0.019
1000	0.02
1001	0.021
1001	0.022
1002	0.023
1002	0.023
1003	0.024
1003	0.024
1003	0.024
1004	0.025
1004	0.024
1005	0.024
1005	0.024
1005	0.024
1006	0.023
1006	0.023
1007	0.023
1007	0.023
1008	0.023
1008	0.023
1008	0.023
1009	0.023
1009	0.023
1010	0.023
1010	0.023
1010	0.023
1011	0.023
1011	0.022
1012	0.022
1012	0.021
1013	0.021
1013	0.02
1013	0.019
1014	0.018
1014	0.017
1015	0.016
1015	0.015
1016	0.014
1016	0.014
1016	0.013
1017	0.012
1017	0.011
1018	0.01
1018	0.01
1018	0.009
1019	0.009
1019	0.008
1020	0.008
1020	0.008
1021	0.008
1021	0.008
1021	0.009
1022	0.009
1022	0.01
1023	0.01
1023	0.01
1023	0.011
1024	0.011
1024	0.011
1025	0.011
1025	0.011
1026	0.01
1026	0.01
1026	0.01
1027	0.009
1027	0.009
1028	0.009
1028	0.008
1028	0.008
1029	0.008
1029	0.007
1030	0.007
1030	0.007
1031	0.007
1031	0.006
1031	0.006
1032	0.006
1032	0.006
1033	0.006
1033	0.006
1033	0.006
1034	0.006
1034	0.005
1035	0.005
1035	0.005
1036	0.004
1036	0.004
1036	0.004
1037	0.004
1037	0.005
1038	0.005
1038	0.005
1039	0.005
1039	0.006
1039	0.007
1040	0.008
1040	0.009
1041	0.01
1041	0.011
1041	0.011
1042	0.012
1042	0.013
1043	0.014
1043	0.014
1044	0.015
1044	0.015
1044	0.016
1045	0.016
1045	0.016
1046	0.015
1046	0.015
1046	0.015
1047	0.015
1047	0.015
1048	0.015
1048	0.015
1049	0.014
1049	0.014
1049	0.013
1050	0.012
1050	0.012
1051	0.011
1051	0.011
1051	0.01
1052	0.009
1052	0.008
1053	0.007
1053	0.007
1053	0.006
1054	0.005
1054	0.005
1055	0.004
1055	0.003
1056	0.002
1056	0.001
1056	0
1057	-0.001
1057	-0.001
1058	-0.002
1058	-0.002
1058	-0.003
1059	-0.003
1059	-0.003
1060	-0.004
1060	-0.003
1061	-0.003
1061	-0.003
1061	-0.003
1062	-0.003
1062	-0.002
1063	-0.002
1063	-0.002
1063	-0.002
1064	-0.002
1064	-0.001
1065	-0.001
1065	-0.001
1066	-0.001
1066	-0.001
1066	-0
1067	-0
1067	0
1068	0
1068	-0
1068	-0
1069	-0.001
1069	-0.002
1070	-0.002
1070	-0.003
1071	-0.004
1071	-0.004
1071	-0.005
1072	-0.006
1072	-0.007
1073	-0.008
1073	-0.009
1073	-0.009
1074	-0.01
1074	-0.01
1075	-0.012
1075	-0.013
1076	-0.014
1076	-0.014
1076	-0.015
1077	-0.016
1077	-0.016
1078	-0.016
1078	-0.016
1078	-0.016
1079	-0.016
1079	-0.015
1080	-0.015
1080	-0.014
1080	-0.014
1081	-0.013
1081	-0.012
1082	-0.012
1082	-0.012
1083	-0.012
1083	-0.012
1083	-0.012
1084	-0.012
1084	-0.011
1085	-0.01
1085	-0.01
1085	-0.009
1086	-0.009
1086	-0.01
1087	-0.009
1087	-0.008
1088	-0.009
1088	-0.009
1088	-0.009
1089	-0.01
1089	-0.01
1090	-0.011
1090	-0.012
1090	-0.012
1091	-0.013
1091	-0.012
1092	-0.013
1092	-0.013
1092	-0.013
1093	-0.013
1093	-0.012
1094	-0.012
1094	-0.012
1095	-0.013
1095	-0.012
1095	-0.011
1096	-0.011
1096	-0.01
1097	-0.009
1097	-0.008
1097	-0.007
1098	-0.006
1098	-0.004
1099	-0.002
1099	-0
1100	0.001
1100	0.002
1100	0.004
1101	0.005
1101	0.006
1102	0.008
1102	0.008
1102	0.01
1103	0.011
1103	0.013
1104	0.015
1104	0.018
1104	0.022
1105	0.025
1105	0.026
1106	0.029
1106	0.034
1107	0.037
1107	0.042
1107	0.048
1108	0.072
1108	0.104
1109	0.146
1109	0.208
1109	0.252
1110	0.334
1110	0.487
1111	1
1111	-0
