Data from 17c-2a_Absorbance__1064__01065.txt Node

Date: Fri Jan 26 10:22:58 CET 2024
User: Marek
Spectrometer: MAYP115816
Trigger mode: 0
Integration Time (sec): 2.000000E-1
Scans to average: 10
Electric dark correction enabled: true
Nonlinearity correction enabled: true
Boxcar width: 5
XAxis mode: Wavelengths
Number of Pixels in Spectrum: 2068
>>>>>Begin Spectral Data<<<<<
199	-1.355
199	-1.223
200	-1.079
200	-0.971
201	-0.904
201	-0.863
202	-0.803
202	-0.757
203	-0.719
203	-0.686
204	-0.663
204	-0.641
205	-0.621
205	-0.612
205	-0.611
206	-0.607
206	-0.604
207	-0.601
207	-0.601
208	-0.6
208	-0.598
209	-0.594
209	-0.593
210	-0.594
210	-0.594
211	-0.595
211	-0.597
212	-0.597
212	-0.597
213	-0.595
213	-0.592
213	-0.593
214	-0.593
214	-0.591
215	-0.586
215	-0.584
216	-0.582
216	-0.581
217	-0.578
217	-0.575
218	-0.572
218	-0.571
219	-0.566
219	-0.564
220	-0.564
220	-0.565
221	-0.563
221	-0.561
221	-0.557
222	-0.552
222	-0.549
223	-0.546
223	-0.543
224	-0.539
224	-0.532
225	-0.524
225	-0.517
226	-0.51
226	-0.499
227	-0.489
227	-0.479
228	-0.463
228	-0.448
229	-0.43
229	-0.409
229	-0.388
230	-0.363
230	-0.335
231	-0.305
231	-0.275
232	-0.244
232	-0.21
233	-0.176
233	-0.141
234	-0.108
234	-0.076
235	-0.044
235	-0.015
236	0.013
236	0.039
236	0.065
237	0.088
237	0.109
238	0.128
238	0.145
239	0.161
239	0.175
240	0.188
240	0.199
241	0.21
241	0.219
242	0.227
242	0.235
243	0.242
243	0.248
243	0.254
244	0.259
244	0.264
245	0.268
245	0.272
246	0.276
246	0.28
247	0.284
247	0.287
248	0.29
248	0.293
249	0.296
249	0.298
250	0.301
250	0.304
250	0.306
251	0.308
251	0.31
252	0.313
252	0.315
253	0.317
253	0.318
254	0.32
254	0.322
255	0.323
255	0.325
256	0.326
256	0.327
257	0.329
257	0.33
258	0.33
258	0.331
258	0.332
259	0.332
259	0.333
260	0.333
260	0.333
261	0.333
261	0.333
262	0.333
262	0.333
263	0.333
263	0.332
264	0.332
264	0.331
265	0.331
265	0.33
265	0.329
266	0.328
266	0.327
267	0.326
267	0.325
268	0.323
268	0.322
269	0.321
269	0.319
270	0.317
270	0.316
271	0.314
271	0.312
272	0.311
272	0.309
272	0.307
273	0.305
273	0.303
274	0.301
274	0.299
275	0.297
275	0.295
276	0.293
276	0.291
277	0.289
277	0.287
278	0.284
278	0.282
278	0.28
279	0.278
279	0.275
280	0.273
280	0.271
281	0.269
281	0.267
282	0.265
282	0.263
283	0.261
283	0.26
284	0.258
284	0.256
285	0.254
285	0.252
285	0.251
286	0.249
286	0.247
287	0.245
287	0.244
288	0.242
288	0.241
289	0.239
289	0.238
290	0.236
290	0.235
291	0.234
291	0.232
292	0.231
292	0.23
292	0.229
293	0.228
293	0.227
294	0.226
294	0.225
295	0.224
295	0.223
296	0.222
296	0.221
297	0.22
297	0.219
298	0.219
298	0.218
298	0.217
299	0.217
299	0.216
300	0.215
300	0.215
301	0.214
301	0.213
302	0.213
302	0.212
303	0.212
303	0.211
304	0.211
304	0.21
305	0.21
305	0.209
305	0.208
306	0.208
306	0.207
307	0.207
307	0.206
308	0.205
308	0.204
309	0.204
309	0.203
310	0.203
310	0.202
311	0.202
311	0.201
311	0.201
312	0.2
312	0.2
313	0.2
313	0.199
314	0.199
314	0.198
315	0.198
315	0.197
316	0.197
316	0.196
317	0.195
317	0.195
318	0.194
318	0.194
318	0.193
319	0.193
319	0.192
320	0.192
320	0.191
321	0.191
321	0.19
322	0.19
322	0.189
323	0.188
323	0.188
324	0.187
324	0.187
324	0.186
325	0.186
325	0.185
326	0.185
326	0.184
327	0.184
327	0.183
328	0.183
328	0.183
329	0.182
329	0.182
330	0.181
330	0.181
330	0.18
331	0.18
331	0.179
332	0.179
332	0.179
333	0.178
333	0.178
334	0.177
334	0.177
335	0.177
335	0.176
336	0.176
336	0.175
336	0.175
337	0.174
337	0.174
338	0.173
338	0.173
339	0.173
339	0.172
340	0.172
340	0.172
341	0.171
341	0.171
342	0.17
342	0.17
342	0.17
343	0.17
343	0.169
344	0.169
344	0.169
345	0.169
345	0.168
346	0.168
346	0.168
347	0.168
347	0.167
348	0.167
348	0.167
348	0.166
349	0.166
349	0.166
350	0.165
350	0.165
351	0.165
351	0.165
352	0.165
352	0.164
353	0.164
353	0.164
354	0.164
354	0.164
354	0.164
355	0.163
355	0.163
356	0.163
356	0.162
357	0.162
357	0.162
358	0.161
358	0.161
359	0.161
359	0.161
360	0.161
360	0.162
360	0.162
361	0.162
361	0.162
362	0.162
362	0.162
363	0.162
363	0.162
364	0.162
364	0.162
365	0.162
365	0.162
366	0.162
366	0.162
366	0.162
367	0.162
367	0.162
368	0.162
368	0.161
369	0.161
369	0.161
370	0.161
370	0.16
371	0.16
371	0.16
372	0.159
372	0.159
372	0.159
373	0.159
373	0.159
374	0.159
374	0.159
375	0.159
375	0.159
376	0.159
376	0.159
377	0.159
377	0.16
378	0.16
378	0.16
378	0.16
379	0.16
379	0.16
380	0.16
380	0.16
381	0.16
381	0.16
382	0.16
382	0.159
383	0.159
383	0.159
383	0.159
384	0.159
384	0.158
385	0.158
385	0.158
386	0.158
386	0.158
387	0.158
387	0.158
388	0.158
388	0.158
389	0.158
389	0.158
389	0.157
390	0.157
390	0.157
391	0.157
391	0.157
392	0.157
392	0.158
393	0.158
393	0.158
394	0.158
394	0.157
394	0.157
395	0.157
395	0.157
396	0.157
396	0.157
397	0.156
397	0.156
398	0.156
398	0.156
399	0.156
399	0.155
400	0.155
400	0.155
400	0.155
401	0.155
401	0.154
402	0.154
402	0.154
403	0.154
403	0.154
404	0.154
404	0.154
405	0.154
405	0.154
405	0.154
406	0.154
406	0.154
407	0.154
407	0.154
408	0.153
408	0.153
409	0.153
409	0.153
410	0.153
410	0.153
411	0.153
411	0.153
411	0.153
412	0.153
412	0.153
413	0.153
413	0.152
414	0.152
414	0.152
415	0.152
415	0.152
416	0.152
416	0.151
416	0.151
417	0.151
417	0.151
418	0.151
418	0.151
419	0.152
419	0.152
420	0.152
420	0.152
421	0.152
421	0.153
421	0.153
422	0.153
422	0.153
423	0.153
423	0.153
424	0.152
424	0.152
425	0.152
425	0.152
426	0.152
426	0.152
427	0.152
427	0.152
427	0.152
428	0.152
428	0.152
429	0.152
429	0.152
430	0.152
430	0.152
431	0.152
431	0.152
432	0.151
432	0.151
432	0.151
433	0.151
433	0.15
434	0.15
434	0.151
435	0.151
435	0.151
436	0.151
436	0.151
437	0.151
437	0.151
437	0.151
438	0.151
438	0.151
439	0.151
439	0.15
440	0.15
440	0.15
441	0.15
441	0.149
442	0.15
442	0.15
442	0.15
443	0.15
443	0.15
444	0.15
444	0.15
445	0.151
445	0.151
446	0.151
446	0.151
447	0.151
447	0.151
447	0.151
448	0.151
448	0.151
449	0.151
449	0.151
450	0.151
450	0.151
451	0.151
451	0.151
452	0.151
452	0.151
452	0.151
453	0.151
453	0.151
454	0.151
454	0.151
455	0.151
455	0.151
456	0.151
456	0.151
457	0.15
457	0.15
458	0.151
458	0.151
458	0.151
459	0.152
459	0.152
460	0.151
460	0.151
461	0.151
461	0.152
462	0.152
462	0.152
463	0.152
463	0.153
463	0.153
464	0.153
464	0.153
465	0.154
465	0.154
466	0.154
466	0.154
467	0.155
467	0.154
467	0.154
468	0.154
468	0.153
469	0.153
469	0.153
470	0.153
470	0.153
471	0.153
471	0.153
472	0.153
472	0.154
472	0.154
473	0.155
473	0.155
474	0.156
474	0.157
475	0.157
475	0.158
476	0.158
476	0.159
477	0.159
477	0.159
477	0.16
478	0.16
478	0.161
479	0.161
479	0.162
480	0.162
480	0.163
481	0.164
481	0.164
482	0.165
482	0.165
482	0.167
483	0.168
483	0.17
484	0.171
484	0.171
485	0.172
485	0.173
486	0.174
486	0.174
487	0.175
487	0.176
487	0.176
488	0.176
488	0.176
489	0.177
489	0.177
490	0.178
490	0.178
491	0.179
491	0.18
492	0.181
492	0.182
492	0.183
493	0.183
493	0.185
494	0.186
494	0.188
495	0.189
495	0.19
496	0.191
496	0.192
496	0.193
497	0.194
497	0.196
498	0.197
498	0.197
499	0.198
499	0.199
500	0.201
500	0.202
501	0.204
501	0.205
501	0.206
502	0.207
502	0.209
503	0.21
503	0.212
504	0.213
504	0.214
505	0.215
505	0.215
506	0.217
506	0.218
506	0.219
507	0.22
507	0.221
508	0.222
508	0.223
509	0.224
509	0.226
510	0.227
510	0.228
511	0.229
511	0.23
511	0.231
512	0.232
512	0.233
513	0.233
513	0.233
514	0.234
514	0.235
515	0.235
515	0.235
515	0.235
516	0.236
516	0.237
517	0.238
517	0.238
518	0.239
518	0.239
519	0.239
519	0.239
520	0.239
520	0.239
520	0.239
521	0.238
521	0.237
522	0.236
522	0.236
523	0.235
523	0.236
524	0.236
524	0.236
524	0.236
525	0.237
525	0.237
526	0.238
526	0.239
527	0.239
527	0.24
528	0.24
528	0.24
529	0.24
529	0.24
529	0.239
530	0.239
530	0.238
531	0.238
531	0.237
532	0.236
532	0.235
533	0.234
533	0.233
533	0.232
534	0.231
534	0.23
535	0.229
535	0.228
536	0.227
536	0.226
537	0.225
537	0.224
538	0.222
538	0.221
538	0.22
539	0.219
539	0.217
540	0.216
540	0.214
541	0.213
541	0.211
542	0.209
542	0.207
542	0.206
543	0.204
543	0.203
544	0.201
544	0.2
545	0.198
545	0.197
546	0.197
546	0.195
547	0.194
547	0.192
547	0.191
548	0.19
548	0.188
549	0.187
549	0.185
550	0.184
550	0.182
551	0.18
551	0.179
551	0.177
552	0.176
552	0.174
553	0.173
553	0.172
554	0.17
554	0.168
555	0.166
555	0.164
556	0.162
556	0.16
556	0.157
557	0.155
557	0.153
558	0.151
558	0.149
559	0.147
559	0.145
560	0.144
560	0.143
560	0.142
561	0.141
561	0.14
562	0.14
562	0.138
563	0.137
563	0.135
564	0.134
564	0.132
564	0.131
565	0.13
565	0.129
566	0.127
566	0.125
567	0.124
567	0.123
568	0.123
568	0.122
568	0.122
569	0.122
569	0.121
570	0.12
570	0.119
571	0.119
571	0.119
572	0.118
572	0.117
573	0.117
573	0.116
573	0.114
574	0.113
574	0.113
575	0.112
575	0.112
576	0.112
576	0.11
577	0.109
577	0.108
577	0.107
578	0.106
578	0.106
579	0.106
579	0.106
580	0.105
580	0.102
581	0.1
581	0.099
581	0.098
582	0.098
582	0.098
583	0.098
583	0.097
584	0.094
584	0.092
585	0.092
585	0.092
585	0.092
586	0.092
586	0.091
587	0.09
587	0.088
588	0.086
588	0.085
589	0.085
589	0.085
590	0.084
590	0.084
590	0.085
591	0.085
591	0.085
592	0.084
592	0.084
593	0.084
593	0.084
594	0.084
594	0.083
594	0.082
595	0.082
595	0.081
596	0.08
596	0.081
597	0.083
597	0.083
598	0.083
598	0.083
598	0.084
599	0.084
599	0.083
600	0.082
600	0.081
601	0.081
601	0.08
602	0.078
602	0.078
602	0.077
603	0.076
603	0.077
604	0.077
604	0.077
605	0.078
605	0.079
606	0.079
606	0.078
606	0.078
607	0.077
607	0.077
608	0.077
608	0.076
609	0.075
609	0.075
610	0.075
610	0.074
610	0.075
611	0.076
611	0.077
612	0.078
612	0.079
613	0.081
613	0.082
614	0.082
614	0.082
614	0.083
615	0.083
615	0.083
616	0.083
616	0.083
617	0.083
617	0.083
618	0.082
618	0.082
618	0.082
619	0.082
619	0.083
620	0.084
620	0.085
621	0.085
621	0.085
622	0.085
622	0.086
622	0.086
623	0.086
623	0.087
624	0.087
624	0.087
625	0.087
625	0.088
626	0.088
626	0.088
626	0.089
627	0.09
627	0.091
628	0.091
628	0.092
629	0.092
629	0.092
630	0.092
630	0.092
630	0.092
631	0.093
631	0.093
632	0.093
632	0.093
633	0.094
633	0.095
634	0.096
634	0.098
634	0.099
635	0.1
635	0.101
636	0.102
636	0.103
637	0.104
637	0.104
638	0.105
638	0.106
638	0.106
639	0.107
639	0.107
640	0.108
640	0.109
641	0.11
641	0.111
642	0.112
642	0.114
642	0.115
643	0.117
643	0.118
644	0.12
644	0.121
645	0.123
645	0.125
646	0.127
646	0.129
646	0.132
647	0.134
647	0.136
648	0.138
648	0.14
649	0.142
649	0.144
650	0.147
650	0.149
650	0.152
651	0.153
651	0.155
652	0.157
652	0.158
653	0.161
653	0.167
653	0.17
654	0.136
654	0.111
655	0.112
655	0.113
656	0.115
656	0.116
657	0.118
657	0.119
657	0.121
658	0.119
658	0.114
659	0.144
659	0.185
660	0.193
660	0.195
661	0.197
661	0.199
661	0.201
662	0.203
662	0.206
663	0.208
663	0.21
664	0.212
664	0.214
665	0.216
665	0.218
665	0.22
666	0.222
666	0.224
667	0.226
667	0.228
668	0.23
668	0.232
669	0.234
669	0.236
669	0.238
670	0.24
670	0.242
671	0.243
671	0.245
672	0.246
672	0.247
672	0.249
673	0.25
673	0.252
674	0.253
674	0.255
675	0.256
675	0.258
676	0.261
676	0.263
676	0.264
677	0.266
677	0.268
678	0.269
678	0.27
679	0.271
679	0.273
680	0.274
680	0.275
680	0.276
681	0.276
681	0.277
682	0.278
682	0.279
683	0.28
683	0.281
684	0.282
684	0.282
684	0.282
685	0.282
685	0.283
686	0.283
686	0.283
687	0.282
687	0.282
687	0.281
688	0.281
688	0.28
689	0.281
689	0.282
690	0.282
690	0.282
691	0.282
691	0.282
691	0.282
692	0.281
692	0.281
693	0.281
693	0.281
694	0.279
694	0.278
695	0.278
695	0.278
695	0.277
696	0.276
696	0.275
697	0.275
697	0.274
698	0.273
698	0.271
698	0.27
699	0.269
699	0.267
700	0.264
700	0.263
701	0.261
701	0.259
702	0.257
702	0.256
702	0.254
703	0.252
703	0.25
704	0.248
704	0.247
705	0.246
705	0.245
705	0.243
706	0.242
706	0.241
707	0.24
707	0.239
708	0.238
708	0.237
709	0.236
709	0.234
709	0.232
710	0.23
710	0.229
711	0.227
711	0.225
712	0.223
712	0.221
713	0.219
713	0.217
713	0.215
714	0.213
714	0.211
715	0.208
715	0.206
716	0.204
716	0.202
716	0.199
717	0.197
717	0.195
718	0.192
718	0.19
719	0.188
719	0.186
720	0.184
720	0.182
720	0.18
721	0.178
721	0.176
722	0.174
722	0.172
723	0.17
723	0.169
723	0.167
724	0.165
724	0.163
725	0.161
725	0.16
726	0.159
726	0.157
727	0.156
727	0.154
727	0.153
728	0.151
728	0.149
729	0.149
729	0.147
730	0.145
730	0.143
730	0.142
731	0.14
731	0.139
732	0.138
732	0.137
733	0.136
733	0.135
734	0.134
734	0.133
734	0.132
735	0.132
735	0.131
736	0.13
736	0.129
737	0.127
737	0.126
737	0.125
738	0.123
738	0.12
739	0.119
739	0.117
740	0.115
740	0.114
741	0.113
741	0.111
741	0.11
742	0.108
742	0.106
743	0.106
743	0.105
744	0.104
744	0.103
744	0.102
745	0.1
745	0.098
746	0.096
746	0.095
747	0.094
747	0.093
748	0.092
748	0.091
748	0.089
749	0.088
749	0.087
750	0.086
750	0.085
751	0.085
751	0.084
751	0.084
752	0.084
752	0.083
753	0.082
753	0.082
754	0.082
754	0.081
754	0.082
755	0.081
755	0.081
756	0.081
756	0.079
757	0.078
757	0.078
758	0.078
758	0.077
758	0.077
759	0.077
759	0.076
760	0.075
760	0.073
761	0.072
761	0.072
761	0.071
762	0.069
762	0.068
763	0.067
763	0.065
764	0.063
764	0.061
764	0.06
765	0.058
765	0.057
766	0.056
766	0.055
767	0.054
767	0.052
768	0.05
768	0.049
768	0.048
769	0.047
769	0.046
770	0.044
770	0.043
771	0.041
771	0.039
771	0.037
772	0.035
772	0.034
773	0.032
773	0.03
774	0.028
774	0.026
775	0.025
775	0.023
775	0.022
776	0.021
776	0.019
777	0.018
777	0.017
778	0.015
778	0.013
778	0.011
779	0.01
779	0.009
780	0.007
780	0.005
781	0.003
781	-0
781	-0.003
782	-0.007
782	-0.011
783	-0.014
783	-0.017
784	-0.022
784	-0.026
784	-0.03
785	-0.035
785	-0.039
786	-0.044
786	-0.047
787	-0.05
787	-0.053
788	-0.058
788	-0.064
788	-0.07
789	-0.077
789	-0.083
790	-0.087
790	-0.093
791	-0.099
791	-0.104
791	-0.108
792	-0.106
792	-0.098
793	-0.095
793	-0.094
794	-0.094
794	-0.096
794	-0.1
795	-0.103
795	-0.103
796	-0.104
796	-0.106
797	-0.115
797	-0.126
797	-0.133
798	-0.138
798	-0.142
799	-0.142
799	-0.142
800	-0.141
800	-0.143
801	-0.145
801	-0.146
801	-0.146
802	-0.147
802	-0.148
803	-0.148
803	-0.148
804	-0.147
804	-0.142
804	-0.136
805	-0.132
805	-0.13
806	-0.128
806	-0.128
807	-0.127
807	-0.127
807	-0.128
808	-0.128
808	-0.129
809	-0.134
809	-0.14
810	-0.143
810	-0.146
810	-0.15
811	-0.153
811	-0.153
812	-0.149
812	-0.146
813	-0.146
813	-0.147
813	-0.147
814	-0.147
814	-0.144
815	-0.139
815	-0.133
816	-0.126
816	-0.12
817	-0.117
817	-0.112
817	-0.103
818	-0.092
818	-0.079
819	-0.068
819	-0.06
820	-0.053
820	-0.046
820	-0.039
821	-0.033
821	-0.027
822	-0.022
822	-0.017
823	-0.013
823	-0.01
823	-0.007
824	-0.004
824	-0.001
825	0.003
825	0.006
826	0.009
826	0.011
826	0.014
827	0.016
827	0.017
828	0.019
828	0.02
829	0.022
829	0.023
829	0.023
830	0.023
830	0.024
831	0.025
831	0.026
832	0.026
832	0.027
832	0.027
833	0.027
833	0.028
834	0.028
834	0.028
835	0.028
835	0.028
835	0.028
836	0.028
836	0.028
837	0.029
837	0.029
838	0.03
838	0.03
839	0.03
839	0.03
839	0.03
840	0.03
840	0.03
841	0.03
841	0.03
842	0.03
842	0.03
842	0.029
843	0.029
843	0.029
844	0.029
844	0.03
845	0.03
845	0.03
845	0.03
846	0.03
846	0.03
847	0.03
847	0.031
848	0.031
848	0.031
848	0.032
849	0.032
849	0.032
850	0.032
850	0.032
851	0.033
851	0.033
851	0.033
852	0.033
852	0.032
853	0.032
853	0.031
854	0.032
854	0.031
854	0.031
855	0.031
855	0.031
856	0.031
856	0.03
857	0.03
857	0.03
857	0.03
858	0.03
858	0.03
859	0.031
859	0.031
860	0.032
860	0.033
860	0.033
861	0.034
861	0.035
862	0.036
862	0.036
863	0.037
863	0.037
863	0.037
864	0.037
864	0.036
865	0.037
865	0.037
866	0.037
866	0.037
866	0.037
867	0.037
867	0.038
868	0.038
868	0.038
869	0.037
869	0.037
869	0.036
870	0.035
870	0.034
871	0.034
871	0.033
872	0.033
872	0.033
872	0.033
873	0.034
873	0.034
874	0.035
874	0.035
875	0.035
875	0.035
875	0.035
876	0.034
876	0.034
877	0.033
877	0.032
878	0.031
878	0.03
878	0.03
879	0.029
879	0.029
880	0.029
880	0.029
881	0.029
881	0.029
881	0.029
882	0.029
882	0.029
883	0.029
883	0.028
884	0.028
884	0.027
884	0.027
885	0.026
885	0.026
886	0.026
886	0.026
887	0.026
887	0.026
887	0.026
888	0.027
888	0.027
889	0.028
889	0.029
890	0.03
890	0.031
890	0.031
891	0.032
891	0.032
892	0.033
892	0.033
893	0.033
893	0.034
893	0.034
894	0.034
894	0.033
895	0.032
895	0.031
895	0.031
896	0.03
896	0.029
897	0.028
897	0.027
898	0.027
898	0.026
898	0.026
899	0.025
899	0.025
900	0.025
900	0.025
901	0.025
901	0.025
901	0.025
902	0.025
902	0.025
903	0.025
903	0.026
904	0.026
904	0.027
904	0.028
905	0.029
905	0.029
906	0.03
906	0.031
907	0.031
907	0.031
907	0.032
908	0.032
908	0.033
909	0.034
909	0.034
910	0.035
910	0.035
910	0.036
911	0.036
911	0.036
912	0.036
912	0.036
913	0.036
913	0.035
913	0.035
914	0.034
914	0.033
915	0.032
915	0.032
916	0.031
916	0.029
916	0.028
917	0.027
917	0.025
918	0.023
918	0.021
918	0.02
919	0.018
919	0.017
920	0.016
920	0.016
921	0.016
921	0.016
921	0.016
922	0.016
922	0.017
923	0.018
923	0.018
924	0.019
924	0.02
924	0.02
925	0.021
925	0.022
926	0.022
926	0.023
927	0.023
927	0.023
927	0.023
928	0.023
928	0.023
929	0.023
929	0.022
930	0.022
930	0.021
930	0.02
931	0.02
931	0.019
932	0.019
932	0.019
933	0.018
933	0.018
933	0.018
934	0.017
934	0.017
935	0.017
935	0.016
935	0.016
936	0.015
936	0.015
937	0.014
937	0.014
938	0.013
938	0.013
938	0.013
939	0.013
939	0.014
940	0.015
940	0.015
941	0.016
941	0.017
941	0.019
942	0.02
942	0.021
943	0.022
943	0.022
944	0.023
944	0.024
944	0.024
945	0.025
945	0.025
946	0.025
946	0.026
946	0.026
947	0.026
947	0.027
948	0.027
948	0.028
949	0.028
949	0.028
949	0.028
950	0.028
950	0.028
951	0.028
951	0.027
952	0.027
952	0.026
952	0.026
953	0.025
953	0.025
954	0.025
954	0.024
955	0.025
955	0.025
955	0.025
956	0.025
956	0.025
957	0.025
957	0.025
957	0.025
958	0.025
958	0.025
959	0.025
959	0.025
960	0.025
960	0.025
960	0.025
961	0.025
961	0.026
962	0.026
962	0.027
963	0.027
963	0.027
963	0.028
964	0.028
964	0.028
965	0.029
965	0.029
966	0.029
966	0.029
966	0.029
967	0.028
967	0.027
968	0.027
968	0.026
968	0.025
969	0.024
969	0.024
970	0.023
970	0.022
971	0.021
971	0.021
971	0.021
972	0.021
972	0.021
973	0.021
973	0.021
974	0.021
974	0.022
974	0.022
975	0.023
975	0.024
976	0.025
976	0.026
976	0.027
977	0.027
977	0.028
978	0.028
978	0.028
979	0.028
979	0.028
979	0.027
980	0.027
980	0.026
981	0.025
981	0.024
982	0.023
982	0.022
982	0.021
983	0.02
983	0.019
984	0.018
984	0.017
984	0.016
985	0.015
985	0.015
986	0.013
986	0.013
987	0.012
987	0.012
987	0.012
988	0.011
988	0.012
989	0.012
989	0.012
990	0.013
990	0.013
990	0.015
991	0.016
991	0.017
992	0.018
992	0.019
992	0.02
993	0.021
993	0.022
994	0.022
994	0.022
995	0.022
995	0.022
995	0.022
996	0.021
996	0.02
997	0.02
997	0.019
997	0.019
998	0.018
998	0.018
999	0.019
999	0.019
1000	0.019
1000	0.02
1000	0.02
1001	0.021
1001	0.022
1002	0.023
1002	0.023
1003	0.024
1003	0.024
1003	0.024
1004	0.024
1004	0.024
1005	0.024
1005	0.024
1005	0.023
1006	0.023
1006	0.023
1007	0.023
1007	0.022
1008	0.022
1008	0.022
1008	0.022
1009	0.022
1009	0.022
1010	0.022
1010	0.022
1010	0.022
1011	0.022
1011	0.022
1012	0.021
1012	0.021
1013	0.02
1013	0.02
1013	0.019
1014	0.018
1014	0.017
1015	0.017
1015	0.016
1016	0.015
1016	0.014
1016	0.014
1017	0.013
1017	0.012
1018	0.011
1018	0.011
1018	0.011
1019	0.01
1019	0.01
1020	0.009
1020	0.009
1021	0.009
1021	0.009
1021	0.009
1022	0.01
1022	0.01
1023	0.01
1023	0.011
1023	0.011
1024	0.011
1024	0.011
1025	0.011
1025	0.01
1026	0.01
1026	0.01
1026	0.009
1027	0.009
1027	0.008
1028	0.008
1028	0.008
1028	0.007
1029	0.007
1029	0.006
1030	0.006
1030	0.006
1031	0.006
1031	0.005
1031	0.005
1032	0.006
1032	0.006
1033	0.005
1033	0.005
1033	0.006
1034	0.005
1034	0.005
1035	0.005
1035	0.004
1036	0.004
1036	0.004
1036	0.004
1037	0.004
1037	0.004
1038	0.004
1038	0.004
1039	0.005
1039	0.005
1039	0.006
1040	0.007
1040	0.008
1041	0.009
1041	0.01
1041	0.011
1042	0.011
1042	0.012
1043	0.013
1043	0.014
1044	0.014
1044	0.014
1044	0.015
1045	0.015
1045	0.015
1046	0.015
1046	0.015
1046	0.015
1047	0.014
1047	0.014
1048	0.014
1048	0.014
1049	0.013
1049	0.012
1049	0.012
1050	0.011
1050	0.01
1051	0.009
1051	0.009
1051	0.008
1052	0.008
1052	0.007
1053	0.006
1053	0.006
1053	0.005
1054	0.005
1054	0.004
1055	0.004
1055	0.003
1056	0.002
1056	0.001
1056	0
1057	-0.001
1057	-0.001
1058	-0.002
1058	-0.002
1058	-0.003
1059	-0.003
1059	-0.003
1060	-0.003
1060	-0.003
1061	-0.003
1061	-0.003
1061	-0.002
1062	-0.002
1062	-0.002
1063	-0.002
1063	-0.002
1063	-0.002
1064	-0.002
1064	-0.002
1065	-0.002
1065	-0.001
1066	-0.001
1066	-0.001
1066	-0.001
1067	-0
1067	0
1068	0
1068	-0
1068	-0.001
1069	-0.001
1069	-0.002
1070	-0.003
1070	-0.004
1071	-0.004
1071	-0.005
1071	-0.006
1072	-0.007
1072	-0.008
1073	-0.009
1073	-0.009
1073	-0.01
1074	-0.011
1074	-0.011
1075	-0.012
1075	-0.013
1076	-0.014
1076	-0.015
1076	-0.015
1077	-0.015
1077	-0.015
1078	-0.016
1078	-0.016
1078	-0.015
1079	-0.015
1079	-0.015
1080	-0.015
1080	-0.014
1080	-0.014
1081	-0.013
1081	-0.012
1082	-0.012
1082	-0.012
1083	-0.012
1083	-0.012
1083	-0.011
1084	-0.012
1084	-0.011
1085	-0.011
1085	-0.01
1085	-0.01
1086	-0.01
1086	-0.01
1087	-0.01
1087	-0.009
1088	-0.01
1088	-0.01
1088	-0.01
1089	-0.012
1089	-0.012
1090	-0.013
1090	-0.013
1090	-0.014
1091	-0.015
1091	-0.014
1092	-0.015
1092	-0.014
1092	-0.015
1093	-0.014
1093	-0.013
1094	-0.014
1094	-0.014
1095	-0.014
1095	-0.013
1095	-0.012
1096	-0.012
1096	-0.011
1097	-0.011
1097	-0.01
1097	-0.009
1098	-0.008
1098	-0.007
1099	-0.005
1099	-0.004
1100	-0.003
1100	-0.001
1100	-0.001
1101	-0.001
1101	0.001
1102	0.002
1102	0.003
1102	0.004
1103	0.006
1103	0.007
1104	0.009
1104	0.011
1104	0.014
1105	0.016
1105	0.019
1106	0.019
1106	0.022
1107	0.024
1107	0.028
1107	0.033
1108	0.054
1108	0.079
1109	0.113
1109	0.163
1109	0.196
1110	0.255
1110	0.363
1111	0.642
1111	-0
