Data from 17c-2a_Absorbance__1531__01532.txt Node

Date: Fri Jan 26 10:38:32 CET 2024
User: Marek
Spectrometer: MAYP115816
Trigger mode: 0
Integration Time (sec): 2.000000E-1
Scans to average: 10
Electric dark correction enabled: true
Nonlinearity correction enabled: true
Boxcar width: 5
XAxis mode: Wavelengths
Number of Pixels in Spectrum: 2068
>>>>>Begin Spectral Data<<<<<
199	-1.468
199	-1.333
200	-1.187
200	-1.076
201	-1.008
201	-0.965
202	-0.901
202	-0.852
203	-0.811
203	-0.777
204	-0.752
204	-0.73
205	-0.708
205	-0.698
205	-0.697
206	-0.692
206	-0.688
207	-0.686
207	-0.685
208	-0.684
208	-0.682
209	-0.679
209	-0.676
210	-0.677
210	-0.677
211	-0.678
211	-0.68
212	-0.68
212	-0.68
213	-0.677
213	-0.674
213	-0.674
214	-0.672
214	-0.671
215	-0.666
215	-0.664
216	-0.661
216	-0.66
217	-0.656
217	-0.654
218	-0.651
218	-0.65
219	-0.645
219	-0.645
220	-0.644
220	-0.645
221	-0.643
221	-0.641
221	-0.637
222	-0.632
222	-0.628
223	-0.624
223	-0.621
224	-0.616
224	-0.609
225	-0.601
225	-0.594
226	-0.585
226	-0.575
227	-0.564
227	-0.555
228	-0.539
228	-0.523
229	-0.503
229	-0.481
229	-0.458
230	-0.431
230	-0.401
231	-0.371
231	-0.337
232	-0.303
232	-0.265
233	-0.227
233	-0.188
234	-0.15
234	-0.114
235	-0.077
235	-0.042
236	-0.008
236	0.023
236	0.054
237	0.083
237	0.108
238	0.132
238	0.153
239	0.173
239	0.191
240	0.208
240	0.223
241	0.236
241	0.248
242	0.259
242	0.268
243	0.278
243	0.285
243	0.293
244	0.3
244	0.306
245	0.311
245	0.316
246	0.321
246	0.326
247	0.33
247	0.334
248	0.338
248	0.342
249	0.345
249	0.348
250	0.352
250	0.355
250	0.358
251	0.361
251	0.363
252	0.366
252	0.369
253	0.371
253	0.373
254	0.375
254	0.377
255	0.378
255	0.38
256	0.381
256	0.382
257	0.384
257	0.385
258	0.385
258	0.386
258	0.387
259	0.387
259	0.388
260	0.388
260	0.388
261	0.388
261	0.389
262	0.389
262	0.389
263	0.389
263	0.389
264	0.388
264	0.388
265	0.387
265	0.386
265	0.385
266	0.384
266	0.383
267	0.382
267	0.381
268	0.379
268	0.377
269	0.376
269	0.375
270	0.373
270	0.372
271	0.37
271	0.368
272	0.366
272	0.364
272	0.362
273	0.36
273	0.358
274	0.356
274	0.354
275	0.352
275	0.35
276	0.348
276	0.346
277	0.344
277	0.341
278	0.339
278	0.337
278	0.334
279	0.332
279	0.329
280	0.327
280	0.325
281	0.323
281	0.32
282	0.318
282	0.317
283	0.315
283	0.313
284	0.311
284	0.309
285	0.307
285	0.306
285	0.304
286	0.302
286	0.3
287	0.298
287	0.296
288	0.294
288	0.293
289	0.291
289	0.289
290	0.288
290	0.287
291	0.285
291	0.284
292	0.283
292	0.281
292	0.28
293	0.279
293	0.278
294	0.276
294	0.275
295	0.274
295	0.273
296	0.272
296	0.271
297	0.27
297	0.269
298	0.268
298	0.267
298	0.267
299	0.266
299	0.265
300	0.264
300	0.263
301	0.263
301	0.262
302	0.261
302	0.26
303	0.26
303	0.259
304	0.258
304	0.258
305	0.257
305	0.256
305	0.255
306	0.255
306	0.254
307	0.253
307	0.252
308	0.252
308	0.251
309	0.25
309	0.25
310	0.249
310	0.248
311	0.248
311	0.247
311	0.247
312	0.246
312	0.246
313	0.245
313	0.244
314	0.244
314	0.243
315	0.242
315	0.242
316	0.241
316	0.24
317	0.24
317	0.239
318	0.238
318	0.238
318	0.237
319	0.236
319	0.236
320	0.235
320	0.234
321	0.234
321	0.233
322	0.232
322	0.231
323	0.231
323	0.23
324	0.229
324	0.229
324	0.228
325	0.227
325	0.227
326	0.226
326	0.226
327	0.225
327	0.224
328	0.224
328	0.223
329	0.223
329	0.222
330	0.222
330	0.221
330	0.22
331	0.22
331	0.219
332	0.219
332	0.218
333	0.218
333	0.217
334	0.217
334	0.216
335	0.216
335	0.215
336	0.215
336	0.214
336	0.214
337	0.213
337	0.213
338	0.212
338	0.212
339	0.211
339	0.211
340	0.21
340	0.21
341	0.209
341	0.209
342	0.208
342	0.208
342	0.208
343	0.207
343	0.207
344	0.206
344	0.206
345	0.206
345	0.206
346	0.205
346	0.205
347	0.205
347	0.204
348	0.204
348	0.203
348	0.203
349	0.203
349	0.202
350	0.202
350	0.202
351	0.201
351	0.201
352	0.201
352	0.201
353	0.201
353	0.2
354	0.2
354	0.2
354	0.199
355	0.199
355	0.199
356	0.198
356	0.198
357	0.198
357	0.198
358	0.198
358	0.198
359	0.198
359	0.198
360	0.198
360	0.198
360	0.198
361	0.198
361	0.198
362	0.198
362	0.198
363	0.198
363	0.197
364	0.197
364	0.197
365	0.197
365	0.197
366	0.197
366	0.197
366	0.197
367	0.197
367	0.196
368	0.196
368	0.196
369	0.196
369	0.196
370	0.195
370	0.195
371	0.195
371	0.194
372	0.194
372	0.194
372	0.194
373	0.194
373	0.194
374	0.194
374	0.194
375	0.194
375	0.194
376	0.194
376	0.194
377	0.194
377	0.194
378	0.194
378	0.194
378	0.194
379	0.194
379	0.194
380	0.194
380	0.193
381	0.193
381	0.193
382	0.193
382	0.193
383	0.192
383	0.192
383	0.192
384	0.192
384	0.191
385	0.191
385	0.191
386	0.191
386	0.191
387	0.191
387	0.191
388	0.191
388	0.19
389	0.19
389	0.19
389	0.19
390	0.19
390	0.19
391	0.19
391	0.19
392	0.19
392	0.19
393	0.19
393	0.19
394	0.19
394	0.19
394	0.19
395	0.19
395	0.189
396	0.189
396	0.189
397	0.189
397	0.188
398	0.188
398	0.188
399	0.188
399	0.187
400	0.187
400	0.187
400	0.187
401	0.187
401	0.186
402	0.186
402	0.185
403	0.185
403	0.185
404	0.185
404	0.185
405	0.185
405	0.185
405	0.185
406	0.185
406	0.184
407	0.185
407	0.184
408	0.184
408	0.184
409	0.184
409	0.184
410	0.184
410	0.184
411	0.183
411	0.183
411	0.183
412	0.183
412	0.183
413	0.183
413	0.183
414	0.183
414	0.183
415	0.182
415	0.182
416	0.182
416	0.181
416	0.181
417	0.181
417	0.181
418	0.181
418	0.181
419	0.181
419	0.181
420	0.182
420	0.182
421	0.182
421	0.182
421	0.182
422	0.183
422	0.183
423	0.183
423	0.182
424	0.182
424	0.182
425	0.182
425	0.181
426	0.181
426	0.181
427	0.181
427	0.181
427	0.181
428	0.181
428	0.181
429	0.182
429	0.181
430	0.182
430	0.181
431	0.181
431	0.181
432	0.181
432	0.181
432	0.18
433	0.18
433	0.18
434	0.18
434	0.18
435	0.18
435	0.18
436	0.18
436	0.18
437	0.18
437	0.18
437	0.18
438	0.18
438	0.179
439	0.179
439	0.179
440	0.178
440	0.178
441	0.178
441	0.178
442	0.178
442	0.178
442	0.178
443	0.179
443	0.179
444	0.179
444	0.179
445	0.179
445	0.179
446	0.179
446	0.179
447	0.179
447	0.179
447	0.179
448	0.179
448	0.179
449	0.179
449	0.179
450	0.18
450	0.18
451	0.18
451	0.18
452	0.18
452	0.18
452	0.179
453	0.179
453	0.179
454	0.179
454	0.178
455	0.178
455	0.178
456	0.178
456	0.178
457	0.178
457	0.178
458	0.178
458	0.178
458	0.179
459	0.179
459	0.179
460	0.179
460	0.179
461	0.179
461	0.179
462	0.18
462	0.18
463	0.18
463	0.181
463	0.181
464	0.181
464	0.181
465	0.181
465	0.181
466	0.182
466	0.182
467	0.182
467	0.181
467	0.181
468	0.181
468	0.18
469	0.18
469	0.18
470	0.18
470	0.181
471	0.181
471	0.181
472	0.181
472	0.182
472	0.182
473	0.183
473	0.183
474	0.184
474	0.185
475	0.185
475	0.186
476	0.186
476	0.186
477	0.187
477	0.187
477	0.188
478	0.188
478	0.189
479	0.189
479	0.19
480	0.191
480	0.191
481	0.192
481	0.192
482	0.193
482	0.194
482	0.195
483	0.197
483	0.199
484	0.2
484	0.201
485	0.203
485	0.204
486	0.205
486	0.206
487	0.207
487	0.208
487	0.208
488	0.208
488	0.208
489	0.208
489	0.208
490	0.209
490	0.209
491	0.21
491	0.211
492	0.212
492	0.213
492	0.214
493	0.215
493	0.216
494	0.218
494	0.22
495	0.222
495	0.223
496	0.224
496	0.226
496	0.227
497	0.228
497	0.23
498	0.231
498	0.232
499	0.233
499	0.235
500	0.236
500	0.238
501	0.24
501	0.241
501	0.242
502	0.244
502	0.245
503	0.247
503	0.248
504	0.25
504	0.251
505	0.252
505	0.253
506	0.255
506	0.257
506	0.258
507	0.259
507	0.26
508	0.261
508	0.263
509	0.264
509	0.265
510	0.267
510	0.268
511	0.269
511	0.27
511	0.271
512	0.272
512	0.273
513	0.273
513	0.274
514	0.274
514	0.275
515	0.275
515	0.276
515	0.276
516	0.276
516	0.278
517	0.278
517	0.279
518	0.279
518	0.279
519	0.279
519	0.279
520	0.279
520	0.279
520	0.279
521	0.278
521	0.277
522	0.275
522	0.275
523	0.275
523	0.275
524	0.275
524	0.276
524	0.276
525	0.277
525	0.278
526	0.278
526	0.279
527	0.28
527	0.28
528	0.28
528	0.281
529	0.28
529	0.28
529	0.279
530	0.278
530	0.278
531	0.277
531	0.276
532	0.275
532	0.274
533	0.274
533	0.272
533	0.272
534	0.27
534	0.269
535	0.268
535	0.267
536	0.265
536	0.264
537	0.263
537	0.261
538	0.26
538	0.258
538	0.257
539	0.256
539	0.254
540	0.253
540	0.251
541	0.249
541	0.247
542	0.245
542	0.244
542	0.242
543	0.24
543	0.237
544	0.235
544	0.234
545	0.232
545	0.231
546	0.23
546	0.228
547	0.226
547	0.224
547	0.222
548	0.221
548	0.219
549	0.218
549	0.216
550	0.214
550	0.211
551	0.209
551	0.207
551	0.205
552	0.203
552	0.202
553	0.2
553	0.199
554	0.197
554	0.194
555	0.192
555	0.19
556	0.187
556	0.185
556	0.182
557	0.18
557	0.177
558	0.175
558	0.172
559	0.171
559	0.169
560	0.167
560	0.165
560	0.164
561	0.163
561	0.162
562	0.16
562	0.159
563	0.157
563	0.155
564	0.153
564	0.151
564	0.149
565	0.148
565	0.146
566	0.144
566	0.143
567	0.141
567	0.141
568	0.14
568	0.14
568	0.139
569	0.139
569	0.139
570	0.138
570	0.137
571	0.137
571	0.137
572	0.136
572	0.135
573	0.134
573	0.133
573	0.131
574	0.13
574	0.129
575	0.129
575	0.129
576	0.128
576	0.126
577	0.125
577	0.123
577	0.122
578	0.121
578	0.121
579	0.121
579	0.121
580	0.119
580	0.116
581	0.114
581	0.112
581	0.112
582	0.111
582	0.111
583	0.111
583	0.11
584	0.108
584	0.105
585	0.105
585	0.105
585	0.105
586	0.104
586	0.104
587	0.102
587	0.1
588	0.098
588	0.097
589	0.096
589	0.096
590	0.095
590	0.094
590	0.095
591	0.095
591	0.094
592	0.094
592	0.093
593	0.093
593	0.093
594	0.092
594	0.091
594	0.09
595	0.09
595	0.089
596	0.089
596	0.09
597	0.092
597	0.092
598	0.092
598	0.093
598	0.093
599	0.093
599	0.093
600	0.092
600	0.091
601	0.09
601	0.089
602	0.088
602	0.087
602	0.086
603	0.086
603	0.086
604	0.086
604	0.087
605	0.087
605	0.088
606	0.088
606	0.087
606	0.087
607	0.087
607	0.087
608	0.086
608	0.085
609	0.085
609	0.085
610	0.084
610	0.083
610	0.084
611	0.085
611	0.086
612	0.087
612	0.089
613	0.09
613	0.091
614	0.092
614	0.091
614	0.092
615	0.092
615	0.092
616	0.092
616	0.092
617	0.092
617	0.091
618	0.09
618	0.09
618	0.09
619	0.09
619	0.091
620	0.092
620	0.092
621	0.092
621	0.093
622	0.093
622	0.093
622	0.093
623	0.093
623	0.094
624	0.094
624	0.094
625	0.095
625	0.095
626	0.095
626	0.096
626	0.097
627	0.098
627	0.099
628	0.1
628	0.101
629	0.101
629	0.101
630	0.101
630	0.101
630	0.102
631	0.103
631	0.103
632	0.103
632	0.103
633	0.104
633	0.105
634	0.106
634	0.108
634	0.109
635	0.11
635	0.111
636	0.112
636	0.113
637	0.114
637	0.115
638	0.116
638	0.117
638	0.118
639	0.118
639	0.119
640	0.12
640	0.121
641	0.122
641	0.123
642	0.125
642	0.127
642	0.128
643	0.129
643	0.131
644	0.132
644	0.134
645	0.136
645	0.138
646	0.14
646	0.142
646	0.145
647	0.148
647	0.151
648	0.153
648	0.156
649	0.159
649	0.162
650	0.165
650	0.167
650	0.17
651	0.172
651	0.174
652	0.176
652	0.177
653	0.18
653	0.186
653	0.191
654	0.152
654	0.123
655	0.126
655	0.127
656	0.129
656	0.131
657	0.133
657	0.135
657	0.136
658	0.134
658	0.129
659	0.163
659	0.211
660	0.217
660	0.22
661	0.222
661	0.224
661	0.227
662	0.229
662	0.232
663	0.235
663	0.238
664	0.24
664	0.242
665	0.244
665	0.247
665	0.249
666	0.251
666	0.253
667	0.256
667	0.258
668	0.26
668	0.263
669	0.265
669	0.268
669	0.271
670	0.273
670	0.275
671	0.277
671	0.279
672	0.281
672	0.283
672	0.284
673	0.286
673	0.288
674	0.29
674	0.291
675	0.293
675	0.295
676	0.297
676	0.299
676	0.3
677	0.302
677	0.304
678	0.304
678	0.305
679	0.306
679	0.308
680	0.309
680	0.31
680	0.311
681	0.312
681	0.313
682	0.314
682	0.315
683	0.317
683	0.319
684	0.32
684	0.32
684	0.32
685	0.32
685	0.321
686	0.321
686	0.32
687	0.319
687	0.319
687	0.318
688	0.318
688	0.318
689	0.318
689	0.319
690	0.32
690	0.32
691	0.321
691	0.321
691	0.321
692	0.32
692	0.32
693	0.32
693	0.319
694	0.318
694	0.316
695	0.316
695	0.316
695	0.315
696	0.313
696	0.312
697	0.311
697	0.31
698	0.309
698	0.307
698	0.305
699	0.304
699	0.302
700	0.299
700	0.297
701	0.295
701	0.293
702	0.291
702	0.289
702	0.287
703	0.285
703	0.283
704	0.281
704	0.28
705	0.278
705	0.276
705	0.274
706	0.273
706	0.272
707	0.27
707	0.268
708	0.267
708	0.266
709	0.264
709	0.262
709	0.259
710	0.257
710	0.255
711	0.254
711	0.252
712	0.25
712	0.248
713	0.246
713	0.244
713	0.242
714	0.239
714	0.237
715	0.235
715	0.232
716	0.229
716	0.227
716	0.224
717	0.222
717	0.219
718	0.216
718	0.214
719	0.212
719	0.21
720	0.207
720	0.205
720	0.203
721	0.201
721	0.198
722	0.196
722	0.194
723	0.192
723	0.19
723	0.189
724	0.187
724	0.185
725	0.183
725	0.181
726	0.18
726	0.178
727	0.176
727	0.174
727	0.173
728	0.17
728	0.169
729	0.168
729	0.166
730	0.163
730	0.161
730	0.159
731	0.157
731	0.156
732	0.155
732	0.153
733	0.152
733	0.151
734	0.149
734	0.148
734	0.147
735	0.146
735	0.145
736	0.143
736	0.142
737	0.14
737	0.139
737	0.137
738	0.134
738	0.131
739	0.129
739	0.127
740	0.124
740	0.123
741	0.121
741	0.119
741	0.117
742	0.115
742	0.113
743	0.112
743	0.11
744	0.109
744	0.108
744	0.107
745	0.105
745	0.103
746	0.102
746	0.101
747	0.1
747	0.099
748	0.099
748	0.098
748	0.097
749	0.096
749	0.095
750	0.094
750	0.094
751	0.093
751	0.093
751	0.093
752	0.092
752	0.092
753	0.091
753	0.09
754	0.09
754	0.089
754	0.089
755	0.089
755	0.089
756	0.088
756	0.086
757	0.085
757	0.085
758	0.085
758	0.084
758	0.083
759	0.083
759	0.081
760	0.08
760	0.078
761	0.076
761	0.075
761	0.074
762	0.072
762	0.071
763	0.069
763	0.067
764	0.064
764	0.062
764	0.06
765	0.058
765	0.056
766	0.055
766	0.054
767	0.053
767	0.051
768	0.048
768	0.047
768	0.046
769	0.045
769	0.044
770	0.043
770	0.041
771	0.039
771	0.037
771	0.034
772	0.033
772	0.031
773	0.029
773	0.027
774	0.024
774	0.022
775	0.02
775	0.018
775	0.016
776	0.014
776	0.013
777	0.011
777	0.01
778	0.008
778	0.006
778	0.004
779	0.003
779	0.001
780	-0.001
780	-0.004
781	-0.007
781	-0.01
781	-0.013
782	-0.018
782	-0.022
783	-0.026
783	-0.03
784	-0.035
784	-0.04
784	-0.045
785	-0.05
785	-0.055
786	-0.06
786	-0.064
787	-0.067
787	-0.071
788	-0.077
788	-0.083
788	-0.09
789	-0.097
789	-0.101
790	-0.104
790	-0.108
791	-0.112
791	-0.116
791	-0.118
792	-0.114
792	-0.104
793	-0.099
793	-0.095
794	-0.094
794	-0.096
794	-0.1
795	-0.102
795	-0.103
796	-0.103
796	-0.106
797	-0.115
797	-0.126
797	-0.132
798	-0.138
798	-0.141
799	-0.142
799	-0.141
800	-0.141
800	-0.142
801	-0.145
801	-0.146
801	-0.145
802	-0.146
802	-0.147
803	-0.148
803	-0.148
804	-0.147
804	-0.142
804	-0.135
805	-0.132
805	-0.13
806	-0.128
806	-0.127
807	-0.127
807	-0.127
807	-0.127
808	-0.127
808	-0.129
809	-0.133
809	-0.139
810	-0.143
810	-0.146
810	-0.149
811	-0.152
811	-0.152
812	-0.148
812	-0.145
813	-0.145
813	-0.146
813	-0.147
814	-0.149
814	-0.149
815	-0.147
815	-0.143
816	-0.139
816	-0.135
817	-0.134
817	-0.131
817	-0.124
818	-0.115
818	-0.104
819	-0.093
819	-0.082
820	-0.073
820	-0.064
820	-0.056
821	-0.049
821	-0.042
822	-0.035
822	-0.03
823	-0.025
823	-0.021
823	-0.018
824	-0.014
824	-0.01
825	-0.005
825	-0.001
826	0.002
826	0.004
826	0.007
827	0.009
827	0.011
828	0.013
828	0.014
829	0.016
829	0.017
829	0.017
830	0.018
830	0.018
831	0.02
831	0.02
832	0.021
832	0.021
832	0.022
833	0.022
833	0.023
834	0.023
834	0.023
835	0.023
835	0.023
835	0.023
836	0.023
836	0.023
837	0.023
837	0.024
838	0.024
838	0.024
839	0.025
839	0.025
839	0.025
840	0.025
840	0.025
841	0.025
841	0.026
842	0.026
842	0.026
842	0.026
843	0.026
843	0.026
844	0.027
844	0.027
845	0.027
845	0.027
845	0.027
846	0.027
846	0.027
847	0.027
847	0.027
848	0.027
848	0.027
848	0.028
849	0.028
849	0.029
850	0.029
850	0.029
851	0.03
851	0.03
851	0.03
852	0.03
852	0.03
853	0.029
853	0.029
854	0.028
854	0.028
854	0.028
855	0.027
855	0.027
856	0.026
856	0.026
857	0.026
857	0.026
857	0.026
858	0.026
858	0.026
859	0.026
859	0.027
860	0.027
860	0.028
860	0.028
861	0.029
861	0.03
862	0.03
862	0.03
863	0.031
863	0.031
863	0.032
864	0.032
864	0.033
865	0.033
865	0.034
866	0.035
866	0.035
866	0.036
867	0.037
867	0.038
868	0.038
868	0.038
869	0.038
869	0.037
869	0.036
870	0.036
870	0.035
871	0.034
871	0.033
872	0.033
872	0.032
872	0.032
873	0.032
873	0.032
874	0.032
874	0.032
875	0.032
875	0.032
875	0.031
876	0.031
876	0.03
877	0.029
877	0.028
878	0.027
878	0.026
878	0.026
879	0.025
879	0.025
880	0.024
880	0.024
881	0.024
881	0.025
881	0.025
882	0.025
882	0.025
883	0.025
883	0.025
884	0.024
884	0.024
884	0.023
885	0.023
885	0.023
886	0.023
886	0.023
887	0.023
887	0.023
887	0.023
888	0.024
888	0.024
889	0.025
889	0.026
890	0.027
890	0.027
890	0.028
891	0.028
891	0.028
892	0.029
892	0.029
893	0.03
893	0.03
893	0.03
894	0.03
894	0.03
895	0.03
895	0.03
895	0.029
896	0.029
896	0.029
897	0.029
897	0.028
898	0.028
898	0.028
898	0.028
899	0.028
899	0.028
900	0.028
900	0.028
901	0.028
901	0.028
901	0.028
902	0.029
902	0.029
903	0.029
903	0.03
904	0.03
904	0.031
904	0.031
905	0.032
905	0.032
906	0.033
906	0.033
907	0.033
907	0.033
907	0.033
908	0.033
908	0.033
909	0.033
909	0.033
910	0.033
910	0.034
910	0.034
911	0.034
911	0.034
912	0.034
912	0.034
913	0.033
913	0.033
913	0.032
914	0.032
914	0.031
915	0.03
915	0.03
916	0.029
916	0.028
916	0.028
917	0.027
917	0.026
918	0.024
918	0.023
918	0.022
919	0.021
919	0.02
920	0.019
920	0.019
921	0.019
921	0.018
921	0.018
922	0.018
922	0.019
923	0.019
923	0.019
924	0.02
924	0.02
924	0.021
925	0.021
925	0.021
926	0.022
926	0.022
927	0.022
927	0.022
927	0.022
928	0.022
928	0.022
929	0.021
929	0.021
930	0.02
930	0.02
930	0.019
931	0.018
931	0.018
932	0.018
932	0.018
933	0.017
933	0.017
933	0.017
934	0.016
934	0.016
935	0.016
935	0.015
935	0.014
936	0.014
936	0.013
937	0.013
937	0.012
938	0.012
938	0.012
938	0.012
939	0.012
939	0.012
940	0.013
940	0.014
941	0.014
941	0.015
941	0.016
942	0.017
942	0.018
943	0.019
943	0.019
944	0.02
944	0.02
944	0.021
945	0.021
945	0.022
946	0.022
946	0.022
946	0.023
947	0.023
947	0.024
948	0.024
948	0.025
949	0.025
949	0.026
949	0.026
950	0.027
950	0.027
951	0.028
951	0.028
952	0.027
952	0.027
952	0.026
953	0.026
953	0.025
954	0.025
954	0.024
955	0.024
955	0.023
955	0.023
956	0.023
956	0.023
957	0.023
957	0.023
957	0.023
958	0.023
958	0.023
959	0.023
959	0.023
960	0.023
960	0.023
960	0.023
961	0.024
961	0.024
962	0.024
962	0.025
963	0.025
963	0.026
963	0.026
964	0.027
964	0.027
965	0.027
965	0.027
966	0.028
966	0.028
966	0.027
967	0.027
967	0.026
968	0.025
968	0.024
968	0.023
969	0.022
969	0.021
970	0.02
970	0.019
971	0.019
971	0.018
971	0.018
972	0.018
972	0.018
973	0.018
973	0.018
974	0.018
974	0.018
974	0.019
975	0.02
975	0.021
976	0.022
976	0.023
976	0.024
977	0.025
977	0.025
978	0.026
978	0.026
979	0.027
979	0.027
979	0.027
980	0.026
980	0.025
981	0.025
981	0.024
982	0.023
982	0.022
982	0.021
983	0.02
983	0.019
984	0.018
984	0.017
984	0.016
985	0.015
985	0.014
986	0.013
986	0.012
987	0.011
987	0.01
987	0.01
988	0.01
988	0.01
989	0.01
989	0.01
990	0.01
990	0.011
990	0.012
991	0.013
991	0.014
992	0.016
992	0.016
992	0.017
993	0.018
993	0.018
994	0.018
994	0.019
995	0.019
995	0.018
995	0.018
996	0.018
996	0.017
997	0.017
997	0.016
997	0.016
998	0.016
998	0.017
999	0.018
999	0.018
1000	0.019
1000	0.019
1000	0.02
1001	0.021
1001	0.022
1002	0.023
1002	0.023
1003	0.024
1003	0.024
1003	0.024
1004	0.023
1004	0.023
1005	0.022
1005	0.022
1005	0.021
1006	0.02
1006	0.019
1007	0.019
1007	0.018
1008	0.018
1008	0.017
1008	0.017
1009	0.017
1009	0.017
1010	0.017
1010	0.018
1010	0.018
1011	0.018
1011	0.018
1012	0.018
1012	0.017
1013	0.017
1013	0.016
1013	0.015
1014	0.014
1014	0.013
1015	0.012
1015	0.011
1016	0.01
1016	0.009
1016	0.008
1017	0.007
1017	0.006
1018	0.006
1018	0.005
1018	0.004
1019	0.004
1019	0.003
1020	0.003
1020	0.003
1021	0.003
1021	0.003
1021	0.003
1022	0.003
1022	0.004
1023	0.004
1023	0.005
1023	0.005
1024	0.005
1024	0.005
1025	0.005
1025	0.005
1026	0.005
1026	0.005
1026	0.005
1027	0.005
1027	0.005
1028	0.005
1028	0.004
1028	0.004
1029	0.004
1029	0.004
1030	0.004
1030	0.003
1031	0.003
1031	0.003
1031	0.003
1032	0.003
1032	0.003
1033	0.003
1033	0.003
1033	0.003
1034	0.003
1034	0.003
1035	0.003
1035	0.002
1036	0.002
1036	0.002
1036	0.002
1037	0.002
1037	0.002
1038	0.002
1038	0.002
1039	0.003
1039	0.003
1039	0.003
1040	0.004
1040	0.005
1041	0.005
1041	0.006
1041	0.006
1042	0.007
1042	0.008
1043	0.009
1043	0.01
1044	0.011
1044	0.011
1044	0.012
1045	0.013
1045	0.013
1046	0.014
1046	0.014
1046	0.014
1047	0.014
1047	0.014
1048	0.014
1048	0.014
1049	0.013
1049	0.012
1049	0.011
1050	0.01
1050	0.009
1051	0.009
1051	0.008
1051	0.007
1052	0.006
1052	0.006
1053	0.005
1053	0.004
1053	0.003
1054	0.002
1054	0.002
1055	0.001
1055	0
1056	-0.001
1056	-0.002
1056	-0.003
1057	-0.005
1057	-0.006
1058	-0.006
1058	-0.007
1058	-0.007
1059	-0.008
1059	-0.008
1060	-0.008
1060	-0.008
1061	-0.008
1061	-0.007
1061	-0.007
1062	-0.007
1062	-0.007
1063	-0.007
1063	-0.007
1063	-0.006
1064	-0.006
1064	-0.005
1065	-0.005
1065	-0.005
1066	-0.004
1066	-0.004
1066	-0.003
1067	-0.002
1067	-0.002
1068	-0.001
1068	-0.002
1068	-0.002
1069	-0.002
1069	-0.003
1070	-0.004
1070	-0.005
1071	-0.006
1071	-0.006
1071	-0.007
1072	-0.008
1072	-0.009
1073	-0.01
1073	-0.011
1073	-0.012
1074	-0.013
1074	-0.013
1075	-0.014
1075	-0.015
1076	-0.016
1076	-0.017
1076	-0.018
1077	-0.017
1077	-0.017
1078	-0.018
1078	-0.018
1078	-0.017
1079	-0.017
1079	-0.016
1080	-0.016
1080	-0.014
1080	-0.014
1081	-0.013
1081	-0.012
1082	-0.011
1082	-0.011
1083	-0.011
1083	-0.011
1083	-0.01
1084	-0.01
1084	-0.009
1085	-0.009
1085	-0.009
1085	-0.009
1086	-0.008
1086	-0.009
1087	-0.008
1087	-0.008
1088	-0.008
1088	-0.008
1088	-0.007
1089	-0.008
1089	-0.008
1090	-0.009
1090	-0.009
1090	-0.01
1091	-0.01
1091	-0.01
1092	-0.01
1092	-0.009
1092	-0.009
1093	-0.009
1093	-0.008
1094	-0.008
1094	-0.008
1095	-0.008
1095	-0.008
1095	-0.007
1096	-0.006
1096	-0.006
1097	-0.005
1097	-0.005
1097	-0.003
1098	-0.002
1098	-0.001
1099	0.001
1099	0.002
1100	0.004
1100	0.006
1100	0.007
1101	0.008
1101	0.009
1102	0.011
1102	0.012
1102	0.014
1103	0.016
1103	0.019
1104	0.023
1104	0.026
1104	0.031
1105	0.035
1105	0.039
1106	0.043
1106	0.048
1107	0.052
1107	0.059
1107	0.066
1108	0.096
1108	0.136
1109	0.19
1109	0.273
1109	0.333
1110	0.452
1110	0.705
1111	-0
1111	-0
