Data from 17c-2a_Absorbance__1300__01301.txt Node

Date: Fri Jan 26 10:30:50 CET 2024
User: Marek
Spectrometer: MAYP115816
Trigger mode: 0
Integration Time (sec): 2.000000E-1
Scans to average: 10
Electric dark correction enabled: true
Nonlinearity correction enabled: true
Boxcar width: 5
XAxis mode: Wavelengths
Number of Pixels in Spectrum: 2068
>>>>>Begin Spectral Data<<<<<
199	-1.401
199	-1.266
200	-1.121
200	-1.012
201	-0.944
201	-0.902
202	-0.84
202	-0.793
203	-0.753
203	-0.72
204	-0.695
204	-0.673
205	-0.653
205	-0.644
205	-0.642
206	-0.638
206	-0.636
207	-0.632
207	-0.631
208	-0.63
208	-0.629
209	-0.626
209	-0.624
210	-0.625
210	-0.626
211	-0.627
211	-0.629
212	-0.629
212	-0.629
213	-0.626
213	-0.623
213	-0.623
214	-0.621
214	-0.619
215	-0.615
215	-0.613
216	-0.61
216	-0.61
217	-0.606
217	-0.605
218	-0.602
218	-0.6
219	-0.596
219	-0.595
220	-0.595
220	-0.596
221	-0.593
221	-0.592
221	-0.587
222	-0.581
222	-0.578
223	-0.574
223	-0.572
224	-0.567
224	-0.561
225	-0.553
225	-0.546
226	-0.538
226	-0.526
227	-0.517
227	-0.509
228	-0.493
228	-0.479
229	-0.459
229	-0.438
229	-0.415
230	-0.388
230	-0.359
231	-0.33
231	-0.298
232	-0.266
232	-0.23
233	-0.193
233	-0.156
234	-0.12
234	-0.085
235	-0.052
235	-0.02
236	0.01
236	0.04
236	0.068
237	0.093
237	0.116
238	0.137
238	0.155
239	0.173
239	0.188
240	0.203
240	0.216
241	0.227
241	0.238
242	0.247
242	0.256
243	0.264
243	0.27
243	0.277
244	0.282
244	0.288
245	0.293
245	0.298
246	0.302
246	0.306
247	0.309
247	0.313
248	0.316
248	0.32
249	0.323
249	0.326
250	0.329
250	0.331
250	0.334
251	0.336
251	0.339
252	0.342
252	0.344
253	0.346
253	0.348
254	0.349
254	0.351
255	0.353
255	0.354
256	0.356
256	0.357
257	0.358
257	0.359
258	0.36
258	0.36
258	0.361
259	0.361
259	0.362
260	0.362
260	0.362
261	0.362
261	0.363
262	0.363
262	0.362
263	0.362
263	0.362
264	0.361
264	0.361
265	0.36
265	0.359
265	0.358
266	0.357
266	0.356
267	0.355
267	0.354
268	0.352
268	0.351
269	0.349
269	0.348
270	0.346
270	0.344
271	0.342
271	0.341
272	0.339
272	0.337
272	0.335
273	0.334
273	0.332
274	0.33
274	0.328
275	0.326
275	0.324
276	0.322
276	0.319
277	0.317
277	0.315
278	0.312
278	0.31
278	0.308
279	0.306
279	0.303
280	0.301
280	0.299
281	0.296
281	0.294
282	0.292
282	0.29
283	0.288
283	0.286
284	0.284
284	0.283
285	0.281
285	0.279
285	0.277
286	0.275
286	0.273
287	0.272
287	0.27
288	0.268
288	0.267
289	0.265
289	0.263
290	0.262
290	0.261
291	0.259
291	0.258
292	0.257
292	0.255
292	0.254
293	0.253
293	0.252
294	0.251
294	0.25
295	0.248
295	0.248
296	0.247
296	0.246
297	0.245
297	0.244
298	0.243
298	0.242
298	0.242
299	0.241
299	0.24
300	0.239
300	0.238
301	0.238
301	0.237
302	0.236
302	0.236
303	0.235
303	0.234
304	0.234
304	0.233
305	0.232
305	0.232
305	0.231
306	0.23
306	0.23
307	0.229
307	0.228
308	0.227
308	0.227
309	0.226
309	0.226
310	0.225
310	0.225
311	0.224
311	0.224
311	0.223
312	0.223
312	0.222
313	0.222
313	0.221
314	0.22
314	0.22
315	0.219
315	0.218
316	0.218
316	0.217
317	0.217
317	0.216
318	0.216
318	0.215
318	0.214
319	0.214
319	0.213
320	0.213
320	0.212
321	0.211
321	0.21
322	0.21
322	0.209
323	0.208
323	0.208
324	0.207
324	0.207
324	0.206
325	0.206
325	0.205
326	0.205
326	0.204
327	0.203
327	0.203
328	0.202
328	0.202
329	0.201
329	0.201
330	0.2
330	0.2
330	0.199
331	0.199
331	0.198
332	0.198
332	0.197
333	0.197
333	0.196
334	0.196
334	0.195
335	0.195
335	0.194
336	0.194
336	0.194
336	0.193
337	0.193
337	0.192
338	0.192
338	0.191
339	0.191
339	0.19
340	0.19
340	0.189
341	0.189
341	0.188
342	0.188
342	0.188
342	0.188
343	0.187
343	0.187
344	0.187
344	0.186
345	0.186
345	0.186
346	0.186
346	0.185
347	0.185
347	0.185
348	0.184
348	0.184
348	0.184
349	0.183
349	0.183
350	0.183
350	0.183
351	0.182
351	0.182
352	0.182
352	0.182
353	0.182
353	0.181
354	0.181
354	0.181
354	0.181
355	0.18
355	0.18
356	0.18
356	0.179
357	0.179
357	0.179
358	0.179
358	0.179
359	0.179
359	0.179
360	0.179
360	0.179
360	0.179
361	0.179
361	0.179
362	0.179
362	0.179
363	0.179
363	0.179
364	0.179
364	0.179
365	0.179
365	0.178
366	0.179
366	0.178
366	0.178
367	0.178
367	0.178
368	0.178
368	0.178
369	0.177
369	0.177
370	0.177
370	0.177
371	0.176
371	0.176
372	0.176
372	0.176
372	0.176
373	0.176
373	0.176
374	0.176
374	0.176
375	0.176
375	0.176
376	0.176
376	0.176
377	0.176
377	0.176
378	0.176
378	0.176
378	0.176
379	0.176
379	0.175
380	0.175
380	0.175
381	0.175
381	0.175
382	0.175
382	0.174
383	0.174
383	0.174
383	0.174
384	0.174
384	0.173
385	0.173
385	0.173
386	0.173
386	0.173
387	0.173
387	0.173
388	0.173
388	0.173
389	0.173
389	0.173
389	0.173
390	0.173
390	0.173
391	0.173
391	0.173
392	0.173
392	0.173
393	0.173
393	0.173
394	0.173
394	0.173
394	0.173
395	0.173
395	0.172
396	0.172
396	0.172
397	0.172
397	0.171
398	0.171
398	0.171
399	0.171
399	0.171
400	0.17
400	0.17
400	0.17
401	0.17
401	0.169
402	0.169
402	0.168
403	0.168
403	0.168
404	0.168
404	0.168
405	0.168
405	0.168
405	0.168
406	0.168
406	0.168
407	0.168
407	0.168
408	0.168
408	0.168
409	0.167
409	0.167
410	0.167
410	0.167
411	0.167
411	0.167
411	0.167
412	0.167
412	0.167
413	0.167
413	0.167
414	0.167
414	0.167
415	0.166
415	0.166
416	0.166
416	0.165
416	0.165
417	0.165
417	0.165
418	0.165
418	0.166
419	0.166
419	0.166
420	0.166
420	0.166
421	0.166
421	0.166
421	0.167
422	0.167
422	0.167
423	0.167
423	0.166
424	0.166
424	0.166
425	0.166
425	0.165
426	0.165
426	0.165
427	0.165
427	0.165
427	0.165
428	0.165
428	0.165
429	0.166
429	0.166
430	0.166
430	0.166
431	0.166
431	0.165
432	0.165
432	0.165
432	0.164
433	0.164
433	0.164
434	0.164
434	0.164
435	0.164
435	0.164
436	0.164
436	0.164
437	0.164
437	0.164
437	0.164
438	0.164
438	0.164
439	0.164
439	0.164
440	0.163
440	0.163
441	0.163
441	0.163
442	0.163
442	0.163
442	0.163
443	0.163
443	0.163
444	0.163
444	0.163
445	0.164
445	0.164
446	0.164
446	0.164
447	0.164
447	0.164
447	0.164
448	0.164
448	0.164
449	0.164
449	0.164
450	0.164
450	0.164
451	0.164
451	0.164
452	0.164
452	0.164
452	0.164
453	0.164
453	0.164
454	0.163
454	0.163
455	0.163
455	0.164
456	0.164
456	0.164
457	0.163
457	0.163
458	0.164
458	0.164
458	0.165
459	0.165
459	0.165
460	0.165
460	0.164
461	0.164
461	0.165
462	0.165
462	0.165
463	0.166
463	0.166
463	0.166
464	0.166
464	0.166
465	0.167
465	0.167
466	0.167
466	0.167
467	0.167
467	0.167
467	0.167
468	0.166
468	0.166
469	0.166
469	0.166
470	0.166
470	0.166
471	0.166
471	0.166
472	0.166
472	0.167
472	0.167
473	0.168
473	0.169
474	0.169
474	0.17
475	0.17
475	0.171
476	0.171
476	0.172
477	0.172
477	0.172
477	0.173
478	0.173
478	0.174
479	0.174
479	0.174
480	0.175
480	0.176
481	0.176
481	0.177
482	0.177
482	0.178
482	0.179
483	0.181
483	0.183
484	0.184
484	0.185
485	0.186
485	0.187
486	0.188
486	0.189
487	0.189
487	0.19
487	0.191
488	0.191
488	0.191
489	0.191
489	0.192
490	0.193
490	0.193
491	0.194
491	0.195
492	0.196
492	0.197
492	0.198
493	0.199
493	0.2
494	0.201
494	0.203
495	0.204
495	0.205
496	0.207
496	0.208
496	0.209
497	0.21
497	0.212
498	0.213
498	0.214
499	0.215
499	0.216
500	0.218
500	0.22
501	0.221
501	0.222
501	0.224
502	0.225
502	0.226
503	0.228
503	0.229
504	0.23
504	0.231
505	0.233
505	0.234
506	0.235
506	0.236
506	0.238
507	0.239
507	0.24
508	0.241
508	0.242
509	0.243
509	0.245
510	0.246
510	0.247
511	0.248
511	0.249
511	0.25
512	0.251
512	0.252
513	0.252
513	0.253
514	0.253
514	0.254
515	0.255
515	0.255
515	0.255
516	0.256
516	0.257
517	0.258
517	0.258
518	0.259
518	0.259
519	0.259
519	0.258
520	0.258
520	0.258
520	0.258
521	0.257
521	0.256
522	0.255
522	0.255
523	0.255
523	0.255
524	0.255
524	0.256
524	0.257
525	0.257
525	0.258
526	0.258
526	0.259
527	0.259
527	0.26
528	0.26
528	0.26
529	0.26
529	0.26
529	0.259
530	0.259
530	0.258
531	0.258
531	0.257
532	0.256
532	0.255
533	0.254
533	0.253
533	0.252
534	0.25
534	0.249
535	0.248
535	0.247
536	0.246
536	0.244
537	0.243
537	0.242
538	0.24
538	0.239
538	0.238
539	0.237
539	0.235
540	0.233
540	0.231
541	0.23
541	0.229
542	0.227
542	0.225
542	0.223
543	0.222
543	0.219
544	0.218
544	0.216
545	0.215
545	0.214
546	0.213
546	0.211
547	0.209
547	0.208
547	0.206
548	0.205
548	0.203
549	0.202
549	0.2
550	0.198
550	0.196
551	0.194
551	0.193
551	0.191
552	0.189
552	0.187
553	0.186
553	0.185
554	0.183
554	0.181
555	0.178
555	0.176
556	0.174
556	0.171
556	0.169
557	0.167
557	0.165
558	0.162
558	0.16
559	0.158
559	0.157
560	0.155
560	0.153
560	0.152
561	0.151
561	0.15
562	0.149
562	0.148
563	0.146
563	0.144
564	0.143
564	0.141
564	0.14
565	0.138
565	0.137
566	0.135
566	0.133
567	0.132
567	0.131
568	0.131
568	0.13
568	0.13
569	0.13
569	0.13
570	0.129
570	0.128
571	0.127
571	0.127
572	0.126
572	0.125
573	0.125
573	0.124
573	0.122
574	0.121
574	0.12
575	0.12
575	0.12
576	0.12
576	0.118
577	0.116
577	0.115
577	0.114
578	0.114
578	0.113
579	0.114
579	0.114
580	0.112
580	0.109
581	0.106
581	0.105
581	0.105
582	0.104
582	0.104
583	0.104
583	0.103
584	0.1
584	0.098
585	0.097
585	0.097
585	0.097
586	0.097
586	0.096
587	0.094
587	0.093
588	0.091
588	0.09
589	0.089
589	0.089
590	0.088
590	0.088
590	0.089
591	0.089
591	0.089
592	0.088
592	0.088
593	0.088
593	0.088
594	0.087
594	0.087
594	0.086
595	0.086
595	0.085
596	0.084
596	0.085
597	0.087
597	0.087
598	0.087
598	0.087
598	0.088
599	0.088
599	0.087
600	0.086
600	0.085
601	0.085
601	0.084
602	0.082
602	0.081
602	0.081
603	0.08
603	0.081
604	0.081
604	0.081
605	0.082
605	0.083
606	0.083
606	0.082
606	0.081
607	0.081
607	0.081
608	0.081
608	0.08
609	0.079
609	0.08
610	0.079
610	0.078
610	0.079
611	0.08
611	0.081
612	0.083
612	0.084
613	0.085
613	0.087
614	0.087
614	0.087
614	0.087
615	0.087
615	0.087
616	0.087
616	0.087
617	0.087
617	0.086
618	0.086
618	0.085
618	0.085
619	0.086
619	0.086
620	0.088
620	0.088
621	0.088
621	0.089
622	0.089
622	0.089
622	0.089
623	0.089
623	0.09
624	0.091
624	0.091
625	0.091
625	0.092
626	0.092
626	0.092
626	0.093
627	0.094
627	0.095
628	0.095
628	0.096
629	0.096
629	0.096
630	0.096
630	0.096
630	0.096
631	0.097
631	0.097
632	0.097
632	0.097
633	0.098
633	0.099
634	0.1
634	0.102
634	0.104
635	0.105
635	0.106
636	0.106
636	0.107
637	0.108
637	0.109
638	0.11
638	0.111
638	0.112
639	0.112
639	0.113
640	0.114
640	0.115
641	0.116
641	0.117
642	0.119
642	0.12
642	0.121
643	0.123
643	0.124
644	0.126
644	0.127
645	0.129
645	0.131
646	0.133
646	0.136
646	0.138
647	0.141
647	0.143
648	0.145
648	0.147
649	0.15
649	0.152
650	0.155
650	0.157
650	0.16
651	0.162
651	0.164
652	0.165
652	0.167
653	0.169
653	0.176
653	0.18
654	0.144
654	0.117
655	0.119
655	0.12
656	0.122
656	0.123
657	0.125
657	0.127
657	0.128
658	0.126
658	0.121
659	0.153
659	0.197
660	0.204
660	0.207
661	0.208
661	0.211
661	0.213
662	0.216
662	0.219
663	0.221
663	0.224
664	0.226
664	0.228
665	0.23
665	0.233
665	0.235
666	0.237
666	0.239
667	0.241
667	0.243
668	0.245
668	0.247
669	0.249
669	0.251
669	0.254
670	0.256
670	0.258
671	0.259
671	0.261
672	0.262
672	0.264
672	0.265
673	0.266
673	0.268
674	0.27
674	0.271
675	0.273
675	0.275
676	0.278
676	0.28
676	0.282
677	0.284
677	0.286
678	0.287
678	0.288
679	0.289
679	0.29
680	0.291
680	0.292
680	0.293
681	0.293
681	0.294
682	0.295
682	0.296
683	0.298
683	0.299
684	0.3
684	0.301
684	0.301
685	0.301
685	0.302
686	0.302
686	0.301
687	0.301
687	0.3
687	0.3
688	0.299
688	0.299
689	0.299
689	0.3
690	0.3
690	0.301
691	0.301
691	0.301
691	0.301
692	0.301
692	0.3
693	0.3
693	0.3
694	0.299
694	0.298
695	0.298
695	0.298
695	0.297
696	0.295
696	0.294
697	0.293
697	0.292
698	0.291
698	0.289
698	0.287
699	0.286
699	0.284
700	0.281
700	0.279
701	0.277
701	0.275
702	0.273
702	0.272
702	0.27
703	0.267
703	0.266
704	0.264
704	0.262
705	0.261
705	0.26
705	0.258
706	0.257
706	0.256
707	0.255
707	0.253
708	0.252
708	0.251
709	0.25
709	0.248
709	0.246
710	0.244
710	0.242
711	0.241
711	0.239
712	0.237
712	0.235
713	0.233
713	0.231
713	0.229
714	0.226
714	0.224
715	0.222
715	0.219
716	0.217
716	0.214
716	0.212
717	0.21
717	0.207
718	0.205
718	0.202
719	0.2
719	0.199
720	0.197
720	0.194
720	0.192
721	0.189
721	0.187
722	0.185
722	0.183
723	0.181
723	0.18
723	0.178
724	0.176
724	0.174
725	0.173
725	0.171
726	0.17
726	0.168
727	0.167
727	0.165
727	0.164
728	0.162
728	0.16
729	0.159
729	0.158
730	0.156
730	0.153
730	0.152
731	0.15
731	0.148
732	0.147
732	0.145
733	0.144
733	0.143
734	0.141
734	0.14
734	0.139
735	0.139
735	0.138
736	0.137
736	0.136
737	0.134
737	0.133
737	0.132
738	0.129
738	0.127
739	0.125
739	0.123
740	0.121
740	0.12
741	0.119
741	0.117
741	0.115
742	0.113
742	0.111
743	0.11
743	0.109
744	0.108
744	0.107
744	0.106
745	0.104
745	0.102
746	0.101
746	0.099
747	0.098
747	0.097
748	0.096
748	0.095
748	0.094
749	0.092
749	0.092
750	0.091
750	0.09
751	0.09
751	0.09
751	0.09
752	0.089
752	0.088
753	0.088
753	0.087
754	0.087
754	0.086
754	0.086
755	0.086
755	0.086
756	0.085
756	0.083
757	0.082
757	0.082
758	0.081
758	0.081
758	0.081
759	0.08
759	0.079
760	0.078
760	0.076
761	0.075
761	0.074
761	0.073
762	0.072
762	0.071
763	0.069
763	0.067
764	0.064
764	0.063
764	0.061
765	0.059
765	0.058
766	0.057
766	0.056
767	0.055
767	0.053
768	0.05
768	0.049
768	0.048
769	0.047
769	0.046
770	0.045
770	0.043
771	0.042
771	0.039
771	0.037
772	0.036
772	0.035
773	0.033
773	0.031
774	0.029
774	0.027
775	0.025
775	0.024
775	0.022
776	0.02
776	0.019
777	0.018
777	0.016
778	0.014
778	0.012
778	0.011
779	0.009
779	0.008
780	0.006
780	0.004
781	0.002
781	-0.001
781	-0.004
782	-0.007
782	-0.011
783	-0.014
783	-0.018
784	-0.022
784	-0.026
784	-0.031
785	-0.035
785	-0.04
786	-0.045
786	-0.048
787	-0.051
787	-0.055
788	-0.06
788	-0.066
788	-0.072
789	-0.079
789	-0.085
790	-0.089
790	-0.095
791	-0.101
791	-0.106
791	-0.11
792	-0.107
792	-0.099
793	-0.096
793	-0.094
794	-0.094
794	-0.096
794	-0.1
795	-0.103
795	-0.103
796	-0.104
796	-0.106
797	-0.115
797	-0.126
797	-0.133
798	-0.138
798	-0.141
799	-0.142
799	-0.141
800	-0.141
800	-0.142
801	-0.145
801	-0.146
801	-0.146
802	-0.147
802	-0.148
803	-0.148
803	-0.148
804	-0.147
804	-0.142
804	-0.136
805	-0.132
805	-0.13
806	-0.128
806	-0.127
807	-0.127
807	-0.127
807	-0.127
808	-0.128
808	-0.129
809	-0.134
809	-0.14
810	-0.143
810	-0.146
810	-0.149
811	-0.152
811	-0.153
812	-0.149
812	-0.145
813	-0.145
813	-0.146
813	-0.148
814	-0.149
814	-0.148
815	-0.143
815	-0.138
816	-0.132
816	-0.127
817	-0.125
817	-0.12
817	-0.112
818	-0.102
818	-0.09
819	-0.077
819	-0.067
820	-0.059
820	-0.052
820	-0.045
821	-0.038
821	-0.032
822	-0.026
822	-0.021
823	-0.016
823	-0.013
823	-0.01
824	-0.007
824	-0.003
825	0.001
825	0.005
826	0.008
826	0.01
826	0.012
827	0.014
827	0.016
828	0.018
828	0.019
829	0.021
829	0.022
829	0.022
830	0.022
830	0.022
831	0.024
831	0.024
832	0.024
832	0.025
832	0.025
833	0.025
833	0.026
834	0.026
834	0.026
835	0.027
835	0.026
835	0.026
836	0.026
836	0.027
837	0.027
837	0.028
838	0.028
838	0.028
839	0.029
839	0.029
839	0.029
840	0.029
840	0.029
841	0.029
841	0.029
842	0.029
842	0.029
842	0.029
843	0.029
843	0.03
844	0.03
844	0.03
845	0.03
845	0.03
845	0.03
846	0.03
846	0.03
847	0.03
847	0.031
848	0.031
848	0.031
848	0.031
849	0.031
849	0.032
850	0.032
850	0.032
851	0.032
851	0.033
851	0.032
852	0.032
852	0.032
853	0.031
853	0.031
854	0.031
854	0.031
854	0.03
855	0.03
855	0.03
856	0.03
856	0.029
857	0.029
857	0.029
857	0.029
858	0.03
858	0.03
859	0.03
859	0.03
860	0.031
860	0.031
860	0.032
861	0.033
861	0.034
862	0.034
862	0.034
863	0.034
863	0.035
863	0.035
864	0.034
864	0.034
865	0.035
865	0.035
866	0.035
866	0.035
866	0.036
867	0.036
867	0.037
868	0.037
868	0.037
869	0.037
869	0.037
869	0.036
870	0.036
870	0.035
871	0.035
871	0.034
872	0.034
872	0.033
872	0.033
873	0.034
873	0.034
874	0.034
874	0.034
875	0.034
875	0.034
875	0.034
876	0.033
876	0.032
877	0.032
877	0.031
878	0.03
878	0.029
878	0.028
879	0.028
879	0.027
880	0.027
880	0.027
881	0.026
881	0.027
881	0.027
882	0.027
882	0.027
883	0.027
883	0.026
884	0.026
884	0.025
884	0.025
885	0.025
885	0.025
886	0.025
886	0.025
887	0.025
887	0.025
887	0.025
888	0.025
888	0.026
889	0.027
889	0.028
890	0.029
890	0.029
890	0.03
891	0.03
891	0.03
892	0.031
892	0.031
893	0.032
893	0.032
893	0.032
894	0.032
894	0.032
895	0.031
895	0.03
895	0.03
896	0.029
896	0.028
897	0.028
897	0.027
898	0.026
898	0.026
898	0.025
899	0.025
899	0.025
900	0.025
900	0.025
901	0.025
901	0.026
901	0.026
902	0.026
902	0.027
903	0.027
903	0.027
904	0.028
904	0.029
904	0.029
905	0.03
905	0.03
906	0.031
906	0.031
907	0.031
907	0.032
907	0.032
908	0.032
908	0.032
909	0.033
909	0.033
910	0.034
910	0.034
910	0.034
911	0.034
911	0.035
912	0.035
912	0.035
913	0.034
913	0.034
913	0.033
914	0.033
914	0.032
915	0.031
915	0.03
916	0.029
916	0.028
916	0.027
917	0.025
917	0.024
918	0.022
918	0.021
918	0.019
919	0.018
919	0.017
920	0.016
920	0.015
921	0.015
921	0.015
921	0.015
922	0.016
922	0.016
923	0.017
923	0.017
924	0.018
924	0.019
924	0.019
925	0.02
925	0.021
926	0.022
926	0.022
927	0.023
927	0.023
927	0.023
928	0.023
928	0.023
929	0.022
929	0.022
930	0.022
930	0.021
930	0.02
931	0.02
931	0.019
932	0.019
932	0.019
933	0.018
933	0.018
933	0.018
934	0.017
934	0.016
935	0.016
935	0.015
935	0.015
936	0.014
936	0.013
937	0.013
937	0.012
938	0.012
938	0.012
938	0.012
939	0.012
939	0.013
940	0.014
940	0.015
941	0.016
941	0.017
941	0.018
942	0.019
942	0.02
943	0.021
943	0.022
944	0.022
944	0.022
944	0.023
945	0.023
945	0.023
946	0.024
946	0.024
946	0.024
947	0.024
947	0.025
948	0.025
948	0.025
949	0.026
949	0.026
949	0.026
950	0.027
950	0.027
951	0.027
951	0.027
952	0.026
952	0.026
952	0.026
953	0.025
953	0.025
954	0.024
954	0.024
955	0.023
955	0.023
955	0.023
956	0.023
956	0.023
957	0.023
957	0.023
957	0.023
958	0.023
958	0.024
959	0.024
959	0.024
960	0.024
960	0.024
960	0.024
961	0.024
961	0.024
962	0.025
962	0.025
963	0.026
963	0.026
963	0.026
964	0.027
964	0.027
965	0.027
965	0.027
966	0.027
966	0.027
966	0.027
967	0.027
967	0.026
968	0.025
968	0.025
968	0.024
969	0.023
969	0.023
970	0.022
970	0.021
971	0.021
971	0.02
971	0.02
972	0.02
972	0.02
973	0.02
973	0.02
974	0.02
974	0.021
974	0.021
975	0.022
975	0.023
976	0.024
976	0.025
976	0.025
977	0.026
977	0.026
978	0.027
978	0.027
979	0.027
979	0.027
979	0.027
980	0.026
980	0.025
981	0.025
981	0.024
982	0.023
982	0.022
982	0.021
983	0.02
983	0.019
984	0.018
984	0.017
984	0.017
985	0.016
985	0.015
986	0.014
986	0.013
987	0.012
987	0.012
987	0.012
988	0.011
988	0.011
989	0.011
989	0.011
990	0.012
990	0.012
990	0.013
991	0.014
991	0.015
992	0.016
992	0.017
992	0.018
993	0.018
993	0.019
994	0.019
994	0.019
995	0.019
995	0.019
995	0.019
996	0.018
996	0.018
997	0.017
997	0.017
997	0.016
998	0.016
998	0.017
999	0.017
999	0.017
1000	0.018
1000	0.018
1000	0.019
1001	0.02
1001	0.021
1002	0.022
1002	0.022
1003	0.023
1003	0.023
1003	0.023
1004	0.023
1004	0.023
1005	0.023
1005	0.023
1005	0.022
1006	0.022
1006	0.021
1007	0.021
1007	0.021
1008	0.021
1008	0.02
1008	0.021
1009	0.02
1009	0.02
1010	0.021
1010	0.021
1010	0.021
1011	0.021
1011	0.02
1012	0.02
1012	0.019
1013	0.019
1013	0.018
1013	0.017
1014	0.016
1014	0.015
1015	0.014
1015	0.013
1016	0.012
1016	0.011
1016	0.01
1017	0.009
1017	0.008
1018	0.008
1018	0.007
1018	0.007
1019	0.006
1019	0.006
1020	0.005
1020	0.005
1021	0.005
1021	0.005
1021	0.006
1022	0.006
1022	0.007
1023	0.007
1023	0.008
1023	0.008
1024	0.008
1024	0.008
1025	0.008
1025	0.008
1026	0.008
1026	0.008
1026	0.008
1027	0.007
1027	0.007
1028	0.007
1028	0.006
1028	0.006
1029	0.006
1029	0.005
1030	0.005
1030	0.005
1031	0.005
1031	0.005
1031	0.005
1032	0.005
1032	0.005
1033	0.005
1033	0.004
1033	0.004
1034	0.004
1034	0.004
1035	0.003
1035	0.003
1036	0.003
1036	0.002
1036	0.002
1037	0.003
1037	0.003
1038	0.003
1038	0.004
1039	0.004
1039	0.005
1039	0.006
1040	0.007
1040	0.008
1041	0.009
1041	0.01
1041	0.01
1042	0.011
1042	0.012
1043	0.012
1043	0.013
1044	0.013
1044	0.014
1044	0.014
1045	0.014
1045	0.014
1046	0.014
1046	0.014
1046	0.014
1047	0.014
1047	0.014
1048	0.014
1048	0.013
1049	0.013
1049	0.012
1049	0.011
1050	0.01
1050	0.01
1051	0.009
1051	0.008
1051	0.008
1052	0.007
1052	0.006
1053	0.005
1053	0.004
1053	0.004
1054	0.003
1054	0.003
1055	0.002
1055	0.002
1056	0.001
1056	-0
1056	-0.001
1057	-0.002
1057	-0.003
1058	-0.004
1058	-0.005
1058	-0.005
1059	-0.005
1059	-0.005
1060	-0.006
1060	-0.006
1061	-0.006
1061	-0.005
1061	-0.005
1062	-0.005
1062	-0.005
1063	-0.005
1063	-0.005
1063	-0.005
1064	-0.005
1064	-0.004
1065	-0.004
1065	-0.004
1066	-0.004
1066	-0.003
1066	-0.003
1067	-0.002
1067	-0.001
1068	-0.001
1068	-0.001
1068	-0.002
1069	-0.002
1069	-0.003
1070	-0.004
1070	-0.005
1071	-0.005
1071	-0.006
1071	-0.007
1072	-0.008
1072	-0.01
1073	-0.011
1073	-0.011
1073	-0.012
1074	-0.013
1074	-0.013
1075	-0.014
1075	-0.015
1076	-0.016
1076	-0.017
1076	-0.018
1077	-0.018
1077	-0.018
1078	-0.018
1078	-0.018
1078	-0.018
1079	-0.018
1079	-0.017
1080	-0.018
1080	-0.017
1080	-0.017
1081	-0.016
1081	-0.015
1082	-0.015
1082	-0.015
1083	-0.015
1083	-0.015
1083	-0.014
1084	-0.014
1084	-0.013
1085	-0.013
1085	-0.012
1085	-0.012
1086	-0.011
1086	-0.012
1087	-0.011
1087	-0.011
1088	-0.011
1088	-0.011
1088	-0.011
1089	-0.012
1089	-0.013
1090	-0.014
1090	-0.015
1090	-0.016
1091	-0.016
1091	-0.016
1092	-0.016
1092	-0.016
1092	-0.015
1093	-0.016
1093	-0.015
1094	-0.014
1094	-0.015
1095	-0.015
1095	-0.014
1095	-0.013
1096	-0.013
1096	-0.013
1097	-0.012
1097	-0.012
1097	-0.011
1098	-0.01
1098	-0.009
1099	-0.008
1099	-0.006
1100	-0.005
1100	-0.004
1100	-0.003
1101	-0.002
1101	-0.001
1102	0.001
1102	0.002
1102	0.004
1103	0.005
1103	0.007
1104	0.009
1104	0.012
1104	0.015
1105	0.019
1105	0.02
1106	0.022
1106	0.026
1107	0.028
1107	0.032
1107	0.038
1108	0.061
1108	0.091
1109	0.132
1109	0.191
1109	0.232
1110	0.309
1110	0.448
1111	0.905
1111	-0
