Data from 17c-2a_Absorbance__338__00339.txt Node

Date: Fri Jan 26 09:58:47 CET 2024
User: Marek
Spectrometer: MAYP115816
Trigger mode: 0
Integration Time (sec): 2.000000E-1
Scans to average: 10
Electric dark correction enabled: true
Nonlinearity correction enabled: true
Boxcar width: 5
XAxis mode: Wavelengths
Number of Pixels in Spectrum: 2068
>>>>>Begin Spectral Data<<<<<
199	-1.176
199	-1.047
200	-0.909
200	-0.809
201	-0.746
201	-0.709
202	-0.652
202	-0.609
203	-0.575
203	-0.547
204	-0.525
204	-0.505
205	-0.487
205	-0.479
205	-0.476
206	-0.472
206	-0.47
207	-0.468
207	-0.468
208	-0.468
208	-0.466
209	-0.464
209	-0.462
210	-0.463
210	-0.465
211	-0.466
211	-0.468
212	-0.469
212	-0.468
213	-0.467
213	-0.464
213	-0.465
214	-0.464
214	-0.462
215	-0.458
215	-0.456
216	-0.453
216	-0.452
217	-0.449
217	-0.448
218	-0.445
218	-0.443
219	-0.44
219	-0.44
220	-0.439
220	-0.44
221	-0.438
221	-0.438
221	-0.433
222	-0.429
222	-0.427
223	-0.423
223	-0.421
224	-0.418
224	-0.411
225	-0.406
225	-0.401
226	-0.394
226	-0.386
227	-0.379
227	-0.371
228	-0.358
228	-0.347
229	-0.332
229	-0.316
229	-0.3
230	-0.28
230	-0.258
231	-0.237
231	-0.214
232	-0.192
232	-0.169
233	-0.145
233	-0.122
234	-0.101
234	-0.081
235	-0.061
235	-0.044
236	-0.028
236	-0.012
236	0.003
237	0.015
237	0.026
238	0.036
238	0.045
239	0.053
239	0.06
240	0.067
240	0.073
241	0.078
241	0.083
242	0.087
242	0.091
243	0.095
243	0.098
243	0.101
244	0.104
244	0.107
245	0.109
245	0.112
246	0.114
246	0.117
247	0.119
247	0.121
248	0.123
248	0.126
249	0.128
249	0.13
250	0.132
250	0.134
250	0.136
251	0.138
251	0.14
252	0.142
252	0.143
253	0.145
253	0.147
254	0.148
254	0.149
255	0.151
255	0.152
256	0.153
256	0.154
257	0.155
257	0.156
258	0.157
258	0.158
258	0.158
259	0.159
259	0.159
260	0.16
260	0.16
261	0.16
261	0.16
262	0.161
262	0.16
263	0.16
263	0.16
264	0.16
264	0.159
265	0.159
265	0.158
265	0.158
266	0.157
266	0.156
267	0.155
267	0.154
268	0.153
268	0.152
269	0.151
269	0.149
270	0.148
270	0.147
271	0.145
271	0.144
272	0.143
272	0.141
272	0.139
273	0.138
273	0.136
274	0.134
274	0.133
275	0.131
275	0.13
276	0.128
276	0.127
277	0.125
277	0.123
278	0.122
278	0.12
278	0.118
279	0.117
279	0.115
280	0.113
280	0.111
281	0.109
281	0.108
282	0.106
282	0.104
283	0.103
283	0.102
284	0.1
284	0.099
285	0.097
285	0.096
285	0.095
286	0.094
286	0.092
287	0.091
287	0.09
288	0.089
288	0.088
289	0.087
289	0.085
290	0.084
290	0.083
291	0.082
291	0.081
292	0.081
292	0.08
292	0.079
293	0.078
293	0.077
294	0.077
294	0.076
295	0.076
295	0.075
296	0.074
296	0.074
297	0.073
297	0.073
298	0.073
298	0.072
298	0.072
299	0.072
299	0.071
300	0.071
300	0.071
301	0.071
301	0.071
302	0.07
302	0.07
303	0.07
303	0.07
304	0.07
304	0.069
305	0.069
305	0.069
305	0.069
306	0.068
306	0.068
307	0.068
307	0.067
308	0.067
308	0.067
309	0.067
309	0.067
310	0.066
310	0.066
311	0.066
311	0.066
311	0.066
312	0.066
312	0.066
313	0.066
313	0.066
314	0.065
314	0.065
315	0.065
315	0.065
316	0.065
316	0.065
317	0.064
317	0.064
318	0.064
318	0.064
318	0.064
319	0.063
319	0.063
320	0.063
320	0.063
321	0.062
321	0.062
322	0.062
322	0.062
323	0.061
323	0.061
324	0.061
324	0.061
324	0.061
325	0.06
325	0.06
326	0.06
326	0.06
327	0.06
327	0.06
328	0.059
328	0.059
329	0.059
329	0.059
330	0.059
330	0.059
330	0.058
331	0.058
331	0.058
332	0.058
332	0.057
333	0.057
333	0.057
334	0.057
334	0.057
335	0.057
335	0.057
336	0.057
336	0.056
336	0.056
337	0.056
337	0.056
338	0.056
338	0.056
339	0.056
339	0.055
340	0.055
340	0.055
341	0.055
341	0.054
342	0.054
342	0.054
342	0.054
343	0.054
343	0.054
344	0.054
344	0.054
345	0.054
345	0.054
346	0.054
346	0.053
347	0.053
347	0.053
348	0.053
348	0.053
348	0.053
349	0.052
349	0.052
350	0.052
350	0.052
351	0.052
351	0.052
352	0.052
352	0.052
353	0.052
353	0.052
354	0.052
354	0.052
354	0.052
355	0.051
355	0.051
356	0.051
356	0.051
357	0.051
357	0.051
358	0.051
358	0.051
359	0.051
359	0.051
360	0.051
360	0.051
360	0.051
361	0.051
361	0.051
362	0.051
362	0.051
363	0.051
363	0.051
364	0.051
364	0.051
365	0.051
365	0.051
366	0.051
366	0.052
366	0.052
367	0.052
367	0.051
368	0.051
368	0.051
369	0.051
369	0.051
370	0.051
370	0.051
371	0.051
371	0.051
372	0.05
372	0.05
372	0.05
373	0.05
373	0.05
374	0.051
374	0.051
375	0.051
375	0.051
376	0.051
376	0.051
377	0.052
377	0.052
378	0.052
378	0.052
378	0.052
379	0.052
379	0.052
380	0.052
380	0.052
381	0.052
381	0.052
382	0.052
382	0.052
383	0.052
383	0.052
383	0.052
384	0.052
384	0.052
385	0.052
385	0.052
386	0.052
386	0.052
387	0.052
387	0.052
388	0.052
388	0.052
389	0.052
389	0.052
389	0.052
390	0.053
390	0.053
391	0.053
391	0.053
392	0.053
392	0.053
393	0.053
393	0.053
394	0.053
394	0.053
394	0.053
395	0.053
395	0.053
396	0.053
396	0.053
397	0.053
397	0.053
398	0.053
398	0.053
399	0.053
399	0.053
400	0.053
400	0.053
400	0.052
401	0.052
401	0.052
402	0.052
402	0.052
403	0.052
403	0.052
404	0.052
404	0.052
405	0.052
405	0.052
405	0.052
406	0.052
406	0.052
407	0.052
407	0.052
408	0.052
408	0.053
409	0.053
409	0.053
410	0.053
410	0.053
411	0.053
411	0.053
411	0.053
412	0.053
412	0.053
413	0.053
413	0.053
414	0.053
414	0.052
415	0.052
415	0.052
416	0.052
416	0.052
416	0.052
417	0.052
417	0.052
418	0.052
418	0.053
419	0.053
419	0.053
420	0.053
420	0.054
421	0.054
421	0.054
421	0.054
422	0.054
422	0.054
423	0.055
423	0.054
424	0.054
424	0.054
425	0.054
425	0.054
426	0.054
426	0.054
427	0.054
427	0.054
427	0.054
428	0.054
428	0.054
429	0.054
429	0.054
430	0.054
430	0.054
431	0.054
431	0.054
432	0.054
432	0.054
432	0.054
433	0.054
433	0.054
434	0.054
434	0.054
435	0.054
435	0.054
436	0.054
436	0.054
437	0.054
437	0.054
437	0.054
438	0.054
438	0.054
439	0.054
439	0.053
440	0.053
440	0.053
441	0.053
441	0.053
442	0.053
442	0.053
442	0.053
443	0.053
443	0.054
444	0.054
444	0.054
445	0.054
445	0.054
446	0.054
446	0.055
447	0.055
447	0.055
447	0.055
448	0.055
448	0.055
449	0.055
449	0.055
450	0.055
450	0.055
451	0.055
451	0.055
452	0.055
452	0.055
452	0.055
453	0.055
453	0.055
454	0.055
454	0.055
455	0.055
455	0.055
456	0.055
456	0.055
457	0.055
457	0.055
458	0.055
458	0.055
458	0.055
459	0.056
459	0.055
460	0.055
460	0.055
461	0.055
461	0.055
462	0.056
462	0.056
463	0.056
463	0.056
463	0.056
464	0.056
464	0.056
465	0.056
465	0.057
466	0.057
466	0.057
467	0.057
467	0.057
467	0.056
468	0.056
468	0.056
469	0.056
469	0.056
470	0.056
470	0.055
471	0.055
471	0.055
472	0.055
472	0.056
472	0.056
473	0.056
473	0.057
474	0.057
474	0.057
475	0.057
475	0.058
476	0.058
476	0.058
477	0.058
477	0.058
477	0.058
478	0.058
478	0.058
479	0.058
479	0.058
480	0.058
480	0.059
481	0.059
481	0.059
482	0.059
482	0.06
482	0.06
483	0.061
483	0.062
484	0.063
484	0.063
485	0.063
485	0.064
486	0.064
486	0.064
487	0.065
487	0.065
487	0.065
488	0.065
488	0.064
489	0.064
489	0.065
490	0.065
490	0.065
491	0.065
491	0.065
492	0.065
492	0.066
492	0.066
493	0.066
493	0.067
494	0.067
494	0.068
495	0.069
495	0.069
496	0.07
496	0.07
496	0.071
497	0.071
497	0.072
498	0.072
498	0.072
499	0.073
499	0.073
500	0.073
500	0.074
501	0.074
501	0.075
501	0.075
502	0.075
502	0.076
503	0.077
503	0.077
504	0.077
504	0.078
505	0.078
505	0.079
506	0.08
506	0.08
506	0.081
507	0.081
507	0.081
508	0.081
508	0.081
509	0.082
509	0.082
510	0.082
510	0.083
511	0.083
511	0.083
511	0.083
512	0.083
512	0.084
513	0.083
513	0.083
514	0.083
514	0.084
515	0.084
515	0.084
515	0.084
516	0.084
516	0.085
517	0.085
517	0.086
518	0.086
518	0.086
519	0.086
519	0.086
520	0.086
520	0.086
520	0.086
521	0.085
521	0.085
522	0.084
522	0.083
523	0.083
523	0.083
524	0.083
524	0.083
524	0.083
525	0.083
525	0.083
526	0.083
526	0.084
527	0.084
527	0.084
528	0.085
528	0.085
529	0.085
529	0.085
529	0.085
530	0.085
530	0.085
531	0.085
531	0.085
532	0.084
532	0.084
533	0.084
533	0.083
533	0.083
534	0.082
534	0.082
535	0.081
535	0.081
536	0.081
536	0.08
537	0.08
537	0.079
538	0.079
538	0.078
538	0.078
539	0.078
539	0.077
540	0.077
540	0.076
541	0.076
541	0.075
542	0.075
542	0.074
542	0.074
543	0.073
543	0.073
544	0.072
544	0.072
545	0.071
545	0.071
546	0.071
546	0.07
547	0.07
547	0.069
547	0.069
548	0.069
548	0.068
549	0.068
549	0.068
550	0.067
550	0.066
551	0.066
551	0.065
551	0.065
552	0.065
552	0.064
553	0.064
553	0.064
554	0.063
554	0.062
555	0.061
555	0.061
556	0.06
556	0.059
556	0.058
557	0.057
557	0.056
558	0.056
558	0.055
559	0.054
559	0.054
560	0.053
560	0.053
560	0.053
561	0.053
561	0.053
562	0.053
562	0.052
563	0.051
563	0.051
564	0.05
564	0.05
564	0.049
565	0.049
565	0.048
566	0.048
566	0.047
567	0.047
567	0.047
568	0.048
568	0.048
568	0.048
569	0.049
569	0.049
570	0.049
570	0.048
571	0.049
571	0.049
572	0.048
572	0.048
573	0.048
573	0.047
573	0.047
574	0.047
574	0.046
575	0.046
575	0.047
576	0.046
576	0.045
577	0.045
577	0.044
577	0.044
578	0.044
578	0.044
579	0.045
579	0.045
580	0.045
580	0.043
581	0.042
581	0.042
581	0.042
582	0.042
582	0.042
583	0.042
583	0.041
584	0.04
584	0.038
585	0.038
585	0.039
585	0.039
586	0.039
586	0.039
587	0.038
587	0.037
588	0.037
588	0.036
589	0.036
589	0.037
590	0.036
590	0.036
590	0.037
591	0.037
591	0.037
592	0.037
592	0.037
593	0.037
593	0.037
594	0.036
594	0.036
594	0.036
595	0.036
595	0.035
596	0.035
596	0.036
597	0.038
597	0.038
598	0.039
598	0.039
598	0.04
599	0.04
599	0.04
600	0.04
600	0.039
601	0.039
601	0.039
602	0.038
602	0.037
602	0.037
603	0.037
603	0.037
604	0.038
604	0.038
605	0.039
605	0.04
606	0.04
606	0.039
606	0.039
607	0.039
607	0.039
608	0.038
608	0.037
609	0.037
609	0.037
610	0.036
610	0.035
610	0.036
611	0.037
611	0.038
612	0.038
612	0.039
613	0.04
613	0.042
614	0.042
614	0.042
614	0.042
615	0.042
615	0.042
616	0.042
616	0.042
617	0.042
617	0.041
618	0.041
618	0.04
618	0.04
619	0.041
619	0.041
620	0.042
620	0.042
621	0.043
621	0.043
622	0.043
622	0.044
622	0.043
623	0.043
623	0.044
624	0.044
624	0.044
625	0.044
625	0.044
626	0.044
626	0.044
626	0.044
627	0.045
627	0.046
628	0.046
628	0.046
629	0.047
629	0.047
630	0.047
630	0.046
630	0.047
631	0.047
631	0.046
632	0.046
632	0.046
633	0.046
633	0.046
634	0.047
634	0.048
634	0.049
635	0.05
635	0.05
636	0.051
636	0.051
637	0.052
637	0.052
638	0.053
638	0.054
638	0.054
639	0.054
639	0.054
640	0.055
640	0.055
641	0.055
641	0.056
642	0.056
642	0.057
642	0.058
643	0.059
643	0.06
644	0.06
644	0.061
645	0.062
645	0.063
646	0.064
646	0.065
646	0.066
647	0.067
647	0.068
648	0.069
648	0.07
649	0.071
649	0.072
650	0.073
650	0.074
650	0.075
651	0.076
651	0.077
652	0.078
652	0.078
653	0.079
653	0.084
653	0.08
654	0.065
654	0.054
655	0.054
655	0.055
656	0.056
656	0.057
657	0.058
657	0.059
657	0.059
658	0.058
658	0.059
659	0.074
659	0.093
660	0.097
660	0.098
661	0.099
661	0.1
661	0.101
662	0.102
662	0.103
663	0.104
663	0.105
664	0.105
664	0.106
665	0.107
665	0.108
665	0.108
666	0.109
666	0.109
667	0.11
667	0.11
668	0.111
668	0.112
669	0.114
669	0.115
669	0.117
670	0.118
670	0.119
671	0.12
671	0.121
672	0.122
672	0.122
672	0.123
673	0.124
673	0.125
674	0.125
674	0.126
675	0.127
675	0.128
676	0.13
676	0.131
676	0.132
677	0.133
677	0.134
678	0.134
678	0.134
679	0.135
679	0.135
680	0.136
680	0.136
680	0.136
681	0.136
681	0.137
682	0.137
682	0.138
683	0.138
683	0.139
684	0.14
684	0.14
684	0.139
685	0.139
685	0.139
686	0.139
686	0.138
687	0.138
687	0.138
687	0.138
688	0.137
688	0.137
689	0.138
689	0.139
690	0.139
690	0.139
691	0.139
691	0.14
691	0.14
692	0.139
692	0.139
693	0.139
693	0.139
694	0.139
694	0.138
695	0.139
695	0.139
695	0.138
696	0.138
696	0.137
697	0.137
697	0.136
698	0.135
698	0.134
698	0.134
699	0.133
699	0.132
700	0.13
700	0.13
701	0.13
701	0.129
702	0.129
702	0.128
702	0.127
703	0.126
703	0.125
704	0.124
704	0.123
705	0.123
705	0.122
705	0.122
706	0.121
706	0.121
707	0.12
707	0.12
708	0.119
708	0.119
709	0.118
709	0.117
709	0.116
710	0.115
710	0.115
711	0.114
711	0.113
712	0.113
712	0.112
713	0.111
713	0.11
713	0.109
714	0.108
714	0.107
715	0.106
715	0.104
716	0.103
716	0.102
716	0.1
717	0.099
717	0.098
718	0.096
718	0.095
719	0.094
719	0.093
720	0.092
720	0.091
720	0.09
721	0.089
721	0.088
722	0.087
722	0.086
723	0.085
723	0.085
723	0.084
724	0.084
724	0.084
725	0.083
725	0.084
726	0.084
726	0.083
727	0.083
727	0.083
727	0.082
728	0.081
728	0.081
729	0.08
729	0.08
730	0.078
730	0.077
730	0.076
731	0.075
731	0.074
732	0.074
732	0.073
733	0.073
733	0.072
734	0.071
734	0.071
734	0.071
735	0.071
735	0.07
736	0.069
736	0.069
737	0.068
737	0.067
737	0.066
738	0.065
738	0.063
739	0.062
739	0.061
740	0.059
740	0.059
741	0.058
741	0.058
741	0.057
742	0.056
742	0.056
743	0.056
743	0.056
744	0.056
744	0.056
744	0.055
745	0.054
745	0.053
746	0.052
746	0.051
747	0.05
747	0.049
748	0.048
748	0.047
748	0.047
749	0.046
749	0.046
750	0.046
750	0.046
751	0.046
751	0.046
751	0.046
752	0.045
752	0.045
753	0.045
753	0.045
754	0.045
754	0.044
754	0.045
755	0.045
755	0.045
756	0.045
756	0.044
757	0.044
757	0.044
758	0.044
758	0.043
758	0.043
759	0.043
759	0.042
760	0.042
760	0.041
761	0.04
761	0.04
761	0.04
762	0.039
762	0.039
763	0.038
763	0.037
764	0.036
764	0.036
764	0.035
765	0.035
765	0.034
766	0.033
766	0.033
767	0.032
767	0.031
768	0.029
768	0.028
768	0.027
769	0.026
769	0.025
770	0.024
770	0.022
771	0.021
771	0.019
771	0.018
772	0.017
772	0.016
773	0.015
773	0.014
774	0.013
774	0.013
775	0.013
775	0.012
775	0.012
776	0.012
776	0.012
777	0.012
777	0.011
778	0.011
778	0.01
778	0.01
779	0.009
779	0.009
780	0.007
780	0.006
781	0.004
781	0.002
781	-0.001
782	-0.003
782	-0.007
783	-0.009
783	-0.012
784	-0.015
784	-0.019
784	-0.022
785	-0.026
785	-0.029
786	-0.032
786	-0.035
787	-0.037
787	-0.039
788	-0.043
788	-0.047
788	-0.051
789	-0.056
789	-0.06
790	-0.065
790	-0.07
791	-0.076
791	-0.083
791	-0.089
792	-0.088
792	-0.083
793	-0.083
793	-0.084
794	-0.087
794	-0.092
794	-0.098
795	-0.102
795	-0.104
796	-0.104
796	-0.107
797	-0.116
797	-0.127
797	-0.134
798	-0.139
798	-0.142
799	-0.143
799	-0.142
800	-0.142
800	-0.143
801	-0.146
801	-0.147
801	-0.146
802	-0.147
802	-0.148
803	-0.149
803	-0.149
804	-0.148
804	-0.143
804	-0.136
805	-0.133
805	-0.131
806	-0.129
806	-0.128
807	-0.128
807	-0.128
807	-0.128
808	-0.128
808	-0.13
809	-0.134
809	-0.14
810	-0.144
810	-0.147
810	-0.15
811	-0.153
811	-0.154
812	-0.15
812	-0.146
813	-0.144
813	-0.141
813	-0.137
814	-0.132
814	-0.125
815	-0.117
815	-0.107
816	-0.097
816	-0.088
817	-0.082
817	-0.073
817	-0.064
818	-0.056
818	-0.047
819	-0.04
819	-0.034
820	-0.029
820	-0.025
820	-0.021
821	-0.017
821	-0.013
822	-0.01
822	-0.008
823	-0.005
823	-0.004
823	-0.002
824	-0
824	0.002
825	0.004
825	0.006
826	0.008
826	0.01
826	0.011
827	0.013
827	0.014
828	0.015
828	0.015
829	0.016
829	0.016
829	0.016
830	0.015
830	0.015
831	0.016
831	0.016
832	0.016
832	0.016
832	0.017
833	0.018
833	0.019
834	0.019
834	0.02
835	0.021
835	0.021
835	0.022
836	0.022
836	0.023
837	0.023
837	0.024
838	0.024
838	0.024
839	0.024
839	0.023
839	0.023
840	0.023
840	0.023
841	0.022
841	0.022
842	0.022
842	0.021
842	0.021
843	0.021
843	0.021
844	0.021
844	0.021
845	0.021
845	0.021
845	0.021
846	0.021
846	0.021
847	0.021
847	0.022
848	0.022
848	0.022
848	0.022
849	0.022
849	0.022
850	0.022
850	0.022
851	0.022
851	0.023
851	0.023
852	0.022
852	0.022
853	0.022
853	0.022
854	0.022
854	0.023
854	0.023
855	0.023
855	0.023
856	0.022
856	0.022
857	0.021
857	0.021
857	0.02
858	0.02
858	0.02
859	0.02
859	0.019
860	0.02
860	0.02
860	0.02
861	0.02
861	0.021
862	0.021
862	0.022
863	0.022
863	0.022
863	0.023
864	0.023
864	0.024
865	0.024
865	0.025
866	0.025
866	0.025
866	0.026
867	0.026
867	0.026
868	0.026
868	0.026
869	0.026
869	0.027
869	0.027
870	0.027
870	0.027
871	0.028
871	0.028
872	0.028
872	0.028
872	0.029
873	0.029
873	0.029
874	0.029
874	0.029
875	0.029
875	0.029
875	0.028
876	0.028
876	0.027
877	0.026
877	0.025
878	0.024
878	0.023
878	0.022
879	0.022
879	0.021
880	0.02
880	0.02
881	0.02
881	0.02
881	0.02
882	0.02
882	0.021
883	0.021
883	0.021
884	0.021
884	0.021
884	0.021
885	0.021
885	0.021
886	0.021
886	0.021
887	0.021
887	0.021
887	0.021
888	0.021
888	0.021
889	0.022
889	0.022
890	0.023
890	0.023
890	0.023
891	0.023
891	0.024
892	0.024
892	0.025
893	0.025
893	0.026
893	0.026
894	0.026
894	0.026
895	0.026
895	0.025
895	0.025
896	0.024
896	0.023
897	0.022
897	0.021
898	0.02
898	0.02
898	0.019
899	0.019
899	0.019
900	0.019
900	0.02
901	0.02
901	0.021
901	0.021
902	0.022
902	0.022
903	0.023
903	0.023
904	0.024
904	0.024
904	0.025
905	0.025
905	0.025
906	0.026
906	0.026
907	0.026
907	0.026
907	0.026
908	0.027
908	0.027
909	0.028
909	0.028
910	0.029
910	0.029
910	0.03
911	0.03
911	0.031
912	0.031
912	0.032
913	0.032
913	0.032
913	0.031
914	0.031
914	0.03
915	0.029
915	0.029
916	0.028
916	0.026
916	0.025
917	0.023
917	0.021
918	0.019
918	0.017
918	0.015
919	0.013
919	0.012
920	0.011
920	0.01
921	0.01
921	0.009
921	0.009
922	0.01
922	0.011
923	0.011
923	0.012
924	0.013
924	0.014
924	0.015
925	0.016
925	0.017
926	0.018
926	0.019
927	0.02
927	0.02
927	0.02
928	0.021
928	0.02
929	0.02
929	0.02
930	0.019
930	0.019
930	0.018
931	0.018
931	0.017
932	0.017
932	0.017
933	0.016
933	0.016
933	0.015
934	0.015
934	0.014
935	0.014
935	0.013
935	0.013
936	0.012
936	0.012
937	0.012
937	0.011
938	0.011
938	0.011
938	0.011
939	0.011
939	0.012
940	0.012
940	0.013
941	0.013
941	0.014
941	0.015
942	0.016
942	0.017
943	0.018
943	0.019
944	0.019
944	0.02
944	0.02
945	0.021
945	0.021
946	0.022
946	0.022
946	0.022
947	0.022
947	0.023
948	0.023
948	0.023
949	0.023
949	0.024
949	0.024
950	0.024
950	0.024
951	0.024
951	0.023
952	0.023
952	0.022
952	0.021
953	0.021
953	0.02
954	0.019
954	0.019
955	0.018
955	0.018
955	0.018
956	0.018
956	0.018
957	0.018
957	0.019
957	0.019
958	0.019
958	0.02
959	0.02
959	0.021
960	0.021
960	0.021
960	0.022
961	0.022
961	0.022
962	0.023
962	0.023
963	0.024
963	0.024
963	0.024
964	0.024
964	0.024
965	0.023
965	0.023
966	0.023
966	0.023
966	0.023
967	0.023
967	0.022
968	0.022
968	0.022
968	0.022
969	0.022
969	0.022
970	0.022
970	0.021
971	0.021
971	0.021
971	0.021
972	0.021
972	0.02
973	0.02
973	0.02
974	0.02
974	0.02
974	0.02
975	0.021
975	0.021
976	0.022
976	0.023
976	0.023
977	0.023
977	0.024
978	0.024
978	0.025
979	0.025
979	0.025
979	0.025
980	0.025
980	0.024
981	0.024
981	0.023
982	0.023
982	0.022
982	0.021
983	0.021
983	0.02
984	0.019
984	0.019
984	0.018
985	0.018
985	0.017
986	0.016
986	0.016
987	0.015
987	0.015
987	0.015
988	0.015
988	0.015
989	0.015
989	0.015
990	0.016
990	0.016
990	0.016
991	0.017
991	0.017
992	0.018
992	0.018
992	0.018
993	0.018
993	0.018
994	0.018
994	0.018
995	0.018
995	0.018
995	0.018
996	0.018
996	0.018
997	0.018
997	0.018
997	0.018
998	0.018
998	0.019
999	0.019
999	0.02
1000	0.02
1000	0.021
1000	0.021
1001	0.022
1001	0.022
1002	0.023
1002	0.023
1003	0.023
1003	0.023
1003	0.023
1004	0.023
1004	0.023
1005	0.022
1005	0.022
1005	0.021
1006	0.021
1006	0.02
1007	0.02
1007	0.019
1008	0.019
1008	0.018
1008	0.017
1009	0.017
1009	0.017
1010	0.016
1010	0.016
1010	0.016
1011	0.016
1011	0.016
1012	0.015
1012	0.015
1013	0.015
1013	0.014
1013	0.014
1014	0.013
1014	0.012
1015	0.012
1015	0.011
1016	0.01
1016	0.009
1016	0.009
1017	0.008
1017	0.007
1018	0.007
1018	0.006
1018	0.006
1019	0.005
1019	0.005
1020	0.005
1020	0.005
1021	0.005
1021	0.005
1021	0.005
1022	0.005
1022	0.006
1023	0.006
1023	0.006
1023	0.007
1024	0.007
1024	0.007
1025	0.007
1025	0.007
1026	0.007
1026	0.008
1026	0.007
1027	0.007
1027	0.007
1028	0.007
1028	0.007
1028	0.007
1029	0.006
1029	0.006
1030	0.005
1030	0.005
1031	0.005
1031	0.004
1031	0.004
1032	0.004
1032	0.004
1033	0.004
1033	0.004
1033	0.004
1034	0.004
1034	0.004
1035	0.004
1035	0.004
1036	0.004
1036	0.004
1036	0.004
1037	0.005
1037	0.005
1038	0.005
1038	0.006
1039	0.006
1039	0.007
1039	0.007
1040	0.008
1040	0.009
1041	0.01
1041	0.01
1041	0.011
1042	0.012
1042	0.012
1043	0.013
1043	0.014
1044	0.014
1044	0.015
1044	0.015
1045	0.016
1045	0.015
1046	0.015
1046	0.015
1046	0.015
1047	0.015
1047	0.014
1048	0.014
1048	0.013
1049	0.013
1049	0.012
1049	0.012
1050	0.011
1050	0.01
1051	0.01
1051	0.01
1051	0.009
1052	0.009
1052	0.008
1053	0.008
1053	0.007
1053	0.007
1054	0.006
1054	0.006
1055	0.005
1055	0.005
1056	0.004
1056	0.003
1056	0.003
1057	0.002
1057	0.002
1058	0.002
1058	0.001
1058	0.001
1059	0.001
1059	0.001
1060	0.001
1060	0.002
1061	0.002
1061	0.002
1061	0.003
1062	0.003
1062	0.003
1063	0.003
1063	0.002
1063	0.003
1064	0.003
1064	0.003
1065	0.003
1065	0.003
1066	0.003
1066	0.003
1066	0.003
1067	0.003
1067	0.003
1068	0.003
1068	0.003
1068	0.002
1069	0.001
1069	0
1070	-0.001
1070	-0.002
1071	-0.003
1071	-0.004
1071	-0.005
1072	-0.006
1072	-0.007
1073	-0.009
1073	-0.009
1073	-0.01
1074	-0.01
1074	-0.01
1075	-0.01
1075	-0.011
1076	-0.012
1076	-0.012
1076	-0.012
1077	-0.012
1077	-0.012
1078	-0.012
1078	-0.012
1078	-0.012
1079	-0.012
1079	-0.012
1080	-0.011
1080	-0.011
1080	-0.011
1081	-0.011
1081	-0.011
1082	-0.01
1082	-0.011
1083	-0.011
1083	-0.011
1083	-0.011
1084	-0.011
1084	-0.011
1085	-0.011
1085	-0.011
1085	-0.011
1086	-0.011
1086	-0.011
1087	-0.01
1087	-0.009
1088	-0.01
1088	-0.009
1088	-0.009
1089	-0.009
1089	-0.009
1090	-0.009
1090	-0.009
1090	-0.009
1091	-0.009
1091	-0.009
1092	-0.009
1092	-0.009
1092	-0.009
1093	-0.009
1093	-0.009
1094	-0.009
1094	-0.009
1095	-0.009
1095	-0.01
1095	-0.01
1096	-0.01
1096	-0.01
1097	-0.011
1097	-0.01
1097	-0.01
1098	-0.01
1098	-0.009
1099	-0.009
1099	-0.008
1100	-0.007
1100	-0.006
1100	-0.006
1101	-0.005
1101	-0.004
1102	-0.004
1102	-0.004
1102	-0.002
1103	-0.002
1103	-0.001
1104	0.001
1104	0.002
1104	0.004
1105	0.006
1105	0.007
1106	0.008
1106	0.01
1107	0.012
1107	0.014
1107	0.017
1108	0.029
1108	0.044
1109	0.063
1109	0.091
1109	0.108
1110	0.138
1110	0.185
1111	0.277
1111	0.566
