Data from 17c-2a_Absorbance__1364__01365.txt Node

Date: Fri Jan 26 10:32:58 CET 2024
User: Marek
Spectrometer: MAYP115816
Trigger mode: 0
Integration Time (sec): 2.000000E-1
Scans to average: 10
Electric dark correction enabled: true
Nonlinearity correction enabled: true
Boxcar width: 5
XAxis mode: Wavelengths
Number of Pixels in Spectrum: 2068
>>>>>Begin Spectral Data<<<<<
199	-1.448
199	-1.314
200	-1.167
200	-1.057
201	-0.988
201	-0.946
202	-0.883
202	-0.834
203	-0.793
203	-0.759
204	-0.734
204	-0.712
205	-0.691
205	-0.683
205	-0.681
206	-0.677
206	-0.674
207	-0.67
207	-0.67
208	-0.669
208	-0.667
209	-0.665
209	-0.662
210	-0.663
210	-0.663
211	-0.664
211	-0.665
212	-0.666
212	-0.666
213	-0.664
213	-0.66
213	-0.661
214	-0.659
214	-0.658
215	-0.653
215	-0.651
216	-0.648
216	-0.648
217	-0.643
217	-0.642
218	-0.638
218	-0.637
219	-0.632
219	-0.631
220	-0.629
220	-0.63
221	-0.628
221	-0.626
221	-0.622
222	-0.617
222	-0.614
223	-0.61
223	-0.607
224	-0.603
224	-0.596
225	-0.589
225	-0.581
226	-0.573
226	-0.561
227	-0.551
227	-0.541
228	-0.525
228	-0.509
229	-0.49
229	-0.469
229	-0.445
230	-0.419
230	-0.39
231	-0.36
231	-0.328
232	-0.294
232	-0.258
233	-0.221
233	-0.182
234	-0.146
234	-0.11
235	-0.076
235	-0.043
236	-0.011
236	0.019
236	0.048
237	0.075
237	0.098
238	0.121
238	0.14
239	0.159
239	0.176
240	0.191
240	0.205
241	0.217
241	0.228
242	0.238
242	0.247
243	0.256
243	0.263
243	0.27
244	0.276
244	0.282
245	0.286
245	0.291
246	0.296
246	0.3
247	0.304
247	0.308
248	0.312
248	0.315
249	0.318
249	0.321
250	0.324
250	0.327
250	0.33
251	0.332
251	0.335
252	0.337
252	0.34
253	0.342
253	0.344
254	0.345
254	0.347
255	0.349
255	0.351
256	0.352
256	0.353
257	0.355
257	0.355
258	0.356
258	0.357
258	0.358
259	0.359
259	0.359
260	0.359
260	0.36
261	0.36
261	0.36
262	0.36
262	0.36
263	0.36
263	0.36
264	0.359
264	0.358
265	0.358
265	0.357
265	0.357
266	0.356
266	0.355
267	0.353
267	0.352
268	0.351
268	0.35
269	0.348
269	0.347
270	0.345
270	0.343
271	0.341
271	0.34
272	0.338
272	0.336
272	0.334
273	0.332
273	0.33
274	0.328
274	0.326
275	0.324
275	0.322
276	0.32
276	0.318
277	0.316
277	0.314
278	0.312
278	0.309
278	0.307
279	0.305
279	0.302
280	0.3
280	0.298
281	0.295
281	0.293
282	0.291
282	0.289
283	0.287
283	0.285
284	0.284
284	0.282
285	0.28
285	0.279
285	0.277
286	0.275
286	0.273
287	0.271
287	0.27
288	0.268
288	0.266
289	0.265
289	0.263
290	0.262
290	0.26
291	0.259
291	0.258
292	0.257
292	0.255
292	0.254
293	0.253
293	0.252
294	0.25
294	0.249
295	0.248
295	0.247
296	0.246
296	0.245
297	0.245
297	0.244
298	0.243
298	0.242
298	0.242
299	0.241
299	0.24
300	0.239
300	0.238
301	0.238
301	0.237
302	0.236
302	0.236
303	0.235
303	0.235
304	0.234
304	0.233
305	0.233
305	0.232
305	0.231
306	0.231
306	0.23
307	0.229
307	0.228
308	0.228
308	0.227
309	0.226
309	0.226
310	0.225
310	0.225
311	0.224
311	0.223
311	0.223
312	0.222
312	0.222
313	0.221
313	0.221
314	0.22
314	0.22
315	0.219
315	0.218
316	0.218
316	0.217
317	0.217
317	0.216
318	0.216
318	0.215
318	0.214
319	0.214
319	0.213
320	0.213
320	0.212
321	0.211
321	0.21
322	0.21
322	0.209
323	0.208
323	0.208
324	0.207
324	0.206
324	0.206
325	0.206
325	0.205
326	0.205
326	0.204
327	0.203
327	0.203
328	0.202
328	0.202
329	0.201
329	0.201
330	0.2
330	0.2
330	0.199
331	0.198
331	0.198
332	0.197
332	0.197
333	0.197
333	0.196
334	0.196
334	0.195
335	0.195
335	0.194
336	0.194
336	0.193
336	0.193
337	0.193
337	0.192
338	0.192
338	0.191
339	0.191
339	0.19
340	0.19
340	0.189
341	0.189
341	0.188
342	0.188
342	0.188
342	0.187
343	0.187
343	0.187
344	0.186
344	0.186
345	0.186
345	0.186
346	0.185
346	0.185
347	0.185
347	0.184
348	0.184
348	0.184
348	0.183
349	0.183
349	0.183
350	0.182
350	0.182
351	0.182
351	0.182
352	0.181
352	0.181
353	0.181
353	0.18
354	0.18
354	0.18
354	0.179
355	0.179
355	0.179
356	0.178
356	0.178
357	0.178
357	0.178
358	0.178
358	0.178
359	0.178
359	0.178
360	0.178
360	0.178
360	0.178
361	0.178
361	0.178
362	0.178
362	0.178
363	0.178
363	0.178
364	0.178
364	0.178
365	0.177
365	0.177
366	0.178
366	0.177
366	0.178
367	0.178
367	0.177
368	0.177
368	0.177
369	0.177
369	0.177
370	0.176
370	0.176
371	0.176
371	0.176
372	0.175
372	0.175
372	0.175
373	0.175
373	0.175
374	0.175
374	0.175
375	0.175
375	0.175
376	0.175
376	0.175
377	0.175
377	0.175
378	0.175
378	0.175
378	0.175
379	0.175
379	0.175
380	0.175
380	0.175
381	0.175
381	0.175
382	0.174
382	0.174
383	0.174
383	0.173
383	0.173
384	0.173
384	0.173
385	0.173
385	0.173
386	0.173
386	0.172
387	0.172
387	0.172
388	0.172
388	0.172
389	0.172
389	0.172
389	0.172
390	0.172
390	0.172
391	0.172
391	0.172
392	0.172
392	0.172
393	0.172
393	0.172
394	0.172
394	0.172
394	0.172
395	0.172
395	0.171
396	0.171
396	0.171
397	0.171
397	0.171
398	0.171
398	0.17
399	0.17
399	0.17
400	0.17
400	0.169
400	0.169
401	0.169
401	0.169
402	0.168
402	0.168
403	0.168
403	0.167
404	0.167
404	0.167
405	0.167
405	0.167
405	0.167
406	0.167
406	0.167
407	0.167
407	0.167
408	0.166
408	0.166
409	0.166
409	0.166
410	0.166
410	0.166
411	0.166
411	0.166
411	0.166
412	0.166
412	0.166
413	0.166
413	0.166
414	0.166
414	0.165
415	0.165
415	0.165
416	0.164
416	0.164
416	0.164
417	0.164
417	0.164
418	0.164
418	0.164
419	0.164
419	0.164
420	0.165
420	0.165
421	0.165
421	0.165
421	0.165
422	0.165
422	0.165
423	0.165
423	0.165
424	0.165
424	0.165
425	0.164
425	0.164
426	0.164
426	0.164
427	0.164
427	0.164
427	0.164
428	0.164
428	0.164
429	0.165
429	0.165
430	0.164
430	0.164
431	0.164
431	0.164
432	0.164
432	0.164
432	0.163
433	0.163
433	0.163
434	0.163
434	0.163
435	0.163
435	0.163
436	0.163
436	0.163
437	0.163
437	0.163
437	0.163
438	0.163
438	0.163
439	0.163
439	0.162
440	0.162
440	0.162
441	0.162
441	0.162
442	0.162
442	0.162
442	0.162
443	0.163
443	0.162
444	0.163
444	0.163
445	0.163
445	0.163
446	0.163
446	0.163
447	0.163
447	0.163
447	0.163
448	0.163
448	0.163
449	0.163
449	0.163
450	0.163
450	0.163
451	0.163
451	0.163
452	0.163
452	0.163
452	0.163
453	0.163
453	0.163
454	0.162
454	0.162
455	0.162
455	0.162
456	0.162
456	0.162
457	0.162
457	0.162
458	0.162
458	0.162
458	0.163
459	0.163
459	0.163
460	0.163
460	0.163
461	0.163
461	0.163
462	0.163
462	0.163
463	0.164
463	0.164
463	0.164
464	0.164
464	0.165
465	0.165
465	0.165
466	0.166
466	0.166
467	0.166
467	0.166
467	0.165
468	0.165
468	0.164
469	0.164
469	0.164
470	0.164
470	0.164
471	0.164
471	0.164
472	0.164
472	0.165
472	0.165
473	0.166
473	0.167
474	0.167
474	0.168
475	0.168
475	0.169
476	0.169
476	0.17
477	0.17
477	0.171
477	0.171
478	0.171
478	0.172
479	0.172
479	0.173
480	0.173
480	0.174
481	0.174
481	0.175
482	0.175
482	0.176
482	0.177
483	0.179
483	0.181
484	0.183
484	0.184
485	0.185
485	0.186
486	0.186
486	0.187
487	0.188
487	0.189
487	0.189
488	0.189
488	0.189
489	0.189
489	0.189
490	0.19
490	0.19
491	0.191
491	0.192
492	0.193
492	0.194
492	0.195
493	0.196
493	0.197
494	0.199
494	0.2
495	0.202
495	0.203
496	0.204
496	0.205
496	0.207
497	0.208
497	0.21
498	0.211
498	0.212
499	0.213
499	0.214
500	0.216
500	0.217
501	0.219
501	0.22
501	0.221
502	0.222
502	0.224
503	0.225
503	0.226
504	0.228
504	0.229
505	0.23
505	0.231
506	0.232
506	0.233
506	0.235
507	0.236
507	0.237
508	0.238
508	0.239
509	0.24
509	0.242
510	0.243
510	0.244
511	0.245
511	0.246
511	0.247
512	0.248
512	0.249
513	0.25
513	0.25
514	0.25
514	0.251
515	0.251
515	0.252
515	0.252
516	0.252
516	0.253
517	0.254
517	0.254
518	0.255
518	0.255
519	0.255
519	0.255
520	0.254
520	0.254
520	0.253
521	0.253
521	0.252
522	0.251
522	0.251
523	0.251
523	0.251
524	0.252
524	0.252
524	0.253
525	0.253
525	0.254
526	0.255
526	0.255
527	0.256
527	0.256
528	0.256
528	0.256
529	0.256
529	0.255
529	0.255
530	0.255
530	0.254
531	0.253
531	0.253
532	0.251
532	0.251
533	0.25
533	0.249
533	0.248
534	0.247
534	0.246
535	0.245
535	0.244
536	0.243
536	0.241
537	0.24
537	0.239
538	0.238
538	0.236
538	0.235
539	0.234
539	0.232
540	0.231
540	0.229
541	0.227
541	0.225
542	0.223
542	0.222
542	0.22
543	0.218
543	0.216
544	0.214
544	0.213
545	0.212
545	0.211
546	0.21
546	0.208
547	0.207
547	0.205
547	0.203
548	0.202
548	0.2
549	0.199
549	0.197
550	0.195
550	0.193
551	0.191
551	0.189
551	0.187
552	0.186
552	0.184
553	0.183
553	0.181
554	0.18
554	0.178
555	0.175
555	0.173
556	0.171
556	0.169
556	0.166
557	0.164
557	0.162
558	0.16
558	0.157
559	0.156
559	0.154
560	0.152
560	0.151
560	0.149
561	0.149
561	0.148
562	0.146
562	0.145
563	0.143
563	0.141
564	0.14
564	0.138
564	0.137
565	0.135
565	0.134
566	0.132
566	0.131
567	0.13
567	0.129
568	0.128
568	0.128
568	0.127
569	0.127
569	0.127
570	0.126
570	0.125
571	0.125
571	0.125
572	0.124
572	0.123
573	0.122
573	0.121
573	0.12
574	0.119
574	0.118
575	0.118
575	0.118
576	0.118
576	0.116
577	0.114
577	0.113
577	0.113
578	0.112
578	0.112
579	0.112
579	0.112
580	0.11
580	0.108
581	0.105
581	0.104
581	0.104
582	0.104
582	0.103
583	0.103
583	0.102
584	0.099
584	0.096
585	0.096
585	0.096
585	0.096
586	0.096
586	0.095
587	0.093
587	0.091
588	0.09
588	0.089
589	0.088
589	0.088
590	0.087
590	0.087
590	0.088
591	0.088
591	0.087
592	0.087
592	0.086
593	0.087
593	0.087
594	0.086
594	0.085
594	0.084
595	0.084
595	0.083
596	0.082
596	0.083
597	0.085
597	0.085
598	0.085
598	0.086
598	0.086
599	0.086
599	0.086
600	0.085
600	0.084
601	0.084
601	0.083
602	0.081
602	0.08
602	0.079
603	0.079
603	0.079
604	0.08
604	0.08
605	0.081
605	0.082
606	0.082
606	0.081
606	0.081
607	0.08
607	0.08
608	0.08
608	0.079
609	0.079
609	0.079
610	0.078
610	0.077
610	0.078
611	0.079
611	0.08
612	0.081
612	0.082
613	0.084
613	0.085
614	0.085
614	0.085
614	0.085
615	0.085
615	0.085
616	0.085
616	0.085
617	0.084
617	0.083
618	0.083
618	0.082
618	0.082
619	0.082
619	0.083
620	0.084
620	0.085
621	0.085
621	0.086
622	0.086
622	0.086
622	0.086
623	0.086
623	0.088
624	0.088
624	0.088
625	0.088
625	0.089
626	0.089
626	0.09
626	0.091
627	0.092
627	0.093
628	0.094
628	0.094
629	0.094
629	0.094
630	0.094
630	0.094
630	0.095
631	0.095
631	0.095
632	0.095
632	0.096
633	0.096
633	0.097
634	0.098
634	0.1
634	0.101
635	0.103
635	0.103
636	0.105
636	0.105
637	0.106
637	0.107
638	0.108
638	0.11
638	0.111
639	0.111
639	0.112
640	0.113
640	0.114
641	0.115
641	0.116
642	0.117
642	0.119
642	0.12
643	0.121
643	0.123
644	0.124
644	0.126
645	0.127
645	0.129
646	0.131
646	0.133
646	0.136
647	0.138
647	0.141
648	0.143
648	0.145
649	0.148
649	0.15
650	0.153
650	0.155
650	0.157
651	0.159
651	0.161
652	0.163
652	0.165
653	0.167
653	0.174
653	0.179
654	0.143
654	0.116
655	0.118
655	0.12
656	0.121
656	0.123
657	0.125
657	0.127
657	0.128
658	0.126
658	0.12
659	0.152
659	0.196
660	0.203
660	0.205
661	0.207
661	0.209
661	0.212
662	0.214
662	0.217
663	0.22
663	0.222
664	0.224
664	0.226
665	0.228
665	0.23
665	0.232
666	0.234
666	0.236
667	0.238
667	0.24
668	0.242
668	0.244
669	0.246
669	0.249
669	0.252
670	0.254
670	0.256
671	0.258
671	0.259
672	0.261
672	0.262
672	0.264
673	0.265
673	0.267
674	0.269
674	0.27
675	0.272
675	0.274
676	0.277
676	0.279
676	0.281
677	0.283
677	0.284
678	0.285
678	0.286
679	0.287
679	0.288
680	0.289
680	0.29
680	0.29
681	0.291
681	0.292
682	0.293
682	0.294
683	0.295
683	0.297
684	0.298
684	0.298
684	0.299
685	0.299
685	0.3
686	0.3
686	0.299
687	0.299
687	0.298
687	0.298
688	0.297
688	0.297
689	0.298
689	0.298
690	0.299
690	0.299
691	0.299
691	0.299
691	0.299
692	0.299
692	0.299
693	0.298
693	0.298
694	0.297
694	0.296
695	0.296
695	0.296
695	0.295
696	0.294
696	0.293
697	0.292
697	0.291
698	0.289
698	0.287
698	0.286
699	0.284
699	0.282
700	0.279
700	0.277
701	0.276
701	0.274
702	0.272
702	0.27
702	0.269
703	0.267
703	0.265
704	0.263
704	0.262
705	0.26
705	0.259
705	0.257
706	0.255
706	0.254
707	0.253
707	0.251
708	0.25
708	0.248
709	0.247
709	0.245
709	0.243
710	0.241
710	0.239
711	0.238
711	0.236
712	0.234
712	0.232
713	0.23
713	0.228
713	0.226
714	0.224
714	0.221
715	0.219
715	0.216
716	0.214
716	0.211
716	0.209
717	0.206
717	0.204
718	0.201
718	0.199
719	0.197
719	0.195
720	0.193
720	0.191
720	0.189
721	0.186
721	0.184
722	0.183
722	0.18
723	0.179
723	0.177
723	0.176
724	0.174
724	0.173
725	0.171
725	0.17
726	0.169
726	0.168
727	0.166
727	0.165
727	0.163
728	0.161
728	0.16
729	0.158
729	0.157
730	0.155
730	0.152
730	0.15
731	0.149
731	0.147
732	0.146
732	0.144
733	0.142
733	0.141
734	0.14
734	0.138
734	0.138
735	0.137
735	0.136
736	0.135
736	0.134
737	0.132
737	0.131
737	0.13
738	0.127
738	0.125
739	0.123
739	0.121
740	0.118
740	0.117
741	0.116
741	0.114
741	0.112
742	0.11
742	0.108
743	0.107
743	0.106
744	0.105
744	0.104
744	0.103
745	0.101
745	0.099
746	0.097
746	0.096
747	0.095
747	0.094
748	0.093
748	0.092
748	0.091
749	0.09
749	0.089
750	0.088
750	0.088
751	0.088
751	0.087
751	0.087
752	0.086
752	0.086
753	0.085
753	0.085
754	0.084
754	0.084
754	0.084
755	0.084
755	0.084
756	0.083
756	0.081
757	0.081
757	0.08
758	0.08
758	0.079
758	0.078
759	0.078
759	0.076
760	0.074
760	0.072
761	0.071
761	0.07
761	0.069
762	0.067
762	0.066
763	0.065
763	0.062
764	0.06
764	0.058
764	0.057
765	0.055
765	0.053
766	0.052
766	0.051
767	0.05
767	0.048
768	0.046
768	0.044
768	0.043
769	0.042
769	0.041
770	0.04
770	0.038
771	0.036
771	0.034
771	0.032
772	0.03
772	0.029
773	0.027
773	0.025
774	0.023
774	0.021
775	0.019
775	0.018
775	0.016
776	0.014
776	0.013
777	0.012
777	0.01
778	0.009
778	0.007
778	0.005
779	0.003
779	0.002
780	-0.001
780	-0.003
781	-0.005
781	-0.009
781	-0.012
782	-0.016
782	-0.02
783	-0.024
783	-0.028
784	-0.033
784	-0.038
784	-0.042
785	-0.047
785	-0.052
786	-0.057
786	-0.061
787	-0.064
787	-0.068
788	-0.073
788	-0.079
788	-0.086
789	-0.093
789	-0.098
790	-0.101
790	-0.105
791	-0.11
791	-0.114
791	-0.117
792	-0.112
792	-0.103
793	-0.099
793	-0.095
794	-0.094
794	-0.096
794	-0.1
795	-0.103
795	-0.103
796	-0.103
796	-0.106
797	-0.115
797	-0.126
797	-0.133
798	-0.138
798	-0.141
799	-0.142
799	-0.141
800	-0.141
800	-0.142
801	-0.145
801	-0.146
801	-0.145
802	-0.146
802	-0.147
803	-0.148
803	-0.148
804	-0.147
804	-0.142
804	-0.135
805	-0.132
805	-0.13
806	-0.128
806	-0.127
807	-0.127
807	-0.127
807	-0.127
808	-0.127
808	-0.129
809	-0.133
809	-0.139
810	-0.143
810	-0.146
810	-0.149
811	-0.152
811	-0.153
812	-0.149
812	-0.145
813	-0.145
813	-0.146
813	-0.147
814	-0.149
814	-0.149
815	-0.146
815	-0.142
816	-0.138
816	-0.134
817	-0.133
817	-0.13
817	-0.123
818	-0.113
818	-0.102
819	-0.091
819	-0.08
820	-0.071
820	-0.063
820	-0.055
821	-0.048
821	-0.041
822	-0.035
822	-0.029
823	-0.024
823	-0.021
823	-0.017
824	-0.014
824	-0.01
825	-0.006
825	-0.002
826	0.002
826	0.004
826	0.007
827	0.009
827	0.011
828	0.013
828	0.014
829	0.015
829	0.016
829	0.017
830	0.017
830	0.017
831	0.018
831	0.019
832	0.019
832	0.019
832	0.02
833	0.02
833	0.02
834	0.021
834	0.021
835	0.022
835	0.022
835	0.022
836	0.022
836	0.023
837	0.023
837	0.024
838	0.024
838	0.025
839	0.026
839	0.026
839	0.026
840	0.026
840	0.026
841	0.027
841	0.027
842	0.027
842	0.027
842	0.027
843	0.027
843	0.027
844	0.027
844	0.027
845	0.027
845	0.027
845	0.027
846	0.027
846	0.027
847	0.027
847	0.027
848	0.027
848	0.027
848	0.027
849	0.028
849	0.028
850	0.028
850	0.028
851	0.029
851	0.029
851	0.029
852	0.029
852	0.029
853	0.028
853	0.028
854	0.028
854	0.027
854	0.027
855	0.027
855	0.027
856	0.026
856	0.026
857	0.026
857	0.026
857	0.026
858	0.026
858	0.026
859	0.026
859	0.027
860	0.027
860	0.028
860	0.028
861	0.029
861	0.03
862	0.03
862	0.03
863	0.03
863	0.031
863	0.031
864	0.031
864	0.032
865	0.032
865	0.032
866	0.033
866	0.033
866	0.034
867	0.035
867	0.035
868	0.036
868	0.036
869	0.036
869	0.036
869	0.035
870	0.035
870	0.035
871	0.034
871	0.034
872	0.034
872	0.033
872	0.033
873	0.033
873	0.033
874	0.033
874	0.033
875	0.033
875	0.032
875	0.032
876	0.031
876	0.03
877	0.029
877	0.028
878	0.027
878	0.026
878	0.025
879	0.024
879	0.024
880	0.023
880	0.023
881	0.023
881	0.023
881	0.023
882	0.024
882	0.024
883	0.024
883	0.024
884	0.024
884	0.023
884	0.023
885	0.023
885	0.023
886	0.023
886	0.023
887	0.023
887	0.023
887	0.023
888	0.023
888	0.024
889	0.025
889	0.026
890	0.026
890	0.027
890	0.027
891	0.027
891	0.028
892	0.028
892	0.029
893	0.029
893	0.03
893	0.03
894	0.03
894	0.03
895	0.03
895	0.029
895	0.029
896	0.028
896	0.028
897	0.027
897	0.027
898	0.026
898	0.026
898	0.025
899	0.025
899	0.025
900	0.025
900	0.026
901	0.026
901	0.026
901	0.027
902	0.027
902	0.028
903	0.028
903	0.029
904	0.029
904	0.03
904	0.03
905	0.031
905	0.031
906	0.031
906	0.031
907	0.031
907	0.031
907	0.031
908	0.031
908	0.031
909	0.032
909	0.032
910	0.032
910	0.033
910	0.033
911	0.033
911	0.033
912	0.033
912	0.033
913	0.033
913	0.032
913	0.032
914	0.031
914	0.031
915	0.03
915	0.029
916	0.029
916	0.028
916	0.026
917	0.025
917	0.024
918	0.023
918	0.021
918	0.02
919	0.019
919	0.018
920	0.017
920	0.016
921	0.016
921	0.016
921	0.015
922	0.016
922	0.016
923	0.016
923	0.017
924	0.017
924	0.018
924	0.019
925	0.019
925	0.02
926	0.021
926	0.022
927	0.022
927	0.022
927	0.022
928	0.022
928	0.022
929	0.022
929	0.021
930	0.021
930	0.02
930	0.019
931	0.018
931	0.018
932	0.017
932	0.017
933	0.016
933	0.016
933	0.015
934	0.015
934	0.014
935	0.013
935	0.013
935	0.012
936	0.012
936	0.011
937	0.011
937	0.01
938	0.01
938	0.01
938	0.011
939	0.011
939	0.012
940	0.013
940	0.013
941	0.014
941	0.015
941	0.017
942	0.018
942	0.019
943	0.02
943	0.02
944	0.021
944	0.021
944	0.022
945	0.022
945	0.022
946	0.023
946	0.023
946	0.023
947	0.023
947	0.024
948	0.024
948	0.024
949	0.025
949	0.025
949	0.026
950	0.026
950	0.026
951	0.027
951	0.027
952	0.026
952	0.026
952	0.026
953	0.025
953	0.025
954	0.024
954	0.024
955	0.023
955	0.023
955	0.023
956	0.023
956	0.023
957	0.023
957	0.023
957	0.023
958	0.023
958	0.023
959	0.023
959	0.023
960	0.023
960	0.023
960	0.023
961	0.023
961	0.023
962	0.024
962	0.024
963	0.025
963	0.025
963	0.025
964	0.026
964	0.026
965	0.026
965	0.026
966	0.026
966	0.026
966	0.026
967	0.025
967	0.025
968	0.024
968	0.023
968	0.022
969	0.022
969	0.021
970	0.021
970	0.02
971	0.02
971	0.019
971	0.019
972	0.019
972	0.019
973	0.019
973	0.019
974	0.019
974	0.019
974	0.02
975	0.02
975	0.021
976	0.022
976	0.023
976	0.023
977	0.024
977	0.025
978	0.025
978	0.025
979	0.026
979	0.026
979	0.026
980	0.025
980	0.025
981	0.024
981	0.023
982	0.022
982	0.021
982	0.02
983	0.019
983	0.018
984	0.018
984	0.017
984	0.016
985	0.015
985	0.015
986	0.014
986	0.013
987	0.013
987	0.012
987	0.012
988	0.012
988	0.012
989	0.012
989	0.012
990	0.012
990	0.012
990	0.013
991	0.013
991	0.014
992	0.015
992	0.015
992	0.015
993	0.016
993	0.016
994	0.016
994	0.016
995	0.016
995	0.016
995	0.016
996	0.016
996	0.015
997	0.015
997	0.015
997	0.015
998	0.015
998	0.015
999	0.016
999	0.017
1000	0.018
1000	0.018
1000	0.02
1001	0.021
1001	0.021
1002	0.022
1002	0.023
1003	0.024
1003	0.024
1003	0.024
1004	0.024
1004	0.024
1005	0.024
1005	0.023
1005	0.022
1006	0.022
1006	0.021
1007	0.021
1007	0.02
1008	0.02
1008	0.019
1008	0.019
1009	0.019
1009	0.019
1010	0.019
1010	0.019
1010	0.019
1011	0.019
1011	0.019
1012	0.018
1012	0.018
1013	0.018
1013	0.017
1013	0.016
1014	0.015
1014	0.014
1015	0.013
1015	0.013
1016	0.011
1016	0.01
1016	0.009
1017	0.008
1017	0.007
1018	0.006
1018	0.005
1018	0.005
1019	0.004
1019	0.004
1020	0.003
1020	0.003
1021	0.003
1021	0.003
1021	0.004
1022	0.004
1022	0.005
1023	0.005
1023	0.006
1023	0.006
1024	0.006
1024	0.006
1025	0.006
1025	0.006
1026	0.006
1026	0.006
1026	0.006
1027	0.006
1027	0.006
1028	0.006
1028	0.006
1028	0.006
1029	0.005
1029	0.005
1030	0.005
1030	0.005
1031	0.004
1031	0.004
1031	0.004
1032	0.004
1032	0.004
1033	0.004
1033	0.004
1033	0.004
1034	0.003
1034	0.003
1035	0.003
1035	0.003
1036	0.002
1036	0.003
1036	0.003
1037	0.003
1037	0.003
1038	0.003
1038	0.003
1039	0.004
1039	0.005
1039	0.005
1040	0.006
1040	0.007
1041	0.008
1041	0.009
1041	0.009
1042	0.01
1042	0.011
1043	0.011
1043	0.012
1044	0.012
1044	0.013
1044	0.013
1045	0.013
1045	0.013
1046	0.013
1046	0.013
1046	0.013
1047	0.013
1047	0.013
1048	0.012
1048	0.012
1049	0.011
1049	0.01
1049	0.01
1050	0.009
1050	0.008
1051	0.007
1051	0.006
1051	0.006
1052	0.005
1052	0.004
1053	0.003
1053	0.002
1053	0.002
1054	0.001
1054	0
1055	-0
1055	-0.001
1056	-0.002
1056	-0.003
1056	-0.004
1057	-0.005
1057	-0.005
1058	-0.006
1058	-0.006
1058	-0.006
1059	-0.006
1059	-0.006
1060	-0.006
1060	-0.006
1061	-0.006
1061	-0.006
1061	-0.006
1062	-0.006
1062	-0.006
1063	-0.006
1063	-0.006
1063	-0.006
1064	-0.006
1064	-0.005
1065	-0.005
1065	-0.005
1066	-0.004
1066	-0.003
1066	-0.003
1067	-0.003
1067	-0.002
1068	-0.002
1068	-0.002
1068	-0.003
1069	-0.003
1069	-0.004
1070	-0.004
1070	-0.005
1071	-0.006
1071	-0.006
1071	-0.008
1072	-0.008
1072	-0.009
1073	-0.011
1073	-0.011
1073	-0.012
1074	-0.013
1074	-0.013
1075	-0.014
1075	-0.015
1076	-0.016
1076	-0.017
1076	-0.017
1077	-0.018
1077	-0.017
1078	-0.018
1078	-0.018
1078	-0.017
1079	-0.017
1079	-0.017
1080	-0.017
1080	-0.016
1080	-0.016
1081	-0.015
1081	-0.015
1082	-0.014
1082	-0.014
1083	-0.014
1083	-0.014
1083	-0.013
1084	-0.013
1084	-0.013
1085	-0.012
1085	-0.012
1085	-0.011
1086	-0.011
1086	-0.012
1087	-0.011
1087	-0.01
1088	-0.011
1088	-0.011
1088	-0.011
1089	-0.012
1089	-0.012
1090	-0.012
1090	-0.013
1090	-0.013
1091	-0.013
1091	-0.013
1092	-0.014
1092	-0.013
1092	-0.013
1093	-0.012
1093	-0.011
1094	-0.01
1094	-0.011
1095	-0.011
1095	-0.011
1095	-0.01
1096	-0.009
1096	-0.009
1097	-0.008
1097	-0.007
1097	-0.007
1098	-0.006
1098	-0.004
1099	-0.002
1099	-0
1100	0.001
1100	0.003
1100	0.003
1101	0.005
1101	0.006
1102	0.008
1102	0.009
1102	0.011
1103	0.013
1103	0.015
1104	0.019
1104	0.022
1104	0.027
1105	0.032
1105	0.035
1106	0.037
1106	0.043
1107	0.046
1107	0.053
1107	0.06
1108	0.088
1108	0.125
1109	0.175
1109	0.251
1109	0.306
1110	0.41
1110	0.639
1111	-0
1111	-0
