Data from 17c-2a_Absorbance__656__00657.txt Node

Date: Fri Jan 26 10:09:23 CET 2024
User: Marek
Spectrometer: MAYP115816
Trigger mode: 0
Integration Time (sec): 2.000000E-1
Scans to average: 10
Electric dark correction enabled: true
Nonlinearity correction enabled: true
Boxcar width: 5
XAxis mode: Wavelengths
Number of Pixels in Spectrum: 2068
>>>>>Begin Spectral Data<<<<<
199	-1.252
199	-1.124
200	-0.984
200	-0.88
201	-0.815
201	-0.776
202	-0.718
202	-0.674
203	-0.637
203	-0.607
204	-0.584
204	-0.564
205	-0.544
205	-0.535
205	-0.534
206	-0.53
206	-0.528
207	-0.525
207	-0.524
208	-0.525
208	-0.523
209	-0.521
209	-0.519
210	-0.52
210	-0.52
211	-0.521
211	-0.522
212	-0.523
212	-0.522
213	-0.521
213	-0.518
213	-0.519
214	-0.517
214	-0.515
215	-0.511
215	-0.51
216	-0.507
216	-0.507
217	-0.503
217	-0.503
218	-0.5
218	-0.499
219	-0.494
219	-0.493
220	-0.493
220	-0.494
221	-0.492
221	-0.491
221	-0.488
222	-0.483
222	-0.48
223	-0.477
223	-0.475
224	-0.471
224	-0.465
225	-0.458
225	-0.451
226	-0.443
226	-0.433
227	-0.424
227	-0.416
228	-0.401
228	-0.387
229	-0.37
229	-0.352
229	-0.332
230	-0.309
230	-0.285
231	-0.261
231	-0.235
232	-0.207
232	-0.179
233	-0.15
233	-0.121
234	-0.094
234	-0.068
235	-0.043
235	-0.02
236	0.002
236	0.022
236	0.041
237	0.058
237	0.073
238	0.086
238	0.098
239	0.109
239	0.119
240	0.128
240	0.137
241	0.144
241	0.15
242	0.156
242	0.162
243	0.167
243	0.171
243	0.176
244	0.18
244	0.183
245	0.186
245	0.19
246	0.193
246	0.196
247	0.198
247	0.201
248	0.203
248	0.206
249	0.208
249	0.211
250	0.213
250	0.215
250	0.217
251	0.219
251	0.221
252	0.223
252	0.225
253	0.227
253	0.229
254	0.23
254	0.232
255	0.233
255	0.235
256	0.236
256	0.237
257	0.238
257	0.239
258	0.24
258	0.24
258	0.241
259	0.242
259	0.242
260	0.242
260	0.242
261	0.242
261	0.243
262	0.243
262	0.242
263	0.242
263	0.242
264	0.242
264	0.241
265	0.241
265	0.24
265	0.24
266	0.239
266	0.237
267	0.236
267	0.235
268	0.234
268	0.233
269	0.232
269	0.23
270	0.229
270	0.227
271	0.226
271	0.224
272	0.222
272	0.221
272	0.219
273	0.217
273	0.215
274	0.214
274	0.212
275	0.21
275	0.208
276	0.207
276	0.205
277	0.203
277	0.201
278	0.199
278	0.197
278	0.195
279	0.193
279	0.191
280	0.189
280	0.187
281	0.186
281	0.184
282	0.182
282	0.18
283	0.178
283	0.177
284	0.175
284	0.174
285	0.172
285	0.17
285	0.169
286	0.167
286	0.166
287	0.164
287	0.163
288	0.162
288	0.16
289	0.159
289	0.157
290	0.156
290	0.155
291	0.154
291	0.153
292	0.152
292	0.151
292	0.15
293	0.149
293	0.148
294	0.147
294	0.147
295	0.146
295	0.145
296	0.144
296	0.144
297	0.143
297	0.143
298	0.142
298	0.142
298	0.141
299	0.141
299	0.14
300	0.14
300	0.139
301	0.139
301	0.138
302	0.138
302	0.138
303	0.137
303	0.137
304	0.136
304	0.136
305	0.136
305	0.135
305	0.135
306	0.135
306	0.134
307	0.134
307	0.133
308	0.133
308	0.133
309	0.132
309	0.132
310	0.131
310	0.131
311	0.131
311	0.13
311	0.13
312	0.13
312	0.13
313	0.129
313	0.129
314	0.129
314	0.128
315	0.128
315	0.128
316	0.127
316	0.127
317	0.127
317	0.126
318	0.126
318	0.126
318	0.125
319	0.125
319	0.124
320	0.124
320	0.124
321	0.123
321	0.123
322	0.123
322	0.122
323	0.122
323	0.122
324	0.121
324	0.121
324	0.121
325	0.12
325	0.12
326	0.12
326	0.119
327	0.119
327	0.119
328	0.118
328	0.118
329	0.118
329	0.117
330	0.117
330	0.116
330	0.116
331	0.116
331	0.115
332	0.115
332	0.115
333	0.115
333	0.114
334	0.114
334	0.114
335	0.113
335	0.113
336	0.113
336	0.113
336	0.113
337	0.112
337	0.112
338	0.112
338	0.111
339	0.111
339	0.111
340	0.111
340	0.11
341	0.11
341	0.109
342	0.109
342	0.109
342	0.109
343	0.109
343	0.109
344	0.108
344	0.108
345	0.108
345	0.108
346	0.108
346	0.108
347	0.108
347	0.107
348	0.107
348	0.107
348	0.106
349	0.106
349	0.106
350	0.106
350	0.106
351	0.106
351	0.105
352	0.105
352	0.105
353	0.105
353	0.105
354	0.105
354	0.105
354	0.105
355	0.105
355	0.104
356	0.104
356	0.104
357	0.103
357	0.103
358	0.103
358	0.103
359	0.103
359	0.103
360	0.103
360	0.103
360	0.103
361	0.103
361	0.104
362	0.104
362	0.104
363	0.104
363	0.104
364	0.104
364	0.104
365	0.104
365	0.104
366	0.104
366	0.104
366	0.104
367	0.104
367	0.104
368	0.104
368	0.104
369	0.104
369	0.104
370	0.103
370	0.103
371	0.103
371	0.103
372	0.102
372	0.102
372	0.102
373	0.102
373	0.102
374	0.102
374	0.102
375	0.102
375	0.102
376	0.102
376	0.103
377	0.103
377	0.103
378	0.103
378	0.103
378	0.103
379	0.103
379	0.103
380	0.103
380	0.103
381	0.103
381	0.103
382	0.103
382	0.103
383	0.103
383	0.103
383	0.103
384	0.102
384	0.102
385	0.102
385	0.102
386	0.102
386	0.102
387	0.102
387	0.102
388	0.102
388	0.102
389	0.102
389	0.102
389	0.102
390	0.102
390	0.102
391	0.102
391	0.102
392	0.102
392	0.102
393	0.103
393	0.103
394	0.103
394	0.103
394	0.103
395	0.102
395	0.102
396	0.102
396	0.102
397	0.102
397	0.102
398	0.102
398	0.102
399	0.102
399	0.101
400	0.101
400	0.101
400	0.101
401	0.101
401	0.101
402	0.101
402	0.1
403	0.1
403	0.1
404	0.1
404	0.1
405	0.1
405	0.1
405	0.1
406	0.1
406	0.1
407	0.1
407	0.1
408	0.1
408	0.1
409	0.1
409	0.1
410	0.1
410	0.1
411	0.1
411	0.1
411	0.1
412	0.1
412	0.1
413	0.1
413	0.1
414	0.1
414	0.1
415	0.1
415	0.1
416	0.1
416	0.099
416	0.099
417	0.099
417	0.099
418	0.099
418	0.1
419	0.099
419	0.1
420	0.1
420	0.1
421	0.1
421	0.1
421	0.101
422	0.101
422	0.101
423	0.101
423	0.101
424	0.101
424	0.101
425	0.101
425	0.101
426	0.101
426	0.101
427	0.101
427	0.1
427	0.101
428	0.101
428	0.101
429	0.101
429	0.101
430	0.101
430	0.101
431	0.1
431	0.1
432	0.1
432	0.1
432	0.1
433	0.1
433	0.1
434	0.1
434	0.1
435	0.1
435	0.1
436	0.1
436	0.101
437	0.101
437	0.101
437	0.1
438	0.1
438	0.1
439	0.1
439	0.1
440	0.1
440	0.099
441	0.099
441	0.099
442	0.099
442	0.099
442	0.099
443	0.1
443	0.1
444	0.1
444	0.1
445	0.1
445	0.1
446	0.1
446	0.1
447	0.101
447	0.101
447	0.101
448	0.1
448	0.101
449	0.101
449	0.101
450	0.101
450	0.101
451	0.101
451	0.101
452	0.101
452	0.101
452	0.101
453	0.101
453	0.101
454	0.1
454	0.1
455	0.1
455	0.1
456	0.1
456	0.1
457	0.1
457	0.1
458	0.1
458	0.1
458	0.101
459	0.101
459	0.101
460	0.101
460	0.1
461	0.101
461	0.101
462	0.101
462	0.101
463	0.102
463	0.102
463	0.102
464	0.102
464	0.102
465	0.103
465	0.103
466	0.103
466	0.103
467	0.103
467	0.103
467	0.103
468	0.102
468	0.102
469	0.102
469	0.102
470	0.102
470	0.102
471	0.102
471	0.102
472	0.102
472	0.103
472	0.103
473	0.104
473	0.104
474	0.104
474	0.105
475	0.105
475	0.105
476	0.106
476	0.106
477	0.106
477	0.106
477	0.107
478	0.107
478	0.107
479	0.107
479	0.108
480	0.108
480	0.108
481	0.109
481	0.109
482	0.11
482	0.11
482	0.111
483	0.112
483	0.113
484	0.114
484	0.115
485	0.116
485	0.116
486	0.117
486	0.117
487	0.118
487	0.118
487	0.118
488	0.118
488	0.118
489	0.118
489	0.118
490	0.119
490	0.119
491	0.12
491	0.12
492	0.121
492	0.122
492	0.122
493	0.123
493	0.124
494	0.125
494	0.126
495	0.127
495	0.127
496	0.128
496	0.129
496	0.13
497	0.13
497	0.131
498	0.132
498	0.133
499	0.133
499	0.134
500	0.135
500	0.136
501	0.137
501	0.137
501	0.138
502	0.139
502	0.14
503	0.141
503	0.141
504	0.142
504	0.143
505	0.144
505	0.145
506	0.146
506	0.146
506	0.147
507	0.148
507	0.148
508	0.149
508	0.15
509	0.15
509	0.151
510	0.152
510	0.153
511	0.153
511	0.154
511	0.155
512	0.156
512	0.156
513	0.156
513	0.157
514	0.157
514	0.157
515	0.157
515	0.157
515	0.157
516	0.158
516	0.158
517	0.159
517	0.159
518	0.16
518	0.16
519	0.16
519	0.16
520	0.16
520	0.16
520	0.16
521	0.16
521	0.159
522	0.158
522	0.158
523	0.158
523	0.158
524	0.158
524	0.158
524	0.158
525	0.158
525	0.158
526	0.158
526	0.159
527	0.159
527	0.159
528	0.16
528	0.16
529	0.16
529	0.159
529	0.159
530	0.159
530	0.158
531	0.158
531	0.158
532	0.157
532	0.156
533	0.156
533	0.155
533	0.154
534	0.153
534	0.153
535	0.152
535	0.151
536	0.15
536	0.15
537	0.149
537	0.148
538	0.147
538	0.146
538	0.145
539	0.145
539	0.144
540	0.143
540	0.142
541	0.141
541	0.14
542	0.139
542	0.138
542	0.137
543	0.136
543	0.135
544	0.134
544	0.133
545	0.132
545	0.132
546	0.131
546	0.13
547	0.129
547	0.128
547	0.127
548	0.126
548	0.125
549	0.125
549	0.124
550	0.123
550	0.122
551	0.12
551	0.119
551	0.118
552	0.117
552	0.117
553	0.116
553	0.115
554	0.114
554	0.112
555	0.111
555	0.109
556	0.108
556	0.106
556	0.105
557	0.103
557	0.102
558	0.1
558	0.099
559	0.098
559	0.097
560	0.096
560	0.095
560	0.095
561	0.094
561	0.094
562	0.093
562	0.092
563	0.092
563	0.09
564	0.09
564	0.089
564	0.088
565	0.087
565	0.086
566	0.085
566	0.084
567	0.083
567	0.083
568	0.083
568	0.083
568	0.083
569	0.083
569	0.083
570	0.082
570	0.082
571	0.082
571	0.081
572	0.081
572	0.08
573	0.079
573	0.079
573	0.077
574	0.077
574	0.076
575	0.076
575	0.076
576	0.076
576	0.075
577	0.074
577	0.074
577	0.073
578	0.073
578	0.073
579	0.074
579	0.074
580	0.073
580	0.071
581	0.069
581	0.069
581	0.069
582	0.069
582	0.069
583	0.069
583	0.068
584	0.066
584	0.064
585	0.065
585	0.065
585	0.065
586	0.065
586	0.064
587	0.063
587	0.061
588	0.06
588	0.06
589	0.059
589	0.059
590	0.059
590	0.059
590	0.06
591	0.06
591	0.06
592	0.059
592	0.059
593	0.059
593	0.059
594	0.058
594	0.057
594	0.057
595	0.057
595	0.056
596	0.056
596	0.057
597	0.058
597	0.059
598	0.059
598	0.06
598	0.06
599	0.06
599	0.06
600	0.059
600	0.059
601	0.059
601	0.058
602	0.057
602	0.056
602	0.055
603	0.055
603	0.056
604	0.056
604	0.057
605	0.057
605	0.058
606	0.058
606	0.057
606	0.057
607	0.056
607	0.056
608	0.056
608	0.055
609	0.054
609	0.054
610	0.054
610	0.053
610	0.054
611	0.055
611	0.056
612	0.057
612	0.059
613	0.06
613	0.061
614	0.062
614	0.062
614	0.062
615	0.063
615	0.062
616	0.063
616	0.062
617	0.062
617	0.061
618	0.061
618	0.061
618	0.061
619	0.061
619	0.062
620	0.062
620	0.063
621	0.063
621	0.063
622	0.063
622	0.063
622	0.063
623	0.063
623	0.064
624	0.064
624	0.064
625	0.064
625	0.065
626	0.065
626	0.065
626	0.066
627	0.067
627	0.067
628	0.068
628	0.068
629	0.068
629	0.068
630	0.068
630	0.068
630	0.068
631	0.069
631	0.069
632	0.069
632	0.069
633	0.069
633	0.07
634	0.071
634	0.072
634	0.073
635	0.074
635	0.075
636	0.075
636	0.076
637	0.077
637	0.078
638	0.079
638	0.08
638	0.08
639	0.081
639	0.081
640	0.082
640	0.083
641	0.084
641	0.085
642	0.086
642	0.087
642	0.088
643	0.089
643	0.089
644	0.09
644	0.092
645	0.092
645	0.094
646	0.095
646	0.097
646	0.099
647	0.1
647	0.102
648	0.103
648	0.105
649	0.107
649	0.108
650	0.11
650	0.112
650	0.114
651	0.115
651	0.116
652	0.117
652	0.119
653	0.12
653	0.125
653	0.125
654	0.101
654	0.083
655	0.084
655	0.085
656	0.086
656	0.088
657	0.089
657	0.09
657	0.091
658	0.089
658	0.088
659	0.11
659	0.141
660	0.146
660	0.148
661	0.149
661	0.151
661	0.153
662	0.155
662	0.156
663	0.158
663	0.159
664	0.161
664	0.162
665	0.163
665	0.164
665	0.166
666	0.167
666	0.167
667	0.168
667	0.17
668	0.171
668	0.173
669	0.174
669	0.176
669	0.178
670	0.18
670	0.181
671	0.182
671	0.183
672	0.185
672	0.186
672	0.187
673	0.188
673	0.19
674	0.191
674	0.192
675	0.193
675	0.195
676	0.197
676	0.199
676	0.2
677	0.201
677	0.203
678	0.203
678	0.203
679	0.204
679	0.204
680	0.205
680	0.206
680	0.206
681	0.207
681	0.207
682	0.208
682	0.209
683	0.21
683	0.211
684	0.212
684	0.211
684	0.211
685	0.211
685	0.211
686	0.211
686	0.21
687	0.21
687	0.21
687	0.209
688	0.209
688	0.209
689	0.21
689	0.211
690	0.211
690	0.211
691	0.211
691	0.211
691	0.211
692	0.211
692	0.21
693	0.21
693	0.21
694	0.209
694	0.208
695	0.209
695	0.209
695	0.209
696	0.208
696	0.207
697	0.207
697	0.206
698	0.205
698	0.204
698	0.203
699	0.202
699	0.201
700	0.199
700	0.198
701	0.197
701	0.196
702	0.194
702	0.193
702	0.192
703	0.19
703	0.189
704	0.187
704	0.186
705	0.185
705	0.184
705	0.182
706	0.181
706	0.181
707	0.18
707	0.179
708	0.178
708	0.177
709	0.176
709	0.175
709	0.173
710	0.172
710	0.171
711	0.171
711	0.169
712	0.168
712	0.167
713	0.166
713	0.165
713	0.163
714	0.161
714	0.159
715	0.158
715	0.156
716	0.153
716	0.152
716	0.15
717	0.148
717	0.146
718	0.143
718	0.141
719	0.14
719	0.139
720	0.137
720	0.135
720	0.134
721	0.132
721	0.13
722	0.129
722	0.128
723	0.127
723	0.126
723	0.125
724	0.124
724	0.123
725	0.122
725	0.121
726	0.121
726	0.12
727	0.12
727	0.119
727	0.118
728	0.117
728	0.116
729	0.115
729	0.114
730	0.113
730	0.111
730	0.11
731	0.108
731	0.107
732	0.106
732	0.105
733	0.104
733	0.103
734	0.102
734	0.101
734	0.101
735	0.101
735	0.1
736	0.099
736	0.098
737	0.097
737	0.096
737	0.094
738	0.093
738	0.091
739	0.089
739	0.088
740	0.086
740	0.085
741	0.084
741	0.083
741	0.082
742	0.081
742	0.08
743	0.08
743	0.08
744	0.079
744	0.078
744	0.077
745	0.076
745	0.075
746	0.073
746	0.072
747	0.071
747	0.07
748	0.069
748	0.068
748	0.068
749	0.067
749	0.066
750	0.066
750	0.066
751	0.066
751	0.066
751	0.066
752	0.065
752	0.065
753	0.064
753	0.064
754	0.064
754	0.063
754	0.063
755	0.063
755	0.063
756	0.062
756	0.061
757	0.061
757	0.061
758	0.06
758	0.06
758	0.06
759	0.06
759	0.059
760	0.057
760	0.056
761	0.055
761	0.055
761	0.055
762	0.054
762	0.053
763	0.053
763	0.051
764	0.05
764	0.048
764	0.047
765	0.046
765	0.045
766	0.044
766	0.043
767	0.042
767	0.04
768	0.038
768	0.036
768	0.035
769	0.034
769	0.033
770	0.032
770	0.03
771	0.029
771	0.027
771	0.025
772	0.024
772	0.023
773	0.022
773	0.02
774	0.019
774	0.018
775	0.017
775	0.016
775	0.016
776	0.015
776	0.015
777	0.015
777	0.014
778	0.013
778	0.012
778	0.011
779	0.01
779	0.01
780	0.008
780	0.006
781	0.004
781	0.001
781	-0.002
782	-0.006
782	-0.009
783	-0.012
783	-0.015
784	-0.019
784	-0.023
784	-0.027
785	-0.031
785	-0.035
786	-0.038
786	-0.041
787	-0.043
787	-0.046
788	-0.049
788	-0.054
788	-0.059
789	-0.064
789	-0.07
790	-0.075
790	-0.081
791	-0.088
791	-0.095
791	-0.1
792	-0.098
792	-0.092
793	-0.091
793	-0.091
794	-0.092
794	-0.096
794	-0.101
795	-0.103
795	-0.104
796	-0.104
796	-0.107
797	-0.115
797	-0.127
797	-0.133
798	-0.139
798	-0.142
799	-0.142
799	-0.142
800	-0.141
800	-0.143
801	-0.146
801	-0.146
801	-0.146
802	-0.147
802	-0.148
803	-0.149
803	-0.149
804	-0.148
804	-0.143
804	-0.136
805	-0.132
805	-0.13
806	-0.129
806	-0.128
807	-0.128
807	-0.127
807	-0.128
808	-0.128
808	-0.129
809	-0.134
809	-0.14
810	-0.144
810	-0.146
810	-0.15
811	-0.153
811	-0.153
812	-0.149
812	-0.146
813	-0.146
813	-0.145
813	-0.143
814	-0.14
814	-0.136
815	-0.129
815	-0.12
816	-0.112
816	-0.104
817	-0.1
817	-0.093
817	-0.082
818	-0.072
818	-0.062
819	-0.052
819	-0.045
820	-0.039
820	-0.034
820	-0.029
821	-0.024
821	-0.019
822	-0.015
822	-0.012
823	-0.009
823	-0.007
823	-0.004
824	-0.002
824	0.001
825	0.003
825	0.006
826	0.009
826	0.01
826	0.012
827	0.014
827	0.015
828	0.017
828	0.018
829	0.019
829	0.02
829	0.02
830	0.02
830	0.02
831	0.021
831	0.021
832	0.021
832	0.021
832	0.021
833	0.022
833	0.022
834	0.023
834	0.023
835	0.024
835	0.024
835	0.024
836	0.024
836	0.024
837	0.025
837	0.026
838	0.026
838	0.027
839	0.027
839	0.027
839	0.027
840	0.026
840	0.026
841	0.026
841	0.026
842	0.025
842	0.025
842	0.025
843	0.025
843	0.025
844	0.025
844	0.025
845	0.025
845	0.025
845	0.025
846	0.025
846	0.025
847	0.025
847	0.025
848	0.025
848	0.025
848	0.025
849	0.026
849	0.026
850	0.026
850	0.026
851	0.027
851	0.027
851	0.027
852	0.027
852	0.027
853	0.026
853	0.026
854	0.026
854	0.026
854	0.026
855	0.026
855	0.026
856	0.025
856	0.025
857	0.025
857	0.024
857	0.024
858	0.024
858	0.024
859	0.024
859	0.024
860	0.024
860	0.024
860	0.025
861	0.025
861	0.026
862	0.026
862	0.027
863	0.027
863	0.027
863	0.028
864	0.028
864	0.028
865	0.029
865	0.03
866	0.03
866	0.03
866	0.031
867	0.032
867	0.032
868	0.033
868	0.033
869	0.033
869	0.033
869	0.032
870	0.032
870	0.032
871	0.032
871	0.032
872	0.032
872	0.032
872	0.032
873	0.033
873	0.032
874	0.032
874	0.032
875	0.031
875	0.031
875	0.03
876	0.029
876	0.028
877	0.027
877	0.026
878	0.025
878	0.024
878	0.023
879	0.023
879	0.022
880	0.021
880	0.021
881	0.021
881	0.021
881	0.022
882	0.022
882	0.022
883	0.023
883	0.023
884	0.023
884	0.023
884	0.022
885	0.022
885	0.022
886	0.022
886	0.022
887	0.021
887	0.021
887	0.021
888	0.022
888	0.022
889	0.023
889	0.023
890	0.024
890	0.024
890	0.025
891	0.025
891	0.026
892	0.026
892	0.027
893	0.028
893	0.028
893	0.029
894	0.029
894	0.029
895	0.029
895	0.029
895	0.029
896	0.028
896	0.028
897	0.027
897	0.026
898	0.026
898	0.025
898	0.025
899	0.024
899	0.024
900	0.024
900	0.024
901	0.025
901	0.025
901	0.025
902	0.026
902	0.026
903	0.027
903	0.027
904	0.028
904	0.029
904	0.029
905	0.029
905	0.03
906	0.03
906	0.03
907	0.029
907	0.029
907	0.029
908	0.029
908	0.03
909	0.03
909	0.03
910	0.031
910	0.031
910	0.031
911	0.031
911	0.032
912	0.032
912	0.032
913	0.032
913	0.032
913	0.031
914	0.031
914	0.03
915	0.029
915	0.029
916	0.028
916	0.027
916	0.025
917	0.024
917	0.022
918	0.02
918	0.019
918	0.017
919	0.016
919	0.015
920	0.014
920	0.013
921	0.013
921	0.013
921	0.013
922	0.014
922	0.014
923	0.015
923	0.015
924	0.016
924	0.017
924	0.018
925	0.019
925	0.02
926	0.02
926	0.021
927	0.021
927	0.022
927	0.022
928	0.021
928	0.021
929	0.021
929	0.02
930	0.019
930	0.019
930	0.018
931	0.017
931	0.017
932	0.016
932	0.016
933	0.015
933	0.015
933	0.014
934	0.014
934	0.014
935	0.013
935	0.013
935	0.012
936	0.012
936	0.012
937	0.012
937	0.012
938	0.012
938	0.012
938	0.012
939	0.013
939	0.013
940	0.014
940	0.014
941	0.015
941	0.016
941	0.016
942	0.017
942	0.018
943	0.019
943	0.019
944	0.02
944	0.02
944	0.021
945	0.021
945	0.022
946	0.022
946	0.022
946	0.023
947	0.023
947	0.024
948	0.024
948	0.025
949	0.025
949	0.026
949	0.026
950	0.026
950	0.026
951	0.027
951	0.026
952	0.026
952	0.026
952	0.025
953	0.024
953	0.023
954	0.023
954	0.022
955	0.021
955	0.021
955	0.021
956	0.021
956	0.021
957	0.021
957	0.021
957	0.021
958	0.021
958	0.021
959	0.022
959	0.022
960	0.022
960	0.022
960	0.022
961	0.022
961	0.023
962	0.023
962	0.023
963	0.024
963	0.024
963	0.024
964	0.024
964	0.024
965	0.023
965	0.023
966	0.023
966	0.022
966	0.022
967	0.021
967	0.021
968	0.02
968	0.02
968	0.019
969	0.019
969	0.019
970	0.019
970	0.019
971	0.019
971	0.019
971	0.019
972	0.019
972	0.019
973	0.019
973	0.019
974	0.019
974	0.019
974	0.02
975	0.02
975	0.021
976	0.021
976	0.022
976	0.022
977	0.023
977	0.023
978	0.024
978	0.024
979	0.025
979	0.025
979	0.025
980	0.025
980	0.024
981	0.024
981	0.024
982	0.023
982	0.022
982	0.022
983	0.021
983	0.02
984	0.019
984	0.019
984	0.018
985	0.017
985	0.016
986	0.016
986	0.015
987	0.015
987	0.014
987	0.014
988	0.014
988	0.014
989	0.014
989	0.014
990	0.015
990	0.015
990	0.015
991	0.016
991	0.016
992	0.017
992	0.017
992	0.017
993	0.017
993	0.017
994	0.017
994	0.017
995	0.017
995	0.017
995	0.017
996	0.017
996	0.017
997	0.017
997	0.017
997	0.017
998	0.017
998	0.018
999	0.019
999	0.019
1000	0.02
1000	0.02
1000	0.021
1001	0.022
1001	0.022
1002	0.023
1002	0.024
1003	0.024
1003	0.025
1003	0.024
1004	0.024
1004	0.024
1005	0.024
1005	0.023
1005	0.023
1006	0.022
1006	0.022
1007	0.021
1007	0.02
1008	0.02
1008	0.019
1008	0.019
1009	0.018
1009	0.018
1010	0.018
1010	0.018
1010	0.018
1011	0.017
1011	0.017
1012	0.017
1012	0.017
1013	0.017
1013	0.016
1013	0.016
1014	0.015
1014	0.014
1015	0.013
1015	0.012
1016	0.012
1016	0.01
1016	0.01
1017	0.009
1017	0.007
1018	0.007
1018	0.006
1018	0.005
1019	0.005
1019	0.004
1020	0.004
1020	0.004
1021	0.003
1021	0.003
1021	0.003
1022	0.004
1022	0.004
1023	0.005
1023	0.005
1023	0.005
1024	0.006
1024	0.006
1025	0.006
1025	0.006
1026	0.007
1026	0.007
1026	0.007
1027	0.006
1027	0.006
1028	0.006
1028	0.006
1028	0.006
1029	0.006
1029	0.005
1030	0.005
1030	0.005
1031	0.004
1031	0.004
1031	0.004
1032	0.004
1032	0.004
1033	0.004
1033	0.004
1033	0.004
1034	0.004
1034	0.004
1035	0.004
1035	0.004
1036	0.004
1036	0.004
1036	0.004
1037	0.004
1037	0.005
1038	0.005
1038	0.005
1039	0.006
1039	0.007
1039	0.007
1040	0.008
1040	0.009
1041	0.01
1041	0.01
1041	0.011
1042	0.011
1042	0.012
1043	0.012
1043	0.012
1044	0.013
1044	0.013
1044	0.014
1045	0.014
1045	0.014
1046	0.013
1046	0.013
1046	0.013
1047	0.013
1047	0.013
1048	0.013
1048	0.013
1049	0.012
1049	0.011
1049	0.011
1050	0.01
1050	0.01
1051	0.009
1051	0.009
1051	0.008
1052	0.007
1052	0.006
1053	0.006
1053	0.005
1053	0.005
1054	0.004
1054	0.003
1055	0.003
1055	0.002
1056	0.001
1056	0
1056	-0.001
1057	-0.001
1057	-0.002
1058	-0.002
1058	-0.003
1058	-0.003
1059	-0.003
1059	-0.003
1060	-0.003
1060	-0.002
1061	-0.002
1061	-0.002
1061	-0.002
1062	-0.002
1062	-0.002
1063	-0.002
1063	-0.002
1063	-0.002
1064	-0.001
1064	-0.001
1065	-0.001
1065	-0.001
1066	-0.001
1066	-0.001
1066	-0
1067	-0
1067	0
1068	0.001
1068	-0
1068	-0.001
1069	-0.002
1069	-0.002
1070	-0.003
1070	-0.004
1071	-0.005
1071	-0.005
1071	-0.007
1072	-0.008
1072	-0.009
1073	-0.01
1073	-0.01
1073	-0.01
1074	-0.011
1074	-0.011
1075	-0.012
1075	-0.013
1076	-0.014
1076	-0.014
1076	-0.014
1077	-0.015
1077	-0.014
1078	-0.015
1078	-0.015
1078	-0.014
1079	-0.014
1079	-0.013
1080	-0.013
1080	-0.013
1080	-0.013
1081	-0.012
1081	-0.012
1082	-0.012
1082	-0.012
1083	-0.012
1083	-0.012
1083	-0.013
1084	-0.013
1084	-0.012
1085	-0.012
1085	-0.012
1085	-0.012
1086	-0.012
1086	-0.012
1087	-0.012
1087	-0.011
1088	-0.012
1088	-0.012
1088	-0.013
1089	-0.013
1089	-0.014
1090	-0.014
1090	-0.015
1090	-0.015
1091	-0.016
1091	-0.015
1092	-0.016
1092	-0.015
1092	-0.015
1093	-0.015
1093	-0.015
1094	-0.015
1094	-0.015
1095	-0.016
1095	-0.016
1095	-0.015
1096	-0.016
1096	-0.015
1097	-0.015
1097	-0.015
1097	-0.015
1098	-0.014
1098	-0.013
1099	-0.013
1099	-0.011
1100	-0.011
1100	-0.01
1100	-0.009
1101	-0.009
1101	-0.008
1102	-0.007
1102	-0.006
1102	-0.005
1103	-0.004
1103	-0.003
1104	-0.001
1104	0
1104	0.002
1105	0.003
1105	0.005
1106	0.005
1106	0.008
1107	0.009
1107	0.011
1107	0.014
1108	0.029
1108	0.047
1109	0.071
1109	0.106
1109	0.128
1110	0.166
1110	0.231
1111	0.362
1111	0.994
