Data from 17c-2a_Absorbance__1313__01314.txt Node

Date: Fri Jan 26 10:31:16 CET 2024
User: Marek
Spectrometer: MAYP115816
Trigger mode: 0
Integration Time (sec): 2.000000E-1
Scans to average: 10
Electric dark correction enabled: true
Nonlinearity correction enabled: true
Boxcar width: 5
XAxis mode: Wavelengths
Number of Pixels in Spectrum: 2068
>>>>>Begin Spectral Data<<<<<
199	-1.414
199	-1.28
200	-1.136
200	-1.028
201	-0.96
201	-0.918
202	-0.855
202	-0.808
203	-0.768
203	-0.734
204	-0.71
204	-0.688
205	-0.668
205	-0.658
205	-0.656
206	-0.652
206	-0.649
207	-0.646
207	-0.646
208	-0.645
208	-0.644
209	-0.641
209	-0.638
210	-0.639
210	-0.64
211	-0.641
211	-0.643
212	-0.644
212	-0.644
213	-0.642
213	-0.639
213	-0.639
214	-0.638
214	-0.636
215	-0.631
215	-0.629
216	-0.626
216	-0.625
217	-0.622
217	-0.62
218	-0.616
218	-0.615
219	-0.611
219	-0.61
220	-0.609
220	-0.61
221	-0.608
221	-0.606
221	-0.602
222	-0.596
222	-0.593
223	-0.588
223	-0.585
224	-0.581
224	-0.573
225	-0.567
225	-0.559
226	-0.551
226	-0.539
227	-0.529
227	-0.52
228	-0.504
228	-0.49
229	-0.471
229	-0.449
229	-0.425
230	-0.399
230	-0.37
231	-0.341
231	-0.309
232	-0.277
232	-0.242
233	-0.206
233	-0.169
234	-0.134
234	-0.099
235	-0.064
235	-0.032
236	-0.001
236	0.028
236	0.056
237	0.082
237	0.106
238	0.127
238	0.146
239	0.165
239	0.18
240	0.195
240	0.208
241	0.219
241	0.23
242	0.239
242	0.248
243	0.256
243	0.263
243	0.27
244	0.275
244	0.281
245	0.285
245	0.29
246	0.295
246	0.299
247	0.303
247	0.306
248	0.309
248	0.313
249	0.316
249	0.319
250	0.321
250	0.324
250	0.327
251	0.33
251	0.332
252	0.334
252	0.336
253	0.339
253	0.34
254	0.342
254	0.344
255	0.346
255	0.347
256	0.349
256	0.35
257	0.351
257	0.352
258	0.353
258	0.354
258	0.354
259	0.355
259	0.355
260	0.356
260	0.356
261	0.356
261	0.356
262	0.356
262	0.356
263	0.356
263	0.355
264	0.355
264	0.354
265	0.354
265	0.353
265	0.352
266	0.351
266	0.35
267	0.348
267	0.347
268	0.346
268	0.344
269	0.343
269	0.342
270	0.34
270	0.338
271	0.336
271	0.335
272	0.333
272	0.331
272	0.329
273	0.328
273	0.326
274	0.324
274	0.322
275	0.32
275	0.318
276	0.316
276	0.313
277	0.311
277	0.309
278	0.306
278	0.304
278	0.302
279	0.299
279	0.297
280	0.295
280	0.292
281	0.29
281	0.288
282	0.286
282	0.284
283	0.282
283	0.28
284	0.278
284	0.277
285	0.275
285	0.273
285	0.271
286	0.269
286	0.268
287	0.266
287	0.264
288	0.262
288	0.261
289	0.259
289	0.258
290	0.256
290	0.255
291	0.254
291	0.252
292	0.251
292	0.25
292	0.249
293	0.248
293	0.246
294	0.245
294	0.244
295	0.243
295	0.242
296	0.241
296	0.24
297	0.239
297	0.239
298	0.238
298	0.237
298	0.236
299	0.235
299	0.235
300	0.234
300	0.233
301	0.233
301	0.232
302	0.231
302	0.231
303	0.23
303	0.229
304	0.229
304	0.228
305	0.228
305	0.227
305	0.226
306	0.226
306	0.225
307	0.224
307	0.224
308	0.223
308	0.222
309	0.222
309	0.221
310	0.22
310	0.22
311	0.219
311	0.219
311	0.218
312	0.218
312	0.217
313	0.217
313	0.216
314	0.215
314	0.215
315	0.214
315	0.213
316	0.213
316	0.212
317	0.212
317	0.211
318	0.21
318	0.21
318	0.21
319	0.209
319	0.208
320	0.208
320	0.207
321	0.207
321	0.206
322	0.205
322	0.205
323	0.204
323	0.203
324	0.203
324	0.202
324	0.202
325	0.201
325	0.201
326	0.2
326	0.199
327	0.199
327	0.198
328	0.198
328	0.197
329	0.197
329	0.196
330	0.196
330	0.195
330	0.195
331	0.194
331	0.194
332	0.193
332	0.193
333	0.192
333	0.192
334	0.191
334	0.191
335	0.19
335	0.19
336	0.19
336	0.189
336	0.189
337	0.188
337	0.188
338	0.187
338	0.187
339	0.186
339	0.186
340	0.186
340	0.185
341	0.185
341	0.184
342	0.184
342	0.184
342	0.183
343	0.183
343	0.183
344	0.182
344	0.182
345	0.182
345	0.181
346	0.181
346	0.181
347	0.18
347	0.18
348	0.179
348	0.179
348	0.179
349	0.178
349	0.178
350	0.178
350	0.178
351	0.177
351	0.177
352	0.177
352	0.177
353	0.177
353	0.177
354	0.176
354	0.176
354	0.176
355	0.176
355	0.175
356	0.175
356	0.175
357	0.175
357	0.174
358	0.174
358	0.174
359	0.174
359	0.174
360	0.174
360	0.174
360	0.175
361	0.175
361	0.175
362	0.175
362	0.175
363	0.174
363	0.174
364	0.174
364	0.174
365	0.174
365	0.174
366	0.174
366	0.174
366	0.174
367	0.174
367	0.173
368	0.173
368	0.173
369	0.173
369	0.172
370	0.172
370	0.172
371	0.171
371	0.171
372	0.171
372	0.171
372	0.171
373	0.171
373	0.171
374	0.171
374	0.171
375	0.171
375	0.171
376	0.171
376	0.171
377	0.171
377	0.171
378	0.171
378	0.171
378	0.171
379	0.171
379	0.171
380	0.171
380	0.171
381	0.171
381	0.171
382	0.17
382	0.17
383	0.17
383	0.17
383	0.169
384	0.169
384	0.169
385	0.169
385	0.169
386	0.169
386	0.168
387	0.168
387	0.168
388	0.168
388	0.168
389	0.168
389	0.168
389	0.168
390	0.168
390	0.168
391	0.168
391	0.168
392	0.168
392	0.168
393	0.169
393	0.169
394	0.169
394	0.168
394	0.168
395	0.168
395	0.168
396	0.168
396	0.168
397	0.167
397	0.167
398	0.167
398	0.167
399	0.166
399	0.166
400	0.166
400	0.166
400	0.165
401	0.165
401	0.165
402	0.165
402	0.164
403	0.164
403	0.164
404	0.164
404	0.164
405	0.163
405	0.164
405	0.164
406	0.163
406	0.163
407	0.163
407	0.163
408	0.163
408	0.163
409	0.163
409	0.163
410	0.163
410	0.163
411	0.163
411	0.163
411	0.163
412	0.163
412	0.163
413	0.163
413	0.163
414	0.162
414	0.162
415	0.162
415	0.161
416	0.161
416	0.161
416	0.161
417	0.16
417	0.16
418	0.16
418	0.161
419	0.161
419	0.161
420	0.161
420	0.161
421	0.161
421	0.162
421	0.162
422	0.162
422	0.162
423	0.162
423	0.161
424	0.161
424	0.161
425	0.161
425	0.161
426	0.161
426	0.161
427	0.161
427	0.161
427	0.161
428	0.161
428	0.161
429	0.161
429	0.161
430	0.161
430	0.161
431	0.161
431	0.161
432	0.161
432	0.16
432	0.16
433	0.16
433	0.16
434	0.16
434	0.16
435	0.16
435	0.16
436	0.16
436	0.16
437	0.16
437	0.16
437	0.16
438	0.16
438	0.16
439	0.16
439	0.159
440	0.159
440	0.159
441	0.159
441	0.159
442	0.159
442	0.159
442	0.159
443	0.159
443	0.159
444	0.159
444	0.159
445	0.159
445	0.159
446	0.16
446	0.16
447	0.16
447	0.16
447	0.16
448	0.16
448	0.16
449	0.16
449	0.16
450	0.16
450	0.16
451	0.16
451	0.16
452	0.16
452	0.16
452	0.16
453	0.159
453	0.159
454	0.159
454	0.159
455	0.159
455	0.159
456	0.159
456	0.159
457	0.159
457	0.159
458	0.159
458	0.159
458	0.16
459	0.16
459	0.16
460	0.16
460	0.16
461	0.16
461	0.16
462	0.16
462	0.16
463	0.161
463	0.161
463	0.161
464	0.161
464	0.162
465	0.162
465	0.162
466	0.162
466	0.163
467	0.163
467	0.163
467	0.162
468	0.162
468	0.162
469	0.161
469	0.161
470	0.162
470	0.161
471	0.161
471	0.162
472	0.162
472	0.162
472	0.163
473	0.163
473	0.164
474	0.164
474	0.165
475	0.165
475	0.166
476	0.166
476	0.167
477	0.167
477	0.167
477	0.168
478	0.168
478	0.169
479	0.169
479	0.17
480	0.17
480	0.171
481	0.171
481	0.172
482	0.173
482	0.174
482	0.175
483	0.176
483	0.178
484	0.18
484	0.181
485	0.182
485	0.183
486	0.183
486	0.184
487	0.185
487	0.185
487	0.186
488	0.186
488	0.186
489	0.186
489	0.186
490	0.187
490	0.187
491	0.188
491	0.189
492	0.19
492	0.191
492	0.192
493	0.193
493	0.194
494	0.196
494	0.197
495	0.199
495	0.2
496	0.201
496	0.202
496	0.203
497	0.204
497	0.206
498	0.207
498	0.208
499	0.209
499	0.21
500	0.212
500	0.213
501	0.215
501	0.216
501	0.218
502	0.219
502	0.22
503	0.222
503	0.223
504	0.224
504	0.225
505	0.227
505	0.228
506	0.229
506	0.23
506	0.231
507	0.232
507	0.233
508	0.234
508	0.236
509	0.237
509	0.238
510	0.239
510	0.24
511	0.241
511	0.242
511	0.243
512	0.244
512	0.245
513	0.245
513	0.246
514	0.246
514	0.247
515	0.247
515	0.247
515	0.248
516	0.248
516	0.249
517	0.25
517	0.25
518	0.251
518	0.251
519	0.251
519	0.25
520	0.25
520	0.25
520	0.25
521	0.249
521	0.248
522	0.247
522	0.247
523	0.247
523	0.247
524	0.248
524	0.248
524	0.249
525	0.249
525	0.25
526	0.25
526	0.251
527	0.252
527	0.252
528	0.252
528	0.252
529	0.252
529	0.252
529	0.252
530	0.251
530	0.251
531	0.25
531	0.249
532	0.248
532	0.247
533	0.246
533	0.245
533	0.244
534	0.243
534	0.242
535	0.24
535	0.24
536	0.238
536	0.237
537	0.236
537	0.235
538	0.233
538	0.232
538	0.231
539	0.229
539	0.228
540	0.227
540	0.225
541	0.223
541	0.221
542	0.22
542	0.218
542	0.216
543	0.215
543	0.213
544	0.211
544	0.21
545	0.208
545	0.207
546	0.206
546	0.205
547	0.203
547	0.201
547	0.2
548	0.198
548	0.197
549	0.195
549	0.194
550	0.192
550	0.191
551	0.188
551	0.187
551	0.185
552	0.183
552	0.182
553	0.18
553	0.179
554	0.177
554	0.175
555	0.173
555	0.171
556	0.169
556	0.166
556	0.164
557	0.162
557	0.159
558	0.157
558	0.155
559	0.153
559	0.151
560	0.15
560	0.148
560	0.147
561	0.146
561	0.145
562	0.144
562	0.143
563	0.141
563	0.139
564	0.138
564	0.136
564	0.135
565	0.134
565	0.132
566	0.13
566	0.129
567	0.128
567	0.127
568	0.127
568	0.126
568	0.126
569	0.126
569	0.126
570	0.125
570	0.124
571	0.123
571	0.123
572	0.122
572	0.121
573	0.12
573	0.119
573	0.118
574	0.117
574	0.116
575	0.116
575	0.116
576	0.116
576	0.114
577	0.113
577	0.112
577	0.111
578	0.11
578	0.11
579	0.11
579	0.11
580	0.108
580	0.106
581	0.103
581	0.102
581	0.101
582	0.101
582	0.101
583	0.101
583	0.1
584	0.097
584	0.095
585	0.094
585	0.094
585	0.094
586	0.094
586	0.093
587	0.092
587	0.09
588	0.088
588	0.087
589	0.086
589	0.086
590	0.086
590	0.086
590	0.087
591	0.087
591	0.087
592	0.086
592	0.086
593	0.086
593	0.086
594	0.085
594	0.084
594	0.083
595	0.083
595	0.082
596	0.081
596	0.082
597	0.084
597	0.084
598	0.084
598	0.085
598	0.085
599	0.085
599	0.084
600	0.084
600	0.083
601	0.082
601	0.081
602	0.079
602	0.079
602	0.078
603	0.077
603	0.078
604	0.078
604	0.079
605	0.079
605	0.08
606	0.08
606	0.079
606	0.079
607	0.079
607	0.079
608	0.079
608	0.078
609	0.077
609	0.077
610	0.076
610	0.076
610	0.076
611	0.077
611	0.079
612	0.08
612	0.081
613	0.083
613	0.084
614	0.084
614	0.084
614	0.085
615	0.085
615	0.085
616	0.085
616	0.084
617	0.084
617	0.084
618	0.083
618	0.083
618	0.082
619	0.083
619	0.083
620	0.085
620	0.085
621	0.085
621	0.086
622	0.086
622	0.086
622	0.086
623	0.086
623	0.087
624	0.088
624	0.088
625	0.088
625	0.089
626	0.089
626	0.089
626	0.09
627	0.091
627	0.092
628	0.093
628	0.093
629	0.093
629	0.093
630	0.093
630	0.093
630	0.093
631	0.094
631	0.094
632	0.094
632	0.095
633	0.095
633	0.096
634	0.097
634	0.099
634	0.1
635	0.101
635	0.102
636	0.103
636	0.104
637	0.105
637	0.105
638	0.106
638	0.107
638	0.108
639	0.109
639	0.109
640	0.11
640	0.111
641	0.112
641	0.113
642	0.115
642	0.116
642	0.118
643	0.119
643	0.12
644	0.122
644	0.124
645	0.125
645	0.127
646	0.129
646	0.132
646	0.134
647	0.137
647	0.14
648	0.142
648	0.144
649	0.146
649	0.149
650	0.151
650	0.154
650	0.156
651	0.158
651	0.16
652	0.161
652	0.163
653	0.165
653	0.172
653	0.176
654	0.141
654	0.115
655	0.116
655	0.118
656	0.119
656	0.121
657	0.123
657	0.124
657	0.126
658	0.124
658	0.118
659	0.149
659	0.192
660	0.2
660	0.202
661	0.203
661	0.206
661	0.208
662	0.211
662	0.213
663	0.216
663	0.218
664	0.221
664	0.222
665	0.224
665	0.227
665	0.229
666	0.231
666	0.232
667	0.234
667	0.236
668	0.238
668	0.24
669	0.243
669	0.245
669	0.248
670	0.25
670	0.252
671	0.253
671	0.255
672	0.256
672	0.258
672	0.259
673	0.261
673	0.262
674	0.264
674	0.265
675	0.267
675	0.269
676	0.271
676	0.273
676	0.275
677	0.277
677	0.279
678	0.28
678	0.281
679	0.282
679	0.283
680	0.284
680	0.285
680	0.285
681	0.286
681	0.287
682	0.288
682	0.289
683	0.291
683	0.292
684	0.293
684	0.293
684	0.293
685	0.294
685	0.294
686	0.294
686	0.294
687	0.293
687	0.293
687	0.292
688	0.292
688	0.291
689	0.292
689	0.293
690	0.293
690	0.293
691	0.294
691	0.294
691	0.294
692	0.294
692	0.293
693	0.293
693	0.293
694	0.292
694	0.291
695	0.291
695	0.291
695	0.29
696	0.289
696	0.288
697	0.287
697	0.286
698	0.284
698	0.282
698	0.281
699	0.28
699	0.277
700	0.274
700	0.272
701	0.271
701	0.269
702	0.267
702	0.265
702	0.263
703	0.261
703	0.259
704	0.257
704	0.256
705	0.255
705	0.254
705	0.252
706	0.251
706	0.25
707	0.248
707	0.247
708	0.246
708	0.245
709	0.244
709	0.242
709	0.239
710	0.238
710	0.236
711	0.235
711	0.233
712	0.231
712	0.229
713	0.227
713	0.225
713	0.223
714	0.221
714	0.218
715	0.216
715	0.213
716	0.211
716	0.209
716	0.206
717	0.204
717	0.202
718	0.199
718	0.196
719	0.195
719	0.193
720	0.191
720	0.189
720	0.186
721	0.184
721	0.182
722	0.18
722	0.178
723	0.176
723	0.175
723	0.173
724	0.171
724	0.17
725	0.168
725	0.167
726	0.165
726	0.164
727	0.163
727	0.161
727	0.16
728	0.158
728	0.156
729	0.155
729	0.153
730	0.151
730	0.149
730	0.148
731	0.146
731	0.144
732	0.143
732	0.141
733	0.14
733	0.138
734	0.137
734	0.136
734	0.135
735	0.135
735	0.134
736	0.133
736	0.132
737	0.13
737	0.13
737	0.128
738	0.126
738	0.123
739	0.121
739	0.12
740	0.117
740	0.116
741	0.115
741	0.113
741	0.111
742	0.109
742	0.107
743	0.107
743	0.106
744	0.105
744	0.103
744	0.102
745	0.1
745	0.098
746	0.097
746	0.096
747	0.095
747	0.094
748	0.093
748	0.092
748	0.09
749	0.089
749	0.089
750	0.088
750	0.087
751	0.087
751	0.087
751	0.087
752	0.086
752	0.085
753	0.085
753	0.084
754	0.084
754	0.083
754	0.083
755	0.083
755	0.083
756	0.082
756	0.08
757	0.079
757	0.079
758	0.078
758	0.077
758	0.077
759	0.077
759	0.075
760	0.074
760	0.073
761	0.071
761	0.071
761	0.07
762	0.068
762	0.067
763	0.066
763	0.063
764	0.061
764	0.059
764	0.058
765	0.056
765	0.054
766	0.053
766	0.052
767	0.051
767	0.049
768	0.047
768	0.045
768	0.044
769	0.043
769	0.043
770	0.041
770	0.04
771	0.038
771	0.035
771	0.033
772	0.032
772	0.031
773	0.029
773	0.027
774	0.025
774	0.023
775	0.021
775	0.02
775	0.018
776	0.016
776	0.015
777	0.014
777	0.012
778	0.01
778	0.008
778	0.006
779	0.005
779	0.004
780	0.002
780	-0.001
781	-0.003
781	-0.006
781	-0.009
782	-0.013
782	-0.017
783	-0.02
783	-0.024
784	-0.028
784	-0.033
784	-0.037
785	-0.042
785	-0.047
786	-0.051
786	-0.055
787	-0.058
787	-0.062
788	-0.067
788	-0.073
788	-0.08
789	-0.087
789	-0.093
790	-0.096
790	-0.101
791	-0.106
791	-0.11
791	-0.114
792	-0.11
792	-0.102
793	-0.098
793	-0.095
794	-0.094
794	-0.096
794	-0.1
795	-0.103
795	-0.103
796	-0.103
796	-0.106
797	-0.115
797	-0.126
797	-0.133
798	-0.138
798	-0.141
799	-0.142
799	-0.141
800	-0.141
800	-0.142
801	-0.145
801	-0.146
801	-0.145
802	-0.147
802	-0.148
803	-0.148
803	-0.148
804	-0.147
804	-0.142
804	-0.136
805	-0.132
805	-0.13
806	-0.128
806	-0.127
807	-0.127
807	-0.127
807	-0.127
808	-0.128
808	-0.129
809	-0.134
809	-0.14
810	-0.143
810	-0.146
810	-0.149
811	-0.152
811	-0.153
812	-0.149
812	-0.145
813	-0.145
813	-0.146
813	-0.148
814	-0.149
814	-0.148
815	-0.145
815	-0.14
816	-0.134
816	-0.13
817	-0.128
817	-0.124
817	-0.116
818	-0.106
818	-0.095
819	-0.083
819	-0.072
820	-0.064
820	-0.057
820	-0.049
821	-0.042
821	-0.036
822	-0.03
822	-0.025
823	-0.02
823	-0.017
823	-0.013
824	-0.01
824	-0.006
825	-0.002
825	0.002
826	0.005
826	0.007
826	0.01
827	0.012
827	0.014
828	0.016
828	0.017
829	0.018
829	0.019
829	0.019
830	0.019
830	0.02
831	0.021
831	0.022
832	0.022
832	0.022
832	0.023
833	0.023
833	0.023
834	0.023
834	0.024
835	0.024
835	0.024
835	0.024
836	0.024
836	0.024
837	0.025
837	0.025
838	0.026
838	0.026
839	0.027
839	0.027
839	0.027
840	0.027
840	0.027
841	0.027
841	0.027
842	0.027
842	0.027
842	0.027
843	0.028
843	0.028
844	0.028
844	0.028
845	0.028
845	0.029
845	0.029
846	0.029
846	0.029
847	0.029
847	0.029
848	0.029
848	0.029
848	0.029
849	0.03
849	0.03
850	0.03
850	0.03
851	0.031
851	0.031
851	0.031
852	0.03
852	0.03
853	0.03
853	0.029
854	0.029
854	0.029
854	0.029
855	0.029
855	0.028
856	0.028
856	0.027
857	0.027
857	0.027
857	0.027
858	0.028
858	0.028
859	0.028
859	0.028
860	0.029
860	0.03
860	0.03
861	0.031
861	0.032
862	0.032
862	0.032
863	0.033
863	0.033
863	0.033
864	0.033
864	0.033
865	0.033
865	0.033
866	0.034
866	0.034
866	0.035
867	0.035
867	0.036
868	0.036
868	0.036
869	0.036
869	0.036
869	0.035
870	0.035
870	0.034
871	0.034
871	0.033
872	0.033
872	0.032
872	0.033
873	0.033
873	0.033
874	0.033
874	0.033
875	0.033
875	0.033
875	0.033
876	0.032
876	0.031
877	0.03
877	0.029
878	0.028
878	0.027
878	0.027
879	0.026
879	0.026
880	0.025
880	0.025
881	0.025
881	0.025
881	0.025
882	0.025
882	0.025
883	0.025
883	0.025
884	0.025
884	0.024
884	0.024
885	0.024
885	0.023
886	0.023
886	0.023
887	0.023
887	0.024
887	0.024
888	0.024
888	0.025
889	0.026
889	0.027
890	0.027
890	0.028
890	0.028
891	0.029
891	0.029
892	0.03
892	0.03
893	0.031
893	0.031
893	0.031
894	0.031
894	0.031
895	0.03
895	0.03
895	0.029
896	0.028
896	0.028
897	0.027
897	0.027
898	0.026
898	0.026
898	0.025
899	0.025
899	0.025
900	0.025
900	0.025
901	0.025
901	0.025
901	0.026
902	0.026
902	0.026
903	0.026
903	0.027
904	0.028
904	0.028
904	0.029
905	0.03
905	0.03
906	0.03
906	0.031
907	0.031
907	0.031
907	0.031
908	0.031
908	0.032
909	0.032
909	0.032
910	0.033
910	0.033
910	0.033
911	0.033
911	0.033
912	0.033
912	0.033
913	0.033
913	0.033
913	0.032
914	0.031
914	0.031
915	0.03
915	0.029
916	0.028
916	0.027
916	0.026
917	0.025
917	0.023
918	0.022
918	0.02
918	0.019
919	0.017
919	0.016
920	0.015
920	0.015
921	0.014
921	0.014
921	0.014
922	0.014
922	0.015
923	0.016
923	0.016
924	0.017
924	0.018
924	0.018
925	0.019
925	0.02
926	0.021
926	0.021
927	0.022
927	0.022
927	0.022
928	0.022
928	0.022
929	0.022
929	0.021
930	0.021
930	0.02
930	0.019
931	0.019
931	0.018
932	0.018
932	0.018
933	0.017
933	0.017
933	0.016
934	0.016
934	0.015
935	0.014
935	0.014
935	0.013
936	0.012
936	0.012
937	0.011
937	0.011
938	0.01
938	0.01
938	0.011
939	0.011
939	0.012
940	0.013
940	0.014
941	0.015
941	0.016
941	0.017
942	0.018
942	0.019
943	0.02
943	0.021
944	0.021
944	0.022
944	0.022
945	0.022
945	0.023
946	0.023
946	0.023
946	0.023
947	0.023
947	0.024
948	0.024
948	0.024
949	0.025
949	0.025
949	0.025
950	0.026
950	0.026
951	0.026
951	0.026
952	0.025
952	0.025
952	0.025
953	0.024
953	0.024
954	0.023
954	0.023
955	0.022
955	0.022
955	0.022
956	0.022
956	0.022
957	0.022
957	0.022
957	0.022
958	0.022
958	0.022
959	0.022
959	0.023
960	0.023
960	0.023
960	0.023
961	0.023
961	0.023
962	0.024
962	0.024
963	0.025
963	0.025
963	0.026
964	0.026
964	0.026
965	0.026
965	0.026
966	0.026
966	0.026
966	0.026
967	0.026
967	0.025
968	0.024
968	0.023
968	0.023
969	0.022
969	0.022
970	0.021
970	0.02
971	0.02
971	0.019
971	0.019
972	0.019
972	0.019
973	0.019
973	0.019
974	0.02
974	0.02
974	0.02
975	0.021
975	0.022
976	0.023
976	0.024
976	0.025
977	0.025
977	0.026
978	0.026
978	0.026
979	0.026
979	0.026
979	0.026
980	0.025
980	0.025
981	0.024
981	0.023
982	0.022
982	0.021
982	0.02
983	0.019
983	0.018
984	0.017
984	0.016
984	0.016
985	0.015
985	0.014
986	0.013
986	0.012
987	0.012
987	0.011
987	0.011
988	0.011
988	0.011
989	0.011
989	0.011
990	0.011
990	0.012
990	0.012
991	0.013
991	0.014
992	0.015
992	0.016
992	0.016
993	0.017
993	0.017
994	0.017
994	0.017
995	0.017
995	0.017
995	0.017
996	0.017
996	0.016
997	0.016
997	0.015
997	0.015
998	0.016
998	0.016
999	0.016
999	0.017
1000	0.017
1000	0.018
1000	0.019
1001	0.02
1001	0.021
1002	0.021
1002	0.022
1003	0.022
1003	0.023
1003	0.023
1004	0.023
1004	0.023
1005	0.023
1005	0.022
1005	0.022
1006	0.021
1006	0.021
1007	0.02
1007	0.02
1008	0.02
1008	0.019
1008	0.02
1009	0.019
1009	0.019
1010	0.019
1010	0.019
1010	0.019
1011	0.019
1011	0.019
1012	0.019
1012	0.018
1013	0.018
1013	0.017
1013	0.016
1014	0.015
1014	0.014
1015	0.013
1015	0.012
1016	0.011
1016	0.01
1016	0.009
1017	0.008
1017	0.007
1018	0.007
1018	0.006
1018	0.005
1019	0.005
1019	0.004
1020	0.004
1020	0.004
1021	0.004
1021	0.004
1021	0.005
1022	0.005
1022	0.006
1023	0.006
1023	0.006
1023	0.007
1024	0.007
1024	0.007
1025	0.007
1025	0.007
1026	0.007
1026	0.006
1026	0.006
1027	0.006
1027	0.006
1028	0.006
1028	0.005
1028	0.005
1029	0.005
1029	0.004
1030	0.004
1030	0.004
1031	0.004
1031	0.004
1031	0.003
1032	0.004
1032	0.004
1033	0.003
1033	0.004
1033	0.004
1034	0.003
1034	0.003
1035	0.003
1035	0.002
1036	0.002
1036	0.002
1036	0.002
1037	0.002
1037	0.003
1038	0.003
1038	0.003
1039	0.004
1039	0.005
1039	0.005
1040	0.006
1040	0.007
1041	0.008
1041	0.009
1041	0.009
1042	0.01
1042	0.011
1043	0.011
1043	0.012
1044	0.012
1044	0.013
1044	0.013
1045	0.013
1045	0.013
1046	0.013
1046	0.013
1046	0.013
1047	0.013
1047	0.013
1048	0.013
1048	0.012
1049	0.012
1049	0.011
1049	0.01
1050	0.009
1050	0.008
1051	0.008
1051	0.007
1051	0.007
1052	0.006
1052	0.005
1053	0.005
1053	0.004
1053	0.003
1054	0.002
1054	0.002
1055	0.001
1055	0.001
1056	-0.001
1056	-0.002
1056	-0.003
1057	-0.004
1057	-0.005
1058	-0.006
1058	-0.006
1058	-0.007
1059	-0.007
1059	-0.007
1060	-0.007
1060	-0.007
1061	-0.007
1061	-0.006
1061	-0.005
1062	-0.005
1062	-0.005
1063	-0.005
1063	-0.005
1063	-0.005
1064	-0.005
1064	-0.004
1065	-0.004
1065	-0.004
1066	-0.004
1066	-0.003
1066	-0.003
1067	-0.003
1067	-0.002
1068	-0.002
1068	-0.002
1068	-0.003
1069	-0.003
1069	-0.004
1070	-0.004
1070	-0.005
1071	-0.006
1071	-0.006
1071	-0.007
1072	-0.009
1072	-0.01
1073	-0.011
1073	-0.012
1073	-0.013
1074	-0.013
1074	-0.014
1075	-0.015
1075	-0.016
1076	-0.018
1076	-0.018
1076	-0.019
1077	-0.019
1077	-0.019
1078	-0.019
1078	-0.019
1078	-0.019
1079	-0.019
1079	-0.018
1080	-0.017
1080	-0.017
1080	-0.016
1081	-0.016
1081	-0.015
1082	-0.015
1082	-0.015
1083	-0.014
1083	-0.015
1083	-0.014
1084	-0.014
1084	-0.013
1085	-0.013
1085	-0.013
1085	-0.012
1086	-0.012
1086	-0.012
1087	-0.012
1087	-0.012
1088	-0.012
1088	-0.013
1088	-0.013
1089	-0.014
1089	-0.014
1090	-0.015
1090	-0.015
1090	-0.016
1091	-0.016
1091	-0.015
1092	-0.016
1092	-0.016
1092	-0.016
1093	-0.016
1093	-0.015
1094	-0.014
1094	-0.014
1095	-0.015
1095	-0.015
1095	-0.014
1096	-0.014
1096	-0.014
1097	-0.012
1097	-0.012
1097	-0.011
1098	-0.01
1098	-0.009
1099	-0.008
1099	-0.006
1100	-0.005
1100	-0.003
1100	-0.003
1101	-0.001
1101	0
1102	0.002
1102	0.003
1102	0.005
1103	0.006
1103	0.009
1104	0.011
1104	0.014
1104	0.018
1105	0.021
1105	0.024
1106	0.025
1106	0.03
1107	0.033
1107	0.038
1107	0.044
1108	0.068
1108	0.1
1109	0.144
1109	0.206
1109	0.251
1110	0.33
1110	0.489
1111	1.043
1111	-0
