Data from 17c-2a_Absorbance__1494__01495.txt Node

Date: Fri Jan 26 10:37:18 CET 2024
User: Marek
Spectrometer: MAYP115816
Trigger mode: 0
Integration Time (sec): 2.000000E-1
Scans to average: 10
Electric dark correction enabled: true
Nonlinearity correction enabled: true
Boxcar width: 5
XAxis mode: Wavelengths
Number of Pixels in Spectrum: 2068
>>>>>Begin Spectral Data<<<<<
199	-1.467
199	-1.33
200	-1.183
200	-1.073
201	-1.004
201	-0.962
202	-0.899
202	-0.85
203	-0.809
203	-0.774
204	-0.749
204	-0.726
205	-0.705
205	-0.696
205	-0.694
206	-0.69
206	-0.687
207	-0.683
207	-0.683
208	-0.681
208	-0.68
209	-0.677
209	-0.675
210	-0.676
210	-0.677
211	-0.677
211	-0.679
212	-0.679
212	-0.678
213	-0.677
213	-0.674
213	-0.674
214	-0.672
214	-0.67
215	-0.665
215	-0.663
216	-0.66
216	-0.659
217	-0.656
217	-0.654
218	-0.651
218	-0.649
219	-0.644
219	-0.643
220	-0.642
220	-0.644
221	-0.641
221	-0.64
221	-0.635
222	-0.631
222	-0.628
223	-0.623
223	-0.621
224	-0.617
224	-0.609
225	-0.602
225	-0.594
226	-0.587
226	-0.576
227	-0.566
227	-0.556
228	-0.539
228	-0.524
229	-0.504
229	-0.483
229	-0.46
230	-0.432
230	-0.403
231	-0.373
231	-0.339
232	-0.305
232	-0.268
233	-0.231
233	-0.192
234	-0.155
234	-0.118
235	-0.083
235	-0.049
236	-0.015
236	0.017
236	0.046
237	0.073
237	0.098
238	0.121
238	0.142
239	0.161
239	0.178
240	0.194
240	0.208
241	0.22
241	0.232
242	0.242
242	0.252
243	0.261
243	0.269
243	0.276
244	0.282
244	0.288
245	0.293
245	0.298
246	0.303
246	0.308
247	0.312
247	0.315
248	0.319
248	0.322
249	0.326
249	0.329
250	0.332
250	0.335
250	0.338
251	0.34
251	0.343
252	0.345
252	0.347
253	0.35
253	0.351
254	0.353
254	0.355
255	0.356
255	0.358
256	0.36
256	0.361
257	0.363
257	0.364
258	0.365
258	0.365
258	0.366
259	0.367
259	0.367
260	0.368
260	0.368
261	0.368
261	0.368
262	0.368
262	0.368
263	0.368
263	0.368
264	0.367
264	0.367
265	0.366
265	0.366
265	0.365
266	0.364
266	0.363
267	0.361
267	0.36
268	0.359
268	0.357
269	0.356
269	0.354
270	0.352
270	0.351
271	0.349
271	0.347
272	0.345
272	0.343
272	0.342
273	0.34
273	0.338
274	0.336
274	0.334
275	0.332
275	0.33
276	0.328
276	0.326
277	0.324
277	0.321
278	0.319
278	0.317
278	0.315
279	0.312
279	0.31
280	0.308
280	0.305
281	0.303
281	0.301
282	0.299
282	0.297
283	0.295
283	0.293
284	0.291
284	0.29
285	0.288
285	0.286
285	0.284
286	0.282
286	0.28
287	0.278
287	0.277
288	0.275
288	0.274
289	0.272
289	0.27
290	0.269
290	0.268
291	0.266
291	0.265
292	0.264
292	0.262
292	0.261
293	0.26
293	0.258
294	0.257
294	0.256
295	0.255
295	0.254
296	0.253
296	0.252
297	0.251
297	0.251
298	0.25
298	0.249
298	0.248
299	0.248
299	0.247
300	0.246
300	0.245
301	0.245
301	0.244
302	0.243
302	0.243
303	0.242
303	0.241
304	0.24
304	0.24
305	0.239
305	0.238
305	0.238
306	0.237
306	0.236
307	0.236
307	0.235
308	0.234
308	0.234
309	0.233
309	0.232
310	0.232
310	0.231
311	0.231
311	0.23
311	0.23
312	0.229
312	0.229
313	0.228
313	0.227
314	0.227
314	0.226
315	0.225
315	0.225
316	0.224
316	0.223
317	0.223
317	0.222
318	0.221
318	0.221
318	0.22
319	0.22
319	0.219
320	0.218
320	0.218
321	0.217
321	0.216
322	0.216
322	0.215
323	0.214
323	0.214
324	0.213
324	0.212
324	0.212
325	0.211
325	0.211
326	0.21
326	0.21
327	0.209
327	0.209
328	0.208
328	0.208
329	0.207
329	0.206
330	0.206
330	0.205
330	0.205
331	0.204
331	0.204
332	0.203
332	0.203
333	0.202
333	0.202
334	0.201
334	0.201
335	0.2
335	0.2
336	0.199
336	0.199
336	0.198
337	0.198
337	0.197
338	0.197
338	0.196
339	0.196
339	0.196
340	0.195
340	0.195
341	0.194
341	0.194
342	0.194
342	0.193
342	0.193
343	0.192
343	0.192
344	0.192
344	0.191
345	0.191
345	0.191
346	0.19
346	0.19
347	0.19
347	0.189
348	0.189
348	0.189
348	0.188
349	0.188
349	0.188
350	0.187
350	0.187
351	0.187
351	0.187
352	0.186
352	0.186
353	0.186
353	0.186
354	0.186
354	0.185
354	0.185
355	0.185
355	0.184
356	0.184
356	0.183
357	0.183
357	0.183
358	0.183
358	0.183
359	0.183
359	0.183
360	0.183
360	0.183
360	0.183
361	0.183
361	0.183
362	0.184
362	0.183
363	0.183
363	0.183
364	0.183
364	0.183
365	0.183
365	0.182
366	0.182
366	0.182
366	0.182
367	0.182
367	0.182
368	0.182
368	0.181
369	0.181
369	0.181
370	0.181
370	0.181
371	0.18
371	0.18
372	0.18
372	0.18
372	0.18
373	0.18
373	0.18
374	0.18
374	0.18
375	0.179
375	0.179
376	0.179
376	0.18
377	0.18
377	0.18
378	0.18
378	0.18
378	0.18
379	0.18
379	0.18
380	0.18
380	0.179
381	0.179
381	0.179
382	0.179
382	0.178
383	0.178
383	0.178
383	0.178
384	0.178
384	0.177
385	0.177
385	0.177
386	0.177
386	0.177
387	0.177
387	0.177
388	0.177
388	0.177
389	0.177
389	0.177
389	0.176
390	0.177
390	0.176
391	0.177
391	0.177
392	0.177
392	0.177
393	0.177
393	0.177
394	0.177
394	0.177
394	0.176
395	0.176
395	0.176
396	0.176
396	0.175
397	0.175
397	0.175
398	0.175
398	0.174
399	0.174
399	0.174
400	0.173
400	0.173
400	0.173
401	0.173
401	0.172
402	0.172
402	0.172
403	0.172
403	0.171
404	0.171
404	0.171
405	0.171
405	0.171
405	0.171
406	0.171
406	0.171
407	0.171
407	0.171
408	0.171
408	0.171
409	0.17
409	0.17
410	0.17
410	0.17
411	0.17
411	0.17
411	0.17
412	0.17
412	0.17
413	0.17
413	0.17
414	0.17
414	0.169
415	0.169
415	0.169
416	0.168
416	0.168
416	0.168
417	0.168
417	0.168
418	0.168
418	0.168
419	0.168
419	0.168
420	0.169
420	0.169
421	0.169
421	0.169
421	0.169
422	0.17
422	0.17
423	0.17
423	0.17
424	0.169
424	0.169
425	0.169
425	0.169
426	0.169
426	0.169
427	0.168
427	0.168
427	0.168
428	0.168
428	0.168
429	0.169
429	0.168
430	0.168
430	0.169
431	0.168
431	0.168
432	0.168
432	0.168
432	0.167
433	0.167
433	0.167
434	0.167
434	0.167
435	0.167
435	0.167
436	0.167
436	0.167
437	0.167
437	0.167
437	0.167
438	0.167
438	0.166
439	0.166
439	0.166
440	0.166
440	0.166
441	0.166
441	0.166
442	0.166
442	0.166
442	0.166
443	0.166
443	0.166
444	0.166
444	0.166
445	0.167
445	0.167
446	0.166
446	0.166
447	0.166
447	0.166
447	0.166
448	0.166
448	0.166
449	0.166
449	0.166
450	0.166
450	0.167
451	0.167
451	0.167
452	0.167
452	0.167
452	0.166
453	0.166
453	0.166
454	0.166
454	0.166
455	0.166
455	0.166
456	0.166
456	0.166
457	0.165
457	0.165
458	0.166
458	0.166
458	0.166
459	0.167
459	0.167
460	0.166
460	0.166
461	0.166
461	0.166
462	0.167
462	0.167
463	0.167
463	0.168
463	0.168
464	0.168
464	0.168
465	0.168
465	0.169
466	0.169
466	0.169
467	0.169
467	0.169
467	0.168
468	0.168
468	0.167
469	0.167
469	0.167
470	0.167
470	0.167
471	0.167
471	0.168
472	0.168
472	0.168
472	0.169
473	0.17
473	0.17
474	0.171
474	0.172
475	0.172
475	0.173
476	0.173
476	0.174
477	0.174
477	0.175
477	0.175
478	0.175
478	0.176
479	0.176
479	0.177
480	0.177
480	0.178
481	0.178
481	0.179
482	0.179
482	0.18
482	0.181
483	0.183
483	0.185
484	0.186
484	0.188
485	0.189
485	0.19
486	0.19
486	0.191
487	0.192
487	0.193
487	0.193
488	0.193
488	0.193
489	0.193
489	0.194
490	0.194
490	0.195
491	0.195
491	0.196
492	0.197
492	0.198
492	0.199
493	0.2
493	0.201
494	0.203
494	0.204
495	0.206
495	0.207
496	0.209
496	0.21
496	0.211
497	0.212
497	0.214
498	0.215
498	0.216
499	0.217
499	0.218
500	0.22
500	0.221
501	0.223
501	0.224
501	0.225
502	0.227
502	0.228
503	0.229
503	0.231
504	0.232
504	0.233
505	0.234
505	0.235
506	0.236
506	0.238
506	0.239
507	0.24
507	0.241
508	0.243
508	0.244
509	0.245
509	0.246
510	0.247
510	0.249
511	0.249
511	0.25
511	0.251
512	0.253
512	0.253
513	0.254
513	0.254
514	0.255
514	0.255
515	0.256
515	0.256
515	0.256
516	0.257
516	0.258
517	0.258
517	0.259
518	0.259
518	0.259
519	0.259
519	0.259
520	0.259
520	0.259
520	0.258
521	0.257
521	0.257
522	0.256
522	0.255
523	0.255
523	0.256
524	0.256
524	0.256
524	0.257
525	0.257
525	0.258
526	0.258
526	0.259
527	0.26
527	0.26
528	0.26
528	0.26
529	0.26
529	0.259
529	0.259
530	0.258
530	0.258
531	0.257
531	0.257
532	0.255
532	0.255
533	0.254
533	0.253
533	0.252
534	0.251
534	0.25
535	0.249
535	0.248
536	0.247
536	0.245
537	0.244
537	0.243
538	0.242
538	0.24
538	0.239
539	0.238
539	0.236
540	0.235
540	0.233
541	0.231
541	0.23
542	0.228
542	0.226
542	0.224
543	0.222
543	0.221
544	0.219
544	0.217
545	0.216
545	0.215
546	0.214
546	0.212
547	0.21
547	0.208
547	0.207
548	0.205
548	0.204
549	0.202
549	0.2
550	0.199
550	0.197
551	0.194
551	0.193
551	0.191
552	0.189
552	0.188
553	0.186
553	0.185
554	0.183
554	0.181
555	0.179
555	0.176
556	0.174
556	0.172
556	0.169
557	0.167
557	0.165
558	0.162
558	0.16
559	0.158
559	0.157
560	0.155
560	0.153
560	0.152
561	0.151
561	0.15
562	0.149
562	0.148
563	0.146
563	0.144
564	0.142
564	0.14
564	0.138
565	0.137
565	0.135
566	0.134
566	0.132
567	0.131
567	0.13
568	0.13
568	0.129
568	0.129
569	0.129
569	0.129
570	0.129
570	0.128
571	0.127
571	0.127
572	0.126
572	0.126
573	0.125
573	0.124
573	0.122
574	0.121
574	0.12
575	0.12
575	0.12
576	0.119
576	0.117
577	0.116
577	0.115
577	0.114
578	0.113
578	0.113
579	0.113
579	0.113
580	0.111
580	0.108
581	0.106
581	0.105
581	0.104
582	0.104
582	0.104
583	0.104
583	0.103
584	0.1
584	0.098
585	0.097
585	0.098
585	0.097
586	0.097
586	0.096
587	0.095
587	0.093
588	0.091
588	0.09
589	0.089
589	0.089
590	0.088
590	0.087
590	0.088
591	0.088
591	0.088
592	0.087
592	0.087
593	0.087
593	0.087
594	0.086
594	0.085
594	0.085
595	0.084
595	0.083
596	0.083
596	0.084
597	0.086
597	0.087
598	0.087
598	0.087
598	0.087
599	0.087
599	0.087
600	0.086
600	0.085
601	0.084
601	0.083
602	0.082
602	0.081
602	0.08
603	0.08
603	0.08
604	0.081
604	0.081
605	0.082
605	0.082
606	0.082
606	0.081
606	0.081
607	0.081
607	0.081
608	0.081
608	0.08
609	0.079
609	0.079
610	0.079
610	0.078
610	0.078
611	0.079
611	0.081
612	0.082
612	0.083
613	0.084
613	0.086
614	0.086
614	0.086
614	0.086
615	0.086
615	0.086
616	0.086
616	0.086
617	0.086
617	0.085
618	0.084
618	0.084
618	0.084
619	0.084
619	0.084
620	0.086
620	0.086
621	0.086
621	0.087
622	0.086
622	0.087
622	0.086
623	0.087
623	0.088
624	0.088
624	0.088
625	0.089
625	0.089
626	0.089
626	0.09
626	0.091
627	0.092
627	0.093
628	0.094
628	0.095
629	0.095
629	0.095
630	0.095
630	0.095
630	0.096
631	0.096
631	0.096
632	0.096
632	0.097
633	0.097
633	0.098
634	0.099
634	0.101
634	0.102
635	0.103
635	0.104
636	0.105
636	0.106
637	0.107
637	0.108
638	0.109
638	0.11
638	0.111
639	0.111
639	0.112
640	0.113
640	0.114
641	0.115
641	0.116
642	0.117
642	0.119
642	0.12
643	0.122
643	0.123
644	0.124
644	0.126
645	0.128
645	0.13
646	0.132
646	0.134
646	0.137
647	0.139
647	0.142
648	0.144
648	0.147
649	0.15
649	0.152
650	0.155
650	0.158
650	0.16
651	0.162
651	0.164
652	0.165
652	0.167
653	0.169
653	0.175
653	0.18
654	0.144
654	0.117
655	0.119
655	0.121
656	0.122
656	0.124
657	0.126
657	0.128
657	0.129
658	0.127
658	0.121
659	0.154
659	0.198
660	0.205
660	0.207
661	0.209
661	0.211
661	0.213
662	0.216
662	0.219
663	0.222
663	0.224
664	0.226
664	0.228
665	0.23
665	0.232
665	0.235
666	0.237
666	0.238
667	0.24
667	0.242
668	0.244
668	0.247
669	0.249
669	0.251
669	0.254
670	0.257
670	0.259
671	0.261
671	0.263
672	0.264
672	0.266
672	0.268
673	0.27
673	0.272
674	0.273
674	0.274
675	0.276
675	0.278
676	0.28
676	0.282
676	0.283
677	0.285
677	0.287
678	0.287
678	0.288
679	0.289
679	0.29
680	0.291
680	0.292
680	0.293
681	0.294
681	0.295
682	0.296
682	0.297
683	0.299
683	0.3
684	0.301
684	0.302
684	0.302
685	0.302
685	0.302
686	0.302
686	0.302
687	0.301
687	0.301
687	0.3
688	0.3
688	0.299
689	0.3
689	0.301
690	0.301
690	0.302
691	0.302
691	0.302
691	0.302
692	0.302
692	0.301
693	0.301
693	0.301
694	0.3
694	0.298
695	0.298
695	0.298
695	0.297
696	0.296
696	0.295
697	0.294
697	0.293
698	0.291
698	0.289
698	0.288
699	0.287
699	0.284
700	0.281
700	0.28
701	0.278
701	0.276
702	0.274
702	0.272
702	0.271
703	0.269
703	0.267
704	0.265
704	0.264
705	0.262
705	0.261
705	0.259
706	0.257
706	0.256
707	0.255
707	0.253
708	0.252
708	0.25
709	0.249
709	0.247
709	0.245
710	0.242
710	0.241
711	0.239
711	0.237
712	0.235
712	0.233
713	0.231
713	0.23
713	0.228
714	0.225
714	0.223
715	0.221
715	0.218
716	0.216
716	0.214
716	0.211
717	0.209
717	0.207
718	0.204
718	0.201
719	0.199
719	0.197
720	0.195
720	0.193
720	0.191
721	0.188
721	0.186
722	0.184
722	0.182
723	0.18
723	0.179
723	0.177
724	0.175
724	0.173
725	0.172
725	0.17
726	0.169
726	0.167
727	0.165
727	0.164
727	0.162
728	0.16
728	0.158
729	0.157
729	0.156
730	0.154
730	0.151
730	0.15
731	0.148
731	0.146
732	0.145
732	0.144
733	0.143
733	0.141
734	0.14
734	0.139
734	0.138
735	0.138
735	0.136
736	0.135
736	0.134
737	0.132
737	0.131
737	0.129
738	0.126
738	0.124
739	0.122
739	0.119
740	0.117
740	0.115
741	0.114
741	0.112
741	0.11
742	0.108
742	0.106
743	0.105
743	0.104
744	0.102
744	0.101
744	0.1
745	0.098
745	0.097
746	0.095
746	0.094
747	0.093
747	0.093
748	0.092
748	0.091
748	0.09
749	0.089
749	0.088
750	0.088
750	0.087
751	0.087
751	0.087
751	0.087
752	0.087
752	0.086
753	0.085
753	0.085
754	0.085
754	0.084
754	0.084
755	0.084
755	0.084
756	0.083
756	0.082
757	0.081
757	0.081
758	0.08
758	0.079
758	0.079
759	0.078
759	0.077
760	0.075
760	0.074
761	0.072
761	0.071
761	0.07
762	0.068
762	0.067
763	0.065
763	0.063
764	0.06
764	0.058
764	0.056
765	0.054
765	0.053
766	0.051
766	0.051
767	0.05
767	0.047
768	0.045
768	0.044
768	0.043
769	0.042
769	0.041
770	0.039
770	0.038
771	0.036
771	0.033
771	0.031
772	0.029
772	0.028
773	0.026
773	0.024
774	0.022
774	0.019
775	0.017
775	0.016
775	0.014
776	0.012
776	0.011
777	0.009
777	0.008
778	0.006
778	0.004
778	0.002
779	0.001
779	-0
780	-0.002
780	-0.005
781	-0.008
781	-0.011
781	-0.014
782	-0.018
782	-0.023
783	-0.027
783	-0.031
784	-0.035
784	-0.04
784	-0.045
785	-0.05
785	-0.055
786	-0.06
786	-0.064
787	-0.067
787	-0.071
788	-0.076
788	-0.083
788	-0.089
789	-0.096
789	-0.101
790	-0.103
790	-0.107
791	-0.112
791	-0.115
791	-0.118
792	-0.113
792	-0.104
793	-0.099
793	-0.095
794	-0.094
794	-0.096
794	-0.1
795	-0.102
795	-0.103
796	-0.103
796	-0.106
797	-0.115
797	-0.126
797	-0.132
798	-0.138
798	-0.141
799	-0.142
799	-0.141
800	-0.141
800	-0.142
801	-0.145
801	-0.146
801	-0.145
802	-0.146
802	-0.147
803	-0.148
803	-0.148
804	-0.147
804	-0.142
804	-0.135
805	-0.132
805	-0.13
806	-0.128
806	-0.127
807	-0.127
807	-0.127
807	-0.127
808	-0.127
808	-0.129
809	-0.133
809	-0.139
810	-0.143
810	-0.146
810	-0.149
811	-0.152
811	-0.153
812	-0.148
812	-0.145
813	-0.145
813	-0.146
813	-0.147
814	-0.149
814	-0.149
815	-0.147
815	-0.143
816	-0.139
816	-0.135
817	-0.134
817	-0.131
817	-0.125
818	-0.116
818	-0.105
819	-0.093
819	-0.083
820	-0.074
820	-0.066
820	-0.058
821	-0.05
821	-0.043
822	-0.037
822	-0.031
823	-0.026
823	-0.023
823	-0.019
824	-0.015
824	-0.011
825	-0.007
825	-0.003
826	0.001
826	0.003
826	0.005
827	0.008
827	0.01
828	0.011
828	0.013
829	0.014
829	0.015
829	0.015
830	0.016
830	0.016
831	0.018
831	0.019
832	0.019
832	0.019
832	0.02
833	0.02
833	0.021
834	0.021
834	0.022
835	0.022
835	0.022
835	0.021
836	0.022
836	0.022
837	0.022
837	0.023
838	0.023
838	0.024
839	0.024
839	0.024
839	0.024
840	0.024
840	0.025
841	0.025
841	0.025
842	0.025
842	0.025
842	0.025
843	0.025
843	0.025
844	0.026
844	0.026
845	0.026
845	0.026
845	0.026
846	0.026
846	0.025
847	0.025
847	0.026
848	0.026
848	0.026
848	0.026
849	0.027
849	0.027
850	0.028
850	0.028
851	0.028
851	0.029
851	0.029
852	0.029
852	0.029
853	0.028
853	0.028
854	0.027
854	0.027
854	0.026
855	0.026
855	0.025
856	0.025
856	0.024
857	0.024
857	0.024
857	0.024
858	0.024
858	0.024
859	0.025
859	0.025
860	0.025
860	0.026
860	0.026
861	0.027
861	0.028
862	0.028
862	0.029
863	0.029
863	0.029
863	0.03
864	0.03
864	0.031
865	0.031
865	0.032
866	0.033
866	0.034
866	0.035
867	0.035
867	0.036
868	0.037
868	0.037
869	0.037
869	0.036
869	0.036
870	0.035
870	0.034
871	0.034
871	0.033
872	0.033
872	0.032
872	0.032
873	0.032
873	0.032
874	0.031
874	0.031
875	0.031
875	0.031
875	0.03
876	0.03
876	0.029
877	0.028
877	0.027
878	0.026
878	0.025
878	0.024
879	0.023
879	0.023
880	0.023
880	0.023
881	0.023
881	0.023
881	0.023
882	0.023
882	0.023
883	0.023
883	0.023
884	0.023
884	0.023
884	0.022
885	0.022
885	0.022
886	0.022
886	0.022
887	0.022
887	0.022
887	0.023
888	0.023
888	0.023
889	0.024
889	0.025
890	0.026
890	0.026
890	0.027
891	0.027
891	0.027
892	0.028
892	0.028
893	0.029
893	0.029
893	0.029
894	0.029
894	0.029
895	0.029
895	0.028
895	0.028
896	0.028
896	0.028
897	0.028
897	0.027
898	0.027
898	0.027
898	0.027
899	0.027
899	0.027
900	0.027
900	0.027
901	0.027
901	0.027
901	0.027
902	0.028
902	0.028
903	0.028
903	0.028
904	0.029
904	0.029
904	0.03
905	0.031
905	0.031
906	0.031
906	0.031
907	0.031
907	0.031
907	0.031
908	0.031
908	0.032
909	0.032
909	0.032
910	0.032
910	0.033
910	0.033
911	0.033
911	0.033
912	0.033
912	0.033
913	0.032
913	0.032
913	0.031
914	0.031
914	0.03
915	0.029
915	0.029
916	0.028
916	0.027
916	0.026
917	0.026
917	0.024
918	0.023
918	0.022
918	0.021
919	0.02
919	0.019
920	0.018
920	0.018
921	0.018
921	0.017
921	0.017
922	0.018
922	0.018
923	0.018
923	0.018
924	0.019
924	0.019
924	0.02
925	0.02
925	0.02
926	0.021
926	0.021
927	0.021
927	0.022
927	0.022
928	0.022
928	0.021
929	0.021
929	0.02
930	0.02
930	0.019
930	0.018
931	0.018
931	0.017
932	0.017
932	0.016
933	0.016
933	0.016
933	0.015
934	0.015
934	0.015
935	0.014
935	0.014
935	0.013
936	0.013
936	0.012
937	0.012
937	0.011
938	0.011
938	0.011
938	0.011
939	0.011
939	0.012
940	0.012
940	0.013
941	0.014
941	0.015
941	0.015
942	0.016
942	0.017
943	0.018
943	0.018
944	0.019
944	0.019
944	0.019
945	0.02
945	0.02
946	0.02
946	0.021
946	0.021
947	0.022
947	0.022
948	0.023
948	0.024
949	0.024
949	0.025
949	0.026
950	0.026
950	0.026
951	0.027
951	0.027
952	0.027
952	0.027
952	0.026
953	0.026
953	0.025
954	0.024
954	0.024
955	0.023
955	0.023
955	0.023
956	0.023
956	0.022
957	0.022
957	0.022
957	0.022
958	0.022
958	0.022
959	0.023
959	0.023
960	0.023
960	0.023
960	0.023
961	0.023
961	0.023
962	0.023
962	0.024
963	0.025
963	0.025
963	0.025
964	0.026
964	0.026
965	0.026
965	0.027
966	0.027
966	0.027
966	0.027
967	0.026
967	0.025
968	0.024
968	0.023
968	0.022
969	0.021
969	0.02
970	0.02
970	0.019
971	0.018
971	0.018
971	0.017
972	0.017
972	0.017
973	0.017
973	0.017
974	0.017
974	0.018
974	0.018
975	0.019
975	0.02
976	0.021
976	0.022
976	0.023
977	0.024
977	0.024
978	0.025
978	0.026
979	0.026
979	0.026
979	0.026
980	0.026
980	0.025
981	0.024
981	0.024
982	0.023
982	0.022
982	0.021
983	0.02
983	0.019
984	0.017
984	0.017
984	0.015
985	0.014
985	0.013
986	0.012
986	0.011
987	0.01
987	0.01
987	0.009
988	0.009
988	0.009
989	0.009
989	0.01
990	0.01
990	0.011
990	0.012
991	0.013
991	0.014
992	0.015
992	0.016
992	0.016
993	0.017
993	0.017
994	0.018
994	0.018
995	0.018
995	0.018
995	0.017
996	0.017
996	0.017
997	0.016
997	0.016
997	0.016
998	0.016
998	0.017
999	0.017
999	0.018
1000	0.018
1000	0.019
1000	0.02
1001	0.021
1001	0.021
1002	0.022
1002	0.023
1003	0.023
1003	0.023
1003	0.023
1004	0.023
1004	0.023
1005	0.022
1005	0.022
1005	0.021
1006	0.02
1006	0.02
1007	0.019
1007	0.018
1008	0.018
1008	0.017
1008	0.017
1009	0.017
1009	0.017
1010	0.017
1010	0.017
1010	0.017
1011	0.017
1011	0.017
1012	0.017
1012	0.016
1013	0.016
1013	0.016
1013	0.015
1014	0.014
1014	0.013
1015	0.012
1015	0.011
1016	0.01
1016	0.009
1016	0.008
1017	0.007
1017	0.006
1018	0.005
1018	0.004
1018	0.004
1019	0.003
1019	0.003
1020	0.003
1020	0.002
1021	0.002
1021	0.002
1021	0.002
1022	0.003
1022	0.003
1023	0.004
1023	0.004
1023	0.005
1024	0.005
1024	0.005
1025	0.005
1025	0.005
1026	0.005
1026	0.005
1026	0.005
1027	0.005
1027	0.004
1028	0.005
1028	0.005
1028	0.004
1029	0.004
1029	0.004
1030	0.004
1030	0.003
1031	0.003
1031	0.003
1031	0.003
1032	0.003
1032	0.003
1033	0.003
1033	0.003
1033	0.003
1034	0.003
1034	0.002
1035	0.002
1035	0.002
1036	0.002
1036	0.002
1036	0.002
1037	0.002
1037	0.002
1038	0.002
1038	0.002
1039	0.002
1039	0.003
1039	0.004
1040	0.004
1040	0.005
1041	0.005
1041	0.006
1041	0.006
1042	0.007
1042	0.008
1043	0.008
1043	0.009
1044	0.01
1044	0.01
1044	0.011
1045	0.012
1045	0.012
1046	0.012
1046	0.012
1046	0.012
1047	0.012
1047	0.013
1048	0.013
1048	0.012
1049	0.012
1049	0.011
1049	0.01
1050	0.01
1050	0.009
1051	0.008
1051	0.007
1051	0.007
1052	0.006
1052	0.005
1053	0.004
1053	0.003
1053	0.003
1054	0.002
1054	0.001
1055	0
1055	-0.001
1056	-0.002
1056	-0.003
1056	-0.004
1057	-0.005
1057	-0.006
1058	-0.007
1058	-0.008
1058	-0.008
1059	-0.008
1059	-0.009
1060	-0.009
1060	-0.009
1061	-0.008
1061	-0.008
1061	-0.008
1062	-0.008
1062	-0.008
1063	-0.008
1063	-0.008
1063	-0.007
1064	-0.007
1064	-0.006
1065	-0.006
1065	-0.005
1066	-0.005
1066	-0.004
1066	-0.003
1067	-0.003
1067	-0.002
1068	-0.002
1068	-0.002
1068	-0.003
1069	-0.003
1069	-0.004
1070	-0.005
1070	-0.005
1071	-0.006
1071	-0.007
1071	-0.008
1072	-0.009
1072	-0.01
1073	-0.011
1073	-0.012
1073	-0.013
1074	-0.013
1074	-0.014
1075	-0.015
1075	-0.017
1076	-0.018
1076	-0.018
1076	-0.019
1077	-0.019
1077	-0.019
1078	-0.019
1078	-0.019
1078	-0.018
1079	-0.018
1079	-0.017
1080	-0.016
1080	-0.016
1080	-0.016
1081	-0.015
1081	-0.014
1082	-0.013
1082	-0.013
1083	-0.013
1083	-0.013
1083	-0.013
1084	-0.013
1084	-0.012
1085	-0.011
1085	-0.011
1085	-0.01
1086	-0.01
1086	-0.011
1087	-0.01
1087	-0.009
1088	-0.009
1088	-0.009
1088	-0.009
1089	-0.01
1089	-0.01
1090	-0.01
1090	-0.01
1090	-0.011
1091	-0.011
1091	-0.01
1092	-0.011
1092	-0.01
1092	-0.01
1093	-0.009
1093	-0.008
1094	-0.008
1094	-0.008
1095	-0.008
1095	-0.008
1095	-0.007
1096	-0.007
1096	-0.006
1097	-0.005
1097	-0.005
1097	-0.004
1098	-0.003
1098	-0.001
1099	-0
1099	0.002
1100	0.004
1100	0.004
1100	0.006
1101	0.007
1101	0.009
1102	0.012
1102	0.013
1102	0.015
1103	0.017
1103	0.02
1104	0.024
1104	0.027
1104	0.032
1105	0.036
1105	0.039
1106	0.042
1106	0.047
1107	0.051
1107	0.058
1107	0.066
1108	0.096
1108	0.135
1109	0.19
1109	0.273
1109	0.334
1110	0.454
1110	0.727
1111	-0
1111	-0
