Data from 17c-2a_Absorbance__1600__01601.txt Node

Date: Fri Jan 26 10:40:50 CET 2024
User: Marek
Spectrometer: MAYP115816
Trigger mode: 0
Integration Time (sec): 2.000000E-1
Scans to average: 10
Electric dark correction enabled: true
Nonlinearity correction enabled: true
Boxcar width: 5
XAxis mode: Wavelengths
Number of Pixels in Spectrum: 2068
>>>>>Begin Spectral Data<<<<<
199	-1.465
199	-1.328
200	-1.181
200	-1.071
201	-1.002
201	-0.959
202	-0.895
202	-0.846
203	-0.804
203	-0.769
204	-0.744
204	-0.721
205	-0.7
205	-0.691
205	-0.689
206	-0.684
206	-0.681
207	-0.678
207	-0.678
208	-0.678
208	-0.676
209	-0.673
209	-0.671
210	-0.673
210	-0.673
211	-0.674
211	-0.675
212	-0.676
212	-0.675
213	-0.674
213	-0.67
213	-0.67
214	-0.668
214	-0.666
215	-0.661
215	-0.659
216	-0.656
216	-0.656
217	-0.652
217	-0.651
218	-0.647
218	-0.645
219	-0.64
219	-0.639
220	-0.639
220	-0.64
221	-0.638
221	-0.637
221	-0.632
222	-0.627
222	-0.623
223	-0.619
223	-0.617
224	-0.613
224	-0.605
225	-0.597
225	-0.59
226	-0.581
226	-0.569
227	-0.559
227	-0.549
228	-0.533
228	-0.517
229	-0.497
229	-0.475
229	-0.452
230	-0.425
230	-0.396
231	-0.366
231	-0.332
232	-0.298
232	-0.261
233	-0.223
233	-0.184
234	-0.147
234	-0.111
235	-0.074
235	-0.039
236	-0.006
236	0.027
236	0.058
237	0.085
237	0.111
238	0.134
238	0.155
239	0.176
239	0.193
240	0.209
240	0.224
241	0.237
241	0.248
242	0.259
242	0.269
243	0.278
243	0.285
243	0.293
244	0.299
244	0.305
245	0.31
245	0.315
246	0.32
246	0.325
247	0.329
247	0.333
248	0.337
248	0.341
249	0.344
249	0.347
250	0.351
250	0.354
250	0.357
251	0.36
251	0.362
252	0.365
252	0.367
253	0.369
253	0.371
254	0.373
254	0.375
255	0.376
255	0.378
256	0.379
256	0.381
257	0.382
257	0.383
258	0.384
258	0.385
258	0.385
259	0.386
259	0.386
260	0.387
260	0.387
261	0.387
261	0.387
262	0.387
262	0.387
263	0.387
263	0.386
264	0.386
264	0.386
265	0.385
265	0.384
265	0.383
266	0.382
266	0.381
267	0.38
267	0.379
268	0.377
268	0.376
269	0.375
269	0.373
270	0.371
270	0.37
271	0.368
271	0.366
272	0.364
272	0.362
272	0.361
273	0.358
273	0.356
274	0.354
274	0.352
275	0.35
275	0.348
276	0.346
276	0.344
277	0.342
277	0.339
278	0.337
278	0.335
278	0.332
279	0.33
279	0.327
280	0.325
280	0.323
281	0.32
281	0.318
282	0.316
282	0.314
283	0.312
283	0.31
284	0.308
284	0.307
285	0.305
285	0.303
285	0.301
286	0.299
286	0.297
287	0.296
287	0.294
288	0.292
288	0.29
289	0.289
289	0.287
290	0.285
290	0.284
291	0.282
291	0.281
292	0.28
292	0.278
292	0.277
293	0.276
293	0.275
294	0.273
294	0.272
295	0.271
295	0.27
296	0.269
296	0.268
297	0.267
297	0.266
298	0.266
298	0.265
298	0.264
299	0.263
299	0.262
300	0.262
300	0.261
301	0.26
301	0.259
302	0.259
302	0.258
303	0.257
303	0.257
304	0.256
304	0.255
305	0.255
305	0.254
305	0.253
306	0.252
306	0.252
307	0.251
307	0.25
308	0.249
308	0.249
309	0.248
309	0.247
310	0.247
310	0.246
311	0.245
311	0.245
311	0.244
312	0.244
312	0.243
313	0.242
313	0.242
314	0.241
314	0.24
315	0.239
315	0.239
316	0.238
316	0.238
317	0.237
317	0.236
318	0.236
318	0.235
318	0.235
319	0.234
319	0.233
320	0.233
320	0.232
321	0.231
321	0.231
322	0.23
322	0.229
323	0.229
323	0.228
324	0.227
324	0.227
324	0.226
325	0.225
325	0.225
326	0.224
326	0.224
327	0.223
327	0.222
328	0.222
328	0.221
329	0.221
329	0.22
330	0.219
330	0.219
330	0.218
331	0.217
331	0.217
332	0.216
332	0.216
333	0.215
333	0.215
334	0.214
334	0.214
335	0.213
335	0.213
336	0.212
336	0.212
336	0.211
337	0.211
337	0.21
338	0.21
338	0.209
339	0.209
339	0.208
340	0.208
340	0.207
341	0.207
341	0.206
342	0.206
342	0.206
342	0.205
343	0.205
343	0.205
344	0.204
344	0.204
345	0.204
345	0.203
346	0.203
346	0.203
347	0.202
347	0.202
348	0.201
348	0.201
348	0.201
349	0.2
349	0.2
350	0.2
350	0.199
351	0.199
351	0.199
352	0.199
352	0.199
353	0.198
353	0.198
354	0.198
354	0.198
354	0.197
355	0.197
355	0.197
356	0.196
356	0.196
357	0.195
357	0.195
358	0.195
358	0.195
359	0.195
359	0.195
360	0.195
360	0.195
360	0.195
361	0.195
361	0.195
362	0.196
362	0.196
363	0.196
363	0.195
364	0.195
364	0.195
365	0.195
365	0.195
366	0.195
366	0.195
366	0.195
367	0.195
367	0.195
368	0.194
368	0.194
369	0.194
369	0.194
370	0.193
370	0.193
371	0.193
371	0.192
372	0.192
372	0.192
372	0.192
373	0.192
373	0.192
374	0.192
374	0.192
375	0.191
375	0.192
376	0.192
376	0.192
377	0.192
377	0.192
378	0.192
378	0.192
378	0.192
379	0.192
379	0.192
380	0.191
380	0.191
381	0.191
381	0.191
382	0.191
382	0.19
383	0.19
383	0.19
383	0.19
384	0.19
384	0.189
385	0.189
385	0.189
386	0.189
386	0.189
387	0.189
387	0.189
388	0.188
388	0.189
389	0.188
389	0.188
389	0.188
390	0.188
390	0.188
391	0.188
391	0.188
392	0.188
392	0.188
393	0.188
393	0.188
394	0.188
394	0.188
394	0.187
395	0.187
395	0.187
396	0.187
396	0.186
397	0.186
397	0.186
398	0.186
398	0.186
399	0.185
399	0.185
400	0.185
400	0.185
400	0.185
401	0.184
401	0.184
402	0.184
402	0.183
403	0.183
403	0.183
404	0.183
404	0.183
405	0.183
405	0.182
405	0.182
406	0.182
406	0.182
407	0.182
407	0.182
408	0.182
408	0.181
409	0.181
409	0.181
410	0.181
410	0.181
411	0.181
411	0.181
411	0.181
412	0.181
412	0.181
413	0.18
413	0.18
414	0.18
414	0.18
415	0.18
415	0.179
416	0.179
416	0.179
416	0.179
417	0.179
417	0.179
418	0.179
418	0.179
419	0.179
419	0.179
420	0.179
420	0.18
421	0.18
421	0.18
421	0.18
422	0.18
422	0.18
423	0.18
423	0.18
424	0.18
424	0.179
425	0.179
425	0.179
426	0.179
426	0.179
427	0.179
427	0.178
427	0.179
428	0.179
428	0.179
429	0.179
429	0.179
430	0.179
430	0.179
431	0.179
431	0.179
432	0.179
432	0.178
432	0.178
433	0.178
433	0.177
434	0.177
434	0.177
435	0.177
435	0.177
436	0.177
436	0.178
437	0.178
437	0.177
437	0.177
438	0.177
438	0.177
439	0.177
439	0.177
440	0.176
440	0.176
441	0.176
441	0.176
442	0.176
442	0.176
442	0.177
443	0.177
443	0.177
444	0.177
444	0.177
445	0.177
445	0.177
446	0.177
446	0.177
447	0.177
447	0.177
447	0.176
448	0.177
448	0.177
449	0.177
449	0.176
450	0.177
450	0.177
451	0.177
451	0.177
452	0.177
452	0.177
452	0.177
453	0.176
453	0.176
454	0.176
454	0.176
455	0.176
455	0.176
456	0.176
456	0.176
457	0.176
457	0.176
458	0.176
458	0.176
458	0.177
459	0.177
459	0.177
460	0.177
460	0.176
461	0.177
461	0.177
462	0.177
462	0.177
463	0.178
463	0.178
463	0.178
464	0.179
464	0.178
465	0.179
465	0.179
466	0.179
466	0.179
467	0.179
467	0.179
467	0.179
468	0.179
468	0.178
469	0.178
469	0.178
470	0.179
470	0.179
471	0.179
471	0.179
472	0.179
472	0.179
472	0.18
473	0.181
473	0.181
474	0.182
474	0.182
475	0.183
475	0.183
476	0.184
476	0.184
477	0.185
477	0.185
477	0.186
478	0.186
478	0.186
479	0.187
479	0.187
480	0.188
480	0.189
481	0.189
481	0.19
482	0.191
482	0.191
482	0.193
483	0.194
483	0.196
484	0.198
484	0.199
485	0.2
485	0.201
486	0.202
486	0.203
487	0.204
487	0.205
487	0.205
488	0.206
488	0.205
489	0.205
489	0.206
490	0.206
490	0.207
491	0.207
491	0.208
492	0.209
492	0.21
492	0.211
493	0.212
493	0.213
494	0.215
494	0.217
495	0.218
495	0.22
496	0.221
496	0.222
496	0.224
497	0.225
497	0.227
498	0.228
498	0.229
499	0.23
499	0.232
500	0.233
500	0.235
501	0.236
501	0.238
501	0.239
502	0.241
502	0.242
503	0.244
503	0.245
504	0.246
504	0.247
505	0.249
505	0.25
506	0.252
506	0.253
506	0.254
507	0.255
507	0.257
508	0.258
508	0.259
509	0.261
509	0.262
510	0.263
510	0.264
511	0.265
511	0.266
511	0.267
512	0.268
512	0.269
513	0.269
513	0.27
514	0.27
514	0.271
515	0.271
515	0.272
515	0.272
516	0.273
516	0.274
517	0.275
517	0.275
518	0.276
518	0.276
519	0.276
519	0.276
520	0.275
520	0.275
520	0.275
521	0.274
521	0.273
522	0.272
522	0.272
523	0.272
523	0.272
524	0.273
524	0.273
524	0.274
525	0.274
525	0.275
526	0.276
526	0.276
527	0.277
527	0.277
528	0.277
528	0.277
529	0.276
529	0.276
529	0.275
530	0.275
530	0.274
531	0.273
531	0.273
532	0.272
532	0.271
533	0.27
533	0.269
533	0.268
534	0.267
534	0.265
535	0.264
535	0.263
536	0.262
536	0.26
537	0.259
537	0.258
538	0.256
538	0.255
538	0.253
539	0.252
539	0.251
540	0.249
540	0.247
541	0.245
541	0.243
542	0.241
542	0.24
542	0.238
543	0.236
543	0.234
544	0.232
544	0.231
545	0.229
545	0.228
546	0.227
546	0.225
547	0.223
547	0.221
547	0.22
548	0.218
548	0.216
549	0.215
549	0.213
550	0.211
550	0.209
551	0.207
551	0.205
551	0.203
552	0.201
552	0.199
553	0.197
553	0.196
554	0.194
554	0.191
555	0.189
555	0.187
556	0.185
556	0.182
556	0.179
557	0.177
557	0.175
558	0.172
558	0.17
559	0.168
559	0.166
560	0.164
560	0.163
560	0.161
561	0.16
561	0.159
562	0.158
562	0.157
563	0.155
563	0.153
564	0.151
564	0.149
564	0.147
565	0.145
565	0.144
566	0.142
566	0.141
567	0.139
567	0.138
568	0.138
568	0.138
568	0.137
569	0.137
569	0.137
570	0.136
570	0.135
571	0.135
571	0.135
572	0.134
572	0.133
573	0.132
573	0.131
573	0.129
574	0.129
574	0.128
575	0.127
575	0.127
576	0.126
576	0.124
577	0.123
577	0.121
577	0.12
578	0.119
578	0.119
579	0.119
579	0.119
580	0.117
580	0.114
581	0.112
581	0.111
581	0.11
582	0.11
582	0.109
583	0.109
583	0.108
584	0.106
584	0.103
585	0.103
585	0.103
585	0.103
586	0.102
586	0.102
587	0.1
587	0.098
588	0.097
588	0.095
589	0.095
589	0.094
590	0.093
590	0.093
590	0.094
591	0.094
591	0.093
592	0.092
592	0.092
593	0.092
593	0.092
594	0.091
594	0.09
594	0.09
595	0.089
595	0.088
596	0.088
596	0.089
597	0.091
597	0.091
598	0.091
598	0.092
598	0.092
599	0.092
599	0.091
600	0.09
600	0.089
601	0.088
601	0.087
602	0.086
602	0.085
602	0.084
603	0.084
603	0.085
604	0.085
604	0.085
605	0.086
605	0.087
606	0.087
606	0.086
606	0.086
607	0.085
607	0.085
608	0.085
608	0.084
609	0.083
609	0.083
610	0.082
610	0.082
610	0.083
611	0.084
611	0.085
612	0.086
612	0.087
613	0.089
613	0.09
614	0.09
614	0.09
614	0.091
615	0.091
615	0.09
616	0.091
616	0.09
617	0.09
617	0.09
618	0.089
618	0.089
618	0.089
619	0.089
619	0.089
620	0.091
620	0.091
621	0.091
621	0.091
622	0.091
622	0.091
622	0.091
623	0.091
623	0.092
624	0.093
624	0.093
625	0.093
625	0.094
626	0.094
626	0.095
626	0.096
627	0.097
627	0.098
628	0.099
628	0.099
629	0.1
629	0.1
630	0.1
630	0.1
630	0.1
631	0.101
631	0.101
632	0.101
632	0.101
633	0.102
633	0.103
634	0.104
634	0.106
634	0.107
635	0.109
635	0.11
636	0.111
636	0.112
637	0.113
637	0.113
638	0.115
638	0.116
638	0.116
639	0.117
639	0.117
640	0.118
640	0.119
641	0.12
641	0.121
642	0.123
642	0.124
642	0.126
643	0.127
643	0.128
644	0.13
644	0.132
645	0.134
645	0.136
646	0.138
646	0.14
646	0.143
647	0.146
647	0.149
648	0.151
648	0.154
649	0.157
649	0.16
650	0.162
650	0.165
650	0.168
651	0.17
651	0.172
652	0.173
652	0.175
653	0.177
653	0.184
653	0.188
654	0.15
654	0.121
655	0.124
655	0.126
656	0.127
656	0.129
657	0.131
657	0.133
657	0.134
658	0.132
658	0.127
659	0.161
659	0.207
660	0.214
660	0.217
661	0.219
661	0.221
661	0.223
662	0.226
662	0.229
663	0.232
663	0.234
664	0.236
664	0.238
665	0.241
665	0.243
665	0.246
666	0.248
666	0.25
667	0.252
667	0.254
668	0.256
668	0.259
669	0.261
669	0.264
669	0.267
670	0.27
670	0.272
671	0.274
671	0.275
672	0.277
672	0.279
672	0.281
673	0.283
673	0.285
674	0.286
674	0.287
675	0.289
675	0.291
676	0.293
676	0.295
676	0.296
677	0.298
677	0.299
678	0.3
678	0.301
679	0.302
679	0.303
680	0.304
680	0.305
680	0.306
681	0.307
681	0.308
682	0.309
682	0.31
683	0.312
683	0.314
684	0.315
684	0.315
684	0.315
685	0.316
685	0.316
686	0.316
686	0.315
687	0.315
687	0.314
687	0.314
688	0.313
688	0.313
689	0.313
689	0.314
690	0.315
690	0.315
691	0.315
691	0.316
691	0.316
692	0.315
692	0.315
693	0.315
693	0.314
694	0.313
694	0.311
695	0.311
695	0.311
695	0.31
696	0.309
696	0.307
697	0.307
697	0.306
698	0.304
698	0.302
698	0.301
699	0.299
699	0.297
700	0.294
700	0.292
701	0.291
701	0.289
702	0.287
702	0.285
702	0.283
703	0.281
703	0.279
704	0.277
704	0.276
705	0.275
705	0.273
705	0.271
706	0.27
706	0.269
707	0.267
707	0.265
708	0.264
708	0.262
709	0.261
709	0.259
709	0.257
710	0.254
710	0.253
711	0.251
711	0.249
712	0.247
712	0.245
713	0.243
713	0.241
713	0.239
714	0.237
714	0.234
715	0.232
715	0.229
716	0.226
716	0.224
716	0.221
717	0.219
717	0.216
718	0.214
718	0.211
719	0.209
719	0.207
720	0.205
720	0.202
720	0.2
721	0.198
721	0.196
722	0.193
722	0.191
723	0.189
723	0.187
723	0.185
724	0.184
724	0.182
725	0.18
725	0.179
726	0.177
726	0.175
727	0.173
727	0.172
727	0.17
728	0.168
728	0.166
729	0.165
729	0.163
730	0.161
730	0.158
730	0.157
731	0.155
731	0.153
732	0.152
732	0.151
733	0.149
733	0.148
734	0.147
734	0.145
734	0.145
735	0.144
735	0.143
736	0.141
736	0.14
737	0.138
737	0.137
737	0.135
738	0.132
738	0.129
739	0.127
739	0.125
740	0.122
740	0.121
741	0.119
741	0.117
741	0.115
742	0.112
742	0.111
743	0.11
743	0.108
744	0.107
744	0.106
744	0.105
745	0.103
745	0.101
746	0.1
746	0.099
747	0.098
747	0.098
748	0.097
748	0.096
748	0.095
749	0.094
749	0.094
750	0.093
750	0.092
751	0.092
751	0.092
751	0.092
752	0.091
752	0.09
753	0.089
753	0.089
754	0.089
754	0.088
754	0.088
755	0.087
755	0.087
756	0.086
756	0.085
757	0.084
757	0.084
758	0.083
758	0.082
758	0.082
759	0.082
759	0.08
760	0.079
760	0.077
761	0.076
761	0.075
761	0.073
762	0.071
762	0.07
763	0.068
763	0.066
764	0.063
764	0.061
764	0.059
765	0.058
765	0.056
766	0.055
766	0.054
767	0.053
767	0.05
768	0.048
768	0.047
768	0.046
769	0.045
769	0.044
770	0.043
770	0.041
771	0.039
771	0.037
771	0.035
772	0.033
772	0.031
773	0.03
773	0.027
774	0.025
774	0.022
775	0.02
775	0.018
775	0.016
776	0.015
776	0.013
777	0.011
777	0.01
778	0.008
778	0.006
778	0.004
779	0.003
779	0.001
780	-0.001
780	-0.004
781	-0.006
781	-0.009
781	-0.013
782	-0.017
782	-0.022
783	-0.026
783	-0.03
784	-0.034
784	-0.039
784	-0.044
785	-0.049
785	-0.054
786	-0.059
786	-0.063
787	-0.066
787	-0.07
788	-0.075
788	-0.082
788	-0.089
789	-0.096
789	-0.101
790	-0.103
790	-0.107
791	-0.112
791	-0.115
791	-0.118
792	-0.113
792	-0.104
793	-0.099
793	-0.095
794	-0.094
794	-0.096
794	-0.1
795	-0.102
795	-0.103
796	-0.103
796	-0.106
797	-0.115
797	-0.126
797	-0.132
798	-0.138
798	-0.141
799	-0.142
799	-0.141
800	-0.141
800	-0.142
801	-0.145
801	-0.146
801	-0.145
802	-0.146
802	-0.147
803	-0.148
803	-0.148
804	-0.147
804	-0.142
804	-0.135
805	-0.132
805	-0.13
806	-0.128
806	-0.127
807	-0.127
807	-0.127
807	-0.127
808	-0.127
808	-0.129
809	-0.133
809	-0.139
810	-0.143
810	-0.146
810	-0.149
811	-0.152
811	-0.153
812	-0.149
812	-0.145
813	-0.145
813	-0.146
813	-0.147
814	-0.149
814	-0.149
815	-0.147
815	-0.143
816	-0.139
816	-0.135
817	-0.134
817	-0.131
817	-0.124
818	-0.115
818	-0.105
819	-0.093
819	-0.083
820	-0.074
820	-0.065
820	-0.057
821	-0.049
821	-0.042
822	-0.036
822	-0.031
823	-0.026
823	-0.022
823	-0.018
824	-0.015
824	-0.01
825	-0.006
825	-0.002
826	0.001
826	0.003
826	0.006
827	0.008
827	0.01
828	0.012
828	0.013
829	0.015
829	0.016
829	0.016
830	0.017
830	0.017
831	0.019
831	0.02
832	0.02
832	0.021
832	0.021
833	0.022
833	0.022
834	0.022
834	0.022
835	0.023
835	0.022
835	0.022
836	0.022
836	0.023
837	0.023
837	0.023
838	0.024
838	0.024
839	0.024
839	0.025
839	0.025
840	0.025
840	0.025
841	0.025
841	0.025
842	0.025
842	0.026
842	0.026
843	0.026
843	0.026
844	0.026
844	0.026
845	0.026
845	0.026
845	0.026
846	0.026
846	0.026
847	0.026
847	0.026
848	0.026
848	0.026
848	0.027
849	0.027
849	0.028
850	0.028
850	0.029
851	0.029
851	0.03
851	0.03
852	0.03
852	0.03
853	0.029
853	0.028
854	0.028
854	0.027
854	0.027
855	0.027
855	0.026
856	0.025
856	0.025
857	0.025
857	0.025
857	0.025
858	0.025
858	0.025
859	0.025
859	0.026
860	0.026
860	0.027
860	0.027
861	0.028
861	0.029
862	0.029
862	0.029
863	0.03
863	0.03
863	0.031
864	0.031
864	0.032
865	0.032
865	0.033
866	0.034
866	0.034
866	0.035
867	0.036
867	0.036
868	0.037
868	0.037
869	0.036
869	0.036
869	0.035
870	0.034
870	0.033
871	0.033
871	0.032
872	0.031
872	0.031
872	0.031
873	0.031
873	0.031
874	0.031
874	0.031
875	0.031
875	0.031
875	0.03
876	0.029
876	0.029
877	0.028
877	0.027
878	0.026
878	0.025
878	0.025
879	0.024
879	0.024
880	0.023
880	0.023
881	0.023
881	0.023
881	0.024
882	0.024
882	0.024
883	0.024
883	0.024
884	0.023
884	0.023
884	0.023
885	0.022
885	0.022
886	0.022
886	0.022
887	0.022
887	0.022
887	0.022
888	0.023
888	0.023
889	0.024
889	0.025
890	0.026
890	0.026
890	0.027
891	0.027
891	0.027
892	0.028
892	0.028
893	0.029
893	0.029
893	0.029
894	0.029
894	0.029
895	0.029
895	0.029
895	0.028
896	0.028
896	0.028
897	0.028
897	0.028
898	0.028
898	0.028
898	0.027
899	0.027
899	0.027
900	0.027
900	0.028
901	0.028
901	0.027
901	0.028
902	0.028
902	0.028
903	0.028
903	0.028
904	0.029
904	0.029
904	0.03
905	0.031
905	0.031
906	0.031
906	0.031
907	0.031
907	0.031
907	0.031
908	0.031
908	0.031
909	0.032
909	0.032
910	0.032
910	0.032
910	0.032
911	0.032
911	0.033
912	0.032
912	0.032
913	0.032
913	0.032
913	0.031
914	0.03
914	0.03
915	0.029
915	0.029
916	0.028
916	0.028
916	0.027
917	0.026
917	0.025
918	0.024
918	0.023
918	0.022
919	0.021
919	0.02
920	0.019
920	0.019
921	0.019
921	0.018
921	0.018
922	0.018
922	0.019
923	0.019
923	0.019
924	0.02
924	0.02
924	0.02
925	0.021
925	0.021
926	0.022
926	0.022
927	0.022
927	0.022
927	0.022
928	0.022
928	0.022
929	0.021
929	0.021
930	0.02
930	0.02
930	0.019
931	0.018
931	0.018
932	0.018
932	0.018
933	0.017
933	0.017
933	0.017
934	0.016
934	0.016
935	0.016
935	0.015
935	0.014
936	0.014
936	0.013
937	0.013
937	0.012
938	0.012
938	0.011
938	0.012
939	0.012
939	0.012
940	0.013
940	0.014
941	0.015
941	0.015
941	0.016
942	0.017
942	0.018
943	0.019
943	0.019
944	0.02
944	0.02
944	0.021
945	0.021
945	0.022
946	0.022
946	0.022
946	0.023
947	0.023
947	0.024
948	0.025
948	0.025
949	0.026
949	0.026
949	0.027
950	0.027
950	0.027
951	0.028
951	0.027
952	0.027
952	0.027
952	0.026
953	0.026
953	0.025
954	0.024
954	0.024
955	0.023
955	0.023
955	0.023
956	0.023
956	0.023
957	0.022
957	0.022
957	0.022
958	0.023
958	0.023
959	0.023
959	0.023
960	0.023
960	0.024
960	0.024
961	0.024
961	0.024
962	0.024
962	0.025
963	0.025
963	0.025
963	0.026
964	0.026
964	0.026
965	0.026
965	0.026
966	0.026
966	0.026
966	0.026
967	0.025
967	0.025
968	0.024
968	0.023
968	0.022
969	0.021
969	0.021
970	0.02
970	0.019
971	0.018
971	0.018
971	0.018
972	0.018
972	0.018
973	0.018
973	0.018
974	0.018
974	0.018
974	0.019
975	0.019
975	0.02
976	0.021
976	0.022
976	0.023
977	0.024
977	0.024
978	0.025
978	0.026
979	0.026
979	0.026
979	0.026
980	0.026
980	0.025
981	0.024
981	0.024
982	0.023
982	0.022
982	0.021
983	0.02
983	0.019
984	0.017
984	0.016
984	0.015
985	0.014
985	0.013
986	0.012
986	0.011
987	0.01
987	0.009
987	0.009
988	0.009
988	0.009
989	0.009
989	0.009
990	0.01
990	0.01
990	0.011
991	0.013
991	0.014
992	0.015
992	0.016
992	0.016
993	0.017
993	0.017
994	0.018
994	0.018
995	0.018
995	0.018
995	0.018
996	0.017
996	0.017
997	0.016
997	0.016
997	0.016
998	0.016
998	0.016
999	0.017
999	0.017
1000	0.018
1000	0.019
1000	0.019
1001	0.02
1001	0.021
1002	0.022
1002	0.022
1003	0.023
1003	0.023
1003	0.023
1004	0.022
1004	0.022
1005	0.021
1005	0.021
1005	0.02
1006	0.019
1006	0.019
1007	0.018
1007	0.017
1008	0.017
1008	0.017
1008	0.017
1009	0.016
1009	0.016
1010	0.017
1010	0.017
1010	0.017
1011	0.017
1011	0.017
1012	0.017
1012	0.016
1013	0.016
1013	0.016
1013	0.015
1014	0.014
1014	0.013
1015	0.012
1015	0.011
1016	0.01
1016	0.009
1016	0.009
1017	0.008
1017	0.007
1018	0.006
1018	0.005
1018	0.005
1019	0.004
1019	0.004
1020	0.003
1020	0.003
1021	0.003
1021	0.003
1021	0.003
1022	0.003
1022	0.004
1023	0.005
1023	0.005
1023	0.005
1024	0.005
1024	0.005
1025	0.005
1025	0.006
1026	0.006
1026	0.005
1026	0.005
1027	0.005
1027	0.005
1028	0.005
1028	0.004
1028	0.004
1029	0.004
1029	0.004
1030	0.003
1030	0.003
1031	0.003
1031	0.003
1031	0.003
1032	0.003
1032	0.003
1033	0.003
1033	0.003
1033	0.003
1034	0.003
1034	0.002
1035	0.002
1035	0.002
1036	0.002
1036	0.002
1036	0.002
1037	0.002
1037	0.002
1038	0.002
1038	0.002
1039	0.002
1039	0.003
1039	0.003
1040	0.004
1040	0.005
1041	0.005
1041	0.006
1041	0.007
1042	0.007
1042	0.008
1043	0.009
1043	0.009
1044	0.01
1044	0.011
1044	0.012
1045	0.012
1045	0.013
1046	0.013
1046	0.013
1046	0.013
1047	0.013
1047	0.014
1048	0.014
1048	0.013
1049	0.013
1049	0.012
1049	0.011
1050	0.01
1050	0.01
1051	0.009
1051	0.008
1051	0.007
1052	0.007
1052	0.006
1053	0.005
1053	0.004
1053	0.003
1054	0.002
1054	0.001
1055	0.001
1055	-0
1056	-0.001
1056	-0.003
1056	-0.004
1057	-0.005
1057	-0.006
1058	-0.007
1058	-0.008
1058	-0.008
1059	-0.009
1059	-0.009
1060	-0.01
1060	-0.01
1061	-0.009
1061	-0.009
1061	-0.009
1062	-0.008
1062	-0.008
1063	-0.008
1063	-0.008
1063	-0.007
1064	-0.007
1064	-0.006
1065	-0.005
1065	-0.005
1066	-0.005
1066	-0.004
1066	-0.004
1067	-0.003
1067	-0.003
1068	-0.003
1068	-0.003
1068	-0.003
1069	-0.004
1069	-0.005
1070	-0.005
1070	-0.006
1071	-0.007
1071	-0.008
1071	-0.009
1072	-0.01
1072	-0.011
1073	-0.012
1073	-0.013
1073	-0.014
1074	-0.014
1074	-0.015
1075	-0.016
1075	-0.017
1076	-0.018
1076	-0.018
1076	-0.019
1077	-0.019
1077	-0.019
1078	-0.02
1078	-0.02
1078	-0.019
1079	-0.019
1079	-0.017
1080	-0.017
1080	-0.015
1080	-0.015
1081	-0.014
1081	-0.013
1082	-0.012
1082	-0.012
1083	-0.012
1083	-0.012
1083	-0.011
1084	-0.011
1084	-0.011
1085	-0.011
1085	-0.01
1085	-0.01
1086	-0.01
1086	-0.01
1087	-0.009
1087	-0.009
1088	-0.009
1088	-0.009
1088	-0.009
1089	-0.01
1089	-0.01
1090	-0.011
1090	-0.011
1090	-0.011
1091	-0.011
1091	-0.011
1092	-0.011
1092	-0.01
1092	-0.01
1093	-0.01
1093	-0.009
1094	-0.009
1094	-0.009
1095	-0.009
1095	-0.009
1095	-0.008
1096	-0.008
1096	-0.007
1097	-0.007
1097	-0.005
1097	-0.005
1098	-0.003
1098	-0.001
1099	0.001
1099	0.003
1100	0.004
1100	0.006
1100	0.007
1101	0.008
1101	0.009
1102	0.011
1102	0.012
1102	0.014
1103	0.016
1103	0.019
1104	0.023
1104	0.026
1104	0.03
1105	0.035
1105	0.039
1106	0.042
1106	0.047
1107	0.05
1107	0.057
1107	0.066
1108	0.095
1108	0.134
1109	0.189
1109	0.27
1109	0.329
1110	0.448
1110	0.721
1111	-0
1111	-0
