Data from 17c-2a_Absorbance__988__00989.txt Node

Date: Fri Jan 26 10:20:26 CET 2024
User: Marek
Spectrometer: MAYP115816
Trigger mode: 0
Integration Time (sec): 2.000000E-1
Scans to average: 10
Electric dark correction enabled: true
Nonlinearity correction enabled: true
Boxcar width: 5
XAxis mode: Wavelengths
Number of Pixels in Spectrum: 2068
>>>>>Begin Spectral Data<<<<<
199	-1.349
199	-1.215
200	-1.072
200	-0.966
201	-0.899
201	-0.858
202	-0.798
202	-0.751
203	-0.713
203	-0.681
204	-0.658
204	-0.636
205	-0.617
205	-0.608
205	-0.606
206	-0.601
206	-0.599
207	-0.595
207	-0.596
208	-0.595
208	-0.593
209	-0.59
209	-0.589
210	-0.59
210	-0.591
211	-0.591
211	-0.593
212	-0.594
212	-0.593
213	-0.591
213	-0.588
213	-0.588
214	-0.586
214	-0.585
215	-0.58
215	-0.578
216	-0.575
216	-0.574
217	-0.571
217	-0.569
218	-0.566
218	-0.565
219	-0.561
219	-0.56
220	-0.559
220	-0.56
221	-0.557
221	-0.557
221	-0.553
222	-0.548
222	-0.545
223	-0.541
223	-0.538
224	-0.534
224	-0.527
225	-0.519
225	-0.512
226	-0.504
226	-0.494
227	-0.484
227	-0.475
228	-0.46
228	-0.445
229	-0.427
229	-0.407
229	-0.385
230	-0.361
230	-0.333
231	-0.306
231	-0.275
232	-0.244
232	-0.211
233	-0.178
233	-0.145
234	-0.113
234	-0.082
235	-0.052
235	-0.024
236	0.003
236	0.028
236	0.052
237	0.074
237	0.093
238	0.111
238	0.127
239	0.143
239	0.156
240	0.168
240	0.178
241	0.187
241	0.196
242	0.204
242	0.211
243	0.218
243	0.224
243	0.229
244	0.234
244	0.238
245	0.242
245	0.246
246	0.25
246	0.254
247	0.257
247	0.26
248	0.263
248	0.266
249	0.269
249	0.272
250	0.274
250	0.277
250	0.279
251	0.281
251	0.284
252	0.286
252	0.288
253	0.29
253	0.291
254	0.293
254	0.295
255	0.296
255	0.297
256	0.299
256	0.3
257	0.301
257	0.302
258	0.303
258	0.304
258	0.304
259	0.305
259	0.305
260	0.305
260	0.305
261	0.305
261	0.306
262	0.305
262	0.305
263	0.305
263	0.305
264	0.304
264	0.304
265	0.304
265	0.303
265	0.302
266	0.301
266	0.3
267	0.299
267	0.297
268	0.296
268	0.295
269	0.293
269	0.292
270	0.29
270	0.288
271	0.287
271	0.285
272	0.284
272	0.282
272	0.28
273	0.278
273	0.276
274	0.274
274	0.272
275	0.271
275	0.269
276	0.267
276	0.265
277	0.263
277	0.261
278	0.259
278	0.257
278	0.255
279	0.252
279	0.25
280	0.248
280	0.246
281	0.244
281	0.242
282	0.24
282	0.238
283	0.236
283	0.234
284	0.232
284	0.231
285	0.229
285	0.228
285	0.226
286	0.224
286	0.223
287	0.221
287	0.219
288	0.218
288	0.216
289	0.215
289	0.213
290	0.212
290	0.211
291	0.21
291	0.208
292	0.207
292	0.206
292	0.205
293	0.204
293	0.203
294	0.202
294	0.201
295	0.2
295	0.199
296	0.198
296	0.197
297	0.196
297	0.196
298	0.195
298	0.194
298	0.194
299	0.193
299	0.193
300	0.192
300	0.192
301	0.191
301	0.191
302	0.19
302	0.19
303	0.189
303	0.189
304	0.188
304	0.187
305	0.187
305	0.186
305	0.186
306	0.185
306	0.185
307	0.184
307	0.184
308	0.183
308	0.183
309	0.182
309	0.182
310	0.181
310	0.18
311	0.18
311	0.18
311	0.179
312	0.179
312	0.179
313	0.178
313	0.178
314	0.177
314	0.176
315	0.176
315	0.176
316	0.175
316	0.175
317	0.174
317	0.174
318	0.173
318	0.173
318	0.172
319	0.172
319	0.171
320	0.171
320	0.17
321	0.17
321	0.169
322	0.169
322	0.168
323	0.168
323	0.167
324	0.167
324	0.166
324	0.166
325	0.166
325	0.165
326	0.165
326	0.164
327	0.164
327	0.163
328	0.163
328	0.162
329	0.162
329	0.162
330	0.161
330	0.161
330	0.16
331	0.16
331	0.159
332	0.159
332	0.159
333	0.158
333	0.158
334	0.158
334	0.157
335	0.157
335	0.157
336	0.156
336	0.156
336	0.155
337	0.155
337	0.155
338	0.154
338	0.154
339	0.153
339	0.153
340	0.153
340	0.152
341	0.152
341	0.152
342	0.151
342	0.151
342	0.151
343	0.151
343	0.15
344	0.15
344	0.15
345	0.15
345	0.15
346	0.149
346	0.149
347	0.149
347	0.148
348	0.148
348	0.148
348	0.148
349	0.148
349	0.147
350	0.147
350	0.147
351	0.147
351	0.147
352	0.146
352	0.146
353	0.146
353	0.146
354	0.145
354	0.145
354	0.145
355	0.145
355	0.144
356	0.144
356	0.144
357	0.144
357	0.144
358	0.143
358	0.144
359	0.144
359	0.144
360	0.144
360	0.144
360	0.144
361	0.144
361	0.144
362	0.144
362	0.144
363	0.144
363	0.144
364	0.143
364	0.143
365	0.143
365	0.143
366	0.144
366	0.144
366	0.144
367	0.144
367	0.143
368	0.143
368	0.143
369	0.143
369	0.143
370	0.143
370	0.142
371	0.142
371	0.142
372	0.142
372	0.142
372	0.142
373	0.142
373	0.141
374	0.141
374	0.142
375	0.142
375	0.142
376	0.142
376	0.142
377	0.142
377	0.142
378	0.142
378	0.142
378	0.142
379	0.142
379	0.142
380	0.142
380	0.142
381	0.142
381	0.142
382	0.142
382	0.142
383	0.141
383	0.141
383	0.141
384	0.141
384	0.14
385	0.14
385	0.14
386	0.14
386	0.14
387	0.14
387	0.14
388	0.14
388	0.14
389	0.14
389	0.14
389	0.14
390	0.14
390	0.14
391	0.14
391	0.14
392	0.14
392	0.14
393	0.14
393	0.14
394	0.14
394	0.14
394	0.14
395	0.14
395	0.14
396	0.139
396	0.139
397	0.139
397	0.139
398	0.139
398	0.139
399	0.139
399	0.138
400	0.138
400	0.138
400	0.138
401	0.138
401	0.137
402	0.137
402	0.137
403	0.137
403	0.137
404	0.137
404	0.137
405	0.137
405	0.137
405	0.137
406	0.137
406	0.137
407	0.137
407	0.137
408	0.137
408	0.137
409	0.137
409	0.137
410	0.137
410	0.137
411	0.137
411	0.137
411	0.137
412	0.137
412	0.137
413	0.137
413	0.137
414	0.136
414	0.136
415	0.136
415	0.136
416	0.135
416	0.135
416	0.135
417	0.135
417	0.135
418	0.135
418	0.135
419	0.135
419	0.135
420	0.135
420	0.136
421	0.136
421	0.136
421	0.136
422	0.136
422	0.136
423	0.136
423	0.136
424	0.136
424	0.136
425	0.135
425	0.135
426	0.135
426	0.135
427	0.136
427	0.136
427	0.136
428	0.136
428	0.136
429	0.136
429	0.136
430	0.136
430	0.136
431	0.136
431	0.136
432	0.135
432	0.135
432	0.135
433	0.135
433	0.135
434	0.135
434	0.135
435	0.135
435	0.135
436	0.135
436	0.135
437	0.135
437	0.135
437	0.135
438	0.135
438	0.135
439	0.135
439	0.135
440	0.134
440	0.134
441	0.134
441	0.134
442	0.134
442	0.134
442	0.134
443	0.134
443	0.134
444	0.134
444	0.134
445	0.135
445	0.135
446	0.135
446	0.135
447	0.135
447	0.135
447	0.135
448	0.135
448	0.135
449	0.135
449	0.135
450	0.135
450	0.135
451	0.135
451	0.135
452	0.135
452	0.135
452	0.135
453	0.135
453	0.135
454	0.135
454	0.135
455	0.135
455	0.135
456	0.135
456	0.135
457	0.134
457	0.135
458	0.135
458	0.135
458	0.136
459	0.136
459	0.136
460	0.135
460	0.135
461	0.135
461	0.136
462	0.136
462	0.136
463	0.136
463	0.137
463	0.137
464	0.137
464	0.137
465	0.138
465	0.138
466	0.138
466	0.138
467	0.138
467	0.138
467	0.138
468	0.137
468	0.137
469	0.137
469	0.137
470	0.137
470	0.137
471	0.136
471	0.137
472	0.137
472	0.137
472	0.138
473	0.138
473	0.139
474	0.139
474	0.14
475	0.14
475	0.141
476	0.141
476	0.142
477	0.142
477	0.142
477	0.143
478	0.143
478	0.143
479	0.144
479	0.144
480	0.145
480	0.145
481	0.146
481	0.146
482	0.147
482	0.148
482	0.148
483	0.15
483	0.152
484	0.153
484	0.154
485	0.154
485	0.155
486	0.156
486	0.156
487	0.157
487	0.158
487	0.158
488	0.158
488	0.158
489	0.158
489	0.159
490	0.159
490	0.16
491	0.16
491	0.161
492	0.162
492	0.163
492	0.163
493	0.164
493	0.165
494	0.167
494	0.168
495	0.169
495	0.17
496	0.171
496	0.172
496	0.173
497	0.173
497	0.175
498	0.176
498	0.177
499	0.177
499	0.178
500	0.18
500	0.181
501	0.182
501	0.184
501	0.185
502	0.186
502	0.187
503	0.189
503	0.19
504	0.19
504	0.191
505	0.192
505	0.193
506	0.195
506	0.196
506	0.197
507	0.197
507	0.198
508	0.199
508	0.201
509	0.202
509	0.203
510	0.204
510	0.205
511	0.206
511	0.207
511	0.207
512	0.208
512	0.209
513	0.209
513	0.21
514	0.21
514	0.21
515	0.211
515	0.211
515	0.211
516	0.212
516	0.212
517	0.213
517	0.214
518	0.214
518	0.214
519	0.214
519	0.214
520	0.213
520	0.213
520	0.213
521	0.213
521	0.212
522	0.211
522	0.21
523	0.21
523	0.21
524	0.211
524	0.211
524	0.211
525	0.211
525	0.212
526	0.212
526	0.213
527	0.214
527	0.214
528	0.215
528	0.215
529	0.215
529	0.215
529	0.214
530	0.214
530	0.214
531	0.213
531	0.212
532	0.211
532	0.211
533	0.21
533	0.208
533	0.208
534	0.206
534	0.205
535	0.204
535	0.203
536	0.202
536	0.201
537	0.2
537	0.2
538	0.198
538	0.197
538	0.196
539	0.195
539	0.194
540	0.193
540	0.191
541	0.19
541	0.188
542	0.187
542	0.185
542	0.184
543	0.182
543	0.181
544	0.179
544	0.178
545	0.177
545	0.176
546	0.176
546	0.174
547	0.173
547	0.172
547	0.17
548	0.169
548	0.168
549	0.167
549	0.166
550	0.165
550	0.163
551	0.162
551	0.16
551	0.159
552	0.158
552	0.156
553	0.155
553	0.154
554	0.153
554	0.151
555	0.149
555	0.147
556	0.145
556	0.143
556	0.141
557	0.139
557	0.137
558	0.135
558	0.133
559	0.132
559	0.13
560	0.129
560	0.128
560	0.127
561	0.126
561	0.126
562	0.125
562	0.124
563	0.123
563	0.121
564	0.12
564	0.119
564	0.118
565	0.117
565	0.115
566	0.114
566	0.112
567	0.111
567	0.11
568	0.11
568	0.11
568	0.109
569	0.109
569	0.109
570	0.108
570	0.107
571	0.107
571	0.107
572	0.106
572	0.106
573	0.105
573	0.104
573	0.103
574	0.102
574	0.101
575	0.101
575	0.101
576	0.101
576	0.099
577	0.098
577	0.097
577	0.096
578	0.096
578	0.096
579	0.096
579	0.096
580	0.095
580	0.092
581	0.09
581	0.089
581	0.089
582	0.089
582	0.088
583	0.089
583	0.088
584	0.085
584	0.083
585	0.083
585	0.083
585	0.083
586	0.083
586	0.082
587	0.081
587	0.079
588	0.077
588	0.076
589	0.076
589	0.076
590	0.076
590	0.076
590	0.077
591	0.077
591	0.077
592	0.076
592	0.076
593	0.076
593	0.076
594	0.076
594	0.075
594	0.074
595	0.074
595	0.073
596	0.072
596	0.073
597	0.075
597	0.076
598	0.075
598	0.076
598	0.076
599	0.076
599	0.075
600	0.075
600	0.074
601	0.073
601	0.072
602	0.071
602	0.07
602	0.069
603	0.069
603	0.07
604	0.07
604	0.07
605	0.071
605	0.072
606	0.072
606	0.071
606	0.071
607	0.07
607	0.07
608	0.07
608	0.069
609	0.068
609	0.068
610	0.067
610	0.067
610	0.067
611	0.069
611	0.07
612	0.071
612	0.072
613	0.074
613	0.075
614	0.075
614	0.075
614	0.076
615	0.076
615	0.076
616	0.076
616	0.076
617	0.076
617	0.076
618	0.075
618	0.075
618	0.075
619	0.075
619	0.076
620	0.077
620	0.078
621	0.078
621	0.079
622	0.079
622	0.079
622	0.079
623	0.079
623	0.08
624	0.08
624	0.08
625	0.08
625	0.08
626	0.08
626	0.081
626	0.081
627	0.082
627	0.082
628	0.083
628	0.083
629	0.083
629	0.084
630	0.083
630	0.083
630	0.084
631	0.085
631	0.085
632	0.085
632	0.085
633	0.086
633	0.087
634	0.088
634	0.089
634	0.091
635	0.092
635	0.092
636	0.093
636	0.094
637	0.095
637	0.095
638	0.096
638	0.097
638	0.098
639	0.098
639	0.098
640	0.098
640	0.099
641	0.1
641	0.101
642	0.102
642	0.104
642	0.105
643	0.106
643	0.107
644	0.109
644	0.11
645	0.112
645	0.114
646	0.116
646	0.118
646	0.12
647	0.122
647	0.124
648	0.126
648	0.128
649	0.13
649	0.132
650	0.134
650	0.136
650	0.139
651	0.14
651	0.142
652	0.144
652	0.145
653	0.147
653	0.153
653	0.156
654	0.125
654	0.102
655	0.103
655	0.104
656	0.105
656	0.107
657	0.108
657	0.11
657	0.111
658	0.109
658	0.105
659	0.132
659	0.169
660	0.176
660	0.178
661	0.18
661	0.182
661	0.184
662	0.186
662	0.189
663	0.191
663	0.193
664	0.194
664	0.196
665	0.198
665	0.2
665	0.202
666	0.204
666	0.205
667	0.207
667	0.209
668	0.21
668	0.212
669	0.214
669	0.216
669	0.218
670	0.22
670	0.221
671	0.222
671	0.223
672	0.225
672	0.226
672	0.227
673	0.228
673	0.23
674	0.231
674	0.233
675	0.234
675	0.236
676	0.238
676	0.24
676	0.242
677	0.243
677	0.245
678	0.246
678	0.247
679	0.248
679	0.249
680	0.251
680	0.251
680	0.252
681	0.253
681	0.254
682	0.254
682	0.255
683	0.256
683	0.257
684	0.258
684	0.258
684	0.258
685	0.259
685	0.259
686	0.259
686	0.258
687	0.258
687	0.257
687	0.257
688	0.256
688	0.256
689	0.257
689	0.258
690	0.258
690	0.258
691	0.258
691	0.258
691	0.258
692	0.258
692	0.258
693	0.258
693	0.258
694	0.256
694	0.255
695	0.255
695	0.255
695	0.255
696	0.253
696	0.253
697	0.252
697	0.251
698	0.25
698	0.249
698	0.248
699	0.247
699	0.244
700	0.242
700	0.241
701	0.239
701	0.238
702	0.236
702	0.234
702	0.233
703	0.231
703	0.229
704	0.228
704	0.227
705	0.226
705	0.225
705	0.223
706	0.222
706	0.222
707	0.221
707	0.22
708	0.219
708	0.218
709	0.217
709	0.215
709	0.213
710	0.211
710	0.21
711	0.209
711	0.207
712	0.205
712	0.203
713	0.201
713	0.199
713	0.198
714	0.195
714	0.193
715	0.191
715	0.189
716	0.186
716	0.184
716	0.182
717	0.18
717	0.178
718	0.176
718	0.173
719	0.172
719	0.17
720	0.168
720	0.166
720	0.165
721	0.163
721	0.161
722	0.159
722	0.157
723	0.156
723	0.154
723	0.153
724	0.151
724	0.149
725	0.148
725	0.146
726	0.145
726	0.144
727	0.142
727	0.141
727	0.14
728	0.138
728	0.137
729	0.136
729	0.135
730	0.133
730	0.131
730	0.13
731	0.128
731	0.127
732	0.127
732	0.126
733	0.124
733	0.124
734	0.123
734	0.122
734	0.121
735	0.121
735	0.12
736	0.119
736	0.118
737	0.117
737	0.116
737	0.115
738	0.113
738	0.11
739	0.109
739	0.107
740	0.105
740	0.104
741	0.103
741	0.102
741	0.1
742	0.099
742	0.097
743	0.097
743	0.096
744	0.095
744	0.094
744	0.093
745	0.091
745	0.09
746	0.088
746	0.087
747	0.086
747	0.085
748	0.084
748	0.083
748	0.082
749	0.08
749	0.079
750	0.079
750	0.078
751	0.078
751	0.077
751	0.077
752	0.077
752	0.076
753	0.075
753	0.075
754	0.075
754	0.075
754	0.075
755	0.075
755	0.075
756	0.074
756	0.073
757	0.072
757	0.072
758	0.072
758	0.071
758	0.071
759	0.071
759	0.07
760	0.069
760	0.068
761	0.067
761	0.066
761	0.066
762	0.064
762	0.063
763	0.062
763	0.06
764	0.058
764	0.056
764	0.055
765	0.053
765	0.052
766	0.051
766	0.05
767	0.049
767	0.047
768	0.045
768	0.044
768	0.043
769	0.042
769	0.041
770	0.04
770	0.038
771	0.037
771	0.034
771	0.033
772	0.031
772	0.03
773	0.028
773	0.027
774	0.025
774	0.023
775	0.022
775	0.02
775	0.019
776	0.018
776	0.017
777	0.016
777	0.014
778	0.013
778	0.011
778	0.009
779	0.008
779	0.007
780	0.005
780	0.003
781	0.001
781	-0.002
781	-0.004
782	-0.008
782	-0.011
783	-0.015
783	-0.018
784	-0.022
784	-0.026
784	-0.03
785	-0.035
785	-0.039
786	-0.043
786	-0.047
787	-0.049
787	-0.053
788	-0.058
788	-0.063
788	-0.069
789	-0.075
789	-0.081
790	-0.086
790	-0.091
791	-0.098
791	-0.103
791	-0.107
792	-0.105
792	-0.097
793	-0.095
793	-0.093
794	-0.094
794	-0.096
794	-0.1
795	-0.103
795	-0.103
796	-0.104
796	-0.107
797	-0.115
797	-0.126
797	-0.133
798	-0.138
798	-0.142
799	-0.142
799	-0.142
800	-0.141
800	-0.143
801	-0.145
801	-0.146
801	-0.146
802	-0.147
802	-0.148
803	-0.148
803	-0.148
804	-0.147
804	-0.142
804	-0.136
805	-0.132
805	-0.13
806	-0.128
806	-0.128
807	-0.127
807	-0.127
807	-0.128
808	-0.128
808	-0.129
809	-0.134
809	-0.14
810	-0.143
810	-0.146
810	-0.15
811	-0.153
811	-0.153
812	-0.149
812	-0.146
813	-0.146
813	-0.147
813	-0.147
814	-0.147
814	-0.144
815	-0.139
815	-0.132
816	-0.125
816	-0.119
817	-0.116
817	-0.111
817	-0.102
818	-0.091
818	-0.079
819	-0.068
819	-0.059
820	-0.052
820	-0.045
820	-0.039
821	-0.033
821	-0.027
822	-0.022
822	-0.018
823	-0.014
823	-0.011
823	-0.008
824	-0.005
824	-0.001
825	0.002
825	0.006
826	0.009
826	0.011
826	0.013
827	0.015
827	0.017
828	0.019
828	0.02
829	0.021
829	0.022
829	0.023
830	0.023
830	0.023
831	0.025
831	0.025
832	0.026
832	0.026
832	0.026
833	0.026
833	0.027
834	0.027
834	0.027
835	0.027
835	0.027
835	0.026
836	0.026
836	0.027
837	0.027
837	0.028
838	0.028
838	0.028
839	0.029
839	0.029
839	0.028
840	0.028
840	0.028
841	0.028
841	0.028
842	0.028
842	0.028
842	0.028
843	0.028
843	0.028
844	0.028
844	0.028
845	0.028
845	0.029
845	0.029
846	0.029
846	0.029
847	0.029
847	0.029
848	0.029
848	0.029
848	0.03
849	0.03
849	0.03
850	0.03
850	0.03
851	0.031
851	0.031
851	0.031
852	0.03
852	0.03
853	0.03
853	0.029
854	0.03
854	0.03
854	0.03
855	0.03
855	0.029
856	0.029
856	0.029
857	0.029
857	0.029
857	0.029
858	0.029
858	0.029
859	0.029
859	0.03
860	0.03
860	0.031
860	0.032
861	0.033
861	0.034
862	0.034
862	0.035
863	0.035
863	0.035
863	0.035
864	0.035
864	0.035
865	0.035
865	0.036
866	0.036
866	0.036
866	0.036
867	0.036
867	0.037
868	0.037
868	0.037
869	0.036
869	0.036
869	0.035
870	0.034
870	0.033
871	0.033
871	0.032
872	0.032
872	0.032
872	0.032
873	0.033
873	0.033
874	0.033
874	0.034
875	0.034
875	0.034
875	0.034
876	0.033
876	0.033
877	0.032
877	0.031
878	0.03
878	0.029
878	0.028
879	0.028
879	0.027
880	0.027
880	0.027
881	0.027
881	0.027
881	0.028
882	0.028
882	0.028
883	0.028
883	0.027
884	0.027
884	0.027
884	0.026
885	0.026
885	0.025
886	0.025
886	0.025
887	0.025
887	0.025
887	0.025
888	0.025
888	0.026
889	0.027
889	0.028
890	0.029
890	0.03
890	0.03
891	0.031
891	0.031
892	0.032
892	0.032
893	0.033
893	0.033
893	0.033
894	0.033
894	0.032
895	0.031
895	0.03
895	0.029
896	0.029
896	0.028
897	0.027
897	0.026
898	0.025
898	0.025
898	0.024
899	0.024
899	0.024
900	0.023
900	0.023
901	0.023
901	0.024
901	0.024
902	0.024
902	0.024
903	0.024
903	0.025
904	0.025
904	0.026
904	0.027
905	0.028
905	0.028
906	0.029
906	0.03
907	0.03
907	0.031
907	0.031
908	0.031
908	0.032
909	0.033
909	0.034
910	0.034
910	0.034
910	0.035
911	0.035
911	0.035
912	0.035
912	0.035
913	0.035
913	0.034
913	0.034
914	0.033
914	0.032
915	0.031
915	0.031
916	0.03
916	0.028
916	0.027
917	0.026
917	0.024
918	0.022
918	0.021
918	0.019
919	0.018
919	0.017
920	0.016
920	0.016
921	0.015
921	0.015
921	0.015
922	0.016
922	0.016
923	0.017
923	0.017
924	0.018
924	0.019
924	0.019
925	0.02
925	0.021
926	0.021
926	0.022
927	0.022
927	0.022
927	0.022
928	0.022
928	0.022
929	0.021
929	0.021
930	0.02
930	0.019
930	0.018
931	0.018
931	0.017
932	0.017
932	0.017
933	0.016
933	0.016
933	0.016
934	0.015
934	0.015
935	0.015
935	0.015
935	0.014
936	0.014
936	0.013
937	0.013
937	0.012
938	0.012
938	0.012
938	0.012
939	0.012
939	0.013
940	0.013
940	0.014
941	0.015
941	0.016
941	0.017
942	0.019
942	0.02
943	0.021
943	0.021
944	0.022
944	0.022
944	0.023
945	0.023
945	0.024
946	0.024
946	0.024
946	0.025
947	0.025
947	0.025
948	0.026
948	0.026
949	0.027
949	0.027
949	0.027
950	0.027
950	0.027
951	0.027
951	0.026
952	0.026
952	0.025
952	0.025
953	0.025
953	0.024
954	0.024
954	0.023
955	0.023
955	0.023
955	0.023
956	0.024
956	0.024
957	0.024
957	0.023
957	0.023
958	0.024
958	0.024
959	0.024
959	0.024
960	0.024
960	0.024
960	0.024
961	0.024
961	0.025
962	0.025
962	0.026
963	0.026
963	0.027
963	0.027
964	0.027
964	0.028
965	0.028
965	0.028
966	0.028
966	0.028
966	0.028
967	0.027
967	0.027
968	0.026
968	0.025
968	0.024
969	0.023
969	0.023
970	0.022
970	0.021
971	0.02
971	0.02
971	0.02
972	0.019
972	0.02
973	0.02
973	0.02
974	0.02
974	0.02
974	0.021
975	0.022
975	0.023
976	0.024
976	0.025
976	0.025
977	0.026
977	0.026
978	0.027
978	0.027
979	0.027
979	0.027
979	0.027
980	0.026
980	0.025
981	0.025
981	0.024
982	0.023
982	0.022
982	0.021
983	0.02
983	0.019
984	0.017
984	0.016
984	0.016
985	0.015
985	0.014
986	0.013
986	0.012
987	0.012
987	0.011
987	0.011
988	0.011
988	0.011
989	0.011
989	0.012
990	0.012
990	0.013
990	0.014
991	0.015
991	0.017
992	0.018
992	0.019
992	0.02
993	0.021
993	0.021
994	0.022
994	0.022
995	0.022
995	0.022
995	0.021
996	0.021
996	0.02
997	0.019
997	0.019
997	0.018
998	0.018
998	0.018
999	0.018
999	0.019
1000	0.019
1000	0.019
1000	0.02
1001	0.021
1001	0.021
1002	0.022
1002	0.023
1003	0.023
1003	0.023
1003	0.024
1004	0.024
1004	0.024
1005	0.023
1005	0.023
1005	0.023
1006	0.022
1006	0.022
1007	0.022
1007	0.022
1008	0.022
1008	0.022
1008	0.022
1009	0.021
1009	0.021
1010	0.021
1010	0.021
1010	0.021
1011	0.021
1011	0.021
1012	0.021
1012	0.02
1013	0.02
1013	0.019
1013	0.018
1014	0.017
1014	0.016
1015	0.016
1015	0.015
1016	0.014
1016	0.013
1016	0.012
1017	0.012
1017	0.011
1018	0.01
1018	0.01
1018	0.01
1019	0.009
1019	0.009
1020	0.009
1020	0.009
1021	0.009
1021	0.009
1021	0.009
1022	0.009
1022	0.01
1023	0.01
1023	0.01
1023	0.01
1024	0.01
1024	0.01
1025	0.01
1025	0.01
1026	0.009
1026	0.009
1026	0.009
1027	0.008
1027	0.008
1028	0.007
1028	0.007
1028	0.006
1029	0.006
1029	0.005
1030	0.005
1030	0.005
1031	0.004
1031	0.004
1031	0.004
1032	0.004
1032	0.004
1033	0.004
1033	0.004
1033	0.004
1034	0.004
1034	0.004
1035	0.003
1035	0.003
1036	0.003
1036	0.003
1036	0.003
1037	0.003
1037	0.003
1038	0.003
1038	0.003
1039	0.004
1039	0.005
1039	0.006
1040	0.006
1040	0.008
1041	0.009
1041	0.01
1041	0.01
1042	0.011
1042	0.012
1043	0.013
1043	0.013
1044	0.014
1044	0.014
1044	0.015
1045	0.015
1045	0.015
1046	0.015
1046	0.014
1046	0.014
1047	0.014
1047	0.014
1048	0.014
1048	0.014
1049	0.013
1049	0.012
1049	0.011
1050	0.011
1050	0.01
1051	0.009
1051	0.009
1051	0.008
1052	0.008
1052	0.007
1053	0.006
1053	0.005
1053	0.005
1054	0.004
1054	0.004
1055	0.003
1055	0.003
1056	0.002
1056	0.001
1056	0
1057	-0.001
1057	-0.002
1058	-0.002
1058	-0.003
1058	-0.003
1059	-0.003
1059	-0.003
1060	-0.004
1060	-0.003
1061	-0.003
1061	-0.002
1061	-0.002
1062	-0.002
1062	-0.002
1063	-0.002
1063	-0.002
1063	-0.002
1064	-0.002
1064	-0.001
1065	-0.001
1065	-0.001
1066	-0.001
1066	-0.001
1066	-0
1067	-0.001
1067	-0
1068	-0
1068	-0.001
1068	-0.001
1069	-0.002
1069	-0.002
1070	-0.003
1070	-0.004
1071	-0.005
1071	-0.005
1071	-0.006
1072	-0.007
1072	-0.008
1073	-0.009
1073	-0.01
1073	-0.01
1074	-0.011
1074	-0.011
1075	-0.012
1075	-0.013
1076	-0.014
1076	-0.015
1076	-0.015
1077	-0.016
1077	-0.016
1078	-0.016
1078	-0.016
1078	-0.016
1079	-0.016
1079	-0.015
1080	-0.015
1080	-0.014
1080	-0.014
1081	-0.013
1081	-0.012
1082	-0.012
1082	-0.012
1083	-0.012
1083	-0.012
1083	-0.012
1084	-0.012
1084	-0.011
1085	-0.011
1085	-0.01
1085	-0.01
1086	-0.01
1086	-0.011
1087	-0.011
1087	-0.01
1088	-0.01
1088	-0.01
1088	-0.011
1089	-0.012
1089	-0.013
1090	-0.013
1090	-0.013
1090	-0.014
1091	-0.014
1091	-0.014
1092	-0.014
1092	-0.015
1092	-0.014
1093	-0.014
1093	-0.013
1094	-0.013
1094	-0.014
1095	-0.015
1095	-0.015
1095	-0.013
1096	-0.013
1096	-0.012
1097	-0.011
1097	-0.011
1097	-0.009
1098	-0.008
1098	-0.006
1099	-0.005
1099	-0.002
1100	-0.001
1100	-0
1100	0.001
1101	0.001
1101	0.003
1102	0.003
1102	0.004
1102	0.004
1103	0.005
1103	0.007
1104	0.008
1104	0.01
1104	0.013
1105	0.015
1105	0.017
1106	0.018
1106	0.022
1107	0.024
1107	0.027
1107	0.032
1108	0.052
1108	0.078
1109	0.11
1109	0.158
1109	0.191
1110	0.247
1110	0.347
1111	0.595
1111	-0
