Data from 17c-2a_Absorbance__1383__01384.txt Node

Date: Fri Jan 26 10:33:36 CET 2024
User: Marek
Spectrometer: MAYP115816
Trigger mode: 0
Integration Time (sec): 2.000000E-1
Scans to average: 10
Electric dark correction enabled: true
Nonlinearity correction enabled: true
Boxcar width: 5
XAxis mode: Wavelengths
Number of Pixels in Spectrum: 2068
>>>>>Begin Spectral Data<<<<<
199	-1.439
199	-1.304
200	-1.158
200	-1.048
201	-0.979
201	-0.937
202	-0.874
202	-0.826
203	-0.785
203	-0.752
204	-0.727
204	-0.705
205	-0.685
205	-0.675
205	-0.674
206	-0.67
206	-0.667
207	-0.662
207	-0.662
208	-0.661
208	-0.659
209	-0.657
209	-0.654
210	-0.655
210	-0.655
211	-0.657
211	-0.658
212	-0.659
212	-0.66
213	-0.658
213	-0.654
213	-0.655
214	-0.652
214	-0.651
215	-0.646
215	-0.645
216	-0.641
216	-0.641
217	-0.637
217	-0.635
218	-0.632
218	-0.63
219	-0.626
219	-0.626
220	-0.624
220	-0.625
221	-0.623
221	-0.621
221	-0.617
222	-0.613
222	-0.609
223	-0.605
223	-0.603
224	-0.599
224	-0.591
225	-0.584
225	-0.576
226	-0.568
226	-0.556
227	-0.546
227	-0.536
228	-0.52
228	-0.505
229	-0.485
229	-0.464
229	-0.441
230	-0.415
230	-0.386
231	-0.356
231	-0.324
232	-0.291
232	-0.255
233	-0.217
233	-0.18
234	-0.144
234	-0.108
235	-0.074
235	-0.042
236	-0.01
236	0.02
236	0.048
237	0.074
237	0.097
238	0.119
238	0.138
239	0.157
239	0.173
240	0.188
240	0.202
241	0.213
241	0.224
242	0.233
242	0.243
243	0.251
243	0.258
243	0.265
244	0.27
244	0.276
245	0.281
245	0.286
246	0.29
246	0.295
247	0.298
247	0.302
248	0.306
248	0.309
249	0.312
249	0.315
250	0.318
250	0.321
250	0.323
251	0.326
251	0.328
252	0.331
252	0.333
253	0.335
253	0.337
254	0.339
254	0.341
255	0.342
255	0.344
256	0.346
256	0.347
257	0.348
257	0.349
258	0.35
258	0.351
258	0.351
259	0.352
259	0.352
260	0.353
260	0.353
261	0.353
261	0.353
262	0.352
262	0.352
263	0.352
263	0.352
264	0.352
264	0.351
265	0.351
265	0.35
265	0.349
266	0.348
266	0.347
267	0.346
267	0.345
268	0.343
268	0.342
269	0.34
269	0.339
270	0.337
270	0.335
271	0.334
271	0.332
272	0.33
272	0.328
272	0.327
273	0.324
273	0.322
274	0.321
274	0.319
275	0.317
275	0.315
276	0.313
276	0.31
277	0.308
277	0.306
278	0.304
278	0.302
278	0.299
279	0.297
279	0.294
280	0.292
280	0.29
281	0.288
281	0.286
282	0.283
282	0.282
283	0.28
283	0.278
284	0.276
284	0.275
285	0.273
285	0.271
285	0.269
286	0.267
286	0.265
287	0.264
287	0.262
288	0.261
288	0.259
289	0.257
289	0.256
290	0.254
290	0.253
291	0.252
291	0.25
292	0.249
292	0.248
292	0.246
293	0.245
293	0.244
294	0.243
294	0.242
295	0.24
295	0.239
296	0.238
296	0.238
297	0.237
297	0.236
298	0.235
298	0.235
298	0.234
299	0.233
299	0.233
300	0.232
300	0.231
301	0.231
301	0.23
302	0.229
302	0.229
303	0.228
303	0.227
304	0.227
304	0.226
305	0.225
305	0.225
305	0.224
306	0.224
306	0.223
307	0.222
307	0.221
308	0.221
308	0.22
309	0.22
309	0.219
310	0.218
310	0.218
311	0.217
311	0.216
311	0.216
312	0.215
312	0.215
313	0.214
313	0.214
314	0.213
314	0.213
315	0.212
315	0.211
316	0.211
316	0.21
317	0.21
317	0.209
318	0.208
318	0.208
318	0.207
319	0.207
319	0.206
320	0.206
320	0.205
321	0.205
321	0.204
322	0.203
322	0.203
323	0.202
323	0.201
324	0.201
324	0.2
324	0.2
325	0.199
325	0.199
326	0.198
326	0.197
327	0.197
327	0.196
328	0.196
328	0.195
329	0.195
329	0.194
330	0.194
330	0.193
330	0.193
331	0.192
331	0.192
332	0.191
332	0.191
333	0.19
333	0.19
334	0.189
334	0.189
335	0.188
335	0.188
336	0.187
336	0.187
336	0.186
337	0.186
337	0.186
338	0.185
338	0.185
339	0.184
339	0.184
340	0.183
340	0.183
341	0.182
341	0.182
342	0.182
342	0.181
342	0.181
343	0.18
343	0.18
344	0.18
344	0.18
345	0.179
345	0.179
346	0.179
346	0.179
347	0.178
347	0.178
348	0.178
348	0.177
348	0.177
349	0.177
349	0.176
350	0.176
350	0.176
351	0.175
351	0.175
352	0.175
352	0.174
353	0.174
353	0.174
354	0.174
354	0.174
354	0.173
355	0.173
355	0.173
356	0.173
356	0.172
357	0.172
357	0.171
358	0.171
358	0.171
359	0.171
359	0.171
360	0.171
360	0.171
360	0.171
361	0.171
361	0.172
362	0.172
362	0.172
363	0.172
363	0.172
364	0.171
364	0.171
365	0.171
365	0.171
366	0.171
366	0.171
366	0.171
367	0.171
367	0.171
368	0.171
368	0.171
369	0.17
369	0.17
370	0.17
370	0.17
371	0.169
371	0.169
372	0.169
372	0.169
372	0.169
373	0.169
373	0.169
374	0.169
374	0.169
375	0.169
375	0.169
376	0.169
376	0.169
377	0.169
377	0.169
378	0.169
378	0.169
378	0.169
379	0.169
379	0.169
380	0.169
380	0.169
381	0.169
381	0.169
382	0.168
382	0.168
383	0.168
383	0.168
383	0.167
384	0.167
384	0.167
385	0.167
385	0.167
386	0.167
386	0.167
387	0.166
387	0.166
388	0.166
388	0.166
389	0.166
389	0.166
389	0.166
390	0.166
390	0.166
391	0.166
391	0.166
392	0.166
392	0.166
393	0.166
393	0.166
394	0.166
394	0.166
394	0.166
395	0.165
395	0.165
396	0.165
396	0.165
397	0.165
397	0.165
398	0.164
398	0.164
399	0.164
399	0.164
400	0.164
400	0.163
400	0.163
401	0.163
401	0.162
402	0.162
402	0.162
403	0.161
403	0.161
404	0.161
404	0.161
405	0.161
405	0.161
405	0.161
406	0.161
406	0.161
407	0.161
407	0.161
408	0.161
408	0.161
409	0.161
409	0.161
410	0.161
410	0.161
411	0.161
411	0.16
411	0.16
412	0.16
412	0.16
413	0.16
413	0.16
414	0.159
414	0.159
415	0.159
415	0.158
416	0.158
416	0.158
416	0.158
417	0.158
417	0.158
418	0.158
418	0.158
419	0.158
419	0.158
420	0.159
420	0.159
421	0.159
421	0.159
421	0.159
422	0.16
422	0.159
423	0.159
423	0.159
424	0.159
424	0.159
425	0.159
425	0.158
426	0.158
426	0.158
427	0.158
427	0.158
427	0.158
428	0.159
428	0.159
429	0.159
429	0.159
430	0.159
430	0.159
431	0.158
431	0.158
432	0.158
432	0.158
432	0.157
433	0.157
433	0.157
434	0.157
434	0.157
435	0.157
435	0.157
436	0.157
436	0.157
437	0.157
437	0.157
437	0.157
438	0.157
438	0.157
439	0.157
439	0.156
440	0.156
440	0.156
441	0.156
441	0.156
442	0.156
442	0.156
442	0.156
443	0.156
443	0.156
444	0.156
444	0.156
445	0.157
445	0.157
446	0.157
446	0.157
447	0.157
447	0.157
447	0.157
448	0.157
448	0.157
449	0.157
449	0.157
450	0.157
450	0.157
451	0.157
451	0.157
452	0.157
452	0.157
452	0.157
453	0.156
453	0.156
454	0.156
454	0.156
455	0.156
455	0.156
456	0.156
456	0.156
457	0.156
457	0.156
458	0.156
458	0.156
458	0.157
459	0.157
459	0.157
460	0.157
460	0.156
461	0.157
461	0.157
462	0.157
462	0.157
463	0.157
463	0.158
463	0.158
464	0.158
464	0.158
465	0.159
465	0.159
466	0.159
466	0.159
467	0.159
467	0.159
467	0.159
468	0.158
468	0.158
469	0.158
469	0.158
470	0.158
470	0.158
471	0.157
471	0.157
472	0.157
472	0.158
472	0.159
473	0.159
473	0.16
474	0.161
474	0.161
475	0.162
475	0.163
476	0.163
476	0.164
477	0.164
477	0.164
477	0.165
478	0.165
478	0.165
479	0.166
479	0.166
480	0.166
480	0.167
481	0.168
481	0.168
482	0.169
482	0.17
482	0.171
483	0.172
483	0.174
484	0.176
484	0.177
485	0.178
485	0.179
486	0.179
486	0.18
487	0.181
487	0.182
487	0.182
488	0.182
488	0.181
489	0.181
489	0.182
490	0.182
490	0.183
491	0.184
491	0.185
492	0.186
492	0.186
492	0.187
493	0.188
493	0.19
494	0.191
494	0.193
495	0.194
495	0.195
496	0.197
496	0.198
496	0.199
497	0.2
497	0.202
498	0.203
498	0.204
499	0.205
499	0.206
500	0.207
500	0.209
501	0.21
501	0.211
501	0.212
502	0.214
502	0.215
503	0.217
503	0.218
504	0.219
504	0.22
505	0.221
505	0.222
506	0.223
506	0.224
506	0.225
507	0.226
507	0.227
508	0.228
508	0.23
509	0.231
509	0.232
510	0.233
510	0.234
511	0.235
511	0.236
511	0.237
512	0.238
512	0.239
513	0.239
513	0.239
514	0.24
514	0.241
515	0.241
515	0.241
515	0.241
516	0.242
516	0.243
517	0.244
517	0.244
518	0.245
518	0.245
519	0.245
519	0.245
520	0.244
520	0.244
520	0.244
521	0.243
521	0.242
522	0.241
522	0.241
523	0.241
523	0.241
524	0.241
524	0.242
524	0.242
525	0.243
525	0.243
526	0.244
526	0.245
527	0.245
527	0.246
528	0.246
528	0.246
529	0.246
529	0.245
529	0.245
530	0.244
530	0.244
531	0.243
531	0.243
532	0.242
532	0.241
533	0.24
533	0.239
533	0.239
534	0.238
534	0.236
535	0.235
535	0.234
536	0.233
536	0.231
537	0.23
537	0.229
538	0.228
538	0.226
538	0.224
539	0.223
539	0.222
540	0.221
540	0.219
541	0.217
541	0.216
542	0.214
542	0.212
542	0.211
543	0.209
543	0.207
544	0.206
544	0.204
545	0.203
545	0.202
546	0.201
546	0.2
547	0.198
547	0.196
547	0.195
548	0.194
548	0.192
549	0.191
549	0.189
550	0.188
550	0.186
551	0.184
551	0.182
551	0.18
552	0.179
552	0.177
553	0.176
553	0.175
554	0.173
554	0.171
555	0.168
555	0.166
556	0.164
556	0.162
556	0.16
557	0.157
557	0.155
558	0.153
558	0.151
559	0.149
559	0.148
560	0.146
560	0.144
560	0.143
561	0.143
561	0.142
562	0.14
562	0.139
563	0.137
563	0.136
564	0.134
564	0.133
564	0.131
565	0.13
565	0.129
566	0.127
566	0.125
567	0.124
567	0.124
568	0.123
568	0.123
568	0.122
569	0.122
569	0.122
570	0.121
570	0.12
571	0.12
571	0.12
572	0.119
572	0.119
573	0.118
573	0.117
573	0.115
574	0.115
574	0.114
575	0.113
575	0.114
576	0.113
576	0.112
577	0.11
577	0.109
577	0.108
578	0.107
578	0.107
579	0.108
579	0.108
580	0.106
580	0.103
581	0.101
581	0.1
581	0.099
582	0.099
582	0.099
583	0.099
583	0.098
584	0.095
584	0.093
585	0.092
585	0.093
585	0.092
586	0.092
586	0.091
587	0.09
587	0.088
588	0.086
588	0.085
589	0.085
589	0.084
590	0.084
590	0.083
590	0.084
591	0.085
591	0.084
592	0.084
592	0.083
593	0.083
593	0.083
594	0.082
594	0.081
594	0.08
595	0.08
595	0.079
596	0.078
596	0.079
597	0.081
597	0.082
598	0.082
598	0.083
598	0.083
599	0.083
599	0.083
600	0.082
600	0.081
601	0.081
601	0.08
602	0.078
602	0.077
602	0.076
603	0.076
603	0.077
604	0.077
604	0.077
605	0.078
605	0.079
606	0.079
606	0.078
606	0.078
607	0.077
607	0.077
608	0.077
608	0.076
609	0.076
609	0.076
610	0.075
610	0.074
610	0.075
611	0.076
611	0.077
612	0.078
612	0.079
613	0.08
613	0.082
614	0.082
614	0.082
614	0.082
615	0.082
615	0.082
616	0.082
616	0.082
617	0.081
617	0.081
618	0.08
618	0.08
618	0.079
619	0.08
619	0.08
620	0.082
620	0.082
621	0.082
621	0.083
622	0.083
622	0.083
622	0.083
623	0.083
623	0.084
624	0.085
624	0.085
625	0.085
625	0.086
626	0.086
626	0.086
626	0.087
627	0.088
627	0.089
628	0.09
628	0.09
629	0.091
629	0.091
630	0.09
630	0.09
630	0.091
631	0.091
631	0.091
632	0.091
632	0.092
633	0.092
633	0.093
634	0.094
634	0.096
634	0.097
635	0.098
635	0.099
636	0.1
636	0.101
637	0.102
637	0.103
638	0.104
638	0.105
638	0.105
639	0.106
639	0.106
640	0.108
640	0.109
641	0.11
641	0.111
642	0.113
642	0.114
642	0.115
643	0.117
643	0.118
644	0.119
644	0.121
645	0.122
645	0.124
646	0.126
646	0.128
646	0.131
647	0.133
647	0.135
648	0.138
648	0.14
649	0.142
649	0.145
650	0.147
650	0.149
650	0.151
651	0.153
651	0.155
652	0.157
652	0.158
653	0.161
653	0.167
653	0.172
654	0.138
654	0.112
655	0.114
655	0.116
656	0.117
656	0.119
657	0.121
657	0.122
657	0.123
658	0.121
658	0.116
659	0.146
659	0.188
660	0.195
660	0.198
661	0.199
661	0.201
661	0.204
662	0.206
662	0.209
663	0.211
663	0.214
664	0.216
664	0.217
665	0.219
665	0.221
665	0.223
666	0.225
666	0.227
667	0.229
667	0.231
668	0.232
668	0.234
669	0.236
669	0.239
669	0.242
670	0.244
670	0.246
671	0.248
671	0.249
672	0.251
672	0.252
672	0.254
673	0.256
673	0.257
674	0.259
674	0.26
675	0.262
675	0.264
676	0.266
676	0.269
676	0.27
677	0.272
677	0.274
678	0.275
678	0.275
679	0.276
679	0.276
680	0.278
680	0.278
680	0.278
681	0.279
681	0.28
682	0.281
682	0.282
683	0.283
683	0.285
684	0.286
684	0.286
684	0.286
685	0.287
685	0.288
686	0.288
686	0.287
687	0.287
687	0.286
687	0.286
688	0.285
688	0.285
689	0.285
689	0.286
690	0.287
690	0.287
691	0.287
691	0.287
691	0.287
692	0.287
692	0.286
693	0.286
693	0.286
694	0.285
694	0.283
695	0.283
695	0.284
695	0.283
696	0.282
696	0.281
697	0.28
697	0.279
698	0.277
698	0.276
698	0.274
699	0.273
699	0.27
700	0.268
700	0.266
701	0.265
701	0.263
702	0.261
702	0.259
702	0.257
703	0.255
703	0.254
704	0.252
704	0.251
705	0.249
705	0.248
705	0.246
706	0.244
706	0.243
707	0.242
707	0.24
708	0.239
708	0.238
709	0.237
709	0.235
709	0.233
710	0.231
710	0.229
711	0.228
711	0.226
712	0.224
712	0.223
713	0.221
713	0.219
713	0.217
714	0.214
714	0.212
715	0.21
715	0.207
716	0.205
716	0.202
716	0.2
717	0.198
717	0.195
718	0.193
718	0.19
719	0.189
719	0.187
720	0.185
720	0.183
720	0.181
721	0.179
721	0.177
722	0.175
722	0.173
723	0.171
723	0.17
723	0.168
724	0.167
724	0.165
725	0.164
725	0.163
726	0.162
726	0.161
727	0.159
727	0.158
727	0.156
728	0.154
728	0.153
729	0.152
729	0.15
730	0.148
730	0.145
730	0.144
731	0.142
731	0.14
732	0.139
732	0.137
733	0.136
733	0.135
734	0.134
734	0.132
734	0.132
735	0.131
735	0.13
736	0.129
736	0.128
737	0.127
737	0.126
737	0.124
738	0.122
738	0.119
739	0.117
739	0.115
740	0.113
740	0.112
741	0.11
741	0.109
741	0.107
742	0.105
742	0.103
743	0.103
743	0.101
744	0.1
744	0.099
744	0.098
745	0.096
745	0.094
746	0.093
746	0.091
747	0.09
747	0.089
748	0.088
748	0.087
748	0.086
749	0.085
749	0.085
750	0.084
750	0.084
751	0.083
751	0.083
751	0.083
752	0.083
752	0.082
753	0.081
753	0.081
754	0.081
754	0.08
754	0.081
755	0.081
755	0.081
756	0.08
756	0.078
757	0.077
757	0.077
758	0.077
758	0.076
758	0.075
759	0.075
759	0.073
760	0.071
760	0.069
761	0.068
761	0.067
761	0.066
762	0.064
762	0.063
763	0.062
763	0.06
764	0.057
764	0.056
764	0.054
765	0.053
765	0.051
766	0.05
766	0.049
767	0.048
767	0.046
768	0.043
768	0.042
768	0.041
769	0.04
769	0.039
770	0.037
770	0.036
771	0.034
771	0.032
771	0.03
772	0.028
772	0.027
773	0.025
773	0.023
774	0.021
774	0.019
775	0.017
775	0.016
775	0.014
776	0.013
776	0.011
777	0.01
777	0.009
778	0.007
778	0.005
778	0.003
779	0.002
779	0.001
780	-0.002
780	-0.004
781	-0.007
781	-0.01
781	-0.013
782	-0.017
782	-0.021
783	-0.025
783	-0.029
784	-0.034
784	-0.038
784	-0.043
785	-0.048
785	-0.053
786	-0.057
786	-0.061
787	-0.065
787	-0.068
788	-0.073
788	-0.079
788	-0.086
789	-0.093
789	-0.098
790	-0.101
790	-0.105
791	-0.11
791	-0.114
791	-0.116
792	-0.112
792	-0.103
793	-0.099
793	-0.095
794	-0.094
794	-0.096
794	-0.1
795	-0.103
795	-0.103
796	-0.103
796	-0.106
797	-0.115
797	-0.126
797	-0.133
798	-0.138
798	-0.141
799	-0.142
799	-0.141
800	-0.141
800	-0.142
801	-0.145
801	-0.146
801	-0.145
802	-0.146
802	-0.147
803	-0.148
803	-0.148
804	-0.147
804	-0.142
804	-0.135
805	-0.132
805	-0.13
806	-0.128
806	-0.127
807	-0.127
807	-0.127
807	-0.127
808	-0.127
808	-0.129
809	-0.134
809	-0.139
810	-0.143
810	-0.146
810	-0.149
811	-0.152
811	-0.153
812	-0.149
812	-0.145
813	-0.145
813	-0.146
813	-0.148
814	-0.149
814	-0.149
815	-0.146
815	-0.142
816	-0.138
816	-0.134
817	-0.132
817	-0.129
817	-0.122
818	-0.113
818	-0.102
819	-0.09
819	-0.079
820	-0.071
820	-0.063
820	-0.055
821	-0.048
821	-0.041
822	-0.035
822	-0.03
823	-0.025
823	-0.021
823	-0.018
824	-0.014
824	-0.01
825	-0.006
825	-0.002
826	0.001
826	0.003
826	0.006
827	0.008
827	0.01
828	0.012
828	0.013
829	0.014
829	0.015
829	0.015
830	0.015
830	0.016
831	0.017
831	0.017
832	0.017
832	0.018
832	0.018
833	0.018
833	0.019
834	0.019
834	0.02
835	0.02
835	0.02
835	0.02
836	0.02
836	0.021
837	0.022
837	0.022
838	0.023
838	0.023
839	0.024
839	0.024
839	0.025
840	0.025
840	0.025
841	0.025
841	0.025
842	0.026
842	0.026
842	0.026
843	0.026
843	0.026
844	0.026
844	0.026
845	0.026
845	0.026
845	0.026
846	0.026
846	0.025
847	0.025
847	0.025
848	0.025
848	0.025
848	0.026
849	0.026
849	0.026
850	0.027
850	0.027
851	0.027
851	0.028
851	0.028
852	0.028
852	0.028
853	0.027
853	0.026
854	0.026
854	0.026
854	0.026
855	0.026
855	0.025
856	0.025
856	0.024
857	0.024
857	0.024
857	0.024
858	0.024
858	0.024
859	0.024
859	0.025
860	0.025
860	0.026
860	0.026
861	0.027
861	0.028
862	0.028
862	0.028
863	0.029
863	0.029
863	0.03
864	0.03
864	0.03
865	0.031
865	0.032
866	0.032
866	0.032
866	0.033
867	0.034
867	0.035
868	0.035
868	0.035
869	0.035
869	0.035
869	0.035
870	0.034
870	0.034
871	0.033
871	0.033
872	0.033
872	0.033
872	0.032
873	0.033
873	0.032
874	0.032
874	0.032
875	0.032
875	0.031
875	0.031
876	0.03
876	0.029
877	0.028
877	0.027
878	0.026
878	0.025
878	0.024
879	0.023
879	0.023
880	0.022
880	0.022
881	0.022
881	0.022
881	0.022
882	0.023
882	0.023
883	0.023
883	0.023
884	0.023
884	0.022
884	0.022
885	0.021
885	0.021
886	0.021
886	0.021
887	0.021
887	0.021
887	0.022
888	0.022
888	0.022
889	0.023
889	0.024
890	0.025
890	0.025
890	0.026
891	0.026
891	0.026
892	0.027
892	0.027
893	0.028
893	0.029
893	0.029
894	0.029
894	0.029
895	0.028
895	0.028
895	0.028
896	0.027
896	0.026
897	0.026
897	0.026
898	0.025
898	0.025
898	0.024
899	0.024
899	0.024
900	0.024
900	0.025
901	0.025
901	0.025
901	0.026
902	0.026
902	0.027
903	0.027
903	0.028
904	0.028
904	0.029
904	0.029
905	0.03
905	0.03
906	0.03
906	0.03
907	0.03
907	0.03
907	0.031
908	0.031
908	0.031
909	0.031
909	0.031
910	0.032
910	0.032
910	0.032
911	0.032
911	0.033
912	0.032
912	0.032
913	0.032
913	0.031
913	0.031
914	0.03
914	0.029
915	0.029
915	0.028
916	0.027
916	0.026
916	0.025
917	0.024
917	0.023
918	0.022
918	0.02
918	0.019
919	0.018
919	0.017
920	0.016
920	0.016
921	0.015
921	0.015
921	0.015
922	0.015
922	0.016
923	0.016
923	0.016
924	0.017
924	0.017
924	0.018
925	0.019
925	0.02
926	0.021
926	0.021
927	0.021
927	0.021
927	0.022
928	0.021
928	0.021
929	0.021
929	0.02
930	0.02
930	0.019
930	0.018
931	0.017
931	0.017
932	0.016
932	0.016
933	0.015
933	0.015
933	0.014
934	0.013
934	0.013
935	0.012
935	0.012
935	0.011
936	0.011
936	0.01
937	0.01
937	0.01
938	0.01
938	0.009
938	0.01
939	0.01
939	0.011
940	0.012
940	0.013
941	0.014
941	0.015
941	0.016
942	0.017
942	0.018
943	0.019
943	0.019
944	0.02
944	0.02
944	0.021
945	0.021
945	0.022
946	0.022
946	0.022
946	0.022
947	0.023
947	0.023
948	0.024
948	0.024
949	0.024
949	0.024
949	0.025
950	0.025
950	0.025
951	0.026
951	0.026
952	0.026
952	0.026
952	0.025
953	0.025
953	0.024
954	0.024
954	0.023
955	0.023
955	0.023
955	0.022
956	0.022
956	0.022
957	0.022
957	0.022
957	0.022
958	0.022
958	0.022
959	0.022
959	0.022
960	0.022
960	0.022
960	0.022
961	0.022
961	0.023
962	0.023
962	0.023
963	0.024
963	0.024
963	0.025
964	0.025
964	0.025
965	0.025
965	0.025
966	0.025
966	0.025
966	0.025
967	0.025
967	0.024
968	0.023
968	0.023
968	0.022
969	0.021
969	0.021
970	0.02
970	0.019
971	0.019
971	0.018
971	0.018
972	0.018
972	0.018
973	0.018
973	0.018
974	0.018
974	0.018
974	0.019
975	0.019
975	0.02
976	0.021
976	0.022
976	0.022
977	0.023
977	0.024
978	0.024
978	0.024
979	0.025
979	0.025
979	0.025
980	0.024
980	0.023
981	0.022
981	0.022
982	0.021
982	0.02
982	0.019
983	0.018
983	0.017
984	0.016
984	0.016
984	0.015
985	0.014
985	0.014
986	0.013
986	0.012
987	0.012
987	0.011
987	0.011
988	0.011
988	0.011
989	0.011
989	0.011
990	0.011
990	0.011
990	0.012
991	0.013
991	0.013
992	0.014
992	0.014
992	0.015
993	0.015
993	0.015
994	0.015
994	0.015
995	0.015
995	0.015
995	0.015
996	0.015
996	0.014
997	0.014
997	0.014
997	0.014
998	0.014
998	0.015
999	0.016
999	0.016
1000	0.017
1000	0.018
1000	0.019
1001	0.02
1001	0.021
1002	0.022
1002	0.022
1003	0.023
1003	0.023
1003	0.024
1004	0.024
1004	0.023
1005	0.023
1005	0.022
1005	0.022
1006	0.021
1006	0.02
1007	0.02
1007	0.019
1008	0.019
1008	0.018
1008	0.018
1009	0.018
1009	0.018
1010	0.018
1010	0.018
1010	0.018
1011	0.018
1011	0.018
1012	0.017
1012	0.017
1013	0.017
1013	0.016
1013	0.016
1014	0.014
1014	0.013
1015	0.012
1015	0.011
1016	0.01
1016	0.009
1016	0.008
1017	0.007
1017	0.006
1018	0.005
1018	0.004
1018	0.004
1019	0.003
1019	0.003
1020	0.003
1020	0.002
1021	0.002
1021	0.003
1021	0.003
1022	0.003
1022	0.004
1023	0.004
1023	0.004
1023	0.005
1024	0.005
1024	0.005
1025	0.005
1025	0.005
1026	0.005
1026	0.005
1026	0.005
1027	0.005
1027	0.005
1028	0.005
1028	0.005
1028	0.005
1029	0.005
1029	0.005
1030	0.004
1030	0.004
1031	0.004
1031	0.004
1031	0.003
1032	0.003
1032	0.003
1033	0.003
1033	0.003
1033	0.003
1034	0.002
1034	0.002
1035	0.002
1035	0.001
1036	0.001
1036	0.001
1036	0.001
1037	0.001
1037	0.002
1038	0.002
1038	0.002
1039	0.003
1039	0.004
1039	0.004
1040	0.005
1040	0.006
1041	0.007
1041	0.008
1041	0.008
1042	0.009
1042	0.01
1043	0.01
1043	0.011
1044	0.012
1044	0.012
1044	0.013
1045	0.013
1045	0.013
1046	0.012
1046	0.012
1046	0.012
1047	0.012
1047	0.012
1048	0.012
1048	0.011
1049	0.011
1049	0.01
1049	0.009
1050	0.008
1050	0.007
1051	0.006
1051	0.006
1051	0.005
1052	0.004
1052	0.003
1053	0.002
1053	0.001
1053	0.001
1054	-0
1054	-0.001
1055	-0.001
1055	-0.002
1056	-0.003
1056	-0.004
1056	-0.005
1057	-0.006
1057	-0.007
1058	-0.007
1058	-0.008
1058	-0.008
1059	-0.008
1059	-0.008
1060	-0.009
1060	-0.009
1061	-0.008
1061	-0.008
1061	-0.007
1062	-0.007
1062	-0.007
1063	-0.007
1063	-0.007
1063	-0.007
1064	-0.007
1064	-0.006
1065	-0.006
1065	-0.006
1066	-0.006
1066	-0.005
1066	-0.005
1067	-0.004
1067	-0.004
1068	-0.004
1068	-0.004
1068	-0.004
1069	-0.004
1069	-0.005
1070	-0.006
1070	-0.007
1071	-0.008
1071	-0.008
1071	-0.01
1072	-0.01
1072	-0.011
1073	-0.012
1073	-0.013
1073	-0.014
1074	-0.014
1074	-0.014
1075	-0.015
1075	-0.016
1076	-0.017
1076	-0.017
1076	-0.018
1077	-0.018
1077	-0.018
1078	-0.019
1078	-0.019
1078	-0.019
1079	-0.019
1079	-0.018
1080	-0.018
1080	-0.018
1080	-0.018
1081	-0.017
1081	-0.016
1082	-0.016
1082	-0.016
1083	-0.016
1083	-0.016
1083	-0.016
1084	-0.016
1084	-0.015
1085	-0.015
1085	-0.014
1085	-0.014
1086	-0.014
1086	-0.014
1087	-0.013
1087	-0.012
1088	-0.012
1088	-0.012
1088	-0.012
1089	-0.013
1089	-0.013
1090	-0.013
1090	-0.014
1090	-0.014
1091	-0.015
1091	-0.014
1092	-0.015
1092	-0.014
1092	-0.014
1093	-0.015
1093	-0.013
1094	-0.013
1094	-0.013
1095	-0.014
1095	-0.014
1095	-0.013
1096	-0.013
1096	-0.012
1097	-0.011
1097	-0.011
1097	-0.009
1098	-0.009
1098	-0.007
1099	-0.006
1099	-0.004
1100	-0.003
1100	-0.002
1100	-0.001
1101	-0
1101	0.001
1102	0.004
1102	0.004
1102	0.007
1103	0.008
1103	0.011
1104	0.014
1104	0.018
1104	0.023
1105	0.026
1105	0.03
1106	0.033
1106	0.037
1107	0.041
1107	0.047
1107	0.055
1108	0.082
1108	0.118
1109	0.165
1109	0.236
1109	0.288
1110	0.381
1110	0.581
1111	2.678
1111	-0
