Data from 17c-2a_Absorbance__2196__02197.txt Node

Date: Fri Jan 26 11:00:42 CET 2024
User: Marek
Spectrometer: MAYP115816
Trigger mode: 0
Integration Time (sec): 2.000000E-1
Scans to average: 10
Electric dark correction enabled: true
Nonlinearity correction enabled: true
Boxcar width: 5
XAxis mode: Wavelengths
Number of Pixels in Spectrum: 2068
>>>>>Begin Spectral Data<<<<<
199	-1.497
199	-1.361
200	-1.213
200	-1.102
201	-1.032
201	-0.989
202	-0.925
202	-0.875
203	-0.833
203	-0.797
204	-0.771
204	-0.748
205	-0.726
205	-0.716
205	-0.714
206	-0.71
206	-0.707
207	-0.703
207	-0.702
208	-0.702
208	-0.701
209	-0.698
209	-0.696
210	-0.697
210	-0.697
211	-0.698
211	-0.699
212	-0.699
212	-0.699
213	-0.697
213	-0.694
213	-0.694
214	-0.693
214	-0.691
215	-0.686
215	-0.684
216	-0.68
216	-0.68
217	-0.676
217	-0.674
218	-0.67
218	-0.668
219	-0.664
219	-0.663
220	-0.661
220	-0.663
221	-0.66
221	-0.66
221	-0.656
222	-0.651
222	-0.647
223	-0.644
223	-0.641
224	-0.636
224	-0.628
225	-0.622
225	-0.613
226	-0.605
226	-0.593
227	-0.583
227	-0.573
228	-0.557
228	-0.541
229	-0.521
229	-0.499
229	-0.475
230	-0.447
230	-0.416
231	-0.385
231	-0.35
232	-0.314
232	-0.276
233	-0.235
233	-0.195
234	-0.155
234	-0.115
235	-0.075
235	-0.038
236	-0.003
236	0.032
236	0.065
237	0.096
237	0.123
238	0.149
238	0.173
239	0.195
239	0.215
240	0.233
240	0.249
241	0.264
241	0.277
242	0.289
242	0.3
243	0.311
243	0.319
243	0.328
244	0.335
244	0.342
245	0.348
245	0.355
246	0.36
246	0.365
247	0.37
247	0.375
248	0.379
248	0.383
249	0.387
249	0.39
250	0.394
250	0.397
250	0.4
251	0.403
251	0.405
252	0.408
252	0.411
253	0.413
253	0.415
254	0.417
254	0.419
255	0.42
255	0.422
256	0.424
256	0.425
257	0.427
257	0.428
258	0.428
258	0.429
258	0.43
259	0.431
259	0.432
260	0.432
260	0.433
261	0.433
261	0.433
262	0.433
262	0.433
263	0.433
263	0.432
264	0.432
264	0.432
265	0.431
265	0.43
265	0.429
266	0.428
266	0.427
267	0.426
267	0.424
268	0.423
268	0.421
269	0.42
269	0.418
270	0.416
270	0.414
271	0.412
271	0.41
272	0.409
272	0.407
272	0.405
273	0.403
273	0.401
274	0.399
274	0.397
275	0.395
275	0.393
276	0.391
276	0.388
277	0.386
277	0.383
278	0.381
278	0.378
278	0.376
279	0.373
279	0.371
280	0.368
280	0.366
281	0.363
281	0.361
282	0.359
282	0.357
283	0.355
283	0.353
284	0.351
284	0.349
285	0.348
285	0.345
285	0.343
286	0.341
286	0.34
287	0.338
287	0.336
288	0.334
288	0.332
289	0.331
289	0.329
290	0.327
290	0.326
291	0.324
291	0.323
292	0.321
292	0.32
292	0.319
293	0.317
293	0.316
294	0.315
294	0.313
295	0.312
295	0.311
296	0.31
296	0.309
297	0.308
297	0.307
298	0.306
298	0.305
298	0.304
299	0.303
299	0.302
300	0.301
300	0.3
301	0.3
301	0.299
302	0.298
302	0.297
303	0.296
303	0.295
304	0.294
304	0.294
305	0.293
305	0.292
305	0.291
306	0.29
306	0.29
307	0.289
307	0.288
308	0.287
308	0.286
309	0.286
309	0.285
310	0.284
310	0.283
311	0.283
311	0.282
311	0.281
312	0.281
312	0.28
313	0.279
313	0.278
314	0.278
314	0.277
315	0.276
315	0.275
316	0.274
316	0.274
317	0.273
317	0.272
318	0.271
318	0.271
318	0.27
319	0.269
319	0.268
320	0.268
320	0.267
321	0.266
321	0.265
322	0.265
322	0.264
323	0.263
323	0.262
324	0.261
324	0.261
324	0.26
325	0.259
325	0.259
326	0.258
326	0.257
327	0.256
327	0.256
328	0.255
328	0.255
329	0.254
329	0.253
330	0.253
330	0.252
330	0.251
331	0.251
331	0.25
332	0.249
332	0.249
333	0.248
333	0.248
334	0.247
334	0.247
335	0.246
335	0.245
336	0.245
336	0.244
336	0.244
337	0.243
337	0.243
338	0.242
338	0.242
339	0.241
339	0.241
340	0.24
340	0.24
341	0.239
341	0.238
342	0.238
342	0.238
342	0.237
343	0.236
343	0.236
344	0.236
344	0.235
345	0.235
345	0.235
346	0.234
346	0.234
347	0.234
347	0.233
348	0.233
348	0.233
348	0.232
349	0.232
349	0.232
350	0.231
350	0.231
351	0.23
351	0.23
352	0.23
352	0.229
353	0.229
353	0.229
354	0.229
354	0.228
354	0.228
355	0.227
355	0.227
356	0.227
356	0.226
357	0.226
357	0.225
358	0.225
358	0.225
359	0.225
359	0.225
360	0.225
360	0.226
360	0.226
361	0.226
361	0.226
362	0.226
362	0.226
363	0.226
363	0.226
364	0.226
364	0.225
365	0.225
365	0.225
366	0.225
366	0.225
366	0.225
367	0.225
367	0.224
368	0.224
368	0.224
369	0.223
369	0.223
370	0.223
370	0.223
371	0.222
371	0.222
372	0.222
372	0.222
372	0.222
373	0.222
373	0.221
374	0.222
374	0.222
375	0.222
375	0.222
376	0.222
376	0.222
377	0.222
377	0.222
378	0.222
378	0.221
378	0.221
379	0.221
379	0.221
380	0.221
380	0.221
381	0.221
381	0.221
382	0.22
382	0.22
383	0.22
383	0.219
383	0.219
384	0.219
384	0.218
385	0.218
385	0.218
386	0.217
386	0.217
387	0.217
387	0.217
388	0.217
388	0.217
389	0.217
389	0.217
389	0.217
390	0.217
390	0.217
391	0.217
391	0.217
392	0.217
392	0.217
393	0.217
393	0.217
394	0.217
394	0.216
394	0.216
395	0.216
395	0.215
396	0.215
396	0.215
397	0.215
397	0.215
398	0.214
398	0.214
399	0.214
399	0.213
400	0.213
400	0.213
400	0.213
401	0.212
401	0.212
402	0.212
402	0.211
403	0.211
403	0.211
404	0.211
404	0.211
405	0.211
405	0.211
405	0.21
406	0.21
406	0.21
407	0.21
407	0.21
408	0.21
408	0.21
409	0.209
409	0.209
410	0.209
410	0.209
411	0.209
411	0.209
411	0.209
412	0.208
412	0.208
413	0.208
413	0.208
414	0.208
414	0.207
415	0.207
415	0.207
416	0.206
416	0.206
416	0.206
417	0.205
417	0.206
418	0.205
418	0.206
419	0.206
419	0.206
420	0.206
420	0.206
421	0.206
421	0.206
421	0.206
422	0.207
422	0.207
423	0.207
423	0.206
424	0.206
424	0.206
425	0.205
425	0.205
426	0.205
426	0.205
427	0.205
427	0.205
427	0.205
428	0.206
428	0.206
429	0.206
429	0.206
430	0.206
430	0.206
431	0.206
431	0.205
432	0.205
432	0.205
432	0.204
433	0.204
433	0.203
434	0.203
434	0.203
435	0.203
435	0.203
436	0.203
436	0.204
437	0.204
437	0.203
437	0.203
438	0.203
438	0.203
439	0.203
439	0.202
440	0.202
440	0.202
441	0.202
441	0.202
442	0.202
442	0.202
442	0.202
443	0.203
443	0.203
444	0.203
444	0.203
445	0.203
445	0.203
446	0.203
446	0.203
447	0.203
447	0.203
447	0.203
448	0.203
448	0.203
449	0.203
449	0.203
450	0.203
450	0.203
451	0.203
451	0.203
452	0.203
452	0.203
452	0.203
453	0.203
453	0.202
454	0.202
454	0.202
455	0.202
455	0.202
456	0.203
456	0.202
457	0.202
457	0.202
458	0.203
458	0.203
458	0.203
459	0.204
459	0.204
460	0.203
460	0.203
461	0.203
461	0.203
462	0.203
462	0.203
463	0.204
463	0.204
463	0.205
464	0.205
464	0.205
465	0.205
465	0.205
466	0.206
466	0.206
467	0.206
467	0.206
467	0.206
468	0.205
468	0.205
469	0.204
469	0.204
470	0.205
470	0.205
471	0.205
471	0.205
472	0.205
472	0.205
472	0.206
473	0.207
473	0.208
474	0.208
474	0.209
475	0.21
475	0.21
476	0.211
476	0.212
477	0.212
477	0.213
477	0.213
478	0.214
478	0.214
479	0.215
479	0.216
480	0.216
480	0.217
481	0.218
481	0.218
482	0.219
482	0.22
482	0.221
483	0.223
483	0.226
484	0.227
484	0.229
485	0.23
485	0.231
486	0.232
486	0.233
487	0.234
487	0.235
487	0.236
488	0.236
488	0.235
489	0.236
489	0.236
490	0.237
490	0.237
491	0.238
491	0.239
492	0.241
492	0.241
492	0.243
493	0.244
493	0.245
494	0.247
494	0.249
495	0.251
495	0.252
496	0.254
496	0.256
496	0.257
497	0.259
497	0.26
498	0.262
498	0.263
499	0.264
499	0.266
500	0.268
500	0.27
501	0.272
501	0.273
501	0.275
502	0.277
502	0.278
503	0.28
503	0.282
504	0.283
504	0.284
505	0.285
505	0.287
506	0.288
506	0.289
506	0.291
507	0.292
507	0.293
508	0.294
508	0.296
509	0.297
509	0.299
510	0.3
510	0.301
511	0.302
511	0.304
511	0.305
512	0.306
512	0.307
513	0.307
513	0.308
514	0.309
514	0.309
515	0.31
515	0.311
515	0.311
516	0.312
516	0.313
517	0.314
517	0.314
518	0.315
518	0.315
519	0.314
519	0.314
520	0.313
520	0.313
520	0.313
521	0.312
521	0.311
522	0.311
522	0.31
523	0.311
523	0.311
524	0.312
524	0.313
524	0.313
525	0.313
525	0.314
526	0.315
526	0.315
527	0.316
527	0.316
528	0.316
528	0.316
529	0.316
529	0.315
529	0.315
530	0.314
530	0.314
531	0.313
531	0.312
532	0.311
532	0.31
533	0.309
533	0.308
533	0.306
534	0.305
534	0.303
535	0.302
535	0.301
536	0.299
536	0.298
537	0.297
537	0.295
538	0.294
538	0.292
538	0.291
539	0.289
539	0.288
540	0.286
540	0.284
541	0.282
541	0.28
542	0.277
542	0.275
542	0.273
543	0.271
543	0.268
544	0.266
544	0.264
545	0.263
545	0.261
546	0.26
546	0.258
547	0.256
547	0.254
547	0.251
548	0.25
548	0.248
549	0.246
549	0.244
550	0.242
550	0.239
551	0.236
551	0.233
551	0.231
552	0.229
552	0.227
553	0.225
553	0.224
554	0.221
554	0.219
555	0.216
555	0.214
556	0.211
556	0.208
556	0.205
557	0.202
557	0.2
558	0.197
558	0.195
559	0.192
559	0.19
560	0.188
560	0.186
560	0.185
561	0.184
561	0.183
562	0.181
562	0.18
563	0.178
563	0.175
564	0.173
564	0.171
564	0.169
565	0.167
565	0.166
566	0.164
566	0.162
567	0.16
567	0.159
568	0.158
568	0.157
568	0.157
569	0.156
569	0.156
570	0.155
570	0.154
571	0.153
571	0.153
572	0.152
572	0.151
573	0.149
573	0.148
573	0.146
574	0.145
574	0.144
575	0.144
575	0.144
576	0.143
576	0.141
577	0.139
577	0.138
577	0.137
578	0.136
578	0.136
579	0.136
579	0.136
580	0.134
580	0.131
581	0.128
581	0.127
581	0.126
582	0.126
582	0.126
583	0.126
583	0.124
584	0.121
584	0.118
585	0.118
585	0.118
585	0.117
586	0.117
586	0.116
587	0.114
587	0.112
588	0.11
588	0.109
589	0.108
589	0.107
590	0.107
590	0.106
590	0.107
591	0.107
591	0.106
592	0.106
592	0.105
593	0.105
593	0.105
594	0.104
594	0.103
594	0.103
595	0.102
595	0.101
596	0.1
596	0.101
597	0.103
597	0.104
598	0.104
598	0.104
598	0.104
599	0.104
599	0.104
600	0.103
600	0.102
601	0.101
601	0.1
602	0.098
602	0.097
602	0.096
603	0.096
603	0.096
604	0.096
604	0.097
605	0.098
605	0.098
606	0.098
606	0.097
606	0.096
607	0.096
607	0.096
608	0.095
608	0.094
609	0.093
609	0.093
610	0.093
610	0.092
610	0.093
611	0.094
611	0.095
612	0.097
612	0.099
613	0.1
613	0.102
614	0.102
614	0.102
614	0.103
615	0.103
615	0.103
616	0.103
616	0.103
617	0.102
617	0.102
618	0.101
618	0.101
618	0.1
619	0.1
619	0.101
620	0.102
620	0.103
621	0.103
621	0.103
622	0.103
622	0.103
622	0.103
623	0.103
623	0.104
624	0.105
624	0.105
625	0.105
625	0.106
626	0.106
626	0.107
626	0.108
627	0.109
627	0.11
628	0.111
628	0.111
629	0.112
629	0.112
630	0.112
630	0.112
630	0.113
631	0.113
631	0.113
632	0.113
632	0.114
633	0.114
633	0.115
634	0.117
634	0.119
634	0.121
635	0.122
635	0.123
636	0.124
636	0.125
637	0.126
637	0.127
638	0.129
638	0.13
638	0.131
639	0.131
639	0.132
640	0.134
640	0.135
641	0.137
641	0.138
642	0.14
642	0.142
642	0.144
643	0.146
643	0.147
644	0.149
644	0.151
645	0.153
645	0.154
646	0.157
646	0.16
646	0.163
647	0.166
647	0.169
648	0.171
648	0.174
649	0.177
649	0.18
650	0.183
650	0.186
650	0.189
651	0.192
651	0.194
652	0.196
652	0.198
653	0.201
653	0.208
653	0.215
654	0.17
654	0.137
655	0.14
655	0.142
656	0.143
656	0.145
657	0.147
657	0.149
657	0.151
658	0.149
658	0.141
659	0.18
659	0.234
660	0.242
660	0.245
661	0.247
661	0.25
661	0.253
662	0.256
662	0.259
663	0.262
663	0.265
664	0.267
664	0.27
665	0.272
665	0.275
665	0.278
666	0.28
666	0.283
667	0.285
667	0.288
668	0.29
668	0.293
669	0.296
669	0.299
669	0.302
670	0.305
670	0.308
671	0.309
671	0.311
672	0.313
672	0.315
672	0.317
673	0.318
673	0.32
674	0.322
674	0.324
675	0.325
675	0.327
676	0.33
676	0.332
676	0.334
677	0.336
677	0.338
678	0.34
678	0.341
679	0.342
679	0.343
680	0.345
680	0.346
680	0.346
681	0.347
681	0.349
682	0.35
682	0.351
683	0.352
683	0.354
684	0.355
684	0.355
684	0.355
685	0.356
685	0.356
686	0.356
686	0.356
687	0.355
687	0.355
687	0.354
688	0.354
688	0.354
689	0.355
689	0.356
690	0.356
690	0.356
691	0.357
691	0.357
691	0.357
692	0.356
692	0.356
693	0.355
693	0.355
694	0.353
694	0.351
695	0.351
695	0.351
695	0.35
696	0.348
696	0.347
697	0.346
697	0.345
698	0.344
698	0.342
698	0.34
699	0.339
699	0.336
700	0.332
700	0.33
701	0.328
701	0.326
702	0.323
702	0.321
702	0.318
703	0.316
703	0.313
704	0.311
704	0.309
705	0.308
705	0.307
705	0.305
706	0.303
706	0.302
707	0.3
707	0.299
708	0.297
708	0.296
709	0.294
709	0.292
709	0.29
710	0.287
710	0.285
711	0.284
711	0.282
712	0.279
712	0.277
713	0.275
713	0.273
713	0.27
714	0.267
714	0.264
715	0.261
715	0.258
716	0.255
716	0.252
716	0.249
717	0.246
717	0.243
718	0.239
718	0.236
719	0.234
719	0.232
720	0.229
720	0.227
720	0.225
721	0.222
721	0.22
722	0.218
722	0.215
723	0.213
723	0.211
723	0.209
724	0.207
724	0.205
725	0.202
725	0.2
726	0.198
726	0.196
727	0.194
727	0.192
727	0.19
728	0.188
728	0.186
729	0.185
729	0.183
730	0.181
730	0.178
730	0.177
731	0.175
731	0.174
732	0.173
732	0.171
733	0.17
733	0.168
734	0.167
734	0.165
734	0.164
735	0.164
735	0.162
736	0.16
736	0.158
737	0.156
737	0.155
737	0.153
738	0.15
738	0.147
739	0.145
739	0.143
740	0.14
740	0.139
741	0.137
741	0.135
741	0.133
742	0.131
742	0.129
743	0.128
743	0.126
744	0.125
744	0.123
744	0.122
745	0.12
745	0.117
746	0.116
746	0.114
747	0.113
747	0.112
748	0.111
748	0.11
748	0.109
749	0.107
749	0.106
750	0.105
750	0.105
751	0.104
751	0.104
751	0.104
752	0.103
752	0.101
753	0.1
753	0.099
754	0.098
754	0.097
754	0.097
755	0.096
755	0.096
756	0.094
756	0.093
757	0.092
757	0.091
758	0.091
758	0.09
758	0.09
759	0.09
759	0.088
760	0.087
760	0.085
761	0.083
761	0.082
761	0.081
762	0.079
762	0.077
763	0.076
763	0.073
764	0.07
764	0.068
764	0.066
765	0.064
765	0.062
766	0.061
766	0.06
767	0.059
767	0.057
768	0.054
768	0.053
768	0.052
769	0.052
769	0.051
770	0.049
770	0.048
771	0.046
771	0.043
771	0.041
772	0.039
772	0.037
773	0.036
773	0.033
774	0.031
774	0.029
775	0.027
775	0.025
775	0.023
776	0.021
776	0.019
777	0.017
777	0.015
778	0.012
778	0.01
778	0.007
779	0.005
779	0.003
780	0
780	-0.002
781	-0.005
781	-0.009
781	-0.012
782	-0.016
782	-0.021
783	-0.025
783	-0.029
784	-0.033
784	-0.039
784	-0.044
785	-0.049
785	-0.054
786	-0.059
786	-0.063
787	-0.067
787	-0.071
788	-0.077
788	-0.083
788	-0.09
789	-0.097
789	-0.102
790	-0.104
790	-0.108
791	-0.112
791	-0.116
791	-0.118
792	-0.114
792	-0.104
793	-0.099
793	-0.095
794	-0.093
794	-0.096
794	-0.1
795	-0.102
795	-0.103
796	-0.103
796	-0.106
797	-0.114
797	-0.126
797	-0.132
798	-0.138
798	-0.141
799	-0.142
799	-0.141
800	-0.14
800	-0.142
801	-0.145
801	-0.145
801	-0.145
802	-0.146
802	-0.147
803	-0.148
803	-0.148
804	-0.147
804	-0.142
804	-0.135
805	-0.131
805	-0.13
806	-0.128
806	-0.127
807	-0.127
807	-0.127
807	-0.127
808	-0.127
808	-0.128
809	-0.133
809	-0.139
810	-0.143
810	-0.145
810	-0.149
811	-0.152
811	-0.152
812	-0.148
812	-0.145
813	-0.145
813	-0.146
813	-0.147
814	-0.148
814	-0.149
815	-0.147
815	-0.144
816	-0.14
816	-0.138
817	-0.138
817	-0.135
817	-0.129
818	-0.12
818	-0.11
819	-0.099
819	-0.089
820	-0.08
820	-0.071
820	-0.062
821	-0.054
821	-0.046
822	-0.039
822	-0.033
823	-0.027
823	-0.023
823	-0.02
824	-0.016
824	-0.012
825	-0.007
825	-0.003
826	0.001
826	0.003
826	0.006
827	0.008
827	0.01
828	0.012
828	0.013
829	0.015
829	0.017
829	0.018
830	0.018
830	0.019
831	0.021
831	0.022
832	0.023
832	0.024
832	0.024
833	0.025
833	0.025
834	0.025
834	0.026
835	0.026
835	0.025
835	0.025
836	0.025
836	0.025
837	0.026
837	0.026
838	0.027
838	0.027
839	0.027
839	0.027
839	0.027
840	0.027
840	0.027
841	0.027
841	0.027
842	0.026
842	0.026
842	0.026
843	0.026
843	0.026
844	0.026
844	0.026
845	0.026
845	0.026
845	0.026
846	0.027
846	0.027
847	0.027
847	0.027
848	0.027
848	0.028
848	0.028
849	0.029
849	0.029
850	0.03
850	0.03
851	0.03
851	0.031
851	0.031
852	0.03
852	0.03
853	0.03
853	0.029
854	0.029
854	0.029
854	0.029
855	0.029
855	0.028
856	0.028
856	0.028
857	0.027
857	0.027
857	0.028
858	0.028
858	0.028
859	0.028
859	0.028
860	0.029
860	0.029
860	0.03
861	0.031
861	0.032
862	0.032
862	0.032
863	0.033
863	0.033
863	0.033
864	0.033
864	0.033
865	0.034
865	0.034
866	0.034
866	0.034
866	0.035
867	0.035
867	0.035
868	0.036
868	0.036
869	0.036
869	0.035
869	0.035
870	0.034
870	0.034
871	0.033
871	0.033
872	0.033
872	0.032
872	0.032
873	0.032
873	0.033
874	0.033
874	0.033
875	0.033
875	0.032
875	0.032
876	0.031
876	0.03
877	0.029
877	0.028
878	0.027
878	0.026
878	0.025
879	0.025
879	0.024
880	0.024
880	0.023
881	0.023
881	0.024
881	0.024
882	0.024
882	0.024
883	0.024
883	0.023
884	0.023
884	0.023
884	0.022
885	0.022
885	0.022
886	0.022
886	0.022
887	0.023
887	0.023
887	0.024
888	0.024
888	0.025
889	0.026
889	0.026
890	0.027
890	0.028
890	0.028
891	0.028
891	0.028
892	0.029
892	0.029
893	0.03
893	0.03
893	0.03
894	0.03
894	0.03
895	0.03
895	0.03
895	0.029
896	0.029
896	0.029
897	0.028
897	0.028
898	0.028
898	0.028
898	0.028
899	0.028
899	0.028
900	0.028
900	0.028
901	0.029
901	0.029
901	0.029
902	0.029
902	0.029
903	0.029
903	0.03
904	0.03
904	0.031
904	0.031
905	0.032
905	0.032
906	0.032
906	0.033
907	0.032
907	0.032
907	0.032
908	0.032
908	0.032
909	0.032
909	0.032
910	0.032
910	0.033
910	0.033
911	0.033
911	0.033
912	0.033
912	0.033
913	0.033
913	0.033
913	0.033
914	0.032
914	0.032
915	0.031
915	0.031
916	0.03
916	0.029
916	0.028
917	0.027
917	0.026
918	0.025
918	0.024
918	0.023
919	0.021
919	0.021
920	0.02
920	0.019
921	0.019
921	0.019
921	0.019
922	0.019
922	0.02
923	0.02
923	0.02
924	0.021
924	0.021
924	0.022
925	0.022
925	0.023
926	0.023
926	0.024
927	0.024
927	0.024
927	0.024
928	0.024
928	0.024
929	0.024
929	0.024
930	0.023
930	0.023
930	0.022
931	0.022
931	0.021
932	0.021
932	0.021
933	0.021
933	0.02
933	0.02
934	0.02
934	0.019
935	0.019
935	0.018
935	0.018
936	0.017
936	0.017
937	0.016
937	0.016
938	0.016
938	0.015
938	0.016
939	0.016
939	0.017
940	0.018
940	0.019
941	0.02
941	0.021
941	0.022
942	0.023
942	0.024
943	0.024
943	0.025
944	0.025
944	0.026
944	0.026
945	0.026
945	0.027
946	0.027
946	0.027
946	0.027
947	0.028
947	0.028
948	0.029
948	0.029
949	0.029
949	0.03
949	0.03
950	0.03
950	0.03
951	0.031
951	0.031
952	0.03
952	0.03
952	0.029
953	0.029
953	0.028
954	0.027
954	0.027
955	0.027
955	0.027
955	0.026
956	0.026
956	0.026
957	0.026
957	0.026
957	0.026
958	0.026
958	0.026
959	0.026
959	0.026
960	0.026
960	0.026
960	0.026
961	0.025
961	0.025
962	0.025
962	0.026
963	0.026
963	0.026
963	0.026
964	0.026
964	0.026
965	0.026
965	0.026
966	0.026
966	0.026
966	0.026
967	0.026
967	0.025
968	0.024
968	0.023
968	0.023
969	0.022
969	0.022
970	0.021
970	0.02
971	0.02
971	0.02
971	0.019
972	0.02
972	0.02
973	0.02
973	0.02
974	0.02
974	0.021
974	0.022
975	0.023
975	0.023
976	0.024
976	0.025
976	0.026
977	0.026
977	0.027
978	0.027
978	0.028
979	0.028
979	0.028
979	0.028
980	0.027
980	0.026
981	0.026
981	0.025
982	0.024
982	0.023
982	0.022
983	0.021
983	0.02
984	0.018
984	0.017
984	0.016
985	0.015
985	0.014
986	0.013
986	0.012
987	0.011
987	0.011
987	0.01
988	0.01
988	0.01
989	0.01
989	0.01
990	0.01
990	0.011
990	0.012
991	0.013
991	0.014
992	0.015
992	0.016
992	0.017
993	0.017
993	0.018
994	0.018
994	0.018
995	0.018
995	0.018
995	0.017
996	0.017
996	0.016
997	0.015
997	0.014
997	0.014
998	0.014
998	0.014
999	0.015
999	0.015
1000	0.016
1000	0.016
1000	0.017
1001	0.018
1001	0.019
1002	0.02
1002	0.02
1003	0.021
1003	0.021
1003	0.021
1004	0.021
1004	0.021
1005	0.02
1005	0.02
1005	0.02
1006	0.019
1006	0.019
1007	0.019
1007	0.019
1008	0.019
1008	0.019
1008	0.019
1009	0.019
1009	0.019
1010	0.019
1010	0.02
1010	0.02
1011	0.02
1011	0.02
1012	0.02
1012	0.02
1013	0.02
1013	0.019
1013	0.019
1014	0.018
1014	0.017
1015	0.016
1015	0.015
1016	0.013
1016	0.012
1016	0.011
1017	0.01
1017	0.009
1018	0.008
1018	0.007
1018	0.007
1019	0.007
1019	0.006
1020	0.006
1020	0.006
1021	0.006
1021	0.007
1021	0.007
1022	0.008
1022	0.008
1023	0.009
1023	0.01
1023	0.01
1024	0.011
1024	0.011
1025	0.011
1025	0.011
1026	0.011
1026	0.01
1026	0.01
1027	0.01
1027	0.009
1028	0.009
1028	0.009
1028	0.009
1029	0.008
1029	0.008
1030	0.008
1030	0.008
1031	0.008
1031	0.008
1031	0.007
1032	0.007
1032	0.007
1033	0.007
1033	0.007
1033	0.007
1034	0.006
1034	0.006
1035	0.006
1035	0.006
1036	0.006
1036	0.006
1036	0.006
1037	0.006
1037	0.006
1038	0.007
1038	0.007
1039	0.008
1039	0.009
1039	0.009
1040	0.01
1040	0.01
1041	0.011
1041	0.011
1041	0.012
1042	0.012
1042	0.013
1043	0.013
1043	0.014
1044	0.014
1044	0.015
1044	0.015
1045	0.015
1045	0.015
1046	0.015
1046	0.015
1046	0.015
1047	0.015
1047	0.016
1048	0.016
1048	0.016
1049	0.015
1049	0.014
1049	0.014
1050	0.013
1050	0.012
1051	0.011
1051	0.011
1051	0.01
1052	0.009
1052	0.008
1053	0.007
1053	0.007
1053	0.006
1054	0.005
1054	0.004
1055	0.004
1055	0.003
1056	0.002
1056	0
1056	-0.001
1057	-0.002
1057	-0.003
1058	-0.003
1058	-0.004
1058	-0.005
1059	-0.005
1059	-0.006
1060	-0.006
1060	-0.006
1061	-0.006
1061	-0.006
1061	-0.005
1062	-0.006
1062	-0.006
1063	-0.006
1063	-0.006
1063	-0.006
1064	-0.006
1064	-0.005
1065	-0.005
1065	-0.005
1066	-0.004
1066	-0.004
1066	-0.003
1067	-0.002
1067	-0.002
1068	-0.001
1068	-0.002
1068	-0.002
1069	-0.003
1069	-0.003
1070	-0.004
1070	-0.005
1071	-0.005
1071	-0.006
1071	-0.007
1072	-0.008
1072	-0.009
1073	-0.009
1073	-0.01
1073	-0.011
1074	-0.011
1074	-0.011
1075	-0.013
1075	-0.014
1076	-0.015
1076	-0.015
1076	-0.016
1077	-0.016
1077	-0.016
1078	-0.017
1078	-0.017
1078	-0.016
1079	-0.016
1079	-0.015
1080	-0.014
1080	-0.013
1080	-0.013
1081	-0.012
1081	-0.01
1082	-0.009
1082	-0.009
1083	-0.008
1083	-0.008
1083	-0.007
1084	-0.007
1084	-0.006
1085	-0.006
1085	-0.006
1085	-0.005
1086	-0.005
1086	-0.006
1087	-0.005
1087	-0.005
1088	-0.005
1088	-0.005
1088	-0.006
1089	-0.007
1089	-0.007
1090	-0.008
1090	-0.008
1090	-0.009
1091	-0.01
1091	-0.009
1092	-0.01
1092	-0.009
1092	-0.009
1093	-0.009
1093	-0.008
1094	-0.007
1094	-0.007
1095	-0.007
1095	-0.006
1095	-0.004
1096	-0.004
1096	-0.003
1097	-0.002
1097	-0.001
1097	-0
1098	0.001
1098	0.003
1099	0.005
1099	0.007
1100	0.008
1100	0.01
1100	0.011
1101	0.013
1101	0.014
1102	0.017
1102	0.018
1102	0.021
1103	0.022
1103	0.025
1104	0.029
1104	0.033
1104	0.037
1105	0.041
1105	0.045
1106	0.048
1106	0.055
1107	0.059
1107	0.067
1107	0.076
1108	0.108
1108	0.153
1109	0.215
1109	0.313
1109	0.386
1110	0.53
1110	0.923
1111	-0
1111	-0
