Data from 17c-2a_Absorbance__672__00673.txt Node

Date: Fri Jan 26 10:09:55 CET 2024
User: Marek
Spectrometer: MAYP115816
Trigger mode: 0
Integration Time (sec): 2.000000E-1
Scans to average: 10
Electric dark correction enabled: true
Nonlinearity correction enabled: true
Boxcar width: 5
XAxis mode: Wavelengths
Number of Pixels in Spectrum: 2068
>>>>>Begin Spectral Data<<<<<
199	-1.226
199	-1.097
200	-0.957
200	-0.854
201	-0.79
201	-0.752
202	-0.696
202	-0.653
203	-0.618
203	-0.588
204	-0.567
204	-0.548
205	-0.53
205	-0.522
205	-0.52
206	-0.516
206	-0.513
207	-0.509
207	-0.51
208	-0.509
208	-0.508
209	-0.505
209	-0.502
210	-0.503
210	-0.504
211	-0.505
211	-0.507
212	-0.509
212	-0.508
213	-0.507
213	-0.504
213	-0.505
214	-0.504
214	-0.502
215	-0.498
215	-0.497
216	-0.495
216	-0.494
217	-0.491
217	-0.49
218	-0.486
218	-0.484
219	-0.48
219	-0.479
220	-0.478
220	-0.479
221	-0.477
221	-0.476
221	-0.472
222	-0.467
222	-0.464
223	-0.461
223	-0.459
224	-0.455
224	-0.45
225	-0.445
225	-0.438
226	-0.432
226	-0.421
227	-0.412
227	-0.404
228	-0.391
228	-0.378
229	-0.361
229	-0.343
229	-0.324
230	-0.301
230	-0.277
231	-0.253
231	-0.227
232	-0.201
232	-0.173
233	-0.145
233	-0.117
234	-0.091
234	-0.066
235	-0.041
235	-0.02
236	0.002
236	0.021
236	0.039
237	0.055
237	0.07
238	0.082
238	0.093
239	0.104
239	0.113
240	0.121
240	0.128
241	0.135
241	0.142
242	0.147
242	0.153
243	0.158
243	0.162
243	0.166
244	0.169
244	0.173
245	0.176
245	0.179
246	0.182
246	0.185
247	0.187
247	0.19
248	0.192
248	0.195
249	0.197
249	0.199
250	0.201
250	0.203
250	0.206
251	0.208
251	0.21
252	0.212
252	0.214
253	0.215
253	0.217
254	0.219
254	0.22
255	0.221
255	0.223
256	0.224
256	0.225
257	0.226
257	0.227
258	0.228
258	0.228
258	0.229
259	0.229
259	0.23
260	0.23
260	0.23
261	0.23
261	0.231
262	0.231
262	0.23
263	0.23
263	0.23
264	0.23
264	0.23
265	0.229
265	0.228
265	0.228
266	0.227
266	0.225
267	0.224
267	0.223
268	0.222
268	0.221
269	0.22
269	0.218
270	0.217
270	0.215
271	0.214
271	0.212
272	0.211
272	0.209
272	0.208
273	0.206
273	0.204
274	0.202
274	0.201
275	0.199
275	0.197
276	0.195
276	0.194
277	0.192
277	0.19
278	0.188
278	0.186
278	0.184
279	0.182
279	0.18
280	0.178
280	0.176
281	0.174
281	0.172
282	0.17
282	0.169
283	0.167
283	0.166
284	0.164
284	0.163
285	0.161
285	0.159
285	0.158
286	0.156
286	0.155
287	0.153
287	0.152
288	0.15
288	0.149
289	0.148
289	0.146
290	0.145
290	0.144
291	0.143
291	0.142
292	0.141
292	0.14
292	0.139
293	0.138
293	0.137
294	0.136
294	0.136
295	0.135
295	0.134
296	0.134
296	0.133
297	0.132
297	0.132
298	0.131
298	0.131
298	0.131
299	0.13
299	0.13
300	0.129
300	0.129
301	0.128
301	0.128
302	0.128
302	0.127
303	0.127
303	0.127
304	0.126
304	0.126
305	0.125
305	0.125
305	0.125
306	0.124
306	0.124
307	0.124
307	0.123
308	0.122
308	0.122
309	0.122
309	0.121
310	0.121
310	0.121
311	0.12
311	0.12
311	0.12
312	0.12
312	0.119
313	0.119
313	0.119
314	0.119
314	0.118
315	0.118
315	0.117
316	0.117
316	0.117
317	0.117
317	0.116
318	0.116
318	0.116
318	0.115
319	0.115
319	0.115
320	0.114
320	0.114
321	0.114
321	0.113
322	0.113
322	0.113
323	0.112
323	0.112
324	0.112
324	0.111
324	0.111
325	0.111
325	0.111
326	0.11
326	0.11
327	0.11
327	0.109
328	0.109
328	0.109
329	0.108
329	0.108
330	0.108
330	0.107
330	0.107
331	0.107
331	0.106
332	0.106
332	0.106
333	0.106
333	0.105
334	0.105
334	0.105
335	0.105
335	0.104
336	0.104
336	0.104
336	0.104
337	0.104
337	0.103
338	0.103
338	0.103
339	0.103
339	0.102
340	0.102
340	0.102
341	0.101
341	0.101
342	0.101
342	0.1
342	0.1
343	0.1
343	0.1
344	0.1
344	0.099
345	0.099
345	0.099
346	0.099
346	0.099
347	0.099
347	0.099
348	0.098
348	0.098
348	0.098
349	0.098
349	0.098
350	0.097
350	0.097
351	0.097
351	0.097
352	0.096
352	0.096
353	0.096
353	0.096
354	0.096
354	0.096
354	0.096
355	0.095
355	0.095
356	0.095
356	0.095
357	0.095
357	0.095
358	0.094
358	0.094
359	0.094
359	0.095
360	0.095
360	0.095
360	0.095
361	0.095
361	0.095
362	0.096
362	0.096
363	0.096
363	0.096
364	0.095
364	0.096
365	0.096
365	0.096
366	0.095
366	0.095
366	0.095
367	0.095
367	0.095
368	0.095
368	0.095
369	0.095
369	0.095
370	0.095
370	0.095
371	0.094
371	0.094
372	0.094
372	0.094
372	0.094
373	0.094
373	0.094
374	0.094
374	0.094
375	0.094
375	0.094
376	0.094
376	0.095
377	0.095
377	0.095
378	0.095
378	0.095
378	0.095
379	0.095
379	0.095
380	0.095
380	0.095
381	0.095
381	0.095
382	0.095
382	0.095
383	0.094
383	0.094
383	0.094
384	0.094
384	0.094
385	0.094
385	0.094
386	0.094
386	0.094
387	0.094
387	0.094
388	0.094
388	0.094
389	0.094
389	0.094
389	0.094
390	0.094
390	0.094
391	0.094
391	0.095
392	0.095
392	0.095
393	0.095
393	0.095
394	0.095
394	0.095
394	0.095
395	0.094
395	0.094
396	0.094
396	0.094
397	0.094
397	0.094
398	0.094
398	0.094
399	0.094
399	0.093
400	0.093
400	0.093
400	0.093
401	0.093
401	0.093
402	0.093
402	0.092
403	0.092
403	0.092
404	0.092
404	0.092
405	0.092
405	0.092
405	0.092
406	0.092
406	0.092
407	0.092
407	0.092
408	0.092
408	0.092
409	0.092
409	0.092
410	0.092
410	0.093
411	0.093
411	0.093
411	0.093
412	0.093
412	0.092
413	0.092
413	0.092
414	0.092
414	0.092
415	0.092
415	0.092
416	0.092
416	0.092
416	0.091
417	0.091
417	0.092
418	0.092
418	0.092
419	0.092
419	0.092
420	0.092
420	0.093
421	0.093
421	0.093
421	0.093
422	0.093
422	0.093
423	0.093
423	0.093
424	0.093
424	0.093
425	0.093
425	0.093
426	0.093
426	0.093
427	0.093
427	0.093
427	0.093
428	0.093
428	0.093
429	0.094
429	0.093
430	0.093
430	0.093
431	0.093
431	0.093
432	0.093
432	0.093
432	0.092
433	0.092
433	0.092
434	0.092
434	0.093
435	0.093
435	0.093
436	0.093
436	0.093
437	0.093
437	0.093
437	0.093
438	0.093
438	0.093
439	0.093
439	0.092
440	0.092
440	0.092
441	0.092
441	0.091
442	0.091
442	0.092
442	0.092
443	0.092
443	0.092
444	0.092
444	0.092
445	0.092
445	0.092
446	0.092
446	0.093
447	0.093
447	0.093
447	0.093
448	0.093
448	0.093
449	0.093
449	0.093
450	0.094
450	0.094
451	0.094
451	0.094
452	0.094
452	0.094
452	0.093
453	0.093
453	0.093
454	0.093
454	0.093
455	0.093
455	0.093
456	0.093
456	0.093
457	0.093
457	0.093
458	0.093
458	0.093
458	0.094
459	0.094
459	0.094
460	0.093
460	0.093
461	0.093
461	0.093
462	0.094
462	0.094
463	0.094
463	0.095
463	0.095
464	0.095
464	0.095
465	0.095
465	0.095
466	0.095
466	0.095
467	0.096
467	0.095
467	0.095
468	0.094
468	0.094
469	0.094
469	0.094
470	0.094
470	0.094
471	0.094
471	0.094
472	0.094
472	0.094
472	0.095
473	0.095
473	0.096
474	0.096
474	0.097
475	0.097
475	0.097
476	0.098
476	0.098
477	0.098
477	0.099
477	0.099
478	0.099
478	0.099
479	0.099
479	0.1
480	0.1
480	0.1
481	0.101
481	0.101
482	0.102
482	0.102
482	0.103
483	0.104
483	0.105
484	0.106
484	0.107
485	0.107
485	0.108
486	0.108
486	0.109
487	0.109
487	0.109
487	0.109
488	0.109
488	0.109
489	0.109
489	0.109
490	0.11
490	0.11
491	0.111
491	0.111
492	0.112
492	0.113
492	0.113
493	0.114
493	0.114
494	0.116
494	0.116
495	0.117
495	0.118
496	0.118
496	0.119
496	0.12
497	0.121
497	0.121
498	0.122
498	0.123
499	0.123
499	0.124
500	0.125
500	0.126
501	0.127
501	0.127
501	0.128
502	0.129
502	0.13
503	0.131
503	0.131
504	0.132
504	0.133
505	0.133
505	0.134
506	0.135
506	0.136
506	0.137
507	0.137
507	0.137
508	0.138
508	0.138
509	0.139
509	0.14
510	0.141
510	0.141
511	0.142
511	0.143
511	0.143
512	0.144
512	0.144
513	0.145
513	0.145
514	0.145
514	0.146
515	0.146
515	0.146
515	0.146
516	0.146
516	0.147
517	0.147
517	0.148
518	0.148
518	0.148
519	0.148
519	0.148
520	0.148
520	0.148
520	0.148
521	0.148
521	0.147
522	0.146
522	0.146
523	0.146
523	0.146
524	0.146
524	0.146
524	0.146
525	0.146
525	0.147
526	0.147
526	0.147
527	0.148
527	0.148
528	0.148
528	0.148
529	0.148
529	0.147
529	0.147
530	0.147
530	0.147
531	0.146
531	0.146
532	0.145
532	0.145
533	0.144
533	0.143
533	0.143
534	0.142
534	0.141
535	0.141
535	0.14
536	0.139
536	0.138
537	0.138
537	0.137
538	0.136
538	0.135
538	0.134
539	0.134
539	0.133
540	0.132
540	0.131
541	0.13
541	0.13
542	0.129
542	0.128
542	0.127
543	0.126
543	0.125
544	0.123
544	0.123
545	0.122
545	0.122
546	0.121
546	0.12
547	0.119
547	0.118
547	0.117
548	0.117
548	0.116
549	0.115
549	0.115
550	0.114
550	0.113
551	0.112
551	0.111
551	0.11
552	0.109
552	0.108
553	0.107
553	0.107
554	0.106
554	0.104
555	0.103
555	0.101
556	0.1
556	0.098
556	0.097
557	0.096
557	0.095
558	0.093
558	0.092
559	0.091
559	0.09
560	0.089
560	0.088
560	0.088
561	0.088
561	0.087
562	0.087
562	0.086
563	0.085
563	0.084
564	0.083
564	0.082
564	0.082
565	0.081
565	0.08
566	0.079
566	0.078
567	0.078
567	0.077
568	0.077
568	0.077
568	0.077
569	0.077
569	0.077
570	0.076
570	0.076
571	0.076
571	0.075
572	0.075
572	0.074
573	0.074
573	0.073
573	0.072
574	0.071
574	0.071
575	0.071
575	0.071
576	0.071
576	0.07
577	0.069
577	0.068
577	0.068
578	0.068
578	0.068
579	0.069
579	0.069
580	0.068
580	0.066
581	0.064
581	0.064
581	0.064
582	0.064
582	0.064
583	0.064
583	0.063
584	0.061
584	0.06
585	0.06
585	0.06
585	0.06
586	0.06
586	0.06
587	0.058
587	0.057
588	0.056
588	0.055
589	0.055
589	0.055
590	0.055
590	0.054
590	0.056
591	0.056
591	0.055
592	0.055
592	0.055
593	0.055
593	0.055
594	0.054
594	0.053
594	0.053
595	0.053
595	0.052
596	0.052
596	0.053
597	0.055
597	0.055
598	0.055
598	0.056
598	0.056
599	0.056
599	0.056
600	0.055
600	0.055
601	0.055
601	0.054
602	0.052
602	0.052
602	0.051
603	0.051
603	0.052
604	0.052
604	0.052
605	0.053
605	0.054
606	0.054
606	0.053
606	0.053
607	0.053
607	0.053
608	0.052
608	0.051
609	0.051
609	0.051
610	0.05
610	0.05
610	0.05
611	0.051
611	0.053
612	0.054
612	0.055
613	0.057
613	0.058
614	0.058
614	0.058
614	0.059
615	0.059
615	0.059
616	0.059
616	0.059
617	0.058
617	0.058
618	0.057
618	0.057
618	0.057
619	0.057
619	0.058
620	0.059
620	0.059
621	0.059
621	0.059
622	0.059
622	0.06
622	0.06
623	0.06
623	0.06
624	0.061
624	0.061
625	0.06
625	0.061
626	0.061
626	0.062
626	0.062
627	0.063
627	0.063
628	0.064
628	0.064
629	0.064
629	0.064
630	0.064
630	0.064
630	0.064
631	0.064
631	0.064
632	0.064
632	0.064
633	0.065
633	0.065
634	0.066
634	0.067
634	0.069
635	0.069
635	0.07
636	0.071
636	0.071
637	0.072
637	0.073
638	0.074
638	0.075
638	0.076
639	0.076
639	0.077
640	0.078
640	0.078
641	0.079
641	0.08
642	0.081
642	0.082
642	0.083
643	0.084
643	0.085
644	0.085
644	0.086
645	0.087
645	0.088
646	0.09
646	0.091
646	0.093
647	0.095
647	0.096
648	0.097
648	0.099
649	0.1
649	0.102
650	0.104
650	0.106
650	0.108
651	0.109
651	0.11
652	0.111
652	0.112
653	0.114
653	0.119
653	0.119
654	0.096
654	0.079
655	0.079
655	0.08
656	0.081
656	0.083
657	0.084
657	0.085
657	0.086
658	0.084
658	0.083
659	0.104
659	0.132
660	0.138
660	0.14
661	0.141
661	0.142
661	0.144
662	0.146
662	0.147
663	0.149
663	0.15
664	0.151
664	0.152
665	0.153
665	0.154
665	0.156
666	0.157
666	0.157
667	0.158
667	0.16
668	0.161
668	0.163
669	0.164
669	0.166
669	0.167
670	0.169
670	0.17
671	0.171
671	0.172
672	0.173
672	0.174
672	0.175
673	0.176
673	0.178
674	0.179
674	0.18
675	0.181
675	0.183
676	0.185
676	0.187
676	0.188
677	0.189
677	0.191
678	0.191
678	0.191
679	0.192
679	0.192
680	0.193
680	0.194
680	0.194
681	0.194
681	0.195
682	0.196
682	0.197
683	0.198
683	0.199
684	0.199
684	0.199
684	0.199
685	0.199
685	0.199
686	0.198
686	0.198
687	0.197
687	0.197
687	0.197
688	0.197
688	0.197
689	0.198
689	0.198
690	0.199
690	0.199
691	0.199
691	0.199
691	0.199
692	0.199
692	0.198
693	0.198
693	0.198
694	0.197
694	0.196
695	0.196
695	0.197
695	0.196
696	0.195
696	0.195
697	0.194
697	0.194
698	0.193
698	0.192
698	0.191
699	0.19
699	0.189
700	0.187
700	0.186
701	0.185
701	0.184
702	0.183
702	0.182
702	0.181
703	0.179
703	0.178
704	0.176
704	0.175
705	0.175
705	0.173
705	0.172
706	0.171
706	0.17
707	0.169
707	0.168
708	0.168
708	0.167
709	0.166
709	0.165
709	0.163
710	0.162
710	0.161
711	0.161
711	0.16
712	0.159
712	0.158
713	0.156
713	0.155
713	0.154
714	0.152
714	0.15
715	0.148
715	0.147
716	0.144
716	0.143
716	0.141
717	0.139
717	0.137
718	0.135
718	0.133
719	0.131
719	0.13
720	0.129
720	0.127
720	0.125
721	0.124
721	0.122
722	0.121
722	0.12
723	0.119
723	0.118
723	0.117
724	0.116
724	0.115
725	0.114
725	0.114
726	0.114
726	0.113
727	0.112
727	0.112
727	0.111
728	0.11
728	0.109
729	0.108
729	0.107
730	0.106
730	0.104
730	0.103
731	0.102
731	0.101
732	0.1
732	0.099
733	0.098
733	0.097
734	0.096
734	0.095
734	0.095
735	0.095
735	0.094
736	0.093
736	0.092
737	0.091
737	0.09
737	0.089
738	0.087
738	0.085
739	0.084
739	0.082
740	0.081
740	0.08
741	0.079
741	0.078
741	0.077
742	0.076
742	0.076
743	0.076
743	0.075
744	0.075
744	0.074
744	0.073
745	0.072
745	0.071
746	0.069
746	0.068
747	0.067
747	0.066
748	0.066
748	0.065
748	0.064
749	0.063
749	0.063
750	0.062
750	0.062
751	0.062
751	0.062
751	0.062
752	0.062
752	0.061
753	0.061
753	0.061
754	0.06
754	0.06
754	0.06
755	0.06
755	0.06
756	0.059
756	0.058
757	0.057
757	0.058
758	0.057
758	0.057
758	0.057
759	0.057
759	0.056
760	0.055
760	0.053
761	0.053
761	0.053
761	0.052
762	0.051
762	0.051
763	0.05
763	0.049
764	0.048
764	0.047
764	0.046
765	0.044
765	0.043
766	0.042
766	0.041
767	0.04
767	0.038
768	0.036
768	0.035
768	0.034
769	0.032
769	0.031
770	0.03
770	0.029
771	0.027
771	0.025
771	0.024
772	0.023
772	0.022
773	0.02
773	0.019
774	0.018
774	0.016
775	0.016
775	0.015
775	0.015
776	0.014
776	0.014
777	0.014
777	0.013
778	0.013
778	0.012
778	0.011
779	0.01
779	0.009
780	0.008
780	0.006
781	0.004
781	0.001
781	-0.002
782	-0.005
782	-0.009
783	-0.012
783	-0.014
784	-0.018
784	-0.022
784	-0.025
785	-0.029
785	-0.033
786	-0.036
786	-0.038
787	-0.04
787	-0.043
788	-0.046
788	-0.051
788	-0.055
789	-0.061
789	-0.065
790	-0.071
790	-0.077
791	-0.084
791	-0.091
791	-0.096
792	-0.095
792	-0.089
793	-0.088
793	-0.089
794	-0.091
794	-0.095
794	-0.1
795	-0.103
795	-0.104
796	-0.104
796	-0.107
797	-0.116
797	-0.127
797	-0.133
798	-0.139
798	-0.142
799	-0.143
799	-0.142
800	-0.141
800	-0.143
801	-0.146
801	-0.146
801	-0.146
802	-0.147
802	-0.148
803	-0.149
803	-0.149
804	-0.148
804	-0.143
804	-0.136
805	-0.132
805	-0.131
806	-0.129
806	-0.128
807	-0.128
807	-0.128
807	-0.128
808	-0.128
808	-0.129
809	-0.134
809	-0.14
810	-0.144
810	-0.147
810	-0.15
811	-0.153
811	-0.153
812	-0.149
812	-0.146
813	-0.146
813	-0.144
813	-0.141
814	-0.138
814	-0.133
815	-0.125
815	-0.116
816	-0.108
816	-0.1
817	-0.094
817	-0.087
817	-0.077
818	-0.067
818	-0.057
819	-0.049
819	-0.042
820	-0.037
820	-0.032
820	-0.027
821	-0.022
821	-0.018
822	-0.014
822	-0.01
823	-0.008
823	-0.006
823	-0.003
824	-0.001
824	0.001
825	0.004
825	0.007
826	0.009
826	0.01
826	0.012
827	0.014
827	0.015
828	0.016
828	0.017
829	0.018
829	0.019
829	0.019
830	0.019
830	0.02
831	0.02
831	0.021
832	0.021
832	0.021
832	0.021
833	0.021
833	0.022
834	0.022
834	0.023
835	0.023
835	0.023
835	0.023
836	0.023
836	0.024
837	0.024
837	0.025
838	0.026
838	0.026
839	0.026
839	0.026
839	0.026
840	0.026
840	0.026
841	0.025
841	0.025
842	0.025
842	0.024
842	0.024
843	0.024
843	0.024
844	0.024
844	0.024
845	0.024
845	0.024
845	0.024
846	0.024
846	0.024
847	0.024
847	0.024
848	0.024
848	0.024
848	0.024
849	0.024
849	0.025
850	0.025
850	0.025
851	0.025
851	0.026
851	0.026
852	0.026
852	0.026
853	0.025
853	0.025
854	0.025
854	0.025
854	0.025
855	0.025
855	0.024
856	0.024
856	0.024
857	0.023
857	0.023
857	0.023
858	0.023
858	0.022
859	0.022
859	0.023
860	0.023
860	0.023
860	0.024
861	0.024
861	0.025
862	0.025
862	0.026
863	0.026
863	0.026
863	0.027
864	0.027
864	0.027
865	0.028
865	0.028
866	0.029
866	0.029
866	0.03
867	0.031
867	0.031
868	0.032
868	0.032
869	0.032
869	0.032
869	0.032
870	0.032
870	0.032
871	0.032
871	0.031
872	0.031
872	0.031
872	0.031
873	0.031
873	0.031
874	0.031
874	0.031
875	0.03
875	0.029
875	0.029
876	0.028
876	0.027
877	0.026
877	0.025
878	0.024
878	0.023
878	0.022
879	0.021
879	0.021
880	0.02
880	0.02
881	0.02
881	0.02
881	0.02
882	0.021
882	0.021
883	0.021
883	0.021
884	0.021
884	0.021
884	0.021
885	0.02
885	0.02
886	0.02
886	0.02
887	0.02
887	0.02
887	0.02
888	0.02
888	0.02
889	0.021
889	0.022
890	0.022
890	0.023
890	0.023
891	0.024
891	0.024
892	0.025
892	0.026
893	0.026
893	0.027
893	0.028
894	0.028
894	0.028
895	0.028
895	0.028
895	0.027
896	0.027
896	0.026
897	0.026
897	0.025
898	0.024
898	0.024
898	0.023
899	0.023
899	0.023
900	0.023
900	0.023
901	0.023
901	0.024
901	0.024
902	0.025
902	0.025
903	0.025
903	0.026
904	0.027
904	0.027
904	0.028
905	0.028
905	0.028
906	0.028
906	0.028
907	0.028
907	0.028
907	0.028
908	0.028
908	0.028
909	0.029
909	0.029
910	0.03
910	0.03
910	0.03
911	0.03
911	0.03
912	0.031
912	0.031
913	0.031
913	0.03
913	0.03
914	0.029
914	0.029
915	0.028
915	0.027
916	0.027
916	0.025
916	0.024
917	0.023
917	0.021
918	0.02
918	0.018
918	0.016
919	0.015
919	0.014
920	0.013
920	0.012
921	0.012
921	0.012
921	0.012
922	0.012
922	0.013
923	0.014
923	0.014
924	0.015
924	0.016
924	0.017
925	0.018
925	0.018
926	0.019
926	0.02
927	0.02
927	0.021
927	0.021
928	0.021
928	0.02
929	0.02
929	0.019
930	0.019
930	0.018
930	0.017
931	0.016
931	0.016
932	0.015
932	0.015
933	0.014
933	0.014
933	0.013
934	0.013
934	0.012
935	0.012
935	0.011
935	0.011
936	0.011
936	0.01
937	0.01
937	0.01
938	0.01
938	0.011
938	0.011
939	0.011
939	0.012
940	0.013
940	0.013
941	0.014
941	0.014
941	0.015
942	0.016
942	0.017
943	0.018
943	0.018
944	0.019
944	0.019
944	0.019
945	0.02
945	0.02
946	0.021
946	0.021
946	0.021
947	0.022
947	0.022
948	0.023
948	0.023
949	0.024
949	0.024
949	0.025
950	0.025
950	0.025
951	0.025
951	0.025
952	0.025
952	0.024
952	0.024
953	0.023
953	0.022
954	0.021
954	0.021
955	0.02
955	0.02
955	0.02
956	0.02
956	0.02
957	0.02
957	0.02
957	0.02
958	0.02
958	0.02
959	0.021
959	0.021
960	0.021
960	0.021
960	0.021
961	0.021
961	0.021
962	0.021
962	0.022
963	0.022
963	0.022
963	0.022
964	0.022
964	0.022
965	0.022
965	0.021
966	0.021
966	0.021
966	0.02
967	0.02
967	0.019
968	0.019
968	0.018
968	0.018
969	0.018
969	0.018
970	0.018
970	0.017
971	0.017
971	0.018
971	0.018
972	0.018
972	0.018
973	0.019
973	0.019
974	0.019
974	0.019
974	0.019
975	0.02
975	0.02
976	0.02
976	0.021
976	0.021
977	0.022
977	0.022
978	0.023
978	0.023
979	0.023
979	0.024
979	0.024
980	0.024
980	0.023
981	0.022
981	0.022
982	0.022
982	0.021
982	0.02
983	0.02
983	0.019
984	0.018
984	0.017
984	0.016
985	0.016
985	0.015
986	0.014
986	0.014
987	0.013
987	0.013
987	0.013
988	0.013
988	0.013
989	0.013
989	0.013
990	0.013
990	0.013
990	0.014
991	0.014
991	0.015
992	0.015
992	0.015
992	0.016
993	0.016
993	0.016
994	0.016
994	0.016
995	0.016
995	0.016
995	0.016
996	0.016
996	0.016
997	0.016
997	0.016
997	0.016
998	0.016
998	0.017
999	0.017
999	0.018
1000	0.018
1000	0.019
1000	0.02
1001	0.02
1001	0.021
1002	0.022
1002	0.022
1003	0.023
1003	0.023
1003	0.023
1004	0.023
1004	0.023
1005	0.023
1005	0.022
1005	0.022
1006	0.021
1006	0.021
1007	0.02
1007	0.019
1008	0.019
1008	0.018
1008	0.018
1009	0.017
1009	0.017
1010	0.017
1010	0.017
1010	0.017
1011	0.017
1011	0.017
1012	0.016
1012	0.016
1013	0.016
1013	0.015
1013	0.015
1014	0.014
1014	0.013
1015	0.012
1015	0.011
1016	0.01
1016	0.009
1016	0.008
1017	0.007
1017	0.006
1018	0.006
1018	0.005
1018	0.004
1019	0.004
1019	0.003
1020	0.003
1020	0.002
1021	0.002
1021	0.002
1021	0.002
1022	0.003
1022	0.003
1023	0.004
1023	0.004
1023	0.005
1024	0.005
1024	0.005
1025	0.005
1025	0.005
1026	0.005
1026	0.005
1026	0.005
1027	0.005
1027	0.005
1028	0.005
1028	0.005
1028	0.004
1029	0.004
1029	0.004
1030	0.004
1030	0.003
1031	0.003
1031	0.003
1031	0.003
1032	0.003
1032	0.003
1033	0.003
1033	0.003
1033	0.003
1034	0.003
1034	0.003
1035	0.003
1035	0.003
1036	0.003
1036	0.003
1036	0.003
1037	0.004
1037	0.004
1038	0.004
1038	0.005
1039	0.005
1039	0.006
1039	0.006
1040	0.007
1040	0.008
1041	0.009
1041	0.009
1041	0.009
1042	0.01
1042	0.01
1043	0.011
1043	0.011
1044	0.012
1044	0.012
1044	0.012
1045	0.012
1045	0.012
1046	0.012
1046	0.012
1046	0.012
1047	0.012
1047	0.012
1048	0.012
1048	0.011
1049	0.011
1049	0.01
1049	0.01
1050	0.009
1050	0.008
1051	0.007
1051	0.007
1051	0.006
1052	0.006
1052	0.005
1053	0.004
1053	0.004
1053	0.003
1054	0.002
1054	0.002
1055	0.001
1055	0.001
1056	-0
1056	-0.001
1056	-0.002
1057	-0.003
1057	-0.003
1058	-0.004
1058	-0.004
1058	-0.004
1059	-0.004
1059	-0.004
1060	-0.004
1060	-0.004
1061	-0.004
1061	-0.003
1061	-0.003
1062	-0.003
1062	-0.003
1063	-0.003
1063	-0.003
1063	-0.003
1064	-0.003
1064	-0.003
1065	-0.003
1065	-0.003
1066	-0.003
1066	-0.003
1066	-0.003
1067	-0.002
1067	-0.002
1068	-0.002
1068	-0.002
1068	-0.003
1069	-0.003
1069	-0.004
1070	-0.004
1070	-0.005
1071	-0.006
1071	-0.007
1071	-0.008
1072	-0.009
1072	-0.01
1073	-0.011
1073	-0.012
1073	-0.012
1074	-0.013
1074	-0.013
1075	-0.014
1075	-0.014
1076	-0.015
1076	-0.015
1076	-0.016
1077	-0.016
1077	-0.016
1078	-0.016
1078	-0.016
1078	-0.015
1079	-0.016
1079	-0.015
1080	-0.015
1080	-0.015
1080	-0.015
1081	-0.014
1081	-0.014
1082	-0.014
1082	-0.014
1083	-0.014
1083	-0.014
1083	-0.014
1084	-0.014
1084	-0.014
1085	-0.015
1085	-0.015
1085	-0.015
1086	-0.014
1086	-0.015
1087	-0.015
1087	-0.014
1088	-0.015
1088	-0.015
1088	-0.015
1089	-0.016
1089	-0.016
1090	-0.017
1090	-0.017
1090	-0.018
1091	-0.019
1091	-0.018
1092	-0.019
1092	-0.019
1092	-0.019
1093	-0.019
1093	-0.019
1094	-0.019
1094	-0.019
1095	-0.02
1095	-0.02
1095	-0.02
1096	-0.02
1096	-0.02
1097	-0.019
1097	-0.019
1097	-0.019
1098	-0.018
1098	-0.018
1099	-0.017
1099	-0.015
1100	-0.014
1100	-0.014
1100	-0.015
1101	-0.014
1101	-0.014
1102	-0.013
1102	-0.013
1102	-0.012
1103	-0.012
1103	-0.011
1104	-0.009
1104	-0.009
1104	-0.005
1105	-0.003
1105	-0.001
1106	-0.001
1106	0.002
1107	0.003
1107	0.005
1107	0.009
1108	0.023
1108	0.04
1109	0.061
1109	0.09
1109	0.109
1110	0.142
1110	0.201
1111	0.31
1111	0.735
