Data from 17c-2a_Absorbance__951__00952.txt Node

Date: Fri Jan 26 10:19:12 CET 2024
User: Marek
Spectrometer: MAYP115816
Trigger mode: 0
Integration Time (sec): 2.000000E-1
Scans to average: 10
Electric dark correction enabled: true
Nonlinearity correction enabled: true
Boxcar width: 5
XAxis mode: Wavelengths
Number of Pixels in Spectrum: 2068
>>>>>Begin Spectral Data<<<<<
199	-1.324
199	-1.193
200	-1.048
200	-0.94
201	-0.875
201	-0.835
202	-0.775
202	-0.729
203	-0.692
203	-0.66
204	-0.637
204	-0.616
205	-0.596
205	-0.589
205	-0.588
206	-0.583
206	-0.58
207	-0.577
207	-0.577
208	-0.575
208	-0.573
209	-0.57
209	-0.568
210	-0.569
210	-0.57
211	-0.571
211	-0.573
212	-0.573
212	-0.573
213	-0.572
213	-0.569
213	-0.57
214	-0.568
214	-0.567
215	-0.562
215	-0.561
216	-0.559
216	-0.558
217	-0.556
217	-0.555
218	-0.552
218	-0.55
219	-0.546
219	-0.545
220	-0.545
220	-0.545
221	-0.542
221	-0.541
221	-0.536
222	-0.53
222	-0.526
223	-0.522
223	-0.52
224	-0.516
224	-0.509
225	-0.501
225	-0.496
226	-0.489
226	-0.478
227	-0.469
227	-0.461
228	-0.446
228	-0.432
229	-0.414
229	-0.394
229	-0.373
230	-0.349
230	-0.321
231	-0.293
231	-0.264
232	-0.234
232	-0.203
233	-0.17
233	-0.137
234	-0.106
234	-0.077
235	-0.048
235	-0.022
236	0.004
236	0.028
236	0.05
237	0.07
237	0.089
238	0.106
238	0.12
239	0.134
239	0.147
240	0.158
240	0.168
241	0.177
241	0.185
242	0.193
242	0.199
243	0.205
243	0.211
243	0.216
244	0.22
244	0.225
245	0.228
245	0.232
246	0.236
246	0.239
247	0.242
247	0.245
248	0.248
248	0.251
249	0.253
249	0.256
250	0.258
250	0.26
250	0.263
251	0.265
251	0.267
252	0.269
252	0.271
253	0.273
253	0.274
254	0.276
254	0.277
255	0.279
255	0.28
256	0.282
256	0.283
257	0.284
257	0.285
258	0.285
258	0.286
258	0.287
259	0.287
259	0.288
260	0.288
260	0.288
261	0.288
261	0.289
262	0.289
262	0.288
263	0.288
263	0.288
264	0.287
264	0.287
265	0.287
265	0.286
265	0.285
266	0.284
266	0.283
267	0.281
267	0.281
268	0.279
268	0.278
269	0.276
269	0.275
270	0.273
270	0.272
271	0.27
271	0.268
272	0.267
272	0.265
272	0.263
273	0.262
273	0.26
274	0.258
274	0.256
275	0.254
275	0.252
276	0.25
276	0.248
277	0.246
277	0.244
278	0.242
278	0.24
278	0.238
279	0.235
279	0.233
280	0.231
280	0.229
281	0.227
281	0.225
282	0.223
282	0.222
283	0.22
283	0.218
284	0.217
284	0.215
285	0.213
285	0.211
285	0.21
286	0.208
286	0.207
287	0.205
287	0.203
288	0.202
288	0.2
289	0.199
289	0.197
290	0.196
290	0.195
291	0.194
291	0.193
292	0.192
292	0.19
292	0.189
293	0.188
293	0.187
294	0.186
294	0.185
295	0.184
295	0.183
296	0.183
296	0.182
297	0.181
297	0.181
298	0.18
298	0.18
298	0.179
299	0.179
299	0.178
300	0.177
300	0.177
301	0.176
301	0.176
302	0.175
302	0.175
303	0.174
303	0.174
304	0.173
304	0.173
305	0.172
305	0.172
305	0.171
306	0.171
306	0.17
307	0.17
307	0.169
308	0.169
308	0.168
309	0.168
309	0.167
310	0.167
310	0.167
311	0.166
311	0.166
311	0.165
312	0.165
312	0.165
313	0.164
313	0.164
314	0.163
314	0.163
315	0.162
315	0.162
316	0.161
316	0.161
317	0.161
317	0.16
318	0.16
318	0.159
318	0.159
319	0.158
319	0.158
320	0.158
320	0.157
321	0.156
321	0.156
322	0.156
322	0.155
323	0.155
323	0.154
324	0.154
324	0.153
324	0.153
325	0.153
325	0.152
326	0.152
326	0.152
327	0.151
327	0.151
328	0.15
328	0.15
329	0.15
329	0.149
330	0.149
330	0.149
330	0.148
331	0.148
331	0.147
332	0.147
332	0.147
333	0.146
333	0.146
334	0.146
334	0.145
335	0.145
335	0.144
336	0.144
336	0.144
336	0.143
337	0.143
337	0.143
338	0.142
338	0.142
339	0.141
339	0.141
340	0.141
340	0.14
341	0.14
341	0.14
342	0.14
342	0.139
342	0.139
343	0.139
343	0.139
344	0.138
344	0.138
345	0.138
345	0.138
346	0.138
346	0.137
347	0.137
347	0.137
348	0.137
348	0.136
348	0.136
349	0.136
349	0.135
350	0.135
350	0.135
351	0.135
351	0.135
352	0.134
352	0.134
353	0.134
353	0.134
354	0.134
354	0.133
354	0.133
355	0.133
355	0.133
356	0.133
356	0.132
357	0.132
357	0.132
358	0.132
358	0.132
359	0.132
359	0.132
360	0.132
360	0.132
360	0.132
361	0.132
361	0.132
362	0.132
362	0.132
363	0.132
363	0.132
364	0.132
364	0.132
365	0.132
365	0.132
366	0.132
366	0.132
366	0.132
367	0.132
367	0.132
368	0.132
368	0.132
369	0.132
369	0.131
370	0.131
370	0.131
371	0.131
371	0.13
372	0.13
372	0.13
372	0.13
373	0.13
373	0.13
374	0.13
374	0.13
375	0.13
375	0.13
376	0.13
376	0.131
377	0.131
377	0.131
378	0.131
378	0.131
378	0.131
379	0.131
379	0.131
380	0.131
380	0.131
381	0.131
381	0.131
382	0.13
382	0.13
383	0.13
383	0.13
383	0.129
384	0.129
384	0.129
385	0.129
385	0.129
386	0.129
386	0.129
387	0.129
387	0.129
388	0.129
388	0.129
389	0.129
389	0.129
389	0.129
390	0.129
390	0.129
391	0.129
391	0.129
392	0.129
392	0.129
393	0.129
393	0.129
394	0.129
394	0.129
394	0.129
395	0.129
395	0.129
396	0.129
396	0.128
397	0.128
397	0.128
398	0.128
398	0.128
399	0.128
399	0.128
400	0.127
400	0.127
400	0.127
401	0.127
401	0.126
402	0.126
402	0.126
403	0.126
403	0.126
404	0.126
404	0.126
405	0.126
405	0.126
405	0.126
406	0.126
406	0.126
407	0.126
407	0.126
408	0.126
408	0.126
409	0.126
409	0.126
410	0.126
410	0.126
411	0.126
411	0.126
411	0.126
412	0.126
412	0.125
413	0.125
413	0.125
414	0.125
414	0.125
415	0.125
415	0.124
416	0.124
416	0.124
416	0.124
417	0.124
417	0.124
418	0.124
418	0.125
419	0.125
419	0.125
420	0.125
420	0.125
421	0.125
421	0.125
421	0.125
422	0.126
422	0.126
423	0.126
423	0.126
424	0.125
424	0.125
425	0.125
425	0.125
426	0.125
426	0.125
427	0.125
427	0.125
427	0.125
428	0.125
428	0.126
429	0.126
429	0.125
430	0.125
430	0.125
431	0.125
431	0.125
432	0.125
432	0.125
432	0.125
433	0.125
433	0.125
434	0.125
434	0.125
435	0.125
435	0.125
436	0.125
436	0.125
437	0.125
437	0.125
437	0.125
438	0.125
438	0.124
439	0.124
439	0.124
440	0.124
440	0.123
441	0.123
441	0.123
442	0.123
442	0.124
442	0.124
443	0.124
443	0.124
444	0.124
444	0.124
445	0.125
445	0.125
446	0.125
446	0.125
447	0.125
447	0.125
447	0.125
448	0.125
448	0.125
449	0.125
449	0.125
450	0.125
450	0.125
451	0.125
451	0.125
452	0.125
452	0.125
452	0.125
453	0.124
453	0.124
454	0.124
454	0.124
455	0.124
455	0.124
456	0.124
456	0.124
457	0.124
457	0.124
458	0.125
458	0.125
458	0.125
459	0.126
459	0.125
460	0.125
460	0.125
461	0.125
461	0.125
462	0.126
462	0.126
463	0.126
463	0.127
463	0.127
464	0.127
464	0.127
465	0.127
465	0.128
466	0.128
466	0.128
467	0.128
467	0.128
467	0.127
468	0.127
468	0.127
469	0.126
469	0.126
470	0.126
470	0.126
471	0.126
471	0.126
472	0.126
472	0.127
472	0.127
473	0.128
473	0.128
474	0.129
474	0.129
475	0.13
475	0.13
476	0.131
476	0.131
477	0.131
477	0.132
477	0.132
478	0.132
478	0.133
479	0.133
479	0.133
480	0.134
480	0.134
481	0.135
481	0.135
482	0.136
482	0.136
482	0.137
483	0.139
483	0.14
484	0.141
484	0.142
485	0.143
485	0.143
486	0.144
486	0.145
487	0.145
487	0.146
487	0.146
488	0.146
488	0.146
489	0.146
489	0.146
490	0.147
490	0.147
491	0.148
491	0.149
492	0.149
492	0.15
492	0.151
493	0.151
493	0.153
494	0.154
494	0.155
495	0.156
495	0.157
496	0.158
496	0.159
496	0.16
497	0.16
497	0.161
498	0.162
498	0.163
499	0.164
499	0.165
500	0.166
500	0.168
501	0.169
501	0.17
501	0.171
502	0.172
502	0.173
503	0.175
503	0.176
504	0.177
504	0.177
505	0.179
505	0.179
506	0.18
506	0.181
506	0.182
507	0.183
507	0.184
508	0.184
508	0.185
509	0.186
509	0.187
510	0.188
510	0.189
511	0.19
511	0.191
511	0.192
512	0.193
512	0.193
513	0.194
513	0.194
514	0.194
514	0.195
515	0.195
515	0.195
515	0.195
516	0.196
516	0.196
517	0.197
517	0.197
518	0.198
518	0.198
519	0.198
519	0.198
520	0.198
520	0.198
520	0.198
521	0.197
521	0.196
522	0.195
522	0.195
523	0.195
523	0.195
524	0.195
524	0.195
524	0.195
525	0.195
525	0.196
526	0.196
526	0.197
527	0.197
527	0.198
528	0.198
528	0.199
529	0.198
529	0.198
529	0.198
530	0.198
530	0.197
531	0.197
531	0.196
532	0.195
532	0.195
533	0.194
533	0.193
533	0.192
534	0.191
534	0.19
535	0.189
535	0.188
536	0.187
536	0.186
537	0.186
537	0.185
538	0.183
538	0.182
538	0.181
539	0.181
539	0.18
540	0.178
540	0.177
541	0.175
541	0.174
542	0.173
542	0.171
542	0.17
543	0.169
543	0.167
544	0.165
544	0.165
545	0.163
545	0.163
546	0.162
546	0.161
547	0.16
547	0.159
547	0.157
548	0.157
548	0.156
549	0.155
549	0.154
550	0.153
550	0.151
551	0.149
551	0.148
551	0.147
552	0.146
552	0.144
553	0.143
553	0.142
554	0.141
554	0.139
555	0.137
555	0.136
556	0.134
556	0.132
556	0.13
557	0.128
557	0.126
558	0.124
558	0.123
559	0.121
559	0.12
560	0.119
560	0.117
560	0.117
561	0.116
561	0.116
562	0.115
562	0.114
563	0.113
563	0.112
564	0.11
564	0.109
564	0.108
565	0.108
565	0.107
566	0.105
566	0.104
567	0.103
567	0.102
568	0.102
568	0.101
568	0.101
569	0.101
569	0.101
570	0.1
570	0.099
571	0.099
571	0.099
572	0.098
572	0.098
573	0.097
573	0.096
573	0.095
574	0.094
574	0.094
575	0.093
575	0.094
576	0.094
576	0.092
577	0.091
577	0.09
577	0.09
578	0.089
578	0.089
579	0.09
579	0.09
580	0.088
580	0.086
581	0.084
581	0.083
581	0.082
582	0.082
582	0.082
583	0.082
583	0.081
584	0.079
584	0.077
585	0.077
585	0.077
585	0.077
586	0.077
586	0.077
587	0.075
587	0.073
588	0.072
588	0.071
589	0.071
589	0.071
590	0.071
590	0.07
590	0.072
591	0.072
591	0.072
592	0.071
592	0.071
593	0.071
593	0.071
594	0.071
594	0.07
594	0.069
595	0.069
595	0.068
596	0.068
596	0.069
597	0.07
597	0.071
598	0.071
598	0.071
598	0.071
599	0.071
599	0.071
600	0.07
600	0.069
601	0.068
601	0.068
602	0.066
602	0.065
602	0.064
603	0.064
603	0.065
604	0.065
604	0.066
605	0.067
605	0.068
606	0.067
606	0.066
606	0.066
607	0.066
607	0.066
608	0.065
608	0.064
609	0.064
609	0.063
610	0.063
610	0.062
610	0.063
611	0.064
611	0.066
612	0.067
612	0.068
613	0.07
613	0.071
614	0.071
614	0.071
614	0.072
615	0.072
615	0.072
616	0.072
616	0.072
617	0.072
617	0.071
618	0.071
618	0.071
618	0.071
619	0.071
619	0.072
620	0.073
620	0.073
621	0.074
621	0.074
622	0.074
622	0.074
622	0.074
623	0.074
623	0.075
624	0.076
624	0.076
625	0.076
625	0.076
626	0.076
626	0.076
626	0.077
627	0.078
627	0.078
628	0.079
628	0.079
629	0.079
629	0.079
630	0.079
630	0.079
630	0.079
631	0.08
631	0.08
632	0.08
632	0.08
633	0.081
633	0.082
634	0.083
634	0.084
634	0.086
635	0.087
635	0.087
636	0.088
636	0.089
637	0.089
637	0.09
638	0.091
638	0.092
638	0.092
639	0.092
639	0.093
640	0.093
640	0.094
641	0.095
641	0.096
642	0.097
642	0.098
642	0.099
643	0.1
643	0.101
644	0.102
644	0.104
645	0.105
645	0.107
646	0.109
646	0.111
646	0.113
647	0.115
647	0.117
648	0.119
648	0.121
649	0.123
649	0.125
650	0.127
650	0.129
650	0.131
651	0.133
651	0.134
652	0.136
652	0.137
653	0.139
653	0.145
653	0.147
654	0.118
654	0.096
655	0.097
655	0.098
656	0.1
656	0.101
657	0.102
657	0.104
657	0.105
658	0.103
658	0.099
659	0.125
659	0.16
660	0.167
660	0.168
661	0.17
661	0.172
661	0.174
662	0.176
662	0.178
663	0.18
663	0.182
664	0.184
664	0.185
665	0.187
665	0.189
665	0.191
666	0.192
666	0.194
667	0.195
667	0.197
668	0.198
668	0.2
669	0.201
669	0.203
669	0.205
670	0.207
670	0.208
671	0.209
671	0.21
672	0.211
672	0.212
672	0.214
673	0.215
673	0.216
674	0.218
674	0.219
675	0.22
675	0.222
676	0.225
676	0.226
676	0.228
677	0.23
677	0.231
678	0.232
678	0.233
679	0.234
679	0.235
680	0.237
680	0.238
680	0.238
681	0.239
681	0.239
682	0.24
682	0.241
683	0.242
683	0.243
684	0.244
684	0.244
684	0.244
685	0.244
685	0.244
686	0.244
686	0.244
687	0.243
687	0.243
687	0.243
688	0.242
688	0.242
689	0.242
689	0.243
690	0.243
690	0.243
691	0.243
691	0.244
691	0.244
692	0.243
692	0.243
693	0.243
693	0.243
694	0.241
694	0.24
695	0.24
695	0.241
695	0.24
696	0.239
696	0.238
697	0.238
697	0.237
698	0.236
698	0.235
698	0.234
699	0.233
699	0.23
700	0.228
700	0.227
701	0.226
701	0.224
702	0.223
702	0.221
702	0.22
703	0.218
703	0.216
704	0.215
704	0.214
705	0.213
705	0.212
705	0.211
706	0.21
706	0.209
707	0.208
707	0.207
708	0.206
708	0.206
709	0.205
709	0.203
709	0.201
710	0.2
710	0.198
711	0.197
711	0.195
712	0.194
712	0.192
713	0.19
713	0.189
713	0.187
714	0.185
714	0.183
715	0.181
715	0.179
716	0.176
716	0.174
716	0.172
717	0.17
717	0.168
718	0.166
718	0.163
719	0.162
719	0.16
720	0.159
720	0.157
720	0.155
721	0.153
721	0.152
722	0.15
722	0.148
723	0.147
723	0.146
723	0.144
724	0.142
724	0.141
725	0.139
725	0.138
726	0.137
726	0.135
727	0.134
727	0.133
727	0.132
728	0.13
728	0.129
729	0.129
729	0.127
730	0.126
730	0.124
730	0.123
731	0.121
731	0.12
732	0.119
732	0.118
733	0.117
733	0.116
734	0.116
734	0.115
734	0.114
735	0.114
735	0.113
736	0.112
736	0.111
737	0.11
737	0.11
737	0.108
738	0.106
738	0.104
739	0.103
739	0.101
740	0.1
740	0.098
741	0.098
741	0.096
741	0.095
742	0.093
742	0.092
743	0.092
743	0.091
744	0.09
744	0.089
744	0.088
745	0.087
745	0.085
746	0.084
746	0.083
747	0.081
747	0.081
748	0.079
748	0.078
748	0.077
749	0.076
749	0.075
750	0.074
750	0.074
751	0.073
751	0.073
751	0.073
752	0.073
752	0.072
753	0.072
753	0.072
754	0.072
754	0.071
754	0.071
755	0.071
755	0.071
756	0.071
756	0.069
757	0.068
757	0.068
758	0.068
758	0.068
758	0.068
759	0.068
759	0.067
760	0.065
760	0.064
761	0.064
761	0.063
761	0.063
762	0.061
762	0.061
763	0.06
763	0.058
764	0.055
764	0.054
764	0.052
765	0.051
765	0.05
766	0.049
766	0.048
767	0.047
767	0.045
768	0.043
768	0.042
768	0.041
769	0.04
769	0.039
770	0.038
770	0.036
771	0.035
771	0.033
771	0.031
772	0.029
772	0.028
773	0.027
773	0.025
774	0.023
774	0.022
775	0.02
775	0.019
775	0.018
776	0.017
776	0.016
777	0.015
777	0.014
778	0.012
778	0.01
778	0.009
779	0.008
779	0.007
780	0.005
780	0.003
781	0.001
781	-0.001
781	-0.004
782	-0.007
782	-0.011
783	-0.014
783	-0.017
784	-0.021
784	-0.025
784	-0.028
785	-0.033
785	-0.037
786	-0.041
786	-0.044
787	-0.047
787	-0.05
788	-0.055
788	-0.06
788	-0.066
789	-0.072
789	-0.078
790	-0.082
790	-0.088
791	-0.095
791	-0.101
791	-0.105
792	-0.103
792	-0.096
793	-0.093
793	-0.093
794	-0.093
794	-0.096
794	-0.1
795	-0.103
795	-0.103
796	-0.104
796	-0.107
797	-0.115
797	-0.126
797	-0.133
798	-0.138
798	-0.142
799	-0.142
799	-0.142
800	-0.141
800	-0.143
801	-0.145
801	-0.146
801	-0.146
802	-0.147
802	-0.148
803	-0.148
803	-0.149
804	-0.147
804	-0.142
804	-0.136
805	-0.132
805	-0.13
806	-0.128
806	-0.128
807	-0.127
807	-0.127
807	-0.128
808	-0.128
808	-0.129
809	-0.134
809	-0.14
810	-0.144
810	-0.146
810	-0.15
811	-0.153
811	-0.153
812	-0.149
812	-0.146
813	-0.146
813	-0.147
813	-0.146
814	-0.145
814	-0.142
815	-0.136
815	-0.129
816	-0.122
816	-0.115
817	-0.111
817	-0.106
817	-0.096
818	-0.085
818	-0.073
819	-0.063
819	-0.055
820	-0.048
820	-0.042
820	-0.036
821	-0.03
821	-0.025
822	-0.02
822	-0.016
823	-0.012
823	-0.009
823	-0.007
824	-0.004
824	-0
825	0.003
825	0.006
826	0.009
826	0.011
826	0.013
827	0.015
827	0.017
828	0.018
828	0.02
829	0.021
829	0.022
829	0.022
830	0.022
830	0.023
831	0.024
831	0.025
832	0.025
832	0.025
832	0.025
833	0.025
833	0.025
834	0.026
834	0.026
835	0.026
835	0.026
835	0.025
836	0.025
836	0.026
837	0.026
837	0.027
838	0.027
838	0.028
839	0.028
839	0.028
839	0.028
840	0.028
840	0.028
841	0.027
841	0.027
842	0.027
842	0.027
842	0.027
843	0.027
843	0.027
844	0.027
844	0.027
845	0.028
845	0.028
845	0.028
846	0.028
846	0.028
847	0.028
847	0.028
848	0.028
848	0.028
848	0.029
849	0.029
849	0.029
850	0.03
850	0.03
851	0.03
851	0.03
851	0.03
852	0.03
852	0.029
853	0.029
853	0.028
854	0.028
854	0.028
854	0.028
855	0.028
855	0.028
856	0.028
856	0.028
857	0.028
857	0.027
857	0.027
858	0.028
858	0.027
859	0.027
859	0.028
860	0.029
860	0.029
860	0.03
861	0.031
861	0.032
862	0.033
862	0.033
863	0.033
863	0.033
863	0.034
864	0.033
864	0.033
865	0.034
865	0.034
866	0.034
866	0.034
866	0.034
867	0.035
867	0.035
868	0.035
868	0.035
869	0.035
869	0.035
869	0.034
870	0.033
870	0.032
871	0.032
871	0.031
872	0.031
872	0.031
872	0.031
873	0.032
873	0.032
874	0.033
874	0.033
875	0.033
875	0.033
875	0.033
876	0.032
876	0.031
877	0.031
877	0.03
878	0.029
878	0.028
878	0.027
879	0.027
879	0.026
880	0.026
880	0.026
881	0.026
881	0.026
881	0.026
882	0.026
882	0.027
883	0.026
883	0.026
884	0.026
884	0.025
884	0.025
885	0.025
885	0.024
886	0.024
886	0.024
887	0.024
887	0.024
887	0.024
888	0.024
888	0.025
889	0.026
889	0.027
890	0.028
890	0.028
890	0.029
891	0.03
891	0.03
892	0.031
892	0.031
893	0.032
893	0.032
893	0.032
894	0.032
894	0.031
895	0.03
895	0.03
895	0.029
896	0.028
896	0.027
897	0.026
897	0.025
898	0.025
898	0.024
898	0.023
899	0.023
899	0.022
900	0.022
900	0.022
901	0.022
901	0.022
901	0.023
902	0.023
902	0.023
903	0.024
903	0.024
904	0.025
904	0.026
904	0.026
905	0.027
905	0.028
906	0.028
906	0.029
907	0.029
907	0.03
907	0.03
908	0.03
908	0.031
909	0.031
909	0.032
910	0.032
910	0.033
910	0.033
911	0.033
911	0.033
912	0.033
912	0.033
913	0.033
913	0.033
913	0.032
914	0.032
914	0.031
915	0.03
915	0.03
916	0.029
916	0.027
916	0.026
917	0.025
917	0.023
918	0.021
918	0.02
918	0.018
919	0.017
919	0.016
920	0.015
920	0.014
921	0.014
921	0.014
921	0.014
922	0.015
922	0.015
923	0.016
923	0.016
924	0.017
924	0.018
924	0.018
925	0.019
925	0.02
926	0.021
926	0.021
927	0.021
927	0.021
927	0.021
928	0.021
928	0.021
929	0.021
929	0.02
930	0.019
930	0.018
930	0.017
931	0.017
931	0.016
932	0.016
932	0.016
933	0.015
933	0.015
933	0.015
934	0.014
934	0.014
935	0.014
935	0.014
935	0.013
936	0.013
936	0.012
937	0.012
937	0.011
938	0.011
938	0.011
938	0.011
939	0.011
939	0.012
940	0.012
940	0.013
941	0.014
941	0.015
941	0.016
942	0.017
942	0.018
943	0.019
943	0.02
944	0.02
944	0.021
944	0.021
945	0.022
945	0.022
946	0.023
946	0.023
946	0.023
947	0.024
947	0.024
948	0.025
948	0.026
949	0.026
949	0.026
949	0.026
950	0.026
950	0.026
951	0.026
951	0.026
952	0.025
952	0.025
952	0.024
953	0.024
953	0.023
954	0.022
954	0.022
955	0.022
955	0.022
955	0.022
956	0.022
956	0.023
957	0.023
957	0.022
957	0.023
958	0.023
958	0.023
959	0.023
959	0.023
960	0.023
960	0.023
960	0.023
961	0.023
961	0.023
962	0.024
962	0.024
963	0.025
963	0.025
963	0.026
964	0.026
964	0.026
965	0.026
965	0.027
966	0.027
966	0.027
966	0.026
967	0.026
967	0.025
968	0.024
968	0.024
968	0.023
969	0.022
969	0.021
970	0.021
970	0.02
971	0.019
971	0.019
971	0.019
972	0.018
972	0.019
973	0.019
973	0.019
974	0.019
974	0.019
974	0.02
975	0.021
975	0.022
976	0.023
976	0.024
976	0.024
977	0.025
977	0.025
978	0.026
978	0.026
979	0.026
979	0.026
979	0.026
980	0.025
980	0.024
981	0.023
981	0.023
982	0.022
982	0.021
982	0.02
983	0.019
983	0.018
984	0.017
984	0.016
984	0.015
985	0.014
985	0.013
986	0.012
986	0.011
987	0.011
987	0.01
987	0.01
988	0.01
988	0.01
989	0.01
989	0.011
990	0.012
990	0.012
990	0.013
991	0.014
991	0.016
992	0.017
992	0.018
992	0.019
993	0.019
993	0.02
994	0.02
994	0.02
995	0.02
995	0.02
995	0.02
996	0.019
996	0.019
997	0.018
997	0.017
997	0.017
998	0.017
998	0.017
999	0.017
999	0.017
1000	0.018
1000	0.018
1000	0.019
1001	0.02
1001	0.021
1002	0.022
1002	0.022
1003	0.023
1003	0.023
1003	0.023
1004	0.023
1004	0.023
1005	0.023
1005	0.023
1005	0.022
1006	0.022
1006	0.022
1007	0.022
1007	0.021
1008	0.021
1008	0.021
1008	0.021
1009	0.02
1009	0.02
1010	0.02
1010	0.02
1010	0.02
1011	0.02
1011	0.02
1012	0.019
1012	0.019
1013	0.019
1013	0.018
1013	0.018
1014	0.017
1014	0.016
1015	0.015
1015	0.014
1016	0.014
1016	0.013
1016	0.012
1017	0.011
1017	0.01
1018	0.01
1018	0.009
1018	0.009
1019	0.008
1019	0.008
1020	0.008
1020	0.008
1021	0.007
1021	0.007
1021	0.007
1022	0.007
1022	0.008
1023	0.008
1023	0.008
1023	0.009
1024	0.009
1024	0.008
1025	0.008
1025	0.008
1026	0.008
1026	0.008
1026	0.007
1027	0.007
1027	0.006
1028	0.006
1028	0.006
1028	0.005
1029	0.005
1029	0.004
1030	0.004
1030	0.004
1031	0.004
1031	0.003
1031	0.003
1032	0.003
1032	0.003
1033	0.003
1033	0.003
1033	0.003
1034	0.003
1034	0.003
1035	0.003
1035	0.003
1036	0.002
1036	0.002
1036	0.002
1037	0.003
1037	0.003
1038	0.003
1038	0.003
1039	0.004
1039	0.004
1039	0.005
1040	0.006
1040	0.007
1041	0.008
1041	0.009
1041	0.009
1042	0.01
1042	0.011
1043	0.012
1043	0.012
1044	0.013
1044	0.013
1044	0.014
1045	0.014
1045	0.014
1046	0.014
1046	0.013
1046	0.013
1047	0.013
1047	0.013
1048	0.013
1048	0.012
1049	0.011
1049	0.011
1049	0.01
1050	0.009
1050	0.008
1051	0.008
1051	0.007
1051	0.007
1052	0.006
1052	0.005
1053	0.005
1053	0.004
1053	0.003
1054	0.002
1054	0.002
1055	0.001
1055	0.001
1056	-0
1056	-0.001
1056	-0.002
1057	-0.003
1057	-0.004
1058	-0.004
1058	-0.004
1058	-0.004
1059	-0.004
1059	-0.005
1060	-0.005
1060	-0.005
1061	-0.004
1061	-0.004
1061	-0.003
1062	-0.003
1062	-0.003
1063	-0.003
1063	-0.003
1063	-0.003
1064	-0.003
1064	-0.003
1065	-0.003
1065	-0.003
1066	-0.003
1066	-0.003
1066	-0.003
1067	-0.002
1067	-0.002
1068	-0.002
1068	-0.002
1068	-0.002
1069	-0.003
1069	-0.003
1070	-0.004
1070	-0.005
1071	-0.005
1071	-0.006
1071	-0.007
1072	-0.008
1072	-0.009
1073	-0.01
1073	-0.01
1073	-0.011
1074	-0.012
1074	-0.012
1075	-0.013
1075	-0.014
1076	-0.015
1076	-0.016
1076	-0.017
1077	-0.017
1077	-0.017
1078	-0.017
1078	-0.017
1078	-0.017
1079	-0.017
1079	-0.016
1080	-0.016
1080	-0.015
1080	-0.015
1081	-0.014
1081	-0.013
1082	-0.013
1082	-0.013
1083	-0.013
1083	-0.013
1083	-0.012
1084	-0.013
1084	-0.012
1085	-0.012
1085	-0.012
1085	-0.012
1086	-0.012
1086	-0.013
1087	-0.012
1087	-0.012
1088	-0.012
1088	-0.013
1088	-0.013
1089	-0.014
1089	-0.014
1090	-0.015
1090	-0.015
1090	-0.016
1091	-0.016
1091	-0.016
1092	-0.017
1092	-0.017
1092	-0.016
1093	-0.016
1093	-0.016
1094	-0.015
1094	-0.015
1095	-0.016
1095	-0.016
1095	-0.015
1096	-0.014
1096	-0.014
1097	-0.013
1097	-0.013
1097	-0.012
1098	-0.011
1098	-0.01
1099	-0.009
1099	-0.007
1100	-0.007
1100	-0.006
1100	-0.006
1101	-0.005
1101	-0.004
1102	-0.002
1102	-0.002
1102	-0.001
1103	-0.001
1103	0.001
1104	0.002
1104	0.003
1104	0.006
1105	0.009
1105	0.011
1106	0.012
1106	0.015
1107	0.017
1107	0.022
1107	0.025
1108	0.044
1108	0.067
1109	0.099
1109	0.143
1109	0.171
1110	0.22
1110	0.309
1111	0.515
1111	-0
