Data from 17c-2a_Absorbance__836__00837.txt Node

Date: Fri Jan 26 10:15:23 CET 2024
User: Marek
Spectrometer: MAYP115816
Trigger mode: 0
Integration Time (sec): 2.000000E-1
Scans to average: 10
Electric dark correction enabled: true
Nonlinearity correction enabled: true
Boxcar width: 5
XAxis mode: Wavelengths
Number of Pixels in Spectrum: 2068
>>>>>Begin Spectral Data<<<<<
199	-1.299
199	-1.167
200	-1.025
200	-0.92
201	-0.852
201	-0.813
202	-0.754
202	-0.709
203	-0.672
203	-0.641
204	-0.617
204	-0.597
205	-0.578
205	-0.57
205	-0.568
206	-0.566
206	-0.563
207	-0.559
207	-0.559
208	-0.559
208	-0.557
209	-0.555
209	-0.553
210	-0.553
210	-0.554
211	-0.555
211	-0.556
212	-0.557
212	-0.557
213	-0.555
213	-0.551
213	-0.552
214	-0.55
214	-0.549
215	-0.544
215	-0.542
216	-0.54
216	-0.54
217	-0.536
217	-0.534
218	-0.53
218	-0.53
219	-0.526
219	-0.525
220	-0.525
220	-0.526
221	-0.524
221	-0.523
221	-0.519
222	-0.514
222	-0.512
223	-0.508
223	-0.506
224	-0.501
224	-0.495
225	-0.488
225	-0.481
226	-0.473
226	-0.463
227	-0.454
227	-0.445
228	-0.43
228	-0.417
229	-0.4
229	-0.38
229	-0.36
230	-0.336
230	-0.31
231	-0.285
231	-0.256
232	-0.228
232	-0.198
233	-0.166
233	-0.135
234	-0.105
234	-0.077
235	-0.049
235	-0.024
236	0.001
236	0.024
236	0.045
237	0.065
237	0.081
238	0.097
238	0.11
239	0.123
239	0.134
240	0.144
240	0.153
241	0.161
241	0.169
242	0.176
242	0.182
243	0.188
243	0.193
243	0.198
244	0.202
244	0.206
245	0.209
245	0.213
246	0.216
246	0.219
247	0.222
247	0.225
248	0.227
248	0.23
249	0.233
249	0.235
250	0.238
250	0.24
250	0.242
251	0.244
251	0.247
252	0.249
252	0.25
253	0.252
253	0.253
254	0.255
254	0.257
255	0.258
255	0.26
256	0.261
256	0.262
257	0.263
257	0.263
258	0.264
258	0.265
258	0.266
259	0.266
259	0.266
260	0.267
260	0.267
261	0.267
261	0.267
262	0.267
262	0.267
263	0.267
263	0.267
264	0.266
264	0.266
265	0.265
265	0.265
265	0.264
266	0.263
266	0.262
267	0.261
267	0.26
268	0.258
268	0.257
269	0.256
269	0.254
270	0.252
270	0.251
271	0.249
271	0.248
272	0.246
272	0.244
272	0.243
273	0.241
273	0.239
274	0.237
274	0.235
275	0.234
275	0.232
276	0.23
276	0.228
277	0.227
277	0.225
278	0.223
278	0.221
278	0.219
279	0.217
279	0.215
280	0.212
280	0.21
281	0.208
281	0.206
282	0.205
282	0.203
283	0.201
283	0.199
284	0.198
284	0.196
285	0.195
285	0.193
285	0.191
286	0.19
286	0.188
287	0.187
287	0.185
288	0.184
288	0.182
289	0.181
289	0.179
290	0.178
290	0.177
291	0.176
291	0.175
292	0.174
292	0.173
292	0.172
293	0.171
293	0.17
294	0.169
294	0.168
295	0.167
295	0.166
296	0.166
296	0.165
297	0.164
297	0.164
298	0.163
298	0.162
298	0.162
299	0.161
299	0.161
300	0.16
300	0.16
301	0.159
301	0.159
302	0.158
302	0.158
303	0.158
303	0.157
304	0.157
304	0.156
305	0.156
305	0.155
305	0.155
306	0.155
306	0.154
307	0.154
307	0.153
308	0.152
308	0.152
309	0.152
309	0.151
310	0.151
310	0.15
311	0.15
311	0.15
311	0.149
312	0.149
312	0.149
313	0.149
313	0.148
314	0.148
314	0.147
315	0.147
315	0.147
316	0.146
316	0.146
317	0.145
317	0.145
318	0.145
318	0.144
318	0.144
319	0.143
319	0.143
320	0.142
320	0.142
321	0.142
321	0.141
322	0.141
322	0.14
323	0.14
323	0.139
324	0.139
324	0.139
324	0.138
325	0.138
325	0.138
326	0.137
326	0.137
327	0.136
327	0.136
328	0.136
328	0.135
329	0.135
329	0.135
330	0.134
330	0.134
330	0.134
331	0.133
331	0.133
332	0.132
332	0.132
333	0.132
333	0.132
334	0.131
334	0.131
335	0.131
335	0.13
336	0.13
336	0.13
336	0.129
337	0.129
337	0.129
338	0.128
338	0.128
339	0.128
339	0.127
340	0.127
340	0.127
341	0.127
341	0.126
342	0.126
342	0.126
342	0.125
343	0.125
343	0.125
344	0.125
344	0.124
345	0.124
345	0.124
346	0.124
346	0.124
347	0.124
347	0.123
348	0.123
348	0.123
348	0.123
349	0.123
349	0.122
350	0.122
350	0.122
351	0.122
351	0.121
352	0.121
352	0.121
353	0.121
353	0.121
354	0.121
354	0.121
354	0.12
355	0.12
355	0.12
356	0.12
356	0.12
357	0.119
357	0.119
358	0.119
358	0.119
359	0.119
359	0.119
360	0.119
360	0.119
360	0.119
361	0.119
361	0.119
362	0.12
362	0.12
363	0.12
363	0.119
364	0.119
364	0.119
365	0.119
365	0.119
366	0.119
366	0.119
366	0.119
367	0.119
367	0.119
368	0.119
368	0.119
369	0.119
369	0.119
370	0.118
370	0.118
371	0.118
371	0.118
372	0.118
372	0.118
372	0.118
373	0.118
373	0.118
374	0.118
374	0.118
375	0.118
375	0.118
376	0.118
376	0.118
377	0.118
377	0.118
378	0.119
378	0.119
378	0.119
379	0.119
379	0.118
380	0.118
380	0.118
381	0.118
381	0.118
382	0.118
382	0.118
383	0.118
383	0.118
383	0.118
384	0.117
384	0.117
385	0.117
385	0.117
386	0.117
386	0.117
387	0.117
387	0.117
388	0.117
388	0.117
389	0.117
389	0.117
389	0.117
390	0.117
390	0.117
391	0.117
391	0.117
392	0.117
392	0.117
393	0.117
393	0.117
394	0.117
394	0.117
394	0.117
395	0.117
395	0.117
396	0.117
396	0.117
397	0.117
397	0.116
398	0.116
398	0.116
399	0.116
399	0.116
400	0.116
400	0.115
400	0.115
401	0.115
401	0.115
402	0.115
402	0.115
403	0.114
403	0.114
404	0.114
404	0.114
405	0.114
405	0.114
405	0.114
406	0.114
406	0.114
407	0.115
407	0.114
408	0.115
408	0.115
409	0.115
409	0.115
410	0.115
410	0.115
411	0.115
411	0.115
411	0.115
412	0.115
412	0.115
413	0.115
413	0.115
414	0.114
414	0.114
415	0.114
415	0.114
416	0.113
416	0.113
416	0.113
417	0.113
417	0.113
418	0.113
418	0.113
419	0.113
419	0.114
420	0.114
420	0.114
421	0.114
421	0.114
421	0.114
422	0.115
422	0.115
423	0.115
423	0.114
424	0.114
424	0.114
425	0.114
425	0.114
426	0.114
426	0.114
427	0.114
427	0.114
427	0.114
428	0.114
428	0.114
429	0.114
429	0.114
430	0.114
430	0.114
431	0.114
431	0.114
432	0.114
432	0.114
432	0.113
433	0.113
433	0.113
434	0.113
434	0.113
435	0.114
435	0.114
436	0.114
436	0.114
437	0.114
437	0.114
437	0.114
438	0.114
438	0.114
439	0.114
439	0.113
440	0.113
440	0.113
441	0.113
441	0.113
442	0.113
442	0.113
442	0.113
443	0.113
443	0.113
444	0.113
444	0.113
445	0.114
445	0.114
446	0.114
446	0.114
447	0.114
447	0.114
447	0.114
448	0.114
448	0.114
449	0.114
449	0.114
450	0.114
450	0.114
451	0.114
451	0.114
452	0.114
452	0.114
452	0.114
453	0.114
453	0.114
454	0.114
454	0.114
455	0.113
455	0.114
456	0.114
456	0.113
457	0.113
457	0.113
458	0.114
458	0.114
458	0.114
459	0.115
459	0.115
460	0.114
460	0.114
461	0.114
461	0.115
462	0.115
462	0.115
463	0.115
463	0.116
463	0.116
464	0.116
464	0.116
465	0.117
465	0.117
466	0.117
466	0.117
467	0.117
467	0.117
467	0.117
468	0.116
468	0.116
469	0.116
469	0.116
470	0.116
470	0.116
471	0.116
471	0.115
472	0.116
472	0.116
472	0.116
473	0.117
473	0.117
474	0.118
474	0.118
475	0.119
475	0.119
476	0.119
476	0.12
477	0.12
477	0.121
477	0.121
478	0.121
478	0.122
479	0.122
479	0.122
480	0.123
480	0.123
481	0.124
481	0.124
482	0.125
482	0.125
482	0.126
483	0.128
483	0.129
484	0.13
484	0.131
485	0.131
485	0.132
486	0.132
486	0.133
487	0.133
487	0.134
487	0.134
488	0.134
488	0.134
489	0.134
489	0.135
490	0.135
490	0.135
491	0.136
491	0.137
492	0.138
492	0.138
492	0.139
493	0.139
493	0.14
494	0.141
494	0.142
495	0.143
495	0.144
496	0.145
496	0.145
496	0.146
497	0.147
497	0.148
498	0.149
498	0.15
499	0.151
499	0.152
500	0.153
500	0.154
501	0.155
501	0.156
501	0.157
502	0.158
502	0.159
503	0.16
503	0.161
504	0.162
504	0.163
505	0.164
505	0.164
506	0.165
506	0.166
506	0.167
507	0.167
507	0.168
508	0.169
508	0.17
509	0.171
509	0.172
510	0.173
510	0.174
511	0.174
511	0.175
511	0.176
512	0.177
512	0.177
513	0.177
513	0.178
514	0.178
514	0.178
515	0.179
515	0.179
515	0.179
516	0.179
516	0.18
517	0.181
517	0.181
518	0.181
518	0.181
519	0.181
519	0.181
520	0.181
520	0.181
520	0.181
521	0.18
521	0.18
522	0.179
522	0.179
523	0.178
523	0.179
524	0.179
524	0.179
524	0.18
525	0.18
525	0.18
526	0.18
526	0.181
527	0.181
527	0.181
528	0.182
528	0.182
529	0.182
529	0.182
529	0.181
530	0.181
530	0.181
531	0.18
531	0.18
532	0.179
532	0.178
533	0.177
533	0.176
533	0.176
534	0.175
534	0.174
535	0.173
535	0.172
536	0.171
536	0.17
537	0.169
537	0.169
538	0.168
538	0.167
538	0.166
539	0.166
539	0.165
540	0.164
540	0.162
541	0.161
541	0.16
542	0.159
542	0.157
542	0.156
543	0.155
543	0.154
544	0.152
544	0.151
545	0.15
545	0.15
546	0.149
546	0.148
547	0.147
547	0.146
547	0.145
548	0.144
548	0.143
549	0.142
549	0.141
550	0.14
550	0.139
551	0.137
551	0.136
551	0.135
552	0.134
552	0.133
553	0.132
553	0.131
554	0.129
554	0.128
555	0.126
555	0.124
556	0.123
556	0.121
556	0.119
557	0.118
557	0.116
558	0.114
558	0.113
559	0.112
559	0.111
560	0.11
560	0.109
560	0.108
561	0.108
561	0.107
562	0.107
562	0.106
563	0.104
563	0.103
564	0.102
564	0.101
564	0.1
565	0.099
565	0.098
566	0.097
566	0.096
567	0.095
567	0.094
568	0.094
568	0.093
568	0.093
569	0.093
569	0.093
570	0.093
570	0.092
571	0.092
571	0.091
572	0.091
572	0.09
573	0.089
573	0.089
573	0.088
574	0.087
574	0.087
575	0.086
575	0.087
576	0.086
576	0.085
577	0.084
577	0.083
577	0.083
578	0.082
578	0.082
579	0.083
579	0.083
580	0.081
580	0.079
581	0.078
581	0.077
581	0.077
582	0.076
582	0.076
583	0.077
583	0.076
584	0.073
584	0.071
585	0.071
585	0.072
585	0.071
586	0.071
586	0.071
587	0.069
587	0.068
588	0.066
588	0.066
589	0.066
589	0.066
590	0.065
590	0.065
590	0.066
591	0.067
591	0.067
592	0.066
592	0.066
593	0.066
593	0.066
594	0.066
594	0.065
594	0.064
595	0.064
595	0.063
596	0.063
596	0.064
597	0.065
597	0.066
598	0.066
598	0.066
598	0.066
599	0.067
599	0.066
600	0.065
600	0.065
601	0.064
601	0.063
602	0.062
602	0.061
602	0.06
603	0.06
603	0.061
604	0.061
604	0.062
605	0.063
605	0.063
606	0.063
606	0.062
606	0.062
607	0.062
607	0.062
608	0.061
608	0.06
609	0.059
609	0.06
610	0.059
610	0.058
610	0.059
611	0.06
611	0.062
612	0.063
612	0.064
613	0.066
613	0.067
614	0.068
614	0.067
614	0.068
615	0.068
615	0.068
616	0.068
616	0.068
617	0.068
617	0.067
618	0.067
618	0.067
618	0.067
619	0.067
619	0.068
620	0.069
620	0.069
621	0.069
621	0.069
622	0.069
622	0.07
622	0.069
623	0.069
623	0.07
624	0.071
624	0.071
625	0.071
625	0.071
626	0.071
626	0.071
626	0.072
627	0.073
627	0.073
628	0.074
628	0.074
629	0.074
629	0.074
630	0.074
630	0.074
630	0.075
631	0.075
631	0.075
632	0.075
632	0.075
633	0.076
633	0.077
634	0.078
634	0.079
634	0.08
635	0.081
635	0.082
636	0.082
636	0.083
637	0.084
637	0.084
638	0.085
638	0.086
638	0.086
639	0.087
639	0.087
640	0.088
640	0.088
641	0.089
641	0.09
642	0.092
642	0.093
642	0.094
643	0.095
643	0.096
644	0.097
644	0.098
645	0.1
645	0.101
646	0.103
646	0.105
646	0.107
647	0.109
647	0.11
648	0.112
648	0.113
649	0.115
649	0.117
650	0.119
650	0.121
650	0.123
651	0.125
651	0.126
652	0.127
652	0.129
653	0.131
653	0.136
653	0.137
654	0.111
654	0.09
655	0.091
655	0.092
656	0.093
656	0.094
657	0.096
657	0.097
657	0.098
658	0.096
658	0.094
659	0.118
659	0.15
660	0.157
660	0.159
661	0.16
661	0.162
661	0.164
662	0.166
662	0.167
663	0.169
663	0.171
664	0.172
664	0.173
665	0.175
665	0.177
665	0.178
666	0.18
666	0.181
667	0.182
667	0.184
668	0.185
668	0.187
669	0.188
669	0.19
669	0.192
670	0.193
670	0.194
671	0.195
671	0.196
672	0.198
672	0.199
672	0.2
673	0.201
673	0.203
674	0.204
674	0.205
675	0.207
675	0.208
676	0.211
676	0.212
676	0.214
677	0.216
677	0.217
678	0.218
678	0.219
679	0.219
679	0.22
680	0.222
680	0.223
680	0.223
681	0.224
681	0.224
682	0.225
682	0.226
683	0.227
683	0.228
684	0.229
684	0.228
684	0.228
685	0.228
685	0.228
686	0.228
686	0.228
687	0.227
687	0.227
687	0.226
688	0.226
688	0.226
689	0.227
689	0.227
690	0.227
690	0.228
691	0.228
691	0.228
691	0.228
692	0.227
692	0.227
693	0.227
693	0.227
694	0.226
694	0.225
695	0.225
695	0.225
695	0.225
696	0.224
696	0.223
697	0.223
697	0.222
698	0.221
698	0.22
698	0.219
699	0.218
699	0.216
700	0.214
700	0.213
701	0.212
701	0.21
702	0.209
702	0.208
702	0.206
703	0.204
703	0.203
704	0.202
704	0.201
705	0.2
705	0.199
705	0.198
706	0.197
706	0.196
707	0.195
707	0.194
708	0.193
708	0.192
709	0.191
709	0.19
709	0.188
710	0.187
710	0.186
711	0.185
711	0.183
712	0.182
712	0.18
713	0.179
713	0.177
713	0.176
714	0.174
714	0.172
715	0.17
715	0.168
716	0.166
716	0.164
716	0.162
717	0.16
717	0.158
718	0.156
718	0.153
719	0.152
719	0.15
720	0.149
720	0.147
720	0.145
721	0.143
721	0.142
722	0.14
722	0.138
723	0.137
723	0.136
723	0.135
724	0.134
724	0.132
725	0.131
725	0.13
726	0.129
726	0.128
727	0.127
727	0.126
727	0.125
728	0.123
728	0.122
729	0.122
729	0.121
730	0.119
730	0.118
730	0.116
731	0.115
731	0.114
732	0.113
732	0.112
733	0.111
733	0.111
734	0.11
734	0.108
734	0.108
735	0.108
735	0.107
736	0.106
736	0.105
737	0.104
737	0.103
737	0.102
738	0.1
738	0.098
739	0.097
739	0.095
740	0.094
740	0.093
741	0.092
741	0.09
741	0.089
742	0.088
742	0.087
743	0.087
743	0.086
744	0.085
744	0.084
744	0.083
745	0.082
745	0.081
746	0.079
746	0.078
747	0.077
747	0.076
748	0.075
748	0.074
748	0.073
749	0.072
749	0.071
750	0.071
750	0.07
751	0.07
751	0.07
751	0.071
752	0.07
752	0.07
753	0.069
753	0.069
754	0.069
754	0.068
754	0.068
755	0.068
755	0.068
756	0.067
756	0.066
757	0.065
757	0.065
758	0.064
758	0.064
758	0.064
759	0.064
759	0.063
760	0.062
760	0.06
761	0.06
761	0.06
761	0.059
762	0.058
762	0.058
763	0.057
763	0.055
764	0.053
764	0.052
764	0.051
765	0.049
765	0.048
766	0.047
766	0.046
767	0.045
767	0.043
768	0.04
768	0.039
768	0.038
769	0.037
769	0.036
770	0.034
770	0.033
771	0.031
771	0.029
771	0.028
772	0.026
772	0.025
773	0.024
773	0.022
774	0.021
774	0.019
775	0.018
775	0.018
775	0.016
776	0.016
776	0.015
777	0.014
777	0.013
778	0.012
778	0.011
778	0.01
779	0.009
779	0.008
780	0.006
780	0.004
781	0.002
781	-0.001
781	-0.003
782	-0.007
782	-0.01
783	-0.013
783	-0.016
784	-0.02
784	-0.024
784	-0.027
785	-0.031
785	-0.036
786	-0.039
786	-0.042
787	-0.044
787	-0.048
788	-0.052
788	-0.057
788	-0.062
789	-0.068
789	-0.074
790	-0.079
790	-0.085
791	-0.092
791	-0.098
791	-0.103
792	-0.101
792	-0.094
793	-0.092
793	-0.092
794	-0.093
794	-0.096
794	-0.1
795	-0.103
795	-0.103
796	-0.104
796	-0.107
797	-0.115
797	-0.126
797	-0.133
798	-0.139
798	-0.142
799	-0.142
799	-0.142
800	-0.141
800	-0.143
801	-0.145
801	-0.146
801	-0.146
802	-0.147
802	-0.148
803	-0.148
803	-0.149
804	-0.148
804	-0.143
804	-0.136
805	-0.132
805	-0.13
806	-0.129
806	-0.128
807	-0.127
807	-0.127
807	-0.128
808	-0.128
808	-0.129
809	-0.134
809	-0.14
810	-0.144
810	-0.146
810	-0.15
811	-0.153
811	-0.153
812	-0.149
812	-0.146
813	-0.146
813	-0.146
813	-0.145
814	-0.144
814	-0.14
815	-0.134
815	-0.126
816	-0.119
816	-0.112
817	-0.108
817	-0.102
817	-0.092
818	-0.081
818	-0.07
819	-0.06
819	-0.052
820	-0.045
820	-0.039
820	-0.034
821	-0.028
821	-0.023
822	-0.018
822	-0.014
823	-0.01
823	-0.008
823	-0.005
824	-0.003
824	0
825	0.003
825	0.006
826	0.009
826	0.011
826	0.013
827	0.015
827	0.017
828	0.018
828	0.019
829	0.021
829	0.022
829	0.022
830	0.022
830	0.023
831	0.024
831	0.024
832	0.024
832	0.024
832	0.024
833	0.025
833	0.025
834	0.025
834	0.026
835	0.026
835	0.025
835	0.025
836	0.025
836	0.026
837	0.026
837	0.027
838	0.027
838	0.027
839	0.027
839	0.027
839	0.027
840	0.027
840	0.027
841	0.027
841	0.026
842	0.026
842	0.026
842	0.026
843	0.026
843	0.026
844	0.026
844	0.027
845	0.027
845	0.027
845	0.027
846	0.027
846	0.027
847	0.027
847	0.027
848	0.027
848	0.027
848	0.027
849	0.028
849	0.028
850	0.028
850	0.028
851	0.028
851	0.029
851	0.028
852	0.028
852	0.028
853	0.028
853	0.027
854	0.027
854	0.027
854	0.027
855	0.027
855	0.027
856	0.027
856	0.026
857	0.026
857	0.026
857	0.026
858	0.026
858	0.026
859	0.026
859	0.026
860	0.027
860	0.027
860	0.028
861	0.029
861	0.03
862	0.031
862	0.031
863	0.031
863	0.031
863	0.032
864	0.032
864	0.032
865	0.032
865	0.032
866	0.033
866	0.033
866	0.033
867	0.034
867	0.035
868	0.035
868	0.035
869	0.035
869	0.035
869	0.034
870	0.034
870	0.033
871	0.033
871	0.032
872	0.032
872	0.032
872	0.032
873	0.032
873	0.033
874	0.033
874	0.033
875	0.033
875	0.033
875	0.032
876	0.031
876	0.031
877	0.03
877	0.029
878	0.028
878	0.027
878	0.026
879	0.025
879	0.025
880	0.024
880	0.024
881	0.024
881	0.025
881	0.025
882	0.025
882	0.025
883	0.025
883	0.025
884	0.025
884	0.025
884	0.024
885	0.024
885	0.024
886	0.023
886	0.023
887	0.023
887	0.023
887	0.023
888	0.024
888	0.024
889	0.025
889	0.026
890	0.027
890	0.028
890	0.028
891	0.029
891	0.03
892	0.03
892	0.031
893	0.031
893	0.031
893	0.032
894	0.032
894	0.031
895	0.031
895	0.03
895	0.029
896	0.028
896	0.027
897	0.027
897	0.026
898	0.025
898	0.025
898	0.024
899	0.023
899	0.023
900	0.023
900	0.023
901	0.023
901	0.023
901	0.023
902	0.024
902	0.024
903	0.024
903	0.025
904	0.026
904	0.026
904	0.027
905	0.028
905	0.028
906	0.029
906	0.029
907	0.029
907	0.029
907	0.03
908	0.03
908	0.03
909	0.031
909	0.031
910	0.031
910	0.032
910	0.032
911	0.032
911	0.033
912	0.033
912	0.033
913	0.033
913	0.032
913	0.032
914	0.031
914	0.031
915	0.03
915	0.029
916	0.028
916	0.027
916	0.026
917	0.024
917	0.023
918	0.021
918	0.019
918	0.017
919	0.016
919	0.015
920	0.014
920	0.013
921	0.013
921	0.013
921	0.013
922	0.013
922	0.014
923	0.014
923	0.015
924	0.016
924	0.017
924	0.018
925	0.018
925	0.019
926	0.02
926	0.021
927	0.021
927	0.021
927	0.021
928	0.021
928	0.021
929	0.021
929	0.02
930	0.019
930	0.018
930	0.017
931	0.017
931	0.016
932	0.016
932	0.015
933	0.015
933	0.014
933	0.014
934	0.013
934	0.013
935	0.012
935	0.012
935	0.012
936	0.011
936	0.011
937	0.011
937	0.011
938	0.01
938	0.01
938	0.011
939	0.011
939	0.012
940	0.013
940	0.013
941	0.014
941	0.015
941	0.016
942	0.017
942	0.018
943	0.019
943	0.02
944	0.02
944	0.021
944	0.021
945	0.022
945	0.022
946	0.022
946	0.023
946	0.023
947	0.024
947	0.024
948	0.025
948	0.025
949	0.026
949	0.026
949	0.026
950	0.027
950	0.027
951	0.027
951	0.026
952	0.026
952	0.025
952	0.025
953	0.024
953	0.024
954	0.023
954	0.022
955	0.022
955	0.022
955	0.021
956	0.022
956	0.022
957	0.021
957	0.022
957	0.022
958	0.022
958	0.022
959	0.022
959	0.022
960	0.022
960	0.022
960	0.022
961	0.023
961	0.023
962	0.023
962	0.024
963	0.024
963	0.024
963	0.025
964	0.025
964	0.025
965	0.025
965	0.025
966	0.025
966	0.025
966	0.024
967	0.024
967	0.023
968	0.022
968	0.022
968	0.021
969	0.021
969	0.021
970	0.02
970	0.02
971	0.019
971	0.019
971	0.019
972	0.019
972	0.019
973	0.019
973	0.019
974	0.019
974	0.02
974	0.02
975	0.021
975	0.021
976	0.022
976	0.022
976	0.023
977	0.023
977	0.024
978	0.025
978	0.025
979	0.025
979	0.025
979	0.025
980	0.025
980	0.024
981	0.023
981	0.023
982	0.022
982	0.021
982	0.02
983	0.019
983	0.018
984	0.017
984	0.017
984	0.016
985	0.015
985	0.014
986	0.013
986	0.012
987	0.012
987	0.012
987	0.012
988	0.011
988	0.011
989	0.011
989	0.012
990	0.012
990	0.013
990	0.013
991	0.014
991	0.015
992	0.016
992	0.017
992	0.017
993	0.018
993	0.018
994	0.018
994	0.019
995	0.019
995	0.019
995	0.019
996	0.018
996	0.018
997	0.017
997	0.017
997	0.017
998	0.017
998	0.017
999	0.018
999	0.018
1000	0.019
1000	0.019
1000	0.02
1001	0.02
1001	0.021
1002	0.022
1002	0.023
1003	0.023
1003	0.023
1003	0.023
1004	0.023
1004	0.023
1005	0.023
1005	0.023
1005	0.022
1006	0.022
1006	0.021
1007	0.021
1007	0.02
1008	0.02
1008	0.02
1008	0.02
1009	0.019
1009	0.019
1010	0.019
1010	0.019
1010	0.019
1011	0.019
1011	0.019
1012	0.018
1012	0.018
1013	0.018
1013	0.017
1013	0.016
1014	0.016
1014	0.015
1015	0.014
1015	0.013
1016	0.013
1016	0.012
1016	0.011
1017	0.01
1017	0.009
1018	0.008
1018	0.008
1018	0.008
1019	0.007
1019	0.006
1020	0.006
1020	0.006
1021	0.006
1021	0.006
1021	0.006
1022	0.006
1022	0.006
1023	0.007
1023	0.007
1023	0.007
1024	0.007
1024	0.007
1025	0.007
1025	0.007
1026	0.007
1026	0.007
1026	0.007
1027	0.006
1027	0.006
1028	0.005
1028	0.005
1028	0.005
1029	0.004
1029	0.004
1030	0.004
1030	0.003
1031	0.003
1031	0.003
1031	0.003
1032	0.003
1032	0.003
1033	0.003
1033	0.003
1033	0.003
1034	0.003
1034	0.003
1035	0.003
1035	0.003
1036	0.003
1036	0.003
1036	0.003
1037	0.003
1037	0.004
1038	0.004
1038	0.005
1039	0.005
1039	0.006
1039	0.007
1040	0.007
1040	0.008
1041	0.01
1041	0.01
1041	0.011
1042	0.011
1042	0.012
1043	0.013
1043	0.013
1044	0.013
1044	0.014
1044	0.014
1045	0.014
1045	0.014
1046	0.014
1046	0.014
1046	0.014
1047	0.013
1047	0.013
1048	0.013
1048	0.013
1049	0.012
1049	0.011
1049	0.01
1050	0.009
1050	0.009
1051	0.008
1051	0.008
1051	0.007
1052	0.006
1052	0.005
1053	0.005
1053	0.004
1053	0.004
1054	0.003
1054	0.002
1055	0.002
1055	0.001
1056	0
1056	-0.001
1056	-0.001
1057	-0.002
1057	-0.003
1058	-0.003
1058	-0.004
1058	-0.004
1059	-0.004
1059	-0.004
1060	-0.004
1060	-0.004
1061	-0.004
1061	-0.003
1061	-0.003
1062	-0.003
1062	-0.003
1063	-0.003
1063	-0.003
1063	-0.003
1064	-0.003
1064	-0.003
1065	-0.003
1065	-0.003
1066	-0.003
1066	-0.002
1066	-0.002
1067	-0.002
1067	-0.001
1068	-0.001
1068	-0.001
1068	-0.002
1069	-0.002
1069	-0.003
1070	-0.003
1070	-0.004
1071	-0.005
1071	-0.006
1071	-0.007
1072	-0.008
1072	-0.009
1073	-0.01
1073	-0.01
1073	-0.011
1074	-0.011
1074	-0.012
1075	-0.013
1075	-0.013
1076	-0.014
1076	-0.014
1076	-0.015
1077	-0.015
1077	-0.015
1078	-0.016
1078	-0.015
1078	-0.015
1079	-0.015
1079	-0.015
1080	-0.015
1080	-0.014
1080	-0.014
1081	-0.013
1081	-0.013
1082	-0.013
1082	-0.013
1083	-0.013
1083	-0.013
1083	-0.012
1084	-0.013
1084	-0.012
1085	-0.012
1085	-0.012
1085	-0.012
1086	-0.012
1086	-0.013
1087	-0.012
1087	-0.011
1088	-0.012
1088	-0.012
1088	-0.012
1089	-0.013
1089	-0.014
1090	-0.014
1090	-0.014
1090	-0.015
1091	-0.015
1091	-0.015
1092	-0.016
1092	-0.015
1092	-0.016
1093	-0.016
1093	-0.015
1094	-0.015
1094	-0.015
1095	-0.016
1095	-0.016
1095	-0.015
1096	-0.015
1096	-0.015
1097	-0.014
1097	-0.014
1097	-0.013
1098	-0.012
1098	-0.011
1099	-0.01
1099	-0.009
1100	-0.007
1100	-0.007
1100	-0.006
1101	-0.006
1101	-0.005
1102	-0.004
1102	-0.003
1102	-0.002
1103	-0.002
1103	0
1104	0.002
1104	0.003
1104	0.005
1105	0.007
1105	0.008
1106	0.009
1106	0.011
1107	0.012
1107	0.014
1107	0.019
1108	0.035
1108	0.055
1109	0.081
1109	0.12
1109	0.144
1110	0.19
1110	0.264
1111	0.426
1111	1.968
