Data from 17c-2a_Absorbance__1887__01888.txt Node

Date: Fri Jan 26 10:50:24 CET 2024
User: Marek
Spectrometer: MAYP115816
Trigger mode: 0
Integration Time (sec): 2.000000E-1
Scans to average: 10
Electric dark correction enabled: true
Nonlinearity correction enabled: true
Boxcar width: 5
XAxis mode: Wavelengths
Number of Pixels in Spectrum: 2068
>>>>>Begin Spectral Data<<<<<
199	-1.495
199	-1.357
200	-1.21
200	-1.099
201	-1.029
201	-0.986
202	-0.92
202	-0.87
203	-0.828
203	-0.793
204	-0.768
204	-0.744
205	-0.724
205	-0.714
205	-0.712
206	-0.707
206	-0.705
207	-0.702
207	-0.702
208	-0.701
208	-0.699
209	-0.696
209	-0.694
210	-0.694
210	-0.695
211	-0.696
211	-0.698
212	-0.698
212	-0.697
213	-0.695
213	-0.691
213	-0.693
214	-0.691
214	-0.689
215	-0.684
215	-0.682
216	-0.678
216	-0.677
217	-0.674
217	-0.672
218	-0.668
218	-0.666
219	-0.662
219	-0.661
220	-0.66
220	-0.661
221	-0.659
221	-0.658
221	-0.654
222	-0.647
222	-0.644
223	-0.641
223	-0.637
224	-0.632
224	-0.625
225	-0.618
225	-0.61
226	-0.601
226	-0.589
227	-0.58
227	-0.569
228	-0.554
228	-0.537
229	-0.518
229	-0.496
229	-0.473
230	-0.444
230	-0.416
231	-0.385
231	-0.351
232	-0.315
232	-0.277
233	-0.238
233	-0.198
234	-0.159
234	-0.12
235	-0.082
235	-0.046
236	-0.011
236	0.023
236	0.055
237	0.084
237	0.111
238	0.137
238	0.159
239	0.181
239	0.2
240	0.218
240	0.233
241	0.247
241	0.26
242	0.272
242	0.282
243	0.292
243	0.3
243	0.308
244	0.316
244	0.322
245	0.327
245	0.334
246	0.339
246	0.344
247	0.348
247	0.352
248	0.357
248	0.361
249	0.364
249	0.367
250	0.371
250	0.374
250	0.376
251	0.379
251	0.382
252	0.385
252	0.387
253	0.389
253	0.391
254	0.393
254	0.395
255	0.397
255	0.399
256	0.401
256	0.402
257	0.403
257	0.404
258	0.405
258	0.406
258	0.407
259	0.408
259	0.408
260	0.409
260	0.409
261	0.409
261	0.409
262	0.409
262	0.409
263	0.409
263	0.408
264	0.408
264	0.407
265	0.407
265	0.406
265	0.405
266	0.404
266	0.403
267	0.402
267	0.401
268	0.399
268	0.397
269	0.396
269	0.395
270	0.393
270	0.391
271	0.389
271	0.388
272	0.386
272	0.384
272	0.382
273	0.38
273	0.378
274	0.376
274	0.374
275	0.372
275	0.37
276	0.368
276	0.366
277	0.363
277	0.361
278	0.358
278	0.356
278	0.354
279	0.351
279	0.348
280	0.346
280	0.344
281	0.341
281	0.339
282	0.337
282	0.335
283	0.333
283	0.331
284	0.329
284	0.328
285	0.326
285	0.324
285	0.322
286	0.32
286	0.318
287	0.316
287	0.314
288	0.312
288	0.311
289	0.309
289	0.307
290	0.306
290	0.305
291	0.303
291	0.301
292	0.3
292	0.299
292	0.297
293	0.296
293	0.295
294	0.294
294	0.292
295	0.291
295	0.29
296	0.289
296	0.288
297	0.287
297	0.286
298	0.285
298	0.284
298	0.283
299	0.283
299	0.282
300	0.281
300	0.28
301	0.279
301	0.278
302	0.278
302	0.277
303	0.276
303	0.275
304	0.274
304	0.274
305	0.273
305	0.272
305	0.271
306	0.271
306	0.27
307	0.269
307	0.268
308	0.267
308	0.267
309	0.266
309	0.265
310	0.265
310	0.264
311	0.263
311	0.263
311	0.262
312	0.261
312	0.261
313	0.26
313	0.26
314	0.259
314	0.258
315	0.257
315	0.257
316	0.256
316	0.255
317	0.254
317	0.254
318	0.253
318	0.252
318	0.251
319	0.251
319	0.25
320	0.25
320	0.249
321	0.248
321	0.247
322	0.247
322	0.246
323	0.245
323	0.245
324	0.244
324	0.243
324	0.242
325	0.242
325	0.241
326	0.241
326	0.24
327	0.239
327	0.239
328	0.238
328	0.237
329	0.237
329	0.236
330	0.235
330	0.235
330	0.234
331	0.233
331	0.233
332	0.232
332	0.232
333	0.231
333	0.231
334	0.23
334	0.23
335	0.229
335	0.229
336	0.228
336	0.228
336	0.227
337	0.226
337	0.226
338	0.225
338	0.225
339	0.224
339	0.224
340	0.223
340	0.223
341	0.222
341	0.222
342	0.221
342	0.221
342	0.221
343	0.22
343	0.22
344	0.219
344	0.219
345	0.219
345	0.218
346	0.218
346	0.218
347	0.217
347	0.217
348	0.216
348	0.216
348	0.216
349	0.216
349	0.215
350	0.215
350	0.215
351	0.215
351	0.214
352	0.214
352	0.214
353	0.213
353	0.213
354	0.213
354	0.212
354	0.212
355	0.212
355	0.211
356	0.211
356	0.211
357	0.21
357	0.21
358	0.21
358	0.21
359	0.21
359	0.21
360	0.21
360	0.21
360	0.21
361	0.21
361	0.21
362	0.211
362	0.211
363	0.21
363	0.21
364	0.21
364	0.21
365	0.21
365	0.21
366	0.21
366	0.209
366	0.209
367	0.209
367	0.209
368	0.208
368	0.208
369	0.208
369	0.208
370	0.207
370	0.207
371	0.206
371	0.206
372	0.206
372	0.206
372	0.206
373	0.206
373	0.206
374	0.206
374	0.206
375	0.206
375	0.206
376	0.206
376	0.206
377	0.206
377	0.206
378	0.206
378	0.206
378	0.206
379	0.206
379	0.205
380	0.205
380	0.205
381	0.205
381	0.205
382	0.205
382	0.205
383	0.205
383	0.204
383	0.204
384	0.204
384	0.203
385	0.203
385	0.203
386	0.203
386	0.202
387	0.202
387	0.202
388	0.202
388	0.202
389	0.202
389	0.202
389	0.202
390	0.202
390	0.202
391	0.202
391	0.202
392	0.202
392	0.202
393	0.201
393	0.201
394	0.201
394	0.201
394	0.201
395	0.201
395	0.2
396	0.2
396	0.2
397	0.2
397	0.199
398	0.199
398	0.199
399	0.199
399	0.199
400	0.198
400	0.198
400	0.198
401	0.198
401	0.197
402	0.197
402	0.197
403	0.197
403	0.196
404	0.196
404	0.196
405	0.196
405	0.196
405	0.196
406	0.196
406	0.196
407	0.196
407	0.196
408	0.195
408	0.195
409	0.195
409	0.195
410	0.195
410	0.195
411	0.195
411	0.194
411	0.194
412	0.194
412	0.194
413	0.194
413	0.193
414	0.193
414	0.193
415	0.193
415	0.192
416	0.192
416	0.192
416	0.192
417	0.191
417	0.192
418	0.192
418	0.192
419	0.192
419	0.192
420	0.192
420	0.193
421	0.193
421	0.193
421	0.193
422	0.193
422	0.193
423	0.193
423	0.193
424	0.192
424	0.192
425	0.192
425	0.192
426	0.192
426	0.191
427	0.191
427	0.191
427	0.191
428	0.192
428	0.192
429	0.192
429	0.192
430	0.192
430	0.192
431	0.192
431	0.191
432	0.191
432	0.191
432	0.19
433	0.19
433	0.19
434	0.19
434	0.19
435	0.19
435	0.19
436	0.19
436	0.19
437	0.19
437	0.19
437	0.19
438	0.19
438	0.19
439	0.19
439	0.189
440	0.189
440	0.189
441	0.189
441	0.189
442	0.189
442	0.189
442	0.189
443	0.189
443	0.189
444	0.189
444	0.189
445	0.19
445	0.189
446	0.189
446	0.189
447	0.189
447	0.189
447	0.189
448	0.189
448	0.189
449	0.189
449	0.189
450	0.189
450	0.189
451	0.189
451	0.189
452	0.189
452	0.189
452	0.189
453	0.189
453	0.189
454	0.188
454	0.188
455	0.188
455	0.189
456	0.189
456	0.189
457	0.189
457	0.189
458	0.189
458	0.189
458	0.189
459	0.19
459	0.19
460	0.189
460	0.189
461	0.189
461	0.189
462	0.189
462	0.19
463	0.19
463	0.19
463	0.191
464	0.191
464	0.191
465	0.191
465	0.192
466	0.192
466	0.192
467	0.193
467	0.192
467	0.192
468	0.191
468	0.191
469	0.191
469	0.191
470	0.191
470	0.191
471	0.19
471	0.19
472	0.19
472	0.191
472	0.192
473	0.192
473	0.193
474	0.194
474	0.194
475	0.195
475	0.196
476	0.196
476	0.197
477	0.198
477	0.198
477	0.199
478	0.199
478	0.2
479	0.2
479	0.201
480	0.202
480	0.202
481	0.203
481	0.204
482	0.205
482	0.205
482	0.207
483	0.208
483	0.21
484	0.212
484	0.213
485	0.215
485	0.216
486	0.216
486	0.217
487	0.218
487	0.219
487	0.22
488	0.22
488	0.219
489	0.219
489	0.22
490	0.221
490	0.221
491	0.222
491	0.223
492	0.225
492	0.226
492	0.226
493	0.228
493	0.229
494	0.231
494	0.233
495	0.234
495	0.235
496	0.237
496	0.238
496	0.24
497	0.241
497	0.242
498	0.244
498	0.245
499	0.246
499	0.247
500	0.249
500	0.251
501	0.253
501	0.254
501	0.256
502	0.257
502	0.259
503	0.261
503	0.262
504	0.264
504	0.265
505	0.266
505	0.267
506	0.269
506	0.27
506	0.271
507	0.273
507	0.274
508	0.275
508	0.276
509	0.277
509	0.279
510	0.28
510	0.281
511	0.283
511	0.284
511	0.285
512	0.286
512	0.287
513	0.287
513	0.288
514	0.288
514	0.289
515	0.289
515	0.289
515	0.29
516	0.29
516	0.292
517	0.293
517	0.293
518	0.294
518	0.294
519	0.294
519	0.294
520	0.293
520	0.293
520	0.293
521	0.292
521	0.291
522	0.29
522	0.289
523	0.289
523	0.289
524	0.29
524	0.29
524	0.291
525	0.292
525	0.292
526	0.293
526	0.294
527	0.295
527	0.295
528	0.295
528	0.296
529	0.295
529	0.295
529	0.294
530	0.294
530	0.294
531	0.293
531	0.292
532	0.291
532	0.29
533	0.289
533	0.288
533	0.287
534	0.285
534	0.284
535	0.282
535	0.281
536	0.28
536	0.278
537	0.277
537	0.276
538	0.274
538	0.272
538	0.271
539	0.27
539	0.268
540	0.266
540	0.264
541	0.262
541	0.26
542	0.258
542	0.256
542	0.255
543	0.253
543	0.251
544	0.248
544	0.247
545	0.245
545	0.244
546	0.243
546	0.241
547	0.239
547	0.236
547	0.234
548	0.233
548	0.231
549	0.229
549	0.227
550	0.225
550	0.223
551	0.22
551	0.217
551	0.215
552	0.213
552	0.212
553	0.21
553	0.209
554	0.207
554	0.204
555	0.202
555	0.2
556	0.197
556	0.194
556	0.192
557	0.189
557	0.187
558	0.184
558	0.181
559	0.179
559	0.177
560	0.175
560	0.174
560	0.172
561	0.171
561	0.17
562	0.169
562	0.168
563	0.166
563	0.164
564	0.162
564	0.16
564	0.158
565	0.157
565	0.155
566	0.153
566	0.152
567	0.15
567	0.149
568	0.148
568	0.147
568	0.147
569	0.147
569	0.146
570	0.145
570	0.144
571	0.144
571	0.143
572	0.142
572	0.141
573	0.14
573	0.139
573	0.137
574	0.136
574	0.135
575	0.134
575	0.135
576	0.134
576	0.132
577	0.131
577	0.129
577	0.129
578	0.128
578	0.127
579	0.128
579	0.128
580	0.126
580	0.123
581	0.12
581	0.119
581	0.118
582	0.118
582	0.118
583	0.118
583	0.116
584	0.113
584	0.11
585	0.11
585	0.11
585	0.11
586	0.109
586	0.109
587	0.107
587	0.105
588	0.103
588	0.102
589	0.101
589	0.101
590	0.1
590	0.1
590	0.1
591	0.101
591	0.1
592	0.1
592	0.099
593	0.099
593	0.099
594	0.098
594	0.098
594	0.097
595	0.097
595	0.095
596	0.094
596	0.095
597	0.097
597	0.097
598	0.097
598	0.098
598	0.098
599	0.098
599	0.097
600	0.096
600	0.095
601	0.095
601	0.094
602	0.092
602	0.091
602	0.09
603	0.09
603	0.09
604	0.091
604	0.091
605	0.092
605	0.093
606	0.092
606	0.091
606	0.09
607	0.09
607	0.09
608	0.089
608	0.088
609	0.087
609	0.087
610	0.087
610	0.086
610	0.087
611	0.088
611	0.089
612	0.09
612	0.092
613	0.093
613	0.095
614	0.095
614	0.095
614	0.096
615	0.096
615	0.096
616	0.096
616	0.096
617	0.096
617	0.095
618	0.095
618	0.094
618	0.094
619	0.094
619	0.095
620	0.096
620	0.096
621	0.096
621	0.097
622	0.097
622	0.097
622	0.097
623	0.097
623	0.098
624	0.099
624	0.099
625	0.099
625	0.1
626	0.1
626	0.1
626	0.102
627	0.103
627	0.103
628	0.104
628	0.105
629	0.105
629	0.105
630	0.105
630	0.105
630	0.106
631	0.106
631	0.106
632	0.106
632	0.107
633	0.108
633	0.108
634	0.11
634	0.112
634	0.113
635	0.115
635	0.116
636	0.117
636	0.118
637	0.119
637	0.12
638	0.121
638	0.122
638	0.123
639	0.124
639	0.125
640	0.126
640	0.127
641	0.129
641	0.13
642	0.132
642	0.134
642	0.136
643	0.138
643	0.139
644	0.141
644	0.143
645	0.145
645	0.147
646	0.149
646	0.151
646	0.154
647	0.156
647	0.159
648	0.161
648	0.164
649	0.167
649	0.17
650	0.173
650	0.176
650	0.178
651	0.18
651	0.183
652	0.184
652	0.186
653	0.189
653	0.195
653	0.201
654	0.16
654	0.129
655	0.132
655	0.133
656	0.135
656	0.137
657	0.139
657	0.141
657	0.142
658	0.14
658	0.133
659	0.17
659	0.22
660	0.228
660	0.23
661	0.232
661	0.235
661	0.238
662	0.24
662	0.243
663	0.246
663	0.249
664	0.251
664	0.253
665	0.256
665	0.258
665	0.261
666	0.263
666	0.265
667	0.268
667	0.27
668	0.273
668	0.275
669	0.278
669	0.281
669	0.284
670	0.287
670	0.289
671	0.291
671	0.293
672	0.294
672	0.296
672	0.297
673	0.299
673	0.301
674	0.302
674	0.304
675	0.305
675	0.307
676	0.31
676	0.312
676	0.314
677	0.316
677	0.318
678	0.319
678	0.32
679	0.321
679	0.322
680	0.324
680	0.325
680	0.325
681	0.326
681	0.328
682	0.329
682	0.33
683	0.331
683	0.333
684	0.334
684	0.334
684	0.335
685	0.335
685	0.335
686	0.335
686	0.335
687	0.335
687	0.334
687	0.334
688	0.333
688	0.333
689	0.334
689	0.335
690	0.335
690	0.335
691	0.335
691	0.335
691	0.335
692	0.334
692	0.333
693	0.333
693	0.333
694	0.331
694	0.329
695	0.329
695	0.329
695	0.328
696	0.327
696	0.326
697	0.325
697	0.324
698	0.323
698	0.321
698	0.32
699	0.318
699	0.316
700	0.313
700	0.31
701	0.309
701	0.306
702	0.304
702	0.301
702	0.299
703	0.296
703	0.294
704	0.292
704	0.291
705	0.29
705	0.288
705	0.287
706	0.285
706	0.284
707	0.283
707	0.281
708	0.28
708	0.279
709	0.277
709	0.275
709	0.273
710	0.27
710	0.268
711	0.266
711	0.264
712	0.262
712	0.26
713	0.258
713	0.256
713	0.253
714	0.251
714	0.248
715	0.245
715	0.243
716	0.24
716	0.237
716	0.234
717	0.231
717	0.228
718	0.225
718	0.222
719	0.22
719	0.218
720	0.216
720	0.214
720	0.211
721	0.209
721	0.207
722	0.205
722	0.202
723	0.2
723	0.199
723	0.197
724	0.195
724	0.192
725	0.19
725	0.188
726	0.186
726	0.184
727	0.182
727	0.18
727	0.179
728	0.176
728	0.174
729	0.173
729	0.171
730	0.169
730	0.167
730	0.166
731	0.164
731	0.162
732	0.161
732	0.16
733	0.159
733	0.157
734	0.156
734	0.154
734	0.153
735	0.153
735	0.151
736	0.15
736	0.148
737	0.146
737	0.145
737	0.143
738	0.14
738	0.137
739	0.135
739	0.133
740	0.131
740	0.129
741	0.128
741	0.126
741	0.124
742	0.122
742	0.12
743	0.12
743	0.118
744	0.117
744	0.116
744	0.114
745	0.112
745	0.11
746	0.108
746	0.107
747	0.106
747	0.105
748	0.104
748	0.102
748	0.101
749	0.099
749	0.099
750	0.098
750	0.097
751	0.097
751	0.096
751	0.096
752	0.095
752	0.094
753	0.093
753	0.092
754	0.091
754	0.09
754	0.09
755	0.089
755	0.089
756	0.088
756	0.086
757	0.086
757	0.086
758	0.085
758	0.085
758	0.085
759	0.085
759	0.083
760	0.082
760	0.08
761	0.079
761	0.078
761	0.076
762	0.074
762	0.073
763	0.071
763	0.068
764	0.066
764	0.063
764	0.062
765	0.06
765	0.058
766	0.057
766	0.056
767	0.055
767	0.053
768	0.051
768	0.05
768	0.049
769	0.048
769	0.047
770	0.046
770	0.045
771	0.043
771	0.04
771	0.038
772	0.036
772	0.035
773	0.033
773	0.031
774	0.028
774	0.026
775	0.024
775	0.022
775	0.02
776	0.018
776	0.016
777	0.014
777	0.012
778	0.01
778	0.007
778	0.004
779	0.003
779	0.001
780	-0.002
780	-0.005
781	-0.008
781	-0.011
781	-0.015
782	-0.019
782	-0.024
783	-0.028
783	-0.032
784	-0.037
784	-0.042
784	-0.047
785	-0.052
785	-0.058
786	-0.063
786	-0.067
787	-0.07
787	-0.074
788	-0.079
788	-0.086
788	-0.092
789	-0.099
789	-0.103
790	-0.105
790	-0.109
791	-0.113
791	-0.116
791	-0.119
792	-0.114
792	-0.104
793	-0.099
793	-0.095
794	-0.093
794	-0.096
794	-0.1
795	-0.102
795	-0.103
796	-0.103
796	-0.106
797	-0.114
797	-0.126
797	-0.132
798	-0.138
798	-0.141
799	-0.142
799	-0.141
800	-0.14
800	-0.142
801	-0.145
801	-0.145
801	-0.145
802	-0.146
802	-0.147
803	-0.148
803	-0.148
804	-0.147
804	-0.142
804	-0.135
805	-0.131
805	-0.13
806	-0.128
806	-0.127
807	-0.127
807	-0.127
807	-0.127
808	-0.127
808	-0.128
809	-0.133
809	-0.139
810	-0.143
810	-0.145
810	-0.149
811	-0.152
811	-0.152
812	-0.148
812	-0.145
813	-0.145
813	-0.146
813	-0.147
814	-0.148
814	-0.149
815	-0.147
815	-0.144
816	-0.14
816	-0.137
817	-0.136
817	-0.134
817	-0.127
818	-0.119
818	-0.108
819	-0.097
819	-0.086
820	-0.077
820	-0.069
820	-0.06
821	-0.052
821	-0.045
822	-0.038
822	-0.032
823	-0.027
823	-0.023
823	-0.02
824	-0.016
824	-0.012
825	-0.008
825	-0.004
826	-0
826	0.002
826	0.005
827	0.007
827	0.009
828	0.011
828	0.013
829	0.015
829	0.016
829	0.017
830	0.017
830	0.018
831	0.02
831	0.021
832	0.021
832	0.022
832	0.023
833	0.023
833	0.024
834	0.024
834	0.025
835	0.025
835	0.025
835	0.024
836	0.025
836	0.025
837	0.025
837	0.026
838	0.026
838	0.026
839	0.027
839	0.027
839	0.026
840	0.026
840	0.026
841	0.026
841	0.025
842	0.025
842	0.024
842	0.024
843	0.024
843	0.023
844	0.023
844	0.023
845	0.023
845	0.023
845	0.024
846	0.024
846	0.024
847	0.025
847	0.025
848	0.026
848	0.026
848	0.027
849	0.028
849	0.029
850	0.029
850	0.029
851	0.029
851	0.03
851	0.03
852	0.029
852	0.029
853	0.028
853	0.028
854	0.028
854	0.027
854	0.027
855	0.027
855	0.027
856	0.027
856	0.027
857	0.027
857	0.027
857	0.027
858	0.027
858	0.027
859	0.027
859	0.027
860	0.028
860	0.028
860	0.029
861	0.03
861	0.031
862	0.031
862	0.032
863	0.032
863	0.032
863	0.033
864	0.032
864	0.032
865	0.033
865	0.033
866	0.033
866	0.033
866	0.033
867	0.033
867	0.033
868	0.033
868	0.033
869	0.033
869	0.033
869	0.032
870	0.032
870	0.031
871	0.031
871	0.031
872	0.03
872	0.03
872	0.03
873	0.031
873	0.031
874	0.031
874	0.032
875	0.031
875	0.031
875	0.031
876	0.03
876	0.03
877	0.029
877	0.028
878	0.027
878	0.026
878	0.026
879	0.025
879	0.024
880	0.024
880	0.024
881	0.024
881	0.024
881	0.024
882	0.024
882	0.024
883	0.024
883	0.023
884	0.023
884	0.022
884	0.022
885	0.022
885	0.022
886	0.022
886	0.022
887	0.023
887	0.023
887	0.024
888	0.024
888	0.025
889	0.026
889	0.026
890	0.027
890	0.028
890	0.028
891	0.028
891	0.028
892	0.028
892	0.029
893	0.029
893	0.029
893	0.029
894	0.029
894	0.029
895	0.028
895	0.028
895	0.028
896	0.027
896	0.027
897	0.027
897	0.026
898	0.026
898	0.026
898	0.026
899	0.026
899	0.026
900	0.026
900	0.026
901	0.026
901	0.026
901	0.026
902	0.027
902	0.027
903	0.027
903	0.027
904	0.028
904	0.028
904	0.029
905	0.03
905	0.03
906	0.03
906	0.031
907	0.031
907	0.031
907	0.031
908	0.031
908	0.032
909	0.032
909	0.032
910	0.033
910	0.033
910	0.033
911	0.033
911	0.034
912	0.034
912	0.034
913	0.033
913	0.033
913	0.032
914	0.032
914	0.031
915	0.03
915	0.03
916	0.029
916	0.028
916	0.027
917	0.026
917	0.025
918	0.024
918	0.023
918	0.022
919	0.021
919	0.02
920	0.019
920	0.019
921	0.019
921	0.019
921	0.019
922	0.019
922	0.02
923	0.02
923	0.02
924	0.021
924	0.021
924	0.021
925	0.022
925	0.022
926	0.022
926	0.022
927	0.023
927	0.023
927	0.023
928	0.023
928	0.022
929	0.022
929	0.022
930	0.022
930	0.021
930	0.021
931	0.02
931	0.02
932	0.02
932	0.02
933	0.02
933	0.019
933	0.019
934	0.019
934	0.019
935	0.018
935	0.018
935	0.018
936	0.017
936	0.016
937	0.016
937	0.016
938	0.015
938	0.015
938	0.015
939	0.015
939	0.016
940	0.017
940	0.017
941	0.018
941	0.019
941	0.02
942	0.021
942	0.022
943	0.023
943	0.023
944	0.024
944	0.024
944	0.025
945	0.025
945	0.026
946	0.026
946	0.026
946	0.026
947	0.027
947	0.027
948	0.028
948	0.028
949	0.028
949	0.029
949	0.029
950	0.029
950	0.029
951	0.029
951	0.029
952	0.028
952	0.028
952	0.027
953	0.027
953	0.026
954	0.026
954	0.025
955	0.025
955	0.025
955	0.025
956	0.025
956	0.025
957	0.025
957	0.025
957	0.025
958	0.025
958	0.025
959	0.025
959	0.025
960	0.025
960	0.025
960	0.025
961	0.025
961	0.025
962	0.025
962	0.026
963	0.026
963	0.026
963	0.027
964	0.027
964	0.027
965	0.027
965	0.027
966	0.027
966	0.027
966	0.027
967	0.026
967	0.025
968	0.025
968	0.024
968	0.023
969	0.022
969	0.021
970	0.02
970	0.019
971	0.018
971	0.018
971	0.017
972	0.017
972	0.018
973	0.018
973	0.018
974	0.019
974	0.019
974	0.02
975	0.021
975	0.022
976	0.023
976	0.024
976	0.025
977	0.026
977	0.027
978	0.027
978	0.028
979	0.028
979	0.028
979	0.028
980	0.028
980	0.027
981	0.026
981	0.026
982	0.025
982	0.024
982	0.023
983	0.022
983	0.02
984	0.019
984	0.018
984	0.017
985	0.016
985	0.015
986	0.014
986	0.013
987	0.012
987	0.012
987	0.012
988	0.012
988	0.011
989	0.011
989	0.012
990	0.012
990	0.013
990	0.014
991	0.015
991	0.016
992	0.017
992	0.018
992	0.019
993	0.02
993	0.021
994	0.021
994	0.021
995	0.021
995	0.02
995	0.019
996	0.019
996	0.018
997	0.016
997	0.015
997	0.015
998	0.014
998	0.015
999	0.015
999	0.015
1000	0.016
1000	0.016
1000	0.017
1001	0.017
1001	0.018
1002	0.019
1002	0.02
1003	0.02
1003	0.02
1003	0.02
1004	0.02
1004	0.02
1005	0.02
1005	0.02
1005	0.019
1006	0.019
1006	0.019
1007	0.019
1007	0.019
1008	0.019
1008	0.018
1008	0.018
1009	0.018
1009	0.018
1010	0.019
1010	0.019
1010	0.019
1011	0.019
1011	0.019
1012	0.019
1012	0.019
1013	0.019
1013	0.019
1013	0.018
1014	0.017
1014	0.017
1015	0.016
1015	0.015
1016	0.014
1016	0.013
1016	0.012
1017	0.011
1017	0.01
1018	0.009
1018	0.008
1018	0.008
1019	0.008
1019	0.007
1020	0.007
1020	0.008
1021	0.008
1021	0.008
1021	0.008
1022	0.009
1022	0.01
1023	0.01
1023	0.011
1023	0.011
1024	0.012
1024	0.012
1025	0.012
1025	0.012
1026	0.011
1026	0.011
1026	0.01
1027	0.01
1027	0.009
1028	0.009
1028	0.008
1028	0.008
1029	0.007
1029	0.007
1030	0.006
1030	0.006
1031	0.006
1031	0.006
1031	0.006
1032	0.006
1032	0.006
1033	0.006
1033	0.006
1033	0.006
1034	0.006
1034	0.006
1035	0.006
1035	0.005
1036	0.005
1036	0.005
1036	0.006
1037	0.006
1037	0.006
1038	0.006
1038	0.006
1039	0.007
1039	0.007
1039	0.008
1040	0.008
1040	0.009
1041	0.01
1041	0.01
1041	0.011
1042	0.011
1042	0.012
1043	0.012
1043	0.013
1044	0.013
1044	0.014
1044	0.014
1045	0.015
1045	0.015
1046	0.014
1046	0.014
1046	0.014
1047	0.014
1047	0.015
1048	0.015
1048	0.014
1049	0.014
1049	0.013
1049	0.013
1050	0.012
1050	0.011
1051	0.01
1051	0.01
1051	0.009
1052	0.008
1052	0.007
1053	0.007
1053	0.006
1053	0.005
1054	0.005
1054	0.004
1055	0.003
1055	0.003
1056	0.002
1056	0.001
1056	-0.001
1057	-0.002
1057	-0.002
1058	-0.003
1058	-0.004
1058	-0.004
1059	-0.005
1059	-0.005
1060	-0.005
1060	-0.005
1061	-0.005
1061	-0.004
1061	-0.004
1062	-0.004
1062	-0.004
1063	-0.005
1063	-0.005
1063	-0.005
1064	-0.005
1064	-0.004
1065	-0.004
1065	-0.004
1066	-0.003
1066	-0.003
1066	-0.002
1067	-0.002
1067	-0.001
1068	-0.001
1068	-0.001
1068	-0.001
1069	-0.002
1069	-0.002
1070	-0.003
1070	-0.004
1071	-0.004
1071	-0.005
1071	-0.006
1072	-0.007
1072	-0.007
1073	-0.008
1073	-0.009
1073	-0.009
1074	-0.01
1074	-0.01
1075	-0.011
1075	-0.012
1076	-0.014
1076	-0.014
1076	-0.015
1077	-0.015
1077	-0.016
1078	-0.016
1078	-0.016
1078	-0.015
1079	-0.015
1079	-0.014
1080	-0.013
1080	-0.012
1080	-0.012
1081	-0.011
1081	-0.01
1082	-0.008
1082	-0.008
1083	-0.007
1083	-0.007
1083	-0.006
1084	-0.006
1084	-0.005
1085	-0.004
1085	-0.004
1085	-0.003
1086	-0.003
1086	-0.004
1087	-0.003
1087	-0.003
1088	-0.003
1088	-0.004
1088	-0.005
1089	-0.006
1089	-0.007
1090	-0.008
1090	-0.008
1090	-0.009
1091	-0.009
1091	-0.009
1092	-0.01
1092	-0.009
1092	-0.008
1093	-0.008
1093	-0.006
1094	-0.006
1094	-0.005
1095	-0.005
1095	-0.004
1095	-0.002
1096	-0.002
1096	-0.001
1097	0
1097	0.002
1097	0.003
1098	0.004
1098	0.006
1099	0.007
1099	0.01
1100	0.012
1100	0.014
1100	0.015
1101	0.017
1101	0.018
1102	0.02
1102	0.022
1102	0.025
1103	0.028
1103	0.031
1104	0.033
1104	0.036
1104	0.041
1105	0.046
1105	0.05
1106	0.053
1106	0.06
1107	0.065
1107	0.072
1107	0.082
1108	0.115
1108	0.163
1109	0.227
1109	0.326
1109	0.4
1110	0.555
1110	0.996
1111	-0
1111	-0
