Data from 17c-2a_Absorbance__129__00130.txt Node

Date: Fri Jan 26 09:51:49 CET 2024
User: Marek
Spectrometer: MAYP115816
Trigger mode: 0
Integration Time (sec): 2.000000E-1
Scans to average: 10
Electric dark correction enabled: true
Nonlinearity correction enabled: true
Boxcar width: 5
XAxis mode: Wavelengths
Number of Pixels in Spectrum: 2068
>>>>>Begin Spectral Data<<<<<
199	-1.147
199	-1.018
200	-0.879
200	-0.777
201	-0.714
201	-0.677
202	-0.62
202	-0.578
203	-0.543
203	-0.513
204	-0.494
204	-0.476
205	-0.458
205	-0.451
205	-0.45
206	-0.446
206	-0.442
207	-0.44
207	-0.44
208	-0.439
208	-0.437
209	-0.434
209	-0.431
210	-0.433
210	-0.432
211	-0.433
211	-0.435
212	-0.436
212	-0.436
213	-0.435
213	-0.431
213	-0.432
214	-0.431
214	-0.43
215	-0.426
215	-0.425
216	-0.422
216	-0.421
217	-0.418
217	-0.417
218	-0.413
218	-0.412
219	-0.409
219	-0.409
220	-0.408
220	-0.409
221	-0.407
221	-0.407
221	-0.404
222	-0.399
222	-0.396
223	-0.393
223	-0.391
224	-0.388
224	-0.382
225	-0.376
225	-0.369
226	-0.363
226	-0.353
227	-0.346
227	-0.339
228	-0.327
228	-0.316
229	-0.303
229	-0.287
229	-0.271
230	-0.252
230	-0.233
231	-0.214
231	-0.194
232	-0.173
232	-0.152
233	-0.131
233	-0.109
234	-0.089
234	-0.071
235	-0.053
235	-0.037
236	-0.023
236	-0.008
236	0.005
237	0.016
237	0.026
238	0.035
238	0.043
239	0.05
239	0.057
240	0.063
240	0.068
241	0.073
241	0.078
242	0.082
242	0.086
243	0.09
243	0.093
243	0.096
244	0.099
244	0.102
245	0.104
245	0.106
246	0.109
246	0.111
247	0.113
247	0.115
248	0.117
248	0.119
249	0.121
249	0.123
250	0.125
250	0.127
250	0.129
251	0.131
251	0.132
252	0.134
252	0.136
253	0.138
253	0.139
254	0.141
254	0.142
255	0.143
255	0.145
256	0.146
256	0.147
257	0.148
257	0.149
258	0.15
258	0.151
258	0.152
259	0.152
259	0.153
260	0.153
260	0.153
261	0.154
261	0.154
262	0.154
262	0.153
263	0.153
263	0.153
264	0.153
264	0.153
265	0.152
265	0.151
265	0.151
266	0.15
266	0.149
267	0.148
267	0.147
268	0.146
268	0.145
269	0.144
269	0.143
270	0.141
270	0.14
271	0.139
271	0.137
272	0.136
272	0.134
272	0.133
273	0.131
273	0.13
274	0.128
274	0.127
275	0.125
275	0.124
276	0.122
276	0.12
277	0.119
277	0.117
278	0.115
278	0.113
278	0.112
279	0.11
279	0.108
280	0.107
280	0.105
281	0.103
281	0.102
282	0.1
282	0.099
283	0.097
283	0.096
284	0.094
284	0.093
285	0.092
285	0.09
285	0.089
286	0.088
286	0.086
287	0.085
287	0.084
288	0.083
288	0.081
289	0.08
289	0.079
290	0.078
290	0.077
291	0.077
291	0.076
292	0.075
292	0.074
292	0.073
293	0.073
293	0.072
294	0.071
294	0.071
295	0.07
295	0.07
296	0.069
296	0.069
297	0.068
297	0.068
298	0.068
298	0.067
298	0.067
299	0.067
299	0.066
300	0.066
300	0.066
301	0.066
301	0.065
302	0.065
302	0.065
303	0.065
303	0.065
304	0.065
304	0.064
305	0.064
305	0.064
305	0.064
306	0.064
306	0.063
307	0.063
307	0.063
308	0.063
308	0.063
309	0.062
309	0.062
310	0.062
310	0.062
311	0.062
311	0.062
311	0.062
312	0.061
312	0.061
313	0.061
313	0.061
314	0.061
314	0.061
315	0.061
315	0.06
316	0.06
316	0.06
317	0.06
317	0.06
318	0.06
318	0.059
318	0.059
319	0.059
319	0.059
320	0.059
320	0.059
321	0.058
321	0.058
322	0.058
322	0.057
323	0.057
323	0.057
324	0.057
324	0.057
324	0.057
325	0.057
325	0.056
326	0.056
326	0.056
327	0.056
327	0.056
328	0.056
328	0.056
329	0.056
329	0.055
330	0.055
330	0.055
330	0.055
331	0.055
331	0.055
332	0.054
332	0.054
333	0.054
333	0.054
334	0.054
334	0.054
335	0.053
335	0.053
336	0.053
336	0.053
336	0.053
337	0.053
337	0.052
338	0.052
338	0.052
339	0.052
339	0.052
340	0.052
340	0.052
341	0.052
341	0.051
342	0.051
342	0.051
342	0.051
343	0.051
343	0.051
344	0.051
344	0.051
345	0.051
345	0.05
346	0.05
346	0.05
347	0.05
347	0.05
348	0.049
348	0.049
348	0.049
349	0.049
349	0.049
350	0.049
350	0.049
351	0.049
351	0.049
352	0.049
352	0.049
353	0.049
353	0.049
354	0.049
354	0.049
354	0.049
355	0.049
355	0.049
356	0.048
356	0.048
357	0.048
357	0.048
358	0.048
358	0.048
359	0.048
359	0.048
360	0.048
360	0.048
360	0.048
361	0.048
361	0.048
362	0.048
362	0.048
363	0.048
363	0.048
364	0.048
364	0.048
365	0.048
365	0.049
366	0.049
366	0.049
366	0.049
367	0.049
367	0.049
368	0.049
368	0.049
369	0.049
369	0.049
370	0.049
370	0.048
371	0.048
371	0.048
372	0.048
372	0.048
372	0.048
373	0.048
373	0.048
374	0.048
374	0.049
375	0.049
375	0.049
376	0.049
376	0.049
377	0.049
377	0.049
378	0.049
378	0.05
378	0.05
379	0.05
379	0.05
380	0.049
380	0.049
381	0.049
381	0.049
382	0.049
382	0.049
383	0.049
383	0.049
383	0.049
384	0.049
384	0.049
385	0.049
385	0.049
386	0.049
386	0.049
387	0.049
387	0.049
388	0.049
388	0.049
389	0.049
389	0.049
389	0.049
390	0.05
390	0.05
391	0.05
391	0.05
392	0.05
392	0.05
393	0.05
393	0.05
394	0.05
394	0.05
394	0.05
395	0.05
395	0.05
396	0.05
396	0.05
397	0.05
397	0.05
398	0.05
398	0.05
399	0.05
399	0.05
400	0.05
400	0.05
400	0.05
401	0.05
401	0.05
402	0.05
402	0.05
403	0.049
403	0.049
404	0.049
404	0.049
405	0.05
405	0.05
405	0.05
406	0.05
406	0.05
407	0.05
407	0.05
408	0.05
408	0.05
409	0.05
409	0.05
410	0.05
410	0.05
411	0.05
411	0.05
411	0.05
412	0.05
412	0.05
413	0.05
413	0.05
414	0.05
414	0.05
415	0.05
415	0.05
416	0.05
416	0.05
416	0.05
417	0.05
417	0.05
418	0.05
418	0.05
419	0.05
419	0.05
420	0.051
420	0.051
421	0.051
421	0.051
421	0.051
422	0.052
422	0.052
423	0.052
423	0.052
424	0.052
424	0.052
425	0.051
425	0.051
426	0.051
426	0.051
427	0.051
427	0.051
427	0.051
428	0.051
428	0.051
429	0.052
429	0.052
430	0.052
430	0.052
431	0.052
431	0.052
432	0.052
432	0.052
432	0.052
433	0.052
433	0.052
434	0.052
434	0.052
435	0.052
435	0.052
436	0.052
436	0.052
437	0.052
437	0.052
437	0.052
438	0.052
438	0.052
439	0.052
439	0.051
440	0.051
440	0.051
441	0.051
441	0.051
442	0.051
442	0.051
442	0.051
443	0.052
443	0.051
444	0.051
444	0.052
445	0.052
445	0.052
446	0.052
446	0.052
447	0.052
447	0.052
447	0.052
448	0.052
448	0.052
449	0.052
449	0.052
450	0.053
450	0.053
451	0.053
451	0.053
452	0.053
452	0.053
452	0.053
453	0.053
453	0.053
454	0.053
454	0.053
455	0.052
455	0.052
456	0.052
456	0.052
457	0.052
457	0.052
458	0.052
458	0.052
458	0.052
459	0.053
459	0.053
460	0.053
460	0.053
461	0.053
461	0.054
462	0.054
462	0.054
463	0.054
463	0.055
463	0.055
464	0.054
464	0.054
465	0.054
465	0.054
466	0.054
466	0.054
467	0.054
467	0.054
467	0.054
468	0.053
468	0.053
469	0.053
469	0.053
470	0.053
470	0.053
471	0.053
471	0.053
472	0.053
472	0.053
472	0.053
473	0.054
473	0.054
474	0.054
474	0.054
475	0.054
475	0.055
476	0.055
476	0.055
477	0.055
477	0.055
477	0.055
478	0.055
478	0.055
479	0.055
479	0.056
480	0.056
480	0.056
481	0.056
481	0.056
482	0.057
482	0.057
482	0.058
483	0.058
483	0.059
484	0.06
484	0.06
485	0.06
485	0.06
486	0.06
486	0.061
487	0.061
487	0.061
487	0.061
488	0.061
488	0.061
489	0.061
489	0.062
490	0.062
490	0.062
491	0.062
491	0.063
492	0.063
492	0.063
492	0.063
493	0.063
493	0.064
494	0.064
494	0.065
495	0.065
495	0.065
496	0.066
496	0.066
496	0.066
497	0.067
497	0.067
498	0.068
498	0.068
499	0.069
499	0.069
500	0.069
500	0.07
501	0.07
501	0.071
501	0.071
502	0.072
502	0.072
503	0.073
503	0.073
504	0.074
504	0.074
505	0.075
505	0.075
506	0.075
506	0.076
506	0.076
507	0.076
507	0.076
508	0.077
508	0.077
509	0.077
509	0.078
510	0.078
510	0.079
511	0.079
511	0.079
511	0.079
512	0.08
512	0.08
513	0.08
513	0.08
514	0.08
514	0.08
515	0.08
515	0.08
515	0.08
516	0.08
516	0.08
517	0.081
517	0.081
518	0.081
518	0.081
519	0.081
519	0.081
520	0.081
520	0.081
520	0.081
521	0.08
521	0.08
522	0.079
522	0.078
523	0.078
523	0.078
524	0.078
524	0.078
524	0.078
525	0.078
525	0.078
526	0.078
526	0.079
527	0.079
527	0.079
528	0.08
528	0.08
529	0.08
529	0.079
529	0.08
530	0.08
530	0.08
531	0.08
531	0.08
532	0.08
532	0.079
533	0.079
533	0.079
533	0.078
534	0.078
534	0.077
535	0.076
535	0.076
536	0.075
536	0.074
537	0.074
537	0.073
538	0.073
538	0.072
538	0.072
539	0.072
539	0.072
540	0.071
540	0.071
541	0.071
541	0.07
542	0.07
542	0.07
542	0.069
543	0.069
543	0.068
544	0.067
544	0.067
545	0.067
545	0.067
546	0.066
546	0.066
547	0.066
547	0.065
547	0.065
548	0.065
548	0.065
549	0.064
549	0.064
550	0.064
550	0.063
551	0.062
551	0.062
551	0.061
552	0.061
552	0.06
553	0.06
553	0.06
554	0.06
554	0.059
555	0.058
555	0.058
556	0.057
556	0.056
556	0.055
557	0.055
557	0.054
558	0.053
558	0.053
559	0.053
559	0.052
560	0.052
560	0.052
560	0.051
561	0.052
561	0.052
562	0.051
562	0.051
563	0.05
563	0.049
564	0.049
564	0.048
564	0.048
565	0.047
565	0.047
566	0.046
566	0.045
567	0.045
567	0.045
568	0.045
568	0.045
568	0.046
569	0.046
569	0.046
570	0.046
570	0.045
571	0.046
571	0.046
572	0.045
572	0.045
573	0.045
573	0.044
573	0.044
574	0.044
574	0.043
575	0.043
575	0.044
576	0.043
576	0.043
577	0.042
577	0.042
577	0.042
578	0.042
578	0.042
579	0.043
579	0.043
580	0.042
580	0.041
581	0.041
581	0.041
581	0.041
582	0.04
582	0.04
583	0.041
583	0.04
584	0.039
584	0.038
585	0.038
585	0.038
585	0.038
586	0.038
586	0.038
587	0.037
587	0.037
588	0.036
588	0.036
589	0.036
589	0.036
590	0.036
590	0.036
590	0.037
591	0.037
591	0.037
592	0.037
592	0.037
593	0.037
593	0.037
594	0.036
594	0.036
594	0.035
595	0.035
595	0.035
596	0.035
596	0.036
597	0.037
597	0.037
598	0.038
598	0.039
598	0.039
599	0.04
599	0.04
600	0.04
600	0.04
601	0.039
601	0.039
602	0.038
602	0.038
602	0.037
603	0.037
603	0.038
604	0.038
604	0.038
605	0.039
605	0.039
606	0.039
606	0.039
606	0.039
607	0.039
607	0.039
608	0.038
608	0.037
609	0.037
609	0.037
610	0.036
610	0.036
610	0.036
611	0.037
611	0.037
612	0.038
612	0.039
613	0.04
613	0.041
614	0.042
614	0.042
614	0.042
615	0.042
615	0.042
616	0.042
616	0.042
617	0.042
617	0.042
618	0.041
618	0.041
618	0.041
619	0.041
619	0.041
620	0.042
620	0.042
621	0.042
621	0.043
622	0.043
622	0.043
622	0.043
623	0.043
623	0.044
624	0.044
624	0.044
625	0.044
625	0.044
626	0.044
626	0.045
626	0.045
627	0.045
627	0.046
628	0.047
628	0.047
629	0.047
629	0.047
630	0.048
630	0.048
630	0.048
631	0.048
631	0.048
632	0.048
632	0.048
633	0.048
633	0.048
634	0.049
634	0.05
634	0.05
635	0.051
635	0.051
636	0.051
636	0.052
637	0.052
637	0.052
638	0.053
638	0.054
638	0.054
639	0.054
639	0.054
640	0.055
640	0.055
641	0.056
641	0.057
642	0.057
642	0.058
642	0.059
643	0.06
643	0.06
644	0.061
644	0.061
645	0.062
645	0.063
646	0.064
646	0.065
646	0.066
647	0.067
647	0.068
648	0.069
648	0.07
649	0.071
649	0.072
650	0.074
650	0.075
650	0.076
651	0.077
651	0.078
652	0.078
652	0.079
653	0.08
653	0.084
653	0.078
654	0.063
654	0.052
655	0.053
655	0.053
656	0.054
656	0.055
657	0.056
657	0.057
657	0.058
658	0.057
658	0.06
659	0.075
659	0.094
660	0.098
660	0.099
661	0.099
661	0.1
661	0.101
662	0.102
662	0.103
663	0.104
663	0.105
664	0.106
664	0.107
665	0.108
665	0.109
665	0.11
666	0.111
666	0.111
667	0.112
667	0.113
668	0.114
668	0.115
669	0.115
669	0.116
669	0.118
670	0.119
670	0.119
671	0.12
671	0.121
672	0.121
672	0.122
672	0.122
673	0.123
673	0.124
674	0.124
674	0.125
675	0.126
675	0.127
676	0.129
676	0.13
676	0.131
677	0.133
677	0.134
678	0.134
678	0.135
679	0.135
679	0.136
680	0.137
680	0.138
680	0.138
681	0.138
681	0.138
682	0.139
682	0.14
683	0.141
683	0.141
684	0.142
684	0.142
684	0.141
685	0.141
685	0.141
686	0.141
686	0.141
687	0.14
687	0.14
687	0.139
688	0.139
688	0.139
689	0.139
689	0.14
690	0.14
690	0.14
691	0.14
691	0.14
691	0.14
692	0.139
692	0.139
693	0.139
693	0.139
694	0.139
694	0.138
695	0.138
695	0.139
695	0.138
696	0.138
696	0.137
697	0.137
697	0.136
698	0.136
698	0.135
698	0.134
699	0.134
699	0.133
700	0.131
700	0.131
701	0.13
701	0.13
702	0.129
702	0.128
702	0.127
703	0.126
703	0.125
704	0.124
704	0.124
705	0.123
705	0.123
705	0.122
706	0.122
706	0.122
707	0.122
707	0.121
708	0.121
708	0.121
709	0.12
709	0.12
709	0.119
710	0.118
710	0.117
711	0.116
711	0.115
712	0.114
712	0.113
713	0.112
713	0.11
713	0.109
714	0.108
714	0.107
715	0.105
715	0.104
716	0.103
716	0.102
716	0.101
717	0.1
717	0.099
718	0.098
718	0.096
719	0.096
719	0.095
720	0.094
720	0.093
720	0.092
721	0.09
721	0.09
722	0.089
722	0.088
723	0.087
723	0.087
723	0.086
724	0.085
724	0.085
725	0.085
725	0.084
726	0.084
726	0.084
727	0.083
727	0.083
727	0.082
728	0.081
728	0.081
729	0.08
729	0.08
730	0.079
730	0.078
730	0.077
731	0.076
731	0.076
732	0.075
732	0.074
733	0.074
733	0.073
734	0.072
734	0.071
734	0.071
735	0.071
735	0.07
736	0.07
736	0.069
737	0.068
737	0.068
737	0.067
738	0.066
738	0.065
739	0.064
739	0.063
740	0.062
740	0.061
741	0.061
741	0.061
741	0.06
742	0.059
742	0.059
743	0.059
743	0.058
744	0.058
744	0.058
744	0.057
745	0.056
745	0.055
746	0.054
746	0.054
747	0.053
747	0.052
748	0.051
748	0.05
748	0.05
749	0.049
749	0.048
750	0.048
750	0.048
751	0.047
751	0.047
751	0.047
752	0.047
752	0.047
753	0.047
753	0.047
754	0.047
754	0.047
754	0.048
755	0.048
755	0.048
756	0.048
756	0.047
757	0.046
757	0.046
758	0.045
758	0.045
758	0.044
759	0.044
759	0.043
760	0.042
760	0.041
761	0.041
761	0.04
761	0.04
762	0.04
762	0.04
763	0.039
763	0.039
764	0.038
764	0.037
764	0.037
765	0.036
765	0.035
766	0.035
766	0.034
767	0.034
767	0.033
768	0.031
768	0.03
768	0.029
769	0.028
769	0.027
770	0.026
770	0.024
771	0.023
771	0.021
771	0.02
772	0.018
772	0.017
773	0.017
773	0.016
774	0.015
774	0.014
775	0.014
775	0.013
775	0.013
776	0.013
776	0.012
777	0.012
777	0.012
778	0.011
778	0.01
778	0.009
779	0.009
779	0.008
780	0.007
780	0.005
781	0.004
781	0.002
781	-0
782	-0.003
782	-0.006
783	-0.008
783	-0.011
784	-0.014
784	-0.017
784	-0.02
785	-0.023
785	-0.026
786	-0.029
786	-0.032
787	-0.034
787	-0.037
788	-0.041
788	-0.045
788	-0.049
789	-0.055
789	-0.06
790	-0.064
790	-0.07
791	-0.077
791	-0.084
791	-0.09
792	-0.089
792	-0.084
793	-0.083
793	-0.084
794	-0.087
794	-0.092
794	-0.098
795	-0.102
795	-0.104
796	-0.104
796	-0.107
797	-0.116
797	-0.127
797	-0.134
798	-0.139
798	-0.142
799	-0.143
799	-0.142
800	-0.142
800	-0.143
801	-0.146
801	-0.147
801	-0.146
802	-0.147
802	-0.148
803	-0.149
803	-0.149
804	-0.148
804	-0.143
804	-0.136
805	-0.133
805	-0.131
806	-0.129
806	-0.128
807	-0.128
807	-0.128
807	-0.128
808	-0.128
808	-0.13
809	-0.134
809	-0.14
810	-0.144
810	-0.147
810	-0.15
811	-0.153
811	-0.154
812	-0.15
812	-0.146
813	-0.143
813	-0.139
813	-0.135
814	-0.13
814	-0.123
815	-0.114
815	-0.104
816	-0.093
816	-0.084
817	-0.077
817	-0.069
817	-0.06
818	-0.052
818	-0.044
819	-0.037
819	-0.032
820	-0.027
820	-0.023
820	-0.019
821	-0.015
821	-0.011
822	-0.008
822	-0.005
823	-0.003
823	-0.001
823	0
824	0.002
824	0.004
825	0.006
825	0.009
826	0.011
826	0.012
826	0.014
827	0.015
827	0.017
828	0.018
828	0.019
829	0.02
829	0.02
829	0.02
830	0.02
830	0.02
831	0.02
831	0.021
832	0.021
832	0.021
832	0.021
833	0.022
833	0.022
834	0.023
834	0.023
835	0.024
835	0.024
835	0.024
836	0.024
836	0.025
837	0.025
837	0.025
838	0.025
838	0.025
839	0.025
839	0.025
839	0.024
840	0.024
840	0.023
841	0.023
841	0.022
842	0.022
842	0.022
842	0.022
843	0.022
843	0.022
844	0.022
844	0.022
845	0.022
845	0.022
845	0.022
846	0.022
846	0.022
847	0.022
847	0.022
848	0.022
848	0.022
848	0.023
849	0.023
849	0.023
850	0.022
850	0.022
851	0.022
851	0.022
851	0.022
852	0.021
852	0.021
853	0.021
853	0.021
854	0.021
854	0.021
854	0.022
855	0.022
855	0.022
856	0.022
856	0.021
857	0.021
857	0.021
857	0.021
858	0.021
858	0.021
859	0.021
859	0.021
860	0.022
860	0.022
860	0.023
861	0.024
861	0.025
862	0.025
862	0.026
863	0.027
863	0.027
863	0.028
864	0.028
864	0.028
865	0.028
865	0.028
866	0.028
866	0.028
866	0.028
867	0.028
867	0.028
868	0.028
868	0.028
869	0.027
869	0.027
869	0.027
870	0.027
870	0.027
871	0.028
871	0.028
872	0.028
872	0.029
872	0.03
873	0.031
873	0.031
874	0.032
874	0.032
875	0.032
875	0.032
875	0.032
876	0.031
876	0.03
877	0.029
877	0.028
878	0.027
878	0.026
878	0.025
879	0.024
879	0.023
880	0.023
880	0.022
881	0.022
881	0.022
881	0.022
882	0.022
882	0.022
883	0.023
883	0.023
884	0.022
884	0.022
884	0.022
885	0.022
885	0.021
886	0.021
886	0.021
887	0.021
887	0.022
887	0.022
888	0.022
888	0.023
889	0.024
889	0.025
890	0.026
890	0.027
890	0.027
891	0.028
891	0.029
892	0.029
892	0.03
893	0.03
893	0.03
893	0.031
894	0.03
894	0.03
895	0.029
895	0.028
895	0.027
896	0.026
896	0.025
897	0.024
897	0.023
898	0.022
898	0.021
898	0.021
899	0.021
899	0.02
900	0.02
900	0.021
901	0.021
901	0.021
901	0.021
902	0.021
902	0.021
903	0.021
903	0.021
904	0.021
904	0.021
904	0.022
905	0.022
905	0.022
906	0.023
906	0.023
907	0.023
907	0.024
907	0.025
908	0.025
908	0.026
909	0.027
909	0.028
910	0.029
910	0.03
910	0.03
911	0.031
911	0.031
912	0.032
912	0.032
913	0.032
913	0.032
913	0.031
914	0.03
914	0.03
915	0.029
915	0.028
916	0.027
916	0.025
916	0.024
917	0.022
917	0.02
918	0.018
918	0.016
918	0.014
919	0.012
919	0.011
920	0.01
920	0.009
921	0.008
921	0.008
921	0.008
922	0.009
922	0.009
923	0.01
923	0.011
924	0.012
924	0.013
924	0.014
925	0.016
925	0.017
926	0.018
926	0.019
927	0.019
927	0.02
927	0.02
928	0.02
928	0.021
929	0.021
929	0.021
930	0.02
930	0.02
930	0.02
931	0.02
931	0.019
932	0.019
932	0.019
933	0.018
933	0.018
933	0.017
934	0.017
934	0.016
935	0.015
935	0.015
935	0.014
936	0.013
936	0.013
937	0.013
937	0.012
938	0.012
938	0.012
938	0.013
939	0.013
939	0.013
940	0.014
940	0.015
941	0.015
941	0.016
941	0.017
942	0.018
942	0.019
943	0.02
943	0.021
944	0.022
944	0.022
944	0.023
945	0.024
945	0.025
946	0.025
946	0.026
946	0.026
947	0.026
947	0.026
948	0.027
948	0.027
949	0.027
949	0.027
949	0.027
950	0.027
950	0.026
951	0.026
951	0.025
952	0.025
952	0.024
952	0.023
953	0.022
953	0.022
954	0.021
954	0.02
955	0.02
955	0.02
955	0.02
956	0.02
956	0.02
957	0.02
957	0.02
957	0.02
958	0.02
958	0.021
959	0.022
959	0.022
960	0.022
960	0.023
960	0.023
961	0.024
961	0.024
962	0.025
962	0.025
963	0.026
963	0.026
963	0.026
964	0.026
964	0.026
965	0.026
965	0.026
966	0.026
966	0.026
966	0.026
967	0.026
967	0.026
968	0.026
968	0.026
968	0.026
969	0.026
969	0.025
970	0.025
970	0.025
971	0.024
971	0.024
971	0.024
972	0.024
972	0.023
973	0.023
973	0.023
974	0.022
974	0.022
974	0.022
975	0.023
975	0.023
976	0.023
976	0.024
976	0.024
977	0.025
977	0.025
978	0.026
978	0.026
979	0.026
979	0.026
979	0.026
980	0.026
980	0.025
981	0.025
981	0.024
982	0.023
982	0.022
982	0.021
983	0.02
983	0.019
984	0.018
984	0.017
984	0.016
985	0.015
985	0.014
986	0.013
986	0.012
987	0.012
987	0.012
987	0.012
988	0.012
988	0.013
989	0.013
989	0.014
990	0.015
990	0.016
990	0.017
991	0.018
991	0.018
992	0.019
992	0.02
992	0.02
993	0.02
993	0.02
994	0.021
994	0.021
995	0.021
995	0.021
995	0.021
996	0.02
996	0.02
997	0.02
997	0.02
997	0.02
998	0.02
998	0.02
999	0.021
999	0.021
1000	0.021
1000	0.022
1000	0.022
1001	0.023
1001	0.023
1002	0.023
1002	0.024
1003	0.024
1003	0.024
1003	0.024
1004	0.024
1004	0.024
1005	0.024
1005	0.024
1005	0.023
1006	0.023
1006	0.023
1007	0.022
1007	0.022
1008	0.022
1008	0.021
1008	0.021
1009	0.02
1009	0.02
1010	0.02
1010	0.02
1010	0.019
1011	0.019
1011	0.019
1012	0.019
1012	0.019
1013	0.019
1013	0.018
1013	0.018
1014	0.017
1014	0.017
1015	0.016
1015	0.016
1016	0.015
1016	0.015
1016	0.014
1017	0.014
1017	0.013
1018	0.013
1018	0.012
1018	0.012
1019	0.011
1019	0.011
1020	0.011
1020	0.011
1021	0.01
1021	0.01
1021	0.01
1022	0.01
1022	0.01
1023	0.011
1023	0.011
1023	0.011
1024	0.011
1024	0.011
1025	0.011
1025	0.011
1026	0.011
1026	0.011
1026	0.011
1027	0.011
1027	0.011
1028	0.01
1028	0.01
1028	0.009
1029	0.009
1029	0.009
1030	0.008
1030	0.008
1031	0.008
1031	0.007
1031	0.007
1032	0.007
1032	0.007
1033	0.007
1033	0.008
1033	0.008
1034	0.008
1034	0.008
1035	0.008
1035	0.008
1036	0.008
1036	0.009
1036	0.009
1037	0.009
1037	0.009
1038	0.01
1038	0.01
1039	0.011
1039	0.012
1039	0.013
1040	0.013
1040	0.015
1041	0.016
1041	0.017
1041	0.018
1042	0.019
1042	0.02
1043	0.021
1043	0.022
1044	0.022
1044	0.023
1044	0.023
1045	0.023
1045	0.023
1046	0.023
1046	0.022
1046	0.022
1047	0.021
1047	0.021
1048	0.02
1048	0.019
1049	0.018
1049	0.017
1049	0.016
1050	0.015
1050	0.015
1051	0.014
1051	0.014
1051	0.013
1052	0.013
1052	0.012
1053	0.012
1053	0.011
1053	0.011
1054	0.01
1054	0.01
1055	0.009
1055	0.009
1056	0.008
1056	0.008
1056	0.007
1057	0.007
1057	0.007
1058	0.007
1058	0.007
1058	0.007
1059	0.007
1059	0.007
1060	0.007
1060	0.008
1061	0.009
1061	0.009
1061	0.009
1062	0.009
1062	0.01
1063	0.01
1063	0.01
1063	0.01
1064	0.01
1064	0.011
1065	0.01
1065	0.01
1066	0.01
1066	0.01
1066	0.011
1067	0.011
1067	0.011
1068	0.01
1068	0.01
1068	0.009
1069	0.009
1069	0.008
1070	0.007
1070	0.007
1071	0.006
1071	0.005
1071	0.005
1072	0.004
1072	0.003
1073	0.002
1073	0.002
1073	0.002
1074	0.001
1074	0.001
1075	0.001
1075	0.001
1076	0
1076	0
1076	0
1077	0.001
1077	0.001
1078	0.001
1078	0.001
1078	0.002
1079	0.002
1079	0.002
1080	0.002
1080	0.003
1080	0.003
1081	0.003
1081	0.003
1082	0.003
1082	0.003
1083	0.003
1083	0.003
1083	0.003
1084	0.003
1084	0.003
1085	0.003
1085	0.003
1085	0.003
1086	0.003
1086	0.003
1087	0.003
1087	0.003
1088	0.003
1088	0.003
1088	0.003
1089	0.002
1089	0.002
1090	0.002
1090	0.002
1090	0.001
1091	0.001
1091	0.001
1092	0.001
1092	0.001
1092	0.002
1093	0.002
1093	0.003
1094	0.003
1094	0.003
1095	0.003
1095	0.003
1095	0.004
1096	0.005
1096	0.005
1097	0.006
1097	0.006
1097	0.007
1098	0.007
1098	0.008
1099	0.009
1099	0.01
1100	0.012
1100	0.013
1100	0.014
1101	0.015
1101	0.016
1102	0.018
1102	0.019
1102	0.022
1103	0.023
1103	0.024
1104	0.027
1104	0.029
1104	0.031
1105	0.034
1105	0.036
1106	0.038
1106	0.04
1107	0.042
1107	0.045
1107	0.05
1108	0.063
1108	0.079
1109	0.1
1109	0.129
1109	0.15
1110	0.182
1110	0.238
1111	0.344
1111	0.715
