Data from 17c-2a_Absorbance__439__00440.txt Node

Date: Fri Jan 26 10:02:09 CET 2024
User: Marek
Spectrometer: MAYP115816
Trigger mode: 0
Integration Time (sec): 2.000000E-1
Scans to average: 10
Electric dark correction enabled: true
Nonlinearity correction enabled: true
Boxcar width: 5
XAxis mode: Wavelengths
Number of Pixels in Spectrum: 2068
>>>>>Begin Spectral Data<<<<<
199	-1.171
199	-1.044
200	-0.907
200	-0.806
201	-0.744
201	-0.706
202	-0.651
202	-0.61
203	-0.577
203	-0.548
204	-0.527
204	-0.508
205	-0.491
205	-0.484
205	-0.483
206	-0.479
206	-0.476
207	-0.473
207	-0.473
208	-0.473
208	-0.472
209	-0.469
209	-0.467
210	-0.468
210	-0.468
211	-0.469
211	-0.47
212	-0.471
212	-0.472
213	-0.47
213	-0.467
213	-0.469
214	-0.468
214	-0.467
215	-0.463
215	-0.462
216	-0.459
216	-0.46
217	-0.457
217	-0.455
218	-0.453
218	-0.45
219	-0.446
219	-0.447
220	-0.445
220	-0.446
221	-0.445
221	-0.444
221	-0.441
222	-0.436
222	-0.433
223	-0.43
223	-0.429
224	-0.426
224	-0.419
225	-0.413
225	-0.408
226	-0.401
226	-0.392
227	-0.385
227	-0.378
228	-0.366
228	-0.354
229	-0.338
229	-0.322
229	-0.304
230	-0.283
230	-0.262
231	-0.241
231	-0.218
232	-0.194
232	-0.169
233	-0.144
233	-0.12
234	-0.098
234	-0.077
235	-0.057
235	-0.04
236	-0.023
236	-0.007
236	0.008
237	0.02
237	0.031
238	0.042
238	0.05
239	0.059
239	0.066
240	0.073
240	0.079
241	0.084
241	0.089
242	0.094
242	0.098
243	0.102
243	0.105
243	0.108
244	0.111
244	0.114
245	0.116
245	0.119
246	0.122
246	0.124
247	0.126
247	0.129
248	0.131
248	0.134
249	0.136
249	0.138
250	0.14
250	0.142
250	0.144
251	0.146
251	0.147
252	0.149
252	0.151
253	0.153
253	0.154
254	0.156
254	0.157
255	0.158
255	0.16
256	0.161
256	0.162
257	0.163
257	0.164
258	0.164
258	0.165
258	0.165
259	0.166
259	0.166
260	0.167
260	0.167
261	0.167
261	0.167
262	0.167
262	0.167
263	0.167
263	0.167
264	0.167
264	0.166
265	0.166
265	0.165
265	0.165
266	0.164
266	0.163
267	0.162
267	0.161
268	0.16
268	0.159
269	0.158
269	0.156
270	0.155
270	0.154
271	0.152
271	0.15
272	0.149
272	0.147
272	0.146
273	0.144
273	0.143
274	0.141
274	0.14
275	0.138
275	0.137
276	0.135
276	0.134
277	0.132
277	0.13
278	0.128
278	0.127
278	0.125
279	0.123
279	0.121
280	0.119
280	0.117
281	0.116
281	0.114
282	0.113
282	0.111
283	0.11
283	0.108
284	0.107
284	0.106
285	0.104
285	0.103
285	0.101
286	0.1
286	0.099
287	0.097
287	0.096
288	0.095
288	0.093
289	0.092
289	0.091
290	0.09
290	0.089
291	0.088
291	0.087
292	0.086
292	0.086
292	0.085
293	0.084
293	0.083
294	0.082
294	0.082
295	0.081
295	0.081
296	0.08
296	0.08
297	0.079
297	0.079
298	0.079
298	0.078
298	0.078
299	0.078
299	0.078
300	0.077
300	0.077
301	0.077
301	0.077
302	0.076
302	0.076
303	0.076
303	0.076
304	0.075
304	0.075
305	0.075
305	0.074
305	0.074
306	0.074
306	0.074
307	0.073
307	0.073
308	0.073
308	0.072
309	0.072
309	0.072
310	0.072
310	0.072
311	0.071
311	0.071
311	0.071
312	0.071
312	0.071
313	0.071
313	0.071
314	0.071
314	0.07
315	0.07
315	0.07
316	0.07
316	0.07
317	0.07
317	0.069
318	0.069
318	0.069
318	0.069
319	0.068
319	0.068
320	0.068
320	0.068
321	0.067
321	0.067
322	0.067
322	0.067
323	0.066
323	0.066
324	0.066
324	0.066
324	0.065
325	0.065
325	0.065
326	0.065
326	0.065
327	0.065
327	0.064
328	0.064
328	0.064
329	0.064
329	0.064
330	0.064
330	0.063
330	0.063
331	0.063
331	0.062
332	0.062
332	0.062
333	0.062
333	0.062
334	0.062
334	0.061
335	0.061
335	0.061
336	0.061
336	0.061
336	0.061
337	0.061
337	0.06
338	0.06
338	0.06
339	0.06
339	0.06
340	0.059
340	0.059
341	0.059
341	0.059
342	0.059
342	0.058
342	0.058
343	0.058
343	0.058
344	0.058
344	0.058
345	0.058
345	0.058
346	0.058
346	0.057
347	0.057
347	0.057
348	0.057
348	0.057
348	0.057
349	0.057
349	0.056
350	0.056
350	0.056
351	0.056
351	0.056
352	0.056
352	0.056
353	0.056
353	0.056
354	0.056
354	0.055
354	0.055
355	0.055
355	0.055
356	0.055
356	0.055
357	0.055
357	0.055
358	0.054
358	0.054
359	0.055
359	0.055
360	0.055
360	0.054
360	0.054
361	0.055
361	0.055
362	0.055
362	0.055
363	0.055
363	0.055
364	0.055
364	0.055
365	0.055
365	0.055
366	0.055
366	0.056
366	0.056
367	0.056
367	0.056
368	0.055
368	0.055
369	0.055
369	0.055
370	0.055
370	0.055
371	0.055
371	0.055
372	0.055
372	0.055
372	0.055
373	0.055
373	0.055
374	0.055
374	0.055
375	0.055
375	0.055
376	0.055
376	0.056
377	0.056
377	0.056
378	0.056
378	0.056
378	0.056
379	0.056
379	0.056
380	0.056
380	0.056
381	0.057
381	0.056
382	0.056
382	0.056
383	0.056
383	0.056
383	0.056
384	0.056
384	0.056
385	0.056
385	0.056
386	0.056
386	0.056
387	0.056
387	0.056
388	0.056
388	0.056
389	0.056
389	0.056
389	0.056
390	0.056
390	0.056
391	0.056
391	0.056
392	0.056
392	0.056
393	0.057
393	0.056
394	0.056
394	0.056
394	0.057
395	0.057
395	0.056
396	0.056
396	0.056
397	0.056
397	0.056
398	0.056
398	0.056
399	0.056
399	0.056
400	0.056
400	0.056
400	0.056
401	0.056
401	0.056
402	0.056
402	0.056
403	0.056
403	0.056
404	0.055
404	0.056
405	0.056
405	0.056
405	0.056
406	0.056
406	0.056
407	0.056
407	0.056
408	0.056
408	0.056
409	0.056
409	0.056
410	0.056
410	0.056
411	0.056
411	0.056
411	0.056
412	0.056
412	0.056
413	0.056
413	0.056
414	0.056
414	0.056
415	0.056
415	0.056
416	0.056
416	0.056
416	0.056
417	0.056
417	0.056
418	0.056
418	0.056
419	0.056
419	0.056
420	0.057
420	0.057
421	0.057
421	0.057
421	0.057
422	0.057
422	0.057
423	0.058
423	0.057
424	0.058
424	0.058
425	0.057
425	0.057
426	0.058
426	0.058
427	0.058
427	0.058
427	0.058
428	0.058
428	0.058
429	0.058
429	0.058
430	0.058
430	0.058
431	0.058
431	0.058
432	0.058
432	0.058
432	0.058
433	0.058
433	0.058
434	0.057
434	0.058
435	0.057
435	0.058
436	0.057
436	0.057
437	0.057
437	0.057
437	0.057
438	0.058
438	0.058
439	0.058
439	0.057
440	0.057
440	0.057
441	0.057
441	0.057
442	0.057
442	0.057
442	0.057
443	0.057
443	0.057
444	0.057
444	0.058
445	0.058
445	0.058
446	0.058
446	0.058
447	0.058
447	0.058
447	0.058
448	0.059
448	0.059
449	0.059
449	0.059
450	0.059
450	0.059
451	0.059
451	0.059
452	0.059
452	0.059
452	0.059
453	0.059
453	0.059
454	0.059
454	0.059
455	0.058
455	0.058
456	0.058
456	0.058
457	0.058
457	0.058
458	0.058
458	0.059
458	0.059
459	0.059
459	0.059
460	0.059
460	0.059
461	0.059
461	0.059
462	0.059
462	0.059
463	0.059
463	0.059
463	0.06
464	0.059
464	0.059
465	0.06
465	0.06
466	0.06
466	0.06
467	0.06
467	0.06
467	0.06
468	0.059
468	0.059
469	0.059
469	0.059
470	0.059
470	0.059
471	0.059
471	0.059
472	0.059
472	0.06
472	0.06
473	0.06
473	0.061
474	0.061
474	0.061
475	0.061
475	0.061
476	0.062
476	0.062
477	0.062
477	0.062
477	0.062
478	0.062
478	0.062
479	0.062
479	0.062
480	0.062
480	0.062
481	0.062
481	0.063
482	0.063
482	0.063
482	0.064
483	0.065
483	0.066
484	0.067
484	0.067
485	0.068
485	0.068
486	0.068
486	0.069
487	0.069
487	0.069
487	0.069
488	0.069
488	0.069
489	0.068
489	0.069
490	0.069
490	0.069
491	0.069
491	0.069
492	0.07
492	0.07
492	0.07
493	0.071
493	0.071
494	0.072
494	0.073
495	0.073
495	0.073
496	0.074
496	0.075
496	0.075
497	0.076
497	0.076
498	0.076
498	0.077
499	0.077
499	0.078
500	0.078
500	0.078
501	0.079
501	0.079
501	0.08
502	0.08
502	0.081
503	0.081
503	0.082
504	0.082
504	0.082
505	0.083
505	0.084
506	0.084
506	0.085
506	0.086
507	0.086
507	0.086
508	0.087
508	0.087
509	0.087
509	0.088
510	0.088
510	0.089
511	0.089
511	0.089
511	0.089
512	0.09
512	0.09
513	0.09
513	0.09
514	0.09
514	0.09
515	0.09
515	0.09
515	0.09
516	0.09
516	0.091
517	0.091
517	0.091
518	0.091
518	0.092
519	0.092
519	0.092
520	0.092
520	0.092
520	0.092
521	0.091
521	0.091
522	0.09
522	0.09
523	0.089
523	0.089
524	0.089
524	0.089
524	0.089
525	0.09
525	0.09
526	0.09
526	0.091
527	0.091
527	0.091
528	0.092
528	0.092
529	0.092
529	0.091
529	0.091
530	0.091
530	0.091
531	0.091
531	0.09
532	0.09
532	0.09
533	0.09
533	0.089
533	0.089
534	0.088
534	0.088
535	0.087
535	0.087
536	0.086
536	0.086
537	0.085
537	0.085
538	0.084
538	0.084
538	0.083
539	0.083
539	0.082
540	0.082
540	0.081
541	0.081
541	0.08
542	0.08
542	0.079
542	0.079
543	0.078
543	0.077
544	0.076
544	0.076
545	0.076
545	0.076
546	0.075
546	0.075
547	0.075
547	0.074
547	0.073
548	0.073
548	0.073
549	0.073
549	0.072
550	0.072
550	0.071
551	0.07
551	0.07
551	0.069
552	0.069
552	0.069
553	0.068
553	0.068
554	0.067
554	0.066
555	0.066
555	0.065
556	0.064
556	0.063
556	0.062
557	0.061
557	0.061
558	0.06
558	0.059
559	0.058
559	0.057
560	0.057
560	0.056
560	0.056
561	0.056
561	0.056
562	0.056
562	0.055
563	0.054
563	0.054
564	0.054
564	0.053
564	0.053
565	0.052
565	0.052
566	0.051
566	0.051
567	0.05
567	0.05
568	0.051
568	0.051
568	0.051
569	0.051
569	0.051
570	0.051
570	0.05
571	0.05
571	0.05
572	0.05
572	0.05
573	0.05
573	0.049
573	0.049
574	0.049
574	0.048
575	0.048
575	0.049
576	0.049
576	0.048
577	0.047
577	0.047
577	0.046
578	0.046
578	0.046
579	0.047
579	0.047
580	0.046
580	0.045
581	0.044
581	0.044
581	0.044
582	0.044
582	0.044
583	0.044
583	0.043
584	0.041
584	0.04
585	0.04
585	0.04
585	0.04
586	0.04
586	0.04
587	0.039
587	0.038
588	0.037
588	0.037
589	0.037
589	0.037
590	0.037
590	0.037
590	0.038
591	0.038
591	0.038
592	0.038
592	0.038
593	0.038
593	0.038
594	0.038
594	0.038
594	0.037
595	0.037
595	0.037
596	0.037
596	0.038
597	0.039
597	0.04
598	0.04
598	0.041
598	0.041
599	0.042
599	0.041
600	0.041
600	0.041
601	0.04
601	0.04
602	0.038
602	0.038
602	0.037
603	0.037
603	0.038
604	0.038
604	0.039
605	0.04
605	0.04
606	0.04
606	0.04
606	0.04
607	0.04
607	0.04
608	0.039
608	0.038
609	0.037
609	0.037
610	0.036
610	0.036
610	0.036
611	0.037
611	0.038
612	0.039
612	0.04
613	0.041
613	0.042
614	0.043
614	0.043
614	0.043
615	0.043
615	0.043
616	0.043
616	0.043
617	0.043
617	0.043
618	0.042
618	0.042
618	0.042
619	0.042
619	0.043
620	0.043
620	0.044
621	0.044
621	0.044
622	0.044
622	0.044
622	0.044
623	0.044
623	0.045
624	0.045
624	0.045
625	0.045
625	0.045
626	0.045
626	0.045
626	0.046
627	0.047
627	0.047
628	0.048
628	0.048
629	0.049
629	0.049
630	0.049
630	0.048
630	0.049
631	0.049
631	0.049
632	0.048
632	0.048
633	0.048
633	0.049
634	0.049
634	0.05
634	0.051
635	0.051
635	0.052
636	0.052
636	0.053
637	0.053
637	0.054
638	0.054
638	0.055
638	0.055
639	0.055
639	0.055
640	0.056
640	0.056
641	0.056
641	0.057
642	0.057
642	0.058
642	0.059
643	0.059
643	0.06
644	0.061
644	0.061
645	0.062
645	0.063
646	0.065
646	0.066
646	0.067
647	0.068
647	0.07
648	0.071
648	0.072
649	0.073
649	0.075
650	0.076
650	0.077
650	0.078
651	0.079
651	0.08
652	0.08
652	0.081
653	0.082
653	0.086
653	0.082
654	0.067
654	0.055
655	0.056
655	0.056
656	0.057
656	0.058
657	0.059
657	0.06
657	0.061
658	0.059
658	0.061
659	0.076
659	0.095
660	0.1
660	0.101
661	0.102
661	0.103
661	0.104
662	0.105
662	0.107
663	0.108
663	0.109
664	0.109
664	0.11
665	0.111
665	0.112
665	0.113
666	0.113
666	0.114
667	0.114
667	0.115
668	0.116
668	0.117
669	0.118
669	0.119
669	0.12
670	0.121
670	0.122
671	0.123
671	0.124
672	0.125
672	0.126
672	0.127
673	0.128
673	0.129
674	0.13
674	0.131
675	0.132
675	0.133
676	0.135
676	0.136
676	0.136
677	0.137
677	0.138
678	0.138
678	0.138
679	0.138
679	0.139
680	0.139
680	0.14
680	0.14
681	0.14
681	0.141
682	0.141
682	0.142
683	0.143
683	0.144
684	0.145
684	0.145
684	0.145
685	0.145
685	0.145
686	0.144
686	0.144
687	0.143
687	0.143
687	0.143
688	0.142
688	0.142
689	0.143
689	0.143
690	0.144
690	0.144
691	0.145
691	0.145
691	0.145
692	0.145
692	0.145
693	0.145
693	0.145
694	0.144
694	0.144
695	0.144
695	0.145
695	0.144
696	0.143
696	0.143
697	0.143
697	0.142
698	0.141
698	0.14
698	0.14
699	0.139
699	0.138
700	0.137
700	0.136
701	0.135
701	0.135
702	0.134
702	0.133
702	0.132
703	0.131
703	0.13
704	0.129
704	0.128
705	0.127
705	0.126
705	0.125
706	0.125
706	0.124
707	0.124
707	0.123
708	0.122
708	0.121
709	0.121
709	0.12
709	0.119
710	0.118
710	0.117
711	0.117
711	0.116
712	0.115
712	0.114
713	0.114
713	0.113
713	0.112
714	0.111
714	0.11
715	0.109
715	0.107
716	0.106
716	0.105
716	0.104
717	0.103
717	0.101
718	0.1
718	0.098
719	0.098
719	0.097
720	0.096
720	0.094
720	0.093
721	0.092
721	0.091
722	0.09
722	0.089
723	0.088
723	0.088
723	0.087
724	0.086
724	0.086
725	0.086
725	0.086
726	0.085
726	0.085
727	0.085
727	0.085
727	0.084
728	0.083
728	0.083
729	0.082
729	0.081
730	0.08
730	0.079
730	0.078
731	0.077
731	0.076
732	0.075
732	0.074
733	0.074
733	0.073
734	0.073
734	0.072
734	0.072
735	0.072
735	0.071
736	0.071
736	0.07
737	0.069
737	0.068
737	0.067
738	0.065
738	0.064
739	0.062
739	0.061
740	0.06
740	0.059
741	0.058
741	0.058
741	0.057
742	0.057
742	0.056
743	0.057
743	0.056
744	0.056
744	0.056
744	0.055
745	0.054
745	0.053
746	0.052
746	0.051
747	0.05
747	0.049
748	0.048
748	0.048
748	0.047
749	0.046
749	0.046
750	0.046
750	0.046
751	0.046
751	0.046
751	0.046
752	0.046
752	0.046
753	0.046
753	0.046
754	0.046
754	0.045
754	0.046
755	0.046
755	0.046
756	0.046
756	0.045
757	0.045
757	0.045
758	0.045
758	0.045
758	0.045
759	0.045
759	0.045
760	0.044
760	0.043
761	0.042
761	0.042
761	0.042
762	0.041
762	0.041
763	0.04
763	0.038
764	0.037
764	0.036
764	0.035
765	0.034
765	0.033
766	0.032
766	0.032
767	0.031
767	0.03
768	0.028
768	0.027
768	0.027
769	0.026
769	0.025
770	0.023
770	0.022
771	0.02
771	0.019
771	0.017
772	0.016
772	0.015
773	0.014
773	0.013
774	0.012
774	0.011
775	0.011
775	0.011
775	0.01
776	0.01
776	0.01
777	0.01
777	0.01
778	0.009
778	0.008
778	0.008
779	0.007
779	0.007
780	0.005
780	0.004
781	0.002
781	0
781	-0.002
782	-0.005
782	-0.008
783	-0.011
783	-0.013
784	-0.016
784	-0.02
784	-0.023
785	-0.026
785	-0.03
786	-0.032
786	-0.035
787	-0.037
787	-0.039
788	-0.042
788	-0.046
788	-0.05
789	-0.055
789	-0.059
790	-0.064
790	-0.069
791	-0.076
791	-0.083
791	-0.088
792	-0.088
792	-0.083
793	-0.082
793	-0.084
794	-0.087
794	-0.092
794	-0.098
795	-0.102
795	-0.104
796	-0.104
796	-0.107
797	-0.116
797	-0.127
797	-0.134
798	-0.139
798	-0.142
799	-0.143
799	-0.142
800	-0.142
800	-0.143
801	-0.146
801	-0.147
801	-0.146
802	-0.147
802	-0.148
803	-0.149
803	-0.149
804	-0.148
804	-0.143
804	-0.136
805	-0.133
805	-0.131
806	-0.129
806	-0.128
807	-0.128
807	-0.128
807	-0.128
808	-0.128
808	-0.13
809	-0.134
809	-0.14
810	-0.144
810	-0.147
810	-0.15
811	-0.153
811	-0.154
812	-0.15
812	-0.146
813	-0.144
813	-0.141
813	-0.137
814	-0.132
814	-0.126
815	-0.117
815	-0.108
816	-0.098
816	-0.089
817	-0.082
817	-0.074
817	-0.065
818	-0.056
818	-0.048
819	-0.04
819	-0.034
820	-0.029
820	-0.025
820	-0.021
821	-0.017
821	-0.013
822	-0.011
822	-0.008
823	-0.005
823	-0.004
823	-0.002
824	-0
824	0.002
825	0.005
825	0.007
826	0.009
826	0.011
826	0.013
827	0.014
827	0.015
828	0.016
828	0.017
829	0.018
829	0.018
829	0.017
830	0.017
830	0.017
831	0.017
831	0.017
832	0.017
832	0.017
832	0.017
833	0.018
833	0.018
834	0.019
834	0.019
835	0.02
835	0.02
835	0.02
836	0.02
836	0.021
837	0.021
837	0.021
838	0.022
838	0.022
839	0.022
839	0.022
839	0.022
840	0.022
840	0.021
841	0.021
841	0.021
842	0.021
842	0.021
842	0.021
843	0.021
843	0.02
844	0.021
844	0.021
845	0.021
845	0.021
845	0.021
846	0.021
846	0.021
847	0.021
847	0.021
848	0.021
848	0.022
848	0.022
849	0.022
849	0.022
850	0.022
850	0.022
851	0.022
851	0.022
851	0.022
852	0.022
852	0.022
853	0.022
853	0.022
854	0.022
854	0.022
854	0.023
855	0.023
855	0.023
856	0.023
856	0.022
857	0.022
857	0.022
857	0.021
858	0.021
858	0.02
859	0.02
859	0.02
860	0.02
860	0.02
860	0.02
861	0.02
861	0.021
862	0.022
862	0.022
863	0.023
863	0.024
863	0.024
864	0.025
864	0.026
865	0.026
865	0.027
866	0.027
866	0.028
866	0.028
867	0.029
867	0.029
868	0.029
868	0.029
869	0.029
869	0.029
869	0.028
870	0.028
870	0.028
871	0.028
871	0.028
872	0.029
872	0.029
872	0.029
873	0.029
873	0.029
874	0.029
874	0.028
875	0.028
875	0.028
875	0.027
876	0.026
876	0.025
877	0.024
877	0.023
878	0.022
878	0.021
878	0.02
879	0.019
879	0.019
880	0.018
880	0.018
881	0.018
881	0.018
881	0.018
882	0.019
882	0.019
883	0.02
883	0.02
884	0.02
884	0.02
884	0.02
885	0.02
885	0.02
886	0.02
886	0.02
887	0.02
887	0.02
887	0.02
888	0.02
888	0.021
889	0.021
889	0.022
890	0.022
890	0.022
890	0.022
891	0.023
891	0.023
892	0.024
892	0.024
893	0.024
893	0.025
893	0.025
894	0.025
894	0.025
895	0.024
895	0.023
895	0.023
896	0.022
896	0.021
897	0.02
897	0.019
898	0.019
898	0.018
898	0.018
899	0.017
899	0.018
900	0.018
900	0.018
901	0.019
901	0.019
901	0.02
902	0.02
902	0.021
903	0.021
903	0.022
904	0.023
904	0.023
904	0.024
905	0.025
905	0.025
906	0.026
906	0.026
907	0.026
907	0.027
907	0.027
908	0.028
908	0.028
909	0.029
909	0.03
910	0.031
910	0.031
910	0.032
911	0.032
911	0.032
912	0.032
912	0.032
913	0.032
913	0.032
913	0.031
914	0.03
914	0.029
915	0.028
915	0.027
916	0.026
916	0.025
916	0.023
917	0.022
917	0.02
918	0.018
918	0.016
918	0.015
919	0.013
919	0.012
920	0.011
920	0.011
921	0.01
921	0.01
921	0.01
922	0.01
922	0.011
923	0.011
923	0.012
924	0.013
924	0.013
924	0.014
925	0.015
925	0.016
926	0.017
926	0.018
927	0.018
927	0.019
927	0.019
928	0.019
928	0.019
929	0.018
929	0.017
930	0.017
930	0.016
930	0.015
931	0.014
931	0.013
932	0.013
932	0.012
933	0.012
933	0.011
933	0.011
934	0.011
934	0.01
935	0.01
935	0.01
935	0.009
936	0.009
936	0.009
937	0.009
937	0.009
938	0.009
938	0.008
938	0.009
939	0.009
939	0.009
940	0.009
940	0.01
941	0.011
941	0.011
941	0.012
942	0.013
942	0.014
943	0.016
943	0.016
944	0.017
944	0.017
944	0.018
945	0.018
945	0.019
946	0.018
946	0.018
946	0.018
947	0.019
947	0.019
948	0.019
948	0.019
949	0.019
949	0.02
949	0.02
950	0.02
950	0.021
951	0.021
951	0.02
952	0.02
952	0.02
952	0.019
953	0.019
953	0.018
954	0.017
954	0.017
955	0.017
955	0.016
955	0.016
956	0.016
956	0.017
957	0.017
957	0.017
957	0.017
958	0.018
958	0.018
959	0.019
959	0.019
960	0.019
960	0.019
960	0.02
961	0.02
961	0.02
962	0.02
962	0.021
963	0.021
963	0.022
963	0.022
964	0.022
964	0.022
965	0.022
965	0.022
966	0.022
966	0.022
966	0.022
967	0.021
967	0.021
968	0.02
968	0.02
968	0.019
969	0.019
969	0.018
970	0.018
970	0.017
971	0.017
971	0.016
971	0.016
972	0.016
972	0.016
973	0.016
973	0.016
974	0.016
974	0.016
974	0.017
975	0.018
975	0.018
976	0.019
976	0.021
976	0.022
977	0.022
977	0.023
978	0.024
978	0.025
979	0.025
979	0.026
979	0.026
980	0.025
980	0.025
981	0.024
981	0.024
982	0.023
982	0.023
982	0.022
983	0.021
983	0.02
984	0.019
984	0.018
984	0.018
985	0.017
985	0.016
986	0.015
986	0.015
987	0.015
987	0.014
987	0.014
988	0.014
988	0.014
989	0.015
989	0.015
990	0.015
990	0.016
990	0.016
991	0.017
991	0.017
992	0.017
992	0.018
992	0.018
993	0.018
993	0.018
994	0.018
994	0.017
995	0.017
995	0.017
995	0.017
996	0.017
996	0.017
997	0.017
997	0.017
997	0.017
998	0.017
998	0.017
999	0.018
999	0.019
1000	0.019
1000	0.02
1000	0.02
1001	0.021
1001	0.022
1002	0.022
1002	0.023
1003	0.023
1003	0.023
1003	0.023
1004	0.023
1004	0.022
1005	0.021
1005	0.021
1005	0.02
1006	0.019
1006	0.019
1007	0.018
1007	0.017
1008	0.016
1008	0.016
1008	0.015
1009	0.015
1009	0.014
1010	0.014
1010	0.014
1010	0.014
1011	0.013
1011	0.013
1012	0.013
1012	0.013
1013	0.012
1013	0.012
1013	0.011
1014	0.01
1014	0.009
1015	0.008
1015	0.008
1016	0.007
1016	0.006
1016	0.005
1017	0.004
1017	0.003
1018	0.003
1018	0.002
1018	0.002
1019	0.002
1019	0.002
1020	0.001
1020	0.001
1021	0.001
1021	0.002
1021	0.002
1022	0.002
1022	0.003
1023	0.003
1023	0.004
1023	0.004
1024	0.004
1024	0.005
1025	0.005
1025	0.005
1026	0.005
1026	0.005
1026	0.005
1027	0.005
1027	0.005
1028	0.005
1028	0.005
1028	0.005
1029	0.004
1029	0.005
1030	0.004
1030	0.004
1031	0.003
1031	0.003
1031	0.003
1032	0.002
1032	0.002
1033	0.002
1033	0.002
1033	0.002
1034	0.001
1034	0.001
1035	0.001
1035	0
1036	-0
1036	-0
1036	0
1037	0
1037	0.001
1038	0.001
1038	0.001
1039	0.001
1039	0.002
1039	0.003
1040	0.003
1040	0.004
1041	0.005
1041	0.006
1041	0.007
1042	0.007
1042	0.008
1043	0.009
1043	0.01
1044	0.011
1044	0.011
1044	0.012
1045	0.012
1045	0.012
1046	0.012
1046	0.012
1046	0.012
1047	0.012
1047	0.012
1048	0.012
1048	0.011
1049	0.011
1049	0.01
1049	0.01
1050	0.009
1050	0.008
1051	0.008
1051	0.008
1051	0.007
1052	0.007
1052	0.006
1053	0.006
1053	0.005
1053	0.005
1054	0.004
1054	0.004
1055	0.003
1055	0.003
1056	0.002
1056	0.001
1056	0
1057	-0.001
1057	-0.001
1058	-0.001
1058	-0.002
1058	-0.002
1059	-0.002
1059	-0.002
1060	-0.002
1060	-0.002
1061	-0.002
1061	-0.001
1061	-0
1062	-0
1062	0
1063	0
1063	0
1063	0
1064	0
1064	0
1065	0
1065	0
1066	0
1066	0
1066	0
1067	0
1067	-0
1068	-0
1068	-0.001
1068	-0.001
1069	-0.002
1069	-0.003
1070	-0.004
1070	-0.005
1071	-0.006
1071	-0.007
1071	-0.008
1072	-0.009
1072	-0.01
1073	-0.011
1073	-0.012
1073	-0.012
1074	-0.013
1074	-0.013
1075	-0.014
1075	-0.014
1076	-0.015
1076	-0.015
1076	-0.015
1077	-0.015
1077	-0.015
1078	-0.015
1078	-0.016
1078	-0.015
1079	-0.016
1079	-0.015
1080	-0.015
1080	-0.015
1080	-0.015
1081	-0.015
1081	-0.015
1082	-0.015
1082	-0.015
1083	-0.015
1083	-0.015
1083	-0.015
1084	-0.015
1084	-0.015
1085	-0.015
1085	-0.014
1085	-0.013
1086	-0.013
1086	-0.013
1087	-0.013
1087	-0.012
1088	-0.013
1088	-0.013
1088	-0.013
1089	-0.014
1089	-0.014
1090	-0.015
1090	-0.016
1090	-0.016
1091	-0.017
1091	-0.016
1092	-0.017
1092	-0.016
1092	-0.016
1093	-0.016
1093	-0.015
1094	-0.015
1094	-0.016
1095	-0.016
1095	-0.017
1095	-0.016
1096	-0.016
1096	-0.016
1097	-0.016
1097	-0.015
1097	-0.016
1098	-0.015
1098	-0.015
1099	-0.014
1099	-0.013
1100	-0.013
1100	-0.012
1100	-0.012
1101	-0.012
1101	-0.011
1102	-0.011
1102	-0.01
1102	-0.009
1103	-0.009
1103	-0.008
1104	-0.007
1104	-0.006
1104	-0.003
1105	-0.002
1105	-0.002
1106	-0
1106	0.001
1107	0.001
1107	0.002
1107	0.006
1108	0.017
1108	0.031
1109	0.049
1109	0.072
1109	0.088
1110	0.114
1110	0.155
1111	0.239
1111	0.501
