Data from 17c-2a_Absorbance__360__00361.txt Node

Date: Fri Jan 26 09:59:31 CET 2024
User: Marek
Spectrometer: MAYP115816
Trigger mode: 0
Integration Time (sec): 2.000000E-1
Scans to average: 10
Electric dark correction enabled: true
Nonlinearity correction enabled: true
Boxcar width: 5
XAxis mode: Wavelengths
Number of Pixels in Spectrum: 2068
>>>>>Begin Spectral Data<<<<<
199	-1.154
199	-1.026
200	-0.89
200	-0.789
201	-0.728
201	-0.691
202	-0.637
202	-0.595
203	-0.561
203	-0.534
204	-0.513
204	-0.494
205	-0.477
205	-0.469
205	-0.468
206	-0.464
206	-0.461
207	-0.458
207	-0.459
208	-0.46
208	-0.459
209	-0.457
209	-0.455
210	-0.457
210	-0.458
211	-0.459
211	-0.46
212	-0.462
212	-0.462
213	-0.46
213	-0.457
213	-0.457
214	-0.454
214	-0.453
215	-0.449
215	-0.448
216	-0.446
216	-0.446
217	-0.442
217	-0.439
218	-0.437
218	-0.436
219	-0.431
219	-0.431
220	-0.43
220	-0.431
221	-0.429
221	-0.428
221	-0.425
222	-0.42
222	-0.419
223	-0.415
223	-0.413
224	-0.41
224	-0.405
225	-0.4
225	-0.395
226	-0.389
226	-0.38
227	-0.373
227	-0.366
228	-0.354
228	-0.343
229	-0.328
229	-0.312
229	-0.295
230	-0.275
230	-0.254
231	-0.233
231	-0.211
232	-0.189
232	-0.165
233	-0.142
233	-0.119
234	-0.098
234	-0.078
235	-0.058
235	-0.041
236	-0.024
236	-0.01
236	0.004
237	0.017
237	0.027
238	0.037
238	0.046
239	0.054
239	0.061
240	0.067
240	0.073
241	0.077
241	0.083
242	0.087
242	0.091
243	0.094
243	0.098
243	0.101
244	0.104
244	0.107
245	0.109
245	0.112
246	0.114
246	0.116
247	0.118
247	0.121
248	0.123
248	0.125
249	0.126
249	0.129
250	0.131
250	0.132
250	0.134
251	0.136
251	0.138
252	0.14
252	0.142
253	0.143
253	0.145
254	0.146
254	0.148
255	0.149
255	0.15
256	0.152
256	0.153
257	0.154
257	0.154
258	0.155
258	0.156
258	0.157
259	0.157
259	0.158
260	0.158
260	0.158
261	0.158
261	0.159
262	0.159
262	0.158
263	0.158
263	0.158
264	0.158
264	0.158
265	0.157
265	0.157
265	0.156
266	0.155
266	0.154
267	0.153
267	0.152
268	0.151
268	0.15
269	0.149
269	0.147
270	0.146
270	0.145
271	0.143
271	0.142
272	0.14
272	0.139
272	0.137
273	0.136
273	0.134
274	0.133
274	0.131
275	0.13
275	0.128
276	0.127
276	0.125
277	0.123
277	0.122
278	0.12
278	0.118
278	0.116
279	0.115
279	0.113
280	0.111
280	0.109
281	0.108
281	0.106
282	0.104
282	0.103
283	0.102
283	0.1
284	0.099
284	0.097
285	0.096
285	0.094
285	0.093
286	0.092
286	0.091
287	0.089
287	0.088
288	0.087
288	0.085
289	0.084
289	0.083
290	0.082
290	0.081
291	0.08
291	0.08
292	0.079
292	0.078
292	0.077
293	0.076
293	0.076
294	0.075
294	0.074
295	0.074
295	0.073
296	0.073
296	0.072
297	0.072
297	0.071
298	0.071
298	0.071
298	0.071
299	0.07
299	0.07
300	0.07
300	0.069
301	0.069
301	0.069
302	0.069
302	0.069
303	0.069
303	0.068
304	0.068
304	0.068
305	0.068
305	0.067
305	0.067
306	0.067
306	0.067
307	0.066
307	0.066
308	0.066
308	0.066
309	0.065
309	0.065
310	0.065
310	0.065
311	0.065
311	0.064
311	0.064
312	0.064
312	0.064
313	0.064
313	0.064
314	0.064
314	0.064
315	0.064
315	0.063
316	0.063
316	0.063
317	0.063
317	0.063
318	0.063
318	0.062
318	0.062
319	0.062
319	0.062
320	0.061
320	0.061
321	0.061
321	0.061
322	0.06
322	0.06
323	0.06
323	0.06
324	0.059
324	0.059
324	0.059
325	0.059
325	0.059
326	0.059
326	0.059
327	0.058
327	0.058
328	0.058
328	0.058
329	0.058
329	0.058
330	0.057
330	0.057
330	0.057
331	0.057
331	0.057
332	0.056
332	0.056
333	0.056
333	0.056
334	0.056
334	0.055
335	0.055
335	0.055
336	0.055
336	0.055
336	0.055
337	0.055
337	0.055
338	0.054
338	0.054
339	0.054
339	0.054
340	0.054
340	0.054
341	0.054
341	0.053
342	0.053
342	0.053
342	0.053
343	0.053
343	0.053
344	0.053
344	0.053
345	0.053
345	0.052
346	0.052
346	0.052
347	0.052
347	0.052
348	0.051
348	0.051
348	0.051
349	0.051
349	0.051
350	0.05
350	0.05
351	0.05
351	0.05
352	0.05
352	0.05
353	0.05
353	0.05
354	0.05
354	0.05
354	0.05
355	0.05
355	0.05
356	0.05
356	0.05
357	0.05
357	0.05
358	0.049
358	0.049
359	0.049
359	0.049
360	0.049
360	0.049
360	0.049
361	0.049
361	0.05
362	0.05
362	0.05
363	0.05
363	0.05
364	0.05
364	0.05
365	0.05
365	0.05
366	0.05
366	0.05
366	0.051
367	0.051
367	0.05
368	0.05
368	0.05
369	0.05
369	0.05
370	0.05
370	0.05
371	0.05
371	0.05
372	0.049
372	0.049
372	0.049
373	0.049
373	0.049
374	0.05
374	0.05
375	0.05
375	0.05
376	0.05
376	0.05
377	0.051
377	0.051
378	0.051
378	0.051
378	0.051
379	0.051
379	0.051
380	0.051
380	0.051
381	0.051
381	0.051
382	0.051
382	0.051
383	0.051
383	0.051
383	0.051
384	0.051
384	0.051
385	0.051
385	0.051
386	0.051
386	0.051
387	0.051
387	0.051
388	0.051
388	0.051
389	0.051
389	0.051
389	0.051
390	0.051
390	0.051
391	0.051
391	0.051
392	0.051
392	0.052
393	0.052
393	0.052
394	0.052
394	0.052
394	0.052
395	0.052
395	0.052
396	0.052
396	0.051
397	0.052
397	0.052
398	0.052
398	0.052
399	0.051
399	0.051
400	0.051
400	0.051
400	0.051
401	0.051
401	0.051
402	0.051
402	0.051
403	0.051
403	0.051
404	0.051
404	0.051
405	0.051
405	0.051
405	0.051
406	0.051
406	0.051
407	0.051
407	0.051
408	0.051
408	0.051
409	0.052
409	0.052
410	0.052
410	0.052
411	0.052
411	0.052
411	0.052
412	0.052
412	0.052
413	0.052
413	0.052
414	0.052
414	0.052
415	0.051
415	0.051
416	0.051
416	0.051
416	0.051
417	0.051
417	0.051
418	0.051
418	0.051
419	0.051
419	0.052
420	0.052
420	0.052
421	0.052
421	0.052
421	0.053
422	0.053
422	0.053
423	0.053
423	0.053
424	0.053
424	0.053
425	0.053
425	0.053
426	0.053
426	0.053
427	0.053
427	0.053
427	0.053
428	0.053
428	0.053
429	0.053
429	0.053
430	0.053
430	0.053
431	0.053
431	0.053
432	0.053
432	0.053
432	0.053
433	0.053
433	0.053
434	0.052
434	0.053
435	0.053
435	0.053
436	0.053
436	0.053
437	0.053
437	0.053
437	0.053
438	0.053
438	0.053
439	0.053
439	0.053
440	0.052
440	0.052
441	0.052
441	0.052
442	0.052
442	0.052
442	0.052
443	0.053
443	0.053
444	0.053
444	0.053
445	0.053
445	0.053
446	0.053
446	0.054
447	0.054
447	0.054
447	0.054
448	0.054
448	0.054
449	0.054
449	0.054
450	0.054
450	0.054
451	0.054
451	0.054
452	0.054
452	0.054
452	0.054
453	0.054
453	0.054
454	0.054
454	0.054
455	0.054
455	0.054
456	0.054
456	0.054
457	0.054
457	0.054
458	0.054
458	0.054
458	0.055
459	0.055
459	0.055
460	0.054
460	0.054
461	0.054
461	0.054
462	0.055
462	0.055
463	0.055
463	0.055
463	0.055
464	0.055
464	0.055
465	0.055
465	0.055
466	0.056
466	0.056
467	0.056
467	0.056
467	0.055
468	0.055
468	0.055
469	0.055
469	0.055
470	0.055
470	0.054
471	0.054
471	0.054
472	0.054
472	0.055
472	0.055
473	0.055
473	0.056
474	0.056
474	0.056
475	0.057
475	0.057
476	0.057
476	0.057
477	0.057
477	0.057
477	0.057
478	0.057
478	0.057
479	0.057
479	0.057
480	0.057
480	0.057
481	0.057
481	0.058
482	0.058
482	0.059
482	0.059
483	0.06
483	0.061
484	0.062
484	0.062
485	0.062
485	0.063
486	0.063
486	0.063
487	0.063
487	0.063
487	0.063
488	0.063
488	0.063
489	0.063
489	0.063
490	0.063
490	0.063
491	0.063
491	0.064
492	0.064
492	0.064
492	0.065
493	0.065
493	0.066
494	0.066
494	0.067
495	0.067
495	0.068
496	0.069
496	0.069
496	0.069
497	0.07
497	0.07
498	0.071
498	0.071
499	0.071
499	0.071
500	0.072
500	0.072
501	0.072
501	0.073
501	0.073
502	0.074
502	0.074
503	0.075
503	0.075
504	0.075
504	0.076
505	0.076
505	0.077
506	0.078
506	0.078
506	0.079
507	0.079
507	0.079
508	0.079
508	0.08
509	0.08
509	0.08
510	0.081
510	0.081
511	0.081
511	0.081
511	0.082
512	0.082
512	0.082
513	0.082
513	0.082
514	0.082
514	0.082
515	0.082
515	0.082
515	0.082
516	0.082
516	0.083
517	0.083
517	0.084
518	0.084
518	0.084
519	0.084
519	0.084
520	0.084
520	0.084
520	0.084
521	0.083
521	0.083
522	0.082
522	0.082
523	0.082
523	0.082
524	0.081
524	0.081
524	0.082
525	0.082
525	0.082
526	0.082
526	0.083
527	0.083
527	0.083
528	0.083
528	0.084
529	0.084
529	0.083
529	0.083
530	0.083
530	0.083
531	0.083
531	0.083
532	0.082
532	0.082
533	0.082
533	0.081
533	0.081
534	0.081
534	0.08
535	0.08
535	0.08
536	0.079
536	0.079
537	0.078
537	0.078
538	0.077
538	0.077
538	0.076
539	0.076
539	0.076
540	0.075
540	0.074
541	0.074
541	0.074
542	0.073
542	0.073
542	0.072
543	0.072
543	0.071
544	0.071
544	0.07
545	0.07
545	0.07
546	0.07
546	0.069
547	0.069
547	0.068
547	0.068
548	0.067
548	0.067
549	0.067
549	0.067
550	0.066
550	0.065
551	0.065
551	0.064
551	0.064
552	0.064
552	0.063
553	0.063
553	0.063
554	0.062
554	0.061
555	0.06
555	0.06
556	0.059
556	0.058
556	0.057
557	0.056
557	0.055
558	0.054
558	0.054
559	0.053
559	0.053
560	0.052
560	0.052
560	0.052
561	0.052
561	0.052
562	0.052
562	0.051
563	0.051
563	0.05
564	0.05
564	0.049
564	0.049
565	0.048
565	0.048
566	0.047
566	0.047
567	0.047
567	0.047
568	0.047
568	0.047
568	0.047
569	0.048
569	0.048
570	0.048
570	0.047
571	0.048
571	0.048
572	0.047
572	0.047
573	0.047
573	0.047
573	0.046
574	0.046
574	0.046
575	0.046
575	0.046
576	0.046
576	0.045
577	0.044
577	0.044
577	0.044
578	0.044
578	0.044
579	0.044
579	0.045
580	0.044
580	0.043
581	0.042
581	0.041
581	0.041
582	0.041
582	0.041
583	0.041
583	0.041
584	0.039
584	0.037
585	0.038
585	0.038
585	0.038
586	0.038
586	0.038
587	0.037
587	0.037
588	0.036
588	0.036
589	0.036
589	0.036
590	0.036
590	0.036
590	0.037
591	0.037
591	0.037
592	0.037
592	0.036
593	0.036
593	0.036
594	0.036
594	0.035
594	0.035
595	0.035
595	0.035
596	0.035
596	0.036
597	0.037
597	0.038
598	0.038
598	0.039
598	0.039
599	0.039
599	0.039
600	0.039
600	0.039
601	0.038
601	0.038
602	0.037
602	0.037
602	0.036
603	0.036
603	0.037
604	0.037
604	0.038
605	0.039
605	0.04
606	0.04
606	0.039
606	0.039
607	0.039
607	0.039
608	0.038
608	0.037
609	0.037
609	0.036
610	0.036
610	0.035
610	0.035
611	0.036
611	0.037
612	0.037
612	0.038
613	0.039
613	0.04
614	0.041
614	0.041
614	0.041
615	0.041
615	0.041
616	0.041
616	0.041
617	0.041
617	0.04
618	0.04
618	0.04
618	0.04
619	0.04
619	0.041
620	0.042
620	0.042
621	0.042
621	0.042
622	0.042
622	0.043
622	0.043
623	0.043
623	0.043
624	0.043
624	0.043
625	0.043
625	0.043
626	0.043
626	0.043
626	0.044
627	0.045
627	0.045
628	0.046
628	0.046
629	0.046
629	0.046
630	0.046
630	0.045
630	0.046
631	0.046
631	0.046
632	0.045
632	0.045
633	0.045
633	0.045
634	0.046
634	0.047
634	0.048
635	0.049
635	0.049
636	0.05
636	0.05
637	0.051
637	0.051
638	0.052
638	0.053
638	0.053
639	0.053
639	0.053
640	0.054
640	0.054
641	0.054
641	0.055
642	0.056
642	0.057
642	0.058
643	0.058
643	0.059
644	0.06
644	0.061
645	0.062
645	0.062
646	0.063
646	0.064
646	0.065
647	0.066
647	0.067
648	0.068
648	0.069
649	0.07
649	0.071
650	0.072
650	0.073
650	0.074
651	0.075
651	0.076
652	0.076
652	0.077
653	0.078
653	0.082
653	0.079
654	0.064
654	0.053
655	0.053
655	0.054
656	0.055
656	0.056
657	0.057
657	0.058
657	0.058
658	0.057
658	0.058
659	0.072
659	0.091
660	0.096
660	0.097
661	0.098
661	0.099
661	0.1
662	0.101
662	0.102
663	0.103
663	0.103
664	0.104
664	0.104
665	0.105
665	0.106
665	0.106
666	0.107
666	0.107
667	0.107
667	0.108
668	0.109
668	0.11
669	0.111
669	0.112
669	0.114
670	0.116
670	0.117
671	0.118
671	0.119
672	0.12
672	0.121
672	0.121
673	0.122
673	0.123
674	0.124
674	0.124
675	0.125
675	0.126
676	0.128
676	0.129
676	0.13
677	0.131
677	0.131
678	0.132
678	0.132
679	0.132
679	0.133
680	0.133
680	0.134
680	0.134
681	0.134
681	0.134
682	0.135
682	0.135
683	0.136
683	0.137
684	0.137
684	0.137
684	0.137
685	0.137
685	0.136
686	0.136
686	0.136
687	0.135
687	0.135
687	0.135
688	0.135
688	0.135
689	0.136
689	0.136
690	0.136
690	0.137
691	0.137
691	0.138
691	0.138
692	0.137
692	0.137
693	0.137
693	0.137
694	0.137
694	0.136
695	0.137
695	0.137
695	0.137
696	0.136
696	0.135
697	0.135
697	0.134
698	0.134
698	0.132
698	0.132
699	0.131
699	0.13
700	0.129
700	0.128
701	0.128
701	0.127
702	0.126
702	0.126
702	0.125
703	0.124
703	0.123
704	0.122
704	0.121
705	0.12
705	0.12
705	0.119
706	0.119
706	0.118
707	0.118
707	0.117
708	0.116
708	0.116
709	0.115
709	0.115
709	0.114
710	0.113
710	0.113
711	0.112
711	0.112
712	0.111
712	0.11
713	0.11
713	0.109
713	0.108
714	0.107
714	0.106
715	0.104
715	0.103
716	0.101
716	0.1
716	0.099
717	0.098
717	0.096
718	0.095
718	0.094
719	0.093
719	0.092
720	0.091
720	0.089
720	0.088
721	0.087
721	0.086
722	0.085
722	0.085
723	0.084
723	0.084
723	0.083
724	0.083
724	0.082
725	0.082
725	0.082
726	0.083
726	0.083
727	0.082
727	0.082
727	0.082
728	0.08
728	0.08
729	0.079
729	0.079
730	0.077
730	0.076
730	0.075
731	0.074
731	0.073
732	0.073
732	0.072
733	0.071
733	0.071
734	0.07
734	0.07
734	0.07
735	0.07
735	0.069
736	0.068
736	0.068
737	0.067
737	0.066
737	0.065
738	0.064
738	0.063
739	0.061
739	0.06
740	0.059
740	0.058
741	0.057
741	0.057
741	0.056
742	0.055
742	0.055
743	0.056
743	0.055
744	0.055
744	0.055
744	0.054
745	0.053
745	0.052
746	0.051
746	0.05
747	0.049
747	0.048
748	0.047
748	0.047
748	0.046
749	0.045
749	0.045
750	0.045
750	0.045
751	0.045
751	0.045
751	0.045
752	0.045
752	0.045
753	0.045
753	0.045
754	0.044
754	0.044
754	0.044
755	0.044
755	0.045
756	0.045
756	0.044
757	0.043
757	0.044
758	0.043
758	0.043
758	0.043
759	0.043
759	0.042
760	0.042
760	0.04
761	0.04
761	0.04
761	0.04
762	0.039
762	0.039
763	0.038
763	0.037
764	0.036
764	0.036
764	0.035
765	0.034
765	0.034
766	0.033
766	0.033
767	0.032
767	0.03
768	0.029
768	0.028
768	0.027
769	0.026
769	0.025
770	0.023
770	0.022
771	0.021
771	0.019
771	0.018
772	0.017
772	0.016
773	0.015
773	0.014
774	0.013
774	0.013
775	0.012
775	0.012
775	0.012
776	0.012
776	0.012
777	0.011
777	0.011
778	0.011
778	0.01
778	0.01
779	0.009
779	0.009
780	0.007
780	0.006
781	0.004
781	0.002
781	-0
782	-0.003
782	-0.006
783	-0.009
783	-0.012
784	-0.015
784	-0.019
784	-0.022
785	-0.026
785	-0.029
786	-0.032
786	-0.035
787	-0.037
787	-0.039
788	-0.042
788	-0.046
788	-0.051
789	-0.055
789	-0.059
790	-0.064
790	-0.069
791	-0.075
791	-0.082
791	-0.088
792	-0.087
792	-0.082
793	-0.082
793	-0.083
794	-0.086
794	-0.092
794	-0.097
795	-0.102
795	-0.104
796	-0.104
796	-0.107
797	-0.116
797	-0.127
797	-0.134
798	-0.139
798	-0.142
799	-0.143
799	-0.142
800	-0.142
800	-0.143
801	-0.146
801	-0.147
801	-0.146
802	-0.147
802	-0.148
803	-0.149
803	-0.149
804	-0.148
804	-0.143
804	-0.136
805	-0.133
805	-0.131
806	-0.129
806	-0.128
807	-0.128
807	-0.128
807	-0.128
808	-0.128
808	-0.13
809	-0.134
809	-0.14
810	-0.144
810	-0.147
810	-0.15
811	-0.153
811	-0.154
812	-0.15
812	-0.146
813	-0.144
813	-0.14
813	-0.136
814	-0.131
814	-0.125
815	-0.116
815	-0.106
816	-0.096
816	-0.087
817	-0.081
817	-0.072
817	-0.063
818	-0.055
818	-0.046
819	-0.039
819	-0.033
820	-0.029
820	-0.025
820	-0.021
821	-0.017
821	-0.013
822	-0.01
822	-0.008
823	-0.005
823	-0.004
823	-0.002
824	-0
824	0.002
825	0.004
825	0.006
826	0.008
826	0.01
826	0.011
827	0.013
827	0.014
828	0.015
828	0.015
829	0.016
829	0.016
829	0.015
830	0.015
830	0.015
831	0.015
831	0.016
832	0.015
832	0.016
832	0.017
833	0.017
833	0.018
834	0.019
834	0.02
835	0.021
835	0.021
835	0.022
836	0.022
836	0.023
837	0.023
837	0.023
838	0.024
838	0.023
839	0.024
839	0.023
839	0.023
840	0.022
840	0.022
841	0.022
841	0.022
842	0.021
842	0.021
842	0.021
843	0.021
843	0.021
844	0.021
844	0.021
845	0.021
845	0.021
845	0.021
846	0.021
846	0.021
847	0.021
847	0.021
848	0.021
848	0.021
848	0.022
849	0.022
849	0.022
850	0.022
850	0.022
851	0.022
851	0.023
851	0.023
852	0.023
852	0.023
853	0.023
853	0.023
854	0.023
854	0.023
854	0.023
855	0.023
855	0.023
856	0.023
856	0.022
857	0.021
857	0.021
857	0.02
858	0.02
858	0.02
859	0.019
859	0.019
860	0.019
860	0.019
860	0.019
861	0.019
861	0.02
862	0.02
862	0.021
863	0.021
863	0.022
863	0.022
864	0.023
864	0.023
865	0.024
865	0.024
866	0.025
866	0.025
866	0.026
867	0.026
867	0.026
868	0.026
868	0.026
869	0.026
869	0.026
869	0.026
870	0.027
870	0.027
871	0.027
871	0.027
872	0.028
872	0.028
872	0.028
873	0.029
873	0.029
874	0.029
874	0.029
875	0.028
875	0.028
875	0.027
876	0.027
876	0.026
877	0.025
877	0.024
878	0.023
878	0.022
878	0.022
879	0.021
879	0.02
880	0.02
880	0.02
881	0.02
881	0.02
881	0.02
882	0.02
882	0.02
883	0.021
883	0.021
884	0.021
884	0.021
884	0.021
885	0.021
885	0.021
886	0.021
886	0.021
887	0.021
887	0.021
887	0.021
888	0.021
888	0.022
889	0.022
889	0.022
890	0.023
890	0.023
890	0.023
891	0.023
891	0.023
892	0.023
892	0.024
893	0.024
893	0.025
893	0.025
894	0.025
894	0.025
895	0.025
895	0.024
895	0.024
896	0.023
896	0.022
897	0.021
897	0.02
898	0.02
898	0.019
898	0.019
899	0.018
899	0.018
900	0.019
900	0.019
901	0.02
901	0.02
901	0.021
902	0.021
902	0.022
903	0.022
903	0.022
904	0.023
904	0.023
904	0.024
905	0.025
905	0.025
906	0.025
906	0.025
907	0.025
907	0.026
907	0.026
908	0.026
908	0.027
909	0.028
909	0.028
910	0.029
910	0.03
910	0.03
911	0.031
911	0.031
912	0.032
912	0.032
913	0.032
913	0.032
913	0.032
914	0.031
914	0.031
915	0.03
915	0.029
916	0.028
916	0.027
916	0.025
917	0.024
917	0.022
918	0.02
918	0.018
918	0.016
919	0.014
919	0.013
920	0.011
920	0.011
921	0.01
921	0.01
921	0.01
922	0.01
922	0.011
923	0.012
923	0.012
924	0.013
924	0.014
924	0.015
925	0.017
925	0.018
926	0.019
926	0.02
927	0.02
927	0.021
927	0.021
928	0.021
928	0.021
929	0.021
929	0.02
930	0.02
930	0.019
930	0.018
931	0.017
931	0.017
932	0.017
932	0.016
933	0.016
933	0.015
933	0.015
934	0.014
934	0.014
935	0.014
935	0.013
935	0.013
936	0.012
936	0.012
937	0.012
937	0.011
938	0.011
938	0.011
938	0.011
939	0.012
939	0.012
940	0.012
940	0.013
941	0.013
941	0.014
941	0.014
942	0.015
942	0.016
943	0.017
943	0.018
944	0.019
944	0.019
944	0.02
945	0.021
945	0.021
946	0.021
946	0.021
946	0.021
947	0.021
947	0.022
948	0.022
948	0.022
949	0.022
949	0.022
949	0.023
950	0.023
950	0.023
951	0.023
951	0.022
952	0.022
952	0.021
952	0.021
953	0.02
953	0.02
954	0.019
954	0.018
955	0.018
955	0.018
955	0.018
956	0.018
956	0.018
957	0.018
957	0.018
957	0.018
958	0.019
958	0.019
959	0.02
959	0.02
960	0.021
960	0.021
960	0.021
961	0.022
961	0.022
962	0.022
962	0.023
963	0.023
963	0.023
963	0.023
964	0.023
964	0.023
965	0.023
965	0.023
966	0.023
966	0.023
966	0.022
967	0.022
967	0.022
968	0.022
968	0.021
968	0.021
969	0.021
969	0.021
970	0.021
970	0.021
971	0.021
971	0.021
971	0.02
972	0.02
972	0.02
973	0.02
973	0.02
974	0.02
974	0.02
974	0.02
975	0.021
975	0.021
976	0.022
976	0.023
976	0.023
977	0.023
977	0.024
978	0.024
978	0.025
979	0.025
979	0.025
979	0.025
980	0.025
980	0.024
981	0.024
981	0.023
982	0.023
982	0.022
982	0.022
983	0.021
983	0.02
984	0.02
984	0.019
984	0.019
985	0.018
985	0.017
986	0.017
986	0.016
987	0.016
987	0.016
987	0.016
988	0.016
988	0.016
989	0.016
989	0.016
990	0.016
990	0.017
990	0.017
991	0.017
991	0.018
992	0.018
992	0.018
992	0.018
993	0.018
993	0.018
994	0.018
994	0.018
995	0.018
995	0.018
995	0.018
996	0.017
996	0.017
997	0.017
997	0.017
997	0.017
998	0.017
998	0.018
999	0.018
999	0.019
1000	0.02
1000	0.02
1000	0.021
1001	0.022
1001	0.022
1002	0.023
1002	0.023
1003	0.024
1003	0.024
1003	0.024
1004	0.023
1004	0.023
1005	0.023
1005	0.022
1005	0.021
1006	0.021
1006	0.02
1007	0.019
1007	0.019
1008	0.018
1008	0.017
1008	0.017
1009	0.016
1009	0.016
1010	0.015
1010	0.015
1010	0.015
1011	0.015
1011	0.015
1012	0.014
1012	0.014
1013	0.014
1013	0.014
1013	0.013
1014	0.013
1014	0.012
1015	0.011
1015	0.011
1016	0.01
1016	0.009
1016	0.008
1017	0.007
1017	0.007
1018	0.006
1018	0.005
1018	0.005
1019	0.005
1019	0.004
1020	0.004
1020	0.004
1021	0.004
1021	0.004
1021	0.004
1022	0.005
1022	0.005
1023	0.006
1023	0.006
1023	0.006
1024	0.007
1024	0.007
1025	0.007
1025	0.007
1026	0.007
1026	0.007
1026	0.007
1027	0.007
1027	0.007
1028	0.007
1028	0.007
1028	0.007
1029	0.007
1029	0.006
1030	0.006
1030	0.006
1031	0.005
1031	0.005
1031	0.005
1032	0.005
1032	0.004
1033	0.004
1033	0.004
1033	0.004
1034	0.003
1034	0.003
1035	0.003
1035	0.003
1036	0.003
1036	0.003
1036	0.003
1037	0.003
1037	0.004
1038	0.004
1038	0.004
1039	0.005
1039	0.005
1039	0.006
1040	0.007
1040	0.008
1041	0.009
1041	0.01
1041	0.01
1042	0.011
1042	0.012
1043	0.012
1043	0.013
1044	0.013
1044	0.014
1044	0.014
1045	0.014
1045	0.014
1046	0.014
1046	0.014
1046	0.014
1047	0.014
1047	0.014
1048	0.013
1048	0.013
1049	0.012
1049	0.011
1049	0.011
1050	0.01
1050	0.01
1051	0.009
1051	0.009
1051	0.009
1052	0.008
1052	0.008
1053	0.007
1053	0.007
1053	0.006
1054	0.006
1054	0.006
1055	0.005
1055	0.005
1056	0.004
1056	0.003
1056	0.002
1057	0.002
1057	0.001
1058	0.001
1058	0.001
1058	0.001
1059	0.001
1059	0
1060	0
1060	0
1061	0.001
1061	0.001
1061	0.002
1062	0.002
1062	0.002
1063	0.002
1063	0.001
1063	0.002
1064	0.002
1064	0.002
1065	0.002
1065	0.002
1066	0.002
1066	0.002
1066	0.002
1067	0.002
1067	0.002
1068	0.002
1068	0.001
1068	0.001
1069	0
1069	-0.001
1070	-0.002
1070	-0.003
1071	-0.004
1071	-0.005
1071	-0.006
1072	-0.007
1072	-0.008
1073	-0.01
1073	-0.01
1073	-0.011
1074	-0.011
1074	-0.012
1075	-0.013
1075	-0.013
1076	-0.014
1076	-0.014
1076	-0.014
1077	-0.014
1077	-0.013
1078	-0.014
1078	-0.014
1078	-0.013
1079	-0.013
1079	-0.013
1080	-0.013
1080	-0.013
1080	-0.013
1081	-0.013
1081	-0.012
1082	-0.012
1082	-0.012
1083	-0.013
1083	-0.013
1083	-0.013
1084	-0.013
1084	-0.013
1085	-0.012
1085	-0.012
1085	-0.012
1086	-0.011
1086	-0.011
1087	-0.011
1087	-0.01
1088	-0.01
1088	-0.01
1088	-0.01
1089	-0.011
1089	-0.011
1090	-0.011
1090	-0.012
1090	-0.013
1091	-0.013
1091	-0.012
1092	-0.013
1092	-0.013
1092	-0.013
1093	-0.013
1093	-0.012
1094	-0.012
1094	-0.013
1095	-0.013
1095	-0.013
1095	-0.013
1096	-0.013
1096	-0.013
1097	-0.014
1097	-0.013
1097	-0.013
1098	-0.013
1098	-0.013
1099	-0.013
1099	-0.012
1100	-0.011
1100	-0.011
1100	-0.011
1101	-0.011
1101	-0.01
1102	-0.009
1102	-0.009
1102	-0.007
1103	-0.007
1103	-0.006
1104	-0.005
1104	-0.003
1104	0
1105	0.002
1105	0.003
1106	0.004
1106	0.006
1107	0.007
1107	0.009
1107	0.013
1108	0.025
1108	0.039
1109	0.058
1109	0.082
1109	0.098
1110	0.126
1110	0.169
1111	0.251
1111	0.527
