Data from 17c-2a_Absorbance__1775__01776.txt Node

Date: Fri Jan 26 10:46:40 CET 2024
User: Marek
Spectrometer: MAYP115816
Trigger mode: 0
Integration Time (sec): 2.000000E-1
Scans to average: 10
Electric dark correction enabled: true
Nonlinearity correction enabled: true
Boxcar width: 5
XAxis mode: Wavelengths
Number of Pixels in Spectrum: 2068
>>>>>Begin Spectral Data<<<<<
199	-1.48
199	-1.343
200	-1.196
200	-1.085
201	-1.016
201	-0.973
202	-0.909
202	-0.858
203	-0.817
203	-0.781
204	-0.756
204	-0.733
205	-0.713
205	-0.703
205	-0.702
206	-0.697
206	-0.694
207	-0.69
207	-0.691
208	-0.69
208	-0.689
209	-0.686
209	-0.683
210	-0.684
210	-0.685
211	-0.685
211	-0.687
212	-0.688
212	-0.687
213	-0.684
213	-0.681
213	-0.681
214	-0.679
214	-0.678
215	-0.672
215	-0.67
216	-0.667
216	-0.666
217	-0.662
217	-0.66
218	-0.657
218	-0.655
219	-0.651
219	-0.65
220	-0.649
220	-0.65
221	-0.648
221	-0.647
221	-0.642
222	-0.637
222	-0.634
223	-0.63
223	-0.627
224	-0.622
224	-0.615
225	-0.607
225	-0.599
226	-0.591
226	-0.579
227	-0.569
227	-0.559
228	-0.543
228	-0.527
229	-0.507
229	-0.485
229	-0.461
230	-0.434
230	-0.404
231	-0.373
231	-0.339
232	-0.304
232	-0.267
233	-0.228
233	-0.187
234	-0.149
234	-0.111
235	-0.074
235	-0.038
236	-0.004
236	0.028
236	0.06
237	0.089
237	0.115
238	0.14
238	0.162
239	0.183
239	0.201
240	0.219
240	0.233
241	0.247
241	0.26
242	0.272
242	0.282
243	0.292
243	0.3
243	0.308
244	0.315
244	0.322
245	0.327
245	0.333
246	0.338
246	0.343
247	0.347
247	0.351
248	0.355
248	0.359
249	0.362
249	0.365
250	0.369
250	0.372
250	0.375
251	0.378
251	0.38
252	0.383
252	0.385
253	0.388
253	0.389
254	0.391
254	0.393
255	0.395
255	0.397
256	0.398
256	0.399
257	0.401
257	0.402
258	0.403
258	0.404
258	0.404
259	0.405
259	0.405
260	0.406
260	0.406
261	0.406
261	0.406
262	0.406
262	0.406
263	0.406
263	0.405
264	0.405
264	0.405
265	0.404
265	0.403
265	0.402
266	0.401
266	0.4
267	0.399
267	0.398
268	0.396
268	0.395
269	0.394
269	0.392
270	0.39
270	0.389
271	0.387
271	0.385
272	0.383
272	0.381
272	0.379
273	0.377
273	0.375
274	0.373
274	0.371
275	0.368
275	0.366
276	0.364
276	0.362
277	0.36
277	0.358
278	0.355
278	0.353
278	0.35
279	0.348
279	0.345
280	0.343
280	0.341
281	0.338
281	0.336
282	0.334
282	0.332
283	0.33
283	0.328
284	0.326
284	0.324
285	0.323
285	0.321
285	0.319
286	0.317
286	0.315
287	0.313
287	0.311
288	0.31
288	0.308
289	0.306
289	0.305
290	0.303
290	0.302
291	0.3
291	0.299
292	0.297
292	0.296
292	0.294
293	0.293
293	0.292
294	0.291
294	0.29
295	0.289
295	0.287
296	0.286
296	0.285
297	0.284
297	0.283
298	0.283
298	0.282
298	0.281
299	0.28
299	0.279
300	0.278
300	0.277
301	0.276
301	0.276
302	0.275
302	0.274
303	0.273
303	0.272
304	0.272
304	0.271
305	0.27
305	0.27
305	0.269
306	0.268
306	0.267
307	0.267
307	0.266
308	0.265
308	0.265
309	0.264
309	0.263
310	0.262
310	0.262
311	0.261
311	0.26
311	0.26
312	0.259
312	0.258
313	0.257
313	0.257
314	0.256
314	0.255
315	0.255
315	0.254
316	0.253
316	0.253
317	0.252
317	0.251
318	0.251
318	0.25
318	0.249
319	0.249
319	0.248
320	0.247
320	0.247
321	0.246
321	0.245
322	0.244
322	0.244
323	0.243
323	0.242
324	0.241
324	0.241
324	0.24
325	0.239
325	0.239
326	0.238
326	0.238
327	0.237
327	0.236
328	0.236
328	0.235
329	0.235
329	0.234
330	0.233
330	0.233
330	0.232
331	0.232
331	0.231
332	0.23
332	0.23
333	0.23
333	0.229
334	0.229
334	0.228
335	0.227
335	0.227
336	0.226
336	0.226
336	0.225
337	0.225
337	0.224
338	0.223
338	0.223
339	0.222
339	0.222
340	0.221
340	0.221
341	0.22
341	0.22
342	0.219
342	0.219
342	0.218
343	0.218
343	0.218
344	0.217
344	0.217
345	0.217
345	0.217
346	0.216
346	0.216
347	0.216
347	0.215
348	0.215
348	0.215
348	0.214
349	0.214
349	0.213
350	0.213
350	0.213
351	0.212
351	0.212
352	0.212
352	0.212
353	0.211
353	0.211
354	0.211
354	0.211
354	0.21
355	0.21
355	0.21
356	0.209
356	0.209
357	0.208
357	0.208
358	0.208
358	0.208
359	0.208
359	0.208
360	0.208
360	0.208
360	0.208
361	0.208
361	0.208
362	0.209
362	0.208
363	0.208
363	0.208
364	0.208
364	0.208
365	0.208
365	0.207
366	0.207
366	0.207
366	0.208
367	0.207
367	0.207
368	0.207
368	0.207
369	0.206
369	0.206
370	0.206
370	0.206
371	0.205
371	0.205
372	0.205
372	0.205
372	0.205
373	0.205
373	0.204
374	0.204
374	0.204
375	0.204
375	0.204
376	0.205
376	0.204
377	0.205
377	0.205
378	0.205
378	0.204
378	0.204
379	0.204
379	0.204
380	0.204
380	0.204
381	0.204
381	0.203
382	0.203
382	0.203
383	0.203
383	0.202
383	0.202
384	0.202
384	0.201
385	0.201
385	0.201
386	0.201
386	0.201
387	0.201
387	0.201
388	0.201
388	0.201
389	0.2
389	0.2
389	0.2
390	0.2
390	0.2
391	0.2
391	0.2
392	0.2
392	0.2
393	0.2
393	0.2
394	0.2
394	0.2
394	0.2
395	0.199
395	0.199
396	0.199
396	0.199
397	0.198
397	0.198
398	0.198
398	0.198
399	0.198
399	0.197
400	0.197
400	0.197
400	0.197
401	0.196
401	0.196
402	0.196
402	0.195
403	0.195
403	0.195
404	0.195
404	0.195
405	0.194
405	0.194
405	0.194
406	0.194
406	0.194
407	0.194
407	0.194
408	0.194
408	0.194
409	0.194
409	0.193
410	0.193
410	0.193
411	0.193
411	0.193
411	0.193
412	0.193
412	0.192
413	0.192
413	0.192
414	0.192
414	0.192
415	0.191
415	0.191
416	0.191
416	0.191
416	0.19
417	0.19
417	0.19
418	0.19
418	0.19
419	0.19
419	0.191
420	0.191
420	0.191
421	0.191
421	0.191
421	0.191
422	0.192
422	0.192
423	0.192
423	0.191
424	0.191
424	0.191
425	0.19
425	0.19
426	0.19
426	0.19
427	0.19
427	0.19
427	0.19
428	0.19
428	0.191
429	0.191
429	0.191
430	0.191
430	0.191
431	0.19
431	0.19
432	0.19
432	0.189
432	0.189
433	0.189
433	0.188
434	0.188
434	0.189
435	0.188
435	0.189
436	0.189
436	0.189
437	0.189
437	0.189
437	0.189
438	0.189
438	0.189
439	0.189
439	0.188
440	0.188
440	0.187
441	0.187
441	0.187
442	0.187
442	0.187
442	0.187
443	0.188
443	0.188
444	0.187
444	0.188
445	0.188
445	0.188
446	0.188
446	0.188
447	0.188
447	0.188
447	0.188
448	0.188
448	0.188
449	0.188
449	0.188
450	0.188
450	0.188
451	0.188
451	0.188
452	0.188
452	0.188
452	0.188
453	0.188
453	0.187
454	0.187
454	0.187
455	0.187
455	0.188
456	0.188
456	0.188
457	0.187
457	0.187
458	0.188
458	0.188
458	0.189
459	0.189
459	0.189
460	0.188
460	0.188
461	0.188
461	0.188
462	0.188
462	0.189
463	0.189
463	0.189
463	0.189
464	0.189
464	0.19
465	0.19
465	0.191
466	0.191
466	0.191
467	0.191
467	0.191
467	0.191
468	0.191
468	0.19
469	0.19
469	0.19
470	0.19
470	0.19
471	0.19
471	0.19
472	0.19
472	0.19
472	0.191
473	0.192
473	0.192
474	0.193
474	0.194
475	0.194
475	0.195
476	0.195
476	0.196
477	0.196
477	0.197
477	0.198
478	0.198
478	0.199
479	0.199
479	0.2
480	0.2
480	0.201
481	0.202
481	0.203
482	0.204
482	0.204
482	0.206
483	0.208
483	0.209
484	0.211
484	0.212
485	0.213
485	0.214
486	0.215
486	0.216
487	0.217
487	0.218
487	0.218
488	0.218
488	0.218
489	0.218
489	0.219
490	0.22
490	0.22
491	0.221
491	0.222
492	0.223
492	0.224
492	0.225
493	0.226
493	0.227
494	0.229
494	0.231
495	0.232
495	0.234
496	0.235
496	0.237
496	0.238
497	0.239
497	0.241
498	0.242
498	0.243
499	0.244
499	0.246
500	0.248
500	0.25
501	0.251
501	0.253
501	0.254
502	0.256
502	0.258
503	0.26
503	0.261
504	0.262
504	0.263
505	0.265
505	0.266
506	0.267
506	0.268
506	0.27
507	0.27
507	0.272
508	0.273
508	0.274
509	0.276
509	0.277
510	0.278
510	0.28
511	0.281
511	0.282
511	0.283
512	0.284
512	0.285
513	0.286
513	0.286
514	0.286
514	0.287
515	0.288
515	0.288
515	0.288
516	0.289
516	0.29
517	0.291
517	0.292
518	0.292
518	0.292
519	0.292
519	0.292
520	0.291
520	0.291
520	0.29
521	0.289
521	0.289
522	0.288
522	0.288
523	0.288
523	0.288
524	0.289
524	0.289
524	0.29
525	0.291
525	0.291
526	0.292
526	0.293
527	0.294
527	0.294
528	0.294
528	0.294
529	0.293
529	0.293
529	0.292
530	0.292
530	0.291
531	0.291
531	0.29
532	0.288
532	0.287
533	0.286
533	0.285
533	0.284
534	0.283
534	0.281
535	0.28
535	0.279
536	0.278
536	0.276
537	0.275
537	0.274
538	0.272
538	0.271
538	0.269
539	0.268
539	0.267
540	0.265
540	0.263
541	0.261
541	0.259
542	0.257
542	0.255
542	0.253
543	0.251
543	0.249
544	0.247
544	0.245
545	0.244
545	0.242
546	0.241
546	0.239
547	0.238
547	0.235
547	0.233
548	0.232
548	0.23
549	0.228
549	0.226
550	0.224
550	0.222
551	0.219
551	0.217
551	0.215
552	0.213
552	0.211
553	0.21
553	0.208
554	0.206
554	0.203
555	0.201
555	0.198
556	0.196
556	0.193
556	0.19
557	0.188
557	0.186
558	0.183
558	0.181
559	0.179
559	0.177
560	0.175
560	0.173
560	0.172
561	0.171
561	0.17
562	0.169
562	0.167
563	0.165
563	0.163
564	0.161
564	0.159
564	0.157
565	0.156
565	0.154
566	0.152
566	0.15
567	0.149
567	0.148
568	0.148
568	0.146
568	0.146
569	0.146
569	0.145
570	0.144
570	0.143
571	0.143
571	0.142
572	0.141
572	0.14
573	0.139
573	0.138
573	0.137
574	0.136
574	0.135
575	0.134
575	0.134
576	0.134
576	0.132
577	0.13
577	0.129
577	0.128
578	0.127
578	0.127
579	0.127
579	0.127
580	0.125
580	0.122
581	0.12
581	0.118
581	0.118
582	0.118
582	0.117
583	0.117
583	0.116
584	0.113
584	0.11
585	0.11
585	0.11
585	0.11
586	0.11
586	0.109
587	0.107
587	0.105
588	0.103
588	0.102
589	0.101
589	0.101
590	0.1
590	0.1
590	0.1
591	0.101
591	0.1
592	0.099
592	0.099
593	0.099
593	0.099
594	0.098
594	0.097
594	0.096
595	0.096
595	0.095
596	0.094
596	0.094
597	0.096
597	0.097
598	0.097
598	0.097
598	0.097
599	0.097
599	0.097
600	0.096
600	0.095
601	0.094
601	0.093
602	0.092
602	0.091
602	0.09
603	0.089
603	0.09
604	0.09
604	0.09
605	0.091
605	0.092
606	0.092
606	0.091
606	0.09
607	0.09
607	0.09
608	0.089
608	0.088
609	0.087
609	0.087
610	0.087
610	0.086
610	0.087
611	0.088
611	0.089
612	0.091
612	0.092
613	0.094
613	0.095
614	0.096
614	0.095
614	0.096
615	0.096
615	0.096
616	0.096
616	0.096
617	0.096
617	0.095
618	0.095
618	0.095
618	0.094
619	0.095
619	0.095
620	0.096
620	0.097
621	0.097
621	0.097
622	0.097
622	0.098
622	0.097
623	0.097
623	0.098
624	0.099
624	0.099
625	0.099
625	0.1
626	0.1
626	0.101
626	0.102
627	0.103
627	0.104
628	0.105
628	0.105
629	0.106
629	0.106
630	0.106
630	0.106
630	0.106
631	0.107
631	0.107
632	0.107
632	0.107
633	0.108
633	0.109
634	0.11
634	0.111
634	0.113
635	0.114
635	0.115
636	0.117
636	0.118
637	0.119
637	0.12
638	0.121
638	0.122
638	0.123
639	0.124
639	0.125
640	0.126
640	0.127
641	0.129
641	0.13
642	0.132
642	0.134
642	0.135
643	0.137
643	0.138
644	0.14
644	0.141
645	0.143
645	0.145
646	0.147
646	0.15
646	0.152
647	0.155
647	0.158
648	0.16
648	0.163
649	0.166
649	0.169
650	0.172
650	0.175
650	0.177
651	0.18
651	0.182
652	0.184
652	0.185
653	0.188
653	0.194
653	0.2
654	0.159
654	0.129
655	0.131
655	0.133
656	0.135
656	0.136
657	0.138
657	0.14
657	0.142
658	0.14
658	0.133
659	0.169
659	0.219
660	0.227
660	0.23
661	0.232
661	0.234
661	0.237
662	0.24
662	0.243
663	0.246
663	0.248
664	0.251
664	0.253
665	0.255
665	0.257
665	0.26
666	0.262
666	0.264
667	0.267
667	0.269
668	0.272
668	0.274
669	0.276
669	0.279
669	0.282
670	0.285
670	0.287
671	0.289
671	0.29
672	0.292
672	0.293
672	0.295
673	0.297
673	0.299
674	0.3
674	0.302
675	0.303
675	0.305
676	0.308
676	0.31
676	0.312
677	0.314
677	0.316
678	0.317
678	0.318
679	0.319
679	0.32
680	0.322
680	0.323
680	0.324
681	0.325
681	0.326
682	0.327
682	0.328
683	0.33
683	0.331
684	0.332
684	0.332
684	0.333
685	0.333
685	0.333
686	0.333
686	0.333
687	0.333
687	0.332
687	0.332
688	0.331
688	0.331
689	0.332
689	0.333
690	0.333
690	0.333
691	0.333
691	0.334
691	0.333
692	0.333
692	0.332
693	0.332
693	0.331
694	0.33
694	0.328
695	0.327
695	0.327
695	0.327
696	0.325
696	0.324
697	0.324
697	0.323
698	0.321
698	0.32
698	0.318
699	0.317
699	0.314
700	0.311
700	0.309
701	0.307
701	0.305
702	0.303
702	0.3
702	0.298
703	0.296
703	0.294
704	0.291
704	0.29
705	0.289
705	0.287
705	0.285
706	0.284
706	0.283
707	0.281
707	0.279
708	0.278
708	0.277
709	0.275
709	0.273
709	0.271
710	0.269
710	0.267
711	0.265
711	0.263
712	0.261
712	0.259
713	0.257
713	0.255
713	0.253
714	0.25
714	0.247
715	0.244
715	0.242
716	0.238
716	0.236
716	0.232
717	0.229
717	0.226
718	0.223
718	0.22
719	0.218
719	0.216
720	0.214
720	0.212
720	0.209
721	0.207
721	0.205
722	0.203
722	0.201
723	0.199
723	0.198
723	0.196
724	0.194
724	0.192
725	0.19
725	0.188
726	0.186
726	0.184
727	0.182
727	0.18
727	0.178
728	0.176
728	0.174
729	0.173
729	0.171
730	0.169
730	0.167
730	0.165
731	0.163
731	0.162
732	0.161
732	0.16
733	0.159
733	0.157
734	0.156
734	0.154
734	0.154
735	0.153
735	0.152
736	0.15
736	0.148
737	0.146
737	0.145
737	0.143
738	0.141
738	0.138
739	0.136
739	0.134
740	0.131
740	0.13
741	0.129
741	0.127
741	0.124
742	0.122
742	0.12
743	0.119
743	0.118
744	0.117
744	0.116
744	0.114
745	0.112
745	0.11
746	0.108
746	0.107
747	0.106
747	0.105
748	0.104
748	0.103
748	0.101
749	0.1
749	0.099
750	0.098
750	0.098
751	0.098
751	0.097
751	0.097
752	0.096
752	0.095
753	0.094
753	0.093
754	0.093
754	0.092
754	0.091
755	0.091
755	0.09
756	0.089
756	0.087
757	0.086
757	0.086
758	0.086
758	0.085
758	0.085
759	0.084
759	0.083
760	0.081
760	0.079
761	0.078
761	0.077
761	0.076
762	0.074
762	0.072
763	0.071
763	0.068
764	0.066
764	0.064
764	0.062
765	0.06
765	0.058
766	0.057
766	0.057
767	0.056
767	0.054
768	0.051
768	0.05
768	0.049
769	0.048
769	0.047
770	0.046
770	0.045
771	0.043
771	0.04
771	0.038
772	0.036
772	0.034
773	0.032
773	0.03
774	0.028
774	0.026
775	0.024
775	0.022
775	0.02
776	0.018
776	0.016
777	0.014
777	0.012
778	0.01
778	0.007
778	0.005
779	0.003
779	0.001
780	-0.002
780	-0.004
781	-0.007
781	-0.011
781	-0.014
782	-0.018
782	-0.023
783	-0.027
783	-0.031
784	-0.036
784	-0.041
784	-0.046
785	-0.051
785	-0.056
786	-0.061
786	-0.065
787	-0.069
787	-0.073
788	-0.078
788	-0.084
788	-0.091
789	-0.098
789	-0.102
790	-0.104
790	-0.108
791	-0.112
791	-0.116
791	-0.118
792	-0.114
792	-0.104
793	-0.099
793	-0.095
794	-0.093
794	-0.096
794	-0.1
795	-0.102
795	-0.103
796	-0.103
796	-0.106
797	-0.115
797	-0.126
797	-0.132
798	-0.138
798	-0.141
799	-0.142
799	-0.141
800	-0.141
800	-0.142
801	-0.145
801	-0.146
801	-0.145
802	-0.146
802	-0.147
803	-0.148
803	-0.148
804	-0.147
804	-0.142
804	-0.135
805	-0.131
805	-0.13
806	-0.128
806	-0.127
807	-0.127
807	-0.127
807	-0.127
808	-0.127
808	-0.128
809	-0.133
809	-0.139
810	-0.143
810	-0.146
810	-0.149
811	-0.152
811	-0.152
812	-0.148
812	-0.145
813	-0.145
813	-0.146
813	-0.147
814	-0.149
814	-0.149
815	-0.147
815	-0.144
816	-0.14
816	-0.137
817	-0.136
817	-0.134
817	-0.127
818	-0.118
818	-0.108
819	-0.096
819	-0.086
820	-0.077
820	-0.068
820	-0.06
821	-0.052
821	-0.044
822	-0.038
822	-0.032
823	-0.027
823	-0.023
823	-0.019
824	-0.016
824	-0.012
825	-0.007
825	-0.003
826	0
826	0.003
826	0.005
827	0.008
827	0.01
828	0.011
828	0.013
829	0.015
829	0.016
829	0.017
830	0.018
830	0.019
831	0.02
831	0.021
832	0.022
832	0.023
832	0.023
833	0.024
833	0.024
834	0.024
834	0.025
835	0.025
835	0.025
835	0.025
836	0.025
836	0.025
837	0.026
837	0.026
838	0.026
838	0.027
839	0.027
839	0.027
839	0.027
840	0.027
840	0.027
841	0.026
841	0.026
842	0.026
842	0.026
842	0.025
843	0.025
843	0.025
844	0.026
844	0.026
845	0.026
845	0.026
845	0.026
846	0.026
846	0.026
847	0.027
847	0.027
848	0.027
848	0.027
848	0.028
849	0.028
849	0.028
850	0.029
850	0.029
851	0.029
851	0.03
851	0.029
852	0.029
852	0.029
853	0.028
853	0.028
854	0.028
854	0.028
854	0.028
855	0.028
855	0.027
856	0.027
856	0.027
857	0.027
857	0.027
857	0.027
858	0.027
858	0.027
859	0.027
859	0.027
860	0.028
860	0.028
860	0.029
861	0.03
861	0.031
862	0.031
862	0.032
863	0.032
863	0.032
863	0.033
864	0.033
864	0.033
865	0.033
865	0.034
866	0.034
866	0.034
866	0.035
867	0.035
867	0.036
868	0.036
868	0.036
869	0.036
869	0.036
869	0.035
870	0.034
870	0.034
871	0.033
871	0.033
872	0.032
872	0.032
872	0.032
873	0.032
873	0.032
874	0.032
874	0.032
875	0.032
875	0.031
875	0.03
876	0.03
876	0.029
877	0.028
877	0.027
878	0.025
878	0.025
878	0.024
879	0.024
879	0.023
880	0.023
880	0.023
881	0.023
881	0.023
881	0.023
882	0.023
882	0.024
883	0.023
883	0.023
884	0.023
884	0.023
884	0.022
885	0.022
885	0.022
886	0.022
886	0.023
887	0.023
887	0.023
887	0.024
888	0.025
888	0.025
889	0.026
889	0.027
890	0.028
890	0.028
890	0.029
891	0.029
891	0.029
892	0.029
892	0.03
893	0.03
893	0.03
893	0.03
894	0.03
894	0.03
895	0.03
895	0.03
895	0.029
896	0.029
896	0.029
897	0.028
897	0.028
898	0.028
898	0.027
898	0.027
899	0.027
899	0.027
900	0.027
900	0.027
901	0.027
901	0.027
901	0.028
902	0.028
902	0.028
903	0.028
903	0.029
904	0.029
904	0.03
904	0.031
905	0.031
905	0.031
906	0.032
906	0.032
907	0.032
907	0.032
907	0.032
908	0.032
908	0.032
909	0.032
909	0.032
910	0.033
910	0.033
910	0.033
911	0.033
911	0.034
912	0.034
912	0.034
913	0.034
913	0.033
913	0.033
914	0.032
914	0.032
915	0.031
915	0.031
916	0.03
916	0.029
916	0.028
917	0.027
917	0.026
918	0.025
918	0.024
918	0.022
919	0.021
919	0.021
920	0.02
920	0.019
921	0.019
921	0.019
921	0.019
922	0.019
922	0.02
923	0.02
923	0.021
924	0.021
924	0.021
924	0.022
925	0.023
925	0.023
926	0.024
926	0.024
927	0.025
927	0.025
927	0.025
928	0.025
928	0.025
929	0.024
929	0.024
930	0.023
930	0.023
930	0.022
931	0.021
931	0.021
932	0.021
932	0.02
933	0.02
933	0.02
933	0.019
934	0.019
934	0.018
935	0.018
935	0.017
935	0.017
936	0.016
936	0.016
937	0.015
937	0.015
938	0.015
938	0.014
938	0.015
939	0.015
939	0.016
940	0.017
940	0.018
941	0.018
941	0.019
941	0.02
942	0.021
942	0.022
943	0.023
943	0.023
944	0.023
944	0.023
944	0.024
945	0.024
945	0.024
946	0.024
946	0.024
946	0.025
947	0.025
947	0.026
948	0.027
948	0.027
949	0.027
949	0.028
949	0.028
950	0.029
950	0.029
951	0.029
951	0.029
952	0.029
952	0.029
952	0.028
953	0.027
953	0.027
954	0.026
954	0.026
955	0.026
955	0.025
955	0.025
956	0.025
956	0.025
957	0.025
957	0.025
957	0.025
958	0.025
958	0.025
959	0.025
959	0.025
960	0.024
960	0.024
960	0.024
961	0.024
961	0.024
962	0.024
962	0.024
963	0.025
963	0.025
963	0.025
964	0.025
964	0.026
965	0.025
965	0.025
966	0.026
966	0.025
966	0.025
967	0.025
967	0.024
968	0.023
968	0.022
968	0.021
969	0.02
969	0.02
970	0.019
970	0.018
971	0.018
971	0.018
971	0.017
972	0.017
972	0.017
973	0.018
973	0.018
974	0.018
974	0.019
974	0.019
975	0.02
975	0.021
976	0.022
976	0.023
976	0.024
977	0.024
977	0.025
978	0.026
978	0.026
979	0.026
979	0.027
979	0.026
980	0.026
980	0.026
981	0.025
981	0.024
982	0.024
982	0.023
982	0.022
983	0.021
983	0.02
984	0.019
984	0.018
984	0.017
985	0.015
985	0.014
986	0.013
986	0.012
987	0.012
987	0.011
987	0.011
988	0.011
988	0.011
989	0.011
989	0.012
990	0.012
990	0.013
990	0.014
991	0.015
991	0.016
992	0.017
992	0.018
992	0.019
993	0.019
993	0.02
994	0.02
994	0.02
995	0.02
995	0.02
995	0.019
996	0.018
996	0.017
997	0.016
997	0.015
997	0.015
998	0.015
998	0.015
999	0.015
999	0.016
1000	0.016
1000	0.017
1000	0.017
1001	0.018
1001	0.019
1002	0.02
1002	0.021
1003	0.021
1003	0.021
1003	0.022
1004	0.022
1004	0.022
1005	0.021
1005	0.021
1005	0.021
1006	0.02
1006	0.02
1007	0.02
1007	0.02
1008	0.02
1008	0.019
1008	0.02
1009	0.019
1009	0.02
1010	0.02
1010	0.02
1010	0.02
1011	0.02
1011	0.02
1012	0.02
1012	0.02
1013	0.02
1013	0.019
1013	0.019
1014	0.018
1014	0.017
1015	0.016
1015	0.015
1016	0.014
1016	0.013
1016	0.012
1017	0.011
1017	0.01
1018	0.009
1018	0.008
1018	0.008
1019	0.007
1019	0.007
1020	0.007
1020	0.007
1021	0.007
1021	0.007
1021	0.007
1022	0.008
1022	0.008
1023	0.009
1023	0.01
1023	0.01
1024	0.01
1024	0.01
1025	0.011
1025	0.011
1026	0.01
1026	0.01
1026	0.01
1027	0.01
1027	0.009
1028	0.009
1028	0.009
1028	0.008
1029	0.008
1029	0.007
1030	0.007
1030	0.007
1031	0.007
1031	0.006
1031	0.006
1032	0.006
1032	0.006
1033	0.006
1033	0.006
1033	0.006
1034	0.006
1034	0.005
1035	0.005
1035	0.005
1036	0.005
1036	0.005
1036	0.005
1037	0.005
1037	0.006
1038	0.006
1038	0.006
1039	0.007
1039	0.007
1039	0.008
1040	0.008
1040	0.009
1041	0.009
1041	0.01
1041	0.01
1042	0.011
1042	0.011
1043	0.011
1043	0.012
1044	0.013
1044	0.013
1044	0.013
1045	0.014
1045	0.014
1046	0.013
1046	0.013
1046	0.013
1047	0.013
1047	0.014
1048	0.014
1048	0.014
1049	0.013
1049	0.013
1049	0.012
1050	0.011
1050	0.01
1051	0.01
1051	0.009
1051	0.008
1052	0.007
1052	0.006
1053	0.005
1053	0.005
1053	0.004
1054	0.003
1054	0.002
1055	0.002
1055	0.001
1056	0
1056	-0.001
1056	-0.002
1057	-0.003
1057	-0.004
1058	-0.004
1058	-0.005
1058	-0.005
1059	-0.006
1059	-0.006
1060	-0.007
1060	-0.006
1061	-0.006
1061	-0.006
1061	-0.005
1062	-0.005
1062	-0.005
1063	-0.005
1063	-0.005
1063	-0.005
1064	-0.005
1064	-0.004
1065	-0.004
1065	-0.004
1066	-0.003
1066	-0.003
1066	-0.002
1067	-0.002
1067	-0.001
1068	-0.001
1068	-0.001
1068	-0.001
1069	-0.002
1069	-0.002
1070	-0.003
1070	-0.004
1071	-0.004
1071	-0.005
1071	-0.006
1072	-0.007
1072	-0.008
1073	-0.009
1073	-0.009
1073	-0.01
1074	-0.011
1074	-0.011
1075	-0.012
1075	-0.013
1076	-0.014
1076	-0.015
1076	-0.016
1077	-0.016
1077	-0.016
1078	-0.016
1078	-0.016
1078	-0.015
1079	-0.015
1079	-0.014
1080	-0.013
1080	-0.013
1080	-0.012
1081	-0.011
1081	-0.01
1082	-0.009
1082	-0.008
1083	-0.008
1083	-0.007
1083	-0.007
1084	-0.007
1084	-0.006
1085	-0.006
1085	-0.005
1085	-0.005
1086	-0.005
1086	-0.006
1087	-0.006
1087	-0.005
1088	-0.006
1088	-0.007
1088	-0.006
1089	-0.008
1089	-0.009
1090	-0.009
1090	-0.01
1090	-0.01
1091	-0.01
1091	-0.01
1092	-0.01
1092	-0.01
1092	-0.009
1093	-0.009
1093	-0.008
1094	-0.007
1094	-0.007
1095	-0.007
1095	-0.007
1095	-0.006
1096	-0.006
1096	-0.006
1097	-0.004
1097	-0.003
1097	-0.002
1098	-0
1098	0.001
1099	0.003
1099	0.006
1100	0.008
1100	0.01
1100	0.011
1101	0.013
1101	0.015
1102	0.017
1102	0.018
1102	0.021
1103	0.023
1103	0.026
1104	0.03
1104	0.034
1104	0.038
1105	0.042
1105	0.045
1106	0.049
1106	0.054
1107	0.059
1107	0.065
1107	0.074
1108	0.105
1108	0.146
1109	0.203
1109	0.294
1109	0.363
1110	0.496
1110	0.828
1111	-0
1111	-0
