Data from 17c-2a_Absorbance__1069__01070.txt Node

Date: Fri Jan 26 10:23:08 CET 2024
User: Marek
Spectrometer: MAYP115816
Trigger mode: 0
Integration Time (sec): 2.000000E-1
Scans to average: 10
Electric dark correction enabled: true
Nonlinearity correction enabled: true
Boxcar width: 5
XAxis mode: Wavelengths
Number of Pixels in Spectrum: 2068
>>>>>Begin Spectral Data<<<<<
199	-1.37
199	-1.236
200	-1.091
200	-0.983
201	-0.915
201	-0.875
202	-0.813
202	-0.766
203	-0.728
203	-0.695
204	-0.671
204	-0.649
205	-0.63
205	-0.621
205	-0.619
206	-0.616
206	-0.613
207	-0.609
207	-0.61
208	-0.609
208	-0.608
209	-0.605
209	-0.604
210	-0.605
210	-0.605
211	-0.606
211	-0.608
212	-0.608
212	-0.608
213	-0.606
213	-0.603
213	-0.603
214	-0.602
214	-0.6
215	-0.594
215	-0.592
216	-0.589
216	-0.588
217	-0.585
217	-0.583
218	-0.58
218	-0.578
219	-0.573
219	-0.572
220	-0.572
220	-0.573
221	-0.571
221	-0.57
221	-0.566
222	-0.561
222	-0.557
223	-0.553
223	-0.551
224	-0.546
224	-0.539
225	-0.532
225	-0.525
226	-0.517
226	-0.505
227	-0.496
227	-0.487
228	-0.472
228	-0.456
229	-0.438
229	-0.418
229	-0.396
230	-0.37
230	-0.342
231	-0.314
231	-0.283
232	-0.252
232	-0.217
233	-0.183
233	-0.148
234	-0.114
234	-0.082
235	-0.05
235	-0.021
236	0.008
236	0.035
236	0.06
237	0.084
237	0.105
238	0.124
238	0.141
239	0.158
239	0.172
240	0.185
240	0.197
241	0.207
241	0.217
242	0.226
242	0.233
243	0.241
243	0.247
243	0.253
244	0.258
244	0.263
245	0.267
245	0.272
246	0.276
246	0.28
247	0.283
247	0.286
248	0.289
248	0.293
249	0.296
249	0.298
250	0.301
250	0.304
250	0.306
251	0.308
251	0.311
252	0.313
252	0.315
253	0.317
253	0.319
254	0.321
254	0.322
255	0.324
255	0.325
256	0.327
256	0.328
257	0.329
257	0.33
258	0.331
258	0.331
258	0.332
259	0.333
259	0.333
260	0.333
260	0.334
261	0.334
261	0.334
262	0.334
262	0.334
263	0.333
263	0.333
264	0.333
264	0.332
265	0.332
265	0.331
265	0.33
266	0.329
266	0.328
267	0.326
267	0.325
268	0.324
268	0.322
269	0.321
269	0.32
270	0.318
270	0.317
271	0.315
271	0.313
272	0.311
272	0.309
272	0.307
273	0.305
273	0.304
274	0.302
274	0.3
275	0.298
275	0.296
276	0.294
276	0.292
277	0.29
277	0.288
278	0.285
278	0.283
278	0.281
279	0.278
279	0.276
280	0.274
280	0.271
281	0.269
281	0.267
282	0.265
282	0.263
283	0.262
283	0.26
284	0.258
284	0.257
285	0.255
285	0.253
285	0.251
286	0.249
286	0.248
287	0.246
287	0.245
288	0.243
288	0.241
289	0.24
289	0.238
290	0.237
290	0.236
291	0.234
291	0.233
292	0.232
292	0.231
292	0.23
293	0.228
293	0.227
294	0.226
294	0.225
295	0.224
295	0.223
296	0.223
296	0.222
297	0.221
297	0.22
298	0.219
298	0.219
298	0.218
299	0.218
299	0.217
300	0.216
300	0.216
301	0.215
301	0.214
302	0.214
302	0.213
303	0.213
303	0.212
304	0.211
304	0.211
305	0.21
305	0.21
305	0.209
306	0.209
306	0.208
307	0.207
307	0.207
308	0.206
308	0.206
309	0.205
309	0.204
310	0.204
310	0.203
311	0.203
311	0.202
311	0.202
312	0.202
312	0.201
313	0.2
313	0.2
314	0.199
314	0.199
315	0.198
315	0.198
316	0.197
316	0.197
317	0.196
317	0.196
318	0.195
318	0.195
318	0.194
319	0.194
319	0.193
320	0.193
320	0.192
321	0.191
321	0.191
322	0.19
322	0.19
323	0.189
323	0.189
324	0.188
324	0.187
324	0.187
325	0.187
325	0.186
326	0.186
326	0.185
327	0.185
327	0.184
328	0.184
328	0.183
329	0.183
329	0.182
330	0.182
330	0.181
330	0.181
331	0.18
331	0.18
332	0.179
332	0.179
333	0.179
333	0.178
334	0.178
334	0.177
335	0.177
335	0.176
336	0.176
336	0.176
336	0.175
337	0.175
337	0.174
338	0.174
338	0.173
339	0.173
339	0.172
340	0.172
340	0.172
341	0.171
341	0.171
342	0.171
342	0.17
342	0.17
343	0.17
343	0.17
344	0.169
344	0.169
345	0.169
345	0.169
346	0.169
346	0.168
347	0.168
347	0.168
348	0.167
348	0.167
348	0.167
349	0.167
349	0.166
350	0.166
350	0.166
351	0.166
351	0.165
352	0.165
352	0.165
353	0.165
353	0.165
354	0.165
354	0.164
354	0.164
355	0.164
355	0.163
356	0.163
356	0.163
357	0.162
357	0.162
358	0.162
358	0.162
359	0.162
359	0.162
360	0.162
360	0.162
360	0.162
361	0.162
361	0.162
362	0.162
362	0.163
363	0.163
363	0.162
364	0.162
364	0.162
365	0.162
365	0.162
366	0.162
366	0.163
366	0.163
367	0.162
367	0.162
368	0.162
368	0.162
369	0.162
369	0.161
370	0.161
370	0.161
371	0.16
371	0.16
372	0.16
372	0.16
372	0.16
373	0.16
373	0.16
374	0.16
374	0.16
375	0.16
375	0.16
376	0.16
376	0.16
377	0.16
377	0.16
378	0.161
378	0.161
378	0.161
379	0.16
379	0.16
380	0.16
380	0.16
381	0.16
381	0.16
382	0.16
382	0.159
383	0.159
383	0.159
383	0.159
384	0.159
384	0.159
385	0.159
385	0.159
386	0.159
386	0.159
387	0.159
387	0.158
388	0.158
388	0.158
389	0.158
389	0.158
389	0.158
390	0.158
390	0.158
391	0.158
391	0.158
392	0.158
392	0.158
393	0.158
393	0.158
394	0.158
394	0.158
394	0.158
395	0.158
395	0.158
396	0.157
396	0.157
397	0.157
397	0.157
398	0.157
398	0.157
399	0.157
399	0.156
400	0.156
400	0.156
400	0.156
401	0.155
401	0.155
402	0.155
402	0.154
403	0.154
403	0.154
404	0.154
404	0.154
405	0.154
405	0.154
405	0.154
406	0.154
406	0.154
407	0.154
407	0.154
408	0.154
408	0.154
409	0.153
409	0.153
410	0.154
410	0.153
411	0.153
411	0.153
411	0.153
412	0.153
412	0.153
413	0.153
413	0.153
414	0.153
414	0.153
415	0.153
415	0.152
416	0.152
416	0.152
416	0.152
417	0.151
417	0.151
418	0.152
418	0.152
419	0.152
419	0.152
420	0.152
420	0.152
421	0.153
421	0.153
421	0.153
422	0.153
422	0.153
423	0.153
423	0.153
424	0.153
424	0.153
425	0.152
425	0.152
426	0.152
426	0.152
427	0.152
427	0.152
427	0.152
428	0.152
428	0.152
429	0.152
429	0.152
430	0.152
430	0.152
431	0.152
431	0.152
432	0.152
432	0.152
432	0.152
433	0.151
433	0.151
434	0.151
434	0.151
435	0.151
435	0.152
436	0.152
436	0.152
437	0.152
437	0.152
437	0.152
438	0.152
438	0.152
439	0.151
439	0.151
440	0.151
440	0.151
441	0.151
441	0.15
442	0.151
442	0.151
442	0.151
443	0.151
443	0.151
444	0.151
444	0.151
445	0.151
445	0.152
446	0.152
446	0.152
447	0.152
447	0.152
447	0.152
448	0.152
448	0.152
449	0.152
449	0.152
450	0.152
450	0.152
451	0.152
451	0.152
452	0.152
452	0.152
452	0.151
453	0.151
453	0.151
454	0.151
454	0.151
455	0.151
455	0.151
456	0.151
456	0.151
457	0.151
457	0.151
458	0.151
458	0.151
458	0.151
459	0.152
459	0.152
460	0.151
460	0.151
461	0.151
461	0.152
462	0.152
462	0.153
463	0.153
463	0.154
463	0.154
464	0.154
464	0.154
465	0.155
465	0.155
466	0.155
466	0.155
467	0.155
467	0.155
467	0.155
468	0.154
468	0.154
469	0.154
469	0.154
470	0.154
470	0.154
471	0.154
471	0.154
472	0.154
472	0.154
472	0.155
473	0.156
473	0.156
474	0.156
474	0.157
475	0.157
475	0.158
476	0.159
476	0.159
477	0.159
477	0.16
477	0.16
478	0.16
478	0.161
479	0.162
479	0.162
480	0.163
480	0.163
481	0.164
481	0.164
482	0.165
482	0.166
482	0.167
483	0.168
483	0.17
484	0.171
484	0.172
485	0.173
485	0.174
486	0.174
486	0.175
487	0.176
487	0.177
487	0.177
488	0.177
488	0.177
489	0.177
489	0.178
490	0.179
490	0.179
491	0.18
491	0.181
492	0.182
492	0.183
492	0.184
493	0.184
493	0.185
494	0.187
494	0.188
495	0.19
495	0.191
496	0.192
496	0.193
496	0.194
497	0.195
497	0.196
498	0.197
498	0.198
499	0.199
499	0.2
500	0.202
500	0.203
501	0.205
501	0.206
501	0.207
502	0.209
502	0.21
503	0.212
503	0.213
504	0.214
504	0.215
505	0.216
505	0.217
506	0.219
506	0.22
506	0.221
507	0.222
507	0.222
508	0.223
508	0.225
509	0.226
509	0.227
510	0.228
510	0.229
511	0.23
511	0.231
511	0.232
512	0.233
512	0.234
513	0.234
513	0.235
514	0.235
514	0.236
515	0.236
515	0.237
515	0.237
516	0.237
516	0.238
517	0.239
517	0.239
518	0.24
518	0.24
519	0.24
519	0.24
520	0.24
520	0.24
520	0.239
521	0.238
521	0.238
522	0.237
522	0.236
523	0.236
523	0.236
524	0.236
524	0.237
524	0.237
525	0.237
525	0.238
526	0.238
526	0.239
527	0.24
527	0.24
528	0.24
528	0.241
529	0.24
529	0.24
529	0.24
530	0.239
530	0.239
531	0.238
531	0.238
532	0.237
532	0.236
533	0.235
533	0.234
533	0.233
534	0.232
534	0.23
535	0.229
535	0.229
536	0.228
536	0.226
537	0.225
537	0.224
538	0.223
538	0.221
538	0.22
539	0.219
539	0.218
540	0.217
540	0.215
541	0.213
541	0.211
542	0.21
542	0.208
542	0.206
543	0.205
543	0.203
544	0.201
544	0.2
545	0.199
545	0.198
546	0.197
546	0.196
547	0.195
547	0.193
547	0.191
548	0.19
548	0.189
549	0.188
549	0.186
550	0.185
550	0.183
551	0.181
551	0.179
551	0.178
552	0.176
552	0.175
553	0.173
553	0.172
554	0.17
554	0.169
555	0.166
555	0.165
556	0.163
556	0.16
556	0.158
557	0.156
557	0.154
558	0.152
558	0.15
559	0.148
559	0.146
560	0.145
560	0.143
560	0.142
561	0.141
561	0.141
562	0.14
562	0.139
563	0.137
563	0.135
564	0.134
564	0.132
564	0.131
565	0.13
565	0.129
566	0.127
566	0.125
567	0.124
567	0.123
568	0.123
568	0.122
568	0.122
569	0.122
569	0.121
570	0.121
570	0.12
571	0.12
571	0.119
572	0.119
572	0.118
573	0.117
573	0.116
573	0.115
574	0.114
574	0.113
575	0.112
575	0.113
576	0.112
576	0.11
577	0.109
577	0.108
577	0.107
578	0.107
578	0.106
579	0.107
579	0.107
580	0.105
580	0.103
581	0.1
581	0.099
581	0.099
582	0.099
582	0.098
583	0.098
583	0.097
584	0.095
584	0.092
585	0.092
585	0.092
585	0.092
586	0.092
586	0.091
587	0.09
587	0.088
588	0.086
588	0.085
589	0.085
589	0.085
590	0.084
590	0.084
590	0.085
591	0.085
591	0.085
592	0.085
592	0.084
593	0.084
593	0.084
594	0.084
594	0.083
594	0.082
595	0.082
595	0.081
596	0.08
596	0.081
597	0.083
597	0.083
598	0.083
598	0.083
598	0.084
599	0.084
599	0.083
600	0.082
600	0.082
601	0.081
601	0.08
602	0.079
602	0.078
602	0.077
603	0.077
603	0.077
604	0.077
604	0.078
605	0.078
605	0.079
606	0.079
606	0.078
606	0.078
607	0.078
607	0.078
608	0.077
608	0.076
609	0.076
609	0.076
610	0.075
610	0.074
610	0.075
611	0.076
611	0.077
612	0.078
612	0.08
613	0.081
613	0.082
614	0.083
614	0.083
614	0.083
615	0.083
615	0.083
616	0.084
616	0.084
617	0.084
617	0.083
618	0.083
618	0.082
618	0.082
619	0.083
619	0.083
620	0.085
620	0.085
621	0.085
621	0.086
622	0.086
622	0.086
622	0.086
623	0.086
623	0.087
624	0.088
624	0.088
625	0.088
625	0.088
626	0.088
626	0.089
626	0.09
627	0.09
627	0.091
628	0.091
628	0.092
629	0.092
629	0.092
630	0.092
630	0.092
630	0.093
631	0.093
631	0.093
632	0.093
632	0.093
633	0.094
633	0.095
634	0.096
634	0.098
634	0.099
635	0.101
635	0.101
636	0.102
636	0.103
637	0.104
637	0.104
638	0.105
638	0.106
638	0.107
639	0.107
639	0.108
640	0.109
640	0.109
641	0.11
641	0.111
642	0.113
642	0.114
642	0.116
643	0.117
643	0.118
644	0.12
644	0.122
645	0.123
645	0.125
646	0.127
646	0.13
646	0.132
647	0.134
647	0.137
648	0.139
648	0.141
649	0.143
649	0.145
650	0.148
650	0.15
650	0.152
651	0.154
651	0.156
652	0.158
652	0.159
653	0.161
653	0.167
653	0.171
654	0.137
654	0.111
655	0.112
655	0.114
656	0.115
656	0.117
657	0.118
657	0.12
657	0.121
658	0.119
658	0.115
659	0.145
659	0.186
660	0.193
660	0.196
661	0.197
661	0.199
661	0.202
662	0.204
662	0.206
663	0.209
663	0.211
664	0.213
664	0.215
665	0.217
665	0.219
665	0.221
666	0.223
666	0.225
667	0.227
667	0.229
668	0.231
668	0.233
669	0.235
669	0.237
669	0.24
670	0.242
670	0.243
671	0.244
671	0.246
672	0.247
672	0.249
672	0.25
673	0.251
673	0.253
674	0.255
674	0.256
675	0.257
675	0.259
676	0.262
676	0.264
676	0.265
677	0.267
677	0.269
678	0.27
678	0.271
679	0.272
679	0.274
680	0.275
680	0.276
680	0.277
681	0.278
681	0.279
682	0.279
682	0.28
683	0.281
683	0.283
684	0.284
684	0.284
684	0.284
685	0.284
685	0.284
686	0.284
686	0.284
687	0.284
687	0.284
687	0.283
688	0.282
688	0.282
689	0.283
689	0.283
690	0.283
690	0.283
691	0.283
691	0.284
691	0.283
692	0.283
692	0.282
693	0.282
693	0.282
694	0.281
694	0.279
695	0.279
695	0.28
695	0.279
696	0.278
696	0.277
697	0.276
697	0.275
698	0.274
698	0.272
698	0.271
699	0.27
699	0.268
700	0.265
700	0.263
701	0.262
701	0.26
702	0.258
702	0.256
702	0.255
703	0.252
703	0.251
704	0.249
704	0.248
705	0.247
705	0.246
705	0.244
706	0.243
706	0.243
707	0.241
707	0.24
708	0.239
708	0.238
709	0.237
709	0.235
709	0.233
710	0.231
710	0.23
711	0.228
711	0.227
712	0.224
712	0.222
713	0.22
713	0.218
713	0.216
714	0.214
714	0.212
715	0.21
715	0.207
716	0.205
716	0.202
716	0.2
717	0.198
717	0.196
718	0.193
718	0.191
719	0.189
719	0.187
720	0.185
720	0.183
720	0.181
721	0.179
721	0.177
722	0.175
722	0.173
723	0.171
723	0.17
723	0.168
724	0.166
724	0.164
725	0.162
725	0.161
726	0.159
726	0.158
727	0.156
727	0.155
727	0.154
728	0.152
728	0.15
729	0.149
729	0.148
730	0.146
730	0.144
730	0.143
731	0.141
731	0.14
732	0.139
732	0.138
733	0.136
733	0.135
734	0.134
734	0.133
734	0.132
735	0.132
735	0.131
736	0.13
736	0.129
737	0.128
737	0.127
737	0.125
738	0.123
738	0.121
739	0.119
739	0.117
740	0.115
740	0.114
741	0.113
741	0.112
741	0.11
742	0.108
742	0.107
743	0.106
743	0.105
744	0.104
744	0.103
744	0.102
745	0.1
745	0.098
746	0.097
746	0.095
747	0.094
747	0.093
748	0.092
748	0.091
748	0.089
749	0.088
749	0.087
750	0.086
750	0.085
751	0.085
751	0.084
751	0.085
752	0.084
752	0.083
753	0.083
753	0.082
754	0.082
754	0.082
754	0.082
755	0.082
755	0.082
756	0.081
756	0.079
757	0.078
757	0.078
758	0.078
758	0.077
758	0.077
759	0.077
759	0.076
760	0.075
760	0.073
761	0.073
761	0.072
761	0.071
762	0.07
762	0.069
763	0.067
763	0.065
764	0.063
764	0.061
764	0.059
765	0.058
765	0.056
766	0.055
766	0.055
767	0.054
767	0.052
768	0.05
768	0.048
768	0.048
769	0.047
769	0.046
770	0.044
770	0.043
771	0.041
771	0.039
771	0.037
772	0.035
772	0.034
773	0.032
773	0.031
774	0.029
774	0.027
775	0.025
775	0.024
775	0.022
776	0.021
776	0.02
777	0.018
777	0.017
778	0.015
778	0.013
778	0.011
779	0.01
779	0.009
780	0.007
780	0.005
781	0.003
781	0
781	-0.003
782	-0.006
782	-0.01
783	-0.013
783	-0.017
784	-0.021
784	-0.025
784	-0.029
785	-0.034
785	-0.039
786	-0.043
786	-0.047
787	-0.05
787	-0.053
788	-0.058
788	-0.063
788	-0.07
789	-0.076
789	-0.083
790	-0.087
790	-0.092
791	-0.099
791	-0.104
791	-0.108
792	-0.105
792	-0.098
793	-0.095
793	-0.094
794	-0.094
794	-0.096
794	-0.1
795	-0.103
795	-0.103
796	-0.104
796	-0.106
797	-0.115
797	-0.126
797	-0.133
798	-0.138
798	-0.141
799	-0.142
799	-0.142
800	-0.141
800	-0.143
801	-0.145
801	-0.146
801	-0.146
802	-0.147
802	-0.148
803	-0.148
803	-0.148
804	-0.147
804	-0.142
804	-0.136
805	-0.132
805	-0.13
806	-0.128
806	-0.128
807	-0.127
807	-0.127
807	-0.128
808	-0.128
808	-0.129
809	-0.134
809	-0.14
810	-0.143
810	-0.146
810	-0.15
811	-0.152
811	-0.153
812	-0.149
812	-0.146
813	-0.146
813	-0.147
813	-0.148
814	-0.147
814	-0.145
815	-0.14
815	-0.134
816	-0.127
816	-0.122
817	-0.118
817	-0.113
817	-0.104
818	-0.093
818	-0.081
819	-0.07
819	-0.061
820	-0.053
820	-0.047
820	-0.04
821	-0.034
821	-0.028
822	-0.023
822	-0.018
823	-0.014
823	-0.011
823	-0.008
824	-0.005
824	-0.001
825	0.003
825	0.006
826	0.009
826	0.011
826	0.013
827	0.016
827	0.017
828	0.019
828	0.02
829	0.022
829	0.023
829	0.023
830	0.023
830	0.024
831	0.025
831	0.026
832	0.026
832	0.027
832	0.027
833	0.027
833	0.028
834	0.028
834	0.028
835	0.028
835	0.028
835	0.028
836	0.028
836	0.028
837	0.028
837	0.029
838	0.03
838	0.03
839	0.03
839	0.03
839	0.03
840	0.03
840	0.03
841	0.03
841	0.03
842	0.029
842	0.029
842	0.029
843	0.029
843	0.029
844	0.029
844	0.03
845	0.03
845	0.03
845	0.03
846	0.03
846	0.03
847	0.03
847	0.03
848	0.031
848	0.031
848	0.031
849	0.032
849	0.032
850	0.032
850	0.032
851	0.033
851	0.033
851	0.033
852	0.032
852	0.032
853	0.032
853	0.031
854	0.031
854	0.031
854	0.031
855	0.031
855	0.031
856	0.031
856	0.03
857	0.03
857	0.03
857	0.03
858	0.03
858	0.031
859	0.031
859	0.031
860	0.032
860	0.033
860	0.034
861	0.035
861	0.036
862	0.036
862	0.037
863	0.037
863	0.037
863	0.037
864	0.037
864	0.037
865	0.037
865	0.037
866	0.037
866	0.037
866	0.037
867	0.037
867	0.038
868	0.038
868	0.038
869	0.037
869	0.037
869	0.036
870	0.035
870	0.034
871	0.034
871	0.033
872	0.033
872	0.033
872	0.033
873	0.034
873	0.034
874	0.035
874	0.035
875	0.035
875	0.035
875	0.035
876	0.034
876	0.034
877	0.033
877	0.032
878	0.031
878	0.03
878	0.03
879	0.029
879	0.029
880	0.029
880	0.029
881	0.029
881	0.029
881	0.029
882	0.029
882	0.029
883	0.029
883	0.028
884	0.028
884	0.027
884	0.027
885	0.027
885	0.026
886	0.026
886	0.026
887	0.026
887	0.026
887	0.026
888	0.027
888	0.027
889	0.028
889	0.029
890	0.03
890	0.031
890	0.031
891	0.032
891	0.032
892	0.033
892	0.033
893	0.034
893	0.034
893	0.034
894	0.034
894	0.033
895	0.032
895	0.032
895	0.031
896	0.03
896	0.029
897	0.028
897	0.027
898	0.027
898	0.026
898	0.025
899	0.025
899	0.024
900	0.024
900	0.024
901	0.024
901	0.024
901	0.024
902	0.025
902	0.025
903	0.025
903	0.025
904	0.026
904	0.027
904	0.028
905	0.029
905	0.029
906	0.03
906	0.03
907	0.031
907	0.031
907	0.032
908	0.032
908	0.033
909	0.034
909	0.034
910	0.035
910	0.035
910	0.036
911	0.036
911	0.036
912	0.036
912	0.036
913	0.036
913	0.035
913	0.035
914	0.034
914	0.033
915	0.032
915	0.032
916	0.03
916	0.029
916	0.028
917	0.026
917	0.025
918	0.023
918	0.021
918	0.02
919	0.018
919	0.017
920	0.017
920	0.016
921	0.016
921	0.016
921	0.016
922	0.016
922	0.017
923	0.018
923	0.018
924	0.019
924	0.02
924	0.02
925	0.021
925	0.022
926	0.022
926	0.023
927	0.023
927	0.023
927	0.024
928	0.023
928	0.023
929	0.023
929	0.023
930	0.022
930	0.021
930	0.02
931	0.02
931	0.019
932	0.019
932	0.019
933	0.018
933	0.018
933	0.018
934	0.017
934	0.017
935	0.017
935	0.016
935	0.016
936	0.015
936	0.015
937	0.014
937	0.014
938	0.014
938	0.013
938	0.013
939	0.014
939	0.014
940	0.015
940	0.015
941	0.016
941	0.017
941	0.019
942	0.02
942	0.021
943	0.022
943	0.023
944	0.023
944	0.024
944	0.024
945	0.024
945	0.025
946	0.025
946	0.025
946	0.026
947	0.026
947	0.027
948	0.027
948	0.028
949	0.028
949	0.028
949	0.028
950	0.028
950	0.028
951	0.028
951	0.027
952	0.027
952	0.026
952	0.026
953	0.025
953	0.025
954	0.024
954	0.024
955	0.024
955	0.024
955	0.025
956	0.025
956	0.025
957	0.025
957	0.025
957	0.025
958	0.025
958	0.025
959	0.025
959	0.025
960	0.025
960	0.025
960	0.025
961	0.025
961	0.026
962	0.026
962	0.027
963	0.027
963	0.028
963	0.028
964	0.028
964	0.029
965	0.029
965	0.029
966	0.029
966	0.029
966	0.029
967	0.028
967	0.028
968	0.027
968	0.026
968	0.025
969	0.025
969	0.024
970	0.023
970	0.022
971	0.021
971	0.021
971	0.021
972	0.021
972	0.02
973	0.021
973	0.021
974	0.021
974	0.021
974	0.022
975	0.023
975	0.024
976	0.025
976	0.026
976	0.027
977	0.027
977	0.028
978	0.028
978	0.028
979	0.028
979	0.028
979	0.028
980	0.027
980	0.026
981	0.025
981	0.024
982	0.023
982	0.022
982	0.021
983	0.02
983	0.019
984	0.018
984	0.017
984	0.016
985	0.015
985	0.014
986	0.013
986	0.013
987	0.012
987	0.012
987	0.012
988	0.012
988	0.012
989	0.012
989	0.012
990	0.013
990	0.014
990	0.015
991	0.016
991	0.017
992	0.018
992	0.02
992	0.021
993	0.021
993	0.022
994	0.023
994	0.023
995	0.023
995	0.022
995	0.022
996	0.021
996	0.021
997	0.02
997	0.019
997	0.019
998	0.018
998	0.018
999	0.019
999	0.019
1000	0.019
1000	0.02
1000	0.02
1001	0.021
1001	0.022
1002	0.023
1002	0.023
1003	0.024
1003	0.024
1003	0.024
1004	0.024
1004	0.024
1005	0.024
1005	0.024
1005	0.023
1006	0.023
1006	0.023
1007	0.022
1007	0.022
1008	0.022
1008	0.022
1008	0.022
1009	0.022
1009	0.022
1010	0.022
1010	0.022
1010	0.022
1011	0.022
1011	0.022
1012	0.021
1012	0.021
1013	0.021
1013	0.02
1013	0.019
1014	0.018
1014	0.017
1015	0.016
1015	0.016
1016	0.015
1016	0.014
1016	0.013
1017	0.012
1017	0.012
1018	0.011
1018	0.01
1018	0.01
1019	0.01
1019	0.009
1020	0.009
1020	0.009
1021	0.009
1021	0.009
1021	0.009
1022	0.009
1022	0.01
1023	0.01
1023	0.01
1023	0.011
1024	0.011
1024	0.01
1025	0.01
1025	0.01
1026	0.01
1026	0.01
1026	0.009
1027	0.009
1027	0.008
1028	0.008
1028	0.008
1028	0.007
1029	0.007
1029	0.006
1030	0.006
1030	0.006
1031	0.006
1031	0.005
1031	0.005
1032	0.005
1032	0.005
1033	0.005
1033	0.005
1033	0.005
1034	0.005
1034	0.004
1035	0.004
1035	0.004
1036	0.003
1036	0.003
1036	0.003
1037	0.003
1037	0.004
1038	0.004
1038	0.004
1039	0.004
1039	0.005
1039	0.006
1040	0.007
1040	0.008
1041	0.009
1041	0.01
1041	0.011
1042	0.012
1042	0.012
1043	0.013
1043	0.014
1044	0.014
1044	0.015
1044	0.015
1045	0.015
1045	0.015
1046	0.015
1046	0.015
1046	0.015
1047	0.015
1047	0.015
1048	0.015
1048	0.014
1049	0.013
1049	0.012
1049	0.012
1050	0.011
1050	0.01
1051	0.009
1051	0.009
1051	0.008
1052	0.007
1052	0.007
1053	0.006
1053	0.006
1053	0.005
1054	0.005
1054	0.004
1055	0.004
1055	0.004
1056	0.002
1056	0.001
1056	0.001
1057	-0
1057	-0.001
1058	-0.002
1058	-0.002
1058	-0.002
1059	-0.002
1059	-0.003
1060	-0.003
1060	-0.003
1061	-0.002
1061	-0.002
1061	-0.002
1062	-0.002
1062	-0.002
1063	-0.002
1063	-0.002
1063	-0.002
1064	-0.002
1064	-0.001
1065	-0.001
1065	-0.002
1066	-0.002
1066	-0.001
1066	-0.001
1067	-0.001
1067	-0.001
1068	-0.001
1068	-0.001
1068	-0.001
1069	-0.001
1069	-0.002
1070	-0.003
1070	-0.003
1071	-0.004
1071	-0.004
1071	-0.005
1072	-0.006
1072	-0.007
1073	-0.008
1073	-0.009
1073	-0.01
1074	-0.01
1074	-0.011
1075	-0.012
1075	-0.013
1076	-0.015
1076	-0.015
1076	-0.016
1077	-0.016
1077	-0.016
1078	-0.017
1078	-0.017
1078	-0.016
1079	-0.016
1079	-0.016
1080	-0.015
1080	-0.014
1080	-0.013
1081	-0.013
1081	-0.012
1082	-0.012
1082	-0.012
1083	-0.012
1083	-0.012
1083	-0.011
1084	-0.012
1084	-0.011
1085	-0.011
1085	-0.011
1085	-0.01
1086	-0.01
1086	-0.01
1087	-0.01
1087	-0.009
1088	-0.009
1088	-0.01
1088	-0.009
1089	-0.01
1089	-0.011
1090	-0.011
1090	-0.011
1090	-0.012
1091	-0.013
1091	-0.012
1092	-0.013
1092	-0.012
1092	-0.012
1093	-0.012
1093	-0.011
1094	-0.011
1094	-0.011
1095	-0.012
1095	-0.012
1095	-0.01
1096	-0.01
1096	-0.009
1097	-0.009
1097	-0.008
1097	-0.008
1098	-0.007
1098	-0.005
1099	-0.004
1099	-0.002
1100	-0
1100	0
1100	0
1101	0.001
1101	0.002
1102	0.004
1102	0.005
1102	0.007
1103	0.008
1103	0.009
1104	0.012
1104	0.013
1104	0.016
1105	0.02
1105	0.021
1106	0.023
1106	0.026
1107	0.027
1107	0.031
1107	0.036
1108	0.056
1108	0.084
1109	0.12
1109	0.172
1109	0.205
1110	0.268
1110	0.38
1111	0.694
1111	-0
