Data from 17c-2a_Absorbance__1132__01133.txt Node

Date: Fri Jan 26 10:25:14 CET 2024
User: Marek
Spectrometer: MAYP115816
Trigger mode: 0
Integration Time (sec): 2.000000E-1
Scans to average: 10
Electric dark correction enabled: true
Nonlinearity correction enabled: true
Boxcar width: 5
XAxis mode: Wavelengths
Number of Pixels in Spectrum: 2068
>>>>>Begin Spectral Data<<<<<
199	-1.398
199	-1.263
200	-1.116
200	-1.007
201	-0.94
201	-0.899
202	-0.836
202	-0.788
203	-0.748
203	-0.715
204	-0.69
204	-0.668
205	-0.648
205	-0.64
205	-0.639
206	-0.634
206	-0.631
207	-0.628
207	-0.628
208	-0.628
208	-0.626
209	-0.623
209	-0.621
210	-0.622
210	-0.623
211	-0.623
211	-0.624
212	-0.625
212	-0.625
213	-0.624
213	-0.62
213	-0.621
214	-0.619
214	-0.617
215	-0.612
215	-0.61
216	-0.607
216	-0.607
217	-0.604
217	-0.602
218	-0.598
218	-0.597
219	-0.592
219	-0.592
220	-0.592
220	-0.593
221	-0.591
221	-0.59
221	-0.586
222	-0.58
222	-0.577
223	-0.573
223	-0.571
224	-0.567
224	-0.56
225	-0.552
225	-0.545
226	-0.536
226	-0.525
227	-0.515
227	-0.505
228	-0.489
228	-0.474
229	-0.455
229	-0.434
229	-0.411
230	-0.386
230	-0.359
231	-0.33
231	-0.298
232	-0.267
232	-0.231
233	-0.196
233	-0.16
234	-0.124
234	-0.091
235	-0.057
235	-0.025
236	0.006
236	0.034
236	0.062
237	0.086
237	0.109
238	0.129
238	0.147
239	0.165
239	0.18
240	0.194
240	0.206
241	0.218
241	0.228
242	0.237
242	0.246
243	0.254
243	0.26
243	0.267
244	0.272
244	0.278
245	0.282
245	0.287
246	0.291
246	0.295
247	0.299
247	0.302
248	0.306
248	0.309
249	0.312
249	0.315
250	0.318
250	0.321
250	0.323
251	0.326
251	0.328
252	0.33
252	0.333
253	0.335
253	0.337
254	0.338
254	0.34
255	0.342
255	0.343
256	0.344
256	0.346
257	0.347
257	0.348
258	0.348
258	0.349
258	0.35
259	0.351
259	0.351
260	0.351
260	0.351
261	0.352
261	0.352
262	0.352
262	0.352
263	0.352
263	0.352
264	0.351
264	0.351
265	0.35
265	0.349
265	0.349
266	0.348
266	0.346
267	0.345
267	0.344
268	0.342
268	0.341
269	0.339
269	0.338
270	0.336
270	0.335
271	0.333
271	0.331
272	0.33
272	0.328
272	0.326
273	0.324
273	0.323
274	0.321
274	0.319
275	0.317
275	0.315
276	0.313
276	0.311
277	0.309
277	0.306
278	0.304
278	0.302
278	0.299
279	0.297
279	0.295
280	0.292
280	0.29
281	0.288
281	0.286
282	0.284
282	0.282
283	0.28
283	0.278
284	0.276
284	0.275
285	0.273
285	0.271
285	0.269
286	0.267
286	0.266
287	0.264
287	0.262
288	0.26
288	0.259
289	0.258
289	0.256
290	0.254
290	0.253
291	0.252
291	0.25
292	0.249
292	0.248
292	0.247
293	0.246
293	0.244
294	0.243
294	0.242
295	0.241
295	0.24
296	0.24
296	0.239
297	0.238
297	0.237
298	0.236
298	0.236
298	0.235
299	0.235
299	0.234
300	0.233
300	0.233
301	0.232
301	0.231
302	0.231
302	0.23
303	0.229
303	0.229
304	0.228
304	0.227
305	0.227
305	0.226
305	0.225
306	0.225
306	0.224
307	0.223
307	0.223
308	0.222
308	0.221
309	0.221
309	0.22
310	0.22
310	0.219
311	0.219
311	0.218
311	0.218
312	0.217
312	0.217
313	0.216
313	0.216
314	0.215
314	0.215
315	0.214
315	0.213
316	0.213
316	0.212
317	0.212
317	0.211
318	0.211
318	0.21
318	0.21
319	0.209
319	0.208
320	0.208
320	0.207
321	0.207
321	0.206
322	0.206
322	0.205
323	0.204
323	0.204
324	0.203
324	0.202
324	0.202
325	0.201
325	0.201
326	0.2
326	0.2
327	0.199
327	0.199
328	0.199
328	0.198
329	0.198
329	0.197
330	0.197
330	0.196
330	0.195
331	0.195
331	0.194
332	0.194
332	0.193
333	0.193
333	0.193
334	0.192
334	0.192
335	0.191
335	0.191
336	0.19
336	0.19
336	0.19
337	0.189
337	0.189
338	0.188
338	0.188
339	0.187
339	0.187
340	0.186
340	0.186
341	0.186
341	0.185
342	0.185
342	0.185
342	0.184
343	0.184
343	0.184
344	0.184
344	0.183
345	0.183
345	0.183
346	0.183
346	0.182
347	0.182
347	0.182
348	0.181
348	0.181
348	0.181
349	0.181
349	0.18
350	0.18
350	0.18
351	0.179
351	0.179
352	0.179
352	0.179
353	0.179
353	0.179
354	0.178
354	0.178
354	0.178
355	0.177
355	0.177
356	0.177
356	0.176
357	0.176
357	0.176
358	0.175
358	0.175
359	0.175
359	0.175
360	0.175
360	0.175
360	0.175
361	0.175
361	0.175
362	0.176
362	0.176
363	0.176
363	0.176
364	0.176
364	0.175
365	0.176
365	0.176
366	0.176
366	0.176
366	0.176
367	0.176
367	0.175
368	0.175
368	0.175
369	0.175
369	0.175
370	0.174
370	0.174
371	0.174
371	0.174
372	0.173
372	0.173
372	0.173
373	0.173
373	0.173
374	0.173
374	0.173
375	0.173
375	0.173
376	0.173
376	0.173
377	0.174
377	0.174
378	0.174
378	0.174
378	0.174
379	0.174
379	0.174
380	0.174
380	0.174
381	0.173
381	0.173
382	0.173
382	0.173
383	0.173
383	0.172
383	0.172
384	0.172
384	0.172
385	0.171
385	0.171
386	0.171
386	0.171
387	0.171
387	0.171
388	0.171
388	0.171
389	0.17
389	0.171
389	0.171
390	0.17
390	0.17
391	0.17
391	0.17
392	0.17
392	0.171
393	0.171
393	0.171
394	0.171
394	0.17
394	0.17
395	0.17
395	0.17
396	0.17
396	0.17
397	0.17
397	0.169
398	0.169
398	0.169
399	0.169
399	0.169
400	0.169
400	0.169
400	0.168
401	0.168
401	0.168
402	0.168
402	0.167
403	0.167
403	0.167
404	0.167
404	0.167
405	0.167
405	0.167
405	0.167
406	0.167
406	0.167
407	0.167
407	0.166
408	0.166
408	0.166
409	0.166
409	0.166
410	0.166
410	0.166
411	0.166
411	0.166
411	0.166
412	0.166
412	0.166
413	0.166
413	0.165
414	0.165
414	0.165
415	0.164
415	0.164
416	0.164
416	0.164
416	0.163
417	0.163
417	0.163
418	0.163
418	0.164
419	0.164
419	0.164
420	0.164
420	0.165
421	0.165
421	0.165
421	0.165
422	0.165
422	0.165
423	0.165
423	0.165
424	0.165
424	0.165
425	0.164
425	0.164
426	0.164
426	0.164
427	0.164
427	0.164
427	0.164
428	0.164
428	0.165
429	0.165
429	0.165
430	0.165
430	0.165
431	0.164
431	0.164
432	0.164
432	0.164
432	0.163
433	0.163
433	0.163
434	0.163
434	0.163
435	0.163
435	0.163
436	0.163
436	0.164
437	0.164
437	0.164
437	0.164
438	0.164
438	0.163
439	0.163
439	0.163
440	0.163
440	0.162
441	0.162
441	0.162
442	0.162
442	0.163
442	0.163
443	0.163
443	0.163
444	0.163
444	0.163
445	0.163
445	0.163
446	0.164
446	0.163
447	0.163
447	0.163
447	0.163
448	0.163
448	0.164
449	0.164
449	0.164
450	0.164
450	0.164
451	0.164
451	0.164
452	0.164
452	0.163
452	0.163
453	0.163
453	0.163
454	0.163
454	0.163
455	0.163
455	0.163
456	0.163
456	0.163
457	0.163
457	0.163
458	0.163
458	0.163
458	0.164
459	0.164
459	0.164
460	0.164
460	0.164
461	0.164
461	0.164
462	0.165
462	0.165
463	0.165
463	0.166
463	0.166
464	0.166
464	0.166
465	0.167
465	0.167
466	0.167
466	0.167
467	0.167
467	0.167
467	0.167
468	0.166
468	0.166
469	0.166
469	0.166
470	0.166
470	0.166
471	0.166
471	0.166
472	0.166
472	0.167
472	0.167
473	0.168
473	0.168
474	0.169
474	0.169
475	0.17
475	0.17
476	0.171
476	0.171
477	0.172
477	0.172
477	0.172
478	0.173
478	0.173
479	0.174
479	0.175
480	0.175
480	0.176
481	0.176
481	0.177
482	0.178
482	0.179
482	0.18
483	0.181
483	0.183
484	0.184
484	0.185
485	0.186
485	0.187
486	0.188
486	0.189
487	0.189
487	0.19
487	0.191
488	0.191
488	0.191
489	0.191
489	0.192
490	0.193
490	0.193
491	0.194
491	0.195
492	0.196
492	0.197
492	0.198
493	0.198
493	0.2
494	0.201
494	0.203
495	0.204
495	0.205
496	0.206
496	0.207
496	0.209
497	0.21
497	0.211
498	0.212
498	0.213
499	0.214
499	0.216
500	0.217
500	0.219
501	0.22
501	0.222
501	0.223
502	0.224
502	0.226
503	0.227
503	0.229
504	0.23
504	0.231
505	0.232
505	0.233
506	0.234
506	0.236
506	0.237
507	0.238
507	0.239
508	0.241
508	0.242
509	0.243
509	0.244
510	0.245
510	0.247
511	0.248
511	0.249
511	0.25
512	0.251
512	0.252
513	0.252
513	0.252
514	0.253
514	0.254
515	0.254
515	0.254
515	0.255
516	0.255
516	0.256
517	0.257
517	0.257
518	0.258
518	0.258
519	0.258
519	0.258
520	0.257
520	0.257
520	0.257
521	0.256
521	0.256
522	0.255
522	0.254
523	0.254
523	0.254
524	0.254
524	0.255
524	0.255
525	0.256
525	0.256
526	0.257
526	0.257
527	0.258
527	0.258
528	0.259
528	0.259
529	0.258
529	0.258
529	0.258
530	0.258
530	0.257
531	0.256
531	0.256
532	0.255
532	0.254
533	0.253
533	0.252
533	0.251
534	0.25
534	0.249
535	0.248
535	0.247
536	0.245
536	0.244
537	0.243
537	0.241
538	0.24
538	0.238
538	0.237
539	0.236
539	0.235
540	0.233
540	0.231
541	0.23
541	0.228
542	0.227
542	0.225
542	0.223
543	0.221
543	0.219
544	0.217
544	0.216
545	0.215
545	0.214
546	0.213
546	0.211
547	0.209
547	0.207
547	0.206
548	0.204
548	0.203
549	0.202
549	0.2
550	0.199
550	0.197
551	0.194
551	0.193
551	0.191
552	0.19
552	0.188
553	0.187
553	0.185
554	0.184
554	0.181
555	0.179
555	0.177
556	0.175
556	0.172
556	0.17
557	0.168
557	0.166
558	0.163
558	0.161
559	0.159
559	0.157
560	0.155
560	0.154
560	0.153
561	0.152
561	0.151
562	0.15
562	0.149
563	0.147
563	0.146
564	0.144
564	0.143
564	0.141
565	0.14
565	0.138
566	0.137
566	0.135
567	0.134
567	0.133
568	0.132
568	0.132
568	0.131
569	0.131
569	0.131
570	0.13
570	0.129
571	0.129
571	0.128
572	0.128
572	0.127
573	0.126
573	0.125
573	0.123
574	0.122
574	0.121
575	0.121
575	0.121
576	0.12
576	0.119
577	0.117
577	0.116
577	0.115
578	0.115
578	0.114
579	0.115
579	0.115
580	0.113
580	0.11
581	0.108
581	0.107
581	0.106
582	0.106
582	0.105
583	0.105
583	0.104
584	0.102
584	0.099
585	0.099
585	0.099
585	0.099
586	0.098
586	0.098
587	0.096
587	0.094
588	0.093
588	0.091
589	0.091
589	0.091
590	0.09
590	0.09
590	0.091
591	0.091
591	0.091
592	0.09
592	0.09
593	0.09
593	0.09
594	0.089
594	0.088
594	0.088
595	0.087
595	0.086
596	0.086
596	0.087
597	0.089
597	0.089
598	0.089
598	0.089
598	0.09
599	0.089
599	0.089
600	0.088
600	0.087
601	0.086
601	0.086
602	0.084
602	0.083
602	0.082
603	0.082
603	0.082
604	0.083
604	0.083
605	0.084
605	0.085
606	0.085
606	0.084
606	0.084
607	0.083
607	0.083
608	0.083
608	0.082
609	0.081
609	0.081
610	0.08
610	0.08
610	0.08
611	0.081
611	0.083
612	0.084
612	0.085
613	0.086
613	0.088
614	0.088
614	0.088
614	0.088
615	0.088
615	0.088
616	0.089
616	0.088
617	0.088
617	0.088
618	0.087
618	0.087
618	0.087
619	0.088
619	0.088
620	0.09
620	0.09
621	0.09
621	0.091
622	0.091
622	0.092
622	0.092
623	0.092
623	0.093
624	0.094
624	0.093
625	0.094
625	0.094
626	0.094
626	0.095
626	0.095
627	0.096
627	0.097
628	0.097
628	0.097
629	0.098
629	0.098
630	0.098
630	0.098
630	0.099
631	0.099
631	0.099
632	0.1
632	0.1
633	0.101
633	0.101
634	0.103
634	0.104
634	0.106
635	0.107
635	0.108
636	0.109
636	0.11
637	0.111
637	0.111
638	0.112
638	0.113
638	0.114
639	0.115
639	0.115
640	0.116
640	0.117
641	0.118
641	0.119
642	0.12
642	0.122
642	0.124
643	0.125
643	0.127
644	0.128
644	0.13
645	0.132
645	0.134
646	0.136
646	0.139
646	0.141
647	0.144
647	0.146
648	0.148
648	0.15
649	0.152
649	0.155
650	0.157
650	0.16
650	0.162
651	0.164
651	0.166
652	0.168
652	0.17
653	0.172
653	0.178
653	0.183
654	0.146
654	0.118
655	0.12
655	0.122
656	0.123
656	0.124
657	0.126
657	0.128
657	0.129
658	0.127
658	0.122
659	0.155
659	0.199
660	0.207
660	0.209
661	0.211
661	0.213
661	0.215
662	0.218
662	0.221
663	0.223
663	0.225
664	0.228
664	0.23
665	0.232
665	0.235
665	0.237
666	0.239
666	0.241
667	0.243
667	0.246
668	0.248
668	0.25
669	0.252
669	0.254
669	0.257
670	0.259
670	0.26
671	0.262
671	0.263
672	0.265
672	0.266
672	0.267
673	0.269
673	0.271
674	0.272
674	0.274
675	0.275
675	0.278
676	0.28
676	0.282
676	0.284
677	0.286
677	0.288
678	0.289
678	0.29
679	0.291
679	0.293
680	0.294
680	0.295
680	0.296
681	0.297
681	0.298
682	0.298
682	0.299
683	0.3
683	0.302
684	0.303
684	0.303
684	0.303
685	0.303
685	0.304
686	0.304
686	0.304
687	0.303
687	0.303
687	0.303
688	0.302
688	0.302
689	0.302
689	0.303
690	0.303
690	0.303
691	0.303
691	0.304
691	0.304
692	0.303
692	0.302
693	0.302
693	0.302
694	0.301
694	0.299
695	0.299
695	0.299
695	0.298
696	0.297
696	0.296
697	0.295
697	0.294
698	0.293
698	0.291
698	0.29
699	0.289
699	0.286
700	0.284
700	0.282
701	0.28
701	0.278
702	0.276
702	0.274
702	0.272
703	0.27
703	0.268
704	0.267
704	0.266
705	0.264
705	0.263
705	0.262
706	0.26
706	0.259
707	0.258
707	0.257
708	0.256
708	0.255
709	0.254
709	0.252
709	0.249
710	0.247
710	0.246
711	0.244
711	0.242
712	0.24
712	0.237
713	0.235
713	0.233
713	0.231
714	0.228
714	0.226
715	0.224
715	0.221
716	0.219
716	0.216
716	0.214
717	0.212
717	0.209
718	0.207
718	0.204
719	0.203
719	0.201
720	0.199
720	0.197
720	0.195
721	0.192
721	0.19
722	0.188
722	0.186
723	0.184
723	0.182
723	0.18
724	0.178
724	0.176
725	0.174
725	0.172
726	0.171
726	0.169
727	0.167
727	0.166
727	0.165
728	0.163
728	0.161
729	0.16
729	0.158
730	0.157
730	0.154
730	0.153
731	0.151
731	0.15
732	0.149
732	0.147
733	0.146
733	0.145
734	0.143
734	0.142
734	0.142
735	0.141
735	0.14
736	0.139
736	0.138
737	0.137
737	0.136
737	0.134
738	0.132
738	0.129
739	0.127
739	0.126
740	0.123
740	0.122
741	0.121
741	0.119
741	0.118
742	0.115
742	0.114
743	0.113
743	0.112
744	0.111
744	0.11
744	0.108
745	0.107
745	0.105
746	0.103
746	0.102
747	0.1
747	0.099
748	0.098
748	0.096
748	0.095
749	0.093
749	0.092
750	0.091
750	0.091
751	0.09
751	0.09
751	0.09
752	0.089
752	0.088
753	0.088
753	0.087
754	0.087
754	0.087
754	0.087
755	0.087
755	0.087
756	0.086
756	0.084
757	0.083
757	0.083
758	0.083
758	0.082
758	0.082
759	0.082
759	0.081
760	0.08
760	0.078
761	0.077
761	0.077
761	0.076
762	0.074
762	0.073
763	0.071
763	0.069
764	0.067
764	0.065
764	0.063
765	0.061
765	0.06
766	0.059
766	0.058
767	0.057
767	0.055
768	0.053
768	0.052
768	0.051
769	0.05
769	0.049
770	0.047
770	0.046
771	0.044
771	0.042
771	0.04
772	0.038
772	0.037
773	0.035
773	0.033
774	0.031
774	0.029
775	0.028
775	0.026
775	0.024
776	0.023
776	0.021
777	0.02
777	0.018
778	0.017
778	0.015
778	0.013
779	0.011
779	0.01
780	0.008
780	0.005
781	0.003
781	0
781	-0.003
782	-0.006
782	-0.01
783	-0.014
783	-0.017
784	-0.021
784	-0.026
784	-0.03
785	-0.035
785	-0.04
786	-0.044
786	-0.048
787	-0.051
787	-0.055
788	-0.06
788	-0.066
788	-0.072
789	-0.079
789	-0.085
790	-0.089
790	-0.095
791	-0.101
791	-0.106
791	-0.11
792	-0.107
792	-0.099
793	-0.096
793	-0.094
794	-0.094
794	-0.096
794	-0.1
795	-0.103
795	-0.103
796	-0.104
796	-0.106
797	-0.115
797	-0.126
797	-0.133
798	-0.138
798	-0.141
799	-0.142
799	-0.141
800	-0.141
800	-0.142
801	-0.145
801	-0.146
801	-0.146
802	-0.147
802	-0.148
803	-0.148
803	-0.148
804	-0.147
804	-0.142
804	-0.136
805	-0.132
805	-0.13
806	-0.128
806	-0.127
807	-0.127
807	-0.127
807	-0.127
808	-0.128
808	-0.129
809	-0.134
809	-0.14
810	-0.143
810	-0.146
810	-0.149
811	-0.152
811	-0.153
812	-0.149
812	-0.146
813	-0.146
813	-0.147
813	-0.148
814	-0.148
814	-0.146
815	-0.142
815	-0.136
816	-0.13
816	-0.125
817	-0.122
817	-0.117
817	-0.108
818	-0.098
818	-0.085
819	-0.073
819	-0.064
820	-0.056
820	-0.049
820	-0.042
821	-0.035
821	-0.029
822	-0.024
822	-0.019
823	-0.014
823	-0.011
823	-0.008
824	-0.005
824	-0.001
825	0.003
825	0.007
826	0.01
826	0.012
826	0.014
827	0.017
827	0.019
828	0.02
828	0.022
829	0.023
829	0.024
829	0.024
830	0.025
830	0.025
831	0.027
831	0.027
832	0.028
832	0.028
832	0.029
833	0.029
833	0.029
834	0.03
834	0.03
835	0.03
835	0.03
835	0.029
836	0.029
836	0.029
837	0.03
837	0.03
838	0.031
838	0.031
839	0.031
839	0.031
839	0.031
840	0.031
840	0.031
841	0.031
841	0.031
842	0.031
842	0.031
842	0.03
843	0.03
843	0.03
844	0.03
844	0.031
845	0.031
845	0.031
845	0.031
846	0.031
846	0.031
847	0.031
847	0.031
848	0.032
848	0.032
848	0.032
849	0.033
849	0.033
850	0.033
850	0.033
851	0.034
851	0.034
851	0.034
852	0.034
852	0.034
853	0.033
853	0.033
854	0.033
854	0.033
854	0.033
855	0.033
855	0.032
856	0.032
856	0.032
857	0.032
857	0.032
857	0.032
858	0.032
858	0.032
859	0.032
859	0.033
860	0.034
860	0.034
860	0.035
861	0.036
861	0.037
862	0.038
862	0.038
863	0.038
863	0.039
863	0.039
864	0.039
864	0.038
865	0.039
865	0.039
866	0.039
866	0.038
866	0.039
867	0.039
867	0.039
868	0.039
868	0.039
869	0.039
869	0.038
869	0.037
870	0.036
870	0.036
871	0.035
871	0.035
872	0.034
872	0.034
872	0.034
873	0.035
873	0.035
874	0.036
874	0.036
875	0.036
875	0.036
875	0.036
876	0.036
876	0.035
877	0.034
877	0.033
878	0.033
878	0.032
878	0.031
879	0.031
879	0.03
880	0.03
880	0.03
881	0.03
881	0.03
881	0.031
882	0.03
882	0.03
883	0.03
883	0.03
884	0.029
884	0.029
884	0.028
885	0.028
885	0.028
886	0.028
886	0.028
887	0.027
887	0.028
887	0.028
888	0.028
888	0.029
889	0.03
889	0.031
890	0.031
890	0.032
890	0.033
891	0.033
891	0.034
892	0.034
892	0.034
893	0.035
893	0.035
893	0.035
894	0.035
894	0.034
895	0.033
895	0.033
895	0.032
896	0.031
896	0.03
897	0.029
897	0.028
898	0.028
898	0.027
898	0.026
899	0.026
899	0.026
900	0.026
900	0.026
901	0.026
901	0.026
901	0.026
902	0.026
902	0.026
903	0.026
903	0.027
904	0.028
904	0.028
904	0.029
905	0.03
905	0.031
906	0.031
906	0.032
907	0.032
907	0.033
907	0.033
908	0.034
908	0.034
909	0.035
909	0.036
910	0.036
910	0.037
910	0.037
911	0.037
911	0.037
912	0.037
912	0.037
913	0.037
913	0.037
913	0.036
914	0.035
914	0.034
915	0.034
915	0.033
916	0.032
916	0.03
916	0.029
917	0.027
917	0.026
918	0.024
918	0.023
918	0.021
919	0.02
919	0.019
920	0.018
920	0.017
921	0.017
921	0.017
921	0.017
922	0.018
922	0.019
923	0.019
923	0.02
924	0.02
924	0.021
924	0.021
925	0.022
925	0.022
926	0.023
926	0.024
927	0.024
927	0.024
927	0.024
928	0.024
928	0.023
929	0.023
929	0.023
930	0.022
930	0.022
930	0.021
931	0.02
931	0.02
932	0.02
932	0.02
933	0.02
933	0.019
933	0.019
934	0.019
934	0.018
935	0.018
935	0.018
935	0.017
936	0.017
936	0.016
937	0.016
937	0.015
938	0.015
938	0.015
938	0.015
939	0.015
939	0.016
940	0.016
940	0.017
941	0.018
941	0.019
941	0.02
942	0.021
942	0.022
943	0.024
943	0.024
944	0.025
944	0.025
944	0.025
945	0.026
945	0.026
946	0.027
946	0.027
946	0.027
947	0.027
947	0.028
948	0.028
948	0.029
949	0.028
949	0.029
949	0.029
950	0.029
950	0.029
951	0.028
951	0.028
952	0.028
952	0.027
952	0.027
953	0.026
953	0.026
954	0.026
954	0.025
955	0.026
955	0.026
955	0.026
956	0.026
956	0.026
957	0.026
957	0.026
957	0.026
958	0.026
958	0.026
959	0.027
959	0.027
960	0.027
960	0.027
960	0.027
961	0.027
961	0.027
962	0.028
962	0.028
963	0.029
963	0.03
963	0.03
964	0.03
964	0.031
965	0.031
965	0.031
966	0.031
966	0.031
966	0.031
967	0.03
967	0.029
968	0.028
968	0.027
968	0.026
969	0.026
969	0.025
970	0.024
970	0.023
971	0.022
971	0.022
971	0.021
972	0.021
972	0.021
973	0.021
973	0.021
974	0.022
974	0.022
974	0.023
975	0.024
975	0.025
976	0.026
976	0.027
976	0.028
977	0.028
977	0.029
978	0.029
978	0.03
979	0.03
979	0.029
979	0.029
980	0.028
980	0.027
981	0.026
981	0.025
982	0.024
982	0.023
982	0.022
983	0.021
983	0.02
984	0.019
984	0.018
984	0.017
985	0.016
985	0.015
986	0.014
986	0.014
987	0.013
987	0.013
987	0.013
988	0.012
988	0.012
989	0.012
989	0.013
990	0.014
990	0.014
990	0.016
991	0.017
991	0.018
992	0.02
992	0.021
992	0.022
993	0.023
993	0.023
994	0.024
994	0.024
995	0.024
995	0.023
995	0.023
996	0.022
996	0.021
997	0.021
997	0.02
997	0.019
998	0.019
998	0.019
999	0.019
999	0.02
1000	0.02
1000	0.02
1000	0.021
1001	0.022
1001	0.023
1002	0.024
1002	0.024
1003	0.025
1003	0.025
1003	0.025
1004	0.025
1004	0.025
1005	0.025
1005	0.025
1005	0.025
1006	0.024
1006	0.024
1007	0.024
1007	0.023
1008	0.023
1008	0.023
1008	0.023
1009	0.023
1009	0.023
1010	0.023
1010	0.023
1010	0.023
1011	0.023
1011	0.022
1012	0.022
1012	0.022
1013	0.021
1013	0.02
1013	0.02
1014	0.018
1014	0.018
1015	0.017
1015	0.016
1016	0.015
1016	0.014
1016	0.013
1017	0.013
1017	0.012
1018	0.011
1018	0.011
1018	0.01
1019	0.01
1019	0.01
1020	0.01
1020	0.009
1021	0.009
1021	0.01
1021	0.01
1022	0.01
1022	0.011
1023	0.011
1023	0.011
1023	0.012
1024	0.012
1024	0.012
1025	0.011
1025	0.011
1026	0.011
1026	0.011
1026	0.01
1027	0.01
1027	0.009
1028	0.009
1028	0.009
1028	0.008
1029	0.008
1029	0.007
1030	0.007
1030	0.007
1031	0.007
1031	0.007
1031	0.007
1032	0.007
1032	0.007
1033	0.007
1033	0.007
1033	0.007
1034	0.006
1034	0.006
1035	0.005
1035	0.005
1036	0.005
1036	0.004
1036	0.004
1037	0.004
1037	0.004
1038	0.004
1038	0.004
1039	0.005
1039	0.006
1039	0.006
1040	0.007
1040	0.008
1041	0.009
1041	0.01
1041	0.011
1042	0.012
1042	0.013
1043	0.014
1043	0.015
1044	0.016
1044	0.016
1044	0.017
1045	0.017
1045	0.016
1046	0.016
1046	0.016
1046	0.016
1047	0.016
1047	0.016
1048	0.016
1048	0.015
1049	0.014
1049	0.014
1049	0.013
1050	0.012
1050	0.012
1051	0.011
1051	0.011
1051	0.01
1052	0.009
1052	0.009
1053	0.008
1053	0.007
1053	0.007
1054	0.006
1054	0.005
1055	0.005
1055	0.004
1056	0.003
1056	0.002
1056	0.001
1057	0
1057	-0.001
1058	-0.001
1058	-0.002
1058	-0.002
1059	-0.002
1059	-0.002
1060	-0.002
1060	-0.002
1061	-0.002
1061	-0.001
1061	-0.001
1062	-0.001
1062	-0
1063	-0.001
1063	-0.001
1063	-0.001
1064	-0.001
1064	0
1065	0
1065	0
1066	0
1066	0
1066	0.001
1067	0.001
1067	0.001
1068	0.001
1068	0.001
1068	0.001
1069	-0
1069	-0.001
1070	-0.002
1070	-0.003
1071	-0.003
1071	-0.004
1071	-0.005
1072	-0.006
1072	-0.007
1073	-0.008
1073	-0.009
1073	-0.009
1074	-0.01
1074	-0.01
1075	-0.011
1075	-0.012
1076	-0.013
1076	-0.014
1076	-0.014
1077	-0.015
1077	-0.015
1078	-0.016
1078	-0.016
1078	-0.015
1079	-0.015
1079	-0.014
1080	-0.014
1080	-0.013
1080	-0.013
1081	-0.012
1081	-0.012
1082	-0.011
1082	-0.011
1083	-0.011
1083	-0.011
1083	-0.01
1084	-0.01
1084	-0.009
1085	-0.009
1085	-0.009
1085	-0.009
1086	-0.009
1086	-0.009
1087	-0.008
1087	-0.008
1088	-0.009
1088	-0.008
1088	-0.008
1089	-0.009
1089	-0.009
1090	-0.01
1090	-0.01
1090	-0.011
1091	-0.011
1091	-0.011
1092	-0.011
1092	-0.011
1092	-0.011
1093	-0.011
1093	-0.01
1094	-0.01
1094	-0.011
1095	-0.011
1095	-0.011
1095	-0.009
1096	-0.008
1096	-0.007
1097	-0.007
1097	-0.006
1097	-0.005
1098	-0.003
1098	-0.002
1099	-0
1099	0.002
1100	0.002
1100	0.003
1100	0.003
1101	0.004
1101	0.005
1102	0.007
1102	0.008
1102	0.009
1103	0.01
1103	0.011
1104	0.013
1104	0.016
1104	0.019
1105	0.023
1105	0.025
1106	0.027
1106	0.031
1107	0.032
1107	0.038
1107	0.044
1108	0.067
1108	0.098
1109	0.138
1109	0.196
1109	0.236
1110	0.31
1110	0.447
1111	0.89
1111	-0
