Data from 17c-2a_Absorbance__596__00597.txt Node

Date: Fri Jan 26 10:07:23 CET 2024
User: Marek
Spectrometer: MAYP115816
Trigger mode: 0
Integration Time (sec): 2.000000E-1
Scans to average: 10
Electric dark correction enabled: true
Nonlinearity correction enabled: true
Boxcar width: 5
XAxis mode: Wavelengths
Number of Pixels in Spectrum: 2068
>>>>>Begin Spectral Data<<<<<
199	-1.202
199	-1.075
200	-0.935
200	-0.834
201	-0.771
201	-0.734
202	-0.677
202	-0.634
203	-0.601
203	-0.571
204	-0.55
204	-0.531
205	-0.512
205	-0.506
205	-0.503
206	-0.5
206	-0.496
207	-0.494
207	-0.494
208	-0.494
208	-0.493
209	-0.491
209	-0.488
210	-0.49
210	-0.49
211	-0.491
211	-0.494
212	-0.495
212	-0.494
213	-0.492
213	-0.489
213	-0.49
214	-0.489
214	-0.487
215	-0.482
215	-0.48
216	-0.478
216	-0.477
217	-0.475
217	-0.474
218	-0.471
218	-0.47
219	-0.466
219	-0.466
220	-0.465
220	-0.467
221	-0.465
221	-0.465
221	-0.46
222	-0.455
222	-0.453
223	-0.449
223	-0.447
224	-0.443
224	-0.436
225	-0.43
225	-0.423
226	-0.417
226	-0.407
227	-0.398
227	-0.392
228	-0.378
228	-0.366
229	-0.35
229	-0.332
229	-0.314
230	-0.292
230	-0.268
231	-0.245
231	-0.22
232	-0.195
232	-0.168
233	-0.141
233	-0.114
234	-0.09
234	-0.066
235	-0.043
235	-0.023
236	-0.004
236	0.015
236	0.032
237	0.046
237	0.059
238	0.071
238	0.081
239	0.091
239	0.1
240	0.108
240	0.115
241	0.121
241	0.127
242	0.131
242	0.136
243	0.141
243	0.145
243	0.149
244	0.152
244	0.155
245	0.158
245	0.161
246	0.164
246	0.167
247	0.169
247	0.172
248	0.174
248	0.177
249	0.179
249	0.181
250	0.183
250	0.185
250	0.187
251	0.189
251	0.191
252	0.193
252	0.195
253	0.197
253	0.198
254	0.2
254	0.201
255	0.203
255	0.204
256	0.205
256	0.206
257	0.207
257	0.208
258	0.209
258	0.21
258	0.21
259	0.211
259	0.211
260	0.211
260	0.212
261	0.212
261	0.212
262	0.212
262	0.212
263	0.212
263	0.212
264	0.211
264	0.211
265	0.21
265	0.209
265	0.209
266	0.208
266	0.207
267	0.206
267	0.204
268	0.203
268	0.202
269	0.201
269	0.199
270	0.198
270	0.197
271	0.195
271	0.194
272	0.192
272	0.191
272	0.189
273	0.187
273	0.186
274	0.184
274	0.182
275	0.181
275	0.179
276	0.177
276	0.176
277	0.174
277	0.172
278	0.17
278	0.168
278	0.166
279	0.164
279	0.162
280	0.16
280	0.159
281	0.157
281	0.155
282	0.153
282	0.151
283	0.15
283	0.148
284	0.147
284	0.145
285	0.144
285	0.142
285	0.14
286	0.139
286	0.138
287	0.136
287	0.135
288	0.134
288	0.132
289	0.131
289	0.13
290	0.129
290	0.128
291	0.127
291	0.126
292	0.125
292	0.124
292	0.123
293	0.122
293	0.121
294	0.12
294	0.12
295	0.119
295	0.118
296	0.118
296	0.117
297	0.116
297	0.116
298	0.116
298	0.115
298	0.115
299	0.115
299	0.114
300	0.114
300	0.113
301	0.113
301	0.113
302	0.113
302	0.112
303	0.112
303	0.111
304	0.111
304	0.111
305	0.11
305	0.11
305	0.11
306	0.109
306	0.109
307	0.109
307	0.108
308	0.108
308	0.108
309	0.107
309	0.107
310	0.107
310	0.107
311	0.106
311	0.106
311	0.106
312	0.106
312	0.106
313	0.105
313	0.105
314	0.105
314	0.104
315	0.104
315	0.104
316	0.103
316	0.103
317	0.103
317	0.102
318	0.102
318	0.102
318	0.102
319	0.101
319	0.101
320	0.101
320	0.101
321	0.1
321	0.1
322	0.1
322	0.099
323	0.099
323	0.099
324	0.098
324	0.098
324	0.098
325	0.097
325	0.097
326	0.097
326	0.097
327	0.096
327	0.096
328	0.096
328	0.096
329	0.095
329	0.095
330	0.095
330	0.094
330	0.094
331	0.094
331	0.094
332	0.093
332	0.093
333	0.093
333	0.093
334	0.092
334	0.092
335	0.092
335	0.092
336	0.092
336	0.091
336	0.091
337	0.091
337	0.091
338	0.091
338	0.09
339	0.09
339	0.09
340	0.09
340	0.089
341	0.089
341	0.088
342	0.088
342	0.088
342	0.088
343	0.088
343	0.087
344	0.087
344	0.087
345	0.087
345	0.087
346	0.087
346	0.087
347	0.087
347	0.086
348	0.086
348	0.086
348	0.086
349	0.086
349	0.086
350	0.085
350	0.085
351	0.085
351	0.085
352	0.085
352	0.085
353	0.085
353	0.085
354	0.085
354	0.084
354	0.084
355	0.084
355	0.084
356	0.084
356	0.083
357	0.083
357	0.083
358	0.083
358	0.083
359	0.083
359	0.083
360	0.083
360	0.083
360	0.083
361	0.083
361	0.084
362	0.084
362	0.084
363	0.084
363	0.084
364	0.084
364	0.083
365	0.083
365	0.084
366	0.084
366	0.084
366	0.084
367	0.084
367	0.084
368	0.083
368	0.083
369	0.083
369	0.083
370	0.083
370	0.083
371	0.083
371	0.083
372	0.082
372	0.082
372	0.082
373	0.082
373	0.082
374	0.083
374	0.083
375	0.083
375	0.083
376	0.083
376	0.083
377	0.083
377	0.084
378	0.084
378	0.084
378	0.084
379	0.084
379	0.083
380	0.083
380	0.083
381	0.083
381	0.083
382	0.083
382	0.083
383	0.083
383	0.083
383	0.083
384	0.083
384	0.083
385	0.083
385	0.083
386	0.083
386	0.083
387	0.083
387	0.083
388	0.083
388	0.083
389	0.083
389	0.083
389	0.083
390	0.083
390	0.083
391	0.083
391	0.083
392	0.083
392	0.084
393	0.084
393	0.084
394	0.084
394	0.084
394	0.084
395	0.084
395	0.084
396	0.083
396	0.083
397	0.083
397	0.083
398	0.083
398	0.083
399	0.083
399	0.083
400	0.083
400	0.082
400	0.082
401	0.082
401	0.082
402	0.082
402	0.082
403	0.082
403	0.082
404	0.082
404	0.082
405	0.082
405	0.082
405	0.082
406	0.082
406	0.082
407	0.082
407	0.082
408	0.082
408	0.082
409	0.082
409	0.082
410	0.082
410	0.082
411	0.082
411	0.082
411	0.082
412	0.082
412	0.082
413	0.082
413	0.082
414	0.082
414	0.082
415	0.082
415	0.082
416	0.082
416	0.081
416	0.081
417	0.081
417	0.081
418	0.081
418	0.081
419	0.081
419	0.082
420	0.082
420	0.082
421	0.082
421	0.082
421	0.083
422	0.083
422	0.083
423	0.083
423	0.083
424	0.083
424	0.083
425	0.083
425	0.083
426	0.083
426	0.083
427	0.083
427	0.083
427	0.083
428	0.083
428	0.083
429	0.083
429	0.083
430	0.083
430	0.083
431	0.083
431	0.083
432	0.083
432	0.083
432	0.082
433	0.082
433	0.082
434	0.082
434	0.082
435	0.082
435	0.082
436	0.082
436	0.082
437	0.082
437	0.082
437	0.083
438	0.083
438	0.083
439	0.083
439	0.082
440	0.082
440	0.082
441	0.082
441	0.082
442	0.082
442	0.082
442	0.082
443	0.082
443	0.082
444	0.082
444	0.082
445	0.083
445	0.083
446	0.083
446	0.083
447	0.083
447	0.083
447	0.083
448	0.083
448	0.083
449	0.083
449	0.083
450	0.083
450	0.083
451	0.084
451	0.084
452	0.084
452	0.084
452	0.084
453	0.083
453	0.083
454	0.083
454	0.083
455	0.083
455	0.083
456	0.083
456	0.083
457	0.083
457	0.083
458	0.083
458	0.083
458	0.084
459	0.084
459	0.084
460	0.083
460	0.083
461	0.083
461	0.084
462	0.084
462	0.084
463	0.084
463	0.085
463	0.085
464	0.085
464	0.085
465	0.085
465	0.085
466	0.085
466	0.085
467	0.086
467	0.085
467	0.085
468	0.085
468	0.084
469	0.084
469	0.084
470	0.084
470	0.084
471	0.084
471	0.084
472	0.084
472	0.085
472	0.085
473	0.085
473	0.086
474	0.086
474	0.086
475	0.087
475	0.087
476	0.087
476	0.088
477	0.088
477	0.088
477	0.088
478	0.088
478	0.088
479	0.089
479	0.089
480	0.089
480	0.089
481	0.09
481	0.09
482	0.091
482	0.091
482	0.092
483	0.093
483	0.094
484	0.095
484	0.095
485	0.096
485	0.097
486	0.097
486	0.097
487	0.098
487	0.098
487	0.098
488	0.098
488	0.098
489	0.098
489	0.098
490	0.099
490	0.099
491	0.099
491	0.1
492	0.1
492	0.101
492	0.101
493	0.101
493	0.102
494	0.103
494	0.104
495	0.104
495	0.105
496	0.106
496	0.106
496	0.107
497	0.108
497	0.109
498	0.109
498	0.11
499	0.11
499	0.111
500	0.112
500	0.112
501	0.113
501	0.114
501	0.114
502	0.114
502	0.115
503	0.116
503	0.117
504	0.117
504	0.118
505	0.119
505	0.12
506	0.12
506	0.121
506	0.122
507	0.123
507	0.123
508	0.124
508	0.125
509	0.125
509	0.126
510	0.127
510	0.127
511	0.127
511	0.128
511	0.128
512	0.129
512	0.13
513	0.13
513	0.13
514	0.13
514	0.13
515	0.13
515	0.13
515	0.13
516	0.13
516	0.131
517	0.131
517	0.132
518	0.132
518	0.132
519	0.132
519	0.132
520	0.132
520	0.132
520	0.132
521	0.132
521	0.131
522	0.131
522	0.13
523	0.13
523	0.131
524	0.13
524	0.13
524	0.13
525	0.131
525	0.131
526	0.131
526	0.131
527	0.132
527	0.132
528	0.132
528	0.132
529	0.132
529	0.131
529	0.131
530	0.131
530	0.13
531	0.13
531	0.13
532	0.129
532	0.129
533	0.128
533	0.127
533	0.127
534	0.126
534	0.126
535	0.125
535	0.125
536	0.124
536	0.123
537	0.123
537	0.122
538	0.121
538	0.121
538	0.12
539	0.12
539	0.119
540	0.118
540	0.117
541	0.116
541	0.116
542	0.115
542	0.114
542	0.113
543	0.112
543	0.111
544	0.11
544	0.109
545	0.109
545	0.108
546	0.108
546	0.107
547	0.106
547	0.106
547	0.105
548	0.104
548	0.104
549	0.103
549	0.103
550	0.102
550	0.101
551	0.1
551	0.099
551	0.098
552	0.098
552	0.097
553	0.097
553	0.096
554	0.095
554	0.094
555	0.093
555	0.092
556	0.091
556	0.089
556	0.088
557	0.086
557	0.085
558	0.084
558	0.082
559	0.081
559	0.08
560	0.08
560	0.079
560	0.078
561	0.079
561	0.078
562	0.078
562	0.077
563	0.076
563	0.075
564	0.074
564	0.074
564	0.073
565	0.072
565	0.072
566	0.071
566	0.07
567	0.07
567	0.07
568	0.07
568	0.069
568	0.069
569	0.069
569	0.069
570	0.069
570	0.068
571	0.068
571	0.068
572	0.068
572	0.067
573	0.067
573	0.066
573	0.065
574	0.065
574	0.065
575	0.064
575	0.065
576	0.065
576	0.064
577	0.063
577	0.062
577	0.062
578	0.062
578	0.062
579	0.062
579	0.063
580	0.061
580	0.06
581	0.058
581	0.058
581	0.058
582	0.058
582	0.058
583	0.058
583	0.057
584	0.056
584	0.054
585	0.054
585	0.054
585	0.054
586	0.054
586	0.054
587	0.053
587	0.052
588	0.05
588	0.05
589	0.05
589	0.05
590	0.049
590	0.049
590	0.05
591	0.05
591	0.05
592	0.05
592	0.05
593	0.05
593	0.05
594	0.049
594	0.049
594	0.048
595	0.048
595	0.048
596	0.048
596	0.049
597	0.05
597	0.051
598	0.051
598	0.052
598	0.052
599	0.052
599	0.052
600	0.051
600	0.051
601	0.05
601	0.05
602	0.048
602	0.048
602	0.047
603	0.047
603	0.048
604	0.048
604	0.049
605	0.05
605	0.05
606	0.05
606	0.05
606	0.05
607	0.049
607	0.049
608	0.049
608	0.048
609	0.048
609	0.048
610	0.047
610	0.047
610	0.047
611	0.048
611	0.049
612	0.05
612	0.051
613	0.053
613	0.054
614	0.054
614	0.054
614	0.055
615	0.055
615	0.055
616	0.055
616	0.055
617	0.055
617	0.054
618	0.053
618	0.053
618	0.053
619	0.053
619	0.054
620	0.055
620	0.055
621	0.055
621	0.055
622	0.055
622	0.056
622	0.056
623	0.055
623	0.056
624	0.056
624	0.056
625	0.056
625	0.057
626	0.057
626	0.057
626	0.058
627	0.058
627	0.059
628	0.06
628	0.06
629	0.06
629	0.06
630	0.06
630	0.06
630	0.06
631	0.06
631	0.06
632	0.06
632	0.06
633	0.061
633	0.061
634	0.062
634	0.063
634	0.064
635	0.065
635	0.065
636	0.066
636	0.067
637	0.068
637	0.068
638	0.069
638	0.07
638	0.071
639	0.071
639	0.072
640	0.073
640	0.073
641	0.074
641	0.075
642	0.076
642	0.077
642	0.077
643	0.078
643	0.079
644	0.08
644	0.081
645	0.082
645	0.083
646	0.085
646	0.086
646	0.088
647	0.089
647	0.091
648	0.092
648	0.094
649	0.095
649	0.097
650	0.098
650	0.1
650	0.101
651	0.103
651	0.104
652	0.104
652	0.105
653	0.107
653	0.111
653	0.11
654	0.089
654	0.073
655	0.074
655	0.075
656	0.076
656	0.077
657	0.078
657	0.08
657	0.08
658	0.079
658	0.078
659	0.098
659	0.124
660	0.13
660	0.131
661	0.132
661	0.134
661	0.136
662	0.137
662	0.139
663	0.14
663	0.141
664	0.143
664	0.143
665	0.145
665	0.146
665	0.147
666	0.148
666	0.148
667	0.149
667	0.15
668	0.152
668	0.153
669	0.154
669	0.156
669	0.158
670	0.159
670	0.16
671	0.161
671	0.162
672	0.164
672	0.165
672	0.165
673	0.167
673	0.168
674	0.169
674	0.17
675	0.171
675	0.173
676	0.175
676	0.176
676	0.177
677	0.178
677	0.179
678	0.18
678	0.18
679	0.18
679	0.181
680	0.182
680	0.182
680	0.182
681	0.183
681	0.183
682	0.184
682	0.185
683	0.186
683	0.187
684	0.188
684	0.187
684	0.187
685	0.187
685	0.187
686	0.187
686	0.187
687	0.186
687	0.186
687	0.185
688	0.185
688	0.185
689	0.186
689	0.187
690	0.187
690	0.187
691	0.187
691	0.188
691	0.188
692	0.187
692	0.187
693	0.187
693	0.187
694	0.186
694	0.185
695	0.185
695	0.186
695	0.185
696	0.185
696	0.184
697	0.183
697	0.183
698	0.182
698	0.181
698	0.18
699	0.179
699	0.178
700	0.176
700	0.176
701	0.175
701	0.174
702	0.173
702	0.172
702	0.171
703	0.169
703	0.168
704	0.166
704	0.165
705	0.164
705	0.163
705	0.162
706	0.161
706	0.16
707	0.159
707	0.158
708	0.157
708	0.156
709	0.156
709	0.154
709	0.153
710	0.152
710	0.151
711	0.151
711	0.149
712	0.148
712	0.147
713	0.146
713	0.145
713	0.144
714	0.142
714	0.141
715	0.139
715	0.138
716	0.136
716	0.134
716	0.133
717	0.131
717	0.129
718	0.128
718	0.126
719	0.125
719	0.123
720	0.122
720	0.12
720	0.119
721	0.117
721	0.116
722	0.114
722	0.113
723	0.112
723	0.111
723	0.11
724	0.109
724	0.109
725	0.108
725	0.108
726	0.107
726	0.107
727	0.107
727	0.106
727	0.106
728	0.104
728	0.104
729	0.103
729	0.102
730	0.101
730	0.099
730	0.098
731	0.097
731	0.095
732	0.095
732	0.094
733	0.093
733	0.092
734	0.091
734	0.09
734	0.09
735	0.09
735	0.089
736	0.088
736	0.087
737	0.086
737	0.085
737	0.084
738	0.082
738	0.08
739	0.079
739	0.077
740	0.076
740	0.075
741	0.074
741	0.073
741	0.072
742	0.071
742	0.071
743	0.071
743	0.07
744	0.07
744	0.069
744	0.069
745	0.067
745	0.066
746	0.065
746	0.064
747	0.063
747	0.062
748	0.061
748	0.06
748	0.059
749	0.059
749	0.058
750	0.058
750	0.058
751	0.058
751	0.058
751	0.058
752	0.057
752	0.057
753	0.057
753	0.057
754	0.057
754	0.056
754	0.056
755	0.056
755	0.057
756	0.056
756	0.055
757	0.055
757	0.055
758	0.055
758	0.054
758	0.054
759	0.054
759	0.053
760	0.052
760	0.051
761	0.051
761	0.05
761	0.05
762	0.049
762	0.049
763	0.048
763	0.046
764	0.045
764	0.044
764	0.043
765	0.042
765	0.04
766	0.039
766	0.039
767	0.038
767	0.036
768	0.034
768	0.033
768	0.032
769	0.031
769	0.03
770	0.029
770	0.028
771	0.026
771	0.024
771	0.023
772	0.021
772	0.02
773	0.019
773	0.018
774	0.016
774	0.015
775	0.014
775	0.014
775	0.013
776	0.013
776	0.013
777	0.013
777	0.013
778	0.012
778	0.012
778	0.011
779	0.011
779	0.01
780	0.008
780	0.007
781	0.005
781	0.002
781	-0.001
782	-0.004
782	-0.007
783	-0.01
783	-0.013
784	-0.016
784	-0.02
784	-0.023
785	-0.027
785	-0.031
786	-0.034
786	-0.036
787	-0.038
787	-0.04
788	-0.044
788	-0.048
788	-0.052
789	-0.057
789	-0.062
790	-0.067
790	-0.073
791	-0.079
791	-0.086
791	-0.092
792	-0.091
792	-0.086
793	-0.085
793	-0.086
794	-0.089
794	-0.093
794	-0.099
795	-0.103
795	-0.104
796	-0.104
796	-0.107
797	-0.116
797	-0.127
797	-0.133
798	-0.139
798	-0.142
799	-0.143
799	-0.142
800	-0.142
800	-0.143
801	-0.146
801	-0.147
801	-0.146
802	-0.147
802	-0.148
803	-0.149
803	-0.149
804	-0.148
804	-0.143
804	-0.136
805	-0.133
805	-0.131
806	-0.129
806	-0.128
807	-0.128
807	-0.128
807	-0.128
808	-0.128
808	-0.13
809	-0.134
809	-0.14
810	-0.144
810	-0.147
810	-0.15
811	-0.153
811	-0.153
812	-0.149
812	-0.146
813	-0.145
813	-0.143
813	-0.141
814	-0.137
814	-0.131
815	-0.124
815	-0.115
816	-0.106
816	-0.097
817	-0.092
817	-0.084
817	-0.074
818	-0.065
818	-0.055
819	-0.047
819	-0.04
820	-0.035
820	-0.03
820	-0.025
821	-0.021
821	-0.017
822	-0.013
822	-0.01
823	-0.007
823	-0.005
823	-0.003
824	-0.001
824	0.002
825	0.004
825	0.007
826	0.009
826	0.011
826	0.012
827	0.014
827	0.015
828	0.016
828	0.017
829	0.018
829	0.018
829	0.018
830	0.018
830	0.018
831	0.019
831	0.019
832	0.019
832	0.019
832	0.019
833	0.02
833	0.02
834	0.021
834	0.021
835	0.022
835	0.022
835	0.022
836	0.022
836	0.023
837	0.023
837	0.024
838	0.025
838	0.025
839	0.025
839	0.025
839	0.025
840	0.025
840	0.025
841	0.025
841	0.024
842	0.024
842	0.024
842	0.023
843	0.023
843	0.023
844	0.023
844	0.023
845	0.023
845	0.023
845	0.023
846	0.023
846	0.022
847	0.022
847	0.022
848	0.022
848	0.023
848	0.023
849	0.023
849	0.023
850	0.024
850	0.024
851	0.024
851	0.025
851	0.025
852	0.025
852	0.025
853	0.025
853	0.024
854	0.024
854	0.024
854	0.024
855	0.024
855	0.024
856	0.023
856	0.023
857	0.022
857	0.022
857	0.022
858	0.022
858	0.021
859	0.021
859	0.021
860	0.021
860	0.022
860	0.022
861	0.022
861	0.023
862	0.023
862	0.024
863	0.024
863	0.025
863	0.025
864	0.026
864	0.026
865	0.027
865	0.027
866	0.028
866	0.028
866	0.029
867	0.03
867	0.03
868	0.03
868	0.031
869	0.031
869	0.03
869	0.03
870	0.03
870	0.03
871	0.03
871	0.03
872	0.03
872	0.03
872	0.03
873	0.03
873	0.03
874	0.03
874	0.03
875	0.03
875	0.029
875	0.029
876	0.028
876	0.027
877	0.026
877	0.025
878	0.024
878	0.023
878	0.022
879	0.021
879	0.021
880	0.021
880	0.02
881	0.02
881	0.021
881	0.021
882	0.021
882	0.022
883	0.022
883	0.022
884	0.022
884	0.022
884	0.022
885	0.021
885	0.021
886	0.021
886	0.021
887	0.02
887	0.02
887	0.02
888	0.02
888	0.02
889	0.021
889	0.022
890	0.022
890	0.023
890	0.023
891	0.023
891	0.024
892	0.024
892	0.025
893	0.025
893	0.026
893	0.026
894	0.027
894	0.027
895	0.026
895	0.026
895	0.026
896	0.025
896	0.025
897	0.024
897	0.024
898	0.023
898	0.022
898	0.022
899	0.022
899	0.021
900	0.021
900	0.021
901	0.022
901	0.022
901	0.022
902	0.023
902	0.023
903	0.024
903	0.024
904	0.025
904	0.026
904	0.026
905	0.027
905	0.027
906	0.027
906	0.027
907	0.027
907	0.027
907	0.027
908	0.027
908	0.028
909	0.028
909	0.029
910	0.029
910	0.03
910	0.03
911	0.03
911	0.03
912	0.03
912	0.03
913	0.03
913	0.029
913	0.029
914	0.028
914	0.028
915	0.027
915	0.026
916	0.025
916	0.024
916	0.023
917	0.021
917	0.02
918	0.018
918	0.016
918	0.015
919	0.013
919	0.012
920	0.011
920	0.011
921	0.011
921	0.011
921	0.011
922	0.011
922	0.012
923	0.013
923	0.013
924	0.014
924	0.015
924	0.015
925	0.016
925	0.017
926	0.018
926	0.018
927	0.018
927	0.019
927	0.018
928	0.018
928	0.018
929	0.017
929	0.017
930	0.016
930	0.015
930	0.015
931	0.014
931	0.014
932	0.013
932	0.013
933	0.013
933	0.012
933	0.012
934	0.011
934	0.011
935	0.011
935	0.01
935	0.01
936	0.01
936	0.009
937	0.009
937	0.009
938	0.009
938	0.009
938	0.009
939	0.009
939	0.01
940	0.01
940	0.011
941	0.012
941	0.012
941	0.013
942	0.014
942	0.015
943	0.016
943	0.016
944	0.017
944	0.018
944	0.018
945	0.018
945	0.019
946	0.019
946	0.019
946	0.019
947	0.02
947	0.02
948	0.021
948	0.021
949	0.022
949	0.022
949	0.023
950	0.023
950	0.024
951	0.024
951	0.024
952	0.024
952	0.023
952	0.023
953	0.022
953	0.021
954	0.02
954	0.02
955	0.019
955	0.019
955	0.018
956	0.018
956	0.018
957	0.018
957	0.018
957	0.018
958	0.018
958	0.019
959	0.019
959	0.019
960	0.019
960	0.02
960	0.02
961	0.02
961	0.021
962	0.021
962	0.021
963	0.022
963	0.022
963	0.022
964	0.022
964	0.023
965	0.022
965	0.022
966	0.022
966	0.022
966	0.021
967	0.021
967	0.02
968	0.02
968	0.019
968	0.019
969	0.018
969	0.018
970	0.018
970	0.018
971	0.018
971	0.017
971	0.017
972	0.017
972	0.017
973	0.017
973	0.017
974	0.017
974	0.018
974	0.018
975	0.018
975	0.019
976	0.019
976	0.02
976	0.021
977	0.022
977	0.022
978	0.023
978	0.023
979	0.024
979	0.024
979	0.024
980	0.024
980	0.023
981	0.023
981	0.022
982	0.022
982	0.021
982	0.02
983	0.019
983	0.018
984	0.018
984	0.017
984	0.016
985	0.016
985	0.015
986	0.015
986	0.014
987	0.014
987	0.013
987	0.014
988	0.013
988	0.014
989	0.014
989	0.014
990	0.014
990	0.014
990	0.014
991	0.015
991	0.015
992	0.015
992	0.015
992	0.016
993	0.016
993	0.016
994	0.016
994	0.016
995	0.016
995	0.016
995	0.016
996	0.016
996	0.016
997	0.016
997	0.016
997	0.016
998	0.016
998	0.016
999	0.017
999	0.017
1000	0.018
1000	0.018
1000	0.019
1001	0.02
1001	0.021
1002	0.021
1002	0.022
1003	0.023
1003	0.023
1003	0.023
1004	0.023
1004	0.023
1005	0.022
1005	0.022
1005	0.021
1006	0.02
1006	0.02
1007	0.019
1007	0.018
1008	0.018
1008	0.017
1008	0.017
1009	0.017
1009	0.016
1010	0.016
1010	0.016
1010	0.016
1011	0.016
1011	0.015
1012	0.015
1012	0.014
1013	0.014
1013	0.014
1013	0.013
1014	0.012
1014	0.011
1015	0.01
1015	0.01
1016	0.009
1016	0.008
1016	0.007
1017	0.006
1017	0.005
1018	0.004
1018	0.003
1018	0.003
1019	0.002
1019	0.002
1020	0.002
1020	0.001
1021	0.001
1021	0.001
1021	0.001
1022	0.002
1022	0.002
1023	0.003
1023	0.003
1023	0.004
1024	0.004
1024	0.004
1025	0.004
1025	0.004
1026	0.004
1026	0.005
1026	0.004
1027	0.004
1027	0.004
1028	0.004
1028	0.003
1028	0.003
1029	0.003
1029	0.003
1030	0.002
1030	0.002
1031	0.002
1031	0.001
1031	0.001
1032	0.002
1032	0.002
1033	0.002
1033	0.002
1033	0.002
1034	0.002
1034	0.002
1035	0.002
1035	0.002
1036	0.002
1036	0.002
1036	0.002
1037	0.002
1037	0.002
1038	0.003
1038	0.003
1039	0.004
1039	0.004
1039	0.005
1040	0.006
1040	0.007
1041	0.008
1041	0.008
1041	0.009
1042	0.009
1042	0.01
1043	0.01
1043	0.011
1044	0.012
1044	0.012
1044	0.013
1045	0.013
1045	0.013
1046	0.012
1046	0.012
1046	0.012
1047	0.012
1047	0.013
1048	0.012
1048	0.012
1049	0.011
1049	0.011
1049	0.01
1050	0.009
1050	0.009
1051	0.008
1051	0.008
1051	0.007
1052	0.006
1052	0.006
1053	0.005
1053	0.004
1053	0.003
1054	0.003
1054	0.002
1055	0.002
1055	0.001
1056	-0
1056	-0.001
1056	-0.002
1057	-0.003
1057	-0.004
1058	-0.004
1058	-0.004
1058	-0.005
1059	-0.005
1059	-0.005
1060	-0.005
1060	-0.005
1061	-0.004
1061	-0.004
1061	-0.003
1062	-0.003
1062	-0.003
1063	-0.003
1063	-0.003
1063	-0.003
1064	-0.003
1064	-0.002
1065	-0.002
1065	-0.003
1066	-0.002
1066	-0.002
1066	-0.002
1067	-0.001
1067	-0.001
1068	-0.001
1068	-0.002
1068	-0.002
1069	-0.003
1069	-0.004
1070	-0.005
1070	-0.006
1071	-0.006
1071	-0.007
1071	-0.009
1072	-0.01
1072	-0.011
1073	-0.011
1073	-0.012
1073	-0.013
1074	-0.013
1074	-0.014
1075	-0.015
1075	-0.016
1076	-0.016
1076	-0.017
1076	-0.017
1077	-0.017
1077	-0.017
1078	-0.017
1078	-0.017
1078	-0.017
1079	-0.017
1079	-0.016
1080	-0.016
1080	-0.015
1080	-0.015
1081	-0.015
1081	-0.015
1082	-0.015
1082	-0.015
1083	-0.015
1083	-0.015
1083	-0.015
1084	-0.015
1084	-0.015
1085	-0.015
1085	-0.015
1085	-0.015
1086	-0.015
1086	-0.015
1087	-0.015
1087	-0.015
1088	-0.015
1088	-0.015
1088	-0.015
1089	-0.016
1089	-0.016
1090	-0.017
1090	-0.018
1090	-0.018
1091	-0.019
1091	-0.019
1092	-0.019
1092	-0.019
1092	-0.019
1093	-0.02
1093	-0.02
1094	-0.02
1094	-0.02
1095	-0.021
1095	-0.021
1095	-0.02
1096	-0.021
1096	-0.021
1097	-0.02
1097	-0.021
1097	-0.02
1098	-0.02
1098	-0.019
1099	-0.018
1099	-0.017
1100	-0.017
1100	-0.017
1100	-0.016
1101	-0.016
1101	-0.016
1102	-0.014
1102	-0.014
1102	-0.012
1103	-0.012
1103	-0.011
1104	-0.01
1104	-0.009
1104	-0.007
1105	-0.005
1105	-0.005
1106	-0.004
1106	-0.003
1107	-0.002
1107	-0
1107	0.002
1108	0.015
1108	0.031
1109	0.052
1109	0.078
1109	0.094
1110	0.127
1110	0.175
1111	0.271
1111	0.589
