Data from 17c-2a_Absorbance__2193__02194.txt Node

Date: Fri Jan 26 11:00:36 CET 2024
User: Marek
Spectrometer: MAYP115816
Trigger mode: 0
Integration Time (sec): 2.000000E-1
Scans to average: 10
Electric dark correction enabled: true
Nonlinearity correction enabled: true
Boxcar width: 5
XAxis mode: Wavelengths
Number of Pixels in Spectrum: 2068
>>>>>Begin Spectral Data<<<<<
199	-1.498
199	-1.361
200	-1.213
200	-1.103
201	-1.033
201	-0.991
202	-0.926
202	-0.876
203	-0.834
203	-0.798
204	-0.773
204	-0.749
205	-0.729
205	-0.719
205	-0.717
206	-0.712
206	-0.708
207	-0.704
207	-0.704
208	-0.703
208	-0.701
209	-0.698
209	-0.696
210	-0.696
210	-0.697
211	-0.698
211	-0.701
212	-0.701
212	-0.7
213	-0.699
213	-0.695
213	-0.696
214	-0.693
214	-0.691
215	-0.687
215	-0.685
216	-0.682
216	-0.681
217	-0.678
217	-0.676
218	-0.673
218	-0.672
219	-0.668
219	-0.667
220	-0.666
220	-0.666
221	-0.664
221	-0.663
221	-0.658
222	-0.652
222	-0.649
223	-0.645
223	-0.641
224	-0.636
224	-0.629
225	-0.622
225	-0.615
226	-0.606
226	-0.594
227	-0.584
227	-0.574
228	-0.558
228	-0.541
229	-0.521
229	-0.499
229	-0.475
230	-0.447
230	-0.416
231	-0.385
231	-0.351
232	-0.316
232	-0.277
233	-0.237
233	-0.196
234	-0.157
234	-0.118
235	-0.078
235	-0.041
236	-0.005
236	0.03
236	0.063
237	0.093
237	0.121
238	0.147
238	0.171
239	0.194
239	0.213
240	0.232
240	0.248
241	0.263
241	0.276
242	0.289
242	0.3
243	0.311
243	0.32
243	0.328
244	0.335
244	0.343
245	0.348
245	0.354
246	0.36
246	0.364
247	0.369
247	0.373
248	0.378
248	0.382
249	0.386
249	0.389
250	0.392
250	0.396
250	0.399
251	0.402
251	0.405
252	0.408
252	0.411
253	0.413
253	0.415
254	0.417
254	0.419
255	0.421
255	0.423
256	0.424
256	0.425
257	0.427
257	0.428
258	0.429
258	0.429
258	0.43
259	0.431
259	0.431
260	0.432
260	0.432
261	0.432
261	0.432
262	0.432
262	0.432
263	0.432
263	0.432
264	0.431
264	0.431
265	0.431
265	0.43
265	0.429
266	0.428
266	0.427
267	0.425
267	0.424
268	0.422
268	0.421
269	0.419
269	0.418
270	0.416
270	0.414
271	0.412
271	0.41
272	0.409
272	0.407
272	0.405
273	0.403
273	0.4
274	0.398
274	0.396
275	0.394
275	0.392
276	0.39
276	0.387
277	0.385
277	0.382
278	0.38
278	0.377
278	0.375
279	0.372
279	0.37
280	0.367
280	0.365
281	0.363
281	0.36
282	0.358
282	0.356
283	0.354
283	0.353
284	0.351
284	0.349
285	0.347
285	0.346
285	0.344
286	0.341
286	0.34
287	0.338
287	0.336
288	0.334
288	0.332
289	0.33
289	0.328
290	0.327
290	0.325
291	0.324
291	0.322
292	0.321
292	0.32
292	0.318
293	0.316
293	0.315
294	0.314
294	0.313
295	0.312
295	0.311
296	0.31
296	0.308
297	0.307
297	0.306
298	0.305
298	0.304
298	0.303
299	0.303
299	0.302
300	0.301
300	0.3
301	0.299
301	0.298
302	0.297
302	0.296
303	0.296
303	0.295
304	0.294
304	0.293
305	0.292
305	0.291
305	0.29
306	0.29
306	0.289
307	0.288
307	0.287
308	0.286
308	0.286
309	0.285
309	0.284
310	0.283
310	0.283
311	0.282
311	0.281
311	0.281
312	0.28
312	0.279
313	0.279
313	0.278
314	0.277
314	0.276
315	0.276
315	0.275
316	0.274
316	0.273
317	0.273
317	0.272
318	0.271
318	0.27
318	0.269
319	0.269
319	0.268
320	0.267
320	0.266
321	0.265
321	0.265
322	0.264
322	0.263
323	0.263
323	0.262
324	0.261
324	0.26
324	0.26
325	0.259
325	0.258
326	0.258
326	0.257
327	0.256
327	0.256
328	0.255
328	0.254
329	0.254
329	0.253
330	0.252
330	0.252
330	0.251
331	0.25
331	0.25
332	0.249
332	0.249
333	0.248
333	0.248
334	0.247
334	0.246
335	0.246
335	0.245
336	0.245
336	0.244
336	0.243
337	0.243
337	0.242
338	0.242
338	0.241
339	0.24
339	0.24
340	0.239
340	0.239
341	0.238
341	0.238
342	0.238
342	0.237
342	0.237
343	0.236
343	0.236
344	0.235
344	0.235
345	0.235
345	0.234
346	0.234
346	0.233
347	0.233
347	0.233
348	0.232
348	0.232
348	0.231
349	0.231
349	0.231
350	0.23
350	0.23
351	0.23
351	0.23
352	0.229
352	0.229
353	0.229
353	0.229
354	0.228
354	0.228
354	0.228
355	0.227
355	0.227
356	0.227
356	0.226
357	0.226
357	0.225
358	0.225
358	0.225
359	0.225
359	0.225
360	0.225
360	0.225
360	0.225
361	0.225
361	0.226
362	0.226
362	0.226
363	0.226
363	0.226
364	0.225
364	0.225
365	0.225
365	0.225
366	0.225
366	0.224
366	0.224
367	0.224
367	0.224
368	0.224
368	0.223
369	0.223
369	0.223
370	0.223
370	0.223
371	0.222
371	0.222
372	0.222
372	0.222
372	0.222
373	0.222
373	0.221
374	0.222
374	0.222
375	0.221
375	0.221
376	0.221
376	0.221
377	0.221
377	0.221
378	0.221
378	0.221
378	0.221
379	0.221
379	0.22
380	0.22
380	0.22
381	0.22
381	0.22
382	0.22
382	0.219
383	0.219
383	0.219
383	0.219
384	0.218
384	0.218
385	0.218
385	0.218
386	0.217
386	0.217
387	0.217
387	0.217
388	0.217
388	0.217
389	0.216
389	0.216
389	0.216
390	0.216
390	0.216
391	0.216
391	0.216
392	0.216
392	0.216
393	0.216
393	0.216
394	0.216
394	0.216
394	0.216
395	0.215
395	0.215
396	0.215
396	0.215
397	0.214
397	0.214
398	0.214
398	0.214
399	0.213
399	0.213
400	0.213
400	0.213
400	0.212
401	0.212
401	0.211
402	0.211
402	0.211
403	0.211
403	0.211
404	0.21
404	0.21
405	0.21
405	0.21
405	0.21
406	0.21
406	0.21
407	0.21
407	0.209
408	0.209
408	0.209
409	0.209
409	0.209
410	0.209
410	0.208
411	0.208
411	0.208
411	0.208
412	0.208
412	0.208
413	0.207
413	0.207
414	0.207
414	0.207
415	0.207
415	0.206
416	0.206
416	0.206
416	0.205
417	0.205
417	0.205
418	0.205
418	0.205
419	0.205
419	0.205
420	0.206
420	0.206
421	0.206
421	0.206
421	0.206
422	0.207
422	0.207
423	0.207
423	0.206
424	0.206
424	0.206
425	0.205
425	0.205
426	0.205
426	0.205
427	0.205
427	0.205
427	0.205
428	0.205
428	0.205
429	0.205
429	0.205
430	0.205
430	0.205
431	0.205
431	0.205
432	0.205
432	0.204
432	0.204
433	0.203
433	0.203
434	0.203
434	0.203
435	0.203
435	0.203
436	0.203
436	0.204
437	0.204
437	0.204
437	0.204
438	0.203
438	0.203
439	0.203
439	0.203
440	0.202
440	0.202
441	0.202
441	0.202
442	0.202
442	0.202
442	0.202
443	0.202
443	0.202
444	0.202
444	0.202
445	0.203
445	0.203
446	0.203
446	0.203
447	0.203
447	0.203
447	0.203
448	0.203
448	0.203
449	0.203
449	0.203
450	0.203
450	0.203
451	0.203
451	0.203
452	0.203
452	0.203
452	0.202
453	0.202
453	0.202
454	0.202
454	0.202
455	0.202
455	0.202
456	0.202
456	0.202
457	0.202
457	0.202
458	0.202
458	0.202
458	0.203
459	0.203
459	0.203
460	0.203
460	0.202
461	0.202
461	0.202
462	0.203
462	0.203
463	0.203
463	0.204
463	0.204
464	0.204
464	0.204
465	0.205
465	0.205
466	0.205
466	0.205
467	0.206
467	0.206
467	0.205
468	0.205
468	0.204
469	0.204
469	0.204
470	0.204
470	0.204
471	0.204
471	0.204
472	0.205
472	0.205
472	0.206
473	0.207
473	0.207
474	0.208
474	0.209
475	0.209
475	0.21
476	0.211
476	0.211
477	0.212
477	0.212
477	0.213
478	0.213
478	0.214
479	0.214
479	0.215
480	0.216
480	0.216
481	0.217
481	0.218
482	0.219
482	0.22
482	0.221
483	0.223
483	0.225
484	0.227
484	0.229
485	0.23
485	0.231
486	0.232
486	0.233
487	0.234
487	0.235
487	0.235
488	0.235
488	0.235
489	0.235
489	0.235
490	0.236
490	0.237
491	0.237
491	0.239
492	0.24
492	0.241
492	0.242
493	0.243
493	0.245
494	0.247
494	0.249
495	0.251
495	0.252
496	0.254
496	0.255
496	0.257
497	0.258
497	0.26
498	0.261
498	0.262
499	0.263
499	0.265
500	0.267
500	0.269
501	0.27
501	0.272
501	0.274
502	0.276
502	0.277
503	0.279
503	0.28
504	0.282
504	0.283
505	0.285
505	0.286
506	0.288
506	0.289
506	0.29
507	0.291
507	0.292
508	0.294
508	0.295
509	0.297
509	0.298
510	0.3
510	0.301
511	0.302
511	0.303
511	0.304
512	0.306
512	0.306
513	0.307
513	0.307
514	0.308
514	0.308
515	0.309
515	0.309
515	0.31
516	0.311
516	0.312
517	0.313
517	0.313
518	0.314
518	0.314
519	0.314
519	0.314
520	0.314
520	0.313
520	0.313
521	0.312
521	0.311
522	0.31
522	0.31
523	0.31
523	0.311
524	0.311
524	0.312
524	0.313
525	0.313
525	0.314
526	0.314
526	0.315
527	0.316
527	0.316
528	0.316
528	0.316
529	0.315
529	0.315
529	0.314
530	0.314
530	0.313
531	0.313
531	0.312
532	0.31
532	0.309
533	0.308
533	0.307
533	0.306
534	0.305
534	0.303
535	0.302
535	0.301
536	0.299
536	0.298
537	0.297
537	0.296
538	0.294
538	0.292
538	0.29
539	0.289
539	0.287
540	0.285
540	0.283
541	0.281
541	0.279
542	0.277
542	0.275
542	0.273
543	0.271
543	0.268
544	0.266
544	0.264
545	0.263
545	0.262
546	0.26
546	0.258
547	0.256
547	0.254
547	0.251
548	0.249
548	0.247
549	0.245
549	0.243
550	0.241
550	0.238
551	0.236
551	0.233
551	0.231
552	0.229
552	0.227
553	0.225
553	0.224
554	0.222
554	0.219
555	0.216
555	0.214
556	0.211
556	0.208
556	0.205
557	0.203
557	0.2
558	0.197
558	0.195
559	0.192
559	0.19
560	0.188
560	0.186
560	0.185
561	0.184
561	0.183
562	0.181
562	0.179
563	0.177
563	0.175
564	0.173
564	0.171
564	0.169
565	0.167
565	0.166
566	0.163
566	0.162
567	0.16
567	0.159
568	0.158
568	0.157
568	0.157
569	0.157
569	0.156
570	0.155
570	0.154
571	0.154
571	0.153
572	0.152
572	0.151
573	0.15
573	0.148
573	0.147
574	0.145
574	0.144
575	0.143
575	0.144
576	0.143
576	0.141
577	0.139
577	0.138
577	0.137
578	0.136
578	0.136
579	0.136
579	0.136
580	0.134
580	0.131
581	0.128
581	0.127
581	0.126
582	0.126
582	0.126
583	0.126
583	0.124
584	0.121
584	0.118
585	0.117
585	0.117
585	0.117
586	0.117
586	0.116
587	0.114
587	0.112
588	0.11
588	0.109
589	0.108
589	0.107
590	0.107
590	0.106
590	0.107
591	0.107
591	0.106
592	0.106
592	0.105
593	0.105
593	0.105
594	0.104
594	0.103
594	0.103
595	0.102
595	0.101
596	0.1
596	0.101
597	0.103
597	0.103
598	0.103
598	0.104
598	0.104
599	0.104
599	0.103
600	0.102
600	0.101
601	0.101
601	0.1
602	0.098
602	0.097
602	0.096
603	0.095
603	0.096
604	0.096
604	0.097
605	0.098
605	0.098
606	0.098
606	0.097
606	0.097
607	0.096
607	0.096
608	0.096
608	0.094
609	0.094
609	0.094
610	0.093
610	0.092
610	0.093
611	0.094
611	0.095
612	0.097
612	0.098
613	0.1
613	0.101
614	0.101
614	0.101
614	0.102
615	0.102
615	0.102
616	0.102
616	0.102
617	0.102
617	0.101
618	0.101
618	0.1
618	0.1
619	0.1
619	0.101
620	0.102
620	0.102
621	0.102
621	0.103
622	0.103
622	0.103
622	0.103
623	0.103
623	0.104
624	0.105
624	0.105
625	0.105
625	0.106
626	0.106
626	0.107
626	0.108
627	0.109
627	0.11
628	0.111
628	0.112
629	0.112
629	0.112
630	0.112
630	0.112
630	0.113
631	0.113
631	0.114
632	0.114
632	0.114
633	0.115
633	0.116
634	0.117
634	0.119
634	0.121
635	0.122
635	0.123
636	0.124
636	0.125
637	0.126
637	0.127
638	0.129
638	0.13
638	0.131
639	0.132
639	0.132
640	0.134
640	0.135
641	0.136
641	0.138
642	0.14
642	0.142
642	0.144
643	0.145
643	0.147
644	0.149
644	0.15
645	0.152
645	0.154
646	0.157
646	0.16
646	0.163
647	0.166
647	0.169
648	0.171
648	0.174
649	0.177
649	0.18
650	0.183
650	0.186
650	0.189
651	0.192
651	0.194
652	0.196
652	0.198
653	0.2
653	0.208
653	0.214
654	0.17
654	0.137
655	0.14
655	0.142
656	0.143
656	0.145
657	0.147
657	0.149
657	0.151
658	0.149
658	0.141
659	0.18
659	0.234
660	0.242
660	0.245
661	0.247
661	0.25
661	0.253
662	0.256
662	0.259
663	0.262
663	0.265
664	0.267
664	0.269
665	0.272
665	0.275
665	0.277
666	0.28
666	0.282
667	0.285
667	0.287
668	0.29
668	0.293
669	0.296
669	0.299
669	0.302
670	0.305
670	0.307
671	0.309
671	0.311
672	0.313
672	0.315
672	0.316
673	0.318
673	0.32
674	0.322
674	0.323
675	0.325
675	0.327
676	0.33
676	0.332
676	0.334
677	0.336
677	0.338
678	0.34
678	0.341
679	0.342
679	0.343
680	0.345
680	0.346
680	0.347
681	0.348
681	0.349
682	0.35
682	0.351
683	0.352
683	0.354
684	0.355
684	0.355
684	0.355
685	0.356
685	0.356
686	0.356
686	0.356
687	0.355
687	0.355
687	0.354
688	0.354
688	0.354
689	0.354
689	0.356
690	0.356
690	0.356
691	0.356
691	0.357
691	0.357
692	0.356
692	0.355
693	0.355
693	0.354
694	0.353
694	0.351
695	0.35
695	0.35
695	0.349
696	0.348
696	0.347
697	0.346
697	0.345
698	0.343
698	0.341
698	0.339
699	0.338
699	0.335
700	0.332
700	0.329
701	0.327
701	0.325
702	0.322
702	0.32
702	0.318
703	0.315
703	0.313
704	0.311
704	0.309
705	0.308
705	0.306
705	0.305
706	0.303
706	0.302
707	0.3
707	0.298
708	0.297
708	0.295
709	0.294
709	0.292
709	0.289
710	0.287
710	0.285
711	0.283
711	0.281
712	0.279
712	0.277
713	0.274
713	0.272
713	0.27
714	0.267
714	0.264
715	0.261
715	0.258
716	0.255
716	0.252
716	0.248
717	0.245
717	0.242
718	0.239
718	0.236
719	0.234
719	0.232
720	0.229
720	0.227
720	0.224
721	0.222
721	0.22
722	0.217
722	0.215
723	0.213
723	0.211
723	0.209
724	0.207
724	0.204
725	0.202
725	0.2
726	0.198
726	0.196
727	0.194
727	0.192
727	0.19
728	0.188
728	0.186
729	0.184
729	0.183
730	0.181
730	0.178
730	0.177
731	0.175
731	0.173
732	0.172
732	0.171
733	0.17
733	0.168
734	0.167
734	0.165
734	0.164
735	0.164
735	0.162
736	0.16
736	0.158
737	0.156
737	0.155
737	0.153
738	0.15
738	0.147
739	0.145
739	0.142
740	0.14
740	0.138
741	0.137
741	0.135
741	0.133
742	0.13
742	0.128
743	0.127
743	0.126
744	0.125
744	0.123
744	0.121
745	0.119
745	0.117
746	0.115
746	0.114
747	0.113
747	0.112
748	0.111
748	0.11
748	0.108
749	0.107
749	0.106
750	0.105
750	0.105
751	0.104
751	0.104
751	0.104
752	0.102
752	0.101
753	0.1
753	0.099
754	0.098
754	0.097
754	0.097
755	0.096
755	0.096
756	0.094
756	0.092
757	0.092
757	0.092
758	0.091
758	0.09
758	0.09
759	0.09
759	0.088
760	0.087
760	0.085
761	0.083
761	0.082
761	0.081
762	0.079
762	0.078
763	0.076
763	0.073
764	0.07
764	0.068
764	0.066
765	0.064
765	0.062
766	0.061
766	0.06
767	0.059
767	0.057
768	0.054
768	0.053
768	0.052
769	0.051
769	0.051
770	0.049
770	0.048
771	0.046
771	0.043
771	0.041
772	0.039
772	0.037
773	0.036
773	0.033
774	0.031
774	0.029
775	0.027
775	0.025
775	0.023
776	0.021
776	0.019
777	0.017
777	0.015
778	0.012
778	0.01
778	0.007
779	0.005
779	0.003
780	0
780	-0.003
781	-0.005
781	-0.009
781	-0.012
782	-0.016
782	-0.021
783	-0.025
783	-0.029
784	-0.034
784	-0.039
784	-0.044
785	-0.049
785	-0.055
786	-0.06
786	-0.064
787	-0.067
787	-0.071
788	-0.077
788	-0.084
788	-0.091
789	-0.098
789	-0.102
790	-0.104
790	-0.108
791	-0.112
791	-0.116
791	-0.119
792	-0.114
792	-0.104
793	-0.099
793	-0.095
794	-0.093
794	-0.096
794	-0.1
795	-0.102
795	-0.103
796	-0.103
796	-0.106
797	-0.114
797	-0.126
797	-0.132
798	-0.138
798	-0.141
799	-0.141
799	-0.141
800	-0.14
800	-0.142
801	-0.145
801	-0.145
801	-0.145
802	-0.146
802	-0.147
803	-0.148
803	-0.148
804	-0.147
804	-0.142
804	-0.135
805	-0.131
805	-0.13
806	-0.128
806	-0.127
807	-0.127
807	-0.127
807	-0.127
808	-0.127
808	-0.128
809	-0.133
809	-0.139
810	-0.143
810	-0.145
810	-0.149
811	-0.152
811	-0.152
812	-0.148
812	-0.145
813	-0.145
813	-0.146
813	-0.147
814	-0.148
814	-0.149
815	-0.147
815	-0.144
816	-0.141
816	-0.138
817	-0.138
817	-0.135
817	-0.129
818	-0.12
818	-0.11
819	-0.099
819	-0.089
820	-0.08
820	-0.071
820	-0.062
821	-0.054
821	-0.046
822	-0.039
822	-0.033
823	-0.028
823	-0.024
823	-0.02
824	-0.016
824	-0.012
825	-0.007
825	-0.003
826	0.001
826	0.003
826	0.006
827	0.008
827	0.01
828	0.012
828	0.014
829	0.015
829	0.017
829	0.018
830	0.018
830	0.019
831	0.021
831	0.022
832	0.023
832	0.024
832	0.024
833	0.025
833	0.025
834	0.025
834	0.026
835	0.026
835	0.025
835	0.025
836	0.025
836	0.025
837	0.026
837	0.026
838	0.027
838	0.027
839	0.027
839	0.027
839	0.027
840	0.027
840	0.027
841	0.027
841	0.026
842	0.026
842	0.026
842	0.026
843	0.026
843	0.026
844	0.026
844	0.026
845	0.026
845	0.026
845	0.026
846	0.026
846	0.026
847	0.026
847	0.027
848	0.027
848	0.028
848	0.028
849	0.029
849	0.029
850	0.029
850	0.029
851	0.03
851	0.031
851	0.031
852	0.03
852	0.03
853	0.03
853	0.029
854	0.029
854	0.029
854	0.029
855	0.029
855	0.028
856	0.028
856	0.028
857	0.027
857	0.027
857	0.028
858	0.028
858	0.028
859	0.028
859	0.029
860	0.029
860	0.03
860	0.03
861	0.031
861	0.032
862	0.032
862	0.033
863	0.033
863	0.033
863	0.033
864	0.033
864	0.033
865	0.034
865	0.034
866	0.034
866	0.034
866	0.035
867	0.035
867	0.035
868	0.036
868	0.036
869	0.036
869	0.035
869	0.035
870	0.034
870	0.034
871	0.033
871	0.033
872	0.033
872	0.032
872	0.032
873	0.033
873	0.033
874	0.032
874	0.032
875	0.032
875	0.032
875	0.031
876	0.031
876	0.03
877	0.029
877	0.028
878	0.027
878	0.026
878	0.025
879	0.025
879	0.024
880	0.024
880	0.024
881	0.024
881	0.024
881	0.024
882	0.024
882	0.024
883	0.024
883	0.023
884	0.023
884	0.023
884	0.022
885	0.022
885	0.022
886	0.022
886	0.022
887	0.023
887	0.023
887	0.024
888	0.024
888	0.025
889	0.025
889	0.026
890	0.027
890	0.028
890	0.028
891	0.028
891	0.028
892	0.028
892	0.029
893	0.029
893	0.03
893	0.03
894	0.03
894	0.03
895	0.03
895	0.03
895	0.029
896	0.029
896	0.029
897	0.029
897	0.028
898	0.028
898	0.028
898	0.028
899	0.028
899	0.028
900	0.028
900	0.028
901	0.028
901	0.029
901	0.029
902	0.029
902	0.029
903	0.029
903	0.029
904	0.03
904	0.03
904	0.031
905	0.032
905	0.032
906	0.032
906	0.032
907	0.032
907	0.032
907	0.032
908	0.032
908	0.032
909	0.032
909	0.033
910	0.033
910	0.033
910	0.033
911	0.033
911	0.033
912	0.033
912	0.033
913	0.033
913	0.033
913	0.033
914	0.032
914	0.032
915	0.031
915	0.031
916	0.03
916	0.029
916	0.028
917	0.027
917	0.026
918	0.025
918	0.023
918	0.022
919	0.021
919	0.02
920	0.02
920	0.019
921	0.019
921	0.019
921	0.019
922	0.019
922	0.02
923	0.02
923	0.021
924	0.021
924	0.022
924	0.022
925	0.022
925	0.023
926	0.023
926	0.024
927	0.024
927	0.024
927	0.024
928	0.024
928	0.024
929	0.024
929	0.024
930	0.023
930	0.023
930	0.022
931	0.022
931	0.022
932	0.022
932	0.021
933	0.021
933	0.021
933	0.021
934	0.02
934	0.02
935	0.019
935	0.019
935	0.018
936	0.018
936	0.017
937	0.017
937	0.016
938	0.016
938	0.016
938	0.016
939	0.016
939	0.017
940	0.018
940	0.019
941	0.02
941	0.021
941	0.022
942	0.023
942	0.023
943	0.024
943	0.025
944	0.025
944	0.026
944	0.026
945	0.026
945	0.027
946	0.027
946	0.027
946	0.027
947	0.028
947	0.028
948	0.029
948	0.029
949	0.029
949	0.03
949	0.03
950	0.03
950	0.031
951	0.031
951	0.031
952	0.03
952	0.03
952	0.029
953	0.029
953	0.028
954	0.027
954	0.027
955	0.027
955	0.027
955	0.027
956	0.027
956	0.027
957	0.027
957	0.027
957	0.027
958	0.026
958	0.027
959	0.027
959	0.026
960	0.026
960	0.026
960	0.026
961	0.025
961	0.025
962	0.025
962	0.025
963	0.026
963	0.026
963	0.026
964	0.026
964	0.026
965	0.026
965	0.026
966	0.026
966	0.027
966	0.026
967	0.026
967	0.025
968	0.025
968	0.024
968	0.023
969	0.023
969	0.022
970	0.021
970	0.021
971	0.02
971	0.02
971	0.02
972	0.02
972	0.02
973	0.02
973	0.02
974	0.02
974	0.021
974	0.022
975	0.022
975	0.023
976	0.024
976	0.025
976	0.026
977	0.027
977	0.027
978	0.028
978	0.028
979	0.028
979	0.028
979	0.028
980	0.027
980	0.027
981	0.026
981	0.025
982	0.024
982	0.023
982	0.022
983	0.021
983	0.02
984	0.018
984	0.017
984	0.016
985	0.015
985	0.014
986	0.013
986	0.012
987	0.011
987	0.011
987	0.01
988	0.01
988	0.01
989	0.01
989	0.01
990	0.01
990	0.011
990	0.012
991	0.013
991	0.014
992	0.015
992	0.016
992	0.017
993	0.017
993	0.018
994	0.018
994	0.018
995	0.018
995	0.018
995	0.017
996	0.017
996	0.016
997	0.015
997	0.014
997	0.014
998	0.014
998	0.014
999	0.015
999	0.015
1000	0.016
1000	0.016
1000	0.017
1001	0.018
1001	0.019
1002	0.02
1002	0.02
1003	0.021
1003	0.021
1003	0.021
1004	0.021
1004	0.02
1005	0.02
1005	0.02
1005	0.02
1006	0.019
1006	0.019
1007	0.019
1007	0.019
1008	0.019
1008	0.019
1008	0.019
1009	0.019
1009	0.019
1010	0.019
1010	0.019
1010	0.02
1011	0.02
1011	0.02
1012	0.02
1012	0.02
1013	0.02
1013	0.019
1013	0.018
1014	0.017
1014	0.016
1015	0.015
1015	0.014
1016	0.013
1016	0.012
1016	0.011
1017	0.01
1017	0.009
1018	0.008
1018	0.007
1018	0.007
1019	0.006
1019	0.006
1020	0.006
1020	0.006
1021	0.006
1021	0.007
1021	0.007
1022	0.008
1022	0.009
1023	0.009
1023	0.01
1023	0.01
1024	0.011
1024	0.011
1025	0.011
1025	0.011
1026	0.011
1026	0.01
1026	0.01
1027	0.01
1027	0.009
1028	0.009
1028	0.009
1028	0.009
1029	0.008
1029	0.008
1030	0.008
1030	0.008
1031	0.007
1031	0.007
1031	0.007
1032	0.007
1032	0.007
1033	0.007
1033	0.007
1033	0.007
1034	0.006
1034	0.006
1035	0.006
1035	0.006
1036	0.006
1036	0.006
1036	0.006
1037	0.006
1037	0.006
1038	0.007
1038	0.007
1039	0.008
1039	0.008
1039	0.009
1040	0.009
1040	0.01
1041	0.011
1041	0.011
1041	0.012
1042	0.012
1042	0.013
1043	0.013
1043	0.013
1044	0.014
1044	0.014
1044	0.015
1045	0.015
1045	0.015
1046	0.015
1046	0.015
1046	0.015
1047	0.015
1047	0.015
1048	0.016
1048	0.016
1049	0.015
1049	0.014
1049	0.014
1050	0.013
1050	0.012
1051	0.011
1051	0.011
1051	0.01
1052	0.009
1052	0.008
1053	0.007
1053	0.006
1053	0.006
1054	0.005
1054	0.004
1055	0.004
1055	0.003
1056	0.002
1056	0.001
1056	-0
1057	-0.002
1057	-0.003
1058	-0.003
1058	-0.004
1058	-0.004
1059	-0.005
1059	-0.005
1060	-0.006
1060	-0.006
1061	-0.005
1061	-0.005
1061	-0.004
1062	-0.005
1062	-0.005
1063	-0.005
1063	-0.006
1063	-0.005
1064	-0.005
1064	-0.005
1065	-0.005
1065	-0.004
1066	-0.004
1066	-0.004
1066	-0.003
1067	-0.002
1067	-0.002
1068	-0.001
1068	-0.001
1068	-0.001
1069	-0.002
1069	-0.002
1070	-0.003
1070	-0.004
1071	-0.005
1071	-0.005
1071	-0.007
1072	-0.007
1072	-0.008
1073	-0.009
1073	-0.009
1073	-0.01
1074	-0.01
1074	-0.011
1075	-0.012
1075	-0.013
1076	-0.014
1076	-0.015
1076	-0.016
1077	-0.016
1077	-0.016
1078	-0.017
1078	-0.016
1078	-0.016
1079	-0.016
1079	-0.015
1080	-0.014
1080	-0.014
1080	-0.013
1081	-0.012
1081	-0.011
1082	-0.01
1082	-0.009
1083	-0.008
1083	-0.008
1083	-0.007
1084	-0.007
1084	-0.006
1085	-0.006
1085	-0.005
1085	-0.005
1086	-0.005
1086	-0.005
1087	-0.005
1087	-0.005
1088	-0.005
1088	-0.005
1088	-0.005
1089	-0.006
1089	-0.007
1090	-0.007
1090	-0.008
1090	-0.009
1091	-0.01
1091	-0.01
1092	-0.01
1092	-0.009
1092	-0.009
1093	-0.009
1093	-0.007
1094	-0.007
1094	-0.007
1095	-0.008
1095	-0.007
1095	-0.005
1096	-0.004
1096	-0.003
1097	-0.001
1097	-0
1097	0
1098	0.002
1098	0.003
1099	0.005
1099	0.008
1100	0.01
1100	0.011
1100	0.013
1101	0.015
1101	0.016
1102	0.019
1102	0.021
1102	0.024
1103	0.026
1103	0.029
1104	0.033
1104	0.037
1104	0.042
1105	0.046
1105	0.049
1106	0.053
1106	0.058
1107	0.062
1107	0.069
1107	0.079
1108	0.112
1108	0.156
1109	0.219
1109	0.317
1109	0.39
1110	0.546
1110	0.96
1111	-0
1111	-0
