Data from 17c-2a_Absorbance__2100__02101.txt Node

Date: Fri Jan 26 10:57:30 CET 2024
User: Marek
Spectrometer: MAYP115816
Trigger mode: 0
Integration Time (sec): 2.000000E-1
Scans to average: 10
Electric dark correction enabled: true
Nonlinearity correction enabled: true
Boxcar width: 5
XAxis mode: Wavelengths
Number of Pixels in Spectrum: 2068
>>>>>Begin Spectral Data<<<<<
199	-1.492
199	-1.354
200	-1.208
200	-1.097
201	-1.028
201	-0.985
202	-0.921
202	-0.87
203	-0.829
203	-0.793
204	-0.768
204	-0.745
205	-0.724
205	-0.715
205	-0.713
206	-0.708
206	-0.705
207	-0.702
207	-0.701
208	-0.7
208	-0.699
209	-0.696
209	-0.693
210	-0.695
210	-0.695
211	-0.695
211	-0.696
212	-0.697
212	-0.696
213	-0.694
213	-0.691
213	-0.691
214	-0.689
214	-0.688
215	-0.682
215	-0.681
216	-0.679
216	-0.678
217	-0.675
217	-0.672
218	-0.669
218	-0.668
219	-0.664
219	-0.663
220	-0.662
220	-0.663
221	-0.66
221	-0.658
221	-0.653
222	-0.648
222	-0.645
223	-0.64
223	-0.637
224	-0.632
224	-0.624
225	-0.617
225	-0.609
226	-0.601
226	-0.59
227	-0.58
227	-0.57
228	-0.554
228	-0.538
229	-0.518
229	-0.497
229	-0.474
230	-0.446
230	-0.416
231	-0.384
231	-0.349
232	-0.314
232	-0.276
233	-0.236
233	-0.195
234	-0.156
234	-0.116
235	-0.077
235	-0.04
236	-0.004
236	0.03
236	0.062
237	0.093
237	0.121
238	0.147
238	0.17
239	0.192
239	0.212
240	0.23
240	0.246
241	0.26
241	0.273
242	0.285
242	0.296
243	0.306
243	0.315
243	0.323
244	0.331
244	0.337
245	0.343
245	0.348
246	0.354
246	0.359
247	0.363
247	0.368
248	0.372
248	0.376
249	0.38
249	0.383
250	0.386
250	0.39
250	0.393
251	0.396
251	0.398
252	0.401
252	0.404
253	0.407
253	0.408
254	0.41
254	0.412
255	0.414
255	0.416
256	0.417
256	0.419
257	0.42
257	0.421
258	0.422
258	0.423
258	0.424
259	0.424
259	0.425
260	0.425
260	0.426
261	0.426
261	0.427
262	0.426
262	0.426
263	0.426
263	0.426
264	0.425
264	0.425
265	0.424
265	0.423
265	0.422
266	0.421
266	0.42
267	0.419
267	0.418
268	0.416
268	0.415
269	0.413
269	0.412
270	0.41
270	0.408
271	0.406
271	0.405
272	0.403
272	0.401
272	0.399
273	0.397
273	0.395
274	0.392
274	0.39
275	0.388
275	0.386
276	0.384
276	0.382
277	0.379
277	0.377
278	0.374
278	0.372
278	0.369
279	0.367
279	0.364
280	0.361
280	0.359
281	0.357
281	0.355
282	0.352
282	0.35
283	0.349
283	0.347
284	0.345
284	0.343
285	0.341
285	0.339
285	0.337
286	0.335
286	0.334
287	0.332
287	0.33
288	0.328
288	0.326
289	0.324
289	0.323
290	0.321
290	0.32
291	0.318
291	0.317
292	0.315
292	0.314
292	0.312
293	0.311
293	0.31
294	0.308
294	0.307
295	0.306
295	0.305
296	0.303
296	0.302
297	0.301
297	0.3
298	0.3
298	0.299
298	0.298
299	0.297
299	0.296
300	0.295
300	0.294
301	0.293
301	0.293
302	0.292
302	0.291
303	0.29
303	0.289
304	0.288
304	0.288
305	0.287
305	0.286
305	0.285
306	0.285
306	0.284
307	0.283
307	0.282
308	0.281
308	0.281
309	0.28
309	0.279
310	0.279
310	0.278
311	0.277
311	0.276
311	0.276
312	0.275
312	0.275
313	0.274
313	0.273
314	0.272
314	0.272
315	0.271
315	0.27
316	0.269
316	0.269
317	0.268
317	0.267
318	0.266
318	0.266
318	0.265
319	0.264
319	0.263
320	0.263
320	0.262
321	0.261
321	0.26
322	0.26
322	0.259
323	0.258
323	0.258
324	0.257
324	0.256
324	0.255
325	0.255
325	0.254
326	0.253
326	0.253
327	0.252
327	0.251
328	0.25
328	0.25
329	0.249
329	0.248
330	0.248
330	0.247
330	0.246
331	0.246
331	0.245
332	0.245
332	0.244
333	0.244
333	0.243
334	0.243
334	0.242
335	0.241
335	0.241
336	0.24
336	0.24
336	0.239
337	0.239
337	0.238
338	0.237
338	0.237
339	0.236
339	0.236
340	0.235
340	0.235
341	0.234
341	0.234
342	0.233
342	0.233
342	0.233
343	0.232
343	0.232
344	0.231
344	0.231
345	0.231
345	0.23
346	0.23
346	0.23
347	0.229
347	0.229
348	0.228
348	0.228
348	0.228
349	0.227
349	0.227
350	0.226
350	0.226
351	0.226
351	0.225
352	0.225
352	0.225
353	0.225
353	0.224
354	0.224
354	0.224
354	0.223
355	0.223
355	0.222
356	0.222
356	0.222
357	0.221
357	0.221
358	0.221
358	0.221
359	0.221
359	0.221
360	0.221
360	0.221
360	0.221
361	0.221
361	0.221
362	0.221
362	0.221
363	0.221
363	0.221
364	0.221
364	0.22
365	0.22
365	0.22
366	0.22
366	0.22
366	0.22
367	0.22
367	0.22
368	0.219
368	0.219
369	0.219
369	0.219
370	0.219
370	0.218
371	0.218
371	0.218
372	0.217
372	0.217
372	0.217
373	0.217
373	0.217
374	0.217
374	0.217
375	0.217
375	0.217
376	0.217
376	0.217
377	0.217
377	0.217
378	0.217
378	0.217
378	0.217
379	0.217
379	0.217
380	0.217
380	0.217
381	0.216
381	0.216
382	0.216
382	0.215
383	0.215
383	0.215
383	0.215
384	0.214
384	0.214
385	0.214
385	0.214
386	0.213
386	0.213
387	0.213
387	0.213
388	0.213
388	0.213
389	0.212
389	0.212
389	0.212
390	0.212
390	0.212
391	0.212
391	0.212
392	0.212
392	0.212
393	0.212
393	0.212
394	0.212
394	0.212
394	0.212
395	0.211
395	0.211
396	0.211
396	0.21
397	0.21
397	0.21
398	0.21
398	0.209
399	0.209
399	0.209
400	0.209
400	0.209
400	0.208
401	0.208
401	0.208
402	0.208
402	0.208
403	0.207
403	0.207
404	0.207
404	0.207
405	0.207
405	0.207
405	0.207
406	0.206
406	0.206
407	0.206
407	0.206
408	0.206
408	0.205
409	0.205
409	0.205
410	0.205
410	0.205
411	0.205
411	0.205
411	0.205
412	0.204
412	0.204
413	0.204
413	0.204
414	0.204
414	0.204
415	0.203
415	0.203
416	0.202
416	0.202
416	0.202
417	0.202
417	0.202
418	0.202
418	0.202
419	0.202
419	0.202
420	0.202
420	0.203
421	0.203
421	0.203
421	0.203
422	0.203
422	0.203
423	0.203
423	0.203
424	0.202
424	0.202
425	0.202
425	0.202
426	0.202
426	0.201
427	0.201
427	0.201
427	0.201
428	0.201
428	0.202
429	0.202
429	0.202
430	0.202
430	0.202
431	0.201
431	0.201
432	0.201
432	0.201
432	0.2
433	0.2
433	0.2
434	0.199
434	0.2
435	0.2
435	0.2
436	0.2
436	0.2
437	0.2
437	0.2
437	0.2
438	0.2
438	0.2
439	0.199
439	0.199
440	0.199
440	0.199
441	0.198
441	0.198
442	0.198
442	0.198
442	0.198
443	0.199
443	0.199
444	0.199
444	0.199
445	0.199
445	0.199
446	0.199
446	0.199
447	0.199
447	0.199
447	0.199
448	0.199
448	0.199
449	0.199
449	0.199
450	0.199
450	0.199
451	0.199
451	0.199
452	0.199
452	0.199
452	0.199
453	0.198
453	0.198
454	0.198
454	0.198
455	0.198
455	0.198
456	0.198
456	0.198
457	0.198
457	0.198
458	0.198
458	0.199
458	0.199
459	0.199
459	0.199
460	0.199
460	0.199
461	0.199
461	0.199
462	0.199
462	0.199
463	0.199
463	0.2
463	0.2
464	0.201
464	0.201
465	0.201
465	0.202
466	0.202
466	0.202
467	0.202
467	0.202
467	0.202
468	0.201
468	0.201
469	0.201
469	0.201
470	0.201
470	0.201
471	0.201
471	0.201
472	0.201
472	0.201
472	0.202
473	0.203
473	0.204
474	0.204
474	0.205
475	0.205
475	0.206
476	0.207
476	0.208
477	0.208
477	0.209
477	0.209
478	0.21
478	0.21
479	0.211
479	0.212
480	0.212
480	0.213
481	0.214
481	0.214
482	0.215
482	0.216
482	0.217
483	0.219
483	0.221
484	0.223
484	0.224
485	0.225
485	0.226
486	0.227
486	0.228
487	0.229
487	0.23
487	0.23
488	0.231
488	0.23
489	0.23
489	0.231
490	0.232
490	0.232
491	0.233
491	0.234
492	0.236
492	0.237
492	0.238
493	0.239
493	0.24
494	0.243
494	0.244
495	0.246
495	0.247
496	0.249
496	0.25
496	0.252
497	0.253
497	0.255
498	0.256
498	0.258
499	0.259
499	0.26
500	0.262
500	0.264
501	0.266
501	0.267
501	0.269
502	0.271
502	0.272
503	0.274
503	0.276
504	0.277
504	0.279
505	0.28
505	0.281
506	0.283
506	0.284
506	0.285
507	0.286
507	0.287
508	0.288
508	0.29
509	0.291
509	0.293
510	0.294
510	0.295
511	0.296
511	0.298
511	0.299
512	0.301
512	0.302
513	0.302
513	0.303
514	0.303
514	0.304
515	0.304
515	0.305
515	0.305
516	0.306
516	0.307
517	0.308
517	0.308
518	0.308
518	0.308
519	0.308
519	0.308
520	0.308
520	0.307
520	0.307
521	0.306
521	0.305
522	0.304
522	0.304
523	0.304
523	0.305
524	0.305
524	0.306
524	0.307
525	0.307
525	0.308
526	0.309
526	0.31
527	0.311
527	0.311
528	0.312
528	0.311
529	0.311
529	0.311
529	0.31
530	0.309
530	0.309
531	0.308
531	0.307
532	0.306
532	0.305
533	0.304
533	0.302
533	0.301
534	0.3
534	0.298
535	0.297
535	0.295
536	0.294
536	0.292
537	0.291
537	0.29
538	0.288
538	0.287
538	0.285
539	0.284
539	0.282
540	0.281
540	0.278
541	0.276
541	0.274
542	0.272
542	0.27
542	0.268
543	0.266
543	0.264
544	0.261
544	0.259
545	0.258
545	0.257
546	0.255
546	0.254
547	0.252
547	0.249
547	0.247
548	0.245
548	0.243
549	0.241
549	0.239
550	0.237
550	0.234
551	0.232
551	0.229
551	0.227
552	0.225
552	0.223
553	0.222
553	0.22
554	0.218
554	0.216
555	0.213
555	0.211
556	0.208
556	0.205
556	0.202
557	0.199
557	0.197
558	0.194
558	0.191
559	0.189
559	0.187
560	0.184
560	0.182
560	0.181
561	0.18
561	0.179
562	0.178
562	0.176
563	0.174
563	0.172
564	0.17
564	0.168
564	0.166
565	0.165
565	0.163
566	0.161
566	0.159
567	0.158
567	0.156
568	0.155
568	0.154
568	0.154
569	0.154
569	0.153
570	0.152
570	0.151
571	0.151
571	0.15
572	0.149
572	0.148
573	0.147
573	0.146
573	0.144
574	0.143
574	0.142
575	0.141
575	0.141
576	0.141
576	0.139
577	0.137
577	0.136
577	0.135
578	0.134
578	0.134
579	0.134
579	0.134
580	0.132
580	0.129
581	0.126
581	0.125
581	0.124
582	0.124
582	0.123
583	0.123
583	0.122
584	0.119
584	0.116
585	0.115
585	0.115
585	0.115
586	0.115
586	0.114
587	0.112
587	0.11
588	0.108
588	0.107
589	0.106
589	0.105
590	0.105
590	0.104
590	0.105
591	0.105
591	0.104
592	0.104
592	0.103
593	0.103
593	0.103
594	0.103
594	0.102
594	0.101
595	0.101
595	0.099
596	0.098
596	0.099
597	0.101
597	0.102
598	0.102
598	0.102
598	0.103
599	0.103
599	0.102
600	0.101
600	0.1
601	0.1
601	0.099
602	0.097
602	0.096
602	0.095
603	0.094
603	0.095
604	0.095
604	0.095
605	0.096
605	0.097
606	0.097
606	0.095
606	0.095
607	0.094
607	0.094
608	0.094
608	0.093
609	0.092
609	0.092
610	0.091
610	0.09
610	0.091
611	0.092
611	0.094
612	0.095
612	0.097
613	0.098
613	0.1
614	0.1
614	0.1
614	0.101
615	0.101
615	0.101
616	0.101
616	0.101
617	0.1
617	0.1
618	0.099
618	0.098
618	0.098
619	0.098
619	0.099
620	0.1
620	0.1
621	0.1
621	0.101
622	0.101
622	0.101
622	0.101
623	0.101
623	0.102
624	0.103
624	0.103
625	0.103
625	0.104
626	0.105
626	0.105
626	0.106
627	0.107
627	0.108
628	0.109
628	0.109
629	0.11
629	0.11
630	0.11
630	0.11
630	0.111
631	0.111
631	0.111
632	0.111
632	0.112
633	0.112
633	0.113
634	0.115
634	0.117
634	0.119
635	0.12
635	0.121
636	0.122
636	0.124
637	0.125
637	0.125
638	0.127
638	0.128
638	0.129
639	0.129
639	0.13
640	0.131
640	0.132
641	0.134
641	0.135
642	0.137
642	0.139
642	0.141
643	0.143
643	0.145
644	0.146
644	0.148
645	0.15
645	0.153
646	0.155
646	0.158
646	0.161
647	0.164
647	0.167
648	0.169
648	0.172
649	0.175
649	0.178
650	0.181
650	0.184
650	0.186
651	0.189
651	0.191
652	0.193
652	0.194
653	0.197
653	0.204
653	0.211
654	0.167
654	0.135
655	0.138
655	0.139
656	0.141
656	0.143
657	0.145
657	0.147
657	0.148
658	0.146
658	0.139
659	0.177
659	0.23
660	0.238
660	0.241
661	0.243
661	0.246
661	0.248
662	0.251
662	0.254
663	0.257
663	0.26
664	0.262
664	0.264
665	0.267
665	0.27
665	0.272
666	0.275
666	0.277
667	0.28
667	0.283
668	0.285
668	0.288
669	0.291
669	0.294
669	0.297
670	0.3
670	0.302
671	0.304
671	0.306
672	0.307
672	0.309
672	0.311
673	0.312
673	0.314
674	0.316
674	0.317
675	0.319
675	0.321
676	0.324
676	0.326
676	0.328
677	0.33
677	0.332
678	0.333
678	0.334
679	0.336
679	0.337
680	0.338
680	0.34
680	0.34
681	0.342
681	0.343
682	0.344
682	0.345
683	0.346
683	0.348
684	0.349
684	0.349
684	0.349
685	0.35
685	0.35
686	0.35
686	0.35
687	0.349
687	0.349
687	0.349
688	0.348
688	0.348
689	0.349
689	0.35
690	0.35
690	0.35
691	0.351
691	0.351
691	0.351
692	0.35
692	0.349
693	0.349
693	0.348
694	0.347
694	0.345
695	0.344
695	0.344
695	0.343
696	0.341
696	0.34
697	0.339
697	0.338
698	0.337
698	0.335
698	0.334
699	0.332
699	0.329
700	0.326
700	0.324
701	0.322
701	0.319
702	0.317
702	0.315
702	0.312
703	0.31
703	0.307
704	0.305
704	0.304
705	0.303
705	0.301
705	0.3
706	0.298
706	0.297
707	0.296
707	0.294
708	0.293
708	0.291
709	0.29
709	0.288
709	0.285
710	0.283
710	0.281
711	0.279
711	0.276
712	0.274
712	0.272
713	0.27
713	0.268
713	0.265
714	0.262
714	0.26
715	0.257
715	0.254
716	0.251
716	0.248
716	0.244
717	0.242
717	0.239
718	0.235
718	0.232
719	0.23
719	0.228
720	0.226
720	0.223
720	0.221
721	0.218
721	0.216
722	0.214
722	0.211
723	0.209
723	0.207
723	0.205
724	0.203
724	0.201
725	0.198
725	0.197
726	0.195
726	0.192
727	0.19
727	0.189
727	0.187
728	0.184
728	0.183
729	0.181
729	0.179
730	0.177
730	0.175
730	0.174
731	0.172
731	0.171
732	0.17
732	0.168
733	0.167
733	0.165
734	0.164
734	0.162
734	0.161
735	0.161
735	0.159
736	0.157
736	0.155
737	0.153
737	0.152
737	0.15
738	0.147
738	0.144
739	0.142
739	0.139
740	0.137
740	0.135
741	0.134
741	0.132
741	0.13
742	0.128
742	0.126
743	0.125
743	0.124
744	0.122
744	0.121
744	0.119
745	0.117
745	0.115
746	0.113
746	0.112
747	0.111
747	0.11
748	0.109
748	0.107
748	0.106
749	0.104
749	0.104
750	0.103
750	0.102
751	0.102
751	0.101
751	0.101
752	0.1
752	0.098
753	0.097
753	0.096
754	0.096
754	0.095
754	0.094
755	0.094
755	0.093
756	0.092
756	0.09
757	0.09
757	0.09
758	0.089
758	0.089
758	0.089
759	0.088
759	0.087
760	0.085
760	0.083
761	0.082
761	0.081
761	0.08
762	0.078
762	0.076
763	0.074
763	0.072
764	0.069
764	0.066
764	0.064
765	0.062
765	0.06
766	0.059
766	0.058
767	0.057
767	0.055
768	0.053
768	0.052
768	0.051
769	0.05
769	0.05
770	0.048
770	0.047
771	0.045
771	0.043
771	0.04
772	0.039
772	0.037
773	0.035
773	0.033
774	0.031
774	0.028
775	0.026
775	0.024
775	0.022
776	0.02
776	0.018
777	0.016
777	0.014
778	0.012
778	0.009
778	0.006
779	0.005
779	0.003
780	-0
780	-0.003
781	-0.006
781	-0.009
781	-0.013
782	-0.017
782	-0.021
783	-0.025
783	-0.029
784	-0.034
784	-0.039
784	-0.044
785	-0.05
785	-0.055
786	-0.06
786	-0.065
787	-0.068
787	-0.072
788	-0.078
788	-0.084
788	-0.091
789	-0.098
789	-0.102
790	-0.105
790	-0.108
791	-0.112
791	-0.116
791	-0.119
792	-0.114
792	-0.104
793	-0.099
793	-0.095
794	-0.093
794	-0.096
794	-0.1
795	-0.102
795	-0.103
796	-0.103
796	-0.106
797	-0.114
797	-0.126
797	-0.132
798	-0.138
798	-0.141
799	-0.142
799	-0.141
800	-0.14
800	-0.142
801	-0.145
801	-0.145
801	-0.145
802	-0.146
802	-0.147
803	-0.148
803	-0.148
804	-0.147
804	-0.142
804	-0.135
805	-0.131
805	-0.13
806	-0.128
806	-0.127
807	-0.127
807	-0.127
807	-0.127
808	-0.127
808	-0.128
809	-0.133
809	-0.139
810	-0.143
810	-0.145
810	-0.149
811	-0.152
811	-0.152
812	-0.148
812	-0.145
813	-0.145
813	-0.146
813	-0.147
814	-0.148
814	-0.149
815	-0.147
815	-0.144
816	-0.141
816	-0.138
817	-0.138
817	-0.136
817	-0.129
818	-0.121
818	-0.111
819	-0.1
819	-0.09
820	-0.081
820	-0.072
820	-0.063
821	-0.055
821	-0.047
822	-0.04
822	-0.034
823	-0.029
823	-0.025
823	-0.021
824	-0.017
824	-0.013
825	-0.009
825	-0.004
826	-0
826	0.002
826	0.005
827	0.007
827	0.009
828	0.011
828	0.013
829	0.014
829	0.016
829	0.017
830	0.017
830	0.018
831	0.02
831	0.021
832	0.022
832	0.023
832	0.024
833	0.024
833	0.025
834	0.025
834	0.025
835	0.025
835	0.025
835	0.025
836	0.025
836	0.025
837	0.025
837	0.026
838	0.026
838	0.027
839	0.027
839	0.027
839	0.027
840	0.026
840	0.026
841	0.026
841	0.026
842	0.025
842	0.025
842	0.025
843	0.024
843	0.024
844	0.024
844	0.024
845	0.024
845	0.024
845	0.025
846	0.025
846	0.025
847	0.025
847	0.026
848	0.026
848	0.027
848	0.028
849	0.028
849	0.029
850	0.029
850	0.029
851	0.03
851	0.03
851	0.03
852	0.03
852	0.03
853	0.029
853	0.029
854	0.029
854	0.029
854	0.028
855	0.028
855	0.028
856	0.028
856	0.028
857	0.028
857	0.028
857	0.028
858	0.028
858	0.028
859	0.028
859	0.028
860	0.029
860	0.029
860	0.03
861	0.031
861	0.031
862	0.032
862	0.032
863	0.033
863	0.033
863	0.033
864	0.033
864	0.033
865	0.033
865	0.033
866	0.033
866	0.033
866	0.034
867	0.034
867	0.034
868	0.034
868	0.034
869	0.034
869	0.034
869	0.033
870	0.033
870	0.032
871	0.032
871	0.031
872	0.031
872	0.031
872	0.031
873	0.032
873	0.032
874	0.032
874	0.032
875	0.032
875	0.032
875	0.031
876	0.031
876	0.03
877	0.029
877	0.028
878	0.027
878	0.026
878	0.026
879	0.025
879	0.025
880	0.025
880	0.024
881	0.024
881	0.024
881	0.024
882	0.024
882	0.024
883	0.024
883	0.023
884	0.023
884	0.022
884	0.022
885	0.022
885	0.022
886	0.022
886	0.022
887	0.023
887	0.023
887	0.024
888	0.024
888	0.025
889	0.026
889	0.026
890	0.027
890	0.027
890	0.027
891	0.028
891	0.028
892	0.028
892	0.028
893	0.029
893	0.029
893	0.03
894	0.03
894	0.029
895	0.029
895	0.029
895	0.028
896	0.028
896	0.028
897	0.027
897	0.027
898	0.027
898	0.027
898	0.027
899	0.027
899	0.027
900	0.027
900	0.027
901	0.027
901	0.027
901	0.028
902	0.028
902	0.028
903	0.028
903	0.028
904	0.028
904	0.029
904	0.03
905	0.03
905	0.031
906	0.031
906	0.032
907	0.032
907	0.032
907	0.032
908	0.032
908	0.032
909	0.032
909	0.033
910	0.033
910	0.033
910	0.033
911	0.033
911	0.033
912	0.033
912	0.034
913	0.033
913	0.033
913	0.033
914	0.032
914	0.031
915	0.031
915	0.03
916	0.029
916	0.028
916	0.027
917	0.026
917	0.025
918	0.024
918	0.023
918	0.022
919	0.021
919	0.02
920	0.019
920	0.019
921	0.019
921	0.019
921	0.019
922	0.019
922	0.019
923	0.02
923	0.02
924	0.02
924	0.021
924	0.021
925	0.021
925	0.022
926	0.022
926	0.022
927	0.023
927	0.023
927	0.023
928	0.023
928	0.023
929	0.023
929	0.023
930	0.022
930	0.022
930	0.021
931	0.021
931	0.021
932	0.021
932	0.021
933	0.021
933	0.021
933	0.02
934	0.02
934	0.019
935	0.019
935	0.019
935	0.018
936	0.017
936	0.017
937	0.016
937	0.016
938	0.016
938	0.015
938	0.016
939	0.016
939	0.017
940	0.018
940	0.019
941	0.02
941	0.02
941	0.022
942	0.023
942	0.024
943	0.025
943	0.025
944	0.026
944	0.026
944	0.027
945	0.027
945	0.028
946	0.028
946	0.028
946	0.028
947	0.029
947	0.029
948	0.029
948	0.029
949	0.03
949	0.03
949	0.03
950	0.03
950	0.031
951	0.031
951	0.03
952	0.03
952	0.029
952	0.029
953	0.028
953	0.028
954	0.027
954	0.026
955	0.026
955	0.026
955	0.026
956	0.026
956	0.026
957	0.026
957	0.026
957	0.026
958	0.026
958	0.026
959	0.027
959	0.026
960	0.026
960	0.026
960	0.026
961	0.026
961	0.026
962	0.026
962	0.026
963	0.027
963	0.027
963	0.027
964	0.027
964	0.027
965	0.027
965	0.027
966	0.027
966	0.027
966	0.027
967	0.027
967	0.026
968	0.025
968	0.024
968	0.023
969	0.023
969	0.022
970	0.021
970	0.02
971	0.02
971	0.019
971	0.019
972	0.019
972	0.019
973	0.019
973	0.02
974	0.02
974	0.021
974	0.022
975	0.023
975	0.024
976	0.025
976	0.026
976	0.027
977	0.027
977	0.028
978	0.028
978	0.028
979	0.029
979	0.029
979	0.028
980	0.028
980	0.027
981	0.026
981	0.025
982	0.025
982	0.024
982	0.023
983	0.021
983	0.02
984	0.019
984	0.018
984	0.017
985	0.016
985	0.014
986	0.013
986	0.012
987	0.012
987	0.011
987	0.011
988	0.011
988	0.01
989	0.01
989	0.01
990	0.011
990	0.012
990	0.013
991	0.014
991	0.015
992	0.016
992	0.017
992	0.018
993	0.019
993	0.019
994	0.019
994	0.019
995	0.019
995	0.019
995	0.018
996	0.017
996	0.016
997	0.015
997	0.015
997	0.014
998	0.014
998	0.014
999	0.015
999	0.015
1000	0.015
1000	0.016
1000	0.016
1001	0.017
1001	0.018
1002	0.019
1002	0.019
1003	0.02
1003	0.02
1003	0.02
1004	0.02
1004	0.02
1005	0.02
1005	0.02
1005	0.019
1006	0.019
1006	0.019
1007	0.018
1007	0.018
1008	0.018
1008	0.018
1008	0.018
1009	0.018
1009	0.018
1010	0.018
1010	0.019
1010	0.019
1011	0.019
1011	0.019
1012	0.019
1012	0.019
1013	0.019
1013	0.019
1013	0.018
1014	0.017
1014	0.017
1015	0.015
1015	0.015
1016	0.014
1016	0.012
1016	0.011
1017	0.01
1017	0.009
1018	0.008
1018	0.007
1018	0.007
1019	0.007
1019	0.007
1020	0.007
1020	0.007
1021	0.007
1021	0.007
1021	0.008
1022	0.009
1022	0.01
1023	0.01
1023	0.011
1023	0.011
1024	0.012
1024	0.011
1025	0.011
1025	0.011
1026	0.011
1026	0.011
1026	0.01
1027	0.01
1027	0.009
1028	0.009
1028	0.009
1028	0.008
1029	0.008
1029	0.007
1030	0.007
1030	0.007
1031	0.007
1031	0.007
1031	0.007
1032	0.007
1032	0.007
1033	0.007
1033	0.007
1033	0.007
1034	0.007
1034	0.006
1035	0.006
1035	0.006
1036	0.006
1036	0.006
1036	0.006
1037	0.007
1037	0.007
1038	0.007
1038	0.007
1039	0.008
1039	0.008
1039	0.009
1040	0.009
1040	0.01
1041	0.011
1041	0.011
1041	0.011
1042	0.012
1042	0.012
1043	0.013
1043	0.013
1044	0.014
1044	0.014
1044	0.015
1045	0.015
1045	0.015
1046	0.015
1046	0.015
1046	0.016
1047	0.016
1047	0.016
1048	0.016
1048	0.015
1049	0.015
1049	0.014
1049	0.013
1050	0.013
1050	0.012
1051	0.011
1051	0.01
1051	0.01
1052	0.009
1052	0.008
1053	0.007
1053	0.007
1053	0.006
1054	0.005
1054	0.005
1055	0.004
1055	0.003
1056	0.002
1056	0.001
1056	-0
1057	-0.002
1057	-0.003
1058	-0.003
1058	-0.004
1058	-0.004
1059	-0.005
1059	-0.005
1060	-0.005
1060	-0.005
1061	-0.005
1061	-0.005
1061	-0.004
1062	-0.004
1062	-0.005
1063	-0.005
1063	-0.005
1063	-0.005
1064	-0.005
1064	-0.004
1065	-0.004
1065	-0.004
1066	-0.004
1066	-0.003
1066	-0.003
1067	-0.002
1067	-0.001
1068	-0.001
1068	-0.001
1068	-0.002
1069	-0.002
1069	-0.003
1070	-0.003
1070	-0.004
1071	-0.005
1071	-0.005
1071	-0.006
1072	-0.007
1072	-0.008
1073	-0.009
1073	-0.009
1073	-0.01
1074	-0.01
1074	-0.011
1075	-0.012
1075	-0.013
1076	-0.015
1076	-0.015
1076	-0.016
1077	-0.016
1077	-0.016
1078	-0.017
1078	-0.016
1078	-0.016
1079	-0.016
1079	-0.014
1080	-0.013
1080	-0.012
1080	-0.012
1081	-0.011
1081	-0.009
1082	-0.008
1082	-0.008
1083	-0.007
1083	-0.007
1083	-0.006
1084	-0.006
1084	-0.005
1085	-0.005
1085	-0.005
1085	-0.004
1086	-0.004
1086	-0.005
1087	-0.005
1087	-0.005
1088	-0.005
1088	-0.006
1088	-0.005
1089	-0.007
1089	-0.008
1090	-0.008
1090	-0.009
1090	-0.009
1091	-0.01
1091	-0.009
1092	-0.009
1092	-0.008
1092	-0.008
1093	-0.008
1093	-0.007
1094	-0.006
1094	-0.005
1095	-0.006
1095	-0.005
1095	-0.004
1096	-0.003
1096	-0.003
1097	-0.001
1097	-0
1097	0.001
1098	0.002
1098	0.003
1099	0.005
1099	0.008
1100	0.009
1100	0.011
1100	0.012
1101	0.013
1101	0.014
1102	0.016
1102	0.018
1102	0.02
1103	0.022
1103	0.025
1104	0.029
1104	0.032
1104	0.038
1105	0.043
1105	0.046
1106	0.05
1106	0.056
1107	0.06
1107	0.067
1107	0.075
1108	0.109
1108	0.152
1109	0.213
1109	0.308
1109	0.382
1110	0.526
1110	0.903
1111	-0
1111	-0
