Data from 17c-2a_Absorbance__299__00300.txt Node

Date: Fri Jan 26 09:57:29 CET 2024
User: Marek
Spectrometer: MAYP115816
Trigger mode: 0
Integration Time (sec): 2.000000E-1
Scans to average: 10
Electric dark correction enabled: true
Nonlinearity correction enabled: true
Boxcar width: 5
XAxis mode: Wavelengths
Number of Pixels in Spectrum: 2068
>>>>>Begin Spectral Data<<<<<
199	-1.152
199	-1.026
200	-0.888
200	-0.788
201	-0.727
201	-0.69
202	-0.634
202	-0.594
203	-0.559
203	-0.531
204	-0.511
204	-0.491
205	-0.474
205	-0.467
205	-0.465
206	-0.461
206	-0.459
207	-0.457
207	-0.456
208	-0.457
208	-0.456
209	-0.453
209	-0.45
210	-0.451
210	-0.452
211	-0.453
211	-0.454
212	-0.453
212	-0.452
213	-0.451
213	-0.447
213	-0.448
214	-0.447
214	-0.446
215	-0.442
215	-0.44
216	-0.438
216	-0.438
217	-0.436
217	-0.435
218	-0.432
218	-0.432
219	-0.428
219	-0.427
220	-0.426
220	-0.428
221	-0.427
221	-0.426
221	-0.422
222	-0.417
222	-0.414
223	-0.411
223	-0.408
224	-0.405
224	-0.4
225	-0.395
225	-0.388
226	-0.382
226	-0.373
227	-0.366
227	-0.359
228	-0.346
228	-0.335
229	-0.321
229	-0.306
229	-0.29
230	-0.27
230	-0.25
231	-0.229
231	-0.207
232	-0.186
232	-0.163
233	-0.141
233	-0.118
234	-0.097
234	-0.077
235	-0.058
235	-0.041
236	-0.026
236	-0.011
236	0.002
237	0.014
237	0.024
238	0.033
238	0.041
239	0.049
239	0.056
240	0.061
240	0.067
241	0.072
241	0.076
242	0.08
242	0.084
243	0.088
243	0.091
243	0.094
244	0.097
244	0.1
245	0.102
245	0.105
246	0.107
246	0.11
247	0.112
247	0.114
248	0.116
248	0.118
249	0.12
249	0.122
250	0.124
250	0.126
250	0.128
251	0.13
251	0.132
252	0.134
252	0.136
253	0.137
253	0.139
254	0.14
254	0.142
255	0.143
255	0.144
256	0.145
256	0.146
257	0.147
257	0.148
258	0.149
258	0.15
258	0.151
259	0.151
259	0.152
260	0.152
260	0.152
261	0.153
261	0.153
262	0.153
262	0.153
263	0.153
263	0.152
264	0.152
264	0.152
265	0.151
265	0.151
265	0.15
266	0.149
266	0.148
267	0.147
267	0.146
268	0.145
268	0.144
269	0.143
269	0.142
270	0.14
270	0.139
271	0.138
271	0.136
272	0.135
272	0.133
272	0.132
273	0.13
273	0.129
274	0.127
274	0.126
275	0.124
275	0.122
276	0.121
276	0.119
277	0.118
277	0.116
278	0.114
278	0.113
278	0.111
279	0.109
279	0.107
280	0.106
280	0.104
281	0.102
281	0.101
282	0.099
282	0.098
283	0.096
283	0.095
284	0.093
284	0.092
285	0.091
285	0.089
285	0.088
286	0.087
286	0.085
287	0.084
287	0.083
288	0.082
288	0.081
289	0.08
289	0.079
290	0.078
290	0.077
291	0.076
291	0.075
292	0.074
292	0.073
292	0.072
293	0.071
293	0.071
294	0.07
294	0.069
295	0.069
295	0.068
296	0.068
296	0.067
297	0.067
297	0.066
298	0.066
298	0.066
298	0.066
299	0.066
299	0.065
300	0.065
300	0.065
301	0.064
301	0.064
302	0.064
302	0.064
303	0.063
303	0.063
304	0.063
304	0.063
305	0.062
305	0.062
305	0.062
306	0.062
306	0.062
307	0.061
307	0.061
308	0.061
308	0.061
309	0.06
309	0.06
310	0.06
310	0.06
311	0.06
311	0.06
311	0.059
312	0.059
312	0.059
313	0.059
313	0.059
314	0.059
314	0.059
315	0.059
315	0.059
316	0.059
316	0.058
317	0.058
317	0.058
318	0.058
318	0.058
318	0.058
319	0.058
319	0.057
320	0.057
320	0.057
321	0.057
321	0.056
322	0.056
322	0.056
323	0.056
323	0.055
324	0.055
324	0.055
324	0.055
325	0.054
325	0.054
326	0.054
326	0.054
327	0.054
327	0.054
328	0.054
328	0.054
329	0.054
329	0.053
330	0.053
330	0.053
330	0.053
331	0.053
331	0.052
332	0.052
332	0.052
333	0.052
333	0.052
334	0.052
334	0.052
335	0.051
335	0.051
336	0.051
336	0.051
336	0.051
337	0.051
337	0.051
338	0.051
338	0.05
339	0.05
339	0.05
340	0.05
340	0.05
341	0.049
341	0.049
342	0.049
342	0.049
342	0.049
343	0.049
343	0.048
344	0.048
344	0.048
345	0.048
345	0.048
346	0.048
346	0.048
347	0.048
347	0.048
348	0.048
348	0.047
348	0.047
349	0.047
349	0.047
350	0.047
350	0.047
351	0.047
351	0.047
352	0.047
352	0.047
353	0.047
353	0.047
354	0.047
354	0.046
354	0.046
355	0.046
355	0.046
356	0.046
356	0.046
357	0.046
357	0.046
358	0.046
358	0.046
359	0.046
359	0.046
360	0.046
360	0.046
360	0.046
361	0.046
361	0.046
362	0.046
362	0.046
363	0.046
363	0.046
364	0.046
364	0.046
365	0.046
365	0.046
366	0.046
366	0.046
366	0.046
367	0.046
367	0.046
368	0.046
368	0.046
369	0.046
369	0.046
370	0.046
370	0.046
371	0.046
371	0.046
372	0.045
372	0.045
372	0.045
373	0.045
373	0.045
374	0.046
374	0.046
375	0.046
375	0.046
376	0.047
376	0.047
377	0.047
377	0.047
378	0.047
378	0.047
378	0.048
379	0.048
379	0.047
380	0.047
380	0.047
381	0.047
381	0.047
382	0.047
382	0.047
383	0.047
383	0.047
383	0.047
384	0.047
384	0.047
385	0.047
385	0.047
386	0.047
386	0.047
387	0.047
387	0.047
388	0.047
388	0.047
389	0.047
389	0.047
389	0.047
390	0.047
390	0.047
391	0.048
391	0.048
392	0.048
392	0.048
393	0.048
393	0.048
394	0.048
394	0.048
394	0.048
395	0.048
395	0.048
396	0.048
396	0.048
397	0.048
397	0.048
398	0.048
398	0.048
399	0.048
399	0.048
400	0.048
400	0.047
400	0.048
401	0.048
401	0.047
402	0.047
402	0.047
403	0.047
403	0.047
404	0.047
404	0.047
405	0.047
405	0.047
405	0.047
406	0.047
406	0.047
407	0.047
407	0.047
408	0.047
408	0.047
409	0.047
409	0.048
410	0.048
410	0.048
411	0.048
411	0.048
411	0.048
412	0.048
412	0.048
413	0.048
413	0.048
414	0.048
414	0.048
415	0.048
415	0.048
416	0.048
416	0.048
416	0.048
417	0.048
417	0.048
418	0.048
418	0.048
419	0.048
419	0.048
420	0.048
420	0.048
421	0.049
421	0.049
421	0.049
422	0.049
422	0.049
423	0.049
423	0.049
424	0.049
424	0.049
425	0.049
425	0.049
426	0.049
426	0.049
427	0.049
427	0.049
427	0.049
428	0.049
428	0.049
429	0.05
429	0.05
430	0.05
430	0.05
431	0.05
431	0.05
432	0.05
432	0.05
432	0.049
433	0.049
433	0.049
434	0.049
434	0.049
435	0.049
435	0.049
436	0.049
436	0.049
437	0.049
437	0.049
437	0.049
438	0.049
438	0.049
439	0.049
439	0.049
440	0.049
440	0.049
441	0.049
441	0.049
442	0.049
442	0.049
442	0.049
443	0.049
443	0.049
444	0.049
444	0.049
445	0.05
445	0.05
446	0.05
446	0.05
447	0.05
447	0.05
447	0.05
448	0.05
448	0.05
449	0.05
449	0.05
450	0.051
450	0.051
451	0.051
451	0.051
452	0.051
452	0.051
452	0.051
453	0.051
453	0.05
454	0.05
454	0.05
455	0.05
455	0.05
456	0.05
456	0.05
457	0.05
457	0.05
458	0.05
458	0.051
458	0.051
459	0.051
459	0.051
460	0.051
460	0.051
461	0.051
461	0.051
462	0.051
462	0.051
463	0.051
463	0.052
463	0.052
464	0.052
464	0.052
465	0.052
465	0.052
466	0.052
466	0.052
467	0.052
467	0.052
467	0.051
468	0.051
468	0.051
469	0.051
469	0.051
470	0.051
470	0.051
471	0.051
471	0.051
472	0.051
472	0.051
472	0.051
473	0.052
473	0.052
474	0.052
474	0.052
475	0.053
475	0.053
476	0.053
476	0.053
477	0.053
477	0.053
477	0.053
478	0.053
478	0.053
479	0.053
479	0.053
480	0.053
480	0.054
481	0.054
481	0.054
482	0.054
482	0.055
482	0.055
483	0.056
483	0.057
484	0.058
484	0.058
485	0.058
485	0.059
486	0.059
486	0.059
487	0.059
487	0.059
487	0.059
488	0.059
488	0.059
489	0.059
489	0.059
490	0.059
490	0.059
491	0.059
491	0.06
492	0.06
492	0.06
492	0.06
493	0.06
493	0.061
494	0.062
494	0.062
495	0.063
495	0.063
496	0.063
496	0.064
496	0.064
497	0.065
497	0.065
498	0.066
498	0.066
499	0.066
499	0.067
500	0.067
500	0.067
501	0.068
501	0.068
501	0.068
502	0.069
502	0.069
503	0.07
503	0.07
504	0.071
504	0.071
505	0.072
505	0.072
506	0.073
506	0.073
506	0.074
507	0.074
507	0.074
508	0.074
508	0.075
509	0.075
509	0.075
510	0.075
510	0.076
511	0.076
511	0.076
511	0.076
512	0.077
512	0.077
513	0.077
513	0.077
514	0.077
514	0.077
515	0.077
515	0.077
515	0.077
516	0.077
516	0.077
517	0.078
517	0.078
518	0.078
518	0.078
519	0.078
519	0.078
520	0.078
520	0.078
520	0.078
521	0.077
521	0.077
522	0.076
522	0.075
523	0.075
523	0.075
524	0.075
524	0.075
524	0.075
525	0.076
525	0.076
526	0.076
526	0.077
527	0.077
527	0.077
528	0.078
528	0.078
529	0.078
529	0.078
529	0.078
530	0.078
530	0.077
531	0.077
531	0.077
532	0.077
532	0.076
533	0.076
533	0.076
533	0.076
534	0.075
534	0.075
535	0.074
535	0.074
536	0.073
536	0.073
537	0.073
537	0.073
538	0.072
538	0.072
538	0.071
539	0.071
539	0.071
540	0.07
540	0.07
541	0.069
541	0.069
542	0.068
542	0.068
542	0.067
543	0.067
543	0.066
544	0.065
544	0.065
545	0.065
545	0.065
546	0.064
546	0.064
547	0.064
547	0.063
547	0.063
548	0.063
548	0.063
549	0.062
549	0.062
550	0.062
550	0.061
551	0.06
551	0.06
551	0.06
552	0.06
552	0.059
553	0.059
553	0.059
554	0.058
554	0.058
555	0.057
555	0.056
556	0.056
556	0.055
556	0.054
557	0.053
557	0.052
558	0.052
558	0.051
559	0.05
559	0.05
560	0.049
560	0.049
560	0.049
561	0.049
561	0.049
562	0.049
562	0.048
563	0.048
563	0.047
564	0.047
564	0.046
564	0.046
565	0.046
565	0.045
566	0.044
566	0.044
567	0.044
567	0.044
568	0.044
568	0.044
568	0.045
569	0.045
569	0.045
570	0.045
570	0.045
571	0.045
571	0.045
572	0.044
572	0.044
573	0.044
573	0.043
573	0.043
574	0.043
574	0.042
575	0.042
575	0.043
576	0.043
576	0.042
577	0.041
577	0.041
577	0.041
578	0.041
578	0.041
579	0.042
579	0.042
580	0.041
580	0.04
581	0.039
581	0.039
581	0.039
582	0.039
582	0.039
583	0.04
583	0.039
584	0.037
584	0.036
585	0.036
585	0.036
585	0.036
586	0.036
586	0.036
587	0.035
587	0.034
588	0.034
588	0.033
589	0.034
589	0.034
590	0.034
590	0.034
590	0.035
591	0.035
591	0.035
592	0.035
592	0.035
593	0.035
593	0.035
594	0.034
594	0.034
594	0.034
595	0.034
595	0.033
596	0.033
596	0.034
597	0.035
597	0.036
598	0.036
598	0.037
598	0.038
599	0.038
599	0.038
600	0.038
600	0.038
601	0.037
601	0.037
602	0.036
602	0.036
602	0.035
603	0.035
603	0.036
604	0.036
604	0.036
605	0.037
605	0.037
606	0.037
606	0.037
606	0.037
607	0.036
607	0.036
608	0.036
608	0.035
609	0.034
609	0.034
610	0.034
610	0.033
610	0.034
611	0.035
611	0.036
612	0.037
612	0.038
613	0.039
613	0.04
614	0.04
614	0.04
614	0.04
615	0.04
615	0.04
616	0.04
616	0.04
617	0.04
617	0.04
618	0.039
618	0.039
618	0.039
619	0.039
619	0.04
620	0.04
620	0.041
621	0.041
621	0.041
622	0.041
622	0.041
622	0.041
623	0.041
623	0.041
624	0.041
624	0.041
625	0.041
625	0.041
626	0.041
626	0.041
626	0.042
627	0.043
627	0.043
628	0.044
628	0.044
629	0.044
629	0.044
630	0.044
630	0.044
630	0.044
631	0.044
631	0.044
632	0.044
632	0.044
633	0.044
633	0.044
634	0.045
634	0.046
634	0.046
635	0.047
635	0.047
636	0.048
636	0.048
637	0.049
637	0.049
638	0.05
638	0.05
638	0.05
639	0.05
639	0.05
640	0.051
640	0.051
641	0.051
641	0.052
642	0.053
642	0.053
642	0.054
643	0.055
643	0.055
644	0.056
644	0.056
645	0.057
645	0.058
646	0.059
646	0.06
646	0.061
647	0.062
647	0.063
648	0.064
648	0.065
649	0.066
649	0.067
650	0.068
650	0.07
650	0.071
651	0.072
651	0.072
652	0.073
652	0.073
653	0.074
653	0.078
653	0.074
654	0.061
654	0.05
655	0.05
655	0.051
656	0.051
656	0.052
657	0.053
657	0.054
657	0.055
658	0.053
658	0.055
659	0.069
659	0.086
660	0.09
660	0.091
661	0.092
661	0.093
661	0.094
662	0.095
662	0.096
663	0.097
663	0.098
664	0.098
664	0.099
665	0.1
665	0.1
665	0.101
666	0.102
666	0.102
667	0.102
667	0.103
668	0.104
668	0.105
669	0.105
669	0.107
669	0.108
670	0.109
670	0.11
671	0.11
671	0.111
672	0.112
672	0.113
672	0.113
673	0.114
673	0.115
674	0.116
674	0.116
675	0.117
675	0.118
676	0.12
676	0.121
676	0.122
677	0.123
677	0.124
678	0.125
678	0.125
679	0.125
679	0.125
680	0.126
680	0.126
680	0.126
681	0.127
681	0.127
682	0.128
682	0.128
683	0.129
683	0.13
684	0.131
684	0.13
684	0.13
685	0.13
685	0.13
686	0.13
686	0.13
687	0.129
687	0.129
687	0.129
688	0.128
688	0.128
689	0.129
689	0.13
690	0.13
690	0.13
691	0.13
691	0.13
691	0.13
692	0.13
692	0.13
693	0.129
693	0.13
694	0.129
694	0.129
695	0.129
695	0.13
695	0.129
696	0.128
696	0.128
697	0.127
697	0.127
698	0.126
698	0.126
698	0.125
699	0.125
699	0.123
700	0.122
700	0.122
701	0.122
701	0.121
702	0.121
702	0.12
702	0.119
703	0.118
703	0.117
704	0.116
704	0.116
705	0.115
705	0.115
705	0.114
706	0.114
706	0.113
707	0.113
707	0.113
708	0.112
708	0.112
709	0.111
709	0.111
709	0.11
710	0.109
710	0.109
711	0.108
711	0.107
712	0.106
712	0.105
713	0.105
713	0.104
713	0.103
714	0.102
714	0.1
715	0.099
715	0.098
716	0.097
716	0.095
716	0.094
717	0.093
717	0.092
718	0.091
718	0.09
719	0.089
719	0.088
720	0.087
720	0.086
720	0.085
721	0.083
721	0.083
722	0.082
722	0.081
723	0.08
723	0.08
723	0.079
724	0.079
724	0.079
725	0.079
725	0.079
726	0.079
726	0.079
727	0.079
727	0.078
727	0.078
728	0.077
728	0.077
729	0.076
729	0.076
730	0.075
730	0.073
730	0.072
731	0.071
731	0.071
732	0.07
732	0.069
733	0.069
733	0.068
734	0.068
734	0.067
734	0.067
735	0.067
735	0.066
736	0.066
736	0.065
737	0.064
737	0.064
737	0.063
738	0.061
738	0.06
739	0.059
739	0.058
740	0.057
740	0.056
741	0.056
741	0.055
741	0.055
742	0.054
742	0.054
743	0.054
743	0.053
744	0.053
744	0.053
744	0.052
745	0.051
745	0.05
746	0.049
746	0.048
747	0.047
747	0.047
748	0.046
748	0.045
748	0.045
749	0.044
749	0.044
750	0.043
750	0.043
751	0.043
751	0.043
751	0.044
752	0.043
752	0.043
753	0.043
753	0.043
754	0.043
754	0.043
754	0.044
755	0.044
755	0.044
756	0.044
756	0.043
757	0.042
757	0.042
758	0.042
758	0.041
758	0.041
759	0.041
759	0.04
760	0.04
760	0.039
761	0.038
761	0.038
761	0.038
762	0.037
762	0.037
763	0.037
763	0.036
764	0.035
764	0.034
764	0.033
765	0.032
765	0.032
766	0.031
766	0.031
767	0.03
767	0.029
768	0.027
768	0.026
768	0.025
769	0.024
769	0.023
770	0.022
770	0.021
771	0.019
771	0.018
771	0.016
772	0.015
772	0.015
773	0.014
773	0.013
774	0.012
774	0.011
775	0.011
775	0.011
775	0.01
776	0.01
776	0.01
777	0.01
777	0.01
778	0.009
778	0.008
778	0.008
779	0.007
779	0.007
780	0.005
780	0.004
781	0.003
781	0.001
781	-0.002
782	-0.004
782	-0.007
783	-0.01
783	-0.012
784	-0.015
784	-0.018
784	-0.021
785	-0.024
785	-0.028
786	-0.031
786	-0.033
787	-0.035
787	-0.037
788	-0.041
788	-0.045
788	-0.049
789	-0.054
789	-0.058
790	-0.063
790	-0.068
791	-0.075
791	-0.082
791	-0.088
792	-0.087
792	-0.082
793	-0.082
793	-0.083
794	-0.086
794	-0.092
794	-0.097
795	-0.102
795	-0.104
796	-0.104
796	-0.107
797	-0.116
797	-0.127
797	-0.134
798	-0.139
798	-0.142
799	-0.143
799	-0.142
800	-0.142
800	-0.143
801	-0.146
801	-0.147
801	-0.146
802	-0.147
802	-0.148
803	-0.149
803	-0.149
804	-0.148
804	-0.143
804	-0.136
805	-0.133
805	-0.131
806	-0.129
806	-0.128
807	-0.128
807	-0.128
807	-0.128
808	-0.128
808	-0.13
809	-0.134
809	-0.14
810	-0.144
810	-0.147
810	-0.15
811	-0.153
811	-0.154
812	-0.15
812	-0.146
813	-0.144
813	-0.14
813	-0.136
814	-0.131
814	-0.124
815	-0.115
815	-0.105
816	-0.095
816	-0.086
817	-0.08
817	-0.072
817	-0.063
818	-0.054
818	-0.046
819	-0.039
819	-0.033
820	-0.029
820	-0.024
820	-0.02
821	-0.016
821	-0.012
822	-0.009
822	-0.007
823	-0.004
823	-0.003
823	-0.001
824	0.001
824	0.003
825	0.005
825	0.007
826	0.009
826	0.011
826	0.012
827	0.014
827	0.015
828	0.016
828	0.017
829	0.017
829	0.018
829	0.017
830	0.017
830	0.017
831	0.018
831	0.018
832	0.018
832	0.018
832	0.018
833	0.018
833	0.019
834	0.02
834	0.021
835	0.021
835	0.021
835	0.021
836	0.022
836	0.022
837	0.023
837	0.023
838	0.023
838	0.023
839	0.024
839	0.023
839	0.023
840	0.023
840	0.023
841	0.022
841	0.022
842	0.022
842	0.022
842	0.021
843	0.021
843	0.021
844	0.021
844	0.021
845	0.021
845	0.021
845	0.021
846	0.021
846	0.021
847	0.021
847	0.022
848	0.022
848	0.022
848	0.022
849	0.022
849	0.022
850	0.022
850	0.022
851	0.022
851	0.022
851	0.022
852	0.021
852	0.021
853	0.021
853	0.021
854	0.021
854	0.021
854	0.022
855	0.022
855	0.022
856	0.022
856	0.021
857	0.021
857	0.021
857	0.02
858	0.02
858	0.02
859	0.02
859	0.02
860	0.02
860	0.021
860	0.021
861	0.021
861	0.022
862	0.023
862	0.023
863	0.023
863	0.024
863	0.024
864	0.025
864	0.025
865	0.025
865	0.026
866	0.026
866	0.026
866	0.027
867	0.027
867	0.027
868	0.027
868	0.027
869	0.027
869	0.027
869	0.027
870	0.027
870	0.027
871	0.027
871	0.028
872	0.028
872	0.028
872	0.029
873	0.03
873	0.03
874	0.03
874	0.03
875	0.03
875	0.03
875	0.03
876	0.029
876	0.028
877	0.027
877	0.026
878	0.025
878	0.023
878	0.023
879	0.022
879	0.021
880	0.02
880	0.02
881	0.02
881	0.02
881	0.02
882	0.02
882	0.021
883	0.021
883	0.021
884	0.021
884	0.021
884	0.021
885	0.021
885	0.021
886	0.021
886	0.02
887	0.02
887	0.02
887	0.02
888	0.021
888	0.021
889	0.022
889	0.023
890	0.023
890	0.024
890	0.025
891	0.025
891	0.026
892	0.026
892	0.027
893	0.027
893	0.028
893	0.028
894	0.028
894	0.028
895	0.027
895	0.026
895	0.025
896	0.025
896	0.024
897	0.022
897	0.021
898	0.02
898	0.02
898	0.019
899	0.019
899	0.019
900	0.019
900	0.019
901	0.019
901	0.019
901	0.02
902	0.02
902	0.021
903	0.021
903	0.021
904	0.022
904	0.022
904	0.023
905	0.023
905	0.024
906	0.024
906	0.024
907	0.024
907	0.025
907	0.025
908	0.026
908	0.026
909	0.027
909	0.028
910	0.029
910	0.029
910	0.03
911	0.03
911	0.031
912	0.031
912	0.031
913	0.031
913	0.031
913	0.03
914	0.03
914	0.029
915	0.028
915	0.027
916	0.026
916	0.025
916	0.023
917	0.021
917	0.019
918	0.017
918	0.016
918	0.014
919	0.012
919	0.011
920	0.01
920	0.009
921	0.008
921	0.008
921	0.008
922	0.009
922	0.009
923	0.01
923	0.011
924	0.012
924	0.013
924	0.014
925	0.015
925	0.016
926	0.017
926	0.018
927	0.018
927	0.019
927	0.019
928	0.019
928	0.019
929	0.019
929	0.018
930	0.018
930	0.017
930	0.017
931	0.016
931	0.016
932	0.015
932	0.015
933	0.014
933	0.014
933	0.013
934	0.013
934	0.012
935	0.012
935	0.011
935	0.011
936	0.01
936	0.01
937	0.01
937	0.009
938	0.009
938	0.009
938	0.01
939	0.01
939	0.01
940	0.011
940	0.011
941	0.012
941	0.013
941	0.014
942	0.015
942	0.016
943	0.017
943	0.018
944	0.018
944	0.019
944	0.02
945	0.021
945	0.021
946	0.022
946	0.022
946	0.022
947	0.022
947	0.023
948	0.023
948	0.023
949	0.024
949	0.024
949	0.024
950	0.024
950	0.024
951	0.023
951	0.023
952	0.022
952	0.022
952	0.021
953	0.02
953	0.02
954	0.019
954	0.018
955	0.018
955	0.018
955	0.018
956	0.018
956	0.018
957	0.018
957	0.018
957	0.018
958	0.019
958	0.019
959	0.02
959	0.02
960	0.02
960	0.02
960	0.021
961	0.021
961	0.021
962	0.022
962	0.022
963	0.023
963	0.023
963	0.023
964	0.024
964	0.024
965	0.023
965	0.024
966	0.024
966	0.024
966	0.024
967	0.023
967	0.023
968	0.023
968	0.023
968	0.022
969	0.022
969	0.022
970	0.022
970	0.021
971	0.021
971	0.021
971	0.021
972	0.021
972	0.02
973	0.02
973	0.02
974	0.02
974	0.02
974	0.02
975	0.02
975	0.021
976	0.021
976	0.022
976	0.022
977	0.023
977	0.023
978	0.024
978	0.024
979	0.025
979	0.025
979	0.025
980	0.024
980	0.024
981	0.023
981	0.023
982	0.022
982	0.021
982	0.02
983	0.019
983	0.018
984	0.017
984	0.017
984	0.016
985	0.015
985	0.015
986	0.014
986	0.013
987	0.013
987	0.013
987	0.013
988	0.013
988	0.013
989	0.013
989	0.014
990	0.014
990	0.015
990	0.015
991	0.016
991	0.016
992	0.017
992	0.017
992	0.017
993	0.017
993	0.018
994	0.017
994	0.017
995	0.017
995	0.017
995	0.017
996	0.017
996	0.017
997	0.017
997	0.017
997	0.017
998	0.017
998	0.018
999	0.018
999	0.019
1000	0.019
1000	0.019
1000	0.02
1001	0.02
1001	0.021
1002	0.021
1002	0.022
1003	0.022
1003	0.022
1003	0.023
1004	0.022
1004	0.022
1005	0.022
1005	0.022
1005	0.021
1006	0.021
1006	0.02
1007	0.02
1007	0.019
1008	0.019
1008	0.018
1008	0.018
1009	0.018
1009	0.017
1010	0.017
1010	0.017
1010	0.017
1011	0.017
1011	0.017
1012	0.016
1012	0.016
1013	0.015
1013	0.015
1013	0.014
1014	0.013
1014	0.013
1015	0.012
1015	0.011
1016	0.01
1016	0.009
1016	0.008
1017	0.008
1017	0.007
1018	0.006
1018	0.006
1018	0.005
1019	0.005
1019	0.004
1020	0.004
1020	0.004
1021	0.004
1021	0.004
1021	0.004
1022	0.005
1022	0.005
1023	0.005
1023	0.006
1023	0.006
1024	0.007
1024	0.007
1025	0.007
1025	0.007
1026	0.007
1026	0.007
1026	0.007
1027	0.007
1027	0.007
1028	0.007
1028	0.006
1028	0.006
1029	0.005
1029	0.005
1030	0.005
1030	0.004
1031	0.004
1031	0.003
1031	0.003
1032	0.003
1032	0.003
1033	0.003
1033	0.003
1033	0.003
1034	0.003
1034	0.003
1035	0.003
1035	0.003
1036	0.003
1036	0.003
1036	0.004
1037	0.004
1037	0.005
1038	0.005
1038	0.006
1039	0.006
1039	0.007
1039	0.008
1040	0.009
1040	0.01
1041	0.011
1041	0.012
1041	0.012
1042	0.013
1042	0.014
1043	0.015
1043	0.016
1044	0.017
1044	0.017
1044	0.018
1045	0.018
1045	0.018
1046	0.018
1046	0.017
1046	0.017
1047	0.017
1047	0.016
1048	0.016
1048	0.015
1049	0.015
1049	0.014
1049	0.013
1050	0.012
1050	0.011
1051	0.011
1051	0.01
1051	0.01
1052	0.009
1052	0.008
1053	0.008
1053	0.007
1053	0.006
1054	0.006
1054	0.005
1055	0.005
1055	0.004
1056	0.003
1056	0.003
1056	0.002
1057	0.002
1057	0.001
1058	0.001
1058	0.001
1058	0.001
1059	0.001
1059	0.001
1060	0.001
1060	0.002
1061	0.002
1061	0.002
1061	0.003
1062	0.003
1062	0.003
1063	0.003
1063	0.002
1063	0.003
1064	0.003
1064	0.003
1065	0.003
1065	0.003
1066	0.003
1066	0.003
1066	0.003
1067	0.003
1067	0.003
1068	0.003
1068	0.003
1068	0.002
1069	0.002
1069	0.001
1070	0
1070	-0.001
1071	-0.001
1071	-0.002
1071	-0.003
1072	-0.004
1072	-0.005
1073	-0.006
1073	-0.006
1073	-0.007
1074	-0.007
1074	-0.007
1075	-0.008
1075	-0.009
1076	-0.009
1076	-0.009
1076	-0.01
1077	-0.009
1077	-0.009
1078	-0.01
1078	-0.01
1078	-0.01
1079	-0.01
1079	-0.01
1080	-0.01
1080	-0.009
1080	-0.01
1081	-0.009
1081	-0.009
1082	-0.009
1082	-0.009
1083	-0.009
1083	-0.009
1083	-0.009
1084	-0.009
1084	-0.009
1085	-0.009
1085	-0.009
1085	-0.008
1086	-0.008
1086	-0.008
1087	-0.008
1087	-0.008
1088	-0.008
1088	-0.008
1088	-0.008
1089	-0.009
1089	-0.009
1090	-0.009
1090	-0.009
1090	-0.009
1091	-0.01
1091	-0.009
1092	-0.01
1092	-0.009
1092	-0.009
1093	-0.009
1093	-0.009
1094	-0.008
1094	-0.009
1095	-0.01
1095	-0.01
1095	-0.01
1096	-0.01
1096	-0.01
1097	-0.01
1097	-0.01
1097	-0.009
1098	-0.009
1098	-0.009
1099	-0.007
1099	-0.006
1100	-0.005
1100	-0.005
1100	-0.004
1101	-0.003
1101	-0.002
1102	-0.001
1102	-0.001
1102	0.001
1103	0.002
1103	0.003
1104	0.005
1104	0.006
1104	0.008
1105	0.011
1105	0.011
1106	0.013
1106	0.014
1107	0.015
1107	0.017
1107	0.02
1108	0.031
1108	0.045
1109	0.064
1109	0.09
1109	0.105
1110	0.134
1110	0.176
1111	0.262
1111	0.552
