Data from 17c-2a_Absorbance__1341__01342.txt Node

Date: Fri Jan 26 10:32:12 CET 2024
User: Marek
Spectrometer: MAYP115816
Trigger mode: 0
Integration Time (sec): 2.000000E-1
Scans to average: 10
Electric dark correction enabled: true
Nonlinearity correction enabled: true
Boxcar width: 5
XAxis mode: Wavelengths
Number of Pixels in Spectrum: 2068
>>>>>Begin Spectral Data<<<<<
199	-1.433
199	-1.298
200	-1.152
200	-1.043
201	-0.976
201	-0.934
202	-0.872
202	-0.823
203	-0.782
203	-0.748
204	-0.724
204	-0.702
205	-0.682
205	-0.672
205	-0.67
206	-0.666
206	-0.662
207	-0.658
207	-0.657
208	-0.657
208	-0.656
209	-0.653
209	-0.65
210	-0.651
210	-0.652
211	-0.652
211	-0.654
212	-0.655
212	-0.654
213	-0.653
213	-0.65
213	-0.651
214	-0.648
214	-0.646
215	-0.642
215	-0.64
216	-0.637
216	-0.636
217	-0.633
217	-0.631
218	-0.627
218	-0.625
219	-0.621
219	-0.62
220	-0.619
220	-0.619
221	-0.617
221	-0.615
221	-0.612
222	-0.606
222	-0.603
223	-0.6
223	-0.596
224	-0.592
224	-0.584
225	-0.577
225	-0.57
226	-0.562
226	-0.551
227	-0.541
227	-0.53
228	-0.514
228	-0.498
229	-0.479
229	-0.458
229	-0.435
230	-0.409
230	-0.38
231	-0.35
231	-0.318
232	-0.284
232	-0.249
233	-0.212
233	-0.174
234	-0.139
234	-0.104
235	-0.069
235	-0.036
236	-0.005
236	0.025
236	0.054
237	0.08
237	0.103
238	0.124
238	0.144
239	0.162
239	0.178
240	0.193
240	0.206
241	0.218
241	0.229
242	0.238
242	0.247
243	0.255
243	0.262
243	0.269
244	0.275
244	0.281
245	0.286
245	0.29
246	0.295
246	0.299
247	0.303
247	0.307
248	0.31
248	0.314
249	0.317
249	0.32
250	0.323
250	0.326
250	0.329
251	0.331
251	0.333
252	0.336
252	0.338
253	0.341
253	0.342
254	0.344
254	0.346
255	0.347
255	0.349
256	0.35
256	0.351
257	0.352
257	0.353
258	0.354
258	0.355
258	0.356
259	0.356
259	0.357
260	0.357
260	0.357
261	0.358
261	0.358
262	0.358
262	0.358
263	0.358
263	0.357
264	0.357
264	0.357
265	0.356
265	0.355
265	0.354
266	0.353
266	0.352
267	0.351
267	0.35
268	0.348
268	0.347
269	0.346
269	0.344
270	0.342
270	0.341
271	0.339
271	0.337
272	0.335
272	0.334
272	0.332
273	0.33
273	0.328
274	0.326
274	0.324
275	0.322
275	0.32
276	0.318
276	0.316
277	0.314
277	0.311
278	0.309
278	0.307
278	0.304
279	0.302
279	0.299
280	0.297
280	0.295
281	0.293
281	0.29
282	0.288
282	0.287
283	0.285
283	0.283
284	0.281
284	0.28
285	0.278
285	0.276
285	0.274
286	0.272
286	0.271
287	0.269
287	0.267
288	0.265
288	0.264
289	0.262
289	0.26
290	0.259
290	0.258
291	0.256
291	0.255
292	0.254
292	0.253
292	0.251
293	0.25
293	0.249
294	0.248
294	0.247
295	0.246
295	0.245
296	0.244
296	0.243
297	0.242
297	0.241
298	0.24
298	0.239
298	0.239
299	0.238
299	0.237
300	0.237
300	0.236
301	0.235
301	0.235
302	0.234
302	0.233
303	0.233
303	0.232
304	0.231
304	0.231
305	0.23
305	0.229
305	0.229
306	0.228
306	0.228
307	0.227
307	0.226
308	0.225
308	0.225
309	0.224
309	0.224
310	0.223
310	0.223
311	0.222
311	0.221
311	0.221
312	0.22
312	0.22
313	0.219
313	0.219
314	0.218
314	0.217
315	0.217
315	0.216
316	0.216
316	0.215
317	0.215
317	0.214
318	0.213
318	0.213
318	0.212
319	0.212
319	0.211
320	0.211
320	0.21
321	0.209
321	0.209
322	0.208
322	0.207
323	0.207
323	0.206
324	0.205
324	0.205
324	0.204
325	0.204
325	0.203
326	0.203
326	0.202
327	0.202
327	0.201
328	0.2
328	0.2
329	0.199
329	0.199
330	0.198
330	0.198
330	0.197
331	0.197
331	0.196
332	0.196
332	0.195
333	0.195
333	0.194
334	0.194
334	0.193
335	0.193
335	0.192
336	0.192
336	0.191
336	0.191
337	0.19
337	0.19
338	0.189
338	0.189
339	0.189
339	0.188
340	0.188
340	0.187
341	0.187
341	0.187
342	0.186
342	0.186
342	0.185
343	0.185
343	0.185
344	0.184
344	0.184
345	0.184
345	0.183
346	0.183
346	0.183
347	0.182
347	0.182
348	0.182
348	0.182
348	0.181
349	0.181
349	0.181
350	0.18
350	0.18
351	0.18
351	0.18
352	0.179
352	0.179
353	0.179
353	0.179
354	0.178
354	0.178
354	0.178
355	0.177
355	0.177
356	0.177
356	0.177
357	0.176
357	0.176
358	0.176
358	0.176
359	0.176
359	0.176
360	0.176
360	0.176
360	0.176
361	0.176
361	0.176
362	0.177
362	0.177
363	0.177
363	0.177
364	0.176
364	0.176
365	0.176
365	0.176
366	0.176
366	0.176
366	0.176
367	0.176
367	0.176
368	0.175
368	0.175
369	0.175
369	0.175
370	0.174
370	0.174
371	0.174
371	0.174
372	0.173
372	0.173
372	0.173
373	0.173
373	0.173
374	0.173
374	0.173
375	0.173
375	0.173
376	0.173
376	0.174
377	0.174
377	0.174
378	0.174
378	0.174
378	0.174
379	0.173
379	0.173
380	0.174
380	0.173
381	0.173
381	0.173
382	0.173
382	0.173
383	0.172
383	0.172
383	0.172
384	0.172
384	0.171
385	0.171
385	0.171
386	0.171
386	0.171
387	0.171
387	0.171
388	0.171
388	0.171
389	0.17
389	0.171
389	0.17
390	0.17
390	0.17
391	0.17
391	0.17
392	0.17
392	0.17
393	0.171
393	0.171
394	0.17
394	0.17
394	0.17
395	0.17
395	0.17
396	0.17
396	0.169
397	0.169
397	0.169
398	0.169
398	0.169
399	0.169
399	0.168
400	0.168
400	0.167
400	0.167
401	0.167
401	0.167
402	0.166
402	0.166
403	0.166
403	0.165
404	0.165
404	0.165
405	0.165
405	0.165
405	0.165
406	0.165
406	0.165
407	0.165
407	0.165
408	0.165
408	0.165
409	0.165
409	0.165
410	0.165
410	0.165
411	0.165
411	0.165
411	0.165
412	0.164
412	0.164
413	0.164
413	0.164
414	0.164
414	0.164
415	0.163
415	0.163
416	0.163
416	0.162
416	0.162
417	0.162
417	0.162
418	0.162
418	0.162
419	0.162
419	0.163
420	0.163
420	0.163
421	0.163
421	0.164
421	0.164
422	0.164
422	0.164
423	0.164
423	0.164
424	0.163
424	0.163
425	0.163
425	0.163
426	0.163
426	0.163
427	0.163
427	0.163
427	0.163
428	0.163
428	0.163
429	0.163
429	0.163
430	0.163
430	0.163
431	0.163
431	0.163
432	0.163
432	0.162
432	0.162
433	0.162
433	0.162
434	0.162
434	0.162
435	0.162
435	0.162
436	0.162
436	0.162
437	0.162
437	0.162
437	0.162
438	0.162
438	0.161
439	0.161
439	0.161
440	0.161
440	0.161
441	0.16
441	0.16
442	0.16
442	0.16
442	0.161
443	0.161
443	0.161
444	0.161
444	0.161
445	0.161
445	0.161
446	0.161
446	0.161
447	0.161
447	0.161
447	0.162
448	0.162
448	0.162
449	0.162
449	0.162
450	0.162
450	0.162
451	0.162
451	0.162
452	0.162
452	0.162
452	0.161
453	0.161
453	0.161
454	0.161
454	0.161
455	0.161
455	0.161
456	0.161
456	0.161
457	0.161
457	0.161
458	0.161
458	0.161
458	0.162
459	0.162
459	0.162
460	0.161
460	0.161
461	0.161
461	0.162
462	0.162
462	0.162
463	0.162
463	0.163
463	0.163
464	0.163
464	0.163
465	0.163
465	0.164
466	0.164
466	0.164
467	0.164
467	0.164
467	0.164
468	0.163
468	0.163
469	0.163
469	0.163
470	0.163
470	0.163
471	0.163
471	0.163
472	0.163
472	0.164
472	0.164
473	0.165
473	0.165
474	0.166
474	0.167
475	0.167
475	0.168
476	0.168
476	0.169
477	0.169
477	0.169
477	0.17
478	0.17
478	0.17
479	0.171
479	0.171
480	0.172
480	0.172
481	0.173
481	0.173
482	0.174
482	0.175
482	0.176
483	0.178
483	0.179
484	0.181
484	0.182
485	0.183
485	0.184
486	0.185
486	0.186
487	0.186
487	0.187
487	0.188
488	0.188
488	0.187
489	0.187
489	0.188
490	0.189
490	0.189
491	0.19
491	0.191
492	0.192
492	0.193
492	0.193
493	0.194
493	0.195
494	0.197
494	0.199
495	0.2
495	0.201
496	0.202
496	0.204
496	0.205
497	0.206
497	0.208
498	0.209
498	0.21
499	0.211
499	0.212
500	0.213
500	0.215
501	0.216
501	0.218
501	0.219
502	0.221
502	0.222
503	0.224
503	0.225
504	0.226
504	0.227
505	0.228
505	0.23
506	0.231
506	0.232
506	0.233
507	0.234
507	0.235
508	0.236
508	0.238
509	0.239
509	0.24
510	0.241
510	0.242
511	0.243
511	0.244
511	0.245
512	0.246
512	0.247
513	0.247
513	0.248
514	0.248
514	0.249
515	0.249
515	0.249
515	0.25
516	0.25
516	0.251
517	0.252
517	0.253
518	0.253
518	0.253
519	0.253
519	0.253
520	0.253
520	0.252
520	0.252
521	0.251
521	0.251
522	0.25
522	0.249
523	0.249
523	0.25
524	0.25
524	0.25
524	0.251
525	0.251
525	0.252
526	0.252
526	0.253
527	0.254
527	0.254
528	0.254
528	0.254
529	0.254
529	0.254
529	0.253
530	0.253
530	0.253
531	0.252
531	0.251
532	0.25
532	0.249
533	0.248
533	0.247
533	0.247
534	0.245
534	0.244
535	0.243
535	0.242
536	0.241
536	0.239
537	0.238
537	0.237
538	0.236
538	0.234
538	0.233
539	0.232
539	0.23
540	0.229
540	0.227
541	0.225
541	0.223
542	0.222
542	0.22
542	0.219
543	0.217
543	0.215
544	0.213
544	0.212
545	0.211
545	0.21
546	0.208
546	0.207
547	0.205
547	0.203
547	0.202
548	0.2
548	0.198
549	0.197
549	0.195
550	0.194
550	0.192
551	0.189
551	0.188
551	0.186
552	0.184
552	0.183
553	0.181
553	0.18
554	0.178
554	0.176
555	0.174
555	0.172
556	0.169
556	0.167
556	0.165
557	0.162
557	0.16
558	0.158
558	0.156
559	0.154
559	0.153
560	0.151
560	0.15
560	0.149
561	0.148
561	0.147
562	0.146
562	0.144
563	0.142
563	0.141
564	0.139
564	0.137
564	0.136
565	0.134
565	0.133
566	0.131
566	0.13
567	0.129
567	0.128
568	0.128
568	0.127
568	0.126
569	0.126
569	0.126
570	0.125
570	0.124
571	0.124
571	0.124
572	0.123
572	0.122
573	0.121
573	0.12
573	0.119
574	0.118
574	0.117
575	0.117
575	0.117
576	0.117
576	0.115
577	0.113
577	0.112
577	0.112
578	0.111
578	0.111
579	0.111
579	0.111
580	0.109
580	0.107
581	0.104
581	0.103
581	0.103
582	0.102
582	0.102
583	0.102
583	0.101
584	0.098
584	0.095
585	0.095
585	0.095
585	0.095
586	0.095
586	0.094
587	0.092
587	0.09
588	0.088
588	0.087
589	0.087
589	0.087
590	0.086
590	0.086
590	0.087
591	0.087
591	0.087
592	0.086
592	0.086
593	0.086
593	0.086
594	0.085
594	0.084
594	0.084
595	0.083
595	0.082
596	0.082
596	0.083
597	0.084
597	0.085
598	0.085
598	0.085
598	0.085
599	0.086
599	0.085
600	0.084
600	0.084
601	0.083
601	0.082
602	0.08
602	0.079
602	0.078
603	0.078
603	0.079
604	0.079
604	0.079
605	0.08
605	0.081
606	0.081
606	0.08
606	0.08
607	0.08
607	0.08
608	0.08
608	0.079
609	0.078
609	0.078
610	0.077
610	0.077
610	0.077
611	0.079
611	0.08
612	0.081
612	0.082
613	0.083
613	0.085
614	0.085
614	0.085
614	0.085
615	0.085
615	0.085
616	0.085
616	0.085
617	0.084
617	0.084
618	0.083
618	0.083
618	0.082
619	0.083
619	0.083
620	0.085
620	0.085
621	0.085
621	0.085
622	0.086
622	0.086
622	0.086
623	0.086
623	0.087
624	0.088
624	0.088
625	0.088
625	0.089
626	0.089
626	0.09
626	0.091
627	0.092
627	0.093
628	0.093
628	0.094
629	0.094
629	0.094
630	0.094
630	0.093
630	0.094
631	0.094
631	0.095
632	0.095
632	0.095
633	0.095
633	0.096
634	0.098
634	0.099
634	0.101
635	0.102
635	0.103
636	0.104
636	0.105
637	0.106
637	0.106
638	0.107
638	0.109
638	0.109
639	0.11
639	0.11
640	0.111
640	0.113
641	0.114
641	0.115
642	0.116
642	0.118
642	0.12
643	0.121
643	0.122
644	0.123
644	0.125
645	0.127
645	0.128
646	0.13
646	0.133
646	0.135
647	0.138
647	0.14
648	0.143
648	0.145
649	0.147
649	0.15
650	0.152
650	0.155
650	0.157
651	0.159
651	0.16
652	0.162
652	0.164
653	0.166
653	0.172
653	0.177
654	0.142
654	0.115
655	0.117
655	0.119
656	0.12
656	0.122
657	0.124
657	0.125
657	0.127
658	0.124
658	0.119
659	0.15
659	0.194
660	0.201
660	0.204
661	0.206
661	0.208
661	0.21
662	0.213
662	0.215
663	0.218
663	0.22
664	0.223
664	0.224
665	0.227
665	0.229
665	0.231
666	0.233
666	0.235
667	0.237
667	0.239
668	0.241
668	0.243
669	0.245
669	0.247
669	0.25
670	0.253
670	0.254
671	0.256
671	0.257
672	0.259
672	0.26
672	0.262
673	0.263
673	0.265
674	0.267
674	0.268
675	0.27
675	0.272
676	0.275
676	0.277
676	0.278
677	0.28
677	0.282
678	0.283
678	0.284
679	0.285
679	0.286
680	0.287
680	0.288
680	0.288
681	0.289
681	0.29
682	0.291
682	0.292
683	0.294
683	0.295
684	0.296
684	0.297
684	0.297
685	0.298
685	0.298
686	0.298
686	0.298
687	0.297
687	0.296
687	0.296
688	0.295
688	0.295
689	0.296
689	0.297
690	0.297
690	0.297
691	0.297
691	0.298
691	0.298
692	0.297
692	0.297
693	0.297
693	0.297
694	0.295
694	0.294
695	0.294
695	0.294
695	0.293
696	0.292
696	0.291
697	0.29
697	0.289
698	0.288
698	0.286
698	0.284
699	0.283
699	0.28
700	0.277
700	0.276
701	0.274
701	0.272
702	0.27
702	0.268
702	0.266
703	0.264
703	0.263
704	0.261
704	0.259
705	0.258
705	0.256
705	0.255
706	0.253
706	0.252
707	0.251
707	0.249
708	0.248
708	0.247
709	0.246
709	0.244
709	0.242
710	0.24
710	0.238
711	0.237
711	0.235
712	0.233
712	0.231
713	0.229
713	0.227
713	0.225
714	0.222
714	0.22
715	0.217
715	0.215
716	0.212
716	0.21
716	0.207
717	0.205
717	0.203
718	0.2
718	0.198
719	0.196
719	0.194
720	0.192
720	0.19
720	0.188
721	0.186
721	0.184
722	0.182
722	0.18
723	0.178
723	0.177
723	0.175
724	0.173
724	0.172
725	0.17
725	0.169
726	0.168
726	0.166
727	0.165
727	0.163
727	0.162
728	0.16
728	0.158
729	0.157
729	0.155
730	0.153
730	0.151
730	0.149
731	0.147
731	0.146
732	0.144
732	0.143
733	0.141
733	0.14
734	0.139
734	0.137
734	0.137
735	0.137
735	0.135
736	0.134
736	0.133
737	0.132
737	0.131
737	0.129
738	0.127
738	0.124
739	0.122
739	0.12
740	0.118
740	0.117
741	0.115
741	0.113
741	0.111
742	0.109
742	0.108
743	0.107
743	0.106
744	0.105
744	0.104
744	0.102
745	0.1
745	0.099
746	0.097
746	0.096
747	0.095
747	0.094
748	0.093
748	0.092
748	0.091
749	0.09
749	0.089
750	0.088
750	0.088
751	0.087
751	0.087
751	0.087
752	0.086
752	0.085
753	0.085
753	0.085
754	0.085
754	0.084
754	0.084
755	0.084
755	0.084
756	0.083
756	0.081
757	0.08
757	0.08
758	0.079
758	0.078
758	0.078
759	0.077
759	0.076
760	0.074
760	0.072
761	0.071
761	0.07
761	0.069
762	0.067
762	0.066
763	0.065
763	0.063
764	0.06
764	0.059
764	0.057
765	0.055
765	0.054
766	0.052
766	0.052
767	0.05
767	0.048
768	0.046
768	0.044
768	0.043
769	0.042
769	0.041
770	0.04
770	0.039
771	0.037
771	0.034
771	0.032
772	0.031
772	0.029
773	0.028
773	0.026
774	0.023
774	0.021
775	0.02
775	0.018
775	0.016
776	0.015
776	0.013
777	0.012
777	0.011
778	0.009
778	0.007
778	0.005
779	0.004
779	0.002
780	-0
780	-0.003
781	-0.005
781	-0.008
781	-0.012
782	-0.015
782	-0.019
783	-0.023
783	-0.027
784	-0.031
784	-0.036
784	-0.041
785	-0.045
785	-0.05
786	-0.055
786	-0.059
787	-0.062
787	-0.066
788	-0.071
788	-0.077
788	-0.084
789	-0.091
789	-0.096
790	-0.099
790	-0.103
791	-0.108
791	-0.113
791	-0.116
792	-0.111
792	-0.103
793	-0.098
793	-0.095
794	-0.094
794	-0.096
794	-0.1
795	-0.103
795	-0.103
796	-0.103
796	-0.106
797	-0.115
797	-0.126
797	-0.133
798	-0.138
798	-0.141
799	-0.142
799	-0.141
800	-0.141
800	-0.142
801	-0.145
801	-0.146
801	-0.145
802	-0.146
802	-0.147
803	-0.148
803	-0.148
804	-0.147
804	-0.142
804	-0.135
805	-0.132
805	-0.13
806	-0.128
806	-0.127
807	-0.127
807	-0.127
807	-0.127
808	-0.127
808	-0.129
809	-0.134
809	-0.139
810	-0.143
810	-0.146
810	-0.149
811	-0.152
811	-0.153
812	-0.149
812	-0.145
813	-0.145
813	-0.146
813	-0.148
814	-0.149
814	-0.149
815	-0.146
815	-0.141
816	-0.137
816	-0.133
817	-0.131
817	-0.127
817	-0.12
818	-0.111
818	-0.099
819	-0.088
819	-0.077
820	-0.068
820	-0.061
820	-0.053
821	-0.046
821	-0.039
822	-0.033
822	-0.027
823	-0.023
823	-0.019
823	-0.016
824	-0.012
824	-0.008
825	-0.004
825	-0
826	0.003
826	0.006
826	0.008
827	0.01
827	0.012
828	0.014
828	0.015
829	0.017
829	0.018
829	0.018
830	0.018
830	0.018
831	0.02
831	0.02
832	0.02
832	0.02
832	0.021
833	0.021
833	0.022
834	0.022
834	0.022
835	0.023
835	0.023
835	0.022
836	0.023
836	0.023
837	0.024
837	0.024
838	0.025
838	0.025
839	0.026
839	0.026
839	0.026
840	0.026
840	0.027
841	0.027
841	0.027
842	0.027
842	0.027
842	0.027
843	0.027
843	0.027
844	0.028
844	0.028
845	0.028
845	0.028
845	0.028
846	0.028
846	0.028
847	0.028
847	0.028
848	0.028
848	0.028
848	0.028
849	0.029
849	0.029
850	0.029
850	0.029
851	0.03
851	0.03
851	0.03
852	0.03
852	0.03
853	0.029
853	0.029
854	0.028
854	0.028
854	0.028
855	0.028
855	0.027
856	0.027
856	0.027
857	0.026
857	0.026
857	0.027
858	0.027
858	0.027
859	0.027
859	0.027
860	0.028
860	0.029
860	0.029
861	0.03
861	0.031
862	0.031
862	0.031
863	0.031
863	0.032
863	0.032
864	0.032
864	0.032
865	0.033
865	0.033
866	0.033
866	0.034
866	0.034
867	0.035
867	0.036
868	0.036
868	0.036
869	0.036
869	0.036
869	0.035
870	0.035
870	0.035
871	0.034
871	0.034
872	0.033
872	0.033
872	0.033
873	0.033
873	0.033
874	0.033
874	0.033
875	0.033
875	0.033
875	0.032
876	0.032
876	0.031
877	0.03
877	0.029
878	0.028
878	0.027
878	0.026
879	0.025
879	0.025
880	0.024
880	0.024
881	0.024
881	0.024
881	0.025
882	0.025
882	0.025
883	0.025
883	0.025
884	0.024
884	0.024
884	0.023
885	0.023
885	0.023
886	0.023
886	0.023
887	0.023
887	0.023
887	0.023
888	0.024
888	0.024
889	0.025
889	0.026
890	0.027
890	0.028
890	0.028
891	0.028
891	0.029
892	0.029
892	0.03
893	0.03
893	0.031
893	0.031
894	0.031
894	0.031
895	0.03
895	0.03
895	0.029
896	0.028
896	0.028
897	0.027
897	0.027
898	0.026
898	0.026
898	0.025
899	0.025
899	0.025
900	0.025
900	0.025
901	0.025
901	0.026
901	0.026
902	0.026
902	0.027
903	0.027
903	0.028
904	0.028
904	0.029
904	0.03
905	0.03
905	0.031
906	0.031
906	0.031
907	0.031
907	0.031
907	0.031
908	0.031
908	0.031
909	0.032
909	0.032
910	0.033
910	0.033
910	0.033
911	0.033
911	0.033
912	0.033
912	0.033
913	0.033
913	0.033
913	0.032
914	0.031
914	0.031
915	0.03
915	0.029
916	0.029
916	0.027
916	0.026
917	0.025
917	0.024
918	0.022
918	0.021
918	0.02
919	0.018
919	0.017
920	0.016
920	0.016
921	0.015
921	0.015
921	0.015
922	0.015
922	0.016
923	0.016
923	0.016
924	0.017
924	0.018
924	0.018
925	0.019
925	0.02
926	0.021
926	0.021
927	0.022
927	0.022
927	0.022
928	0.022
928	0.022
929	0.021
929	0.021
930	0.02
930	0.02
930	0.019
931	0.018
931	0.018
932	0.018
932	0.017
933	0.017
933	0.016
933	0.016
934	0.015
934	0.015
935	0.014
935	0.013
935	0.013
936	0.012
936	0.011
937	0.011
937	0.01
938	0.01
938	0.01
938	0.01
939	0.011
939	0.012
940	0.012
940	0.013
941	0.014
941	0.016
941	0.017
942	0.018
942	0.019
943	0.02
943	0.02
944	0.021
944	0.021
944	0.021
945	0.022
945	0.022
946	0.022
946	0.022
946	0.023
947	0.023
947	0.023
948	0.024
948	0.024
949	0.025
949	0.025
949	0.025
950	0.026
950	0.026
951	0.026
951	0.026
952	0.026
952	0.026
952	0.025
953	0.025
953	0.024
954	0.023
954	0.023
955	0.023
955	0.023
955	0.022
956	0.022
956	0.022
957	0.022
957	0.022
957	0.022
958	0.022
958	0.022
959	0.023
959	0.023
960	0.023
960	0.023
960	0.023
961	0.023
961	0.023
962	0.024
962	0.024
963	0.025
963	0.025
963	0.026
964	0.026
964	0.026
965	0.026
965	0.026
966	0.027
966	0.027
966	0.026
967	0.026
967	0.025
968	0.024
968	0.024
968	0.023
969	0.022
969	0.022
970	0.021
970	0.02
971	0.02
971	0.019
971	0.019
972	0.019
972	0.019
973	0.019
973	0.019
974	0.019
974	0.019
974	0.02
975	0.021
975	0.021
976	0.022
976	0.023
976	0.024
977	0.024
977	0.025
978	0.026
978	0.026
979	0.026
979	0.026
979	0.026
980	0.025
980	0.025
981	0.024
981	0.023
982	0.022
982	0.021
982	0.02
983	0.019
983	0.018
984	0.017
984	0.016
984	0.016
985	0.015
985	0.014
986	0.013
986	0.012
987	0.012
987	0.011
987	0.011
988	0.011
988	0.011
989	0.011
989	0.011
990	0.011
990	0.012
990	0.012
991	0.013
991	0.014
992	0.015
992	0.015
992	0.016
993	0.016
993	0.017
994	0.017
994	0.017
995	0.017
995	0.017
995	0.016
996	0.016
996	0.016
997	0.015
997	0.015
997	0.015
998	0.015
998	0.015
999	0.016
999	0.016
1000	0.017
1000	0.018
1000	0.019
1001	0.02
1001	0.021
1002	0.022
1002	0.022
1003	0.023
1003	0.023
1003	0.024
1004	0.024
1004	0.023
1005	0.023
1005	0.022
1005	0.022
1006	0.021
1006	0.02
1007	0.02
1007	0.02
1008	0.019
1008	0.019
1008	0.019
1009	0.019
1009	0.019
1010	0.019
1010	0.019
1010	0.019
1011	0.019
1011	0.019
1012	0.019
1012	0.018
1013	0.018
1013	0.017
1013	0.016
1014	0.015
1014	0.014
1015	0.013
1015	0.012
1016	0.011
1016	0.01
1016	0.009
1017	0.008
1017	0.007
1018	0.006
1018	0.005
1018	0.005
1019	0.004
1019	0.004
1020	0.004
1020	0.003
1021	0.003
1021	0.004
1021	0.004
1022	0.004
1022	0.005
1023	0.006
1023	0.006
1023	0.006
1024	0.006
1024	0.006
1025	0.007
1025	0.007
1026	0.007
1026	0.007
1026	0.006
1027	0.006
1027	0.006
1028	0.006
1028	0.006
1028	0.005
1029	0.005
1029	0.005
1030	0.004
1030	0.004
1031	0.004
1031	0.004
1031	0.003
1032	0.004
1032	0.003
1033	0.003
1033	0.003
1033	0.004
1034	0.003
1034	0.003
1035	0.003
1035	0.003
1036	0.002
1036	0.002
1036	0.002
1037	0.002
1037	0.003
1038	0.003
1038	0.003
1039	0.003
1039	0.004
1039	0.005
1040	0.006
1040	0.007
1041	0.008
1041	0.008
1041	0.009
1042	0.01
1042	0.011
1043	0.011
1043	0.012
1044	0.013
1044	0.013
1044	0.014
1045	0.014
1045	0.014
1046	0.014
1046	0.013
1046	0.013
1047	0.013
1047	0.013
1048	0.013
1048	0.012
1049	0.012
1049	0.011
1049	0.01
1050	0.009
1050	0.008
1051	0.008
1051	0.007
1051	0.007
1052	0.006
1052	0.005
1053	0.004
1053	0.003
1053	0.003
1054	0.002
1054	0.001
1055	0.001
1055	-0
1056	-0.002
1056	-0.002
1056	-0.004
1057	-0.005
1057	-0.005
1058	-0.006
1058	-0.006
1058	-0.007
1059	-0.007
1059	-0.007
1060	-0.007
1060	-0.007
1061	-0.006
1061	-0.006
1061	-0.006
1062	-0.006
1062	-0.006
1063	-0.006
1063	-0.006
1063	-0.006
1064	-0.005
1064	-0.005
1065	-0.005
1065	-0.005
1066	-0.005
1066	-0.004
1066	-0.004
1067	-0.003
1067	-0.003
1068	-0.002
1068	-0.003
1068	-0.003
1069	-0.004
1069	-0.004
1070	-0.005
1070	-0.006
1071	-0.007
1071	-0.007
1071	-0.008
1072	-0.009
1072	-0.01
1073	-0.011
1073	-0.012
1073	-0.013
1074	-0.013
1074	-0.014
1075	-0.015
1075	-0.016
1076	-0.017
1076	-0.018
1076	-0.019
1077	-0.019
1077	-0.019
1078	-0.019
1078	-0.019
1078	-0.019
1079	-0.019
1079	-0.018
1080	-0.018
1080	-0.017
1080	-0.017
1081	-0.017
1081	-0.016
1082	-0.015
1082	-0.015
1083	-0.015
1083	-0.015
1083	-0.015
1084	-0.015
1084	-0.014
1085	-0.013
1085	-0.012
1085	-0.012
1086	-0.012
1086	-0.012
1087	-0.012
1087	-0.011
1088	-0.011
1088	-0.011
1088	-0.011
1089	-0.012
1089	-0.012
1090	-0.012
1090	-0.013
1090	-0.013
1091	-0.014
1091	-0.013
1092	-0.014
1092	-0.014
1092	-0.013
1093	-0.014
1093	-0.013
1094	-0.013
1094	-0.014
1095	-0.014
1095	-0.014
1095	-0.013
1096	-0.013
1096	-0.012
1097	-0.011
1097	-0.011
1097	-0.01
1098	-0.009
1098	-0.007
1099	-0.006
1099	-0.003
1100	-0.002
1100	0
1100	0.001
1101	0.002
1101	0.003
1102	0.006
1102	0.007
1102	0.009
1103	0.01
1103	0.013
1104	0.016
1104	0.019
1104	0.022
1105	0.026
1105	0.029
1106	0.032
1106	0.036
1107	0.039
1107	0.046
1107	0.053
1108	0.08
1108	0.115
1109	0.161
1109	0.233
1109	0.284
1110	0.377
1110	0.57
1111	1.723
1111	-0
