Data from 17c-2a_Absorbance__1075__01076.txt Node

Date: Fri Jan 26 10:23:20 CET 2024
User: Marek
Spectrometer: MAYP115816
Trigger mode: 0
Integration Time (sec): 2.000000E-1
Scans to average: 10
Electric dark correction enabled: true
Nonlinearity correction enabled: true
Boxcar width: 5
XAxis mode: Wavelengths
Number of Pixels in Spectrum: 2068
>>>>>Begin Spectral Data<<<<<
199	-1.378
199	-1.243
200	-1.099
200	-0.992
201	-0.924
201	-0.882
202	-0.82
202	-0.773
203	-0.734
203	-0.701
204	-0.677
204	-0.655
205	-0.636
205	-0.626
205	-0.625
206	-0.621
206	-0.618
207	-0.615
207	-0.615
208	-0.614
208	-0.612
209	-0.61
209	-0.608
210	-0.609
210	-0.61
211	-0.61
211	-0.613
212	-0.614
212	-0.613
213	-0.612
213	-0.608
213	-0.609
214	-0.607
214	-0.605
215	-0.6
215	-0.598
216	-0.595
216	-0.594
217	-0.59
217	-0.588
218	-0.585
218	-0.583
219	-0.578
219	-0.578
220	-0.577
220	-0.578
221	-0.576
221	-0.576
221	-0.571
222	-0.566
222	-0.563
223	-0.559
223	-0.556
224	-0.552
224	-0.546
225	-0.538
225	-0.53
226	-0.522
226	-0.511
227	-0.501
227	-0.493
228	-0.477
228	-0.462
229	-0.443
229	-0.422
229	-0.4
230	-0.375
230	-0.347
231	-0.318
231	-0.287
232	-0.255
232	-0.22
233	-0.186
233	-0.15
234	-0.116
234	-0.083
235	-0.051
235	-0.021
236	0.008
236	0.035
236	0.061
237	0.085
237	0.106
238	0.125
238	0.143
239	0.159
239	0.174
240	0.187
240	0.199
241	0.21
241	0.219
242	0.228
242	0.236
243	0.244
243	0.25
243	0.256
244	0.261
244	0.266
245	0.27
245	0.275
246	0.279
246	0.283
247	0.287
247	0.29
248	0.293
248	0.297
249	0.3
249	0.302
250	0.305
250	0.308
250	0.31
251	0.313
251	0.315
252	0.317
252	0.32
253	0.322
253	0.323
254	0.325
254	0.327
255	0.328
255	0.33
256	0.331
256	0.332
257	0.334
257	0.335
258	0.335
258	0.336
258	0.337
259	0.337
259	0.338
260	0.338
260	0.338
261	0.338
261	0.339
262	0.338
262	0.338
263	0.338
263	0.337
264	0.337
264	0.336
265	0.336
265	0.335
265	0.334
266	0.333
266	0.332
267	0.331
267	0.329
268	0.328
268	0.327
269	0.326
269	0.324
270	0.322
270	0.321
271	0.319
271	0.318
272	0.316
272	0.314
272	0.312
273	0.31
273	0.308
274	0.306
274	0.304
275	0.302
275	0.3
276	0.299
276	0.296
277	0.294
277	0.292
278	0.29
278	0.288
278	0.286
279	0.283
279	0.281
280	0.278
280	0.276
281	0.274
281	0.272
282	0.27
282	0.268
283	0.266
283	0.264
284	0.263
284	0.261
285	0.26
285	0.258
285	0.256
286	0.254
286	0.253
287	0.251
287	0.249
288	0.248
288	0.246
289	0.244
289	0.243
290	0.241
290	0.24
291	0.239
291	0.238
292	0.237
292	0.235
292	0.234
293	0.233
293	0.232
294	0.231
294	0.23
295	0.229
295	0.228
296	0.227
296	0.226
297	0.225
297	0.225
298	0.224
298	0.223
298	0.223
299	0.222
299	0.221
300	0.221
300	0.22
301	0.219
301	0.219
302	0.218
302	0.218
303	0.217
303	0.216
304	0.216
304	0.215
305	0.214
305	0.214
305	0.213
306	0.213
306	0.212
307	0.212
307	0.211
308	0.21
308	0.21
309	0.209
309	0.209
310	0.208
310	0.208
311	0.207
311	0.207
311	0.206
312	0.206
312	0.205
313	0.205
313	0.204
314	0.204
314	0.203
315	0.202
315	0.202
316	0.201
316	0.201
317	0.2
317	0.2
318	0.199
318	0.199
318	0.198
319	0.198
319	0.197
320	0.197
320	0.196
321	0.195
321	0.195
322	0.194
322	0.194
323	0.193
323	0.193
324	0.192
324	0.192
324	0.191
325	0.191
325	0.191
326	0.19
326	0.189
327	0.189
327	0.188
328	0.188
328	0.187
329	0.187
329	0.186
330	0.186
330	0.185
330	0.185
331	0.184
331	0.184
332	0.183
332	0.183
333	0.183
333	0.182
334	0.182
334	0.181
335	0.181
335	0.18
336	0.18
336	0.18
336	0.179
337	0.179
337	0.178
338	0.178
338	0.177
339	0.177
339	0.176
340	0.176
340	0.176
341	0.175
341	0.175
342	0.175
342	0.174
342	0.174
343	0.174
343	0.174
344	0.173
344	0.173
345	0.173
345	0.172
346	0.172
346	0.172
347	0.171
347	0.171
348	0.171
348	0.171
348	0.17
349	0.17
349	0.17
350	0.169
350	0.169
351	0.169
351	0.169
352	0.169
352	0.168
353	0.168
353	0.168
354	0.168
354	0.168
354	0.168
355	0.167
355	0.167
356	0.167
356	0.166
357	0.166
357	0.166
358	0.166
358	0.166
359	0.166
359	0.166
360	0.166
360	0.166
360	0.166
361	0.166
361	0.166
362	0.167
362	0.167
363	0.166
363	0.166
364	0.166
364	0.166
365	0.166
365	0.166
366	0.166
366	0.166
366	0.166
367	0.166
367	0.166
368	0.166
368	0.166
369	0.165
369	0.165
370	0.165
370	0.165
371	0.164
371	0.164
372	0.163
372	0.163
372	0.163
373	0.163
373	0.164
374	0.164
374	0.164
375	0.164
375	0.164
376	0.164
376	0.164
377	0.164
377	0.164
378	0.164
378	0.164
378	0.164
379	0.164
379	0.164
380	0.164
380	0.164
381	0.164
381	0.164
382	0.163
382	0.163
383	0.163
383	0.163
383	0.163
384	0.162
384	0.162
385	0.162
385	0.162
386	0.162
386	0.162
387	0.162
387	0.162
388	0.162
388	0.162
389	0.162
389	0.162
389	0.162
390	0.161
390	0.161
391	0.161
391	0.161
392	0.161
392	0.162
393	0.162
393	0.162
394	0.162
394	0.161
394	0.161
395	0.161
395	0.161
396	0.161
396	0.161
397	0.161
397	0.16
398	0.16
398	0.16
399	0.16
399	0.16
400	0.159
400	0.159
400	0.159
401	0.159
401	0.158
402	0.158
402	0.158
403	0.158
403	0.158
404	0.158
404	0.158
405	0.158
405	0.158
405	0.158
406	0.158
406	0.158
407	0.158
407	0.158
408	0.157
408	0.157
409	0.157
409	0.157
410	0.157
410	0.157
411	0.157
411	0.157
411	0.157
412	0.157
412	0.157
413	0.157
413	0.157
414	0.157
414	0.156
415	0.156
415	0.156
416	0.155
416	0.155
416	0.155
417	0.155
417	0.155
418	0.155
418	0.155
419	0.155
419	0.156
420	0.156
420	0.156
421	0.156
421	0.156
421	0.156
422	0.157
422	0.157
423	0.156
423	0.156
424	0.156
424	0.156
425	0.156
425	0.156
426	0.156
426	0.156
427	0.156
427	0.156
427	0.156
428	0.156
428	0.156
429	0.156
429	0.156
430	0.156
430	0.156
431	0.156
431	0.156
432	0.156
432	0.155
432	0.155
433	0.155
433	0.155
434	0.155
434	0.155
435	0.155
435	0.155
436	0.155
436	0.155
437	0.155
437	0.155
437	0.155
438	0.155
438	0.155
439	0.155
439	0.154
440	0.154
440	0.154
441	0.154
441	0.153
442	0.154
442	0.154
442	0.154
443	0.154
443	0.154
444	0.154
444	0.155
445	0.155
445	0.155
446	0.155
446	0.155
447	0.155
447	0.155
447	0.155
448	0.155
448	0.155
449	0.155
449	0.155
450	0.155
450	0.155
451	0.155
451	0.155
452	0.155
452	0.155
452	0.155
453	0.155
453	0.155
454	0.155
454	0.155
455	0.155
455	0.155
456	0.155
456	0.155
457	0.155
457	0.155
458	0.155
458	0.155
458	0.156
459	0.156
459	0.156
460	0.156
460	0.155
461	0.155
461	0.156
462	0.156
462	0.156
463	0.157
463	0.157
463	0.157
464	0.158
464	0.158
465	0.158
465	0.158
466	0.158
466	0.158
467	0.159
467	0.158
467	0.158
468	0.157
468	0.157
469	0.157
469	0.157
470	0.157
470	0.157
471	0.157
471	0.157
472	0.157
472	0.158
472	0.158
473	0.159
473	0.159
474	0.16
474	0.16
475	0.161
475	0.162
476	0.162
476	0.163
477	0.163
477	0.164
477	0.164
478	0.164
478	0.165
479	0.165
479	0.166
480	0.166
480	0.167
481	0.168
481	0.168
482	0.169
482	0.17
482	0.171
483	0.172
483	0.174
484	0.175
484	0.176
485	0.177
485	0.178
486	0.178
486	0.179
487	0.18
487	0.18
487	0.181
488	0.181
488	0.181
489	0.181
489	0.182
490	0.182
490	0.183
491	0.183
491	0.185
492	0.186
492	0.186
492	0.187
493	0.188
493	0.189
494	0.191
494	0.192
495	0.194
495	0.195
496	0.196
496	0.197
496	0.198
497	0.199
497	0.2
498	0.202
498	0.202
499	0.203
499	0.205
500	0.206
500	0.208
501	0.209
501	0.211
501	0.212
502	0.213
502	0.215
503	0.216
503	0.218
504	0.219
504	0.219
505	0.221
505	0.222
506	0.223
506	0.224
506	0.225
507	0.226
507	0.227
508	0.228
508	0.229
509	0.23
509	0.232
510	0.233
510	0.234
511	0.235
511	0.236
511	0.237
512	0.238
512	0.239
513	0.239
513	0.239
514	0.24
514	0.241
515	0.242
515	0.242
515	0.242
516	0.242
516	0.244
517	0.244
517	0.245
518	0.245
518	0.245
519	0.245
519	0.245
520	0.245
520	0.245
520	0.244
521	0.244
521	0.243
522	0.242
522	0.242
523	0.242
523	0.242
524	0.242
524	0.242
524	0.243
525	0.243
525	0.244
526	0.245
526	0.245
527	0.246
527	0.246
528	0.246
528	0.247
529	0.246
529	0.246
529	0.246
530	0.245
530	0.245
531	0.244
531	0.243
532	0.242
532	0.241
533	0.24
533	0.239
533	0.238
534	0.237
534	0.236
535	0.235
535	0.234
536	0.233
536	0.231
537	0.23
537	0.229
538	0.228
538	0.226
538	0.225
539	0.224
539	0.223
540	0.221
540	0.22
541	0.218
541	0.217
542	0.215
542	0.213
542	0.212
543	0.21
543	0.208
544	0.207
544	0.205
545	0.204
545	0.203
546	0.202
546	0.2
547	0.199
547	0.197
547	0.196
548	0.194
548	0.193
549	0.192
549	0.19
550	0.189
550	0.187
551	0.185
551	0.183
551	0.182
552	0.18
552	0.179
553	0.178
553	0.176
554	0.175
554	0.172
555	0.17
555	0.168
556	0.166
556	0.164
556	0.161
557	0.159
557	0.157
558	0.155
558	0.153
559	0.151
559	0.149
560	0.148
560	0.146
560	0.145
561	0.144
561	0.144
562	0.143
562	0.141
563	0.14
563	0.138
564	0.136
564	0.135
564	0.134
565	0.132
565	0.131
566	0.129
566	0.128
567	0.127
567	0.126
568	0.126
568	0.125
568	0.125
569	0.124
569	0.124
570	0.123
570	0.122
571	0.122
571	0.122
572	0.121
572	0.12
573	0.119
573	0.118
573	0.117
574	0.116
574	0.115
575	0.114
575	0.115
576	0.114
576	0.113
577	0.111
577	0.11
577	0.11
578	0.109
578	0.109
579	0.109
579	0.109
580	0.107
580	0.105
581	0.102
581	0.101
581	0.101
582	0.101
582	0.1
583	0.1
583	0.099
584	0.097
584	0.094
585	0.094
585	0.094
585	0.094
586	0.094
586	0.093
587	0.092
587	0.09
588	0.088
588	0.087
589	0.087
589	0.087
590	0.086
590	0.086
590	0.087
591	0.087
591	0.087
592	0.086
592	0.086
593	0.086
593	0.086
594	0.085
594	0.085
594	0.084
595	0.083
595	0.082
596	0.082
596	0.083
597	0.085
597	0.085
598	0.085
598	0.085
598	0.085
599	0.085
599	0.085
600	0.084
600	0.083
601	0.083
601	0.082
602	0.08
602	0.08
602	0.079
603	0.078
603	0.079
604	0.079
604	0.079
605	0.08
605	0.081
606	0.081
606	0.08
606	0.079
607	0.079
607	0.079
608	0.079
608	0.078
609	0.077
609	0.077
610	0.077
610	0.076
610	0.076
611	0.077
611	0.079
612	0.08
612	0.081
613	0.082
613	0.084
614	0.084
614	0.084
614	0.084
615	0.084
615	0.085
616	0.085
616	0.085
617	0.084
617	0.084
618	0.084
618	0.083
618	0.083
619	0.084
619	0.084
620	0.086
620	0.086
621	0.087
621	0.087
622	0.087
622	0.088
622	0.088
623	0.088
623	0.089
624	0.089
624	0.089
625	0.089
625	0.09
626	0.09
626	0.09
626	0.091
627	0.092
627	0.092
628	0.093
628	0.093
629	0.094
629	0.094
630	0.093
630	0.093
630	0.094
631	0.095
631	0.095
632	0.095
632	0.095
633	0.096
633	0.097
634	0.098
634	0.1
634	0.101
635	0.102
635	0.103
636	0.104
636	0.105
637	0.106
637	0.106
638	0.107
638	0.108
638	0.109
639	0.109
639	0.11
640	0.111
640	0.111
641	0.112
641	0.113
642	0.115
642	0.117
642	0.118
643	0.119
643	0.121
644	0.122
644	0.124
645	0.126
645	0.128
646	0.13
646	0.132
646	0.135
647	0.137
647	0.139
648	0.141
648	0.143
649	0.145
649	0.148
650	0.15
650	0.153
650	0.155
651	0.157
651	0.159
652	0.161
652	0.162
653	0.164
653	0.171
653	0.174
654	0.139
654	0.113
655	0.115
655	0.116
656	0.118
656	0.119
657	0.121
657	0.122
657	0.124
658	0.122
658	0.117
659	0.148
659	0.19
660	0.197
660	0.199
661	0.201
661	0.203
661	0.206
662	0.208
662	0.211
663	0.213
663	0.215
664	0.217
664	0.219
665	0.221
665	0.224
665	0.226
666	0.228
666	0.23
667	0.232
667	0.234
668	0.236
668	0.238
669	0.24
669	0.242
669	0.245
670	0.247
670	0.248
671	0.25
671	0.251
672	0.253
672	0.254
672	0.256
673	0.257
673	0.259
674	0.26
674	0.261
675	0.263
675	0.265
676	0.267
676	0.269
676	0.271
677	0.273
677	0.275
678	0.276
678	0.277
679	0.278
679	0.279
680	0.281
680	0.282
680	0.283
681	0.284
681	0.284
682	0.285
682	0.286
683	0.287
683	0.288
684	0.289
684	0.289
684	0.289
685	0.289
685	0.29
686	0.29
686	0.29
687	0.289
687	0.289
687	0.289
688	0.288
688	0.288
689	0.289
689	0.289
690	0.289
690	0.289
691	0.289
691	0.289
691	0.289
692	0.289
692	0.288
693	0.288
693	0.288
694	0.287
694	0.285
695	0.285
695	0.286
695	0.285
696	0.283
696	0.283
697	0.282
697	0.281
698	0.28
698	0.278
698	0.277
699	0.276
699	0.273
700	0.271
700	0.269
701	0.268
701	0.266
702	0.264
702	0.262
702	0.26
703	0.258
703	0.256
704	0.254
704	0.253
705	0.252
705	0.251
705	0.25
706	0.249
706	0.248
707	0.247
707	0.245
708	0.244
708	0.243
709	0.242
709	0.24
709	0.238
710	0.236
710	0.235
711	0.233
711	0.231
712	0.229
712	0.227
713	0.225
713	0.223
713	0.221
714	0.218
714	0.216
715	0.214
715	0.211
716	0.208
716	0.206
716	0.204
717	0.202
717	0.2
718	0.197
718	0.195
719	0.193
719	0.191
720	0.189
720	0.187
720	0.185
721	0.183
721	0.181
722	0.179
722	0.177
723	0.175
723	0.173
723	0.172
724	0.17
724	0.168
725	0.166
725	0.164
726	0.163
726	0.161
727	0.16
727	0.158
727	0.157
728	0.155
728	0.153
729	0.152
729	0.151
730	0.149
730	0.147
730	0.146
731	0.144
731	0.143
732	0.142
732	0.141
733	0.139
733	0.138
734	0.137
734	0.136
734	0.135
735	0.135
735	0.134
736	0.133
736	0.131
737	0.13
737	0.129
737	0.128
738	0.126
738	0.123
739	0.121
739	0.12
740	0.118
740	0.116
741	0.115
741	0.114
741	0.112
742	0.11
742	0.109
743	0.108
743	0.107
744	0.106
744	0.105
744	0.104
745	0.102
745	0.1
746	0.099
746	0.097
747	0.096
747	0.095
748	0.094
748	0.092
748	0.091
749	0.089
749	0.088
750	0.088
750	0.087
751	0.086
751	0.086
751	0.086
752	0.085
752	0.084
753	0.084
753	0.084
754	0.084
754	0.083
754	0.083
755	0.083
755	0.083
756	0.082
756	0.081
757	0.08
757	0.08
758	0.08
758	0.079
758	0.079
759	0.079
759	0.077
760	0.076
760	0.075
761	0.074
761	0.073
761	0.072
762	0.071
762	0.07
763	0.068
763	0.066
764	0.064
764	0.062
764	0.061
765	0.059
765	0.058
766	0.057
766	0.056
767	0.055
767	0.053
768	0.051
768	0.05
768	0.049
769	0.048
769	0.047
770	0.045
770	0.044
771	0.042
771	0.04
771	0.038
772	0.036
772	0.035
773	0.033
773	0.031
774	0.029
774	0.027
775	0.026
775	0.025
775	0.023
776	0.021
776	0.02
777	0.019
777	0.018
778	0.016
778	0.014
778	0.012
779	0.011
779	0.01
780	0.008
780	0.006
781	0.003
781	0.001
781	-0.002
782	-0.005
782	-0.009
783	-0.013
783	-0.016
784	-0.02
784	-0.024
784	-0.029
785	-0.033
785	-0.038
786	-0.042
786	-0.046
787	-0.049
787	-0.052
788	-0.057
788	-0.063
788	-0.069
789	-0.076
789	-0.082
790	-0.086
790	-0.092
791	-0.098
791	-0.104
791	-0.108
792	-0.105
792	-0.098
793	-0.095
793	-0.094
794	-0.094
794	-0.096
794	-0.1
795	-0.103
795	-0.103
796	-0.104
796	-0.106
797	-0.115
797	-0.126
797	-0.133
798	-0.138
798	-0.141
799	-0.142
799	-0.141
800	-0.141
800	-0.142
801	-0.145
801	-0.146
801	-0.146
802	-0.147
802	-0.148
803	-0.148
803	-0.148
804	-0.147
804	-0.142
804	-0.136
805	-0.132
805	-0.13
806	-0.128
806	-0.128
807	-0.127
807	-0.127
807	-0.128
808	-0.128
808	-0.129
809	-0.134
809	-0.14
810	-0.143
810	-0.146
810	-0.149
811	-0.152
811	-0.153
812	-0.149
812	-0.146
813	-0.146
813	-0.147
813	-0.148
814	-0.148
814	-0.146
815	-0.141
815	-0.135
816	-0.129
816	-0.123
817	-0.12
817	-0.115
817	-0.107
818	-0.096
818	-0.083
819	-0.072
819	-0.062
820	-0.055
820	-0.048
820	-0.041
821	-0.035
821	-0.029
822	-0.024
822	-0.019
823	-0.014
823	-0.011
823	-0.008
824	-0.005
824	-0.001
825	0.002
825	0.006
826	0.009
826	0.011
826	0.013
827	0.016
827	0.017
828	0.019
828	0.02
829	0.022
829	0.023
829	0.023
830	0.024
830	0.024
831	0.025
831	0.026
832	0.026
832	0.027
832	0.027
833	0.028
833	0.028
834	0.028
834	0.029
835	0.029
835	0.029
835	0.028
836	0.028
836	0.028
837	0.029
837	0.029
838	0.03
838	0.03
839	0.03
839	0.03
839	0.03
840	0.03
840	0.03
841	0.03
841	0.03
842	0.03
842	0.03
842	0.029
843	0.029
843	0.029
844	0.03
844	0.03
845	0.03
845	0.03
845	0.03
846	0.03
846	0.03
847	0.03
847	0.031
848	0.031
848	0.031
848	0.031
849	0.032
849	0.032
850	0.032
850	0.032
851	0.033
851	0.033
851	0.033
852	0.032
852	0.032
853	0.032
853	0.032
854	0.032
854	0.032
854	0.032
855	0.032
855	0.031
856	0.031
856	0.031
857	0.03
857	0.03
857	0.03
858	0.031
858	0.031
859	0.031
859	0.031
860	0.032
860	0.033
860	0.034
861	0.035
861	0.036
862	0.036
862	0.037
863	0.037
863	0.037
863	0.037
864	0.037
864	0.037
865	0.037
865	0.037
866	0.037
866	0.037
866	0.037
867	0.038
867	0.038
868	0.038
868	0.038
869	0.038
869	0.037
869	0.036
870	0.035
870	0.034
871	0.034
871	0.033
872	0.033
872	0.033
872	0.033
873	0.034
873	0.034
874	0.035
874	0.035
875	0.035
875	0.035
875	0.035
876	0.035
876	0.034
877	0.033
877	0.032
878	0.031
878	0.031
878	0.03
879	0.03
879	0.029
880	0.029
880	0.029
881	0.029
881	0.029
881	0.029
882	0.029
882	0.029
883	0.029
883	0.029
884	0.028
884	0.028
884	0.027
885	0.027
885	0.027
886	0.027
886	0.026
887	0.026
887	0.026
887	0.027
888	0.027
888	0.028
889	0.029
889	0.03
890	0.031
890	0.031
890	0.032
891	0.032
891	0.033
892	0.033
892	0.034
893	0.034
893	0.034
893	0.034
894	0.034
894	0.034
895	0.033
895	0.032
895	0.031
896	0.03
896	0.029
897	0.028
897	0.028
898	0.027
898	0.026
898	0.026
899	0.025
899	0.025
900	0.025
900	0.025
901	0.025
901	0.025
901	0.025
902	0.025
902	0.025
903	0.025
903	0.026
904	0.026
904	0.027
904	0.028
905	0.029
905	0.03
906	0.03
906	0.031
907	0.031
907	0.032
907	0.032
908	0.033
908	0.033
909	0.034
909	0.035
910	0.035
910	0.036
910	0.036
911	0.036
911	0.036
912	0.036
912	0.036
913	0.036
913	0.036
913	0.035
914	0.034
914	0.034
915	0.033
915	0.032
916	0.031
916	0.03
916	0.028
917	0.027
917	0.025
918	0.023
918	0.022
918	0.02
919	0.019
919	0.018
920	0.017
920	0.016
921	0.016
921	0.016
921	0.016
922	0.017
922	0.017
923	0.018
923	0.019
924	0.019
924	0.02
924	0.021
925	0.021
925	0.022
926	0.023
926	0.023
927	0.024
927	0.024
927	0.024
928	0.024
928	0.023
929	0.023
929	0.022
930	0.022
930	0.021
930	0.02
931	0.02
931	0.019
932	0.019
932	0.019
933	0.019
933	0.018
933	0.018
934	0.018
934	0.017
935	0.017
935	0.017
935	0.016
936	0.016
936	0.015
937	0.015
937	0.014
938	0.014
938	0.014
938	0.014
939	0.014
939	0.015
940	0.015
940	0.016
941	0.017
941	0.018
941	0.019
942	0.02
942	0.021
943	0.022
943	0.023
944	0.023
944	0.024
944	0.024
945	0.025
945	0.025
946	0.025
946	0.026
946	0.026
947	0.026
947	0.027
948	0.027
948	0.028
949	0.028
949	0.028
949	0.028
950	0.028
950	0.028
951	0.028
951	0.027
952	0.027
952	0.026
952	0.026
953	0.025
953	0.025
954	0.025
954	0.024
955	0.025
955	0.025
955	0.025
956	0.025
956	0.025
957	0.025
957	0.025
957	0.025
958	0.025
958	0.025
959	0.025
959	0.026
960	0.026
960	0.026
960	0.026
961	0.026
961	0.026
962	0.027
962	0.027
963	0.028
963	0.028
963	0.028
964	0.029
964	0.029
965	0.029
965	0.029
966	0.03
966	0.03
966	0.029
967	0.029
967	0.028
968	0.027
968	0.026
968	0.026
969	0.025
969	0.024
970	0.023
970	0.022
971	0.021
971	0.021
971	0.021
972	0.021
972	0.02
973	0.02
973	0.021
974	0.021
974	0.021
974	0.022
975	0.023
975	0.024
976	0.025
976	0.026
976	0.027
977	0.027
977	0.028
978	0.028
978	0.028
979	0.028
979	0.028
979	0.028
980	0.027
980	0.026
981	0.025
981	0.024
982	0.023
982	0.022
982	0.021
983	0.02
983	0.019
984	0.018
984	0.017
984	0.016
985	0.016
985	0.015
986	0.014
986	0.013
987	0.012
987	0.012
987	0.012
988	0.012
988	0.012
989	0.012
989	0.012
990	0.013
990	0.014
990	0.015
991	0.016
991	0.017
992	0.019
992	0.02
992	0.021
993	0.022
993	0.022
994	0.023
994	0.023
995	0.023
995	0.023
995	0.022
996	0.021
996	0.02
997	0.02
997	0.019
997	0.018
998	0.018
998	0.018
999	0.018
999	0.019
1000	0.019
1000	0.019
1000	0.02
1001	0.021
1001	0.022
1002	0.023
1002	0.023
1003	0.024
1003	0.024
1003	0.024
1004	0.024
1004	0.024
1005	0.024
1005	0.024
1005	0.023
1006	0.023
1006	0.023
1007	0.023
1007	0.022
1008	0.022
1008	0.022
1008	0.022
1009	0.022
1009	0.022
1010	0.022
1010	0.022
1010	0.022
1011	0.022
1011	0.022
1012	0.021
1012	0.021
1013	0.02
1013	0.02
1013	0.019
1014	0.018
1014	0.017
1015	0.016
1015	0.016
1016	0.015
1016	0.014
1016	0.013
1017	0.013
1017	0.012
1018	0.011
1018	0.01
1018	0.01
1019	0.01
1019	0.01
1020	0.009
1020	0.009
1021	0.009
1021	0.009
1021	0.009
1022	0.01
1022	0.01
1023	0.011
1023	0.011
1023	0.011
1024	0.011
1024	0.011
1025	0.011
1025	0.011
1026	0.011
1026	0.01
1026	0.01
1027	0.009
1027	0.009
1028	0.008
1028	0.008
1028	0.008
1029	0.007
1029	0.007
1030	0.006
1030	0.006
1031	0.006
1031	0.006
1031	0.006
1032	0.006
1032	0.006
1033	0.006
1033	0.006
1033	0.006
1034	0.005
1034	0.005
1035	0.005
1035	0.004
1036	0.004
1036	0.004
1036	0.004
1037	0.004
1037	0.004
1038	0.004
1038	0.004
1039	0.005
1039	0.006
1039	0.007
1040	0.007
1040	0.009
1041	0.01
1041	0.01
1041	0.011
1042	0.012
1042	0.013
1043	0.013
1043	0.014
1044	0.014
1044	0.015
1044	0.015
1045	0.015
1045	0.015
1046	0.015
1046	0.015
1046	0.014
1047	0.014
1047	0.014
1048	0.014
1048	0.014
1049	0.014
1049	0.013
1049	0.012
1050	0.011
1050	0.011
1051	0.01
1051	0.01
1051	0.009
1052	0.008
1052	0.007
1053	0.007
1053	0.006
1053	0.006
1054	0.005
1054	0.004
1055	0.004
1055	0.003
1056	0.002
1056	0.001
1056	0.001
1057	-0
1057	-0.001
1058	-0.002
1058	-0.002
1058	-0.003
1059	-0.003
1059	-0.003
1060	-0.003
1060	-0.003
1061	-0.003
1061	-0.002
1061	-0.002
1062	-0.002
1062	-0.002
1063	-0.002
1063	-0.002
1063	-0.002
1064	-0.002
1064	-0.001
1065	-0.001
1065	-0.001
1066	-0.001
1066	-0.001
1066	0
1067	0
1067	0.001
1068	0.001
1068	0.001
1068	0
1069	-0
1069	-0.001
1070	-0.002
1070	-0.002
1071	-0.003
1071	-0.004
1071	-0.005
1072	-0.006
1072	-0.007
1073	-0.008
1073	-0.008
1073	-0.01
1074	-0.01
1074	-0.011
1075	-0.012
1075	-0.013
1076	-0.014
1076	-0.014
1076	-0.015
1077	-0.015
1077	-0.015
1078	-0.016
1078	-0.016
1078	-0.015
1079	-0.015
1079	-0.015
1080	-0.014
1080	-0.013
1080	-0.013
1081	-0.013
1081	-0.012
1082	-0.012
1082	-0.012
1083	-0.011
1083	-0.011
1083	-0.011
1084	-0.01
1084	-0.01
1085	-0.01
1085	-0.009
1085	-0.009
1086	-0.008
1086	-0.009
1087	-0.008
1087	-0.008
1088	-0.008
1088	-0.009
1088	-0.009
1089	-0.01
1089	-0.01
1090	-0.011
1090	-0.011
1090	-0.012
1091	-0.012
1091	-0.012
1092	-0.013
1092	-0.012
1092	-0.012
1093	-0.012
1093	-0.011
1094	-0.011
1094	-0.01
1095	-0.011
1095	-0.011
1095	-0.009
1096	-0.009
1096	-0.008
1097	-0.007
1097	-0.007
1097	-0.006
1098	-0.005
1098	-0.004
1099	-0.002
1099	0
1100	0.001
1100	0.002
1100	0.003
1101	0.004
1101	0.005
1102	0.006
1102	0.007
1102	0.008
1103	0.009
1103	0.011
1104	0.013
1104	0.016
1104	0.02
1105	0.023
1105	0.025
1106	0.027
1106	0.03
1107	0.032
1107	0.036
1107	0.042
1108	0.064
1108	0.091
1109	0.129
1109	0.183
1109	0.22
1110	0.287
1110	0.405
1111	0.766
1111	-0
