Data from 17c-2a_Absorbance__1969__01970.txt Node

Date: Fri Jan 26 10:53:08 CET 2024
User: Marek
Spectrometer: MAYP115816
Trigger mode: 0
Integration Time (sec): 2.000000E-1
Scans to average: 10
Electric dark correction enabled: true
Nonlinearity correction enabled: true
Boxcar width: 5
XAxis mode: Wavelengths
Number of Pixels in Spectrum: 2068
>>>>>Begin Spectral Data<<<<<
199	-1.496
199	-1.359
200	-1.211
200	-1.101
201	-1.031
201	-0.988
202	-0.923
202	-0.873
203	-0.832
203	-0.796
204	-0.77
204	-0.747
205	-0.726
205	-0.717
205	-0.714
206	-0.71
206	-0.706
207	-0.703
207	-0.703
208	-0.702
208	-0.7
209	-0.697
209	-0.695
210	-0.695
210	-0.696
211	-0.697
211	-0.698
212	-0.699
212	-0.698
213	-0.696
213	-0.693
213	-0.693
214	-0.691
214	-0.689
215	-0.685
215	-0.683
216	-0.68
216	-0.679
217	-0.675
217	-0.673
218	-0.67
218	-0.668
219	-0.663
219	-0.662
220	-0.661
220	-0.662
221	-0.66
221	-0.658
221	-0.653
222	-0.649
222	-0.646
223	-0.642
223	-0.638
224	-0.634
224	-0.626
225	-0.62
225	-0.613
226	-0.604
226	-0.593
227	-0.583
227	-0.573
228	-0.556
228	-0.54
229	-0.52
229	-0.498
229	-0.475
230	-0.446
230	-0.416
231	-0.384
231	-0.35
232	-0.315
232	-0.276
233	-0.237
233	-0.196
234	-0.157
234	-0.118
235	-0.08
235	-0.044
236	-0.008
236	0.025
236	0.057
237	0.087
237	0.114
238	0.139
238	0.162
239	0.183
239	0.202
240	0.221
240	0.236
241	0.25
241	0.263
242	0.275
242	0.286
243	0.296
243	0.305
243	0.312
244	0.32
244	0.326
245	0.332
245	0.338
246	0.343
246	0.348
247	0.353
247	0.357
248	0.361
248	0.366
249	0.369
249	0.373
250	0.376
250	0.379
250	0.383
251	0.385
251	0.388
252	0.391
252	0.393
253	0.396
253	0.397
254	0.399
254	0.401
255	0.403
255	0.405
256	0.406
256	0.407
257	0.409
257	0.41
258	0.41
258	0.411
258	0.412
259	0.413
259	0.413
260	0.413
260	0.413
261	0.414
261	0.414
262	0.414
262	0.414
263	0.414
263	0.414
264	0.413
264	0.413
265	0.412
265	0.412
265	0.411
266	0.41
266	0.409
267	0.407
267	0.406
268	0.405
268	0.403
269	0.402
269	0.4
270	0.398
270	0.397
271	0.395
271	0.393
272	0.391
272	0.389
272	0.388
273	0.385
273	0.383
274	0.381
274	0.379
275	0.377
275	0.375
276	0.373
276	0.37
277	0.368
277	0.366
278	0.363
278	0.361
278	0.359
279	0.356
279	0.354
280	0.351
280	0.349
281	0.347
281	0.344
282	0.342
282	0.34
283	0.338
283	0.336
284	0.334
284	0.333
285	0.331
285	0.329
285	0.327
286	0.325
286	0.323
287	0.321
287	0.319
288	0.318
288	0.316
289	0.314
289	0.312
290	0.311
290	0.309
291	0.308
291	0.307
292	0.305
292	0.304
292	0.302
293	0.301
293	0.3
294	0.298
294	0.297
295	0.296
295	0.295
296	0.294
296	0.293
297	0.292
297	0.291
298	0.29
298	0.289
298	0.288
299	0.287
299	0.286
300	0.285
300	0.285
301	0.284
301	0.283
302	0.282
302	0.282
303	0.281
303	0.28
304	0.279
304	0.279
305	0.278
305	0.277
305	0.276
306	0.276
306	0.275
307	0.274
307	0.273
308	0.272
308	0.272
309	0.271
309	0.27
310	0.269
310	0.269
311	0.268
311	0.267
311	0.267
312	0.266
312	0.265
313	0.265
313	0.264
314	0.263
314	0.263
315	0.262
315	0.261
316	0.26
316	0.26
317	0.259
317	0.258
318	0.258
318	0.257
318	0.256
319	0.256
319	0.255
320	0.254
320	0.254
321	0.253
321	0.252
322	0.251
322	0.25
323	0.25
323	0.249
324	0.248
324	0.247
324	0.247
325	0.246
325	0.245
326	0.245
326	0.244
327	0.243
327	0.243
328	0.242
328	0.241
329	0.241
329	0.24
330	0.239
330	0.239
330	0.238
331	0.238
331	0.237
332	0.236
332	0.236
333	0.235
333	0.235
334	0.235
334	0.234
335	0.233
335	0.233
336	0.232
336	0.232
336	0.231
337	0.231
337	0.23
338	0.23
338	0.229
339	0.228
339	0.228
340	0.227
340	0.227
341	0.226
341	0.226
342	0.225
342	0.225
342	0.225
343	0.224
343	0.224
344	0.223
344	0.223
345	0.223
345	0.222
346	0.222
346	0.222
347	0.221
347	0.221
348	0.221
348	0.22
348	0.22
349	0.219
349	0.219
350	0.219
350	0.218
351	0.218
351	0.218
352	0.217
352	0.217
353	0.217
353	0.217
354	0.216
354	0.216
354	0.216
355	0.215
355	0.215
356	0.215
356	0.214
357	0.214
357	0.214
358	0.214
358	0.214
359	0.214
359	0.214
360	0.214
360	0.214
360	0.214
361	0.214
361	0.214
362	0.214
362	0.214
363	0.214
363	0.214
364	0.213
364	0.213
365	0.213
365	0.213
366	0.213
366	0.213
366	0.213
367	0.213
367	0.213
368	0.212
368	0.212
369	0.212
369	0.212
370	0.211
370	0.211
371	0.211
371	0.21
372	0.21
372	0.21
372	0.21
373	0.21
373	0.21
374	0.21
374	0.21
375	0.21
375	0.21
376	0.21
376	0.21
377	0.21
377	0.21
378	0.21
378	0.21
378	0.21
379	0.21
379	0.209
380	0.209
380	0.209
381	0.209
381	0.209
382	0.209
382	0.208
383	0.208
383	0.208
383	0.207
384	0.207
384	0.207
385	0.207
385	0.207
386	0.206
386	0.206
387	0.206
387	0.206
388	0.206
388	0.205
389	0.205
389	0.205
389	0.205
390	0.205
390	0.205
391	0.205
391	0.205
392	0.205
392	0.205
393	0.205
393	0.205
394	0.205
394	0.205
394	0.204
395	0.204
395	0.204
396	0.204
396	0.204
397	0.203
397	0.203
398	0.203
398	0.203
399	0.203
399	0.202
400	0.202
400	0.202
400	0.202
401	0.201
401	0.201
402	0.201
402	0.2
403	0.2
403	0.2
404	0.2
404	0.2
405	0.2
405	0.199
405	0.199
406	0.199
406	0.199
407	0.199
407	0.199
408	0.199
408	0.198
409	0.198
409	0.198
410	0.198
410	0.198
411	0.198
411	0.197
411	0.197
412	0.197
412	0.197
413	0.197
413	0.197
414	0.197
414	0.196
415	0.196
415	0.196
416	0.196
416	0.196
416	0.195
417	0.195
417	0.195
418	0.195
418	0.195
419	0.196
419	0.196
420	0.196
420	0.196
421	0.196
421	0.196
421	0.196
422	0.197
422	0.197
423	0.197
423	0.196
424	0.196
424	0.196
425	0.195
425	0.195
426	0.195
426	0.195
427	0.195
427	0.195
427	0.195
428	0.195
428	0.195
429	0.195
429	0.195
430	0.195
430	0.195
431	0.195
431	0.194
432	0.194
432	0.194
432	0.193
433	0.193
433	0.193
434	0.193
434	0.193
435	0.193
435	0.193
436	0.193
436	0.194
437	0.194
437	0.193
437	0.194
438	0.193
438	0.193
439	0.193
439	0.193
440	0.192
440	0.192
441	0.192
441	0.192
442	0.192
442	0.192
442	0.192
443	0.192
443	0.192
444	0.193
444	0.193
445	0.193
445	0.193
446	0.193
446	0.193
447	0.193
447	0.193
447	0.193
448	0.193
448	0.193
449	0.193
449	0.192
450	0.193
450	0.193
451	0.193
451	0.193
452	0.192
452	0.192
452	0.192
453	0.192
453	0.192
454	0.191
454	0.192
455	0.192
455	0.192
456	0.192
456	0.192
457	0.192
457	0.192
458	0.192
458	0.192
458	0.193
459	0.193
459	0.193
460	0.192
460	0.192
461	0.192
461	0.192
462	0.193
462	0.193
463	0.193
463	0.194
463	0.194
464	0.194
464	0.195
465	0.195
465	0.195
466	0.195
466	0.196
467	0.196
467	0.195
467	0.195
468	0.195
468	0.194
469	0.194
469	0.194
470	0.194
470	0.194
471	0.194
471	0.194
472	0.194
472	0.195
472	0.195
473	0.196
473	0.197
474	0.197
474	0.198
475	0.199
475	0.2
476	0.2
476	0.201
477	0.201
477	0.202
477	0.202
478	0.203
478	0.203
479	0.204
479	0.205
480	0.206
480	0.206
481	0.207
481	0.208
482	0.209
482	0.209
482	0.211
483	0.212
483	0.214
484	0.216
484	0.217
485	0.218
485	0.219
486	0.22
486	0.221
487	0.222
487	0.223
487	0.223
488	0.223
488	0.223
489	0.223
489	0.224
490	0.225
490	0.225
491	0.226
491	0.227
492	0.228
492	0.229
492	0.23
493	0.231
493	0.233
494	0.235
494	0.236
495	0.238
495	0.239
496	0.241
496	0.242
496	0.244
497	0.245
497	0.246
498	0.248
498	0.249
499	0.25
499	0.252
500	0.253
500	0.255
501	0.257
501	0.259
501	0.26
502	0.262
502	0.263
503	0.265
503	0.267
504	0.268
504	0.269
505	0.27
505	0.272
506	0.273
506	0.274
506	0.275
507	0.276
507	0.278
508	0.279
508	0.281
509	0.282
509	0.284
510	0.285
510	0.287
511	0.288
511	0.289
511	0.29
512	0.292
512	0.292
513	0.293
513	0.293
514	0.293
514	0.294
515	0.294
515	0.295
515	0.295
516	0.296
516	0.297
517	0.298
517	0.298
518	0.299
518	0.299
519	0.299
519	0.298
520	0.298
520	0.298
520	0.297
521	0.296
521	0.295
522	0.294
522	0.294
523	0.294
523	0.295
524	0.295
524	0.296
524	0.297
525	0.298
525	0.299
526	0.299
526	0.3
527	0.301
527	0.301
528	0.301
528	0.301
529	0.301
529	0.3
529	0.3
530	0.299
530	0.299
531	0.298
531	0.297
532	0.296
532	0.295
533	0.294
533	0.292
533	0.291
534	0.29
534	0.288
535	0.287
535	0.286
536	0.285
536	0.283
537	0.282
537	0.281
538	0.279
538	0.277
538	0.276
539	0.274
539	0.273
540	0.271
540	0.269
541	0.267
541	0.265
542	0.263
542	0.261
542	0.259
543	0.257
543	0.255
544	0.253
544	0.251
545	0.25
545	0.248
546	0.247
546	0.245
547	0.243
547	0.241
547	0.239
548	0.237
548	0.235
549	0.233
549	0.231
550	0.229
550	0.227
551	0.224
551	0.222
551	0.22
552	0.218
552	0.216
553	0.214
553	0.213
554	0.211
554	0.209
555	0.206
555	0.204
556	0.201
556	0.198
556	0.195
557	0.193
557	0.19
558	0.188
558	0.185
559	0.183
559	0.18
560	0.178
560	0.177
560	0.175
561	0.174
561	0.173
562	0.172
562	0.17
563	0.168
563	0.167
564	0.165
564	0.163
564	0.161
565	0.16
565	0.158
566	0.156
566	0.154
567	0.153
567	0.152
568	0.151
568	0.15
568	0.149
569	0.149
569	0.149
570	0.148
570	0.146
571	0.146
571	0.146
572	0.145
572	0.144
573	0.143
573	0.142
573	0.14
574	0.139
574	0.138
575	0.137
575	0.137
576	0.137
576	0.135
577	0.133
577	0.132
577	0.131
578	0.13
578	0.13
579	0.13
579	0.13
580	0.128
580	0.125
581	0.122
581	0.121
581	0.12
582	0.12
582	0.12
583	0.12
583	0.118
584	0.115
584	0.112
585	0.112
585	0.112
585	0.112
586	0.112
586	0.111
587	0.109
587	0.107
588	0.105
588	0.104
589	0.103
589	0.102
590	0.102
590	0.101
590	0.102
591	0.102
591	0.101
592	0.101
592	0.1
593	0.1
593	0.1
594	0.099
594	0.099
594	0.098
595	0.098
595	0.096
596	0.095
596	0.096
597	0.098
597	0.099
598	0.099
598	0.099
598	0.099
599	0.099
599	0.099
600	0.098
600	0.097
601	0.096
601	0.095
602	0.094
602	0.093
602	0.092
603	0.091
603	0.092
604	0.092
604	0.093
605	0.093
605	0.094
606	0.094
606	0.093
606	0.092
607	0.092
607	0.092
608	0.091
608	0.09
609	0.089
609	0.089
610	0.088
610	0.088
610	0.088
611	0.089
611	0.09
612	0.092
612	0.093
613	0.094
613	0.096
614	0.096
614	0.096
614	0.097
615	0.097
615	0.097
616	0.097
616	0.097
617	0.097
617	0.097
618	0.096
618	0.096
618	0.095
619	0.096
619	0.096
620	0.097
620	0.098
621	0.098
621	0.098
622	0.098
622	0.099
622	0.099
623	0.099
623	0.1
624	0.1
624	0.1
625	0.1
625	0.101
626	0.101
626	0.102
626	0.103
627	0.104
627	0.105
628	0.105
628	0.106
629	0.106
629	0.106
630	0.106
630	0.106
630	0.107
631	0.108
631	0.108
632	0.108
632	0.108
633	0.109
633	0.11
634	0.112
634	0.114
634	0.116
635	0.117
635	0.118
636	0.119
636	0.12
637	0.121
637	0.122
638	0.123
638	0.124
638	0.125
639	0.126
639	0.126
640	0.128
640	0.129
641	0.131
641	0.132
642	0.134
642	0.136
642	0.138
643	0.139
643	0.141
644	0.143
644	0.145
645	0.147
645	0.149
646	0.151
646	0.153
646	0.156
647	0.159
647	0.162
648	0.164
648	0.167
649	0.17
649	0.173
650	0.176
650	0.179
650	0.181
651	0.184
651	0.186
652	0.188
652	0.189
653	0.192
653	0.199
653	0.205
654	0.163
654	0.132
655	0.134
655	0.135
656	0.137
656	0.139
657	0.141
657	0.143
657	0.144
658	0.142
658	0.135
659	0.172
659	0.223
660	0.231
660	0.234
661	0.236
661	0.239
661	0.242
662	0.244
662	0.247
663	0.25
663	0.253
664	0.255
664	0.257
665	0.26
665	0.262
665	0.265
666	0.268
666	0.27
667	0.272
667	0.275
668	0.277
668	0.28
669	0.282
669	0.285
669	0.289
670	0.291
670	0.294
671	0.295
671	0.297
672	0.299
672	0.301
672	0.302
673	0.304
673	0.306
674	0.307
674	0.309
675	0.31
675	0.312
676	0.314
676	0.317
676	0.318
677	0.32
677	0.322
678	0.324
678	0.325
679	0.326
679	0.327
680	0.329
680	0.33
680	0.331
681	0.332
681	0.333
682	0.334
682	0.335
683	0.337
683	0.338
684	0.339
684	0.34
684	0.34
685	0.34
685	0.341
686	0.341
686	0.341
687	0.34
687	0.34
687	0.339
688	0.338
688	0.338
689	0.339
689	0.34
690	0.34
690	0.34
691	0.34
691	0.34
691	0.34
692	0.339
692	0.339
693	0.338
693	0.338
694	0.336
694	0.334
695	0.334
695	0.334
695	0.333
696	0.332
696	0.33
697	0.33
697	0.329
698	0.327
698	0.326
698	0.324
699	0.323
699	0.32
700	0.317
700	0.315
701	0.313
701	0.31
702	0.308
702	0.306
702	0.303
703	0.301
703	0.298
704	0.296
704	0.295
705	0.294
705	0.293
705	0.292
706	0.29
706	0.289
707	0.288
707	0.286
708	0.285
708	0.284
709	0.282
709	0.28
709	0.278
710	0.275
710	0.273
711	0.271
711	0.269
712	0.266
712	0.264
713	0.262
713	0.26
713	0.258
714	0.255
714	0.252
715	0.25
715	0.247
716	0.243
716	0.241
716	0.238
717	0.235
717	0.232
718	0.229
718	0.226
719	0.224
719	0.222
720	0.22
720	0.217
720	0.215
721	0.212
721	0.21
722	0.208
722	0.205
723	0.203
723	0.202
723	0.199
724	0.197
724	0.195
725	0.193
725	0.191
726	0.189
726	0.187
727	0.184
727	0.183
727	0.181
728	0.179
728	0.177
729	0.176
729	0.174
730	0.172
730	0.17
730	0.168
731	0.166
731	0.165
732	0.164
732	0.163
733	0.161
733	0.16
734	0.158
734	0.157
734	0.156
735	0.155
735	0.154
736	0.152
736	0.151
737	0.149
737	0.147
737	0.145
738	0.143
738	0.14
739	0.138
739	0.135
740	0.133
740	0.131
741	0.13
741	0.129
741	0.127
742	0.124
742	0.123
743	0.122
743	0.121
744	0.119
744	0.118
744	0.116
745	0.114
745	0.112
746	0.11
746	0.109
747	0.108
747	0.107
748	0.105
748	0.104
748	0.103
749	0.101
749	0.1
750	0.099
750	0.098
751	0.098
751	0.097
751	0.097
752	0.096
752	0.095
753	0.094
753	0.093
754	0.092
754	0.091
754	0.091
755	0.091
755	0.09
756	0.089
756	0.087
757	0.087
757	0.087
758	0.087
758	0.086
758	0.087
759	0.086
759	0.085
760	0.083
760	0.082
761	0.08
761	0.079
761	0.078
762	0.076
762	0.074
763	0.073
763	0.07
764	0.067
764	0.065
764	0.063
765	0.061
765	0.059
766	0.058
766	0.057
767	0.056
767	0.054
768	0.052
768	0.051
768	0.05
769	0.049
769	0.049
770	0.048
770	0.046
771	0.044
771	0.042
771	0.04
772	0.038
772	0.037
773	0.035
773	0.032
774	0.03
774	0.028
775	0.026
775	0.024
775	0.022
776	0.02
776	0.018
777	0.016
777	0.014
778	0.011
778	0.008
778	0.006
779	0.004
779	0.002
780	-0.001
780	-0.003
781	-0.006
781	-0.01
781	-0.013
782	-0.017
782	-0.022
783	-0.026
783	-0.03
784	-0.035
784	-0.04
784	-0.045
785	-0.051
785	-0.056
786	-0.061
786	-0.065
787	-0.068
787	-0.072
788	-0.078
788	-0.085
788	-0.091
789	-0.098
789	-0.103
790	-0.105
790	-0.108
791	-0.113
791	-0.116
791	-0.119
792	-0.114
792	-0.104
793	-0.099
793	-0.095
794	-0.093
794	-0.096
794	-0.1
795	-0.102
795	-0.103
796	-0.103
796	-0.106
797	-0.114
797	-0.126
797	-0.132
798	-0.138
798	-0.141
799	-0.142
799	-0.141
800	-0.14
800	-0.142
801	-0.145
801	-0.145
801	-0.145
802	-0.146
802	-0.147
803	-0.148
803	-0.148
804	-0.147
804	-0.142
804	-0.135
805	-0.131
805	-0.13
806	-0.128
806	-0.127
807	-0.127
807	-0.127
807	-0.127
808	-0.127
808	-0.128
809	-0.133
809	-0.139
810	-0.143
810	-0.145
810	-0.149
811	-0.152
811	-0.152
812	-0.148
812	-0.145
813	-0.145
813	-0.146
813	-0.147
814	-0.148
814	-0.149
815	-0.147
815	-0.144
816	-0.141
816	-0.138
817	-0.138
817	-0.135
817	-0.129
818	-0.12
818	-0.11
819	-0.099
819	-0.089
820	-0.08
820	-0.071
820	-0.062
821	-0.054
821	-0.047
822	-0.04
822	-0.034
823	-0.028
823	-0.025
823	-0.021
824	-0.017
824	-0.013
825	-0.009
825	-0.005
826	-0.001
826	0.002
826	0.004
827	0.007
827	0.009
828	0.01
828	0.012
829	0.014
829	0.015
829	0.016
830	0.016
830	0.017
831	0.019
831	0.02
832	0.021
832	0.022
832	0.023
833	0.023
833	0.024
834	0.024
834	0.024
835	0.025
835	0.025
835	0.024
836	0.025
836	0.025
837	0.025
837	0.026
838	0.026
838	0.027
839	0.027
839	0.027
839	0.026
840	0.026
840	0.026
841	0.026
841	0.025
842	0.025
842	0.024
842	0.024
843	0.023
843	0.023
844	0.023
844	0.023
845	0.023
845	0.023
845	0.023
846	0.024
846	0.024
847	0.024
847	0.025
848	0.026
848	0.026
848	0.027
849	0.028
849	0.029
850	0.029
850	0.029
851	0.03
851	0.03
851	0.03
852	0.029
852	0.029
853	0.029
853	0.028
854	0.028
854	0.028
854	0.028
855	0.028
855	0.027
856	0.027
856	0.027
857	0.027
857	0.027
857	0.027
858	0.027
858	0.026
859	0.026
859	0.027
860	0.027
860	0.028
860	0.029
861	0.029
861	0.03
862	0.031
862	0.031
863	0.032
863	0.032
863	0.032
864	0.032
864	0.032
865	0.032
865	0.032
866	0.032
866	0.032
866	0.032
867	0.033
867	0.033
868	0.033
868	0.033
869	0.033
869	0.033
869	0.032
870	0.031
870	0.031
871	0.031
871	0.03
872	0.03
872	0.03
872	0.03
873	0.031
873	0.031
874	0.031
874	0.032
875	0.032
875	0.032
875	0.031
876	0.031
876	0.03
877	0.029
877	0.028
878	0.027
878	0.026
878	0.026
879	0.025
879	0.025
880	0.024
880	0.024
881	0.024
881	0.024
881	0.024
882	0.024
882	0.024
883	0.023
883	0.023
884	0.022
884	0.022
884	0.022
885	0.022
885	0.022
886	0.022
886	0.023
887	0.023
887	0.024
887	0.024
888	0.025
888	0.025
889	0.026
889	0.027
890	0.028
890	0.028
890	0.028
891	0.028
891	0.028
892	0.028
892	0.028
893	0.028
893	0.029
893	0.029
894	0.029
894	0.028
895	0.028
895	0.028
895	0.027
896	0.027
896	0.027
897	0.027
897	0.026
898	0.026
898	0.026
898	0.026
899	0.026
899	0.026
900	0.026
900	0.026
901	0.026
901	0.026
901	0.026
902	0.027
902	0.027
903	0.027
903	0.027
904	0.027
904	0.028
904	0.029
905	0.029
905	0.03
906	0.03
906	0.03
907	0.031
907	0.031
907	0.031
908	0.031
908	0.031
909	0.032
909	0.032
910	0.033
910	0.033
910	0.033
911	0.033
911	0.033
912	0.033
912	0.033
913	0.033
913	0.033
913	0.032
914	0.031
914	0.031
915	0.03
915	0.029
916	0.028
916	0.027
916	0.026
917	0.025
917	0.024
918	0.023
918	0.022
918	0.021
919	0.02
919	0.02
920	0.019
920	0.019
921	0.019
921	0.019
921	0.019
922	0.019
922	0.019
923	0.02
923	0.02
924	0.02
924	0.021
924	0.021
925	0.021
925	0.022
926	0.022
926	0.022
927	0.022
927	0.022
927	0.022
928	0.022
928	0.022
929	0.022
929	0.022
930	0.022
930	0.021
930	0.021
931	0.021
931	0.02
932	0.02
932	0.02
933	0.02
933	0.02
933	0.019
934	0.019
934	0.019
935	0.018
935	0.018
935	0.017
936	0.017
936	0.017
937	0.016
937	0.016
938	0.015
938	0.015
938	0.016
939	0.016
939	0.017
940	0.018
940	0.018
941	0.019
941	0.02
941	0.021
942	0.022
942	0.023
943	0.024
943	0.025
944	0.025
944	0.025
944	0.026
945	0.026
945	0.026
946	0.027
946	0.027
946	0.027
947	0.028
947	0.028
948	0.028
948	0.028
949	0.028
949	0.029
949	0.029
950	0.029
950	0.029
951	0.029
951	0.028
952	0.028
952	0.027
952	0.027
953	0.026
953	0.026
954	0.025
954	0.025
955	0.025
955	0.025
955	0.025
956	0.025
956	0.025
957	0.025
957	0.025
957	0.025
958	0.025
958	0.026
959	0.026
959	0.026
960	0.026
960	0.025
960	0.025
961	0.025
961	0.026
962	0.026
962	0.026
963	0.026
963	0.027
963	0.027
964	0.027
964	0.027
965	0.027
965	0.027
966	0.027
966	0.027
966	0.027
967	0.027
967	0.026
968	0.025
968	0.024
968	0.024
969	0.023
969	0.022
970	0.021
970	0.02
971	0.02
971	0.019
971	0.019
972	0.019
972	0.019
973	0.019
973	0.019
974	0.02
974	0.02
974	0.021
975	0.022
975	0.023
976	0.024
976	0.025
976	0.026
977	0.027
977	0.027
978	0.028
978	0.028
979	0.028
979	0.029
979	0.028
980	0.028
980	0.027
981	0.026
981	0.026
982	0.025
982	0.024
982	0.023
983	0.021
983	0.02
984	0.019
984	0.017
984	0.016
985	0.015
985	0.014
986	0.013
986	0.012
987	0.012
987	0.011
987	0.011
988	0.011
988	0.011
989	0.011
989	0.011
990	0.011
990	0.012
990	0.013
991	0.014
991	0.015
992	0.016
992	0.017
992	0.018
993	0.019
993	0.02
994	0.02
994	0.02
995	0.02
995	0.02
995	0.019
996	0.018
996	0.017
997	0.016
997	0.015
997	0.015
998	0.014
998	0.014
999	0.014
999	0.015
1000	0.015
1000	0.015
1000	0.016
1001	0.017
1001	0.018
1002	0.018
1002	0.019
1003	0.019
1003	0.02
1003	0.02
1004	0.02
1004	0.02
1005	0.019
1005	0.019
1005	0.019
1006	0.019
1006	0.018
1007	0.018
1007	0.018
1008	0.018
1008	0.018
1008	0.018
1009	0.018
1009	0.018
1010	0.018
1010	0.018
1010	0.019
1011	0.019
1011	0.019
1012	0.019
1012	0.019
1013	0.019
1013	0.018
1013	0.018
1014	0.017
1014	0.016
1015	0.015
1015	0.015
1016	0.014
1016	0.013
1016	0.012
1017	0.011
1017	0.01
1018	0.009
1018	0.008
1018	0.008
1019	0.008
1019	0.008
1020	0.008
1020	0.008
1021	0.008
1021	0.008
1021	0.008
1022	0.009
1022	0.01
1023	0.011
1023	0.011
1023	0.012
1024	0.012
1024	0.012
1025	0.012
1025	0.012
1026	0.011
1026	0.011
1026	0.011
1027	0.01
1027	0.009
1028	0.009
1028	0.009
1028	0.008
1029	0.008
1029	0.007
1030	0.007
1030	0.007
1031	0.007
1031	0.007
1031	0.007
1032	0.007
1032	0.007
1033	0.007
1033	0.007
1033	0.007
1034	0.007
1034	0.006
1035	0.006
1035	0.006
1036	0.006
1036	0.006
1036	0.006
1037	0.006
1037	0.007
1038	0.007
1038	0.007
1039	0.007
1039	0.008
1039	0.008
1040	0.009
1040	0.009
1041	0.01
1041	0.011
1041	0.011
1042	0.011
1042	0.012
1043	0.012
1043	0.013
1044	0.014
1044	0.014
1044	0.015
1045	0.015
1045	0.015
1046	0.015
1046	0.014
1046	0.015
1047	0.015
1047	0.015
1048	0.015
1048	0.015
1049	0.014
1049	0.013
1049	0.013
1050	0.012
1050	0.011
1051	0.011
1051	0.01
1051	0.01
1052	0.009
1052	0.008
1053	0.007
1053	0.006
1053	0.006
1054	0.005
1054	0.004
1055	0.004
1055	0.003
1056	0.002
1056	0.001
1056	-0
1057	-0.001
1057	-0.002
1058	-0.003
1058	-0.004
1058	-0.004
1059	-0.005
1059	-0.005
1060	-0.005
1060	-0.005
1061	-0.005
1061	-0.005
1061	-0.005
1062	-0.005
1062	-0.005
1063	-0.005
1063	-0.005
1063	-0.005
1064	-0.005
1064	-0.004
1065	-0.004
1065	-0.004
1066	-0.004
1066	-0.003
1066	-0.002
1067	-0.002
1067	-0.001
1068	-0.001
1068	-0.001
1068	-0.001
1069	-0.002
1069	-0.002
1070	-0.003
1070	-0.003
1071	-0.004
1071	-0.005
1071	-0.006
1072	-0.006
1072	-0.007
1073	-0.008
1073	-0.009
1073	-0.01
1074	-0.01
1074	-0.01
1075	-0.012
1075	-0.012
1076	-0.014
1076	-0.014
1076	-0.015
1077	-0.015
1077	-0.015
1078	-0.016
1078	-0.016
1078	-0.015
1079	-0.015
1079	-0.014
1080	-0.013
1080	-0.012
1080	-0.011
1081	-0.01
1081	-0.009
1082	-0.008
1082	-0.008
1083	-0.007
1083	-0.007
1083	-0.006
1084	-0.006
1084	-0.005
1085	-0.005
1085	-0.005
1085	-0.005
1086	-0.004
1086	-0.005
1087	-0.004
1087	-0.004
1088	-0.005
1088	-0.005
1088	-0.005
1089	-0.006
1089	-0.007
1090	-0.008
1090	-0.008
1090	-0.008
1091	-0.009
1091	-0.008
1092	-0.009
1092	-0.008
1092	-0.007
1093	-0.007
1093	-0.006
1094	-0.005
1094	-0.005
1095	-0.005
1095	-0.005
1095	-0.003
1096	-0.002
1096	-0.001
1097	-0
1097	0.001
1097	0.002
1098	0.004
1098	0.005
1099	0.007
1099	0.011
1100	0.013
1100	0.014
1100	0.016
1101	0.018
1101	0.02
1102	0.022
1102	0.023
1102	0.026
1103	0.028
1103	0.03
1104	0.033
1104	0.036
1104	0.041
1105	0.046
1105	0.048
1106	0.052
1106	0.057
1107	0.061
1107	0.068
1107	0.077
1108	0.112
1108	0.157
1109	0.219
1109	0.315
1109	0.386
1110	0.539
1110	0.937
1111	-0
1111	-0
