Data from 17c-2a_Absorbance__568__00569.txt Node

Date: Fri Jan 26 10:06:27 CET 2024
User: Marek
Spectrometer: MAYP115816
Trigger mode: 0
Integration Time (sec): 2.000000E-1
Scans to average: 10
Electric dark correction enabled: true
Nonlinearity correction enabled: true
Boxcar width: 5
XAxis mode: Wavelengths
Number of Pixels in Spectrum: 2068
>>>>>Begin Spectral Data<<<<<
199	-1.246
199	-1.118
200	-0.977
200	-0.874
201	-0.81
201	-0.77
202	-0.712
202	-0.668
203	-0.632
203	-0.602
204	-0.58
204	-0.559
205	-0.539
205	-0.532
205	-0.529
206	-0.525
206	-0.523
207	-0.52
207	-0.52
208	-0.52
208	-0.518
209	-0.517
209	-0.515
210	-0.516
210	-0.517
211	-0.517
211	-0.519
212	-0.52
212	-0.519
213	-0.518
213	-0.515
213	-0.515
214	-0.512
214	-0.511
215	-0.506
215	-0.504
216	-0.502
216	-0.501
217	-0.498
217	-0.496
218	-0.493
218	-0.492
219	-0.488
219	-0.488
220	-0.488
220	-0.49
221	-0.488
221	-0.487
221	-0.483
222	-0.478
222	-0.475
223	-0.472
223	-0.47
224	-0.466
224	-0.46
225	-0.453
225	-0.446
226	-0.439
226	-0.429
227	-0.421
227	-0.413
228	-0.399
228	-0.386
229	-0.37
229	-0.352
229	-0.332
230	-0.309
230	-0.285
231	-0.261
231	-0.235
232	-0.208
232	-0.181
233	-0.153
233	-0.125
234	-0.099
234	-0.075
235	-0.051
235	-0.029
236	-0.008
236	0.011
236	0.029
237	0.045
237	0.059
238	0.073
238	0.084
239	0.095
239	0.105
240	0.114
240	0.121
241	0.128
241	0.134
242	0.14
242	0.146
243	0.151
243	0.155
243	0.159
244	0.163
244	0.166
245	0.169
245	0.172
246	0.175
246	0.177
247	0.18
247	0.183
248	0.185
248	0.188
249	0.19
249	0.192
250	0.195
250	0.197
250	0.199
251	0.201
251	0.203
252	0.205
252	0.207
253	0.209
253	0.21
254	0.211
254	0.213
255	0.214
255	0.216
256	0.217
256	0.218
257	0.219
257	0.22
258	0.221
258	0.222
258	0.223
259	0.223
259	0.223
260	0.224
260	0.224
261	0.224
261	0.224
262	0.224
262	0.223
263	0.223
263	0.223
264	0.222
264	0.222
265	0.222
265	0.221
265	0.221
266	0.22
266	0.219
267	0.218
267	0.217
268	0.215
268	0.214
269	0.213
269	0.211
270	0.21
270	0.208
271	0.207
271	0.205
272	0.204
272	0.202
272	0.201
273	0.199
273	0.197
274	0.196
274	0.194
275	0.192
275	0.191
276	0.189
276	0.187
277	0.185
277	0.183
278	0.181
278	0.179
278	0.177
279	0.175
279	0.173
280	0.171
280	0.169
281	0.168
281	0.166
282	0.164
282	0.162
283	0.161
283	0.159
284	0.158
284	0.156
285	0.155
285	0.153
285	0.152
286	0.15
286	0.149
287	0.147
287	0.146
288	0.145
288	0.143
289	0.142
289	0.141
290	0.14
290	0.139
291	0.138
291	0.137
292	0.136
292	0.135
292	0.134
293	0.133
293	0.132
294	0.131
294	0.131
295	0.13
295	0.129
296	0.128
296	0.128
297	0.127
297	0.127
298	0.126
298	0.126
298	0.125
299	0.125
299	0.124
300	0.124
300	0.124
301	0.123
301	0.123
302	0.122
302	0.122
303	0.122
303	0.122
304	0.121
304	0.121
305	0.12
305	0.12
305	0.12
306	0.12
306	0.119
307	0.119
307	0.118
308	0.118
308	0.118
309	0.117
309	0.117
310	0.117
310	0.116
311	0.116
311	0.116
311	0.116
312	0.115
312	0.115
313	0.115
313	0.115
314	0.114
314	0.114
315	0.114
315	0.114
316	0.113
316	0.113
317	0.113
317	0.112
318	0.112
318	0.112
318	0.111
319	0.111
319	0.111
320	0.11
320	0.11
321	0.11
321	0.109
322	0.109
322	0.109
323	0.108
323	0.108
324	0.107
324	0.107
324	0.107
325	0.106
325	0.106
326	0.106
326	0.106
327	0.105
327	0.105
328	0.105
328	0.104
329	0.104
329	0.104
330	0.104
330	0.103
330	0.103
331	0.103
331	0.102
332	0.102
332	0.102
333	0.102
333	0.101
334	0.101
334	0.101
335	0.101
335	0.101
336	0.1
336	0.1
336	0.1
337	0.1
337	0.1
338	0.099
338	0.099
339	0.099
339	0.098
340	0.098
340	0.098
341	0.098
341	0.097
342	0.097
342	0.097
342	0.097
343	0.096
343	0.096
344	0.096
344	0.096
345	0.096
345	0.096
346	0.095
346	0.095
347	0.095
347	0.095
348	0.095
348	0.095
348	0.094
349	0.094
349	0.094
350	0.094
350	0.094
351	0.094
351	0.094
352	0.093
352	0.093
353	0.093
353	0.093
354	0.093
354	0.093
354	0.092
355	0.092
355	0.092
356	0.092
356	0.092
357	0.091
357	0.091
358	0.091
358	0.091
359	0.091
359	0.091
360	0.091
360	0.091
360	0.091
361	0.092
361	0.092
362	0.092
362	0.092
363	0.092
363	0.092
364	0.092
364	0.092
365	0.092
365	0.092
366	0.092
366	0.092
366	0.092
367	0.092
367	0.092
368	0.091
368	0.091
369	0.091
369	0.091
370	0.091
370	0.091
371	0.091
371	0.091
372	0.09
372	0.09
372	0.09
373	0.09
373	0.09
374	0.091
374	0.091
375	0.091
375	0.091
376	0.091
376	0.091
377	0.091
377	0.092
378	0.092
378	0.092
378	0.092
379	0.092
379	0.092
380	0.092
380	0.092
381	0.092
381	0.092
382	0.091
382	0.091
383	0.091
383	0.091
383	0.091
384	0.091
384	0.091
385	0.091
385	0.09
386	0.09
386	0.09
387	0.09
387	0.09
388	0.09
388	0.09
389	0.09
389	0.091
389	0.091
390	0.091
390	0.091
391	0.091
391	0.091
392	0.091
392	0.092
393	0.092
393	0.092
394	0.092
394	0.091
394	0.091
395	0.091
395	0.091
396	0.091
396	0.091
397	0.091
397	0.091
398	0.09
398	0.09
399	0.09
399	0.09
400	0.09
400	0.09
400	0.09
401	0.089
401	0.089
402	0.089
402	0.089
403	0.089
403	0.089
404	0.089
404	0.089
405	0.089
405	0.089
405	0.089
406	0.089
406	0.089
407	0.089
407	0.089
408	0.089
408	0.089
409	0.089
409	0.089
410	0.089
410	0.089
411	0.089
411	0.089
411	0.089
412	0.089
412	0.089
413	0.089
413	0.089
414	0.089
414	0.089
415	0.089
415	0.089
416	0.089
416	0.088
416	0.088
417	0.088
417	0.089
418	0.089
418	0.089
419	0.089
419	0.089
420	0.089
420	0.09
421	0.09
421	0.09
421	0.09
422	0.09
422	0.09
423	0.09
423	0.09
424	0.09
424	0.09
425	0.09
425	0.09
426	0.09
426	0.09
427	0.09
427	0.09
427	0.09
428	0.09
428	0.09
429	0.09
429	0.09
430	0.09
430	0.09
431	0.09
431	0.09
432	0.09
432	0.09
432	0.09
433	0.089
433	0.09
434	0.09
434	0.09
435	0.09
435	0.09
436	0.09
436	0.09
437	0.09
437	0.09
437	0.09
438	0.09
438	0.09
439	0.09
439	0.09
440	0.089
440	0.089
441	0.089
441	0.089
442	0.089
442	0.089
442	0.089
443	0.089
443	0.089
444	0.089
444	0.09
445	0.09
445	0.09
446	0.09
446	0.09
447	0.09
447	0.09
447	0.09
448	0.09
448	0.09
449	0.09
449	0.09
450	0.091
450	0.091
451	0.091
451	0.091
452	0.091
452	0.091
452	0.091
453	0.091
453	0.09
454	0.09
454	0.09
455	0.09
455	0.09
456	0.09
456	0.09
457	0.09
457	0.09
458	0.09
458	0.09
458	0.091
459	0.091
459	0.091
460	0.091
460	0.091
461	0.091
461	0.091
462	0.091
462	0.091
463	0.092
463	0.092
463	0.092
464	0.092
464	0.092
465	0.092
465	0.092
466	0.092
466	0.092
467	0.092
467	0.092
467	0.092
468	0.092
468	0.091
469	0.091
469	0.092
470	0.092
470	0.092
471	0.092
471	0.092
472	0.092
472	0.092
472	0.092
473	0.093
473	0.093
474	0.093
474	0.094
475	0.094
475	0.094
476	0.095
476	0.095
477	0.095
477	0.096
477	0.096
478	0.096
478	0.096
479	0.096
479	0.096
480	0.096
480	0.097
481	0.097
481	0.097
482	0.098
482	0.098
482	0.099
483	0.1
483	0.101
484	0.102
484	0.103
485	0.104
485	0.104
486	0.105
486	0.105
487	0.106
487	0.106
487	0.106
488	0.106
488	0.106
489	0.106
489	0.106
490	0.107
490	0.107
491	0.107
491	0.108
492	0.108
492	0.109
492	0.109
493	0.11
493	0.111
494	0.112
494	0.113
495	0.113
495	0.114
496	0.115
496	0.115
496	0.116
497	0.117
497	0.117
498	0.118
498	0.119
499	0.119
499	0.12
500	0.121
500	0.122
501	0.122
501	0.123
501	0.123
502	0.124
502	0.125
503	0.126
503	0.127
504	0.127
504	0.128
505	0.129
505	0.129
506	0.13
506	0.131
506	0.132
507	0.133
507	0.133
508	0.134
508	0.135
509	0.135
509	0.136
510	0.137
510	0.137
511	0.138
511	0.138
511	0.139
512	0.14
512	0.14
513	0.14
513	0.14
514	0.141
514	0.141
515	0.141
515	0.141
515	0.141
516	0.141
516	0.142
517	0.142
517	0.143
518	0.143
518	0.143
519	0.143
519	0.143
520	0.143
520	0.143
520	0.143
521	0.142
521	0.142
522	0.141
522	0.141
523	0.14
523	0.14
524	0.14
524	0.14
524	0.14
525	0.141
525	0.141
526	0.141
526	0.142
527	0.142
527	0.143
528	0.143
528	0.143
529	0.143
529	0.143
529	0.142
530	0.142
530	0.141
531	0.141
531	0.14
532	0.139
532	0.139
533	0.138
533	0.138
533	0.137
534	0.137
534	0.136
535	0.136
535	0.135
536	0.134
536	0.134
537	0.133
537	0.133
538	0.132
538	0.131
538	0.13
539	0.13
539	0.129
540	0.128
540	0.127
541	0.126
541	0.125
542	0.124
542	0.123
542	0.122
543	0.121
543	0.12
544	0.119
544	0.118
545	0.117
545	0.117
546	0.117
546	0.116
547	0.115
547	0.114
547	0.113
548	0.113
548	0.112
549	0.112
549	0.111
550	0.11
550	0.109
551	0.108
551	0.107
551	0.107
552	0.106
552	0.105
553	0.104
553	0.104
554	0.103
554	0.101
555	0.1
555	0.099
556	0.097
556	0.096
556	0.094
557	0.093
557	0.092
558	0.09
558	0.089
559	0.088
559	0.087
560	0.086
560	0.086
560	0.085
561	0.085
561	0.084
562	0.084
562	0.083
563	0.082
563	0.081
564	0.08
564	0.08
564	0.079
565	0.078
565	0.077
566	0.076
566	0.076
567	0.075
567	0.075
568	0.075
568	0.074
568	0.075
569	0.075
569	0.075
570	0.074
570	0.074
571	0.074
571	0.074
572	0.073
572	0.073
573	0.072
573	0.072
573	0.071
574	0.07
574	0.07
575	0.07
575	0.07
576	0.07
576	0.068
577	0.068
577	0.067
577	0.067
578	0.066
578	0.066
579	0.067
579	0.067
580	0.066
580	0.064
581	0.063
581	0.063
581	0.062
582	0.062
582	0.062
583	0.063
583	0.062
584	0.06
584	0.058
585	0.058
585	0.058
585	0.058
586	0.058
586	0.058
587	0.056
587	0.055
588	0.054
588	0.054
589	0.053
589	0.053
590	0.053
590	0.053
590	0.054
591	0.054
591	0.054
592	0.053
592	0.053
593	0.053
593	0.053
594	0.053
594	0.052
594	0.052
595	0.052
595	0.051
596	0.052
596	0.053
597	0.054
597	0.055
598	0.055
598	0.055
598	0.056
599	0.056
599	0.055
600	0.055
600	0.054
601	0.054
601	0.053
602	0.052
602	0.051
602	0.051
603	0.05
603	0.051
604	0.052
604	0.052
605	0.053
605	0.054
606	0.054
606	0.053
606	0.053
607	0.053
607	0.053
608	0.052
608	0.052
609	0.051
609	0.051
610	0.05
610	0.05
610	0.05
611	0.051
611	0.052
612	0.054
612	0.055
613	0.056
613	0.057
614	0.058
614	0.058
614	0.058
615	0.058
615	0.058
616	0.058
616	0.058
617	0.058
617	0.057
618	0.057
618	0.057
618	0.057
619	0.057
619	0.058
620	0.058
620	0.059
621	0.059
621	0.059
622	0.059
622	0.059
622	0.059
623	0.059
623	0.06
624	0.06
624	0.06
625	0.06
625	0.06
626	0.06
626	0.061
626	0.061
627	0.062
627	0.063
628	0.063
628	0.063
629	0.064
629	0.064
630	0.064
630	0.064
630	0.064
631	0.064
631	0.064
632	0.064
632	0.065
633	0.065
633	0.066
634	0.067
634	0.068
634	0.069
635	0.07
635	0.07
636	0.071
636	0.072
637	0.073
637	0.073
638	0.074
638	0.075
638	0.075
639	0.076
639	0.076
640	0.077
640	0.077
641	0.078
641	0.079
642	0.08
642	0.081
642	0.082
643	0.083
643	0.084
644	0.085
644	0.086
645	0.087
645	0.088
646	0.09
646	0.091
646	0.093
647	0.095
647	0.096
648	0.098
648	0.099
649	0.101
649	0.103
650	0.105
650	0.107
650	0.108
651	0.109
651	0.111
652	0.111
652	0.112
653	0.114
653	0.118
653	0.116
654	0.094
654	0.077
655	0.078
655	0.079
656	0.08
656	0.081
657	0.083
657	0.084
657	0.085
658	0.083
658	0.083
659	0.104
659	0.132
660	0.137
660	0.139
661	0.14
661	0.142
661	0.144
662	0.145
662	0.147
663	0.149
663	0.15
664	0.152
664	0.153
665	0.154
665	0.156
665	0.157
666	0.158
666	0.159
667	0.16
667	0.161
668	0.162
668	0.163
669	0.165
669	0.166
669	0.168
670	0.169
670	0.17
671	0.171
671	0.173
672	0.174
672	0.175
672	0.176
673	0.177
673	0.179
674	0.18
674	0.181
675	0.183
675	0.184
676	0.186
676	0.188
676	0.189
677	0.19
677	0.191
678	0.192
678	0.192
679	0.192
679	0.193
680	0.193
680	0.194
680	0.194
681	0.195
681	0.195
682	0.196
682	0.197
683	0.198
683	0.199
684	0.2
684	0.2
684	0.2
685	0.2
685	0.2
686	0.2
686	0.2
687	0.199
687	0.199
687	0.198
688	0.198
688	0.198
689	0.199
689	0.199
690	0.199
690	0.199
691	0.2
691	0.2
691	0.2
692	0.199
692	0.199
693	0.199
693	0.199
694	0.198
694	0.197
695	0.197
695	0.198
695	0.197
696	0.196
696	0.196
697	0.195
697	0.195
698	0.194
698	0.193
698	0.192
699	0.191
699	0.19
700	0.188
700	0.187
701	0.186
701	0.185
702	0.184
702	0.183
702	0.182
703	0.18
703	0.179
704	0.177
704	0.176
705	0.175
705	0.174
705	0.172
706	0.171
706	0.17
707	0.169
707	0.168
708	0.167
708	0.167
709	0.165
709	0.164
709	0.163
710	0.162
710	0.161
711	0.16
711	0.159
712	0.157
712	0.156
713	0.155
713	0.154
713	0.153
714	0.151
714	0.149
715	0.148
715	0.146
716	0.144
716	0.143
716	0.141
717	0.14
717	0.138
718	0.136
718	0.135
719	0.133
719	0.132
720	0.13
720	0.129
720	0.127
721	0.125
721	0.124
722	0.122
722	0.121
723	0.12
723	0.119
723	0.117
724	0.117
724	0.116
725	0.115
725	0.114
726	0.114
726	0.113
727	0.113
727	0.112
727	0.112
728	0.11
728	0.11
729	0.109
729	0.108
730	0.107
730	0.105
730	0.104
731	0.103
731	0.101
732	0.101
732	0.1
733	0.098
733	0.098
734	0.097
734	0.096
734	0.095
735	0.095
735	0.094
736	0.093
736	0.092
737	0.091
737	0.09
737	0.089
738	0.087
738	0.085
739	0.083
739	0.082
740	0.08
740	0.079
741	0.078
741	0.077
741	0.076
742	0.075
742	0.075
743	0.074
743	0.074
744	0.073
744	0.073
744	0.072
745	0.071
745	0.069
746	0.068
746	0.067
747	0.066
747	0.065
748	0.064
748	0.063
748	0.062
749	0.061
749	0.061
750	0.061
750	0.06
751	0.06
751	0.06
751	0.061
752	0.06
752	0.06
753	0.06
753	0.06
754	0.06
754	0.059
754	0.059
755	0.059
755	0.059
756	0.059
756	0.058
757	0.057
757	0.058
758	0.057
758	0.057
758	0.057
759	0.057
759	0.056
760	0.055
760	0.054
761	0.053
761	0.053
761	0.052
762	0.051
762	0.051
763	0.05
763	0.048
764	0.047
764	0.045
764	0.044
765	0.043
765	0.041
766	0.04
766	0.04
767	0.039
767	0.037
768	0.035
768	0.034
768	0.033
769	0.032
769	0.031
770	0.03
770	0.029
771	0.027
771	0.025
771	0.023
772	0.022
772	0.021
773	0.019
773	0.018
774	0.016
774	0.015
775	0.014
775	0.014
775	0.013
776	0.012
776	0.012
777	0.012
777	0.012
778	0.011
778	0.01
778	0.009
779	0.009
779	0.008
780	0.007
780	0.005
781	0.003
781	0.001
781	-0.002
782	-0.005
782	-0.009
783	-0.012
783	-0.015
784	-0.019
784	-0.022
784	-0.026
785	-0.03
785	-0.033
786	-0.037
786	-0.039
787	-0.041
787	-0.044
788	-0.048
788	-0.052
788	-0.057
789	-0.062
789	-0.067
790	-0.072
790	-0.079
791	-0.086
791	-0.093
791	-0.098
792	-0.096
792	-0.091
793	-0.089
793	-0.09
794	-0.092
794	-0.096
794	-0.1
795	-0.103
795	-0.104
796	-0.104
796	-0.107
797	-0.115
797	-0.127
797	-0.133
798	-0.139
798	-0.142
799	-0.142
799	-0.142
800	-0.141
800	-0.143
801	-0.146
801	-0.146
801	-0.146
802	-0.147
802	-0.148
803	-0.149
803	-0.149
804	-0.148
804	-0.143
804	-0.136
805	-0.132
805	-0.131
806	-0.129
806	-0.128
807	-0.128
807	-0.128
807	-0.128
808	-0.128
808	-0.129
809	-0.134
809	-0.14
810	-0.144
810	-0.146
810	-0.15
811	-0.153
811	-0.153
812	-0.149
812	-0.146
813	-0.146
813	-0.145
813	-0.142
814	-0.139
814	-0.134
815	-0.127
815	-0.119
816	-0.11
816	-0.102
817	-0.097
817	-0.09
817	-0.079
818	-0.069
818	-0.059
819	-0.051
819	-0.043
820	-0.038
820	-0.032
820	-0.027
821	-0.022
821	-0.018
822	-0.014
822	-0.011
823	-0.008
823	-0.006
823	-0.003
824	-0.001
824	0.002
825	0.005
825	0.008
826	0.01
826	0.012
826	0.014
827	0.015
827	0.017
828	0.018
828	0.019
829	0.02
829	0.02
829	0.02
830	0.019
830	0.019
831	0.02
831	0.02
832	0.02
832	0.02
832	0.02
833	0.02
833	0.021
834	0.021
834	0.022
835	0.022
835	0.022
835	0.022
836	0.022
836	0.023
837	0.023
837	0.024
838	0.024
838	0.025
839	0.025
839	0.025
839	0.025
840	0.025
840	0.025
841	0.025
841	0.025
842	0.025
842	0.025
842	0.024
843	0.024
843	0.024
844	0.024
844	0.024
845	0.024
845	0.024
845	0.024
846	0.024
846	0.024
847	0.023
847	0.024
848	0.024
848	0.024
848	0.024
849	0.024
849	0.024
850	0.025
850	0.025
851	0.025
851	0.026
851	0.026
852	0.026
852	0.026
853	0.026
853	0.025
854	0.025
854	0.025
854	0.025
855	0.025
855	0.025
856	0.025
856	0.024
857	0.024
857	0.023
857	0.023
858	0.023
858	0.023
859	0.023
859	0.023
860	0.023
860	0.023
860	0.023
861	0.024
861	0.025
862	0.025
862	0.026
863	0.026
863	0.027
863	0.028
864	0.028
864	0.029
865	0.029
865	0.03
866	0.03
866	0.031
866	0.031
867	0.032
867	0.032
868	0.032
868	0.032
869	0.032
869	0.032
869	0.032
870	0.032
870	0.031
871	0.031
871	0.031
872	0.031
872	0.031
872	0.032
873	0.032
873	0.032
874	0.032
874	0.032
875	0.032
875	0.031
875	0.031
876	0.03
876	0.029
877	0.028
877	0.027
878	0.026
878	0.025
878	0.024
879	0.023
879	0.023
880	0.022
880	0.022
881	0.022
881	0.022
881	0.023
882	0.023
882	0.023
883	0.023
883	0.024
884	0.024
884	0.023
884	0.023
885	0.022
885	0.022
886	0.022
886	0.022
887	0.021
887	0.021
887	0.021
888	0.022
888	0.022
889	0.023
889	0.023
890	0.024
890	0.025
890	0.025
891	0.025
891	0.026
892	0.026
892	0.027
893	0.027
893	0.028
893	0.028
894	0.028
894	0.028
895	0.028
895	0.027
895	0.027
896	0.026
896	0.026
897	0.025
897	0.024
898	0.023
898	0.023
898	0.022
899	0.022
899	0.022
900	0.022
900	0.022
901	0.022
901	0.022
901	0.023
902	0.023
902	0.024
903	0.024
903	0.025
904	0.026
904	0.026
904	0.027
905	0.027
905	0.028
906	0.028
906	0.028
907	0.028
907	0.028
907	0.029
908	0.029
908	0.029
909	0.03
909	0.031
910	0.031
910	0.031
910	0.032
911	0.032
911	0.032
912	0.032
912	0.032
913	0.032
913	0.031
913	0.03
914	0.029
914	0.029
915	0.028
915	0.027
916	0.026
916	0.025
916	0.023
917	0.022
917	0.02
918	0.018
918	0.017
918	0.015
919	0.014
919	0.013
920	0.012
920	0.012
921	0.011
921	0.011
921	0.012
922	0.012
922	0.013
923	0.013
923	0.014
924	0.014
924	0.015
924	0.016
925	0.017
925	0.017
926	0.018
926	0.018
927	0.019
927	0.019
927	0.019
928	0.019
928	0.018
929	0.018
929	0.017
930	0.016
930	0.016
930	0.015
931	0.014
931	0.014
932	0.013
932	0.013
933	0.013
933	0.012
933	0.012
934	0.012
934	0.011
935	0.011
935	0.011
935	0.011
936	0.01
936	0.01
937	0.01
937	0.01
938	0.01
938	0.01
938	0.01
939	0.01
939	0.01
940	0.011
940	0.011
941	0.012
941	0.012
941	0.013
942	0.014
942	0.015
943	0.016
943	0.017
944	0.018
944	0.018
944	0.019
945	0.019
945	0.02
946	0.02
946	0.02
946	0.021
947	0.021
947	0.021
948	0.022
948	0.022
949	0.023
949	0.023
949	0.024
950	0.024
950	0.024
951	0.025
951	0.025
952	0.024
952	0.024
952	0.023
953	0.023
953	0.022
954	0.021
954	0.02
955	0.02
955	0.019
955	0.019
956	0.019
956	0.019
957	0.019
957	0.019
957	0.019
958	0.019
958	0.02
959	0.02
959	0.02
960	0.02
960	0.02
960	0.021
961	0.021
961	0.021
962	0.022
962	0.022
963	0.023
963	0.023
963	0.024
964	0.024
964	0.024
965	0.024
965	0.024
966	0.024
966	0.024
966	0.024
967	0.023
967	0.023
968	0.022
968	0.021
968	0.021
969	0.02
969	0.02
970	0.019
970	0.019
971	0.019
971	0.018
971	0.018
972	0.018
972	0.018
973	0.018
973	0.018
974	0.018
974	0.018
974	0.019
975	0.019
975	0.02
976	0.021
976	0.022
976	0.023
977	0.024
977	0.024
978	0.025
978	0.025
979	0.026
979	0.026
979	0.026
980	0.025
980	0.025
981	0.024
981	0.024
982	0.023
982	0.022
982	0.021
983	0.02
983	0.019
984	0.019
984	0.018
984	0.017
985	0.016
985	0.016
986	0.015
986	0.014
987	0.014
987	0.014
987	0.014
988	0.014
988	0.014
989	0.014
989	0.014
990	0.015
990	0.015
990	0.016
991	0.016
991	0.017
992	0.017
992	0.017
992	0.018
993	0.018
993	0.018
994	0.018
994	0.018
995	0.018
995	0.018
995	0.018
996	0.018
996	0.018
997	0.018
997	0.017
997	0.018
998	0.018
998	0.018
999	0.019
999	0.019
1000	0.019
1000	0.02
1000	0.02
1001	0.021
1001	0.022
1002	0.022
1002	0.023
1003	0.023
1003	0.024
1003	0.024
1004	0.023
1004	0.023
1005	0.023
1005	0.022
1005	0.021
1006	0.021
1006	0.02
1007	0.019
1007	0.019
1008	0.018
1008	0.018
1008	0.018
1009	0.017
1009	0.017
1010	0.017
1010	0.017
1010	0.017
1011	0.017
1011	0.017
1012	0.016
1012	0.016
1013	0.015
1013	0.015
1013	0.014
1014	0.013
1014	0.012
1015	0.011
1015	0.01
1016	0.009
1016	0.008
1016	0.007
1017	0.007
1017	0.006
1018	0.005
1018	0.004
1018	0.004
1019	0.003
1019	0.003
1020	0.003
1020	0.002
1021	0.002
1021	0.002
1021	0.003
1022	0.003
1022	0.003
1023	0.004
1023	0.004
1023	0.005
1024	0.005
1024	0.005
1025	0.005
1025	0.005
1026	0.005
1026	0.006
1026	0.005
1027	0.005
1027	0.005
1028	0.005
1028	0.004
1028	0.004
1029	0.003
1029	0.003
1030	0.003
1030	0.003
1031	0.002
1031	0.002
1031	0.002
1032	0.002
1032	0.002
1033	0.002
1033	0.003
1033	0.003
1034	0.003
1034	0.002
1035	0.002
1035	0.002
1036	0.002
1036	0.002
1036	0.002
1037	0.002
1037	0.003
1038	0.003
1038	0.004
1039	0.004
1039	0.005
1039	0.006
1040	0.007
1040	0.008
1041	0.009
1041	0.01
1041	0.01
1042	0.011
1042	0.012
1043	0.012
1043	0.013
1044	0.014
1044	0.014
1044	0.015
1045	0.015
1045	0.015
1046	0.015
1046	0.015
1046	0.015
1047	0.015
1047	0.015
1048	0.015
1048	0.015
1049	0.014
1049	0.013
1049	0.012
1050	0.011
1050	0.011
1051	0.01
1051	0.01
1051	0.009
1052	0.008
1052	0.008
1053	0.007
1053	0.006
1053	0.006
1054	0.005
1054	0.004
1055	0.004
1055	0.003
1056	0.002
1056	0.001
1056	-0
1057	-0.001
1057	-0.002
1058	-0.002
1058	-0.003
1058	-0.003
1059	-0.003
1059	-0.003
1060	-0.003
1060	-0.003
1061	-0.003
1061	-0.003
1061	-0.002
1062	-0.002
1062	-0.002
1063	-0.002
1063	-0.002
1063	-0.001
1064	-0.001
1064	-0.001
1065	-0.001
1065	-0.001
1066	-0
1066	-0
1066	0
1067	0.001
1067	0.001
1068	0.001
1068	0.001
1068	0.001
1069	0
1069	-0
1070	-0.001
1070	-0.002
1071	-0.003
1071	-0.004
1071	-0.005
1072	-0.007
1072	-0.008
1073	-0.009
1073	-0.01
1073	-0.011
1074	-0.011
1074	-0.012
1075	-0.012
1075	-0.013
1076	-0.014
1076	-0.014
1076	-0.014
1077	-0.014
1077	-0.013
1078	-0.014
1078	-0.014
1078	-0.014
1079	-0.014
1079	-0.013
1080	-0.013
1080	-0.013
1080	-0.013
1081	-0.013
1081	-0.012
1082	-0.012
1082	-0.012
1083	-0.012
1083	-0.013
1083	-0.013
1084	-0.013
1084	-0.013
1085	-0.013
1085	-0.013
1085	-0.012
1086	-0.012
1086	-0.013
1087	-0.012
1087	-0.011
1088	-0.011
1088	-0.011
1088	-0.011
1089	-0.012
1089	-0.012
1090	-0.013
1090	-0.013
1090	-0.013
1091	-0.013
1091	-0.013
1092	-0.014
1092	-0.014
1092	-0.014
1093	-0.014
1093	-0.013
1094	-0.013
1094	-0.013
1095	-0.014
1095	-0.014
1095	-0.014
1096	-0.013
1096	-0.013
1097	-0.013
1097	-0.013
1097	-0.012
1098	-0.012
1098	-0.011
1099	-0.011
1099	-0.009
1100	-0.009
1100	-0.008
1100	-0.008
1101	-0.007
1101	-0.007
1102	-0.005
1102	-0.005
1102	-0.003
1103	-0.003
1103	-0.002
1104	0
1104	0.002
1104	0.005
1105	0.007
1105	0.008
1106	0.011
1106	0.013
1107	0.013
1107	0.016
1107	0.019
1108	0.035
1108	0.053
1109	0.077
1109	0.11
1109	0.133
1110	0.169
1110	0.229
1111	0.351
1111	0.907
