Data from 17c-2a_Absorbance__673__00674.txt Node

Date: Fri Jan 26 10:09:57 CET 2024
User: Marek
Spectrometer: MAYP115816
Trigger mode: 0
Integration Time (sec): 2.000000E-1
Scans to average: 10
Electric dark correction enabled: true
Nonlinearity correction enabled: true
Boxcar width: 5
XAxis mode: Wavelengths
Number of Pixels in Spectrum: 2068
>>>>>Begin Spectral Data<<<<<
199	-1.227
199	-1.098
200	-0.96
200	-0.855
201	-0.792
201	-0.754
202	-0.696
202	-0.653
203	-0.618
203	-0.589
204	-0.567
204	-0.547
205	-0.528
205	-0.52
205	-0.52
206	-0.515
206	-0.513
207	-0.51
207	-0.51
208	-0.51
208	-0.509
209	-0.506
209	-0.504
210	-0.505
210	-0.505
211	-0.506
211	-0.508
212	-0.508
212	-0.509
213	-0.506
213	-0.503
213	-0.504
214	-0.502
214	-0.5
215	-0.496
215	-0.495
216	-0.492
216	-0.491
217	-0.488
217	-0.486
218	-0.484
218	-0.482
219	-0.479
219	-0.478
220	-0.478
220	-0.479
221	-0.477
221	-0.477
221	-0.473
222	-0.467
222	-0.464
223	-0.461
223	-0.458
224	-0.454
224	-0.448
225	-0.442
225	-0.436
226	-0.429
226	-0.42
227	-0.411
227	-0.404
228	-0.39
228	-0.377
229	-0.36
229	-0.342
229	-0.323
230	-0.301
230	-0.277
231	-0.252
231	-0.226
232	-0.2
232	-0.172
233	-0.144
233	-0.116
234	-0.09
234	-0.065
235	-0.041
235	-0.018
236	0.003
236	0.022
236	0.04
237	0.056
237	0.07
238	0.084
238	0.095
239	0.106
239	0.115
240	0.124
240	0.131
241	0.137
241	0.144
242	0.149
242	0.154
243	0.159
243	0.163
243	0.166
244	0.17
244	0.174
245	0.177
245	0.18
246	0.183
246	0.186
247	0.189
247	0.191
248	0.194
248	0.196
249	0.199
249	0.201
250	0.203
250	0.205
250	0.207
251	0.209
251	0.211
252	0.213
252	0.215
253	0.217
253	0.218
254	0.22
254	0.221
255	0.223
255	0.224
256	0.226
256	0.227
257	0.227
257	0.228
258	0.229
258	0.23
258	0.23
259	0.231
259	0.231
260	0.232
260	0.232
261	0.232
261	0.232
262	0.232
262	0.232
263	0.232
263	0.232
264	0.231
264	0.231
265	0.23
265	0.229
265	0.229
266	0.228
266	0.227
267	0.226
267	0.225
268	0.224
268	0.222
269	0.221
269	0.22
270	0.218
270	0.217
271	0.215
271	0.213
272	0.212
272	0.21
272	0.208
273	0.207
273	0.205
274	0.203
274	0.202
275	0.2
275	0.198
276	0.196
276	0.195
277	0.193
277	0.191
278	0.189
278	0.187
278	0.185
279	0.183
279	0.181
280	0.179
280	0.177
281	0.175
281	0.173
282	0.172
282	0.17
283	0.168
283	0.167
284	0.165
284	0.164
285	0.162
285	0.161
285	0.159
286	0.157
286	0.156
287	0.154
287	0.153
288	0.152
288	0.15
289	0.149
289	0.148
290	0.147
290	0.145
291	0.144
291	0.143
292	0.142
292	0.141
292	0.14
293	0.139
293	0.138
294	0.138
294	0.137
295	0.136
295	0.135
296	0.135
296	0.134
297	0.134
297	0.133
298	0.133
298	0.132
298	0.132
299	0.131
299	0.131
300	0.13
300	0.13
301	0.13
301	0.129
302	0.129
302	0.128
303	0.128
303	0.128
304	0.127
304	0.127
305	0.127
305	0.126
305	0.126
306	0.125
306	0.125
307	0.125
307	0.124
308	0.124
308	0.123
309	0.123
309	0.123
310	0.122
310	0.122
311	0.122
311	0.122
311	0.121
312	0.121
312	0.121
313	0.121
313	0.12
314	0.12
314	0.12
315	0.119
315	0.119
316	0.119
316	0.118
317	0.118
317	0.118
318	0.117
318	0.117
318	0.117
319	0.116
319	0.116
320	0.116
320	0.116
321	0.115
321	0.115
322	0.114
322	0.114
323	0.114
323	0.113
324	0.113
324	0.113
324	0.112
325	0.112
325	0.112
326	0.111
326	0.111
327	0.111
327	0.11
328	0.11
328	0.11
329	0.11
329	0.109
330	0.109
330	0.108
330	0.108
331	0.108
331	0.107
332	0.107
332	0.107
333	0.107
333	0.106
334	0.106
334	0.106
335	0.106
335	0.105
336	0.105
336	0.105
336	0.105
337	0.105
337	0.104
338	0.104
338	0.104
339	0.104
339	0.103
340	0.103
340	0.103
341	0.102
341	0.102
342	0.102
342	0.101
342	0.101
343	0.101
343	0.101
344	0.101
344	0.1
345	0.1
345	0.1
346	0.1
346	0.1
347	0.1
347	0.1
348	0.099
348	0.099
348	0.099
349	0.099
349	0.099
350	0.098
350	0.098
351	0.098
351	0.098
352	0.098
352	0.098
353	0.098
353	0.097
354	0.097
354	0.097
354	0.097
355	0.097
355	0.097
356	0.097
356	0.096
357	0.096
357	0.096
358	0.096
358	0.096
359	0.096
359	0.096
360	0.096
360	0.096
360	0.096
361	0.096
361	0.096
362	0.096
362	0.096
363	0.096
363	0.096
364	0.096
364	0.096
365	0.096
365	0.096
366	0.096
366	0.096
366	0.097
367	0.096
367	0.096
368	0.096
368	0.096
369	0.096
369	0.096
370	0.095
370	0.095
371	0.095
371	0.095
372	0.095
372	0.095
372	0.095
373	0.095
373	0.095
374	0.095
374	0.095
375	0.095
375	0.096
376	0.096
376	0.096
377	0.096
377	0.096
378	0.096
378	0.096
378	0.096
379	0.096
379	0.096
380	0.096
380	0.096
381	0.096
381	0.096
382	0.096
382	0.096
383	0.096
383	0.095
383	0.095
384	0.095
384	0.095
385	0.095
385	0.095
386	0.095
386	0.095
387	0.095
387	0.095
388	0.095
388	0.095
389	0.095
389	0.095
389	0.095
390	0.095
390	0.095
391	0.095
391	0.095
392	0.096
392	0.096
393	0.096
393	0.096
394	0.096
394	0.096
394	0.095
395	0.095
395	0.095
396	0.095
396	0.095
397	0.095
397	0.095
398	0.095
398	0.095
399	0.095
399	0.095
400	0.094
400	0.094
400	0.094
401	0.094
401	0.094
402	0.094
402	0.094
403	0.093
403	0.093
404	0.093
404	0.093
405	0.093
405	0.093
405	0.093
406	0.093
406	0.093
407	0.093
407	0.093
408	0.094
408	0.093
409	0.093
409	0.093
410	0.094
410	0.094
411	0.094
411	0.094
411	0.094
412	0.094
412	0.094
413	0.093
413	0.093
414	0.093
414	0.093
415	0.093
415	0.093
416	0.093
416	0.092
416	0.092
417	0.092
417	0.092
418	0.093
418	0.093
419	0.093
419	0.093
420	0.093
420	0.093
421	0.094
421	0.094
421	0.094
422	0.094
422	0.094
423	0.094
423	0.094
424	0.094
424	0.094
425	0.094
425	0.094
426	0.094
426	0.094
427	0.094
427	0.094
427	0.094
428	0.094
428	0.094
429	0.094
429	0.094
430	0.094
430	0.094
431	0.094
431	0.094
432	0.094
432	0.093
432	0.093
433	0.093
433	0.093
434	0.093
434	0.093
435	0.093
435	0.094
436	0.094
436	0.094
437	0.094
437	0.094
437	0.094
438	0.094
438	0.094
439	0.094
439	0.093
440	0.093
440	0.093
441	0.093
441	0.093
442	0.093
442	0.093
442	0.093
443	0.093
443	0.093
444	0.093
444	0.093
445	0.094
445	0.094
446	0.094
446	0.094
447	0.094
447	0.094
447	0.094
448	0.094
448	0.094
449	0.094
449	0.094
450	0.095
450	0.094
451	0.094
451	0.095
452	0.095
452	0.094
452	0.094
453	0.094
453	0.094
454	0.094
454	0.094
455	0.094
455	0.094
456	0.094
456	0.094
457	0.094
457	0.094
458	0.094
458	0.094
458	0.095
459	0.095
459	0.095
460	0.095
460	0.094
461	0.094
461	0.094
462	0.095
462	0.095
463	0.095
463	0.096
463	0.096
464	0.096
464	0.096
465	0.096
465	0.096
466	0.096
466	0.096
467	0.096
467	0.096
467	0.096
468	0.095
468	0.095
469	0.095
469	0.095
470	0.095
470	0.095
471	0.095
471	0.095
472	0.095
472	0.096
472	0.096
473	0.096
473	0.097
474	0.097
474	0.097
475	0.098
475	0.098
476	0.098
476	0.099
477	0.099
477	0.099
477	0.099
478	0.1
478	0.1
479	0.1
479	0.101
480	0.101
480	0.101
481	0.102
481	0.102
482	0.103
482	0.103
482	0.104
483	0.105
483	0.106
484	0.107
484	0.108
485	0.108
485	0.109
486	0.109
486	0.11
487	0.11
487	0.11
487	0.111
488	0.11
488	0.11
489	0.11
489	0.111
490	0.111
490	0.111
491	0.112
491	0.113
492	0.113
492	0.114
492	0.114
493	0.115
493	0.115
494	0.117
494	0.118
495	0.119
495	0.119
496	0.12
496	0.121
496	0.121
497	0.122
497	0.123
498	0.124
498	0.124
499	0.125
499	0.126
500	0.126
500	0.127
501	0.128
501	0.129
501	0.129
502	0.13
502	0.131
503	0.132
503	0.133
504	0.133
504	0.134
505	0.135
505	0.136
506	0.137
506	0.137
506	0.138
507	0.139
507	0.139
508	0.14
508	0.141
509	0.141
509	0.142
510	0.143
510	0.143
511	0.144
511	0.144
511	0.145
512	0.146
512	0.146
513	0.146
513	0.146
514	0.147
514	0.147
515	0.147
515	0.147
515	0.147
516	0.148
516	0.148
517	0.149
517	0.149
518	0.149
518	0.15
519	0.15
519	0.15
520	0.15
520	0.15
520	0.15
521	0.149
521	0.149
522	0.148
522	0.148
523	0.147
523	0.148
524	0.147
524	0.147
524	0.147
525	0.148
525	0.148
526	0.148
526	0.149
527	0.149
527	0.149
528	0.149
528	0.149
529	0.149
529	0.149
529	0.149
530	0.148
530	0.148
531	0.148
531	0.147
532	0.146
532	0.146
533	0.145
533	0.145
533	0.144
534	0.144
534	0.143
535	0.142
535	0.141
536	0.141
536	0.14
537	0.139
537	0.139
538	0.137
538	0.137
538	0.136
539	0.135
539	0.135
540	0.134
540	0.133
541	0.132
541	0.131
542	0.13
542	0.129
542	0.128
543	0.127
543	0.126
544	0.125
544	0.124
545	0.123
545	0.122
546	0.122
546	0.121
547	0.12
547	0.119
547	0.119
548	0.118
548	0.117
549	0.117
549	0.116
550	0.115
550	0.114
551	0.113
551	0.112
551	0.111
552	0.11
552	0.109
553	0.108
553	0.108
554	0.107
554	0.105
555	0.104
555	0.102
556	0.101
556	0.099
556	0.098
557	0.096
557	0.095
558	0.094
558	0.093
559	0.092
559	0.091
560	0.09
560	0.09
560	0.089
561	0.089
561	0.088
562	0.088
562	0.087
563	0.086
563	0.085
564	0.084
564	0.083
564	0.083
565	0.082
565	0.081
566	0.08
566	0.079
567	0.079
567	0.078
568	0.078
568	0.078
568	0.078
569	0.078
569	0.078
570	0.077
570	0.076
571	0.076
571	0.076
572	0.076
572	0.075
573	0.075
573	0.074
573	0.073
574	0.072
574	0.072
575	0.072
575	0.072
576	0.072
576	0.071
577	0.07
577	0.069
577	0.069
578	0.069
578	0.069
579	0.069
579	0.07
580	0.068
580	0.066
581	0.065
581	0.064
581	0.064
582	0.064
582	0.064
583	0.065
583	0.064
584	0.062
584	0.06
585	0.06
585	0.061
585	0.061
586	0.061
586	0.06
587	0.059
587	0.058
588	0.056
588	0.056
589	0.055
589	0.055
590	0.055
590	0.055
590	0.056
591	0.056
591	0.056
592	0.056
592	0.056
593	0.056
593	0.056
594	0.055
594	0.054
594	0.054
595	0.054
595	0.053
596	0.053
596	0.054
597	0.055
597	0.055
598	0.056
598	0.056
598	0.057
599	0.057
599	0.057
600	0.056
600	0.056
601	0.055
601	0.055
602	0.053
602	0.053
602	0.052
603	0.052
603	0.053
604	0.053
604	0.053
605	0.054
605	0.054
606	0.054
606	0.054
606	0.053
607	0.053
607	0.053
608	0.053
608	0.052
609	0.051
609	0.051
610	0.051
610	0.05
610	0.051
611	0.052
611	0.053
612	0.054
612	0.056
613	0.057
613	0.058
614	0.059
614	0.059
614	0.059
615	0.059
615	0.059
616	0.059
616	0.059
617	0.059
617	0.058
618	0.058
618	0.057
618	0.057
619	0.058
619	0.058
620	0.059
620	0.06
621	0.06
621	0.06
622	0.06
622	0.06
622	0.06
623	0.06
623	0.061
624	0.061
624	0.061
625	0.061
625	0.061
626	0.061
626	0.062
626	0.062
627	0.063
627	0.064
628	0.064
628	0.065
629	0.065
629	0.065
630	0.065
630	0.064
630	0.065
631	0.065
631	0.065
632	0.065
632	0.065
633	0.065
633	0.066
634	0.067
634	0.068
634	0.07
635	0.07
635	0.071
636	0.072
636	0.073
637	0.073
637	0.074
638	0.075
638	0.076
638	0.077
639	0.077
639	0.077
640	0.078
640	0.079
641	0.08
641	0.081
642	0.081
642	0.083
642	0.083
643	0.084
643	0.085
644	0.086
644	0.087
645	0.088
645	0.09
646	0.091
646	0.093
646	0.095
647	0.096
647	0.098
648	0.099
648	0.1
649	0.102
649	0.104
650	0.105
650	0.107
650	0.109
651	0.11
651	0.111
652	0.112
652	0.113
653	0.115
653	0.12
653	0.12
654	0.097
654	0.079
655	0.08
655	0.081
656	0.082
656	0.083
657	0.085
657	0.086
657	0.087
658	0.085
658	0.084
659	0.105
659	0.133
660	0.139
660	0.141
661	0.142
661	0.144
661	0.145
662	0.147
662	0.149
663	0.15
663	0.151
664	0.153
664	0.154
665	0.155
665	0.156
665	0.157
666	0.158
666	0.159
667	0.16
667	0.161
668	0.163
668	0.164
669	0.166
669	0.167
669	0.169
670	0.171
670	0.172
671	0.173
671	0.174
672	0.175
672	0.176
672	0.177
673	0.178
673	0.18
674	0.181
674	0.182
675	0.183
675	0.185
676	0.187
676	0.188
676	0.19
677	0.191
677	0.192
678	0.193
678	0.193
679	0.194
679	0.194
680	0.195
680	0.196
680	0.196
681	0.197
681	0.198
682	0.198
682	0.199
683	0.2
683	0.201
684	0.201
684	0.201
684	0.2
685	0.2
685	0.2
686	0.2
686	0.2
687	0.199
687	0.199
687	0.199
688	0.199
688	0.199
689	0.2
689	0.2
690	0.201
690	0.201
691	0.201
691	0.201
691	0.201
692	0.2
692	0.2
693	0.2
693	0.2
694	0.199
694	0.198
695	0.198
695	0.199
695	0.198
696	0.197
696	0.197
697	0.196
697	0.196
698	0.195
698	0.194
698	0.193
699	0.192
699	0.191
700	0.189
700	0.188
701	0.187
701	0.186
702	0.185
702	0.184
702	0.183
703	0.181
703	0.18
704	0.178
704	0.177
705	0.176
705	0.175
705	0.174
706	0.173
706	0.172
707	0.171
707	0.17
708	0.169
708	0.168
709	0.167
709	0.166
709	0.165
710	0.164
710	0.163
711	0.162
711	0.161
712	0.16
712	0.159
713	0.158
713	0.156
713	0.155
714	0.153
714	0.151
715	0.15
715	0.148
716	0.146
716	0.144
716	0.142
717	0.14
717	0.138
718	0.136
718	0.134
719	0.133
719	0.132
720	0.13
720	0.128
720	0.127
721	0.125
721	0.124
722	0.123
722	0.121
723	0.12
723	0.119
723	0.118
724	0.118
724	0.117
725	0.116
725	0.115
726	0.115
726	0.115
727	0.114
727	0.113
727	0.113
728	0.111
728	0.11
729	0.109
729	0.108
730	0.107
730	0.105
730	0.104
731	0.103
731	0.102
732	0.101
732	0.1
733	0.099
733	0.098
734	0.097
734	0.096
734	0.096
735	0.096
735	0.095
736	0.094
736	0.093
737	0.092
737	0.091
737	0.09
738	0.088
738	0.086
739	0.085
739	0.084
740	0.082
740	0.081
741	0.08
741	0.079
741	0.078
742	0.077
742	0.076
743	0.076
743	0.076
744	0.075
744	0.075
744	0.074
745	0.073
745	0.071
746	0.07
746	0.069
747	0.068
747	0.067
748	0.066
748	0.065
748	0.064
749	0.064
749	0.063
750	0.063
750	0.063
751	0.063
751	0.063
751	0.063
752	0.062
752	0.062
753	0.061
753	0.061
754	0.061
754	0.06
754	0.06
755	0.06
755	0.06
756	0.06
756	0.058
757	0.058
757	0.058
758	0.058
758	0.057
758	0.057
759	0.057
759	0.056
760	0.055
760	0.054
761	0.053
761	0.053
761	0.053
762	0.052
762	0.052
763	0.051
763	0.049
764	0.048
764	0.047
764	0.046
765	0.045
765	0.043
766	0.042
766	0.042
767	0.041
767	0.038
768	0.037
768	0.035
768	0.034
769	0.033
769	0.032
770	0.031
770	0.029
771	0.028
771	0.026
771	0.024
772	0.023
772	0.022
773	0.021
773	0.019
774	0.018
774	0.017
775	0.016
775	0.016
775	0.015
776	0.015
776	0.014
777	0.014
777	0.014
778	0.013
778	0.012
778	0.011
779	0.01
779	0.01
780	0.008
780	0.006
781	0.004
781	0.002
781	-0.001
782	-0.005
782	-0.008
783	-0.011
783	-0.014
784	-0.018
784	-0.021
784	-0.025
785	-0.029
785	-0.032
786	-0.035
786	-0.038
787	-0.04
787	-0.042
788	-0.046
788	-0.05
788	-0.055
789	-0.06
789	-0.065
790	-0.07
790	-0.076
791	-0.083
791	-0.09
791	-0.096
792	-0.094
792	-0.089
793	-0.088
793	-0.088
794	-0.091
794	-0.095
794	-0.1
795	-0.103
795	-0.104
796	-0.104
796	-0.107
797	-0.116
797	-0.127
797	-0.133
798	-0.139
798	-0.142
799	-0.143
799	-0.142
800	-0.141
800	-0.143
801	-0.146
801	-0.147
801	-0.146
802	-0.147
802	-0.148
803	-0.149
803	-0.149
804	-0.148
804	-0.143
804	-0.136
805	-0.132
805	-0.131
806	-0.129
806	-0.128
807	-0.128
807	-0.128
807	-0.128
808	-0.128
808	-0.129
809	-0.134
809	-0.14
810	-0.144
810	-0.147
810	-0.15
811	-0.153
811	-0.153
812	-0.149
812	-0.146
813	-0.146
813	-0.144
813	-0.141
814	-0.138
814	-0.133
815	-0.125
815	-0.117
816	-0.108
816	-0.1
817	-0.094
817	-0.087
817	-0.077
818	-0.067
818	-0.057
819	-0.049
819	-0.042
820	-0.036
820	-0.031
820	-0.027
821	-0.022
821	-0.017
822	-0.014
822	-0.01
823	-0.007
823	-0.005
823	-0.003
824	-0.001
824	0.002
825	0.004
825	0.007
826	0.009
826	0.011
826	0.012
827	0.014
827	0.015
828	0.017
828	0.018
829	0.019
829	0.019
829	0.02
830	0.02
830	0.02
831	0.021
831	0.021
832	0.021
832	0.021
832	0.021
833	0.022
833	0.022
834	0.022
834	0.023
835	0.023
835	0.023
835	0.023
836	0.024
836	0.024
837	0.025
837	0.025
838	0.026
838	0.026
839	0.026
839	0.026
839	0.026
840	0.026
840	0.026
841	0.025
841	0.025
842	0.024
842	0.024
842	0.024
843	0.024
843	0.024
844	0.024
844	0.024
845	0.024
845	0.024
845	0.024
846	0.024
846	0.024
847	0.024
847	0.024
848	0.024
848	0.024
848	0.024
849	0.024
849	0.025
850	0.025
850	0.025
851	0.025
851	0.026
851	0.026
852	0.026
852	0.026
853	0.026
853	0.025
854	0.025
854	0.025
854	0.025
855	0.025
855	0.025
856	0.024
856	0.024
857	0.023
857	0.023
857	0.023
858	0.023
858	0.023
859	0.023
859	0.023
860	0.023
860	0.024
860	0.024
861	0.025
861	0.025
862	0.026
862	0.026
863	0.026
863	0.027
863	0.027
864	0.027
864	0.028
865	0.028
865	0.029
866	0.029
866	0.029
866	0.03
867	0.031
867	0.031
868	0.032
868	0.032
869	0.032
869	0.032
869	0.032
870	0.032
870	0.032
871	0.032
871	0.031
872	0.031
872	0.031
872	0.031
873	0.032
873	0.031
874	0.031
874	0.031
875	0.03
875	0.03
875	0.029
876	0.028
876	0.027
877	0.026
877	0.025
878	0.024
878	0.023
878	0.022
879	0.022
879	0.021
880	0.021
880	0.02
881	0.02
881	0.02
881	0.021
882	0.021
882	0.021
883	0.022
883	0.022
884	0.022
884	0.022
884	0.021
885	0.021
885	0.021
886	0.021
886	0.021
887	0.02
887	0.02
887	0.02
888	0.02
888	0.021
889	0.021
889	0.022
890	0.023
890	0.023
890	0.023
891	0.024
891	0.024
892	0.025
892	0.026
893	0.027
893	0.027
893	0.028
894	0.028
894	0.028
895	0.028
895	0.028
895	0.027
896	0.027
896	0.026
897	0.026
897	0.025
898	0.025
898	0.024
898	0.023
899	0.023
899	0.023
900	0.023
900	0.023
901	0.023
901	0.024
901	0.024
902	0.025
902	0.025
903	0.026
903	0.026
904	0.027
904	0.027
904	0.028
905	0.028
905	0.028
906	0.028
906	0.028
907	0.028
907	0.028
907	0.028
908	0.028
908	0.028
909	0.029
909	0.029
910	0.03
910	0.03
910	0.03
911	0.03
911	0.031
912	0.031
912	0.031
913	0.031
913	0.031
913	0.03
914	0.029
914	0.029
915	0.028
915	0.028
916	0.027
916	0.025
916	0.024
917	0.023
917	0.021
918	0.019
918	0.018
918	0.016
919	0.015
919	0.014
920	0.013
920	0.012
921	0.012
921	0.012
921	0.012
922	0.012
922	0.013
923	0.013
923	0.014
924	0.015
924	0.015
924	0.016
925	0.017
925	0.018
926	0.019
926	0.02
927	0.02
927	0.02
927	0.021
928	0.02
928	0.02
929	0.02
929	0.019
930	0.019
930	0.018
930	0.017
931	0.016
931	0.016
932	0.015
932	0.015
933	0.014
933	0.014
933	0.013
934	0.013
934	0.012
935	0.012
935	0.012
935	0.011
936	0.011
936	0.01
937	0.011
937	0.01
938	0.011
938	0.011
938	0.011
939	0.012
939	0.012
940	0.013
940	0.013
941	0.014
941	0.014
941	0.015
942	0.016
942	0.017
943	0.018
943	0.018
944	0.019
944	0.019
944	0.02
945	0.02
945	0.021
946	0.021
946	0.021
946	0.022
947	0.022
947	0.022
948	0.023
948	0.023
949	0.024
949	0.024
949	0.025
950	0.025
950	0.025
951	0.025
951	0.025
952	0.025
952	0.025
952	0.024
953	0.023
953	0.022
954	0.022
954	0.021
955	0.02
955	0.02
955	0.02
956	0.02
956	0.02
957	0.02
957	0.02
957	0.02
958	0.02
958	0.02
959	0.021
959	0.021
960	0.021
960	0.021
960	0.021
961	0.021
961	0.021
962	0.022
962	0.022
963	0.022
963	0.023
963	0.022
964	0.022
964	0.022
965	0.022
965	0.021
966	0.021
966	0.021
966	0.02
967	0.02
967	0.019
968	0.018
968	0.018
968	0.018
969	0.018
969	0.018
970	0.017
970	0.017
971	0.017
971	0.018
971	0.018
972	0.018
972	0.018
973	0.018
973	0.018
974	0.018
974	0.019
974	0.019
975	0.019
975	0.02
976	0.02
976	0.021
976	0.021
977	0.022
977	0.022
978	0.022
978	0.023
979	0.023
979	0.024
979	0.024
980	0.023
980	0.023
981	0.022
981	0.022
982	0.022
982	0.021
982	0.02
983	0.019
983	0.018
984	0.018
984	0.017
984	0.016
985	0.016
985	0.015
986	0.014
986	0.014
987	0.013
987	0.013
987	0.013
988	0.013
988	0.013
989	0.013
989	0.013
990	0.013
990	0.014
990	0.014
991	0.015
991	0.015
992	0.016
992	0.016
992	0.016
993	0.016
993	0.016
994	0.016
994	0.016
995	0.016
995	0.016
995	0.016
996	0.016
996	0.016
997	0.016
997	0.016
997	0.016
998	0.016
998	0.017
999	0.017
999	0.018
1000	0.018
1000	0.019
1000	0.02
1001	0.021
1001	0.021
1002	0.022
1002	0.023
1003	0.023
1003	0.023
1003	0.024
1004	0.024
1004	0.023
1005	0.023
1005	0.022
1005	0.022
1006	0.021
1006	0.021
1007	0.02
1007	0.019
1008	0.019
1008	0.018
1008	0.018
1009	0.017
1009	0.017
1010	0.017
1010	0.017
1010	0.016
1011	0.016
1011	0.016
1012	0.016
1012	0.016
1013	0.016
1013	0.015
1013	0.015
1014	0.014
1014	0.013
1015	0.012
1015	0.011
1016	0.01
1016	0.009
1016	0.008
1017	0.007
1017	0.006
1018	0.005
1018	0.005
1018	0.004
1019	0.004
1019	0.003
1020	0.003
1020	0.002
1021	0.002
1021	0.002
1021	0.003
1022	0.003
1022	0.003
1023	0.004
1023	0.004
1023	0.005
1024	0.005
1024	0.005
1025	0.005
1025	0.005
1026	0.005
1026	0.005
1026	0.005
1027	0.005
1027	0.005
1028	0.005
1028	0.004
1028	0.004
1029	0.004
1029	0.004
1030	0.003
1030	0.003
1031	0.003
1031	0.003
1031	0.003
1032	0.003
1032	0.003
1033	0.003
1033	0.003
1033	0.003
1034	0.003
1034	0.003
1035	0.003
1035	0.003
1036	0.003
1036	0.003
1036	0.003
1037	0.004
1037	0.004
1038	0.004
1038	0.004
1039	0.005
1039	0.006
1039	0.006
1040	0.007
1040	0.008
1041	0.009
1041	0.009
1041	0.01
1042	0.01
1042	0.011
1043	0.011
1043	0.011
1044	0.011
1044	0.012
1044	0.012
1045	0.012
1045	0.012
1046	0.012
1046	0.012
1046	0.012
1047	0.012
1047	0.012
1048	0.012
1048	0.012
1049	0.011
1049	0.01
1049	0.009
1050	0.008
1050	0.008
1051	0.007
1051	0.007
1051	0.006
1052	0.005
1052	0.005
1053	0.004
1053	0.004
1053	0.003
1054	0.003
1054	0.002
1055	0.002
1055	0.001
1056	0
1056	-0
1056	-0.001
1057	-0.002
1057	-0.003
1058	-0.003
1058	-0.004
1058	-0.004
1059	-0.004
1059	-0.004
1060	-0.004
1060	-0.004
1061	-0.003
1061	-0.003
1061	-0.003
1062	-0.003
1062	-0.003
1063	-0.003
1063	-0.003
1063	-0.003
1064	-0.003
1064	-0.003
1065	-0.003
1065	-0.003
1066	-0.003
1066	-0.003
1066	-0.002
1067	-0.002
1067	-0.002
1068	-0.002
1068	-0.002
1068	-0.003
1069	-0.003
1069	-0.004
1070	-0.004
1070	-0.005
1071	-0.006
1071	-0.006
1071	-0.008
1072	-0.009
1072	-0.01
1073	-0.011
1073	-0.011
1073	-0.012
1074	-0.012
1074	-0.013
1075	-0.014
1075	-0.015
1076	-0.016
1076	-0.016
1076	-0.016
1077	-0.016
1077	-0.016
1078	-0.016
1078	-0.016
1078	-0.016
1079	-0.016
1079	-0.015
1080	-0.015
1080	-0.015
1080	-0.015
1081	-0.015
1081	-0.014
1082	-0.015
1082	-0.015
1083	-0.015
1083	-0.015
1083	-0.015
1084	-0.015
1084	-0.015
1085	-0.015
1085	-0.015
1085	-0.015
1086	-0.015
1086	-0.015
1087	-0.015
1087	-0.014
1088	-0.015
1088	-0.015
1088	-0.015
1089	-0.016
1089	-0.017
1090	-0.017
1090	-0.017
1090	-0.018
1091	-0.018
1091	-0.018
1092	-0.019
1092	-0.019
1092	-0.019
1093	-0.019
1093	-0.019
1094	-0.019
1094	-0.02
1095	-0.021
1095	-0.021
1095	-0.02
1096	-0.02
1096	-0.021
1097	-0.02
1097	-0.021
1097	-0.021
1098	-0.021
1098	-0.02
1099	-0.019
1099	-0.017
1100	-0.017
1100	-0.017
1100	-0.017
1101	-0.016
1101	-0.015
1102	-0.014
1102	-0.014
1102	-0.013
1103	-0.012
1103	-0.012
1104	-0.01
1104	-0.009
1104	-0.007
1105	-0.004
1105	-0.003
1106	-0.003
1106	-0
1107	0.001
1107	0.003
1107	0.005
1108	0.02
1108	0.036
1109	0.057
1109	0.087
1109	0.105
1110	0.138
1110	0.19
1111	0.296
1111	0.691
