Data from 17c-2a_Absorbance__453__00454.txt Node

Date: Fri Jan 26 10:02:37 CET 2024
User: Marek
Spectrometer: MAYP115816
Trigger mode: 0
Integration Time (sec): 2.000000E-1
Scans to average: 10
Electric dark correction enabled: true
Nonlinearity correction enabled: true
Boxcar width: 5
XAxis mode: Wavelengths
Number of Pixels in Spectrum: 2068
>>>>>Begin Spectral Data<<<<<
199	-1.215
199	-1.085
200	-0.946
200	-0.843
201	-0.78
201	-0.74
202	-0.683
202	-0.64
203	-0.604
203	-0.576
204	-0.554
204	-0.534
205	-0.516
205	-0.507
205	-0.506
206	-0.502
206	-0.5
207	-0.496
207	-0.496
208	-0.496
208	-0.494
209	-0.492
209	-0.49
210	-0.492
210	-0.494
211	-0.494
211	-0.498
212	-0.499
212	-0.499
213	-0.498
213	-0.495
213	-0.497
214	-0.495
214	-0.494
215	-0.488
215	-0.486
216	-0.484
216	-0.483
217	-0.479
217	-0.478
218	-0.474
218	-0.472
219	-0.468
219	-0.467
220	-0.466
220	-0.468
221	-0.466
221	-0.466
221	-0.462
222	-0.458
222	-0.456
223	-0.454
223	-0.452
224	-0.448
224	-0.441
225	-0.435
225	-0.43
226	-0.423
226	-0.413
227	-0.405
227	-0.397
228	-0.384
228	-0.37
229	-0.355
229	-0.338
229	-0.32
230	-0.299
230	-0.276
231	-0.254
231	-0.23
232	-0.206
232	-0.18
233	-0.154
233	-0.129
234	-0.105
234	-0.083
235	-0.061
235	-0.042
236	-0.024
236	-0.007
236	0.009
237	0.023
237	0.035
238	0.046
238	0.056
239	0.065
239	0.073
240	0.08
240	0.087
241	0.093
241	0.098
242	0.103
242	0.108
243	0.112
243	0.116
243	0.119
244	0.123
244	0.126
245	0.129
245	0.131
246	0.134
246	0.136
247	0.139
247	0.141
248	0.143
248	0.146
249	0.148
249	0.15
250	0.152
250	0.154
250	0.156
251	0.158
251	0.16
252	0.162
252	0.164
253	0.166
253	0.167
254	0.169
254	0.17
255	0.172
255	0.173
256	0.174
256	0.175
257	0.177
257	0.177
258	0.178
258	0.179
258	0.179
259	0.18
259	0.181
260	0.181
260	0.181
261	0.181
261	0.182
262	0.181
262	0.181
263	0.181
263	0.181
264	0.18
264	0.18
265	0.18
265	0.179
265	0.178
266	0.177
266	0.177
267	0.176
267	0.175
268	0.174
268	0.173
269	0.171
269	0.17
270	0.169
270	0.167
271	0.166
271	0.164
272	0.163
272	0.161
272	0.16
273	0.158
273	0.156
274	0.155
274	0.153
275	0.151
275	0.15
276	0.148
276	0.147
277	0.145
277	0.143
278	0.141
278	0.14
278	0.138
279	0.136
279	0.134
280	0.132
280	0.131
281	0.129
281	0.127
282	0.125
282	0.124
283	0.122
283	0.121
284	0.119
284	0.118
285	0.117
285	0.115
285	0.114
286	0.112
286	0.111
287	0.11
287	0.109
288	0.107
288	0.106
289	0.105
289	0.104
290	0.103
290	0.102
291	0.101
291	0.1
292	0.099
292	0.098
292	0.097
293	0.096
293	0.096
294	0.095
294	0.094
295	0.094
295	0.093
296	0.092
296	0.092
297	0.092
297	0.091
298	0.091
298	0.091
298	0.09
299	0.09
299	0.09
300	0.089
300	0.089
301	0.089
301	0.088
302	0.088
302	0.088
303	0.088
303	0.087
304	0.087
304	0.087
305	0.087
305	0.086
305	0.086
306	0.086
306	0.086
307	0.085
307	0.085
308	0.085
308	0.084
309	0.084
309	0.084
310	0.083
310	0.083
311	0.083
311	0.083
311	0.083
312	0.083
312	0.083
313	0.082
313	0.082
314	0.082
314	0.082
315	0.082
315	0.081
316	0.081
316	0.081
317	0.081
317	0.081
318	0.08
318	0.08
318	0.08
319	0.08
319	0.079
320	0.079
320	0.079
321	0.078
321	0.078
322	0.078
322	0.078
323	0.077
323	0.077
324	0.077
324	0.076
324	0.076
325	0.076
325	0.076
326	0.076
326	0.076
327	0.075
327	0.075
328	0.075
328	0.075
329	0.075
329	0.074
330	0.074
330	0.074
330	0.073
331	0.073
331	0.073
332	0.073
332	0.072
333	0.072
333	0.072
334	0.072
334	0.072
335	0.072
335	0.072
336	0.072
336	0.071
336	0.071
337	0.071
337	0.071
338	0.071
338	0.07
339	0.07
339	0.07
340	0.07
340	0.07
341	0.069
341	0.069
342	0.069
342	0.069
342	0.069
343	0.068
343	0.068
344	0.068
344	0.068
345	0.068
345	0.068
346	0.068
346	0.068
347	0.068
347	0.067
348	0.067
348	0.067
348	0.067
349	0.067
349	0.066
350	0.066
350	0.066
351	0.066
351	0.066
352	0.066
352	0.066
353	0.066
353	0.066
354	0.066
354	0.065
354	0.065
355	0.065
355	0.065
356	0.065
356	0.065
357	0.064
357	0.064
358	0.064
358	0.064
359	0.064
359	0.064
360	0.065
360	0.065
360	0.065
361	0.065
361	0.065
362	0.065
362	0.065
363	0.065
363	0.065
364	0.065
364	0.065
365	0.065
365	0.065
366	0.065
366	0.065
366	0.066
367	0.065
367	0.065
368	0.065
368	0.065
369	0.065
369	0.065
370	0.065
370	0.065
371	0.064
371	0.064
372	0.064
372	0.064
372	0.064
373	0.064
373	0.064
374	0.064
374	0.065
375	0.065
375	0.065
376	0.065
376	0.065
377	0.066
377	0.066
378	0.066
378	0.066
378	0.066
379	0.066
379	0.066
380	0.066
380	0.066
381	0.066
381	0.066
382	0.065
382	0.065
383	0.065
383	0.065
383	0.065
384	0.065
384	0.065
385	0.065
385	0.065
386	0.065
386	0.065
387	0.065
387	0.065
388	0.065
388	0.065
389	0.065
389	0.065
389	0.065
390	0.065
390	0.065
391	0.065
391	0.066
392	0.066
392	0.066
393	0.066
393	0.066
394	0.066
394	0.066
394	0.066
395	0.066
395	0.066
396	0.066
396	0.066
397	0.066
397	0.066
398	0.066
398	0.066
399	0.066
399	0.066
400	0.065
400	0.065
400	0.065
401	0.065
401	0.065
402	0.065
402	0.065
403	0.065
403	0.065
404	0.065
404	0.065
405	0.065
405	0.065
405	0.065
406	0.065
406	0.065
407	0.065
407	0.065
408	0.065
408	0.065
409	0.065
409	0.065
410	0.065
410	0.065
411	0.065
411	0.065
411	0.065
412	0.065
412	0.065
413	0.065
413	0.065
414	0.065
414	0.065
415	0.065
415	0.065
416	0.065
416	0.065
416	0.065
417	0.064
417	0.065
418	0.065
418	0.065
419	0.065
419	0.065
420	0.066
420	0.066
421	0.066
421	0.066
421	0.066
422	0.066
422	0.066
423	0.066
423	0.066
424	0.066
424	0.066
425	0.066
425	0.066
426	0.066
426	0.066
427	0.066
427	0.066
427	0.066
428	0.066
428	0.066
429	0.067
429	0.067
430	0.067
430	0.067
431	0.067
431	0.067
432	0.067
432	0.067
432	0.066
433	0.066
433	0.066
434	0.066
434	0.066
435	0.066
435	0.066
436	0.066
436	0.067
437	0.066
437	0.066
437	0.067
438	0.067
438	0.067
439	0.067
439	0.066
440	0.066
440	0.066
441	0.066
441	0.066
442	0.066
442	0.066
442	0.066
443	0.066
443	0.066
444	0.066
444	0.066
445	0.067
445	0.067
446	0.067
446	0.067
447	0.067
447	0.067
447	0.067
448	0.067
448	0.067
449	0.068
449	0.068
450	0.068
450	0.068
451	0.068
451	0.068
452	0.068
452	0.068
452	0.068
453	0.067
453	0.067
454	0.067
454	0.067
455	0.067
455	0.067
456	0.067
456	0.067
457	0.067
457	0.067
458	0.067
458	0.067
458	0.068
459	0.068
459	0.068
460	0.068
460	0.068
461	0.068
461	0.068
462	0.068
462	0.068
463	0.068
463	0.068
463	0.069
464	0.068
464	0.068
465	0.069
465	0.069
466	0.069
466	0.069
467	0.069
467	0.069
467	0.069
468	0.068
468	0.068
469	0.068
469	0.068
470	0.068
470	0.068
471	0.068
471	0.068
472	0.068
472	0.068
472	0.069
473	0.069
473	0.07
474	0.07
474	0.07
475	0.07
475	0.07
476	0.07
476	0.071
477	0.071
477	0.071
477	0.071
478	0.071
478	0.071
479	0.071
479	0.071
480	0.071
480	0.072
481	0.072
481	0.072
482	0.073
482	0.073
482	0.074
483	0.075
483	0.076
484	0.077
484	0.077
485	0.078
485	0.078
486	0.078
486	0.079
487	0.079
487	0.079
487	0.079
488	0.079
488	0.079
489	0.079
489	0.079
490	0.079
490	0.079
491	0.079
491	0.08
492	0.08
492	0.081
492	0.081
493	0.081
493	0.082
494	0.082
494	0.083
495	0.084
495	0.084
496	0.085
496	0.085
496	0.086
497	0.086
497	0.087
498	0.088
498	0.088
499	0.089
499	0.089
500	0.09
500	0.09
501	0.091
501	0.091
501	0.092
502	0.093
502	0.093
503	0.094
503	0.094
504	0.095
504	0.095
505	0.096
505	0.097
506	0.097
506	0.098
506	0.098
507	0.099
507	0.099
508	0.1
508	0.1
509	0.101
509	0.101
510	0.102
510	0.102
511	0.102
511	0.103
511	0.103
512	0.104
512	0.104
513	0.104
513	0.104
514	0.104
514	0.104
515	0.104
515	0.104
515	0.104
516	0.104
516	0.105
517	0.105
517	0.105
518	0.106
518	0.105
519	0.106
519	0.106
520	0.105
520	0.105
520	0.105
521	0.105
521	0.104
522	0.103
522	0.103
523	0.102
523	0.102
524	0.102
524	0.103
524	0.103
525	0.103
525	0.103
526	0.104
526	0.104
527	0.105
527	0.105
528	0.106
528	0.106
529	0.106
529	0.106
529	0.105
530	0.105
530	0.105
531	0.105
531	0.104
532	0.104
532	0.103
533	0.103
533	0.102
533	0.102
534	0.101
534	0.101
535	0.1
535	0.1
536	0.099
536	0.099
537	0.098
537	0.098
538	0.097
538	0.096
538	0.096
539	0.096
539	0.095
540	0.094
540	0.094
541	0.093
541	0.093
542	0.092
542	0.091
542	0.091
543	0.09
543	0.089
544	0.088
544	0.088
545	0.087
545	0.087
546	0.087
546	0.086
547	0.085
547	0.085
547	0.084
548	0.084
548	0.083
549	0.083
549	0.083
550	0.082
550	0.081
551	0.08
551	0.08
551	0.08
552	0.079
552	0.079
553	0.078
553	0.078
554	0.077
554	0.076
555	0.075
555	0.074
556	0.073
556	0.072
556	0.071
557	0.07
557	0.069
558	0.068
558	0.067
559	0.066
559	0.065
560	0.065
560	0.064
560	0.064
561	0.064
561	0.064
562	0.063
562	0.063
563	0.062
563	0.061
564	0.061
564	0.06
564	0.06
565	0.059
565	0.059
566	0.058
566	0.057
567	0.057
567	0.057
568	0.057
568	0.057
568	0.057
569	0.057
569	0.057
570	0.057
570	0.057
571	0.057
571	0.057
572	0.057
572	0.056
573	0.056
573	0.056
573	0.055
574	0.055
574	0.054
575	0.054
575	0.055
576	0.055
576	0.053
577	0.053
577	0.052
577	0.052
578	0.052
578	0.052
579	0.053
579	0.053
580	0.052
580	0.051
581	0.049
581	0.049
581	0.049
582	0.049
582	0.049
583	0.049
583	0.048
584	0.047
584	0.045
585	0.045
585	0.045
585	0.045
586	0.045
586	0.045
587	0.044
587	0.043
588	0.042
588	0.042
589	0.042
589	0.042
590	0.042
590	0.042
590	0.043
591	0.043
591	0.043
592	0.043
592	0.043
593	0.043
593	0.043
594	0.042
594	0.042
594	0.042
595	0.042
595	0.041
596	0.041
596	0.042
597	0.044
597	0.044
598	0.044
598	0.045
598	0.045
599	0.045
599	0.045
600	0.045
600	0.044
601	0.044
601	0.043
602	0.042
602	0.042
602	0.041
603	0.041
603	0.042
604	0.042
604	0.042
605	0.043
605	0.044
606	0.044
606	0.044
606	0.043
607	0.043
607	0.043
608	0.043
608	0.042
609	0.041
609	0.041
610	0.04
610	0.04
610	0.04
611	0.041
611	0.042
612	0.043
612	0.044
613	0.046
613	0.047
614	0.047
614	0.047
614	0.048
615	0.048
615	0.048
616	0.048
616	0.048
617	0.047
617	0.047
618	0.046
618	0.046
618	0.046
619	0.047
619	0.047
620	0.048
620	0.048
621	0.048
621	0.048
622	0.049
622	0.049
622	0.049
623	0.049
623	0.049
624	0.049
624	0.049
625	0.049
625	0.05
626	0.05
626	0.05
626	0.051
627	0.051
627	0.052
628	0.053
628	0.053
629	0.053
629	0.053
630	0.053
630	0.053
630	0.054
631	0.054
631	0.054
632	0.053
632	0.053
633	0.054
633	0.054
634	0.055
634	0.056
634	0.057
635	0.057
635	0.058
636	0.058
636	0.059
637	0.059
637	0.06
638	0.06
638	0.061
638	0.061
639	0.061
639	0.061
640	0.062
640	0.062
641	0.062
641	0.063
642	0.063
642	0.064
642	0.064
643	0.065
643	0.066
644	0.066
644	0.067
645	0.069
645	0.07
646	0.071
646	0.072
646	0.074
647	0.075
647	0.077
648	0.078
648	0.079
649	0.081
649	0.082
650	0.083
650	0.085
650	0.086
651	0.087
651	0.088
652	0.089
652	0.089
653	0.09
653	0.095
653	0.092
654	0.074
654	0.061
655	0.062
655	0.063
656	0.064
656	0.065
657	0.066
657	0.067
657	0.067
658	0.066
658	0.067
659	0.083
659	0.105
660	0.109
660	0.111
661	0.112
661	0.113
661	0.115
662	0.116
662	0.118
663	0.119
663	0.12
664	0.121
664	0.122
665	0.123
665	0.124
665	0.125
666	0.126
666	0.127
667	0.127
667	0.128
668	0.129
668	0.13
669	0.131
669	0.132
669	0.133
670	0.134
670	0.135
671	0.136
671	0.137
672	0.138
672	0.138
672	0.139
673	0.14
673	0.141
674	0.142
674	0.143
675	0.144
675	0.146
676	0.148
676	0.149
676	0.15
677	0.151
677	0.152
678	0.152
678	0.153
679	0.153
679	0.153
680	0.154
680	0.155
680	0.155
681	0.156
681	0.156
682	0.157
682	0.157
683	0.159
683	0.159
684	0.16
684	0.16
684	0.16
685	0.16
685	0.16
686	0.16
686	0.159
687	0.159
687	0.158
687	0.158
688	0.158
688	0.158
689	0.159
689	0.159
690	0.159
690	0.159
691	0.16
691	0.16
691	0.16
692	0.16
692	0.159
693	0.159
693	0.159
694	0.158
694	0.158
695	0.158
695	0.159
695	0.158
696	0.158
696	0.158
697	0.157
697	0.157
698	0.156
698	0.155
698	0.155
699	0.154
699	0.153
700	0.151
700	0.15
701	0.15
701	0.149
702	0.148
702	0.147
702	0.146
703	0.145
703	0.144
704	0.143
704	0.142
705	0.141
705	0.14
705	0.139
706	0.138
706	0.138
707	0.137
707	0.136
708	0.135
708	0.134
709	0.134
709	0.133
709	0.132
710	0.131
710	0.13
711	0.129
711	0.128
712	0.127
712	0.126
713	0.125
713	0.124
713	0.123
714	0.122
714	0.121
715	0.12
715	0.118
716	0.117
716	0.115
716	0.114
717	0.113
717	0.111
718	0.11
718	0.108
719	0.107
719	0.106
720	0.105
720	0.104
720	0.102
721	0.101
721	0.1
722	0.099
722	0.098
723	0.097
723	0.097
723	0.096
724	0.095
724	0.095
725	0.094
725	0.094
726	0.093
726	0.093
727	0.092
727	0.092
727	0.092
728	0.091
728	0.09
729	0.09
729	0.089
730	0.088
730	0.086
730	0.085
731	0.084
731	0.083
732	0.082
732	0.081
733	0.081
733	0.08
734	0.079
734	0.079
734	0.078
735	0.079
735	0.078
736	0.077
736	0.077
737	0.075
737	0.075
737	0.074
738	0.072
738	0.07
739	0.069
739	0.067
740	0.066
740	0.065
741	0.065
741	0.064
741	0.063
742	0.062
742	0.062
743	0.062
743	0.061
744	0.061
744	0.061
744	0.06
745	0.059
745	0.057
746	0.056
746	0.056
747	0.055
747	0.054
748	0.053
748	0.053
748	0.052
749	0.051
749	0.051
750	0.051
750	0.051
751	0.051
751	0.051
751	0.051
752	0.05
752	0.05
753	0.05
753	0.05
754	0.05
754	0.049
754	0.049
755	0.049
755	0.05
756	0.049
756	0.048
757	0.048
757	0.048
758	0.048
758	0.047
758	0.048
759	0.048
759	0.047
760	0.046
760	0.045
761	0.045
761	0.045
761	0.045
762	0.044
762	0.043
763	0.042
763	0.041
764	0.039
764	0.038
764	0.037
765	0.036
765	0.035
766	0.034
766	0.033
767	0.033
767	0.031
768	0.029
768	0.028
768	0.028
769	0.027
769	0.026
770	0.024
770	0.023
771	0.021
771	0.019
771	0.018
772	0.017
772	0.016
773	0.015
773	0.013
774	0.012
774	0.011
775	0.011
775	0.011
775	0.01
776	0.01
776	0.01
777	0.01
777	0.01
778	0.009
778	0.008
778	0.007
779	0.007
779	0.006
780	0.004
780	0.003
781	0.001
781	-0.001
781	-0.004
782	-0.007
782	-0.01
783	-0.013
783	-0.016
784	-0.019
784	-0.023
784	-0.026
785	-0.029
785	-0.033
786	-0.036
786	-0.038
787	-0.04
787	-0.043
788	-0.047
788	-0.051
788	-0.055
789	-0.06
789	-0.065
790	-0.07
790	-0.076
791	-0.083
791	-0.09
791	-0.095
792	-0.094
792	-0.088
793	-0.087
793	-0.088
794	-0.09
794	-0.095
794	-0.099
795	-0.103
795	-0.104
796	-0.104
796	-0.107
797	-0.116
797	-0.127
797	-0.133
798	-0.139
798	-0.142
799	-0.143
799	-0.142
800	-0.142
800	-0.143
801	-0.146
801	-0.147
801	-0.146
802	-0.147
802	-0.148
803	-0.149
803	-0.149
804	-0.148
804	-0.143
804	-0.136
805	-0.132
805	-0.131
806	-0.129
806	-0.128
807	-0.128
807	-0.128
807	-0.128
808	-0.128
808	-0.129
809	-0.134
809	-0.14
810	-0.144
810	-0.147
810	-0.15
811	-0.153
811	-0.153
812	-0.149
812	-0.146
813	-0.145
813	-0.143
813	-0.139
814	-0.135
814	-0.13
815	-0.121
815	-0.112
816	-0.103
816	-0.095
817	-0.089
817	-0.081
817	-0.071
818	-0.061
818	-0.052
819	-0.044
819	-0.037
820	-0.032
820	-0.027
820	-0.023
821	-0.018
821	-0.014
822	-0.011
822	-0.008
823	-0.006
823	-0.004
823	-0.002
824	-0
824	0.002
825	0.005
825	0.007
826	0.01
826	0.011
826	0.013
827	0.015
827	0.016
828	0.018
828	0.019
829	0.019
829	0.02
829	0.02
830	0.019
830	0.019
831	0.02
831	0.02
832	0.019
832	0.019
832	0.02
833	0.02
833	0.02
834	0.021
834	0.021
835	0.021
835	0.021
835	0.021
836	0.022
836	0.022
837	0.022
837	0.023
838	0.023
838	0.023
839	0.023
839	0.023
839	0.023
840	0.023
840	0.022
841	0.022
841	0.022
842	0.022
842	0.022
842	0.021
843	0.021
843	0.021
844	0.022
844	0.022
845	0.022
845	0.023
845	0.023
846	0.023
846	0.023
847	0.023
847	0.023
848	0.023
848	0.023
848	0.023
849	0.023
849	0.023
850	0.023
850	0.023
851	0.023
851	0.023
851	0.023
852	0.023
852	0.023
853	0.023
853	0.023
854	0.023
854	0.023
854	0.024
855	0.024
855	0.024
856	0.024
856	0.023
857	0.023
857	0.023
857	0.022
858	0.022
858	0.022
859	0.022
859	0.022
860	0.022
860	0.022
860	0.022
861	0.023
861	0.024
862	0.024
862	0.025
863	0.026
863	0.026
863	0.027
864	0.028
864	0.028
865	0.029
865	0.029
866	0.03
866	0.03
866	0.031
867	0.031
867	0.031
868	0.031
868	0.031
869	0.031
869	0.031
869	0.031
870	0.031
870	0.03
871	0.031
871	0.03
872	0.03
872	0.03
872	0.031
873	0.031
873	0.031
874	0.031
874	0.031
875	0.03
875	0.03
875	0.029
876	0.028
876	0.027
877	0.026
877	0.025
878	0.024
878	0.023
878	0.022
879	0.022
879	0.021
880	0.021
880	0.02
881	0.02
881	0.02
881	0.02
882	0.021
882	0.021
883	0.021
883	0.021
884	0.021
884	0.021
884	0.021
885	0.021
885	0.021
886	0.021
886	0.021
887	0.021
887	0.021
887	0.021
888	0.021
888	0.022
889	0.022
889	0.023
890	0.024
890	0.024
890	0.025
891	0.025
891	0.026
892	0.026
892	0.027
893	0.027
893	0.027
893	0.028
894	0.028
894	0.027
895	0.026
895	0.026
895	0.025
896	0.024
896	0.023
897	0.022
897	0.021
898	0.021
898	0.02
898	0.02
899	0.019
899	0.02
900	0.02
900	0.02
901	0.02
901	0.021
901	0.021
902	0.022
902	0.022
903	0.023
903	0.023
904	0.024
904	0.024
904	0.025
905	0.026
905	0.026
906	0.026
906	0.027
907	0.027
907	0.027
907	0.027
908	0.028
908	0.028
909	0.029
909	0.03
910	0.031
910	0.031
910	0.032
911	0.032
911	0.032
912	0.033
912	0.033
913	0.033
913	0.032
913	0.031
914	0.031
914	0.03
915	0.029
915	0.028
916	0.027
916	0.025
916	0.024
917	0.022
917	0.02
918	0.018
918	0.017
918	0.015
919	0.014
919	0.013
920	0.012
920	0.011
921	0.011
921	0.011
921	0.011
922	0.011
922	0.012
923	0.012
923	0.013
924	0.014
924	0.014
924	0.015
925	0.016
925	0.017
926	0.018
926	0.019
927	0.019
927	0.019
927	0.019
928	0.019
928	0.019
929	0.019
929	0.018
930	0.017
930	0.016
930	0.015
931	0.014
931	0.013
932	0.013
932	0.012
933	0.012
933	0.011
933	0.011
934	0.011
934	0.011
935	0.01
935	0.01
935	0.01
936	0.01
936	0.01
937	0.01
937	0.01
938	0.01
938	0.009
938	0.009
939	0.01
939	0.01
940	0.01
940	0.011
941	0.011
941	0.012
941	0.013
942	0.015
942	0.016
943	0.017
943	0.018
944	0.018
944	0.019
944	0.02
945	0.02
945	0.021
946	0.021
946	0.021
946	0.021
947	0.021
947	0.021
948	0.022
948	0.022
949	0.022
949	0.022
949	0.022
950	0.023
950	0.023
951	0.023
951	0.022
952	0.022
952	0.022
952	0.021
953	0.02
953	0.02
954	0.019
954	0.018
955	0.018
955	0.018
955	0.018
956	0.018
956	0.018
957	0.018
957	0.018
957	0.018
958	0.019
958	0.019
959	0.02
959	0.02
960	0.02
960	0.02
960	0.02
961	0.021
961	0.021
962	0.021
962	0.022
963	0.023
963	0.023
963	0.024
964	0.024
964	0.024
965	0.024
965	0.024
966	0.024
966	0.024
966	0.023
967	0.023
967	0.022
968	0.021
968	0.021
968	0.02
969	0.019
969	0.019
970	0.018
970	0.018
971	0.017
971	0.017
971	0.017
972	0.017
972	0.016
973	0.016
973	0.016
974	0.016
974	0.017
974	0.017
975	0.018
975	0.019
976	0.02
976	0.021
976	0.022
977	0.023
977	0.024
978	0.025
978	0.025
979	0.026
979	0.026
979	0.026
980	0.026
980	0.025
981	0.025
981	0.024
982	0.024
982	0.023
982	0.022
983	0.021
983	0.02
984	0.019
984	0.019
984	0.018
985	0.017
985	0.017
986	0.016
986	0.015
987	0.015
987	0.015
987	0.015
988	0.015
988	0.015
989	0.015
989	0.015
990	0.016
990	0.016
990	0.017
991	0.017
991	0.018
992	0.018
992	0.019
992	0.019
993	0.019
993	0.019
994	0.019
994	0.019
995	0.019
995	0.019
995	0.019
996	0.018
996	0.018
997	0.018
997	0.018
997	0.018
998	0.018
998	0.019
999	0.019
999	0.02
1000	0.02
1000	0.021
1000	0.021
1001	0.022
1001	0.023
1002	0.024
1002	0.024
1003	0.024
1003	0.024
1003	0.024
1004	0.024
1004	0.024
1005	0.023
1005	0.022
1005	0.022
1006	0.021
1006	0.02
1007	0.02
1007	0.019
1008	0.018
1008	0.017
1008	0.017
1009	0.016
1009	0.016
1010	0.016
1010	0.016
1010	0.015
1011	0.015
1011	0.015
1012	0.015
1012	0.014
1013	0.014
1013	0.013
1013	0.013
1014	0.012
1014	0.011
1015	0.01
1015	0.009
1016	0.008
1016	0.007
1016	0.006
1017	0.005
1017	0.004
1018	0.004
1018	0.003
1018	0.003
1019	0.002
1019	0.002
1020	0.002
1020	0.002
1021	0.002
1021	0.002
1021	0.002
1022	0.003
1022	0.003
1023	0.004
1023	0.004
1023	0.005
1024	0.005
1024	0.005
1025	0.005
1025	0.006
1026	0.006
1026	0.006
1026	0.006
1027	0.006
1027	0.006
1028	0.006
1028	0.006
1028	0.005
1029	0.005
1029	0.005
1030	0.005
1030	0.004
1031	0.004
1031	0.004
1031	0.004
1032	0.004
1032	0.003
1033	0.003
1033	0.003
1033	0.003
1034	0.003
1034	0.002
1035	0.002
1035	0.002
1036	0.002
1036	0.002
1036	0.002
1037	0.002
1037	0.002
1038	0.002
1038	0.003
1039	0.003
1039	0.004
1039	0.005
1040	0.005
1040	0.006
1041	0.007
1041	0.008
1041	0.009
1042	0.01
1042	0.01
1043	0.011
1043	0.011
1044	0.012
1044	0.013
1044	0.013
1045	0.014
1045	0.014
1046	0.014
1046	0.013
1046	0.013
1047	0.013
1047	0.013
1048	0.013
1048	0.013
1049	0.012
1049	0.011
1049	0.011
1050	0.01
1050	0.01
1051	0.009
1051	0.009
1051	0.008
1052	0.008
1052	0.007
1053	0.007
1053	0.006
1053	0.006
1054	0.005
1054	0.005
1055	0.004
1055	0.004
1056	0.003
1056	0.002
1056	0.001
1057	0
1057	-0
1058	-0.001
1058	-0.001
1058	-0.001
1059	-0.001
1059	-0.001
1060	-0.001
1060	-0.001
1061	-0
1061	0
1061	0.001
1062	0.001
1062	0.001
1063	0.001
1063	0.001
1063	0.001
1064	0.001
1064	0.002
1065	0.002
1065	0.002
1066	0.002
1066	0.002
1066	0.003
1067	0.002
1067	0.003
1068	0.003
1068	0.002
1068	0.002
1069	0.001
1069	0
1070	-0.001
1070	-0.002
1071	-0.003
1071	-0.003
1071	-0.005
1072	-0.006
1072	-0.007
1073	-0.008
1073	-0.009
1073	-0.009
1074	-0.01
1074	-0.01
1075	-0.011
1075	-0.011
1076	-0.012
1076	-0.012
1076	-0.012
1077	-0.012
1077	-0.012
1078	-0.012
1078	-0.013
1078	-0.013
1079	-0.013
1079	-0.012
1080	-0.012
1080	-0.012
1080	-0.012
1081	-0.012
1081	-0.011
1082	-0.011
1082	-0.012
1083	-0.012
1083	-0.011
1083	-0.011
1084	-0.011
1084	-0.012
1085	-0.011
1085	-0.011
1085	-0.011
1086	-0.011
1086	-0.012
1087	-0.011
1087	-0.01
1088	-0.011
1088	-0.011
1088	-0.011
1089	-0.012
1089	-0.012
1090	-0.013
1090	-0.013
1090	-0.013
1091	-0.013
1091	-0.013
1092	-0.014
1092	-0.013
1092	-0.012
1093	-0.012
1093	-0.011
1094	-0.011
1094	-0.011
1095	-0.012
1095	-0.013
1095	-0.012
1096	-0.012
1096	-0.011
1097	-0.011
1097	-0.011
1097	-0.011
1098	-0.011
1098	-0.01
1099	-0.009
1099	-0.008
1100	-0.006
1100	-0.006
1100	-0.006
1101	-0.006
1101	-0.006
1102	-0.005
1102	-0.004
1102	-0.003
1103	-0.003
1103	-0.002
1104	-0
1104	0.002
1104	0.005
1105	0.008
1105	0.009
1106	0.011
1106	0.014
1107	0.015
1107	0.018
1107	0.021
1108	0.035
1108	0.053
1109	0.074
1109	0.103
1109	0.122
1110	0.157
1110	0.211
1111	0.323
1111	0.762
