Data from 17c-2a_Absorbance__42__00043.txt Node

Date: Fri Jan 26 09:48:55 CET 2024
User: Marek
Spectrometer: MAYP115816
Trigger mode: 0
Integration Time (sec): 2.000000E-1
Scans to average: 10
Electric dark correction enabled: true
Nonlinearity correction enabled: true
Boxcar width: 5
XAxis mode: Wavelengths
Number of Pixels in Spectrum: 2068
>>>>>Begin Spectral Data<<<<<
199	-1.14
199	-1.009
200	-0.871
200	-0.769
201	-0.707
201	-0.669
202	-0.612
202	-0.569
203	-0.533
203	-0.503
204	-0.484
204	-0.466
205	-0.45
205	-0.443
205	-0.441
206	-0.436
206	-0.434
207	-0.43
207	-0.43
208	-0.43
208	-0.428
209	-0.426
209	-0.423
210	-0.424
210	-0.424
211	-0.425
211	-0.427
212	-0.428
212	-0.428
213	-0.426
213	-0.423
213	-0.424
214	-0.422
214	-0.421
215	-0.417
215	-0.414
216	-0.411
216	-0.41
217	-0.407
217	-0.405
218	-0.402
218	-0.401
219	-0.396
219	-0.394
220	-0.393
220	-0.395
221	-0.392
221	-0.392
221	-0.389
222	-0.385
222	-0.382
223	-0.379
223	-0.377
224	-0.374
224	-0.369
225	-0.364
225	-0.358
226	-0.352
226	-0.343
227	-0.336
227	-0.328
228	-0.317
228	-0.306
229	-0.293
229	-0.278
229	-0.262
230	-0.244
230	-0.225
231	-0.206
231	-0.185
232	-0.165
232	-0.144
233	-0.123
233	-0.102
234	-0.083
234	-0.066
235	-0.048
235	-0.033
236	-0.019
236	-0.006
236	0.007
237	0.018
237	0.028
238	0.036
238	0.044
239	0.051
239	0.057
240	0.063
240	0.068
241	0.073
241	0.077
242	0.08
242	0.084
243	0.088
243	0.09
243	0.094
244	0.096
244	0.099
245	0.101
245	0.104
246	0.106
246	0.109
247	0.111
247	0.113
248	0.115
248	0.117
249	0.119
249	0.121
250	0.123
250	0.125
250	0.127
251	0.129
251	0.131
252	0.133
252	0.134
253	0.136
253	0.138
254	0.139
254	0.14
255	0.141
255	0.143
256	0.144
256	0.145
257	0.147
257	0.147
258	0.148
258	0.149
258	0.15
259	0.15
259	0.151
260	0.151
260	0.151
261	0.152
261	0.152
262	0.152
262	0.151
263	0.151
263	0.151
264	0.151
264	0.15
265	0.15
265	0.149
265	0.149
266	0.148
266	0.147
267	0.146
267	0.145
268	0.144
268	0.143
269	0.142
269	0.141
270	0.139
270	0.138
271	0.136
271	0.135
272	0.134
272	0.132
272	0.131
273	0.129
273	0.128
274	0.126
274	0.124
275	0.123
275	0.122
276	0.12
276	0.119
277	0.117
277	0.115
278	0.114
278	0.112
278	0.11
279	0.108
279	0.107
280	0.105
280	0.103
281	0.102
281	0.1
282	0.098
282	0.097
283	0.096
283	0.094
284	0.093
284	0.091
285	0.09
285	0.089
285	0.087
286	0.086
286	0.085
287	0.083
287	0.082
288	0.081
288	0.08
289	0.079
289	0.077
290	0.076
290	0.076
291	0.075
291	0.074
292	0.073
292	0.072
292	0.071
293	0.071
293	0.07
294	0.069
294	0.069
295	0.068
295	0.068
296	0.067
296	0.067
297	0.066
297	0.066
298	0.066
298	0.066
298	0.065
299	0.065
299	0.065
300	0.064
300	0.064
301	0.064
301	0.064
302	0.064
302	0.063
303	0.063
303	0.063
304	0.063
304	0.063
305	0.063
305	0.062
305	0.062
306	0.062
306	0.062
307	0.062
307	0.061
308	0.061
308	0.061
309	0.061
309	0.06
310	0.06
310	0.06
311	0.06
311	0.06
311	0.06
312	0.06
312	0.06
313	0.06
313	0.059
314	0.059
314	0.059
315	0.059
315	0.059
316	0.059
316	0.059
317	0.059
317	0.058
318	0.058
318	0.058
318	0.058
319	0.058
319	0.058
320	0.058
320	0.057
321	0.057
321	0.057
322	0.057
322	0.056
323	0.056
323	0.056
324	0.055
324	0.055
324	0.055
325	0.055
325	0.055
326	0.055
326	0.055
327	0.055
327	0.054
328	0.054
328	0.054
329	0.054
329	0.054
330	0.054
330	0.053
330	0.053
331	0.053
331	0.053
332	0.053
332	0.053
333	0.053
333	0.053
334	0.052
334	0.052
335	0.052
335	0.052
336	0.052
336	0.051
336	0.051
337	0.051
337	0.051
338	0.051
338	0.051
339	0.051
339	0.051
340	0.05
340	0.05
341	0.05
341	0.05
342	0.05
342	0.05
342	0.05
343	0.05
343	0.05
344	0.05
344	0.05
345	0.05
345	0.05
346	0.049
346	0.049
347	0.049
347	0.049
348	0.049
348	0.048
348	0.048
349	0.048
349	0.048
350	0.048
350	0.048
351	0.048
351	0.048
352	0.047
352	0.048
353	0.048
353	0.048
354	0.048
354	0.048
354	0.048
355	0.048
355	0.047
356	0.047
356	0.047
357	0.047
357	0.047
358	0.047
358	0.047
359	0.047
359	0.047
360	0.047
360	0.047
360	0.047
361	0.047
361	0.047
362	0.047
362	0.047
363	0.047
363	0.047
364	0.047
364	0.047
365	0.047
365	0.048
366	0.048
366	0.048
366	0.048
367	0.048
367	0.048
368	0.048
368	0.048
369	0.048
369	0.048
370	0.047
370	0.047
371	0.047
371	0.047
372	0.047
372	0.047
372	0.047
373	0.047
373	0.047
374	0.047
374	0.047
375	0.047
375	0.047
376	0.047
376	0.048
377	0.048
377	0.048
378	0.048
378	0.048
378	0.048
379	0.048
379	0.048
380	0.048
380	0.048
381	0.048
381	0.048
382	0.048
382	0.048
383	0.048
383	0.048
383	0.048
384	0.048
384	0.048
385	0.048
385	0.048
386	0.048
386	0.048
387	0.048
387	0.048
388	0.048
388	0.048
389	0.048
389	0.049
389	0.049
390	0.049
390	0.049
391	0.049
391	0.049
392	0.049
392	0.049
393	0.049
393	0.049
394	0.049
394	0.049
394	0.049
395	0.049
395	0.049
396	0.049
396	0.049
397	0.049
397	0.048
398	0.049
398	0.049
399	0.049
399	0.048
400	0.049
400	0.048
400	0.048
401	0.048
401	0.048
402	0.048
402	0.048
403	0.048
403	0.048
404	0.048
404	0.048
405	0.048
405	0.048
405	0.048
406	0.048
406	0.048
407	0.048
407	0.048
408	0.048
408	0.048
409	0.048
409	0.048
410	0.049
410	0.049
411	0.049
411	0.049
411	0.049
412	0.049
412	0.049
413	0.049
413	0.049
414	0.049
414	0.049
415	0.049
415	0.048
416	0.049
416	0.048
416	0.048
417	0.048
417	0.049
418	0.049
418	0.049
419	0.049
419	0.049
420	0.049
420	0.05
421	0.05
421	0.05
421	0.05
422	0.05
422	0.05
423	0.05
423	0.05
424	0.05
424	0.05
425	0.05
425	0.05
426	0.05
426	0.05
427	0.05
427	0.05
427	0.05
428	0.05
428	0.05
429	0.05
429	0.05
430	0.05
430	0.05
431	0.05
431	0.05
432	0.05
432	0.05
432	0.05
433	0.05
433	0.05
434	0.05
434	0.05
435	0.05
435	0.05
436	0.05
436	0.05
437	0.05
437	0.05
437	0.05
438	0.05
438	0.05
439	0.05
439	0.05
440	0.049
440	0.049
441	0.049
441	0.049
442	0.049
442	0.049
442	0.049
443	0.05
443	0.05
444	0.05
444	0.05
445	0.05
445	0.05
446	0.05
446	0.05
447	0.05
447	0.05
447	0.05
448	0.051
448	0.051
449	0.051
449	0.051
450	0.051
450	0.051
451	0.051
451	0.051
452	0.051
452	0.051
452	0.051
453	0.051
453	0.051
454	0.051
454	0.051
455	0.051
455	0.051
456	0.05
456	0.05
457	0.05
457	0.05
458	0.05
458	0.051
458	0.051
459	0.051
459	0.052
460	0.052
460	0.052
461	0.052
461	0.052
462	0.052
462	0.052
463	0.053
463	0.053
463	0.053
464	0.053
464	0.053
465	0.053
465	0.053
466	0.053
466	0.053
467	0.053
467	0.052
467	0.052
468	0.052
468	0.052
469	0.052
469	0.052
470	0.052
470	0.052
471	0.052
471	0.052
472	0.052
472	0.052
472	0.052
473	0.053
473	0.053
474	0.053
474	0.053
475	0.053
475	0.053
476	0.053
476	0.053
477	0.053
477	0.053
477	0.053
478	0.053
478	0.053
479	0.053
479	0.054
480	0.054
480	0.054
481	0.054
481	0.055
482	0.055
482	0.055
482	0.056
483	0.056
483	0.057
484	0.057
484	0.058
485	0.058
485	0.058
486	0.059
486	0.059
487	0.059
487	0.059
487	0.059
488	0.059
488	0.059
489	0.059
489	0.06
490	0.06
490	0.06
491	0.06
491	0.06
492	0.061
492	0.061
492	0.061
493	0.061
493	0.061
494	0.062
494	0.062
495	0.062
495	0.063
496	0.063
496	0.064
496	0.064
497	0.064
497	0.065
498	0.066
498	0.066
499	0.067
499	0.067
500	0.068
500	0.068
501	0.068
501	0.068
501	0.069
502	0.069
502	0.07
503	0.07
503	0.07
504	0.071
504	0.071
505	0.072
505	0.072
506	0.073
506	0.073
506	0.073
507	0.074
507	0.074
508	0.074
508	0.075
509	0.075
509	0.075
510	0.076
510	0.076
511	0.076
511	0.077
511	0.077
512	0.077
512	0.077
513	0.077
513	0.077
514	0.077
514	0.077
515	0.077
515	0.077
515	0.077
516	0.077
516	0.077
517	0.077
517	0.078
518	0.078
518	0.078
519	0.078
519	0.078
520	0.078
520	0.078
520	0.077
521	0.077
521	0.076
522	0.076
522	0.075
523	0.075
523	0.075
524	0.074
524	0.074
524	0.074
525	0.074
525	0.075
526	0.075
526	0.075
527	0.075
527	0.075
528	0.076
528	0.076
529	0.076
529	0.076
529	0.076
530	0.076
530	0.076
531	0.076
531	0.076
532	0.076
532	0.076
533	0.075
533	0.075
533	0.075
534	0.074
534	0.073
535	0.073
535	0.072
536	0.072
536	0.071
537	0.071
537	0.07
538	0.07
538	0.069
538	0.069
539	0.069
539	0.068
540	0.068
540	0.068
541	0.067
541	0.067
542	0.067
542	0.066
542	0.066
543	0.065
543	0.065
544	0.064
544	0.064
545	0.064
545	0.063
546	0.063
546	0.063
547	0.063
547	0.062
547	0.062
548	0.062
548	0.062
549	0.061
549	0.061
550	0.061
550	0.06
551	0.059
551	0.059
551	0.058
552	0.058
552	0.058
553	0.058
553	0.057
554	0.057
554	0.056
555	0.056
555	0.055
556	0.054
556	0.054
556	0.053
557	0.052
557	0.052
558	0.051
558	0.05
559	0.05
559	0.05
560	0.05
560	0.049
560	0.049
561	0.049
561	0.049
562	0.049
562	0.048
563	0.048
563	0.047
564	0.047
564	0.046
564	0.046
565	0.045
565	0.045
566	0.044
566	0.044
567	0.043
567	0.043
568	0.044
568	0.044
568	0.044
569	0.044
569	0.044
570	0.044
570	0.044
571	0.044
571	0.044
572	0.044
572	0.044
573	0.043
573	0.043
573	0.042
574	0.042
574	0.042
575	0.042
575	0.042
576	0.042
576	0.041
577	0.041
577	0.041
577	0.041
578	0.041
578	0.041
579	0.041
579	0.042
580	0.041
580	0.04
581	0.04
581	0.04
581	0.04
582	0.039
582	0.039
583	0.039
583	0.039
584	0.038
584	0.037
585	0.037
585	0.037
585	0.037
586	0.037
586	0.037
587	0.036
587	0.036
588	0.035
588	0.035
589	0.035
589	0.035
590	0.035
590	0.035
590	0.036
591	0.036
591	0.036
592	0.036
592	0.036
593	0.036
593	0.036
594	0.035
594	0.035
594	0.035
595	0.034
595	0.034
596	0.034
596	0.035
597	0.036
597	0.036
598	0.037
598	0.038
598	0.038
599	0.039
599	0.039
600	0.039
600	0.039
601	0.039
601	0.038
602	0.038
602	0.037
602	0.037
603	0.037
603	0.037
604	0.038
604	0.038
605	0.038
605	0.039
606	0.039
606	0.039
606	0.038
607	0.038
607	0.038
608	0.037
608	0.037
609	0.036
609	0.036
610	0.036
610	0.035
610	0.036
611	0.036
611	0.037
612	0.038
612	0.038
613	0.039
613	0.04
614	0.04
614	0.04
614	0.041
615	0.041
615	0.041
616	0.041
616	0.041
617	0.041
617	0.041
618	0.041
618	0.041
618	0.041
619	0.041
619	0.041
620	0.041
620	0.041
621	0.042
621	0.042
622	0.042
622	0.042
622	0.042
623	0.042
623	0.043
624	0.043
624	0.043
625	0.043
625	0.044
626	0.044
626	0.044
626	0.045
627	0.045
627	0.045
628	0.046
628	0.046
629	0.047
629	0.047
630	0.047
630	0.047
630	0.047
631	0.048
631	0.047
632	0.047
632	0.047
633	0.047
633	0.047
634	0.048
634	0.048
634	0.049
635	0.049
635	0.05
636	0.05
636	0.05
637	0.051
637	0.051
638	0.052
638	0.052
638	0.053
639	0.053
639	0.053
640	0.054
640	0.054
641	0.055
641	0.056
642	0.056
642	0.057
642	0.058
643	0.059
643	0.059
644	0.06
644	0.06
645	0.061
645	0.062
646	0.063
646	0.064
646	0.065
647	0.066
647	0.067
648	0.068
648	0.069
649	0.07
649	0.071
650	0.073
650	0.074
650	0.075
651	0.076
651	0.077
652	0.078
652	0.078
653	0.079
653	0.082
653	0.075
654	0.061
654	0.05
655	0.051
655	0.052
656	0.052
656	0.053
657	0.054
657	0.055
657	0.056
658	0.055
658	0.06
659	0.074
659	0.093
660	0.096
660	0.097
661	0.098
661	0.099
661	0.1
662	0.101
662	0.102
663	0.103
663	0.104
664	0.105
664	0.106
665	0.107
665	0.107
665	0.108
666	0.109
666	0.11
667	0.111
667	0.112
668	0.112
668	0.113
669	0.114
669	0.115
669	0.116
670	0.117
670	0.118
671	0.119
671	0.119
672	0.12
672	0.12
672	0.121
673	0.121
673	0.122
674	0.123
674	0.123
675	0.125
675	0.126
676	0.128
676	0.129
676	0.13
677	0.131
677	0.132
678	0.133
678	0.134
679	0.134
679	0.135
680	0.136
680	0.136
680	0.137
681	0.137
681	0.137
682	0.138
682	0.138
683	0.139
683	0.14
684	0.14
684	0.14
684	0.14
685	0.14
685	0.14
686	0.139
686	0.139
687	0.138
687	0.138
687	0.138
688	0.137
688	0.137
689	0.138
689	0.138
690	0.138
690	0.138
691	0.138
691	0.138
691	0.138
692	0.138
692	0.137
693	0.137
693	0.137
694	0.137
694	0.136
695	0.136
695	0.137
695	0.136
696	0.136
696	0.135
697	0.135
697	0.134
698	0.134
698	0.133
698	0.132
699	0.132
699	0.13
700	0.129
700	0.129
701	0.128
701	0.128
702	0.127
702	0.126
702	0.125
703	0.124
703	0.123
704	0.122
704	0.122
705	0.121
705	0.121
705	0.121
706	0.12
706	0.12
707	0.12
707	0.12
708	0.119
708	0.119
709	0.119
709	0.118
709	0.118
710	0.117
710	0.116
711	0.115
711	0.114
712	0.113
712	0.112
713	0.111
713	0.11
713	0.109
714	0.108
714	0.106
715	0.105
715	0.103
716	0.102
716	0.101
716	0.1
717	0.099
717	0.098
718	0.096
718	0.095
719	0.094
719	0.093
720	0.092
720	0.091
720	0.09
721	0.089
721	0.088
722	0.088
722	0.087
723	0.086
723	0.086
723	0.085
724	0.085
724	0.084
725	0.084
725	0.084
726	0.084
726	0.083
727	0.083
727	0.082
727	0.082
728	0.081
728	0.08
729	0.08
729	0.079
730	0.078
730	0.077
730	0.077
731	0.076
731	0.075
732	0.075
732	0.074
733	0.073
733	0.073
734	0.072
734	0.071
734	0.071
735	0.071
735	0.07
736	0.069
736	0.069
737	0.068
737	0.067
737	0.067
738	0.066
738	0.064
739	0.063
739	0.062
740	0.062
740	0.061
741	0.061
741	0.06
741	0.06
742	0.059
742	0.059
743	0.058
743	0.058
744	0.058
744	0.057
744	0.057
745	0.056
745	0.055
746	0.054
746	0.054
747	0.053
747	0.052
748	0.052
748	0.051
748	0.05
749	0.05
749	0.049
750	0.049
750	0.048
751	0.048
751	0.048
751	0.048
752	0.048
752	0.048
753	0.047
753	0.048
754	0.048
754	0.047
754	0.047
755	0.048
755	0.048
756	0.047
756	0.047
757	0.046
757	0.046
758	0.045
758	0.044
758	0.044
759	0.044
759	0.043
760	0.042
760	0.041
761	0.04
761	0.04
761	0.04
762	0.039
762	0.039
763	0.039
763	0.038
764	0.038
764	0.037
764	0.037
765	0.036
765	0.036
766	0.035
766	0.035
767	0.034
767	0.033
768	0.032
768	0.031
768	0.03
769	0.028
769	0.027
770	0.026
770	0.025
771	0.023
771	0.021
771	0.02
772	0.019
772	0.018
773	0.017
773	0.016
774	0.015
774	0.015
775	0.014
775	0.014
775	0.014
776	0.014
776	0.013
777	0.013
777	0.013
778	0.012
778	0.011
778	0.01
779	0.01
779	0.009
780	0.008
780	0.006
781	0.005
781	0.003
781	0
782	-0.002
782	-0.005
783	-0.007
783	-0.01
784	-0.013
784	-0.016
784	-0.019
785	-0.022
785	-0.025
786	-0.028
786	-0.031
787	-0.033
787	-0.035
788	-0.039
788	-0.043
788	-0.048
789	-0.053
789	-0.058
790	-0.063
790	-0.069
791	-0.076
791	-0.083
791	-0.089
792	-0.088
792	-0.083
793	-0.083
793	-0.084
794	-0.087
794	-0.092
794	-0.098
795	-0.102
795	-0.104
796	-0.104
796	-0.107
797	-0.116
797	-0.127
797	-0.134
798	-0.139
798	-0.142
799	-0.143
799	-0.142
800	-0.142
800	-0.143
801	-0.146
801	-0.147
801	-0.146
802	-0.147
802	-0.148
803	-0.149
803	-0.149
804	-0.148
804	-0.143
804	-0.136
805	-0.133
805	-0.131
806	-0.129
806	-0.128
807	-0.128
807	-0.128
807	-0.128
808	-0.128
808	-0.13
809	-0.135
809	-0.14
810	-0.144
810	-0.147
810	-0.15
811	-0.153
811	-0.154
812	-0.15
812	-0.146
813	-0.142
813	-0.138
813	-0.132
814	-0.126
814	-0.119
815	-0.11
815	-0.099
816	-0.089
816	-0.079
817	-0.072
817	-0.063
817	-0.055
818	-0.048
818	-0.04
819	-0.034
819	-0.029
820	-0.024
820	-0.02
820	-0.016
821	-0.012
821	-0.009
822	-0.007
822	-0.004
823	-0.002
823	-0
823	0.001
824	0.003
824	0.005
825	0.007
825	0.009
826	0.011
826	0.013
826	0.015
827	0.016
827	0.017
828	0.018
828	0.019
829	0.02
829	0.02
829	0.02
830	0.02
830	0.02
831	0.021
831	0.021
832	0.021
832	0.021
832	0.021
833	0.022
833	0.022
834	0.023
834	0.024
835	0.024
835	0.024
835	0.025
836	0.025
836	0.025
837	0.025
837	0.026
838	0.026
838	0.025
839	0.025
839	0.025
839	0.024
840	0.024
840	0.023
841	0.023
841	0.022
842	0.022
842	0.022
842	0.021
843	0.021
843	0.021
844	0.021
844	0.021
845	0.021
845	0.021
845	0.021
846	0.021
846	0.021
847	0.022
847	0.022
848	0.022
848	0.022
848	0.023
849	0.023
849	0.023
850	0.022
850	0.022
851	0.022
851	0.022
851	0.021
852	0.021
852	0.021
853	0.021
853	0.02
854	0.021
854	0.021
854	0.021
855	0.022
855	0.022
856	0.022
856	0.021
857	0.021
857	0.021
857	0.021
858	0.021
858	0.021
859	0.021
859	0.021
860	0.022
860	0.022
860	0.023
861	0.023
861	0.024
862	0.025
862	0.026
863	0.026
863	0.027
863	0.027
864	0.027
864	0.028
865	0.028
865	0.028
866	0.028
866	0.028
866	0.028
867	0.028
867	0.028
868	0.027
868	0.027
869	0.027
869	0.027
869	0.027
870	0.027
870	0.027
871	0.028
871	0.028
872	0.029
872	0.029
872	0.03
873	0.031
873	0.031
874	0.032
874	0.032
875	0.032
875	0.032
875	0.031
876	0.031
876	0.03
877	0.029
877	0.028
878	0.027
878	0.026
878	0.025
879	0.024
879	0.023
880	0.023
880	0.022
881	0.022
881	0.022
881	0.022
882	0.022
882	0.022
883	0.022
883	0.022
884	0.022
884	0.022
884	0.022
885	0.021
885	0.021
886	0.021
886	0.021
887	0.021
887	0.022
887	0.022
888	0.023
888	0.023
889	0.024
889	0.025
890	0.026
890	0.026
890	0.027
891	0.028
891	0.028
892	0.029
892	0.029
893	0.03
893	0.03
893	0.03
894	0.03
894	0.029
895	0.029
895	0.028
895	0.027
896	0.026
896	0.025
897	0.024
897	0.024
898	0.023
898	0.022
898	0.021
899	0.021
899	0.021
900	0.021
900	0.021
901	0.021
901	0.021
901	0.021
902	0.02
902	0.02
903	0.02
903	0.02
904	0.02
904	0.021
904	0.021
905	0.021
905	0.022
906	0.022
906	0.023
907	0.023
907	0.024
907	0.025
908	0.026
908	0.027
909	0.028
909	0.029
910	0.03
910	0.031
910	0.031
911	0.031
911	0.032
912	0.032
912	0.033
913	0.033
913	0.032
913	0.032
914	0.031
914	0.03
915	0.029
915	0.029
916	0.027
916	0.026
916	0.024
917	0.022
917	0.02
918	0.018
918	0.016
918	0.014
919	0.013
919	0.011
920	0.01
920	0.009
921	0.009
921	0.008
921	0.009
922	0.009
922	0.01
923	0.011
923	0.012
924	0.013
924	0.014
924	0.015
925	0.016
925	0.017
926	0.018
926	0.019
927	0.02
927	0.021
927	0.021
928	0.022
928	0.022
929	0.022
929	0.022
930	0.022
930	0.022
930	0.022
931	0.022
931	0.021
932	0.021
932	0.021
933	0.02
933	0.02
933	0.019
934	0.018
934	0.018
935	0.017
935	0.017
935	0.016
936	0.015
936	0.015
937	0.014
937	0.014
938	0.014
938	0.014
938	0.014
939	0.014
939	0.015
940	0.015
940	0.016
941	0.017
941	0.018
941	0.018
942	0.02
942	0.021
943	0.022
943	0.022
944	0.023
944	0.024
944	0.024
945	0.025
945	0.026
946	0.026
946	0.027
946	0.027
947	0.027
947	0.027
948	0.028
948	0.028
949	0.028
949	0.028
949	0.028
950	0.027
950	0.027
951	0.027
951	0.026
952	0.025
952	0.025
952	0.024
953	0.023
953	0.022
954	0.022
954	0.021
955	0.021
955	0.02
955	0.02
956	0.02
956	0.02
957	0.02
957	0.02
957	0.02
958	0.021
958	0.022
959	0.022
959	0.023
960	0.023
960	0.024
960	0.024
961	0.025
961	0.025
962	0.026
962	0.026
963	0.026
963	0.027
963	0.027
964	0.027
964	0.027
965	0.027
965	0.027
966	0.027
966	0.027
966	0.027
967	0.027
967	0.026
968	0.027
968	0.026
968	0.026
969	0.026
969	0.026
970	0.026
970	0.026
971	0.026
971	0.025
971	0.025
972	0.025
972	0.024
973	0.024
973	0.024
974	0.023
974	0.023
974	0.023
975	0.023
975	0.024
976	0.024
976	0.025
976	0.025
977	0.025
977	0.026
978	0.026
978	0.026
979	0.027
979	0.026
979	0.026
980	0.026
980	0.025
981	0.025
981	0.024
982	0.023
982	0.022
982	0.021
983	0.02
983	0.019
984	0.018
984	0.017
984	0.016
985	0.015
985	0.014
986	0.013
986	0.013
987	0.012
987	0.012
987	0.013
988	0.013
988	0.013
989	0.014
989	0.015
990	0.016
990	0.017
990	0.017
991	0.018
991	0.019
992	0.02
992	0.02
992	0.021
993	0.021
993	0.021
994	0.021
994	0.021
995	0.021
995	0.021
995	0.021
996	0.021
996	0.021
997	0.021
997	0.021
997	0.021
998	0.022
998	0.022
999	0.022
999	0.022
1000	0.023
1000	0.023
1000	0.023
1001	0.024
1001	0.024
1002	0.024
1002	0.024
1003	0.024
1003	0.024
1003	0.024
1004	0.024
1004	0.024
1005	0.024
1005	0.024
1005	0.023
1006	0.023
1006	0.023
1007	0.023
1007	0.022
1008	0.022
1008	0.022
1008	0.021
1009	0.021
1009	0.02
1010	0.02
1010	0.02
1010	0.02
1011	0.02
1011	0.02
1012	0.02
1012	0.019
1013	0.02
1013	0.019
1013	0.019
1014	0.019
1014	0.018
1015	0.018
1015	0.017
1016	0.017
1016	0.016
1016	0.015
1017	0.015
1017	0.014
1018	0.014
1018	0.013
1018	0.013
1019	0.013
1019	0.012
1020	0.012
1020	0.012
1021	0.012
1021	0.011
1021	0.011
1022	0.012
1022	0.012
1023	0.012
1023	0.012
1023	0.013
1024	0.013
1024	0.013
1025	0.013
1025	0.013
1026	0.013
1026	0.014
1026	0.014
1027	0.013
1027	0.013
1028	0.013
1028	0.012
1028	0.012
1029	0.011
1029	0.011
1030	0.01
1030	0.01
1031	0.01
1031	0.009
1031	0.009
1032	0.009
1032	0.009
1033	0.009
1033	0.009
1033	0.009
1034	0.01
1034	0.01
1035	0.01
1035	0.01
1036	0.01
1036	0.011
1036	0.011
1037	0.012
1037	0.012
1038	0.013
1038	0.013
1039	0.014
1039	0.015
1039	0.016
1040	0.017
1040	0.018
1041	0.019
1041	0.02
1041	0.021
1042	0.022
1042	0.023
1043	0.023
1043	0.024
1044	0.025
1044	0.025
1044	0.025
1045	0.025
1045	0.025
1046	0.025
1046	0.024
1046	0.024
1047	0.023
1047	0.023
1048	0.022
1048	0.021
1049	0.02
1049	0.019
1049	0.019
1050	0.018
1050	0.017
1051	0.017
1051	0.016
1051	0.015
1052	0.015
1052	0.015
1053	0.014
1053	0.014
1053	0.013
1054	0.013
1054	0.012
1055	0.012
1055	0.012
1056	0.011
1056	0.011
1056	0.011
1057	0.01
1057	0.01
1058	0.01
1058	0.01
1058	0.01
1059	0.011
1059	0.011
1060	0.011
1060	0.011
1061	0.012
1061	0.012
1061	0.013
1062	0.013
1062	0.013
1063	0.013
1063	0.013
1063	0.013
1064	0.013
1064	0.014
1065	0.014
1065	0.013
1066	0.013
1066	0.013
1066	0.014
1067	0.013
1067	0.014
1068	0.013
1068	0.013
1068	0.012
1069	0.012
1069	0.011
1070	0.01
1070	0.01
1071	0.009
1071	0.009
1071	0.008
1072	0.007
1072	0.007
1073	0.006
1073	0.006
1073	0.006
1074	0.005
1074	0.005
1075	0.005
1075	0.005
1076	0.004
1076	0.004
1076	0.004
1077	0.005
1077	0.005
1078	0.005
1078	0.006
1078	0.006
1079	0.006
1079	0.006
1080	0.007
1080	0.007
1080	0.007
1081	0.007
1081	0.008
1082	0.008
1082	0.008
1083	0.008
1083	0.008
1083	0.008
1084	0.008
1084	0.008
1085	0.008
1085	0.008
1085	0.008
1086	0.008
1086	0.008
1087	0.008
1087	0.009
1088	0.009
1088	0.009
1088	0.009
1089	0.008
1089	0.008
1090	0.008
1090	0.008
1090	0.008
1091	0.008
1091	0.008
1092	0.008
1092	0.008
1092	0.008
1093	0.009
1093	0.009
1094	0.009
1094	0.01
1095	0.01
1095	0.01
1095	0.011
1096	0.011
1096	0.011
1097	0.011
1097	0.012
1097	0.013
1098	0.014
1098	0.015
1099	0.015
1099	0.017
1100	0.018
1100	0.018
1100	0.02
1101	0.021
1101	0.023
1102	0.024
1102	0.025
1102	0.027
1103	0.028
1103	0.03
1104	0.034
1104	0.036
1104	0.039
1105	0.041
1105	0.044
1106	0.046
1106	0.049
1107	0.052
1107	0.056
1107	0.062
1108	0.075
1108	0.09
1109	0.113
1109	0.145
1109	0.166
1110	0.2
1110	0.257
1111	0.374
1111	0.8
