Data from 17c-2a_Absorbance__1768__01769.txt Node

Date: Fri Jan 26 10:46:26 CET 2024
User: Marek
Spectrometer: MAYP115816
Trigger mode: 0
Integration Time (sec): 2.000000E-1
Scans to average: 10
Electric dark correction enabled: true
Nonlinearity correction enabled: true
Boxcar width: 5
XAxis mode: Wavelengths
Number of Pixels in Spectrum: 2068
>>>>>Begin Spectral Data<<<<<
199	-1.48
199	-1.343
200	-1.196
200	-1.086
201	-1.016
201	-0.974
202	-0.909
202	-0.859
203	-0.818
203	-0.782
204	-0.757
204	-0.734
205	-0.713
205	-0.703
205	-0.7
206	-0.696
206	-0.693
207	-0.689
207	-0.689
208	-0.688
208	-0.686
209	-0.683
209	-0.68
210	-0.681
210	-0.682
211	-0.683
211	-0.685
212	-0.685
212	-0.685
213	-0.683
213	-0.679
213	-0.68
214	-0.678
214	-0.676
215	-0.671
215	-0.669
216	-0.666
216	-0.665
217	-0.662
217	-0.66
218	-0.657
218	-0.655
219	-0.651
219	-0.65
220	-0.649
220	-0.649
221	-0.647
221	-0.645
221	-0.641
222	-0.636
222	-0.632
223	-0.628
223	-0.625
224	-0.62
224	-0.614
225	-0.606
225	-0.599
226	-0.59
226	-0.578
227	-0.567
227	-0.558
228	-0.541
228	-0.526
229	-0.506
229	-0.485
229	-0.461
230	-0.434
230	-0.405
231	-0.374
231	-0.34
232	-0.306
232	-0.267
233	-0.228
233	-0.189
234	-0.15
234	-0.112
235	-0.074
235	-0.038
236	-0.003
236	0.029
236	0.06
237	0.09
237	0.116
238	0.141
238	0.163
239	0.184
239	0.203
240	0.219
240	0.234
241	0.248
241	0.261
242	0.272
242	0.282
243	0.291
243	0.299
243	0.307
244	0.314
244	0.32
245	0.326
245	0.331
246	0.336
246	0.341
247	0.345
247	0.35
248	0.354
248	0.358
249	0.361
249	0.364
250	0.368
250	0.371
250	0.374
251	0.377
251	0.38
252	0.382
252	0.385
253	0.387
253	0.389
254	0.391
254	0.393
255	0.395
255	0.397
256	0.398
256	0.399
257	0.4
257	0.401
258	0.402
258	0.403
258	0.403
259	0.404
259	0.404
260	0.405
260	0.405
261	0.405
261	0.405
262	0.405
262	0.405
263	0.405
263	0.405
264	0.404
264	0.404
265	0.403
265	0.402
265	0.402
266	0.401
266	0.4
267	0.399
267	0.397
268	0.395
268	0.394
269	0.392
269	0.391
270	0.389
270	0.387
271	0.386
271	0.384
272	0.382
272	0.38
272	0.378
273	0.376
273	0.374
274	0.372
274	0.37
275	0.368
275	0.366
276	0.364
276	0.361
277	0.359
277	0.357
278	0.354
278	0.352
278	0.35
279	0.347
279	0.345
280	0.342
280	0.34
281	0.338
281	0.336
282	0.333
282	0.331
283	0.329
283	0.327
284	0.325
284	0.324
285	0.322
285	0.32
285	0.318
286	0.316
286	0.314
287	0.312
287	0.311
288	0.309
288	0.307
289	0.305
289	0.304
290	0.302
290	0.301
291	0.299
291	0.298
292	0.297
292	0.295
292	0.294
293	0.292
293	0.291
294	0.29
294	0.289
295	0.288
295	0.286
296	0.285
296	0.284
297	0.283
297	0.282
298	0.282
298	0.281
298	0.28
299	0.279
299	0.278
300	0.277
300	0.277
301	0.276
301	0.275
302	0.274
302	0.274
303	0.273
303	0.272
304	0.271
304	0.27
305	0.27
305	0.269
305	0.268
306	0.268
306	0.267
307	0.266
307	0.265
308	0.264
308	0.264
309	0.263
309	0.262
310	0.262
310	0.261
311	0.26
311	0.26
311	0.259
312	0.258
312	0.258
313	0.257
313	0.256
314	0.256
314	0.255
315	0.254
315	0.254
316	0.253
316	0.252
317	0.252
317	0.251
318	0.25
318	0.249
318	0.249
319	0.248
319	0.247
320	0.247
320	0.246
321	0.245
321	0.245
322	0.244
322	0.243
323	0.242
323	0.242
324	0.241
324	0.24
324	0.239
325	0.239
325	0.238
326	0.237
326	0.237
327	0.236
327	0.236
328	0.235
328	0.234
329	0.234
329	0.233
330	0.233
330	0.232
330	0.232
331	0.231
331	0.23
332	0.23
332	0.229
333	0.229
333	0.229
334	0.228
334	0.227
335	0.227
335	0.226
336	0.225
336	0.225
336	0.224
337	0.224
337	0.223
338	0.223
338	0.222
339	0.222
339	0.221
340	0.221
340	0.22
341	0.22
341	0.219
342	0.219
342	0.219
342	0.218
343	0.218
343	0.218
344	0.217
344	0.217
345	0.217
345	0.216
346	0.216
346	0.215
347	0.215
347	0.215
348	0.214
348	0.214
348	0.213
349	0.213
349	0.213
350	0.212
350	0.212
351	0.212
351	0.211
352	0.211
352	0.211
353	0.21
353	0.21
354	0.21
354	0.209
354	0.209
355	0.209
355	0.209
356	0.208
356	0.208
357	0.207
357	0.207
358	0.207
358	0.207
359	0.207
359	0.207
360	0.208
360	0.207
360	0.208
361	0.207
361	0.208
362	0.208
362	0.208
363	0.208
363	0.208
364	0.207
364	0.207
365	0.207
365	0.207
366	0.207
366	0.207
366	0.207
367	0.207
367	0.206
368	0.206
368	0.206
369	0.206
369	0.206
370	0.205
370	0.205
371	0.205
371	0.205
372	0.204
372	0.204
372	0.204
373	0.204
373	0.204
374	0.204
374	0.204
375	0.204
375	0.204
376	0.204
376	0.204
377	0.204
377	0.204
378	0.204
378	0.204
378	0.204
379	0.204
379	0.203
380	0.203
380	0.203
381	0.203
381	0.203
382	0.203
382	0.202
383	0.202
383	0.202
383	0.202
384	0.201
384	0.201
385	0.201
385	0.201
386	0.2
386	0.2
387	0.2
387	0.2
388	0.2
388	0.2
389	0.2
389	0.199
389	0.199
390	0.199
390	0.199
391	0.199
391	0.199
392	0.199
392	0.199
393	0.199
393	0.199
394	0.199
394	0.199
394	0.199
395	0.199
395	0.198
396	0.198
396	0.198
397	0.197
397	0.197
398	0.197
398	0.197
399	0.197
399	0.196
400	0.196
400	0.196
400	0.196
401	0.195
401	0.195
402	0.195
402	0.194
403	0.194
403	0.194
404	0.194
404	0.194
405	0.194
405	0.194
405	0.194
406	0.194
406	0.194
407	0.194
407	0.193
408	0.193
408	0.193
409	0.193
409	0.192
410	0.192
410	0.192
411	0.192
411	0.192
411	0.192
412	0.192
412	0.192
413	0.192
413	0.192
414	0.191
414	0.191
415	0.191
415	0.191
416	0.19
416	0.19
416	0.19
417	0.19
417	0.19
418	0.19
418	0.19
419	0.19
419	0.19
420	0.191
420	0.191
421	0.191
421	0.191
421	0.191
422	0.191
422	0.191
423	0.191
423	0.191
424	0.19
424	0.19
425	0.19
425	0.19
426	0.19
426	0.189
427	0.189
427	0.189
427	0.189
428	0.189
428	0.19
429	0.19
429	0.19
430	0.19
430	0.19
431	0.19
431	0.189
432	0.189
432	0.189
432	0.188
433	0.188
433	0.188
434	0.188
434	0.188
435	0.188
435	0.188
436	0.188
436	0.188
437	0.188
437	0.188
437	0.188
438	0.188
438	0.188
439	0.188
439	0.187
440	0.187
440	0.187
441	0.187
441	0.187
442	0.187
442	0.187
442	0.187
443	0.187
443	0.187
444	0.187
444	0.187
445	0.188
445	0.188
446	0.188
446	0.187
447	0.188
447	0.188
447	0.188
448	0.188
448	0.188
449	0.187
449	0.187
450	0.188
450	0.188
451	0.187
451	0.187
452	0.187
452	0.187
452	0.187
453	0.187
453	0.187
454	0.187
454	0.187
455	0.187
455	0.187
456	0.187
456	0.187
457	0.187
457	0.187
458	0.187
458	0.187
458	0.188
459	0.188
459	0.188
460	0.187
460	0.187
461	0.187
461	0.187
462	0.187
462	0.187
463	0.188
463	0.188
463	0.188
464	0.188
464	0.189
465	0.189
465	0.189
466	0.19
466	0.19
467	0.19
467	0.19
467	0.19
468	0.19
468	0.189
469	0.189
469	0.189
470	0.189
470	0.189
471	0.189
471	0.189
472	0.189
472	0.189
472	0.19
473	0.191
473	0.191
474	0.192
474	0.193
475	0.193
475	0.194
476	0.194
476	0.195
477	0.196
477	0.196
477	0.197
478	0.197
478	0.198
479	0.198
479	0.199
480	0.2
480	0.2
481	0.201
481	0.202
482	0.203
482	0.204
482	0.205
483	0.207
483	0.209
484	0.211
484	0.212
485	0.213
485	0.214
486	0.215
486	0.216
487	0.216
487	0.217
487	0.218
488	0.218
488	0.218
489	0.218
489	0.218
490	0.219
490	0.219
491	0.22
491	0.221
492	0.222
492	0.223
492	0.224
493	0.225
493	0.226
494	0.229
494	0.23
495	0.232
495	0.233
496	0.234
496	0.236
496	0.237
497	0.239
497	0.24
498	0.241
498	0.243
499	0.244
499	0.246
500	0.247
500	0.249
501	0.251
501	0.252
501	0.254
502	0.256
502	0.257
503	0.259
503	0.26
504	0.261
504	0.263
505	0.264
505	0.265
506	0.266
506	0.268
506	0.269
507	0.269
507	0.271
508	0.272
508	0.273
509	0.275
509	0.276
510	0.277
510	0.279
511	0.28
511	0.281
511	0.282
512	0.283
512	0.284
513	0.285
513	0.285
514	0.286
514	0.286
515	0.287
515	0.287
515	0.287
516	0.288
516	0.289
517	0.29
517	0.291
518	0.291
518	0.291
519	0.291
519	0.291
520	0.29
520	0.29
520	0.29
521	0.289
521	0.288
522	0.287
522	0.287
523	0.287
523	0.287
524	0.288
524	0.289
524	0.29
525	0.29
525	0.291
526	0.291
526	0.292
527	0.293
527	0.293
528	0.293
528	0.293
529	0.293
529	0.292
529	0.292
530	0.291
530	0.29
531	0.29
531	0.289
532	0.287
532	0.286
533	0.285
533	0.284
533	0.283
534	0.282
534	0.281
535	0.279
535	0.278
536	0.277
536	0.275
537	0.274
537	0.273
538	0.272
538	0.27
538	0.268
539	0.267
539	0.266
540	0.264
540	0.262
541	0.26
541	0.258
542	0.256
542	0.254
542	0.252
543	0.25
543	0.248
544	0.246
544	0.244
545	0.243
545	0.242
546	0.24
546	0.239
547	0.237
547	0.235
547	0.232
548	0.231
548	0.229
549	0.227
549	0.226
550	0.224
550	0.221
551	0.218
551	0.216
551	0.214
552	0.212
552	0.21
553	0.209
553	0.207
554	0.205
554	0.203
555	0.2
555	0.198
556	0.195
556	0.192
556	0.19
557	0.187
557	0.185
558	0.182
558	0.18
559	0.178
559	0.176
560	0.174
560	0.172
560	0.171
561	0.17
561	0.169
562	0.168
562	0.166
563	0.164
563	0.162
564	0.16
564	0.159
564	0.157
565	0.155
565	0.154
566	0.152
566	0.15
567	0.149
567	0.148
568	0.147
568	0.146
568	0.146
569	0.146
569	0.145
570	0.144
570	0.143
571	0.143
571	0.142
572	0.141
572	0.14
573	0.139
573	0.138
573	0.136
574	0.135
574	0.134
575	0.133
575	0.133
576	0.133
576	0.131
577	0.129
577	0.128
577	0.128
578	0.127
578	0.126
579	0.127
579	0.127
580	0.125
580	0.122
581	0.119
581	0.118
581	0.117
582	0.117
582	0.117
583	0.117
583	0.115
584	0.113
584	0.11
585	0.109
585	0.11
585	0.109
586	0.109
586	0.108
587	0.107
587	0.105
588	0.103
588	0.101
589	0.101
589	0.1
590	0.1
590	0.099
590	0.1
591	0.1
591	0.099
592	0.099
592	0.098
593	0.098
593	0.098
594	0.098
594	0.097
594	0.096
595	0.096
595	0.094
596	0.093
596	0.094
597	0.096
597	0.096
598	0.096
598	0.097
598	0.097
599	0.097
599	0.096
600	0.096
600	0.095
601	0.094
601	0.093
602	0.092
602	0.091
602	0.09
603	0.089
603	0.09
604	0.09
604	0.09
605	0.091
605	0.092
606	0.091
606	0.09
606	0.09
607	0.089
607	0.089
608	0.089
608	0.088
609	0.087
609	0.087
610	0.087
610	0.086
610	0.087
611	0.088
611	0.089
612	0.09
612	0.092
613	0.093
613	0.095
614	0.095
614	0.095
614	0.096
615	0.096
615	0.096
616	0.096
616	0.096
617	0.096
617	0.095
618	0.094
618	0.094
618	0.094
619	0.094
619	0.095
620	0.096
620	0.096
621	0.096
621	0.097
622	0.097
622	0.097
622	0.097
623	0.097
623	0.098
624	0.099
624	0.099
625	0.099
625	0.1
626	0.1
626	0.101
626	0.102
627	0.103
627	0.104
628	0.105
628	0.105
629	0.105
629	0.106
630	0.105
630	0.105
630	0.106
631	0.106
631	0.107
632	0.107
632	0.107
633	0.107
633	0.108
634	0.11
634	0.111
634	0.113
635	0.114
635	0.115
636	0.116
636	0.117
637	0.118
637	0.119
638	0.121
638	0.122
638	0.123
639	0.124
639	0.124
640	0.126
640	0.127
641	0.128
641	0.13
642	0.132
642	0.133
642	0.135
643	0.136
643	0.138
644	0.139
644	0.141
645	0.142
645	0.144
646	0.146
646	0.149
646	0.152
647	0.155
647	0.158
648	0.16
648	0.163
649	0.166
649	0.169
650	0.172
650	0.174
650	0.177
651	0.179
651	0.181
652	0.183
652	0.185
653	0.187
653	0.194
653	0.2
654	0.159
654	0.128
655	0.131
655	0.133
656	0.134
656	0.136
657	0.138
657	0.14
657	0.142
658	0.14
658	0.133
659	0.169
659	0.219
660	0.227
660	0.229
661	0.231
661	0.234
661	0.236
662	0.239
662	0.242
663	0.245
663	0.247
664	0.25
664	0.252
665	0.254
665	0.256
665	0.259
666	0.261
666	0.263
667	0.266
667	0.268
668	0.271
668	0.273
669	0.276
669	0.278
669	0.282
670	0.284
670	0.286
671	0.288
671	0.289
672	0.291
672	0.293
672	0.294
673	0.296
673	0.298
674	0.299
674	0.301
675	0.302
675	0.305
676	0.307
676	0.309
676	0.311
677	0.313
677	0.315
678	0.316
678	0.317
679	0.318
679	0.319
680	0.321
680	0.322
680	0.323
681	0.324
681	0.325
682	0.326
682	0.327
683	0.329
683	0.33
684	0.332
684	0.332
684	0.332
685	0.332
685	0.332
686	0.332
686	0.332
687	0.332
687	0.331
687	0.331
688	0.33
688	0.33
689	0.331
689	0.332
690	0.332
690	0.332
691	0.333
691	0.333
691	0.333
692	0.332
692	0.331
693	0.331
693	0.331
694	0.329
694	0.327
695	0.327
695	0.327
695	0.326
696	0.324
696	0.323
697	0.323
697	0.322
698	0.32
698	0.319
698	0.317
699	0.316
699	0.313
700	0.31
700	0.308
701	0.307
701	0.304
702	0.302
702	0.3
702	0.298
703	0.295
703	0.293
704	0.291
704	0.289
705	0.288
705	0.286
705	0.284
706	0.283
706	0.282
707	0.28
707	0.278
708	0.277
708	0.276
709	0.274
709	0.272
709	0.27
710	0.268
710	0.266
711	0.265
711	0.263
712	0.261
712	0.259
713	0.257
713	0.255
713	0.252
714	0.25
714	0.247
715	0.244
715	0.241
716	0.238
716	0.235
716	0.232
717	0.229
717	0.226
718	0.223
718	0.22
719	0.218
719	0.216
720	0.214
720	0.212
720	0.209
721	0.207
721	0.205
722	0.203
722	0.201
723	0.199
723	0.197
723	0.195
724	0.193
724	0.191
725	0.189
725	0.187
726	0.185
726	0.183
727	0.181
727	0.18
727	0.178
728	0.175
728	0.173
729	0.172
729	0.17
730	0.168
730	0.166
730	0.165
731	0.163
731	0.162
732	0.161
732	0.159
733	0.158
733	0.157
734	0.155
734	0.154
734	0.153
735	0.152
735	0.151
736	0.149
736	0.148
737	0.146
737	0.145
737	0.143
738	0.14
738	0.137
739	0.135
739	0.133
740	0.131
740	0.129
741	0.128
741	0.126
741	0.124
742	0.122
742	0.12
743	0.119
743	0.117
744	0.116
744	0.115
744	0.113
745	0.111
745	0.109
746	0.108
746	0.107
747	0.105
747	0.105
748	0.104
748	0.102
748	0.101
749	0.1
749	0.099
750	0.098
750	0.098
751	0.097
751	0.097
751	0.097
752	0.096
752	0.095
753	0.094
753	0.093
754	0.093
754	0.092
754	0.091
755	0.09
755	0.09
756	0.089
756	0.087
757	0.086
757	0.086
758	0.085
758	0.085
758	0.085
759	0.084
759	0.083
760	0.081
760	0.079
761	0.078
761	0.077
761	0.076
762	0.073
762	0.072
763	0.071
763	0.068
764	0.066
764	0.064
764	0.062
765	0.06
765	0.058
766	0.057
766	0.056
767	0.055
767	0.053
768	0.051
768	0.05
768	0.049
769	0.048
769	0.047
770	0.046
770	0.044
771	0.042
771	0.04
771	0.037
772	0.036
772	0.034
773	0.032
773	0.03
774	0.028
774	0.025
775	0.024
775	0.022
775	0.02
776	0.018
776	0.016
777	0.014
777	0.012
778	0.01
778	0.007
778	0.005
779	0.003
779	0.001
780	-0.002
780	-0.004
781	-0.007
781	-0.011
781	-0.014
782	-0.018
782	-0.023
783	-0.027
783	-0.03
784	-0.035
784	-0.041
784	-0.046
785	-0.051
785	-0.056
786	-0.061
786	-0.065
787	-0.068
787	-0.072
788	-0.078
788	-0.084
788	-0.091
789	-0.098
789	-0.102
790	-0.104
790	-0.108
791	-0.112
791	-0.116
791	-0.118
792	-0.114
792	-0.104
793	-0.099
793	-0.095
794	-0.093
794	-0.096
794	-0.1
795	-0.102
795	-0.103
796	-0.103
796	-0.106
797	-0.115
797	-0.126
797	-0.132
798	-0.138
798	-0.141
799	-0.142
799	-0.141
800	-0.14
800	-0.142
801	-0.145
801	-0.146
801	-0.145
802	-0.146
802	-0.147
803	-0.148
803	-0.148
804	-0.147
804	-0.142
804	-0.135
805	-0.131
805	-0.13
806	-0.128
806	-0.127
807	-0.127
807	-0.127
807	-0.127
808	-0.127
808	-0.128
809	-0.133
809	-0.139
810	-0.143
810	-0.146
810	-0.149
811	-0.152
811	-0.152
812	-0.148
812	-0.145
813	-0.145
813	-0.146
813	-0.147
814	-0.149
814	-0.149
815	-0.147
815	-0.144
816	-0.14
816	-0.137
817	-0.136
817	-0.133
817	-0.127
818	-0.118
818	-0.107
819	-0.096
819	-0.086
820	-0.077
820	-0.068
820	-0.059
821	-0.051
821	-0.044
822	-0.037
822	-0.032
823	-0.026
823	-0.023
823	-0.019
824	-0.015
824	-0.011
825	-0.007
825	-0.003
826	0
826	0.003
826	0.005
827	0.008
827	0.01
828	0.012
828	0.013
829	0.015
829	0.016
829	0.017
830	0.018
830	0.019
831	0.02
831	0.021
832	0.022
832	0.023
832	0.023
833	0.024
833	0.024
834	0.025
834	0.025
835	0.025
835	0.025
835	0.025
836	0.025
836	0.025
837	0.026
837	0.026
838	0.026
838	0.027
839	0.027
839	0.027
839	0.027
840	0.027
840	0.027
841	0.026
841	0.026
842	0.026
842	0.026
842	0.025
843	0.025
843	0.025
844	0.025
844	0.026
845	0.026
845	0.026
845	0.026
846	0.026
846	0.026
847	0.026
847	0.027
848	0.027
848	0.027
848	0.028
849	0.028
849	0.028
850	0.029
850	0.029
851	0.029
851	0.029
851	0.029
852	0.029
852	0.029
853	0.028
853	0.028
854	0.028
854	0.027
854	0.027
855	0.027
855	0.027
856	0.027
856	0.027
857	0.027
857	0.027
857	0.027
858	0.027
858	0.027
859	0.027
859	0.028
860	0.028
860	0.029
860	0.029
861	0.03
861	0.031
862	0.031
862	0.031
863	0.032
863	0.032
863	0.032
864	0.032
864	0.033
865	0.033
865	0.033
866	0.034
866	0.034
866	0.035
867	0.035
867	0.036
868	0.036
868	0.036
869	0.036
869	0.035
869	0.035
870	0.034
870	0.033
871	0.033
871	0.032
872	0.032
872	0.032
872	0.032
873	0.032
873	0.032
874	0.032
874	0.032
875	0.031
875	0.031
875	0.03
876	0.03
876	0.029
877	0.028
877	0.027
878	0.026
878	0.025
878	0.024
879	0.024
879	0.023
880	0.023
880	0.023
881	0.023
881	0.023
881	0.023
882	0.024
882	0.024
883	0.023
883	0.023
884	0.023
884	0.022
884	0.022
885	0.022
885	0.022
886	0.022
886	0.022
887	0.023
887	0.023
887	0.024
888	0.024
888	0.025
889	0.026
889	0.027
890	0.028
890	0.028
890	0.029
891	0.029
891	0.029
892	0.029
892	0.03
893	0.03
893	0.03
893	0.03
894	0.03
894	0.03
895	0.03
895	0.029
895	0.029
896	0.028
896	0.028
897	0.028
897	0.027
898	0.027
898	0.027
898	0.027
899	0.027
899	0.027
900	0.027
900	0.027
901	0.027
901	0.027
901	0.028
902	0.028
902	0.028
903	0.028
903	0.029
904	0.029
904	0.03
904	0.03
905	0.031
905	0.031
906	0.031
906	0.031
907	0.031
907	0.031
907	0.031
908	0.031
908	0.031
909	0.032
909	0.032
910	0.032
910	0.033
910	0.033
911	0.033
911	0.033
912	0.034
912	0.034
913	0.034
913	0.033
913	0.033
914	0.032
914	0.032
915	0.032
915	0.031
916	0.03
916	0.029
916	0.028
917	0.027
917	0.026
918	0.025
918	0.024
918	0.023
919	0.021
919	0.021
920	0.02
920	0.019
921	0.019
921	0.019
921	0.019
922	0.02
922	0.02
923	0.02
923	0.021
924	0.021
924	0.022
924	0.022
925	0.023
925	0.023
926	0.024
926	0.024
927	0.024
927	0.024
927	0.024
928	0.024
928	0.024
929	0.024
929	0.024
930	0.023
930	0.022
930	0.022
931	0.021
931	0.021
932	0.02
932	0.02
933	0.02
933	0.02
933	0.019
934	0.019
934	0.018
935	0.018
935	0.017
935	0.017
936	0.016
936	0.016
937	0.015
937	0.015
938	0.015
938	0.015
938	0.015
939	0.015
939	0.016
940	0.017
940	0.017
941	0.018
941	0.019
941	0.02
942	0.021
942	0.021
943	0.022
943	0.022
944	0.023
944	0.023
944	0.023
945	0.023
945	0.024
946	0.024
946	0.024
946	0.025
947	0.025
947	0.025
948	0.026
948	0.027
949	0.027
949	0.028
949	0.028
950	0.029
950	0.029
951	0.03
951	0.029
952	0.029
952	0.029
952	0.028
953	0.028
953	0.027
954	0.027
954	0.026
955	0.026
955	0.025
955	0.025
956	0.026
956	0.025
957	0.025
957	0.025
957	0.025
958	0.025
958	0.025
959	0.025
959	0.025
960	0.025
960	0.024
960	0.024
961	0.024
961	0.024
962	0.024
962	0.024
963	0.025
963	0.025
963	0.025
964	0.025
964	0.025
965	0.025
965	0.025
966	0.025
966	0.025
966	0.025
967	0.024
967	0.023
968	0.023
968	0.022
968	0.021
969	0.02
969	0.02
970	0.019
970	0.018
971	0.017
971	0.017
971	0.017
972	0.017
972	0.017
973	0.017
973	0.017
974	0.018
974	0.018
974	0.019
975	0.02
975	0.021
976	0.022
976	0.023
976	0.024
977	0.024
977	0.025
978	0.025
978	0.026
979	0.026
979	0.026
979	0.026
980	0.026
980	0.026
981	0.025
981	0.024
982	0.024
982	0.023
982	0.022
983	0.021
983	0.02
984	0.019
984	0.018
984	0.017
985	0.016
985	0.015
986	0.013
986	0.013
987	0.012
987	0.011
987	0.011
988	0.011
988	0.011
989	0.011
989	0.012
990	0.012
990	0.013
990	0.014
991	0.015
991	0.016
992	0.017
992	0.018
992	0.019
993	0.02
993	0.02
994	0.02
994	0.02
995	0.02
995	0.02
995	0.019
996	0.018
996	0.017
997	0.016
997	0.015
997	0.015
998	0.014
998	0.014
999	0.015
999	0.015
1000	0.016
1000	0.016
1000	0.017
1001	0.018
1001	0.019
1002	0.02
1002	0.02
1003	0.021
1003	0.021
1003	0.021
1004	0.021
1004	0.021
1005	0.021
1005	0.021
1005	0.021
1006	0.02
1006	0.02
1007	0.02
1007	0.02
1008	0.02
1008	0.02
1008	0.02
1009	0.019
1009	0.019
1010	0.02
1010	0.02
1010	0.02
1011	0.02
1011	0.02
1012	0.02
1012	0.02
1013	0.02
1013	0.019
1013	0.019
1014	0.018
1014	0.017
1015	0.016
1015	0.015
1016	0.014
1016	0.013
1016	0.012
1017	0.011
1017	0.01
1018	0.009
1018	0.008
1018	0.008
1019	0.007
1019	0.007
1020	0.006
1020	0.006
1021	0.006
1021	0.007
1021	0.007
1022	0.007
1022	0.008
1023	0.009
1023	0.01
1023	0.01
1024	0.011
1024	0.01
1025	0.01
1025	0.01
1026	0.01
1026	0.01
1026	0.01
1027	0.01
1027	0.009
1028	0.009
1028	0.008
1028	0.008
1029	0.007
1029	0.007
1030	0.007
1030	0.006
1031	0.006
1031	0.006
1031	0.006
1032	0.006
1032	0.006
1033	0.006
1033	0.006
1033	0.006
1034	0.006
1034	0.005
1035	0.005
1035	0.005
1036	0.005
1036	0.005
1036	0.005
1037	0.006
1037	0.006
1038	0.006
1038	0.007
1039	0.007
1039	0.007
1039	0.008
1040	0.008
1040	0.009
1041	0.01
1041	0.01
1041	0.011
1042	0.011
1042	0.011
1043	0.012
1043	0.012
1044	0.013
1044	0.013
1044	0.014
1045	0.014
1045	0.014
1046	0.014
1046	0.014
1046	0.014
1047	0.014
1047	0.014
1048	0.014
1048	0.014
1049	0.013
1049	0.012
1049	0.012
1050	0.011
1050	0.01
1051	0.009
1051	0.009
1051	0.008
1052	0.007
1052	0.006
1053	0.005
1053	0.005
1053	0.004
1054	0.003
1054	0.003
1055	0.002
1055	0.001
1056	0
1056	-0.001
1056	-0.002
1057	-0.003
1057	-0.004
1058	-0.004
1058	-0.005
1058	-0.005
1059	-0.005
1059	-0.006
1060	-0.006
1060	-0.006
1061	-0.006
1061	-0.005
1061	-0.005
1062	-0.005
1062	-0.006
1063	-0.006
1063	-0.006
1063	-0.006
1064	-0.006
1064	-0.005
1065	-0.005
1065	-0.005
1066	-0.004
1066	-0.004
1066	-0.003
1067	-0.003
1067	-0.002
1068	-0.002
1068	-0.001
1068	-0.001
1069	-0.002
1069	-0.003
1070	-0.003
1070	-0.004
1071	-0.005
1071	-0.005
1071	-0.006
1072	-0.007
1072	-0.008
1073	-0.009
1073	-0.01
1073	-0.01
1074	-0.011
1074	-0.011
1075	-0.012
1075	-0.013
1076	-0.014
1076	-0.015
1076	-0.016
1077	-0.016
1077	-0.016
1078	-0.016
1078	-0.016
1078	-0.016
1079	-0.016
1079	-0.015
1080	-0.014
1080	-0.013
1080	-0.012
1081	-0.01
1081	-0.01
1082	-0.009
1082	-0.008
1083	-0.007
1083	-0.007
1083	-0.006
1084	-0.006
1084	-0.006
1085	-0.005
1085	-0.005
1085	-0.005
1086	-0.005
1086	-0.005
1087	-0.005
1087	-0.004
1088	-0.004
1088	-0.005
1088	-0.005
1089	-0.006
1089	-0.006
1090	-0.007
1090	-0.008
1090	-0.008
1091	-0.009
1091	-0.008
1092	-0.009
1092	-0.008
1092	-0.008
1093	-0.008
1093	-0.007
1094	-0.006
1094	-0.006
1095	-0.006
1095	-0.006
1095	-0.005
1096	-0.005
1096	-0.004
1097	-0.002
1097	-0.001
1097	0
1098	0.002
1098	0.003
1099	0.005
1099	0.008
1100	0.01
1100	0.012
1100	0.013
1101	0.014
1101	0.015
1102	0.018
1102	0.02
1102	0.022
1103	0.025
1103	0.027
1104	0.031
1104	0.035
1104	0.04
1105	0.045
1105	0.049
1106	0.052
1106	0.058
1107	0.061
1107	0.068
1107	0.076
1108	0.108
1108	0.151
1109	0.209
1109	0.298
1109	0.366
1110	0.503
1110	0.837
1111	-0
1111	-0
