Data from 17c-2a_Absorbance__1242__01243.txt Node

Date: Fri Jan 26 10:28:54 CET 2024
User: Marek
Spectrometer: MAYP115816
Trigger mode: 0
Integration Time (sec): 2.000000E-1
Scans to average: 10
Electric dark correction enabled: true
Nonlinearity correction enabled: true
Boxcar width: 5
XAxis mode: Wavelengths
Number of Pixels in Spectrum: 2068
>>>>>Begin Spectral Data<<<<<
199	-1.403
199	-1.27
200	-1.124
200	-1.016
201	-0.948
201	-0.906
202	-0.845
202	-0.796
203	-0.756
203	-0.722
204	-0.698
204	-0.676
205	-0.655
205	-0.646
205	-0.644
206	-0.64
206	-0.637
207	-0.634
207	-0.634
208	-0.634
208	-0.633
209	-0.63
209	-0.627
210	-0.628
210	-0.629
211	-0.63
211	-0.632
212	-0.632
212	-0.631
213	-0.628
213	-0.625
213	-0.626
214	-0.625
214	-0.623
215	-0.618
215	-0.616
216	-0.613
216	-0.612
217	-0.608
217	-0.607
218	-0.605
218	-0.604
219	-0.599
219	-0.598
220	-0.597
220	-0.599
221	-0.596
221	-0.596
221	-0.591
222	-0.586
222	-0.582
223	-0.577
223	-0.574
224	-0.57
224	-0.563
225	-0.555
225	-0.548
226	-0.54
226	-0.53
227	-0.52
227	-0.511
228	-0.495
228	-0.48
229	-0.461
229	-0.439
229	-0.417
230	-0.391
230	-0.363
231	-0.332
231	-0.3
232	-0.267
232	-0.232
233	-0.196
233	-0.159
234	-0.123
234	-0.09
235	-0.055
235	-0.023
236	0.008
236	0.036
236	0.064
237	0.089
237	0.113
238	0.134
238	0.153
239	0.171
239	0.188
240	0.202
240	0.215
241	0.227
241	0.237
242	0.247
242	0.256
243	0.264
243	0.27
243	0.277
244	0.283
244	0.288
245	0.293
245	0.297
246	0.302
246	0.306
247	0.31
247	0.313
248	0.317
248	0.32
249	0.324
249	0.326
250	0.329
250	0.332
250	0.335
251	0.337
251	0.34
252	0.342
252	0.344
253	0.346
253	0.348
254	0.349
254	0.351
255	0.353
255	0.355
256	0.356
256	0.357
257	0.359
257	0.359
258	0.36
258	0.361
258	0.362
259	0.362
259	0.363
260	0.363
260	0.363
261	0.363
261	0.363
262	0.364
262	0.363
263	0.363
263	0.363
264	0.363
264	0.362
265	0.362
265	0.361
265	0.36
266	0.359
266	0.358
267	0.356
267	0.355
268	0.354
268	0.352
269	0.351
269	0.349
270	0.347
270	0.346
271	0.344
271	0.342
272	0.34
272	0.339
272	0.337
273	0.335
273	0.333
274	0.331
274	0.329
275	0.327
275	0.325
276	0.323
276	0.321
277	0.319
277	0.316
278	0.314
278	0.312
278	0.309
279	0.307
279	0.304
280	0.302
280	0.3
281	0.298
281	0.295
282	0.293
282	0.291
283	0.289
283	0.287
284	0.286
284	0.284
285	0.282
285	0.28
285	0.278
286	0.277
286	0.275
287	0.273
287	0.271
288	0.27
288	0.268
289	0.267
289	0.265
290	0.263
290	0.262
291	0.261
291	0.259
292	0.258
292	0.257
292	0.256
293	0.254
293	0.253
294	0.252
294	0.251
295	0.25
295	0.249
296	0.248
296	0.247
297	0.246
297	0.245
298	0.245
298	0.244
298	0.243
299	0.242
299	0.242
300	0.241
300	0.24
301	0.239
301	0.239
302	0.238
302	0.237
303	0.237
303	0.236
304	0.236
304	0.235
305	0.234
305	0.234
305	0.233
306	0.232
306	0.232
307	0.231
307	0.23
308	0.229
308	0.229
309	0.228
309	0.228
310	0.227
310	0.227
311	0.226
311	0.225
311	0.225
312	0.224
312	0.224
313	0.223
313	0.223
314	0.222
314	0.221
315	0.221
315	0.22
316	0.219
316	0.219
317	0.218
317	0.218
318	0.217
318	0.216
318	0.216
319	0.215
319	0.215
320	0.214
320	0.214
321	0.213
321	0.212
322	0.212
322	0.211
323	0.21
323	0.21
324	0.209
324	0.209
324	0.208
325	0.208
325	0.207
326	0.207
326	0.206
327	0.205
327	0.205
328	0.204
328	0.204
329	0.203
329	0.203
330	0.202
330	0.202
330	0.201
331	0.201
331	0.2
332	0.2
332	0.199
333	0.199
333	0.199
334	0.198
334	0.197
335	0.197
335	0.196
336	0.196
336	0.195
336	0.195
337	0.195
337	0.194
338	0.194
338	0.193
339	0.193
339	0.192
340	0.192
340	0.191
341	0.191
341	0.191
342	0.191
342	0.19
342	0.19
343	0.19
343	0.189
344	0.189
344	0.189
345	0.189
345	0.188
346	0.188
346	0.187
347	0.187
347	0.187
348	0.186
348	0.186
348	0.186
349	0.185
349	0.185
350	0.185
350	0.184
351	0.184
351	0.184
352	0.184
352	0.184
353	0.183
353	0.183
354	0.183
354	0.183
354	0.182
355	0.182
355	0.182
356	0.181
356	0.181
357	0.18
357	0.18
358	0.18
358	0.18
359	0.18
359	0.18
360	0.18
360	0.18
360	0.18
361	0.18
361	0.18
362	0.181
362	0.181
363	0.181
363	0.181
364	0.18
364	0.18
365	0.18
365	0.18
366	0.18
366	0.18
366	0.181
367	0.18
367	0.18
368	0.18
368	0.18
369	0.18
369	0.18
370	0.179
370	0.179
371	0.179
371	0.178
372	0.178
372	0.178
372	0.178
373	0.178
373	0.178
374	0.178
374	0.178
375	0.177
375	0.178
376	0.178
376	0.178
377	0.178
377	0.178
378	0.178
378	0.178
378	0.178
379	0.178
379	0.178
380	0.178
380	0.178
381	0.178
381	0.178
382	0.177
382	0.177
383	0.177
383	0.176
383	0.176
384	0.176
384	0.176
385	0.176
385	0.176
386	0.176
386	0.176
387	0.175
387	0.175
388	0.175
388	0.175
389	0.175
389	0.175
389	0.175
390	0.175
390	0.175
391	0.175
391	0.175
392	0.175
392	0.175
393	0.175
393	0.175
394	0.175
394	0.175
394	0.175
395	0.175
395	0.174
396	0.174
396	0.174
397	0.174
397	0.174
398	0.173
398	0.173
399	0.173
399	0.173
400	0.173
400	0.172
400	0.172
401	0.172
401	0.171
402	0.171
402	0.171
403	0.171
403	0.17
404	0.17
404	0.171
405	0.17
405	0.17
405	0.17
406	0.17
406	0.17
407	0.17
407	0.17
408	0.17
408	0.17
409	0.17
409	0.17
410	0.17
410	0.17
411	0.17
411	0.169
411	0.17
412	0.17
412	0.169
413	0.169
413	0.169
414	0.169
414	0.169
415	0.168
415	0.168
416	0.168
416	0.168
416	0.167
417	0.167
417	0.167
418	0.167
418	0.168
419	0.168
419	0.168
420	0.168
420	0.168
421	0.168
421	0.168
421	0.168
422	0.169
422	0.169
423	0.169
423	0.168
424	0.168
424	0.168
425	0.168
425	0.168
426	0.168
426	0.168
427	0.168
427	0.168
427	0.168
428	0.168
428	0.168
429	0.168
429	0.168
430	0.168
430	0.168
431	0.168
431	0.168
432	0.168
432	0.167
432	0.167
433	0.167
433	0.167
434	0.167
434	0.167
435	0.167
435	0.167
436	0.167
436	0.167
437	0.167
437	0.167
437	0.167
438	0.167
438	0.166
439	0.166
439	0.166
440	0.166
440	0.165
441	0.165
441	0.165
442	0.165
442	0.166
442	0.166
443	0.166
443	0.166
444	0.166
444	0.166
445	0.166
445	0.166
446	0.166
446	0.166
447	0.166
447	0.166
447	0.167
448	0.167
448	0.167
449	0.167
449	0.167
450	0.167
450	0.167
451	0.167
451	0.167
452	0.166
452	0.166
452	0.166
453	0.166
453	0.166
454	0.166
454	0.166
455	0.166
455	0.166
456	0.166
456	0.166
457	0.166
457	0.166
458	0.166
458	0.167
458	0.167
459	0.167
459	0.167
460	0.167
460	0.167
461	0.167
461	0.167
462	0.168
462	0.168
463	0.168
463	0.169
463	0.169
464	0.169
464	0.169
465	0.169
465	0.169
466	0.17
466	0.17
467	0.17
467	0.17
467	0.17
468	0.169
468	0.169
469	0.169
469	0.169
470	0.169
470	0.169
471	0.169
471	0.169
472	0.169
472	0.17
472	0.17
473	0.171
473	0.171
474	0.172
474	0.172
475	0.173
475	0.174
476	0.174
476	0.175
477	0.175
477	0.175
477	0.176
478	0.176
478	0.177
479	0.177
479	0.178
480	0.178
480	0.179
481	0.18
481	0.18
482	0.181
482	0.182
482	0.183
483	0.184
483	0.186
484	0.188
484	0.188
485	0.189
485	0.19
486	0.191
486	0.192
487	0.193
487	0.194
487	0.194
488	0.194
488	0.194
489	0.194
489	0.195
490	0.196
490	0.196
491	0.197
491	0.198
492	0.199
492	0.2
492	0.201
493	0.202
493	0.203
494	0.204
494	0.206
495	0.207
495	0.208
496	0.21
496	0.211
496	0.212
497	0.214
497	0.215
498	0.216
498	0.217
499	0.218
499	0.22
500	0.221
500	0.223
501	0.224
501	0.225
501	0.227
502	0.228
502	0.23
503	0.231
503	0.233
504	0.234
504	0.235
505	0.236
505	0.238
506	0.239
506	0.24
506	0.242
507	0.243
507	0.244
508	0.245
508	0.246
509	0.248
509	0.249
510	0.25
510	0.251
511	0.252
511	0.253
511	0.254
512	0.255
512	0.256
513	0.257
513	0.257
514	0.258
514	0.258
515	0.259
515	0.259
515	0.259
516	0.26
516	0.261
517	0.262
517	0.262
518	0.263
518	0.263
519	0.263
519	0.262
520	0.262
520	0.262
520	0.262
521	0.261
521	0.26
522	0.259
522	0.259
523	0.259
523	0.259
524	0.26
524	0.26
524	0.26
525	0.261
525	0.261
526	0.262
526	0.262
527	0.263
527	0.263
528	0.264
528	0.264
529	0.263
529	0.263
529	0.263
530	0.263
530	0.262
531	0.261
531	0.26
532	0.259
532	0.259
533	0.258
533	0.257
533	0.256
534	0.254
534	0.253
535	0.252
535	0.251
536	0.25
536	0.248
537	0.247
537	0.246
538	0.244
538	0.243
538	0.242
539	0.241
539	0.239
540	0.238
540	0.236
541	0.234
541	0.233
542	0.231
542	0.229
542	0.227
543	0.225
543	0.223
544	0.221
544	0.22
545	0.218
545	0.217
546	0.216
546	0.215
547	0.213
547	0.211
547	0.209
548	0.208
548	0.207
549	0.205
549	0.204
550	0.202
550	0.2
551	0.198
551	0.196
551	0.194
552	0.193
552	0.191
553	0.19
553	0.188
554	0.186
554	0.184
555	0.182
555	0.18
556	0.177
556	0.175
556	0.172
557	0.17
557	0.168
558	0.166
558	0.163
559	0.162
559	0.16
560	0.158
560	0.156
560	0.155
561	0.154
561	0.153
562	0.152
562	0.151
563	0.149
563	0.148
564	0.146
564	0.144
564	0.143
565	0.141
565	0.14
566	0.138
566	0.137
567	0.135
567	0.135
568	0.134
568	0.133
568	0.133
569	0.133
569	0.132
570	0.132
570	0.13
571	0.13
571	0.13
572	0.129
572	0.128
573	0.127
573	0.126
573	0.124
574	0.123
574	0.122
575	0.122
575	0.122
576	0.122
576	0.12
577	0.118
577	0.117
577	0.117
578	0.116
578	0.115
579	0.116
579	0.116
580	0.114
580	0.111
581	0.109
581	0.107
581	0.107
582	0.107
582	0.106
583	0.106
583	0.105
584	0.103
584	0.1
585	0.1
585	0.1
585	0.099
586	0.099
586	0.098
587	0.097
587	0.095
588	0.093
588	0.092
589	0.091
589	0.091
590	0.091
590	0.09
590	0.092
591	0.092
591	0.092
592	0.091
592	0.09
593	0.09
593	0.091
594	0.09
594	0.089
594	0.088
595	0.088
595	0.087
596	0.086
596	0.087
597	0.089
597	0.089
598	0.089
598	0.089
598	0.089
599	0.089
599	0.089
600	0.088
600	0.087
601	0.087
601	0.086
602	0.084
602	0.083
602	0.082
603	0.082
603	0.082
604	0.083
604	0.083
605	0.084
605	0.085
606	0.085
606	0.084
606	0.083
607	0.083
607	0.083
608	0.083
608	0.082
609	0.081
609	0.081
610	0.081
610	0.08
610	0.081
611	0.082
611	0.083
612	0.084
612	0.086
613	0.087
613	0.088
614	0.089
614	0.089
614	0.089
615	0.089
615	0.089
616	0.089
616	0.089
617	0.089
617	0.089
618	0.088
618	0.088
618	0.088
619	0.088
619	0.089
620	0.09
620	0.091
621	0.091
621	0.091
622	0.092
622	0.092
622	0.092
623	0.092
623	0.093
624	0.094
624	0.093
625	0.093
625	0.094
626	0.094
626	0.094
626	0.095
627	0.096
627	0.097
628	0.097
628	0.098
629	0.098
629	0.098
630	0.098
630	0.098
630	0.098
631	0.099
631	0.099
632	0.099
632	0.1
633	0.1
633	0.101
634	0.102
634	0.104
634	0.106
635	0.107
635	0.108
636	0.109
636	0.11
637	0.111
637	0.111
638	0.113
638	0.114
638	0.114
639	0.115
639	0.116
640	0.116
640	0.117
641	0.118
641	0.119
642	0.121
642	0.123
642	0.124
643	0.126
643	0.127
644	0.129
644	0.13
645	0.132
645	0.134
646	0.136
646	0.139
646	0.142
647	0.144
647	0.146
648	0.148
648	0.151
649	0.153
649	0.155
650	0.158
650	0.16
650	0.163
651	0.165
651	0.167
652	0.169
652	0.17
653	0.173
653	0.179
653	0.184
654	0.147
654	0.119
655	0.121
655	0.122
656	0.124
656	0.125
657	0.127
657	0.129
657	0.13
658	0.128
658	0.123
659	0.155
659	0.2
660	0.208
660	0.21
661	0.212
661	0.214
661	0.217
662	0.219
662	0.222
663	0.224
663	0.227
664	0.229
664	0.231
665	0.234
665	0.236
665	0.238
666	0.241
666	0.243
667	0.245
667	0.247
668	0.249
668	0.251
669	0.253
669	0.256
669	0.258
670	0.261
670	0.262
671	0.263
671	0.265
672	0.267
672	0.268
672	0.269
673	0.271
673	0.273
674	0.275
674	0.276
675	0.278
675	0.28
676	0.282
676	0.284
676	0.286
677	0.288
677	0.29
678	0.291
678	0.292
679	0.293
679	0.295
680	0.296
680	0.298
680	0.298
681	0.299
681	0.3
682	0.301
682	0.302
683	0.303
683	0.304
684	0.305
684	0.306
684	0.306
685	0.306
685	0.306
686	0.306
686	0.306
687	0.306
687	0.305
687	0.305
688	0.304
688	0.304
689	0.305
689	0.305
690	0.306
690	0.306
691	0.306
691	0.306
691	0.306
692	0.305
692	0.305
693	0.305
693	0.304
694	0.303
694	0.302
695	0.302
695	0.302
695	0.301
696	0.3
696	0.299
697	0.298
697	0.297
698	0.296
698	0.294
698	0.292
699	0.291
699	0.288
700	0.286
700	0.284
701	0.282
701	0.28
702	0.278
702	0.275
702	0.273
703	0.271
703	0.269
704	0.268
704	0.266
705	0.265
705	0.264
705	0.263
706	0.262
706	0.261
707	0.26
707	0.258
708	0.257
708	0.256
709	0.255
709	0.253
709	0.251
710	0.249
710	0.247
711	0.246
711	0.244
712	0.242
712	0.239
713	0.237
713	0.235
713	0.233
714	0.23
714	0.228
715	0.225
715	0.223
716	0.22
716	0.218
716	0.215
717	0.213
717	0.211
718	0.208
718	0.206
719	0.204
719	0.202
720	0.2
720	0.197
720	0.195
721	0.193
721	0.191
722	0.189
722	0.186
723	0.184
723	0.183
723	0.181
724	0.179
724	0.177
725	0.175
725	0.173
726	0.172
726	0.171
727	0.169
727	0.168
727	0.166
728	0.164
728	0.163
729	0.162
729	0.16
730	0.158
730	0.156
730	0.154
731	0.153
731	0.151
732	0.15
732	0.148
733	0.147
733	0.146
734	0.144
734	0.143
734	0.143
735	0.142
735	0.141
736	0.14
736	0.139
737	0.137
737	0.136
737	0.135
738	0.132
738	0.13
739	0.128
739	0.126
740	0.124
740	0.122
741	0.121
741	0.12
741	0.118
742	0.115
742	0.114
743	0.113
743	0.112
744	0.111
744	0.11
744	0.109
745	0.107
745	0.105
746	0.103
746	0.102
747	0.101
747	0.1
748	0.099
748	0.097
748	0.096
749	0.095
749	0.094
750	0.093
750	0.092
751	0.091
751	0.091
751	0.091
752	0.09
752	0.089
753	0.089
753	0.088
754	0.088
754	0.087
754	0.087
755	0.087
755	0.087
756	0.086
756	0.084
757	0.084
757	0.083
758	0.083
758	0.082
758	0.082
759	0.082
759	0.081
760	0.079
760	0.078
761	0.077
761	0.076
761	0.075
762	0.074
762	0.073
763	0.071
763	0.069
764	0.067
764	0.065
764	0.063
765	0.062
765	0.06
766	0.059
766	0.058
767	0.057
767	0.055
768	0.053
768	0.052
768	0.051
769	0.05
769	0.049
770	0.047
770	0.046
771	0.044
771	0.042
771	0.04
772	0.038
772	0.037
773	0.035
773	0.033
774	0.031
774	0.029
775	0.028
775	0.026
775	0.024
776	0.023
776	0.021
777	0.02
777	0.018
778	0.017
778	0.015
778	0.013
779	0.012
779	0.01
780	0.008
780	0.006
781	0.004
781	0.001
781	-0.002
782	-0.005
782	-0.009
783	-0.012
783	-0.016
784	-0.02
784	-0.025
784	-0.029
785	-0.034
785	-0.039
786	-0.043
786	-0.047
787	-0.05
787	-0.054
788	-0.059
788	-0.065
788	-0.071
789	-0.078
789	-0.084
790	-0.089
790	-0.094
791	-0.1
791	-0.106
791	-0.11
792	-0.107
792	-0.099
793	-0.096
793	-0.094
794	-0.094
794	-0.096
794	-0.1
795	-0.103
795	-0.103
796	-0.104
796	-0.106
797	-0.115
797	-0.126
797	-0.133
798	-0.138
798	-0.141
799	-0.142
799	-0.141
800	-0.141
800	-0.142
801	-0.145
801	-0.146
801	-0.146
802	-0.147
802	-0.148
803	-0.148
803	-0.148
804	-0.147
804	-0.142
804	-0.136
805	-0.132
805	-0.13
806	-0.128
806	-0.127
807	-0.127
807	-0.127
807	-0.127
808	-0.128
808	-0.129
809	-0.134
809	-0.14
810	-0.143
810	-0.146
810	-0.149
811	-0.152
811	-0.153
812	-0.149
812	-0.145
813	-0.145
813	-0.146
813	-0.148
814	-0.149
814	-0.147
815	-0.143
815	-0.138
816	-0.132
816	-0.127
817	-0.124
817	-0.12
817	-0.111
818	-0.101
818	-0.089
819	-0.077
819	-0.067
820	-0.059
820	-0.052
820	-0.045
821	-0.038
821	-0.031
822	-0.026
822	-0.02
823	-0.016
823	-0.013
823	-0.009
824	-0.006
824	-0.002
825	0.002
825	0.006
826	0.009
826	0.011
826	0.013
827	0.016
827	0.017
828	0.019
828	0.02
829	0.022
829	0.023
829	0.023
830	0.023
830	0.024
831	0.025
831	0.026
832	0.026
832	0.027
832	0.027
833	0.027
833	0.028
834	0.028
834	0.028
835	0.028
835	0.028
835	0.028
836	0.028
836	0.028
837	0.029
837	0.029
838	0.03
838	0.03
839	0.031
839	0.031
839	0.031
840	0.031
840	0.031
841	0.031
841	0.031
842	0.031
842	0.031
842	0.03
843	0.03
843	0.03
844	0.031
844	0.031
845	0.031
845	0.031
845	0.031
846	0.031
846	0.031
847	0.031
847	0.032
848	0.032
848	0.032
848	0.032
849	0.033
849	0.033
850	0.033
850	0.033
851	0.034
851	0.034
851	0.034
852	0.033
852	0.033
853	0.033
853	0.033
854	0.033
854	0.033
854	0.032
855	0.032
855	0.032
856	0.031
856	0.031
857	0.031
857	0.031
857	0.031
858	0.031
858	0.031
859	0.031
859	0.032
860	0.033
860	0.033
860	0.034
861	0.035
861	0.036
862	0.036
862	0.037
863	0.037
863	0.037
863	0.037
864	0.037
864	0.037
865	0.037
865	0.037
866	0.037
866	0.037
866	0.037
867	0.038
867	0.038
868	0.038
868	0.038
869	0.038
869	0.038
869	0.037
870	0.036
870	0.035
871	0.035
871	0.034
872	0.034
872	0.034
872	0.034
873	0.034
873	0.035
874	0.035
874	0.035
875	0.036
875	0.035
875	0.035
876	0.035
876	0.034
877	0.033
877	0.033
878	0.032
878	0.031
878	0.03
879	0.03
879	0.029
880	0.029
880	0.029
881	0.029
881	0.029
881	0.029
882	0.029
882	0.029
883	0.029
883	0.028
884	0.028
884	0.028
884	0.027
885	0.027
885	0.027
886	0.027
886	0.026
887	0.026
887	0.026
887	0.027
888	0.027
888	0.028
889	0.029
889	0.029
890	0.03
890	0.031
890	0.031
891	0.032
891	0.032
892	0.033
892	0.033
893	0.033
893	0.033
893	0.033
894	0.033
894	0.033
895	0.032
895	0.032
895	0.031
896	0.03
896	0.029
897	0.029
897	0.028
898	0.027
898	0.027
898	0.026
899	0.026
899	0.026
900	0.026
900	0.026
901	0.026
901	0.026
901	0.026
902	0.026
902	0.027
903	0.027
903	0.027
904	0.028
904	0.028
904	0.029
905	0.03
905	0.031
906	0.031
906	0.032
907	0.032
907	0.032
907	0.033
908	0.033
908	0.034
909	0.034
909	0.035
910	0.035
910	0.036
910	0.036
911	0.036
911	0.036
912	0.036
912	0.036
913	0.036
913	0.035
913	0.035
914	0.034
914	0.033
915	0.032
915	0.031
916	0.03
916	0.029
916	0.028
917	0.026
917	0.025
918	0.023
918	0.021
918	0.02
919	0.019
919	0.018
920	0.017
920	0.016
921	0.016
921	0.016
921	0.016
922	0.016
922	0.017
923	0.018
923	0.018
924	0.019
924	0.02
924	0.02
925	0.021
925	0.022
926	0.023
926	0.023
927	0.023
927	0.023
927	0.024
928	0.023
928	0.023
929	0.023
929	0.022
930	0.022
930	0.021
930	0.021
931	0.02
931	0.02
932	0.02
932	0.019
933	0.019
933	0.019
933	0.019
934	0.018
934	0.018
935	0.017
935	0.017
935	0.016
936	0.016
936	0.015
937	0.014
937	0.014
938	0.013
938	0.013
938	0.013
939	0.014
939	0.014
940	0.015
940	0.016
941	0.017
941	0.018
941	0.019
942	0.02
942	0.022
943	0.023
943	0.023
944	0.024
944	0.024
944	0.024
945	0.025
945	0.025
946	0.026
946	0.026
946	0.026
947	0.026
947	0.027
948	0.027
948	0.027
949	0.027
949	0.028
949	0.028
950	0.028
950	0.028
951	0.028
951	0.027
952	0.027
952	0.026
952	0.026
953	0.025
953	0.025
954	0.025
954	0.024
955	0.024
955	0.025
955	0.025
956	0.025
956	0.025
957	0.025
957	0.025
957	0.025
958	0.025
958	0.026
959	0.026
959	0.026
960	0.026
960	0.026
960	0.026
961	0.026
961	0.027
962	0.027
962	0.027
963	0.028
963	0.028
963	0.028
964	0.029
964	0.029
965	0.029
965	0.029
966	0.029
966	0.029
966	0.029
967	0.029
967	0.028
968	0.027
968	0.026
968	0.026
969	0.025
969	0.024
970	0.023
970	0.023
971	0.022
971	0.022
971	0.021
972	0.022
972	0.022
973	0.022
973	0.022
974	0.022
974	0.022
974	0.023
975	0.024
975	0.025
976	0.026
976	0.027
976	0.027
977	0.028
977	0.028
978	0.028
978	0.029
979	0.029
979	0.028
979	0.028
980	0.027
980	0.026
981	0.025
981	0.024
982	0.023
982	0.023
982	0.022
983	0.021
983	0.019
984	0.018
984	0.017
984	0.017
985	0.016
985	0.015
986	0.014
986	0.013
987	0.012
987	0.012
987	0.012
988	0.011
988	0.012
989	0.012
989	0.012
990	0.012
990	0.013
990	0.014
991	0.015
991	0.016
992	0.018
992	0.019
992	0.02
993	0.02
993	0.021
994	0.021
994	0.021
995	0.021
995	0.021
995	0.021
996	0.02
996	0.019
997	0.019
997	0.018
997	0.018
998	0.018
998	0.018
999	0.018
999	0.018
1000	0.019
1000	0.019
1000	0.02
1001	0.021
1001	0.021
1002	0.022
1002	0.023
1003	0.024
1003	0.024
1003	0.024
1004	0.024
1004	0.024
1005	0.024
1005	0.024
1005	0.023
1006	0.023
1006	0.023
1007	0.023
1007	0.022
1008	0.022
1008	0.022
1008	0.022
1009	0.022
1009	0.022
1010	0.022
1010	0.022
1010	0.022
1011	0.022
1011	0.022
1012	0.021
1012	0.021
1013	0.02
1013	0.019
1013	0.019
1014	0.018
1014	0.017
1015	0.016
1015	0.015
1016	0.014
1016	0.013
1016	0.012
1017	0.012
1017	0.011
1018	0.01
1018	0.009
1018	0.009
1019	0.008
1019	0.008
1020	0.008
1020	0.008
1021	0.007
1021	0.008
1021	0.008
1022	0.008
1022	0.009
1023	0.009
1023	0.01
1023	0.01
1024	0.01
1024	0.01
1025	0.01
1025	0.01
1026	0.01
1026	0.01
1026	0.009
1027	0.009
1027	0.008
1028	0.008
1028	0.007
1028	0.007
1029	0.007
1029	0.006
1030	0.006
1030	0.006
1031	0.006
1031	0.005
1031	0.005
1032	0.005
1032	0.005
1033	0.005
1033	0.006
1033	0.005
1034	0.005
1034	0.005
1035	0.004
1035	0.004
1036	0.004
1036	0.004
1036	0.004
1037	0.004
1037	0.004
1038	0.004
1038	0.004
1039	0.005
1039	0.006
1039	0.007
1040	0.007
1040	0.009
1041	0.01
1041	0.01
1041	0.011
1042	0.012
1042	0.013
1043	0.013
1043	0.014
1044	0.014
1044	0.015
1044	0.015
1045	0.016
1045	0.016
1046	0.015
1046	0.015
1046	0.015
1047	0.015
1047	0.015
1048	0.015
1048	0.015
1049	0.014
1049	0.013
1049	0.013
1050	0.012
1050	0.011
1051	0.01
1051	0.01
1051	0.009
1052	0.009
1052	0.008
1053	0.007
1053	0.007
1053	0.006
1054	0.005
1054	0.005
1055	0.004
1055	0.003
1056	0.002
1056	0.001
1056	-0
1057	-0.001
1057	-0.002
1058	-0.003
1058	-0.003
1058	-0.003
1059	-0.004
1059	-0.004
1060	-0.004
1060	-0.004
1061	-0.004
1061	-0.003
1061	-0.003
1062	-0.003
1062	-0.003
1063	-0.003
1063	-0.003
1063	-0.003
1064	-0.003
1064	-0.002
1065	-0.002
1065	-0.002
1066	-0.002
1066	-0.001
1066	-0.001
1067	-0.001
1067	-0
1068	-0
1068	-0
1068	-0.001
1069	-0.001
1069	-0.002
1070	-0.003
1070	-0.004
1071	-0.005
1071	-0.005
1071	-0.006
1072	-0.007
1072	-0.008
1073	-0.009
1073	-0.009
1073	-0.01
1074	-0.011
1074	-0.012
1075	-0.013
1075	-0.014
1076	-0.015
1076	-0.015
1076	-0.016
1077	-0.017
1077	-0.016
1078	-0.017
1078	-0.017
1078	-0.016
1079	-0.017
1079	-0.016
1080	-0.015
1080	-0.015
1080	-0.015
1081	-0.014
1081	-0.013
1082	-0.013
1082	-0.013
1083	-0.012
1083	-0.012
1083	-0.012
1084	-0.012
1084	-0.011
1085	-0.011
1085	-0.01
1085	-0.01
1086	-0.009
1086	-0.01
1087	-0.009
1087	-0.009
1088	-0.009
1088	-0.009
1088	-0.009
1089	-0.01
1089	-0.01
1090	-0.011
1090	-0.011
1090	-0.012
1091	-0.012
1091	-0.012
1092	-0.012
1092	-0.012
1092	-0.012
1093	-0.012
1093	-0.011
1094	-0.011
1094	-0.012
1095	-0.012
1095	-0.012
1095	-0.011
1096	-0.011
1096	-0.011
1097	-0.01
1097	-0.009
1097	-0.008
1098	-0.007
1098	-0.005
1099	-0.004
1099	-0.001
1100	-0
1100	0.001
1100	0.002
1101	0.003
1101	0.003
1102	0.005
1102	0.005
1102	0.007
1103	0.008
1103	0.01
1104	0.012
1104	0.015
1104	0.019
1105	0.021
1105	0.023
1106	0.026
1106	0.03
1107	0.033
1107	0.037
1107	0.044
1108	0.067
1108	0.099
1109	0.14
1109	0.2
1109	0.245
1110	0.321
1110	0.465
1111	0.945
1111	-0
