Data from 17c-2a_Absorbance__2158__02159.txt Node

Date: Fri Jan 26 10:59:26 CET 2024
User: Marek
Spectrometer: MAYP115816
Trigger mode: 0
Integration Time (sec): 2.000000E-1
Scans to average: 10
Electric dark correction enabled: true
Nonlinearity correction enabled: true
Boxcar width: 5
XAxis mode: Wavelengths
Number of Pixels in Spectrum: 2068
>>>>>Begin Spectral Data<<<<<
199	-1.503
199	-1.366
200	-1.217
200	-1.106
201	-1.036
201	-0.993
202	-0.928
202	-0.878
203	-0.835
203	-0.8
204	-0.775
204	-0.751
205	-0.73
205	-0.721
205	-0.72
206	-0.715
206	-0.712
207	-0.709
207	-0.708
208	-0.708
208	-0.707
209	-0.703
209	-0.701
210	-0.702
210	-0.702
211	-0.703
211	-0.704
212	-0.705
212	-0.704
213	-0.703
213	-0.698
213	-0.699
214	-0.697
214	-0.695
215	-0.69
215	-0.689
216	-0.686
216	-0.687
217	-0.683
217	-0.682
218	-0.678
218	-0.677
219	-0.673
219	-0.672
220	-0.671
220	-0.672
221	-0.669
221	-0.667
221	-0.663
222	-0.657
222	-0.654
223	-0.649
223	-0.646
224	-0.641
224	-0.634
225	-0.626
225	-0.618
226	-0.61
226	-0.598
227	-0.587
227	-0.576
228	-0.56
228	-0.544
229	-0.523
229	-0.501
229	-0.477
230	-0.449
230	-0.419
231	-0.388
231	-0.354
232	-0.318
232	-0.279
233	-0.239
233	-0.198
234	-0.159
234	-0.119
235	-0.08
235	-0.044
236	-0.008
236	0.027
236	0.06
237	0.09
237	0.118
238	0.144
238	0.168
239	0.19
239	0.21
240	0.228
240	0.244
241	0.259
241	0.273
242	0.285
242	0.296
243	0.307
243	0.316
243	0.324
244	0.332
244	0.339
245	0.345
245	0.351
246	0.356
246	0.361
247	0.366
247	0.371
248	0.375
248	0.379
249	0.383
249	0.386
250	0.39
250	0.393
250	0.396
251	0.399
251	0.402
252	0.405
252	0.407
253	0.41
253	0.411
254	0.413
254	0.416
255	0.417
255	0.419
256	0.421
256	0.423
257	0.424
257	0.425
258	0.426
258	0.427
258	0.427
259	0.428
259	0.429
260	0.429
260	0.429
261	0.429
261	0.429
262	0.429
262	0.429
263	0.429
263	0.428
264	0.428
264	0.427
265	0.427
265	0.426
265	0.426
266	0.425
266	0.424
267	0.423
267	0.421
268	0.42
268	0.418
269	0.417
269	0.415
270	0.413
270	0.411
271	0.409
271	0.408
272	0.406
272	0.404
272	0.402
273	0.4
273	0.398
274	0.396
274	0.394
275	0.392
275	0.389
276	0.387
276	0.385
277	0.383
277	0.38
278	0.378
278	0.376
278	0.373
279	0.371
279	0.368
280	0.366
280	0.363
281	0.361
281	0.358
282	0.356
282	0.354
283	0.352
283	0.35
284	0.348
284	0.346
285	0.344
285	0.343
285	0.341
286	0.339
286	0.337
287	0.335
287	0.333
288	0.332
288	0.33
289	0.328
289	0.326
290	0.325
290	0.323
291	0.321
291	0.32
292	0.319
292	0.317
292	0.316
293	0.314
293	0.313
294	0.311
294	0.31
295	0.309
295	0.308
296	0.307
296	0.306
297	0.305
297	0.304
298	0.303
298	0.302
298	0.301
299	0.3
299	0.299
300	0.298
300	0.298
301	0.297
301	0.296
302	0.295
302	0.294
303	0.293
303	0.293
304	0.292
304	0.291
305	0.29
305	0.289
305	0.289
306	0.288
306	0.287
307	0.286
307	0.285
308	0.284
308	0.284
309	0.283
309	0.282
310	0.281
310	0.281
311	0.28
311	0.279
311	0.279
312	0.278
312	0.278
313	0.277
313	0.276
314	0.275
314	0.275
315	0.274
315	0.273
316	0.273
316	0.272
317	0.271
317	0.27
318	0.269
318	0.269
318	0.268
319	0.267
319	0.267
320	0.266
320	0.265
321	0.264
321	0.263
322	0.263
322	0.262
323	0.261
323	0.26
324	0.259
324	0.259
324	0.258
325	0.257
325	0.257
326	0.256
326	0.255
327	0.254
327	0.254
328	0.253
328	0.252
329	0.252
329	0.251
330	0.251
330	0.25
330	0.249
331	0.249
331	0.248
332	0.248
332	0.247
333	0.247
333	0.246
334	0.246
334	0.245
335	0.244
335	0.244
336	0.243
336	0.242
336	0.242
337	0.241
337	0.241
338	0.24
338	0.239
339	0.239
339	0.239
340	0.238
340	0.237
341	0.237
341	0.236
342	0.236
342	0.236
342	0.235
343	0.235
343	0.235
344	0.234
344	0.234
345	0.233
345	0.233
346	0.233
346	0.232
347	0.232
347	0.231
348	0.231
348	0.231
348	0.23
349	0.23
349	0.23
350	0.229
350	0.229
351	0.229
351	0.229
352	0.228
352	0.228
353	0.228
353	0.227
354	0.227
354	0.226
354	0.226
355	0.225
355	0.225
356	0.225
356	0.224
357	0.224
357	0.223
358	0.223
358	0.223
359	0.223
359	0.223
360	0.223
360	0.223
360	0.223
361	0.223
361	0.223
362	0.224
362	0.224
363	0.224
363	0.223
364	0.223
364	0.223
365	0.223
365	0.223
366	0.223
366	0.223
366	0.223
367	0.223
367	0.222
368	0.222
368	0.222
369	0.222
369	0.222
370	0.221
370	0.221
371	0.22
371	0.22
372	0.22
372	0.22
372	0.22
373	0.219
373	0.219
374	0.219
374	0.219
375	0.219
375	0.219
376	0.219
376	0.219
377	0.219
377	0.219
378	0.219
378	0.219
378	0.219
379	0.219
379	0.219
380	0.219
380	0.218
381	0.218
381	0.218
382	0.218
382	0.218
383	0.217
383	0.217
383	0.217
384	0.217
384	0.217
385	0.216
385	0.216
386	0.216
386	0.216
387	0.216
387	0.215
388	0.215
388	0.215
389	0.215
389	0.215
389	0.215
390	0.215
390	0.214
391	0.215
391	0.215
392	0.215
392	0.215
393	0.215
393	0.215
394	0.215
394	0.215
394	0.215
395	0.214
395	0.214
396	0.214
396	0.213
397	0.213
397	0.212
398	0.212
398	0.212
399	0.212
399	0.211
400	0.211
400	0.211
400	0.211
401	0.21
401	0.21
402	0.21
402	0.209
403	0.209
403	0.209
404	0.209
404	0.209
405	0.209
405	0.209
405	0.209
406	0.208
406	0.209
407	0.208
407	0.208
408	0.208
408	0.208
409	0.207
409	0.207
410	0.207
410	0.207
411	0.207
411	0.207
411	0.207
412	0.206
412	0.206
413	0.206
413	0.206
414	0.206
414	0.206
415	0.205
415	0.205
416	0.205
416	0.204
416	0.204
417	0.204
417	0.204
418	0.204
418	0.204
419	0.204
419	0.204
420	0.205
420	0.205
421	0.205
421	0.205
421	0.205
422	0.205
422	0.205
423	0.205
423	0.205
424	0.204
424	0.204
425	0.204
425	0.204
426	0.204
426	0.204
427	0.204
427	0.204
427	0.204
428	0.204
428	0.204
429	0.204
429	0.204
430	0.204
430	0.204
431	0.204
431	0.204
432	0.203
432	0.203
432	0.202
433	0.202
433	0.202
434	0.202
434	0.202
435	0.202
435	0.202
436	0.202
436	0.202
437	0.202
437	0.202
437	0.202
438	0.202
438	0.202
439	0.201
439	0.201
440	0.201
440	0.201
441	0.201
441	0.201
442	0.201
442	0.201
442	0.201
443	0.201
443	0.201
444	0.201
444	0.201
445	0.201
445	0.201
446	0.201
446	0.201
447	0.201
447	0.201
447	0.201
448	0.201
448	0.202
449	0.201
449	0.201
450	0.201
450	0.202
451	0.201
451	0.202
452	0.201
452	0.201
452	0.201
453	0.201
453	0.201
454	0.201
454	0.201
455	0.201
455	0.201
456	0.201
456	0.201
457	0.201
457	0.201
458	0.201
458	0.201
458	0.202
459	0.202
459	0.202
460	0.201
460	0.201
461	0.201
461	0.201
462	0.201
462	0.202
463	0.202
463	0.203
463	0.203
464	0.203
464	0.203
465	0.204
465	0.204
466	0.204
466	0.204
467	0.205
467	0.204
467	0.204
468	0.203
468	0.203
469	0.203
469	0.203
470	0.203
470	0.203
471	0.203
471	0.203
472	0.203
472	0.204
472	0.204
473	0.205
473	0.206
474	0.206
474	0.207
475	0.208
475	0.209
476	0.209
476	0.21
477	0.21
477	0.211
477	0.212
478	0.212
478	0.213
479	0.213
479	0.214
480	0.215
480	0.215
481	0.216
481	0.217
482	0.218
482	0.218
482	0.22
483	0.222
483	0.224
484	0.225
484	0.227
485	0.228
485	0.23
486	0.23
486	0.231
487	0.232
487	0.233
487	0.234
488	0.234
488	0.234
489	0.234
489	0.234
490	0.235
490	0.235
491	0.236
491	0.237
492	0.239
492	0.239
492	0.241
493	0.242
493	0.243
494	0.245
494	0.247
495	0.249
495	0.25
496	0.252
496	0.253
496	0.254
497	0.256
497	0.258
498	0.259
498	0.26
499	0.262
499	0.263
500	0.265
500	0.267
501	0.269
501	0.271
501	0.273
502	0.274
502	0.276
503	0.278
503	0.279
504	0.281
504	0.282
505	0.283
505	0.284
506	0.286
506	0.287
506	0.288
507	0.289
507	0.291
508	0.292
508	0.293
509	0.295
509	0.296
510	0.297
510	0.299
511	0.3
511	0.301
511	0.302
512	0.304
512	0.304
513	0.305
513	0.305
514	0.306
514	0.307
515	0.307
515	0.308
515	0.308
516	0.309
516	0.31
517	0.311
517	0.311
518	0.312
518	0.312
519	0.312
519	0.311
520	0.311
520	0.31
520	0.31
521	0.309
521	0.308
522	0.307
522	0.307
523	0.307
523	0.308
524	0.308
524	0.309
524	0.31
525	0.311
525	0.312
526	0.313
526	0.313
527	0.314
527	0.314
528	0.314
528	0.314
529	0.314
529	0.314
529	0.313
530	0.312
530	0.312
531	0.311
531	0.31
532	0.309
532	0.308
533	0.307
533	0.305
533	0.304
534	0.303
534	0.301
535	0.3
535	0.299
536	0.297
536	0.295
537	0.294
537	0.293
538	0.291
538	0.29
538	0.288
539	0.287
539	0.285
540	0.283
540	0.281
541	0.279
541	0.277
542	0.275
542	0.272
542	0.27
543	0.268
543	0.266
544	0.264
544	0.262
545	0.26
545	0.259
546	0.257
546	0.255
547	0.254
547	0.251
547	0.249
548	0.247
548	0.245
549	0.243
549	0.241
550	0.24
550	0.237
551	0.234
551	0.232
551	0.229
552	0.227
552	0.225
553	0.224
553	0.222
554	0.22
554	0.217
555	0.215
555	0.212
556	0.209
556	0.206
556	0.204
557	0.201
557	0.199
558	0.196
558	0.194
559	0.191
559	0.189
560	0.187
560	0.185
560	0.184
561	0.183
561	0.181
562	0.18
562	0.178
563	0.176
563	0.174
564	0.172
564	0.17
564	0.168
565	0.166
565	0.165
566	0.162
566	0.161
567	0.159
567	0.158
568	0.157
568	0.156
568	0.156
569	0.156
569	0.155
570	0.154
570	0.153
571	0.152
571	0.152
572	0.151
572	0.15
573	0.149
573	0.147
573	0.145
574	0.144
574	0.143
575	0.142
575	0.142
576	0.142
576	0.14
577	0.138
577	0.137
577	0.136
578	0.135
578	0.135
579	0.135
579	0.135
580	0.133
580	0.13
581	0.127
581	0.126
581	0.125
582	0.125
582	0.125
583	0.125
583	0.123
584	0.12
584	0.117
585	0.116
585	0.116
585	0.116
586	0.116
586	0.115
587	0.113
587	0.111
588	0.109
588	0.107
589	0.107
589	0.106
590	0.105
590	0.105
590	0.106
591	0.106
591	0.105
592	0.105
592	0.104
593	0.104
593	0.105
594	0.104
594	0.103
594	0.102
595	0.102
595	0.101
596	0.1
596	0.101
597	0.102
597	0.103
598	0.103
598	0.103
598	0.104
599	0.104
599	0.103
600	0.102
600	0.101
601	0.1
601	0.099
602	0.097
602	0.097
602	0.095
603	0.095
603	0.095
604	0.096
604	0.096
605	0.097
605	0.098
606	0.097
606	0.096
606	0.096
607	0.095
607	0.095
608	0.095
608	0.093
609	0.093
609	0.093
610	0.092
610	0.091
610	0.092
611	0.093
611	0.094
612	0.096
612	0.097
613	0.099
613	0.101
614	0.101
614	0.101
614	0.101
615	0.101
615	0.101
616	0.102
616	0.101
617	0.101
617	0.1
618	0.1
618	0.099
618	0.099
619	0.099
619	0.1
620	0.101
620	0.102
621	0.102
621	0.102
622	0.102
622	0.103
622	0.102
623	0.102
623	0.104
624	0.104
624	0.104
625	0.104
625	0.105
626	0.105
626	0.106
626	0.107
627	0.108
627	0.109
628	0.11
628	0.11
629	0.111
629	0.111
630	0.111
630	0.111
630	0.112
631	0.112
631	0.113
632	0.113
632	0.113
633	0.114
633	0.115
634	0.116
634	0.118
634	0.12
635	0.121
635	0.122
636	0.123
636	0.125
637	0.125
637	0.126
638	0.127
638	0.129
638	0.13
639	0.131
639	0.131
640	0.133
640	0.134
641	0.136
641	0.137
642	0.139
642	0.141
642	0.143
643	0.145
643	0.146
644	0.148
644	0.15
645	0.152
645	0.154
646	0.156
646	0.159
646	0.162
647	0.165
647	0.168
648	0.17
648	0.173
649	0.176
649	0.179
650	0.182
650	0.185
650	0.188
651	0.191
651	0.193
652	0.195
652	0.197
653	0.199
653	0.206
653	0.213
654	0.169
654	0.136
655	0.139
655	0.141
656	0.142
656	0.144
657	0.146
657	0.148
657	0.15
658	0.148
658	0.14
659	0.178
659	0.232
660	0.241
660	0.243
661	0.246
661	0.249
661	0.251
662	0.254
662	0.257
663	0.261
663	0.263
664	0.266
664	0.268
665	0.27
665	0.273
665	0.276
666	0.278
666	0.281
667	0.283
667	0.286
668	0.288
668	0.291
669	0.293
669	0.296
669	0.3
670	0.303
670	0.305
671	0.307
671	0.309
672	0.311
672	0.312
672	0.314
673	0.316
673	0.318
674	0.319
674	0.321
675	0.323
675	0.325
676	0.327
676	0.329
676	0.331
677	0.334
677	0.336
678	0.337
678	0.338
679	0.339
679	0.34
680	0.342
680	0.343
680	0.344
681	0.345
681	0.346
682	0.347
682	0.349
683	0.35
683	0.352
684	0.353
684	0.353
684	0.353
685	0.353
685	0.354
686	0.354
686	0.353
687	0.353
687	0.352
687	0.352
688	0.351
688	0.351
689	0.352
689	0.353
690	0.354
690	0.354
691	0.354
691	0.354
691	0.354
692	0.354
692	0.353
693	0.353
693	0.352
694	0.35
694	0.348
695	0.348
695	0.348
695	0.347
696	0.345
696	0.344
697	0.343
697	0.342
698	0.341
698	0.339
698	0.337
699	0.335
699	0.333
700	0.329
700	0.327
701	0.325
701	0.323
702	0.32
702	0.318
702	0.315
703	0.313
703	0.311
704	0.308
704	0.307
705	0.306
705	0.304
705	0.302
706	0.301
706	0.3
707	0.298
707	0.296
708	0.295
708	0.294
709	0.292
709	0.29
709	0.288
710	0.285
710	0.283
711	0.282
711	0.279
712	0.277
712	0.275
713	0.273
713	0.271
713	0.268
714	0.265
714	0.263
715	0.26
715	0.257
716	0.253
716	0.25
716	0.247
717	0.244
717	0.241
718	0.238
718	0.235
719	0.232
719	0.23
720	0.228
720	0.225
720	0.223
721	0.22
721	0.218
722	0.216
722	0.213
723	0.211
723	0.21
723	0.207
724	0.205
724	0.203
725	0.201
725	0.199
726	0.197
726	0.195
727	0.192
727	0.19
727	0.189
728	0.186
728	0.184
729	0.183
729	0.181
730	0.179
730	0.177
730	0.175
731	0.174
731	0.172
732	0.171
732	0.17
733	0.168
733	0.167
734	0.166
734	0.164
734	0.163
735	0.162
735	0.161
736	0.159
736	0.157
737	0.155
737	0.153
737	0.151
738	0.148
738	0.145
739	0.143
739	0.141
740	0.139
740	0.137
741	0.136
741	0.134
741	0.132
742	0.129
742	0.127
743	0.126
743	0.125
744	0.123
744	0.122
744	0.12
745	0.118
745	0.116
746	0.114
746	0.113
747	0.112
747	0.111
748	0.11
748	0.109
748	0.108
749	0.106
749	0.105
750	0.105
750	0.104
751	0.103
751	0.103
751	0.103
752	0.102
752	0.1
753	0.099
753	0.098
754	0.098
754	0.096
754	0.096
755	0.095
755	0.095
756	0.094
756	0.092
757	0.091
757	0.091
758	0.09
758	0.09
758	0.09
759	0.089
759	0.088
760	0.086
760	0.084
761	0.083
761	0.082
761	0.081
762	0.078
762	0.077
763	0.075
763	0.072
764	0.069
764	0.067
764	0.065
765	0.063
765	0.061
766	0.06
766	0.059
767	0.058
767	0.056
768	0.053
768	0.052
768	0.051
769	0.05
769	0.05
770	0.048
770	0.047
771	0.045
771	0.043
771	0.04
772	0.039
772	0.037
773	0.035
773	0.033
774	0.031
774	0.028
775	0.026
775	0.025
775	0.022
776	0.02
776	0.019
777	0.017
777	0.015
778	0.012
778	0.009
778	0.007
779	0.005
779	0.003
780	-0
780	-0.003
781	-0.006
781	-0.009
781	-0.013
782	-0.017
782	-0.021
783	-0.025
783	-0.029
784	-0.034
784	-0.039
784	-0.044
785	-0.05
785	-0.056
786	-0.061
786	-0.065
787	-0.068
787	-0.072
788	-0.078
788	-0.085
788	-0.091
789	-0.098
789	-0.103
790	-0.105
790	-0.108
791	-0.113
791	-0.116
791	-0.119
792	-0.114
792	-0.104
793	-0.099
793	-0.095
794	-0.093
794	-0.095
794	-0.1
795	-0.102
795	-0.103
796	-0.103
796	-0.106
797	-0.114
797	-0.126
797	-0.132
798	-0.138
798	-0.141
799	-0.141
799	-0.141
800	-0.14
800	-0.142
801	-0.145
801	-0.145
801	-0.145
802	-0.146
802	-0.147
803	-0.148
803	-0.148
804	-0.147
804	-0.142
804	-0.135
805	-0.131
805	-0.13
806	-0.128
806	-0.127
807	-0.127
807	-0.127
807	-0.127
808	-0.127
808	-0.128
809	-0.133
809	-0.139
810	-0.143
810	-0.145
810	-0.149
811	-0.152
811	-0.152
812	-0.148
812	-0.145
813	-0.145
813	-0.146
813	-0.147
814	-0.148
814	-0.149
815	-0.147
815	-0.144
816	-0.141
816	-0.138
817	-0.138
817	-0.136
817	-0.129
818	-0.121
818	-0.111
819	-0.1
819	-0.09
820	-0.081
820	-0.072
820	-0.063
821	-0.055
821	-0.047
822	-0.04
822	-0.034
823	-0.029
823	-0.025
823	-0.021
824	-0.017
824	-0.013
825	-0.008
825	-0.004
826	-0
826	0.002
826	0.005
827	0.007
827	0.009
828	0.011
828	0.013
829	0.015
829	0.016
829	0.017
830	0.018
830	0.019
831	0.021
831	0.022
832	0.022
832	0.023
832	0.024
833	0.024
833	0.025
834	0.025
834	0.025
835	0.025
835	0.025
835	0.025
836	0.025
836	0.025
837	0.025
837	0.026
838	0.026
838	0.027
839	0.027
839	0.027
839	0.027
840	0.027
840	0.027
841	0.026
841	0.026
842	0.026
842	0.026
842	0.026
843	0.026
843	0.025
844	0.026
844	0.026
845	0.026
845	0.026
845	0.026
846	0.026
846	0.026
847	0.026
847	0.027
848	0.027
848	0.028
848	0.028
849	0.029
849	0.029
850	0.03
850	0.03
851	0.03
851	0.031
851	0.031
852	0.03
852	0.03
853	0.03
853	0.029
854	0.029
854	0.029
854	0.029
855	0.029
855	0.028
856	0.028
856	0.028
857	0.028
857	0.028
857	0.028
858	0.029
858	0.028
859	0.029
859	0.029
860	0.029
860	0.03
860	0.03
861	0.031
861	0.032
862	0.032
862	0.032
863	0.033
863	0.033
863	0.033
864	0.033
864	0.033
865	0.033
865	0.034
866	0.034
866	0.034
866	0.034
867	0.035
867	0.035
868	0.035
868	0.035
869	0.035
869	0.035
869	0.034
870	0.034
870	0.033
871	0.033
871	0.032
872	0.032
872	0.032
872	0.032
873	0.032
873	0.032
874	0.032
874	0.032
875	0.032
875	0.032
875	0.031
876	0.031
876	0.03
877	0.029
877	0.028
878	0.027
878	0.026
878	0.025
879	0.025
879	0.024
880	0.024
880	0.024
881	0.024
881	0.024
881	0.024
882	0.024
882	0.024
883	0.024
883	0.023
884	0.023
884	0.023
884	0.022
885	0.022
885	0.022
886	0.022
886	0.023
887	0.023
887	0.023
887	0.024
888	0.024
888	0.025
889	0.026
889	0.027
890	0.027
890	0.028
890	0.028
891	0.028
891	0.028
892	0.028
892	0.029
893	0.029
893	0.03
893	0.03
894	0.03
894	0.03
895	0.03
895	0.03
895	0.029
896	0.029
896	0.029
897	0.028
897	0.028
898	0.028
898	0.028
898	0.028
899	0.028
899	0.028
900	0.028
900	0.028
901	0.028
901	0.029
901	0.029
902	0.029
902	0.029
903	0.029
903	0.029
904	0.03
904	0.03
904	0.031
905	0.031
905	0.032
906	0.032
906	0.032
907	0.032
907	0.032
907	0.032
908	0.032
908	0.032
909	0.032
909	0.032
910	0.033
910	0.033
910	0.033
911	0.033
911	0.033
912	0.033
912	0.033
913	0.033
913	0.033
913	0.033
914	0.032
914	0.032
915	0.031
915	0.031
916	0.03
916	0.029
916	0.028
917	0.027
917	0.026
918	0.025
918	0.024
918	0.023
919	0.021
919	0.021
920	0.02
920	0.019
921	0.019
921	0.019
921	0.019
922	0.019
922	0.02
923	0.02
923	0.02
924	0.021
924	0.021
924	0.022
925	0.022
925	0.022
926	0.023
926	0.023
927	0.024
927	0.024
927	0.024
928	0.024
928	0.024
929	0.024
929	0.024
930	0.023
930	0.023
930	0.022
931	0.022
931	0.022
932	0.021
932	0.021
933	0.021
933	0.021
933	0.021
934	0.02
934	0.02
935	0.019
935	0.019
935	0.018
936	0.017
936	0.017
937	0.016
937	0.016
938	0.015
938	0.015
938	0.016
939	0.016
939	0.017
940	0.018
940	0.019
941	0.02
941	0.021
941	0.022
942	0.023
942	0.024
943	0.025
943	0.025
944	0.026
944	0.026
944	0.026
945	0.027
945	0.027
946	0.027
946	0.027
946	0.028
947	0.028
947	0.029
948	0.029
948	0.03
949	0.03
949	0.03
949	0.031
950	0.031
950	0.031
951	0.031
951	0.031
952	0.031
952	0.03
952	0.03
953	0.029
953	0.028
954	0.028
954	0.027
955	0.027
955	0.027
955	0.027
956	0.027
956	0.027
957	0.027
957	0.027
957	0.027
958	0.027
958	0.027
959	0.027
959	0.027
960	0.026
960	0.026
960	0.026
961	0.026
961	0.026
962	0.026
962	0.026
963	0.026
963	0.026
963	0.026
964	0.026
964	0.027
965	0.026
965	0.026
966	0.027
966	0.027
966	0.027
967	0.026
967	0.025
968	0.025
968	0.024
968	0.023
969	0.023
969	0.022
970	0.022
970	0.021
971	0.02
971	0.02
971	0.02
972	0.02
972	0.02
973	0.02
973	0.02
974	0.02
974	0.021
974	0.022
975	0.023
975	0.023
976	0.024
976	0.025
976	0.026
977	0.027
977	0.027
978	0.028
978	0.028
979	0.029
979	0.029
979	0.028
980	0.028
980	0.027
981	0.026
981	0.026
982	0.025
982	0.024
982	0.023
983	0.022
983	0.02
984	0.019
984	0.018
984	0.017
985	0.016
985	0.014
986	0.013
986	0.012
987	0.011
987	0.011
987	0.011
988	0.01
988	0.01
989	0.01
989	0.011
990	0.011
990	0.011
990	0.012
991	0.014
991	0.015
992	0.016
992	0.017
992	0.017
993	0.018
993	0.019
994	0.019
994	0.019
995	0.019
995	0.018
995	0.018
996	0.017
996	0.016
997	0.015
997	0.014
997	0.014
998	0.014
998	0.014
999	0.015
999	0.015
1000	0.016
1000	0.016
1000	0.017
1001	0.018
1001	0.019
1002	0.02
1002	0.02
1003	0.021
1003	0.021
1003	0.021
1004	0.021
1004	0.021
1005	0.02
1005	0.02
1005	0.02
1006	0.019
1006	0.019
1007	0.019
1007	0.019
1008	0.019
1008	0.019
1008	0.019
1009	0.019
1009	0.019
1010	0.019
1010	0.019
1010	0.02
1011	0.02
1011	0.02
1012	0.02
1012	0.02
1013	0.02
1013	0.019
1013	0.019
1014	0.018
1014	0.017
1015	0.016
1015	0.015
1016	0.014
1016	0.012
1016	0.011
1017	0.01
1017	0.009
1018	0.008
1018	0.008
1018	0.007
1019	0.007
1019	0.007
1020	0.007
1020	0.007
1021	0.007
1021	0.007
1021	0.007
1022	0.008
1022	0.009
1023	0.01
1023	0.01
1023	0.011
1024	0.011
1024	0.011
1025	0.011
1025	0.011
1026	0.01
1026	0.01
1026	0.01
1027	0.01
1027	0.009
1028	0.009
1028	0.009
1028	0.008
1029	0.008
1029	0.008
1030	0.008
1030	0.007
1031	0.007
1031	0.007
1031	0.007
1032	0.007
1032	0.007
1033	0.007
1033	0.007
1033	0.007
1034	0.007
1034	0.006
1035	0.006
1035	0.006
1036	0.006
1036	0.006
1036	0.006
1037	0.006
1037	0.007
1038	0.007
1038	0.007
1039	0.008
1039	0.009
1039	0.009
1040	0.01
1040	0.011
1041	0.011
1041	0.012
1041	0.012
1042	0.013
1042	0.013
1043	0.014
1043	0.014
1044	0.014
1044	0.015
1044	0.015
1045	0.016
1045	0.015
1046	0.015
1046	0.015
1046	0.015
1047	0.015
1047	0.016
1048	0.016
1048	0.016
1049	0.015
1049	0.014
1049	0.014
1050	0.013
1050	0.012
1051	0.012
1051	0.011
1051	0.01
1052	0.01
1052	0.008
1053	0.008
1053	0.007
1053	0.006
1054	0.005
1054	0.005
1055	0.004
1055	0.003
1056	0.002
1056	0.001
1056	-0
1057	-0.001
1057	-0.002
1058	-0.003
1058	-0.004
1058	-0.004
1059	-0.005
1059	-0.005
1060	-0.006
1060	-0.006
1061	-0.006
1061	-0.005
1061	-0.005
1062	-0.005
1062	-0.005
1063	-0.005
1063	-0.005
1063	-0.005
1064	-0.005
1064	-0.004
1065	-0.004
1065	-0.004
1066	-0.004
1066	-0.003
1066	-0.003
1067	-0.002
1067	-0.001
1068	-0.001
1068	-0.001
1068	-0.001
1069	-0.002
1069	-0.003
1070	-0.003
1070	-0.004
1071	-0.004
1071	-0.005
1071	-0.006
1072	-0.007
1072	-0.008
1073	-0.009
1073	-0.009
1073	-0.01
1074	-0.01
1074	-0.011
1075	-0.012
1075	-0.014
1076	-0.015
1076	-0.015
1076	-0.016
1077	-0.016
1077	-0.016
1078	-0.016
1078	-0.016
1078	-0.016
1079	-0.016
1079	-0.015
1080	-0.013
1080	-0.012
1080	-0.012
1081	-0.01
1081	-0.009
1082	-0.008
1082	-0.008
1083	-0.007
1083	-0.006
1083	-0.006
1084	-0.005
1084	-0.005
1085	-0.004
1085	-0.004
1085	-0.004
1086	-0.003
1086	-0.004
1087	-0.004
1087	-0.003
1088	-0.004
1088	-0.004
1088	-0.005
1089	-0.006
1089	-0.007
1090	-0.008
1090	-0.008
1090	-0.009
1091	-0.009
1091	-0.009
1092	-0.009
1092	-0.008
1092	-0.008
1093	-0.008
1093	-0.007
1094	-0.007
1094	-0.006
1095	-0.006
1095	-0.006
1095	-0.004
1096	-0.004
1096	-0.003
1097	-0.001
1097	-0
1097	0.001
1098	0.003
1098	0.004
1099	0.006
1099	0.008
1100	0.01
1100	0.012
1100	0.013
1101	0.014
1101	0.016
1102	0.018
1102	0.02
1102	0.022
1103	0.025
1103	0.028
1104	0.032
1104	0.036
1104	0.041
1105	0.045
1105	0.049
1106	0.053
1106	0.058
1107	0.062
1107	0.07
1107	0.078
1108	0.111
1108	0.155
1109	0.218
1109	0.317
1109	0.394
1110	0.544
1110	0.948
1111	-0
1111	-0
