Data from 17c-2a_Absorbance__546__00547.txt Node

Date: Fri Jan 26 10:05:43 CET 2024
User: Marek
Spectrometer: MAYP115816
Trigger mode: 0
Integration Time (sec): 2.000000E-1
Scans to average: 10
Electric dark correction enabled: true
Nonlinearity correction enabled: true
Boxcar width: 5
XAxis mode: Wavelengths
Number of Pixels in Spectrum: 2068
>>>>>Begin Spectral Data<<<<<
199	-1.225
199	-1.097
200	-0.958
200	-0.855
201	-0.79
201	-0.751
202	-0.694
202	-0.651
203	-0.616
203	-0.588
204	-0.566
204	-0.545
205	-0.527
205	-0.52
205	-0.519
206	-0.515
206	-0.513
207	-0.511
207	-0.512
208	-0.512
208	-0.51
209	-0.507
209	-0.505
210	-0.505
210	-0.506
211	-0.507
211	-0.509
212	-0.509
212	-0.507
213	-0.505
213	-0.501
213	-0.502
214	-0.502
214	-0.5
215	-0.496
215	-0.494
216	-0.491
216	-0.491
217	-0.488
217	-0.487
218	-0.484
218	-0.482
219	-0.478
219	-0.478
220	-0.478
220	-0.479
221	-0.477
221	-0.476
221	-0.472
222	-0.467
222	-0.464
223	-0.46
223	-0.459
224	-0.455
224	-0.447
225	-0.442
225	-0.436
226	-0.429
226	-0.419
227	-0.411
227	-0.403
228	-0.391
228	-0.377
229	-0.361
229	-0.343
229	-0.325
230	-0.302
230	-0.278
231	-0.255
231	-0.23
232	-0.204
232	-0.177
233	-0.149
233	-0.122
234	-0.097
234	-0.073
235	-0.05
235	-0.03
236	-0.009
236	0.01
236	0.027
237	0.043
237	0.056
238	0.068
238	0.079
239	0.09
239	0.099
240	0.107
240	0.115
241	0.121
241	0.127
242	0.132
242	0.137
243	0.142
243	0.146
243	0.149
244	0.153
244	0.156
245	0.159
245	0.162
246	0.165
246	0.168
247	0.17
247	0.173
248	0.175
248	0.178
249	0.18
249	0.182
250	0.185
250	0.187
250	0.189
251	0.191
251	0.193
252	0.195
252	0.197
253	0.199
253	0.2
254	0.202
254	0.203
255	0.205
255	0.206
256	0.207
256	0.208
257	0.209
257	0.21
258	0.211
258	0.211
258	0.212
259	0.212
259	0.213
260	0.213
260	0.213
261	0.214
261	0.214
262	0.214
262	0.213
263	0.213
263	0.213
264	0.213
264	0.212
265	0.212
265	0.211
265	0.21
266	0.209
266	0.208
267	0.207
267	0.207
268	0.205
268	0.204
269	0.203
269	0.202
270	0.2
270	0.199
271	0.197
271	0.195
272	0.194
272	0.192
272	0.19
273	0.189
273	0.187
274	0.185
274	0.183
275	0.182
275	0.18
276	0.178
276	0.177
277	0.175
277	0.173
278	0.171
278	0.17
278	0.168
279	0.166
279	0.164
280	0.162
280	0.16
281	0.158
281	0.156
282	0.154
282	0.153
283	0.151
283	0.15
284	0.148
284	0.147
285	0.145
285	0.144
285	0.142
286	0.141
286	0.139
287	0.138
287	0.137
288	0.135
288	0.134
289	0.133
289	0.132
290	0.13
290	0.129
291	0.128
291	0.127
292	0.126
292	0.125
292	0.124
293	0.123
293	0.123
294	0.122
294	0.121
295	0.12
295	0.12
296	0.119
296	0.119
297	0.118
297	0.118
298	0.117
298	0.117
298	0.116
299	0.116
299	0.116
300	0.115
300	0.115
301	0.114
301	0.114
302	0.114
302	0.113
303	0.113
303	0.113
304	0.112
304	0.112
305	0.112
305	0.111
305	0.111
306	0.111
306	0.111
307	0.11
307	0.11
308	0.109
308	0.109
309	0.109
309	0.108
310	0.108
310	0.108
311	0.108
311	0.107
311	0.107
312	0.107
312	0.107
313	0.106
313	0.106
314	0.106
314	0.106
315	0.105
315	0.105
316	0.105
316	0.105
317	0.104
317	0.104
318	0.104
318	0.103
318	0.103
319	0.103
319	0.102
320	0.102
320	0.102
321	0.101
321	0.101
322	0.101
322	0.1
323	0.1
323	0.1
324	0.099
324	0.099
324	0.099
325	0.099
325	0.098
326	0.098
326	0.098
327	0.097
327	0.097
328	0.097
328	0.097
329	0.097
329	0.096
330	0.096
330	0.096
330	0.095
331	0.095
331	0.095
332	0.095
332	0.094
333	0.094
333	0.094
334	0.094
334	0.094
335	0.093
335	0.093
336	0.093
336	0.093
336	0.092
337	0.092
337	0.092
338	0.092
338	0.091
339	0.091
339	0.091
340	0.091
340	0.09
341	0.09
341	0.09
342	0.09
342	0.09
342	0.089
343	0.089
343	0.089
344	0.089
344	0.089
345	0.088
345	0.088
346	0.088
346	0.088
347	0.088
347	0.087
348	0.087
348	0.087
348	0.087
349	0.087
349	0.087
350	0.086
350	0.086
351	0.086
351	0.086
352	0.086
352	0.086
353	0.086
353	0.086
354	0.086
354	0.086
354	0.086
355	0.085
355	0.085
356	0.085
356	0.085
357	0.084
357	0.084
358	0.084
358	0.084
359	0.084
359	0.085
360	0.084
360	0.084
360	0.084
361	0.084
361	0.085
362	0.085
362	0.085
363	0.085
363	0.085
364	0.085
364	0.085
365	0.085
365	0.085
366	0.085
366	0.085
366	0.085
367	0.085
367	0.085
368	0.085
368	0.085
369	0.084
369	0.084
370	0.084
370	0.084
371	0.084
371	0.084
372	0.083
372	0.083
372	0.083
373	0.084
373	0.084
374	0.084
374	0.084
375	0.084
375	0.084
376	0.084
376	0.084
377	0.085
377	0.085
378	0.085
378	0.085
378	0.085
379	0.085
379	0.085
380	0.085
380	0.085
381	0.085
381	0.085
382	0.084
382	0.084
383	0.084
383	0.084
383	0.084
384	0.084
384	0.084
385	0.084
385	0.084
386	0.084
386	0.084
387	0.084
387	0.084
388	0.084
388	0.084
389	0.084
389	0.084
389	0.084
390	0.084
390	0.084
391	0.084
391	0.084
392	0.085
392	0.085
393	0.085
393	0.085
394	0.085
394	0.085
394	0.085
395	0.085
395	0.085
396	0.084
396	0.084
397	0.084
397	0.084
398	0.084
398	0.084
399	0.084
399	0.084
400	0.083
400	0.083
400	0.083
401	0.083
401	0.083
402	0.083
402	0.083
403	0.083
403	0.083
404	0.083
404	0.083
405	0.083
405	0.083
405	0.083
406	0.083
406	0.083
407	0.083
407	0.083
408	0.083
408	0.083
409	0.083
409	0.083
410	0.083
410	0.083
411	0.083
411	0.083
411	0.083
412	0.083
412	0.083
413	0.083
413	0.083
414	0.083
414	0.083
415	0.083
415	0.082
416	0.082
416	0.082
416	0.082
417	0.082
417	0.082
418	0.082
418	0.082
419	0.082
419	0.083
420	0.083
420	0.083
421	0.083
421	0.083
421	0.084
422	0.084
422	0.084
423	0.084
423	0.084
424	0.084
424	0.084
425	0.084
425	0.084
426	0.084
426	0.084
427	0.084
427	0.083
427	0.084
428	0.084
428	0.084
429	0.084
429	0.084
430	0.084
430	0.084
431	0.084
431	0.084
432	0.084
432	0.084
432	0.083
433	0.083
433	0.083
434	0.083
434	0.083
435	0.083
435	0.083
436	0.084
436	0.084
437	0.084
437	0.084
437	0.084
438	0.084
438	0.084
439	0.084
439	0.083
440	0.083
440	0.083
441	0.083
441	0.083
442	0.083
442	0.083
442	0.083
443	0.083
443	0.083
444	0.083
444	0.083
445	0.083
445	0.084
446	0.084
446	0.084
447	0.084
447	0.084
447	0.084
448	0.084
448	0.084
449	0.084
449	0.085
450	0.085
450	0.085
451	0.085
451	0.085
452	0.085
452	0.085
452	0.085
453	0.085
453	0.084
454	0.084
454	0.084
455	0.084
455	0.084
456	0.084
456	0.084
457	0.084
457	0.084
458	0.084
458	0.084
458	0.084
459	0.085
459	0.085
460	0.084
460	0.084
461	0.084
461	0.085
462	0.085
462	0.085
463	0.085
463	0.085
463	0.086
464	0.085
464	0.086
465	0.086
465	0.086
466	0.086
466	0.086
467	0.086
467	0.086
467	0.086
468	0.086
468	0.085
469	0.085
469	0.085
470	0.085
470	0.085
471	0.085
471	0.085
472	0.085
472	0.085
472	0.086
473	0.086
473	0.087
474	0.087
474	0.087
475	0.087
475	0.088
476	0.088
476	0.088
477	0.088
477	0.089
477	0.089
478	0.089
478	0.089
479	0.089
479	0.089
480	0.09
480	0.09
481	0.09
481	0.09
482	0.091
482	0.091
482	0.092
483	0.093
483	0.094
484	0.095
484	0.096
485	0.097
485	0.097
486	0.097
486	0.098
487	0.098
487	0.099
487	0.099
488	0.099
488	0.098
489	0.099
489	0.099
490	0.099
490	0.099
491	0.1
491	0.1
492	0.101
492	0.101
492	0.102
493	0.102
493	0.103
494	0.104
494	0.105
495	0.106
495	0.106
496	0.107
496	0.107
496	0.108
497	0.109
497	0.11
498	0.11
498	0.111
499	0.111
499	0.112
500	0.113
500	0.114
501	0.114
501	0.115
501	0.116
502	0.116
502	0.117
503	0.118
503	0.118
504	0.119
504	0.119
505	0.12
505	0.121
506	0.122
506	0.122
506	0.123
507	0.124
507	0.124
508	0.125
508	0.126
509	0.126
509	0.127
510	0.128
510	0.128
511	0.129
511	0.129
511	0.13
512	0.13
512	0.131
513	0.131
513	0.131
514	0.131
514	0.131
515	0.131
515	0.131
515	0.131
516	0.131
516	0.132
517	0.132
517	0.133
518	0.133
518	0.133
519	0.133
519	0.133
520	0.133
520	0.133
520	0.133
521	0.133
521	0.132
522	0.131
522	0.131
523	0.131
523	0.131
524	0.131
524	0.131
524	0.131
525	0.131
525	0.131
526	0.132
526	0.132
527	0.133
527	0.133
528	0.133
528	0.133
529	0.133
529	0.133
529	0.133
530	0.132
530	0.132
531	0.132
531	0.131
532	0.13
532	0.13
533	0.129
533	0.129
533	0.128
534	0.127
534	0.127
535	0.126
535	0.125
536	0.125
536	0.124
537	0.124
537	0.123
538	0.122
538	0.122
538	0.121
539	0.12
539	0.12
540	0.119
540	0.118
541	0.117
541	0.116
542	0.115
542	0.114
542	0.113
543	0.112
543	0.111
544	0.11
544	0.11
545	0.109
545	0.109
546	0.109
546	0.108
547	0.107
547	0.106
547	0.106
548	0.105
548	0.105
549	0.104
549	0.104
550	0.103
550	0.102
551	0.101
551	0.1
551	0.099
552	0.099
552	0.098
553	0.097
553	0.097
554	0.096
554	0.095
555	0.094
555	0.093
556	0.091
556	0.09
556	0.089
557	0.087
557	0.086
558	0.085
558	0.084
559	0.083
559	0.082
560	0.081
560	0.08
560	0.08
561	0.08
561	0.079
562	0.079
562	0.078
563	0.077
563	0.076
564	0.075
564	0.075
564	0.074
565	0.073
565	0.072
566	0.071
566	0.071
567	0.07
567	0.07
568	0.07
568	0.07
568	0.07
569	0.07
569	0.07
570	0.069
570	0.069
571	0.069
571	0.069
572	0.069
572	0.068
573	0.068
573	0.067
573	0.067
574	0.066
574	0.066
575	0.066
575	0.066
576	0.066
576	0.065
577	0.064
577	0.063
577	0.063
578	0.063
578	0.063
579	0.063
579	0.064
580	0.062
580	0.061
581	0.06
581	0.059
581	0.059
582	0.059
582	0.059
583	0.059
583	0.058
584	0.056
584	0.054
585	0.054
585	0.055
585	0.054
586	0.054
586	0.054
587	0.053
587	0.052
588	0.051
588	0.05
589	0.05
589	0.05
590	0.05
590	0.05
590	0.051
591	0.051
591	0.051
592	0.051
592	0.05
593	0.051
593	0.051
594	0.05
594	0.05
594	0.05
595	0.05
595	0.049
596	0.049
596	0.05
597	0.052
597	0.052
598	0.052
598	0.053
598	0.053
599	0.053
599	0.053
600	0.052
600	0.051
601	0.051
601	0.05
602	0.049
602	0.049
602	0.048
603	0.048
603	0.048
604	0.049
604	0.049
605	0.05
605	0.051
606	0.051
606	0.05
606	0.05
607	0.05
607	0.05
608	0.05
608	0.049
609	0.048
609	0.048
610	0.047
610	0.047
610	0.048
611	0.049
611	0.05
612	0.051
612	0.052
613	0.053
613	0.055
614	0.055
614	0.055
614	0.056
615	0.056
615	0.056
616	0.056
616	0.055
617	0.055
617	0.055
618	0.054
618	0.054
618	0.054
619	0.054
619	0.055
620	0.056
620	0.056
621	0.056
621	0.056
622	0.056
622	0.056
622	0.056
623	0.056
623	0.057
624	0.057
624	0.057
625	0.057
625	0.057
626	0.057
626	0.057
626	0.058
627	0.059
627	0.06
628	0.06
628	0.06
629	0.061
629	0.061
630	0.061
630	0.061
630	0.061
631	0.062
631	0.062
632	0.062
632	0.062
633	0.062
633	0.063
634	0.064
634	0.065
634	0.066
635	0.066
635	0.067
636	0.068
636	0.068
637	0.069
637	0.069
638	0.07
638	0.071
638	0.071
639	0.072
639	0.072
640	0.072
640	0.072
641	0.073
641	0.074
642	0.075
642	0.076
642	0.077
643	0.077
643	0.078
644	0.079
644	0.08
645	0.081
645	0.082
646	0.084
646	0.085
646	0.087
647	0.089
647	0.09
648	0.092
648	0.093
649	0.095
649	0.096
650	0.098
650	0.1
650	0.102
651	0.103
651	0.104
652	0.105
652	0.106
653	0.107
653	0.112
653	0.109
654	0.089
654	0.072
655	0.074
655	0.075
656	0.075
656	0.077
657	0.078
657	0.079
657	0.08
658	0.078
658	0.078
659	0.098
659	0.124
660	0.129
660	0.13
661	0.132
661	0.133
661	0.135
662	0.137
662	0.139
663	0.14
663	0.142
664	0.143
664	0.144
665	0.146
665	0.147
665	0.148
666	0.149
666	0.149
667	0.15
667	0.151
668	0.152
668	0.153
669	0.155
669	0.156
669	0.157
670	0.159
670	0.16
671	0.161
671	0.162
672	0.163
672	0.164
672	0.165
673	0.167
673	0.168
674	0.169
674	0.17
675	0.172
675	0.173
676	0.175
676	0.176
676	0.177
677	0.178
677	0.18
678	0.18
678	0.18
679	0.18
679	0.181
680	0.182
680	0.182
680	0.183
681	0.183
681	0.184
682	0.185
682	0.186
683	0.187
683	0.188
684	0.189
684	0.189
684	0.188
685	0.188
685	0.188
686	0.188
686	0.188
687	0.187
687	0.187
687	0.186
688	0.186
688	0.186
689	0.187
689	0.187
690	0.187
690	0.188
691	0.188
691	0.188
691	0.188
692	0.188
692	0.187
693	0.187
693	0.187
694	0.187
694	0.186
695	0.186
695	0.187
695	0.186
696	0.186
696	0.185
697	0.185
697	0.184
698	0.183
698	0.182
698	0.182
699	0.181
699	0.179
700	0.178
700	0.177
701	0.176
701	0.175
702	0.174
702	0.173
702	0.172
703	0.17
703	0.169
704	0.167
704	0.166
705	0.165
705	0.164
705	0.162
706	0.161
706	0.161
707	0.16
707	0.159
708	0.158
708	0.157
709	0.156
709	0.155
709	0.154
710	0.153
710	0.152
711	0.151
711	0.15
712	0.149
712	0.147
713	0.146
713	0.145
713	0.144
714	0.143
714	0.141
715	0.14
715	0.138
716	0.137
716	0.135
716	0.134
717	0.132
717	0.131
718	0.129
718	0.127
719	0.126
719	0.125
720	0.123
720	0.122
720	0.12
721	0.119
721	0.117
722	0.116
722	0.115
723	0.113
723	0.113
723	0.111
724	0.11
724	0.109
725	0.109
725	0.108
726	0.108
726	0.107
727	0.106
727	0.106
727	0.105
728	0.104
728	0.103
729	0.103
729	0.102
730	0.101
730	0.1
730	0.098
731	0.097
731	0.096
732	0.095
732	0.094
733	0.093
733	0.092
734	0.092
734	0.091
734	0.09
735	0.09
735	0.089
736	0.089
736	0.088
737	0.087
737	0.086
737	0.085
738	0.083
738	0.081
739	0.08
739	0.078
740	0.076
740	0.075
741	0.075
741	0.074
741	0.073
742	0.072
742	0.071
743	0.071
743	0.07
744	0.07
744	0.069
744	0.068
745	0.067
745	0.066
746	0.064
746	0.063
747	0.062
747	0.062
748	0.061
748	0.06
748	0.059
749	0.058
749	0.058
750	0.058
750	0.057
751	0.057
751	0.057
751	0.058
752	0.057
752	0.057
753	0.057
753	0.057
754	0.057
754	0.056
754	0.056
755	0.056
755	0.057
756	0.056
756	0.055
757	0.054
757	0.054
758	0.054
758	0.054
758	0.054
759	0.054
759	0.053
760	0.052
760	0.051
761	0.051
761	0.05
761	0.05
762	0.049
762	0.049
763	0.048
763	0.046
764	0.044
764	0.043
764	0.042
765	0.04
765	0.039
766	0.038
766	0.037
767	0.036
767	0.035
768	0.033
768	0.032
768	0.031
769	0.03
769	0.029
770	0.028
770	0.027
771	0.025
771	0.024
771	0.022
772	0.021
772	0.019
773	0.018
773	0.017
774	0.015
774	0.014
775	0.014
775	0.013
775	0.012
776	0.012
776	0.011
777	0.011
777	0.011
778	0.01
778	0.009
778	0.008
779	0.008
779	0.007
780	0.006
780	0.004
781	0.002
781	-0
781	-0.003
782	-0.006
782	-0.009
783	-0.012
783	-0.015
784	-0.018
784	-0.022
784	-0.025
785	-0.029
785	-0.032
786	-0.035
786	-0.038
787	-0.04
787	-0.043
788	-0.047
788	-0.051
788	-0.056
789	-0.061
789	-0.066
790	-0.071
790	-0.077
791	-0.084
791	-0.091
791	-0.096
792	-0.095
792	-0.089
793	-0.088
793	-0.089
794	-0.091
794	-0.095
794	-0.1
795	-0.103
795	-0.104
796	-0.104
796	-0.107
797	-0.116
797	-0.127
797	-0.133
798	-0.139
798	-0.142
799	-0.143
799	-0.142
800	-0.141
800	-0.143
801	-0.146
801	-0.147
801	-0.146
802	-0.147
802	-0.148
803	-0.149
803	-0.149
804	-0.148
804	-0.143
804	-0.136
805	-0.132
805	-0.131
806	-0.129
806	-0.128
807	-0.128
807	-0.128
807	-0.128
808	-0.128
808	-0.129
809	-0.134
809	-0.14
810	-0.144
810	-0.147
810	-0.15
811	-0.153
811	-0.153
812	-0.149
812	-0.146
813	-0.146
813	-0.144
813	-0.142
814	-0.139
814	-0.134
815	-0.126
815	-0.118
816	-0.109
816	-0.101
817	-0.096
817	-0.088
817	-0.078
818	-0.068
818	-0.058
819	-0.049
819	-0.042
820	-0.036
820	-0.031
820	-0.026
821	-0.021
821	-0.017
822	-0.014
822	-0.01
823	-0.007
823	-0.005
823	-0.003
824	-0
824	0.002
825	0.005
825	0.008
826	0.01
826	0.012
826	0.014
827	0.016
827	0.017
828	0.018
828	0.019
829	0.02
829	0.02
829	0.02
830	0.02
830	0.02
831	0.021
831	0.021
832	0.02
832	0.02
832	0.02
833	0.021
833	0.021
834	0.021
834	0.022
835	0.022
835	0.022
835	0.022
836	0.022
836	0.022
837	0.023
837	0.023
838	0.024
838	0.024
839	0.024
839	0.024
839	0.024
840	0.024
840	0.024
841	0.024
841	0.023
842	0.024
842	0.023
842	0.023
843	0.024
843	0.024
844	0.024
844	0.024
845	0.024
845	0.024
845	0.024
846	0.024
846	0.024
847	0.024
847	0.024
848	0.024
848	0.024
848	0.024
849	0.024
849	0.024
850	0.024
850	0.024
851	0.024
851	0.025
851	0.025
852	0.024
852	0.024
853	0.024
853	0.024
854	0.024
854	0.024
854	0.024
855	0.024
855	0.024
856	0.024
856	0.024
857	0.024
857	0.023
857	0.023
858	0.023
858	0.023
859	0.023
859	0.023
860	0.023
860	0.024
860	0.024
861	0.025
861	0.026
862	0.026
862	0.026
863	0.027
863	0.028
863	0.028
864	0.028
864	0.029
865	0.029
865	0.03
866	0.03
866	0.031
866	0.031
867	0.032
867	0.032
868	0.032
868	0.032
869	0.032
869	0.032
869	0.032
870	0.032
870	0.031
871	0.031
871	0.031
872	0.031
872	0.031
872	0.031
873	0.031
873	0.031
874	0.031
874	0.031
875	0.031
875	0.03
875	0.03
876	0.029
876	0.028
877	0.027
877	0.026
878	0.025
878	0.024
878	0.024
879	0.023
879	0.022
880	0.022
880	0.022
881	0.022
881	0.022
881	0.022
882	0.023
882	0.023
883	0.023
883	0.023
884	0.023
884	0.022
884	0.022
885	0.022
885	0.021
886	0.021
886	0.021
887	0.021
887	0.021
887	0.021
888	0.021
888	0.022
889	0.023
889	0.023
890	0.024
890	0.025
890	0.025
891	0.025
891	0.026
892	0.026
892	0.027
893	0.027
893	0.028
893	0.028
894	0.028
894	0.028
895	0.027
895	0.026
895	0.026
896	0.025
896	0.024
897	0.023
897	0.023
898	0.022
898	0.021
898	0.021
899	0.021
899	0.021
900	0.021
900	0.021
901	0.021
901	0.022
901	0.022
902	0.022
902	0.023
903	0.023
903	0.024
904	0.025
904	0.025
904	0.026
905	0.026
905	0.027
906	0.027
906	0.027
907	0.028
907	0.028
907	0.028
908	0.028
908	0.029
909	0.03
909	0.03
910	0.03
910	0.031
910	0.031
911	0.031
911	0.031
912	0.031
912	0.031
913	0.031
913	0.031
913	0.03
914	0.029
914	0.028
915	0.027
915	0.026
916	0.025
916	0.024
916	0.022
917	0.021
917	0.019
918	0.017
918	0.016
918	0.014
919	0.013
919	0.012
920	0.011
920	0.011
921	0.011
921	0.011
921	0.011
922	0.011
922	0.012
923	0.012
923	0.013
924	0.014
924	0.014
924	0.015
925	0.016
925	0.017
926	0.017
926	0.018
927	0.018
927	0.018
927	0.018
928	0.018
928	0.018
929	0.017
929	0.017
930	0.016
930	0.015
930	0.014
931	0.013
931	0.013
932	0.012
932	0.012
933	0.012
933	0.011
933	0.011
934	0.011
934	0.011
935	0.01
935	0.01
935	0.01
936	0.01
936	0.009
937	0.009
937	0.009
938	0.009
938	0.009
938	0.009
939	0.009
939	0.009
940	0.009
940	0.01
941	0.01
941	0.011
941	0.012
942	0.013
942	0.014
943	0.016
943	0.016
944	0.017
944	0.018
944	0.018
945	0.019
945	0.019
946	0.019
946	0.019
946	0.02
947	0.02
947	0.02
948	0.021
948	0.021
949	0.021
949	0.022
949	0.023
950	0.023
950	0.023
951	0.023
951	0.023
952	0.023
952	0.022
952	0.022
953	0.021
953	0.021
954	0.02
954	0.019
955	0.019
955	0.018
955	0.018
956	0.018
956	0.018
957	0.018
957	0.018
957	0.018
958	0.018
958	0.019
959	0.019
959	0.02
960	0.02
960	0.02
960	0.02
961	0.02
961	0.021
962	0.021
962	0.022
963	0.023
963	0.023
963	0.023
964	0.024
964	0.024
965	0.024
965	0.024
966	0.024
966	0.024
966	0.023
967	0.023
967	0.022
968	0.021
968	0.021
968	0.02
969	0.02
969	0.019
970	0.019
970	0.018
971	0.018
971	0.017
971	0.017
972	0.017
972	0.017
973	0.016
973	0.016
974	0.016
974	0.017
974	0.017
975	0.018
975	0.019
976	0.02
976	0.021
976	0.022
977	0.023
977	0.024
978	0.024
978	0.025
979	0.026
979	0.026
979	0.026
980	0.025
980	0.025
981	0.024
981	0.024
982	0.023
982	0.022
982	0.021
983	0.02
983	0.019
984	0.018
984	0.017
984	0.017
985	0.016
985	0.015
986	0.014
986	0.014
987	0.013
987	0.013
987	0.013
988	0.013
988	0.014
989	0.014
989	0.014
990	0.014
990	0.015
990	0.016
991	0.016
991	0.017
992	0.017
992	0.018
992	0.018
993	0.018
993	0.019
994	0.019
994	0.019
995	0.018
995	0.018
995	0.018
996	0.018
996	0.018
997	0.017
997	0.017
997	0.017
998	0.017
998	0.018
999	0.018
999	0.018
1000	0.019
1000	0.019
1000	0.02
1001	0.021
1001	0.021
1002	0.022
1002	0.023
1003	0.023
1003	0.023
1003	0.023
1004	0.023
1004	0.022
1005	0.022
1005	0.021
1005	0.021
1006	0.02
1006	0.019
1007	0.019
1007	0.018
1008	0.018
1008	0.017
1008	0.017
1009	0.017
1009	0.016
1010	0.016
1010	0.016
1010	0.016
1011	0.016
1011	0.016
1012	0.015
1012	0.015
1013	0.014
1013	0.014
1013	0.013
1014	0.012
1014	0.011
1015	0.01
1015	0.009
1016	0.008
1016	0.007
1016	0.006
1017	0.005
1017	0.004
1018	0.004
1018	0.003
1018	0.003
1019	0.002
1019	0.002
1020	0.002
1020	0.001
1021	0.001
1021	0.002
1021	0.002
1022	0.002
1022	0.003
1023	0.003
1023	0.004
1023	0.004
1024	0.004
1024	0.005
1025	0.005
1025	0.005
1026	0.005
1026	0.005
1026	0.005
1027	0.005
1027	0.004
1028	0.004
1028	0.004
1028	0.004
1029	0.004
1029	0.003
1030	0.003
1030	0.003
1031	0.002
1031	0.002
1031	0.002
1032	0.002
1032	0.002
1033	0.002
1033	0.002
1033	0.002
1034	0.002
1034	0.002
1035	0.002
1035	0.002
1036	0.001
1036	0.001
1036	0.001
1037	0.002
1037	0.002
1038	0.002
1038	0.002
1039	0.003
1039	0.004
1039	0.005
1040	0.005
1040	0.006
1041	0.008
1041	0.008
1041	0.009
1042	0.01
1042	0.011
1043	0.011
1043	0.012
1044	0.013
1044	0.013
1044	0.014
1045	0.014
1045	0.014
1046	0.014
1046	0.014
1046	0.014
1047	0.014
1047	0.014
1048	0.014
1048	0.013
1049	0.012
1049	0.012
1049	0.011
1050	0.01
1050	0.009
1051	0.009
1051	0.008
1051	0.008
1052	0.007
1052	0.006
1053	0.006
1053	0.005
1053	0.004
1054	0.004
1054	0.003
1055	0.002
1055	0.002
1056	0
1056	-0
1056	-0.001
1057	-0.002
1057	-0.003
1058	-0.003
1058	-0.003
1058	-0.003
1059	-0.003
1059	-0.003
1060	-0.003
1060	-0.003
1061	-0.003
1061	-0.002
1061	-0.002
1062	-0.002
1062	-0.002
1063	-0.002
1063	-0.002
1063	-0.002
1064	-0.002
1064	-0.001
1065	-0.001
1065	-0.001
1066	-0.001
1066	-0.001
1066	-0
1067	-0
1067	0.001
1068	0.001
1068	0
1068	-0
1069	-0.001
1069	-0.001
1070	-0.002
1070	-0.003
1071	-0.004
1071	-0.005
1071	-0.006
1072	-0.007
1072	-0.008
1073	-0.009
1073	-0.01
1073	-0.011
1074	-0.011
1074	-0.012
1075	-0.013
1075	-0.013
1076	-0.014
1076	-0.014
1076	-0.015
1077	-0.015
1077	-0.014
1078	-0.015
1078	-0.015
1078	-0.014
1079	-0.014
1079	-0.014
1080	-0.014
1080	-0.014
1080	-0.014
1081	-0.013
1081	-0.013
1082	-0.013
1082	-0.013
1083	-0.013
1083	-0.013
1083	-0.013
1084	-0.013
1084	-0.013
1085	-0.013
1085	-0.013
1085	-0.013
1086	-0.012
1086	-0.013
1087	-0.013
1087	-0.012
1088	-0.012
1088	-0.013
1088	-0.012
1089	-0.013
1089	-0.014
1090	-0.015
1090	-0.015
1090	-0.016
1091	-0.016
1091	-0.015
1092	-0.016
1092	-0.016
1092	-0.016
1093	-0.016
1093	-0.015
1094	-0.015
1094	-0.016
1095	-0.016
1095	-0.016
1095	-0.016
1096	-0.017
1096	-0.016
1097	-0.016
1097	-0.016
1097	-0.015
1098	-0.015
1098	-0.015
1099	-0.014
1099	-0.012
1100	-0.011
1100	-0.011
1100	-0.011
1101	-0.011
1101	-0.011
1102	-0.01
1102	-0.009
1102	-0.009
1103	-0.008
1103	-0.007
1104	-0.005
1104	-0.004
1104	-0.002
1105	-0
1105	0.001
1106	0.002
1106	0.005
1107	0.005
1107	0.008
1107	0.012
1108	0.025
1108	0.042
1109	0.064
1109	0.093
1109	0.113
1110	0.148
1110	0.204
1111	0.313
1111	0.731
