Data from 17c-2a_Absorbance__2360__02361.txt Node

Date: Fri Jan 26 11:06:10 CET 2024
User: Marek
Spectrometer: MAYP115816
Trigger mode: 0
Integration Time (sec): 2.000000E-1
Scans to average: 10
Electric dark correction enabled: true
Nonlinearity correction enabled: true
Boxcar width: 5
XAxis mode: Wavelengths
Number of Pixels in Spectrum: 2068
>>>>>Begin Spectral Data<<<<<
199	-1.507
199	-1.371
200	-1.224
200	-1.113
201	-1.043
201	-0.999
202	-0.935
202	-0.884
203	-0.843
203	-0.807
204	-0.782
204	-0.759
205	-0.738
205	-0.728
205	-0.726
206	-0.722
206	-0.719
207	-0.715
207	-0.715
208	-0.715
208	-0.712
209	-0.71
209	-0.707
210	-0.708
210	-0.708
211	-0.709
211	-0.71
212	-0.711
212	-0.71
213	-0.709
213	-0.705
213	-0.705
214	-0.703
214	-0.7
215	-0.696
215	-0.693
216	-0.69
216	-0.689
217	-0.685
217	-0.684
218	-0.679
218	-0.678
219	-0.674
219	-0.674
220	-0.672
220	-0.674
221	-0.672
221	-0.67
221	-0.666
222	-0.66
222	-0.657
223	-0.653
223	-0.651
224	-0.645
224	-0.638
225	-0.63
225	-0.622
226	-0.613
226	-0.602
227	-0.59
227	-0.581
228	-0.564
228	-0.548
229	-0.528
229	-0.506
229	-0.482
230	-0.454
230	-0.423
231	-0.391
231	-0.356
232	-0.322
232	-0.283
233	-0.242
233	-0.201
234	-0.16
234	-0.121
235	-0.081
235	-0.044
236	-0.008
236	0.027
236	0.061
237	0.092
237	0.121
238	0.147
238	0.171
239	0.194
239	0.215
240	0.234
240	0.251
241	0.266
241	0.281
242	0.293
242	0.305
243	0.316
243	0.325
243	0.334
244	0.342
244	0.349
245	0.355
245	0.361
246	0.367
246	0.372
247	0.377
247	0.381
248	0.386
248	0.39
249	0.394
249	0.397
250	0.401
250	0.404
250	0.408
251	0.411
251	0.413
252	0.416
252	0.419
253	0.422
253	0.424
254	0.426
254	0.428
255	0.43
255	0.432
256	0.433
256	0.435
257	0.436
257	0.437
258	0.438
258	0.438
258	0.439
259	0.44
259	0.44
260	0.441
260	0.441
261	0.441
261	0.441
262	0.441
262	0.441
263	0.441
263	0.441
264	0.44
264	0.44
265	0.44
265	0.438
265	0.438
266	0.437
266	0.435
267	0.434
267	0.433
268	0.431
268	0.43
269	0.428
269	0.427
270	0.425
270	0.423
271	0.421
271	0.42
272	0.418
272	0.416
272	0.414
273	0.412
273	0.41
274	0.408
274	0.406
275	0.404
275	0.402
276	0.4
276	0.397
277	0.395
277	0.392
278	0.389
278	0.387
278	0.385
279	0.382
279	0.379
280	0.377
280	0.374
281	0.372
281	0.37
282	0.367
282	0.365
283	0.364
283	0.362
284	0.36
284	0.358
285	0.356
285	0.354
285	0.352
286	0.35
286	0.348
287	0.346
287	0.344
288	0.342
288	0.34
289	0.339
289	0.337
290	0.335
290	0.334
291	0.332
291	0.331
292	0.329
292	0.328
292	0.326
293	0.325
293	0.324
294	0.322
294	0.321
295	0.32
295	0.319
296	0.317
296	0.316
297	0.315
297	0.314
298	0.313
298	0.312
298	0.311
299	0.31
299	0.31
300	0.309
300	0.308
301	0.307
301	0.306
302	0.305
302	0.304
303	0.303
303	0.303
304	0.302
304	0.301
305	0.3
305	0.299
305	0.298
306	0.298
306	0.297
307	0.296
307	0.295
308	0.294
308	0.293
309	0.293
309	0.292
310	0.291
310	0.29
311	0.29
311	0.289
311	0.288
312	0.287
312	0.287
313	0.286
313	0.285
314	0.284
314	0.284
315	0.283
315	0.282
316	0.281
316	0.281
317	0.28
317	0.279
318	0.279
318	0.278
318	0.277
319	0.276
319	0.276
320	0.275
320	0.274
321	0.273
321	0.272
322	0.272
322	0.271
323	0.27
323	0.269
324	0.268
324	0.267
324	0.267
325	0.266
325	0.265
326	0.265
326	0.264
327	0.263
327	0.263
328	0.262
328	0.261
329	0.261
329	0.26
330	0.259
330	0.259
330	0.258
331	0.257
331	0.257
332	0.256
332	0.255
333	0.255
333	0.254
334	0.254
334	0.253
335	0.252
335	0.252
336	0.251
336	0.251
336	0.25
337	0.25
337	0.249
338	0.249
338	0.248
339	0.248
339	0.247
340	0.247
340	0.246
341	0.245
341	0.245
342	0.244
342	0.244
342	0.243
343	0.243
343	0.242
344	0.242
344	0.241
345	0.241
345	0.241
346	0.241
346	0.24
347	0.24
347	0.239
348	0.239
348	0.238
348	0.238
349	0.237
349	0.237
350	0.237
350	0.236
351	0.236
351	0.236
352	0.235
352	0.235
353	0.235
353	0.235
354	0.234
354	0.234
354	0.234
355	0.233
355	0.233
356	0.232
356	0.232
357	0.231
357	0.231
358	0.231
358	0.231
359	0.231
359	0.231
360	0.231
360	0.231
360	0.231
361	0.231
361	0.232
362	0.232
362	0.232
363	0.231
363	0.232
364	0.231
364	0.231
365	0.231
365	0.231
366	0.231
366	0.23
366	0.23
367	0.23
367	0.23
368	0.23
368	0.229
369	0.229
369	0.229
370	0.228
370	0.228
371	0.228
371	0.228
372	0.227
372	0.227
372	0.227
373	0.227
373	0.227
374	0.227
374	0.227
375	0.227
375	0.227
376	0.227
376	0.227
377	0.227
377	0.227
378	0.227
378	0.227
378	0.226
379	0.226
379	0.226
380	0.226
380	0.226
381	0.226
381	0.226
382	0.226
382	0.225
383	0.225
383	0.225
383	0.225
384	0.225
384	0.224
385	0.224
385	0.224
386	0.224
386	0.223
387	0.223
387	0.223
388	0.222
388	0.222
389	0.222
389	0.222
389	0.222
390	0.222
390	0.222
391	0.222
391	0.222
392	0.222
392	0.222
393	0.222
393	0.222
394	0.222
394	0.222
394	0.222
395	0.221
395	0.221
396	0.22
396	0.22
397	0.22
397	0.22
398	0.219
398	0.219
399	0.219
399	0.218
400	0.218
400	0.218
400	0.217
401	0.217
401	0.216
402	0.216
402	0.216
403	0.215
403	0.215
404	0.215
404	0.215
405	0.215
405	0.215
405	0.215
406	0.215
406	0.215
407	0.215
407	0.215
408	0.214
408	0.214
409	0.214
409	0.214
410	0.214
410	0.214
411	0.214
411	0.213
411	0.213
412	0.213
412	0.213
413	0.213
413	0.212
414	0.212
414	0.212
415	0.212
415	0.211
416	0.211
416	0.211
416	0.211
417	0.211
417	0.211
418	0.211
418	0.211
419	0.211
419	0.211
420	0.211
420	0.211
421	0.211
421	0.212
421	0.212
422	0.212
422	0.212
423	0.212
423	0.211
424	0.211
424	0.211
425	0.21
425	0.21
426	0.21
426	0.21
427	0.21
427	0.21
427	0.21
428	0.21
428	0.211
429	0.211
429	0.211
430	0.211
430	0.211
431	0.211
431	0.211
432	0.21
432	0.21
432	0.209
433	0.209
433	0.209
434	0.209
434	0.209
435	0.209
435	0.209
436	0.209
436	0.209
437	0.209
437	0.209
437	0.209
438	0.209
438	0.208
439	0.208
439	0.208
440	0.207
440	0.207
441	0.207
441	0.207
442	0.207
442	0.207
442	0.207
443	0.207
443	0.207
444	0.207
444	0.207
445	0.208
445	0.208
446	0.208
446	0.208
447	0.208
447	0.208
447	0.208
448	0.208
448	0.208
449	0.208
449	0.208
450	0.208
450	0.208
451	0.208
451	0.208
452	0.208
452	0.208
452	0.208
453	0.208
453	0.207
454	0.207
454	0.207
455	0.207
455	0.207
456	0.207
456	0.207
457	0.206
457	0.206
458	0.207
458	0.207
458	0.208
459	0.208
459	0.208
460	0.207
460	0.207
461	0.207
461	0.208
462	0.208
462	0.208
463	0.208
463	0.209
463	0.209
464	0.209
464	0.209
465	0.21
465	0.21
466	0.21
466	0.21
467	0.21
467	0.21
467	0.21
468	0.209
468	0.208
469	0.208
469	0.208
470	0.208
470	0.209
471	0.209
471	0.209
472	0.209
472	0.21
472	0.211
473	0.212
473	0.212
474	0.213
474	0.214
475	0.215
475	0.215
476	0.216
476	0.216
477	0.217
477	0.217
477	0.218
478	0.219
478	0.219
479	0.22
479	0.22
480	0.221
480	0.222
481	0.223
481	0.224
482	0.225
482	0.225
482	0.227
483	0.228
483	0.23
484	0.232
484	0.234
485	0.235
485	0.236
486	0.237
486	0.238
487	0.239
487	0.24
487	0.241
488	0.241
488	0.24
489	0.24
489	0.241
490	0.242
490	0.242
491	0.243
491	0.245
492	0.246
492	0.247
492	0.248
493	0.249
493	0.251
494	0.253
494	0.255
495	0.256
495	0.258
496	0.259
496	0.261
496	0.262
497	0.264
497	0.266
498	0.267
498	0.269
499	0.27
499	0.272
500	0.274
500	0.276
501	0.278
501	0.279
501	0.281
502	0.283
502	0.284
503	0.286
503	0.288
504	0.289
504	0.29
505	0.291
505	0.293
506	0.294
506	0.295
506	0.297
507	0.298
507	0.299
508	0.301
508	0.302
509	0.304
509	0.305
510	0.307
510	0.308
511	0.309
511	0.311
511	0.311
512	0.313
512	0.314
513	0.315
513	0.315
514	0.316
514	0.317
515	0.317
515	0.318
515	0.318
516	0.319
516	0.32
517	0.321
517	0.322
518	0.322
518	0.322
519	0.322
519	0.322
520	0.321
520	0.321
520	0.321
521	0.32
521	0.319
522	0.318
522	0.317
523	0.317
523	0.318
524	0.319
524	0.319
524	0.32
525	0.321
525	0.321
526	0.322
526	0.322
527	0.323
527	0.323
528	0.323
528	0.323
529	0.322
529	0.322
529	0.322
530	0.321
530	0.32
531	0.319
531	0.319
532	0.318
532	0.317
533	0.316
533	0.314
533	0.314
534	0.312
534	0.311
535	0.309
535	0.308
536	0.307
536	0.305
537	0.304
537	0.302
538	0.3
538	0.298
538	0.297
539	0.295
539	0.294
540	0.292
540	0.29
541	0.288
541	0.285
542	0.283
542	0.281
542	0.279
543	0.277
543	0.275
544	0.272
544	0.271
545	0.269
545	0.268
546	0.266
546	0.264
547	0.262
547	0.259
547	0.257
548	0.255
548	0.253
549	0.251
549	0.249
550	0.247
550	0.244
551	0.242
551	0.239
551	0.237
552	0.235
552	0.233
553	0.231
553	0.229
554	0.227
554	0.224
555	0.222
555	0.219
556	0.216
556	0.213
556	0.21
557	0.208
557	0.205
558	0.202
558	0.2
559	0.197
559	0.195
560	0.193
560	0.191
560	0.189
561	0.188
561	0.187
562	0.185
562	0.184
563	0.181
563	0.179
564	0.177
564	0.174
564	0.172
565	0.17
565	0.168
566	0.166
566	0.165
567	0.163
567	0.162
568	0.161
568	0.16
568	0.16
569	0.16
569	0.159
570	0.159
570	0.157
571	0.157
571	0.156
572	0.155
572	0.154
573	0.153
573	0.152
573	0.15
574	0.149
574	0.148
575	0.147
575	0.147
576	0.146
576	0.144
577	0.142
577	0.141
577	0.14
578	0.139
578	0.138
579	0.138
579	0.138
580	0.136
580	0.133
581	0.13
581	0.129
581	0.128
582	0.127
582	0.127
583	0.127
583	0.125
584	0.123
584	0.12
585	0.119
585	0.119
585	0.119
586	0.118
586	0.118
587	0.116
587	0.114
588	0.112
588	0.11
589	0.109
589	0.109
590	0.108
590	0.107
590	0.108
591	0.108
591	0.107
592	0.107
592	0.106
593	0.106
593	0.106
594	0.105
594	0.104
594	0.104
595	0.104
595	0.102
596	0.101
596	0.103
597	0.104
597	0.105
598	0.105
598	0.106
598	0.106
599	0.106
599	0.105
600	0.105
600	0.104
601	0.103
601	0.102
602	0.1
602	0.099
602	0.098
603	0.098
603	0.098
604	0.098
604	0.099
605	0.1
605	0.1
606	0.1
606	0.099
606	0.099
607	0.098
607	0.098
608	0.097
608	0.096
609	0.096
609	0.096
610	0.095
610	0.094
610	0.095
611	0.096
611	0.097
612	0.099
612	0.1
613	0.102
613	0.103
614	0.103
614	0.103
614	0.104
615	0.104
615	0.104
616	0.104
616	0.104
617	0.104
617	0.103
618	0.102
618	0.102
618	0.102
619	0.102
619	0.102
620	0.104
620	0.104
621	0.104
621	0.104
622	0.104
622	0.105
622	0.104
623	0.104
623	0.106
624	0.106
624	0.106
625	0.107
625	0.108
626	0.108
626	0.109
626	0.11
627	0.111
627	0.112
628	0.114
628	0.114
629	0.115
629	0.115
630	0.115
630	0.115
630	0.116
631	0.116
631	0.117
632	0.117
632	0.117
633	0.117
633	0.118
634	0.12
634	0.122
634	0.124
635	0.125
635	0.126
636	0.127
636	0.128
637	0.129
637	0.13
638	0.132
638	0.133
638	0.134
639	0.134
639	0.135
640	0.136
640	0.137
641	0.138
641	0.14
642	0.142
642	0.144
642	0.146
643	0.147
643	0.149
644	0.151
644	0.153
645	0.155
645	0.157
646	0.159
646	0.162
646	0.165
647	0.169
647	0.172
648	0.174
648	0.177
649	0.181
649	0.184
650	0.187
650	0.19
650	0.193
651	0.195
651	0.198
652	0.2
652	0.202
653	0.204
653	0.211
653	0.218
654	0.173
654	0.139
655	0.143
655	0.145
656	0.146
656	0.148
657	0.15
657	0.152
657	0.154
658	0.152
658	0.145
659	0.184
659	0.24
660	0.247
660	0.249
661	0.252
661	0.255
661	0.257
662	0.26
662	0.264
663	0.267
663	0.27
664	0.273
664	0.275
665	0.278
665	0.281
665	0.284
666	0.287
666	0.289
667	0.292
667	0.295
668	0.298
668	0.3
669	0.303
669	0.306
669	0.31
670	0.313
670	0.315
671	0.317
671	0.319
672	0.321
672	0.323
672	0.325
673	0.327
673	0.329
674	0.331
674	0.332
675	0.334
675	0.336
676	0.339
676	0.341
676	0.342
677	0.345
677	0.347
678	0.348
678	0.349
679	0.35
679	0.351
680	0.353
680	0.354
680	0.354
681	0.355
681	0.357
682	0.358
682	0.359
683	0.361
683	0.362
684	0.364
684	0.364
684	0.364
685	0.364
685	0.365
686	0.365
686	0.364
687	0.364
687	0.363
687	0.362
688	0.362
688	0.362
689	0.362
689	0.363
690	0.364
690	0.364
691	0.364
691	0.365
691	0.365
692	0.364
692	0.363
693	0.363
693	0.362
694	0.361
694	0.359
695	0.358
695	0.358
695	0.358
696	0.356
696	0.355
697	0.354
697	0.352
698	0.351
698	0.349
698	0.347
699	0.345
699	0.342
700	0.339
700	0.337
701	0.335
701	0.332
702	0.33
702	0.328
702	0.326
703	0.323
703	0.321
704	0.319
704	0.317
705	0.316
705	0.314
705	0.312
706	0.31
706	0.309
707	0.307
707	0.305
708	0.303
708	0.302
709	0.3
709	0.298
709	0.296
710	0.293
710	0.291
711	0.289
711	0.287
712	0.285
712	0.283
713	0.28
713	0.278
713	0.276
714	0.273
714	0.269
715	0.267
715	0.264
716	0.26
716	0.258
716	0.254
717	0.251
717	0.249
718	0.245
718	0.243
719	0.24
719	0.238
720	0.236
720	0.234
720	0.231
721	0.229
721	0.226
722	0.224
722	0.221
723	0.219
723	0.217
723	0.215
724	0.212
724	0.21
725	0.208
725	0.206
726	0.204
726	0.202
727	0.199
727	0.198
727	0.195
728	0.193
728	0.191
729	0.189
729	0.187
730	0.185
730	0.182
730	0.181
731	0.179
731	0.177
732	0.176
732	0.175
733	0.173
733	0.172
734	0.171
734	0.169
734	0.168
735	0.167
735	0.166
736	0.164
736	0.162
737	0.16
737	0.158
737	0.156
738	0.153
738	0.15
739	0.148
739	0.145
740	0.143
740	0.141
741	0.139
741	0.137
741	0.134
742	0.131
742	0.129
743	0.128
743	0.126
744	0.124
744	0.123
744	0.121
745	0.119
745	0.117
746	0.115
746	0.114
747	0.113
747	0.112
748	0.112
748	0.111
748	0.11
749	0.109
749	0.108
750	0.108
750	0.107
751	0.107
751	0.107
751	0.106
752	0.105
752	0.104
753	0.103
753	0.103
754	0.102
754	0.101
754	0.1
755	0.1
755	0.1
756	0.099
756	0.097
757	0.096
757	0.096
758	0.095
758	0.094
758	0.094
759	0.093
759	0.091
760	0.089
760	0.087
761	0.085
761	0.084
761	0.082
762	0.08
762	0.078
763	0.076
763	0.074
764	0.071
764	0.069
764	0.067
765	0.065
765	0.063
766	0.062
766	0.061
767	0.06
767	0.058
768	0.055
768	0.054
768	0.053
769	0.052
769	0.051
770	0.05
770	0.048
771	0.046
771	0.043
771	0.041
772	0.039
772	0.037
773	0.035
773	0.033
774	0.03
774	0.028
775	0.026
775	0.024
775	0.021
776	0.019
776	0.018
777	0.016
777	0.014
778	0.012
778	0.009
778	0.007
779	0.005
779	0.004
780	0.001
780	-0.002
781	-0.004
781	-0.008
781	-0.012
782	-0.016
782	-0.02
783	-0.025
783	-0.029
784	-0.034
784	-0.04
784	-0.045
785	-0.05
785	-0.056
786	-0.061
786	-0.065
787	-0.068
787	-0.072
788	-0.078
788	-0.085
788	-0.092
789	-0.099
789	-0.103
790	-0.105
790	-0.109
791	-0.113
791	-0.116
791	-0.119
792	-0.114
792	-0.104
793	-0.099
793	-0.095
794	-0.093
794	-0.095
794	-0.1
795	-0.102
795	-0.102
796	-0.103
796	-0.106
797	-0.114
797	-0.126
797	-0.132
798	-0.138
798	-0.141
799	-0.141
799	-0.141
800	-0.14
800	-0.142
801	-0.145
801	-0.145
801	-0.145
802	-0.146
802	-0.147
803	-0.148
803	-0.148
804	-0.147
804	-0.142
804	-0.135
805	-0.131
805	-0.129
806	-0.128
806	-0.127
807	-0.126
807	-0.126
807	-0.127
808	-0.127
808	-0.128
809	-0.133
809	-0.139
810	-0.143
810	-0.145
810	-0.149
811	-0.152
811	-0.152
812	-0.148
812	-0.145
813	-0.145
813	-0.146
813	-0.147
814	-0.148
814	-0.149
815	-0.147
815	-0.144
816	-0.141
816	-0.138
817	-0.138
817	-0.136
817	-0.129
818	-0.121
818	-0.111
819	-0.1
819	-0.09
820	-0.081
820	-0.072
820	-0.063
821	-0.055
821	-0.047
822	-0.04
822	-0.034
823	-0.029
823	-0.025
823	-0.021
824	-0.017
824	-0.012
825	-0.008
825	-0.004
826	-0
826	0.002
826	0.005
827	0.007
827	0.009
828	0.011
828	0.013
829	0.014
829	0.016
829	0.017
830	0.017
830	0.018
831	0.02
831	0.021
832	0.022
832	0.023
832	0.023
833	0.024
833	0.024
834	0.024
834	0.025
835	0.025
835	0.024
835	0.024
836	0.024
836	0.025
837	0.025
837	0.026
838	0.026
838	0.026
839	0.027
839	0.027
839	0.026
840	0.026
840	0.026
841	0.026
841	0.026
842	0.026
842	0.026
842	0.026
843	0.026
843	0.026
844	0.026
844	0.026
845	0.026
845	0.026
845	0.026
846	0.026
846	0.026
847	0.026
847	0.026
848	0.026
848	0.027
848	0.027
849	0.028
849	0.029
850	0.029
850	0.03
851	0.031
851	0.032
851	0.032
852	0.032
852	0.032
853	0.031
853	0.031
854	0.03
854	0.03
854	0.029
855	0.028
855	0.027
856	0.026
856	0.026
857	0.025
857	0.025
857	0.025
858	0.025
858	0.025
859	0.025
859	0.026
860	0.026
860	0.027
860	0.027
861	0.028
861	0.029
862	0.03
862	0.03
863	0.031
863	0.031
863	0.031
864	0.032
864	0.032
865	0.033
865	0.033
866	0.034
866	0.034
866	0.035
867	0.036
867	0.036
868	0.036
868	0.036
869	0.036
869	0.036
869	0.035
870	0.034
870	0.033
871	0.033
871	0.032
872	0.032
872	0.032
872	0.031
873	0.032
873	0.031
874	0.031
874	0.031
875	0.031
875	0.031
875	0.031
876	0.03
876	0.029
877	0.028
877	0.027
878	0.026
878	0.026
878	0.025
879	0.025
879	0.024
880	0.024
880	0.024
881	0.024
881	0.024
881	0.025
882	0.025
882	0.025
883	0.025
883	0.025
884	0.024
884	0.024
884	0.023
885	0.023
885	0.023
886	0.023
886	0.023
887	0.022
887	0.023
887	0.023
888	0.023
888	0.024
889	0.025
889	0.025
890	0.026
890	0.027
890	0.027
891	0.028
891	0.028
892	0.029
892	0.029
893	0.03
893	0.03
893	0.031
894	0.031
894	0.031
895	0.031
895	0.031
895	0.031
896	0.031
896	0.031
897	0.031
897	0.031
898	0.031
898	0.031
898	0.031
899	0.031
899	0.031
900	0.031
900	0.031
901	0.031
901	0.031
901	0.03
902	0.03
902	0.03
903	0.03
903	0.031
904	0.031
904	0.032
904	0.032
905	0.032
905	0.033
906	0.033
906	0.033
907	0.033
907	0.033
907	0.033
908	0.032
908	0.032
909	0.032
909	0.032
910	0.032
910	0.032
910	0.032
911	0.032
911	0.032
912	0.032
912	0.032
913	0.032
913	0.032
913	0.032
914	0.031
914	0.031
915	0.03
915	0.03
916	0.03
916	0.029
916	0.029
917	0.028
917	0.027
918	0.026
918	0.025
918	0.024
919	0.023
919	0.022
920	0.022
920	0.021
921	0.021
921	0.021
921	0.021
922	0.021
922	0.021
923	0.021
923	0.021
924	0.022
924	0.022
924	0.022
925	0.023
925	0.023
926	0.023
926	0.023
927	0.023
927	0.023
927	0.023
928	0.023
928	0.023
929	0.023
929	0.023
930	0.022
930	0.021
930	0.021
931	0.021
931	0.02
932	0.02
932	0.02
933	0.02
933	0.019
933	0.019
934	0.019
934	0.018
935	0.018
935	0.017
935	0.017
936	0.016
936	0.016
937	0.015
937	0.015
938	0.015
938	0.015
938	0.015
939	0.016
939	0.017
940	0.018
940	0.019
941	0.02
941	0.021
941	0.022
942	0.023
942	0.024
943	0.024
943	0.025
944	0.025
944	0.026
944	0.026
945	0.026
945	0.027
946	0.027
946	0.027
946	0.027
947	0.028
947	0.028
948	0.029
948	0.029
949	0.029
949	0.03
949	0.03
950	0.03
950	0.031
951	0.031
951	0.031
952	0.031
952	0.03
952	0.03
953	0.029
953	0.029
954	0.028
954	0.027
955	0.027
955	0.027
955	0.026
956	0.026
956	0.026
957	0.026
957	0.026
957	0.026
958	0.026
958	0.026
959	0.026
959	0.026
960	0.026
960	0.025
960	0.025
961	0.025
961	0.025
962	0.025
962	0.025
963	0.025
963	0.025
963	0.025
964	0.025
964	0.026
965	0.026
965	0.026
966	0.026
966	0.027
966	0.027
967	0.026
967	0.026
968	0.025
968	0.025
968	0.024
969	0.023
969	0.023
970	0.022
970	0.022
971	0.021
971	0.021
971	0.02
972	0.02
972	0.02
973	0.02
973	0.021
974	0.021
974	0.021
974	0.022
975	0.022
975	0.023
976	0.024
976	0.025
976	0.026
977	0.026
977	0.026
978	0.027
978	0.027
979	0.027
979	0.027
979	0.026
980	0.026
980	0.025
981	0.024
981	0.023
982	0.022
982	0.021
982	0.02
983	0.019
983	0.018
984	0.017
984	0.016
984	0.014
985	0.013
985	0.012
986	0.011
986	0.01
987	0.009
987	0.009
987	0.008
988	0.008
988	0.008
989	0.008
989	0.008
990	0.009
990	0.009
990	0.01
991	0.011
991	0.012
992	0.013
992	0.014
992	0.014
993	0.015
993	0.016
994	0.016
994	0.016
995	0.016
995	0.016
995	0.015
996	0.015
996	0.014
997	0.013
997	0.013
997	0.013
998	0.013
998	0.013
999	0.014
999	0.015
1000	0.016
1000	0.017
1000	0.018
1001	0.019
1001	0.02
1002	0.021
1002	0.022
1003	0.022
1003	0.022
1003	0.022
1004	0.022
1004	0.022
1005	0.021
1005	0.021
1005	0.02
1006	0.019
1006	0.019
1007	0.018
1007	0.017
1008	0.017
1008	0.017
1008	0.017
1009	0.017
1009	0.017
1010	0.017
1010	0.018
1010	0.018
1011	0.018
1011	0.018
1012	0.018
1012	0.018
1013	0.018
1013	0.018
1013	0.017
1014	0.016
1014	0.015
1015	0.014
1015	0.014
1016	0.013
1016	0.011
1016	0.01
1017	0.009
1017	0.008
1018	0.008
1018	0.007
1018	0.007
1019	0.006
1019	0.006
1020	0.006
1020	0.006
1021	0.006
1021	0.006
1021	0.006
1022	0.007
1022	0.007
1023	0.008
1023	0.008
1023	0.008
1024	0.009
1024	0.009
1025	0.009
1025	0.009
1026	0.009
1026	0.009
1026	0.008
1027	0.008
1027	0.008
1028	0.008
1028	0.008
1028	0.008
1029	0.008
1029	0.008
1030	0.007
1030	0.007
1031	0.007
1031	0.007
1031	0.007
1032	0.007
1032	0.007
1033	0.007
1033	0.007
1033	0.007
1034	0.006
1034	0.006
1035	0.006
1035	0.005
1036	0.005
1036	0.005
1036	0.005
1037	0.005
1037	0.005
1038	0.005
1038	0.005
1039	0.005
1039	0.006
1039	0.006
1040	0.007
1040	0.007
1041	0.008
1041	0.009
1041	0.009
1042	0.01
1042	0.01
1043	0.011
1043	0.012
1044	0.013
1044	0.013
1044	0.014
1045	0.015
1045	0.015
1046	0.015
1046	0.016
1046	0.016
1047	0.016
1047	0.017
1048	0.017
1048	0.017
1049	0.016
1049	0.015
1049	0.014
1050	0.013
1050	0.012
1051	0.011
1051	0.011
1051	0.01
1052	0.009
1052	0.008
1053	0.007
1053	0.006
1053	0.005
1054	0.004
1054	0.003
1055	0.002
1055	0.001
1056	-0
1056	-0.001
1056	-0.003
1057	-0.004
1057	-0.005
1058	-0.005
1058	-0.006
1058	-0.007
1059	-0.007
1059	-0.007
1060	-0.008
1060	-0.007
1061	-0.007
1061	-0.007
1061	-0.007
1062	-0.007
1062	-0.007
1063	-0.007
1063	-0.007
1063	-0.006
1064	-0.006
1064	-0.005
1065	-0.005
1065	-0.004
1066	-0.004
1066	-0.003
1066	-0.002
1067	-0.002
1067	-0.001
1068	-0.001
1068	-0.001
1068	-0.001
1069	-0.002
1069	-0.003
1070	-0.004
1070	-0.005
1071	-0.006
1071	-0.006
1071	-0.008
1072	-0.009
1072	-0.01
1073	-0.011
1073	-0.011
1073	-0.012
1074	-0.013
1074	-0.014
1075	-0.015
1075	-0.016
1076	-0.017
1076	-0.017
1076	-0.018
1077	-0.018
1077	-0.018
1078	-0.018
1078	-0.017
1078	-0.016
1079	-0.015
1079	-0.014
1080	-0.013
1080	-0.012
1080	-0.012
1081	-0.01
1081	-0.009
1082	-0.008
1082	-0.008
1083	-0.007
1083	-0.008
1083	-0.007
1084	-0.007
1084	-0.006
1085	-0.005
1085	-0.005
1085	-0.004
1086	-0.004
1086	-0.005
1087	-0.004
1087	-0.003
1088	-0.004
1088	-0.004
1088	-0.004
1089	-0.005
1089	-0.005
1090	-0.006
1090	-0.006
1090	-0.007
1091	-0.007
1091	-0.007
1092	-0.007
1092	-0.007
1092	-0.006
1093	-0.007
1093	-0.006
1094	-0.006
1094	-0.005
1095	-0.006
1095	-0.005
1095	-0.004
1096	-0.003
1096	-0.002
1097	-0.001
1097	0
1097	0.002
1098	0.003
1098	0.005
1099	0.007
1099	0.009
1100	0.011
1100	0.013
1100	0.014
1101	0.015
1101	0.017
1102	0.019
1102	0.02
1102	0.023
1103	0.025
1103	0.029
1104	0.033
1104	0.036
1104	0.041
1105	0.047
1105	0.05
1106	0.055
1106	0.061
1107	0.066
1107	0.073
1107	0.082
1108	0.117
1108	0.163
1109	0.229
1109	0.331
1109	0.41
1110	0.579
1110	1.069
1111	-0
1111	-0
