Data from 17c-2a_Absorbance__991__00992.txt Node

Date: Fri Jan 26 10:20:32 CET 2024
User: Marek
Spectrometer: MAYP115816
Trigger mode: 0
Integration Time (sec): 2.000000E-1
Scans to average: 10
Electric dark correction enabled: true
Nonlinearity correction enabled: true
Boxcar width: 5
XAxis mode: Wavelengths
Number of Pixels in Spectrum: 2068
>>>>>Begin Spectral Data<<<<<
199	-1.36
199	-1.227
200	-1.083
200	-0.977
201	-0.909
201	-0.868
202	-0.807
202	-0.76
203	-0.721
203	-0.688
204	-0.665
204	-0.644
205	-0.624
205	-0.615
205	-0.612
206	-0.609
206	-0.605
207	-0.602
207	-0.602
208	-0.601
208	-0.599
209	-0.596
209	-0.594
210	-0.596
210	-0.596
211	-0.597
211	-0.598
212	-0.599
212	-0.599
213	-0.597
213	-0.593
213	-0.594
214	-0.593
214	-0.591
215	-0.586
215	-0.584
216	-0.581
216	-0.58
217	-0.577
217	-0.575
218	-0.57
218	-0.57
219	-0.566
219	-0.565
220	-0.564
220	-0.567
221	-0.564
221	-0.563
221	-0.559
222	-0.554
222	-0.551
223	-0.549
223	-0.546
224	-0.542
224	-0.534
225	-0.527
225	-0.519
226	-0.511
226	-0.5
227	-0.492
227	-0.483
228	-0.469
228	-0.453
229	-0.435
229	-0.415
229	-0.394
230	-0.369
230	-0.341
231	-0.313
231	-0.282
232	-0.251
232	-0.218
233	-0.184
233	-0.15
234	-0.117
234	-0.086
235	-0.054
235	-0.026
236	0.001
236	0.027
236	0.051
237	0.073
237	0.093
238	0.111
238	0.127
239	0.142
239	0.155
240	0.167
240	0.178
241	0.188
241	0.197
242	0.205
242	0.212
243	0.219
243	0.225
243	0.23
244	0.235
244	0.24
245	0.244
245	0.247
246	0.251
246	0.255
247	0.258
247	0.261
248	0.264
248	0.267
249	0.27
249	0.273
250	0.276
250	0.278
250	0.281
251	0.283
251	0.285
252	0.288
252	0.29
253	0.291
253	0.293
254	0.295
254	0.296
255	0.297
255	0.299
256	0.3
256	0.301
257	0.303
257	0.303
258	0.304
258	0.305
258	0.306
259	0.306
259	0.307
260	0.307
260	0.307
261	0.307
261	0.308
262	0.308
262	0.308
263	0.307
263	0.307
264	0.307
264	0.306
265	0.306
265	0.305
265	0.304
266	0.303
266	0.302
267	0.301
267	0.3
268	0.298
268	0.297
269	0.296
269	0.294
270	0.292
270	0.291
271	0.289
271	0.287
272	0.286
272	0.284
272	0.283
273	0.281
273	0.279
274	0.277
274	0.275
275	0.273
275	0.271
276	0.269
276	0.267
277	0.265
277	0.263
278	0.26
278	0.258
278	0.256
279	0.254
279	0.252
280	0.249
280	0.247
281	0.245
281	0.243
282	0.241
282	0.24
283	0.238
283	0.236
284	0.235
284	0.233
285	0.231
285	0.229
285	0.228
286	0.226
286	0.224
287	0.223
287	0.221
288	0.219
288	0.218
289	0.216
289	0.215
290	0.214
290	0.212
291	0.211
291	0.21
292	0.209
292	0.208
292	0.207
293	0.205
293	0.204
294	0.203
294	0.203
295	0.202
295	0.201
296	0.2
296	0.199
297	0.198
297	0.198
298	0.197
298	0.196
298	0.196
299	0.195
299	0.195
300	0.194
300	0.194
301	0.193
301	0.193
302	0.192
302	0.191
303	0.191
303	0.19
304	0.19
304	0.189
305	0.189
305	0.188
305	0.188
306	0.187
306	0.187
307	0.186
307	0.185
308	0.185
308	0.184
309	0.184
309	0.183
310	0.183
310	0.182
311	0.182
311	0.182
311	0.181
312	0.181
312	0.18
313	0.18
313	0.179
314	0.179
314	0.178
315	0.178
315	0.177
316	0.177
316	0.177
317	0.176
317	0.176
318	0.175
318	0.175
318	0.174
319	0.174
319	0.173
320	0.173
320	0.172
321	0.172
321	0.171
322	0.171
322	0.17
323	0.17
323	0.169
324	0.169
324	0.168
324	0.168
325	0.167
325	0.167
326	0.167
326	0.166
327	0.166
327	0.165
328	0.165
328	0.164
329	0.164
329	0.163
330	0.163
330	0.162
330	0.162
331	0.161
331	0.161
332	0.161
332	0.16
333	0.16
333	0.16
334	0.159
334	0.159
335	0.159
335	0.158
336	0.158
336	0.158
336	0.157
337	0.157
337	0.157
338	0.156
338	0.156
339	0.155
339	0.155
340	0.154
340	0.154
341	0.154
341	0.153
342	0.153
342	0.153
342	0.153
343	0.152
343	0.152
344	0.152
344	0.152
345	0.151
345	0.151
346	0.151
346	0.151
347	0.15
347	0.15
348	0.15
348	0.15
348	0.149
349	0.149
349	0.149
350	0.149
350	0.148
351	0.148
351	0.148
352	0.148
352	0.148
353	0.148
353	0.147
354	0.147
354	0.147
354	0.147
355	0.146
355	0.146
356	0.146
356	0.145
357	0.145
357	0.145
358	0.145
358	0.145
359	0.145
359	0.145
360	0.145
360	0.145
360	0.145
361	0.145
361	0.145
362	0.145
362	0.145
363	0.145
363	0.145
364	0.145
364	0.145
365	0.145
365	0.145
366	0.145
366	0.145
366	0.145
367	0.145
367	0.145
368	0.145
368	0.145
369	0.144
369	0.144
370	0.144
370	0.144
371	0.143
371	0.143
372	0.143
372	0.143
372	0.143
373	0.143
373	0.143
374	0.143
374	0.143
375	0.143
375	0.143
376	0.143
376	0.143
377	0.144
377	0.144
378	0.144
378	0.144
378	0.144
379	0.144
379	0.144
380	0.144
380	0.144
381	0.144
381	0.143
382	0.143
382	0.143
383	0.143
383	0.143
383	0.143
384	0.142
384	0.142
385	0.142
385	0.142
386	0.142
386	0.142
387	0.142
387	0.142
388	0.142
388	0.142
389	0.141
389	0.141
389	0.141
390	0.141
390	0.141
391	0.142
391	0.142
392	0.142
392	0.142
393	0.142
393	0.142
394	0.142
394	0.142
394	0.141
395	0.141
395	0.141
396	0.141
396	0.141
397	0.14
397	0.14
398	0.14
398	0.14
399	0.14
399	0.14
400	0.139
400	0.139
400	0.139
401	0.139
401	0.139
402	0.139
402	0.138
403	0.138
403	0.138
404	0.138
404	0.138
405	0.138
405	0.138
405	0.138
406	0.138
406	0.138
407	0.138
407	0.138
408	0.138
408	0.138
409	0.138
409	0.138
410	0.138
410	0.138
411	0.138
411	0.138
411	0.138
412	0.137
412	0.137
413	0.137
413	0.137
414	0.137
414	0.137
415	0.137
415	0.137
416	0.136
416	0.136
416	0.136
417	0.136
417	0.136
418	0.136
418	0.136
419	0.136
419	0.136
420	0.136
420	0.137
421	0.137
421	0.137
421	0.137
422	0.137
422	0.137
423	0.137
423	0.137
424	0.137
424	0.137
425	0.137
425	0.137
426	0.137
426	0.137
427	0.137
427	0.137
427	0.137
428	0.137
428	0.137
429	0.137
429	0.137
430	0.137
430	0.137
431	0.137
431	0.137
432	0.137
432	0.137
432	0.136
433	0.136
433	0.136
434	0.136
434	0.136
435	0.136
435	0.136
436	0.136
436	0.136
437	0.136
437	0.136
437	0.136
438	0.136
438	0.136
439	0.136
439	0.136
440	0.136
440	0.135
441	0.136
441	0.135
442	0.136
442	0.136
442	0.136
443	0.136
443	0.136
444	0.136
444	0.136
445	0.136
445	0.136
446	0.136
446	0.136
447	0.136
447	0.136
447	0.136
448	0.136
448	0.137
449	0.136
449	0.136
450	0.137
450	0.136
451	0.136
451	0.136
452	0.136
452	0.136
452	0.136
453	0.136
453	0.136
454	0.136
454	0.136
455	0.136
455	0.136
456	0.136
456	0.136
457	0.136
457	0.136
458	0.136
458	0.136
458	0.137
459	0.137
459	0.137
460	0.137
460	0.136
461	0.137
461	0.137
462	0.137
462	0.137
463	0.138
463	0.138
463	0.138
464	0.138
464	0.138
465	0.139
465	0.139
466	0.139
466	0.139
467	0.139
467	0.139
467	0.139
468	0.139
468	0.138
469	0.138
469	0.138
470	0.138
470	0.138
471	0.138
471	0.138
472	0.138
472	0.139
472	0.139
473	0.14
473	0.14
474	0.141
474	0.141
475	0.142
475	0.142
476	0.142
476	0.143
477	0.143
477	0.143
477	0.144
478	0.144
478	0.145
479	0.145
479	0.146
480	0.146
480	0.146
481	0.147
481	0.148
482	0.148
482	0.149
482	0.15
483	0.151
483	0.153
484	0.154
484	0.155
485	0.156
485	0.157
486	0.157
486	0.158
487	0.158
487	0.159
487	0.159
488	0.16
488	0.159
489	0.16
489	0.16
490	0.161
490	0.161
491	0.162
491	0.163
492	0.163
492	0.164
492	0.165
493	0.165
493	0.166
494	0.168
494	0.169
495	0.17
495	0.171
496	0.172
496	0.173
496	0.174
497	0.175
497	0.176
498	0.177
498	0.178
499	0.179
499	0.18
500	0.182
500	0.183
501	0.184
501	0.186
501	0.187
502	0.188
502	0.189
503	0.191
503	0.192
504	0.193
504	0.194
505	0.195
505	0.196
506	0.197
506	0.198
506	0.199
507	0.2
507	0.201
508	0.202
508	0.202
509	0.204
509	0.204
510	0.206
510	0.207
511	0.207
511	0.209
511	0.209
512	0.21
512	0.211
513	0.211
513	0.212
514	0.212
514	0.213
515	0.213
515	0.213
515	0.213
516	0.214
516	0.214
517	0.215
517	0.216
518	0.216
518	0.216
519	0.216
519	0.216
520	0.216
520	0.216
520	0.216
521	0.215
521	0.214
522	0.213
522	0.213
523	0.212
523	0.213
524	0.213
524	0.213
524	0.213
525	0.213
525	0.214
526	0.214
526	0.215
527	0.215
527	0.216
528	0.216
528	0.217
529	0.217
529	0.216
529	0.216
530	0.216
530	0.215
531	0.215
531	0.214
532	0.213
532	0.212
533	0.212
533	0.21
533	0.21
534	0.208
534	0.207
535	0.206
535	0.206
536	0.205
536	0.203
537	0.203
537	0.202
538	0.2
538	0.199
538	0.198
539	0.197
539	0.196
540	0.195
540	0.193
541	0.192
541	0.19
542	0.189
542	0.187
542	0.186
543	0.184
543	0.183
544	0.181
544	0.18
545	0.179
545	0.178
546	0.177
546	0.176
547	0.175
547	0.173
547	0.172
548	0.171
548	0.17
549	0.169
549	0.168
550	0.167
550	0.165
551	0.163
551	0.162
551	0.161
552	0.159
552	0.158
553	0.157
553	0.156
554	0.154
554	0.152
555	0.15
555	0.148
556	0.146
556	0.144
556	0.142
557	0.14
557	0.138
558	0.136
558	0.134
559	0.133
559	0.132
560	0.13
560	0.129
560	0.128
561	0.127
561	0.127
562	0.126
562	0.125
563	0.123
563	0.122
564	0.121
564	0.12
564	0.119
565	0.118
565	0.116
566	0.115
566	0.114
567	0.112
567	0.112
568	0.111
568	0.111
568	0.11
569	0.11
569	0.11
570	0.109
570	0.108
571	0.108
571	0.108
572	0.107
572	0.107
573	0.106
573	0.105
573	0.104
574	0.103
574	0.102
575	0.102
575	0.102
576	0.102
576	0.1
577	0.099
577	0.098
577	0.097
578	0.097
578	0.097
579	0.097
579	0.097
580	0.095
580	0.093
581	0.091
581	0.09
581	0.09
582	0.089
582	0.089
583	0.089
583	0.088
584	0.086
584	0.084
585	0.083
585	0.084
585	0.084
586	0.083
586	0.083
587	0.081
587	0.08
588	0.078
588	0.077
589	0.077
589	0.077
590	0.076
590	0.076
590	0.078
591	0.078
591	0.078
592	0.077
592	0.077
593	0.077
593	0.077
594	0.076
594	0.075
594	0.075
595	0.074
595	0.073
596	0.073
596	0.073
597	0.075
597	0.076
598	0.076
598	0.076
598	0.076
599	0.076
599	0.076
600	0.075
600	0.074
601	0.074
601	0.073
602	0.072
602	0.071
602	0.07
603	0.07
603	0.07
604	0.071
604	0.071
605	0.072
605	0.073
606	0.072
606	0.072
606	0.071
607	0.071
607	0.071
608	0.071
608	0.069
609	0.069
609	0.069
610	0.068
610	0.068
610	0.068
611	0.069
611	0.071
612	0.072
612	0.073
613	0.074
613	0.076
614	0.076
614	0.076
614	0.077
615	0.077
615	0.077
616	0.077
616	0.077
617	0.077
617	0.076
618	0.076
618	0.076
618	0.076
619	0.076
619	0.077
620	0.078
620	0.078
621	0.079
621	0.079
622	0.079
622	0.079
622	0.079
623	0.079
623	0.08
624	0.081
624	0.081
625	0.081
625	0.081
626	0.081
626	0.081
626	0.082
627	0.083
627	0.083
628	0.084
628	0.084
629	0.084
629	0.084
630	0.084
630	0.084
630	0.085
631	0.086
631	0.086
632	0.086
632	0.086
633	0.087
633	0.087
634	0.089
634	0.09
634	0.091
635	0.092
635	0.093
636	0.094
636	0.095
637	0.095
637	0.095
638	0.096
638	0.097
638	0.098
639	0.098
639	0.098
640	0.099
640	0.1
641	0.1
641	0.101
642	0.103
642	0.104
642	0.106
643	0.107
643	0.108
644	0.11
644	0.111
645	0.113
645	0.115
646	0.117
646	0.119
646	0.121
647	0.123
647	0.125
648	0.127
648	0.129
649	0.131
649	0.133
650	0.136
650	0.138
650	0.14
651	0.142
651	0.143
652	0.145
652	0.146
653	0.148
653	0.154
653	0.157
654	0.126
654	0.103
655	0.104
655	0.105
656	0.106
656	0.107
657	0.109
657	0.111
657	0.112
658	0.11
658	0.106
659	0.133
659	0.171
660	0.178
660	0.18
661	0.181
661	0.183
661	0.185
662	0.188
662	0.19
663	0.192
663	0.194
664	0.196
664	0.198
665	0.2
665	0.202
665	0.204
666	0.205
666	0.207
667	0.209
667	0.21
668	0.212
668	0.214
669	0.216
669	0.218
669	0.22
670	0.221
670	0.223
671	0.224
671	0.225
672	0.227
672	0.228
672	0.229
673	0.231
673	0.232
674	0.234
674	0.235
675	0.236
675	0.238
676	0.241
676	0.242
676	0.244
677	0.246
677	0.247
678	0.248
678	0.249
679	0.25
679	0.251
680	0.253
680	0.254
680	0.254
681	0.255
681	0.256
682	0.256
682	0.257
683	0.259
683	0.26
684	0.261
684	0.261
684	0.261
685	0.261
685	0.261
686	0.261
686	0.261
687	0.26
687	0.26
687	0.259
688	0.259
688	0.259
689	0.259
689	0.26
690	0.26
690	0.26
691	0.26
691	0.261
691	0.26
692	0.26
692	0.26
693	0.26
693	0.259
694	0.258
694	0.257
695	0.257
695	0.257
695	0.256
696	0.255
696	0.254
697	0.254
697	0.253
698	0.252
698	0.25
698	0.249
699	0.248
699	0.246
700	0.244
700	0.242
701	0.241
701	0.239
702	0.238
702	0.236
702	0.234
703	0.232
703	0.231
704	0.229
704	0.228
705	0.227
705	0.226
705	0.225
706	0.224
706	0.223
707	0.222
707	0.221
708	0.22
708	0.219
709	0.218
709	0.217
709	0.215
710	0.213
710	0.212
711	0.21
711	0.208
712	0.207
712	0.205
713	0.203
713	0.201
713	0.199
714	0.197
714	0.195
715	0.193
715	0.191
716	0.188
716	0.186
716	0.184
717	0.182
717	0.18
718	0.177
718	0.175
719	0.173
719	0.172
720	0.17
720	0.168
720	0.166
721	0.164
721	0.163
722	0.161
722	0.159
723	0.157
723	0.156
723	0.154
724	0.152
724	0.151
725	0.149
725	0.148
726	0.146
726	0.145
727	0.143
727	0.142
727	0.141
728	0.139
728	0.138
729	0.137
729	0.136
730	0.134
730	0.132
730	0.131
731	0.13
731	0.128
732	0.128
732	0.127
733	0.126
733	0.125
734	0.124
734	0.123
734	0.122
735	0.122
735	0.121
736	0.12
736	0.119
737	0.118
737	0.117
737	0.116
738	0.113
738	0.111
739	0.11
739	0.108
740	0.106
740	0.105
741	0.104
741	0.103
741	0.101
742	0.099
742	0.098
743	0.098
743	0.097
744	0.096
744	0.095
744	0.094
745	0.092
745	0.09
746	0.089
746	0.088
747	0.087
747	0.086
748	0.085
748	0.083
748	0.082
749	0.081
749	0.08
750	0.079
750	0.078
751	0.078
751	0.078
751	0.078
752	0.077
752	0.076
753	0.076
753	0.076
754	0.076
754	0.075
754	0.076
755	0.076
755	0.076
756	0.075
756	0.073
757	0.073
757	0.073
758	0.072
758	0.072
758	0.072
759	0.072
759	0.07
760	0.069
760	0.068
761	0.067
761	0.067
761	0.066
762	0.064
762	0.064
763	0.062
763	0.06
764	0.058
764	0.056
764	0.055
765	0.054
765	0.052
766	0.051
766	0.051
767	0.05
767	0.047
768	0.045
768	0.044
768	0.043
769	0.043
769	0.042
770	0.04
770	0.039
771	0.037
771	0.035
771	0.033
772	0.031
772	0.03
773	0.029
773	0.027
774	0.025
774	0.023
775	0.022
775	0.021
775	0.019
776	0.018
776	0.017
777	0.016
777	0.014
778	0.013
778	0.011
778	0.01
779	0.009
779	0.008
780	0.005
780	0.003
781	0.001
781	-0.001
781	-0.004
782	-0.007
782	-0.011
783	-0.014
783	-0.017
784	-0.021
784	-0.026
784	-0.03
785	-0.034
785	-0.039
786	-0.043
786	-0.046
787	-0.049
787	-0.052
788	-0.057
788	-0.062
788	-0.068
789	-0.075
789	-0.081
790	-0.085
790	-0.091
791	-0.097
791	-0.103
791	-0.107
792	-0.104
792	-0.097
793	-0.095
793	-0.093
794	-0.094
794	-0.096
794	-0.1
795	-0.103
795	-0.103
796	-0.104
796	-0.106
797	-0.115
797	-0.126
797	-0.133
798	-0.138
798	-0.142
799	-0.142
799	-0.142
800	-0.141
800	-0.143
801	-0.145
801	-0.146
801	-0.146
802	-0.147
802	-0.148
803	-0.148
803	-0.148
804	-0.147
804	-0.142
804	-0.136
805	-0.132
805	-0.13
806	-0.128
806	-0.128
807	-0.127
807	-0.127
807	-0.128
808	-0.128
808	-0.129
809	-0.134
809	-0.14
810	-0.143
810	-0.146
810	-0.15
811	-0.153
811	-0.153
812	-0.149
812	-0.146
813	-0.146
813	-0.147
813	-0.147
814	-0.147
814	-0.145
815	-0.139
815	-0.133
816	-0.126
816	-0.121
817	-0.117
817	-0.112
817	-0.103
818	-0.092
818	-0.08
819	-0.069
819	-0.06
820	-0.053
820	-0.046
820	-0.04
821	-0.033
821	-0.028
822	-0.023
822	-0.018
823	-0.014
823	-0.011
823	-0.008
824	-0.005
824	-0.002
825	0.002
825	0.006
826	0.009
826	0.011
826	0.013
827	0.015
827	0.017
828	0.018
828	0.02
829	0.021
829	0.022
829	0.023
830	0.023
830	0.023
831	0.025
831	0.025
832	0.026
832	0.026
832	0.026
833	0.026
833	0.027
834	0.027
834	0.027
835	0.027
835	0.027
835	0.027
836	0.027
836	0.027
837	0.027
837	0.028
838	0.028
838	0.029
839	0.029
839	0.029
839	0.029
840	0.029
840	0.029
841	0.029
841	0.028
842	0.028
842	0.028
842	0.028
843	0.028
843	0.028
844	0.028
844	0.029
845	0.029
845	0.029
845	0.029
846	0.029
846	0.029
847	0.029
847	0.029
848	0.029
848	0.029
848	0.03
849	0.03
849	0.03
850	0.031
850	0.031
851	0.031
851	0.031
851	0.031
852	0.031
852	0.031
853	0.03
853	0.03
854	0.03
854	0.03
854	0.03
855	0.03
855	0.03
856	0.029
856	0.029
857	0.029
857	0.029
857	0.029
858	0.029
858	0.029
859	0.029
859	0.03
860	0.03
860	0.031
860	0.032
861	0.033
861	0.034
862	0.034
862	0.035
863	0.035
863	0.035
863	0.036
864	0.035
864	0.035
865	0.036
865	0.036
866	0.036
866	0.036
866	0.036
867	0.037
867	0.037
868	0.037
868	0.037
869	0.037
869	0.036
869	0.035
870	0.034
870	0.034
871	0.033
871	0.033
872	0.032
872	0.032
872	0.032
873	0.033
873	0.033
874	0.034
874	0.034
875	0.034
875	0.034
875	0.034
876	0.033
876	0.033
877	0.032
877	0.031
878	0.03
878	0.029
878	0.029
879	0.028
879	0.028
880	0.028
880	0.028
881	0.028
881	0.028
881	0.028
882	0.028
882	0.028
883	0.028
883	0.027
884	0.027
884	0.027
884	0.026
885	0.026
885	0.026
886	0.025
886	0.025
887	0.025
887	0.025
887	0.025
888	0.026
888	0.026
889	0.027
889	0.028
890	0.029
890	0.03
890	0.03
891	0.031
891	0.031
892	0.032
892	0.032
893	0.033
893	0.033
893	0.033
894	0.033
894	0.032
895	0.031
895	0.031
895	0.03
896	0.029
896	0.028
897	0.027
897	0.026
898	0.026
898	0.025
898	0.024
899	0.024
899	0.024
900	0.023
900	0.023
901	0.023
901	0.024
901	0.024
902	0.024
902	0.024
903	0.024
903	0.025
904	0.026
904	0.026
904	0.027
905	0.028
905	0.029
906	0.029
906	0.03
907	0.03
907	0.03
907	0.031
908	0.031
908	0.032
909	0.033
909	0.033
910	0.034
910	0.034
910	0.035
911	0.035
911	0.035
912	0.035
912	0.035
913	0.035
913	0.034
913	0.034
914	0.033
914	0.032
915	0.032
915	0.031
916	0.03
916	0.028
916	0.027
917	0.026
917	0.024
918	0.023
918	0.021
918	0.02
919	0.018
919	0.017
920	0.016
920	0.016
921	0.016
921	0.015
921	0.016
922	0.016
922	0.017
923	0.017
923	0.018
924	0.018
924	0.019
924	0.02
925	0.02
925	0.021
926	0.022
926	0.022
927	0.022
927	0.022
927	0.022
928	0.022
928	0.022
929	0.021
929	0.021
930	0.02
930	0.02
930	0.019
931	0.018
931	0.018
932	0.018
932	0.017
933	0.017
933	0.017
933	0.016
934	0.016
934	0.016
935	0.015
935	0.015
935	0.015
936	0.014
936	0.014
937	0.013
937	0.013
938	0.012
938	0.012
938	0.012
939	0.013
939	0.013
940	0.014
940	0.015
941	0.016
941	0.017
941	0.018
942	0.019
942	0.02
943	0.021
943	0.022
944	0.022
944	0.022
944	0.023
945	0.023
945	0.024
946	0.024
946	0.024
946	0.024
947	0.025
947	0.025
948	0.026
948	0.026
949	0.027
949	0.027
949	0.027
950	0.027
950	0.027
951	0.027
951	0.027
952	0.026
952	0.026
952	0.025
953	0.025
953	0.024
954	0.024
954	0.024
955	0.023
955	0.023
955	0.024
956	0.024
956	0.024
957	0.024
957	0.024
957	0.024
958	0.024
958	0.024
959	0.024
959	0.024
960	0.024
960	0.024
960	0.024
961	0.025
961	0.025
962	0.025
962	0.026
963	0.027
963	0.027
963	0.027
964	0.028
964	0.028
965	0.028
965	0.028
966	0.029
966	0.029
966	0.028
967	0.028
967	0.027
968	0.026
968	0.025
968	0.025
969	0.024
969	0.023
970	0.022
970	0.021
971	0.02
971	0.02
971	0.019
972	0.019
972	0.019
973	0.02
973	0.02
974	0.02
974	0.02
974	0.021
975	0.022
975	0.023
976	0.024
976	0.025
976	0.026
977	0.026
977	0.027
978	0.027
978	0.027
979	0.028
979	0.027
979	0.027
980	0.026
980	0.026
981	0.025
981	0.024
982	0.023
982	0.022
982	0.021
983	0.02
983	0.019
984	0.018
984	0.017
984	0.016
985	0.015
985	0.014
986	0.013
986	0.013
987	0.012
987	0.012
987	0.011
988	0.011
988	0.011
989	0.012
989	0.012
990	0.012
990	0.013
990	0.014
991	0.016
991	0.017
992	0.018
992	0.019
992	0.02
993	0.021
993	0.021
994	0.022
994	0.022
995	0.022
995	0.022
995	0.021
996	0.021
996	0.02
997	0.019
997	0.019
997	0.018
998	0.018
998	0.018
999	0.019
999	0.019
1000	0.019
1000	0.019
1000	0.02
1001	0.021
1001	0.022
1002	0.023
1002	0.023
1003	0.024
1003	0.024
1003	0.024
1004	0.024
1004	0.024
1005	0.024
1005	0.023
1005	0.023
1006	0.023
1006	0.022
1007	0.022
1007	0.022
1008	0.022
1008	0.021
1008	0.022
1009	0.022
1009	0.021
1010	0.021
1010	0.022
1010	0.022
1011	0.021
1011	0.021
1012	0.021
1012	0.02
1013	0.02
1013	0.019
1013	0.018
1014	0.017
1014	0.016
1015	0.015
1015	0.015
1016	0.014
1016	0.013
1016	0.012
1017	0.012
1017	0.011
1018	0.01
1018	0.01
1018	0.01
1019	0.009
1019	0.009
1020	0.009
1020	0.009
1021	0.008
1021	0.008
1021	0.008
1022	0.009
1022	0.009
1023	0.009
1023	0.01
1023	0.01
1024	0.01
1024	0.01
1025	0.01
1025	0.01
1026	0.009
1026	0.009
1026	0.009
1027	0.008
1027	0.008
1028	0.007
1028	0.007
1028	0.007
1029	0.006
1029	0.006
1030	0.005
1030	0.005
1031	0.005
1031	0.005
1031	0.004
1032	0.005
1032	0.005
1033	0.005
1033	0.004
1033	0.004
1034	0.004
1034	0.004
1035	0.004
1035	0.003
1036	0.003
1036	0.003
1036	0.003
1037	0.003
1037	0.003
1038	0.003
1038	0.004
1039	0.005
1039	0.005
1039	0.006
1040	0.007
1040	0.008
1041	0.009
1041	0.01
1041	0.01
1042	0.011
1042	0.012
1043	0.013
1043	0.013
1044	0.014
1044	0.014
1044	0.015
1045	0.015
1045	0.015
1046	0.014
1046	0.014
1046	0.014
1047	0.014
1047	0.014
1048	0.014
1048	0.014
1049	0.013
1049	0.012
1049	0.011
1050	0.011
1050	0.01
1051	0.009
1051	0.009
1051	0.008
1052	0.008
1052	0.007
1053	0.006
1053	0.005
1053	0.005
1054	0.004
1054	0.004
1055	0.003
1055	0.003
1056	0.002
1056	0.001
1056	-0
1057	-0.001
1057	-0.002
1058	-0.002
1058	-0.003
1058	-0.003
1059	-0.003
1059	-0.003
1060	-0.003
1060	-0.003
1061	-0.003
1061	-0.002
1061	-0.002
1062	-0.002
1062	-0.002
1063	-0.002
1063	-0.002
1063	-0.002
1064	-0.002
1064	-0.001
1065	-0.001
1065	-0.001
1066	-0.002
1066	-0.001
1066	-0.001
1067	-0
1067	-0
1068	0
1068	-0
1068	-0.001
1069	-0.001
1069	-0.002
1070	-0.003
1070	-0.003
1071	-0.004
1071	-0.005
1071	-0.006
1072	-0.007
1072	-0.008
1073	-0.009
1073	-0.009
1073	-0.01
1074	-0.01
1074	-0.011
1075	-0.012
1075	-0.013
1076	-0.014
1076	-0.014
1076	-0.015
1077	-0.015
1077	-0.015
1078	-0.015
1078	-0.016
1078	-0.015
1079	-0.015
1079	-0.014
1080	-0.014
1080	-0.013
1080	-0.013
1081	-0.012
1081	-0.012
1082	-0.012
1082	-0.011
1083	-0.011
1083	-0.011
1083	-0.011
1084	-0.011
1084	-0.01
1085	-0.01
1085	-0.01
1085	-0.01
1086	-0.01
1086	-0.01
1087	-0.01
1087	-0.009
1088	-0.009
1088	-0.01
1088	-0.01
1089	-0.011
1089	-0.012
1090	-0.012
1090	-0.013
1090	-0.013
1091	-0.013
1091	-0.013
1092	-0.014
1092	-0.013
1092	-0.013
1093	-0.013
1093	-0.012
1094	-0.012
1094	-0.012
1095	-0.012
1095	-0.012
1095	-0.011
1096	-0.011
1096	-0.01
1097	-0.01
1097	-0.008
1097	-0.008
1098	-0.007
1098	-0.006
1099	-0.004
1099	-0.003
1100	-0.002
1100	-0.001
1100	-0
1101	0.001
1101	0.002
1102	0.002
1102	0.003
1102	0.004
1103	0.005
1103	0.007
1104	0.01
1104	0.012
1104	0.016
1105	0.018
1105	0.02
1106	0.021
1106	0.025
1107	0.026
1107	0.031
1107	0.036
1108	0.057
1108	0.082
1109	0.118
1109	0.168
1109	0.203
1110	0.263
1110	0.375
1111	0.654
1111	-0
