Data from 17c-2a_Absorbance__1107__01108.txt Node

Date: Fri Jan 26 10:24:24 CET 2024
User: Marek
Spectrometer: MAYP115816
Trigger mode: 0
Integration Time (sec): 2.000000E-1
Scans to average: 10
Electric dark correction enabled: true
Nonlinearity correction enabled: true
Boxcar width: 5
XAxis mode: Wavelengths
Number of Pixels in Spectrum: 2068
>>>>>Begin Spectral Data<<<<<
199	-1.361
199	-1.227
200	-1.083
200	-0.976
201	-0.909
201	-0.868
202	-0.807
202	-0.76
203	-0.72
203	-0.688
204	-0.664
204	-0.642
205	-0.622
205	-0.613
205	-0.611
206	-0.608
206	-0.605
207	-0.602
207	-0.602
208	-0.602
208	-0.6
209	-0.597
209	-0.595
210	-0.596
210	-0.596
211	-0.597
211	-0.599
212	-0.599
212	-0.599
213	-0.597
213	-0.594
213	-0.594
214	-0.593
214	-0.592
215	-0.587
215	-0.586
216	-0.583
216	-0.581
217	-0.577
217	-0.576
218	-0.573
218	-0.572
219	-0.568
219	-0.568
220	-0.567
220	-0.569
221	-0.567
221	-0.566
221	-0.561
222	-0.557
222	-0.554
223	-0.549
223	-0.547
224	-0.541
224	-0.534
225	-0.527
225	-0.52
226	-0.511
226	-0.501
227	-0.492
227	-0.483
228	-0.467
228	-0.453
229	-0.433
229	-0.413
229	-0.391
230	-0.365
230	-0.337
231	-0.309
231	-0.277
232	-0.246
232	-0.212
233	-0.178
233	-0.143
234	-0.11
234	-0.077
235	-0.046
235	-0.017
236	0.012
236	0.039
236	0.064
237	0.087
237	0.108
238	0.127
238	0.144
239	0.161
239	0.175
240	0.188
240	0.199
241	0.21
241	0.219
242	0.227
242	0.235
243	0.242
243	0.249
243	0.254
244	0.259
244	0.264
245	0.268
245	0.272
246	0.276
246	0.28
247	0.283
247	0.286
248	0.289
248	0.293
249	0.295
249	0.298
250	0.301
250	0.304
250	0.307
251	0.309
251	0.311
252	0.314
252	0.316
253	0.318
253	0.319
254	0.321
254	0.323
255	0.324
255	0.326
256	0.327
256	0.328
257	0.329
257	0.33
258	0.331
258	0.332
258	0.332
259	0.333
259	0.333
260	0.334
260	0.334
261	0.334
261	0.334
262	0.334
262	0.334
263	0.334
263	0.334
264	0.333
264	0.333
265	0.332
265	0.331
265	0.33
266	0.329
266	0.328
267	0.327
267	0.326
268	0.324
268	0.323
269	0.321
269	0.32
270	0.318
270	0.317
271	0.315
271	0.313
272	0.311
272	0.31
272	0.308
273	0.306
273	0.304
274	0.302
274	0.3
275	0.298
275	0.296
276	0.294
276	0.292
277	0.29
277	0.288
278	0.285
278	0.283
278	0.281
279	0.279
279	0.277
280	0.274
280	0.272
281	0.27
281	0.268
282	0.266
282	0.264
283	0.263
283	0.261
284	0.259
284	0.257
285	0.255
285	0.254
285	0.252
286	0.25
286	0.248
287	0.246
287	0.245
288	0.243
288	0.241
289	0.24
289	0.238
290	0.237
290	0.236
291	0.234
291	0.233
292	0.232
292	0.231
292	0.23
293	0.229
293	0.228
294	0.227
294	0.226
295	0.225
295	0.223
296	0.223
296	0.222
297	0.221
297	0.22
298	0.219
298	0.219
298	0.218
299	0.218
299	0.217
300	0.216
300	0.215
301	0.215
301	0.214
302	0.214
302	0.213
303	0.212
303	0.212
304	0.211
304	0.211
305	0.21
305	0.21
305	0.209
306	0.209
306	0.208
307	0.208
307	0.207
308	0.206
308	0.206
309	0.205
309	0.204
310	0.204
310	0.203
311	0.203
311	0.202
311	0.202
312	0.201
312	0.201
313	0.2
313	0.2
314	0.199
314	0.199
315	0.198
315	0.198
316	0.197
316	0.197
317	0.196
317	0.196
318	0.195
318	0.195
318	0.194
319	0.194
319	0.193
320	0.193
320	0.192
321	0.191
321	0.191
322	0.19
322	0.19
323	0.189
323	0.188
324	0.188
324	0.187
324	0.187
325	0.186
325	0.186
326	0.186
326	0.185
327	0.185
327	0.184
328	0.184
328	0.183
329	0.183
329	0.182
330	0.182
330	0.181
330	0.181
331	0.18
331	0.18
332	0.179
332	0.179
333	0.179
333	0.178
334	0.178
334	0.177
335	0.177
335	0.176
336	0.176
336	0.176
336	0.175
337	0.175
337	0.174
338	0.174
338	0.174
339	0.173
339	0.173
340	0.173
340	0.172
341	0.172
341	0.171
342	0.171
342	0.171
342	0.17
343	0.17
343	0.17
344	0.17
344	0.169
345	0.169
345	0.169
346	0.169
346	0.168
347	0.168
347	0.168
348	0.168
348	0.167
348	0.167
349	0.167
349	0.166
350	0.166
350	0.166
351	0.166
351	0.165
352	0.165
352	0.165
353	0.165
353	0.165
354	0.164
354	0.164
354	0.164
355	0.164
355	0.163
356	0.163
356	0.163
357	0.163
357	0.162
358	0.162
358	0.162
359	0.162
359	0.162
360	0.162
360	0.162
360	0.162
361	0.162
361	0.162
362	0.162
362	0.162
363	0.163
363	0.162
364	0.162
364	0.162
365	0.162
365	0.162
366	0.162
366	0.162
366	0.163
367	0.162
367	0.162
368	0.162
368	0.162
369	0.162
369	0.161
370	0.161
370	0.161
371	0.16
371	0.16
372	0.16
372	0.16
372	0.16
373	0.16
373	0.16
374	0.16
374	0.16
375	0.16
375	0.16
376	0.16
376	0.16
377	0.16
377	0.16
378	0.161
378	0.161
378	0.161
379	0.161
379	0.16
380	0.16
380	0.16
381	0.16
381	0.16
382	0.16
382	0.159
383	0.159
383	0.159
383	0.159
384	0.159
384	0.158
385	0.158
385	0.158
386	0.158
386	0.158
387	0.158
387	0.158
388	0.158
388	0.158
389	0.158
389	0.158
389	0.158
390	0.158
390	0.158
391	0.158
391	0.158
392	0.158
392	0.158
393	0.158
393	0.158
394	0.158
394	0.158
394	0.157
395	0.157
395	0.157
396	0.157
396	0.157
397	0.157
397	0.157
398	0.156
398	0.156
399	0.156
399	0.156
400	0.156
400	0.156
400	0.156
401	0.155
401	0.155
402	0.155
402	0.154
403	0.154
403	0.154
404	0.154
404	0.154
405	0.154
405	0.154
405	0.154
406	0.154
406	0.154
407	0.154
407	0.154
408	0.154
408	0.154
409	0.154
409	0.154
410	0.154
410	0.154
411	0.154
411	0.153
411	0.153
412	0.153
412	0.153
413	0.153
413	0.153
414	0.153
414	0.153
415	0.152
415	0.152
416	0.152
416	0.152
416	0.152
417	0.151
417	0.151
418	0.151
418	0.152
419	0.152
419	0.152
420	0.152
420	0.152
421	0.152
421	0.153
421	0.153
422	0.153
422	0.153
423	0.153
423	0.153
424	0.152
424	0.152
425	0.152
425	0.152
426	0.152
426	0.152
427	0.152
427	0.152
427	0.152
428	0.152
428	0.152
429	0.153
429	0.153
430	0.153
430	0.153
431	0.152
431	0.152
432	0.152
432	0.152
432	0.151
433	0.151
433	0.151
434	0.151
434	0.151
435	0.151
435	0.151
436	0.152
436	0.152
437	0.152
437	0.152
437	0.152
438	0.152
438	0.152
439	0.151
439	0.151
440	0.151
440	0.15
441	0.15
441	0.15
442	0.15
442	0.15
442	0.151
443	0.151
443	0.151
444	0.151
444	0.151
445	0.151
445	0.151
446	0.151
446	0.151
447	0.151
447	0.151
447	0.151
448	0.151
448	0.151
449	0.151
449	0.151
450	0.152
450	0.152
451	0.152
451	0.152
452	0.152
452	0.152
452	0.152
453	0.152
453	0.151
454	0.151
454	0.151
455	0.151
455	0.152
456	0.152
456	0.151
457	0.151
457	0.151
458	0.151
458	0.152
458	0.152
459	0.153
459	0.152
460	0.152
460	0.152
461	0.152
461	0.152
462	0.153
462	0.153
463	0.153
463	0.154
463	0.154
464	0.154
464	0.154
465	0.154
465	0.155
466	0.155
466	0.155
467	0.155
467	0.155
467	0.155
468	0.154
468	0.154
469	0.154
469	0.154
470	0.154
470	0.154
471	0.154
471	0.154
472	0.154
472	0.154
472	0.155
473	0.155
473	0.156
474	0.156
474	0.157
475	0.157
475	0.158
476	0.158
476	0.159
477	0.159
477	0.16
477	0.16
478	0.16
478	0.161
479	0.161
479	0.162
480	0.163
480	0.163
481	0.164
481	0.164
482	0.165
482	0.166
482	0.167
483	0.168
483	0.17
484	0.171
484	0.172
485	0.173
485	0.173
486	0.174
486	0.175
487	0.175
487	0.176
487	0.177
488	0.177
488	0.177
489	0.177
489	0.178
490	0.178
490	0.179
491	0.18
491	0.181
492	0.182
492	0.183
492	0.183
493	0.184
493	0.185
494	0.187
494	0.188
495	0.189
495	0.19
496	0.191
496	0.192
496	0.193
497	0.194
497	0.196
498	0.197
498	0.198
499	0.199
499	0.2
500	0.202
500	0.203
501	0.205
501	0.206
501	0.207
502	0.209
502	0.21
503	0.212
503	0.213
504	0.214
504	0.215
505	0.216
505	0.217
506	0.218
506	0.219
506	0.22
507	0.221
507	0.222
508	0.224
508	0.225
509	0.226
509	0.227
510	0.228
510	0.229
511	0.23
511	0.231
511	0.232
512	0.233
512	0.234
513	0.234
513	0.235
514	0.236
514	0.236
515	0.237
515	0.237
515	0.237
516	0.238
516	0.239
517	0.239
517	0.239
518	0.24
518	0.24
519	0.24
519	0.24
520	0.239
520	0.239
520	0.239
521	0.239
521	0.238
522	0.237
522	0.237
523	0.237
523	0.237
524	0.237
524	0.237
524	0.238
525	0.238
525	0.239
526	0.239
526	0.24
527	0.241
527	0.241
528	0.241
528	0.242
529	0.242
529	0.241
529	0.241
530	0.24
530	0.24
531	0.239
531	0.238
532	0.237
532	0.236
533	0.235
533	0.234
533	0.233
534	0.232
534	0.231
535	0.229
535	0.229
536	0.228
536	0.226
537	0.226
537	0.224
538	0.223
538	0.222
538	0.221
539	0.22
539	0.219
540	0.217
540	0.215
541	0.213
541	0.212
542	0.21
542	0.208
542	0.207
543	0.205
543	0.203
544	0.202
544	0.2
545	0.199
545	0.198
546	0.197
546	0.196
547	0.194
547	0.193
547	0.191
548	0.19
548	0.189
549	0.188
549	0.187
550	0.185
550	0.183
551	0.181
551	0.18
551	0.178
552	0.177
552	0.175
553	0.174
553	0.173
554	0.171
554	0.169
555	0.167
555	0.165
556	0.163
556	0.16
556	0.158
557	0.156
557	0.154
558	0.151
558	0.149
559	0.148
559	0.146
560	0.144
560	0.143
560	0.142
561	0.141
561	0.141
562	0.14
562	0.138
563	0.137
563	0.135
564	0.134
564	0.132
564	0.131
565	0.13
565	0.129
566	0.127
566	0.125
567	0.124
567	0.124
568	0.123
568	0.123
568	0.122
569	0.122
569	0.122
570	0.121
570	0.12
571	0.119
571	0.119
572	0.118
572	0.118
573	0.117
573	0.116
573	0.114
574	0.113
574	0.113
575	0.112
575	0.112
576	0.112
576	0.11
577	0.109
577	0.108
577	0.107
578	0.106
578	0.106
579	0.107
579	0.107
580	0.105
580	0.102
581	0.1
581	0.099
581	0.098
582	0.098
582	0.098
583	0.098
583	0.097
584	0.094
584	0.092
585	0.091
585	0.092
585	0.092
586	0.091
586	0.091
587	0.089
587	0.088
588	0.086
588	0.085
589	0.084
589	0.084
590	0.084
590	0.084
590	0.085
591	0.085
591	0.085
592	0.084
592	0.084
593	0.084
593	0.084
594	0.083
594	0.082
594	0.082
595	0.081
595	0.08
596	0.08
596	0.08
597	0.082
597	0.083
598	0.083
598	0.083
598	0.083
599	0.084
599	0.083
600	0.082
600	0.081
601	0.081
601	0.08
602	0.078
602	0.078
602	0.077
603	0.076
603	0.077
604	0.077
604	0.078
605	0.079
605	0.079
606	0.079
606	0.078
606	0.078
607	0.078
607	0.078
608	0.077
608	0.076
609	0.075
609	0.075
610	0.075
610	0.074
610	0.075
611	0.076
611	0.077
612	0.078
612	0.079
613	0.081
613	0.082
614	0.082
614	0.082
614	0.083
615	0.083
615	0.083
616	0.083
616	0.083
617	0.083
617	0.082
618	0.082
618	0.082
618	0.082
619	0.082
619	0.083
620	0.084
620	0.085
621	0.085
621	0.085
622	0.086
622	0.086
622	0.086
623	0.086
623	0.087
624	0.088
624	0.088
625	0.087
625	0.088
626	0.088
626	0.088
626	0.089
627	0.09
627	0.091
628	0.091
628	0.091
629	0.092
629	0.092
630	0.092
630	0.091
630	0.092
631	0.093
631	0.093
632	0.093
632	0.093
633	0.094
633	0.095
634	0.096
634	0.098
634	0.099
635	0.1
635	0.101
636	0.102
636	0.103
637	0.103
637	0.104
638	0.105
638	0.106
638	0.106
639	0.107
639	0.107
640	0.108
640	0.109
641	0.11
641	0.111
642	0.112
642	0.114
642	0.115
643	0.116
643	0.118
644	0.119
644	0.121
645	0.123
645	0.125
646	0.127
646	0.129
646	0.132
647	0.134
647	0.136
648	0.138
648	0.141
649	0.143
649	0.145
650	0.148
650	0.15
650	0.152
651	0.154
651	0.156
652	0.158
652	0.159
653	0.161
653	0.167
653	0.171
654	0.137
654	0.111
655	0.113
655	0.114
656	0.115
656	0.117
657	0.118
657	0.12
657	0.121
658	0.119
658	0.115
659	0.145
659	0.186
660	0.193
660	0.195
661	0.197
661	0.199
661	0.202
662	0.204
662	0.206
663	0.209
663	0.211
664	0.213
664	0.215
665	0.217
665	0.219
665	0.221
666	0.223
666	0.225
667	0.227
667	0.229
668	0.231
668	0.233
669	0.235
669	0.237
669	0.24
670	0.242
670	0.243
671	0.244
671	0.246
672	0.247
672	0.249
672	0.25
673	0.251
673	0.253
674	0.254
674	0.256
675	0.257
675	0.259
676	0.262
676	0.264
676	0.265
677	0.267
677	0.269
678	0.27
678	0.271
679	0.272
679	0.274
680	0.276
680	0.277
680	0.277
681	0.278
681	0.278
682	0.279
682	0.28
683	0.281
683	0.283
684	0.284
684	0.283
684	0.283
685	0.284
685	0.284
686	0.284
686	0.284
687	0.284
687	0.283
687	0.283
688	0.282
688	0.282
689	0.282
689	0.283
690	0.283
690	0.283
691	0.283
691	0.283
691	0.283
692	0.283
692	0.282
693	0.282
693	0.282
694	0.281
694	0.279
695	0.279
695	0.28
695	0.279
696	0.277
696	0.277
697	0.276
697	0.275
698	0.274
698	0.272
698	0.271
699	0.27
699	0.267
700	0.265
700	0.263
701	0.262
701	0.26
702	0.258
702	0.256
702	0.254
703	0.252
703	0.25
704	0.249
704	0.248
705	0.247
705	0.245
705	0.244
706	0.243
706	0.242
707	0.241
707	0.24
708	0.239
708	0.238
709	0.237
709	0.235
709	0.233
710	0.231
710	0.23
711	0.228
711	0.226
712	0.224
712	0.222
713	0.22
713	0.218
713	0.216
714	0.214
714	0.211
715	0.209
715	0.207
716	0.204
716	0.202
716	0.2
717	0.198
717	0.196
718	0.193
718	0.191
719	0.189
719	0.187
720	0.185
720	0.183
720	0.181
721	0.179
721	0.177
722	0.175
722	0.173
723	0.171
723	0.169
723	0.168
724	0.166
724	0.164
725	0.162
725	0.16
726	0.159
726	0.158
727	0.156
727	0.155
727	0.153
728	0.151
728	0.15
729	0.149
729	0.147
730	0.146
730	0.144
730	0.142
731	0.141
731	0.139
732	0.138
732	0.137
733	0.136
733	0.135
734	0.134
734	0.133
734	0.133
735	0.132
735	0.131
736	0.13
736	0.129
737	0.128
737	0.127
737	0.125
738	0.123
738	0.121
739	0.119
739	0.117
740	0.115
740	0.114
741	0.113
741	0.112
741	0.11
742	0.108
742	0.107
743	0.106
743	0.105
744	0.104
744	0.103
744	0.102
745	0.1
745	0.098
746	0.097
746	0.095
747	0.094
747	0.093
748	0.092
748	0.091
748	0.089
749	0.088
749	0.087
750	0.086
750	0.085
751	0.085
751	0.085
751	0.085
752	0.084
752	0.083
753	0.083
753	0.082
754	0.082
754	0.082
754	0.082
755	0.082
755	0.081
756	0.081
756	0.079
757	0.078
757	0.078
758	0.078
758	0.078
758	0.078
759	0.077
759	0.076
760	0.075
760	0.074
761	0.073
761	0.072
761	0.071
762	0.07
762	0.069
763	0.068
763	0.065
764	0.063
764	0.061
764	0.06
765	0.058
765	0.057
766	0.056
766	0.055
767	0.054
767	0.052
768	0.05
768	0.049
768	0.048
769	0.047
769	0.046
770	0.045
770	0.043
771	0.041
771	0.039
771	0.037
772	0.036
772	0.035
773	0.033
773	0.031
774	0.029
774	0.027
775	0.026
775	0.025
775	0.023
776	0.022
776	0.021
777	0.019
777	0.018
778	0.016
778	0.014
778	0.013
779	0.012
779	0.011
780	0.008
780	0.006
781	0.004
781	0.002
781	-0.001
782	-0.004
782	-0.008
783	-0.011
783	-0.015
784	-0.019
784	-0.023
784	-0.027
785	-0.031
785	-0.036
786	-0.04
786	-0.043
787	-0.046
787	-0.05
788	-0.055
788	-0.06
788	-0.066
789	-0.073
789	-0.079
790	-0.083
790	-0.089
791	-0.096
791	-0.102
791	-0.106
792	-0.103
792	-0.097
793	-0.094
793	-0.093
794	-0.093
794	-0.096
794	-0.1
795	-0.103
795	-0.103
796	-0.104
796	-0.106
797	-0.115
797	-0.126
797	-0.133
798	-0.138
798	-0.142
799	-0.142
799	-0.142
800	-0.141
800	-0.143
801	-0.145
801	-0.146
801	-0.146
802	-0.147
802	-0.148
803	-0.148
803	-0.148
804	-0.147
804	-0.142
804	-0.136
805	-0.132
805	-0.13
806	-0.128
806	-0.128
807	-0.127
807	-0.127
807	-0.128
808	-0.128
808	-0.129
809	-0.134
809	-0.14
810	-0.143
810	-0.146
810	-0.15
811	-0.153
811	-0.153
812	-0.149
812	-0.146
813	-0.146
813	-0.147
813	-0.147
814	-0.147
814	-0.145
815	-0.139
815	-0.133
816	-0.126
816	-0.12
817	-0.117
817	-0.112
817	-0.103
818	-0.092
818	-0.08
819	-0.068
819	-0.06
820	-0.052
820	-0.046
820	-0.039
821	-0.033
821	-0.027
822	-0.022
822	-0.017
823	-0.013
823	-0.01
823	-0.007
824	-0.004
824	-0
825	0.003
825	0.007
826	0.01
826	0.012
826	0.014
827	0.016
827	0.017
828	0.019
828	0.02
829	0.022
829	0.023
829	0.023
830	0.023
830	0.024
831	0.025
831	0.026
832	0.026
832	0.027
832	0.027
833	0.027
833	0.028
834	0.028
834	0.028
835	0.028
835	0.028
835	0.028
836	0.028
836	0.028
837	0.028
837	0.029
838	0.029
838	0.03
839	0.03
839	0.03
839	0.03
840	0.03
840	0.03
841	0.03
841	0.029
842	0.029
842	0.029
842	0.029
843	0.029
843	0.029
844	0.029
844	0.029
845	0.029
845	0.029
845	0.03
846	0.03
846	0.029
847	0.029
847	0.03
848	0.03
848	0.03
848	0.031
849	0.031
849	0.031
850	0.031
850	0.031
851	0.032
851	0.032
851	0.032
852	0.032
852	0.032
853	0.031
853	0.031
854	0.031
854	0.031
854	0.031
855	0.031
855	0.03
856	0.03
856	0.03
857	0.03
857	0.03
857	0.03
858	0.03
858	0.03
859	0.03
859	0.03
860	0.031
860	0.032
860	0.033
861	0.034
861	0.035
862	0.036
862	0.036
863	0.036
863	0.037
863	0.037
864	0.037
864	0.036
865	0.037
865	0.037
866	0.037
866	0.036
866	0.037
867	0.037
867	0.037
868	0.037
868	0.037
869	0.037
869	0.036
869	0.035
870	0.034
870	0.034
871	0.033
871	0.033
872	0.032
872	0.032
872	0.032
873	0.033
873	0.033
874	0.034
874	0.034
875	0.035
875	0.035
875	0.034
876	0.034
876	0.033
877	0.032
877	0.032
878	0.031
878	0.03
878	0.03
879	0.029
879	0.028
880	0.028
880	0.028
881	0.028
881	0.028
881	0.028
882	0.028
882	0.028
883	0.028
883	0.028
884	0.027
884	0.027
884	0.026
885	0.026
885	0.026
886	0.026
886	0.026
887	0.026
887	0.026
887	0.026
888	0.026
888	0.027
889	0.028
889	0.029
890	0.03
890	0.03
890	0.031
891	0.031
891	0.032
892	0.032
892	0.033
893	0.033
893	0.033
893	0.033
894	0.033
894	0.033
895	0.032
895	0.031
895	0.03
896	0.029
896	0.028
897	0.028
897	0.027
898	0.026
898	0.026
898	0.025
899	0.024
899	0.024
900	0.024
900	0.024
901	0.024
901	0.024
901	0.024
902	0.024
902	0.024
903	0.024
903	0.025
904	0.025
904	0.026
904	0.027
905	0.028
905	0.029
906	0.029
906	0.03
907	0.03
907	0.031
907	0.031
908	0.032
908	0.033
909	0.033
909	0.034
910	0.035
910	0.035
910	0.035
911	0.035
911	0.036
912	0.036
912	0.035
913	0.035
913	0.035
913	0.034
914	0.033
914	0.033
915	0.032
915	0.031
916	0.03
916	0.029
916	0.027
917	0.026
917	0.024
918	0.022
918	0.021
918	0.019
919	0.018
919	0.017
920	0.016
920	0.015
921	0.015
921	0.015
921	0.016
922	0.016
922	0.017
923	0.017
923	0.018
924	0.019
924	0.019
924	0.02
925	0.02
925	0.021
926	0.022
926	0.022
927	0.022
927	0.023
927	0.023
928	0.023
928	0.022
929	0.022
929	0.021
930	0.021
930	0.02
930	0.019
931	0.019
931	0.019
932	0.018
932	0.018
933	0.018
933	0.017
933	0.017
934	0.017
934	0.017
935	0.016
935	0.016
935	0.015
936	0.015
936	0.014
937	0.014
937	0.013
938	0.013
938	0.013
938	0.013
939	0.013
939	0.014
940	0.014
940	0.015
941	0.016
941	0.017
941	0.018
942	0.019
942	0.02
943	0.021
943	0.022
944	0.022
944	0.023
944	0.023
945	0.024
945	0.024
946	0.025
946	0.025
946	0.025
947	0.026
947	0.026
948	0.027
948	0.027
949	0.027
949	0.027
949	0.027
950	0.027
950	0.027
951	0.027
951	0.026
952	0.026
952	0.025
952	0.025
953	0.024
953	0.024
954	0.024
954	0.023
955	0.024
955	0.024
955	0.024
956	0.024
956	0.024
957	0.024
957	0.024
957	0.024
958	0.024
958	0.025
959	0.025
959	0.025
960	0.025
960	0.025
960	0.025
961	0.025
961	0.026
962	0.026
962	0.027
963	0.027
963	0.028
963	0.028
964	0.028
964	0.028
965	0.028
965	0.029
966	0.029
966	0.029
966	0.028
967	0.028
967	0.027
968	0.026
968	0.025
968	0.025
969	0.024
969	0.023
970	0.022
970	0.021
971	0.021
971	0.02
971	0.02
972	0.02
972	0.02
973	0.02
973	0.021
974	0.021
974	0.022
974	0.022
975	0.023
975	0.024
976	0.025
976	0.026
976	0.027
977	0.027
977	0.027
978	0.028
978	0.028
979	0.028
979	0.028
979	0.027
980	0.026
980	0.025
981	0.024
981	0.023
982	0.022
982	0.022
982	0.02
983	0.019
983	0.018
984	0.017
984	0.016
984	0.016
985	0.015
985	0.014
986	0.013
986	0.012
987	0.012
987	0.011
987	0.011
988	0.011
988	0.011
989	0.011
989	0.011
990	0.012
990	0.013
990	0.014
991	0.015
991	0.016
992	0.018
992	0.019
992	0.02
993	0.021
993	0.021
994	0.022
994	0.022
995	0.022
995	0.022
995	0.021
996	0.021
996	0.02
997	0.019
997	0.018
997	0.018
998	0.018
998	0.018
999	0.018
999	0.018
1000	0.018
1000	0.019
1000	0.02
1001	0.02
1001	0.021
1002	0.022
1002	0.023
1003	0.023
1003	0.023
1003	0.023
1004	0.023
1004	0.023
1005	0.023
1005	0.023
1005	0.023
1006	0.022
1006	0.022
1007	0.022
1007	0.022
1008	0.022
1008	0.021
1008	0.021
1009	0.021
1009	0.021
1010	0.021
1010	0.021
1010	0.021
1011	0.021
1011	0.021
1012	0.02
1012	0.02
1013	0.019
1013	0.019
1013	0.018
1014	0.017
1014	0.016
1015	0.016
1015	0.015
1016	0.014
1016	0.013
1016	0.012
1017	0.012
1017	0.011
1018	0.01
1018	0.01
1018	0.009
1019	0.009
1019	0.008
1020	0.008
1020	0.008
1021	0.008
1021	0.008
1021	0.008
1022	0.009
1022	0.009
1023	0.01
1023	0.01
1023	0.01
1024	0.01
1024	0.01
1025	0.01
1025	0.01
1026	0.01
1026	0.009
1026	0.009
1027	0.008
1027	0.008
1028	0.008
1028	0.007
1028	0.007
1029	0.006
1029	0.006
1030	0.005
1030	0.005
1031	0.005
1031	0.005
1031	0.005
1032	0.005
1032	0.005
1033	0.005
1033	0.005
1033	0.005
1034	0.004
1034	0.004
1035	0.004
1035	0.003
1036	0.003
1036	0.003
1036	0.003
1037	0.003
1037	0.003
1038	0.003
1038	0.003
1039	0.004
1039	0.005
1039	0.006
1040	0.006
1040	0.008
1041	0.009
1041	0.01
1041	0.011
1042	0.011
1042	0.012
1043	0.013
1043	0.013
1044	0.014
1044	0.014
1044	0.015
1045	0.015
1045	0.015
1046	0.014
1046	0.014
1046	0.014
1047	0.013
1047	0.014
1048	0.013
1048	0.013
1049	0.013
1049	0.012
1049	0.011
1050	0.01
1050	0.01
1051	0.009
1051	0.009
1051	0.008
1052	0.007
1052	0.006
1053	0.005
1053	0.004
1053	0.004
1054	0.003
1054	0.003
1055	0.003
1055	0.002
1056	0.001
1056	0
1056	-0.001
1057	-0.002
1057	-0.002
1058	-0.003
1058	-0.003
1058	-0.004
1059	-0.004
1059	-0.004
1060	-0.005
1060	-0.004
1061	-0.004
1061	-0.003
1061	-0.003
1062	-0.003
1062	-0.003
1063	-0.003
1063	-0.003
1063	-0.003
1064	-0.002
1064	-0.002
1065	-0.002
1065	-0.002
1066	-0.002
1066	-0.002
1066	-0.001
1067	-0.001
1067	-0.001
1068	-0.001
1068	-0.001
1068	-0.001
1069	-0.002
1069	-0.003
1070	-0.003
1070	-0.004
1071	-0.005
1071	-0.006
1071	-0.007
1072	-0.008
1072	-0.009
1073	-0.01
1073	-0.011
1073	-0.012
1074	-0.012
1074	-0.012
1075	-0.013
1075	-0.015
1076	-0.016
1076	-0.016
1076	-0.017
1077	-0.017
1077	-0.017
1078	-0.017
1078	-0.017
1078	-0.017
1079	-0.017
1079	-0.016
1080	-0.016
1080	-0.015
1080	-0.015
1081	-0.014
1081	-0.013
1082	-0.013
1082	-0.013
1083	-0.013
1083	-0.013
1083	-0.012
1084	-0.013
1084	-0.012
1085	-0.012
1085	-0.012
1085	-0.011
1086	-0.011
1086	-0.012
1087	-0.011
1087	-0.011
1088	-0.011
1088	-0.011
1088	-0.011
1089	-0.012
1089	-0.013
1090	-0.014
1090	-0.014
1090	-0.015
1091	-0.016
1091	-0.015
1092	-0.016
1092	-0.015
1092	-0.015
1093	-0.015
1093	-0.015
1094	-0.014
1094	-0.015
1095	-0.015
1095	-0.015
1095	-0.014
1096	-0.014
1096	-0.013
1097	-0.012
1097	-0.012
1097	-0.011
1098	-0.01
1098	-0.009
1099	-0.007
1099	-0.005
1100	-0.003
1100	-0.003
1100	-0.002
1101	-0.002
1101	-0.001
1102	-0
1102	0.001
1102	0.002
1103	0.003
1103	0.004
1104	0.006
1104	0.008
1104	0.012
1105	0.014
1105	0.016
1106	0.017
1106	0.021
1107	0.022
1107	0.026
1107	0.032
1108	0.052
1108	0.079
1109	0.112
1109	0.162
1109	0.197
1110	0.26
1110	0.37
1111	0.668
1111	-0
