Data from 17c-2a_Absorbance__1200__01201.txt Node

Date: Fri Jan 26 10:27:30 CET 2024
User: Marek
Spectrometer: MAYP115816
Trigger mode: 0
Integration Time (sec): 2.000000E-1
Scans to average: 10
Electric dark correction enabled: true
Nonlinearity correction enabled: true
Boxcar width: 5
XAxis mode: Wavelengths
Number of Pixels in Spectrum: 2068
>>>>>Begin Spectral Data<<<<<
199	-1.387
199	-1.253
200	-1.108
200	-1.001
201	-0.933
201	-0.89
202	-0.829
202	-0.782
203	-0.743
203	-0.71
204	-0.685
204	-0.663
205	-0.643
205	-0.634
205	-0.632
206	-0.627
206	-0.625
207	-0.621
207	-0.621
208	-0.621
208	-0.619
209	-0.616
209	-0.613
210	-0.614
210	-0.615
211	-0.616
211	-0.617
212	-0.618
212	-0.617
213	-0.616
213	-0.612
213	-0.612
214	-0.61
214	-0.608
215	-0.604
215	-0.602
216	-0.599
216	-0.599
217	-0.595
217	-0.593
218	-0.589
218	-0.587
219	-0.583
219	-0.583
220	-0.584
220	-0.585
221	-0.581
221	-0.581
221	-0.576
222	-0.571
222	-0.569
223	-0.566
223	-0.563
224	-0.558
224	-0.55
225	-0.543
225	-0.536
226	-0.528
226	-0.516
227	-0.507
227	-0.497
228	-0.482
228	-0.467
229	-0.448
229	-0.427
229	-0.404
230	-0.378
230	-0.35
231	-0.321
231	-0.289
232	-0.257
232	-0.223
233	-0.187
233	-0.151
234	-0.117
234	-0.083
235	-0.05
235	-0.019
236	0.011
236	0.039
236	0.065
237	0.089
237	0.111
238	0.132
238	0.15
239	0.167
239	0.182
240	0.195
240	0.207
241	0.218
241	0.228
242	0.237
242	0.246
243	0.254
243	0.26
243	0.267
244	0.272
244	0.278
245	0.282
245	0.287
246	0.291
246	0.296
247	0.299
247	0.302
248	0.306
248	0.309
249	0.312
249	0.315
250	0.317
250	0.32
250	0.323
251	0.326
251	0.328
252	0.33
252	0.333
253	0.335
253	0.336
254	0.338
254	0.34
255	0.341
255	0.343
256	0.344
256	0.345
257	0.346
257	0.347
258	0.348
258	0.348
258	0.349
259	0.35
259	0.35
260	0.35
260	0.35
261	0.35
261	0.351
262	0.351
262	0.35
263	0.351
263	0.35
264	0.35
264	0.349
265	0.349
265	0.348
265	0.348
266	0.347
266	0.345
267	0.344
267	0.343
268	0.342
268	0.34
269	0.339
269	0.337
270	0.335
270	0.334
271	0.331
271	0.33
272	0.328
272	0.326
272	0.324
273	0.322
273	0.32
274	0.318
274	0.316
275	0.314
275	0.312
276	0.311
276	0.308
277	0.306
277	0.304
278	0.302
278	0.299
278	0.297
279	0.295
279	0.292
280	0.29
280	0.288
281	0.286
281	0.284
282	0.282
282	0.28
283	0.278
283	0.276
284	0.275
284	0.273
285	0.271
285	0.269
285	0.267
286	0.266
286	0.264
287	0.262
287	0.26
288	0.259
288	0.257
289	0.255
289	0.254
290	0.252
290	0.251
291	0.249
291	0.248
292	0.247
292	0.246
292	0.244
293	0.243
293	0.242
294	0.241
294	0.24
295	0.239
295	0.238
296	0.237
296	0.236
297	0.235
297	0.235
298	0.234
298	0.233
298	0.233
299	0.232
299	0.231
300	0.231
300	0.23
301	0.229
301	0.229
302	0.228
302	0.227
303	0.227
303	0.226
304	0.226
304	0.225
305	0.224
305	0.223
305	0.223
306	0.222
306	0.222
307	0.221
307	0.22
308	0.219
308	0.219
309	0.218
309	0.218
310	0.217
310	0.217
311	0.216
311	0.216
311	0.215
312	0.215
312	0.214
313	0.214
313	0.213
314	0.213
314	0.212
315	0.211
315	0.211
316	0.21
316	0.21
317	0.209
317	0.209
318	0.208
318	0.208
318	0.207
319	0.207
319	0.206
320	0.205
320	0.205
321	0.204
321	0.203
322	0.203
322	0.202
323	0.201
323	0.201
324	0.2
324	0.2
324	0.199
325	0.199
325	0.198
326	0.198
326	0.197
327	0.197
327	0.196
328	0.196
328	0.195
329	0.195
329	0.194
330	0.194
330	0.193
330	0.193
331	0.192
331	0.192
332	0.191
332	0.191
333	0.191
333	0.19
334	0.19
334	0.189
335	0.189
335	0.188
336	0.188
336	0.188
336	0.187
337	0.186
337	0.186
338	0.186
338	0.185
339	0.185
339	0.184
340	0.184
340	0.184
341	0.183
341	0.183
342	0.183
342	0.182
342	0.182
343	0.182
343	0.181
344	0.181
344	0.181
345	0.18
345	0.18
346	0.18
346	0.179
347	0.179
347	0.179
348	0.178
348	0.178
348	0.178
349	0.177
349	0.177
350	0.177
350	0.177
351	0.177
351	0.176
352	0.176
352	0.176
353	0.176
353	0.176
354	0.176
354	0.175
354	0.175
355	0.175
355	0.174
356	0.174
356	0.174
357	0.173
357	0.173
358	0.173
358	0.173
359	0.173
359	0.173
360	0.173
360	0.173
360	0.173
361	0.173
361	0.173
362	0.173
362	0.173
363	0.173
363	0.173
364	0.173
364	0.173
365	0.173
365	0.173
366	0.173
366	0.173
366	0.173
367	0.173
367	0.173
368	0.172
368	0.172
369	0.172
369	0.172
370	0.172
370	0.171
371	0.171
371	0.171
372	0.171
372	0.17
372	0.171
373	0.17
373	0.17
374	0.171
374	0.171
375	0.171
375	0.171
376	0.171
376	0.171
377	0.171
377	0.171
378	0.171
378	0.171
378	0.171
379	0.171
379	0.171
380	0.171
380	0.171
381	0.171
381	0.17
382	0.17
382	0.17
383	0.17
383	0.169
383	0.169
384	0.169
384	0.169
385	0.169
385	0.169
386	0.168
386	0.168
387	0.168
387	0.168
388	0.168
388	0.168
389	0.168
389	0.168
389	0.168
390	0.168
390	0.168
391	0.168
391	0.168
392	0.168
392	0.168
393	0.168
393	0.168
394	0.168
394	0.168
394	0.168
395	0.168
395	0.168
396	0.167
396	0.167
397	0.167
397	0.167
398	0.166
398	0.166
399	0.166
399	0.166
400	0.166
400	0.166
400	0.165
401	0.165
401	0.165
402	0.165
402	0.164
403	0.164
403	0.164
404	0.164
404	0.164
405	0.164
405	0.164
405	0.164
406	0.164
406	0.164
407	0.164
407	0.164
408	0.164
408	0.164
409	0.164
409	0.164
410	0.164
410	0.164
411	0.163
411	0.163
411	0.163
412	0.163
412	0.163
413	0.163
413	0.163
414	0.163
414	0.162
415	0.162
415	0.162
416	0.161
416	0.161
416	0.161
417	0.161
417	0.161
418	0.161
418	0.161
419	0.161
419	0.162
420	0.162
420	0.162
421	0.162
421	0.162
421	0.162
422	0.163
422	0.163
423	0.163
423	0.162
424	0.162
424	0.162
425	0.162
425	0.162
426	0.162
426	0.162
427	0.162
427	0.162
427	0.162
428	0.162
428	0.162
429	0.162
429	0.162
430	0.162
430	0.162
431	0.162
431	0.162
432	0.161
432	0.161
432	0.161
433	0.161
433	0.161
434	0.161
434	0.161
435	0.161
435	0.161
436	0.161
436	0.161
437	0.161
437	0.161
437	0.161
438	0.161
438	0.161
439	0.161
439	0.16
440	0.16
440	0.159
441	0.16
441	0.159
442	0.16
442	0.16
442	0.16
443	0.16
443	0.16
444	0.16
444	0.16
445	0.16
445	0.16
446	0.16
446	0.16
447	0.16
447	0.16
447	0.161
448	0.161
448	0.161
449	0.161
449	0.161
450	0.161
450	0.161
451	0.161
451	0.161
452	0.161
452	0.161
452	0.161
453	0.161
453	0.16
454	0.16
454	0.16
455	0.16
455	0.161
456	0.161
456	0.16
457	0.16
457	0.16
458	0.16
458	0.161
458	0.161
459	0.162
459	0.161
460	0.161
460	0.161
461	0.161
461	0.162
462	0.162
462	0.162
463	0.163
463	0.163
463	0.163
464	0.163
464	0.164
465	0.164
465	0.164
466	0.164
466	0.164
467	0.165
467	0.164
467	0.164
468	0.164
468	0.163
469	0.163
469	0.163
470	0.163
470	0.163
471	0.163
471	0.163
472	0.163
472	0.164
472	0.164
473	0.165
473	0.166
474	0.166
474	0.166
475	0.167
475	0.168
476	0.168
476	0.169
477	0.169
477	0.169
477	0.17
478	0.17
478	0.171
479	0.171
479	0.172
480	0.172
480	0.173
481	0.173
481	0.174
482	0.175
482	0.176
482	0.177
483	0.178
483	0.18
484	0.181
484	0.182
485	0.183
485	0.184
486	0.185
486	0.186
487	0.186
487	0.187
487	0.188
488	0.188
488	0.188
489	0.188
489	0.189
490	0.189
490	0.19
491	0.191
491	0.191
492	0.192
492	0.193
492	0.194
493	0.195
493	0.196
494	0.197
494	0.199
495	0.2
495	0.201
496	0.202
496	0.204
496	0.205
497	0.206
497	0.208
498	0.209
498	0.21
499	0.211
499	0.212
500	0.214
500	0.215
501	0.217
501	0.218
501	0.22
502	0.221
502	0.222
503	0.224
503	0.226
504	0.227
504	0.228
505	0.229
505	0.23
506	0.231
506	0.232
506	0.233
507	0.235
507	0.236
508	0.237
508	0.238
509	0.239
509	0.24
510	0.242
510	0.243
511	0.244
511	0.245
511	0.246
512	0.247
512	0.248
513	0.248
513	0.249
514	0.249
514	0.25
515	0.25
515	0.25
515	0.25
516	0.251
516	0.252
517	0.253
517	0.253
518	0.254
518	0.254
519	0.254
519	0.254
520	0.254
520	0.254
520	0.254
521	0.253
521	0.252
522	0.251
522	0.251
523	0.25
523	0.251
524	0.251
524	0.251
524	0.251
525	0.252
525	0.252
526	0.253
526	0.253
527	0.254
527	0.254
528	0.254
528	0.255
529	0.255
529	0.254
529	0.254
530	0.254
530	0.253
531	0.253
531	0.252
532	0.251
532	0.25
533	0.249
533	0.248
533	0.247
534	0.245
534	0.244
535	0.243
535	0.242
536	0.241
536	0.24
537	0.239
537	0.238
538	0.236
538	0.235
538	0.234
539	0.233
539	0.231
540	0.23
540	0.228
541	0.226
541	0.225
542	0.223
542	0.221
542	0.219
543	0.218
543	0.216
544	0.214
544	0.212
545	0.211
545	0.21
546	0.209
546	0.207
547	0.206
547	0.204
547	0.202
548	0.201
548	0.2
549	0.199
549	0.197
550	0.196
550	0.194
551	0.191
551	0.19
551	0.188
552	0.186
552	0.185
553	0.183
553	0.182
554	0.18
554	0.178
555	0.176
555	0.174
556	0.172
556	0.169
556	0.167
557	0.165
557	0.163
558	0.16
558	0.158
559	0.156
559	0.154
560	0.153
560	0.151
560	0.15
561	0.149
561	0.148
562	0.147
562	0.146
563	0.144
563	0.143
564	0.141
564	0.14
564	0.138
565	0.137
565	0.135
566	0.133
566	0.132
567	0.131
567	0.13
568	0.13
568	0.129
568	0.128
569	0.128
569	0.128
570	0.127
570	0.126
571	0.126
571	0.126
572	0.125
572	0.124
573	0.123
573	0.122
573	0.121
574	0.12
574	0.119
575	0.118
575	0.118
576	0.118
576	0.116
577	0.115
577	0.114
577	0.113
578	0.112
578	0.112
579	0.112
579	0.112
580	0.11
580	0.108
581	0.105
581	0.104
581	0.104
582	0.103
582	0.103
583	0.103
583	0.102
584	0.1
584	0.097
585	0.097
585	0.097
585	0.097
586	0.096
586	0.096
587	0.094
587	0.092
588	0.09
588	0.089
589	0.089
589	0.089
590	0.088
590	0.088
590	0.089
591	0.089
591	0.089
592	0.089
592	0.088
593	0.088
593	0.088
594	0.088
594	0.087
594	0.086
595	0.086
595	0.085
596	0.084
596	0.085
597	0.087
597	0.087
598	0.087
598	0.087
598	0.087
599	0.087
599	0.087
600	0.086
600	0.085
601	0.085
601	0.084
602	0.082
602	0.081
602	0.08
603	0.08
603	0.08
604	0.081
604	0.081
605	0.082
605	0.083
606	0.083
606	0.082
606	0.082
607	0.081
607	0.081
608	0.081
608	0.08
609	0.079
609	0.08
610	0.079
610	0.078
610	0.079
611	0.08
611	0.081
612	0.082
612	0.084
613	0.085
613	0.086
614	0.086
614	0.086
614	0.087
615	0.087
615	0.087
616	0.087
616	0.087
617	0.087
617	0.086
618	0.086
618	0.086
618	0.086
619	0.086
619	0.087
620	0.088
620	0.088
621	0.089
621	0.089
622	0.089
622	0.09
622	0.09
623	0.09
623	0.091
624	0.091
624	0.091
625	0.091
625	0.092
626	0.092
626	0.092
626	0.093
627	0.094
627	0.095
628	0.095
628	0.096
629	0.096
629	0.096
630	0.096
630	0.096
630	0.096
631	0.097
631	0.097
632	0.097
632	0.098
633	0.098
633	0.099
634	0.101
634	0.102
634	0.104
635	0.105
635	0.106
636	0.106
636	0.107
637	0.108
637	0.109
638	0.11
638	0.111
638	0.112
639	0.112
639	0.112
640	0.113
640	0.114
641	0.115
641	0.116
642	0.118
642	0.119
642	0.121
643	0.122
643	0.124
644	0.125
644	0.127
645	0.129
645	0.131
646	0.133
646	0.135
646	0.138
647	0.141
647	0.143
648	0.145
648	0.147
649	0.149
649	0.152
650	0.154
650	0.157
650	0.159
651	0.161
651	0.163
652	0.165
652	0.166
653	0.168
653	0.175
653	0.179
654	0.143
654	0.116
655	0.118
655	0.119
656	0.121
656	0.122
657	0.124
657	0.125
657	0.127
658	0.125
658	0.12
659	0.151
659	0.195
660	0.202
660	0.204
661	0.206
661	0.209
661	0.211
662	0.213
662	0.216
663	0.219
663	0.221
664	0.223
664	0.225
665	0.227
665	0.23
665	0.232
666	0.234
666	0.236
667	0.238
667	0.24
668	0.243
668	0.245
669	0.247
669	0.249
669	0.252
670	0.254
670	0.255
671	0.256
671	0.258
672	0.259
672	0.261
672	0.262
673	0.263
673	0.265
674	0.267
674	0.268
675	0.27
675	0.272
676	0.274
676	0.276
676	0.278
677	0.28
677	0.282
678	0.283
678	0.284
679	0.285
679	0.287
680	0.288
680	0.289
680	0.29
681	0.29
681	0.291
682	0.292
682	0.293
683	0.294
683	0.296
684	0.297
684	0.297
684	0.297
685	0.297
685	0.298
686	0.298
686	0.298
687	0.297
687	0.297
687	0.296
688	0.296
688	0.296
689	0.296
689	0.297
690	0.297
690	0.297
691	0.297
691	0.297
691	0.297
692	0.296
692	0.296
693	0.296
693	0.296
694	0.294
694	0.293
695	0.293
695	0.293
695	0.292
696	0.291
696	0.29
697	0.289
697	0.288
698	0.287
698	0.285
698	0.284
699	0.283
699	0.28
700	0.278
700	0.276
701	0.274
701	0.272
702	0.27
702	0.268
702	0.266
703	0.264
703	0.262
704	0.26
704	0.259
705	0.258
705	0.257
705	0.256
706	0.254
706	0.254
707	0.253
707	0.251
708	0.25
708	0.249
709	0.248
709	0.246
709	0.244
710	0.242
710	0.24
711	0.238
711	0.236
712	0.234
712	0.232
713	0.23
713	0.228
713	0.226
714	0.223
714	0.221
715	0.219
715	0.216
716	0.214
716	0.212
716	0.209
717	0.207
717	0.205
718	0.202
718	0.2
719	0.198
719	0.196
720	0.194
720	0.192
720	0.19
721	0.188
721	0.186
722	0.184
722	0.181
723	0.179
723	0.178
723	0.176
724	0.174
724	0.172
725	0.17
725	0.169
726	0.167
726	0.165
727	0.164
727	0.163
727	0.161
728	0.159
728	0.158
729	0.157
729	0.155
730	0.153
730	0.151
730	0.15
731	0.148
731	0.146
732	0.145
732	0.144
733	0.142
733	0.141
734	0.14
734	0.139
734	0.139
735	0.138
735	0.137
736	0.136
736	0.135
737	0.134
737	0.133
737	0.131
738	0.129
738	0.126
739	0.124
739	0.123
740	0.12
740	0.119
741	0.118
741	0.116
741	0.115
742	0.112
742	0.111
743	0.11
743	0.109
744	0.108
744	0.107
744	0.106
745	0.104
745	0.102
746	0.101
746	0.099
747	0.098
747	0.097
748	0.096
748	0.094
748	0.093
749	0.091
749	0.091
750	0.09
750	0.089
751	0.088
751	0.088
751	0.088
752	0.087
752	0.087
753	0.086
753	0.086
754	0.086
754	0.085
754	0.085
755	0.085
755	0.085
756	0.084
756	0.082
757	0.082
757	0.081
758	0.081
758	0.08
758	0.08
759	0.08
759	0.079
760	0.077
760	0.076
761	0.075
761	0.074
761	0.073
762	0.072
762	0.071
763	0.07
763	0.067
764	0.065
764	0.063
764	0.062
765	0.06
765	0.058
766	0.057
766	0.057
767	0.056
767	0.054
768	0.052
768	0.05
768	0.049
769	0.049
769	0.048
770	0.046
770	0.045
771	0.043
771	0.041
771	0.039
772	0.037
772	0.036
773	0.034
773	0.032
774	0.03
774	0.028
775	0.027
775	0.025
775	0.024
776	0.022
776	0.021
777	0.019
777	0.018
778	0.016
778	0.014
778	0.012
779	0.011
779	0.01
780	0.008
780	0.006
781	0.003
781	0.001
781	-0.002
782	-0.006
782	-0.01
783	-0.013
783	-0.017
784	-0.021
784	-0.025
784	-0.029
785	-0.034
785	-0.039
786	-0.043
786	-0.047
787	-0.05
787	-0.054
788	-0.059
788	-0.065
788	-0.071
789	-0.078
789	-0.084
790	-0.089
790	-0.094
791	-0.1
791	-0.105
791	-0.109
792	-0.106
792	-0.099
793	-0.096
793	-0.094
794	-0.094
794	-0.096
794	-0.1
795	-0.103
795	-0.103
796	-0.104
796	-0.106
797	-0.115
797	-0.126
797	-0.133
798	-0.138
798	-0.141
799	-0.142
799	-0.141
800	-0.141
800	-0.142
801	-0.145
801	-0.146
801	-0.146
802	-0.147
802	-0.148
803	-0.148
803	-0.148
804	-0.147
804	-0.142
804	-0.136
805	-0.132
805	-0.13
806	-0.128
806	-0.127
807	-0.127
807	-0.127
807	-0.127
808	-0.128
808	-0.129
809	-0.134
809	-0.14
810	-0.143
810	-0.146
810	-0.149
811	-0.152
811	-0.153
812	-0.149
812	-0.146
813	-0.146
813	-0.147
813	-0.148
814	-0.148
814	-0.146
815	-0.141
815	-0.136
816	-0.129
816	-0.124
817	-0.121
817	-0.116
817	-0.108
818	-0.097
818	-0.084
819	-0.073
819	-0.063
820	-0.056
820	-0.049
820	-0.042
821	-0.035
821	-0.029
822	-0.024
822	-0.018
823	-0.014
823	-0.011
823	-0.008
824	-0.004
824	-0.001
825	0.003
825	0.007
826	0.01
826	0.012
826	0.014
827	0.016
827	0.018
828	0.019
828	0.021
829	0.022
829	0.023
829	0.023
830	0.023
830	0.024
831	0.026
831	0.026
832	0.026
832	0.027
832	0.027
833	0.028
833	0.028
834	0.028
834	0.029
835	0.029
835	0.028
835	0.028
836	0.028
836	0.028
837	0.029
837	0.029
838	0.03
838	0.03
839	0.03
839	0.03
839	0.03
840	0.03
840	0.03
841	0.03
841	0.03
842	0.03
842	0.03
842	0.03
843	0.03
843	0.03
844	0.03
844	0.03
845	0.03
845	0.031
845	0.031
846	0.031
846	0.031
847	0.031
847	0.031
848	0.031
848	0.031
848	0.032
849	0.032
849	0.033
850	0.033
850	0.033
851	0.033
851	0.034
851	0.034
852	0.033
852	0.033
853	0.033
853	0.032
854	0.032
854	0.032
854	0.032
855	0.032
855	0.031
856	0.031
856	0.031
857	0.031
857	0.03
857	0.03
858	0.031
858	0.031
859	0.031
859	0.031
860	0.032
860	0.033
860	0.034
861	0.035
861	0.036
862	0.036
862	0.037
863	0.037
863	0.037
863	0.037
864	0.037
864	0.037
865	0.037
865	0.037
866	0.037
866	0.037
866	0.037
867	0.038
867	0.038
868	0.038
868	0.038
869	0.038
869	0.037
869	0.036
870	0.036
870	0.035
871	0.034
871	0.034
872	0.033
872	0.033
872	0.033
873	0.034
873	0.034
874	0.035
874	0.035
875	0.035
875	0.035
875	0.035
876	0.035
876	0.034
877	0.033
877	0.032
878	0.031
878	0.031
878	0.03
879	0.03
879	0.029
880	0.029
880	0.029
881	0.029
881	0.029
881	0.029
882	0.029
882	0.029
883	0.029
883	0.028
884	0.028
884	0.028
884	0.027
885	0.027
885	0.027
886	0.027
886	0.026
887	0.026
887	0.026
887	0.027
888	0.027
888	0.028
889	0.029
889	0.03
890	0.03
890	0.031
890	0.031
891	0.032
891	0.032
892	0.032
892	0.033
893	0.033
893	0.034
893	0.034
894	0.033
894	0.033
895	0.032
895	0.031
895	0.031
896	0.03
896	0.029
897	0.028
897	0.028
898	0.027
898	0.027
898	0.026
899	0.026
899	0.025
900	0.025
900	0.025
901	0.025
901	0.025
901	0.025
902	0.026
902	0.026
903	0.026
903	0.026
904	0.027
904	0.028
904	0.029
905	0.029
905	0.03
906	0.031
906	0.031
907	0.032
907	0.032
907	0.033
908	0.033
908	0.034
909	0.034
909	0.035
910	0.035
910	0.036
910	0.036
911	0.036
911	0.036
912	0.036
912	0.036
913	0.036
913	0.035
913	0.035
914	0.034
914	0.033
915	0.033
915	0.032
916	0.031
916	0.029
916	0.028
917	0.027
917	0.025
918	0.023
918	0.022
918	0.02
919	0.019
919	0.018
920	0.017
920	0.016
921	0.016
921	0.016
921	0.016
922	0.017
922	0.017
923	0.018
923	0.018
924	0.019
924	0.02
924	0.02
925	0.021
925	0.022
926	0.022
926	0.023
927	0.023
927	0.023
927	0.023
928	0.023
928	0.023
929	0.023
929	0.022
930	0.022
930	0.021
930	0.02
931	0.02
931	0.02
932	0.02
932	0.019
933	0.019
933	0.019
933	0.018
934	0.018
934	0.018
935	0.017
935	0.017
935	0.016
936	0.016
936	0.015
937	0.015
937	0.014
938	0.014
938	0.014
938	0.014
939	0.014
939	0.014
940	0.015
940	0.016
941	0.017
941	0.018
941	0.019
942	0.02
942	0.021
943	0.023
943	0.023
944	0.024
944	0.024
944	0.025
945	0.025
945	0.025
946	0.026
946	0.026
946	0.026
947	0.027
947	0.027
948	0.027
948	0.027
949	0.027
949	0.028
949	0.028
950	0.028
950	0.028
951	0.028
951	0.027
952	0.027
952	0.026
952	0.026
953	0.026
953	0.025
954	0.025
954	0.025
955	0.025
955	0.025
955	0.025
956	0.025
956	0.025
957	0.025
957	0.025
957	0.025
958	0.025
958	0.025
959	0.026
959	0.026
960	0.026
960	0.026
960	0.026
961	0.026
961	0.027
962	0.027
962	0.028
963	0.028
963	0.028
963	0.029
964	0.029
964	0.029
965	0.029
965	0.029
966	0.03
966	0.029
966	0.029
967	0.029
967	0.028
968	0.027
968	0.026
968	0.026
969	0.025
969	0.024
970	0.024
970	0.023
971	0.022
971	0.022
971	0.021
972	0.021
972	0.021
973	0.021
973	0.022
974	0.022
974	0.023
974	0.023
975	0.024
975	0.025
976	0.026
976	0.027
976	0.028
977	0.028
977	0.029
978	0.029
978	0.029
979	0.029
979	0.028
979	0.028
980	0.027
980	0.026
981	0.025
981	0.024
982	0.023
982	0.022
982	0.021
983	0.02
983	0.019
984	0.018
984	0.017
984	0.016
985	0.015
985	0.014
986	0.013
986	0.013
987	0.012
987	0.012
987	0.011
988	0.011
988	0.011
989	0.012
989	0.012
990	0.012
990	0.013
990	0.014
991	0.016
991	0.017
992	0.018
992	0.019
992	0.02
993	0.021
993	0.021
994	0.022
994	0.022
995	0.022
995	0.022
995	0.021
996	0.021
996	0.02
997	0.019
997	0.019
997	0.018
998	0.018
998	0.018
999	0.018
999	0.018
1000	0.019
1000	0.019
1000	0.02
1001	0.021
1001	0.021
1002	0.022
1002	0.023
1003	0.024
1003	0.024
1003	0.024
1004	0.024
1004	0.024
1005	0.024
1005	0.024
1005	0.024
1006	0.023
1006	0.023
1007	0.023
1007	0.023
1008	0.023
1008	0.022
1008	0.022
1009	0.022
1009	0.022
1010	0.022
1010	0.022
1010	0.022
1011	0.022
1011	0.022
1012	0.021
1012	0.02
1013	0.02
1013	0.019
1013	0.018
1014	0.017
1014	0.017
1015	0.016
1015	0.015
1016	0.014
1016	0.013
1016	0.012
1017	0.011
1017	0.01
1018	0.01
1018	0.009
1018	0.009
1019	0.009
1019	0.008
1020	0.008
1020	0.008
1021	0.008
1021	0.008
1021	0.008
1022	0.009
1022	0.009
1023	0.01
1023	0.01
1023	0.01
1024	0.011
1024	0.01
1025	0.01
1025	0.01
1026	0.01
1026	0.01
1026	0.009
1027	0.009
1027	0.008
1028	0.008
1028	0.007
1028	0.007
1029	0.007
1029	0.006
1030	0.006
1030	0.006
1031	0.006
1031	0.006
1031	0.006
1032	0.006
1032	0.006
1033	0.006
1033	0.006
1033	0.006
1034	0.005
1034	0.005
1035	0.005
1035	0.004
1036	0.004
1036	0.004
1036	0.004
1037	0.004
1037	0.004
1038	0.004
1038	0.005
1039	0.005
1039	0.006
1039	0.007
1040	0.007
1040	0.009
1041	0.01
1041	0.01
1041	0.011
1042	0.012
1042	0.013
1043	0.014
1043	0.014
1044	0.015
1044	0.015
1044	0.016
1045	0.016
1045	0.016
1046	0.015
1046	0.015
1046	0.015
1047	0.015
1047	0.015
1048	0.015
1048	0.014
1049	0.013
1049	0.012
1049	0.012
1050	0.011
1050	0.01
1051	0.01
1051	0.009
1051	0.009
1052	0.008
1052	0.007
1053	0.006
1053	0.006
1053	0.005
1054	0.005
1054	0.004
1055	0.003
1055	0.003
1056	0.002
1056	0.001
1056	-0
1057	-0.001
1057	-0.002
1058	-0.003
1058	-0.003
1058	-0.004
1059	-0.004
1059	-0.004
1060	-0.004
1060	-0.004
1061	-0.003
1061	-0.003
1061	-0.002
1062	-0.002
1062	-0.002
1063	-0.002
1063	-0.003
1063	-0.003
1064	-0.003
1064	-0.002
1065	-0.002
1065	-0.003
1066	-0.002
1066	-0.002
1066	-0.001
1067	-0.001
1067	-0.001
1068	-0
1068	-0.001
1068	-0.001
1069	-0.001
1069	-0.002
1070	-0.003
1070	-0.004
1071	-0.004
1071	-0.005
1071	-0.006
1072	-0.007
1072	-0.009
1073	-0.01
1073	-0.01
1073	-0.011
1074	-0.011
1074	-0.012
1075	-0.013
1075	-0.014
1076	-0.015
1076	-0.015
1076	-0.016
1077	-0.016
1077	-0.016
1078	-0.017
1078	-0.016
1078	-0.016
1079	-0.016
1079	-0.016
1080	-0.015
1080	-0.015
1080	-0.014
1081	-0.013
1081	-0.013
1082	-0.012
1082	-0.012
1083	-0.012
1083	-0.012
1083	-0.012
1084	-0.012
1084	-0.011
1085	-0.011
1085	-0.01
1085	-0.01
1086	-0.01
1086	-0.01
1087	-0.01
1087	-0.009
1088	-0.009
1088	-0.01
1088	-0.01
1089	-0.011
1089	-0.012
1090	-0.013
1090	-0.013
1090	-0.014
1091	-0.014
1091	-0.014
1092	-0.014
1092	-0.014
1092	-0.014
1093	-0.013
1093	-0.013
1094	-0.012
1094	-0.012
1095	-0.012
1095	-0.012
1095	-0.011
1096	-0.011
1096	-0.011
1097	-0.01
1097	-0.01
1097	-0.009
1098	-0.007
1098	-0.006
1099	-0.005
1099	-0.003
1100	-0.002
1100	-0.001
1100	-0
1101	0
1101	0.002
1102	0.004
1102	0.005
1102	0.006
1103	0.007
1103	0.009
1104	0.011
1104	0.013
1104	0.018
1105	0.02
1105	0.023
1106	0.024
1106	0.028
1107	0.029
1107	0.034
1107	0.04
1108	0.063
1108	0.092
1109	0.13
1109	0.185
1109	0.225
1110	0.293
1110	0.423
1111	0.816
1111	-0
