Data from 17c-2a_Absorbance__1060__01061.txt Node

Date: Fri Jan 26 10:22:50 CET 2024
User: Marek
Spectrometer: MAYP115816
Trigger mode: 0
Integration Time (sec): 2.000000E-1
Scans to average: 10
Electric dark correction enabled: true
Nonlinearity correction enabled: true
Boxcar width: 5
XAxis mode: Wavelengths
Number of Pixels in Spectrum: 2068
>>>>>Begin Spectral Data<<<<<
199	-1.358
199	-1.225
200	-1.081
200	-0.974
201	-0.906
201	-0.865
202	-0.804
202	-0.758
203	-0.72
203	-0.689
204	-0.665
204	-0.643
205	-0.622
205	-0.614
205	-0.612
206	-0.609
206	-0.607
207	-0.604
207	-0.603
208	-0.603
208	-0.6
209	-0.597
209	-0.595
210	-0.597
210	-0.597
211	-0.598
211	-0.599
212	-0.599
212	-0.598
213	-0.597
213	-0.594
213	-0.594
214	-0.593
214	-0.591
215	-0.587
215	-0.584
216	-0.581
216	-0.581
217	-0.578
217	-0.577
218	-0.573
218	-0.572
219	-0.569
219	-0.568
220	-0.567
220	-0.569
221	-0.567
221	-0.566
221	-0.561
222	-0.556
222	-0.553
223	-0.549
223	-0.545
224	-0.541
224	-0.533
225	-0.526
225	-0.519
226	-0.511
226	-0.501
227	-0.491
227	-0.482
228	-0.467
228	-0.451
229	-0.433
229	-0.412
229	-0.391
230	-0.366
230	-0.338
231	-0.31
231	-0.279
232	-0.248
232	-0.215
233	-0.18
233	-0.146
234	-0.113
234	-0.081
235	-0.049
235	-0.02
236	0.009
236	0.035
236	0.06
237	0.083
237	0.103
238	0.122
238	0.139
239	0.155
239	0.168
240	0.181
240	0.192
241	0.202
241	0.211
242	0.219
242	0.227
243	0.234
243	0.24
243	0.246
244	0.251
244	0.256
245	0.26
245	0.264
246	0.268
246	0.272
247	0.275
247	0.278
248	0.281
248	0.285
249	0.288
249	0.29
250	0.293
250	0.296
250	0.298
251	0.301
251	0.303
252	0.305
252	0.307
253	0.309
253	0.311
254	0.313
254	0.314
255	0.316
255	0.317
256	0.319
256	0.32
257	0.321
257	0.322
258	0.322
258	0.323
258	0.324
259	0.324
259	0.324
260	0.325
260	0.325
261	0.325
261	0.325
262	0.325
262	0.325
263	0.325
263	0.325
264	0.324
264	0.324
265	0.323
265	0.322
265	0.321
266	0.32
266	0.319
267	0.318
267	0.317
268	0.315
268	0.314
269	0.312
269	0.311
270	0.309
270	0.307
271	0.306
271	0.304
272	0.302
272	0.301
272	0.299
273	0.297
273	0.295
274	0.293
274	0.291
275	0.289
275	0.287
276	0.285
276	0.283
277	0.281
277	0.279
278	0.277
278	0.274
278	0.272
279	0.27
279	0.268
280	0.265
280	0.263
281	0.261
281	0.259
282	0.257
282	0.255
283	0.253
283	0.252
284	0.25
284	0.248
285	0.247
285	0.245
285	0.243
286	0.241
286	0.24
287	0.238
287	0.236
288	0.235
288	0.233
289	0.232
289	0.23
290	0.229
290	0.228
291	0.226
291	0.225
292	0.224
292	0.223
292	0.222
293	0.22
293	0.219
294	0.218
294	0.217
295	0.216
295	0.215
296	0.214
296	0.214
297	0.213
297	0.212
298	0.212
298	0.211
298	0.21
299	0.21
299	0.209
300	0.208
300	0.208
301	0.207
301	0.207
302	0.206
302	0.206
303	0.205
303	0.204
304	0.204
304	0.203
305	0.203
305	0.202
305	0.201
306	0.201
306	0.2
307	0.2
307	0.199
308	0.198
308	0.198
309	0.197
309	0.197
310	0.196
310	0.196
311	0.195
311	0.195
311	0.194
312	0.194
312	0.194
313	0.193
313	0.193
314	0.192
314	0.192
315	0.191
315	0.191
316	0.19
316	0.19
317	0.189
317	0.189
318	0.188
318	0.188
318	0.187
319	0.187
319	0.186
320	0.186
320	0.185
321	0.184
321	0.184
322	0.183
322	0.183
323	0.182
323	0.182
324	0.181
324	0.181
324	0.18
325	0.179
325	0.179
326	0.178
326	0.178
327	0.177
327	0.177
328	0.177
328	0.176
329	0.176
329	0.175
330	0.175
330	0.174
330	0.174
331	0.174
331	0.173
332	0.173
332	0.172
333	0.172
333	0.172
334	0.171
334	0.171
335	0.171
335	0.17
336	0.17
336	0.169
336	0.169
337	0.169
337	0.168
338	0.168
338	0.167
339	0.167
339	0.166
340	0.166
340	0.166
341	0.165
341	0.165
342	0.165
342	0.164
342	0.164
343	0.164
343	0.163
344	0.163
344	0.163
345	0.163
345	0.163
346	0.162
346	0.162
347	0.162
347	0.161
348	0.161
348	0.161
348	0.161
349	0.16
349	0.16
350	0.16
350	0.16
351	0.159
351	0.159
352	0.159
352	0.159
353	0.159
353	0.159
354	0.158
354	0.158
354	0.158
355	0.158
355	0.157
356	0.157
356	0.156
357	0.156
357	0.156
358	0.156
358	0.156
359	0.156
359	0.156
360	0.156
360	0.156
360	0.156
361	0.156
361	0.156
362	0.157
362	0.156
363	0.156
363	0.156
364	0.156
364	0.156
365	0.156
365	0.156
366	0.156
366	0.156
366	0.156
367	0.156
367	0.156
368	0.156
368	0.156
369	0.156
369	0.155
370	0.155
370	0.155
371	0.155
371	0.154
372	0.154
372	0.154
372	0.154
373	0.154
373	0.154
374	0.154
374	0.154
375	0.154
375	0.154
376	0.154
376	0.154
377	0.154
377	0.155
378	0.155
378	0.155
378	0.155
379	0.155
379	0.155
380	0.154
380	0.154
381	0.154
381	0.154
382	0.154
382	0.154
383	0.153
383	0.153
383	0.153
384	0.153
384	0.152
385	0.152
385	0.152
386	0.152
386	0.152
387	0.152
387	0.152
388	0.152
388	0.152
389	0.152
389	0.152
389	0.152
390	0.152
390	0.152
391	0.152
391	0.152
392	0.152
392	0.152
393	0.152
393	0.152
394	0.152
394	0.152
394	0.152
395	0.152
395	0.152
396	0.151
396	0.151
397	0.151
397	0.151
398	0.151
398	0.151
399	0.151
399	0.15
400	0.15
400	0.15
400	0.15
401	0.15
401	0.149
402	0.149
402	0.149
403	0.149
403	0.149
404	0.149
404	0.149
405	0.149
405	0.149
405	0.149
406	0.149
406	0.148
407	0.148
407	0.148
408	0.148
408	0.148
409	0.148
409	0.148
410	0.148
410	0.147
411	0.148
411	0.148
411	0.148
412	0.148
412	0.148
413	0.148
413	0.148
414	0.148
414	0.147
415	0.147
415	0.147
416	0.147
416	0.146
416	0.146
417	0.146
417	0.146
418	0.146
418	0.146
419	0.146
419	0.146
420	0.147
420	0.147
421	0.147
421	0.147
421	0.147
422	0.147
422	0.147
423	0.147
423	0.147
424	0.147
424	0.147
425	0.147
425	0.147
426	0.147
426	0.147
427	0.147
427	0.147
427	0.147
428	0.147
428	0.147
429	0.147
429	0.147
430	0.147
430	0.147
431	0.147
431	0.147
432	0.147
432	0.147
432	0.146
433	0.146
433	0.146
434	0.146
434	0.146
435	0.146
435	0.146
436	0.146
436	0.146
437	0.146
437	0.146
437	0.146
438	0.146
438	0.146
439	0.146
439	0.146
440	0.145
440	0.145
441	0.145
441	0.145
442	0.145
442	0.145
442	0.145
443	0.146
443	0.146
444	0.146
444	0.146
445	0.146
445	0.146
446	0.146
446	0.146
447	0.146
447	0.146
447	0.146
448	0.146
448	0.146
449	0.146
449	0.146
450	0.146
450	0.146
451	0.146
451	0.146
452	0.146
452	0.146
452	0.146
453	0.146
453	0.146
454	0.146
454	0.146
455	0.146
455	0.146
456	0.146
456	0.146
457	0.145
457	0.145
458	0.146
458	0.146
458	0.147
459	0.147
459	0.147
460	0.147
460	0.146
461	0.147
461	0.147
462	0.147
462	0.147
463	0.148
463	0.148
463	0.148
464	0.149
464	0.149
465	0.149
465	0.149
466	0.15
466	0.15
467	0.15
467	0.149
467	0.149
468	0.149
468	0.148
469	0.148
469	0.148
470	0.148
470	0.148
471	0.148
471	0.148
472	0.148
472	0.148
472	0.149
473	0.149
473	0.15
474	0.15
474	0.151
475	0.151
475	0.152
476	0.152
476	0.153
477	0.153
477	0.154
477	0.154
478	0.155
478	0.155
479	0.156
479	0.156
480	0.157
480	0.157
481	0.158
481	0.158
482	0.159
482	0.16
482	0.161
483	0.162
483	0.164
484	0.165
484	0.166
485	0.167
485	0.167
486	0.168
486	0.169
487	0.169
487	0.17
487	0.171
488	0.171
488	0.171
489	0.171
489	0.171
490	0.172
490	0.172
491	0.173
491	0.174
492	0.175
492	0.176
492	0.177
493	0.177
493	0.178
494	0.18
494	0.181
495	0.183
495	0.184
496	0.185
496	0.186
496	0.187
497	0.188
497	0.189
498	0.19
498	0.191
499	0.192
499	0.193
500	0.194
500	0.196
501	0.197
501	0.198
501	0.2
502	0.201
502	0.202
503	0.204
503	0.205
504	0.206
504	0.207
505	0.208
505	0.209
506	0.21
506	0.211
506	0.212
507	0.213
507	0.214
508	0.215
508	0.216
509	0.217
509	0.219
510	0.22
510	0.221
511	0.222
511	0.223
511	0.224
512	0.225
512	0.226
513	0.226
513	0.226
514	0.227
514	0.227
515	0.228
515	0.228
515	0.228
516	0.229
516	0.229
517	0.23
517	0.23
518	0.231
518	0.231
519	0.231
519	0.231
520	0.231
520	0.231
520	0.231
521	0.23
521	0.229
522	0.228
522	0.228
523	0.228
523	0.228
524	0.228
524	0.228
524	0.228
525	0.229
525	0.229
526	0.23
526	0.23
527	0.231
527	0.231
528	0.232
528	0.232
529	0.232
529	0.232
529	0.231
530	0.231
530	0.231
531	0.23
531	0.23
532	0.228
532	0.227
533	0.227
533	0.225
533	0.225
534	0.223
534	0.222
535	0.221
535	0.22
536	0.219
536	0.218
537	0.217
537	0.216
538	0.214
538	0.213
538	0.212
539	0.211
539	0.21
540	0.209
540	0.207
541	0.205
541	0.204
542	0.202
542	0.201
542	0.199
543	0.198
543	0.196
544	0.194
544	0.193
545	0.192
545	0.191
546	0.19
546	0.189
547	0.187
547	0.186
547	0.185
548	0.183
548	0.182
549	0.181
549	0.18
550	0.178
550	0.176
551	0.174
551	0.173
551	0.171
552	0.17
552	0.168
553	0.167
553	0.166
554	0.165
554	0.163
555	0.161
555	0.159
556	0.157
556	0.154
556	0.152
557	0.15
557	0.148
558	0.146
558	0.144
559	0.142
559	0.141
560	0.139
560	0.138
560	0.137
561	0.136
561	0.136
562	0.135
562	0.134
563	0.132
563	0.131
564	0.129
564	0.128
564	0.127
565	0.125
565	0.124
566	0.122
566	0.121
567	0.12
567	0.119
568	0.119
568	0.118
568	0.117
569	0.117
569	0.117
570	0.116
570	0.115
571	0.115
571	0.115
572	0.114
572	0.114
573	0.113
573	0.112
573	0.111
574	0.11
574	0.109
575	0.108
575	0.109
576	0.108
576	0.107
577	0.105
577	0.104
577	0.104
578	0.103
578	0.103
579	0.103
579	0.103
580	0.102
580	0.099
581	0.097
581	0.096
581	0.095
582	0.095
582	0.095
583	0.095
583	0.094
584	0.092
584	0.089
585	0.089
585	0.09
585	0.089
586	0.089
586	0.089
587	0.087
587	0.085
588	0.084
588	0.083
589	0.082
589	0.082
590	0.082
590	0.081
590	0.083
591	0.083
591	0.082
592	0.082
592	0.081
593	0.081
593	0.082
594	0.081
594	0.08
594	0.079
595	0.079
595	0.078
596	0.078
596	0.078
597	0.08
597	0.081
598	0.081
598	0.081
598	0.081
599	0.081
599	0.081
600	0.08
600	0.079
601	0.079
601	0.078
602	0.076
602	0.075
602	0.074
603	0.074
603	0.075
604	0.075
604	0.075
605	0.076
605	0.077
606	0.077
606	0.076
606	0.076
607	0.075
607	0.075
608	0.075
608	0.074
609	0.073
609	0.073
610	0.072
610	0.072
610	0.073
611	0.074
611	0.075
612	0.076
612	0.077
613	0.079
613	0.08
614	0.08
614	0.08
614	0.081
615	0.081
615	0.081
616	0.081
616	0.081
617	0.081
617	0.081
618	0.08
618	0.08
618	0.08
619	0.08
619	0.081
620	0.082
620	0.083
621	0.083
621	0.083
622	0.084
622	0.084
622	0.084
623	0.084
623	0.085
624	0.085
624	0.085
625	0.085
625	0.086
626	0.086
626	0.086
626	0.087
627	0.088
627	0.088
628	0.089
628	0.089
629	0.089
629	0.089
630	0.089
630	0.089
630	0.09
631	0.09
631	0.09
632	0.09
632	0.091
633	0.092
633	0.092
634	0.094
634	0.095
634	0.097
635	0.098
635	0.098
636	0.099
636	0.1
637	0.101
637	0.101
638	0.102
638	0.103
638	0.104
639	0.104
639	0.105
640	0.105
640	0.106
641	0.107
641	0.108
642	0.109
642	0.111
642	0.112
643	0.114
643	0.115
644	0.116
644	0.118
645	0.12
645	0.122
646	0.124
646	0.126
646	0.129
647	0.131
647	0.133
648	0.135
648	0.137
649	0.139
649	0.141
650	0.144
650	0.146
650	0.148
651	0.15
651	0.152
652	0.153
652	0.155
653	0.157
653	0.163
653	0.166
654	0.133
654	0.108
655	0.11
655	0.111
656	0.112
656	0.114
657	0.115
657	0.117
657	0.118
658	0.116
658	0.111
659	0.141
659	0.181
660	0.188
660	0.19
661	0.192
661	0.194
661	0.196
662	0.199
662	0.201
663	0.203
663	0.205
664	0.207
664	0.209
665	0.211
665	0.213
665	0.215
666	0.217
666	0.219
667	0.221
667	0.223
668	0.225
668	0.227
669	0.228
669	0.231
669	0.233
670	0.235
670	0.236
671	0.238
671	0.239
672	0.241
672	0.242
672	0.243
673	0.245
673	0.246
674	0.248
674	0.249
675	0.25
675	0.252
676	0.254
676	0.256
676	0.258
677	0.26
677	0.261
678	0.263
678	0.264
679	0.265
679	0.266
680	0.268
680	0.269
680	0.269
681	0.27
681	0.271
682	0.271
682	0.272
683	0.273
683	0.275
684	0.275
684	0.275
684	0.275
685	0.276
685	0.276
686	0.276
686	0.276
687	0.275
687	0.275
687	0.275
688	0.274
688	0.274
689	0.274
689	0.275
690	0.275
690	0.275
691	0.275
691	0.275
691	0.275
692	0.275
692	0.274
693	0.274
693	0.274
694	0.273
694	0.271
695	0.271
695	0.272
695	0.271
696	0.27
696	0.269
697	0.268
697	0.267
698	0.266
698	0.265
698	0.263
699	0.262
699	0.26
700	0.257
700	0.256
701	0.255
701	0.253
702	0.251
702	0.249
702	0.248
703	0.246
703	0.244
704	0.242
704	0.241
705	0.241
705	0.239
705	0.238
706	0.237
706	0.236
707	0.235
707	0.234
708	0.233
708	0.232
709	0.231
709	0.229
709	0.227
710	0.224
710	0.223
711	0.222
711	0.22
712	0.218
712	0.216
713	0.214
713	0.212
713	0.21
714	0.208
714	0.205
715	0.203
715	0.201
716	0.199
716	0.196
716	0.194
717	0.192
717	0.19
718	0.187
718	0.185
719	0.183
719	0.182
720	0.18
720	0.178
720	0.176
721	0.174
721	0.172
722	0.17
722	0.168
723	0.166
723	0.165
723	0.163
724	0.161
724	0.159
725	0.157
725	0.156
726	0.155
726	0.153
727	0.152
727	0.15
727	0.149
728	0.147
728	0.146
729	0.145
729	0.144
730	0.142
730	0.14
730	0.138
731	0.137
731	0.136
732	0.135
732	0.134
733	0.132
733	0.131
734	0.13
734	0.129
734	0.129
735	0.129
735	0.128
736	0.127
736	0.126
737	0.124
737	0.124
737	0.122
738	0.12
738	0.118
739	0.116
739	0.114
740	0.112
740	0.111
741	0.11
741	0.109
741	0.107
742	0.105
742	0.104
743	0.103
743	0.102
744	0.102
744	0.101
744	0.099
745	0.098
745	0.096
746	0.094
746	0.093
747	0.092
747	0.091
748	0.09
748	0.088
748	0.087
749	0.086
749	0.085
750	0.084
750	0.083
751	0.083
751	0.083
751	0.083
752	0.082
752	0.081
753	0.081
753	0.08
754	0.08
754	0.08
754	0.08
755	0.08
755	0.08
756	0.079
756	0.077
757	0.077
757	0.077
758	0.076
758	0.076
758	0.076
759	0.075
759	0.074
760	0.073
760	0.072
761	0.071
761	0.071
761	0.07
762	0.068
762	0.067
763	0.066
763	0.064
764	0.062
764	0.06
764	0.058
765	0.057
765	0.055
766	0.054
766	0.054
767	0.053
767	0.051
768	0.049
768	0.048
768	0.047
769	0.046
769	0.045
770	0.043
770	0.042
771	0.04
771	0.038
771	0.036
772	0.034
772	0.033
773	0.031
773	0.03
774	0.028
774	0.026
775	0.024
775	0.023
775	0.021
776	0.02
776	0.018
777	0.017
777	0.016
778	0.014
778	0.012
778	0.01
779	0.009
779	0.008
780	0.006
780	0.004
781	0.002
781	-0
781	-0.003
782	-0.007
782	-0.011
783	-0.014
783	-0.017
784	-0.021
784	-0.026
784	-0.03
785	-0.034
785	-0.039
786	-0.043
786	-0.047
787	-0.049
787	-0.053
788	-0.058
788	-0.063
788	-0.069
789	-0.076
789	-0.082
790	-0.087
790	-0.092
791	-0.098
791	-0.104
791	-0.108
792	-0.105
792	-0.098
793	-0.095
793	-0.094
794	-0.094
794	-0.096
794	-0.1
795	-0.103
795	-0.103
796	-0.104
796	-0.106
797	-0.115
797	-0.126
797	-0.133
798	-0.138
798	-0.142
799	-0.142
799	-0.142
800	-0.141
800	-0.143
801	-0.145
801	-0.146
801	-0.146
802	-0.147
802	-0.148
803	-0.148
803	-0.148
804	-0.147
804	-0.142
804	-0.136
805	-0.132
805	-0.13
806	-0.128
806	-0.128
807	-0.127
807	-0.127
807	-0.128
808	-0.128
808	-0.129
809	-0.134
809	-0.14
810	-0.143
810	-0.146
810	-0.15
811	-0.153
811	-0.153
812	-0.149
812	-0.146
813	-0.146
813	-0.147
813	-0.147
814	-0.147
814	-0.144
815	-0.139
815	-0.132
816	-0.125
816	-0.119
817	-0.116
817	-0.111
817	-0.102
818	-0.091
818	-0.079
819	-0.068
819	-0.059
820	-0.052
820	-0.045
820	-0.039
821	-0.033
821	-0.027
822	-0.022
822	-0.017
823	-0.013
823	-0.01
823	-0.007
824	-0.004
824	-0.001
825	0.003
825	0.006
826	0.009
826	0.011
826	0.013
827	0.016
827	0.017
828	0.019
828	0.02
829	0.021
829	0.022
829	0.023
830	0.023
830	0.023
831	0.025
831	0.025
832	0.026
832	0.026
832	0.027
833	0.027
833	0.027
834	0.028
834	0.028
835	0.028
835	0.028
835	0.028
836	0.028
836	0.028
837	0.028
837	0.029
838	0.029
838	0.03
839	0.03
839	0.03
839	0.03
840	0.03
840	0.03
841	0.029
841	0.029
842	0.029
842	0.029
842	0.029
843	0.029
843	0.029
844	0.029
844	0.029
845	0.029
845	0.03
845	0.03
846	0.03
846	0.03
847	0.03
847	0.03
848	0.03
848	0.031
848	0.031
849	0.031
849	0.032
850	0.032
850	0.032
851	0.032
851	0.032
851	0.032
852	0.032
852	0.032
853	0.031
853	0.031
854	0.031
854	0.031
854	0.031
855	0.031
855	0.03
856	0.03
856	0.03
857	0.03
857	0.029
857	0.03
858	0.03
858	0.03
859	0.03
859	0.03
860	0.031
860	0.032
860	0.033
861	0.034
861	0.035
862	0.035
862	0.036
863	0.036
863	0.036
863	0.036
864	0.036
864	0.036
865	0.036
865	0.036
866	0.036
866	0.036
866	0.037
867	0.037
867	0.037
868	0.037
868	0.037
869	0.037
869	0.036
869	0.035
870	0.035
870	0.034
871	0.033
871	0.033
872	0.032
872	0.032
872	0.032
873	0.033
873	0.034
874	0.034
874	0.034
875	0.035
875	0.034
875	0.034
876	0.034
876	0.033
877	0.032
877	0.031
878	0.03
878	0.03
878	0.029
879	0.029
879	0.028
880	0.028
880	0.028
881	0.028
881	0.028
881	0.029
882	0.029
882	0.029
883	0.028
883	0.028
884	0.028
884	0.027
884	0.027
885	0.026
885	0.026
886	0.026
886	0.026
887	0.026
887	0.026
887	0.026
888	0.027
888	0.027
889	0.028
889	0.029
890	0.03
890	0.03
890	0.031
891	0.031
891	0.032
892	0.032
892	0.033
893	0.033
893	0.034
893	0.034
894	0.033
894	0.033
895	0.032
895	0.031
895	0.03
896	0.029
896	0.029
897	0.028
897	0.027
898	0.026
898	0.026
898	0.025
899	0.025
899	0.024
900	0.024
900	0.024
901	0.024
901	0.024
901	0.024
902	0.024
902	0.024
903	0.025
903	0.025
904	0.026
904	0.027
904	0.027
905	0.028
905	0.029
906	0.03
906	0.03
907	0.031
907	0.031
907	0.032
908	0.032
908	0.033
909	0.034
909	0.034
910	0.035
910	0.035
910	0.035
911	0.036
911	0.036
912	0.036
912	0.036
913	0.035
913	0.035
913	0.034
914	0.034
914	0.033
915	0.032
915	0.031
916	0.03
916	0.029
916	0.027
917	0.026
917	0.024
918	0.022
918	0.021
918	0.019
919	0.018
919	0.017
920	0.016
920	0.016
921	0.015
921	0.015
921	0.016
922	0.016
922	0.017
923	0.018
923	0.018
924	0.019
924	0.02
924	0.02
925	0.021
925	0.022
926	0.022
926	0.023
927	0.023
927	0.023
927	0.023
928	0.023
928	0.023
929	0.023
929	0.022
930	0.021
930	0.021
930	0.02
931	0.019
931	0.019
932	0.019
932	0.018
933	0.018
933	0.018
933	0.017
934	0.017
934	0.017
935	0.016
935	0.016
935	0.016
936	0.015
936	0.014
937	0.014
937	0.013
938	0.013
938	0.013
938	0.013
939	0.013
939	0.014
940	0.014
940	0.015
941	0.016
941	0.017
941	0.018
942	0.019
942	0.02
943	0.021
943	0.022
944	0.022
944	0.023
944	0.023
945	0.024
945	0.024
946	0.025
946	0.025
946	0.025
947	0.026
947	0.026
948	0.027
948	0.027
949	0.027
949	0.027
949	0.028
950	0.027
950	0.027
951	0.027
951	0.027
952	0.026
952	0.026
952	0.025
953	0.025
953	0.025
954	0.024
954	0.024
955	0.024
955	0.024
955	0.024
956	0.024
956	0.024
957	0.024
957	0.024
957	0.024
958	0.024
958	0.024
959	0.025
959	0.025
960	0.024
960	0.024
960	0.025
961	0.025
961	0.025
962	0.026
962	0.026
963	0.027
963	0.027
963	0.027
964	0.028
964	0.028
965	0.028
965	0.028
966	0.029
966	0.029
966	0.028
967	0.028
967	0.027
968	0.026
968	0.025
968	0.025
969	0.024
969	0.023
970	0.022
970	0.021
971	0.021
971	0.02
971	0.02
972	0.02
972	0.02
973	0.02
973	0.02
974	0.021
974	0.021
974	0.022
975	0.023
975	0.024
976	0.025
976	0.026
976	0.026
977	0.027
977	0.027
978	0.028
978	0.028
979	0.028
979	0.028
979	0.027
980	0.026
980	0.025
981	0.024
981	0.024
982	0.023
982	0.022
982	0.021
983	0.02
983	0.018
984	0.017
984	0.016
984	0.016
985	0.015
985	0.014
986	0.013
986	0.012
987	0.012
987	0.011
987	0.011
988	0.011
988	0.011
989	0.011
989	0.011
990	0.012
990	0.013
990	0.014
991	0.015
991	0.017
992	0.018
992	0.019
992	0.02
993	0.021
993	0.022
994	0.022
994	0.022
995	0.022
995	0.022
995	0.022
996	0.021
996	0.02
997	0.019
997	0.019
997	0.018
998	0.018
998	0.018
999	0.018
999	0.018
1000	0.019
1000	0.019
1000	0.02
1001	0.021
1001	0.022
1002	0.022
1002	0.023
1003	0.023
1003	0.024
1003	0.024
1004	0.024
1004	0.024
1005	0.024
1005	0.024
1005	0.023
1006	0.023
1006	0.023
1007	0.023
1007	0.022
1008	0.022
1008	0.022
1008	0.022
1009	0.022
1009	0.022
1010	0.022
1010	0.022
1010	0.021
1011	0.021
1011	0.021
1012	0.02
1012	0.02
1013	0.02
1013	0.019
1013	0.019
1014	0.018
1014	0.017
1015	0.016
1015	0.015
1016	0.015
1016	0.014
1016	0.013
1017	0.012
1017	0.011
1018	0.011
1018	0.01
1018	0.01
1019	0.009
1019	0.009
1020	0.009
1020	0.008
1021	0.009
1021	0.009
1021	0.009
1022	0.009
1022	0.01
1023	0.01
1023	0.01
1023	0.011
1024	0.011
1024	0.011
1025	0.01
1025	0.01
1026	0.01
1026	0.01
1026	0.009
1027	0.009
1027	0.008
1028	0.008
1028	0.007
1028	0.007
1029	0.006
1029	0.006
1030	0.006
1030	0.005
1031	0.005
1031	0.005
1031	0.005
1032	0.005
1032	0.005
1033	0.005
1033	0.005
1033	0.005
1034	0.004
1034	0.004
1035	0.004
1035	0.003
1036	0.003
1036	0.003
1036	0.003
1037	0.003
1037	0.003
1038	0.003
1038	0.003
1039	0.004
1039	0.005
1039	0.005
1040	0.006
1040	0.007
1041	0.009
1041	0.01
1041	0.011
1042	0.011
1042	0.012
1043	0.013
1043	0.014
1044	0.014
1044	0.015
1044	0.015
1045	0.015
1045	0.015
1046	0.015
1046	0.014
1046	0.014
1047	0.014
1047	0.014
1048	0.014
1048	0.013
1049	0.013
1049	0.012
1049	0.011
1050	0.01
1050	0.01
1051	0.009
1051	0.008
1051	0.008
1052	0.007
1052	0.007
1053	0.006
1053	0.005
1053	0.005
1054	0.004
1054	0.004
1055	0.003
1055	0.002
1056	0.001
1056	0
1056	-0.001
1057	-0.001
1057	-0.002
1058	-0.002
1058	-0.003
1058	-0.003
1059	-0.003
1059	-0.004
1060	-0.004
1060	-0.003
1061	-0.003
1061	-0.002
1061	-0.002
1062	-0.002
1062	-0.002
1063	-0.003
1063	-0.003
1063	-0.002
1064	-0.002
1064	-0.002
1065	-0.001
1065	-0.002
1066	-0.001
1066	-0.001
1066	-0.001
1067	-0
1067	0
1068	0
1068	-0
1068	-0.001
1069	-0.002
1069	-0.003
1070	-0.003
1070	-0.004
1071	-0.005
1071	-0.005
1071	-0.006
1072	-0.007
1072	-0.008
1073	-0.009
1073	-0.009
1073	-0.01
1074	-0.011
1074	-0.011
1075	-0.012
1075	-0.013
1076	-0.014
1076	-0.015
1076	-0.015
1077	-0.016
1077	-0.016
1078	-0.017
1078	-0.016
1078	-0.016
1079	-0.016
1079	-0.016
1080	-0.016
1080	-0.015
1080	-0.015
1081	-0.014
1081	-0.013
1082	-0.013
1082	-0.013
1083	-0.013
1083	-0.013
1083	-0.012
1084	-0.012
1084	-0.012
1085	-0.012
1085	-0.011
1085	-0.011
1086	-0.011
1086	-0.012
1087	-0.012
1087	-0.011
1088	-0.011
1088	-0.012
1088	-0.012
1089	-0.013
1089	-0.013
1090	-0.014
1090	-0.014
1090	-0.015
1091	-0.015
1091	-0.015
1092	-0.015
1092	-0.015
1092	-0.015
1093	-0.015
1093	-0.014
1094	-0.014
1094	-0.015
1095	-0.015
1095	-0.014
1095	-0.013
1096	-0.013
1096	-0.012
1097	-0.011
1097	-0.011
1097	-0.009
1098	-0.008
1098	-0.007
1099	-0.005
1099	-0.003
1100	-0.002
1100	-0.001
1100	-0
1101	0
1101	0.001
1102	0.003
1102	0.003
1102	0.004
1103	0.004
1103	0.006
1104	0.008
1104	0.01
1104	0.012
1105	0.014
1105	0.015
1106	0.017
1106	0.021
1107	0.022
1107	0.026
1107	0.031
1108	0.052
1108	0.078
1109	0.113
1109	0.162
1109	0.197
1110	0.259
1110	0.364
1111	0.635
1111	-0
