Data from 17c-2a_Absorbance__1454__01455.txt Node

Date: Fri Jan 26 10:35:58 CET 2024
User: Marek
Spectrometer: MAYP115816
Trigger mode: 0
Integration Time (sec): 2.000000E-1
Scans to average: 10
Electric dark correction enabled: true
Nonlinearity correction enabled: true
Boxcar width: 5
XAxis mode: Wavelengths
Number of Pixels in Spectrum: 2068
>>>>>Begin Spectral Data<<<<<
199	-1.474
199	-1.338
200	-1.19
200	-1.08
201	-1.011
201	-0.968
202	-0.904
202	-0.854
203	-0.812
203	-0.777
204	-0.752
204	-0.729
205	-0.708
205	-0.699
205	-0.696
206	-0.692
206	-0.689
207	-0.685
207	-0.684
208	-0.684
208	-0.682
209	-0.679
209	-0.676
210	-0.677
210	-0.678
211	-0.679
211	-0.68
212	-0.68
212	-0.68
213	-0.678
213	-0.675
213	-0.676
214	-0.674
214	-0.672
215	-0.668
215	-0.666
216	-0.663
216	-0.663
217	-0.659
217	-0.657
218	-0.653
218	-0.652
219	-0.647
219	-0.646
220	-0.645
220	-0.645
221	-0.643
221	-0.641
221	-0.637
222	-0.632
222	-0.628
223	-0.624
223	-0.621
224	-0.617
224	-0.61
225	-0.603
225	-0.596
226	-0.587
226	-0.575
227	-0.565
227	-0.556
228	-0.54
228	-0.525
229	-0.505
229	-0.483
229	-0.46
230	-0.433
230	-0.404
231	-0.374
231	-0.341
232	-0.307
232	-0.271
233	-0.233
233	-0.195
234	-0.158
234	-0.122
235	-0.086
235	-0.052
236	-0.019
236	0.012
236	0.042
237	0.069
237	0.094
238	0.117
238	0.137
239	0.157
239	0.173
240	0.189
240	0.204
241	0.217
241	0.228
242	0.238
242	0.247
243	0.256
243	0.263
243	0.27
244	0.277
244	0.283
245	0.288
245	0.293
246	0.297
246	0.302
247	0.306
247	0.31
248	0.313
248	0.317
249	0.32
249	0.323
250	0.326
250	0.329
250	0.332
251	0.335
251	0.337
252	0.34
252	0.342
253	0.344
253	0.346
254	0.348
254	0.35
255	0.351
255	0.353
256	0.354
256	0.356
257	0.357
257	0.358
258	0.359
258	0.359
258	0.36
259	0.361
259	0.361
260	0.361
260	0.361
261	0.362
261	0.362
262	0.362
262	0.362
263	0.362
263	0.362
264	0.361
264	0.361
265	0.36
265	0.359
265	0.358
266	0.358
266	0.356
267	0.355
267	0.354
268	0.352
268	0.351
269	0.35
269	0.348
270	0.347
270	0.345
271	0.343
271	0.341
272	0.34
272	0.338
272	0.336
273	0.334
273	0.332
274	0.33
274	0.328
275	0.326
275	0.324
276	0.322
276	0.32
277	0.318
277	0.315
278	0.313
278	0.311
278	0.309
279	0.306
279	0.304
280	0.301
280	0.299
281	0.297
281	0.294
282	0.292
282	0.29
283	0.289
283	0.287
284	0.285
284	0.283
285	0.282
285	0.28
285	0.278
286	0.276
286	0.275
287	0.273
287	0.271
288	0.27
288	0.268
289	0.267
289	0.265
290	0.263
290	0.262
291	0.26
291	0.259
292	0.258
292	0.256
292	0.255
293	0.254
293	0.253
294	0.252
294	0.251
295	0.25
295	0.248
296	0.248
296	0.247
297	0.246
297	0.245
298	0.244
298	0.243
298	0.243
299	0.242
299	0.241
300	0.24
300	0.24
301	0.239
301	0.238
302	0.237
302	0.237
303	0.236
303	0.236
304	0.235
304	0.234
305	0.233
305	0.233
305	0.232
306	0.232
306	0.231
307	0.23
307	0.229
308	0.228
308	0.228
309	0.227
309	0.227
310	0.226
310	0.225
311	0.225
311	0.224
311	0.224
312	0.223
312	0.223
313	0.222
313	0.222
314	0.221
314	0.22
315	0.22
315	0.219
316	0.218
316	0.218
317	0.217
317	0.217
318	0.216
318	0.216
318	0.215
319	0.215
319	0.214
320	0.213
320	0.213
321	0.212
321	0.211
322	0.211
322	0.21
323	0.209
323	0.209
324	0.208
324	0.207
324	0.207
325	0.206
325	0.206
326	0.205
326	0.205
327	0.204
327	0.204
328	0.203
328	0.202
329	0.202
329	0.201
330	0.2
330	0.2
330	0.199
331	0.199
331	0.198
332	0.198
332	0.197
333	0.197
333	0.197
334	0.196
334	0.195
335	0.195
335	0.194
336	0.194
336	0.194
336	0.193
337	0.193
337	0.192
338	0.192
338	0.191
339	0.191
339	0.191
340	0.19
340	0.19
341	0.189
341	0.189
342	0.188
342	0.188
342	0.188
343	0.187
343	0.187
344	0.186
344	0.186
345	0.186
345	0.186
346	0.185
346	0.185
347	0.185
347	0.184
348	0.184
348	0.184
348	0.183
349	0.183
349	0.182
350	0.182
350	0.182
351	0.182
351	0.181
352	0.181
352	0.181
353	0.181
353	0.181
354	0.18
354	0.18
354	0.18
355	0.179
355	0.179
356	0.179
356	0.178
357	0.178
357	0.178
358	0.178
358	0.178
359	0.178
359	0.178
360	0.178
360	0.178
360	0.178
361	0.178
361	0.178
362	0.178
362	0.178
363	0.178
363	0.178
364	0.178
364	0.178
365	0.178
365	0.178
366	0.178
366	0.177
366	0.177
367	0.177
367	0.177
368	0.177
368	0.177
369	0.176
369	0.176
370	0.176
370	0.176
371	0.175
371	0.175
372	0.175
372	0.175
372	0.175
373	0.175
373	0.174
374	0.175
374	0.175
375	0.175
375	0.175
376	0.175
376	0.175
377	0.175
377	0.175
378	0.175
378	0.175
378	0.175
379	0.175
379	0.174
380	0.174
380	0.174
381	0.174
381	0.174
382	0.174
382	0.173
383	0.173
383	0.173
383	0.173
384	0.173
384	0.173
385	0.172
385	0.172
386	0.172
386	0.172
387	0.172
387	0.172
388	0.172
388	0.172
389	0.171
389	0.171
389	0.171
390	0.171
390	0.171
391	0.171
391	0.171
392	0.171
392	0.171
393	0.172
393	0.172
394	0.171
394	0.171
394	0.171
395	0.171
395	0.171
396	0.17
396	0.17
397	0.17
397	0.17
398	0.17
398	0.17
399	0.169
399	0.169
400	0.169
400	0.168
400	0.168
401	0.168
401	0.167
402	0.167
402	0.167
403	0.166
403	0.166
404	0.166
404	0.166
405	0.166
405	0.166
405	0.166
406	0.166
406	0.166
407	0.166
407	0.166
408	0.166
408	0.166
409	0.165
409	0.165
410	0.165
410	0.165
411	0.165
411	0.165
411	0.165
412	0.165
412	0.165
413	0.165
413	0.165
414	0.165
414	0.165
415	0.164
415	0.164
416	0.164
416	0.163
416	0.163
417	0.163
417	0.163
418	0.163
418	0.163
419	0.163
419	0.164
420	0.164
420	0.164
421	0.164
421	0.164
421	0.165
422	0.165
422	0.165
423	0.165
423	0.164
424	0.164
424	0.164
425	0.164
425	0.163
426	0.163
426	0.163
427	0.163
427	0.163
427	0.163
428	0.163
428	0.163
429	0.164
429	0.163
430	0.164
430	0.163
431	0.163
431	0.163
432	0.163
432	0.163
432	0.163
433	0.162
433	0.162
434	0.162
434	0.162
435	0.162
435	0.162
436	0.162
436	0.162
437	0.162
437	0.162
437	0.162
438	0.162
438	0.162
439	0.162
439	0.161
440	0.161
440	0.161
441	0.161
441	0.161
442	0.161
442	0.161
442	0.161
443	0.161
443	0.161
444	0.161
444	0.161
445	0.161
445	0.161
446	0.161
446	0.161
447	0.161
447	0.161
447	0.161
448	0.162
448	0.162
449	0.162
449	0.162
450	0.162
450	0.162
451	0.162
451	0.162
452	0.162
452	0.162
452	0.162
453	0.161
453	0.161
454	0.161
454	0.161
455	0.161
455	0.161
456	0.161
456	0.16
457	0.16
457	0.16
458	0.161
458	0.161
458	0.162
459	0.162
459	0.162
460	0.161
460	0.161
461	0.161
461	0.161
462	0.162
462	0.162
463	0.162
463	0.162
463	0.163
464	0.163
464	0.163
465	0.163
465	0.164
466	0.164
466	0.164
467	0.164
467	0.164
467	0.164
468	0.163
468	0.163
469	0.162
469	0.163
470	0.163
470	0.163
471	0.163
471	0.163
472	0.163
472	0.164
472	0.164
473	0.165
473	0.165
474	0.166
474	0.166
475	0.167
475	0.167
476	0.168
476	0.168
477	0.168
477	0.169
477	0.169
478	0.17
478	0.17
479	0.171
479	0.171
480	0.172
480	0.172
481	0.173
481	0.173
482	0.174
482	0.175
482	0.176
483	0.177
483	0.179
484	0.181
484	0.182
485	0.183
485	0.184
486	0.185
486	0.186
487	0.187
487	0.187
487	0.188
488	0.188
488	0.187
489	0.187
489	0.188
490	0.188
490	0.189
491	0.19
491	0.191
492	0.192
492	0.192
492	0.193
493	0.194
493	0.195
494	0.197
494	0.199
495	0.2
495	0.201
496	0.202
496	0.204
496	0.205
497	0.206
497	0.207
498	0.208
498	0.209
499	0.21
499	0.211
500	0.213
500	0.214
501	0.216
501	0.217
501	0.219
502	0.22
502	0.221
503	0.223
503	0.224
504	0.225
504	0.226
505	0.227
505	0.229
506	0.23
506	0.231
506	0.232
507	0.233
507	0.234
508	0.236
508	0.237
509	0.238
509	0.239
510	0.24
510	0.241
511	0.242
511	0.243
511	0.244
512	0.245
512	0.246
513	0.246
513	0.246
514	0.247
514	0.247
515	0.248
515	0.248
515	0.248
516	0.249
516	0.25
517	0.25
517	0.251
518	0.251
518	0.251
519	0.251
519	0.251
520	0.251
520	0.251
520	0.251
521	0.25
521	0.249
522	0.248
522	0.248
523	0.248
523	0.248
524	0.248
524	0.249
524	0.249
525	0.25
525	0.25
526	0.251
526	0.251
527	0.252
527	0.252
528	0.252
528	0.253
529	0.252
529	0.252
529	0.251
530	0.251
530	0.25
531	0.25
531	0.249
532	0.248
532	0.247
533	0.246
533	0.245
533	0.244
534	0.243
534	0.242
535	0.241
535	0.24
536	0.239
536	0.238
537	0.237
537	0.235
538	0.234
538	0.233
538	0.231
539	0.23
539	0.229
540	0.228
540	0.226
541	0.224
541	0.222
542	0.221
542	0.219
542	0.217
543	0.216
543	0.214
544	0.212
544	0.21
545	0.209
545	0.208
546	0.207
546	0.205
547	0.203
547	0.202
547	0.2
548	0.199
548	0.197
549	0.196
549	0.194
550	0.193
550	0.191
551	0.188
551	0.187
551	0.185
552	0.183
552	0.182
553	0.181
553	0.179
554	0.177
554	0.175
555	0.173
555	0.171
556	0.168
556	0.166
556	0.163
557	0.161
557	0.159
558	0.157
558	0.155
559	0.153
559	0.151
560	0.15
560	0.148
560	0.147
561	0.146
561	0.145
562	0.144
562	0.143
563	0.141
563	0.139
564	0.137
564	0.136
564	0.134
565	0.133
565	0.132
566	0.13
566	0.128
567	0.127
567	0.127
568	0.126
568	0.126
568	0.125
569	0.126
569	0.126
570	0.125
570	0.124
571	0.124
571	0.124
572	0.123
572	0.122
573	0.121
573	0.12
573	0.119
574	0.118
574	0.117
575	0.116
575	0.117
576	0.116
576	0.114
577	0.113
577	0.112
577	0.111
578	0.11
578	0.11
579	0.11
579	0.11
580	0.108
580	0.106
581	0.103
581	0.102
581	0.102
582	0.101
582	0.101
583	0.101
583	0.1
584	0.097
584	0.095
585	0.094
585	0.095
585	0.094
586	0.094
586	0.094
587	0.092
587	0.09
588	0.088
588	0.087
589	0.086
589	0.086
590	0.085
590	0.085
590	0.086
591	0.086
591	0.085
592	0.085
592	0.084
593	0.084
593	0.084
594	0.084
594	0.083
594	0.082
595	0.082
595	0.081
596	0.081
596	0.082
597	0.084
597	0.084
598	0.084
598	0.085
598	0.085
599	0.085
599	0.084
600	0.083
600	0.082
601	0.082
601	0.081
602	0.079
602	0.078
602	0.078
603	0.077
603	0.078
604	0.078
604	0.079
605	0.079
605	0.08
606	0.08
606	0.08
606	0.079
607	0.079
607	0.079
608	0.078
608	0.077
609	0.077
609	0.077
610	0.076
610	0.075
610	0.076
611	0.077
611	0.078
612	0.079
612	0.08
613	0.082
613	0.083
614	0.083
614	0.083
614	0.084
615	0.084
615	0.084
616	0.084
616	0.083
617	0.083
617	0.083
618	0.082
618	0.082
618	0.081
619	0.082
619	0.082
620	0.083
620	0.084
621	0.084
621	0.084
622	0.084
622	0.085
622	0.084
623	0.084
623	0.085
624	0.086
624	0.086
625	0.086
625	0.087
626	0.087
626	0.088
626	0.089
627	0.09
627	0.091
628	0.092
628	0.092
629	0.092
629	0.092
630	0.092
630	0.092
630	0.093
631	0.093
631	0.094
632	0.094
632	0.094
633	0.094
633	0.095
634	0.097
634	0.098
634	0.1
635	0.101
635	0.102
636	0.103
636	0.104
637	0.104
637	0.105
638	0.106
638	0.107
638	0.108
639	0.108
639	0.108
640	0.109
640	0.11
641	0.111
641	0.112
642	0.113
642	0.115
642	0.116
643	0.118
643	0.119
644	0.12
644	0.122
645	0.124
645	0.126
646	0.128
646	0.13
646	0.133
647	0.136
647	0.138
648	0.14
648	0.143
649	0.145
649	0.148
650	0.15
650	0.153
650	0.155
651	0.157
651	0.159
652	0.16
652	0.162
653	0.164
653	0.171
653	0.175
654	0.14
654	0.114
655	0.116
655	0.117
656	0.119
656	0.121
657	0.122
657	0.124
657	0.125
658	0.123
658	0.118
659	0.149
659	0.192
660	0.199
660	0.201
661	0.203
661	0.206
661	0.208
662	0.211
662	0.213
663	0.216
663	0.219
664	0.221
664	0.223
665	0.225
665	0.227
665	0.229
666	0.231
666	0.233
667	0.234
667	0.237
668	0.239
668	0.241
669	0.243
669	0.245
669	0.248
670	0.25
670	0.252
671	0.254
671	0.255
672	0.257
672	0.259
672	0.26
673	0.262
673	0.264
674	0.265
674	0.266
675	0.268
675	0.27
676	0.272
676	0.274
676	0.276
677	0.277
677	0.279
678	0.28
678	0.281
679	0.281
679	0.282
680	0.284
680	0.285
680	0.285
681	0.286
681	0.287
682	0.288
682	0.289
683	0.291
683	0.293
684	0.294
684	0.294
684	0.294
685	0.295
685	0.295
686	0.295
686	0.295
687	0.294
687	0.293
687	0.293
688	0.292
688	0.292
689	0.293
689	0.293
690	0.294
690	0.294
691	0.294
691	0.295
691	0.295
692	0.294
692	0.294
693	0.294
693	0.294
694	0.293
694	0.291
695	0.291
695	0.291
695	0.29
696	0.289
696	0.288
697	0.287
697	0.286
698	0.284
698	0.282
698	0.281
699	0.28
699	0.277
700	0.274
700	0.273
701	0.271
701	0.269
702	0.267
702	0.266
702	0.264
703	0.262
703	0.26
704	0.258
704	0.257
705	0.256
705	0.254
705	0.252
706	0.251
706	0.25
707	0.248
707	0.247
708	0.246
708	0.244
709	0.243
709	0.241
709	0.238
710	0.236
710	0.235
711	0.233
711	0.231
712	0.229
712	0.228
713	0.226
713	0.224
713	0.222
714	0.22
714	0.217
715	0.215
715	0.213
716	0.21
716	0.208
716	0.205
717	0.203
717	0.201
718	0.198
718	0.196
719	0.194
719	0.192
720	0.19
720	0.188
720	0.186
721	0.183
721	0.182
722	0.18
722	0.178
723	0.176
723	0.174
723	0.173
724	0.171
724	0.169
725	0.168
725	0.166
726	0.165
726	0.163
727	0.162
727	0.16
727	0.159
728	0.157
728	0.155
729	0.154
729	0.152
730	0.15
730	0.148
730	0.146
731	0.145
731	0.143
732	0.142
732	0.141
733	0.139
733	0.138
734	0.137
734	0.135
734	0.135
735	0.134
735	0.133
736	0.131
736	0.13
737	0.129
737	0.128
737	0.126
738	0.123
738	0.121
739	0.119
739	0.116
740	0.114
740	0.113
741	0.111
741	0.11
741	0.108
742	0.105
742	0.104
743	0.103
743	0.101
744	0.1
744	0.099
744	0.098
745	0.096
745	0.094
746	0.093
746	0.092
747	0.091
747	0.09
748	0.09
748	0.089
748	0.088
749	0.087
749	0.086
750	0.086
750	0.085
751	0.085
751	0.085
751	0.085
752	0.084
752	0.083
753	0.082
753	0.082
754	0.082
754	0.082
754	0.082
755	0.081
755	0.081
756	0.081
756	0.079
757	0.078
757	0.078
758	0.078
758	0.077
758	0.077
759	0.076
759	0.075
760	0.073
760	0.072
761	0.07
761	0.069
761	0.068
762	0.066
762	0.065
763	0.063
763	0.061
764	0.058
764	0.056
764	0.054
765	0.052
765	0.05
766	0.049
766	0.048
767	0.047
767	0.045
768	0.043
768	0.041
768	0.04
769	0.039
769	0.039
770	0.037
770	0.036
771	0.034
771	0.032
771	0.029
772	0.028
772	0.026
773	0.024
773	0.022
774	0.02
774	0.018
775	0.016
775	0.014
775	0.012
776	0.01
776	0.009
777	0.008
777	0.006
778	0.004
778	0.002
778	0
779	-0.001
779	-0.003
780	-0.005
780	-0.007
781	-0.01
781	-0.013
781	-0.016
782	-0.02
782	-0.025
783	-0.029
783	-0.032
784	-0.037
784	-0.042
784	-0.046
785	-0.051
785	-0.057
786	-0.061
786	-0.065
787	-0.068
787	-0.072
788	-0.077
788	-0.084
788	-0.09
789	-0.097
789	-0.102
790	-0.104
790	-0.108
791	-0.112
791	-0.116
791	-0.118
792	-0.113
792	-0.104
793	-0.099
793	-0.095
794	-0.093
794	-0.096
794	-0.1
795	-0.102
795	-0.103
796	-0.103
796	-0.106
797	-0.115
797	-0.126
797	-0.132
798	-0.138
798	-0.141
799	-0.142
799	-0.141
800	-0.141
800	-0.142
801	-0.145
801	-0.146
801	-0.145
802	-0.146
802	-0.147
803	-0.148
803	-0.148
804	-0.147
804	-0.142
804	-0.135
805	-0.132
805	-0.13
806	-0.128
806	-0.127
807	-0.127
807	-0.127
807	-0.127
808	-0.127
808	-0.128
809	-0.133
809	-0.139
810	-0.143
810	-0.146
810	-0.149
811	-0.152
811	-0.152
812	-0.148
812	-0.145
813	-0.145
813	-0.146
813	-0.147
814	-0.149
814	-0.149
815	-0.147
815	-0.143
816	-0.139
816	-0.135
817	-0.134
817	-0.131
817	-0.124
818	-0.115
818	-0.104
819	-0.093
819	-0.082
820	-0.073
820	-0.065
820	-0.057
821	-0.05
821	-0.043
822	-0.037
822	-0.031
823	-0.026
823	-0.023
823	-0.019
824	-0.015
824	-0.011
825	-0.007
825	-0.003
826	0.001
826	0.003
826	0.006
827	0.008
827	0.01
828	0.012
828	0.013
829	0.014
829	0.015
829	0.016
830	0.016
830	0.017
831	0.018
831	0.019
832	0.019
832	0.019
832	0.02
833	0.02
833	0.02
834	0.021
834	0.021
835	0.021
835	0.021
835	0.02
836	0.02
836	0.021
837	0.021
837	0.022
838	0.022
838	0.022
839	0.023
839	0.023
839	0.023
840	0.023
840	0.023
841	0.023
841	0.024
842	0.024
842	0.024
842	0.024
843	0.024
843	0.024
844	0.025
844	0.025
845	0.025
845	0.025
845	0.025
846	0.025
846	0.025
847	0.025
847	0.025
848	0.025
848	0.026
848	0.026
849	0.027
849	0.027
850	0.028
850	0.028
851	0.028
851	0.029
851	0.029
852	0.028
852	0.028
853	0.028
853	0.027
854	0.027
854	0.027
854	0.026
855	0.026
855	0.026
856	0.025
856	0.025
857	0.025
857	0.025
857	0.025
858	0.025
858	0.025
859	0.025
859	0.026
860	0.026
860	0.026
860	0.027
861	0.028
861	0.029
862	0.029
862	0.029
863	0.029
863	0.03
863	0.03
864	0.031
864	0.031
865	0.032
865	0.033
866	0.033
866	0.034
866	0.035
867	0.035
867	0.036
868	0.036
868	0.036
869	0.036
869	0.036
869	0.035
870	0.034
870	0.034
871	0.033
871	0.033
872	0.032
872	0.032
872	0.032
873	0.032
873	0.032
874	0.031
874	0.032
875	0.031
875	0.031
875	0.031
876	0.03
876	0.029
877	0.028
877	0.027
878	0.026
878	0.025
878	0.025
879	0.024
879	0.024
880	0.023
880	0.023
881	0.023
881	0.023
881	0.024
882	0.024
882	0.024
883	0.024
883	0.023
884	0.023
884	0.023
884	0.022
885	0.022
885	0.021
886	0.022
886	0.022
887	0.022
887	0.022
887	0.022
888	0.023
888	0.023
889	0.024
889	0.025
890	0.026
890	0.026
890	0.027
891	0.027
891	0.027
892	0.028
892	0.028
893	0.029
893	0.029
893	0.029
894	0.029
894	0.029
895	0.029
895	0.028
895	0.028
896	0.027
896	0.027
897	0.026
897	0.026
898	0.026
898	0.025
898	0.025
899	0.025
899	0.025
900	0.025
900	0.025
901	0.025
901	0.025
901	0.026
902	0.026
902	0.027
903	0.027
903	0.028
904	0.028
904	0.029
904	0.03
905	0.03
905	0.031
906	0.031
906	0.031
907	0.031
907	0.031
907	0.032
908	0.031
908	0.032
909	0.032
909	0.032
910	0.032
910	0.033
910	0.033
911	0.033
911	0.033
912	0.033
912	0.032
913	0.032
913	0.032
913	0.031
914	0.03
914	0.03
915	0.029
915	0.028
916	0.027
916	0.026
916	0.025
917	0.024
917	0.023
918	0.022
918	0.021
918	0.02
919	0.019
919	0.018
920	0.017
920	0.016
921	0.016
921	0.016
921	0.016
922	0.016
922	0.016
923	0.017
923	0.017
924	0.017
924	0.018
924	0.018
925	0.019
925	0.019
926	0.02
926	0.02
927	0.02
927	0.02
927	0.02
928	0.02
928	0.02
929	0.02
929	0.019
930	0.019
930	0.018
930	0.018
931	0.017
931	0.017
932	0.017
932	0.016
933	0.016
933	0.015
933	0.015
934	0.014
934	0.014
935	0.013
935	0.013
935	0.012
936	0.011
936	0.011
937	0.01
937	0.01
938	0.009
938	0.009
938	0.009
939	0.01
939	0.01
940	0.011
940	0.012
941	0.013
941	0.014
941	0.015
942	0.016
942	0.017
943	0.018
943	0.018
944	0.019
944	0.019
944	0.02
945	0.02
945	0.02
946	0.021
946	0.021
946	0.021
947	0.021
947	0.022
948	0.023
948	0.023
949	0.024
949	0.024
949	0.025
950	0.025
950	0.026
951	0.026
951	0.026
952	0.026
952	0.025
952	0.025
953	0.024
953	0.023
954	0.023
954	0.022
955	0.022
955	0.021
955	0.021
956	0.021
956	0.021
957	0.021
957	0.021
957	0.021
958	0.021
958	0.021
959	0.022
959	0.022
960	0.022
960	0.022
960	0.022
961	0.022
961	0.023
962	0.023
962	0.024
963	0.024
963	0.025
963	0.026
964	0.026
964	0.026
965	0.026
965	0.027
966	0.027
966	0.027
966	0.026
967	0.026
967	0.025
968	0.024
968	0.022
968	0.022
969	0.021
969	0.02
970	0.019
970	0.018
971	0.017
971	0.017
971	0.017
972	0.017
972	0.017
973	0.017
973	0.017
974	0.017
974	0.018
974	0.018
975	0.019
975	0.02
976	0.021
976	0.022
976	0.023
977	0.024
977	0.024
978	0.025
978	0.026
979	0.026
979	0.026
979	0.026
980	0.025
980	0.025
981	0.024
981	0.023
982	0.022
982	0.021
982	0.02
983	0.019
983	0.018
984	0.017
984	0.016
984	0.015
985	0.014
985	0.013
986	0.012
986	0.011
987	0.01
987	0.01
987	0.01
988	0.01
988	0.01
989	0.01
989	0.01
990	0.01
990	0.011
990	0.012
991	0.013
991	0.014
992	0.015
992	0.016
992	0.016
993	0.017
993	0.017
994	0.017
994	0.017
995	0.017
995	0.017
995	0.017
996	0.016
996	0.016
997	0.015
997	0.015
997	0.015
998	0.015
998	0.016
999	0.016
999	0.017
1000	0.017
1000	0.018
1000	0.019
1001	0.019
1001	0.02
1002	0.021
1002	0.022
1003	0.022
1003	0.022
1003	0.022
1004	0.022
1004	0.022
1005	0.021
1005	0.02
1005	0.02
1006	0.019
1006	0.018
1007	0.018
1007	0.017
1008	0.017
1008	0.016
1008	0.016
1009	0.016
1009	0.016
1010	0.016
1010	0.017
1010	0.017
1011	0.017
1011	0.017
1012	0.016
1012	0.016
1013	0.016
1013	0.015
1013	0.014
1014	0.013
1014	0.012
1015	0.011
1015	0.01
1016	0.009
1016	0.008
1016	0.007
1017	0.006
1017	0.005
1018	0.004
1018	0.003
1018	0.003
1019	0.002
1019	0.002
1020	0.002
1020	0.001
1021	0.001
1021	0.001
1021	0.001
1022	0.002
1022	0.002
1023	0.003
1023	0.003
1023	0.004
1024	0.004
1024	0.004
1025	0.004
1025	0.004
1026	0.004
1026	0.004
1026	0.004
1027	0.004
1027	0.004
1028	0.004
1028	0.004
1028	0.003
1029	0.003
1029	0.003
1030	0.003
1030	0.002
1031	0.002
1031	0.002
1031	0.002
1032	0.002
1032	0.002
1033	0.002
1033	0.002
1033	0.002
1034	0.002
1034	0.001
1035	0.001
1035	0.001
1036	0.001
1036	0.001
1036	0.001
1037	0.001
1037	0.001
1038	0.001
1038	0.001
1039	0.002
1039	0.002
1039	0.003
1040	0.003
1040	0.004
1041	0.005
1041	0.006
1041	0.006
1042	0.007
1042	0.008
1043	0.008
1043	0.009
1044	0.01
1044	0.011
1044	0.012
1045	0.012
1045	0.012
1046	0.012
1046	0.012
1046	0.012
1047	0.013
1047	0.013
1048	0.013
1048	0.012
1049	0.012
1049	0.011
1049	0.01
1050	0.009
1050	0.009
1051	0.008
1051	0.007
1051	0.007
1052	0.006
1052	0.005
1053	0.004
1053	0.003
1053	0.003
1054	0.002
1054	0.001
1055	0.001
1055	0
1056	-0.001
1056	-0.002
1056	-0.004
1057	-0.005
1057	-0.005
1058	-0.006
1058	-0.007
1058	-0.007
1059	-0.007
1059	-0.008
1060	-0.008
1060	-0.008
1061	-0.007
1061	-0.007
1061	-0.007
1062	-0.007
1062	-0.007
1063	-0.007
1063	-0.007
1063	-0.006
1064	-0.006
1064	-0.005
1065	-0.005
1065	-0.005
1066	-0.004
1066	-0.004
1066	-0.003
1067	-0.002
1067	-0.002
1068	-0.002
1068	-0.002
1068	-0.002
1069	-0.003
1069	-0.004
1070	-0.004
1070	-0.005
1071	-0.006
1071	-0.007
1071	-0.008
1072	-0.009
1072	-0.01
1073	-0.011
1073	-0.012
1073	-0.013
1074	-0.013
1074	-0.014
1075	-0.015
1075	-0.016
1076	-0.017
1076	-0.017
1076	-0.018
1077	-0.018
1077	-0.017
1078	-0.018
1078	-0.018
1078	-0.017
1079	-0.017
1079	-0.017
1080	-0.016
1080	-0.015
1080	-0.015
1081	-0.014
1081	-0.013
1082	-0.012
1082	-0.012
1083	-0.012
1083	-0.012
1083	-0.011
1084	-0.01
1084	-0.01
1085	-0.01
1085	-0.009
1085	-0.009
1086	-0.009
1086	-0.009
1087	-0.008
1087	-0.007
1088	-0.007
1088	-0.007
1088	-0.007
1089	-0.009
1089	-0.009
1090	-0.009
1090	-0.009
1090	-0.01
1091	-0.01
1091	-0.01
1092	-0.011
1092	-0.01
1092	-0.01
1093	-0.01
1093	-0.009
1094	-0.008
1094	-0.008
1095	-0.009
1095	-0.008
1095	-0.007
1096	-0.006
1096	-0.005
1097	-0.004
1097	-0.004
1097	-0.002
1098	-0.001
1098	0.001
1099	0.002
1099	0.005
1100	0.006
1100	0.008
1100	0.008
1101	0.01
1101	0.011
1102	0.014
1102	0.015
1102	0.017
1103	0.019
1103	0.022
1104	0.025
1104	0.028
1104	0.033
1105	0.038
1105	0.042
1106	0.045
1106	0.05
1107	0.054
1107	0.06
1107	0.069
1108	0.1
1108	0.141
1109	0.198
1109	0.284
1109	0.348
1110	0.471
1110	0.766
1111	-0
1111	-0
