Data from 17c-2a_Absorbance__1489__01490.txt Node

Date: Fri Jan 26 10:37:08 CET 2024
User: Marek
Spectrometer: MAYP115816
Trigger mode: 0
Integration Time (sec): 2.000000E-1
Scans to average: 10
Electric dark correction enabled: true
Nonlinearity correction enabled: true
Boxcar width: 5
XAxis mode: Wavelengths
Number of Pixels in Spectrum: 2068
>>>>>Begin Spectral Data<<<<<
199	-1.463
199	-1.327
200	-1.181
200	-1.072
201	-1.003
201	-0.96
202	-0.896
202	-0.846
203	-0.805
203	-0.771
204	-0.745
204	-0.722
205	-0.702
205	-0.693
205	-0.69
206	-0.687
206	-0.684
207	-0.681
207	-0.68
208	-0.679
208	-0.678
209	-0.676
209	-0.673
210	-0.675
210	-0.675
211	-0.675
211	-0.676
212	-0.677
212	-0.677
213	-0.674
213	-0.671
213	-0.671
214	-0.669
214	-0.667
215	-0.661
215	-0.659
216	-0.656
216	-0.655
217	-0.651
217	-0.649
218	-0.645
218	-0.644
219	-0.64
219	-0.64
220	-0.638
220	-0.641
221	-0.639
221	-0.637
221	-0.633
222	-0.628
222	-0.624
223	-0.621
223	-0.618
224	-0.613
224	-0.605
225	-0.599
225	-0.59
226	-0.582
226	-0.571
227	-0.561
227	-0.55
228	-0.534
228	-0.519
229	-0.499
229	-0.478
229	-0.455
230	-0.428
230	-0.399
231	-0.369
231	-0.336
232	-0.303
232	-0.267
233	-0.23
233	-0.191
234	-0.154
234	-0.118
235	-0.082
235	-0.047
236	-0.014
236	0.017
236	0.047
237	0.074
237	0.098
238	0.121
238	0.141
239	0.161
239	0.177
240	0.192
240	0.206
241	0.219
241	0.23
242	0.24
242	0.25
243	0.259
243	0.266
243	0.273
244	0.28
244	0.286
245	0.291
245	0.296
246	0.301
246	0.305
247	0.309
247	0.312
248	0.316
248	0.32
249	0.323
249	0.326
250	0.329
250	0.332
250	0.335
251	0.337
251	0.34
252	0.343
252	0.345
253	0.347
253	0.349
254	0.351
254	0.353
255	0.354
255	0.356
256	0.358
256	0.359
257	0.36
257	0.361
258	0.362
258	0.362
258	0.363
259	0.364
259	0.364
260	0.364
260	0.364
261	0.364
261	0.365
262	0.365
262	0.364
263	0.364
263	0.364
264	0.364
264	0.363
265	0.363
265	0.362
265	0.361
266	0.36
266	0.359
267	0.358
267	0.357
268	0.356
268	0.354
269	0.353
269	0.351
270	0.349
270	0.348
271	0.346
271	0.344
272	0.342
272	0.34
272	0.338
273	0.336
273	0.334
274	0.333
274	0.33
275	0.329
275	0.327
276	0.325
276	0.323
277	0.321
277	0.318
278	0.316
278	0.314
278	0.312
279	0.309
279	0.307
280	0.304
280	0.302
281	0.3
281	0.298
282	0.296
282	0.294
283	0.292
283	0.29
284	0.288
284	0.287
285	0.285
285	0.283
285	0.281
286	0.279
286	0.277
287	0.276
287	0.274
288	0.272
288	0.271
289	0.269
289	0.267
290	0.266
290	0.265
291	0.263
291	0.262
292	0.261
292	0.26
292	0.258
293	0.257
293	0.256
294	0.255
294	0.253
295	0.252
295	0.251
296	0.25
296	0.249
297	0.248
297	0.248
298	0.247
298	0.246
298	0.245
299	0.245
299	0.244
300	0.243
300	0.242
301	0.242
301	0.241
302	0.24
302	0.24
303	0.239
303	0.238
304	0.237
304	0.237
305	0.236
305	0.236
305	0.235
306	0.234
306	0.234
307	0.233
307	0.232
308	0.231
308	0.231
309	0.23
309	0.229
310	0.229
310	0.228
311	0.228
311	0.227
311	0.227
312	0.226
312	0.226
313	0.225
313	0.225
314	0.224
314	0.223
315	0.223
315	0.222
316	0.221
316	0.221
317	0.22
317	0.219
318	0.219
318	0.218
318	0.218
319	0.217
319	0.216
320	0.216
320	0.215
321	0.214
321	0.214
322	0.213
322	0.213
323	0.212
323	0.211
324	0.211
324	0.21
324	0.21
325	0.209
325	0.209
326	0.208
326	0.208
327	0.207
327	0.206
328	0.206
328	0.205
329	0.205
329	0.204
330	0.204
330	0.203
330	0.202
331	0.202
331	0.201
332	0.201
332	0.2
333	0.2
333	0.199
334	0.199
334	0.198
335	0.198
335	0.197
336	0.197
336	0.196
336	0.196
337	0.196
337	0.195
338	0.195
338	0.194
339	0.194
339	0.193
340	0.193
340	0.193
341	0.192
341	0.192
342	0.191
342	0.191
342	0.19
343	0.19
343	0.19
344	0.189
344	0.189
345	0.189
345	0.188
346	0.188
346	0.188
347	0.187
347	0.187
348	0.187
348	0.186
348	0.186
349	0.186
349	0.185
350	0.185
350	0.185
351	0.184
351	0.184
352	0.184
352	0.183
353	0.183
353	0.183
354	0.183
354	0.182
354	0.182
355	0.182
355	0.181
356	0.181
356	0.181
357	0.18
357	0.18
358	0.18
358	0.18
359	0.18
359	0.18
360	0.18
360	0.18
360	0.18
361	0.18
361	0.18
362	0.181
362	0.181
363	0.181
363	0.18
364	0.18
364	0.18
365	0.18
365	0.18
366	0.18
366	0.18
366	0.18
367	0.18
367	0.179
368	0.179
368	0.179
369	0.179
369	0.179
370	0.178
370	0.178
371	0.178
371	0.178
372	0.177
372	0.177
372	0.177
373	0.177
373	0.177
374	0.177
374	0.177
375	0.177
375	0.177
376	0.177
376	0.177
377	0.177
377	0.178
378	0.178
378	0.178
378	0.178
379	0.177
379	0.177
380	0.177
380	0.177
381	0.177
381	0.177
382	0.177
382	0.176
383	0.176
383	0.176
383	0.175
384	0.175
384	0.175
385	0.175
385	0.175
386	0.174
386	0.174
387	0.174
387	0.174
388	0.174
388	0.174
389	0.174
389	0.174
389	0.174
390	0.174
390	0.174
391	0.174
391	0.174
392	0.174
392	0.174
393	0.174
393	0.174
394	0.174
394	0.174
394	0.174
395	0.173
395	0.173
396	0.173
396	0.173
397	0.172
397	0.172
398	0.172
398	0.172
399	0.172
399	0.171
400	0.171
400	0.171
400	0.171
401	0.171
401	0.17
402	0.17
402	0.17
403	0.169
403	0.169
404	0.169
404	0.169
405	0.169
405	0.169
405	0.169
406	0.169
406	0.169
407	0.169
407	0.169
408	0.168
408	0.168
409	0.168
409	0.168
410	0.168
410	0.168
411	0.168
411	0.168
411	0.168
412	0.168
412	0.167
413	0.167
413	0.167
414	0.167
414	0.167
415	0.166
415	0.166
416	0.166
416	0.166
416	0.165
417	0.165
417	0.165
418	0.165
418	0.165
419	0.166
419	0.166
420	0.166
420	0.166
421	0.167
421	0.167
421	0.167
422	0.167
422	0.167
423	0.167
423	0.167
424	0.167
424	0.167
425	0.167
425	0.166
426	0.166
426	0.166
427	0.166
427	0.166
427	0.166
428	0.166
428	0.166
429	0.166
429	0.166
430	0.166
430	0.166
431	0.166
431	0.166
432	0.166
432	0.165
432	0.165
433	0.165
433	0.164
434	0.164
434	0.165
435	0.165
435	0.165
436	0.165
436	0.165
437	0.165
437	0.165
437	0.165
438	0.165
438	0.165
439	0.165
439	0.164
440	0.164
440	0.164
441	0.164
441	0.163
442	0.163
442	0.163
442	0.164
443	0.164
443	0.163
444	0.163
444	0.164
445	0.164
445	0.164
446	0.164
446	0.164
447	0.164
447	0.164
447	0.164
448	0.164
448	0.164
449	0.164
449	0.164
450	0.164
450	0.164
451	0.165
451	0.165
452	0.165
452	0.164
452	0.164
453	0.164
453	0.164
454	0.163
454	0.163
455	0.163
455	0.163
456	0.163
456	0.163
457	0.163
457	0.163
458	0.163
458	0.163
458	0.164
459	0.164
459	0.164
460	0.164
460	0.164
461	0.164
461	0.164
462	0.164
462	0.165
463	0.165
463	0.166
463	0.166
464	0.166
464	0.166
465	0.166
465	0.167
466	0.167
466	0.167
467	0.167
467	0.167
467	0.166
468	0.166
468	0.165
469	0.165
469	0.165
470	0.165
470	0.165
471	0.165
471	0.165
472	0.165
472	0.166
472	0.167
473	0.167
473	0.168
474	0.169
474	0.169
475	0.17
475	0.17
476	0.171
476	0.171
477	0.172
477	0.172
477	0.173
478	0.173
478	0.173
479	0.173
479	0.174
480	0.174
480	0.175
481	0.176
481	0.176
482	0.177
482	0.178
482	0.179
483	0.18
483	0.182
484	0.184
484	0.185
485	0.186
485	0.187
486	0.188
486	0.188
487	0.189
487	0.19
487	0.19
488	0.191
488	0.19
489	0.19
489	0.191
490	0.191
490	0.192
491	0.193
491	0.194
492	0.195
492	0.195
492	0.196
493	0.197
493	0.198
494	0.2
494	0.202
495	0.203
495	0.204
496	0.206
496	0.207
496	0.208
497	0.209
497	0.211
498	0.212
498	0.213
499	0.214
499	0.215
500	0.216
500	0.218
501	0.219
501	0.221
501	0.222
502	0.224
502	0.225
503	0.227
503	0.228
504	0.229
504	0.23
505	0.231
505	0.233
506	0.234
506	0.235
506	0.236
507	0.237
507	0.239
508	0.24
508	0.241
509	0.242
509	0.243
510	0.244
510	0.245
511	0.246
511	0.247
511	0.248
512	0.249
512	0.25
513	0.251
513	0.251
514	0.251
514	0.252
515	0.253
515	0.253
515	0.253
516	0.254
516	0.255
517	0.255
517	0.256
518	0.256
518	0.256
519	0.256
519	0.256
520	0.255
520	0.255
520	0.255
521	0.254
521	0.253
522	0.253
522	0.252
523	0.252
523	0.253
524	0.253
524	0.253
524	0.254
525	0.254
525	0.255
526	0.256
526	0.256
527	0.257
527	0.257
528	0.257
528	0.257
529	0.256
529	0.256
529	0.255
530	0.255
530	0.254
531	0.254
531	0.253
532	0.252
532	0.251
533	0.25
533	0.249
533	0.249
534	0.248
534	0.246
535	0.245
535	0.244
536	0.243
536	0.242
537	0.241
537	0.239
538	0.238
538	0.236
538	0.235
539	0.234
539	0.233
540	0.231
540	0.229
541	0.228
541	0.226
542	0.225
542	0.223
542	0.221
543	0.22
543	0.218
544	0.216
544	0.214
545	0.213
545	0.212
546	0.211
546	0.209
547	0.207
547	0.205
547	0.204
548	0.202
548	0.201
549	0.199
549	0.197
550	0.196
550	0.194
551	0.192
551	0.189
551	0.188
552	0.186
552	0.185
553	0.183
553	0.182
554	0.18
554	0.178
555	0.176
555	0.173
556	0.171
556	0.169
556	0.166
557	0.164
557	0.162
558	0.16
558	0.157
559	0.156
559	0.154
560	0.153
560	0.151
560	0.15
561	0.149
561	0.148
562	0.147
562	0.145
563	0.143
563	0.141
564	0.139
564	0.138
564	0.136
565	0.135
565	0.133
566	0.132
566	0.13
567	0.129
567	0.129
568	0.128
568	0.128
568	0.127
569	0.128
569	0.128
570	0.127
570	0.126
571	0.126
571	0.125
572	0.125
572	0.124
573	0.123
573	0.122
573	0.121
574	0.12
574	0.119
575	0.118
575	0.119
576	0.118
576	0.116
577	0.115
577	0.114
577	0.113
578	0.112
578	0.111
579	0.112
579	0.112
580	0.11
580	0.107
581	0.105
581	0.103
581	0.103
582	0.103
582	0.102
583	0.102
583	0.101
584	0.099
584	0.096
585	0.096
585	0.096
585	0.096
586	0.096
586	0.095
587	0.093
587	0.092
588	0.09
588	0.089
589	0.088
589	0.088
590	0.087
590	0.086
590	0.087
591	0.087
591	0.087
592	0.086
592	0.086
593	0.086
593	0.086
594	0.085
594	0.084
594	0.084
595	0.083
595	0.082
596	0.082
596	0.083
597	0.085
597	0.085
598	0.086
598	0.086
598	0.086
599	0.086
599	0.086
600	0.085
600	0.084
601	0.083
601	0.082
602	0.081
602	0.08
602	0.079
603	0.079
603	0.079
604	0.079
604	0.08
605	0.081
605	0.082
606	0.081
606	0.081
606	0.08
607	0.08
607	0.08
608	0.08
608	0.079
609	0.078
609	0.078
610	0.078
610	0.077
610	0.078
611	0.079
611	0.08
612	0.081
612	0.082
613	0.083
613	0.085
614	0.085
614	0.085
614	0.085
615	0.085
615	0.085
616	0.085
616	0.085
617	0.085
617	0.084
618	0.083
618	0.083
618	0.083
619	0.083
619	0.084
620	0.085
620	0.085
621	0.085
621	0.086
622	0.086
622	0.086
622	0.086
623	0.086
623	0.087
624	0.087
624	0.087
625	0.087
625	0.088
626	0.088
626	0.089
626	0.09
627	0.091
627	0.092
628	0.093
628	0.093
629	0.094
629	0.094
630	0.094
630	0.094
630	0.094
631	0.095
631	0.095
632	0.095
632	0.095
633	0.096
633	0.097
634	0.098
634	0.1
634	0.101
635	0.102
635	0.103
636	0.104
636	0.105
637	0.106
637	0.107
638	0.108
638	0.109
638	0.11
639	0.11
639	0.11
640	0.111
640	0.112
641	0.113
641	0.114
642	0.116
642	0.117
642	0.118
643	0.12
643	0.121
644	0.122
644	0.124
645	0.126
645	0.128
646	0.13
646	0.132
646	0.135
647	0.138
647	0.14
648	0.143
648	0.145
649	0.148
649	0.151
650	0.153
650	0.156
650	0.158
651	0.16
651	0.162
652	0.163
652	0.165
653	0.167
653	0.173
653	0.178
654	0.142
654	0.115
655	0.117
655	0.119
656	0.121
656	0.122
657	0.124
657	0.126
657	0.127
658	0.125
658	0.12
659	0.151
659	0.195
660	0.202
660	0.204
661	0.206
661	0.208
661	0.211
662	0.213
662	0.216
663	0.219
663	0.221
664	0.223
664	0.225
665	0.228
665	0.23
665	0.232
666	0.234
666	0.236
667	0.238
667	0.24
668	0.242
668	0.244
669	0.246
669	0.249
669	0.252
670	0.254
670	0.256
671	0.258
671	0.26
672	0.261
672	0.263
672	0.265
673	0.267
673	0.268
674	0.27
674	0.271
675	0.273
675	0.274
676	0.277
676	0.279
676	0.28
677	0.282
677	0.283
678	0.284
678	0.284
679	0.285
679	0.286
680	0.287
680	0.288
680	0.289
681	0.289
681	0.291
682	0.292
682	0.293
683	0.294
683	0.296
684	0.297
684	0.298
684	0.298
685	0.298
685	0.298
686	0.298
686	0.298
687	0.297
687	0.297
687	0.297
688	0.296
688	0.296
689	0.297
689	0.297
690	0.298
690	0.298
691	0.298
691	0.299
691	0.299
692	0.298
692	0.297
693	0.297
693	0.297
694	0.296
694	0.294
695	0.294
695	0.294
695	0.293
696	0.292
696	0.291
697	0.29
697	0.289
698	0.288
698	0.286
698	0.284
699	0.283
699	0.28
700	0.278
700	0.276
701	0.274
701	0.273
702	0.271
702	0.269
702	0.267
703	0.265
703	0.263
704	0.262
704	0.26
705	0.259
705	0.257
705	0.256
706	0.254
706	0.253
707	0.252
707	0.25
708	0.248
708	0.247
709	0.246
709	0.244
709	0.242
710	0.239
710	0.238
711	0.236
711	0.234
712	0.233
712	0.231
713	0.229
713	0.227
713	0.225
714	0.223
714	0.22
715	0.218
715	0.216
716	0.213
716	0.211
716	0.208
717	0.206
717	0.204
718	0.201
718	0.198
719	0.197
719	0.195
720	0.193
720	0.191
720	0.189
721	0.186
721	0.184
722	0.182
722	0.18
723	0.178
723	0.176
723	0.175
724	0.173
724	0.171
725	0.169
725	0.168
726	0.166
726	0.165
727	0.163
727	0.162
727	0.16
728	0.158
728	0.156
729	0.155
729	0.154
730	0.151
730	0.149
730	0.147
731	0.146
731	0.144
732	0.143
732	0.142
733	0.141
733	0.139
734	0.138
734	0.137
734	0.136
735	0.135
735	0.134
736	0.133
736	0.132
737	0.13
737	0.129
737	0.127
738	0.125
738	0.122
739	0.12
739	0.118
740	0.116
740	0.114
741	0.113
741	0.111
741	0.109
742	0.106
742	0.105
743	0.104
743	0.102
744	0.101
744	0.1
744	0.099
745	0.097
745	0.095
746	0.094
746	0.093
747	0.092
747	0.091
748	0.09
748	0.09
748	0.089
749	0.088
749	0.087
750	0.087
750	0.086
751	0.086
751	0.086
751	0.086
752	0.085
752	0.085
753	0.084
753	0.084
754	0.084
754	0.083
754	0.083
755	0.083
755	0.083
756	0.082
756	0.081
757	0.08
757	0.08
758	0.079
758	0.078
758	0.078
759	0.078
759	0.076
760	0.074
760	0.073
761	0.071
761	0.07
761	0.069
762	0.067
762	0.066
763	0.064
763	0.062
764	0.059
764	0.057
764	0.056
765	0.054
765	0.052
766	0.051
766	0.05
767	0.049
767	0.047
768	0.045
768	0.043
768	0.042
769	0.041
769	0.04
770	0.039
770	0.038
771	0.036
771	0.033
771	0.031
772	0.029
772	0.028
773	0.026
773	0.024
774	0.021
774	0.019
775	0.017
775	0.015
775	0.013
776	0.012
776	0.01
777	0.009
777	0.008
778	0.006
778	0.004
778	0.002
779	0.001
779	-0
780	-0.003
780	-0.005
781	-0.008
781	-0.011
781	-0.014
782	-0.018
782	-0.022
783	-0.026
783	-0.03
784	-0.035
784	-0.04
784	-0.044
785	-0.049
785	-0.055
786	-0.059
786	-0.063
787	-0.066
787	-0.07
788	-0.076
788	-0.082
788	-0.089
789	-0.096
789	-0.1
790	-0.103
790	-0.107
791	-0.111
791	-0.115
791	-0.118
792	-0.113
792	-0.104
793	-0.099
793	-0.095
794	-0.094
794	-0.096
794	-0.1
795	-0.103
795	-0.103
796	-0.103
796	-0.106
797	-0.115
797	-0.126
797	-0.132
798	-0.138
798	-0.141
799	-0.142
799	-0.141
800	-0.141
800	-0.142
801	-0.145
801	-0.146
801	-0.145
802	-0.146
802	-0.147
803	-0.148
803	-0.148
804	-0.147
804	-0.142
804	-0.135
805	-0.132
805	-0.13
806	-0.128
806	-0.127
807	-0.127
807	-0.127
807	-0.127
808	-0.127
808	-0.129
809	-0.133
809	-0.139
810	-0.143
810	-0.146
810	-0.149
811	-0.152
811	-0.153
812	-0.149
812	-0.145
813	-0.145
813	-0.146
813	-0.147
814	-0.149
814	-0.149
815	-0.147
815	-0.143
816	-0.139
816	-0.135
817	-0.134
817	-0.131
817	-0.124
818	-0.116
818	-0.105
819	-0.093
819	-0.083
820	-0.074
820	-0.066
820	-0.058
821	-0.05
821	-0.043
822	-0.037
822	-0.031
823	-0.026
823	-0.023
823	-0.019
824	-0.015
824	-0.011
825	-0.007
825	-0.003
826	0.001
826	0.003
826	0.005
827	0.008
827	0.01
828	0.011
828	0.013
829	0.014
829	0.015
829	0.015
830	0.016
830	0.016
831	0.018
831	0.018
832	0.019
832	0.019
832	0.02
833	0.02
833	0.021
834	0.021
834	0.022
835	0.022
835	0.021
835	0.021
836	0.021
836	0.022
837	0.022
837	0.022
838	0.023
838	0.023
839	0.023
839	0.023
839	0.024
840	0.024
840	0.024
841	0.024
841	0.024
842	0.025
842	0.025
842	0.025
843	0.025
843	0.025
844	0.025
844	0.025
845	0.025
845	0.025
845	0.025
846	0.025
846	0.025
847	0.025
847	0.025
848	0.025
848	0.025
848	0.026
849	0.026
849	0.027
850	0.027
850	0.028
851	0.028
851	0.029
851	0.029
852	0.029
852	0.029
853	0.028
853	0.027
854	0.027
854	0.027
854	0.026
855	0.026
855	0.025
856	0.024
856	0.024
857	0.024
857	0.024
857	0.024
858	0.024
858	0.024
859	0.024
859	0.025
860	0.025
860	0.026
860	0.026
861	0.027
861	0.028
862	0.028
862	0.028
863	0.029
863	0.029
863	0.03
864	0.03
864	0.03
865	0.031
865	0.032
866	0.033
866	0.033
866	0.034
867	0.035
867	0.036
868	0.036
868	0.036
869	0.036
869	0.036
869	0.035
870	0.034
870	0.034
871	0.033
871	0.032
872	0.032
872	0.031
872	0.031
873	0.031
873	0.031
874	0.031
874	0.031
875	0.031
875	0.03
875	0.03
876	0.029
876	0.028
877	0.027
877	0.026
878	0.025
878	0.024
878	0.024
879	0.023
879	0.023
880	0.022
880	0.022
881	0.022
881	0.022
881	0.023
882	0.023
882	0.023
883	0.023
883	0.023
884	0.023
884	0.022
884	0.022
885	0.022
885	0.021
886	0.021
886	0.022
887	0.022
887	0.022
887	0.022
888	0.022
888	0.023
889	0.024
889	0.025
890	0.026
890	0.026
890	0.026
891	0.027
891	0.027
892	0.027
892	0.028
893	0.028
893	0.029
893	0.029
894	0.029
894	0.029
895	0.028
895	0.028
895	0.028
896	0.027
896	0.027
897	0.027
897	0.027
898	0.027
898	0.027
898	0.026
899	0.026
899	0.026
900	0.026
900	0.026
901	0.026
901	0.026
901	0.027
902	0.027
902	0.027
903	0.028
903	0.028
904	0.029
904	0.029
904	0.03
905	0.03
905	0.031
906	0.031
906	0.031
907	0.031
907	0.031
907	0.031
908	0.031
908	0.031
909	0.032
909	0.032
910	0.032
910	0.033
910	0.033
911	0.033
911	0.033
912	0.033
912	0.032
913	0.032
913	0.032
913	0.031
914	0.03
914	0.03
915	0.029
915	0.029
916	0.028
916	0.027
916	0.026
917	0.025
917	0.024
918	0.023
918	0.022
918	0.021
919	0.02
919	0.019
920	0.018
920	0.018
921	0.017
921	0.017
921	0.017
922	0.017
922	0.017
923	0.018
923	0.018
924	0.018
924	0.019
924	0.019
925	0.02
925	0.02
926	0.021
926	0.021
927	0.021
927	0.021
927	0.021
928	0.021
928	0.021
929	0.02
929	0.02
930	0.019
930	0.019
930	0.018
931	0.017
931	0.017
932	0.016
932	0.016
933	0.016
933	0.015
933	0.015
934	0.015
934	0.014
935	0.014
935	0.014
935	0.013
936	0.012
936	0.012
937	0.011
937	0.011
938	0.011
938	0.011
938	0.011
939	0.011
939	0.011
940	0.012
940	0.012
941	0.013
941	0.014
941	0.015
942	0.016
942	0.017
943	0.017
943	0.018
944	0.018
944	0.019
944	0.019
945	0.02
945	0.02
946	0.021
946	0.021
946	0.021
947	0.022
947	0.022
948	0.023
948	0.023
949	0.024
949	0.024
949	0.025
950	0.025
950	0.026
951	0.026
951	0.026
952	0.026
952	0.026
952	0.025
953	0.025
953	0.025
954	0.024
954	0.023
955	0.023
955	0.022
955	0.022
956	0.022
956	0.022
957	0.022
957	0.022
957	0.022
958	0.022
958	0.022
959	0.022
959	0.022
960	0.022
960	0.022
960	0.022
961	0.023
961	0.023
962	0.023
962	0.024
963	0.024
963	0.025
963	0.025
964	0.026
964	0.026
965	0.026
965	0.026
966	0.026
966	0.026
966	0.026
967	0.025
967	0.024
968	0.023
968	0.023
968	0.022
969	0.021
969	0.02
970	0.019
970	0.018
971	0.018
971	0.017
971	0.017
972	0.017
972	0.017
973	0.017
973	0.017
974	0.017
974	0.018
974	0.018
975	0.019
975	0.02
976	0.021
976	0.022
976	0.023
977	0.023
977	0.024
978	0.025
978	0.026
979	0.026
979	0.026
979	0.026
980	0.026
980	0.025
981	0.024
981	0.023
982	0.022
982	0.022
982	0.02
983	0.019
983	0.018
984	0.017
984	0.016
984	0.015
985	0.014
985	0.013
986	0.012
986	0.011
987	0.01
987	0.009
987	0.009
988	0.009
988	0.009
989	0.009
989	0.009
990	0.01
990	0.01
990	0.011
991	0.012
991	0.013
992	0.014
992	0.015
992	0.016
993	0.016
993	0.017
994	0.017
994	0.017
995	0.017
995	0.018
995	0.017
996	0.017
996	0.016
997	0.016
997	0.016
997	0.016
998	0.016
998	0.016
999	0.017
999	0.017
1000	0.018
1000	0.019
1000	0.019
1001	0.02
1001	0.021
1002	0.022
1002	0.022
1003	0.023
1003	0.023
1003	0.023
1004	0.022
1004	0.022
1005	0.022
1005	0.021
1005	0.02
1006	0.02
1006	0.019
1007	0.018
1007	0.018
1008	0.017
1008	0.017
1008	0.017
1009	0.016
1009	0.017
1010	0.016
1010	0.017
1010	0.017
1011	0.017
1011	0.017
1012	0.016
1012	0.016
1013	0.016
1013	0.015
1013	0.015
1014	0.013
1014	0.013
1015	0.012
1015	0.011
1016	0.01
1016	0.009
1016	0.008
1017	0.007
1017	0.006
1018	0.005
1018	0.004
1018	0.004
1019	0.003
1019	0.003
1020	0.002
1020	0.002
1021	0.002
1021	0.002
1021	0.002
1022	0.002
1022	0.003
1023	0.003
1023	0.003
1023	0.004
1024	0.004
1024	0.004
1025	0.004
1025	0.004
1026	0.004
1026	0.004
1026	0.004
1027	0.004
1027	0.004
1028	0.004
1028	0.004
1028	0.004
1029	0.004
1029	0.003
1030	0.003
1030	0.003
1031	0.003
1031	0.002
1031	0.002
1032	0.002
1032	0.002
1033	0.002
1033	0.002
1033	0.002
1034	0.002
1034	0.002
1035	0.002
1035	0.001
1036	0.001
1036	0.001
1036	0.001
1037	0.001
1037	0.001
1038	0.001
1038	0.002
1039	0.002
1039	0.002
1039	0.003
1040	0.003
1040	0.004
1041	0.005
1041	0.006
1041	0.006
1042	0.007
1042	0.007
1043	0.008
1043	0.009
1044	0.01
1044	0.011
1044	0.012
1045	0.012
1045	0.012
1046	0.012
1046	0.012
1046	0.013
1047	0.013
1047	0.013
1048	0.013
1048	0.012
1049	0.011
1049	0.011
1049	0.01
1050	0.009
1050	0.008
1051	0.007
1051	0.007
1051	0.006
1052	0.005
1052	0.004
1053	0.004
1053	0.003
1053	0.002
1054	0.001
1054	0
1055	-0
1055	-0.001
1056	-0.003
1056	-0.004
1056	-0.005
1057	-0.006
1057	-0.007
1058	-0.007
1058	-0.008
1058	-0.008
1059	-0.008
1059	-0.009
1060	-0.009
1060	-0.009
1061	-0.009
1061	-0.009
1061	-0.008
1062	-0.008
1062	-0.008
1063	-0.008
1063	-0.008
1063	-0.008
1064	-0.007
1064	-0.007
1065	-0.006
1065	-0.006
1066	-0.005
1066	-0.005
1066	-0.004
1067	-0.003
1067	-0.003
1068	-0.003
1068	-0.003
1068	-0.003
1069	-0.004
1069	-0.005
1070	-0.006
1070	-0.007
1071	-0.007
1071	-0.008
1071	-0.009
1072	-0.011
1072	-0.012
1073	-0.013
1073	-0.013
1073	-0.014
1074	-0.015
1074	-0.015
1075	-0.016
1075	-0.017
1076	-0.018
1076	-0.018
1076	-0.019
1077	-0.019
1077	-0.019
1078	-0.019
1078	-0.019
1078	-0.019
1079	-0.018
1079	-0.017
1080	-0.017
1080	-0.016
1080	-0.016
1081	-0.015
1081	-0.014
1082	-0.014
1082	-0.013
1083	-0.013
1083	-0.013
1083	-0.012
1084	-0.012
1084	-0.012
1085	-0.012
1085	-0.011
1085	-0.011
1086	-0.011
1086	-0.011
1087	-0.01
1087	-0.009
1088	-0.01
1088	-0.009
1088	-0.009
1089	-0.009
1089	-0.01
1090	-0.01
1090	-0.011
1090	-0.011
1091	-0.011
1091	-0.011
1092	-0.011
1092	-0.011
1092	-0.011
1093	-0.011
1093	-0.01
1094	-0.01
1094	-0.01
1095	-0.011
1095	-0.011
1095	-0.009
1096	-0.009
1096	-0.008
1097	-0.008
1097	-0.007
1097	-0.006
1098	-0.005
1098	-0.004
1099	-0.002
1099	0.001
1100	0.002
1100	0.003
1100	0.005
1101	0.005
1101	0.006
1102	0.008
1102	0.009
1102	0.011
1103	0.012
1103	0.014
1104	0.018
1104	0.021
1104	0.026
1105	0.029
1105	0.032
1106	0.035
1106	0.04
1107	0.044
1107	0.052
1107	0.06
1108	0.09
1108	0.129
1109	0.181
1109	0.26
1109	0.322
1110	0.438
1110	0.69
1111	-0
1111	-0
