Data from 17c-2a_Absorbance__891__00892.txt Node

Date: Fri Jan 26 10:17:13 CET 2024
User: Marek
Spectrometer: MAYP115816
Trigger mode: 0
Integration Time (sec): 2.000000E-1
Scans to average: 10
Electric dark correction enabled: true
Nonlinearity correction enabled: true
Boxcar width: 5
XAxis mode: Wavelengths
Number of Pixels in Spectrum: 2068
>>>>>Begin Spectral Data<<<<<
199	-1.283
199	-1.154
200	-1.013
200	-0.907
201	-0.841
201	-0.801
202	-0.742
202	-0.697
203	-0.661
203	-0.63
204	-0.608
204	-0.587
205	-0.567
205	-0.559
205	-0.557
206	-0.554
206	-0.553
207	-0.549
207	-0.549
208	-0.549
208	-0.548
209	-0.545
209	-0.544
210	-0.546
210	-0.546
211	-0.547
211	-0.549
212	-0.55
212	-0.55
213	-0.549
213	-0.545
213	-0.545
214	-0.543
214	-0.541
215	-0.536
215	-0.534
216	-0.531
216	-0.53
217	-0.527
217	-0.525
218	-0.521
218	-0.52
219	-0.517
219	-0.516
220	-0.516
220	-0.517
221	-0.515
221	-0.514
221	-0.51
222	-0.504
222	-0.501
223	-0.497
223	-0.496
224	-0.491
224	-0.484
225	-0.478
225	-0.471
226	-0.463
226	-0.452
227	-0.444
227	-0.435
228	-0.421
228	-0.407
229	-0.389
229	-0.37
229	-0.349
230	-0.325
230	-0.3
231	-0.274
231	-0.246
232	-0.218
232	-0.187
233	-0.156
233	-0.125
234	-0.096
234	-0.067
235	-0.039
235	-0.015
236	0.01
236	0.032
236	0.053
237	0.072
237	0.089
238	0.104
238	0.117
239	0.13
239	0.141
240	0.151
240	0.16
241	0.168
241	0.176
242	0.182
242	0.188
243	0.194
243	0.199
243	0.204
244	0.208
244	0.212
245	0.216
245	0.219
246	0.223
246	0.226
247	0.229
247	0.232
248	0.234
248	0.237
249	0.24
249	0.242
250	0.244
250	0.246
250	0.249
251	0.251
251	0.253
252	0.255
252	0.257
253	0.259
253	0.26
254	0.262
254	0.263
255	0.265
255	0.266
256	0.267
256	0.269
257	0.27
257	0.271
258	0.271
258	0.272
258	0.273
259	0.273
259	0.273
260	0.274
260	0.273
261	0.274
261	0.274
262	0.274
262	0.273
263	0.273
263	0.273
264	0.273
264	0.272
265	0.272
265	0.271
265	0.27
266	0.269
266	0.268
267	0.267
267	0.266
268	0.265
268	0.263
269	0.262
269	0.26
270	0.259
270	0.257
271	0.255
271	0.254
272	0.252
272	0.251
272	0.249
273	0.247
273	0.245
274	0.243
274	0.242
275	0.24
275	0.238
276	0.236
276	0.234
277	0.232
277	0.23
278	0.228
278	0.226
278	0.224
279	0.222
279	0.22
280	0.218
280	0.216
281	0.214
281	0.211
282	0.209
282	0.208
283	0.206
283	0.204
284	0.203
284	0.201
285	0.2
285	0.198
285	0.196
286	0.194
286	0.193
287	0.191
287	0.19
288	0.188
288	0.187
289	0.185
289	0.184
290	0.183
290	0.182
291	0.181
291	0.179
292	0.178
292	0.177
292	0.176
293	0.175
293	0.174
294	0.173
294	0.173
295	0.172
295	0.171
296	0.17
296	0.169
297	0.169
297	0.168
298	0.168
298	0.167
298	0.166
299	0.166
299	0.165
300	0.165
300	0.164
301	0.164
301	0.163
302	0.163
302	0.163
303	0.162
303	0.162
304	0.161
304	0.161
305	0.16
305	0.16
305	0.159
306	0.159
306	0.158
307	0.158
307	0.157
308	0.157
308	0.156
309	0.156
309	0.155
310	0.155
310	0.155
311	0.154
311	0.154
311	0.154
312	0.153
312	0.153
313	0.153
313	0.152
314	0.152
314	0.152
315	0.151
315	0.151
316	0.15
316	0.15
317	0.15
317	0.149
318	0.149
318	0.148
318	0.148
319	0.147
319	0.147
320	0.146
320	0.146
321	0.145
321	0.145
322	0.144
322	0.144
323	0.143
323	0.143
324	0.143
324	0.142
324	0.142
325	0.142
325	0.141
326	0.141
326	0.141
327	0.14
327	0.14
328	0.139
328	0.139
329	0.139
329	0.138
330	0.138
330	0.138
330	0.137
331	0.137
331	0.137
332	0.136
332	0.136
333	0.136
333	0.135
334	0.135
334	0.135
335	0.134
335	0.134
336	0.134
336	0.133
336	0.133
337	0.133
337	0.132
338	0.132
338	0.131
339	0.131
339	0.131
340	0.13
340	0.13
341	0.13
341	0.13
342	0.129
342	0.129
342	0.129
343	0.129
343	0.129
344	0.129
344	0.128
345	0.128
345	0.128
346	0.128
346	0.127
347	0.127
347	0.127
348	0.126
348	0.126
348	0.126
349	0.126
349	0.125
350	0.125
350	0.125
351	0.125
351	0.125
352	0.124
352	0.124
353	0.124
353	0.124
354	0.124
354	0.124
354	0.124
355	0.124
355	0.124
356	0.123
356	0.123
357	0.123
357	0.123
358	0.122
358	0.122
359	0.122
359	0.122
360	0.122
360	0.122
360	0.122
361	0.122
361	0.122
362	0.123
362	0.122
363	0.123
363	0.122
364	0.122
364	0.122
365	0.122
365	0.122
366	0.123
366	0.123
366	0.123
367	0.123
367	0.123
368	0.122
368	0.122
369	0.122
369	0.122
370	0.122
370	0.121
371	0.121
371	0.121
372	0.121
372	0.121
372	0.121
373	0.121
373	0.121
374	0.121
374	0.121
375	0.121
375	0.121
376	0.121
376	0.122
377	0.122
377	0.122
378	0.122
378	0.122
378	0.122
379	0.122
379	0.122
380	0.121
380	0.121
381	0.121
381	0.121
382	0.121
382	0.121
383	0.121
383	0.121
383	0.121
384	0.12
384	0.12
385	0.12
385	0.12
386	0.12
386	0.12
387	0.12
387	0.12
388	0.12
388	0.12
389	0.12
389	0.12
389	0.12
390	0.12
390	0.12
391	0.12
391	0.12
392	0.12
392	0.12
393	0.121
393	0.121
394	0.12
394	0.12
394	0.12
395	0.12
395	0.12
396	0.12
396	0.12
397	0.12
397	0.12
398	0.119
398	0.119
399	0.119
399	0.119
400	0.119
400	0.118
400	0.118
401	0.118
401	0.118
402	0.118
402	0.118
403	0.117
403	0.117
404	0.118
404	0.118
405	0.118
405	0.118
405	0.118
406	0.118
406	0.118
407	0.118
407	0.118
408	0.118
408	0.117
409	0.117
409	0.117
410	0.118
410	0.117
411	0.117
411	0.117
411	0.117
412	0.117
412	0.117
413	0.117
413	0.117
414	0.117
414	0.117
415	0.117
415	0.116
416	0.116
416	0.116
416	0.116
417	0.116
417	0.116
418	0.116
418	0.116
419	0.116
419	0.117
420	0.117
420	0.117
421	0.117
421	0.117
421	0.117
422	0.118
422	0.118
423	0.117
423	0.117
424	0.117
424	0.117
425	0.117
425	0.116
426	0.117
426	0.117
427	0.116
427	0.116
427	0.117
428	0.117
428	0.117
429	0.117
429	0.117
430	0.117
430	0.117
431	0.117
431	0.117
432	0.117
432	0.117
432	0.116
433	0.116
433	0.116
434	0.116
434	0.116
435	0.117
435	0.117
436	0.117
436	0.117
437	0.117
437	0.117
437	0.117
438	0.117
438	0.117
439	0.116
439	0.116
440	0.116
440	0.116
441	0.116
441	0.116
442	0.116
442	0.116
442	0.116
443	0.116
443	0.116
444	0.116
444	0.116
445	0.117
445	0.117
446	0.117
446	0.117
447	0.117
447	0.117
447	0.117
448	0.117
448	0.117
449	0.117
449	0.117
450	0.117
450	0.117
451	0.117
451	0.117
452	0.117
452	0.117
452	0.117
453	0.117
453	0.117
454	0.116
454	0.116
455	0.116
455	0.117
456	0.117
456	0.116
457	0.116
457	0.116
458	0.116
458	0.117
458	0.117
459	0.118
459	0.117
460	0.117
460	0.117
461	0.117
461	0.117
462	0.118
462	0.118
463	0.118
463	0.119
463	0.119
464	0.119
464	0.119
465	0.12
465	0.12
466	0.12
466	0.12
467	0.12
467	0.12
467	0.12
468	0.119
468	0.119
469	0.119
469	0.119
470	0.119
470	0.119
471	0.119
471	0.119
472	0.119
472	0.119
472	0.12
473	0.12
473	0.121
474	0.121
474	0.121
475	0.122
475	0.122
476	0.122
476	0.123
477	0.123
477	0.123
477	0.124
478	0.124
478	0.124
479	0.125
479	0.126
480	0.126
480	0.126
481	0.127
481	0.127
482	0.128
482	0.129
482	0.129
483	0.131
483	0.132
484	0.133
484	0.133
485	0.134
485	0.135
486	0.135
486	0.136
487	0.136
487	0.137
487	0.137
488	0.137
488	0.137
489	0.137
489	0.138
490	0.138
490	0.139
491	0.139
491	0.14
492	0.141
492	0.141
492	0.142
493	0.143
493	0.144
494	0.145
494	0.146
495	0.147
495	0.147
496	0.148
496	0.149
496	0.15
497	0.151
497	0.152
498	0.152
498	0.153
499	0.154
499	0.155
500	0.156
500	0.157
501	0.159
501	0.16
501	0.16
502	0.162
502	0.163
503	0.164
503	0.165
504	0.166
504	0.167
505	0.168
505	0.169
506	0.17
506	0.17
506	0.171
507	0.172
507	0.173
508	0.173
508	0.174
509	0.175
509	0.176
510	0.177
510	0.178
511	0.179
511	0.18
511	0.18
512	0.181
512	0.182
513	0.182
513	0.182
514	0.183
514	0.183
515	0.183
515	0.183
515	0.184
516	0.184
516	0.185
517	0.185
517	0.186
518	0.186
518	0.186
519	0.186
519	0.186
520	0.186
520	0.186
520	0.186
521	0.185
521	0.184
522	0.184
522	0.183
523	0.183
523	0.183
524	0.183
524	0.183
524	0.183
525	0.183
525	0.184
526	0.184
526	0.185
527	0.185
527	0.186
528	0.186
528	0.186
529	0.186
529	0.186
529	0.186
530	0.186
530	0.185
531	0.185
531	0.184
532	0.184
532	0.183
533	0.182
533	0.181
533	0.18
534	0.179
534	0.178
535	0.177
535	0.177
536	0.176
536	0.175
537	0.174
537	0.173
538	0.172
538	0.171
538	0.17
539	0.169
539	0.168
540	0.167
540	0.166
541	0.164
541	0.163
542	0.162
542	0.161
542	0.16
543	0.159
543	0.157
544	0.156
544	0.155
545	0.154
545	0.153
546	0.152
546	0.151
547	0.15
547	0.149
547	0.148
548	0.147
548	0.146
549	0.145
549	0.144
550	0.143
550	0.142
551	0.14
551	0.139
551	0.138
552	0.137
552	0.136
553	0.135
553	0.134
554	0.133
554	0.131
555	0.129
555	0.127
556	0.126
556	0.124
556	0.122
557	0.12
557	0.119
558	0.117
558	0.116
559	0.115
559	0.113
560	0.112
560	0.111
560	0.11
561	0.11
561	0.11
562	0.109
562	0.108
563	0.106
563	0.105
564	0.104
564	0.103
564	0.102
565	0.101
565	0.1
566	0.098
566	0.097
567	0.097
567	0.096
568	0.096
568	0.096
568	0.095
569	0.095
569	0.095
570	0.094
570	0.094
571	0.094
571	0.093
572	0.093
572	0.092
573	0.092
573	0.091
573	0.09
574	0.089
574	0.088
575	0.088
575	0.088
576	0.088
576	0.087
577	0.085
577	0.085
577	0.084
578	0.084
578	0.084
579	0.084
579	0.084
580	0.083
580	0.08
581	0.079
581	0.078
581	0.077
582	0.078
582	0.078
583	0.078
583	0.077
584	0.074
584	0.072
585	0.072
585	0.073
585	0.073
586	0.072
586	0.072
587	0.07
587	0.069
588	0.067
588	0.067
589	0.067
589	0.067
590	0.066
590	0.066
590	0.067
591	0.068
591	0.068
592	0.067
592	0.067
593	0.067
593	0.067
594	0.067
594	0.066
594	0.065
595	0.065
595	0.064
596	0.064
596	0.065
597	0.067
597	0.067
598	0.067
598	0.067
598	0.067
599	0.068
599	0.067
600	0.066
600	0.066
601	0.065
601	0.064
602	0.063
602	0.062
602	0.061
603	0.061
603	0.062
604	0.062
604	0.063
605	0.064
605	0.064
606	0.064
606	0.063
606	0.063
607	0.063
607	0.063
608	0.063
608	0.062
609	0.061
609	0.061
610	0.06
610	0.06
610	0.06
611	0.061
611	0.063
612	0.064
612	0.065
613	0.066
613	0.068
614	0.068
614	0.068
614	0.069
615	0.069
615	0.069
616	0.069
616	0.069
617	0.069
617	0.069
618	0.068
618	0.068
618	0.068
619	0.068
619	0.069
620	0.07
620	0.07
621	0.07
621	0.071
622	0.071
622	0.071
622	0.071
623	0.071
623	0.071
624	0.072
624	0.072
625	0.072
625	0.072
626	0.073
626	0.073
626	0.073
627	0.074
627	0.075
628	0.075
628	0.075
629	0.075
629	0.075
630	0.075
630	0.075
630	0.076
631	0.076
631	0.077
632	0.077
632	0.077
633	0.078
633	0.078
634	0.079
634	0.081
634	0.082
635	0.083
635	0.084
636	0.084
636	0.085
637	0.086
637	0.086
638	0.087
638	0.088
638	0.088
639	0.089
639	0.089
640	0.089
640	0.09
641	0.091
641	0.092
642	0.093
642	0.094
642	0.095
643	0.096
643	0.097
644	0.099
644	0.1
645	0.101
645	0.103
646	0.105
646	0.107
646	0.108
647	0.11
647	0.112
648	0.114
648	0.115
649	0.118
649	0.12
650	0.122
650	0.124
650	0.126
651	0.128
651	0.129
652	0.13
652	0.132
653	0.134
653	0.139
653	0.141
654	0.113
654	0.092
655	0.093
655	0.094
656	0.095
656	0.096
657	0.098
657	0.099
657	0.1
658	0.098
658	0.095
659	0.12
659	0.153
660	0.16
660	0.161
661	0.163
661	0.165
661	0.167
662	0.169
662	0.171
663	0.173
663	0.174
664	0.176
664	0.177
665	0.179
665	0.181
665	0.182
666	0.184
666	0.185
667	0.186
667	0.188
668	0.189
668	0.191
669	0.193
669	0.194
669	0.196
670	0.198
670	0.199
671	0.2
671	0.201
672	0.202
672	0.203
672	0.204
673	0.206
673	0.207
674	0.208
674	0.209
675	0.211
675	0.213
676	0.215
676	0.217
676	0.218
677	0.22
677	0.222
678	0.222
678	0.223
679	0.224
679	0.225
680	0.227
680	0.227
680	0.228
681	0.228
681	0.229
682	0.23
682	0.231
683	0.232
683	0.233
684	0.234
684	0.233
684	0.233
685	0.233
685	0.234
686	0.233
686	0.233
687	0.232
687	0.232
687	0.232
688	0.231
688	0.231
689	0.231
689	0.232
690	0.232
690	0.232
691	0.233
691	0.233
691	0.233
692	0.232
692	0.232
693	0.232
693	0.232
694	0.231
694	0.23
695	0.23
695	0.23
695	0.229
696	0.229
696	0.228
697	0.227
697	0.227
698	0.226
698	0.225
698	0.224
699	0.223
699	0.221
700	0.218
700	0.217
701	0.216
701	0.215
702	0.213
702	0.212
702	0.21
703	0.208
703	0.207
704	0.205
704	0.205
705	0.204
705	0.203
705	0.202
706	0.201
706	0.2
707	0.199
707	0.198
708	0.197
708	0.196
709	0.195
709	0.194
709	0.192
710	0.19
710	0.189
711	0.188
711	0.187
712	0.185
712	0.183
713	0.182
713	0.181
713	0.179
714	0.177
714	0.175
715	0.173
715	0.171
716	0.169
716	0.167
716	0.165
717	0.163
717	0.161
718	0.159
718	0.157
719	0.155
719	0.154
720	0.152
720	0.15
720	0.148
721	0.146
721	0.145
722	0.143
722	0.142
723	0.14
723	0.139
723	0.138
724	0.136
724	0.135
725	0.133
725	0.132
726	0.131
726	0.13
727	0.129
727	0.128
727	0.127
728	0.125
728	0.124
729	0.123
729	0.122
730	0.121
730	0.119
730	0.118
731	0.117
731	0.115
732	0.115
732	0.114
733	0.113
733	0.112
734	0.111
734	0.11
734	0.11
735	0.11
735	0.109
736	0.108
736	0.107
737	0.106
737	0.105
737	0.104
738	0.102
738	0.1
739	0.098
739	0.097
740	0.095
740	0.094
741	0.094
741	0.092
741	0.091
742	0.089
742	0.088
743	0.088
743	0.087
744	0.087
744	0.086
744	0.085
745	0.083
745	0.082
746	0.081
746	0.08
747	0.078
747	0.078
748	0.077
748	0.076
748	0.074
749	0.073
749	0.072
750	0.072
750	0.071
751	0.071
751	0.071
751	0.071
752	0.071
752	0.07
753	0.07
753	0.07
754	0.07
754	0.069
754	0.069
755	0.069
755	0.069
756	0.068
756	0.067
757	0.066
757	0.066
758	0.066
758	0.065
758	0.065
759	0.065
759	0.064
760	0.063
760	0.062
761	0.061
761	0.061
761	0.06
762	0.059
762	0.059
763	0.058
763	0.056
764	0.054
764	0.053
764	0.051
765	0.05
765	0.048
766	0.047
766	0.047
767	0.046
767	0.044
768	0.042
768	0.041
768	0.04
769	0.039
769	0.038
770	0.036
770	0.035
771	0.033
771	0.031
771	0.03
772	0.028
772	0.027
773	0.026
773	0.024
774	0.023
774	0.021
775	0.02
775	0.019
775	0.018
776	0.017
776	0.016
777	0.016
777	0.015
778	0.013
778	0.012
778	0.01
779	0.01
779	0.009
780	0.007
780	0.005
781	0.003
781	0.001
781	-0.002
782	-0.005
782	-0.008
783	-0.011
783	-0.014
784	-0.018
784	-0.022
784	-0.025
785	-0.029
785	-0.033
786	-0.037
786	-0.04
787	-0.042
787	-0.045
788	-0.049
788	-0.054
788	-0.059
789	-0.065
789	-0.071
790	-0.076
790	-0.082
791	-0.09
791	-0.096
791	-0.101
792	-0.099
792	-0.093
793	-0.091
793	-0.091
794	-0.093
794	-0.096
794	-0.101
795	-0.103
795	-0.103
796	-0.104
796	-0.107
797	-0.115
797	-0.126
797	-0.133
798	-0.139
798	-0.142
799	-0.142
799	-0.142
800	-0.141
800	-0.143
801	-0.146
801	-0.146
801	-0.146
802	-0.147
802	-0.148
803	-0.149
803	-0.149
804	-0.148
804	-0.143
804	-0.136
805	-0.132
805	-0.13
806	-0.129
806	-0.128
807	-0.127
807	-0.127
807	-0.128
808	-0.128
808	-0.129
809	-0.134
809	-0.14
810	-0.144
810	-0.146
810	-0.15
811	-0.153
811	-0.153
812	-0.149
812	-0.146
813	-0.146
813	-0.146
813	-0.145
814	-0.142
814	-0.138
815	-0.132
815	-0.124
816	-0.116
816	-0.109
817	-0.105
817	-0.099
817	-0.089
818	-0.078
818	-0.067
819	-0.058
819	-0.05
820	-0.044
820	-0.038
820	-0.032
821	-0.027
821	-0.022
822	-0.017
822	-0.013
823	-0.009
823	-0.007
823	-0.004
824	-0.002
824	0.001
825	0.005
825	0.007
826	0.01
826	0.012
826	0.014
827	0.016
827	0.017
828	0.019
828	0.02
829	0.021
829	0.022
829	0.022
830	0.022
830	0.023
831	0.024
831	0.024
832	0.024
832	0.025
832	0.025
833	0.025
833	0.025
834	0.025
834	0.026
835	0.026
835	0.025
835	0.025
836	0.025
836	0.025
837	0.026
837	0.026
838	0.027
838	0.027
839	0.027
839	0.027
839	0.027
840	0.027
840	0.027
841	0.027
841	0.026
842	0.026
842	0.026
842	0.026
843	0.026
843	0.026
844	0.026
844	0.027
845	0.027
845	0.027
845	0.027
846	0.027
846	0.027
847	0.027
847	0.027
848	0.027
848	0.027
848	0.028
849	0.028
849	0.028
850	0.028
850	0.028
851	0.028
851	0.029
851	0.028
852	0.028
852	0.028
853	0.028
853	0.027
854	0.027
854	0.027
854	0.027
855	0.027
855	0.027
856	0.027
856	0.027
857	0.026
857	0.026
857	0.026
858	0.026
858	0.026
859	0.026
859	0.026
860	0.027
860	0.028
860	0.028
861	0.029
861	0.03
862	0.031
862	0.031
863	0.031
863	0.032
863	0.032
864	0.032
864	0.032
865	0.032
865	0.033
866	0.033
866	0.033
866	0.033
867	0.034
867	0.034
868	0.035
868	0.035
869	0.035
869	0.034
869	0.033
870	0.033
870	0.032
871	0.032
871	0.031
872	0.031
872	0.031
872	0.031
873	0.031
873	0.032
874	0.032
874	0.032
875	0.032
875	0.032
875	0.032
876	0.031
876	0.03
877	0.03
877	0.029
878	0.028
878	0.027
878	0.026
879	0.025
879	0.025
880	0.024
880	0.024
881	0.024
881	0.025
881	0.025
882	0.025
882	0.025
883	0.025
883	0.025
884	0.025
884	0.025
884	0.024
885	0.024
885	0.023
886	0.023
886	0.023
887	0.022
887	0.022
887	0.023
888	0.023
888	0.024
889	0.025
889	0.026
890	0.026
890	0.027
890	0.028
891	0.028
891	0.029
892	0.03
892	0.03
893	0.031
893	0.031
893	0.031
894	0.031
894	0.03
895	0.03
895	0.029
895	0.028
896	0.027
896	0.026
897	0.026
897	0.025
898	0.024
898	0.023
898	0.023
899	0.022
899	0.022
900	0.022
900	0.022
901	0.022
901	0.022
901	0.022
902	0.023
902	0.023
903	0.023
903	0.024
904	0.024
904	0.025
904	0.026
905	0.027
905	0.027
906	0.028
906	0.028
907	0.028
907	0.028
907	0.029
908	0.029
908	0.029
909	0.03
909	0.03
910	0.031
910	0.031
910	0.032
911	0.032
911	0.032
912	0.032
912	0.032
913	0.032
913	0.032
913	0.031
914	0.031
914	0.03
915	0.029
915	0.028
916	0.027
916	0.026
916	0.025
917	0.023
917	0.022
918	0.02
918	0.018
918	0.017
919	0.016
919	0.015
920	0.014
920	0.013
921	0.013
921	0.013
921	0.013
922	0.013
922	0.014
923	0.014
923	0.015
924	0.016
924	0.016
924	0.017
925	0.018
925	0.019
926	0.019
926	0.02
927	0.02
927	0.02
927	0.02
928	0.02
928	0.02
929	0.02
929	0.019
930	0.018
930	0.017
930	0.016
931	0.016
931	0.015
932	0.015
932	0.014
933	0.014
933	0.014
933	0.013
934	0.013
934	0.012
935	0.012
935	0.012
935	0.011
936	0.011
936	0.01
937	0.01
937	0.01
938	0.01
938	0.009
938	0.01
939	0.01
939	0.01
940	0.011
940	0.012
941	0.013
941	0.014
941	0.015
942	0.016
942	0.017
943	0.018
943	0.019
944	0.019
944	0.02
944	0.02
945	0.021
945	0.022
946	0.022
946	0.022
946	0.022
947	0.023
947	0.023
948	0.024
948	0.025
949	0.025
949	0.025
949	0.025
950	0.025
950	0.026
951	0.026
951	0.025
952	0.025
952	0.024
952	0.024
953	0.023
953	0.023
954	0.022
954	0.021
955	0.021
955	0.021
955	0.021
956	0.021
956	0.021
957	0.021
957	0.021
957	0.021
958	0.021
958	0.022
959	0.022
959	0.022
960	0.022
960	0.022
960	0.022
961	0.022
961	0.022
962	0.023
962	0.023
963	0.024
963	0.024
963	0.024
964	0.025
964	0.025
965	0.025
965	0.025
966	0.025
966	0.025
966	0.025
967	0.024
967	0.023
968	0.023
968	0.022
968	0.021
969	0.02
969	0.02
970	0.019
970	0.019
971	0.018
971	0.018
971	0.018
972	0.018
972	0.018
973	0.018
973	0.018
974	0.018
974	0.019
974	0.019
975	0.02
975	0.021
976	0.021
976	0.022
976	0.023
977	0.024
977	0.024
978	0.025
978	0.025
979	0.025
979	0.025
979	0.025
980	0.024
980	0.024
981	0.023
981	0.022
982	0.021
982	0.02
982	0.019
983	0.018
983	0.017
984	0.016
984	0.015
984	0.014
985	0.013
985	0.013
986	0.012
986	0.011
987	0.01
987	0.01
987	0.01
988	0.01
988	0.01
989	0.01
989	0.011
990	0.011
990	0.012
990	0.013
991	0.014
991	0.015
992	0.016
992	0.017
992	0.018
993	0.018
993	0.019
994	0.019
994	0.019
995	0.019
995	0.019
995	0.019
996	0.018
996	0.018
997	0.017
997	0.017
997	0.017
998	0.016
998	0.017
999	0.017
999	0.017
1000	0.018
1000	0.018
1000	0.019
1001	0.019
1001	0.02
1002	0.021
1002	0.022
1003	0.022
1003	0.022
1003	0.023
1004	0.023
1004	0.023
1005	0.022
1005	0.022
1005	0.022
1006	0.022
1006	0.021
1007	0.021
1007	0.02
1008	0.02
1008	0.02
1008	0.02
1009	0.019
1009	0.019
1010	0.019
1010	0.019
1010	0.019
1011	0.018
1011	0.018
1012	0.018
1012	0.017
1013	0.017
1013	0.017
1013	0.016
1014	0.015
1014	0.014
1015	0.014
1015	0.013
1016	0.012
1016	0.011
1016	0.01
1017	0.01
1017	0.009
1018	0.008
1018	0.007
1018	0.007
1019	0.007
1019	0.006
1020	0.006
1020	0.006
1021	0.005
1021	0.005
1021	0.005
1022	0.006
1022	0.006
1023	0.006
1023	0.006
1023	0.007
1024	0.007
1024	0.007
1025	0.007
1025	0.007
1026	0.006
1026	0.006
1026	0.006
1027	0.005
1027	0.005
1028	0.005
1028	0.004
1028	0.004
1029	0.003
1029	0.003
1030	0.003
1030	0.003
1031	0.003
1031	0.003
1031	0.003
1032	0.003
1032	0.003
1033	0.003
1033	0.003
1033	0.003
1034	0.003
1034	0.002
1035	0.002
1035	0.002
1036	0.002
1036	0.002
1036	0.002
1037	0.002
1037	0.002
1038	0.003
1038	0.003
1039	0.004
1039	0.004
1039	0.005
1040	0.006
1040	0.007
1041	0.008
1041	0.009
1041	0.009
1042	0.01
1042	0.011
1043	0.011
1043	0.012
1044	0.012
1044	0.013
1044	0.013
1045	0.013
1045	0.013
1046	0.013
1046	0.013
1046	0.012
1047	0.012
1047	0.012
1048	0.012
1048	0.012
1049	0.011
1049	0.01
1049	0.009
1050	0.008
1050	0.007
1051	0.007
1051	0.006
1051	0.006
1052	0.005
1052	0.004
1053	0.003
1053	0.003
1053	0.002
1054	0.001
1054	0.001
1055	0.001
1055	0
1056	-0.001
1056	-0.002
1056	-0.002
1057	-0.003
1057	-0.004
1058	-0.004
1058	-0.004
1058	-0.004
1059	-0.005
1059	-0.005
1060	-0.005
1060	-0.005
1061	-0.004
1061	-0.004
1061	-0.003
1062	-0.004
1062	-0.004
1063	-0.004
1063	-0.004
1063	-0.004
1064	-0.004
1064	-0.003
1065	-0.003
1065	-0.003
1066	-0.003
1066	-0.003
1066	-0.003
1067	-0.003
1067	-0.002
1068	-0.002
1068	-0.002
1068	-0.003
1069	-0.003
1069	-0.004
1070	-0.004
1070	-0.005
1071	-0.007
1071	-0.007
1071	-0.008
1072	-0.009
1072	-0.01
1073	-0.011
1073	-0.012
1073	-0.012
1074	-0.013
1074	-0.013
1075	-0.014
1075	-0.015
1076	-0.016
1076	-0.016
1076	-0.017
1077	-0.017
1077	-0.017
1078	-0.017
1078	-0.018
1078	-0.017
1079	-0.018
1079	-0.017
1080	-0.017
1080	-0.016
1080	-0.016
1081	-0.016
1081	-0.015
1082	-0.015
1082	-0.015
1083	-0.014
1083	-0.015
1083	-0.014
1084	-0.014
1084	-0.014
1085	-0.014
1085	-0.014
1085	-0.014
1086	-0.014
1086	-0.014
1087	-0.014
1087	-0.014
1088	-0.014
1088	-0.014
1088	-0.015
1089	-0.016
1089	-0.016
1090	-0.017
1090	-0.017
1090	-0.018
1091	-0.018
1091	-0.018
1092	-0.018
1092	-0.017
1092	-0.017
1093	-0.017
1093	-0.017
1094	-0.017
1094	-0.017
1095	-0.018
1095	-0.018
1095	-0.018
1096	-0.018
1096	-0.018
1097	-0.018
1097	-0.018
1097	-0.017
1098	-0.017
1098	-0.016
1099	-0.015
1099	-0.014
1100	-0.013
1100	-0.012
1100	-0.012
1101	-0.011
1101	-0.01
1102	-0.009
1102	-0.01
1102	-0.008
1103	-0.008
1103	-0.007
1104	-0.005
1104	-0.004
1104	-0.002
1105	-0.001
1105	0
1106	0.001
1106	0.004
1107	0.005
1107	0.008
1107	0.011
1108	0.026
1108	0.047
1109	0.072
1109	0.109
1109	0.131
1110	0.175
1110	0.244
1111	0.394
1111	1.246
