Data from 17c-2a_Absorbance__640__00641.txt Node

Date: Fri Jan 26 10:08:51 CET 2024
User: Marek
Spectrometer: MAYP115816
Trigger mode: 0
Integration Time (sec): 2.000000E-1
Scans to average: 10
Electric dark correction enabled: true
Nonlinearity correction enabled: true
Boxcar width: 5
XAxis mode: Wavelengths
Number of Pixels in Spectrum: 2068
>>>>>Begin Spectral Data<<<<<
199	-1.28
199	-1.149
200	-1.006
200	-0.902
201	-0.838
201	-0.798
202	-0.74
202	-0.695
203	-0.657
203	-0.626
204	-0.603
204	-0.582
205	-0.563
205	-0.555
205	-0.554
206	-0.549
206	-0.547
207	-0.543
207	-0.542
208	-0.542
208	-0.541
209	-0.539
209	-0.536
210	-0.538
210	-0.538
211	-0.539
211	-0.54
212	-0.54
212	-0.54
213	-0.539
213	-0.535
213	-0.537
214	-0.535
214	-0.534
215	-0.529
215	-0.528
216	-0.525
216	-0.526
217	-0.521
217	-0.52
218	-0.517
218	-0.515
219	-0.511
219	-0.511
220	-0.509
220	-0.511
221	-0.509
221	-0.508
221	-0.503
222	-0.499
222	-0.496
223	-0.493
223	-0.492
224	-0.488
224	-0.482
225	-0.475
225	-0.467
226	-0.46
226	-0.45
227	-0.441
227	-0.432
228	-0.418
228	-0.404
229	-0.387
229	-0.367
229	-0.347
230	-0.324
230	-0.299
231	-0.274
231	-0.247
232	-0.221
232	-0.192
233	-0.163
233	-0.133
234	-0.105
234	-0.079
235	-0.053
235	-0.029
236	-0.007
236	0.014
236	0.033
237	0.051
237	0.067
238	0.081
238	0.093
239	0.105
239	0.115
240	0.125
240	0.133
241	0.141
241	0.148
242	0.154
242	0.16
243	0.165
243	0.169
243	0.174
244	0.178
244	0.181
245	0.185
245	0.188
246	0.191
246	0.194
247	0.196
247	0.199
248	0.201
248	0.204
249	0.207
249	0.209
250	0.212
250	0.214
250	0.216
251	0.219
251	0.221
252	0.223
252	0.225
253	0.227
253	0.228
254	0.23
254	0.231
255	0.232
255	0.234
256	0.235
256	0.236
257	0.237
257	0.238
258	0.239
258	0.24
258	0.24
259	0.241
259	0.241
260	0.242
260	0.242
261	0.242
261	0.242
262	0.242
262	0.242
263	0.242
263	0.241
264	0.241
264	0.24
265	0.24
265	0.239
265	0.238
266	0.237
266	0.237
267	0.236
267	0.235
268	0.233
268	0.232
269	0.231
269	0.229
270	0.228
270	0.226
271	0.225
271	0.223
272	0.221
272	0.22
272	0.218
273	0.216
273	0.215
274	0.213
274	0.211
275	0.21
275	0.208
276	0.206
276	0.204
277	0.202
277	0.201
278	0.199
278	0.197
278	0.195
279	0.193
279	0.191
280	0.189
280	0.187
281	0.185
281	0.183
282	0.181
282	0.179
283	0.178
283	0.176
284	0.175
284	0.173
285	0.172
285	0.17
285	0.168
286	0.167
286	0.165
287	0.164
287	0.163
288	0.161
288	0.16
289	0.158
289	0.157
290	0.156
290	0.155
291	0.154
291	0.153
292	0.152
292	0.151
292	0.15
293	0.149
293	0.148
294	0.147
294	0.146
295	0.146
295	0.145
296	0.144
296	0.143
297	0.143
297	0.142
298	0.142
298	0.141
298	0.141
299	0.141
299	0.14
300	0.14
300	0.139
301	0.139
301	0.138
302	0.138
302	0.138
303	0.137
303	0.137
304	0.136
304	0.136
305	0.136
305	0.135
305	0.135
306	0.134
306	0.134
307	0.134
307	0.133
308	0.133
308	0.133
309	0.132
309	0.132
310	0.131
310	0.131
311	0.131
311	0.13
311	0.13
312	0.13
312	0.13
313	0.129
313	0.129
314	0.129
314	0.128
315	0.128
315	0.128
316	0.127
316	0.127
317	0.127
317	0.126
318	0.126
318	0.126
318	0.125
319	0.125
319	0.125
320	0.124
320	0.124
321	0.123
321	0.123
322	0.123
322	0.122
323	0.122
323	0.122
324	0.121
324	0.121
324	0.12
325	0.12
325	0.12
326	0.12
326	0.119
327	0.119
327	0.119
328	0.118
328	0.118
329	0.118
329	0.117
330	0.117
330	0.116
330	0.116
331	0.116
331	0.115
332	0.115
332	0.114
333	0.114
333	0.114
334	0.114
334	0.113
335	0.113
335	0.113
336	0.113
336	0.113
336	0.112
337	0.112
337	0.112
338	0.112
338	0.111
339	0.111
339	0.111
340	0.11
340	0.11
341	0.11
341	0.109
342	0.109
342	0.109
342	0.109
343	0.109
343	0.108
344	0.108
344	0.108
345	0.108
345	0.108
346	0.108
346	0.108
347	0.107
347	0.107
348	0.107
348	0.106
348	0.106
349	0.106
349	0.106
350	0.106
350	0.105
351	0.105
351	0.105
352	0.105
352	0.105
353	0.105
353	0.105
354	0.105
354	0.105
354	0.104
355	0.104
355	0.104
356	0.104
356	0.104
357	0.103
357	0.103
358	0.103
358	0.103
359	0.103
359	0.103
360	0.103
360	0.103
360	0.103
361	0.103
361	0.103
362	0.104
362	0.104
363	0.104
363	0.104
364	0.104
364	0.104
365	0.104
365	0.104
366	0.104
366	0.104
366	0.104
367	0.104
367	0.103
368	0.103
368	0.103
369	0.103
369	0.103
370	0.103
370	0.103
371	0.102
371	0.102
372	0.102
372	0.102
372	0.102
373	0.102
373	0.102
374	0.102
374	0.103
375	0.103
375	0.103
376	0.103
376	0.103
377	0.103
377	0.103
378	0.103
378	0.103
378	0.103
379	0.103
379	0.103
380	0.103
380	0.103
381	0.103
381	0.103
382	0.103
382	0.103
383	0.103
383	0.103
383	0.103
384	0.102
384	0.102
385	0.102
385	0.102
386	0.102
386	0.102
387	0.102
387	0.102
388	0.102
388	0.102
389	0.102
389	0.102
389	0.102
390	0.102
390	0.102
391	0.102
391	0.102
392	0.102
392	0.102
393	0.103
393	0.103
394	0.102
394	0.102
394	0.102
395	0.102
395	0.102
396	0.102
396	0.102
397	0.102
397	0.102
398	0.102
398	0.102
399	0.101
399	0.101
400	0.101
400	0.101
400	0.101
401	0.101
401	0.1
402	0.1
402	0.1
403	0.1
403	0.1
404	0.1
404	0.1
405	0.1
405	0.1
405	0.1
406	0.1
406	0.1
407	0.1
407	0.1
408	0.1
408	0.1
409	0.1
409	0.1
410	0.1
410	0.1
411	0.1
411	0.1
411	0.1
412	0.1
412	0.1
413	0.1
413	0.1
414	0.1
414	0.1
415	0.1
415	0.099
416	0.099
416	0.099
416	0.099
417	0.099
417	0.099
418	0.099
418	0.099
419	0.099
419	0.1
420	0.1
420	0.1
421	0.1
421	0.1
421	0.1
422	0.101
422	0.101
423	0.101
423	0.1
424	0.1
424	0.1
425	0.1
425	0.1
426	0.1
426	0.1
427	0.1
427	0.1
427	0.1
428	0.1
428	0.1
429	0.101
429	0.1
430	0.1
430	0.1
431	0.1
431	0.1
432	0.1
432	0.1
432	0.1
433	0.099
433	0.099
434	0.099
434	0.099
435	0.1
435	0.1
436	0.1
436	0.1
437	0.1
437	0.1
437	0.1
438	0.1
438	0.1
439	0.1
439	0.1
440	0.099
440	0.099
441	0.099
441	0.099
442	0.099
442	0.099
442	0.099
443	0.099
443	0.099
444	0.099
444	0.1
445	0.1
445	0.1
446	0.1
446	0.1
447	0.1
447	0.1
447	0.1
448	0.1
448	0.1
449	0.1
449	0.1
450	0.1
450	0.101
451	0.101
451	0.101
452	0.101
452	0.101
452	0.1
453	0.1
453	0.1
454	0.1
454	0.1
455	0.1
455	0.1
456	0.1
456	0.1
457	0.1
457	0.1
458	0.1
458	0.101
458	0.101
459	0.101
459	0.101
460	0.101
460	0.101
461	0.101
461	0.101
462	0.101
462	0.101
463	0.102
463	0.102
463	0.102
464	0.102
464	0.102
465	0.102
465	0.102
466	0.102
466	0.102
467	0.102
467	0.102
467	0.102
468	0.102
468	0.102
469	0.102
469	0.102
470	0.102
470	0.102
471	0.102
471	0.102
472	0.102
472	0.102
472	0.103
473	0.103
473	0.104
474	0.104
474	0.104
475	0.105
475	0.105
476	0.105
476	0.106
477	0.106
477	0.106
477	0.106
478	0.106
478	0.107
479	0.107
479	0.107
480	0.107
480	0.108
481	0.108
481	0.109
482	0.109
482	0.11
482	0.11
483	0.112
483	0.113
484	0.114
484	0.114
485	0.115
485	0.116
486	0.116
486	0.116
487	0.117
487	0.117
487	0.117
488	0.117
488	0.117
489	0.117
489	0.118
490	0.118
490	0.118
491	0.119
491	0.12
492	0.12
492	0.121
492	0.121
493	0.122
493	0.123
494	0.124
494	0.125
495	0.126
495	0.126
496	0.127
496	0.128
496	0.129
497	0.13
497	0.131
498	0.131
498	0.132
499	0.133
499	0.133
500	0.134
500	0.135
501	0.136
501	0.137
501	0.137
502	0.138
502	0.139
503	0.14
503	0.141
504	0.141
504	0.142
505	0.143
505	0.144
506	0.145
506	0.146
506	0.147
507	0.147
507	0.148
508	0.148
508	0.149
509	0.15
509	0.151
510	0.151
510	0.152
511	0.153
511	0.153
511	0.154
512	0.155
512	0.155
513	0.155
513	0.155
514	0.156
514	0.156
515	0.156
515	0.156
515	0.156
516	0.157
516	0.157
517	0.158
517	0.158
518	0.159
518	0.159
519	0.159
519	0.159
520	0.159
520	0.159
520	0.159
521	0.158
521	0.157
522	0.157
522	0.156
523	0.156
523	0.156
524	0.156
524	0.156
524	0.156
525	0.157
525	0.157
526	0.158
526	0.158
527	0.159
527	0.159
528	0.159
528	0.159
529	0.159
529	0.159
529	0.158
530	0.158
530	0.158
531	0.157
531	0.157
532	0.156
532	0.156
533	0.155
533	0.155
533	0.154
534	0.153
534	0.153
535	0.152
535	0.151
536	0.15
536	0.149
537	0.149
537	0.148
538	0.147
538	0.145
538	0.144
539	0.144
539	0.143
540	0.142
540	0.141
541	0.14
541	0.139
542	0.138
542	0.137
542	0.136
543	0.135
543	0.134
544	0.132
544	0.132
545	0.131
545	0.13
546	0.13
546	0.129
547	0.128
547	0.127
547	0.126
548	0.125
548	0.125
549	0.124
549	0.123
550	0.122
550	0.121
551	0.119
551	0.118
551	0.117
552	0.117
552	0.116
553	0.115
553	0.114
554	0.113
554	0.111
555	0.11
555	0.109
556	0.107
556	0.105
556	0.104
557	0.102
557	0.101
558	0.099
558	0.098
559	0.097
559	0.096
560	0.095
560	0.095
560	0.094
561	0.094
561	0.094
562	0.093
562	0.092
563	0.091
563	0.09
564	0.089
564	0.089
564	0.088
565	0.087
565	0.086
566	0.085
566	0.084
567	0.083
567	0.083
568	0.083
568	0.082
568	0.082
569	0.082
569	0.082
570	0.082
570	0.081
571	0.081
571	0.081
572	0.08
572	0.08
573	0.079
573	0.078
573	0.077
574	0.077
574	0.076
575	0.076
575	0.076
576	0.076
576	0.075
577	0.074
577	0.073
577	0.073
578	0.073
578	0.073
579	0.073
579	0.074
580	0.073
580	0.071
581	0.069
581	0.069
581	0.069
582	0.069
582	0.069
583	0.069
583	0.068
584	0.066
584	0.064
585	0.064
585	0.065
585	0.065
586	0.064
586	0.064
587	0.063
587	0.062
588	0.06
588	0.06
589	0.059
589	0.059
590	0.059
590	0.059
590	0.059
591	0.06
591	0.059
592	0.059
592	0.059
593	0.059
593	0.059
594	0.058
594	0.057
594	0.057
595	0.057
595	0.056
596	0.056
596	0.057
597	0.058
597	0.059
598	0.059
598	0.06
598	0.06
599	0.06
599	0.06
600	0.06
600	0.059
601	0.059
601	0.058
602	0.056
602	0.056
602	0.055
603	0.055
603	0.056
604	0.056
604	0.056
605	0.057
605	0.058
606	0.057
606	0.057
606	0.057
607	0.056
607	0.056
608	0.056
608	0.055
609	0.054
609	0.054
610	0.054
610	0.053
610	0.054
611	0.055
611	0.056
612	0.058
612	0.059
613	0.06
613	0.061
614	0.062
614	0.062
614	0.062
615	0.062
615	0.062
616	0.062
616	0.062
617	0.062
617	0.061
618	0.061
618	0.06
618	0.06
619	0.061
619	0.061
620	0.062
620	0.062
621	0.062
621	0.063
622	0.063
622	0.063
622	0.063
623	0.063
623	0.064
624	0.064
624	0.064
625	0.064
625	0.065
626	0.065
626	0.065
626	0.066
627	0.066
627	0.067
628	0.067
628	0.068
629	0.068
629	0.068
630	0.068
630	0.067
630	0.068
631	0.068
631	0.068
632	0.068
632	0.068
633	0.069
633	0.069
634	0.07
634	0.072
634	0.073
635	0.074
635	0.074
636	0.075
636	0.076
637	0.077
637	0.077
638	0.078
638	0.08
638	0.08
639	0.081
639	0.081
640	0.082
640	0.083
641	0.084
641	0.085
642	0.086
642	0.088
642	0.089
643	0.09
643	0.09
644	0.091
644	0.092
645	0.093
645	0.095
646	0.096
646	0.098
646	0.099
647	0.101
647	0.103
648	0.104
648	0.106
649	0.107
649	0.109
650	0.111
650	0.113
650	0.114
651	0.116
651	0.117
652	0.118
652	0.119
653	0.121
653	0.126
653	0.126
654	0.102
654	0.083
655	0.084
655	0.085
656	0.087
656	0.088
657	0.089
657	0.091
657	0.092
658	0.09
658	0.088
659	0.111
659	0.141
660	0.147
660	0.148
661	0.15
661	0.151
661	0.153
662	0.155
662	0.156
663	0.158
663	0.159
664	0.161
664	0.162
665	0.163
665	0.164
665	0.165
666	0.166
666	0.167
667	0.169
667	0.17
668	0.171
668	0.173
669	0.175
669	0.177
669	0.179
670	0.18
670	0.182
671	0.183
671	0.184
672	0.185
672	0.186
672	0.188
673	0.189
673	0.19
674	0.191
674	0.193
675	0.194
675	0.196
676	0.198
676	0.199
676	0.201
677	0.202
677	0.203
678	0.204
678	0.204
679	0.205
679	0.205
680	0.206
680	0.207
680	0.207
681	0.208
681	0.208
682	0.209
682	0.21
683	0.211
683	0.212
684	0.213
684	0.212
684	0.212
685	0.212
685	0.212
686	0.212
686	0.211
687	0.211
687	0.21
687	0.21
688	0.21
688	0.21
689	0.21
689	0.211
690	0.211
690	0.211
691	0.212
691	0.212
691	0.212
692	0.211
692	0.21
693	0.21
693	0.21
694	0.21
694	0.209
695	0.209
695	0.21
695	0.209
696	0.208
696	0.207
697	0.207
697	0.206
698	0.205
698	0.204
698	0.203
699	0.203
699	0.201
700	0.199
700	0.198
701	0.197
701	0.196
702	0.195
702	0.194
702	0.192
703	0.19
703	0.189
704	0.187
704	0.186
705	0.185
705	0.184
705	0.183
706	0.182
706	0.181
707	0.18
707	0.179
708	0.178
708	0.177
709	0.176
709	0.175
709	0.173
710	0.172
710	0.171
711	0.171
711	0.169
712	0.168
712	0.167
713	0.166
713	0.165
713	0.163
714	0.161
714	0.159
715	0.158
715	0.156
716	0.154
716	0.152
716	0.15
717	0.148
717	0.146
718	0.144
718	0.142
719	0.14
719	0.139
720	0.137
720	0.136
720	0.134
721	0.132
721	0.131
722	0.129
722	0.128
723	0.127
723	0.126
723	0.125
724	0.124
724	0.123
725	0.122
725	0.121
726	0.121
726	0.121
727	0.12
727	0.119
727	0.118
728	0.117
728	0.116
729	0.115
729	0.114
730	0.113
730	0.111
730	0.11
731	0.108
731	0.107
732	0.106
732	0.105
733	0.104
733	0.103
734	0.102
734	0.101
734	0.101
735	0.101
735	0.1
736	0.099
736	0.098
737	0.097
737	0.096
737	0.094
738	0.092
738	0.091
739	0.089
739	0.088
740	0.086
740	0.085
741	0.084
741	0.083
741	0.082
742	0.08
742	0.08
743	0.08
743	0.079
744	0.079
744	0.078
744	0.077
745	0.075
745	0.074
746	0.073
746	0.072
747	0.071
747	0.07
748	0.069
748	0.068
748	0.067
749	0.066
749	0.066
750	0.065
750	0.065
751	0.065
751	0.065
751	0.065
752	0.065
752	0.064
753	0.064
753	0.064
754	0.063
754	0.063
754	0.063
755	0.062
755	0.063
756	0.062
756	0.061
757	0.06
757	0.06
758	0.06
758	0.06
758	0.06
759	0.059
759	0.058
760	0.057
760	0.056
761	0.055
761	0.054
761	0.054
762	0.053
762	0.053
763	0.052
763	0.05
764	0.049
764	0.048
764	0.047
765	0.045
765	0.044
766	0.043
766	0.042
767	0.041
767	0.039
768	0.037
768	0.036
768	0.035
769	0.034
769	0.032
770	0.031
770	0.03
771	0.028
771	0.026
771	0.024
772	0.023
772	0.022
773	0.02
773	0.019
774	0.017
774	0.016
775	0.016
775	0.015
775	0.015
776	0.014
776	0.014
777	0.014
777	0.013
778	0.012
778	0.011
778	0.01
779	0.01
779	0.008
780	0.007
780	0.005
781	0.002
781	-0
781	-0.004
782	-0.007
782	-0.011
783	-0.014
783	-0.018
784	-0.022
784	-0.026
784	-0.03
785	-0.034
785	-0.038
786	-0.041
786	-0.044
787	-0.046
787	-0.049
788	-0.053
788	-0.057
788	-0.063
789	-0.068
789	-0.073
790	-0.078
790	-0.084
791	-0.091
791	-0.097
791	-0.102
792	-0.1
792	-0.094
793	-0.092
793	-0.092
794	-0.093
794	-0.096
794	-0.101
795	-0.103
795	-0.103
796	-0.104
796	-0.107
797	-0.115
797	-0.126
797	-0.133
798	-0.139
798	-0.142
799	-0.142
799	-0.142
800	-0.141
800	-0.143
801	-0.146
801	-0.146
801	-0.146
802	-0.147
802	-0.148
803	-0.149
803	-0.149
804	-0.148
804	-0.143
804	-0.136
805	-0.132
805	-0.13
806	-0.129
806	-0.128
807	-0.127
807	-0.127
807	-0.128
808	-0.128
808	-0.129
809	-0.134
809	-0.14
810	-0.144
810	-0.146
810	-0.15
811	-0.153
811	-0.153
812	-0.149
812	-0.146
813	-0.146
813	-0.146
813	-0.145
814	-0.143
814	-0.139
815	-0.132
815	-0.124
816	-0.116
816	-0.109
817	-0.105
817	-0.098
817	-0.088
818	-0.077
818	-0.067
819	-0.057
819	-0.049
820	-0.043
820	-0.037
820	-0.032
821	-0.027
821	-0.022
822	-0.018
822	-0.014
823	-0.011
823	-0.008
823	-0.006
824	-0.003
824	-0.001
825	0.002
825	0.005
826	0.008
826	0.009
826	0.011
827	0.013
827	0.014
828	0.016
828	0.017
829	0.018
829	0.018
829	0.019
830	0.019
830	0.019
831	0.02
831	0.02
832	0.02
832	0.02
832	0.021
833	0.021
833	0.022
834	0.022
834	0.023
835	0.023
835	0.023
835	0.023
836	0.024
836	0.024
837	0.025
837	0.026
838	0.026
838	0.026
839	0.027
839	0.027
839	0.026
840	0.026
840	0.026
841	0.026
841	0.026
842	0.025
842	0.025
842	0.025
843	0.024
843	0.024
844	0.025
844	0.025
845	0.025
845	0.025
845	0.025
846	0.024
846	0.024
847	0.024
847	0.024
848	0.024
848	0.024
848	0.025
849	0.025
849	0.025
850	0.025
850	0.026
851	0.026
851	0.027
851	0.027
852	0.027
852	0.027
853	0.027
853	0.026
854	0.026
854	0.026
854	0.026
855	0.026
855	0.026
856	0.025
856	0.025
857	0.025
857	0.024
857	0.024
858	0.024
858	0.024
859	0.024
859	0.024
860	0.024
860	0.024
860	0.024
861	0.025
861	0.026
862	0.026
862	0.026
863	0.027
863	0.027
863	0.028
864	0.028
864	0.028
865	0.029
865	0.029
866	0.03
866	0.03
866	0.031
867	0.031
867	0.032
868	0.032
868	0.033
869	0.033
869	0.033
869	0.033
870	0.033
870	0.033
871	0.033
871	0.033
872	0.033
872	0.033
872	0.033
873	0.033
873	0.033
874	0.033
874	0.032
875	0.032
875	0.031
875	0.031
876	0.03
876	0.029
877	0.028
877	0.027
878	0.026
878	0.025
878	0.024
879	0.023
879	0.023
880	0.022
880	0.022
881	0.022
881	0.022
881	0.022
882	0.023
882	0.023
883	0.023
883	0.023
884	0.023
884	0.023
884	0.023
885	0.022
885	0.022
886	0.022
886	0.022
887	0.022
887	0.021
887	0.021
888	0.022
888	0.022
889	0.022
889	0.023
890	0.024
890	0.024
890	0.024
891	0.025
891	0.025
892	0.026
892	0.026
893	0.027
893	0.028
893	0.028
894	0.029
894	0.029
895	0.029
895	0.029
895	0.029
896	0.028
896	0.028
897	0.027
897	0.027
898	0.026
898	0.026
898	0.025
899	0.025
899	0.025
900	0.025
900	0.025
901	0.025
901	0.025
901	0.026
902	0.026
902	0.027
903	0.027
903	0.028
904	0.028
904	0.029
904	0.029
905	0.03
905	0.03
906	0.03
906	0.03
907	0.029
907	0.029
907	0.029
908	0.029
908	0.03
909	0.03
909	0.03
910	0.031
910	0.031
910	0.031
911	0.031
911	0.032
912	0.032
912	0.032
913	0.032
913	0.032
913	0.031
914	0.031
914	0.03
915	0.03
915	0.029
916	0.028
916	0.027
916	0.026
917	0.024
917	0.023
918	0.021
918	0.02
918	0.018
919	0.017
919	0.015
920	0.014
920	0.014
921	0.014
921	0.014
921	0.014
922	0.014
922	0.015
923	0.015
923	0.016
924	0.017
924	0.018
924	0.018
925	0.019
925	0.02
926	0.021
926	0.021
927	0.022
927	0.022
927	0.022
928	0.022
928	0.021
929	0.021
929	0.02
930	0.02
930	0.019
930	0.018
931	0.017
931	0.017
932	0.017
932	0.016
933	0.016
933	0.015
933	0.015
934	0.015
934	0.014
935	0.014
935	0.014
935	0.013
936	0.013
936	0.013
937	0.013
937	0.013
938	0.013
938	0.013
938	0.013
939	0.014
939	0.014
940	0.015
940	0.015
941	0.016
941	0.017
941	0.018
942	0.018
942	0.019
943	0.02
943	0.02
944	0.02
944	0.021
944	0.021
945	0.022
945	0.022
946	0.022
946	0.023
946	0.023
947	0.023
947	0.024
948	0.025
948	0.025
949	0.026
949	0.026
949	0.027
950	0.027
950	0.027
951	0.027
951	0.027
952	0.027
952	0.026
952	0.025
953	0.025
953	0.024
954	0.023
954	0.022
955	0.022
955	0.021
955	0.021
956	0.021
956	0.021
957	0.021
957	0.021
957	0.021
958	0.021
958	0.021
959	0.022
959	0.022
960	0.022
960	0.022
960	0.023
961	0.023
961	0.023
962	0.023
962	0.024
963	0.024
963	0.025
963	0.025
964	0.025
964	0.025
965	0.024
965	0.024
966	0.024
966	0.023
966	0.023
967	0.022
967	0.021
968	0.021
968	0.02
968	0.02
969	0.02
969	0.019
970	0.019
970	0.019
971	0.019
971	0.019
971	0.019
972	0.02
972	0.02
973	0.02
973	0.02
974	0.02
974	0.02
974	0.02
975	0.021
975	0.021
976	0.021
976	0.022
976	0.023
977	0.023
977	0.024
978	0.024
978	0.025
979	0.025
979	0.025
979	0.025
980	0.025
980	0.025
981	0.024
981	0.024
982	0.023
982	0.023
982	0.022
983	0.021
983	0.021
984	0.02
984	0.019
984	0.019
985	0.018
985	0.017
986	0.016
986	0.016
987	0.015
987	0.015
987	0.015
988	0.015
988	0.015
989	0.015
989	0.015
990	0.015
990	0.016
990	0.016
991	0.016
991	0.017
992	0.017
992	0.017
992	0.017
993	0.017
993	0.018
994	0.017
994	0.017
995	0.017
995	0.018
995	0.018
996	0.017
996	0.017
997	0.017
997	0.017
997	0.017
998	0.017
998	0.018
999	0.019
999	0.019
1000	0.02
1000	0.02
1000	0.021
1001	0.022
1001	0.023
1002	0.024
1002	0.024
1003	0.025
1003	0.025
1003	0.025
1004	0.025
1004	0.025
1005	0.025
1005	0.024
1005	0.024
1006	0.023
1006	0.022
1007	0.022
1007	0.021
1008	0.021
1008	0.02
1008	0.019
1009	0.019
1009	0.019
1010	0.018
1010	0.018
1010	0.018
1011	0.018
1011	0.018
1012	0.018
1012	0.017
1013	0.017
1013	0.016
1013	0.016
1014	0.015
1014	0.015
1015	0.014
1015	0.013
1016	0.012
1016	0.011
1016	0.01
1017	0.009
1017	0.008
1018	0.007
1018	0.006
1018	0.006
1019	0.005
1019	0.005
1020	0.004
1020	0.004
1021	0.004
1021	0.004
1021	0.004
1022	0.004
1022	0.005
1023	0.005
1023	0.005
1023	0.006
1024	0.006
1024	0.006
1025	0.006
1025	0.006
1026	0.007
1026	0.007
1026	0.007
1027	0.006
1027	0.006
1028	0.006
1028	0.006
1028	0.006
1029	0.006
1029	0.006
1030	0.006
1030	0.005
1031	0.005
1031	0.005
1031	0.005
1032	0.005
1032	0.005
1033	0.005
1033	0.005
1033	0.005
1034	0.005
1034	0.005
1035	0.005
1035	0.005
1036	0.005
1036	0.005
1036	0.005
1037	0.006
1037	0.006
1038	0.006
1038	0.007
1039	0.007
1039	0.008
1039	0.008
1040	0.009
1040	0.01
1041	0.011
1041	0.011
1041	0.012
1042	0.012
1042	0.013
1043	0.013
1043	0.013
1044	0.014
1044	0.014
1044	0.014
1045	0.014
1045	0.014
1046	0.014
1046	0.014
1046	0.014
1047	0.014
1047	0.014
1048	0.014
1048	0.014
1049	0.013
1049	0.012
1049	0.012
1050	0.011
1050	0.01
1051	0.01
1051	0.009
1051	0.009
1052	0.008
1052	0.007
1053	0.006
1053	0.006
1053	0.005
1054	0.004
1054	0.004
1055	0.003
1055	0.003
1056	0.002
1056	0.001
1056	-0
1057	-0.001
1057	-0.001
1058	-0.002
1058	-0.002
1058	-0.002
1059	-0.002
1059	-0.002
1060	-0.002
1060	-0.002
1061	-0.001
1061	-0.001
1061	-0
1062	-0
1062	-0
1063	-0.001
1063	-0.001
1063	-0
1064	-0
1064	-0
1065	-0
1065	-0
1066	-0.001
1066	-0
1066	0
1067	0.001
1067	0.001
1068	0.001
1068	0.001
1068	0.001
1069	0.001
1069	-0
1070	-0.001
1070	-0.002
1071	-0.003
1071	-0.003
1071	-0.005
1072	-0.006
1072	-0.007
1073	-0.008
1073	-0.008
1073	-0.009
1074	-0.01
1074	-0.01
1075	-0.011
1075	-0.012
1076	-0.013
1076	-0.013
1076	-0.013
1077	-0.013
1077	-0.013
1078	-0.014
1078	-0.013
1078	-0.013
1079	-0.013
1079	-0.012
1080	-0.012
1080	-0.012
1080	-0.012
1081	-0.011
1081	-0.011
1082	-0.011
1082	-0.011
1083	-0.011
1083	-0.011
1083	-0.011
1084	-0.012
1084	-0.011
1085	-0.011
1085	-0.011
1085	-0.011
1086	-0.01
1086	-0.011
1087	-0.011
1087	-0.01
1088	-0.011
1088	-0.011
1088	-0.011
1089	-0.012
1089	-0.012
1090	-0.013
1090	-0.013
1090	-0.014
1091	-0.014
1091	-0.014
1092	-0.014
1092	-0.014
1092	-0.013
1093	-0.013
1093	-0.013
1094	-0.013
1094	-0.013
1095	-0.013
1095	-0.013
1095	-0.012
1096	-0.013
1096	-0.013
1097	-0.013
1097	-0.013
1097	-0.013
1098	-0.013
1098	-0.011
1099	-0.01
1099	-0.009
1100	-0.008
1100	-0.008
1100	-0.007
1101	-0.006
1101	-0.005
1102	-0.003
1102	-0.002
1102	-0
1103	0
1103	0.002
1104	0.004
1104	0.007
1104	0.011
1105	0.013
1105	0.015
1106	0.016
1106	0.019
1107	0.021
1107	0.023
1107	0.027
1108	0.043
1108	0.064
1109	0.091
1109	0.127
1109	0.154
1110	0.197
1110	0.271
1111	0.437
1111	1.792
