Data from 17c-2a_Absorbance__1028__01029.txt Node

Date: Fri Jan 26 10:21:46 CET 2024
User: Marek
Spectrometer: MAYP115816
Trigger mode: 0
Integration Time (sec): 2.000000E-1
Scans to average: 10
Electric dark correction enabled: true
Nonlinearity correction enabled: true
Boxcar width: 5
XAxis mode: Wavelengths
Number of Pixels in Spectrum: 2068
>>>>>Begin Spectral Data<<<<<
199	-1.328
199	-1.195
200	-1.053
200	-0.946
201	-0.88
201	-0.839
202	-0.779
202	-0.733
203	-0.694
203	-0.663
204	-0.64
204	-0.618
205	-0.599
205	-0.59
205	-0.589
206	-0.585
206	-0.583
207	-0.58
207	-0.58
208	-0.58
208	-0.578
209	-0.576
209	-0.574
210	-0.575
210	-0.575
211	-0.576
211	-0.578
212	-0.579
212	-0.578
213	-0.577
213	-0.573
213	-0.573
214	-0.571
214	-0.57
215	-0.564
215	-0.562
216	-0.559
216	-0.559
217	-0.554
217	-0.553
218	-0.548
218	-0.547
219	-0.543
219	-0.543
220	-0.542
220	-0.544
221	-0.542
221	-0.542
221	-0.537
222	-0.533
222	-0.53
223	-0.527
223	-0.524
224	-0.52
224	-0.513
225	-0.507
225	-0.5
226	-0.491
226	-0.48
227	-0.47
227	-0.462
228	-0.446
228	-0.432
229	-0.413
229	-0.392
229	-0.37
230	-0.346
230	-0.318
231	-0.291
231	-0.261
232	-0.231
232	-0.198
233	-0.165
233	-0.132
234	-0.099
234	-0.068
235	-0.038
235	-0.01
236	0.017
236	0.042
236	0.066
237	0.088
237	0.107
238	0.125
238	0.141
239	0.156
239	0.168
240	0.18
240	0.191
241	0.2
241	0.209
242	0.216
242	0.224
243	0.231
243	0.236
243	0.242
244	0.246
244	0.251
245	0.255
245	0.259
246	0.263
246	0.266
247	0.269
247	0.272
248	0.275
248	0.279
249	0.281
249	0.284
250	0.286
250	0.289
250	0.291
251	0.293
251	0.295
252	0.298
252	0.3
253	0.302
253	0.303
254	0.305
254	0.307
255	0.308
255	0.31
256	0.311
256	0.312
257	0.313
257	0.314
258	0.315
258	0.315
258	0.316
259	0.317
259	0.317
260	0.317
260	0.317
261	0.317
261	0.318
262	0.317
262	0.317
263	0.317
263	0.316
264	0.316
264	0.316
265	0.315
265	0.314
265	0.313
266	0.312
266	0.311
267	0.31
267	0.309
268	0.308
268	0.306
269	0.305
269	0.303
270	0.301
270	0.3
271	0.298
271	0.297
272	0.295
272	0.293
272	0.291
273	0.289
273	0.287
274	0.285
274	0.283
275	0.281
275	0.279
276	0.277
276	0.275
277	0.274
277	0.271
278	0.269
278	0.267
278	0.265
279	0.263
279	0.26
280	0.258
280	0.256
281	0.254
281	0.252
282	0.25
282	0.248
283	0.246
283	0.244
284	0.242
284	0.241
285	0.239
285	0.238
285	0.236
286	0.234
286	0.232
287	0.23
287	0.229
288	0.227
288	0.226
289	0.224
289	0.223
290	0.221
290	0.22
291	0.219
291	0.217
292	0.216
292	0.215
292	0.214
293	0.213
293	0.212
294	0.211
294	0.21
295	0.209
295	0.208
296	0.207
296	0.206
297	0.205
297	0.205
298	0.204
298	0.203
298	0.203
299	0.202
299	0.202
300	0.201
300	0.201
301	0.2
301	0.199
302	0.199
302	0.198
303	0.198
303	0.197
304	0.197
304	0.196
305	0.195
305	0.195
305	0.194
306	0.194
306	0.193
307	0.193
307	0.192
308	0.191
308	0.191
309	0.19
309	0.19
310	0.189
310	0.189
311	0.188
311	0.188
311	0.187
312	0.187
312	0.187
313	0.186
313	0.186
314	0.185
314	0.185
315	0.184
315	0.184
316	0.183
316	0.183
317	0.182
317	0.182
318	0.181
318	0.181
318	0.181
319	0.18
319	0.18
320	0.179
320	0.179
321	0.178
321	0.178
322	0.177
322	0.176
323	0.176
323	0.175
324	0.175
324	0.174
324	0.174
325	0.173
325	0.173
326	0.172
326	0.172
327	0.171
327	0.171
328	0.171
328	0.17
329	0.17
329	0.169
330	0.169
330	0.168
330	0.168
331	0.167
331	0.167
332	0.166
332	0.166
333	0.166
333	0.165
334	0.165
334	0.165
335	0.164
335	0.164
336	0.164
336	0.163
336	0.163
337	0.162
337	0.162
338	0.161
338	0.161
339	0.161
339	0.16
340	0.16
340	0.16
341	0.159
341	0.159
342	0.159
342	0.158
342	0.158
343	0.158
343	0.158
344	0.157
344	0.157
345	0.157
345	0.156
346	0.156
346	0.156
347	0.156
347	0.155
348	0.155
348	0.155
348	0.154
349	0.154
349	0.154
350	0.154
350	0.154
351	0.153
351	0.153
352	0.153
352	0.153
353	0.153
353	0.153
354	0.152
354	0.152
354	0.152
355	0.152
355	0.152
356	0.151
356	0.151
357	0.15
357	0.15
358	0.15
358	0.15
359	0.15
359	0.15
360	0.15
360	0.15
360	0.15
361	0.15
361	0.151
362	0.151
362	0.151
363	0.151
363	0.151
364	0.151
364	0.151
365	0.151
365	0.151
366	0.151
366	0.151
366	0.151
367	0.151
367	0.15
368	0.15
368	0.15
369	0.15
369	0.15
370	0.149
370	0.149
371	0.149
371	0.148
372	0.148
372	0.148
372	0.148
373	0.148
373	0.148
374	0.148
374	0.148
375	0.148
375	0.148
376	0.149
376	0.149
377	0.149
377	0.149
378	0.149
378	0.149
378	0.149
379	0.149
379	0.149
380	0.149
380	0.149
381	0.149
381	0.149
382	0.148
382	0.148
383	0.148
383	0.148
383	0.148
384	0.147
384	0.147
385	0.147
385	0.147
386	0.147
386	0.146
387	0.146
387	0.146
388	0.146
388	0.147
389	0.146
389	0.146
389	0.146
390	0.146
390	0.146
391	0.147
391	0.147
392	0.147
392	0.147
393	0.147
393	0.147
394	0.147
394	0.146
394	0.146
395	0.146
395	0.146
396	0.146
396	0.146
397	0.145
397	0.145
398	0.145
398	0.145
399	0.145
399	0.145
400	0.144
400	0.144
400	0.144
401	0.144
401	0.143
402	0.143
402	0.143
403	0.143
403	0.143
404	0.143
404	0.143
405	0.143
405	0.143
405	0.143
406	0.143
406	0.143
407	0.143
407	0.143
408	0.143
408	0.143
409	0.143
409	0.143
410	0.143
410	0.143
411	0.143
411	0.143
411	0.143
412	0.143
412	0.142
413	0.142
413	0.142
414	0.142
414	0.142
415	0.141
415	0.141
416	0.141
416	0.141
416	0.141
417	0.14
417	0.14
418	0.141
418	0.141
419	0.141
419	0.141
420	0.142
420	0.142
421	0.142
421	0.142
421	0.142
422	0.142
422	0.142
423	0.143
423	0.142
424	0.142
424	0.142
425	0.142
425	0.141
426	0.141
426	0.141
427	0.141
427	0.141
427	0.141
428	0.141
428	0.141
429	0.142
429	0.142
430	0.142
430	0.142
431	0.141
431	0.141
432	0.141
432	0.141
432	0.141
433	0.14
433	0.14
434	0.14
434	0.14
435	0.141
435	0.141
436	0.141
436	0.141
437	0.141
437	0.141
437	0.141
438	0.141
438	0.141
439	0.141
439	0.14
440	0.14
440	0.14
441	0.14
441	0.14
442	0.14
442	0.14
442	0.14
443	0.14
443	0.14
444	0.14
444	0.14
445	0.14
445	0.14
446	0.14
446	0.14
447	0.141
447	0.141
447	0.141
448	0.141
448	0.141
449	0.141
449	0.141
450	0.141
450	0.141
451	0.141
451	0.141
452	0.141
452	0.141
452	0.141
453	0.141
453	0.14
454	0.14
454	0.14
455	0.141
455	0.141
456	0.141
456	0.14
457	0.14
457	0.14
458	0.141
458	0.141
458	0.141
459	0.142
459	0.142
460	0.141
460	0.141
461	0.141
461	0.142
462	0.142
462	0.142
463	0.143
463	0.143
463	0.143
464	0.143
464	0.143
465	0.144
465	0.144
466	0.144
466	0.144
467	0.144
467	0.144
467	0.144
468	0.144
468	0.143
469	0.143
469	0.143
470	0.143
470	0.143
471	0.143
471	0.143
472	0.143
472	0.143
472	0.144
473	0.144
473	0.145
474	0.145
474	0.146
475	0.146
475	0.147
476	0.147
476	0.148
477	0.148
477	0.149
477	0.149
478	0.149
478	0.15
479	0.15
479	0.151
480	0.151
480	0.152
481	0.152
481	0.153
482	0.154
482	0.155
482	0.155
483	0.157
483	0.158
484	0.16
484	0.16
485	0.161
485	0.162
486	0.163
486	0.163
487	0.164
487	0.164
487	0.165
488	0.165
488	0.165
489	0.165
489	0.166
490	0.167
490	0.167
491	0.168
491	0.169
492	0.17
492	0.17
492	0.171
493	0.172
493	0.173
494	0.174
494	0.176
495	0.177
495	0.177
496	0.178
496	0.179
496	0.181
497	0.181
497	0.183
498	0.184
498	0.184
499	0.185
499	0.186
500	0.188
500	0.189
501	0.19
501	0.192
501	0.193
502	0.194
502	0.195
503	0.197
503	0.198
504	0.199
504	0.2
505	0.202
505	0.203
506	0.204
506	0.205
506	0.206
507	0.207
507	0.208
508	0.209
508	0.21
509	0.211
509	0.212
510	0.213
510	0.214
511	0.215
511	0.216
511	0.216
512	0.217
512	0.218
513	0.218
513	0.219
514	0.219
514	0.22
515	0.22
515	0.221
515	0.221
516	0.222
516	0.223
517	0.223
517	0.224
518	0.224
518	0.224
519	0.224
519	0.224
520	0.224
520	0.224
520	0.224
521	0.223
521	0.222
522	0.221
522	0.221
523	0.221
523	0.221
524	0.221
524	0.221
524	0.221
525	0.222
525	0.222
526	0.223
526	0.223
527	0.224
527	0.224
528	0.225
528	0.225
529	0.225
529	0.225
529	0.225
530	0.224
530	0.224
531	0.223
531	0.222
532	0.221
532	0.221
533	0.22
533	0.219
533	0.218
534	0.217
534	0.215
535	0.215
535	0.214
536	0.212
536	0.211
537	0.21
537	0.209
538	0.208
538	0.207
538	0.205
539	0.205
539	0.204
540	0.202
540	0.2
541	0.199
541	0.197
542	0.196
542	0.194
542	0.193
543	0.191
543	0.19
544	0.188
544	0.187
545	0.186
545	0.185
546	0.184
546	0.183
547	0.181
547	0.18
547	0.178
548	0.177
548	0.176
549	0.175
549	0.174
550	0.172
550	0.171
551	0.169
551	0.167
551	0.166
552	0.165
552	0.164
553	0.162
553	0.161
554	0.16
554	0.158
555	0.156
555	0.154
556	0.152
556	0.149
556	0.147
557	0.145
557	0.144
558	0.141
558	0.139
559	0.138
559	0.136
560	0.135
560	0.134
560	0.133
561	0.132
561	0.132
562	0.131
562	0.129
563	0.128
563	0.126
564	0.125
564	0.124
564	0.122
565	0.121
565	0.12
566	0.118
566	0.117
567	0.116
567	0.115
568	0.115
568	0.114
568	0.114
569	0.114
569	0.113
570	0.112
570	0.111
571	0.111
571	0.111
572	0.11
572	0.11
573	0.109
573	0.108
573	0.107
574	0.106
574	0.105
575	0.105
575	0.105
576	0.105
576	0.103
577	0.102
577	0.101
577	0.1
578	0.099
578	0.099
579	0.099
579	0.1
580	0.098
580	0.095
581	0.093
581	0.092
581	0.092
582	0.092
582	0.091
583	0.091
583	0.09
584	0.088
584	0.086
585	0.085
585	0.086
585	0.086
586	0.086
586	0.085
587	0.084
587	0.082
588	0.08
588	0.079
589	0.079
589	0.079
590	0.079
590	0.078
590	0.079
591	0.08
591	0.079
592	0.079
592	0.078
593	0.078
593	0.078
594	0.078
594	0.077
594	0.077
595	0.076
595	0.075
596	0.075
596	0.076
597	0.078
597	0.078
598	0.078
598	0.078
598	0.079
599	0.079
599	0.078
600	0.077
600	0.076
601	0.076
601	0.075
602	0.073
602	0.072
602	0.072
603	0.071
603	0.072
604	0.072
604	0.073
605	0.074
605	0.074
606	0.074
606	0.073
606	0.073
607	0.073
607	0.073
608	0.072
608	0.071
609	0.071
609	0.071
610	0.07
610	0.069
610	0.07
611	0.071
611	0.072
612	0.073
612	0.075
613	0.076
613	0.077
614	0.078
614	0.077
614	0.078
615	0.078
615	0.078
616	0.078
616	0.078
617	0.078
617	0.078
618	0.077
618	0.077
618	0.077
619	0.078
619	0.078
620	0.08
620	0.08
621	0.08
621	0.081
622	0.081
622	0.081
622	0.081
623	0.081
623	0.082
624	0.083
624	0.083
625	0.083
625	0.084
626	0.084
626	0.084
626	0.084
627	0.085
627	0.086
628	0.086
628	0.086
629	0.086
629	0.086
630	0.086
630	0.086
630	0.087
631	0.087
631	0.087
632	0.087
632	0.088
633	0.089
633	0.089
634	0.091
634	0.092
634	0.094
635	0.095
635	0.095
636	0.096
636	0.097
637	0.098
637	0.098
638	0.099
638	0.1
638	0.101
639	0.101
639	0.101
640	0.102
640	0.103
641	0.104
641	0.105
642	0.106
642	0.107
642	0.109
643	0.11
643	0.111
644	0.113
644	0.114
645	0.116
645	0.118
646	0.12
646	0.122
646	0.124
647	0.126
647	0.128
648	0.13
648	0.132
649	0.134
649	0.137
650	0.139
650	0.141
650	0.143
651	0.145
651	0.147
652	0.149
652	0.15
653	0.152
653	0.158
653	0.161
654	0.129
654	0.105
655	0.106
655	0.107
656	0.108
656	0.11
657	0.111
657	0.113
657	0.114
658	0.112
658	0.108
659	0.136
659	0.175
660	0.182
660	0.184
661	0.186
661	0.188
661	0.19
662	0.192
662	0.195
663	0.197
663	0.199
664	0.201
664	0.203
665	0.205
665	0.207
665	0.209
666	0.211
666	0.212
667	0.214
667	0.216
668	0.217
668	0.219
669	0.221
669	0.223
669	0.225
670	0.227
670	0.228
671	0.229
671	0.231
672	0.232
672	0.234
672	0.235
673	0.236
673	0.238
674	0.239
674	0.241
675	0.242
675	0.244
676	0.246
676	0.248
676	0.25
677	0.251
677	0.253
678	0.254
678	0.255
679	0.256
679	0.257
680	0.259
680	0.26
680	0.26
681	0.261
681	0.262
682	0.263
682	0.264
683	0.265
683	0.266
684	0.267
684	0.267
684	0.267
685	0.267
685	0.267
686	0.267
686	0.267
687	0.266
687	0.266
687	0.266
688	0.265
688	0.265
689	0.265
689	0.266
690	0.266
690	0.266
691	0.266
691	0.266
691	0.267
692	0.266
692	0.266
693	0.266
693	0.265
694	0.264
694	0.263
695	0.263
695	0.263
695	0.262
696	0.261
696	0.261
697	0.26
697	0.259
698	0.258
698	0.256
698	0.255
699	0.254
699	0.252
700	0.249
700	0.248
701	0.247
701	0.245
702	0.243
702	0.242
702	0.24
703	0.238
703	0.236
704	0.235
704	0.233
705	0.233
705	0.231
705	0.23
706	0.229
706	0.229
707	0.227
707	0.226
708	0.225
708	0.224
709	0.223
709	0.222
709	0.22
710	0.218
710	0.216
711	0.215
711	0.213
712	0.211
712	0.209
713	0.207
713	0.206
713	0.204
714	0.201
714	0.199
715	0.197
715	0.195
716	0.192
716	0.19
716	0.188
717	0.186
717	0.184
718	0.181
718	0.179
719	0.177
719	0.176
720	0.174
720	0.172
720	0.17
721	0.168
721	0.166
722	0.165
722	0.162
723	0.161
723	0.16
723	0.158
724	0.156
724	0.154
725	0.152
725	0.151
726	0.15
726	0.148
727	0.147
727	0.146
727	0.144
728	0.143
728	0.141
729	0.14
729	0.139
730	0.137
730	0.135
730	0.134
731	0.133
731	0.131
732	0.13
732	0.129
733	0.128
733	0.127
734	0.126
734	0.125
734	0.125
735	0.125
735	0.124
736	0.123
736	0.122
737	0.121
737	0.12
737	0.118
738	0.116
738	0.114
739	0.112
739	0.11
740	0.109
740	0.108
741	0.107
741	0.105
741	0.104
742	0.102
742	0.101
743	0.1
743	0.1
744	0.099
744	0.098
744	0.096
745	0.095
745	0.093
746	0.091
746	0.09
747	0.089
747	0.088
748	0.087
748	0.085
748	0.084
749	0.083
749	0.082
750	0.081
750	0.08
751	0.08
751	0.08
751	0.08
752	0.079
752	0.078
753	0.078
753	0.078
754	0.078
754	0.077
754	0.078
755	0.077
755	0.077
756	0.077
756	0.075
757	0.075
757	0.075
758	0.074
758	0.074
758	0.074
759	0.074
759	0.072
760	0.071
760	0.07
761	0.069
761	0.069
761	0.068
762	0.067
762	0.066
763	0.064
763	0.062
764	0.06
764	0.058
764	0.057
765	0.055
765	0.054
766	0.053
766	0.052
767	0.051
767	0.049
768	0.047
768	0.046
768	0.045
769	0.044
769	0.043
770	0.042
770	0.041
771	0.039
771	0.037
771	0.035
772	0.033
772	0.032
773	0.031
773	0.029
774	0.027
774	0.025
775	0.024
775	0.023
775	0.021
776	0.02
776	0.019
777	0.018
777	0.017
778	0.015
778	0.014
778	0.012
779	0.011
779	0.01
780	0.008
780	0.006
781	0.004
781	0.002
781	-0.001
782	-0.005
782	-0.008
783	-0.011
783	-0.014
784	-0.018
784	-0.022
784	-0.026
785	-0.03
785	-0.035
786	-0.039
786	-0.042
787	-0.045
787	-0.048
788	-0.053
788	-0.058
788	-0.064
789	-0.07
789	-0.076
790	-0.081
790	-0.087
791	-0.094
791	-0.099
791	-0.104
792	-0.102
792	-0.095
793	-0.093
793	-0.092
794	-0.093
794	-0.096
794	-0.1
795	-0.103
795	-0.103
796	-0.104
796	-0.107
797	-0.115
797	-0.126
797	-0.133
798	-0.138
798	-0.142
799	-0.142
799	-0.142
800	-0.141
800	-0.143
801	-0.145
801	-0.146
801	-0.146
802	-0.147
802	-0.148
803	-0.148
803	-0.149
804	-0.147
804	-0.142
804	-0.136
805	-0.132
805	-0.13
806	-0.128
806	-0.128
807	-0.127
807	-0.127
807	-0.128
808	-0.128
808	-0.129
809	-0.134
809	-0.14
810	-0.144
810	-0.146
810	-0.15
811	-0.153
811	-0.153
812	-0.149
812	-0.146
813	-0.146
813	-0.147
813	-0.147
814	-0.145
814	-0.142
815	-0.136
815	-0.129
816	-0.122
816	-0.116
817	-0.112
817	-0.106
817	-0.097
818	-0.086
818	-0.074
819	-0.063
819	-0.055
820	-0.048
820	-0.042
820	-0.036
821	-0.03
821	-0.025
822	-0.02
822	-0.015
823	-0.011
823	-0.009
823	-0.006
824	-0.003
824	0.001
825	0.004
825	0.007
826	0.01
826	0.012
826	0.014
827	0.016
827	0.018
828	0.019
828	0.02
829	0.022
829	0.023
829	0.023
830	0.023
830	0.024
831	0.025
831	0.026
832	0.026
832	0.026
832	0.027
833	0.027
833	0.027
834	0.027
834	0.028
835	0.028
835	0.027
835	0.027
836	0.027
836	0.027
837	0.028
837	0.028
838	0.029
838	0.029
839	0.029
839	0.029
839	0.029
840	0.029
840	0.029
841	0.029
841	0.029
842	0.029
842	0.028
842	0.028
843	0.028
843	0.028
844	0.028
844	0.028
845	0.028
845	0.029
845	0.029
846	0.029
846	0.029
847	0.029
847	0.029
848	0.029
848	0.029
848	0.03
849	0.03
849	0.03
850	0.031
850	0.03
851	0.031
851	0.031
851	0.031
852	0.031
852	0.031
853	0.03
853	0.03
854	0.03
854	0.03
854	0.03
855	0.03
855	0.029
856	0.029
856	0.029
857	0.029
857	0.029
857	0.029
858	0.029
858	0.029
859	0.029
859	0.029
860	0.03
860	0.031
860	0.032
861	0.033
861	0.034
862	0.034
862	0.035
863	0.035
863	0.035
863	0.035
864	0.035
864	0.035
865	0.036
865	0.036
866	0.036
866	0.036
866	0.036
867	0.036
867	0.036
868	0.037
868	0.036
869	0.036
869	0.036
869	0.034
870	0.034
870	0.033
871	0.032
871	0.032
872	0.032
872	0.031
872	0.032
873	0.032
873	0.033
874	0.033
874	0.034
875	0.034
875	0.034
875	0.033
876	0.033
876	0.032
877	0.032
877	0.031
878	0.03
878	0.029
878	0.029
879	0.028
879	0.028
880	0.028
880	0.027
881	0.027
881	0.028
881	0.028
882	0.028
882	0.028
883	0.028
883	0.027
884	0.027
884	0.027
884	0.026
885	0.026
885	0.025
886	0.025
886	0.025
887	0.025
887	0.025
887	0.025
888	0.025
888	0.026
889	0.027
889	0.028
890	0.029
890	0.029
890	0.03
891	0.03
891	0.031
892	0.031
892	0.032
893	0.032
893	0.032
893	0.032
894	0.032
894	0.031
895	0.031
895	0.03
895	0.029
896	0.028
896	0.027
897	0.026
897	0.025
898	0.025
898	0.024
898	0.024
899	0.023
899	0.023
900	0.023
900	0.023
901	0.023
901	0.023
901	0.023
902	0.023
902	0.023
903	0.024
903	0.024
904	0.025
904	0.025
904	0.026
905	0.027
905	0.028
906	0.028
906	0.029
907	0.029
907	0.03
907	0.03
908	0.031
908	0.031
909	0.032
909	0.033
910	0.033
910	0.034
910	0.034
911	0.034
911	0.035
912	0.035
912	0.035
913	0.034
913	0.034
913	0.033
914	0.032
914	0.032
915	0.031
915	0.03
916	0.029
916	0.028
916	0.026
917	0.025
917	0.023
918	0.022
918	0.02
918	0.019
919	0.017
919	0.016
920	0.015
920	0.015
921	0.015
921	0.015
921	0.015
922	0.015
922	0.016
923	0.016
923	0.017
924	0.018
924	0.018
924	0.019
925	0.019
925	0.02
926	0.021
926	0.021
927	0.021
927	0.021
927	0.022
928	0.022
928	0.021
929	0.021
929	0.02
930	0.02
930	0.019
930	0.018
931	0.018
931	0.017
932	0.017
932	0.017
933	0.016
933	0.016
933	0.016
934	0.015
934	0.015
935	0.015
935	0.014
935	0.014
936	0.013
936	0.013
937	0.012
937	0.012
938	0.012
938	0.011
938	0.011
939	0.012
939	0.012
940	0.013
940	0.014
941	0.014
941	0.016
941	0.017
942	0.018
942	0.019
943	0.02
943	0.021
944	0.022
944	0.022
944	0.022
945	0.023
945	0.023
946	0.024
946	0.024
946	0.024
947	0.025
947	0.025
948	0.026
948	0.026
949	0.026
949	0.026
949	0.026
950	0.026
950	0.026
951	0.026
951	0.025
952	0.025
952	0.024
952	0.023
953	0.023
953	0.023
954	0.022
954	0.022
955	0.022
955	0.023
955	0.023
956	0.023
956	0.023
957	0.023
957	0.023
957	0.023
958	0.023
958	0.024
959	0.024
959	0.024
960	0.024
960	0.024
960	0.024
961	0.024
961	0.024
962	0.025
962	0.026
963	0.026
963	0.027
963	0.027
964	0.027
964	0.028
965	0.028
965	0.028
966	0.028
966	0.028
966	0.028
967	0.027
967	0.027
968	0.026
968	0.025
968	0.024
969	0.023
969	0.022
970	0.021
970	0.021
971	0.02
971	0.019
971	0.019
972	0.019
972	0.019
973	0.019
973	0.019
974	0.02
974	0.02
974	0.021
975	0.022
975	0.023
976	0.024
976	0.025
976	0.025
977	0.026
977	0.026
978	0.027
978	0.027
979	0.027
979	0.027
979	0.026
980	0.026
980	0.025
981	0.024
981	0.023
982	0.022
982	0.021
982	0.02
983	0.019
983	0.018
984	0.017
984	0.016
984	0.015
985	0.014
985	0.013
986	0.012
986	0.011
987	0.011
987	0.01
987	0.01
988	0.01
988	0.01
989	0.01
989	0.011
990	0.011
990	0.012
990	0.013
991	0.014
991	0.016
992	0.017
992	0.018
992	0.019
993	0.02
993	0.021
994	0.021
994	0.021
995	0.021
995	0.021
995	0.021
996	0.02
996	0.019
997	0.018
997	0.018
997	0.018
998	0.017
998	0.017
999	0.018
999	0.018
1000	0.018
1000	0.019
1000	0.02
1001	0.02
1001	0.021
1002	0.022
1002	0.022
1003	0.023
1003	0.023
1003	0.023
1004	0.023
1004	0.023
1005	0.023
1005	0.023
1005	0.022
1006	0.022
1006	0.022
1007	0.022
1007	0.021
1008	0.021
1008	0.021
1008	0.021
1009	0.021
1009	0.021
1010	0.021
1010	0.021
1010	0.021
1011	0.021
1011	0.021
1012	0.02
1012	0.019
1013	0.019
1013	0.018
1013	0.018
1014	0.017
1014	0.016
1015	0.015
1015	0.014
1016	0.013
1016	0.012
1016	0.012
1017	0.011
1017	0.01
1018	0.009
1018	0.009
1018	0.009
1019	0.008
1019	0.008
1020	0.008
1020	0.008
1021	0.008
1021	0.008
1021	0.008
1022	0.008
1022	0.009
1023	0.009
1023	0.009
1023	0.01
1024	0.01
1024	0.009
1025	0.009
1025	0.009
1026	0.008
1026	0.008
1026	0.008
1027	0.007
1027	0.006
1028	0.006
1028	0.006
1028	0.005
1029	0.005
1029	0.005
1030	0.004
1030	0.004
1031	0.004
1031	0.004
1031	0.004
1032	0.004
1032	0.004
1033	0.004
1033	0.004
1033	0.004
1034	0.004
1034	0.003
1035	0.003
1035	0.002
1036	0.002
1036	0.002
1036	0.002
1037	0.002
1037	0.002
1038	0.002
1038	0.003
1039	0.003
1039	0.004
1039	0.005
1040	0.006
1040	0.007
1041	0.008
1041	0.009
1041	0.01
1042	0.01
1042	0.011
1043	0.012
1043	0.012
1044	0.013
1044	0.014
1044	0.014
1045	0.014
1045	0.014
1046	0.014
1046	0.014
1046	0.013
1047	0.013
1047	0.013
1048	0.013
1048	0.013
1049	0.012
1049	0.011
1049	0.01
1050	0.009
1050	0.009
1051	0.008
1051	0.008
1051	0.007
1052	0.007
1052	0.006
1053	0.005
1053	0.004
1053	0.004
1054	0.003
1054	0.002
1055	0.002
1055	0.001
1056	0
1056	-0.001
1056	-0.002
1057	-0.003
1057	-0.004
1058	-0.004
1058	-0.004
1058	-0.004
1059	-0.005
1059	-0.005
1060	-0.005
1060	-0.005
1061	-0.004
1061	-0.004
1061	-0.003
1062	-0.003
1062	-0.004
1063	-0.004
1063	-0.004
1063	-0.004
1064	-0.004
1064	-0.004
1065	-0.004
1065	-0.004
1066	-0.004
1066	-0.003
1066	-0.003
1067	-0.002
1067	-0.002
1068	-0.002
1068	-0.002
1068	-0.003
1069	-0.003
1069	-0.004
1070	-0.005
1070	-0.006
1071	-0.006
1071	-0.007
1071	-0.008
1072	-0.009
1072	-0.01
1073	-0.011
1073	-0.011
1073	-0.012
1074	-0.012
1074	-0.012
1075	-0.014
1075	-0.015
1076	-0.016
1076	-0.016
1076	-0.017
1077	-0.017
1077	-0.017
1078	-0.018
1078	-0.018
1078	-0.017
1079	-0.018
1079	-0.017
1080	-0.016
1080	-0.016
1080	-0.016
1081	-0.015
1081	-0.014
1082	-0.014
1082	-0.014
1083	-0.014
1083	-0.014
1083	-0.014
1084	-0.014
1084	-0.014
1085	-0.013
1085	-0.013
1085	-0.013
1086	-0.013
1086	-0.014
1087	-0.014
1087	-0.013
1088	-0.013
1088	-0.014
1088	-0.014
1089	-0.014
1089	-0.015
1090	-0.015
1090	-0.015
1090	-0.016
1091	-0.016
1091	-0.016
1092	-0.017
1092	-0.016
1092	-0.017
1093	-0.017
1093	-0.016
1094	-0.016
1094	-0.016
1095	-0.017
1095	-0.017
1095	-0.017
1096	-0.017
1096	-0.016
1097	-0.016
1097	-0.015
1097	-0.014
1098	-0.013
1098	-0.012
1099	-0.011
1099	-0.01
1100	-0.008
1100	-0.007
1100	-0.007
1101	-0.006
1101	-0.005
1102	-0.004
1102	-0.003
1102	-0.002
1103	-0.002
1103	-0
1104	0.003
1104	0.004
1104	0.007
1105	0.009
1105	0.01
1106	0.011
1106	0.013
1107	0.014
1107	0.017
1107	0.021
1108	0.039
1108	0.06
1109	0.09
1109	0.131
1109	0.161
1110	0.209
1110	0.296
1111	0.496
1111	-0
