Data from 17c-2a_Absorbance__2385__02386.txt Node

Date: Fri Jan 26 11:07:00 CET 2024
User: Marek
Spectrometer: MAYP115816
Trigger mode: 0
Integration Time (sec): 2.000000E-1
Scans to average: 10
Electric dark correction enabled: true
Nonlinearity correction enabled: true
Boxcar width: 5
XAxis mode: Wavelengths
Number of Pixels in Spectrum: 2068
>>>>>Begin Spectral Data<<<<<
199	-1.492
199	-1.356
200	-1.208
200	-1.098
201	-1.028
201	-0.985
202	-0.922
202	-0.871
203	-0.829
203	-0.794
204	-0.769
204	-0.745
205	-0.723
205	-0.714
205	-0.712
206	-0.707
206	-0.704
207	-0.7
207	-0.699
208	-0.698
208	-0.697
209	-0.694
209	-0.692
210	-0.693
210	-0.694
211	-0.695
211	-0.697
212	-0.697
212	-0.697
213	-0.695
213	-0.692
213	-0.692
214	-0.69
214	-0.689
215	-0.684
215	-0.682
216	-0.678
216	-0.677
217	-0.674
217	-0.673
218	-0.668
218	-0.667
219	-0.663
219	-0.662
220	-0.66
220	-0.661
221	-0.658
221	-0.657
221	-0.652
222	-0.646
222	-0.643
223	-0.639
223	-0.636
224	-0.631
224	-0.624
225	-0.617
225	-0.609
226	-0.602
226	-0.59
227	-0.579
227	-0.569
228	-0.553
228	-0.537
229	-0.516
229	-0.494
229	-0.471
230	-0.442
230	-0.411
231	-0.379
231	-0.344
232	-0.309
232	-0.27
233	-0.231
233	-0.19
234	-0.15
234	-0.111
235	-0.071
235	-0.034
236	0.002
236	0.037
236	0.07
237	0.1
237	0.129
238	0.155
238	0.179
239	0.201
239	0.222
240	0.241
240	0.257
241	0.272
241	0.286
242	0.298
242	0.31
243	0.321
243	0.33
243	0.338
244	0.346
244	0.353
245	0.36
245	0.366
246	0.372
246	0.377
247	0.381
247	0.386
248	0.39
248	0.394
249	0.398
249	0.402
250	0.405
250	0.408
250	0.412
251	0.414
251	0.417
252	0.42
252	0.423
253	0.425
253	0.427
254	0.429
254	0.431
255	0.433
255	0.435
256	0.436
256	0.437
257	0.439
257	0.44
258	0.441
258	0.442
258	0.443
259	0.443
259	0.444
260	0.444
260	0.445
261	0.445
261	0.445
262	0.445
262	0.445
263	0.445
263	0.444
264	0.444
264	0.443
265	0.443
265	0.442
265	0.441
266	0.44
266	0.439
267	0.438
267	0.436
268	0.435
268	0.433
269	0.432
269	0.43
270	0.428
270	0.427
271	0.425
271	0.423
272	0.421
272	0.419
272	0.417
273	0.415
273	0.412
274	0.41
274	0.408
275	0.406
275	0.404
276	0.402
276	0.4
277	0.397
277	0.395
278	0.392
278	0.39
278	0.387
279	0.385
279	0.382
280	0.38
280	0.377
281	0.375
281	0.372
282	0.37
282	0.368
283	0.366
283	0.364
284	0.362
284	0.361
285	0.359
285	0.356
285	0.354
286	0.352
286	0.35
287	0.348
287	0.346
288	0.344
288	0.343
289	0.341
289	0.339
290	0.337
290	0.336
291	0.334
291	0.333
292	0.332
292	0.33
292	0.329
293	0.327
293	0.326
294	0.325
294	0.323
295	0.322
295	0.321
296	0.32
296	0.318
297	0.317
297	0.316
298	0.315
298	0.314
298	0.313
299	0.313
299	0.312
300	0.311
300	0.31
301	0.309
301	0.308
302	0.307
302	0.306
303	0.306
303	0.305
304	0.304
304	0.303
305	0.302
305	0.301
305	0.301
306	0.3
306	0.299
307	0.298
307	0.297
308	0.296
308	0.295
309	0.295
309	0.294
310	0.293
310	0.292
311	0.292
311	0.291
311	0.29
312	0.29
312	0.289
313	0.288
313	0.287
314	0.287
314	0.286
315	0.285
315	0.284
316	0.283
316	0.283
317	0.282
317	0.281
318	0.28
318	0.28
318	0.279
319	0.278
319	0.277
320	0.276
320	0.276
321	0.275
321	0.274
322	0.273
322	0.272
323	0.272
323	0.271
324	0.27
324	0.269
324	0.268
325	0.268
325	0.267
326	0.266
326	0.266
327	0.265
327	0.264
328	0.264
328	0.263
329	0.262
329	0.262
330	0.261
330	0.26
330	0.259
331	0.259
331	0.258
332	0.258
332	0.257
333	0.256
333	0.256
334	0.255
334	0.255
335	0.254
335	0.253
336	0.253
336	0.252
336	0.251
337	0.251
337	0.25
338	0.25
338	0.249
339	0.249
339	0.248
340	0.248
340	0.247
341	0.247
341	0.246
342	0.246
342	0.245
342	0.245
343	0.244
343	0.244
344	0.244
344	0.243
345	0.243
345	0.243
346	0.242
346	0.242
347	0.241
347	0.241
348	0.241
348	0.24
348	0.24
349	0.239
349	0.239
350	0.239
350	0.238
351	0.238
351	0.238
352	0.237
352	0.237
353	0.237
353	0.237
354	0.236
354	0.236
354	0.236
355	0.235
355	0.235
356	0.234
356	0.234
357	0.233
357	0.233
358	0.233
358	0.233
359	0.233
359	0.233
360	0.233
360	0.233
360	0.233
361	0.233
361	0.233
362	0.234
362	0.234
363	0.234
363	0.234
364	0.233
364	0.233
365	0.233
365	0.233
366	0.233
366	0.233
366	0.233
367	0.233
367	0.232
368	0.232
368	0.231
369	0.231
369	0.231
370	0.231
370	0.23
371	0.23
371	0.23
372	0.229
372	0.229
372	0.229
373	0.229
373	0.229
374	0.229
374	0.229
375	0.229
375	0.229
376	0.229
376	0.229
377	0.229
377	0.229
378	0.229
378	0.228
378	0.228
379	0.228
379	0.228
380	0.228
380	0.228
381	0.228
381	0.227
382	0.227
382	0.227
383	0.227
383	0.227
383	0.226
384	0.226
384	0.226
385	0.226
385	0.226
386	0.226
386	0.225
387	0.225
387	0.225
388	0.225
388	0.225
389	0.224
389	0.224
389	0.224
390	0.224
390	0.223
391	0.223
391	0.224
392	0.224
392	0.224
393	0.224
393	0.224
394	0.223
394	0.223
394	0.223
395	0.223
395	0.223
396	0.222
396	0.222
397	0.222
397	0.221
398	0.221
398	0.221
399	0.221
399	0.22
400	0.22
400	0.22
400	0.22
401	0.219
401	0.219
402	0.219
402	0.218
403	0.218
403	0.217
404	0.217
404	0.217
405	0.217
405	0.217
405	0.217
406	0.217
406	0.217
407	0.217
407	0.217
408	0.217
408	0.216
409	0.216
409	0.216
410	0.216
410	0.216
411	0.216
411	0.215
411	0.215
412	0.215
412	0.215
413	0.215
413	0.214
414	0.214
414	0.214
415	0.214
415	0.213
416	0.213
416	0.213
416	0.213
417	0.212
417	0.212
418	0.212
418	0.212
419	0.212
419	0.213
420	0.213
420	0.213
421	0.213
421	0.213
421	0.213
422	0.214
422	0.213
423	0.213
423	0.213
424	0.213
424	0.212
425	0.212
425	0.212
426	0.212
426	0.211
427	0.211
427	0.211
427	0.211
428	0.212
428	0.212
429	0.212
429	0.212
430	0.212
430	0.212
431	0.212
431	0.212
432	0.212
432	0.211
432	0.211
433	0.21
433	0.21
434	0.21
434	0.21
435	0.21
435	0.21
436	0.21
436	0.21
437	0.211
437	0.21
437	0.21
438	0.21
438	0.21
439	0.21
439	0.21
440	0.209
440	0.209
441	0.209
441	0.209
442	0.209
442	0.209
442	0.209
443	0.209
443	0.209
444	0.209
444	0.209
445	0.209
445	0.209
446	0.209
446	0.209
447	0.209
447	0.209
447	0.209
448	0.209
448	0.209
449	0.209
449	0.209
450	0.209
450	0.209
451	0.21
451	0.21
452	0.21
452	0.21
452	0.209
453	0.209
453	0.209
454	0.209
454	0.209
455	0.209
455	0.209
456	0.209
456	0.209
457	0.209
457	0.209
458	0.209
458	0.209
458	0.21
459	0.21
459	0.21
460	0.21
460	0.209
461	0.209
461	0.21
462	0.21
462	0.21
463	0.21
463	0.211
463	0.211
464	0.211
464	0.211
465	0.211
465	0.212
466	0.212
466	0.212
467	0.212
467	0.212
467	0.212
468	0.211
468	0.211
469	0.211
469	0.211
470	0.211
470	0.211
471	0.211
471	0.211
472	0.212
472	0.212
472	0.213
473	0.214
473	0.215
474	0.215
474	0.216
475	0.217
475	0.217
476	0.218
476	0.219
477	0.219
477	0.22
477	0.22
478	0.221
478	0.221
479	0.222
479	0.222
480	0.223
480	0.224
481	0.225
481	0.226
482	0.226
482	0.227
482	0.229
483	0.231
483	0.233
484	0.235
484	0.236
485	0.238
485	0.239
486	0.24
486	0.24
487	0.241
487	0.242
487	0.243
488	0.243
488	0.243
489	0.243
489	0.243
490	0.244
490	0.245
491	0.246
491	0.247
492	0.248
492	0.249
492	0.25
493	0.251
493	0.253
494	0.255
494	0.257
495	0.259
495	0.26
496	0.262
496	0.263
496	0.265
497	0.267
497	0.269
498	0.27
498	0.271
499	0.273
499	0.274
500	0.276
500	0.278
501	0.28
501	0.282
501	0.284
502	0.285
502	0.287
503	0.289
503	0.291
504	0.292
504	0.293
505	0.295
505	0.296
506	0.298
506	0.299
506	0.3
507	0.302
507	0.303
508	0.304
508	0.306
509	0.307
509	0.309
510	0.31
510	0.312
511	0.313
511	0.314
511	0.315
512	0.317
512	0.318
513	0.319
513	0.319
514	0.32
514	0.32
515	0.321
515	0.321
515	0.322
516	0.322
516	0.324
517	0.325
517	0.325
518	0.325
518	0.326
519	0.326
519	0.325
520	0.325
520	0.325
520	0.325
521	0.324
521	0.323
522	0.322
522	0.322
523	0.322
523	0.322
524	0.323
524	0.324
524	0.324
525	0.325
525	0.325
526	0.326
526	0.326
527	0.327
527	0.327
528	0.327
528	0.327
529	0.326
529	0.326
529	0.325
530	0.325
530	0.324
531	0.323
531	0.322
532	0.321
532	0.32
533	0.319
533	0.318
533	0.317
534	0.316
534	0.314
535	0.312
535	0.311
536	0.31
536	0.308
537	0.307
537	0.305
538	0.303
538	0.301
538	0.299
539	0.298
539	0.297
540	0.295
540	0.292
541	0.29
541	0.288
542	0.286
542	0.284
542	0.282
543	0.28
543	0.278
544	0.276
544	0.274
545	0.272
545	0.271
546	0.269
546	0.267
547	0.265
547	0.262
547	0.26
548	0.258
548	0.256
549	0.254
549	0.251
550	0.249
550	0.247
551	0.244
551	0.241
551	0.239
552	0.237
552	0.235
553	0.233
553	0.231
554	0.229
554	0.226
555	0.224
555	0.221
556	0.218
556	0.215
556	0.212
557	0.209
557	0.207
558	0.204
558	0.201
559	0.199
559	0.197
560	0.195
560	0.193
560	0.191
561	0.19
561	0.189
562	0.187
562	0.185
563	0.183
563	0.18
564	0.178
564	0.176
564	0.174
565	0.172
565	0.17
566	0.168
566	0.166
567	0.164
567	0.163
568	0.163
568	0.162
568	0.161
569	0.161
569	0.161
570	0.16
570	0.158
571	0.158
571	0.158
572	0.157
572	0.155
573	0.154
573	0.153
573	0.151
574	0.15
574	0.149
575	0.148
575	0.148
576	0.148
576	0.145
577	0.144
577	0.142
577	0.141
578	0.14
578	0.139
579	0.139
579	0.139
580	0.137
580	0.134
581	0.131
581	0.129
581	0.128
582	0.128
582	0.128
583	0.128
583	0.126
584	0.123
584	0.12
585	0.12
585	0.12
585	0.12
586	0.119
586	0.119
587	0.117
587	0.115
588	0.113
588	0.111
589	0.11
589	0.11
590	0.109
590	0.108
590	0.109
591	0.109
591	0.108
592	0.108
592	0.107
593	0.107
593	0.107
594	0.106
594	0.106
594	0.105
595	0.105
595	0.103
596	0.103
596	0.104
597	0.106
597	0.106
598	0.106
598	0.107
598	0.107
599	0.107
599	0.106
600	0.105
600	0.105
601	0.104
601	0.103
602	0.101
602	0.1
602	0.099
603	0.098
603	0.099
604	0.099
604	0.099
605	0.1
605	0.101
606	0.101
606	0.1
606	0.099
607	0.099
607	0.099
608	0.099
608	0.097
609	0.097
609	0.097
610	0.096
610	0.095
610	0.096
611	0.097
611	0.098
612	0.099
612	0.101
613	0.102
613	0.104
614	0.104
614	0.104
614	0.104
615	0.104
615	0.104
616	0.104
616	0.104
617	0.104
617	0.104
618	0.103
618	0.102
618	0.102
619	0.102
619	0.103
620	0.104
620	0.105
621	0.105
621	0.105
622	0.105
622	0.105
622	0.105
623	0.105
623	0.106
624	0.107
624	0.107
625	0.107
625	0.108
626	0.109
626	0.109
626	0.111
627	0.112
627	0.113
628	0.114
628	0.115
629	0.116
629	0.116
630	0.116
630	0.116
630	0.117
631	0.117
631	0.117
632	0.117
632	0.118
633	0.118
633	0.119
634	0.121
634	0.123
634	0.124
635	0.126
635	0.127
636	0.128
636	0.129
637	0.13
637	0.131
638	0.133
638	0.134
638	0.135
639	0.135
639	0.136
640	0.137
640	0.138
641	0.14
641	0.141
642	0.143
642	0.145
642	0.147
643	0.149
643	0.15
644	0.152
644	0.154
645	0.156
645	0.159
646	0.161
646	0.164
646	0.167
647	0.171
647	0.174
648	0.177
648	0.18
649	0.183
649	0.186
650	0.189
650	0.192
650	0.195
651	0.198
651	0.2
652	0.202
652	0.204
653	0.206
653	0.214
653	0.22
654	0.174
654	0.14
655	0.143
655	0.145
656	0.147
656	0.149
657	0.151
657	0.153
657	0.155
658	0.153
658	0.145
659	0.185
659	0.241
660	0.249
660	0.251
661	0.254
661	0.256
661	0.259
662	0.262
662	0.265
663	0.269
663	0.272
664	0.275
664	0.277
665	0.28
665	0.283
665	0.286
666	0.288
666	0.291
667	0.294
667	0.296
668	0.299
668	0.302
669	0.305
669	0.308
669	0.312
670	0.315
670	0.318
671	0.32
671	0.322
672	0.324
672	0.326
672	0.328
673	0.33
673	0.332
674	0.334
674	0.335
675	0.337
675	0.339
676	0.342
676	0.344
676	0.345
677	0.348
677	0.35
678	0.351
678	0.352
679	0.353
679	0.354
680	0.356
680	0.357
680	0.358
681	0.359
681	0.36
682	0.361
682	0.363
683	0.364
683	0.366
684	0.367
684	0.367
684	0.367
685	0.367
685	0.367
686	0.367
686	0.367
687	0.366
687	0.366
687	0.365
688	0.365
688	0.364
689	0.365
689	0.366
690	0.366
690	0.366
691	0.367
691	0.367
691	0.367
692	0.367
692	0.366
693	0.365
693	0.365
694	0.363
694	0.361
695	0.361
695	0.361
695	0.36
696	0.358
696	0.357
697	0.356
697	0.355
698	0.353
698	0.351
698	0.349
699	0.348
699	0.345
700	0.341
700	0.339
701	0.337
701	0.335
702	0.332
702	0.33
702	0.328
703	0.325
703	0.323
704	0.321
704	0.319
705	0.318
705	0.316
705	0.314
706	0.312
706	0.311
707	0.309
707	0.307
708	0.305
708	0.304
709	0.302
709	0.3
709	0.297
710	0.295
710	0.293
711	0.291
711	0.289
712	0.286
712	0.284
713	0.282
713	0.28
713	0.277
714	0.274
714	0.271
715	0.268
715	0.265
716	0.262
716	0.259
716	0.256
717	0.253
717	0.25
718	0.247
718	0.244
719	0.242
719	0.24
720	0.238
720	0.235
720	0.233
721	0.23
721	0.228
722	0.225
722	0.223
723	0.22
723	0.219
723	0.216
724	0.214
724	0.212
725	0.21
725	0.208
726	0.206
726	0.204
727	0.201
727	0.199
727	0.197
728	0.195
728	0.192
729	0.191
729	0.189
730	0.186
730	0.184
730	0.182
731	0.18
731	0.178
732	0.177
732	0.176
733	0.175
733	0.173
734	0.172
734	0.17
734	0.169
735	0.168
735	0.167
736	0.165
736	0.163
737	0.161
737	0.159
737	0.157
738	0.154
738	0.151
739	0.149
739	0.146
740	0.143
740	0.141
741	0.14
741	0.137
741	0.135
742	0.132
742	0.13
743	0.128
743	0.126
744	0.125
744	0.123
744	0.121
745	0.12
745	0.118
746	0.116
746	0.115
747	0.114
747	0.113
748	0.113
748	0.112
748	0.111
749	0.11
749	0.109
750	0.109
750	0.108
751	0.108
751	0.107
751	0.107
752	0.106
752	0.105
753	0.104
753	0.104
754	0.103
754	0.102
754	0.102
755	0.101
755	0.101
756	0.1
756	0.098
757	0.097
757	0.097
758	0.096
758	0.095
758	0.094
759	0.094
759	0.092
760	0.09
760	0.088
761	0.086
761	0.085
761	0.083
762	0.081
762	0.08
763	0.078
763	0.075
764	0.072
764	0.07
764	0.068
765	0.066
765	0.064
766	0.062
766	0.061
767	0.06
767	0.058
768	0.056
768	0.055
768	0.054
769	0.053
769	0.052
770	0.051
770	0.049
771	0.047
771	0.045
771	0.042
772	0.04
772	0.039
773	0.037
773	0.034
774	0.032
774	0.029
775	0.027
775	0.025
775	0.022
776	0.02
776	0.018
777	0.016
777	0.015
778	0.012
778	0.01
778	0.008
779	0.006
779	0.005
780	0.002
780	-0.001
781	-0.004
781	-0.007
781	-0.011
782	-0.015
782	-0.019
783	-0.023
783	-0.028
784	-0.033
784	-0.038
784	-0.043
785	-0.048
785	-0.054
786	-0.059
786	-0.063
787	-0.066
787	-0.071
788	-0.076
788	-0.083
788	-0.09
789	-0.097
789	-0.102
790	-0.104
790	-0.108
791	-0.112
791	-0.116
791	-0.119
792	-0.114
792	-0.104
793	-0.099
793	-0.095
794	-0.093
794	-0.096
794	-0.1
795	-0.102
795	-0.103
796	-0.103
796	-0.106
797	-0.115
797	-0.126
797	-0.132
798	-0.138
798	-0.141
799	-0.142
799	-0.141
800	-0.14
800	-0.142
801	-0.145
801	-0.145
801	-0.145
802	-0.146
802	-0.147
803	-0.148
803	-0.148
804	-0.147
804	-0.142
804	-0.135
805	-0.131
805	-0.13
806	-0.128
806	-0.127
807	-0.127
807	-0.127
807	-0.127
808	-0.127
808	-0.128
809	-0.133
809	-0.139
810	-0.143
810	-0.146
810	-0.149
811	-0.152
811	-0.152
812	-0.148
812	-0.145
813	-0.145
813	-0.146
813	-0.147
814	-0.148
814	-0.149
815	-0.147
815	-0.144
816	-0.14
816	-0.137
817	-0.137
817	-0.134
817	-0.128
818	-0.119
818	-0.109
819	-0.097
819	-0.087
820	-0.078
820	-0.069
820	-0.061
821	-0.052
821	-0.045
822	-0.038
822	-0.032
823	-0.027
823	-0.023
823	-0.02
824	-0.016
824	-0.012
825	-0.007
825	-0.003
826	0
826	0.003
826	0.005
827	0.008
827	0.01
828	0.012
828	0.013
829	0.015
829	0.016
829	0.017
830	0.018
830	0.019
831	0.021
831	0.022
832	0.022
832	0.023
832	0.024
833	0.024
833	0.024
834	0.025
834	0.025
835	0.025
835	0.024
835	0.024
836	0.024
836	0.025
837	0.025
837	0.026
838	0.026
838	0.027
839	0.027
839	0.027
839	0.027
840	0.027
840	0.027
841	0.027
841	0.027
842	0.027
842	0.027
842	0.027
843	0.026
843	0.026
844	0.027
844	0.027
845	0.026
845	0.026
845	0.026
846	0.026
846	0.026
847	0.026
847	0.026
848	0.027
848	0.027
848	0.028
849	0.028
849	0.029
850	0.03
850	0.03
851	0.031
851	0.032
851	0.032
852	0.032
852	0.032
853	0.031
853	0.031
854	0.03
854	0.03
854	0.029
855	0.029
855	0.028
856	0.027
856	0.027
857	0.026
857	0.026
857	0.026
858	0.026
858	0.026
859	0.026
859	0.027
860	0.027
860	0.028
860	0.028
861	0.029
861	0.03
862	0.03
862	0.031
863	0.031
863	0.031
863	0.032
864	0.032
864	0.032
865	0.033
865	0.033
866	0.034
866	0.034
866	0.035
867	0.035
867	0.036
868	0.036
868	0.036
869	0.036
869	0.035
869	0.034
870	0.034
870	0.033
871	0.032
871	0.032
872	0.031
872	0.031
872	0.031
873	0.031
873	0.031
874	0.031
874	0.031
875	0.031
875	0.031
875	0.03
876	0.03
876	0.029
877	0.028
877	0.028
878	0.027
878	0.026
878	0.026
879	0.025
879	0.025
880	0.025
880	0.025
881	0.025
881	0.025
881	0.025
882	0.025
882	0.025
883	0.025
883	0.025
884	0.025
884	0.024
884	0.023
885	0.023
885	0.023
886	0.023
886	0.023
887	0.023
887	0.023
887	0.023
888	0.023
888	0.023
889	0.024
889	0.025
890	0.026
890	0.026
890	0.027
891	0.027
891	0.027
892	0.028
892	0.028
893	0.029
893	0.03
893	0.03
894	0.031
894	0.031
895	0.03
895	0.03
895	0.03
896	0.03
896	0.03
897	0.03
897	0.03
898	0.03
898	0.03
898	0.03
899	0.03
899	0.031
900	0.031
900	0.031
901	0.031
901	0.031
901	0.031
902	0.031
902	0.03
903	0.03
903	0.03
904	0.031
904	0.031
904	0.032
905	0.032
905	0.033
906	0.033
906	0.033
907	0.033
907	0.033
907	0.033
908	0.033
908	0.032
909	0.033
909	0.033
910	0.033
910	0.033
910	0.033
911	0.032
911	0.032
912	0.032
912	0.032
913	0.032
913	0.032
913	0.032
914	0.031
914	0.031
915	0.03
915	0.03
916	0.03
916	0.029
916	0.029
917	0.028
917	0.027
918	0.026
918	0.025
918	0.024
919	0.023
919	0.023
920	0.022
920	0.021
921	0.021
921	0.021
921	0.021
922	0.021
922	0.021
923	0.021
923	0.022
924	0.022
924	0.022
924	0.022
925	0.022
925	0.023
926	0.023
926	0.023
927	0.023
927	0.023
927	0.023
928	0.022
928	0.022
929	0.022
929	0.022
930	0.021
930	0.021
930	0.021
931	0.02
931	0.02
932	0.02
932	0.02
933	0.02
933	0.02
933	0.02
934	0.019
934	0.019
935	0.018
935	0.018
935	0.017
936	0.016
936	0.016
937	0.015
937	0.015
938	0.015
938	0.014
938	0.015
939	0.015
939	0.016
940	0.017
940	0.018
941	0.018
941	0.02
941	0.021
942	0.022
942	0.023
943	0.024
943	0.024
944	0.025
944	0.025
944	0.026
945	0.026
945	0.027
946	0.027
946	0.027
946	0.028
947	0.028
947	0.029
948	0.029
948	0.029
949	0.03
949	0.03
949	0.03
950	0.031
950	0.031
951	0.031
951	0.031
952	0.031
952	0.03
952	0.03
953	0.029
953	0.029
954	0.028
954	0.027
955	0.027
955	0.027
955	0.027
956	0.026
956	0.026
957	0.026
957	0.026
957	0.026
958	0.026
958	0.026
959	0.026
959	0.026
960	0.026
960	0.025
960	0.025
961	0.025
961	0.025
962	0.025
962	0.025
963	0.025
963	0.025
963	0.025
964	0.026
964	0.026
965	0.026
965	0.026
966	0.027
966	0.027
966	0.027
967	0.027
967	0.026
968	0.026
968	0.025
968	0.024
969	0.024
969	0.023
970	0.022
970	0.022
971	0.021
971	0.021
971	0.02
972	0.02
972	0.02
973	0.02
973	0.02
974	0.021
974	0.021
974	0.021
975	0.022
975	0.023
976	0.024
976	0.025
976	0.025
977	0.026
977	0.026
978	0.027
978	0.027
979	0.027
979	0.027
979	0.027
980	0.026
980	0.025
981	0.024
981	0.023
982	0.022
982	0.021
982	0.02
983	0.019
983	0.018
984	0.017
984	0.016
984	0.015
985	0.013
985	0.012
986	0.011
986	0.01
987	0.009
987	0.009
987	0.008
988	0.008
988	0.008
989	0.008
989	0.008
990	0.008
990	0.009
990	0.01
991	0.011
991	0.012
992	0.013
992	0.014
992	0.014
993	0.015
993	0.016
994	0.016
994	0.016
995	0.016
995	0.016
995	0.015
996	0.015
996	0.014
997	0.014
997	0.013
997	0.013
998	0.013
998	0.014
999	0.015
999	0.015
1000	0.016
1000	0.017
1000	0.018
1001	0.019
1001	0.02
1002	0.021
1002	0.021
1003	0.022
1003	0.022
1003	0.022
1004	0.022
1004	0.022
1005	0.021
1005	0.021
1005	0.02
1006	0.019
1006	0.018
1007	0.018
1007	0.017
1008	0.017
1008	0.016
1008	0.016
1009	0.016
1009	0.016
1010	0.016
1010	0.017
1010	0.017
1011	0.017
1011	0.017
1012	0.017
1012	0.017
1013	0.017
1013	0.016
1013	0.016
1014	0.015
1014	0.014
1015	0.013
1015	0.012
1016	0.011
1016	0.01
1016	0.009
1017	0.009
1017	0.008
1018	0.007
1018	0.006
1018	0.006
1019	0.005
1019	0.005
1020	0.005
1020	0.005
1021	0.005
1021	0.005
1021	0.005
1022	0.006
1022	0.006
1023	0.007
1023	0.007
1023	0.007
1024	0.008
1024	0.008
1025	0.008
1025	0.008
1026	0.008
1026	0.008
1026	0.008
1027	0.007
1027	0.007
1028	0.007
1028	0.007
1028	0.007
1029	0.007
1029	0.007
1030	0.007
1030	0.006
1031	0.006
1031	0.006
1031	0.006
1032	0.006
1032	0.006
1033	0.006
1033	0.006
1033	0.006
1034	0.006
1034	0.005
1035	0.005
1035	0.005
1036	0.004
1036	0.004
1036	0.004
1037	0.004
1037	0.004
1038	0.004
1038	0.004
1039	0.004
1039	0.004
1039	0.005
1040	0.005
1040	0.006
1041	0.007
1041	0.008
1041	0.008
1042	0.009
1042	0.009
1043	0.01
1043	0.011
1044	0.012
1044	0.013
1044	0.014
1045	0.014
1045	0.015
1046	0.015
1046	0.015
1046	0.015
1047	0.016
1047	0.016
1048	0.016
1048	0.016
1049	0.015
1049	0.014
1049	0.013
1050	0.012
1050	0.011
1051	0.011
1051	0.01
1051	0.009
1052	0.008
1052	0.007
1053	0.006
1053	0.005
1053	0.005
1054	0.004
1054	0.003
1055	0.003
1055	0.001
1056	-0
1056	-0.001
1056	-0.003
1057	-0.004
1057	-0.005
1058	-0.006
1058	-0.006
1058	-0.007
1059	-0.007
1059	-0.008
1060	-0.008
1060	-0.008
1061	-0.008
1061	-0.007
1061	-0.007
1062	-0.007
1062	-0.007
1063	-0.007
1063	-0.007
1063	-0.007
1064	-0.006
1064	-0.006
1065	-0.005
1065	-0.005
1066	-0.005
1066	-0.004
1066	-0.003
1067	-0.003
1067	-0.002
1068	-0.002
1068	-0.002
1068	-0.003
1069	-0.003
1069	-0.004
1070	-0.005
1070	-0.006
1071	-0.007
1071	-0.007
1071	-0.009
1072	-0.01
1072	-0.011
1073	-0.012
1073	-0.013
1073	-0.014
1074	-0.014
1074	-0.015
1075	-0.016
1075	-0.017
1076	-0.018
1076	-0.018
1076	-0.019
1077	-0.019
1077	-0.018
1078	-0.019
1078	-0.018
1078	-0.017
1079	-0.017
1079	-0.015
1080	-0.014
1080	-0.013
1080	-0.013
1081	-0.012
1081	-0.011
1082	-0.01
1082	-0.009
1083	-0.008
1083	-0.008
1083	-0.008
1084	-0.008
1084	-0.007
1085	-0.007
1085	-0.006
1085	-0.006
1086	-0.005
1086	-0.006
1087	-0.005
1087	-0.005
1088	-0.005
1088	-0.005
1088	-0.005
1089	-0.006
1089	-0.006
1090	-0.007
1090	-0.007
1090	-0.009
1091	-0.009
1091	-0.009
1092	-0.009
1092	-0.009
1092	-0.009
1093	-0.009
1093	-0.007
1094	-0.007
1094	-0.007
1095	-0.008
1095	-0.007
1095	-0.006
1096	-0.005
1096	-0.004
1097	-0.003
1097	-0.003
1097	-0.002
1098	-0.001
1098	0.001
1099	0.003
1099	0.005
1100	0.006
1100	0.007
1100	0.008
1101	0.009
1101	0.01
1102	0.013
1102	0.015
1102	0.018
1103	0.02
1103	0.022
1104	0.026
1104	0.03
1104	0.036
1105	0.04
1105	0.043
1106	0.046
1106	0.051
1107	0.054
1107	0.061
1107	0.07
1108	0.102
1108	0.143
1109	0.201
1109	0.293
1109	0.36
1110	0.498
1110	0.844
1111	-0
1111	-0
