Data from 13c-stair-power-variation_Absorbance__427__04782.txt Node

Date: Tue Jan 16 16:38:29 CET 2024
User: Marek
Spectrometer: MAYP115816
Trigger mode: 0
Integration Time (sec): 2.000000E-1
Scans to average: 10
Electric dark correction enabled: true
Nonlinearity correction enabled: true
Boxcar width: 5
XAxis mode: Wavelengths
Number of Pixels in Spectrum: 2068
>>>>>Begin Spectral Data<<<<<
199	-0.608
199	-0.539
200	-0.474
200	-0.403
201	-0.367
201	-0.342
202	-0.319
202	-0.31
203	-0.306
203	-0.298
204	-0.284
204	-0.266
205	-0.252
205	-0.243
205	-0.246
206	-0.244
206	-0.248
207	-0.247
207	-0.249
208	-0.247
208	-0.249
209	-0.244
209	-0.25
210	-0.252
210	-0.253
211	-0.253
211	-0.255
212	-0.258
212	-0.259
213	-0.26
213	-0.26
213	-0.263
214	-0.264
214	-0.263
215	-0.261
215	-0.264
216	-0.262
216	-0.265
217	-0.261
217	-0.259
218	-0.257
218	-0.253
219	-0.247
219	-0.247
220	-0.248
220	-0.251
221	-0.25
221	-0.251
221	-0.247
222	-0.243
222	-0.24
223	-0.235
223	-0.235
224	-0.234
224	-0.225
225	-0.216
225	-0.209
226	-0.204
226	-0.194
227	-0.181
227	-0.176
228	-0.163
228	-0.151
229	-0.133
229	-0.111
229	-0.09
230	-0.067
230	-0.04
231	-0.009
231	0.022
232	0.048
232	0.082
233	0.114
233	0.147
234	0.176
234	0.205
235	0.231
235	0.256
236	0.28
236	0.301
236	0.322
237	0.341
237	0.358
238	0.373
238	0.386
239	0.4
239	0.41
240	0.419
240	0.427
241	0.434
241	0.44
242	0.446
242	0.451
243	0.456
243	0.459
243	0.463
244	0.466
244	0.469
245	0.471
245	0.473
246	0.476
246	0.478
247	0.48
247	0.482
248	0.485
248	0.487
249	0.488
249	0.49
250	0.491
250	0.493
250	0.495
251	0.496
251	0.497
252	0.499
252	0.5
253	0.501
253	0.501
254	0.502
254	0.503
255	0.503
255	0.504
256	0.505
256	0.505
257	0.505
257	0.505
258	0.505
258	0.505
258	0.505
259	0.505
259	0.504
260	0.503
260	0.503
261	0.502
261	0.502
262	0.501
262	0.5
263	0.499
263	0.497
264	0.496
264	0.495
265	0.494
265	0.492
265	0.49
266	0.489
266	0.487
267	0.486
267	0.484
268	0.482
268	0.48
269	0.478
269	0.476
270	0.473
270	0.471
271	0.469
271	0.466
272	0.463
272	0.461
272	0.459
273	0.456
273	0.453
274	0.451
274	0.448
275	0.445
275	0.443
276	0.44
276	0.438
277	0.435
277	0.433
278	0.43
278	0.427
278	0.425
279	0.421
279	0.417
280	0.414
280	0.411
281	0.408
281	0.405
282	0.402
282	0.399
283	0.396
283	0.393
284	0.39
284	0.388
285	0.386
285	0.384
285	0.381
286	0.379
286	0.377
287	0.374
287	0.372
288	0.37
288	0.368
289	0.366
289	0.364
290	0.362
290	0.36
291	0.358
291	0.357
292	0.355
292	0.353
292	0.351
293	0.349
293	0.348
294	0.346
294	0.345
295	0.343
295	0.342
296	0.34
296	0.339
297	0.338
297	0.336
298	0.335
298	0.334
298	0.333
299	0.332
299	0.331
300	0.33
300	0.328
301	0.328
301	0.327
302	0.326
302	0.325
303	0.324
303	0.323
304	0.322
304	0.321
305	0.32
305	0.32
305	0.319
306	0.318
306	0.317
307	0.316
307	0.315
308	0.314
308	0.313
309	0.312
309	0.311
310	0.31
310	0.309
311	0.309
311	0.308
311	0.307
312	0.306
312	0.305
313	0.304
313	0.303
314	0.302
314	0.301
315	0.301
315	0.3
316	0.299
316	0.298
317	0.297
317	0.296
318	0.296
318	0.295
318	0.294
319	0.293
319	0.293
320	0.292
320	0.291
321	0.29
321	0.289
322	0.288
322	0.288
323	0.287
323	0.286
324	0.285
324	0.285
324	0.284
325	0.283
325	0.283
326	0.282
326	0.281
327	0.28
327	0.28
328	0.279
328	0.278
329	0.278
329	0.277
330	0.276
330	0.275
330	0.275
331	0.274
331	0.273
332	0.273
332	0.272
333	0.271
333	0.271
334	0.27
334	0.27
335	0.269
335	0.268
336	0.268
336	0.267
336	0.266
337	0.266
337	0.265
338	0.264
338	0.263
339	0.263
339	0.262
340	0.262
340	0.261
341	0.261
341	0.261
342	0.26
342	0.26
342	0.259
343	0.259
343	0.258
344	0.258
344	0.258
345	0.257
345	0.257
346	0.257
346	0.256
347	0.256
347	0.256
348	0.255
348	0.256
348	0.255
349	0.255
349	0.255
350	0.255
350	0.254
351	0.254
351	0.254
352	0.254
352	0.253
353	0.253
353	0.253
354	0.252
354	0.252
354	0.252
355	0.251
355	0.251
356	0.251
356	0.251
357	0.25
357	0.25
358	0.25
358	0.249
359	0.249
359	0.249
360	0.249
360	0.249
360	0.249
361	0.248
361	0.248
362	0.248
362	0.248
363	0.248
363	0.248
364	0.248
364	0.248
365	0.248
365	0.248
366	0.248
366	0.248
366	0.248
367	0.248
367	0.247
368	0.247
368	0.247
369	0.247
369	0.247
370	0.247
370	0.247
371	0.246
371	0.246
372	0.246
372	0.246
372	0.246
373	0.246
373	0.245
374	0.245
374	0.245
375	0.245
375	0.244
376	0.244
376	0.244
377	0.244
377	0.244
378	0.244
378	0.244
378	0.244
379	0.243
379	0.243
380	0.243
380	0.243
381	0.243
381	0.242
382	0.242
382	0.242
383	0.242
383	0.242
383	0.241
384	0.241
384	0.241
385	0.24
385	0.241
386	0.24
386	0.241
387	0.24
387	0.24
388	0.24
388	0.24
389	0.239
389	0.239
389	0.239
390	0.238
390	0.238
391	0.238
391	0.238
392	0.237
392	0.237
393	0.237
393	0.237
394	0.237
394	0.237
394	0.237
395	0.237
395	0.236
396	0.236
396	0.236
397	0.236
397	0.236
398	0.235
398	0.235
399	0.235
399	0.235
400	0.234
400	0.234
400	0.234
401	0.233
401	0.233
402	0.233
402	0.232
403	0.233
403	0.232
404	0.232
404	0.232
405	0.232
405	0.232
405	0.232
406	0.232
406	0.232
407	0.232
407	0.231
408	0.231
408	0.231
409	0.231
409	0.231
410	0.231
410	0.231
411	0.231
411	0.231
411	0.23
412	0.23
412	0.23
413	0.23
413	0.23
414	0.229
414	0.229
415	0.229
415	0.228
416	0.228
416	0.228
416	0.227
417	0.227
417	0.227
418	0.227
418	0.228
419	0.228
419	0.228
420	0.228
420	0.228
421	0.228
421	0.228
421	0.228
422	0.228
422	0.228
423	0.228
423	0.228
424	0.227
424	0.226
425	0.226
425	0.226
426	0.226
426	0.226
427	0.226
427	0.226
427	0.226
428	0.227
428	0.227
429	0.227
429	0.227
430	0.226
430	0.226
431	0.226
431	0.226
432	0.226
432	0.225
432	0.225
433	0.224
433	0.224
434	0.224
434	0.225
435	0.225
435	0.224
436	0.224
436	0.224
437	0.224
437	0.224
437	0.224
438	0.224
438	0.224
439	0.224
439	0.224
440	0.224
440	0.224
441	0.224
441	0.225
442	0.225
442	0.225
442	0.225
443	0.226
443	0.226
444	0.226
444	0.227
445	0.227
445	0.227
446	0.227
446	0.227
447	0.227
447	0.227
447	0.227
448	0.227
448	0.226
449	0.226
449	0.226
450	0.226
450	0.226
451	0.226
451	0.226
452	0.226
452	0.226
452	0.226
453	0.226
453	0.226
454	0.226
454	0.226
455	0.226
455	0.226
456	0.226
456	0.226
457	0.226
457	0.226
458	0.227
458	0.227
458	0.228
459	0.228
459	0.228
460	0.228
460	0.228
461	0.228
461	0.229
462	0.229
462	0.23
463	0.231
463	0.231
463	0.232
464	0.232
464	0.232
465	0.232
465	0.233
466	0.233
466	0.233
467	0.233
467	0.233
467	0.233
468	0.233
468	0.233
469	0.233
469	0.234
470	0.235
470	0.235
471	0.236
471	0.236
472	0.236
472	0.237
472	0.237
473	0.238
473	0.239
474	0.239
474	0.239
475	0.24
475	0.241
476	0.242
476	0.243
477	0.244
477	0.244
477	0.245
478	0.246
478	0.247
479	0.248
479	0.249
480	0.25
480	0.25
481	0.251
481	0.252
482	0.253
482	0.254
482	0.255
483	0.257
483	0.259
484	0.26
484	0.26
485	0.261
485	0.262
486	0.263
486	0.264
487	0.265
487	0.266
487	0.268
488	0.269
488	0.269
489	0.271
489	0.274
490	0.276
490	0.277
491	0.279
491	0.281
492	0.283
492	0.284
492	0.286
493	0.287
493	0.289
494	0.292
494	0.294
495	0.295
495	0.297
496	0.299
496	0.301
496	0.303
497	0.305
497	0.306
498	0.308
498	0.31
499	0.311
499	0.313
500	0.315
500	0.317
501	0.32
501	0.322
501	0.323
502	0.325
502	0.328
503	0.33
503	0.332
504	0.334
504	0.336
505	0.338
505	0.34
506	0.342
506	0.344
506	0.347
507	0.349
507	0.351
508	0.353
508	0.355
509	0.357
509	0.359
510	0.361
510	0.363
511	0.364
511	0.367
511	0.368
512	0.37
512	0.371
513	0.372
513	0.374
514	0.375
514	0.377
515	0.379
515	0.38
515	0.381
516	0.382
516	0.383
517	0.384
517	0.385
518	0.386
518	0.386
519	0.386
519	0.386
520	0.387
520	0.388
520	0.389
521	0.389
521	0.39
522	0.39
522	0.39
523	0.391
523	0.392
524	0.392
524	0.392
524	0.392
525	0.392
525	0.392
526	0.391
526	0.391
527	0.39
527	0.39
528	0.389
528	0.388
529	0.387
529	0.386
529	0.385
530	0.384
530	0.383
531	0.382
531	0.381
532	0.379
532	0.378
533	0.377
533	0.375
533	0.374
534	0.372
534	0.371
535	0.369
535	0.368
536	0.366
536	0.364
537	0.362
537	0.361
538	0.358
538	0.356
538	0.354
539	0.352
539	0.35
540	0.348
540	0.345
541	0.343
541	0.341
542	0.338
542	0.336
542	0.333
543	0.331
543	0.328
544	0.326
544	0.323
545	0.321
545	0.319
546	0.316
546	0.313
547	0.31
547	0.306
547	0.303
548	0.301
548	0.298
549	0.295
549	0.293
550	0.29
550	0.287
551	0.283
551	0.281
551	0.279
552	0.276
552	0.274
553	0.271
553	0.269
554	0.266
554	0.262
555	0.259
555	0.256
556	0.253
556	0.25
556	0.247
557	0.245
557	0.242
558	0.24
558	0.237
559	0.235
559	0.233
560	0.231
560	0.228
560	0.226
561	0.225
561	0.223
562	0.22
562	0.217
563	0.214
563	0.212
564	0.209
564	0.206
564	0.204
565	0.202
565	0.2
566	0.197
566	0.195
567	0.194
567	0.192
568	0.19
568	0.188
568	0.187
569	0.185
569	0.183
570	0.18
570	0.177
571	0.176
571	0.175
572	0.173
572	0.171
573	0.169
573	0.166
573	0.163
574	0.162
574	0.161
575	0.159
575	0.159
576	0.158
576	0.154
577	0.151
577	0.149
577	0.148
578	0.147
578	0.147
579	0.148
579	0.148
580	0.145
580	0.141
581	0.138
581	0.137
581	0.137
582	0.138
582	0.138
583	0.137
583	0.135
584	0.131
584	0.127
585	0.127
585	0.128
585	0.128
586	0.127
586	0.127
587	0.124
587	0.122
588	0.121
588	0.12
589	0.121
589	0.122
590	0.121
590	0.121
590	0.123
591	0.124
591	0.122
592	0.121
592	0.12
593	0.119
593	0.119
594	0.118
594	0.116
594	0.116
595	0.115
595	0.114
596	0.113
596	0.115
597	0.117
597	0.117
598	0.116
598	0.116
598	0.116
599	0.116
599	0.114
600	0.113
600	0.112
601	0.112
601	0.111
602	0.109
602	0.108
602	0.108
603	0.108
603	0.109
604	0.11
604	0.11
605	0.111
605	0.111
606	0.11
606	0.109
606	0.109
607	0.108
607	0.108
608	0.108
608	0.106
609	0.105
609	0.105
610	0.104
610	0.104
610	0.104
611	0.106
611	0.107
612	0.108
612	0.11
613	0.111
613	0.112
614	0.112
614	0.111
614	0.112
615	0.112
615	0.112
616	0.112
616	0.112
617	0.112
617	0.111
618	0.111
618	0.112
618	0.113
619	0.114
619	0.116
620	0.119
620	0.119
621	0.12
621	0.121
622	0.122
622	0.122
622	0.122
623	0.123
623	0.125
624	0.126
624	0.125
625	0.126
625	0.127
626	0.127
626	0.128
626	0.13
627	0.131
627	0.131
628	0.132
628	0.133
629	0.133
629	0.134
630	0.134
630	0.135
630	0.136
631	0.138
631	0.139
632	0.139
632	0.14
633	0.142
633	0.143
634	0.145
634	0.147
634	0.149
635	0.15
635	0.151
636	0.152
636	0.153
637	0.155
637	0.156
638	0.158
638	0.16
638	0.161
639	0.162
639	0.164
640	0.167
640	0.17
641	0.172
641	0.175
642	0.177
642	0.18
642	0.182
643	0.184
643	0.186
644	0.188
644	0.19
645	0.193
645	0.195
646	0.198
646	0.201
646	0.204
647	0.207
647	0.209
648	0.211
648	0.214
649	0.217
649	0.22
650	0.223
650	0.225
650	0.228
651	0.23
651	0.233
652	0.236
652	0.24
653	0.244
653	0.254
653	0.256
654	0.204
654	0.164
655	0.165
655	0.167
656	0.169
656	0.171
657	0.173
657	0.174
657	0.175
658	0.171
658	0.166
659	0.212
659	0.275
660	0.287
660	0.291
661	0.294
661	0.297
661	0.301
662	0.306
662	0.31
663	0.314
663	0.318
664	0.321
664	0.324
665	0.328
665	0.331
665	0.334
666	0.338
666	0.341
667	0.344
667	0.347
668	0.351
668	0.354
669	0.358
669	0.361
669	0.366
670	0.369
670	0.371
671	0.374
671	0.376
672	0.379
672	0.381
672	0.384
673	0.386
673	0.389
674	0.391
674	0.393
675	0.395
675	0.398
676	0.401
676	0.403
676	0.404
677	0.406
677	0.408
678	0.409
678	0.409
679	0.41
679	0.412
680	0.413
680	0.414
680	0.414
681	0.416
681	0.418
682	0.419
682	0.42
683	0.422
683	0.424
684	0.425
684	0.424
684	0.425
685	0.425
685	0.426
686	0.426
686	0.425
687	0.425
687	0.425
687	0.424
688	0.423
688	0.423
689	0.423
689	0.423
690	0.422
690	0.421
691	0.42
691	0.419
691	0.418
692	0.417
692	0.416
693	0.416
693	0.416
694	0.414
694	0.413
695	0.414
695	0.414
695	0.411
696	0.409
696	0.407
697	0.406
697	0.404
698	0.402
698	0.399
698	0.397
699	0.395
699	0.392
700	0.388
700	0.387
701	0.385
701	0.382
702	0.379
702	0.377
702	0.374
703	0.372
703	0.369
704	0.367
704	0.364
705	0.362
705	0.359
705	0.356
706	0.353
706	0.351
707	0.348
707	0.345
708	0.343
708	0.342
709	0.34
709	0.337
709	0.335
710	0.333
710	0.331
711	0.33
711	0.328
712	0.325
712	0.323
713	0.32
713	0.317
713	0.314
714	0.311
714	0.309
715	0.306
715	0.302
716	0.299
716	0.296
716	0.292
717	0.289
717	0.286
718	0.283
718	0.28
719	0.279
719	0.276
720	0.274
720	0.271
720	0.268
721	0.265
721	0.263
722	0.26
722	0.257
723	0.254
723	0.251
723	0.248
724	0.244
724	0.241
725	0.238
725	0.235
726	0.233
726	0.231
727	0.228
727	0.226
727	0.224
728	0.222
728	0.22
729	0.22
729	0.218
730	0.216
730	0.214
730	0.213
731	0.212
731	0.21
732	0.209
732	0.208
733	0.206
733	0.205
734	0.203
734	0.202
734	0.2
735	0.199
735	0.196
736	0.194
736	0.192
737	0.191
737	0.189
737	0.186
738	0.183
738	0.18
739	0.178
739	0.176
740	0.174
740	0.173
741	0.172
741	0.17
741	0.168
742	0.166
742	0.166
743	0.166
743	0.165
744	0.164
744	0.164
744	0.162
745	0.16
745	0.158
746	0.156
746	0.154
747	0.151
747	0.148
748	0.146
748	0.143
748	0.139
749	0.137
749	0.135
750	0.132
750	0.13
751	0.129
751	0.128
751	0.127
752	0.125
752	0.124
753	0.123
753	0.122
754	0.122
754	0.121
754	0.12
755	0.119
755	0.118
756	0.116
756	0.113
757	0.112
757	0.112
758	0.11
758	0.109
758	0.107
759	0.106
759	0.103
760	0.101
760	0.099
761	0.098
761	0.098
761	0.097
762	0.096
762	0.095
763	0.094
763	0.092
764	0.09
764	0.089
764	0.088
765	0.087
765	0.086
766	0.086
766	0.085
767	0.084
767	0.081
768	0.079
768	0.079
768	0.078
769	0.078
769	0.077
770	0.075
770	0.074
771	0.072
771	0.07
771	0.069
772	0.068
772	0.068
773	0.066
773	0.065
774	0.064
774	0.063
775	0.062
775	0.06
775	0.058
776	0.056
776	0.055
777	0.053
777	0.051
778	0.048
778	0.046
778	0.044
779	0.043
779	0.042
780	0.039
780	0.038
781	0.036
781	0.035
781	0.033
782	0.031
782	0.03
783	0.028
783	0.027
784	0.024
784	0.021
784	0.019
785	0.016
785	0.013
786	0.01
786	0.008
787	0.006
787	0.004
788	0
788	-0.002
788	-0.005
789	-0.009
789	-0.011
790	-0.014
790	-0.018
791	-0.022
791	-0.027
791	-0.032
792	-0.031
792	-0.029
793	-0.031
793	-0.034
794	-0.039
794	-0.045
794	-0.052
795	-0.058
795	-0.062
796	-0.065
796	-0.069
797	-0.077
797	-0.086
797	-0.092
798	-0.097
798	-0.1
799	-0.1
799	-0.1
800	-0.1
800	-0.102
801	-0.106
801	-0.107
801	-0.108
802	-0.11
802	-0.111
803	-0.112
803	-0.112
804	-0.112
804	-0.107
804	-0.101
805	-0.097
805	-0.095
806	-0.093
806	-0.092
807	-0.09
807	-0.09
807	-0.089
808	-0.089
808	-0.089
809	-0.093
809	-0.098
810	-0.1
810	-0.1
810	-0.099
811	-0.097
811	-0.093
812	-0.087
812	-0.081
813	-0.075
813	-0.068
813	-0.061
814	-0.053
814	-0.045
815	-0.038
815	-0.031
816	-0.025
816	-0.02
817	-0.016
817	-0.012
817	-0.008
818	-0.004
818	0
819	0.004
819	0.006
820	0.008
820	0.01
820	0.012
821	0.015
821	0.017
822	0.019
822	0.021
823	0.022
823	0.023
823	0.025
824	0.026
824	0.027
825	0.028
825	0.029
826	0.029
826	0.029
826	0.029
827	0.029
827	0.029
828	0.029
828	0.029
829	0.03
829	0.03
829	0.031
830	0.032
830	0.034
831	0.036
831	0.037
832	0.037
832	0.039
832	0.039
833	0.04
833	0.04
834	0.04
834	0.04
835	0.04
835	0.04
835	0.04
836	0.04
836	0.04
837	0.04
837	0.04
838	0.04
838	0.04
839	0.04
839	0.04
839	0.039
840	0.039
840	0.038
841	0.038
841	0.038
842	0.037
842	0.037
842	0.037
843	0.037
843	0.037
844	0.037
844	0.037
845	0.037
845	0.037
845	0.037
846	0.037
846	0.037
847	0.037
847	0.037
848	0.037
848	0.037
848	0.037
849	0.037
849	0.037
850	0.037
850	0.036
851	0.036
851	0.036
851	0.036
852	0.036
852	0.036
853	0.036
853	0.036
854	0.036
854	0.036
854	0.036
855	0.036
855	0.035
856	0.035
856	0.035
857	0.035
857	0.034
857	0.034
858	0.033
858	0.032
859	0.032
859	0.031
860	0.031
860	0.03
860	0.029
861	0.028
861	0.027
862	0.026
862	0.025
863	0.024
863	0.023
863	0.023
864	0.022
864	0.022
865	0.022
865	0.022
866	0.022
866	0.022
866	0.023
867	0.024
867	0.025
868	0.025
868	0.026
869	0.027
869	0.027
869	0.026
870	0.026
870	0.026
871	0.025
871	0.025
872	0.024
872	0.023
872	0.022
873	0.022
873	0.021
874	0.021
874	0.021
875	0.021
875	0.021
875	0.022
876	0.022
876	0.022
877	0.023
877	0.023
878	0.022
878	0.022
878	0.021
879	0.021
879	0.02
880	0.02
880	0.019
881	0.019
881	0.019
881	0.02
882	0.02
882	0.02
883	0.021
883	0.021
884	0.022
884	0.022
884	0.022
885	0.022
885	0.023
886	0.023
886	0.023
887	0.023
887	0.023
887	0.022
888	0.022
888	0.022
889	0.021
889	0.022
890	0.022
890	0.022
890	0.022
891	0.022
891	0.022
892	0.022
892	0.022
893	0.023
893	0.023
893	0.024
894	0.025
894	0.025
895	0.025
895	0.025
895	0.026
896	0.026
896	0.027
897	0.027
897	0.028
898	0.029
898	0.029
898	0.03
899	0.031
899	0.032
900	0.032
900	0.033
901	0.034
901	0.034
901	0.035
902	0.035
902	0.035
903	0.034
903	0.033
904	0.033
904	0.031
904	0.03
905	0.029
905	0.028
906	0.026
906	0.025
907	0.024
907	0.023
907	0.022
908	0.022
908	0.021
909	0.021
909	0.021
910	0.021
910	0.022
910	0.022
911	0.023
911	0.024
912	0.025
912	0.026
913	0.026
913	0.027
913	0.028
914	0.028
914	0.028
915	0.028
915	0.027
916	0.027
916	0.026
916	0.025
917	0.024
917	0.024
918	0.023
918	0.022
918	0.022
919	0.021
919	0.021
920	0.02
920	0.02
921	0.02
921	0.02
921	0.019
922	0.019
922	0.019
923	0.018
923	0.018
924	0.017
924	0.017
924	0.016
925	0.015
925	0.014
926	0.013
926	0.012
927	0.011
927	0.011
927	0.01
928	0.01
928	0.01
929	0.011
929	0.011
930	0.012
930	0.013
930	0.015
931	0.016
931	0.018
932	0.019
932	0.021
933	0.023
933	0.024
933	0.025
934	0.026
934	0.026
935	0.026
935	0.026
935	0.026
936	0.026
936	0.026
937	0.026
937	0.025
938	0.024
938	0.024
938	0.023
939	0.023
939	0.023
940	0.022
940	0.022
941	0.022
941	0.021
941	0.021
942	0.02
942	0.02
943	0.019
943	0.019
944	0.019
944	0.018
944	0.018
945	0.018
945	0.018
946	0.018
946	0.017
946	0.016
947	0.016
947	0.016
948	0.015
948	0.014
949	0.014
949	0.013
949	0.013
950	0.013
950	0.013
951	0.013
951	0.013
952	0.013
952	0.013
952	0.013
953	0.014
953	0.014
954	0.014
954	0.013
955	0.013
955	0.013
955	0.013
956	0.014
956	0.014
957	0.014
957	0.014
957	0.015
958	0.014
958	0.014
959	0.014
959	0.014
960	0.013
960	0.012
960	0.011
961	0.009
961	0.008
962	0.007
962	0.006
963	0.006
963	0.005
963	0.005
964	0.004
964	0.005
965	0.005
965	0.006
966	0.007
966	0.008
966	0.01
967	0.011
967	0.012
968	0.012
968	0.013
968	0.014
969	0.014
969	0.014
970	0.015
970	0.015
971	0.015
971	0.015
971	0.015
972	0.016
972	0.016
973	0.017
973	0.018
974	0.018
974	0.019
974	0.02
975	0.021
975	0.022
976	0.022
976	0.023
976	0.023
977	0.023
977	0.023
978	0.023
978	0.023
979	0.023
979	0.023
979	0.023
980	0.023
980	0.023
981	0.023
981	0.023
982	0.023
982	0.024
982	0.024
983	0.024
983	0.024
984	0.024
984	0.024
984	0.024
985	0.024
985	0.023
986	0.022
986	0.021
987	0.021
987	0.02
987	0.019
988	0.019
988	0.018
989	0.018
989	0.017
990	0.017
990	0.017
990	0.017
991	0.017
991	0.018
992	0.018
992	0.019
992	0.019
993	0.019
993	0.018
994	0.018
994	0.018
995	0.018
995	0.017
995	0.017
996	0.016
996	0.015
997	0.015
997	0.015
997	0.015
998	0.015
998	0.015
999	0.016
999	0.017
1000	0.017
1000	0.018
1000	0.019
1001	0.02
1001	0.02
1002	0.021
1002	0.021
1003	0.021
1003	0.021
1003	0.021
1004	0.02
1004	0.019
1005	0.018
1005	0.017
1005	0.016
1006	0.015
1006	0.014
1007	0.013
1007	0.012
1008	0.012
1008	0.011
1008	0.011
1009	0.011
1009	0.011
1010	0.011
1010	0.012
1010	0.012
1011	0.012
1011	0.012
1012	0.013
1012	0.013
1013	0.013
1013	0.014
1013	0.013
1014	0.013
1014	0.013
1015	0.012
1015	0.012
1016	0.011
1016	0.01
1016	0.009
1017	0.007
1017	0.006
1018	0.005
1018	0.004
1018	0.004
1019	0.003
1019	0.002
1020	0.002
1020	0.001
1021	0.001
1021	0
1021	0
1022	0
1022	-0
1023	-0.001
1023	-0.001
1023	-0.002
1024	-0.003
1024	-0.004
1025	-0.005
1025	-0.006
1026	-0.007
1026	-0.008
1026	-0.009
1027	-0.01
1027	-0.01
1028	-0.011
1028	-0.011
1028	-0.011
1029	-0.012
1029	-0.012
1030	-0.011
1030	-0.011
1031	-0.011
1031	-0.01
1031	-0.01
1032	-0.009
1032	-0.009
1033	-0.008
1033	-0.008
1033	-0.007
1034	-0.007
1034	-0.008
1035	-0.008
1035	-0.008
1036	-0.008
1036	-0.008
1036	-0.008
1037	-0.008
1037	-0.008
1038	-0.008
1038	-0.007
1039	-0.006
1039	-0.006
1039	-0.005
1040	-0.005
1040	-0.005
1041	-0.005
1041	-0.005
1041	-0.006
1042	-0.006
1042	-0.007
1043	-0.008
1043	-0.009
1044	-0.01
1044	-0.011
1044	-0.012
1045	-0.013
1045	-0.014
1046	-0.015
1046	-0.016
1046	-0.016
1047	-0.016
1047	-0.017
1048	-0.017
1048	-0.017
1049	-0.018
1049	-0.019
1049	-0.02
1050	-0.021
1050	-0.022
1051	-0.022
1051	-0.023
1051	-0.024
1052	-0.024
1052	-0.025
1053	-0.026
1053	-0.026
1053	-0.026
1054	-0.026
1054	-0.026
1055	-0.025
1055	-0.025
1056	-0.026
1056	-0.026
1056	-0.027
1057	-0.027
1057	-0.028
1058	-0.028
1058	-0.028
1058	-0.028
1059	-0.028
1059	-0.029
1060	-0.029
1060	-0.03
1061	-0.029
1061	-0.029
1061	-0.029
1062	-0.029
1062	-0.03
1063	-0.03
1063	-0.03
1063	-0.031
1064	-0.031
1064	-0.031
1065	-0.031
1065	-0.031
1066	-0.031
1066	-0.031
1066	-0.03
1067	-0.03
1067	-0.03
1068	-0.029
1068	-0.029
1068	-0.029
1069	-0.029
1069	-0.029
1070	-0.03
1070	-0.03
1071	-0.03
1071	-0.03
1071	-0.031
1072	-0.031
1072	-0.031
1073	-0.032
1073	-0.032
1073	-0.032
1074	-0.033
1074	-0.033
1075	-0.035
1075	-0.036
1076	-0.038
1076	-0.039
1076	-0.04
1077	-0.042
1077	-0.043
1078	-0.044
1078	-0.045
1078	-0.046
1079	-0.046
1079	-0.046
1080	-0.046
1080	-0.046
1080	-0.047
1081	-0.047
1081	-0.047
1082	-0.047
1082	-0.047
1083	-0.048
1083	-0.049
1083	-0.049
1084	-0.05
1084	-0.05
1085	-0.05
1085	-0.05
1085	-0.05
1086	-0.05
1086	-0.05
1087	-0.05
1087	-0.051
1088	-0.051
1088	-0.051
1088	-0.051
1089	-0.052
1089	-0.052
1090	-0.053
1090	-0.054
1090	-0.055
1091	-0.056
1091	-0.057
1092	-0.057
1092	-0.057
1092	-0.058
1093	-0.059
1093	-0.059
1094	-0.061
1094	-0.063
1095	-0.065
1095	-0.066
1095	-0.066
1096	-0.068
1096	-0.069
1097	-0.07
1097	-0.072
1097	-0.072
1098	-0.075
1098	-0.076
1099	-0.077
1099	-0.079
1100	-0.08
1100	-0.082
1100	-0.084
1101	-0.087
1101	-0.09
1102	-0.092
1102	-0.094
1102	-0.095
1103	-0.097
1103	-0.1
1104	-0.101
1104	-0.103
1104	-0.105
1105	-0.106
1105	-0.107
1106	-0.11
1106	-0.112
1107	-0.116
1107	-0.119
1107	-0.122
1108	-0.121
1108	-0.123
1109	-0.125
1109	-0.129
1109	-0.133
1110	-0.135
1110	-0.139
1111	-0.144
1111	-0.138
