Data from 13c-stair-power-variation_Absorbance__478__04833.txt Node

Date: Tue Jan 16 16:40:11 CET 2024
User: Marek
Spectrometer: MAYP115816
Trigger mode: 0
Integration Time (sec): 2.000000E-1
Scans to average: 10
Electric dark correction enabled: true
Nonlinearity correction enabled: true
Boxcar width: 5
XAxis mode: Wavelengths
Number of Pixels in Spectrum: 2068
>>>>>Begin Spectral Data<<<<<
199	-2.156
199	-1.968
200	-1.834
200	-1.715
201	-1.641
201	-1.589
202	-1.513
202	-1.452
203	-1.404
203	-1.356
204	-1.329
204	-1.304
205	-1.285
205	-1.272
205	-1.27
206	-1.265
206	-1.262
207	-1.26
207	-1.259
208	-1.255
208	-1.254
209	-1.249
209	-1.247
210	-1.246
210	-1.243
211	-1.242
211	-1.242
212	-1.241
212	-1.24
213	-1.238
213	-1.237
213	-1.237
214	-1.235
214	-1.234
215	-1.233
215	-1.233
216	-1.23
216	-1.229
217	-1.226
217	-1.223
218	-1.219
218	-1.215
219	-1.211
219	-1.21
220	-1.208
220	-1.206
221	-1.202
221	-1.201
221	-1.196
222	-1.192
222	-1.187
223	-1.182
223	-1.176
224	-1.171
224	-1.162
225	-1.153
225	-1.143
226	-1.135
226	-1.125
227	-1.111
227	-1.098
228	-1.082
228	-1.065
229	-1.045
229	-1.021
229	-0.996
230	-0.967
230	-0.935
231	-0.899
231	-0.859
232	-0.82
232	-0.776
233	-0.73
233	-0.683
234	-0.635
234	-0.586
235	-0.536
235	-0.488
236	-0.439
236	-0.392
236	-0.345
237	-0.3
237	-0.257
238	-0.216
238	-0.176
239	-0.139
239	-0.104
240	-0.071
240	-0.04
241	-0.012
241	0.015
242	0.04
242	0.063
243	0.084
243	0.103
243	0.121
244	0.138
244	0.154
245	0.167
245	0.181
246	0.193
246	0.204
247	0.214
247	0.225
248	0.234
248	0.242
249	0.25
249	0.257
250	0.264
250	0.27
250	0.277
251	0.282
251	0.287
252	0.293
252	0.297
253	0.302
253	0.305
254	0.309
254	0.313
255	0.316
255	0.319
256	0.322
256	0.325
257	0.327
257	0.329
258	0.331
258	0.333
258	0.334
259	0.336
259	0.337
260	0.338
260	0.339
261	0.339
261	0.34
262	0.34
262	0.341
263	0.341
263	0.342
264	0.342
264	0.342
265	0.343
265	0.342
265	0.342
266	0.342
266	0.342
267	0.341
267	0.341
268	0.34
268	0.339
269	0.338
269	0.337
270	0.336
270	0.335
271	0.334
271	0.333
272	0.332
272	0.331
272	0.33
273	0.329
273	0.328
274	0.327
274	0.326
275	0.325
275	0.324
276	0.323
276	0.321
277	0.32
277	0.318
278	0.316
278	0.315
278	0.313
279	0.311
279	0.309
280	0.308
280	0.307
281	0.306
281	0.305
282	0.304
282	0.303
283	0.302
283	0.302
284	0.301
284	0.3
285	0.3
285	0.299
285	0.297
286	0.296
286	0.295
287	0.294
287	0.293
288	0.292
288	0.291
289	0.29
289	0.289
290	0.289
290	0.288
291	0.287
291	0.286
292	0.285
292	0.284
292	0.283
293	0.282
293	0.281
294	0.281
294	0.28
295	0.279
295	0.278
296	0.277
296	0.277
297	0.276
297	0.275
298	0.275
298	0.274
298	0.273
299	0.273
299	0.272
300	0.271
300	0.271
301	0.27
301	0.269
302	0.269
302	0.268
303	0.268
303	0.267
304	0.266
304	0.266
305	0.265
305	0.264
305	0.264
306	0.263
306	0.262
307	0.261
307	0.26
308	0.259
308	0.259
309	0.258
309	0.257
310	0.256
310	0.255
311	0.255
311	0.254
311	0.253
312	0.253
312	0.252
313	0.251
313	0.25
314	0.25
314	0.249
315	0.248
315	0.247
316	0.246
316	0.245
317	0.244
317	0.243
318	0.242
318	0.241
318	0.241
319	0.24
319	0.239
320	0.238
320	0.237
321	0.236
321	0.235
322	0.234
322	0.234
323	0.233
323	0.232
324	0.231
324	0.23
324	0.229
325	0.228
325	0.228
326	0.227
326	0.226
327	0.225
327	0.224
328	0.224
328	0.223
329	0.222
329	0.221
330	0.22
330	0.22
330	0.219
331	0.218
331	0.218
332	0.217
332	0.216
333	0.215
333	0.215
334	0.214
334	0.213
335	0.212
335	0.211
336	0.211
336	0.21
336	0.209
337	0.209
337	0.208
338	0.207
338	0.206
339	0.205
339	0.205
340	0.204
340	0.204
341	0.203
341	0.202
342	0.202
342	0.201
342	0.201
343	0.2
343	0.199
344	0.199
344	0.198
345	0.198
345	0.197
346	0.196
346	0.196
347	0.195
347	0.194
348	0.194
348	0.193
348	0.193
349	0.192
349	0.191
350	0.19
350	0.19
351	0.189
351	0.188
352	0.187
352	0.186
353	0.185
353	0.184
354	0.183
354	0.182
354	0.181
355	0.18
355	0.179
356	0.178
356	0.178
357	0.177
357	0.177
358	0.177
358	0.177
359	0.178
359	0.178
360	0.179
360	0.179
360	0.18
361	0.18
361	0.181
362	0.181
362	0.182
363	0.182
363	0.181
364	0.181
364	0.181
365	0.18
365	0.18
366	0.18
366	0.179
366	0.179
367	0.179
367	0.178
368	0.178
368	0.178
369	0.177
369	0.177
370	0.176
370	0.176
371	0.176
371	0.175
372	0.175
372	0.174
372	0.174
373	0.174
373	0.174
374	0.174
374	0.173
375	0.173
375	0.173
376	0.173
376	0.173
377	0.173
377	0.174
378	0.174
378	0.174
378	0.174
379	0.175
379	0.175
380	0.175
380	0.174
381	0.174
381	0.174
382	0.173
382	0.173
383	0.173
383	0.172
383	0.172
384	0.171
384	0.171
385	0.171
385	0.171
386	0.171
386	0.171
387	0.171
387	0.17
388	0.17
388	0.17
389	0.17
389	0.17
389	0.17
390	0.169
390	0.169
391	0.17
391	0.17
392	0.17
392	0.17
393	0.17
393	0.17
394	0.17
394	0.17
394	0.17
395	0.17
395	0.17
396	0.17
396	0.169
397	0.17
397	0.17
398	0.17
398	0.17
399	0.17
399	0.17
400	0.169
400	0.169
400	0.168
401	0.167
401	0.166
402	0.165
402	0.164
403	0.164
403	0.164
404	0.164
404	0.163
405	0.163
405	0.163
405	0.162
406	0.162
406	0.162
407	0.162
407	0.162
408	0.162
408	0.161
409	0.16
409	0.16
410	0.16
410	0.16
411	0.16
411	0.16
411	0.16
412	0.159
412	0.159
413	0.159
413	0.158
414	0.158
414	0.158
415	0.157
415	0.157
416	0.156
416	0.156
416	0.155
417	0.155
417	0.155
418	0.155
418	0.155
419	0.156
419	0.157
420	0.157
420	0.158
421	0.159
421	0.159
421	0.159
422	0.159
422	0.159
423	0.159
423	0.159
424	0.158
424	0.157
425	0.156
425	0.155
426	0.155
426	0.154
427	0.154
427	0.154
427	0.155
428	0.155
428	0.156
429	0.157
429	0.157
430	0.157
430	0.157
431	0.157
431	0.157
432	0.156
432	0.155
432	0.154
433	0.153
433	0.152
434	0.151
434	0.151
435	0.151
435	0.15
436	0.15
436	0.15
437	0.15
437	0.15
437	0.15
438	0.15
438	0.15
439	0.15
439	0.149
440	0.149
440	0.149
441	0.15
441	0.15
442	0.15
442	0.151
442	0.152
443	0.152
443	0.153
444	0.153
444	0.154
445	0.154
445	0.154
446	0.154
446	0.154
447	0.154
447	0.153
447	0.153
448	0.153
448	0.153
449	0.152
449	0.152
450	0.151
450	0.151
451	0.15
451	0.15
452	0.149
452	0.149
452	0.148
453	0.147
453	0.147
454	0.146
454	0.145
455	0.145
455	0.144
456	0.144
456	0.144
457	0.144
457	0.144
458	0.143
458	0.144
458	0.144
459	0.144
459	0.145
460	0.144
460	0.143
461	0.143
461	0.142
462	0.142
462	0.143
463	0.143
463	0.144
463	0.145
464	0.145
464	0.145
465	0.146
465	0.146
466	0.146
466	0.146
467	0.146
467	0.146
467	0.145
468	0.143
468	0.141
469	0.14
469	0.139
470	0.138
470	0.137
471	0.137
471	0.137
472	0.136
472	0.137
472	0.137
473	0.139
473	0.14
474	0.141
474	0.142
475	0.143
475	0.143
476	0.144
476	0.144
477	0.145
477	0.145
477	0.146
478	0.146
478	0.147
479	0.147
479	0.148
480	0.149
480	0.15
481	0.151
481	0.152
482	0.153
482	0.154
482	0.155
483	0.157
483	0.16
484	0.164
484	0.166
485	0.168
485	0.169
486	0.17
486	0.172
487	0.172
487	0.173
487	0.173
488	0.173
488	0.171
489	0.17
489	0.168
490	0.168
490	0.167
491	0.167
491	0.168
492	0.168
492	0.169
492	0.169
493	0.17
493	0.171
494	0.174
494	0.176
495	0.178
495	0.179
496	0.18
496	0.182
496	0.183
497	0.184
497	0.185
498	0.185
498	0.186
499	0.186
499	0.186
500	0.187
500	0.188
501	0.19
501	0.192
501	0.194
502	0.195
502	0.197
503	0.199
503	0.2
504	0.201
504	0.202
505	0.203
505	0.203
506	0.204
506	0.205
506	0.206
507	0.206
507	0.206
508	0.206
508	0.207
509	0.208
509	0.209
510	0.209
510	0.21
511	0.21
511	0.21
511	0.21
512	0.211
512	0.212
513	0.211
513	0.21
514	0.209
514	0.209
515	0.208
515	0.208
515	0.208
516	0.207
516	0.208
517	0.208
517	0.208
518	0.207
518	0.207
519	0.205
519	0.203
520	0.201
520	0.198
520	0.195
521	0.192
521	0.19
522	0.188
522	0.187
523	0.186
523	0.187
524	0.189
524	0.192
524	0.195
525	0.199
525	0.202
526	0.206
526	0.208
527	0.211
527	0.213
528	0.215
528	0.216
529	0.216
529	0.217
529	0.217
530	0.216
530	0.216
531	0.216
531	0.216
532	0.216
532	0.215
533	0.216
533	0.215
533	0.215
534	0.215
534	0.214
535	0.213
535	0.213
536	0.213
536	0.212
537	0.211
537	0.211
538	0.21
538	0.208
538	0.207
539	0.206
539	0.205
540	0.205
540	0.203
541	0.202
541	0.2
542	0.198
542	0.196
542	0.195
543	0.194
543	0.192
544	0.191
544	0.189
545	0.188
545	0.187
546	0.186
546	0.185
547	0.184
547	0.182
547	0.179
548	0.177
548	0.174
549	0.172
549	0.17
550	0.169
550	0.167
551	0.164
551	0.161
551	0.159
552	0.158
552	0.157
553	0.156
553	0.155
554	0.154
554	0.153
555	0.15
555	0.147
556	0.144
556	0.141
556	0.138
557	0.136
557	0.133
558	0.131
558	0.129
559	0.128
559	0.127
560	0.126
560	0.125
560	0.125
561	0.125
561	0.125
562	0.125
562	0.124
563	0.122
563	0.12
564	0.117
564	0.114
564	0.112
565	0.11
565	0.108
566	0.107
566	0.106
567	0.106
567	0.107
568	0.108
568	0.109
568	0.111
569	0.113
569	0.115
570	0.116
570	0.115
571	0.116
571	0.117
572	0.117
572	0.117
573	0.117
573	0.116
573	0.115
574	0.114
574	0.113
575	0.112
575	0.113
576	0.114
576	0.112
577	0.11
577	0.108
577	0.107
578	0.107
578	0.107
579	0.108
579	0.11
580	0.109
580	0.107
581	0.103
581	0.101
581	0.101
582	0.101
582	0.101
583	0.102
583	0.1
584	0.097
584	0.092
585	0.091
585	0.09
585	0.09
586	0.09
586	0.09
587	0.088
587	0.085
588	0.083
588	0.08
589	0.079
589	0.079
590	0.078
590	0.077
590	0.079
591	0.08
591	0.08
592	0.08
592	0.078
593	0.078
593	0.078
594	0.077
594	0.076
594	0.076
595	0.075
595	0.073
596	0.072
596	0.072
597	0.075
597	0.076
598	0.077
598	0.078
598	0.079
599	0.079
599	0.079
600	0.078
600	0.077
601	0.076
601	0.075
602	0.072
602	0.071
602	0.07
603	0.069
603	0.07
604	0.07
604	0.071
605	0.072
605	0.074
606	0.074
606	0.073
606	0.072
607	0.071
607	0.071
608	0.07
608	0.068
609	0.067
609	0.066
610	0.064
610	0.062
610	0.062
611	0.062
611	0.063
612	0.064
612	0.066
613	0.068
613	0.069
614	0.07
614	0.069
614	0.069
615	0.069
615	0.069
616	0.069
616	0.068
617	0.067
617	0.066
618	0.064
618	0.064
618	0.063
619	0.063
619	0.064
620	0.066
620	0.068
621	0.068
621	0.069
622	0.07
622	0.071
622	0.071
623	0.071
623	0.073
624	0.074
624	0.074
625	0.074
625	0.075
626	0.075
626	0.075
626	0.075
627	0.076
627	0.076
628	0.076
628	0.077
629	0.077
629	0.077
630	0.076
630	0.076
630	0.076
631	0.077
631	0.077
632	0.077
632	0.077
633	0.077
633	0.078
634	0.079
634	0.081
634	0.083
635	0.085
635	0.086
636	0.087
636	0.088
637	0.09
637	0.091
638	0.092
638	0.094
638	0.095
639	0.096
639	0.097
640	0.098
640	0.1
641	0.102
641	0.104
642	0.106
642	0.108
642	0.11
643	0.112
643	0.113
644	0.115
644	0.117
645	0.119
645	0.121
646	0.124
646	0.127
646	0.13
647	0.134
647	0.137
648	0.139
648	0.142
649	0.145
649	0.148
650	0.151
650	0.155
650	0.158
651	0.16
651	0.162
652	0.164
652	0.166
653	0.17
653	0.18
653	0.191
654	0.157
654	0.131
655	0.134
655	0.136
656	0.137
656	0.139
657	0.141
657	0.142
657	0.143
658	0.139
658	0.13
659	0.16
659	0.201
660	0.206
660	0.207
661	0.209
661	0.211
661	0.214
662	0.218
662	0.222
663	0.225
663	0.229
664	0.232
664	0.235
665	0.238
665	0.241
665	0.243
666	0.246
666	0.249
667	0.251
667	0.254
668	0.256
668	0.259
669	0.262
669	0.265
669	0.27
670	0.274
670	0.278
671	0.281
671	0.283
672	0.285
672	0.286
672	0.288
673	0.289
673	0.291
674	0.292
674	0.292
675	0.293
675	0.293
676	0.295
676	0.297
676	0.298
677	0.3
677	0.302
678	0.304
678	0.305
679	0.307
679	0.308
680	0.31
680	0.311
680	0.312
681	0.312
681	0.314
682	0.315
682	0.316
683	0.318
683	0.321
684	0.323
684	0.324
684	0.325
685	0.326
685	0.327
686	0.328
686	0.328
687	0.328
687	0.328
687	0.327
688	0.326
688	0.324
689	0.325
689	0.325
690	0.325
690	0.324
691	0.324
691	0.324
691	0.324
692	0.323
692	0.323
693	0.323
693	0.323
694	0.323
694	0.321
695	0.321
695	0.323
695	0.323
696	0.322
696	0.321
697	0.32
697	0.319
698	0.317
698	0.315
698	0.313
699	0.312
699	0.309
700	0.305
700	0.303
701	0.301
701	0.3
702	0.298
702	0.296
702	0.294
703	0.292
703	0.29
704	0.288
704	0.287
705	0.286
705	0.284
705	0.282
706	0.28
706	0.279
707	0.277
707	0.275
708	0.273
708	0.272
709	0.27
709	0.268
709	0.265
710	0.263
710	0.261
711	0.259
711	0.257
712	0.255
712	0.254
713	0.252
713	0.25
713	0.248
714	0.245
714	0.243
715	0.24
715	0.237
716	0.234
716	0.231
716	0.228
717	0.225
717	0.223
718	0.22
718	0.217
719	0.215
719	0.214
720	0.211
720	0.209
720	0.207
721	0.204
721	0.201
722	0.198
722	0.195
723	0.192
723	0.19
723	0.187
724	0.184
724	0.181
725	0.178
725	0.176
726	0.173
726	0.171
727	0.169
727	0.168
727	0.166
728	0.164
728	0.163
729	0.163
729	0.162
730	0.161
730	0.159
730	0.158
731	0.157
731	0.156
732	0.156
732	0.155
733	0.153
733	0.152
734	0.15
734	0.147
734	0.146
735	0.144
735	0.141
736	0.139
736	0.136
737	0.134
737	0.132
737	0.13
738	0.127
738	0.123
739	0.12
739	0.118
740	0.115
740	0.114
741	0.113
741	0.111
741	0.108
742	0.104
742	0.102
743	0.099
743	0.097
744	0.096
744	0.094
744	0.091
745	0.089
745	0.086
746	0.083
746	0.081
747	0.079
747	0.078
748	0.076
748	0.075
748	0.073
749	0.071
749	0.07
750	0.069
750	0.068
751	0.067
751	0.067
751	0.067
752	0.066
752	0.065
753	0.064
753	0.064
754	0.064
754	0.063
754	0.064
755	0.064
755	0.064
756	0.063
756	0.061
757	0.059
757	0.059
758	0.058
758	0.057
758	0.056
759	0.054
759	0.051
760	0.048
760	0.045
761	0.043
761	0.042
761	0.04
762	0.038
762	0.037
763	0.036
763	0.033
764	0.03
764	0.028
764	0.026
765	0.024
765	0.022
766	0.021
766	0.02
767	0.019
767	0.016
768	0.013
768	0.011
768	0.01
769	0.01
769	0.009
770	0.008
770	0.007
771	0.005
771	0.002
771	0
772	-0.002
772	-0.003
773	-0.005
773	-0.007
774	-0.01
774	-0.013
775	-0.016
775	-0.019
775	-0.023
776	-0.026
776	-0.03
777	-0.033
777	-0.037
778	-0.042
778	-0.047
778	-0.051
779	-0.055
779	-0.054
780	-0.056
780	-0.06
781	-0.062
781	-0.064
781	-0.066
782	-0.068
782	-0.071
783	-0.073
783	-0.073
784	-0.074
784	-0.077
784	-0.079
785	-0.08
785	-0.082
786	-0.083
786	-0.081
787	-0.076
787	-0.073
788	-0.072
788	-0.073
788	-0.074
789	-0.076
789	-0.075
790	-0.072
790	-0.071
791	-0.071
791	-0.073
791	-0.075
792	-0.07
792	-0.061
793	-0.055
793	-0.051
794	-0.05
794	-0.051
794	-0.055
795	-0.057
795	-0.057
796	-0.057
796	-0.059
797	-0.067
797	-0.076
797	-0.082
798	-0.087
798	-0.09
799	-0.09
799	-0.09
800	-0.09
800	-0.092
801	-0.096
801	-0.097
801	-0.098
802	-0.099
802	-0.101
803	-0.102
803	-0.102
804	-0.101
804	-0.097
804	-0.09
805	-0.087
805	-0.085
806	-0.083
806	-0.082
807	-0.08
807	-0.08
807	-0.079
808	-0.079
808	-0.079
809	-0.083
809	-0.088
810	-0.091
810	-0.093
810	-0.096
811	-0.098
811	-0.098
812	-0.094
812	-0.091
813	-0.091
813	-0.092
813	-0.093
814	-0.094
814	-0.094
815	-0.092
815	-0.089
816	-0.087
816	-0.088
817	-0.092
817	-0.095
817	-0.096
818	-0.095
818	-0.092
819	-0.087
819	-0.084
820	-0.086
820	-0.088
820	-0.089
821	-0.089
821	-0.087
822	-0.086
822	-0.086
823	-0.085
823	-0.087
823	-0.089
824	-0.09
824	-0.087
825	-0.082
825	-0.076
826	-0.071
826	-0.068
826	-0.063
827	-0.057
827	-0.051
828	-0.046
828	-0.041
829	-0.037
829	-0.032
829	-0.029
830	-0.025
830	-0.022
831	-0.017
831	-0.014
832	-0.011
832	-0.008
832	-0.005
833	-0.003
833	-0.002
834	0
834	0.001
835	0.002
835	0.003
835	0.004
836	0.005
836	0.006
837	0.007
837	0.007
838	0.008
838	0.009
839	0.009
839	0.009
839	0.009
840	0.009
840	0.009
841	0.009
841	0.01
842	0.01
842	0.011
842	0.011
843	0.012
843	0.013
844	0.014
844	0.015
845	0.016
845	0.017
845	0.018
846	0.019
846	0.019
847	0.02
847	0.022
848	0.023
848	0.023
848	0.025
849	0.026
849	0.026
850	0.027
850	0.027
851	0.028
851	0.028
851	0.029
852	0.029
852	0.029
853	0.03
853	0.03
854	0.03
854	0.031
854	0.031
855	0.032
855	0.032
856	0.032
856	0.032
857	0.032
857	0.031
857	0.031
858	0.031
858	0.03
859	0.03
859	0.029
860	0.029
860	0.029
860	0.028
861	0.028
861	0.028
862	0.027
862	0.026
863	0.026
863	0.025
863	0.025
864	0.025
864	0.025
865	0.025
865	0.025
866	0.025
866	0.026
866	0.027
867	0.028
867	0.029
868	0.031
868	0.032
869	0.033
869	0.033
869	0.033
870	0.033
870	0.033
871	0.033
871	0.032
872	0.031
872	0.031
872	0.03
873	0.029
873	0.029
874	0.029
874	0.029
875	0.029
875	0.03
875	0.03
876	0.031
876	0.031
877	0.031
877	0.031
878	0.031
878	0.03
878	0.03
879	0.03
879	0.029
880	0.029
880	0.029
881	0.029
881	0.029
881	0.029
882	0.03
882	0.03
883	0.03
883	0.031
884	0.031
884	0.032
884	0.032
885	0.032
885	0.033
886	0.033
886	0.033
887	0.033
887	0.034
887	0.034
888	0.033
888	0.033
889	0.033
889	0.033
890	0.033
890	0.033
890	0.033
891	0.033
891	0.033
892	0.033
892	0.034
893	0.034
893	0.035
893	0.036
894	0.037
894	0.037
895	0.037
895	0.038
895	0.038
896	0.039
896	0.04
897	0.041
897	0.041
898	0.042
898	0.043
898	0.043
899	0.044
899	0.045
900	0.045
900	0.046
901	0.047
901	0.047
901	0.048
902	0.048
902	0.048
903	0.048
903	0.048
904	0.047
904	0.046
904	0.045
905	0.044
905	0.043
906	0.042
906	0.04
907	0.039
907	0.038
907	0.037
908	0.037
908	0.037
909	0.037
909	0.037
910	0.037
910	0.038
910	0.039
911	0.039
911	0.04
912	0.041
912	0.042
913	0.043
913	0.043
913	0.044
914	0.044
914	0.044
915	0.044
915	0.044
916	0.043
916	0.043
916	0.042
917	0.042
917	0.041
918	0.04
918	0.04
918	0.039
919	0.039
919	0.038
920	0.038
920	0.038
921	0.038
921	0.037
921	0.037
922	0.037
922	0.036
923	0.035
923	0.035
924	0.034
924	0.034
924	0.033
925	0.032
925	0.031
926	0.03
926	0.03
927	0.029
927	0.028
927	0.028
928	0.028
928	0.028
929	0.028
929	0.029
930	0.03
930	0.031
930	0.033
931	0.035
931	0.036
932	0.038
932	0.04
933	0.042
933	0.044
933	0.045
934	0.046
934	0.047
935	0.047
935	0.047
935	0.047
936	0.047
936	0.048
937	0.048
937	0.048
938	0.048
938	0.048
938	0.048
939	0.048
939	0.048
940	0.049
940	0.049
941	0.049
941	0.049
941	0.048
942	0.048
942	0.048
943	0.048
943	0.047
944	0.047
944	0.047
944	0.047
945	0.047
945	0.047
946	0.047
946	0.046
946	0.046
947	0.045
947	0.045
948	0.044
948	0.043
949	0.042
949	0.041
949	0.041
950	0.04
950	0.04
951	0.04
951	0.039
952	0.039
952	0.039
952	0.039
953	0.039
953	0.039
954	0.039
954	0.039
955	0.039
955	0.039
955	0.039
956	0.039
956	0.04
957	0.04
957	0.04
957	0.04
958	0.039
958	0.039
959	0.038
959	0.038
960	0.037
960	0.036
960	0.035
961	0.033
961	0.032
962	0.031
962	0.03
963	0.029
963	0.029
963	0.029
964	0.029
964	0.029
965	0.03
965	0.03
966	0.031
966	0.033
966	0.034
967	0.035
967	0.036
968	0.037
968	0.037
968	0.038
969	0.039
969	0.039
970	0.039
970	0.039
971	0.039
971	0.039
971	0.04
972	0.04
972	0.041
973	0.042
973	0.042
974	0.043
974	0.044
974	0.045
975	0.046
975	0.047
976	0.047
976	0.048
976	0.049
977	0.049
977	0.048
978	0.048
978	0.048
979	0.048
979	0.049
979	0.049
980	0.048
980	0.048
981	0.048
981	0.049
982	0.049
982	0.05
982	0.05
983	0.051
983	0.051
984	0.051
984	0.051
984	0.051
985	0.051
985	0.05
986	0.05
986	0.049
987	0.048
987	0.047
987	0.046
988	0.046
988	0.045
989	0.045
989	0.044
990	0.044
990	0.044
990	0.044
991	0.044
991	0.045
992	0.045
992	0.046
992	0.046
993	0.046
993	0.046
994	0.046
994	0.045
995	0.045
995	0.045
995	0.044
996	0.044
996	0.043
997	0.043
997	0.043
997	0.043
998	0.044
998	0.044
999	0.045
999	0.046
1000	0.046
1000	0.047
1000	0.048
1001	0.049
1001	0.049
1002	0.05
1002	0.05
1003	0.05
1003	0.049
1003	0.049
1004	0.048
1004	0.047
1005	0.046
1005	0.045
1005	0.044
1006	0.043
1006	0.042
1007	0.042
1007	0.042
1008	0.041
1008	0.041
1008	0.041
1009	0.041
1009	0.042
1010	0.042
1010	0.042
1010	0.043
1011	0.043
1011	0.044
1012	0.044
1012	0.045
1013	0.045
1013	0.045
1013	0.045
1014	0.045
1014	0.045
1015	0.045
1015	0.044
1016	0.044
1016	0.043
1016	0.042
1017	0.041
1017	0.04
1018	0.039
1018	0.039
1018	0.038
1019	0.038
1019	0.037
1020	0.037
1020	0.037
1021	0.036
1021	0.036
1021	0.036
1022	0.036
1022	0.036
1023	0.035
1023	0.035
1023	0.034
1024	0.034
1024	0.033
1025	0.032
1025	0.031
1026	0.03
1026	0.03
1026	0.029
1027	0.029
1027	0.028
1028	0.028
1028	0.028
1028	0.028
1029	0.029
1029	0.029
1030	0.029
1030	0.03
1031	0.031
1031	0.032
1031	0.032
1032	0.033
1032	0.033
1033	0.034
1033	0.034
1033	0.035
1034	0.035
1034	0.035
1035	0.035
1035	0.035
1036	0.035
1036	0.035
1036	0.036
1037	0.036
1037	0.036
1038	0.037
1038	0.038
1039	0.039
1039	0.04
1039	0.041
1040	0.041
1040	0.042
1041	0.042
1041	0.042
1041	0.042
1042	0.042
1042	0.041
1043	0.041
1043	0.04
1044	0.04
1044	0.039
1044	0.039
1045	0.038
1045	0.038
1046	0.037
1046	0.037
1046	0.037
1047	0.038
1047	0.038
1048	0.038
1048	0.038
1049	0.038
1049	0.038
1049	0.037
1050	0.037
1050	0.036
1051	0.036
1051	0.036
1051	0.036
1052	0.036
1052	0.036
1053	0.036
1053	0.037
1053	0.038
1054	0.039
1054	0.04
1055	0.041
1055	0.041
1056	0.042
1056	0.042
1056	0.041
1057	0.041
1057	0.042
1058	0.042
1058	0.043
1058	0.044
1059	0.045
1059	0.045
1060	0.046
1060	0.047
1061	0.048
1061	0.049
1061	0.051
1062	0.051
1062	0.052
1063	0.052
1063	0.052
1063	0.053
1064	0.054
1064	0.055
1065	0.056
1065	0.057
1066	0.058
1066	0.059
1066	0.06
1067	0.062
1067	0.064
1068	0.065
1068	0.066
1068	0.067
1069	0.068
1069	0.068
1070	0.069
1070	0.071
1071	0.072
1071	0.074
1071	0.075
1072	0.076
1072	0.079
1073	0.08
1073	0.082
1073	0.083
1074	0.085
1074	0.086
1075	0.086
1075	0.087
1076	0.087
1076	0.088
1076	0.089
1077	0.089
1077	0.09
1078	0.091
1078	0.093
1078	0.095
1079	0.097
1079	0.1
1080	0.102
1080	0.104
1080	0.105
1081	0.107
1081	0.109
1082	0.112
1082	0.113
1083	0.116
1083	0.117
1083	0.12
1084	0.123
1084	0.127
1085	0.13
1085	0.134
1085	0.138
1086	0.142
1086	0.145
1087	0.149
1087	0.154
1088	0.158
1088	0.162
1088	0.167
1089	0.172
1089	0.178
1090	0.184
1090	0.191
1090	0.198
1091	0.206
1091	0.216
1092	0.225
1092	0.236
1092	0.245
1093	0.255
1093	0.267
1094	0.278
1094	0.289
1095	0.301
1095	0.315
1095	0.333
1096	0.351
1096	0.37
1097	0.395
1097	0.418
1097	0.447
1098	0.476
1098	0.511
1099	0.552
1099	0.602
1100	0.661
1100	0.729
1100	0.813
1101	0.928
1101	1.09
1102	1.44
1102	-0
1102	-0
1103	-0
1103	-0
1104	-0
1104	-0
1104	-0
1105	-0
1105	-0
1106	-0
1106	-0
1107	-0
1107	-0
1107	-0
1108	-0
1108	-0
1109	-0
1109	-0
1109	-0
1110	-0
1110	-0
1111	-0
1111	-0
