Data from 13c-stair-power-variation_Absorbance__380__04735.txt Node

Date: Tue Jan 16 16:36:55 CET 2024
User: Marek
Spectrometer: MAYP115816
Trigger mode: 0
Integration Time (sec): 2.000000E-1
Scans to average: 10
Electric dark correction enabled: true
Nonlinearity correction enabled: true
Boxcar width: 5
XAxis mode: Wavelengths
Number of Pixels in Spectrum: 2068
>>>>>Begin Spectral Data<<<<<
199	-1.087
199	-0.941
200	-0.832
200	-0.733
201	-0.676
201	-0.638
202	-0.587
202	-0.553
203	-0.528
203	-0.504
204	-0.483
204	-0.462
205	-0.445
205	-0.436
205	-0.437
206	-0.434
206	-0.435
207	-0.433
207	-0.435
208	-0.433
208	-0.434
209	-0.43
209	-0.433
210	-0.434
210	-0.433
211	-0.432
211	-0.434
212	-0.435
212	-0.436
213	-0.435
213	-0.436
213	-0.438
214	-0.438
214	-0.435
215	-0.434
215	-0.436
216	-0.435
216	-0.436
217	-0.433
217	-0.431
218	-0.429
218	-0.424
219	-0.419
219	-0.419
220	-0.42
220	-0.421
221	-0.419
221	-0.419
221	-0.414
222	-0.41
222	-0.406
223	-0.401
223	-0.399
224	-0.396
224	-0.386
225	-0.377
225	-0.368
226	-0.362
226	-0.352
227	-0.34
227	-0.331
228	-0.317
228	-0.304
229	-0.285
229	-0.263
229	-0.241
230	-0.217
230	-0.189
231	-0.158
231	-0.123
232	-0.093
232	-0.057
233	-0.021
233	0.016
234	0.051
234	0.086
235	0.119
235	0.151
236	0.181
236	0.209
236	0.236
237	0.261
237	0.284
238	0.304
238	0.322
239	0.34
239	0.355
240	0.368
240	0.38
241	0.391
241	0.4
242	0.408
242	0.416
243	0.422
243	0.428
243	0.433
244	0.438
244	0.443
245	0.446
245	0.45
246	0.453
246	0.457
247	0.459
247	0.462
248	0.466
248	0.468
249	0.47
249	0.472
250	0.474
250	0.477
250	0.478
251	0.48
251	0.482
252	0.484
252	0.485
253	0.486
253	0.487
254	0.488
254	0.489
255	0.49
255	0.491
256	0.492
256	0.492
257	0.493
257	0.493
258	0.493
258	0.493
258	0.493
259	0.493
259	0.493
260	0.492
260	0.492
261	0.491
261	0.491
262	0.49
262	0.489
263	0.489
263	0.488
264	0.486
264	0.486
265	0.484
265	0.483
265	0.481
266	0.48
266	0.478
267	0.476
267	0.474
268	0.472
268	0.47
269	0.468
269	0.465
270	0.463
270	0.461
271	0.458
271	0.456
272	0.454
272	0.452
272	0.449
273	0.447
273	0.444
274	0.442
274	0.44
275	0.437
275	0.435
276	0.433
276	0.43
277	0.427
277	0.425
278	0.422
278	0.42
278	0.417
279	0.414
279	0.41
280	0.407
280	0.404
281	0.401
281	0.398
282	0.395
282	0.392
283	0.389
283	0.386
284	0.384
284	0.382
285	0.38
285	0.378
285	0.376
286	0.373
286	0.371
287	0.369
287	0.367
288	0.365
288	0.363
289	0.361
289	0.359
290	0.357
290	0.355
291	0.354
291	0.352
292	0.35
292	0.348
292	0.346
293	0.345
293	0.343
294	0.341
294	0.34
295	0.339
295	0.337
296	0.336
296	0.334
297	0.333
297	0.332
298	0.331
298	0.33
298	0.329
299	0.328
299	0.327
300	0.326
300	0.325
301	0.324
301	0.323
302	0.322
302	0.321
303	0.32
303	0.319
304	0.318
304	0.317
305	0.317
305	0.316
305	0.315
306	0.314
306	0.313
307	0.312
307	0.311
308	0.31
308	0.309
309	0.308
309	0.307
310	0.306
310	0.306
311	0.305
311	0.304
311	0.303
312	0.302
312	0.301
313	0.301
313	0.3
314	0.299
314	0.298
315	0.297
315	0.296
316	0.295
316	0.294
317	0.294
317	0.293
318	0.292
318	0.291
318	0.291
319	0.29
319	0.289
320	0.288
320	0.287
321	0.286
321	0.285
322	0.285
322	0.284
323	0.283
323	0.282
324	0.282
324	0.281
324	0.28
325	0.28
325	0.279
326	0.278
326	0.278
327	0.277
327	0.276
328	0.275
328	0.274
329	0.274
329	0.273
330	0.272
330	0.271
330	0.271
331	0.27
331	0.269
332	0.268
332	0.268
333	0.267
333	0.267
334	0.266
334	0.266
335	0.265
335	0.264
336	0.264
336	0.263
336	0.262
337	0.262
337	0.261
338	0.261
338	0.26
339	0.259
339	0.259
340	0.258
340	0.258
341	0.257
341	0.257
342	0.256
342	0.256
342	0.255
343	0.255
343	0.255
344	0.254
344	0.254
345	0.253
345	0.253
346	0.253
346	0.252
347	0.252
347	0.251
348	0.251
348	0.251
348	0.251
349	0.251
349	0.25
350	0.25
350	0.25
351	0.249
351	0.249
352	0.249
352	0.249
353	0.248
353	0.248
354	0.247
354	0.247
354	0.247
355	0.246
355	0.246
356	0.246
356	0.246
357	0.245
357	0.245
358	0.245
358	0.244
359	0.244
359	0.244
360	0.244
360	0.244
360	0.244
361	0.244
361	0.244
362	0.244
362	0.244
363	0.244
363	0.244
364	0.244
364	0.244
365	0.244
365	0.243
366	0.243
366	0.243
366	0.243
367	0.243
367	0.243
368	0.242
368	0.242
369	0.242
369	0.242
370	0.242
370	0.242
371	0.242
371	0.241
372	0.241
372	0.241
372	0.241
373	0.241
373	0.241
374	0.24
374	0.24
375	0.24
375	0.239
376	0.239
376	0.239
377	0.239
377	0.239
378	0.239
378	0.239
378	0.239
379	0.239
379	0.239
380	0.239
380	0.239
381	0.238
381	0.238
382	0.238
382	0.237
383	0.237
383	0.237
383	0.236
384	0.236
384	0.236
385	0.235
385	0.236
386	0.236
386	0.235
387	0.235
387	0.235
388	0.235
388	0.235
389	0.235
389	0.234
389	0.234
390	0.234
390	0.234
391	0.234
391	0.233
392	0.233
392	0.233
393	0.233
393	0.233
394	0.233
394	0.233
394	0.232
395	0.232
395	0.232
396	0.232
396	0.232
397	0.232
397	0.232
398	0.231
398	0.231
399	0.231
399	0.231
400	0.23
400	0.23
400	0.23
401	0.229
401	0.228
402	0.228
402	0.228
403	0.228
403	0.227
404	0.227
404	0.227
405	0.227
405	0.227
405	0.227
406	0.227
406	0.227
407	0.227
407	0.226
408	0.226
408	0.226
409	0.226
409	0.226
410	0.226
410	0.226
411	0.226
411	0.226
411	0.226
412	0.226
412	0.225
413	0.225
413	0.225
414	0.225
414	0.224
415	0.224
415	0.224
416	0.223
416	0.223
416	0.223
417	0.223
417	0.223
418	0.223
418	0.223
419	0.223
419	0.223
420	0.223
420	0.224
421	0.223
421	0.223
421	0.223
422	0.223
422	0.223
423	0.223
423	0.223
424	0.222
424	0.221
425	0.221
425	0.221
426	0.221
426	0.221
427	0.221
427	0.221
427	0.222
428	0.222
428	0.222
429	0.222
429	0.222
430	0.222
430	0.222
431	0.221
431	0.221
432	0.221
432	0.221
432	0.22
433	0.22
433	0.219
434	0.219
434	0.22
435	0.22
435	0.22
436	0.22
436	0.22
437	0.219
437	0.219
437	0.219
438	0.219
438	0.219
439	0.219
439	0.219
440	0.219
440	0.22
441	0.22
441	0.22
442	0.22
442	0.221
442	0.221
443	0.221
443	0.222
444	0.222
444	0.222
445	0.222
445	0.222
446	0.222
446	0.222
447	0.222
447	0.222
447	0.222
448	0.222
448	0.222
449	0.221
449	0.221
450	0.221
450	0.221
451	0.221
451	0.221
452	0.221
452	0.221
452	0.221
453	0.221
453	0.221
454	0.221
454	0.221
455	0.221
455	0.221
456	0.221
456	0.221
457	0.221
457	0.221
458	0.221
458	0.221
458	0.222
459	0.222
459	0.223
460	0.222
460	0.222
461	0.223
461	0.223
462	0.224
462	0.224
463	0.225
463	0.226
463	0.226
464	0.226
464	0.226
465	0.227
465	0.227
466	0.227
466	0.227
467	0.228
467	0.227
467	0.227
468	0.227
468	0.227
469	0.227
469	0.228
470	0.228
470	0.229
471	0.229
471	0.229
472	0.229
472	0.23
472	0.231
473	0.232
473	0.232
474	0.233
474	0.233
475	0.234
475	0.235
476	0.235
476	0.236
477	0.237
477	0.238
477	0.238
478	0.239
478	0.24
479	0.241
479	0.242
480	0.243
480	0.244
481	0.244
481	0.245
482	0.246
482	0.247
482	0.248
483	0.25
483	0.252
484	0.253
484	0.254
485	0.255
485	0.256
486	0.257
486	0.258
487	0.259
487	0.26
487	0.261
488	0.262
488	0.262
489	0.263
489	0.266
490	0.268
490	0.269
491	0.271
491	0.273
492	0.275
492	0.276
492	0.277
493	0.279
493	0.281
494	0.283
494	0.286
495	0.287
495	0.289
496	0.29
496	0.292
496	0.294
497	0.296
497	0.297
498	0.299
498	0.3
499	0.302
499	0.303
500	0.306
500	0.308
501	0.31
501	0.312
501	0.313
502	0.316
502	0.318
503	0.32
503	0.322
504	0.324
504	0.325
505	0.327
505	0.329
506	0.331
506	0.334
506	0.336
507	0.338
507	0.34
508	0.342
508	0.344
509	0.346
509	0.347
510	0.349
510	0.351
511	0.352
511	0.354
511	0.355
512	0.357
512	0.359
513	0.36
513	0.361
514	0.362
514	0.364
515	0.365
515	0.366
515	0.367
516	0.368
516	0.369
517	0.37
517	0.37
518	0.371
518	0.371
519	0.371
519	0.371
520	0.371
520	0.372
520	0.373
521	0.373
521	0.373
522	0.372
522	0.373
523	0.374
523	0.375
524	0.375
524	0.375
524	0.376
525	0.376
525	0.376
526	0.376
526	0.376
527	0.377
527	0.376
528	0.375
528	0.375
529	0.374
529	0.373
529	0.371
530	0.371
530	0.37
531	0.369
531	0.368
532	0.366
532	0.365
533	0.364
533	0.363
533	0.362
534	0.36
534	0.359
535	0.357
535	0.356
536	0.354
536	0.353
537	0.351
537	0.349
538	0.347
538	0.345
538	0.343
539	0.341
539	0.339
540	0.337
540	0.335
541	0.332
541	0.33
542	0.328
542	0.326
542	0.323
543	0.321
543	0.319
544	0.316
544	0.314
545	0.312
545	0.309
546	0.307
546	0.303
547	0.3
547	0.297
547	0.294
548	0.291
548	0.288
549	0.286
549	0.283
550	0.28
550	0.277
551	0.274
551	0.272
551	0.269
552	0.267
552	0.265
553	0.262
553	0.26
554	0.257
554	0.254
555	0.251
555	0.248
556	0.245
556	0.242
556	0.239
557	0.237
557	0.235
558	0.232
558	0.23
559	0.227
559	0.225
560	0.223
560	0.22
560	0.219
561	0.217
561	0.216
562	0.213
562	0.21
563	0.207
563	0.205
564	0.203
564	0.2
564	0.198
565	0.196
565	0.194
566	0.192
566	0.19
567	0.188
567	0.187
568	0.185
568	0.183
568	0.181
569	0.18
569	0.179
570	0.176
570	0.173
571	0.172
571	0.171
572	0.169
572	0.167
573	0.165
573	0.162
573	0.16
574	0.158
574	0.157
575	0.156
575	0.156
576	0.154
576	0.151
577	0.148
577	0.146
577	0.145
578	0.144
578	0.144
579	0.145
579	0.145
580	0.142
580	0.138
581	0.135
581	0.134
581	0.135
582	0.135
582	0.135
583	0.135
583	0.132
584	0.128
584	0.125
585	0.125
585	0.125
585	0.125
586	0.125
586	0.124
587	0.122
587	0.12
588	0.118
588	0.118
589	0.118
589	0.119
590	0.119
590	0.119
590	0.12
591	0.121
591	0.12
592	0.118
592	0.117
593	0.117
593	0.116
594	0.115
594	0.114
594	0.113
595	0.113
595	0.111
596	0.11
596	0.112
597	0.115
597	0.115
598	0.114
598	0.114
598	0.114
599	0.113
599	0.112
600	0.111
600	0.11
601	0.11
601	0.109
602	0.107
602	0.106
602	0.106
603	0.106
603	0.107
604	0.107
604	0.108
605	0.108
605	0.109
606	0.108
606	0.106
606	0.106
607	0.106
607	0.106
608	0.105
608	0.104
609	0.103
609	0.103
610	0.102
610	0.101
610	0.102
611	0.103
611	0.104
612	0.105
612	0.107
613	0.108
613	0.109
614	0.109
614	0.108
614	0.109
615	0.109
615	0.109
616	0.109
616	0.109
617	0.108
617	0.108
618	0.107
618	0.108
618	0.109
619	0.111
619	0.112
620	0.115
620	0.115
621	0.116
621	0.117
622	0.117
622	0.118
622	0.118
623	0.119
623	0.12
624	0.121
624	0.121
625	0.121
625	0.123
626	0.123
626	0.124
626	0.125
627	0.126
627	0.127
628	0.128
628	0.128
629	0.129
629	0.129
630	0.129
630	0.13
630	0.132
631	0.133
631	0.134
632	0.134
632	0.136
633	0.137
633	0.138
634	0.14
634	0.142
634	0.144
635	0.145
635	0.146
636	0.147
636	0.148
637	0.149
637	0.151
638	0.152
638	0.154
638	0.156
639	0.157
639	0.159
640	0.161
640	0.164
641	0.166
641	0.168
642	0.171
642	0.173
642	0.175
643	0.177
643	0.179
644	0.182
644	0.184
645	0.187
645	0.189
646	0.192
646	0.195
646	0.198
647	0.201
647	0.203
648	0.205
648	0.207
649	0.21
649	0.213
650	0.216
650	0.219
650	0.222
651	0.224
651	0.227
652	0.23
652	0.233
653	0.238
653	0.247
653	0.25
654	0.199
654	0.161
655	0.162
655	0.164
656	0.166
656	0.168
657	0.169
657	0.171
657	0.172
658	0.168
658	0.163
659	0.207
659	0.269
660	0.28
660	0.284
661	0.287
661	0.29
661	0.295
662	0.299
662	0.303
663	0.307
663	0.311
664	0.314
664	0.318
665	0.321
665	0.325
665	0.328
666	0.331
666	0.334
667	0.337
667	0.341
668	0.344
668	0.348
669	0.351
669	0.355
669	0.36
670	0.363
670	0.366
671	0.369
671	0.371
672	0.374
672	0.376
672	0.379
673	0.381
673	0.384
674	0.386
674	0.388
675	0.39
675	0.392
676	0.396
676	0.398
676	0.399
677	0.401
677	0.403
678	0.404
678	0.405
679	0.406
679	0.407
680	0.409
680	0.41
680	0.411
681	0.412
681	0.414
682	0.415
682	0.417
683	0.419
683	0.421
684	0.422
684	0.422
684	0.422
685	0.423
685	0.423
686	0.423
686	0.423
687	0.422
687	0.422
687	0.422
688	0.421
688	0.421
689	0.421
689	0.421
690	0.42
690	0.419
691	0.418
691	0.418
691	0.417
692	0.416
692	0.415
693	0.415
693	0.414
694	0.413
694	0.412
695	0.412
695	0.413
695	0.411
696	0.409
696	0.407
697	0.406
697	0.405
698	0.402
698	0.4
698	0.398
699	0.396
699	0.392
700	0.389
700	0.387
701	0.385
701	0.382
702	0.379
702	0.377
702	0.374
703	0.372
703	0.37
704	0.367
704	0.365
705	0.362
705	0.359
705	0.356
706	0.353
706	0.351
707	0.348
707	0.346
708	0.344
708	0.342
709	0.34
709	0.337
709	0.335
710	0.333
710	0.331
711	0.33
711	0.328
712	0.326
712	0.323
713	0.321
713	0.318
713	0.315
714	0.312
714	0.309
715	0.306
715	0.303
716	0.299
716	0.296
716	0.292
717	0.289
717	0.286
718	0.283
718	0.28
719	0.278
719	0.276
720	0.273
720	0.271
720	0.268
721	0.265
721	0.263
722	0.26
722	0.256
723	0.254
723	0.251
723	0.248
724	0.244
724	0.241
725	0.238
725	0.235
726	0.233
726	0.231
727	0.228
727	0.226
727	0.224
728	0.221
728	0.22
729	0.219
729	0.217
730	0.215
730	0.213
730	0.212
731	0.211
731	0.21
732	0.209
732	0.207
733	0.205
733	0.204
734	0.202
734	0.201
734	0.199
735	0.198
735	0.195
736	0.193
736	0.191
737	0.189
737	0.188
737	0.185
738	0.182
738	0.179
739	0.176
739	0.174
740	0.172
740	0.172
741	0.17
741	0.169
741	0.167
742	0.165
742	0.164
743	0.164
743	0.163
744	0.162
744	0.161
744	0.159
745	0.157
745	0.155
746	0.153
746	0.151
747	0.148
747	0.146
748	0.143
748	0.14
748	0.137
749	0.134
749	0.132
750	0.13
750	0.128
751	0.126
751	0.125
751	0.124
752	0.122
752	0.121
753	0.12
753	0.12
754	0.119
754	0.118
754	0.118
755	0.116
755	0.116
756	0.113
756	0.111
757	0.11
757	0.109
758	0.108
758	0.106
758	0.105
759	0.103
759	0.1
760	0.098
760	0.096
761	0.095
761	0.095
761	0.094
762	0.092
762	0.092
763	0.09
763	0.088
764	0.086
764	0.085
764	0.084
765	0.083
765	0.081
766	0.081
766	0.08
767	0.078
767	0.076
768	0.074
768	0.073
768	0.072
769	0.072
769	0.071
770	0.069
770	0.068
771	0.066
771	0.064
771	0.063
772	0.062
772	0.061
773	0.06
773	0.058
774	0.056
774	0.055
775	0.053
775	0.051
775	0.049
776	0.047
776	0.045
777	0.043
777	0.04
778	0.037
778	0.035
778	0.033
779	0.031
779	0.029
780	0.026
780	0.024
781	0.022
781	0.02
781	0.018
782	0.015
782	0.013
783	0.01
783	0.007
784	0.003
784	-0.001
784	-0.005
785	-0.009
785	-0.014
786	-0.018
786	-0.021
787	-0.025
787	-0.029
788	-0.034
788	-0.038
788	-0.044
789	-0.049
789	-0.054
790	-0.057
790	-0.062
791	-0.067
791	-0.071
791	-0.074
792	-0.07
792	-0.064
793	-0.061
793	-0.059
794	-0.059
794	-0.061
794	-0.064
795	-0.066
795	-0.066
796	-0.066
796	-0.068
797	-0.076
797	-0.085
797	-0.092
798	-0.097
798	-0.099
799	-0.1
799	-0.1
800	-0.1
800	-0.102
801	-0.105
801	-0.106
801	-0.107
802	-0.109
802	-0.11
803	-0.111
803	-0.112
804	-0.111
804	-0.106
804	-0.1
805	-0.096
805	-0.094
806	-0.092
806	-0.091
807	-0.09
807	-0.089
807	-0.089
808	-0.088
808	-0.089
809	-0.093
809	-0.098
810	-0.1
810	-0.102
810	-0.105
811	-0.108
811	-0.108
812	-0.104
812	-0.101
813	-0.101
813	-0.102
813	-0.101
814	-0.099
814	-0.096
815	-0.091
815	-0.085
816	-0.078
816	-0.073
817	-0.071
817	-0.067
817	-0.059
818	-0.05
818	-0.042
819	-0.034
819	-0.029
820	-0.024
820	-0.019
820	-0.015
821	-0.01
821	-0.006
822	-0.003
822	0.001
823	0.004
823	0.006
823	0.008
824	0.011
824	0.013
825	0.015
825	0.017
826	0.018
826	0.019
826	0.02
827	0.021
827	0.021
828	0.022
828	0.022
829	0.023
829	0.024
829	0.025
830	0.026
830	0.028
831	0.031
831	0.032
832	0.033
832	0.034
832	0.035
833	0.035
833	0.036
834	0.036
834	0.036
835	0.036
835	0.036
835	0.036
836	0.036
836	0.036
837	0.037
837	0.037
838	0.037
838	0.037
839	0.037
839	0.037
839	0.037
840	0.036
840	0.036
841	0.036
841	0.036
842	0.035
842	0.035
842	0.035
843	0.035
843	0.035
844	0.035
844	0.035
845	0.035
845	0.036
845	0.036
846	0.036
846	0.036
847	0.036
847	0.037
848	0.037
848	0.037
848	0.037
849	0.037
849	0.037
850	0.037
850	0.036
851	0.036
851	0.036
851	0.036
852	0.036
852	0.036
853	0.036
853	0.036
854	0.036
854	0.036
854	0.036
855	0.036
855	0.036
856	0.035
856	0.035
857	0.035
857	0.034
857	0.034
858	0.034
858	0.033
859	0.032
859	0.032
860	0.031
860	0.031
860	0.03
861	0.029
861	0.029
862	0.027
862	0.026
863	0.025
863	0.025
863	0.024
864	0.023
864	0.023
865	0.023
865	0.023
866	0.023
866	0.023
866	0.024
867	0.025
867	0.026
868	0.027
868	0.027
869	0.028
869	0.028
869	0.028
870	0.027
870	0.027
871	0.027
871	0.026
872	0.025
872	0.024
872	0.023
873	0.023
873	0.022
874	0.022
874	0.022
875	0.022
875	0.022
875	0.023
876	0.023
876	0.023
877	0.024
877	0.023
878	0.023
878	0.023
878	0.022
879	0.022
879	0.021
880	0.021
880	0.02
881	0.02
881	0.021
881	0.021
882	0.021
882	0.022
883	0.022
883	0.022
884	0.023
884	0.023
884	0.023
885	0.024
885	0.024
886	0.024
886	0.024
887	0.024
887	0.024
887	0.024
888	0.023
888	0.023
889	0.023
889	0.023
890	0.023
890	0.023
890	0.023
891	0.022
891	0.023
892	0.023
892	0.023
893	0.023
893	0.024
893	0.025
894	0.026
894	0.026
895	0.026
895	0.027
895	0.027
896	0.028
896	0.028
897	0.029
897	0.03
898	0.03
898	0.031
898	0.032
899	0.032
899	0.033
900	0.034
900	0.035
901	0.035
901	0.036
901	0.036
902	0.036
902	0.036
903	0.036
903	0.035
904	0.034
904	0.033
904	0.032
905	0.031
905	0.03
906	0.029
906	0.027
907	0.026
907	0.025
907	0.024
908	0.024
908	0.023
909	0.023
909	0.023
910	0.023
910	0.024
910	0.024
911	0.025
911	0.026
912	0.027
912	0.027
913	0.028
913	0.029
913	0.029
914	0.03
914	0.03
915	0.03
915	0.03
916	0.029
916	0.028
916	0.028
917	0.027
917	0.026
918	0.025
918	0.025
918	0.024
919	0.023
919	0.023
920	0.022
920	0.022
921	0.022
921	0.022
921	0.021
922	0.021
922	0.02
923	0.019
923	0.019
924	0.018
924	0.018
924	0.017
925	0.016
925	0.015
926	0.014
926	0.014
927	0.013
927	0.012
927	0.012
928	0.012
928	0.012
929	0.012
929	0.013
930	0.014
930	0.015
930	0.017
931	0.018
931	0.02
932	0.021
932	0.023
933	0.025
933	0.026
933	0.028
934	0.028
934	0.029
935	0.029
935	0.029
935	0.029
936	0.028
936	0.028
937	0.028
937	0.027
938	0.027
938	0.026
938	0.026
939	0.025
939	0.025
940	0.025
940	0.024
941	0.024
941	0.024
941	0.023
942	0.023
942	0.023
943	0.022
943	0.022
944	0.022
944	0.021
944	0.021
945	0.021
945	0.021
946	0.021
946	0.02
946	0.02
947	0.02
947	0.019
948	0.018
948	0.018
949	0.017
949	0.017
949	0.017
950	0.017
950	0.017
951	0.017
951	0.016
952	0.016
952	0.016
952	0.017
953	0.017
953	0.017
954	0.016
954	0.016
955	0.016
955	0.016
955	0.016
956	0.017
956	0.017
957	0.017
957	0.017
957	0.017
958	0.017
958	0.017
959	0.017
959	0.016
960	0.016
960	0.015
960	0.013
961	0.012
961	0.011
962	0.01
962	0.009
963	0.009
963	0.008
963	0.008
964	0.008
964	0.008
965	0.009
965	0.01
966	0.011
966	0.012
966	0.013
967	0.014
967	0.015
968	0.016
968	0.017
968	0.017
969	0.018
969	0.018
970	0.018
970	0.018
971	0.018
971	0.018
971	0.019
972	0.019
972	0.02
973	0.02
973	0.021
974	0.022
974	0.023
974	0.023
975	0.024
975	0.025
976	0.026
976	0.026
976	0.027
977	0.027
977	0.027
978	0.026
978	0.026
979	0.026
979	0.026
979	0.026
980	0.026
980	0.026
981	0.026
981	0.026
982	0.027
982	0.027
982	0.027
983	0.027
983	0.027
984	0.027
984	0.027
984	0.027
985	0.027
985	0.026
986	0.025
986	0.024
987	0.024
987	0.023
987	0.022
988	0.021
988	0.021
989	0.02
989	0.02
990	0.019
990	0.019
990	0.019
991	0.02
991	0.021
992	0.021
992	0.021
992	0.021
993	0.021
993	0.021
994	0.021
994	0.021
995	0.021
995	0.02
995	0.02
996	0.019
996	0.018
997	0.018
997	0.018
997	0.018
998	0.018
998	0.018
999	0.019
999	0.019
1000	0.02
1000	0.021
1000	0.021
1001	0.022
1001	0.022
1002	0.023
1002	0.023
1003	0.023
1003	0.023
1003	0.022
1004	0.022
1004	0.021
1005	0.02
1005	0.019
1005	0.018
1006	0.016
1006	0.016
1007	0.015
1007	0.014
1008	0.014
1008	0.014
1008	0.014
1009	0.013
1009	0.014
1010	0.014
1010	0.014
1010	0.014
1011	0.015
1011	0.015
1012	0.015
1012	0.016
1013	0.016
1013	0.016
1013	0.016
1014	0.016
1014	0.015
1015	0.015
1015	0.014
1016	0.014
1016	0.013
1016	0.011
1017	0.01
1017	0.009
1018	0.008
1018	0.007
1018	0.007
1019	0.006
1019	0.005
1020	0.005
1020	0.004
1021	0.004
1021	0.004
1021	0.004
1022	0.003
1022	0.003
1023	0.003
1023	0.002
1023	0.002
1024	0.001
1024	-0
1025	-0.001
1025	-0.003
1026	-0.004
1026	-0.005
1026	-0.006
1027	-0.006
1027	-0.007
1028	-0.008
1028	-0.008
1028	-0.008
1029	-0.008
1029	-0.008
1030	-0.007
1030	-0.007
1031	-0.007
1031	-0.006
1031	-0.006
1032	-0.005
1032	-0.005
1033	-0.004
1033	-0.004
1033	-0.004
1034	-0.004
1034	-0.004
1035	-0.004
1035	-0.004
1036	-0.005
1036	-0.004
1036	-0.004
1037	-0.004
1037	-0.004
1038	-0.004
1038	-0.004
1039	-0.003
1039	-0.003
1039	-0.002
1040	-0.002
1040	-0.002
1041	-0.002
1041	-0.002
1041	-0.003
1042	-0.003
1042	-0.004
1043	-0.005
1043	-0.006
1044	-0.007
1044	-0.008
1044	-0.009
1045	-0.01
1045	-0.011
1046	-0.011
1046	-0.012
1046	-0.012
1047	-0.013
1047	-0.013
1048	-0.013
1048	-0.013
1049	-0.014
1049	-0.014
1049	-0.015
1050	-0.016
1050	-0.017
1051	-0.018
1051	-0.018
1051	-0.019
1052	-0.02
1052	-0.02
1053	-0.021
1053	-0.021
1053	-0.022
1054	-0.021
1054	-0.021
1055	-0.021
1055	-0.021
1056	-0.021
1056	-0.021
1056	-0.022
1057	-0.023
1057	-0.023
1058	-0.023
1058	-0.023
1058	-0.024
1059	-0.024
1059	-0.024
1060	-0.025
1060	-0.025
1061	-0.025
1061	-0.025
1061	-0.024
1062	-0.024
1062	-0.025
1063	-0.025
1063	-0.025
1063	-0.025
1064	-0.025
1064	-0.025
1065	-0.025
1065	-0.025
1066	-0.025
1066	-0.025
1066	-0.025
1067	-0.024
1067	-0.024
1068	-0.024
1068	-0.023
1068	-0.024
1069	-0.024
1069	-0.024
1070	-0.024
1070	-0.024
1071	-0.024
1071	-0.024
1071	-0.025
1072	-0.025
1072	-0.025
1073	-0.026
1073	-0.026
1073	-0.026
1074	-0.027
1074	-0.027
1075	-0.028
1075	-0.029
1076	-0.031
1076	-0.032
1076	-0.033
1077	-0.034
1077	-0.035
1078	-0.036
1078	-0.037
1078	-0.037
1079	-0.038
1079	-0.038
1080	-0.038
1080	-0.038
1080	-0.038
1081	-0.038
1081	-0.038
1082	-0.038
1082	-0.039
1083	-0.039
1083	-0.039
1083	-0.04
1084	-0.04
1084	-0.041
1085	-0.041
1085	-0.041
1085	-0.041
1086	-0.04
1086	-0.041
1087	-0.04
1087	-0.04
1088	-0.04
1088	-0.04
1088	-0.039
1089	-0.04
1089	-0.04
1090	-0.04
1090	-0.041
1090	-0.042
1091	-0.043
1091	-0.043
1092	-0.043
1092	-0.043
1092	-0.044
1093	-0.045
1093	-0.045
1094	-0.045
1094	-0.047
1095	-0.048
1095	-0.049
1095	-0.049
1096	-0.051
1096	-0.052
1097	-0.052
1097	-0.053
1097	-0.054
1098	-0.056
1098	-0.056
1099	-0.057
1099	-0.058
1100	-0.059
1100	-0.06
1100	-0.061
1101	-0.062
1101	-0.064
1102	-0.065
1102	-0.066
1102	-0.066
1103	-0.067
1103	-0.069
1104	-0.069
1104	-0.07
1104	-0.07
1105	-0.07
1105	-0.072
1106	-0.074
1106	-0.074
1107	-0.078
1107	-0.079
1107	-0.08
1108	-0.072
1108	-0.066
1109	-0.058
1109	-0.05
1109	-0.047
1110	-0.035
1110	-0.021
1111	0.009
1111	0.094
