Data from 13c-stair-power-variation_Absorbance__505__04860.txt Node

Date: Tue Jan 16 16:41:05 CET 2024
User: Marek
Spectrometer: MAYP115816
Trigger mode: 0
Integration Time (sec): 2.000000E-1
Scans to average: 10
Electric dark correction enabled: true
Nonlinearity correction enabled: true
Boxcar width: 5
XAxis mode: Wavelengths
Number of Pixels in Spectrum: 2068
>>>>>Begin Spectral Data<<<<<
199	-2.156
199	-1.968
200	-1.833
200	-1.714
201	-1.64
201	-1.588
202	-1.513
202	-1.451
203	-1.403
203	-1.354
204	-1.328
204	-1.302
205	-1.282
205	-1.27
205	-1.268
206	-1.263
206	-1.259
207	-1.257
207	-1.257
208	-1.252
208	-1.251
209	-1.247
209	-1.245
210	-1.244
210	-1.241
211	-1.24
211	-1.239
212	-1.239
212	-1.238
213	-1.236
213	-1.234
213	-1.235
214	-1.233
214	-1.232
215	-1.231
215	-1.231
216	-1.228
216	-1.227
217	-1.224
217	-1.222
218	-1.217
218	-1.214
219	-1.209
219	-1.208
220	-1.206
220	-1.205
221	-1.201
221	-1.199
221	-1.194
222	-1.19
222	-1.184
223	-1.18
223	-1.175
224	-1.169
224	-1.16
225	-1.151
225	-1.141
226	-1.133
226	-1.123
227	-1.11
227	-1.097
228	-1.081
228	-1.065
229	-1.044
229	-1.02
229	-0.995
230	-0.966
230	-0.933
231	-0.898
231	-0.858
232	-0.818
232	-0.775
233	-0.729
233	-0.681
234	-0.633
234	-0.585
235	-0.535
235	-0.487
236	-0.439
236	-0.391
236	-0.345
237	-0.3
237	-0.257
238	-0.216
238	-0.176
239	-0.138
239	-0.103
240	-0.07
240	-0.039
241	-0.01
241	0.016
242	0.041
242	0.064
243	0.085
243	0.105
243	0.123
244	0.139
244	0.155
245	0.169
245	0.182
246	0.194
246	0.206
247	0.216
247	0.225
248	0.235
248	0.243
249	0.251
249	0.258
250	0.265
250	0.272
250	0.278
251	0.284
251	0.289
252	0.294
252	0.298
253	0.303
253	0.307
254	0.311
254	0.314
255	0.317
255	0.321
256	0.323
256	0.326
257	0.328
257	0.33
258	0.332
258	0.334
258	0.335
259	0.336
259	0.337
260	0.338
260	0.339
261	0.34
261	0.341
262	0.341
262	0.341
263	0.342
263	0.342
264	0.343
264	0.343
265	0.343
265	0.343
265	0.343
266	0.343
266	0.343
267	0.342
267	0.342
268	0.341
268	0.341
269	0.34
269	0.339
270	0.338
270	0.337
271	0.336
271	0.335
272	0.334
272	0.333
272	0.332
273	0.33
273	0.329
274	0.328
274	0.327
275	0.326
275	0.325
276	0.323
276	0.322
277	0.32
277	0.318
278	0.317
278	0.315
278	0.313
279	0.311
279	0.31
280	0.309
280	0.307
281	0.306
281	0.305
282	0.304
282	0.303
283	0.302
283	0.302
284	0.301
284	0.301
285	0.3
285	0.299
285	0.298
286	0.297
286	0.296
287	0.295
287	0.294
288	0.293
288	0.292
289	0.291
289	0.29
290	0.289
290	0.288
291	0.288
291	0.287
292	0.286
292	0.285
292	0.284
293	0.283
293	0.282
294	0.281
294	0.281
295	0.28
295	0.279
296	0.278
296	0.277
297	0.277
297	0.276
298	0.275
298	0.274
298	0.274
299	0.273
299	0.273
300	0.272
300	0.271
301	0.271
301	0.27
302	0.269
302	0.269
303	0.268
303	0.268
304	0.267
304	0.266
305	0.265
305	0.265
305	0.264
306	0.263
306	0.262
307	0.262
307	0.261
308	0.26
308	0.259
309	0.258
309	0.257
310	0.256
310	0.256
311	0.255
311	0.254
311	0.253
312	0.253
312	0.252
313	0.251
313	0.25
314	0.249
314	0.249
315	0.248
315	0.247
316	0.246
316	0.245
317	0.244
317	0.243
318	0.243
318	0.242
318	0.241
319	0.24
319	0.239
320	0.238
320	0.237
321	0.236
321	0.235
322	0.235
322	0.234
323	0.233
323	0.232
324	0.231
324	0.231
324	0.23
325	0.229
325	0.229
326	0.228
326	0.227
327	0.226
327	0.225
328	0.225
328	0.224
329	0.223
329	0.222
330	0.221
330	0.22
330	0.22
331	0.219
331	0.218
332	0.217
332	0.216
333	0.215
333	0.215
334	0.214
334	0.213
335	0.212
335	0.212
336	0.211
336	0.21
336	0.209
337	0.209
337	0.208
338	0.207
338	0.206
339	0.206
339	0.205
340	0.204
340	0.204
341	0.203
341	0.203
342	0.202
342	0.201
342	0.201
343	0.2
343	0.199
344	0.199
344	0.198
345	0.198
345	0.197
346	0.197
346	0.196
347	0.195
347	0.195
348	0.194
348	0.194
348	0.193
349	0.192
349	0.192
350	0.191
350	0.19
351	0.189
351	0.188
352	0.187
352	0.186
353	0.185
353	0.184
354	0.183
354	0.182
354	0.181
355	0.18
355	0.179
356	0.178
356	0.178
357	0.177
357	0.177
358	0.177
358	0.177
359	0.178
359	0.178
360	0.179
360	0.18
360	0.18
361	0.181
361	0.181
362	0.182
362	0.182
363	0.182
363	0.182
364	0.181
364	0.181
365	0.18
365	0.18
366	0.18
366	0.179
366	0.179
367	0.179
367	0.179
368	0.178
368	0.178
369	0.177
369	0.177
370	0.177
370	0.176
371	0.176
371	0.175
372	0.175
372	0.175
372	0.174
373	0.174
373	0.174
374	0.174
374	0.174
375	0.173
375	0.173
376	0.173
376	0.174
377	0.174
377	0.174
378	0.174
378	0.174
378	0.175
379	0.175
379	0.175
380	0.175
380	0.175
381	0.175
381	0.174
382	0.174
382	0.174
383	0.173
383	0.173
383	0.172
384	0.172
384	0.171
385	0.171
385	0.171
386	0.171
386	0.171
387	0.171
387	0.171
388	0.17
388	0.17
389	0.17
389	0.17
389	0.17
390	0.17
390	0.17
391	0.17
391	0.171
392	0.17
392	0.17
393	0.171
393	0.171
394	0.171
394	0.171
394	0.17
395	0.17
395	0.17
396	0.169
396	0.169
397	0.17
397	0.17
398	0.17
398	0.17
399	0.17
399	0.17
400	0.169
400	0.169
400	0.168
401	0.168
401	0.167
402	0.166
402	0.165
403	0.164
403	0.164
404	0.164
404	0.164
405	0.163
405	0.163
405	0.163
406	0.163
406	0.163
407	0.163
407	0.162
408	0.162
408	0.161
409	0.161
409	0.16
410	0.16
410	0.16
411	0.16
411	0.16
411	0.16
412	0.16
412	0.159
413	0.159
413	0.159
414	0.158
414	0.158
415	0.158
415	0.157
416	0.157
416	0.156
416	0.156
417	0.155
417	0.155
418	0.155
418	0.156
419	0.156
419	0.157
420	0.158
420	0.158
421	0.159
421	0.159
421	0.159
422	0.16
422	0.16
423	0.16
423	0.16
424	0.159
424	0.158
425	0.157
425	0.156
426	0.155
426	0.155
427	0.155
427	0.155
427	0.155
428	0.156
428	0.157
429	0.157
429	0.158
430	0.158
430	0.158
431	0.158
431	0.158
432	0.157
432	0.156
432	0.155
433	0.154
433	0.153
434	0.152
434	0.152
435	0.152
435	0.152
436	0.151
436	0.152
437	0.151
437	0.151
437	0.151
438	0.151
438	0.151
439	0.151
439	0.151
440	0.15
440	0.151
441	0.151
441	0.151
442	0.151
442	0.152
442	0.153
443	0.153
443	0.154
444	0.154
444	0.154
445	0.155
445	0.155
446	0.155
446	0.155
447	0.155
447	0.154
447	0.154
448	0.154
448	0.153
449	0.153
449	0.153
450	0.152
450	0.152
451	0.151
451	0.151
452	0.15
452	0.15
452	0.149
453	0.148
453	0.148
454	0.147
454	0.146
455	0.146
455	0.145
456	0.145
456	0.145
457	0.145
457	0.144
458	0.144
458	0.145
458	0.145
459	0.146
459	0.146
460	0.145
460	0.144
461	0.144
461	0.144
462	0.144
462	0.144
463	0.144
463	0.145
463	0.146
464	0.146
464	0.146
465	0.146
465	0.146
466	0.147
466	0.147
467	0.147
467	0.146
467	0.145
468	0.143
468	0.141
469	0.14
469	0.139
470	0.138
470	0.138
471	0.137
471	0.137
472	0.136
472	0.137
472	0.137
473	0.139
473	0.14
474	0.141
474	0.142
475	0.142
475	0.143
476	0.144
476	0.144
477	0.145
477	0.145
477	0.146
478	0.146
478	0.147
479	0.147
479	0.148
480	0.149
480	0.15
481	0.151
481	0.151
482	0.152
482	0.153
482	0.155
483	0.157
483	0.16
484	0.163
484	0.166
485	0.167
485	0.169
486	0.17
486	0.171
487	0.172
487	0.173
487	0.173
488	0.173
488	0.172
489	0.17
489	0.169
490	0.168
490	0.167
491	0.167
491	0.168
492	0.168
492	0.169
492	0.169
493	0.17
493	0.171
494	0.174
494	0.176
495	0.178
495	0.179
496	0.18
496	0.181
496	0.183
497	0.184
497	0.185
498	0.185
498	0.186
499	0.186
499	0.186
500	0.187
500	0.188
501	0.19
501	0.192
501	0.193
502	0.195
502	0.197
503	0.199
503	0.2
504	0.201
504	0.202
505	0.202
505	0.203
506	0.204
506	0.204
506	0.205
507	0.205
507	0.205
508	0.206
508	0.206
509	0.207
509	0.208
510	0.209
510	0.209
511	0.209
511	0.209
511	0.21
512	0.211
512	0.211
513	0.21
513	0.209
514	0.208
514	0.207
515	0.207
515	0.207
515	0.206
516	0.206
516	0.206
517	0.206
517	0.206
518	0.206
518	0.205
519	0.204
519	0.201
520	0.199
520	0.196
520	0.193
521	0.191
521	0.188
522	0.186
522	0.184
523	0.185
523	0.186
524	0.188
524	0.191
524	0.195
525	0.199
525	0.202
526	0.205
526	0.208
527	0.211
527	0.213
528	0.214
528	0.216
529	0.216
529	0.216
529	0.216
530	0.216
530	0.216
531	0.216
531	0.216
532	0.215
532	0.215
533	0.215
533	0.215
533	0.215
534	0.214
534	0.213
535	0.213
535	0.212
536	0.212
536	0.211
537	0.211
537	0.21
538	0.209
538	0.208
538	0.206
539	0.206
539	0.205
540	0.204
540	0.203
541	0.201
541	0.199
542	0.197
542	0.196
542	0.194
543	0.193
543	0.192
544	0.19
544	0.188
545	0.187
545	0.186
546	0.186
546	0.185
547	0.183
547	0.18
547	0.178
548	0.175
548	0.173
549	0.171
549	0.169
550	0.167
550	0.165
551	0.162
551	0.16
551	0.158
552	0.156
552	0.155
553	0.154
553	0.154
554	0.153
554	0.151
555	0.149
555	0.146
556	0.143
556	0.14
556	0.137
557	0.134
557	0.132
558	0.13
558	0.128
559	0.126
559	0.125
560	0.125
560	0.124
560	0.124
561	0.124
561	0.124
562	0.124
562	0.122
563	0.121
563	0.119
564	0.116
564	0.113
564	0.111
565	0.109
565	0.108
566	0.106
566	0.105
567	0.105
567	0.106
568	0.107
568	0.108
568	0.11
569	0.112
569	0.114
570	0.115
570	0.114
571	0.115
571	0.116
572	0.116
572	0.116
573	0.116
573	0.115
573	0.113
574	0.112
574	0.112
575	0.111
575	0.112
576	0.113
576	0.111
577	0.109
577	0.107
577	0.107
578	0.106
578	0.106
579	0.108
579	0.109
580	0.108
580	0.106
581	0.102
581	0.101
581	0.1
582	0.1
582	0.1
583	0.101
583	0.1
584	0.096
584	0.091
585	0.09
585	0.089
585	0.089
586	0.089
586	0.089
587	0.087
587	0.085
588	0.082
588	0.08
589	0.079
589	0.079
590	0.078
590	0.077
590	0.078
591	0.079
591	0.079
592	0.079
592	0.078
593	0.078
593	0.078
594	0.077
594	0.076
594	0.075
595	0.075
595	0.073
596	0.071
596	0.072
597	0.075
597	0.076
598	0.077
598	0.078
598	0.078
599	0.079
599	0.078
600	0.077
600	0.076
601	0.075
601	0.074
602	0.072
602	0.071
602	0.069
603	0.068
603	0.069
604	0.07
604	0.07
605	0.072
605	0.073
606	0.073
606	0.072
606	0.072
607	0.071
607	0.071
608	0.07
608	0.068
609	0.067
609	0.066
610	0.064
610	0.062
610	0.062
611	0.062
611	0.063
612	0.064
612	0.066
613	0.067
613	0.069
614	0.069
614	0.068
614	0.069
615	0.069
615	0.069
616	0.068
616	0.068
617	0.067
617	0.066
618	0.064
618	0.064
618	0.063
619	0.064
619	0.064
620	0.066
620	0.067
621	0.068
621	0.069
622	0.069
622	0.07
622	0.07
623	0.071
623	0.072
624	0.073
624	0.073
625	0.073
625	0.074
626	0.074
626	0.074
626	0.075
627	0.075
627	0.075
628	0.076
628	0.076
629	0.076
629	0.076
630	0.075
630	0.075
630	0.075
631	0.076
631	0.076
632	0.076
632	0.076
633	0.077
633	0.078
634	0.079
634	0.081
634	0.082
635	0.084
635	0.085
636	0.086
636	0.088
637	0.089
637	0.09
638	0.091
638	0.093
638	0.094
639	0.095
639	0.096
640	0.098
640	0.099
641	0.101
641	0.103
642	0.105
642	0.107
642	0.109
643	0.111
643	0.112
644	0.114
644	0.116
645	0.118
645	0.12
646	0.123
646	0.126
646	0.129
647	0.133
647	0.136
648	0.138
648	0.141
649	0.144
649	0.147
650	0.15
650	0.153
650	0.156
651	0.158
651	0.161
652	0.163
652	0.165
653	0.169
653	0.179
653	0.19
654	0.156
654	0.131
655	0.133
655	0.135
656	0.137
656	0.139
657	0.14
657	0.142
657	0.143
658	0.138
658	0.13
659	0.16
659	0.2
660	0.206
660	0.207
661	0.209
661	0.211
661	0.214
662	0.218
662	0.222
663	0.225
663	0.229
664	0.232
664	0.235
665	0.238
665	0.241
665	0.243
666	0.246
666	0.249
667	0.252
667	0.254
668	0.257
668	0.26
669	0.263
669	0.267
669	0.271
670	0.276
670	0.28
671	0.283
671	0.285
672	0.287
672	0.289
672	0.29
673	0.292
673	0.294
674	0.295
674	0.296
675	0.296
675	0.297
676	0.299
676	0.301
676	0.302
677	0.304
677	0.306
678	0.308
678	0.31
679	0.311
679	0.312
680	0.314
680	0.316
680	0.316
681	0.317
681	0.318
682	0.32
682	0.321
683	0.323
683	0.326
684	0.329
684	0.33
684	0.33
685	0.331
685	0.332
686	0.334
686	0.334
687	0.334
687	0.333
687	0.332
688	0.331
688	0.33
689	0.33
689	0.33
690	0.33
690	0.33
691	0.33
691	0.33
691	0.33
692	0.33
692	0.329
693	0.329
693	0.33
694	0.329
694	0.328
695	0.328
695	0.329
695	0.33
696	0.329
696	0.328
697	0.327
697	0.326
698	0.325
698	0.322
698	0.32
699	0.319
699	0.316
700	0.312
700	0.31
701	0.308
701	0.306
702	0.304
702	0.303
702	0.301
703	0.299
703	0.297
704	0.295
704	0.294
705	0.292
705	0.291
705	0.289
706	0.287
706	0.286
707	0.284
707	0.282
708	0.28
708	0.278
709	0.277
709	0.275
709	0.272
710	0.269
710	0.267
711	0.265
711	0.264
712	0.262
712	0.26
713	0.259
713	0.257
713	0.255
714	0.252
714	0.249
715	0.247
715	0.243
716	0.24
716	0.237
716	0.234
717	0.231
717	0.228
718	0.225
718	0.223
719	0.221
719	0.219
720	0.217
720	0.215
720	0.212
721	0.209
721	0.206
722	0.203
722	0.2
723	0.197
723	0.194
723	0.191
724	0.188
724	0.185
725	0.182
725	0.18
726	0.178
726	0.176
727	0.174
727	0.172
727	0.17
728	0.168
728	0.167
729	0.167
729	0.166
730	0.165
730	0.163
730	0.162
731	0.161
731	0.16
732	0.16
732	0.158
733	0.157
733	0.155
734	0.153
734	0.151
734	0.149
735	0.147
735	0.145
736	0.142
736	0.14
737	0.137
737	0.136
737	0.133
738	0.13
738	0.126
739	0.124
739	0.121
740	0.119
740	0.117
741	0.116
741	0.114
741	0.111
742	0.108
742	0.105
743	0.103
743	0.1
744	0.099
744	0.097
744	0.094
745	0.092
745	0.089
746	0.086
746	0.084
747	0.082
747	0.08
748	0.079
748	0.078
748	0.076
749	0.074
749	0.073
750	0.071
750	0.07
751	0.069
751	0.069
751	0.069
752	0.068
752	0.067
753	0.066
753	0.066
754	0.066
754	0.065
754	0.065
755	0.065
755	0.066
756	0.065
756	0.063
757	0.061
757	0.061
758	0.06
758	0.059
758	0.058
759	0.056
759	0.053
760	0.05
760	0.047
761	0.045
761	0.044
761	0.042
762	0.04
762	0.039
763	0.038
763	0.035
764	0.032
764	0.029
764	0.027
765	0.025
765	0.023
766	0.022
766	0.021
767	0.02
767	0.018
768	0.014
768	0.013
768	0.012
769	0.011
769	0.011
770	0.01
770	0.008
771	0.007
771	0.004
771	0.002
772	-0
772	-0.001
773	-0.003
773	-0.005
774	-0.008
774	-0.011
775	-0.014
775	-0.017
775	-0.02
776	-0.024
776	-0.027
777	-0.031
777	-0.035
778	-0.039
778	-0.044
778	-0.048
779	-0.052
779	-0.052
780	-0.054
780	-0.058
781	-0.06
781	-0.063
781	-0.065
782	-0.067
782	-0.07
783	-0.072
783	-0.073
784	-0.074
784	-0.077
784	-0.079
785	-0.08
785	-0.082
786	-0.083
786	-0.081
787	-0.077
787	-0.073
788	-0.072
788	-0.073
788	-0.074
789	-0.076
789	-0.075
790	-0.072
790	-0.071
791	-0.071
791	-0.073
791	-0.075
792	-0.07
792	-0.061
793	-0.055
793	-0.051
794	-0.05
794	-0.051
794	-0.055
795	-0.057
795	-0.057
796	-0.057
796	-0.059
797	-0.067
797	-0.076
797	-0.082
798	-0.087
798	-0.09
799	-0.09
799	-0.09
800	-0.09
800	-0.092
801	-0.096
801	-0.097
801	-0.098
802	-0.1
802	-0.101
803	-0.102
803	-0.102
804	-0.102
804	-0.097
804	-0.09
805	-0.087
805	-0.085
806	-0.083
806	-0.082
807	-0.08
807	-0.08
807	-0.079
808	-0.079
808	-0.079
809	-0.083
809	-0.088
810	-0.091
810	-0.093
810	-0.096
811	-0.098
811	-0.098
812	-0.094
812	-0.091
813	-0.092
813	-0.092
813	-0.093
814	-0.094
814	-0.094
815	-0.092
815	-0.089
816	-0.087
816	-0.088
817	-0.092
817	-0.095
817	-0.096
818	-0.095
818	-0.092
819	-0.087
819	-0.084
820	-0.086
820	-0.088
820	-0.089
821	-0.089
821	-0.087
822	-0.086
822	-0.086
823	-0.085
823	-0.086
823	-0.089
824	-0.089
824	-0.086
825	-0.081
825	-0.076
826	-0.071
826	-0.067
826	-0.062
827	-0.056
827	-0.05
828	-0.045
828	-0.04
829	-0.036
829	-0.031
829	-0.028
830	-0.024
830	-0.021
831	-0.016
831	-0.013
832	-0.01
832	-0.007
832	-0.004
833	-0.002
833	-0.001
834	0.001
834	0.002
835	0.003
835	0.004
835	0.005
836	0.006
836	0.007
837	0.008
837	0.009
838	0.009
838	0.01
839	0.01
839	0.01
839	0.01
840	0.01
840	0.01
841	0.01
841	0.011
842	0.011
842	0.011
842	0.012
843	0.013
843	0.013
844	0.014
844	0.015
845	0.016
845	0.017
845	0.018
846	0.019
846	0.02
847	0.021
847	0.022
848	0.023
848	0.024
848	0.026
849	0.027
849	0.028
850	0.028
850	0.028
851	0.029
851	0.03
851	0.03
852	0.03
852	0.031
853	0.031
853	0.031
854	0.031
854	0.032
854	0.032
855	0.033
855	0.033
856	0.032
856	0.032
857	0.032
857	0.032
857	0.032
858	0.031
858	0.031
859	0.03
859	0.03
860	0.03
860	0.03
860	0.029
861	0.029
861	0.029
862	0.028
862	0.027
863	0.027
863	0.027
863	0.026
864	0.026
864	0.026
865	0.026
865	0.027
866	0.027
866	0.027
866	0.028
867	0.029
867	0.03
868	0.031
868	0.032
869	0.033
869	0.034
869	0.034
870	0.034
870	0.034
871	0.033
871	0.033
872	0.032
872	0.031
872	0.031
873	0.03
873	0.03
874	0.029
874	0.03
875	0.03
875	0.03
875	0.031
876	0.031
876	0.032
877	0.032
877	0.032
878	0.032
878	0.032
878	0.031
879	0.031
879	0.031
880	0.03
880	0.03
881	0.03
881	0.03
881	0.03
882	0.03
882	0.031
883	0.031
883	0.032
884	0.032
884	0.033
884	0.033
885	0.033
885	0.033
886	0.034
886	0.034
887	0.034
887	0.034
887	0.034
888	0.034
888	0.034
889	0.034
889	0.034
890	0.034
890	0.034
890	0.034
891	0.034
891	0.034
892	0.034
892	0.034
893	0.035
893	0.036
893	0.036
894	0.037
894	0.038
895	0.038
895	0.039
895	0.039
896	0.04
896	0.04
897	0.041
897	0.042
898	0.043
898	0.043
898	0.044
899	0.044
899	0.045
900	0.046
900	0.046
901	0.047
901	0.048
901	0.048
902	0.049
902	0.049
903	0.049
903	0.048
904	0.048
904	0.047
904	0.046
905	0.045
905	0.044
906	0.043
906	0.042
907	0.04
907	0.039
907	0.039
908	0.038
908	0.038
909	0.038
909	0.038
910	0.039
910	0.039
910	0.04
911	0.04
911	0.041
912	0.042
912	0.043
913	0.044
913	0.044
913	0.044
914	0.045
914	0.045
915	0.045
915	0.045
916	0.044
916	0.044
916	0.043
917	0.042
917	0.042
918	0.041
918	0.041
918	0.04
919	0.04
919	0.039
920	0.039
920	0.039
921	0.039
921	0.038
921	0.038
922	0.038
922	0.037
923	0.037
923	0.036
924	0.036
924	0.035
924	0.034
925	0.033
925	0.032
926	0.032
926	0.031
927	0.03
927	0.029
927	0.029
928	0.029
928	0.029
929	0.03
929	0.03
930	0.031
930	0.033
930	0.034
931	0.036
931	0.037
932	0.039
932	0.041
933	0.043
933	0.044
933	0.046
934	0.047
934	0.047
935	0.048
935	0.048
935	0.048
936	0.048
936	0.049
937	0.049
937	0.049
938	0.049
938	0.049
938	0.049
939	0.049
939	0.049
940	0.049
940	0.049
941	0.05
941	0.049
941	0.049
942	0.049
942	0.049
943	0.049
943	0.048
944	0.048
944	0.048
944	0.048
945	0.048
945	0.048
946	0.048
946	0.047
946	0.047
947	0.047
947	0.046
948	0.045
948	0.045
949	0.044
949	0.043
949	0.043
950	0.042
950	0.042
951	0.042
951	0.041
952	0.041
952	0.041
952	0.041
953	0.041
953	0.041
954	0.04
954	0.04
955	0.04
955	0.04
955	0.04
956	0.041
956	0.041
957	0.041
957	0.041
957	0.041
958	0.04
958	0.04
959	0.04
959	0.039
960	0.038
960	0.037
960	0.036
961	0.034
961	0.033
962	0.032
962	0.031
963	0.031
963	0.03
963	0.03
964	0.029
964	0.03
965	0.03
965	0.031
966	0.032
966	0.034
966	0.035
967	0.036
967	0.037
968	0.037
968	0.038
968	0.039
969	0.039
969	0.04
970	0.04
970	0.04
971	0.04
971	0.041
971	0.041
972	0.041
972	0.042
973	0.043
973	0.043
974	0.044
974	0.045
974	0.046
975	0.046
975	0.047
976	0.048
976	0.049
976	0.049
977	0.049
977	0.049
978	0.049
978	0.049
979	0.049
979	0.05
979	0.05
980	0.05
980	0.05
981	0.05
981	0.05
982	0.051
982	0.051
982	0.052
983	0.052
983	0.052
984	0.052
984	0.052
984	0.052
985	0.052
985	0.052
986	0.051
986	0.05
987	0.05
987	0.049
987	0.048
988	0.048
988	0.047
989	0.046
989	0.046
990	0.046
990	0.046
990	0.046
991	0.046
991	0.047
992	0.048
992	0.048
992	0.048
993	0.048
993	0.048
994	0.048
994	0.047
995	0.047
995	0.047
995	0.046
996	0.046
996	0.045
997	0.045
997	0.045
997	0.045
998	0.045
998	0.046
999	0.046
999	0.047
1000	0.048
1000	0.048
1000	0.049
1001	0.05
1001	0.05
1002	0.05
1002	0.05
1003	0.05
1003	0.05
1003	0.049
1004	0.049
1004	0.048
1005	0.046
1005	0.045
1005	0.044
1006	0.043
1006	0.042
1007	0.042
1007	0.041
1008	0.041
1008	0.041
1008	0.041
1009	0.042
1009	0.042
1010	0.042
1010	0.043
1010	0.043
1011	0.044
1011	0.045
1012	0.045
1012	0.046
1013	0.046
1013	0.046
1013	0.046
1014	0.046
1014	0.046
1015	0.046
1015	0.045
1016	0.045
1016	0.044
1016	0.043
1017	0.042
1017	0.041
1018	0.04
1018	0.039
1018	0.039
1019	0.039
1019	0.038
1020	0.038
1020	0.038
1021	0.038
1021	0.037
1021	0.038
1022	0.038
1022	0.038
1023	0.037
1023	0.037
1023	0.036
1024	0.036
1024	0.035
1025	0.034
1025	0.033
1026	0.032
1026	0.031
1026	0.03
1027	0.03
1027	0.03
1028	0.029
1028	0.03
1028	0.029
1029	0.03
1029	0.03
1030	0.031
1030	0.032
1031	0.032
1031	0.033
1031	0.034
1032	0.034
1032	0.035
1033	0.036
1033	0.036
1033	0.037
1034	0.037
1034	0.036
1035	0.036
1035	0.036
1036	0.036
1036	0.036
1036	0.037
1037	0.037
1037	0.038
1038	0.038
1038	0.039
1039	0.04
1039	0.041
1039	0.042
1040	0.042
1040	0.043
1041	0.043
1041	0.043
1041	0.043
1042	0.042
1042	0.042
1043	0.041
1043	0.041
1044	0.04
1044	0.04
1044	0.039
1045	0.038
1045	0.038
1046	0.038
1046	0.038
1046	0.038
1047	0.038
1047	0.039
1048	0.039
1048	0.039
1049	0.039
1049	0.038
1049	0.038
1050	0.037
1050	0.037
1051	0.037
1051	0.037
1051	0.037
1052	0.037
1052	0.037
1053	0.037
1053	0.038
1053	0.038
1054	0.039
1054	0.04
1055	0.042
1055	0.042
1056	0.042
1056	0.042
1056	0.042
1057	0.042
1057	0.043
1058	0.044
1058	0.044
1058	0.045
1059	0.046
1059	0.046
1060	0.047
1060	0.048
1061	0.05
1061	0.051
1061	0.053
1062	0.053
1062	0.053
1063	0.053
1063	0.054
1063	0.054
1064	0.055
1064	0.056
1065	0.057
1065	0.058
1066	0.059
1066	0.06
1066	0.062
1067	0.063
1067	0.065
1068	0.066
1068	0.068
1068	0.069
1069	0.07
1069	0.07
1070	0.071
1070	0.072
1071	0.073
1071	0.075
1071	0.076
1072	0.077
1072	0.079
1073	0.081
1073	0.083
1073	0.084
1074	0.086
1074	0.087
1075	0.087
1075	0.088
1076	0.089
1076	0.09
1076	0.089
1077	0.09
1077	0.091
1078	0.092
1078	0.094
1078	0.096
1079	0.097
1079	0.1
1080	0.102
1080	0.104
1080	0.105
1081	0.107
1081	0.109
1082	0.111
1082	0.113
1083	0.115
1083	0.117
1083	0.12
1084	0.123
1084	0.126
1085	0.129
1085	0.133
1085	0.138
1086	0.141
1086	0.144
1087	0.148
1087	0.152
1088	0.156
1088	0.161
1088	0.167
1089	0.172
1089	0.178
1090	0.185
1090	0.192
1090	0.199
1091	0.206
1091	0.216
1092	0.226
1092	0.237
1092	0.247
1093	0.256
1093	0.268
1094	0.279
1094	0.29
1095	0.302
1095	0.318
1095	0.337
1096	0.354
1096	0.372
1097	0.397
1097	0.42
1097	0.449
1098	0.478
1098	0.514
1099	0.557
1099	0.605
1100	0.663
1100	0.729
1100	0.815
1101	0.931
1101	1.087
1102	1.413
1102	-0
1102	-0
1103	-0
1103	-0
1104	-0
1104	-0
1104	-0
1105	-0
1105	-0
1106	-0
1106	-0
1107	-0
1107	-0
1107	-0
1108	-0
1108	-0
1109	-0
1109	-0
1109	-0
1110	-0
1110	-0
1111	-0
1111	-0
