Data from 13c-stair-power-variation_Absorbance__147__04502.txt Node

Date: Tue Jan 16 16:29:09 CET 2024
User: Marek
Spectrometer: MAYP115816
Trigger mode: 0
Integration Time (sec): 2.000000E-1
Scans to average: 10
Electric dark correction enabled: true
Nonlinearity correction enabled: true
Boxcar width: 5
XAxis mode: Wavelengths
Number of Pixels in Spectrum: 2068
>>>>>Begin Spectral Data<<<<<
199	-2.223
199	-2.035
200	-1.9
200	-1.78
201	-1.706
201	-1.654
202	-1.578
202	-1.516
203	-1.467
203	-1.418
204	-1.392
204	-1.366
205	-1.347
205	-1.334
205	-1.332
206	-1.327
206	-1.324
207	-1.321
207	-1.321
208	-1.317
208	-1.315
209	-1.311
209	-1.309
210	-1.308
210	-1.305
211	-1.304
211	-1.303
212	-1.302
212	-1.301
213	-1.299
213	-1.298
213	-1.298
214	-1.296
214	-1.295
215	-1.294
215	-1.294
216	-1.291
216	-1.29
217	-1.287
217	-1.284
218	-1.28
218	-1.276
219	-1.271
219	-1.27
220	-1.268
220	-1.267
221	-1.263
221	-1.261
221	-1.257
222	-1.252
222	-1.247
223	-1.242
223	-1.237
224	-1.231
224	-1.222
225	-1.213
225	-1.204
226	-1.195
226	-1.185
227	-1.172
227	-1.159
228	-1.143
228	-1.126
229	-1.105
229	-1.082
229	-1.056
230	-1.027
230	-0.995
231	-0.96
231	-0.92
232	-0.88
232	-0.837
233	-0.79
233	-0.743
234	-0.694
234	-0.644
235	-0.594
235	-0.545
236	-0.496
236	-0.448
236	-0.4
237	-0.354
237	-0.31
238	-0.268
238	-0.227
239	-0.189
239	-0.153
240	-0.119
240	-0.087
241	-0.057
241	-0.029
242	-0.004
242	0.02
243	0.043
243	0.063
243	0.082
244	0.1
244	0.116
245	0.131
245	0.145
246	0.159
246	0.171
247	0.182
247	0.192
248	0.202
248	0.211
249	0.22
249	0.227
250	0.235
250	0.242
250	0.248
251	0.254
251	0.26
252	0.266
252	0.271
253	0.275
253	0.28
254	0.284
254	0.288
255	0.291
255	0.294
256	0.297
256	0.3
257	0.303
257	0.305
258	0.307
258	0.309
258	0.31
259	0.312
259	0.313
260	0.315
260	0.315
261	0.316
261	0.317
262	0.317
262	0.318
263	0.319
263	0.319
264	0.32
264	0.32
265	0.32
265	0.32
265	0.32
266	0.321
266	0.32
267	0.32
267	0.32
268	0.32
268	0.319
269	0.318
269	0.317
270	0.317
270	0.316
271	0.315
271	0.314
272	0.313
272	0.313
272	0.312
273	0.311
273	0.31
274	0.309
274	0.308
275	0.307
275	0.306
276	0.305
276	0.304
277	0.302
277	0.301
278	0.299
278	0.298
278	0.296
279	0.294
279	0.293
280	0.292
280	0.291
281	0.29
281	0.289
282	0.288
282	0.287
283	0.287
283	0.286
284	0.286
284	0.286
285	0.286
285	0.285
285	0.284
286	0.283
286	0.282
287	0.281
287	0.28
288	0.28
288	0.279
289	0.278
289	0.277
290	0.276
290	0.276
291	0.275
291	0.274
292	0.273
292	0.273
292	0.272
293	0.271
293	0.271
294	0.27
294	0.269
295	0.269
295	0.268
296	0.267
296	0.267
297	0.266
297	0.265
298	0.265
298	0.264
298	0.264
299	0.263
299	0.262
300	0.261
300	0.261
301	0.26
301	0.26
302	0.259
302	0.259
303	0.258
303	0.258
304	0.257
304	0.256
305	0.256
305	0.255
305	0.254
306	0.254
306	0.253
307	0.252
307	0.251
308	0.25
308	0.249
309	0.249
309	0.248
310	0.247
310	0.246
311	0.246
311	0.245
311	0.244
312	0.243
312	0.243
313	0.242
313	0.241
314	0.24
314	0.239
315	0.239
315	0.238
316	0.237
316	0.236
317	0.235
317	0.234
318	0.234
318	0.233
318	0.232
319	0.231
319	0.23
320	0.229
320	0.228
321	0.228
321	0.227
322	0.226
322	0.225
323	0.224
323	0.223
324	0.222
324	0.221
324	0.22
325	0.22
325	0.219
326	0.218
326	0.217
327	0.216
327	0.216
328	0.215
328	0.214
329	0.213
329	0.212
330	0.212
330	0.211
330	0.21
331	0.209
331	0.209
332	0.208
332	0.207
333	0.206
333	0.206
334	0.205
334	0.204
335	0.203
335	0.202
336	0.201
336	0.201
336	0.2
337	0.199
337	0.198
338	0.198
338	0.197
339	0.196
339	0.196
340	0.195
340	0.194
341	0.194
341	0.193
342	0.193
342	0.192
342	0.192
343	0.191
343	0.19
344	0.19
344	0.189
345	0.188
345	0.188
346	0.187
346	0.186
347	0.185
347	0.185
348	0.184
348	0.184
348	0.183
349	0.182
349	0.181
350	0.18
350	0.18
351	0.179
351	0.178
352	0.177
352	0.176
353	0.175
353	0.174
354	0.172
354	0.171
354	0.17
355	0.169
355	0.168
356	0.167
356	0.166
357	0.166
357	0.166
358	0.166
358	0.166
359	0.167
359	0.168
360	0.168
360	0.169
360	0.17
361	0.17
361	0.171
362	0.171
362	0.171
363	0.171
363	0.171
364	0.17
364	0.17
365	0.17
365	0.169
366	0.169
366	0.168
366	0.168
367	0.168
367	0.167
368	0.167
368	0.166
369	0.166
369	0.165
370	0.165
370	0.165
371	0.164
371	0.164
372	0.163
372	0.163
372	0.163
373	0.162
373	0.162
374	0.162
374	0.162
375	0.162
375	0.162
376	0.162
376	0.162
377	0.162
377	0.162
378	0.163
378	0.163
378	0.163
379	0.163
379	0.164
380	0.164
380	0.164
381	0.164
381	0.163
382	0.163
382	0.163
383	0.162
383	0.162
383	0.161
384	0.161
384	0.16
385	0.16
385	0.16
386	0.16
386	0.16
387	0.16
387	0.159
388	0.159
388	0.159
389	0.159
389	0.158
389	0.158
390	0.159
390	0.159
391	0.159
391	0.159
392	0.16
392	0.16
393	0.16
393	0.16
394	0.16
394	0.16
394	0.16
395	0.16
395	0.159
396	0.159
396	0.159
397	0.159
397	0.16
398	0.16
398	0.159
399	0.159
399	0.159
400	0.159
400	0.158
400	0.158
401	0.157
401	0.156
402	0.154
402	0.154
403	0.153
403	0.153
404	0.153
404	0.153
405	0.152
405	0.152
405	0.152
406	0.152
406	0.152
407	0.152
407	0.152
408	0.151
408	0.15
409	0.149
409	0.149
410	0.149
410	0.149
411	0.149
411	0.149
411	0.149
412	0.148
412	0.148
413	0.148
413	0.148
414	0.147
414	0.147
415	0.146
415	0.146
416	0.145
416	0.145
416	0.144
417	0.144
417	0.144
418	0.143
418	0.144
419	0.145
419	0.145
420	0.146
420	0.147
421	0.148
421	0.148
421	0.148
422	0.149
422	0.149
423	0.149
423	0.148
424	0.147
424	0.146
425	0.145
425	0.144
426	0.144
426	0.143
427	0.143
427	0.143
427	0.143
428	0.144
428	0.145
429	0.146
429	0.146
430	0.147
430	0.147
431	0.146
431	0.146
432	0.146
432	0.145
432	0.144
433	0.142
433	0.141
434	0.14
434	0.14
435	0.14
435	0.14
436	0.14
436	0.14
437	0.14
437	0.14
437	0.14
438	0.14
438	0.139
439	0.139
439	0.139
440	0.139
440	0.139
441	0.139
441	0.139
442	0.14
442	0.14
442	0.141
443	0.142
443	0.142
444	0.143
444	0.143
445	0.143
445	0.143
446	0.143
446	0.143
447	0.143
447	0.143
447	0.142
448	0.142
448	0.142
449	0.141
449	0.141
450	0.14
450	0.14
451	0.139
451	0.139
452	0.138
452	0.137
452	0.137
453	0.136
453	0.135
454	0.135
454	0.134
455	0.134
455	0.133
456	0.133
456	0.132
457	0.132
457	0.132
458	0.132
458	0.132
458	0.132
459	0.132
459	0.133
460	0.132
460	0.131
461	0.131
461	0.131
462	0.131
462	0.131
463	0.131
463	0.132
463	0.132
464	0.133
464	0.133
465	0.133
465	0.133
466	0.134
466	0.134
467	0.133
467	0.133
467	0.132
468	0.13
468	0.128
469	0.126
469	0.125
470	0.124
470	0.123
471	0.123
471	0.123
472	0.122
472	0.122
472	0.123
473	0.124
473	0.125
474	0.126
474	0.127
475	0.128
475	0.129
476	0.13
476	0.13
477	0.13
477	0.131
477	0.131
478	0.132
478	0.132
479	0.133
479	0.134
480	0.135
480	0.135
481	0.136
481	0.137
482	0.138
482	0.139
482	0.141
483	0.143
483	0.146
484	0.15
484	0.152
485	0.154
485	0.155
486	0.157
486	0.157
487	0.158
487	0.159
487	0.159
488	0.158
488	0.156
489	0.154
489	0.152
490	0.151
490	0.151
491	0.15
491	0.151
492	0.151
492	0.152
492	0.152
493	0.153
493	0.154
494	0.156
494	0.159
495	0.161
495	0.162
496	0.163
496	0.164
496	0.165
497	0.166
497	0.167
498	0.167
498	0.168
499	0.168
499	0.167
500	0.168
500	0.169
501	0.171
501	0.173
501	0.174
502	0.176
502	0.177
503	0.179
503	0.181
504	0.182
504	0.182
505	0.183
505	0.183
506	0.184
506	0.184
506	0.185
507	0.185
507	0.185
508	0.185
508	0.185
509	0.186
509	0.187
510	0.187
510	0.187
511	0.187
511	0.187
511	0.187
512	0.188
512	0.188
513	0.188
513	0.187
514	0.185
514	0.184
515	0.183
515	0.182
515	0.182
516	0.181
516	0.181
517	0.182
517	0.182
518	0.181
518	0.181
519	0.18
519	0.178
520	0.175
520	0.173
520	0.17
521	0.166
521	0.163
522	0.16
522	0.157
523	0.155
523	0.155
524	0.157
524	0.159
524	0.162
525	0.166
525	0.17
526	0.173
526	0.177
527	0.181
527	0.184
528	0.186
528	0.188
529	0.19
529	0.19
529	0.19
530	0.191
530	0.191
531	0.191
531	0.192
532	0.191
532	0.191
533	0.191
533	0.192
533	0.192
534	0.192
534	0.191
535	0.19
535	0.19
536	0.19
536	0.189
537	0.189
537	0.189
538	0.188
538	0.187
538	0.185
539	0.184
539	0.184
540	0.183
540	0.182
541	0.18
541	0.179
542	0.177
542	0.175
542	0.174
543	0.173
543	0.172
544	0.17
544	0.169
545	0.167
545	0.167
546	0.167
546	0.166
547	0.164
547	0.162
547	0.16
548	0.157
548	0.155
549	0.152
549	0.15
550	0.149
550	0.147
551	0.144
551	0.142
551	0.14
552	0.138
552	0.137
553	0.137
553	0.136
554	0.136
554	0.134
555	0.132
555	0.129
556	0.126
556	0.123
556	0.12
557	0.118
557	0.116
558	0.114
558	0.112
559	0.11
559	0.11
560	0.109
560	0.109
560	0.109
561	0.109
561	0.109
562	0.109
562	0.108
563	0.106
563	0.104
564	0.102
564	0.099
564	0.096
565	0.095
565	0.094
566	0.092
566	0.091
567	0.092
567	0.093
568	0.094
568	0.096
568	0.098
569	0.1
569	0.103
570	0.104
570	0.104
571	0.105
571	0.107
572	0.107
572	0.107
573	0.107
573	0.107
573	0.105
574	0.104
574	0.104
575	0.103
575	0.105
576	0.106
576	0.104
577	0.102
577	0.101
577	0.1
578	0.099
578	0.099
579	0.101
579	0.103
580	0.102
580	0.1
581	0.096
581	0.094
581	0.094
582	0.094
582	0.094
583	0.095
583	0.094
584	0.09
584	0.085
585	0.084
585	0.083
585	0.083
586	0.083
586	0.083
587	0.081
587	0.079
588	0.076
588	0.073
589	0.072
589	0.071
590	0.071
590	0.07
590	0.071
591	0.072
591	0.072
592	0.072
592	0.071
593	0.071
593	0.071
594	0.07
594	0.069
594	0.068
595	0.068
595	0.066
596	0.064
596	0.065
597	0.067
597	0.069
598	0.07
598	0.071
598	0.072
599	0.073
599	0.072
600	0.072
600	0.07
601	0.07
601	0.068
602	0.066
602	0.065
602	0.063
603	0.062
603	0.063
604	0.063
604	0.064
605	0.066
605	0.067
606	0.068
606	0.067
606	0.066
607	0.065
607	0.065
608	0.064
608	0.062
609	0.06
609	0.059
610	0.057
610	0.055
610	0.055
611	0.055
611	0.056
612	0.057
612	0.059
613	0.06
613	0.062
614	0.062
614	0.061
614	0.062
615	0.061
615	0.061
616	0.061
616	0.06
617	0.059
617	0.058
618	0.056
618	0.055
618	0.055
619	0.055
619	0.056
620	0.058
620	0.06
621	0.06
621	0.061
622	0.061
622	0.062
622	0.063
623	0.063
623	0.064
624	0.065
624	0.065
625	0.065
625	0.065
626	0.066
626	0.066
626	0.066
627	0.066
627	0.067
628	0.067
628	0.067
629	0.067
629	0.067
630	0.066
630	0.065
630	0.066
631	0.066
631	0.066
632	0.066
632	0.066
633	0.067
633	0.067
634	0.069
634	0.071
634	0.073
635	0.074
635	0.075
636	0.077
636	0.078
637	0.079
637	0.081
638	0.082
638	0.084
638	0.085
639	0.085
639	0.086
640	0.087
640	0.089
641	0.091
641	0.093
642	0.094
642	0.097
642	0.098
643	0.1
643	0.101
644	0.103
644	0.105
645	0.107
645	0.109
646	0.111
646	0.114
646	0.118
647	0.121
647	0.125
648	0.127
648	0.13
649	0.133
649	0.136
650	0.139
650	0.142
650	0.145
651	0.148
651	0.15
652	0.152
652	0.154
653	0.158
653	0.168
653	0.179
654	0.149
654	0.125
655	0.128
655	0.13
656	0.132
656	0.134
657	0.135
657	0.137
657	0.137
658	0.133
658	0.124
659	0.152
659	0.189
660	0.193
660	0.195
661	0.196
661	0.198
661	0.201
662	0.204
662	0.208
663	0.212
663	0.215
664	0.218
664	0.221
665	0.224
665	0.227
665	0.229
666	0.232
666	0.235
667	0.237
667	0.24
668	0.243
668	0.246
669	0.249
669	0.252
669	0.257
670	0.261
670	0.265
671	0.268
671	0.27
672	0.272
672	0.273
672	0.275
673	0.276
673	0.277
674	0.278
674	0.278
675	0.278
675	0.279
676	0.28
676	0.283
676	0.284
677	0.286
677	0.288
678	0.291
678	0.292
679	0.293
679	0.295
680	0.297
680	0.299
680	0.299
681	0.3
681	0.301
682	0.302
682	0.304
683	0.306
683	0.309
684	0.311
684	0.313
684	0.313
685	0.314
685	0.315
686	0.316
686	0.317
687	0.317
687	0.316
687	0.316
688	0.314
688	0.313
689	0.313
689	0.314
690	0.314
690	0.314
691	0.313
691	0.313
691	0.314
692	0.313
692	0.313
693	0.313
693	0.314
694	0.313
694	0.311
695	0.312
695	0.313
695	0.314
696	0.313
696	0.312
697	0.312
697	0.311
698	0.309
698	0.307
698	0.305
699	0.304
699	0.301
700	0.297
700	0.295
701	0.293
701	0.292
702	0.29
702	0.288
702	0.287
703	0.285
703	0.283
704	0.281
704	0.28
705	0.279
705	0.277
705	0.275
706	0.274
706	0.272
707	0.27
707	0.268
708	0.266
708	0.265
709	0.264
709	0.262
709	0.259
710	0.256
710	0.254
711	0.252
711	0.25
712	0.249
712	0.247
713	0.246
713	0.244
713	0.242
714	0.239
714	0.236
715	0.233
715	0.23
716	0.227
716	0.224
716	0.221
717	0.218
717	0.215
718	0.212
718	0.209
719	0.208
719	0.206
720	0.204
720	0.202
720	0.2
721	0.197
721	0.194
722	0.191
722	0.188
723	0.185
723	0.182
723	0.179
724	0.176
724	0.174
725	0.17
725	0.168
726	0.166
726	0.164
727	0.162
727	0.16
727	0.159
728	0.157
728	0.156
729	0.155
729	0.155
730	0.154
730	0.152
730	0.151
731	0.15
731	0.149
732	0.149
732	0.147
733	0.146
733	0.144
734	0.142
734	0.139
734	0.137
735	0.136
735	0.133
736	0.131
736	0.128
737	0.126
737	0.124
737	0.122
738	0.119
738	0.116
739	0.113
739	0.111
740	0.108
740	0.107
741	0.106
741	0.104
741	0.101
742	0.097
742	0.094
743	0.091
743	0.089
744	0.087
744	0.085
744	0.083
745	0.08
745	0.077
746	0.074
746	0.072
747	0.07
747	0.069
748	0.068
748	0.067
748	0.066
749	0.064
749	0.063
750	0.062
750	0.06
751	0.06
751	0.059
751	0.059
752	0.059
752	0.057
753	0.057
753	0.056
754	0.056
754	0.055
754	0.056
755	0.056
755	0.056
756	0.055
756	0.053
757	0.052
757	0.051
758	0.051
758	0.049
758	0.048
759	0.047
759	0.044
760	0.041
760	0.037
761	0.035
761	0.034
761	0.032
762	0.029
762	0.028
763	0.027
763	0.024
764	0.021
764	0.018
764	0.016
765	0.014
765	0.012
766	0.01
766	0.01
767	0.009
767	0.006
768	0.003
768	0.001
768	-0
769	-0
769	-0.001
770	-0.002
770	-0.003
771	-0.005
771	-0.007
771	-0.01
772	-0.012
772	-0.013
773	-0.015
773	-0.018
774	-0.021
774	-0.024
775	-0.027
775	-0.031
775	-0.035
776	-0.039
776	-0.043
777	-0.047
777	-0.051
778	-0.056
778	-0.062
778	-0.067
779	-0.069
779	-0.067
780	-0.068
780	-0.07
781	-0.07
781	-0.071
781	-0.071
782	-0.072
782	-0.072
783	-0.073
783	-0.071
784	-0.072
784	-0.075
784	-0.077
785	-0.078
785	-0.08
786	-0.081
786	-0.079
787	-0.075
787	-0.071
788	-0.07
788	-0.071
788	-0.072
789	-0.074
789	-0.073
790	-0.07
790	-0.069
791	-0.07
791	-0.071
791	-0.074
792	-0.068
792	-0.059
793	-0.053
793	-0.05
794	-0.048
794	-0.05
794	-0.053
795	-0.055
795	-0.055
796	-0.055
796	-0.057
797	-0.065
797	-0.074
797	-0.08
798	-0.085
798	-0.088
799	-0.089
799	-0.088
800	-0.088
800	-0.091
801	-0.094
801	-0.095
801	-0.096
802	-0.098
802	-0.099
803	-0.1
803	-0.101
804	-0.1
804	-0.095
804	-0.089
805	-0.085
805	-0.083
806	-0.081
806	-0.08
807	-0.079
807	-0.078
807	-0.077
808	-0.077
808	-0.077
809	-0.081
809	-0.086
810	-0.089
810	-0.091
810	-0.094
811	-0.096
811	-0.096
812	-0.093
812	-0.09
813	-0.09
813	-0.091
813	-0.092
814	-0.092
814	-0.092
815	-0.09
815	-0.087
816	-0.085
816	-0.086
817	-0.09
817	-0.093
817	-0.094
818	-0.093
818	-0.09
819	-0.085
819	-0.083
820	-0.084
820	-0.086
820	-0.087
821	-0.087
821	-0.086
822	-0.085
822	-0.084
823	-0.083
823	-0.085
823	-0.088
824	-0.089
824	-0.087
825	-0.083
825	-0.078
826	-0.073
826	-0.07
826	-0.066
827	-0.061
827	-0.056
828	-0.051
828	-0.046
829	-0.041
829	-0.037
829	-0.033
830	-0.03
830	-0.027
831	-0.022
831	-0.019
832	-0.016
832	-0.013
832	-0.01
833	-0.008
833	-0.006
834	-0.005
834	-0.003
835	-0.002
835	-0.001
835	-0
836	0.001
836	0.002
837	0.003
837	0.004
838	0.005
838	0.005
839	0.005
839	0.005
839	0.005
840	0.005
840	0.006
841	0.006
841	0.006
842	0.007
842	0.007
842	0.008
843	0.009
843	0.01
844	0.011
844	0.012
845	0.013
845	0.014
845	0.016
846	0.017
846	0.018
847	0.019
847	0.021
848	0.022
848	0.023
848	0.025
849	0.026
849	0.027
850	0.028
850	0.028
851	0.029
851	0.029
851	0.03
852	0.03
852	0.03
853	0.03
853	0.031
854	0.031
854	0.032
854	0.032
855	0.032
855	0.032
856	0.032
856	0.032
857	0.032
857	0.032
857	0.032
858	0.031
858	0.031
859	0.03
859	0.03
860	0.03
860	0.03
860	0.03
861	0.03
861	0.029
862	0.028
862	0.028
863	0.027
863	0.027
863	0.027
864	0.026
864	0.026
865	0.027
865	0.027
866	0.027
866	0.027
866	0.029
867	0.03
867	0.031
868	0.032
868	0.033
869	0.034
869	0.035
869	0.035
870	0.035
870	0.035
871	0.035
871	0.034
872	0.033
872	0.032
872	0.032
873	0.031
873	0.03
874	0.03
874	0.03
875	0.031
875	0.031
875	0.032
876	0.032
876	0.033
877	0.033
877	0.033
878	0.033
878	0.032
878	0.032
879	0.032
879	0.032
880	0.031
880	0.031
881	0.031
881	0.031
881	0.031
882	0.031
882	0.032
883	0.032
883	0.032
884	0.033
884	0.033
884	0.034
885	0.034
885	0.034
886	0.035
886	0.035
887	0.036
887	0.036
887	0.036
888	0.036
888	0.035
889	0.035
889	0.036
890	0.036
890	0.036
890	0.036
891	0.036
891	0.036
892	0.036
892	0.036
893	0.037
893	0.038
893	0.039
894	0.04
894	0.04
895	0.041
895	0.042
895	0.042
896	0.043
896	0.043
897	0.044
897	0.045
898	0.045
898	0.046
898	0.046
899	0.047
899	0.048
900	0.048
900	0.049
901	0.05
901	0.05
901	0.051
902	0.051
902	0.051
903	0.051
903	0.05
904	0.05
904	0.049
904	0.048
905	0.047
905	0.046
906	0.045
906	0.043
907	0.042
907	0.041
907	0.041
908	0.04
908	0.04
909	0.04
909	0.041
910	0.041
910	0.042
910	0.042
911	0.043
911	0.044
912	0.045
912	0.046
913	0.047
913	0.047
913	0.048
914	0.048
914	0.048
915	0.048
915	0.048
916	0.047
916	0.047
916	0.046
917	0.045
917	0.045
918	0.044
918	0.044
918	0.043
919	0.042
919	0.042
920	0.042
920	0.042
921	0.041
921	0.041
921	0.04
922	0.04
922	0.039
923	0.038
923	0.038
924	0.037
924	0.037
924	0.036
925	0.035
925	0.034
926	0.033
926	0.033
927	0.032
927	0.031
927	0.031
928	0.031
928	0.031
929	0.031
929	0.032
930	0.034
930	0.035
930	0.037
931	0.038
931	0.04
932	0.042
932	0.044
933	0.046
933	0.048
933	0.049
934	0.05
934	0.051
935	0.051
935	0.052
935	0.052
936	0.052
936	0.052
937	0.053
937	0.053
938	0.053
938	0.053
938	0.054
939	0.054
939	0.055
940	0.055
940	0.055
941	0.055
941	0.055
941	0.056
942	0.055
942	0.055
943	0.055
943	0.055
944	0.055
944	0.054
944	0.054
945	0.055
945	0.055
946	0.054
946	0.054
946	0.053
947	0.053
947	0.052
948	0.052
948	0.051
949	0.05
949	0.049
949	0.049
950	0.048
950	0.048
951	0.047
951	0.046
952	0.046
952	0.046
952	0.046
953	0.045
953	0.045
954	0.045
954	0.044
955	0.044
955	0.044
955	0.045
956	0.045
956	0.045
957	0.045
957	0.045
957	0.045
958	0.045
958	0.045
959	0.044
959	0.044
960	0.043
960	0.042
960	0.04
961	0.039
961	0.038
962	0.037
962	0.036
963	0.035
963	0.035
963	0.034
964	0.034
964	0.035
965	0.035
965	0.036
966	0.037
966	0.039
966	0.04
967	0.041
967	0.042
968	0.043
968	0.043
968	0.044
969	0.044
969	0.044
970	0.044
970	0.045
971	0.045
971	0.045
971	0.045
972	0.046
972	0.046
973	0.047
973	0.048
974	0.049
974	0.05
974	0.05
975	0.051
975	0.052
976	0.053
976	0.054
976	0.054
977	0.054
977	0.054
978	0.054
978	0.054
979	0.055
979	0.055
979	0.055
980	0.055
980	0.055
981	0.055
981	0.055
982	0.056
982	0.056
982	0.057
983	0.057
983	0.057
984	0.057
984	0.057
984	0.057
985	0.057
985	0.057
986	0.056
986	0.055
987	0.055
987	0.054
987	0.053
988	0.052
988	0.052
989	0.051
989	0.051
990	0.051
990	0.051
990	0.051
991	0.051
991	0.052
992	0.052
992	0.053
992	0.053
993	0.053
993	0.053
994	0.052
994	0.052
995	0.052
995	0.051
995	0.051
996	0.051
996	0.05
997	0.05
997	0.05
997	0.05
998	0.05
998	0.051
999	0.051
999	0.052
1000	0.053
1000	0.053
1000	0.054
1001	0.055
1001	0.055
1002	0.055
1002	0.056
1003	0.056
1003	0.055
1003	0.055
1004	0.054
1004	0.053
1005	0.052
1005	0.051
1005	0.05
1006	0.049
1006	0.048
1007	0.047
1007	0.047
1008	0.047
1008	0.047
1008	0.047
1009	0.048
1009	0.048
1010	0.048
1010	0.049
1010	0.05
1011	0.05
1011	0.051
1012	0.051
1012	0.052
1013	0.052
1013	0.052
1013	0.052
1014	0.052
1014	0.052
1015	0.052
1015	0.051
1016	0.051
1016	0.05
1016	0.049
1017	0.048
1017	0.047
1018	0.046
1018	0.046
1018	0.045
1019	0.045
1019	0.045
1020	0.045
1020	0.044
1021	0.044
1021	0.044
1021	0.044
1022	0.044
1022	0.045
1023	0.044
1023	0.044
1023	0.043
1024	0.043
1024	0.042
1025	0.041
1025	0.04
1026	0.039
1026	0.039
1026	0.038
1027	0.038
1027	0.038
1028	0.037
1028	0.038
1028	0.038
1029	0.038
1029	0.039
1030	0.04
1030	0.04
1031	0.041
1031	0.042
1031	0.042
1032	0.043
1032	0.044
1033	0.044
1033	0.045
1033	0.045
1034	0.045
1034	0.045
1035	0.045
1035	0.045
1036	0.045
1036	0.045
1036	0.046
1037	0.046
1037	0.047
1038	0.047
1038	0.048
1039	0.049
1039	0.05
1039	0.051
1040	0.051
1040	0.052
1041	0.052
1041	0.052
1041	0.052
1042	0.052
1042	0.052
1043	0.051
1043	0.051
1044	0.051
1044	0.05
1044	0.05
1045	0.049
1045	0.049
1046	0.049
1046	0.049
1046	0.049
1047	0.05
1047	0.05
1048	0.05
1048	0.05
1049	0.05
1049	0.049
1049	0.049
1050	0.049
1050	0.049
1051	0.048
1051	0.048
1051	0.049
1052	0.049
1052	0.049
1053	0.05
1053	0.05
1053	0.051
1054	0.052
1054	0.053
1055	0.054
1055	0.055
1056	0.055
1056	0.055
1056	0.055
1057	0.055
1057	0.055
1058	0.056
1058	0.057
1058	0.058
1059	0.059
1059	0.059
1060	0.06
1060	0.061
1061	0.063
1061	0.064
1061	0.066
1062	0.067
1062	0.067
1063	0.068
1063	0.069
1063	0.069
1064	0.071
1064	0.072
1065	0.073
1065	0.074
1066	0.076
1066	0.077
1066	0.079
1067	0.081
1067	0.083
1068	0.085
1068	0.087
1068	0.088
1069	0.089
1069	0.09
1070	0.091
1070	0.093
1071	0.094
1071	0.096
1071	0.097
1072	0.099
1072	0.101
1073	0.103
1073	0.106
1073	0.107
1074	0.109
1074	0.111
1075	0.112
1075	0.113
1076	0.114
1076	0.116
1076	0.116
1077	0.118
1077	0.119
1078	0.121
1078	0.124
1078	0.126
1079	0.129
1079	0.133
1080	0.135
1080	0.139
1080	0.141
1081	0.144
1081	0.146
1082	0.149
1082	0.151
1083	0.153
1083	0.156
1083	0.16
1084	0.163
1084	0.167
1085	0.172
1085	0.176
1085	0.181
1086	0.187
1086	0.19
1087	0.197
1087	0.203
1088	0.207
1088	0.214
1088	0.221
1089	0.227
1089	0.236
1090	0.244
1090	0.254
1090	0.264
1091	0.276
1091	0.288
1092	0.302
1092	0.317
1092	0.331
1093	0.346
1093	0.363
1094	0.379
1094	0.397
1095	0.416
1095	0.439
1095	0.468
1096	0.497
1096	0.529
1097	0.572
1097	0.614
1097	0.668
1098	0.728
1098	0.809
1099	0.913
1099	1.067
1100	1.315
1100	1.979
1100	-0
1101	-0
1101	-0
1102	-0
1102	-0
1102	-0
1103	-0
1103	-0
1104	-0
1104	-0
1104	-0
1105	-0
1105	-0
1106	-0
1106	-0
1107	-0
1107	-0
1107	-0
1108	-0
1108	-0
1109	-0
1109	-0
1109	-0
1110	-0
1110	-0
1111	-0
1111	-0
