Data from 13c-stair-power-variation_Absorbance__228__04583.txt Node

Date: Tue Jan 16 16:31:51 CET 2024
User: Marek
Spectrometer: MAYP115816
Trigger mode: 0
Integration Time (sec): 2.000000E-1
Scans to average: 10
Electric dark correction enabled: true
Nonlinearity correction enabled: true
Boxcar width: 5
XAxis mode: Wavelengths
Number of Pixels in Spectrum: 2068
>>>>>Begin Spectral Data<<<<<
199	-2.224
199	-2.036
200	-1.901
200	-1.781
201	-1.706
201	-1.655
202	-1.579
202	-1.517
203	-1.468
203	-1.419
204	-1.392
204	-1.367
205	-1.347
205	-1.335
205	-1.332
206	-1.328
206	-1.324
207	-1.321
207	-1.32
208	-1.316
208	-1.315
209	-1.311
209	-1.309
210	-1.307
210	-1.305
211	-1.303
211	-1.302
212	-1.302
212	-1.301
213	-1.299
213	-1.298
213	-1.298
214	-1.296
214	-1.295
215	-1.293
215	-1.293
216	-1.29
216	-1.289
217	-1.286
217	-1.283
218	-1.279
218	-1.275
219	-1.271
219	-1.27
220	-1.268
220	-1.267
221	-1.263
221	-1.261
221	-1.256
222	-1.252
222	-1.247
223	-1.242
223	-1.237
224	-1.231
224	-1.222
225	-1.213
225	-1.203
226	-1.195
226	-1.185
227	-1.172
227	-1.159
228	-1.143
228	-1.127
229	-1.106
229	-1.082
229	-1.056
230	-1.027
230	-0.995
231	-0.959
231	-0.92
232	-0.88
232	-0.837
233	-0.79
233	-0.742
234	-0.694
234	-0.645
235	-0.595
235	-0.546
236	-0.496
236	-0.448
236	-0.401
237	-0.354
237	-0.31
238	-0.268
238	-0.227
239	-0.188
239	-0.152
240	-0.118
240	-0.086
241	-0.056
241	-0.029
242	-0.003
242	0.022
243	0.044
243	0.065
243	0.084
244	0.101
244	0.118
245	0.133
245	0.147
246	0.16
246	0.172
247	0.183
247	0.193
248	0.203
248	0.212
249	0.22
249	0.228
250	0.235
250	0.243
250	0.249
251	0.255
251	0.261
252	0.267
252	0.272
253	0.276
253	0.28
254	0.284
254	0.288
255	0.292
255	0.295
256	0.298
256	0.301
257	0.303
257	0.305
258	0.308
258	0.309
258	0.311
259	0.313
259	0.314
260	0.315
260	0.316
261	0.317
261	0.318
262	0.318
262	0.319
263	0.319
263	0.32
264	0.32
264	0.321
265	0.321
265	0.321
265	0.321
266	0.321
266	0.321
267	0.321
267	0.321
268	0.321
268	0.32
269	0.319
269	0.318
270	0.317
270	0.316
271	0.316
271	0.315
272	0.314
272	0.313
272	0.312
273	0.311
273	0.31
274	0.309
274	0.308
275	0.307
275	0.306
276	0.305
276	0.304
277	0.302
277	0.301
278	0.299
278	0.298
278	0.296
279	0.294
279	0.293
280	0.292
280	0.291
281	0.29
281	0.289
282	0.289
282	0.288
283	0.287
283	0.287
284	0.286
284	0.286
285	0.286
285	0.285
285	0.284
286	0.283
286	0.282
287	0.282
287	0.281
288	0.28
288	0.279
289	0.279
289	0.278
290	0.277
290	0.276
291	0.276
291	0.275
292	0.274
292	0.273
292	0.272
293	0.272
293	0.271
294	0.27
294	0.269
295	0.269
295	0.268
296	0.267
296	0.266
297	0.266
297	0.265
298	0.264
298	0.264
298	0.263
299	0.263
299	0.262
300	0.262
300	0.261
301	0.261
301	0.26
302	0.259
302	0.259
303	0.258
303	0.258
304	0.257
304	0.256
305	0.256
305	0.255
305	0.254
306	0.253
306	0.252
307	0.252
307	0.251
308	0.25
308	0.25
309	0.249
309	0.248
310	0.247
310	0.246
311	0.246
311	0.245
311	0.244
312	0.243
312	0.243
313	0.242
313	0.241
314	0.24
314	0.239
315	0.239
315	0.238
316	0.237
316	0.236
317	0.235
317	0.234
318	0.233
318	0.232
318	0.232
319	0.231
319	0.23
320	0.229
320	0.228
321	0.227
321	0.226
322	0.225
322	0.224
323	0.223
323	0.222
324	0.222
324	0.221
324	0.22
325	0.219
325	0.219
326	0.218
326	0.217
327	0.216
327	0.215
328	0.215
328	0.214
329	0.213
329	0.212
330	0.211
330	0.211
330	0.21
331	0.209
331	0.208
332	0.208
332	0.207
333	0.206
333	0.205
334	0.205
334	0.204
335	0.203
335	0.202
336	0.201
336	0.2
336	0.199
337	0.199
337	0.198
338	0.197
338	0.197
339	0.196
339	0.195
340	0.195
340	0.194
341	0.193
341	0.193
342	0.192
342	0.191
342	0.191
343	0.19
343	0.19
344	0.189
344	0.188
345	0.188
345	0.187
346	0.187
346	0.186
347	0.185
347	0.185
348	0.184
348	0.183
348	0.183
349	0.182
349	0.181
350	0.18
350	0.179
351	0.178
351	0.177
352	0.176
352	0.175
353	0.174
353	0.173
354	0.172
354	0.171
354	0.17
355	0.169
355	0.168
356	0.167
356	0.166
357	0.165
357	0.165
358	0.165
358	0.166
359	0.166
359	0.167
360	0.168
360	0.168
360	0.169
361	0.17
361	0.17
362	0.17
362	0.17
363	0.171
363	0.17
364	0.17
364	0.17
365	0.169
365	0.169
366	0.169
366	0.168
366	0.168
367	0.168
367	0.167
368	0.167
368	0.166
369	0.166
369	0.166
370	0.165
370	0.165
371	0.164
371	0.164
372	0.163
372	0.163
372	0.162
373	0.162
373	0.162
374	0.162
374	0.162
375	0.161
375	0.161
376	0.161
376	0.162
377	0.162
377	0.162
378	0.163
378	0.163
378	0.163
379	0.163
379	0.163
380	0.164
380	0.163
381	0.163
381	0.163
382	0.162
382	0.162
383	0.162
383	0.161
383	0.161
384	0.16
384	0.16
385	0.159
385	0.159
386	0.159
386	0.16
387	0.16
387	0.159
388	0.159
388	0.159
389	0.159
389	0.158
389	0.158
390	0.158
390	0.159
391	0.159
391	0.159
392	0.159
392	0.159
393	0.159
393	0.16
394	0.16
394	0.159
394	0.159
395	0.159
395	0.159
396	0.159
396	0.159
397	0.159
397	0.159
398	0.159
398	0.159
399	0.159
399	0.159
400	0.159
400	0.158
400	0.158
401	0.157
401	0.156
402	0.154
402	0.153
403	0.153
403	0.153
404	0.152
404	0.152
405	0.152
405	0.151
405	0.151
406	0.151
406	0.151
407	0.151
407	0.151
408	0.151
408	0.15
409	0.149
409	0.149
410	0.149
410	0.149
411	0.149
411	0.149
411	0.149
412	0.148
412	0.148
413	0.148
413	0.147
414	0.147
414	0.147
415	0.146
415	0.146
416	0.145
416	0.145
416	0.144
417	0.144
417	0.144
418	0.144
418	0.144
419	0.144
419	0.145
420	0.146
420	0.147
421	0.147
421	0.147
421	0.148
422	0.148
422	0.148
423	0.148
423	0.148
424	0.147
424	0.146
425	0.145
425	0.144
426	0.143
426	0.143
427	0.143
427	0.143
427	0.143
428	0.144
428	0.145
429	0.146
429	0.146
430	0.146
430	0.146
431	0.146
431	0.146
432	0.146
432	0.145
432	0.143
433	0.142
433	0.141
434	0.14
434	0.14
435	0.139
435	0.139
436	0.139
436	0.14
437	0.139
437	0.139
437	0.14
438	0.139
438	0.139
439	0.139
439	0.139
440	0.139
440	0.139
441	0.139
441	0.139
442	0.139
442	0.14
442	0.14
443	0.141
443	0.142
444	0.142
444	0.142
445	0.143
445	0.143
446	0.143
446	0.143
447	0.142
447	0.142
447	0.142
448	0.142
448	0.141
449	0.141
449	0.14
450	0.14
450	0.139
451	0.139
451	0.138
452	0.138
452	0.137
452	0.136
453	0.136
453	0.135
454	0.134
454	0.133
455	0.133
455	0.132
456	0.132
456	0.132
457	0.131
457	0.131
458	0.131
458	0.131
458	0.132
459	0.132
459	0.132
460	0.132
460	0.131
461	0.131
461	0.13
462	0.13
462	0.13
463	0.131
463	0.132
463	0.132
464	0.133
464	0.133
465	0.133
465	0.133
466	0.133
466	0.133
467	0.133
467	0.133
467	0.131
468	0.13
468	0.127
469	0.126
469	0.124
470	0.123
470	0.123
471	0.122
471	0.122
472	0.122
472	0.122
472	0.122
473	0.124
473	0.125
474	0.126
474	0.127
475	0.128
475	0.129
476	0.129
476	0.13
477	0.13
477	0.13
477	0.131
478	0.131
478	0.132
479	0.132
479	0.133
480	0.134
480	0.135
481	0.136
481	0.136
482	0.138
482	0.139
482	0.141
483	0.143
483	0.146
484	0.149
484	0.152
485	0.154
485	0.156
486	0.157
486	0.158
487	0.158
487	0.159
487	0.159
488	0.158
488	0.157
489	0.154
489	0.153
490	0.152
490	0.151
491	0.15
491	0.151
492	0.151
492	0.152
492	0.152
493	0.153
493	0.154
494	0.156
494	0.158
495	0.16
495	0.162
496	0.163
496	0.164
496	0.164
497	0.165
497	0.166
498	0.167
498	0.167
499	0.167
499	0.167
500	0.167
500	0.169
501	0.171
501	0.172
501	0.174
502	0.176
502	0.177
503	0.179
503	0.181
504	0.182
504	0.182
505	0.182
505	0.183
506	0.183
506	0.184
506	0.184
507	0.184
507	0.184
508	0.184
508	0.185
509	0.186
509	0.186
510	0.187
510	0.187
511	0.186
511	0.187
511	0.187
512	0.187
512	0.188
513	0.187
513	0.186
514	0.184
514	0.183
515	0.183
515	0.182
515	0.182
516	0.181
516	0.181
517	0.182
517	0.181
518	0.181
518	0.18
519	0.179
519	0.176
520	0.174
520	0.171
520	0.168
521	0.165
521	0.162
522	0.16
522	0.158
523	0.157
523	0.158
524	0.16
524	0.164
524	0.167
525	0.171
525	0.175
526	0.178
526	0.181
527	0.184
527	0.187
528	0.189
528	0.19
529	0.191
529	0.191
529	0.191
530	0.191
530	0.191
531	0.191
531	0.192
532	0.191
532	0.191
533	0.191
533	0.191
533	0.191
534	0.191
534	0.19
535	0.189
535	0.189
536	0.189
536	0.188
537	0.188
537	0.188
538	0.187
538	0.185
538	0.184
539	0.184
539	0.183
540	0.182
540	0.181
541	0.179
541	0.178
542	0.176
542	0.174
542	0.173
543	0.172
543	0.171
544	0.169
544	0.168
545	0.167
545	0.166
546	0.166
546	0.165
547	0.164
547	0.161
547	0.159
548	0.156
548	0.154
549	0.152
549	0.15
550	0.148
550	0.146
551	0.144
551	0.141
551	0.139
552	0.138
552	0.137
553	0.136
553	0.136
554	0.136
554	0.134
555	0.132
555	0.129
556	0.126
556	0.123
556	0.121
557	0.118
557	0.116
558	0.114
558	0.112
559	0.11
559	0.109
560	0.109
560	0.108
560	0.108
561	0.108
561	0.108
562	0.108
562	0.107
563	0.105
563	0.103
564	0.101
564	0.098
564	0.096
565	0.094
565	0.093
566	0.092
566	0.091
567	0.091
567	0.092
568	0.094
568	0.096
568	0.097
569	0.1
569	0.102
570	0.104
570	0.104
571	0.105
571	0.106
572	0.106
572	0.107
573	0.107
573	0.106
573	0.105
574	0.104
574	0.103
575	0.103
575	0.104
576	0.105
576	0.104
577	0.102
577	0.1
577	0.099
578	0.098
578	0.098
579	0.1
579	0.102
580	0.102
580	0.099
581	0.096
581	0.094
581	0.093
582	0.093
582	0.093
583	0.094
583	0.093
584	0.089
584	0.085
585	0.083
585	0.082
585	0.082
586	0.082
586	0.082
587	0.08
587	0.078
588	0.075
588	0.073
589	0.071
589	0.071
590	0.07
590	0.069
590	0.07
591	0.072
591	0.072
592	0.072
592	0.071
593	0.07
593	0.07
594	0.07
594	0.069
594	0.068
595	0.068
595	0.066
596	0.064
596	0.064
597	0.067
597	0.069
598	0.07
598	0.071
598	0.071
599	0.072
599	0.072
600	0.071
600	0.07
601	0.069
601	0.068
602	0.065
602	0.064
602	0.062
603	0.062
603	0.062
604	0.063
604	0.064
605	0.065
605	0.067
606	0.067
606	0.066
606	0.065
607	0.065
607	0.064
608	0.063
608	0.061
609	0.06
609	0.059
610	0.057
610	0.055
610	0.054
611	0.055
611	0.055
612	0.057
612	0.058
613	0.06
613	0.062
614	0.062
614	0.061
614	0.061
615	0.061
615	0.061
616	0.06
616	0.059
617	0.059
617	0.057
618	0.055
618	0.055
618	0.054
619	0.054
619	0.055
620	0.057
620	0.058
621	0.059
621	0.06
622	0.06
622	0.061
622	0.061
623	0.061
623	0.063
624	0.064
624	0.064
625	0.063
625	0.064
626	0.064
626	0.064
626	0.064
627	0.065
627	0.065
628	0.065
628	0.065
629	0.065
629	0.065
630	0.065
630	0.064
630	0.064
631	0.065
631	0.065
632	0.065
632	0.065
633	0.066
633	0.066
634	0.067
634	0.069
634	0.071
635	0.073
635	0.074
636	0.075
636	0.077
637	0.078
637	0.079
638	0.081
638	0.082
638	0.083
639	0.084
639	0.084
640	0.086
640	0.087
641	0.089
641	0.091
642	0.093
642	0.095
642	0.097
643	0.098
643	0.099
644	0.101
644	0.103
645	0.105
645	0.107
646	0.109
646	0.112
646	0.116
647	0.119
647	0.123
648	0.125
648	0.128
649	0.131
649	0.134
650	0.137
650	0.141
650	0.143
651	0.146
651	0.148
652	0.15
652	0.152
653	0.156
653	0.166
653	0.178
654	0.148
654	0.124
655	0.127
655	0.129
656	0.131
656	0.133
657	0.134
657	0.136
657	0.136
658	0.132
658	0.123
659	0.151
659	0.188
660	0.192
660	0.193
661	0.195
661	0.197
661	0.2
662	0.203
662	0.207
663	0.211
663	0.214
664	0.218
664	0.22
665	0.223
665	0.226
665	0.229
666	0.231
666	0.234
667	0.237
667	0.239
668	0.242
668	0.245
669	0.248
669	0.252
669	0.257
670	0.262
670	0.266
671	0.269
671	0.271
672	0.273
672	0.275
672	0.276
673	0.278
673	0.279
674	0.28
674	0.28
675	0.28
675	0.281
676	0.283
676	0.285
676	0.286
677	0.289
677	0.291
678	0.293
678	0.295
679	0.296
679	0.298
680	0.3
680	0.302
680	0.302
681	0.303
681	0.304
682	0.305
682	0.307
683	0.309
683	0.312
684	0.315
684	0.316
684	0.316
685	0.317
685	0.319
686	0.32
686	0.32
687	0.32
687	0.32
687	0.319
688	0.318
688	0.317
689	0.317
689	0.318
690	0.318
690	0.317
691	0.317
691	0.317
691	0.318
692	0.317
692	0.317
693	0.317
693	0.318
694	0.318
694	0.316
695	0.317
695	0.319
695	0.319
696	0.319
696	0.318
697	0.317
697	0.316
698	0.315
698	0.312
698	0.31
699	0.309
699	0.306
700	0.303
700	0.3
701	0.299
701	0.297
702	0.295
702	0.294
702	0.292
703	0.29
703	0.288
704	0.287
704	0.285
705	0.284
705	0.283
705	0.281
706	0.279
706	0.278
707	0.276
707	0.274
708	0.272
708	0.271
709	0.269
709	0.268
709	0.264
710	0.262
710	0.259
711	0.258
711	0.256
712	0.254
712	0.253
713	0.251
713	0.249
713	0.247
714	0.244
714	0.241
715	0.238
715	0.235
716	0.232
716	0.229
716	0.226
717	0.223
717	0.22
718	0.217
718	0.214
719	0.213
719	0.211
720	0.209
720	0.207
720	0.204
721	0.201
721	0.198
722	0.195
722	0.192
723	0.189
723	0.187
723	0.184
724	0.181
724	0.178
725	0.175
725	0.172
726	0.17
726	0.168
727	0.166
727	0.164
727	0.163
728	0.161
728	0.159
729	0.159
729	0.159
730	0.157
730	0.156
730	0.155
731	0.154
731	0.153
732	0.152
732	0.151
733	0.15
733	0.148
734	0.146
734	0.143
734	0.141
735	0.14
735	0.137
736	0.134
736	0.132
737	0.129
737	0.128
737	0.126
738	0.122
738	0.119
739	0.116
739	0.114
740	0.111
740	0.11
741	0.109
741	0.107
741	0.104
742	0.1
742	0.097
743	0.094
743	0.092
744	0.09
744	0.088
744	0.085
745	0.082
745	0.079
746	0.076
746	0.074
747	0.072
747	0.07
748	0.069
748	0.068
748	0.066
749	0.064
749	0.063
750	0.062
750	0.061
751	0.061
751	0.06
751	0.061
752	0.06
752	0.059
753	0.058
753	0.057
754	0.057
754	0.057
754	0.057
755	0.058
755	0.058
756	0.057
756	0.055
757	0.054
757	0.053
758	0.053
758	0.052
758	0.051
759	0.049
759	0.046
760	0.043
760	0.04
761	0.037
761	0.036
761	0.034
762	0.031
762	0.03
763	0.028
763	0.025
764	0.022
764	0.019
764	0.017
765	0.015
765	0.013
766	0.011
766	0.011
767	0.01
767	0.007
768	0.004
768	0.002
768	0.001
769	0.001
769	0
770	-0.001
770	-0.002
771	-0.004
771	-0.007
771	-0.009
772	-0.011
772	-0.012
773	-0.014
773	-0.016
774	-0.02
774	-0.023
775	-0.026
775	-0.029
775	-0.032
776	-0.036
776	-0.04
777	-0.044
777	-0.048
778	-0.053
778	-0.058
778	-0.063
779	-0.065
779	-0.064
780	-0.064
780	-0.067
781	-0.068
781	-0.069
781	-0.07
782	-0.07
782	-0.072
783	-0.072
783	-0.071
784	-0.072
784	-0.075
784	-0.077
785	-0.078
785	-0.08
786	-0.081
786	-0.079
787	-0.075
787	-0.071
788	-0.07
788	-0.071
788	-0.072
789	-0.074
789	-0.073
790	-0.07
790	-0.069
791	-0.07
791	-0.071
791	-0.073
792	-0.068
792	-0.059
793	-0.053
793	-0.049
794	-0.048
794	-0.05
794	-0.053
795	-0.055
795	-0.055
796	-0.055
796	-0.057
797	-0.065
797	-0.074
797	-0.08
798	-0.085
798	-0.088
799	-0.089
799	-0.088
800	-0.088
800	-0.091
801	-0.094
801	-0.095
801	-0.096
802	-0.098
802	-0.099
803	-0.1
803	-0.101
804	-0.1
804	-0.095
804	-0.089
805	-0.085
805	-0.083
806	-0.081
806	-0.08
807	-0.079
807	-0.078
807	-0.077
808	-0.077
808	-0.077
809	-0.081
809	-0.086
810	-0.089
810	-0.091
810	-0.094
811	-0.096
811	-0.096
812	-0.092
812	-0.09
813	-0.09
813	-0.091
813	-0.092
814	-0.092
814	-0.092
815	-0.09
815	-0.087
816	-0.085
816	-0.086
817	-0.09
817	-0.093
817	-0.094
818	-0.093
818	-0.09
819	-0.085
819	-0.083
820	-0.084
820	-0.086
820	-0.087
821	-0.087
821	-0.085
822	-0.085
822	-0.084
823	-0.083
823	-0.085
823	-0.088
824	-0.089
824	-0.088
825	-0.084
825	-0.078
826	-0.074
826	-0.071
826	-0.066
827	-0.061
827	-0.056
828	-0.051
828	-0.047
829	-0.042
829	-0.037
829	-0.033
830	-0.03
830	-0.027
831	-0.023
831	-0.019
832	-0.016
832	-0.013
832	-0.01
833	-0.008
833	-0.006
834	-0.004
834	-0.003
835	-0.002
835	-0.001
835	0
836	0.002
836	0.003
837	0.004
837	0.005
838	0.006
838	0.006
839	0.006
839	0.006
839	0.006
840	0.006
840	0.006
841	0.007
841	0.007
842	0.007
842	0.007
842	0.008
843	0.009
843	0.009
844	0.011
844	0.012
845	0.013
845	0.014
845	0.015
846	0.016
846	0.018
847	0.019
847	0.021
848	0.022
848	0.023
848	0.025
849	0.026
849	0.027
850	0.028
850	0.028
851	0.029
851	0.03
851	0.03
852	0.03
852	0.031
853	0.031
853	0.031
854	0.032
854	0.032
854	0.033
855	0.033
855	0.033
856	0.033
856	0.033
857	0.033
857	0.032
857	0.032
858	0.032
858	0.031
859	0.03
859	0.03
860	0.03
860	0.03
860	0.03
861	0.029
861	0.029
862	0.028
862	0.028
863	0.027
863	0.027
863	0.027
864	0.027
864	0.027
865	0.027
865	0.027
866	0.027
866	0.028
866	0.029
867	0.03
867	0.031
868	0.032
868	0.033
869	0.035
869	0.035
869	0.035
870	0.035
870	0.035
871	0.035
871	0.034
872	0.033
872	0.032
872	0.032
873	0.031
873	0.031
874	0.03
874	0.031
875	0.031
875	0.032
875	0.032
876	0.033
876	0.033
877	0.033
877	0.034
878	0.033
878	0.033
878	0.033
879	0.033
879	0.032
880	0.032
880	0.032
881	0.032
881	0.032
881	0.032
882	0.032
882	0.033
883	0.033
883	0.033
884	0.034
884	0.034
884	0.034
885	0.035
885	0.035
886	0.035
886	0.036
887	0.036
887	0.036
887	0.036
888	0.036
888	0.036
889	0.036
889	0.036
890	0.036
890	0.036
890	0.036
891	0.036
891	0.036
892	0.036
892	0.037
893	0.038
893	0.038
893	0.039
894	0.04
894	0.041
895	0.041
895	0.042
895	0.042
896	0.043
896	0.044
897	0.044
897	0.045
898	0.046
898	0.046
898	0.046
899	0.047
899	0.048
900	0.048
900	0.049
901	0.05
901	0.05
901	0.051
902	0.051
902	0.052
903	0.051
903	0.051
904	0.051
904	0.05
904	0.049
905	0.048
905	0.047
906	0.046
906	0.044
907	0.043
907	0.042
907	0.041
908	0.041
908	0.041
909	0.041
909	0.041
910	0.041
910	0.042
910	0.043
911	0.043
911	0.045
912	0.046
912	0.047
913	0.047
913	0.048
913	0.049
914	0.049
914	0.049
915	0.049
915	0.049
916	0.049
916	0.048
916	0.047
917	0.047
917	0.046
918	0.046
918	0.045
918	0.045
919	0.044
919	0.043
920	0.043
920	0.043
921	0.043
921	0.042
921	0.041
922	0.041
922	0.04
923	0.039
923	0.039
924	0.038
924	0.037
924	0.037
925	0.036
925	0.035
926	0.034
926	0.034
927	0.033
927	0.033
927	0.032
928	0.032
928	0.032
929	0.033
929	0.034
930	0.035
930	0.036
930	0.038
931	0.04
931	0.042
932	0.044
932	0.046
933	0.048
933	0.049
933	0.051
934	0.052
934	0.052
935	0.053
935	0.053
935	0.053
936	0.053
936	0.054
937	0.054
937	0.054
938	0.054
938	0.055
938	0.055
939	0.055
939	0.056
940	0.056
940	0.057
941	0.057
941	0.057
941	0.057
942	0.057
942	0.057
943	0.057
943	0.056
944	0.056
944	0.056
944	0.056
945	0.056
945	0.056
946	0.056
946	0.055
946	0.055
947	0.055
947	0.054
948	0.053
948	0.052
949	0.051
949	0.051
949	0.051
950	0.05
950	0.049
951	0.049
951	0.048
952	0.048
952	0.048
952	0.048
953	0.047
953	0.047
954	0.046
954	0.046
955	0.046
955	0.046
955	0.046
956	0.046
956	0.046
957	0.046
957	0.046
957	0.046
958	0.046
958	0.046
959	0.045
959	0.045
960	0.044
960	0.043
960	0.042
961	0.041
961	0.039
962	0.038
962	0.037
963	0.037
963	0.036
963	0.036
964	0.036
964	0.036
965	0.037
965	0.038
966	0.039
966	0.04
966	0.042
967	0.043
967	0.044
968	0.044
968	0.045
968	0.045
969	0.046
969	0.046
970	0.046
970	0.046
971	0.046
971	0.046
971	0.046
972	0.047
972	0.048
973	0.049
973	0.049
974	0.05
974	0.051
974	0.052
975	0.053
975	0.054
976	0.054
976	0.055
976	0.055
977	0.056
977	0.056
978	0.056
978	0.056
979	0.056
979	0.056
979	0.057
980	0.057
980	0.057
981	0.057
981	0.057
982	0.057
982	0.058
982	0.058
983	0.059
983	0.059
984	0.059
984	0.059
984	0.059
985	0.059
985	0.059
986	0.059
986	0.058
987	0.057
987	0.056
987	0.056
988	0.055
988	0.055
989	0.054
989	0.053
990	0.053
990	0.053
990	0.053
991	0.053
991	0.054
992	0.055
992	0.055
992	0.055
993	0.055
993	0.055
994	0.055
994	0.055
995	0.055
995	0.054
995	0.054
996	0.053
996	0.053
997	0.052
997	0.052
997	0.052
998	0.053
998	0.053
999	0.054
999	0.054
1000	0.055
1000	0.056
1000	0.056
1001	0.057
1001	0.057
1002	0.057
1002	0.057
1003	0.057
1003	0.056
1003	0.056
1004	0.055
1004	0.054
1005	0.052
1005	0.051
1005	0.05
1006	0.049
1006	0.048
1007	0.048
1007	0.047
1008	0.047
1008	0.047
1008	0.048
1009	0.048
1009	0.049
1010	0.049
1010	0.05
1010	0.05
1011	0.051
1011	0.051
1012	0.052
1012	0.052
1013	0.052
1013	0.053
1013	0.053
1014	0.052
1014	0.052
1015	0.052
1015	0.051
1016	0.051
1016	0.05
1016	0.049
1017	0.048
1017	0.048
1018	0.047
1018	0.047
1018	0.046
1019	0.046
1019	0.046
1020	0.046
1020	0.046
1021	0.046
1021	0.046
1021	0.046
1022	0.046
1022	0.046
1023	0.046
1023	0.046
1023	0.045
1024	0.045
1024	0.044
1025	0.043
1025	0.042
1026	0.041
1026	0.041
1026	0.04
1027	0.039
1027	0.039
1028	0.039
1028	0.04
1028	0.04
1029	0.04
1029	0.041
1030	0.041
1030	0.042
1031	0.043
1031	0.043
1031	0.044
1032	0.045
1032	0.045
1033	0.046
1033	0.046
1033	0.046
1034	0.046
1034	0.046
1035	0.046
1035	0.046
1036	0.046
1036	0.046
1036	0.047
1037	0.047
1037	0.047
1038	0.048
1038	0.049
1039	0.05
1039	0.051
1039	0.052
1040	0.053
1040	0.054
1041	0.054
1041	0.054
1041	0.054
1042	0.054
1042	0.054
1043	0.054
1043	0.053
1044	0.053
1044	0.052
1044	0.052
1045	0.052
1045	0.051
1046	0.051
1046	0.051
1046	0.051
1047	0.052
1047	0.052
1048	0.052
1048	0.053
1049	0.052
1049	0.052
1049	0.051
1050	0.051
1050	0.05
1051	0.05
1051	0.05
1051	0.05
1052	0.05
1052	0.051
1053	0.051
1053	0.052
1053	0.053
1054	0.053
1054	0.054
1055	0.056
1055	0.056
1056	0.056
1056	0.057
1056	0.057
1057	0.057
1057	0.057
1058	0.058
1058	0.059
1058	0.06
1059	0.062
1059	0.062
1060	0.063
1060	0.065
1061	0.066
1061	0.067
1061	0.069
1062	0.07
1062	0.07
1063	0.071
1063	0.072
1063	0.072
1064	0.074
1064	0.075
1065	0.077
1065	0.078
1066	0.079
1066	0.081
1066	0.083
1067	0.084
1067	0.086
1068	0.087
1068	0.089
1068	0.09
1069	0.091
1069	0.092
1070	0.093
1070	0.094
1071	0.096
1071	0.098
1071	0.099
1072	0.101
1072	0.103
1073	0.106
1073	0.108
1073	0.11
1074	0.112
1074	0.114
1075	0.115
1075	0.116
1076	0.117
1076	0.119
1076	0.119
1077	0.121
1077	0.123
1078	0.125
1078	0.127
1078	0.13
1079	0.132
1079	0.136
1080	0.139
1080	0.142
1080	0.144
1081	0.146
1081	0.149
1082	0.151
1082	0.153
1083	0.156
1083	0.158
1083	0.162
1084	0.165
1084	0.17
1085	0.174
1085	0.178
1085	0.183
1086	0.189
1086	0.193
1087	0.198
1087	0.204
1088	0.21
1088	0.216
1088	0.223
1089	0.23
1089	0.238
1090	0.248
1090	0.257
1090	0.267
1091	0.279
1091	0.292
1092	0.305
1092	0.321
1092	0.334
1093	0.349
1093	0.368
1094	0.385
1094	0.404
1095	0.425
1095	0.449
1095	0.479
1096	0.511
1096	0.546
1097	0.59
1097	0.636
1097	0.694
1098	0.76
1098	0.845
1099	0.96
1099	1.125
1100	1.41
1100	2.939
1100	-0
1101	-0
1101	-0
1102	-0
1102	-0
1102	-0
1103	-0
1103	-0
1104	-0
1104	-0
1104	-0
1105	-0
1105	-0
1106	-0
1106	-0
1107	-0
1107	-0
1107	-0
1108	-0
1108	-0
1109	-0
1109	-0
1109	-0
1110	-0
1110	-0
1111	-0
1111	-0
