Data from 13c-stair-power-variation_Absorbance__115__04470.txt Node

Date: Tue Jan 16 16:28:05 CET 2024
User: Marek
Spectrometer: MAYP115816
Trigger mode: 0
Integration Time (sec): 2.000000E-1
Scans to average: 10
Electric dark correction enabled: true
Nonlinearity correction enabled: true
Boxcar width: 5
XAxis mode: Wavelengths
Number of Pixels in Spectrum: 2068
>>>>>Begin Spectral Data<<<<<
199	-1.95
199	-1.765
200	-1.632
200	-1.514
201	-1.442
201	-1.391
202	-1.317
202	-1.258
203	-1.212
203	-1.166
204	-1.14
204	-1.115
205	-1.096
205	-1.084
205	-1.081
206	-1.077
206	-1.074
207	-1.071
207	-1.071
208	-1.067
208	-1.067
209	-1.062
209	-1.06
210	-1.06
210	-1.057
211	-1.056
211	-1.056
212	-1.055
212	-1.055
213	-1.052
213	-1.052
213	-1.052
214	-1.051
214	-1.049
215	-1.048
215	-1.049
216	-1.046
216	-1.045
217	-1.042
217	-1.039
218	-1.035
218	-1.032
219	-1.027
219	-1.026
220	-1.024
220	-1.022
221	-1.018
221	-1.017
221	-1.012
222	-1.008
222	-1.003
223	-0.999
223	-0.994
224	-0.989
224	-0.98
225	-0.972
225	-0.962
226	-0.953
226	-0.944
227	-0.93
227	-0.918
228	-0.902
228	-0.886
229	-0.865
229	-0.841
229	-0.816
230	-0.787
230	-0.756
231	-0.721
231	-0.682
232	-0.643
232	-0.601
233	-0.556
233	-0.51
234	-0.463
234	-0.416
235	-0.369
235	-0.323
236	-0.277
236	-0.232
236	-0.188
237	-0.147
237	-0.107
238	-0.069
238	-0.033
239	0.001
239	0.032
240	0.061
240	0.088
241	0.112
241	0.135
242	0.155
242	0.175
243	0.193
243	0.209
243	0.223
244	0.237
244	0.249
245	0.26
245	0.271
246	0.281
246	0.29
247	0.298
247	0.306
248	0.313
248	0.32
249	0.326
249	0.332
250	0.338
250	0.343
250	0.348
251	0.352
251	0.356
252	0.36
252	0.364
253	0.367
253	0.37
254	0.373
254	0.376
255	0.378
255	0.38
256	0.382
256	0.384
257	0.386
257	0.388
258	0.389
258	0.39
258	0.391
259	0.392
259	0.393
260	0.393
260	0.394
261	0.394
261	0.394
262	0.394
262	0.394
263	0.395
263	0.395
264	0.394
264	0.394
265	0.394
265	0.393
265	0.393
266	0.392
266	0.391
267	0.391
267	0.39
268	0.389
268	0.387
269	0.386
269	0.385
270	0.383
270	0.382
271	0.38
271	0.378
272	0.377
272	0.376
272	0.374
273	0.373
273	0.371
274	0.37
274	0.368
275	0.367
275	0.365
276	0.364
276	0.362
277	0.36
277	0.358
278	0.356
278	0.354
278	0.352
279	0.349
279	0.347
280	0.345
280	0.343
281	0.341
281	0.339
282	0.338
282	0.336
283	0.335
283	0.333
284	0.332
284	0.331
285	0.33
285	0.328
285	0.327
286	0.325
286	0.324
287	0.323
287	0.321
288	0.32
288	0.319
289	0.317
289	0.316
290	0.315
290	0.313
291	0.312
291	0.311
292	0.31
292	0.309
292	0.308
293	0.306
293	0.305
294	0.304
294	0.303
295	0.303
295	0.302
296	0.3
296	0.299
297	0.299
297	0.298
298	0.297
298	0.296
298	0.295
299	0.295
299	0.294
300	0.293
300	0.292
301	0.291
301	0.29
302	0.289
302	0.288
303	0.288
303	0.287
304	0.286
304	0.286
305	0.285
305	0.284
305	0.283
306	0.282
306	0.282
307	0.281
307	0.28
308	0.279
308	0.278
309	0.278
309	0.277
310	0.276
310	0.275
311	0.274
311	0.273
311	0.273
312	0.272
312	0.271
313	0.27
313	0.269
314	0.268
314	0.267
315	0.267
315	0.266
316	0.265
316	0.264
317	0.263
317	0.262
318	0.262
318	0.261
318	0.26
319	0.259
319	0.258
320	0.257
320	0.256
321	0.256
321	0.255
322	0.254
322	0.253
323	0.252
323	0.251
324	0.251
324	0.25
324	0.249
325	0.248
325	0.248
326	0.247
326	0.247
327	0.246
327	0.245
328	0.244
328	0.244
329	0.243
329	0.242
330	0.241
330	0.241
330	0.24
331	0.239
331	0.238
332	0.237
332	0.236
333	0.236
333	0.235
334	0.234
334	0.233
335	0.233
335	0.232
336	0.231
336	0.23
336	0.23
337	0.229
337	0.228
338	0.228
338	0.227
339	0.226
339	0.226
340	0.225
340	0.225
341	0.224
341	0.224
342	0.223
342	0.223
342	0.222
343	0.221
343	0.221
344	0.221
344	0.22
345	0.219
345	0.219
346	0.218
346	0.218
347	0.217
347	0.217
348	0.216
348	0.216
348	0.215
349	0.215
349	0.214
350	0.214
350	0.213
351	0.212
351	0.212
352	0.211
352	0.211
353	0.21
353	0.209
354	0.208
354	0.207
354	0.207
355	0.206
355	0.205
356	0.205
356	0.204
357	0.204
357	0.204
358	0.203
358	0.203
359	0.204
359	0.204
360	0.204
360	0.205
360	0.205
361	0.205
361	0.206
362	0.206
362	0.206
363	0.206
363	0.206
364	0.206
364	0.205
365	0.205
365	0.205
366	0.205
366	0.204
366	0.204
367	0.204
367	0.203
368	0.203
368	0.203
369	0.202
369	0.202
370	0.202
370	0.201
371	0.201
371	0.201
372	0.201
372	0.2
372	0.2
373	0.2
373	0.2
374	0.199
374	0.199
375	0.199
375	0.199
376	0.199
376	0.199
377	0.199
377	0.199
378	0.199
378	0.199
378	0.199
379	0.2
379	0.2
380	0.2
380	0.2
381	0.2
381	0.199
382	0.199
382	0.199
383	0.198
383	0.198
383	0.197
384	0.197
384	0.196
385	0.196
385	0.196
386	0.196
386	0.196
387	0.196
387	0.196
388	0.195
388	0.195
389	0.195
389	0.195
389	0.195
390	0.195
390	0.195
391	0.195
391	0.195
392	0.195
392	0.195
393	0.195
393	0.195
394	0.195
394	0.195
394	0.194
395	0.194
395	0.194
396	0.194
396	0.194
397	0.194
397	0.194
398	0.194
398	0.194
399	0.194
399	0.194
400	0.193
400	0.193
400	0.192
401	0.192
401	0.191
402	0.19
402	0.189
403	0.189
403	0.189
404	0.189
404	0.188
405	0.188
405	0.188
405	0.188
406	0.188
406	0.188
407	0.187
407	0.187
408	0.187
408	0.186
409	0.186
409	0.186
410	0.186
410	0.186
411	0.186
411	0.186
411	0.186
412	0.185
412	0.185
413	0.185
413	0.185
414	0.184
414	0.184
415	0.183
415	0.183
416	0.182
416	0.182
416	0.182
417	0.181
417	0.181
418	0.181
418	0.182
419	0.182
419	0.183
420	0.183
420	0.184
421	0.184
421	0.184
421	0.184
422	0.184
422	0.185
423	0.185
423	0.184
424	0.183
424	0.183
425	0.182
425	0.181
426	0.181
426	0.181
427	0.181
427	0.181
427	0.181
428	0.181
428	0.182
429	0.182
429	0.183
430	0.182
430	0.182
431	0.182
431	0.182
432	0.182
432	0.181
432	0.18
433	0.179
433	0.179
434	0.178
434	0.178
435	0.178
435	0.178
436	0.178
436	0.178
437	0.178
437	0.178
437	0.177
438	0.177
438	0.177
439	0.177
439	0.177
440	0.177
440	0.177
441	0.177
441	0.178
442	0.178
442	0.179
442	0.179
443	0.18
443	0.18
444	0.18
444	0.181
445	0.181
445	0.181
446	0.181
446	0.181
447	0.181
447	0.181
447	0.18
448	0.18
448	0.18
449	0.179
449	0.179
450	0.179
450	0.179
451	0.178
451	0.178
452	0.178
452	0.177
452	0.177
453	0.177
453	0.176
454	0.176
454	0.175
455	0.175
455	0.175
456	0.175
456	0.174
457	0.174
457	0.174
458	0.174
458	0.174
458	0.175
459	0.175
459	0.175
460	0.175
460	0.174
461	0.174
461	0.175
462	0.175
462	0.175
463	0.175
463	0.176
463	0.177
464	0.177
464	0.177
465	0.177
465	0.177
466	0.178
466	0.178
467	0.178
467	0.177
467	0.176
468	0.175
468	0.174
469	0.173
469	0.173
470	0.173
470	0.173
471	0.173
471	0.172
472	0.172
472	0.173
472	0.173
473	0.174
473	0.175
474	0.176
474	0.177
475	0.178
475	0.179
476	0.179
476	0.18
477	0.18
477	0.181
477	0.182
478	0.182
478	0.183
479	0.183
479	0.184
480	0.185
480	0.186
481	0.187
481	0.188
482	0.188
482	0.19
482	0.191
483	0.193
483	0.196
484	0.198
484	0.2
485	0.201
485	0.203
486	0.204
486	0.205
487	0.206
487	0.206
487	0.207
488	0.207
488	0.206
489	0.205
489	0.205
490	0.206
490	0.206
491	0.206
491	0.207
492	0.208
492	0.209
492	0.21
493	0.211
493	0.213
494	0.215
494	0.217
495	0.219
495	0.22
496	0.222
496	0.223
496	0.224
497	0.226
497	0.228
498	0.228
498	0.229
499	0.23
499	0.23
500	0.232
500	0.234
501	0.235
501	0.237
501	0.239
502	0.24
502	0.242
503	0.244
503	0.246
504	0.247
504	0.248
505	0.249
505	0.25
506	0.252
506	0.253
506	0.254
507	0.255
507	0.256
508	0.257
508	0.257
509	0.259
509	0.26
510	0.261
510	0.262
511	0.263
511	0.264
511	0.264
512	0.265
512	0.265
513	0.266
513	0.266
514	0.266
514	0.266
515	0.266
515	0.266
515	0.265
516	0.265
516	0.265
517	0.266
517	0.267
518	0.267
518	0.267
519	0.266
519	0.265
520	0.264
520	0.263
520	0.261
521	0.259
521	0.257
522	0.255
522	0.253
523	0.252
523	0.252
524	0.253
524	0.254
524	0.255
525	0.257
525	0.26
526	0.262
526	0.264
527	0.267
527	0.269
528	0.27
528	0.271
529	0.272
529	0.272
529	0.272
530	0.272
530	0.272
531	0.272
531	0.272
532	0.271
532	0.271
533	0.271
533	0.27
533	0.27
534	0.269
534	0.268
535	0.267
535	0.266
536	0.265
536	0.264
537	0.263
537	0.262
538	0.261
538	0.259
538	0.258
539	0.257
539	0.256
540	0.255
540	0.253
541	0.251
541	0.249
542	0.247
542	0.246
542	0.244
543	0.242
543	0.241
544	0.239
544	0.237
545	0.235
545	0.234
546	0.233
546	0.231
547	0.229
547	0.226
547	0.223
548	0.221
548	0.218
549	0.216
549	0.213
550	0.211
550	0.209
551	0.206
551	0.204
551	0.201
552	0.2
552	0.198
553	0.197
553	0.196
554	0.194
554	0.192
555	0.189
555	0.187
556	0.184
556	0.181
556	0.178
557	0.175
557	0.173
558	0.171
558	0.169
559	0.167
559	0.166
560	0.165
560	0.163
560	0.163
561	0.162
561	0.162
562	0.161
562	0.159
563	0.156
563	0.154
564	0.151
564	0.149
564	0.146
565	0.144
565	0.143
566	0.141
566	0.14
567	0.139
567	0.139
568	0.139
568	0.139
568	0.139
569	0.14
569	0.141
570	0.141
570	0.139
571	0.14
571	0.14
572	0.139
572	0.138
573	0.137
573	0.136
573	0.134
574	0.133
574	0.132
575	0.131
575	0.132
576	0.131
576	0.129
577	0.126
577	0.125
577	0.124
578	0.123
578	0.123
579	0.124
579	0.125
580	0.124
580	0.121
581	0.118
581	0.116
581	0.116
582	0.116
582	0.116
583	0.116
583	0.115
584	0.111
584	0.107
585	0.106
585	0.106
585	0.106
586	0.106
586	0.105
587	0.103
587	0.101
588	0.098
588	0.097
589	0.097
589	0.096
590	0.096
590	0.095
590	0.097
591	0.098
591	0.097
592	0.097
592	0.095
593	0.095
593	0.095
594	0.094
594	0.093
594	0.092
595	0.092
595	0.09
596	0.089
596	0.09
597	0.092
597	0.093
598	0.093
598	0.094
598	0.095
599	0.095
599	0.094
600	0.093
600	0.092
601	0.091
601	0.09
602	0.088
602	0.087
602	0.086
603	0.085
603	0.086
604	0.087
604	0.088
605	0.089
605	0.09
606	0.09
606	0.088
606	0.088
607	0.087
607	0.087
608	0.086
608	0.084
609	0.083
609	0.083
610	0.081
610	0.08
610	0.079
611	0.08
611	0.081
612	0.082
612	0.083
613	0.085
613	0.086
614	0.086
614	0.086
614	0.086
615	0.086
615	0.086
616	0.086
616	0.086
617	0.085
617	0.084
618	0.083
618	0.083
618	0.083
619	0.084
619	0.085
620	0.088
620	0.089
621	0.089
621	0.09
622	0.091
622	0.092
622	0.092
623	0.092
623	0.094
624	0.095
624	0.095
625	0.095
625	0.096
626	0.096
626	0.096
626	0.097
627	0.098
627	0.099
628	0.099
628	0.099
629	0.1
629	0.1
630	0.099
630	0.099
630	0.1
631	0.101
631	0.101
632	0.101
632	0.102
633	0.103
633	0.104
634	0.106
634	0.108
634	0.109
635	0.111
635	0.112
636	0.113
636	0.114
637	0.116
637	0.117
638	0.119
638	0.12
638	0.122
639	0.123
639	0.124
640	0.126
640	0.128
641	0.13
641	0.132
642	0.134
642	0.137
642	0.138
643	0.14
643	0.142
644	0.144
644	0.146
645	0.148
645	0.15
646	0.153
646	0.156
646	0.159
647	0.162
647	0.165
648	0.167
648	0.17
649	0.173
649	0.176
650	0.179
650	0.182
650	0.185
651	0.187
651	0.19
652	0.192
652	0.195
653	0.199
653	0.209
653	0.217
654	0.176
654	0.144
655	0.147
655	0.149
656	0.15
656	0.152
657	0.154
657	0.155
657	0.156
658	0.152
658	0.144
659	0.18
659	0.229
660	0.237
660	0.239
661	0.241
661	0.244
661	0.247
662	0.251
662	0.255
663	0.259
663	0.262
664	0.266
664	0.268
665	0.271
665	0.275
665	0.277
666	0.28
666	0.283
667	0.285
667	0.288
668	0.291
668	0.294
669	0.297
669	0.301
669	0.305
670	0.309
670	0.312
671	0.315
671	0.317
672	0.319
672	0.321
672	0.323
673	0.324
673	0.326
674	0.327
674	0.328
675	0.329
675	0.33
676	0.332
676	0.334
676	0.335
677	0.337
677	0.339
678	0.34
678	0.341
679	0.343
679	0.344
680	0.346
680	0.347
680	0.348
681	0.349
681	0.35
682	0.352
682	0.353
683	0.355
683	0.357
684	0.359
684	0.36
684	0.36
685	0.361
685	0.361
686	0.362
686	0.362
687	0.362
687	0.361
687	0.361
688	0.359
688	0.358
689	0.359
689	0.359
690	0.359
690	0.358
691	0.358
691	0.357
691	0.357
692	0.356
692	0.356
693	0.356
693	0.356
694	0.355
694	0.353
695	0.354
695	0.355
695	0.354
696	0.352
696	0.351
697	0.35
697	0.349
698	0.347
698	0.345
698	0.343
699	0.341
699	0.338
700	0.334
700	0.332
701	0.331
701	0.329
702	0.326
702	0.324
702	0.322
703	0.32
703	0.318
704	0.316
704	0.314
705	0.312
705	0.31
705	0.308
706	0.305
706	0.303
707	0.301
707	0.299
708	0.297
708	0.296
709	0.294
709	0.292
709	0.289
710	0.287
710	0.285
711	0.284
711	0.282
712	0.28
712	0.278
713	0.276
713	0.274
713	0.272
714	0.269
714	0.266
715	0.263
715	0.26
716	0.257
716	0.254
716	0.25
717	0.247
717	0.245
718	0.242
718	0.239
719	0.237
719	0.236
720	0.233
720	0.231
720	0.228
721	0.225
721	0.223
722	0.22
722	0.217
723	0.214
723	0.211
723	0.208
724	0.205
724	0.202
725	0.199
725	0.196
726	0.194
726	0.192
727	0.19
727	0.188
727	0.186
728	0.184
728	0.183
729	0.183
729	0.182
730	0.18
730	0.179
730	0.178
731	0.177
731	0.176
732	0.175
732	0.173
733	0.172
733	0.17
734	0.168
734	0.166
734	0.164
735	0.163
735	0.16
736	0.158
736	0.156
737	0.154
737	0.152
737	0.15
738	0.147
738	0.144
739	0.141
739	0.139
740	0.137
740	0.136
741	0.135
741	0.133
741	0.13
742	0.127
742	0.125
743	0.124
743	0.122
744	0.121
744	0.119
744	0.117
745	0.115
745	0.112
746	0.11
746	0.108
747	0.106
747	0.105
748	0.103
748	0.101
748	0.099
749	0.096
749	0.095
750	0.093
750	0.092
751	0.09
751	0.09
751	0.089
752	0.088
752	0.087
753	0.086
753	0.085
754	0.085
754	0.084
754	0.084
755	0.084
755	0.083
756	0.082
756	0.08
757	0.079
757	0.078
758	0.077
758	0.076
758	0.075
759	0.073
759	0.07
760	0.067
760	0.065
761	0.063
761	0.062
761	0.06
762	0.058
762	0.057
763	0.056
763	0.054
764	0.051
764	0.049
764	0.047
765	0.046
765	0.044
766	0.043
766	0.042
767	0.041
767	0.038
768	0.036
768	0.034
768	0.033
769	0.033
769	0.032
770	0.031
770	0.03
771	0.028
771	0.025
771	0.023
772	0.022
772	0.02
773	0.019
773	0.017
774	0.014
774	0.011
775	0.009
775	0.006
775	0.003
776	-0.001
776	-0.004
777	-0.008
777	-0.011
778	-0.016
778	-0.02
778	-0.024
779	-0.027
779	-0.029
780	-0.033
780	-0.038
781	-0.042
781	-0.047
781	-0.052
782	-0.056
782	-0.062
783	-0.067
783	-0.07
784	-0.074
784	-0.078
784	-0.08
785	-0.084
785	-0.086
786	-0.087
786	-0.085
787	-0.08
787	-0.077
788	-0.076
788	-0.077
788	-0.078
789	-0.08
789	-0.079
790	-0.076
790	-0.075
791	-0.075
791	-0.077
791	-0.079
792	-0.074
792	-0.065
793	-0.059
793	-0.055
794	-0.054
794	-0.055
794	-0.059
795	-0.061
795	-0.061
796	-0.061
796	-0.063
797	-0.071
797	-0.08
797	-0.086
798	-0.091
798	-0.094
799	-0.094
799	-0.094
800	-0.094
800	-0.096
801	-0.1
801	-0.101
801	-0.102
802	-0.103
802	-0.105
803	-0.106
803	-0.106
804	-0.105
804	-0.101
804	-0.094
805	-0.091
805	-0.089
806	-0.087
806	-0.086
807	-0.084
807	-0.084
807	-0.083
808	-0.082
808	-0.083
809	-0.087
809	-0.092
810	-0.095
810	-0.097
810	-0.1
811	-0.102
811	-0.102
812	-0.098
812	-0.095
813	-0.095
813	-0.096
813	-0.097
814	-0.098
814	-0.098
815	-0.096
815	-0.093
816	-0.091
816	-0.092
817	-0.096
817	-0.099
817	-0.1
818	-0.099
818	-0.096
819	-0.091
819	-0.088
820	-0.09
820	-0.091
820	-0.091
821	-0.089
821	-0.085
822	-0.081
822	-0.076
823	-0.071
823	-0.068
823	-0.067
824	-0.063
824	-0.056
825	-0.049
825	-0.042
826	-0.036
826	-0.032
826	-0.027
827	-0.023
827	-0.019
828	-0.016
828	-0.013
829	-0.01
829	-0.007
829	-0.005
830	-0.003
830	0
831	0.003
831	0.006
832	0.008
832	0.01
832	0.012
833	0.013
833	0.014
834	0.016
834	0.016
835	0.017
835	0.017
835	0.018
836	0.019
836	0.019
837	0.02
837	0.021
838	0.021
838	0.021
839	0.021
839	0.021
839	0.021
840	0.021
840	0.021
841	0.021
841	0.021
842	0.021
842	0.022
842	0.022
843	0.022
843	0.023
844	0.023
844	0.024
845	0.025
845	0.025
845	0.026
846	0.027
846	0.028
847	0.029
847	0.03
848	0.03
848	0.031
848	0.032
849	0.032
849	0.033
850	0.033
850	0.033
851	0.033
851	0.033
851	0.033
852	0.033
852	0.033
853	0.033
853	0.033
854	0.034
854	0.034
854	0.034
855	0.034
855	0.034
856	0.034
856	0.034
857	0.034
857	0.033
857	0.033
858	0.032
858	0.032
859	0.031
859	0.031
860	0.031
860	0.03
860	0.029
861	0.029
861	0.029
862	0.028
862	0.027
863	0.026
863	0.026
863	0.025
864	0.025
864	0.025
865	0.025
865	0.025
866	0.025
866	0.025
866	0.026
867	0.027
867	0.028
868	0.029
868	0.03
869	0.031
869	0.032
869	0.032
870	0.031
870	0.031
871	0.031
871	0.03
872	0.03
872	0.029
872	0.028
873	0.027
873	0.027
874	0.026
874	0.027
875	0.027
875	0.027
875	0.027
876	0.028
876	0.028
877	0.028
877	0.028
878	0.028
878	0.027
878	0.027
879	0.026
879	0.026
880	0.026
880	0.025
881	0.025
881	0.025
881	0.026
882	0.026
882	0.027
883	0.027
883	0.028
884	0.028
884	0.029
884	0.029
885	0.029
885	0.029
886	0.029
886	0.03
887	0.03
887	0.03
887	0.03
888	0.03
888	0.029
889	0.029
889	0.03
890	0.03
890	0.03
890	0.03
891	0.03
891	0.029
892	0.03
892	0.03
893	0.03
893	0.031
893	0.032
894	0.033
894	0.033
895	0.034
895	0.034
895	0.034
896	0.035
896	0.036
897	0.037
897	0.037
898	0.038
898	0.039
898	0.039
899	0.04
899	0.041
900	0.041
900	0.042
901	0.042
901	0.043
901	0.043
902	0.044
902	0.044
903	0.043
903	0.043
904	0.042
904	0.041
904	0.041
905	0.039
905	0.038
906	0.037
906	0.036
907	0.034
907	0.033
907	0.033
908	0.032
908	0.032
909	0.032
909	0.032
910	0.032
910	0.032
910	0.033
911	0.033
911	0.034
912	0.035
912	0.036
913	0.037
913	0.037
913	0.038
914	0.038
914	0.038
915	0.038
915	0.038
916	0.037
916	0.037
916	0.036
917	0.035
917	0.034
918	0.034
918	0.033
918	0.033
919	0.032
919	0.031
920	0.031
920	0.031
921	0.031
921	0.031
921	0.03
922	0.03
922	0.029
923	0.028
923	0.028
924	0.027
924	0.027
924	0.026
925	0.025
925	0.024
926	0.023
926	0.022
927	0.022
927	0.021
927	0.021
928	0.021
928	0.021
929	0.021
929	0.022
930	0.023
930	0.024
930	0.026
931	0.027
931	0.029
932	0.031
932	0.033
933	0.035
933	0.037
933	0.038
934	0.039
934	0.039
935	0.04
935	0.04
935	0.04
936	0.04
936	0.04
937	0.04
937	0.04
938	0.04
938	0.039
938	0.039
939	0.039
939	0.039
940	0.039
940	0.039
941	0.039
941	0.039
941	0.039
942	0.039
942	0.039
943	0.038
943	0.038
944	0.038
944	0.038
944	0.038
945	0.038
945	0.038
946	0.037
946	0.037
946	0.036
947	0.036
947	0.035
948	0.035
948	0.034
949	0.033
949	0.033
949	0.032
950	0.032
950	0.031
951	0.031
951	0.03
952	0.03
952	0.03
952	0.03
953	0.03
953	0.03
954	0.03
954	0.03
955	0.03
955	0.03
955	0.03
956	0.031
956	0.031
957	0.031
957	0.031
957	0.031
958	0.031
958	0.031
959	0.03
959	0.03
960	0.029
960	0.028
960	0.027
961	0.025
961	0.024
962	0.023
962	0.022
963	0.022
963	0.021
963	0.021
964	0.02
964	0.021
965	0.021
965	0.022
966	0.023
966	0.025
966	0.026
967	0.027
967	0.028
968	0.029
968	0.03
968	0.03
969	0.031
969	0.031
970	0.031
970	0.031
971	0.031
971	0.031
971	0.031
972	0.032
972	0.032
973	0.033
973	0.034
974	0.035
974	0.036
974	0.036
975	0.037
975	0.038
976	0.039
976	0.04
976	0.04
977	0.04
977	0.04
978	0.04
978	0.04
979	0.04
979	0.04
979	0.04
980	0.04
980	0.04
981	0.04
981	0.04
982	0.04
982	0.041
982	0.041
983	0.041
983	0.042
984	0.042
984	0.042
984	0.042
985	0.042
985	0.041
986	0.041
986	0.04
987	0.039
987	0.038
987	0.038
988	0.037
988	0.036
989	0.036
989	0.035
990	0.035
990	0.034
990	0.035
991	0.035
991	0.036
992	0.036
992	0.036
992	0.036
993	0.036
993	0.036
994	0.036
994	0.036
995	0.035
995	0.035
995	0.035
996	0.034
996	0.034
997	0.033
997	0.033
997	0.033
998	0.034
998	0.034
999	0.035
999	0.035
1000	0.036
1000	0.037
1000	0.037
1001	0.038
1001	0.038
1002	0.039
1002	0.039
1003	0.039
1003	0.038
1003	0.038
1004	0.037
1004	0.037
1005	0.036
1005	0.035
1005	0.033
1006	0.032
1006	0.032
1007	0.031
1007	0.03
1008	0.03
1008	0.03
1008	0.03
1009	0.03
1009	0.03
1010	0.03
1010	0.031
1010	0.031
1011	0.032
1011	0.032
1012	0.033
1012	0.033
1013	0.034
1013	0.034
1013	0.034
1014	0.034
1014	0.033
1015	0.033
1015	0.032
1016	0.032
1016	0.031
1016	0.03
1017	0.029
1017	0.028
1018	0.027
1018	0.026
1018	0.026
1019	0.025
1019	0.025
1020	0.024
1020	0.024
1021	0.024
1021	0.023
1021	0.023
1022	0.023
1022	0.023
1023	0.023
1023	0.022
1023	0.022
1024	0.021
1024	0.02
1025	0.019
1025	0.018
1026	0.017
1026	0.016
1026	0.016
1027	0.015
1027	0.014
1028	0.014
1028	0.014
1028	0.014
1029	0.015
1029	0.015
1030	0.016
1030	0.016
1031	0.017
1031	0.018
1031	0.018
1032	0.018
1032	0.019
1033	0.02
1033	0.02
1033	0.02
1034	0.02
1034	0.02
1035	0.02
1035	0.02
1036	0.02
1036	0.02
1036	0.02
1037	0.02
1037	0.021
1038	0.021
1038	0.021
1039	0.022
1039	0.022
1039	0.023
1040	0.023
1040	0.024
1041	0.024
1041	0.024
1041	0.023
1042	0.023
1042	0.023
1043	0.022
1043	0.022
1044	0.021
1044	0.02
1044	0.019
1045	0.019
1045	0.018
1046	0.017
1046	0.017
1046	0.017
1047	0.017
1047	0.017
1048	0.017
1048	0.017
1049	0.016
1049	0.016
1049	0.016
1050	0.015
1050	0.014
1051	0.014
1051	0.014
1051	0.013
1052	0.013
1052	0.013
1053	0.013
1053	0.013
1053	0.013
1054	0.013
1054	0.014
1055	0.015
1055	0.015
1056	0.014
1056	0.014
1056	0.014
1057	0.013
1057	0.014
1058	0.014
1058	0.014
1058	0.015
1059	0.015
1059	0.015
1060	0.015
1060	0.016
1061	0.016
1061	0.017
1061	0.018
1062	0.018
1062	0.018
1063	0.018
1063	0.018
1063	0.018
1064	0.019
1064	0.019
1065	0.02
1065	0.021
1066	0.021
1066	0.022
1066	0.023
1067	0.024
1067	0.026
1068	0.026
1068	0.027
1068	0.028
1069	0.029
1069	0.029
1070	0.029
1070	0.03
1071	0.031
1071	0.031
1071	0.031
1072	0.031
1072	0.033
1073	0.034
1073	0.035
1073	0.035
1074	0.035
1074	0.036
1075	0.035
1075	0.036
1076	0.035
1076	0.036
1076	0.035
1077	0.035
1077	0.035
1078	0.035
1078	0.036
1078	0.037
1079	0.037
1079	0.039
1080	0.039
1080	0.04
1080	0.041
1081	0.042
1081	0.043
1082	0.044
1082	0.044
1083	0.045
1083	0.045
1083	0.047
1084	0.048
1084	0.05
1085	0.051
1085	0.053
1085	0.055
1086	0.057
1086	0.058
1087	0.06
1087	0.063
1088	0.064
1088	0.066
1088	0.069
1089	0.071
1089	0.074
1090	0.077
1090	0.08
1090	0.083
1091	0.086
1091	0.09
1092	0.094
1092	0.099
1092	0.102
1093	0.106
1093	0.111
1094	0.116
1094	0.119
1095	0.123
1095	0.128
1095	0.135
1096	0.141
1096	0.146
1097	0.154
1097	0.161
1097	0.169
1098	0.176
1098	0.185
1099	0.196
1099	0.208
1100	0.22
1100	0.233
1100	0.247
1101	0.262
1101	0.277
1102	0.298
1102	0.321
1102	0.346
1103	0.375
1103	0.405
1104	0.443
1104	0.483
1104	0.535
1105	0.593
1105	0.663
1106	0.745
1106	0.871
1107	1.049
1107	1.537
1107	-0
1108	-0
1108	-0
1109	-0
1109	-0
1109	-0
1110	-0
1110	-0
1111	-0
1111	-0
