Data from 15c-2-5a_Absorbance__177__01084.txt Node

Date: Tue Jan 16 11:33:08 CET 2024
User: Marek
Spectrometer: MAYP115816
Trigger mode: 0
Integration Time (sec): 2.000000E-1
Scans to average: 10
Electric dark correction enabled: true
Nonlinearity correction enabled: true
Boxcar width: 5
XAxis mode: Wavelengths
Number of Pixels in Spectrum: 2068
>>>>>Begin Spectral Data<<<<<
199	-2.221
199	-2.032
200	-1.897
200	-1.776
201	-1.702
201	-1.65
202	-1.573
202	-1.511
203	-1.461
203	-1.412
204	-1.385
204	-1.359
205	-1.34
205	-1.328
205	-1.325
206	-1.32
206	-1.316
207	-1.313
207	-1.313
208	-1.309
208	-1.307
209	-1.303
209	-1.301
210	-1.3
210	-1.297
211	-1.295
211	-1.295
212	-1.294
212	-1.293
213	-1.291
213	-1.29
213	-1.29
214	-1.288
214	-1.287
215	-1.286
215	-1.286
216	-1.283
216	-1.282
217	-1.279
217	-1.276
218	-1.272
218	-1.268
219	-1.264
219	-1.262
220	-1.26
220	-1.258
221	-1.254
221	-1.253
221	-1.248
222	-1.243
222	-1.238
223	-1.233
223	-1.228
224	-1.223
224	-1.214
225	-1.205
225	-1.195
226	-1.187
226	-1.177
227	-1.164
227	-1.151
228	-1.135
228	-1.118
229	-1.097
229	-1.073
229	-1.048
230	-1.019
230	-0.987
231	-0.952
231	-0.912
232	-0.873
232	-0.829
233	-0.783
233	-0.735
234	-0.687
234	-0.637
235	-0.587
235	-0.538
236	-0.489
236	-0.441
236	-0.393
237	-0.348
237	-0.303
238	-0.261
238	-0.221
239	-0.182
239	-0.146
240	-0.111
240	-0.08
241	-0.049
241	-0.021
242	0.005
242	0.03
243	0.052
243	0.073
243	0.093
244	0.111
244	0.127
245	0.143
245	0.157
246	0.171
246	0.183
247	0.195
247	0.206
248	0.216
248	0.226
249	0.235
249	0.243
250	0.251
250	0.258
250	0.265
251	0.271
251	0.277
252	0.283
252	0.288
253	0.294
253	0.298
254	0.303
254	0.307
255	0.311
255	0.315
256	0.318
256	0.321
257	0.324
257	0.326
258	0.328
258	0.331
258	0.333
259	0.334
259	0.336
260	0.337
260	0.338
261	0.339
261	0.34
262	0.341
262	0.342
263	0.343
263	0.344
264	0.344
264	0.345
265	0.345
265	0.345
265	0.345
266	0.346
266	0.346
267	0.345
267	0.345
268	0.345
268	0.344
269	0.344
269	0.343
270	0.343
270	0.342
271	0.341
271	0.34
272	0.34
272	0.339
272	0.338
273	0.337
273	0.336
274	0.335
274	0.334
275	0.333
275	0.332
276	0.331
276	0.33
277	0.328
277	0.326
278	0.325
278	0.323
278	0.321
279	0.32
279	0.319
280	0.318
280	0.317
281	0.316
281	0.316
282	0.315
282	0.315
283	0.315
283	0.314
284	0.314
284	0.314
285	0.313
285	0.312
285	0.311
286	0.31
286	0.31
287	0.309
287	0.308
288	0.307
288	0.306
289	0.305
289	0.305
290	0.304
290	0.303
291	0.303
291	0.302
292	0.301
292	0.301
292	0.3
293	0.299
293	0.298
294	0.298
294	0.297
295	0.297
295	0.296
296	0.295
296	0.295
297	0.294
297	0.294
298	0.293
298	0.292
298	0.292
299	0.291
299	0.291
300	0.29
300	0.289
301	0.289
301	0.288
302	0.287
302	0.287
303	0.286
303	0.286
304	0.285
304	0.284
305	0.283
305	0.283
305	0.282
306	0.282
306	0.281
307	0.28
307	0.28
308	0.279
308	0.278
309	0.277
309	0.276
310	0.276
310	0.275
311	0.274
311	0.274
311	0.273
312	0.272
312	0.271
313	0.27
313	0.27
314	0.269
314	0.268
315	0.267
315	0.266
316	0.265
316	0.264
317	0.264
317	0.263
318	0.262
318	0.261
318	0.26
319	0.259
319	0.258
320	0.257
320	0.256
321	0.256
321	0.255
322	0.254
322	0.253
323	0.252
323	0.251
324	0.25
324	0.249
324	0.249
325	0.248
325	0.247
326	0.247
326	0.246
327	0.245
327	0.244
328	0.243
328	0.243
329	0.242
329	0.241
330	0.24
330	0.239
330	0.238
331	0.238
331	0.237
332	0.236
332	0.235
333	0.234
333	0.233
334	0.232
334	0.232
335	0.231
335	0.23
336	0.229
336	0.228
336	0.228
337	0.227
337	0.226
338	0.225
338	0.225
339	0.224
339	0.223
340	0.223
340	0.222
341	0.221
341	0.221
342	0.22
342	0.219
342	0.219
343	0.218
343	0.217
344	0.217
344	0.216
345	0.216
345	0.215
346	0.214
346	0.214
347	0.213
347	0.212
348	0.211
348	0.211
348	0.21
349	0.209
349	0.208
350	0.207
350	0.206
351	0.205
351	0.205
352	0.204
352	0.203
353	0.202
353	0.201
354	0.2
354	0.198
354	0.197
355	0.196
355	0.195
356	0.194
356	0.192
357	0.192
357	0.191
358	0.191
358	0.192
359	0.192
359	0.193
360	0.194
360	0.195
360	0.196
361	0.197
361	0.197
362	0.198
362	0.198
363	0.198
363	0.198
364	0.197
364	0.197
365	0.196
365	0.196
366	0.195
366	0.195
366	0.195
367	0.194
367	0.194
368	0.193
368	0.193
369	0.193
369	0.192
370	0.192
370	0.192
371	0.191
371	0.19
372	0.19
372	0.189
372	0.189
373	0.189
373	0.189
374	0.189
374	0.189
375	0.189
375	0.189
376	0.189
376	0.189
377	0.189
377	0.189
378	0.19
378	0.19
378	0.19
379	0.19
379	0.19
380	0.191
380	0.191
381	0.191
381	0.19
382	0.19
382	0.19
383	0.189
383	0.189
383	0.188
384	0.188
384	0.187
385	0.187
385	0.187
386	0.187
386	0.187
387	0.187
387	0.187
388	0.187
388	0.187
389	0.186
389	0.186
389	0.186
390	0.186
390	0.186
391	0.187
391	0.187
392	0.187
392	0.187
393	0.187
393	0.187
394	0.187
394	0.187
394	0.187
395	0.187
395	0.186
396	0.186
396	0.186
397	0.186
397	0.187
398	0.187
398	0.187
399	0.187
399	0.187
400	0.187
400	0.186
400	0.186
401	0.185
401	0.184
402	0.183
402	0.182
403	0.181
403	0.181
404	0.181
404	0.181
405	0.181
405	0.18
405	0.18
406	0.18
406	0.18
407	0.18
407	0.18
408	0.179
408	0.179
409	0.178
409	0.178
410	0.177
410	0.178
411	0.178
411	0.177
411	0.177
412	0.177
412	0.176
413	0.176
413	0.176
414	0.176
414	0.175
415	0.175
415	0.174
416	0.174
416	0.174
416	0.173
417	0.173
417	0.173
418	0.173
418	0.173
419	0.173
419	0.174
420	0.175
420	0.176
421	0.177
421	0.178
421	0.178
422	0.178
422	0.178
423	0.179
423	0.178
424	0.178
424	0.177
425	0.176
425	0.175
426	0.174
426	0.173
427	0.173
427	0.173
427	0.174
428	0.174
428	0.176
429	0.177
429	0.177
430	0.178
430	0.177
431	0.177
431	0.177
432	0.177
432	0.176
432	0.175
433	0.173
433	0.172
434	0.171
434	0.17
435	0.17
435	0.17
436	0.17
436	0.171
437	0.171
437	0.171
437	0.171
438	0.171
438	0.171
439	0.17
439	0.17
440	0.17
440	0.17
441	0.17
441	0.17
442	0.171
442	0.171
442	0.172
443	0.172
443	0.173
444	0.174
444	0.174
445	0.174
445	0.174
446	0.175
446	0.175
447	0.174
447	0.174
447	0.174
448	0.174
448	0.173
449	0.173
449	0.173
450	0.173
450	0.172
451	0.171
451	0.171
452	0.171
452	0.17
452	0.169
453	0.169
453	0.168
454	0.167
454	0.167
455	0.166
455	0.166
456	0.165
456	0.165
457	0.165
457	0.164
458	0.164
458	0.165
458	0.165
459	0.165
459	0.166
460	0.165
460	0.165
461	0.164
461	0.164
462	0.164
462	0.164
463	0.164
463	0.164
463	0.165
464	0.165
464	0.165
465	0.165
465	0.166
466	0.166
466	0.166
467	0.166
467	0.165
467	0.164
468	0.162
468	0.16
469	0.158
469	0.157
470	0.156
470	0.155
471	0.155
471	0.155
472	0.155
472	0.155
472	0.156
473	0.157
473	0.158
474	0.16
474	0.161
475	0.162
475	0.163
476	0.163
476	0.163
477	0.164
477	0.164
477	0.164
478	0.165
478	0.165
479	0.165
479	0.166
480	0.166
480	0.167
481	0.168
481	0.169
482	0.169
482	0.171
482	0.172
483	0.174
483	0.177
484	0.18
484	0.184
485	0.186
485	0.187
486	0.189
486	0.19
487	0.191
487	0.191
487	0.191
488	0.191
488	0.19
489	0.187
489	0.185
490	0.183
490	0.182
491	0.181
491	0.181
492	0.182
492	0.182
492	0.182
493	0.182
493	0.183
494	0.185
494	0.187
495	0.19
495	0.191
496	0.192
496	0.193
496	0.194
497	0.195
497	0.196
498	0.196
498	0.197
499	0.197
499	0.196
500	0.197
500	0.198
501	0.2
501	0.201
501	0.203
502	0.205
502	0.206
503	0.208
503	0.209
504	0.21
504	0.211
505	0.211
505	0.211
506	0.211
506	0.211
506	0.211
507	0.211
507	0.211
508	0.211
508	0.212
509	0.212
509	0.212
510	0.213
510	0.213
511	0.213
511	0.213
511	0.213
512	0.213
512	0.212
513	0.212
513	0.211
514	0.21
514	0.209
515	0.209
515	0.208
515	0.206
516	0.205
516	0.204
517	0.205
517	0.205
518	0.206
518	0.206
519	0.205
519	0.204
520	0.202
520	0.2
520	0.198
521	0.196
521	0.193
522	0.19
522	0.186
523	0.183
523	0.182
524	0.181
524	0.181
524	0.182
525	0.183
525	0.186
526	0.189
526	0.192
527	0.196
527	0.2
528	0.203
528	0.206
529	0.208
529	0.21
529	0.211
530	0.212
530	0.213
531	0.214
531	0.214
532	0.214
532	0.214
533	0.215
533	0.215
533	0.215
534	0.216
534	0.215
535	0.214
535	0.214
536	0.214
536	0.214
537	0.213
537	0.213
538	0.213
538	0.211
538	0.21
539	0.209
539	0.209
540	0.208
540	0.207
541	0.206
541	0.204
542	0.202
542	0.2
542	0.199
543	0.198
543	0.197
544	0.196
544	0.194
545	0.193
545	0.193
546	0.193
546	0.192
547	0.191
547	0.189
547	0.187
548	0.184
548	0.182
549	0.18
549	0.178
550	0.176
550	0.174
551	0.172
551	0.17
551	0.168
552	0.167
552	0.166
553	0.166
553	0.166
554	0.166
554	0.165
555	0.164
555	0.161
556	0.158
556	0.155
556	0.152
557	0.149
557	0.147
558	0.145
558	0.143
559	0.142
559	0.141
560	0.141
560	0.141
560	0.141
561	0.142
561	0.142
562	0.142
562	0.141
563	0.14
563	0.138
564	0.135
564	0.132
564	0.129
565	0.127
565	0.125
566	0.124
566	0.123
567	0.123
567	0.124
568	0.126
568	0.128
568	0.13
569	0.133
569	0.136
570	0.138
570	0.139
571	0.14
571	0.141
572	0.142
572	0.143
573	0.143
573	0.143
573	0.143
574	0.142
574	0.141
575	0.141
575	0.142
576	0.143
576	0.143
577	0.142
577	0.141
577	0.14
578	0.139
578	0.139
579	0.14
579	0.142
580	0.142
580	0.141
581	0.139
581	0.136
581	0.135
582	0.135
582	0.134
583	0.135
583	0.134
584	0.132
584	0.128
585	0.126
585	0.124
585	0.123
586	0.123
586	0.123
587	0.121
587	0.119
588	0.117
588	0.114
589	0.112
589	0.11
590	0.109
590	0.108
590	0.109
591	0.11
591	0.11
592	0.11
592	0.109
593	0.109
593	0.109
594	0.108
594	0.108
594	0.107
595	0.106
595	0.105
596	0.103
596	0.103
597	0.105
597	0.107
598	0.109
598	0.111
598	0.112
599	0.113
599	0.114
600	0.113
600	0.112
601	0.111
601	0.11
602	0.108
602	0.107
602	0.105
603	0.104
603	0.104
604	0.104
604	0.105
605	0.106
605	0.108
606	0.109
606	0.109
606	0.108
607	0.108
607	0.107
608	0.107
608	0.105
609	0.104
609	0.103
610	0.101
610	0.099
610	0.098
611	0.098
611	0.098
612	0.099
612	0.1
613	0.101
613	0.103
614	0.103
614	0.103
614	0.103
615	0.103
615	0.102
616	0.102
616	0.101
617	0.1
617	0.099
618	0.098
618	0.097
618	0.096
619	0.096
619	0.097
620	0.098
620	0.099
621	0.1
621	0.101
622	0.102
622	0.102
622	0.103
623	0.103
623	0.103
624	0.104
624	0.104
625	0.104
625	0.104
626	0.104
626	0.104
626	0.104
627	0.104
627	0.104
628	0.104
628	0.105
629	0.105
629	0.105
630	0.105
630	0.105
630	0.106
631	0.106
631	0.107
632	0.107
632	0.107
633	0.108
633	0.108
634	0.109
634	0.111
634	0.114
635	0.116
635	0.117
636	0.118
636	0.12
637	0.121
637	0.123
638	0.124
638	0.126
638	0.127
639	0.127
639	0.128
640	0.129
640	0.13
641	0.132
641	0.133
642	0.134
642	0.136
642	0.138
643	0.139
643	0.14
644	0.142
644	0.143
645	0.145
645	0.147
646	0.149
646	0.152
646	0.156
647	0.16
647	0.164
648	0.167
648	0.171
649	0.174
649	0.177
650	0.18
650	0.184
650	0.187
651	0.189
651	0.191
652	0.193
652	0.194
653	0.197
653	0.205
653	0.211
654	0.172
654	0.143
655	0.15
655	0.152
656	0.153
656	0.155
657	0.157
657	0.158
657	0.159
658	0.156
658	0.15
659	0.186
659	0.233
660	0.233
660	0.235
661	0.237
661	0.238
661	0.241
662	0.244
662	0.247
663	0.25
663	0.254
664	0.257
664	0.259
665	0.261
665	0.264
665	0.266
666	0.269
666	0.272
667	0.274
667	0.277
668	0.28
668	0.283
669	0.286
669	0.289
669	0.293
670	0.298
670	0.301
671	0.304
671	0.306
672	0.307
672	0.308
672	0.309
673	0.31
673	0.31
674	0.311
674	0.311
675	0.311
675	0.311
676	0.312
676	0.315
676	0.316
677	0.319
677	0.322
678	0.324
678	0.326
679	0.328
679	0.329
680	0.331
680	0.332
680	0.333
681	0.333
681	0.334
682	0.335
682	0.336
683	0.338
683	0.34
684	0.343
684	0.345
684	0.346
685	0.347
685	0.349
686	0.351
686	0.352
687	0.353
687	0.353
687	0.352
688	0.351
688	0.35
689	0.35
689	0.351
690	0.351
690	0.351
691	0.35
691	0.351
691	0.351
692	0.351
692	0.351
693	0.351
693	0.352
694	0.352
694	0.351
695	0.351
695	0.352
695	0.353
696	0.353
696	0.351
697	0.35
697	0.349
698	0.348
698	0.345
698	0.343
699	0.341
699	0.339
700	0.335
700	0.332
701	0.331
701	0.329
702	0.328
702	0.326
702	0.325
703	0.324
703	0.323
704	0.321
704	0.32
705	0.32
705	0.319
705	0.318
706	0.317
706	0.316
707	0.314
707	0.312
708	0.31
708	0.308
709	0.307
709	0.305
709	0.302
710	0.299
710	0.296
711	0.293
711	0.291
712	0.289
712	0.287
713	0.286
713	0.283
713	0.281
714	0.278
714	0.275
715	0.272
715	0.27
716	0.266
716	0.264
716	0.261
717	0.259
717	0.256
718	0.254
718	0.251
719	0.25
719	0.249
720	0.247
720	0.246
720	0.244
721	0.241
721	0.238
722	0.235
722	0.232
723	0.229
723	0.227
723	0.224
724	0.221
724	0.218
725	0.215
725	0.212
726	0.21
726	0.208
727	0.206
727	0.204
727	0.202
728	0.2
728	0.199
729	0.198
729	0.197
730	0.196
730	0.194
730	0.193
731	0.192
731	0.191
732	0.19
732	0.189
733	0.187
733	0.185
734	0.182
734	0.18
734	0.178
735	0.177
735	0.175
736	0.172
736	0.17
737	0.167
737	0.166
737	0.164
738	0.161
738	0.158
739	0.155
739	0.152
740	0.15
740	0.148
741	0.146
741	0.143
741	0.14
742	0.135
742	0.131
743	0.128
743	0.125
744	0.123
744	0.121
744	0.118
745	0.116
745	0.113
746	0.111
746	0.109
747	0.108
747	0.108
748	0.108
748	0.107
748	0.107
749	0.106
749	0.106
750	0.106
750	0.105
751	0.105
751	0.105
751	0.105
752	0.104
752	0.102
753	0.101
753	0.1
754	0.099
754	0.098
754	0.098
755	0.098
755	0.098
756	0.097
756	0.095
757	0.094
757	0.093
758	0.092
758	0.09
758	0.089
759	0.087
759	0.085
760	0.081
760	0.078
761	0.075
761	0.073
761	0.072
762	0.07
762	0.068
763	0.068
763	0.065
764	0.062
764	0.06
764	0.058
765	0.056
765	0.054
766	0.052
766	0.052
767	0.051
767	0.049
768	0.045
768	0.043
768	0.042
769	0.041
769	0.04
770	0.039
770	0.038
771	0.035
771	0.032
771	0.029
772	0.026
772	0.023
773	0.021
773	0.017
774	0.014
774	0.01
775	0.007
775	0.003
775	-0.001
776	-0.006
776	-0.011
777	-0.016
777	-0.021
778	-0.026
778	-0.033
778	-0.038
779	-0.043
779	-0.045
780	-0.048
780	-0.053
781	-0.056
781	-0.059
781	-0.062
782	-0.064
782	-0.068
783	-0.07
783	-0.071
784	-0.072
784	-0.075
784	-0.077
785	-0.078
785	-0.08
786	-0.081
786	-0.079
787	-0.075
787	-0.071
788	-0.07
788	-0.071
788	-0.072
789	-0.074
789	-0.073
790	-0.07
790	-0.069
791	-0.07
791	-0.071
791	-0.074
792	-0.068
792	-0.059
793	-0.053
793	-0.05
794	-0.048
794	-0.05
794	-0.053
795	-0.055
795	-0.055
796	-0.055
796	-0.057
797	-0.065
797	-0.074
797	-0.08
798	-0.085
798	-0.088
799	-0.089
799	-0.088
800	-0.089
800	-0.091
801	-0.094
801	-0.095
801	-0.096
802	-0.098
802	-0.099
803	-0.1
803	-0.101
804	-0.1
804	-0.095
804	-0.089
805	-0.085
805	-0.083
806	-0.081
806	-0.08
807	-0.079
807	-0.078
807	-0.077
808	-0.077
808	-0.077
809	-0.081
809	-0.086
810	-0.089
810	-0.091
810	-0.094
811	-0.096
811	-0.096
812	-0.093
812	-0.09
813	-0.09
813	-0.091
813	-0.092
814	-0.092
814	-0.092
815	-0.09
815	-0.087
816	-0.085
816	-0.086
817	-0.09
817	-0.094
817	-0.094
818	-0.094
818	-0.09
819	-0.085
819	-0.083
820	-0.084
820	-0.086
820	-0.087
821	-0.087
821	-0.086
822	-0.083
822	-0.08
823	-0.077
823	-0.075
823	-0.075
824	-0.071
824	-0.065
825	-0.056
825	-0.047
826	-0.038
826	-0.03
826	-0.022
827	-0.015
827	-0.008
828	-0.002
828	0.003
829	0.008
829	0.012
829	0.015
830	0.018
830	0.021
831	0.024
831	0.028
832	0.03
832	0.033
832	0.035
833	0.037
833	0.039
834	0.041
834	0.043
835	0.044
835	0.045
835	0.046
836	0.047
836	0.048
837	0.049
837	0.049
838	0.049
838	0.049
839	0.05
839	0.051
839	0.051
840	0.052
840	0.053
841	0.053
841	0.055
842	0.056
842	0.057
842	0.059
843	0.06
843	0.062
844	0.063
844	0.064
845	0.066
845	0.067
845	0.069
846	0.07
846	0.072
847	0.073
847	0.075
848	0.076
848	0.077
848	0.079
849	0.08
849	0.08
850	0.081
850	0.081
851	0.082
851	0.082
851	0.083
852	0.083
852	0.084
853	0.084
853	0.085
854	0.085
854	0.086
854	0.086
855	0.086
855	0.086
856	0.086
856	0.086
857	0.086
857	0.085
857	0.084
858	0.083
858	0.082
859	0.081
859	0.081
860	0.08
860	0.08
860	0.079
861	0.079
861	0.079
862	0.078
862	0.078
863	0.079
863	0.079
863	0.079
864	0.08
864	0.081
865	0.082
865	0.083
866	0.084
866	0.085
866	0.087
867	0.088
867	0.089
868	0.09
868	0.091
869	0.091
869	0.092
869	0.092
870	0.092
870	0.092
871	0.092
871	0.092
872	0.092
872	0.091
872	0.091
873	0.091
873	0.091
874	0.092
874	0.092
875	0.093
875	0.093
875	0.094
876	0.094
876	0.095
877	0.095
877	0.095
878	0.094
878	0.093
878	0.093
879	0.092
879	0.09
880	0.089
880	0.088
881	0.087
881	0.086
881	0.086
882	0.086
882	0.086
883	0.086
883	0.086
884	0.087
884	0.088
884	0.088
885	0.089
885	0.09
886	0.091
886	0.092
887	0.092
887	0.093
887	0.093
888	0.093
888	0.093
889	0.094
889	0.094
890	0.094
890	0.095
890	0.095
891	0.095
891	0.095
892	0.095
892	0.095
893	0.096
893	0.096
893	0.096
894	0.096
894	0.096
895	0.097
895	0.097
895	0.097
896	0.098
896	0.098
897	0.099
897	0.099
898	0.099
898	0.099
898	0.099
899	0.1
899	0.1
900	0.1
900	0.1
901	0.1
901	0.1
901	0.101
902	0.101
902	0.102
903	0.102
903	0.102
904	0.102
904	0.102
904	0.102
905	0.101
905	0.101
906	0.1
906	0.1
907	0.1
907	0.1
907	0.1
908	0.1
908	0.1
909	0.101
909	0.101
910	0.101
910	0.102
910	0.102
911	0.102
911	0.102
912	0.102
912	0.103
913	0.103
913	0.103
913	0.103
914	0.104
914	0.104
915	0.103
915	0.103
916	0.103
916	0.102
916	0.101
917	0.101
917	0.1
918	0.099
918	0.098
918	0.097
919	0.097
919	0.097
920	0.096
920	0.096
921	0.096
921	0.096
921	0.096
922	0.095
922	0.095
923	0.094
923	0.094
924	0.094
924	0.093
924	0.092
925	0.091
925	0.091
926	0.09
926	0.089
927	0.088
927	0.088
927	0.088
928	0.087
928	0.088
929	0.088
929	0.089
930	0.09
930	0.091
930	0.092
931	0.093
931	0.095
932	0.096
932	0.098
933	0.099
933	0.101
933	0.102
934	0.103
934	0.104
935	0.104
935	0.105
935	0.106
936	0.106
936	0.107
937	0.107
937	0.108
938	0.109
938	0.11
938	0.111
939	0.111
939	0.112
940	0.113
940	0.114
941	0.114
941	0.115
941	0.115
942	0.115
942	0.114
943	0.114
943	0.113
944	0.113
944	0.113
944	0.113
945	0.113
945	0.113
946	0.114
946	0.114
946	0.114
947	0.115
947	0.115
948	0.115
948	0.115
949	0.115
949	0.115
949	0.114
950	0.114
950	0.114
951	0.113
951	0.113
952	0.112
952	0.112
952	0.112
953	0.112
953	0.112
954	0.112
954	0.112
955	0.112
955	0.113
955	0.114
956	0.115
956	0.115
957	0.116
957	0.116
957	0.116
958	0.116
958	0.116
959	0.116
959	0.115
960	0.114
960	0.114
960	0.113
961	0.112
961	0.112
962	0.111
962	0.111
963	0.111
963	0.111
963	0.112
964	0.112
964	0.112
965	0.113
965	0.113
966	0.114
966	0.114
966	0.114
967	0.114
967	0.114
968	0.114
968	0.113
968	0.112
969	0.111
969	0.11
970	0.11
970	0.109
971	0.108
971	0.107
971	0.106
972	0.106
972	0.106
973	0.106
973	0.106
974	0.107
974	0.107
974	0.108
975	0.108
975	0.109
976	0.11
976	0.11
976	0.11
977	0.11
977	0.11
978	0.109
978	0.109
979	0.109
979	0.108
979	0.108
980	0.107
980	0.106
981	0.106
981	0.105
982	0.105
982	0.105
982	0.105
983	0.105
983	0.104
984	0.104
984	0.104
984	0.104
985	0.103
985	0.102
986	0.102
986	0.101
987	0.1
987	0.099
987	0.098
988	0.097
988	0.097
989	0.096
989	0.096
990	0.096
990	0.096
990	0.097
991	0.097
991	0.098
992	0.099
992	0.099
992	0.1
993	0.1
993	0.101
994	0.101
994	0.101
995	0.101
995	0.101
995	0.101
996	0.101
996	0.1
997	0.1
997	0.1
997	0.1
998	0.1
998	0.1
999	0.101
999	0.101
1000	0.101
1000	0.102
1000	0.102
1001	0.103
1001	0.104
1002	0.104
1002	0.104
1003	0.105
1003	0.105
1003	0.105
1004	0.105
1004	0.105
1005	0.105
1005	0.105
1005	0.104
1006	0.104
1006	0.104
1007	0.103
1007	0.103
1008	0.102
1008	0.102
1008	0.102
1009	0.102
1009	0.102
1010	0.102
1010	0.102
1010	0.102
1011	0.102
1011	0.103
1012	0.103
1012	0.103
1013	0.103
1013	0.103
1013	0.103
1014	0.102
1014	0.102
1015	0.101
1015	0.101
1016	0.101
1016	0.1
1016	0.1
1017	0.1
1017	0.099
1018	0.099
1018	0.099
1018	0.099
1019	0.098
1019	0.098
1020	0.098
1020	0.097
1021	0.097
1021	0.097
1021	0.097
1022	0.096
1022	0.096
1023	0.096
1023	0.096
1023	0.096
1024	0.095
1024	0.094
1025	0.094
1025	0.093
1026	0.092
1026	0.092
1026	0.091
1027	0.091
1027	0.091
1028	0.091
1028	0.091
1028	0.091
1029	0.091
1029	0.091
1030	0.091
1030	0.092
1031	0.092
1031	0.092
1031	0.093
1032	0.093
1032	0.094
1033	0.095
1033	0.095
1033	0.095
1034	0.096
1034	0.096
1035	0.096
1035	0.097
1036	0.097
1036	0.098
1036	0.099
1037	0.1
1037	0.101
1038	0.102
1038	0.103
1039	0.105
1039	0.106
1039	0.107
1040	0.108
1040	0.109
1041	0.109
1041	0.109
1041	0.109
1042	0.109
1042	0.109
1043	0.108
1043	0.108
1044	0.108
1044	0.107
1044	0.107
1045	0.106
1045	0.106
1046	0.105
1046	0.105
1046	0.105
1047	0.105
1047	0.105
1048	0.105
1048	0.105
1049	0.104
1049	0.104
1049	0.104
1050	0.104
1050	0.104
1051	0.105
1051	0.105
1051	0.106
1052	0.106
1052	0.106
1053	0.106
1053	0.107
1053	0.108
1054	0.108
1054	0.109
1055	0.109
1055	0.11
1056	0.11
1056	0.111
1056	0.111
1057	0.112
1057	0.113
1058	0.115
1058	0.116
1058	0.118
1059	0.12
1059	0.122
1060	0.124
1060	0.126
1061	0.128
1061	0.13
1061	0.131
1062	0.133
1062	0.134
1063	0.135
1063	0.136
1063	0.136
1064	0.138
1064	0.139
1065	0.14
1065	0.141
1066	0.143
1066	0.144
1066	0.146
1067	0.148
1067	0.15
1068	0.151
1068	0.153
1068	0.154
1069	0.156
1069	0.157
1070	0.158
1070	0.16
1071	0.161
1071	0.164
1071	0.165
1072	0.167
1072	0.17
1073	0.173
1073	0.176
1073	0.178
1074	0.181
1074	0.183
1075	0.185
1075	0.187
1076	0.189
1076	0.192
1076	0.194
1077	0.196
1077	0.198
1078	0.2
1078	0.204
1078	0.207
1079	0.211
1079	0.215
1080	0.219
1080	0.223
1080	0.226
1081	0.229
1081	0.233
1082	0.237
1082	0.241
1083	0.245
1083	0.25
1083	0.256
1084	0.261
1084	0.267
1085	0.273
1085	0.28
1085	0.287
1086	0.293
1086	0.299
1087	0.306
1087	0.314
1088	0.321
1088	0.328
1088	0.337
1089	0.347
1089	0.358
1090	0.372
1090	0.386
1090	0.401
1091	0.418
1091	0.438
1092	0.457
1092	0.479
1092	0.503
1093	0.524
1093	0.553
1094	0.582
1094	0.615
1095	0.651
1095	0.694
1095	0.752
1096	0.81
1096	0.886
1097	0.993
1097	1.122
1097	1.36
1098	1.839
1098	-0
1099	-0
1099	-0
1100	-0
1100	-0
1100	-0
1101	-0
1101	-0
1102	-0
1102	-0
1102	-0
1103	-0
1103	-0
1104	-0
1104	-0
1104	-0
1105	-0
1105	-0
1106	-0
1106	-0
1107	-0
1107	-0
1107	-0
1108	-0
1108	-0
1109	-0
1109	-0
1109	-0
1110	-0
1110	-0
1111	-0
1111	-0
