Data from 15c-2-5a_Absorbance__361__01268.txt Node

Date: Tue Jan 16 11:39:16 CET 2024
User: Marek
Spectrometer: MAYP115816
Trigger mode: 0
Integration Time (sec): 2.000000E-1
Scans to average: 10
Electric dark correction enabled: true
Nonlinearity correction enabled: true
Boxcar width: 5
XAxis mode: Wavelengths
Number of Pixels in Spectrum: 2068
>>>>>Begin Spectral Data<<<<<
199	-2.222
199	-2.033
200	-1.897
200	-1.777
201	-1.702
201	-1.65
202	-1.573
202	-1.51
203	-1.461
203	-1.411
204	-1.384
204	-1.359
205	-1.339
205	-1.327
205	-1.324
206	-1.319
206	-1.315
207	-1.313
207	-1.313
208	-1.308
208	-1.307
209	-1.303
209	-1.301
210	-1.299
210	-1.297
211	-1.295
211	-1.295
212	-1.294
212	-1.293
213	-1.291
213	-1.29
213	-1.29
214	-1.288
214	-1.287
215	-1.286
215	-1.286
216	-1.283
216	-1.281
217	-1.279
217	-1.276
218	-1.272
218	-1.268
219	-1.264
219	-1.263
220	-1.261
220	-1.259
221	-1.255
221	-1.253
221	-1.249
222	-1.244
222	-1.239
223	-1.234
223	-1.229
224	-1.224
224	-1.215
225	-1.206
225	-1.197
226	-1.188
226	-1.178
227	-1.164
227	-1.151
228	-1.135
228	-1.118
229	-1.097
229	-1.073
229	-1.048
230	-1.018
230	-0.986
231	-0.951
231	-0.912
232	-0.872
232	-0.829
233	-0.782
233	-0.734
234	-0.686
234	-0.636
235	-0.587
235	-0.538
236	-0.488
236	-0.44
236	-0.392
237	-0.346
237	-0.301
238	-0.259
238	-0.219
239	-0.18
239	-0.144
240	-0.109
240	-0.077
241	-0.047
241	-0.019
242	0.007
242	0.032
243	0.055
243	0.076
243	0.096
244	0.115
244	0.132
245	0.147
245	0.162
246	0.175
246	0.188
247	0.2
247	0.211
248	0.221
248	0.231
249	0.24
249	0.248
250	0.255
250	0.263
250	0.27
251	0.277
251	0.283
252	0.289
252	0.294
253	0.3
253	0.304
254	0.309
254	0.313
255	0.317
255	0.32
256	0.324
256	0.327
257	0.33
257	0.332
258	0.334
258	0.336
258	0.339
259	0.34
259	0.342
260	0.344
260	0.345
261	0.346
261	0.347
262	0.348
262	0.348
263	0.349
263	0.35
264	0.351
264	0.351
265	0.352
265	0.352
265	0.352
266	0.352
266	0.352
267	0.352
267	0.352
268	0.352
268	0.351
269	0.35
269	0.349
270	0.348
270	0.348
271	0.347
271	0.346
272	0.345
272	0.345
272	0.344
273	0.343
273	0.342
274	0.341
274	0.34
275	0.339
275	0.338
276	0.337
276	0.335
277	0.334
277	0.332
278	0.33
278	0.329
278	0.327
279	0.325
279	0.324
280	0.324
280	0.323
281	0.322
281	0.321
282	0.321
282	0.321
283	0.32
283	0.32
284	0.32
284	0.319
285	0.318
285	0.317
285	0.316
286	0.316
286	0.315
287	0.314
287	0.313
288	0.312
288	0.312
289	0.311
289	0.31
290	0.309
290	0.308
291	0.308
291	0.307
292	0.306
292	0.305
292	0.305
293	0.304
293	0.303
294	0.302
294	0.302
295	0.301
295	0.301
296	0.3
296	0.299
297	0.299
297	0.298
298	0.297
298	0.297
298	0.296
299	0.296
299	0.295
300	0.294
300	0.293
301	0.293
301	0.292
302	0.291
302	0.291
303	0.29
303	0.29
304	0.289
304	0.289
305	0.288
305	0.287
305	0.287
306	0.286
306	0.285
307	0.285
307	0.284
308	0.283
308	0.282
309	0.281
309	0.28
310	0.28
310	0.279
311	0.278
311	0.278
311	0.277
312	0.276
312	0.275
313	0.275
313	0.274
314	0.273
314	0.272
315	0.271
315	0.27
316	0.269
316	0.268
317	0.268
317	0.267
318	0.266
318	0.265
318	0.264
319	0.263
319	0.262
320	0.261
320	0.26
321	0.259
321	0.258
322	0.258
322	0.257
323	0.256
323	0.255
324	0.254
324	0.253
324	0.252
325	0.252
325	0.251
326	0.25
326	0.249
327	0.248
327	0.248
328	0.247
328	0.246
329	0.245
329	0.244
330	0.243
330	0.242
330	0.241
331	0.241
331	0.24
332	0.239
332	0.238
333	0.237
333	0.236
334	0.235
334	0.234
335	0.234
335	0.233
336	0.232
336	0.231
336	0.231
337	0.23
337	0.229
338	0.229
338	0.228
339	0.227
339	0.227
340	0.226
340	0.225
341	0.225
341	0.224
342	0.223
342	0.222
342	0.222
343	0.221
343	0.22
344	0.22
344	0.219
345	0.218
345	0.218
346	0.217
346	0.217
347	0.216
347	0.215
348	0.214
348	0.214
348	0.213
349	0.212
349	0.211
350	0.21
350	0.209
351	0.208
351	0.207
352	0.206
352	0.205
353	0.204
353	0.203
354	0.201
354	0.2
354	0.199
355	0.198
355	0.197
356	0.195
356	0.195
357	0.194
357	0.193
358	0.193
358	0.194
359	0.194
359	0.195
360	0.196
360	0.197
360	0.198
361	0.199
361	0.199
362	0.2
362	0.2
363	0.2
363	0.2
364	0.2
364	0.199
365	0.199
365	0.198
366	0.198
366	0.197
366	0.197
367	0.197
367	0.197
368	0.196
368	0.195
369	0.195
369	0.195
370	0.194
370	0.194
371	0.193
371	0.193
372	0.192
372	0.192
372	0.191
373	0.191
373	0.191
374	0.191
374	0.191
375	0.191
375	0.191
376	0.191
376	0.191
377	0.191
377	0.192
378	0.192
378	0.192
378	0.192
379	0.193
379	0.193
380	0.193
380	0.193
381	0.193
381	0.193
382	0.193
382	0.192
383	0.192
383	0.191
383	0.191
384	0.191
384	0.19
385	0.19
385	0.19
386	0.19
386	0.19
387	0.19
387	0.19
388	0.189
388	0.189
389	0.189
389	0.188
389	0.188
390	0.188
390	0.189
391	0.189
391	0.19
392	0.19
392	0.19
393	0.19
393	0.19
394	0.19
394	0.19
394	0.19
395	0.19
395	0.189
396	0.189
396	0.189
397	0.19
397	0.19
398	0.19
398	0.19
399	0.19
399	0.19
400	0.19
400	0.189
400	0.189
401	0.188
401	0.187
402	0.186
402	0.185
403	0.184
403	0.184
404	0.184
404	0.184
405	0.184
405	0.183
405	0.183
406	0.183
406	0.183
407	0.183
407	0.183
408	0.182
408	0.182
409	0.181
409	0.181
410	0.18
410	0.18
411	0.18
411	0.18
411	0.18
412	0.179
412	0.179
413	0.179
413	0.178
414	0.178
414	0.178
415	0.177
415	0.177
416	0.176
416	0.176
416	0.176
417	0.176
417	0.175
418	0.175
418	0.176
419	0.176
419	0.177
420	0.178
420	0.179
421	0.18
421	0.18
421	0.181
422	0.181
422	0.181
423	0.181
423	0.181
424	0.18
424	0.179
425	0.178
425	0.177
426	0.176
426	0.175
427	0.175
427	0.175
427	0.176
428	0.177
428	0.177
429	0.178
429	0.179
430	0.179
430	0.18
431	0.179
431	0.179
432	0.179
432	0.178
432	0.177
433	0.176
433	0.175
434	0.173
434	0.173
435	0.173
435	0.173
436	0.173
436	0.173
437	0.173
437	0.173
437	0.174
438	0.173
438	0.173
439	0.173
439	0.173
440	0.172
440	0.172
441	0.172
441	0.172
442	0.173
442	0.173
442	0.174
443	0.175
443	0.175
444	0.176
444	0.176
445	0.177
445	0.177
446	0.177
446	0.177
447	0.177
447	0.177
447	0.176
448	0.176
448	0.176
449	0.176
449	0.175
450	0.175
450	0.175
451	0.174
451	0.173
452	0.173
452	0.172
452	0.172
453	0.171
453	0.17
454	0.17
454	0.169
455	0.168
455	0.168
456	0.167
456	0.167
457	0.167
457	0.167
458	0.166
458	0.167
458	0.167
459	0.167
459	0.168
460	0.167
460	0.166
461	0.166
461	0.165
462	0.165
462	0.165
463	0.165
463	0.166
463	0.167
464	0.167
464	0.167
465	0.168
465	0.168
466	0.168
466	0.168
467	0.168
467	0.168
467	0.166
468	0.165
468	0.162
469	0.16
469	0.159
470	0.158
470	0.157
471	0.157
471	0.157
472	0.157
472	0.157
472	0.158
473	0.159
473	0.161
474	0.162
474	0.163
475	0.164
475	0.164
476	0.165
476	0.165
477	0.165
477	0.165
477	0.166
478	0.166
478	0.166
479	0.167
479	0.167
480	0.168
480	0.169
481	0.17
481	0.171
482	0.172
482	0.173
482	0.174
483	0.176
483	0.179
484	0.183
484	0.186
485	0.188
485	0.19
486	0.191
486	0.193
487	0.193
487	0.194
487	0.194
488	0.194
488	0.192
489	0.189
489	0.187
490	0.186
490	0.185
491	0.184
491	0.184
492	0.184
492	0.184
492	0.185
493	0.185
493	0.186
494	0.188
494	0.19
495	0.192
495	0.193
496	0.194
496	0.195
496	0.195
497	0.196
497	0.197
498	0.197
498	0.198
499	0.198
499	0.198
500	0.198
500	0.2
501	0.202
501	0.203
501	0.205
502	0.207
502	0.208
503	0.21
503	0.211
504	0.212
504	0.213
505	0.213
505	0.213
506	0.213
506	0.213
506	0.213
507	0.213
507	0.214
508	0.213
508	0.214
509	0.214
509	0.215
510	0.215
510	0.216
511	0.215
511	0.215
511	0.214
512	0.214
512	0.214
513	0.214
513	0.213
514	0.212
514	0.211
515	0.21
515	0.208
515	0.207
516	0.207
516	0.206
517	0.207
517	0.207
518	0.208
518	0.207
519	0.207
519	0.205
520	0.203
520	0.201
520	0.198
521	0.196
521	0.193
522	0.189
522	0.186
523	0.183
523	0.182
524	0.182
524	0.183
524	0.184
525	0.187
525	0.19
526	0.193
526	0.196
527	0.2
527	0.204
528	0.207
528	0.209
529	0.211
529	0.212
529	0.213
530	0.214
530	0.215
531	0.216
531	0.217
532	0.216
532	0.216
533	0.217
533	0.217
533	0.217
534	0.217
534	0.217
535	0.216
535	0.215
536	0.215
536	0.215
537	0.214
537	0.214
538	0.213
538	0.212
538	0.211
539	0.21
539	0.21
540	0.209
540	0.208
541	0.207
541	0.205
542	0.204
542	0.202
542	0.201
543	0.2
543	0.199
544	0.197
544	0.196
545	0.195
545	0.194
546	0.194
546	0.194
547	0.193
547	0.191
547	0.188
548	0.186
548	0.183
549	0.181
549	0.179
550	0.177
550	0.175
551	0.173
551	0.171
551	0.169
552	0.168
552	0.167
553	0.167
553	0.167
554	0.167
554	0.166
555	0.164
555	0.162
556	0.159
556	0.156
556	0.153
557	0.15
557	0.147
558	0.145
558	0.143
559	0.142
559	0.141
560	0.141
560	0.141
560	0.141
561	0.141
561	0.142
562	0.142
562	0.141
563	0.14
563	0.138
564	0.135
564	0.132
564	0.129
565	0.127
565	0.126
566	0.125
566	0.124
567	0.124
567	0.125
568	0.127
568	0.129
568	0.131
569	0.134
569	0.137
570	0.139
570	0.14
571	0.141
571	0.142
572	0.143
572	0.144
573	0.144
573	0.144
573	0.143
574	0.142
574	0.142
575	0.141
575	0.142
576	0.143
576	0.143
577	0.142
577	0.141
577	0.14
578	0.139
578	0.139
579	0.14
579	0.142
580	0.143
580	0.141
581	0.139
581	0.137
581	0.135
582	0.135
582	0.135
583	0.135
583	0.135
584	0.132
584	0.129
585	0.126
585	0.124
585	0.124
586	0.124
586	0.124
587	0.122
587	0.12
588	0.118
588	0.115
589	0.113
589	0.112
590	0.111
590	0.11
590	0.11
591	0.111
591	0.111
592	0.111
592	0.111
593	0.11
593	0.11
594	0.109
594	0.108
594	0.108
595	0.107
595	0.106
596	0.104
596	0.104
597	0.106
597	0.109
598	0.11
598	0.112
598	0.113
599	0.114
599	0.115
600	0.114
600	0.113
601	0.112
601	0.111
602	0.109
602	0.107
602	0.105
603	0.104
603	0.104
604	0.105
604	0.105
605	0.107
605	0.108
606	0.109
606	0.109
606	0.109
607	0.108
607	0.107
608	0.107
608	0.105
609	0.104
609	0.103
610	0.101
610	0.099
610	0.098
611	0.098
611	0.099
612	0.1
612	0.101
613	0.102
613	0.104
614	0.104
614	0.104
614	0.104
615	0.104
615	0.103
616	0.103
616	0.102
617	0.102
617	0.101
618	0.099
618	0.098
618	0.097
619	0.097
619	0.098
620	0.099
620	0.101
621	0.101
621	0.102
622	0.103
622	0.103
622	0.104
623	0.104
623	0.105
624	0.105
624	0.106
625	0.105
625	0.105
626	0.105
626	0.105
626	0.105
627	0.106
627	0.106
628	0.106
628	0.106
629	0.106
629	0.107
630	0.106
630	0.106
630	0.107
631	0.107
631	0.108
632	0.107
632	0.108
633	0.108
633	0.109
634	0.11
634	0.112
634	0.115
635	0.117
635	0.118
636	0.119
636	0.121
637	0.123
637	0.124
638	0.126
638	0.127
638	0.128
639	0.129
639	0.129
640	0.13
640	0.132
641	0.133
641	0.134
642	0.136
642	0.138
642	0.139
643	0.141
643	0.142
644	0.144
644	0.145
645	0.147
645	0.149
646	0.152
646	0.155
646	0.159
647	0.163
647	0.167
648	0.17
648	0.173
649	0.177
649	0.18
650	0.183
650	0.187
650	0.19
651	0.192
651	0.194
652	0.196
652	0.198
653	0.2
653	0.208
653	0.215
654	0.175
654	0.145
655	0.152
655	0.154
656	0.156
656	0.157
657	0.159
657	0.161
657	0.162
658	0.158
658	0.152
659	0.188
659	0.237
660	0.237
660	0.238
661	0.239
661	0.241
661	0.244
662	0.246
662	0.25
663	0.253
663	0.256
664	0.259
664	0.261
665	0.264
665	0.267
665	0.269
666	0.272
666	0.274
667	0.277
667	0.28
668	0.283
668	0.285
669	0.288
669	0.291
669	0.296
670	0.3
670	0.304
671	0.307
671	0.309
672	0.311
672	0.312
672	0.313
673	0.313
673	0.314
674	0.315
674	0.315
675	0.314
675	0.314
676	0.316
676	0.318
676	0.32
677	0.322
677	0.325
678	0.327
678	0.329
679	0.331
679	0.333
680	0.334
680	0.336
680	0.336
681	0.336
681	0.337
682	0.338
682	0.339
683	0.34
683	0.343
684	0.346
684	0.347
684	0.348
685	0.349
685	0.351
686	0.353
686	0.354
687	0.354
687	0.354
687	0.353
688	0.353
688	0.351
689	0.351
689	0.352
690	0.353
690	0.353
691	0.352
691	0.353
691	0.353
692	0.353
692	0.353
693	0.353
693	0.354
694	0.353
694	0.352
695	0.351
695	0.353
695	0.354
696	0.354
696	0.353
697	0.352
697	0.351
698	0.349
698	0.347
698	0.345
699	0.344
699	0.341
700	0.337
700	0.334
701	0.333
701	0.331
702	0.329
702	0.328
702	0.326
703	0.325
703	0.323
704	0.322
704	0.321
705	0.32
705	0.319
705	0.318
706	0.317
706	0.316
707	0.314
707	0.312
708	0.31
708	0.308
709	0.307
709	0.305
709	0.302
710	0.298
710	0.295
711	0.293
711	0.29
712	0.289
712	0.287
713	0.285
713	0.283
713	0.281
714	0.278
714	0.275
715	0.273
715	0.27
716	0.267
716	0.265
716	0.262
717	0.26
717	0.257
718	0.255
718	0.252
719	0.251
719	0.249
720	0.248
720	0.246
720	0.244
721	0.242
721	0.239
722	0.236
722	0.233
723	0.23
723	0.228
723	0.226
724	0.223
724	0.22
725	0.217
725	0.214
726	0.212
726	0.209
727	0.207
727	0.205
727	0.203
728	0.201
728	0.199
729	0.198
729	0.197
730	0.196
730	0.195
730	0.193
731	0.192
731	0.191
732	0.19
732	0.188
733	0.186
733	0.184
734	0.182
734	0.18
734	0.178
735	0.176
735	0.174
736	0.172
736	0.17
737	0.168
737	0.166
737	0.165
738	0.162
738	0.159
739	0.157
739	0.154
740	0.151
740	0.149
741	0.148
741	0.145
741	0.142
742	0.137
742	0.133
743	0.129
743	0.126
744	0.124
744	0.121
744	0.119
745	0.116
745	0.113
746	0.111
746	0.109
747	0.108
747	0.107
748	0.107
748	0.107
748	0.106
749	0.105
749	0.105
750	0.104
750	0.103
751	0.103
751	0.103
751	0.103
752	0.103
752	0.101
753	0.1
753	0.099
754	0.099
754	0.098
754	0.098
755	0.098
755	0.098
756	0.097
756	0.095
757	0.094
757	0.093
758	0.092
758	0.091
758	0.089
759	0.088
759	0.085
760	0.082
760	0.079
761	0.076
761	0.074
761	0.072
762	0.07
762	0.069
763	0.068
763	0.066
764	0.063
764	0.06
764	0.058
765	0.056
765	0.054
766	0.052
766	0.052
767	0.051
767	0.049
768	0.046
768	0.044
768	0.043
769	0.042
769	0.042
770	0.041
770	0.039
771	0.037
771	0.034
771	0.031
772	0.028
772	0.026
773	0.023
773	0.02
774	0.017
774	0.013
775	0.009
775	0.006
775	0.002
776	-0.002
776	-0.007
777	-0.011
777	-0.016
778	-0.022
778	-0.028
778	-0.034
779	-0.039
779	-0.041
780	-0.045
780	-0.05
781	-0.054
781	-0.058
781	-0.061
782	-0.063
782	-0.067
783	-0.07
783	-0.071
784	-0.072
784	-0.075
784	-0.077
785	-0.078
785	-0.08
786	-0.081
786	-0.079
787	-0.075
787	-0.071
788	-0.07
788	-0.071
788	-0.072
789	-0.074
789	-0.073
790	-0.07
790	-0.069
791	-0.07
791	-0.071
791	-0.074
792	-0.068
792	-0.059
793	-0.053
793	-0.05
794	-0.048
794	-0.05
794	-0.053
795	-0.055
795	-0.055
796	-0.055
796	-0.057
797	-0.065
797	-0.074
797	-0.08
798	-0.085
798	-0.088
799	-0.089
799	-0.088
800	-0.089
800	-0.091
801	-0.094
801	-0.095
801	-0.096
802	-0.098
802	-0.099
803	-0.1
803	-0.101
804	-0.1
804	-0.095
804	-0.089
805	-0.085
805	-0.083
806	-0.081
806	-0.08
807	-0.079
807	-0.078
807	-0.077
808	-0.077
808	-0.077
809	-0.081
809	-0.086
810	-0.089
810	-0.091
810	-0.094
811	-0.096
811	-0.096
812	-0.093
812	-0.09
813	-0.09
813	-0.091
813	-0.092
814	-0.092
814	-0.092
815	-0.09
815	-0.087
816	-0.085
816	-0.086
817	-0.09
817	-0.094
817	-0.094
818	-0.094
818	-0.09
819	-0.085
819	-0.083
820	-0.084
820	-0.086
820	-0.087
821	-0.087
821	-0.086
822	-0.084
822	-0.081
823	-0.077
823	-0.076
823	-0.076
824	-0.073
824	-0.066
825	-0.058
825	-0.049
826	-0.04
826	-0.032
826	-0.025
827	-0.017
827	-0.011
828	-0.005
828	0.001
829	0.006
829	0.01
829	0.014
830	0.017
830	0.02
831	0.024
831	0.028
832	0.031
832	0.034
832	0.036
833	0.038
833	0.04
834	0.042
834	0.044
835	0.045
835	0.046
835	0.047
836	0.048
836	0.049
837	0.049
837	0.05
838	0.05
838	0.05
839	0.05
839	0.05
839	0.051
840	0.051
840	0.052
841	0.053
841	0.054
842	0.055
842	0.056
842	0.058
843	0.059
843	0.06
844	0.062
844	0.063
845	0.065
845	0.066
845	0.068
846	0.069
846	0.07
847	0.072
847	0.073
848	0.075
848	0.076
848	0.078
849	0.079
849	0.08
850	0.081
850	0.081
851	0.081
851	0.082
851	0.082
852	0.083
852	0.083
853	0.084
853	0.084
854	0.085
854	0.085
854	0.086
855	0.086
855	0.086
856	0.086
856	0.086
857	0.086
857	0.085
857	0.085
858	0.084
858	0.083
859	0.082
859	0.081
860	0.08
860	0.079
860	0.079
861	0.078
861	0.077
862	0.077
862	0.077
863	0.077
863	0.077
863	0.077
864	0.078
864	0.078
865	0.08
865	0.08
866	0.081
866	0.082
866	0.083
867	0.084
867	0.086
868	0.087
868	0.088
869	0.089
869	0.09
869	0.09
870	0.091
870	0.091
871	0.091
871	0.091
872	0.091
872	0.091
872	0.091
873	0.091
873	0.092
874	0.092
874	0.093
875	0.093
875	0.094
875	0.095
876	0.095
876	0.096
877	0.096
877	0.096
878	0.095
878	0.094
878	0.094
879	0.093
879	0.091
880	0.09
880	0.089
881	0.088
881	0.087
881	0.087
882	0.087
882	0.086
883	0.087
883	0.087
884	0.088
884	0.088
884	0.089
885	0.09
885	0.091
886	0.092
886	0.092
887	0.093
887	0.094
887	0.094
888	0.094
888	0.094
889	0.095
889	0.095
890	0.096
890	0.096
890	0.096
891	0.096
891	0.097
892	0.097
892	0.097
893	0.097
893	0.097
893	0.098
894	0.098
894	0.098
895	0.098
895	0.098
895	0.098
896	0.098
896	0.099
897	0.099
897	0.099
898	0.1
898	0.1
898	0.1
899	0.1
899	0.1
900	0.101
900	0.101
901	0.101
901	0.101
901	0.101
902	0.101
902	0.101
903	0.102
903	0.102
904	0.102
904	0.101
904	0.101
905	0.101
905	0.1
906	0.1
906	0.1
907	0.1
907	0.099
907	0.099
908	0.099
908	0.1
909	0.1
909	0.101
910	0.101
910	0.101
910	0.101
911	0.101
911	0.101
912	0.102
912	0.102
913	0.102
913	0.102
913	0.103
914	0.103
914	0.103
915	0.102
915	0.102
916	0.102
916	0.101
916	0.101
917	0.1
917	0.099
918	0.099
918	0.098
918	0.098
919	0.097
919	0.097
920	0.097
920	0.097
921	0.097
921	0.096
921	0.096
922	0.095
922	0.095
923	0.095
923	0.094
924	0.094
924	0.094
924	0.093
925	0.093
925	0.092
926	0.092
926	0.092
927	0.091
927	0.091
927	0.091
928	0.091
928	0.091
929	0.091
929	0.092
930	0.093
930	0.094
930	0.095
931	0.097
931	0.098
932	0.1
932	0.101
933	0.103
933	0.104
933	0.105
934	0.106
934	0.107
935	0.108
935	0.108
935	0.109
936	0.109
936	0.11
937	0.111
937	0.111
938	0.112
938	0.113
938	0.113
939	0.114
939	0.115
940	0.116
940	0.116
941	0.117
941	0.117
941	0.117
942	0.116
942	0.116
943	0.115
943	0.115
944	0.114
944	0.113
944	0.113
945	0.114
945	0.114
946	0.114
946	0.114
946	0.115
947	0.115
947	0.115
948	0.115
948	0.115
949	0.115
949	0.115
949	0.114
950	0.114
950	0.113
951	0.112
951	0.111
952	0.11
952	0.11
952	0.109
953	0.109
953	0.109
954	0.108
954	0.108
955	0.109
955	0.109
955	0.11
956	0.111
956	0.112
957	0.112
957	0.113
957	0.113
958	0.113
958	0.113
959	0.113
959	0.113
960	0.112
960	0.111
960	0.111
961	0.11
961	0.109
962	0.109
962	0.109
963	0.109
963	0.109
963	0.109
964	0.109
964	0.109
965	0.109
965	0.11
966	0.11
966	0.11
966	0.111
967	0.111
967	0.11
968	0.11
968	0.109
968	0.108
969	0.107
969	0.107
970	0.106
970	0.105
971	0.104
971	0.103
971	0.103
972	0.102
972	0.102
973	0.103
973	0.103
974	0.103
974	0.104
974	0.104
975	0.105
975	0.106
976	0.106
976	0.107
976	0.107
977	0.107
977	0.107
978	0.107
978	0.107
979	0.107
979	0.107
979	0.106
980	0.106
980	0.105
981	0.105
981	0.104
982	0.104
982	0.104
982	0.104
983	0.104
983	0.104
984	0.103
984	0.103
984	0.103
985	0.103
985	0.103
986	0.102
986	0.102
987	0.101
987	0.1
987	0.1
988	0.099
988	0.099
989	0.098
989	0.098
990	0.098
990	0.098
990	0.098
991	0.099
991	0.1
992	0.1
992	0.101
992	0.101
993	0.101
993	0.101
994	0.102
994	0.101
995	0.101
995	0.101
995	0.1
996	0.1
996	0.099
997	0.098
997	0.098
997	0.098
998	0.099
998	0.099
999	0.099
999	0.1
1000	0.1
1000	0.101
1000	0.102
1001	0.103
1001	0.104
1002	0.104
1002	0.105
1003	0.105
1003	0.106
1003	0.106
1004	0.106
1004	0.106
1005	0.106
1005	0.106
1005	0.106
1006	0.106
1006	0.105
1007	0.105
1007	0.104
1008	0.104
1008	0.104
1008	0.103
1009	0.103
1009	0.103
1010	0.103
1010	0.103
1010	0.103
1011	0.104
1011	0.104
1012	0.104
1012	0.105
1013	0.105
1013	0.105
1013	0.105
1014	0.104
1014	0.104
1015	0.103
1015	0.103
1016	0.102
1016	0.102
1016	0.101
1017	0.101
1017	0.1
1018	0.099
1018	0.099
1018	0.098
1019	0.098
1019	0.097
1020	0.097
1020	0.097
1021	0.096
1021	0.096
1021	0.096
1022	0.096
1022	0.096
1023	0.095
1023	0.095
1023	0.095
1024	0.094
1024	0.094
1025	0.093
1025	0.092
1026	0.092
1026	0.092
1026	0.091
1027	0.091
1027	0.091
1028	0.091
1028	0.092
1028	0.092
1029	0.092
1029	0.093
1030	0.093
1030	0.094
1031	0.094
1031	0.095
1031	0.095
1032	0.096
1032	0.097
1033	0.097
1033	0.098
1033	0.098
1034	0.098
1034	0.098
1035	0.098
1035	0.099
1036	0.099
1036	0.099
1036	0.1
1037	0.101
1037	0.101
1038	0.102
1038	0.103
1039	0.104
1039	0.105
1039	0.106
1040	0.106
1040	0.107
1041	0.107
1041	0.107
1041	0.107
1042	0.107
1042	0.107
1043	0.106
1043	0.106
1044	0.105
1044	0.105
1044	0.104
1045	0.104
1045	0.103
1046	0.102
1046	0.102
1046	0.102
1047	0.102
1047	0.102
1048	0.102
1048	0.102
1049	0.102
1049	0.101
1049	0.101
1050	0.101
1050	0.101
1051	0.101
1051	0.101
1051	0.101
1052	0.101
1052	0.102
1053	0.102
1053	0.102
1053	0.103
1054	0.103
1054	0.103
1055	0.104
1055	0.104
1056	0.104
1056	0.105
1056	0.105
1057	0.106
1057	0.107
1058	0.109
1058	0.11
1058	0.112
1059	0.114
1059	0.116
1060	0.118
1060	0.12
1061	0.122
1061	0.125
1061	0.127
1062	0.128
1062	0.129
1063	0.13
1063	0.131
1063	0.132
1064	0.134
1064	0.135
1065	0.137
1065	0.138
1066	0.139
1066	0.141
1066	0.142
1067	0.144
1067	0.146
1068	0.147
1068	0.148
1068	0.149
1069	0.15
1069	0.151
1070	0.152
1070	0.154
1071	0.155
1071	0.157
1071	0.159
1072	0.161
1072	0.164
1073	0.167
1073	0.17
1073	0.172
1074	0.175
1074	0.178
1075	0.179
1075	0.18
1076	0.182
1076	0.185
1076	0.186
1077	0.188
1077	0.191
1078	0.193
1078	0.197
1078	0.2
1079	0.203
1079	0.207
1080	0.21
1080	0.215
1080	0.218
1081	0.222
1081	0.226
1082	0.23
1082	0.234
1083	0.239
1083	0.243
1083	0.249
1084	0.255
1084	0.261
1085	0.266
1085	0.272
1085	0.279
1086	0.285
1086	0.29
1087	0.298
1087	0.304
1088	0.31
1088	0.319
1088	0.328
1089	0.337
1089	0.348
1090	0.36
1090	0.374
1090	0.389
1091	0.405
1091	0.424
1092	0.445
1092	0.467
1092	0.489
1093	0.511
1093	0.54
1094	0.568
1094	0.6
1095	0.635
1095	0.678
1095	0.735
1096	0.793
1096	0.864
1097	0.963
1097	1.084
1097	1.286
1098	1.646
1098	-0
1099	-0
1099	-0
1100	-0
1100	-0
1100	-0
1101	-0
1101	-0
1102	-0
1102	-0
1102	-0
1103	-0
1103	-0
1104	-0
1104	-0
1104	-0
1105	-0
1105	-0
1106	-0
1106	-0
1107	-0
1107	-0
1107	-0
1108	-0
1108	-0
1109	-0
1109	-0
1109	-0
1110	-0
1110	-0
1111	-0
1111	-0
