Data from 15c-2-5a_Absorbance__25__00932.txt Node

Date: Tue Jan 16 11:28:04 CET 2024
User: Marek
Spectrometer: MAYP115816
Trigger mode: 0
Integration Time (sec): 2.000000E-1
Scans to average: 10
Electric dark correction enabled: true
Nonlinearity correction enabled: true
Boxcar width: 5
XAxis mode: Wavelengths
Number of Pixels in Spectrum: 2068
>>>>>Begin Spectral Data<<<<<
199	-2.237
199	-2.048
200	-1.913
200	-1.792
201	-1.718
201	-1.665
202	-1.588
202	-1.525
203	-1.475
203	-1.426
204	-1.399
204	-1.373
205	-1.353
205	-1.341
205	-1.337
206	-1.333
206	-1.329
207	-1.326
207	-1.326
208	-1.322
208	-1.32
209	-1.316
209	-1.314
210	-1.313
210	-1.31
211	-1.309
211	-1.308
212	-1.307
212	-1.306
213	-1.304
213	-1.303
213	-1.304
214	-1.301
214	-1.3
215	-1.3
215	-1.299
216	-1.296
216	-1.295
217	-1.292
217	-1.289
218	-1.285
218	-1.281
219	-1.277
219	-1.276
220	-1.273
220	-1.272
221	-1.267
221	-1.266
221	-1.261
222	-1.257
222	-1.251
223	-1.246
223	-1.241
224	-1.236
224	-1.227
225	-1.218
225	-1.208
226	-1.2
226	-1.19
227	-1.177
227	-1.164
228	-1.148
228	-1.131
229	-1.11
229	-1.086
229	-1.061
230	-1.032
230	-1
231	-0.964
231	-0.925
232	-0.885
232	-0.841
233	-0.795
233	-0.748
234	-0.699
234	-0.65
235	-0.6
235	-0.551
236	-0.501
236	-0.453
236	-0.406
237	-0.36
237	-0.316
238	-0.273
238	-0.233
239	-0.194
239	-0.158
240	-0.124
240	-0.091
241	-0.061
241	-0.033
242	-0.007
242	0.018
243	0.04
243	0.062
243	0.081
244	0.099
244	0.116
245	0.132
245	0.146
246	0.16
246	0.172
247	0.184
247	0.195
248	0.205
248	0.215
249	0.223
249	0.232
250	0.239
250	0.247
250	0.253
251	0.26
251	0.266
252	0.272
252	0.277
253	0.282
253	0.286
254	0.291
254	0.295
255	0.299
255	0.302
256	0.306
256	0.309
257	0.312
257	0.314
258	0.316
258	0.318
258	0.32
259	0.322
259	0.323
260	0.325
260	0.326
261	0.327
261	0.327
262	0.328
262	0.329
263	0.33
263	0.33
264	0.33
264	0.331
265	0.331
265	0.331
265	0.331
266	0.332
266	0.332
267	0.332
267	0.331
268	0.331
268	0.331
269	0.33
269	0.329
270	0.329
270	0.328
271	0.327
271	0.327
272	0.326
272	0.325
272	0.324
273	0.323
273	0.323
274	0.322
274	0.321
275	0.32
275	0.319
276	0.318
276	0.317
277	0.315
277	0.313
278	0.312
278	0.31
278	0.309
279	0.307
279	0.306
280	0.306
280	0.305
281	0.304
281	0.304
282	0.304
282	0.304
283	0.304
283	0.303
284	0.303
284	0.303
285	0.302
285	0.301
285	0.301
286	0.3
286	0.299
287	0.298
287	0.297
288	0.297
288	0.296
289	0.295
289	0.295
290	0.294
290	0.293
291	0.293
291	0.292
292	0.292
292	0.291
292	0.29
293	0.29
293	0.289
294	0.288
294	0.288
295	0.287
295	0.287
296	0.286
296	0.285
297	0.285
297	0.284
298	0.284
298	0.283
298	0.283
299	0.282
299	0.282
300	0.281
300	0.28
301	0.28
301	0.279
302	0.279
302	0.278
303	0.278
303	0.278
304	0.277
304	0.276
305	0.276
305	0.275
305	0.274
306	0.274
306	0.273
307	0.272
307	0.272
308	0.271
308	0.27
309	0.269
309	0.268
310	0.268
310	0.267
311	0.266
311	0.266
311	0.265
312	0.264
312	0.263
313	0.262
313	0.262
314	0.261
314	0.26
315	0.259
315	0.259
316	0.258
316	0.257
317	0.256
317	0.255
318	0.254
318	0.253
318	0.252
319	0.252
319	0.251
320	0.25
320	0.249
321	0.248
321	0.247
322	0.246
322	0.245
323	0.244
323	0.244
324	0.243
324	0.242
324	0.241
325	0.241
325	0.24
326	0.239
326	0.239
327	0.238
327	0.237
328	0.236
328	0.235
329	0.234
329	0.234
330	0.233
330	0.232
330	0.231
331	0.23
331	0.229
332	0.228
332	0.227
333	0.227
333	0.226
334	0.225
334	0.224
335	0.224
335	0.223
336	0.222
336	0.221
336	0.22
337	0.22
337	0.219
338	0.218
338	0.217
339	0.217
339	0.216
340	0.215
340	0.215
341	0.214
341	0.213
342	0.213
342	0.212
342	0.212
343	0.211
343	0.21
344	0.209
344	0.209
345	0.208
345	0.207
346	0.207
346	0.206
347	0.205
347	0.205
348	0.204
348	0.203
348	0.202
349	0.202
349	0.201
350	0.2
350	0.199
351	0.198
351	0.197
352	0.196
352	0.195
353	0.194
353	0.193
354	0.192
354	0.191
354	0.189
355	0.188
355	0.187
356	0.186
356	0.185
357	0.184
357	0.184
358	0.184
358	0.185
359	0.185
359	0.186
360	0.187
360	0.188
360	0.189
361	0.189
361	0.19
362	0.191
362	0.191
363	0.191
363	0.191
364	0.19
364	0.19
365	0.189
365	0.189
366	0.188
366	0.188
366	0.187
367	0.187
367	0.187
368	0.186
368	0.185
369	0.185
369	0.185
370	0.184
370	0.184
371	0.183
371	0.183
372	0.182
372	0.182
372	0.181
373	0.181
373	0.181
374	0.181
374	0.181
375	0.181
375	0.181
376	0.181
376	0.181
377	0.181
377	0.182
378	0.182
378	0.182
378	0.183
379	0.183
379	0.183
380	0.184
380	0.184
381	0.184
381	0.183
382	0.183
382	0.182
383	0.182
383	0.181
383	0.181
384	0.18
384	0.18
385	0.18
385	0.18
386	0.18
386	0.18
387	0.18
387	0.18
388	0.18
388	0.18
389	0.179
389	0.179
389	0.179
390	0.179
390	0.179
391	0.18
391	0.18
392	0.18
392	0.18
393	0.18
393	0.18
394	0.18
394	0.18
394	0.18
395	0.18
395	0.18
396	0.18
396	0.179
397	0.18
397	0.18
398	0.18
398	0.18
399	0.18
399	0.18
400	0.18
400	0.18
400	0.179
401	0.178
401	0.177
402	0.176
402	0.175
403	0.175
403	0.175
404	0.175
404	0.174
405	0.174
405	0.174
405	0.174
406	0.173
406	0.173
407	0.173
407	0.173
408	0.173
408	0.172
409	0.172
409	0.171
410	0.171
410	0.171
411	0.171
411	0.171
411	0.171
412	0.17
412	0.17
413	0.169
413	0.169
414	0.169
414	0.168
415	0.168
415	0.168
416	0.167
416	0.166
416	0.166
417	0.166
417	0.165
418	0.165
418	0.166
419	0.166
419	0.167
420	0.168
420	0.169
421	0.169
421	0.17
421	0.17
422	0.171
422	0.171
423	0.171
423	0.171
424	0.171
424	0.17
425	0.169
425	0.168
426	0.167
426	0.167
427	0.167
427	0.167
427	0.167
428	0.168
428	0.168
429	0.169
429	0.17
430	0.17
430	0.17
431	0.17
431	0.17
432	0.169
432	0.169
432	0.167
433	0.166
433	0.165
434	0.164
434	0.163
435	0.163
435	0.163
436	0.163
436	0.163
437	0.163
437	0.163
437	0.163
438	0.163
438	0.163
439	0.163
439	0.163
440	0.162
440	0.162
441	0.163
441	0.163
442	0.163
442	0.164
442	0.164
443	0.165
443	0.165
444	0.166
444	0.166
445	0.167
445	0.167
446	0.167
446	0.167
447	0.167
447	0.167
447	0.167
448	0.166
448	0.166
449	0.166
449	0.165
450	0.165
450	0.165
451	0.164
451	0.164
452	0.163
452	0.163
452	0.162
453	0.162
453	0.161
454	0.16
454	0.159
455	0.159
455	0.158
456	0.158
456	0.158
457	0.157
457	0.157
458	0.157
458	0.157
458	0.158
459	0.158
459	0.159
460	0.158
460	0.158
461	0.157
461	0.156
462	0.156
462	0.156
463	0.156
463	0.157
463	0.157
464	0.158
464	0.158
465	0.158
465	0.158
466	0.158
466	0.158
467	0.158
467	0.157
467	0.156
468	0.155
468	0.153
469	0.151
469	0.149
470	0.148
470	0.147
471	0.147
471	0.147
472	0.146
472	0.146
472	0.147
473	0.148
473	0.15
474	0.151
474	0.152
475	0.153
475	0.154
476	0.155
476	0.155
477	0.155
477	0.156
477	0.156
478	0.156
478	0.156
479	0.157
479	0.157
480	0.158
480	0.159
481	0.159
481	0.16
482	0.161
482	0.162
482	0.163
483	0.165
483	0.168
484	0.172
484	0.175
485	0.177
485	0.179
486	0.18
486	0.181
487	0.182
487	0.183
487	0.183
488	0.183
488	0.181
489	0.178
489	0.176
490	0.174
490	0.173
491	0.172
491	0.172
492	0.172
492	0.172
492	0.173
493	0.173
493	0.174
494	0.176
494	0.178
495	0.181
495	0.182
496	0.183
496	0.184
496	0.185
497	0.186
497	0.186
498	0.187
498	0.188
499	0.188
499	0.187
500	0.188
500	0.189
501	0.191
501	0.192
501	0.194
502	0.196
502	0.197
503	0.199
503	0.2
504	0.201
504	0.201
505	0.202
505	0.202
506	0.202
506	0.202
506	0.202
507	0.202
507	0.202
508	0.202
508	0.202
509	0.203
509	0.203
510	0.203
510	0.203
511	0.204
511	0.204
511	0.204
512	0.204
512	0.203
513	0.202
513	0.201
514	0.2
514	0.2
515	0.2
515	0.199
515	0.198
516	0.196
516	0.195
517	0.195
517	0.195
518	0.195
518	0.196
519	0.195
519	0.194
520	0.193
520	0.192
520	0.19
521	0.189
521	0.186
522	0.183
522	0.179
523	0.176
523	0.174
524	0.172
524	0.17
524	0.17
525	0.17
525	0.171
526	0.173
526	0.176
527	0.18
527	0.184
528	0.188
528	0.191
529	0.194
529	0.197
529	0.199
530	0.201
530	0.202
531	0.203
531	0.204
532	0.204
532	0.204
533	0.205
533	0.206
533	0.206
534	0.206
534	0.205
535	0.204
535	0.204
536	0.204
536	0.204
537	0.204
537	0.204
538	0.203
538	0.202
538	0.2
539	0.199
539	0.199
540	0.199
540	0.198
541	0.196
541	0.195
542	0.193
542	0.192
542	0.19
543	0.189
543	0.189
544	0.188
544	0.186
545	0.185
545	0.185
546	0.185
546	0.184
547	0.183
547	0.181
547	0.179
548	0.176
548	0.174
549	0.172
549	0.17
550	0.168
550	0.166
551	0.164
551	0.162
551	0.16
552	0.159
552	0.159
553	0.158
553	0.158
554	0.158
554	0.158
555	0.156
555	0.153
556	0.15
556	0.147
556	0.144
557	0.142
557	0.139
558	0.137
558	0.135
559	0.134
559	0.134
560	0.133
560	0.134
560	0.134
561	0.134
561	0.135
562	0.135
562	0.134
563	0.132
563	0.13
564	0.127
564	0.124
564	0.122
565	0.119
565	0.118
566	0.117
566	0.116
567	0.116
567	0.118
568	0.119
568	0.121
568	0.124
569	0.127
569	0.13
570	0.132
570	0.133
571	0.134
571	0.136
572	0.137
572	0.137
573	0.138
573	0.138
573	0.137
574	0.136
574	0.136
575	0.135
575	0.136
576	0.138
576	0.138
577	0.137
577	0.136
577	0.135
578	0.134
578	0.134
579	0.135
579	0.137
580	0.137
580	0.136
581	0.134
581	0.132
581	0.13
582	0.129
582	0.129
583	0.129
583	0.129
584	0.127
584	0.123
585	0.12
585	0.119
585	0.118
586	0.118
586	0.118
587	0.117
587	0.115
588	0.112
588	0.109
589	0.107
589	0.106
590	0.104
590	0.103
590	0.103
591	0.104
591	0.104
592	0.104
592	0.103
593	0.103
593	0.103
594	0.102
594	0.102
594	0.101
595	0.101
595	0.099
596	0.098
596	0.098
597	0.1
597	0.102
598	0.104
598	0.106
598	0.107
599	0.108
599	0.108
600	0.108
600	0.107
601	0.106
601	0.105
602	0.103
602	0.101
602	0.1
603	0.099
603	0.098
604	0.099
604	0.1
605	0.101
605	0.102
606	0.103
606	0.103
606	0.103
607	0.102
607	0.102
608	0.101
608	0.099
609	0.098
609	0.097
610	0.095
610	0.093
610	0.092
611	0.092
611	0.092
612	0.093
612	0.094
613	0.095
613	0.097
614	0.097
614	0.097
614	0.097
615	0.097
615	0.096
616	0.096
616	0.095
617	0.095
617	0.094
618	0.092
618	0.091
618	0.09
619	0.09
619	0.09
620	0.092
620	0.093
621	0.094
621	0.095
622	0.095
622	0.096
622	0.096
623	0.096
623	0.097
624	0.098
624	0.098
625	0.097
625	0.097
626	0.097
626	0.097
626	0.097
627	0.097
627	0.097
628	0.097
628	0.097
629	0.098
629	0.098
630	0.098
630	0.097
630	0.098
631	0.098
631	0.099
632	0.099
632	0.099
633	0.099
633	0.1
634	0.101
634	0.103
634	0.106
635	0.107
635	0.108
636	0.11
636	0.111
637	0.112
637	0.113
638	0.115
638	0.116
638	0.117
639	0.118
639	0.118
640	0.119
640	0.12
641	0.121
641	0.123
642	0.124
642	0.126
642	0.127
643	0.129
643	0.13
644	0.131
644	0.133
645	0.135
645	0.137
646	0.139
646	0.142
646	0.146
647	0.15
647	0.154
648	0.157
648	0.161
649	0.164
649	0.167
650	0.17
650	0.174
650	0.176
651	0.178
651	0.18
652	0.182
652	0.183
653	0.186
653	0.194
653	0.199
654	0.163
654	0.136
655	0.142
655	0.145
656	0.146
656	0.148
657	0.15
657	0.151
657	0.152
658	0.149
658	0.144
659	0.177
659	0.222
660	0.222
660	0.224
661	0.225
661	0.227
661	0.229
662	0.232
662	0.236
663	0.239
663	0.243
664	0.246
664	0.248
665	0.25
665	0.253
665	0.256
666	0.259
666	0.261
667	0.264
667	0.266
668	0.269
668	0.272
669	0.275
669	0.278
669	0.282
670	0.287
670	0.291
671	0.293
671	0.295
672	0.296
672	0.298
672	0.298
673	0.299
673	0.3
674	0.301
674	0.301
675	0.301
675	0.301
676	0.302
676	0.304
676	0.306
677	0.309
677	0.312
678	0.315
678	0.317
679	0.319
679	0.32
680	0.322
680	0.324
680	0.325
681	0.325
681	0.326
682	0.327
682	0.328
683	0.33
683	0.333
684	0.336
684	0.338
684	0.339
685	0.34
685	0.342
686	0.344
686	0.345
687	0.345
687	0.345
687	0.345
688	0.344
688	0.343
689	0.343
689	0.344
690	0.345
690	0.345
691	0.345
691	0.345
691	0.346
692	0.346
692	0.346
693	0.346
693	0.346
694	0.346
694	0.345
695	0.345
695	0.347
695	0.348
696	0.348
696	0.347
697	0.346
697	0.345
698	0.343
698	0.341
698	0.339
699	0.337
699	0.335
700	0.331
700	0.329
701	0.328
701	0.326
702	0.325
702	0.324
702	0.323
703	0.322
703	0.321
704	0.32
704	0.319
705	0.318
705	0.318
705	0.317
706	0.316
706	0.315
707	0.313
707	0.311
708	0.309
708	0.307
709	0.306
709	0.304
709	0.301
710	0.297
710	0.294
711	0.292
711	0.29
712	0.288
712	0.286
713	0.285
713	0.283
713	0.28
714	0.277
714	0.275
715	0.272
715	0.269
716	0.266
716	0.263
716	0.26
717	0.258
717	0.256
718	0.253
718	0.25
719	0.249
719	0.248
720	0.246
720	0.245
720	0.242
721	0.239
721	0.236
722	0.234
722	0.23
723	0.227
723	0.225
723	0.222
724	0.219
724	0.216
725	0.213
725	0.211
726	0.209
726	0.207
727	0.205
727	0.203
727	0.202
728	0.2
728	0.198
729	0.198
729	0.197
730	0.195
730	0.194
730	0.193
731	0.191
731	0.19
732	0.189
732	0.188
733	0.186
733	0.184
734	0.182
734	0.179
734	0.177
735	0.176
735	0.174
736	0.171
736	0.168
737	0.166
737	0.164
737	0.163
738	0.16
738	0.156
739	0.153
739	0.151
740	0.148
740	0.146
741	0.144
741	0.141
741	0.137
742	0.132
742	0.127
743	0.124
743	0.121
744	0.119
744	0.117
744	0.114
745	0.111
745	0.109
746	0.107
746	0.106
747	0.105
747	0.104
748	0.104
748	0.104
748	0.103
749	0.102
749	0.102
750	0.101
750	0.101
751	0.1
751	0.1
751	0.1
752	0.1
752	0.099
753	0.098
753	0.097
754	0.096
754	0.095
754	0.094
755	0.094
755	0.094
756	0.094
756	0.092
757	0.09
757	0.089
758	0.088
758	0.086
758	0.085
759	0.083
759	0.081
760	0.077
760	0.074
761	0.071
761	0.069
761	0.067
762	0.065
762	0.064
763	0.063
763	0.061
764	0.058
764	0.055
764	0.053
765	0.051
765	0.049
766	0.048
766	0.047
767	0.046
767	0.044
768	0.04
768	0.038
768	0.036
769	0.035
769	0.035
770	0.033
770	0.032
771	0.029
771	0.026
771	0.023
772	0.02
772	0.018
773	0.015
773	0.012
774	0.008
774	0.004
775	0.001
775	-0.003
775	-0.008
776	-0.014
776	-0.019
777	-0.025
777	-0.03
778	-0.036
778	-0.043
778	-0.049
779	-0.053
779	-0.054
780	-0.057
780	-0.06
781	-0.062
781	-0.064
781	-0.065
782	-0.067
782	-0.069
783	-0.071
783	-0.071
784	-0.072
784	-0.075
784	-0.076
785	-0.078
785	-0.08
786	-0.08
786	-0.078
787	-0.074
787	-0.071
788	-0.07
788	-0.07
788	-0.071
789	-0.073
789	-0.073
790	-0.07
790	-0.069
791	-0.069
791	-0.071
791	-0.073
792	-0.068
792	-0.059
793	-0.053
793	-0.049
794	-0.048
794	-0.049
794	-0.053
795	-0.055
795	-0.054
796	-0.055
796	-0.057
797	-0.065
797	-0.074
797	-0.08
798	-0.085
798	-0.088
799	-0.088
799	-0.088
800	-0.088
800	-0.09
801	-0.093
801	-0.095
801	-0.096
802	-0.097
802	-0.099
803	-0.1
803	-0.1
804	-0.099
804	-0.095
804	-0.088
805	-0.085
805	-0.083
806	-0.081
806	-0.08
807	-0.078
807	-0.077
807	-0.077
808	-0.076
808	-0.077
809	-0.081
809	-0.086
810	-0.089
810	-0.091
810	-0.094
811	-0.096
811	-0.096
812	-0.092
812	-0.089
813	-0.089
813	-0.09
813	-0.091
814	-0.092
814	-0.092
815	-0.09
815	-0.087
816	-0.085
816	-0.086
817	-0.09
817	-0.093
817	-0.094
818	-0.093
818	-0.09
819	-0.085
819	-0.082
820	-0.084
820	-0.085
820	-0.087
821	-0.086
821	-0.085
822	-0.082
822	-0.079
823	-0.075
823	-0.073
823	-0.073
824	-0.069
824	-0.062
825	-0.054
825	-0.044
826	-0.035
826	-0.028
826	-0.021
827	-0.014
827	-0.007
828	-0.002
828	0.003
829	0.007
829	0.011
829	0.014
830	0.017
830	0.02
831	0.024
831	0.027
832	0.03
832	0.032
832	0.034
833	0.037
833	0.039
834	0.041
834	0.042
835	0.043
835	0.044
835	0.045
836	0.045
836	0.046
837	0.047
837	0.047
838	0.047
838	0.047
839	0.048
839	0.048
839	0.048
840	0.049
840	0.049
841	0.05
841	0.051
842	0.052
842	0.054
842	0.055
843	0.056
843	0.058
844	0.059
844	0.061
845	0.062
845	0.064
845	0.065
846	0.067
846	0.068
847	0.07
847	0.071
848	0.073
848	0.074
848	0.076
849	0.077
849	0.077
850	0.078
850	0.078
851	0.079
851	0.079
851	0.08
852	0.08
852	0.081
853	0.081
853	0.082
854	0.082
854	0.083
854	0.083
855	0.084
855	0.084
856	0.084
856	0.084
857	0.084
857	0.084
857	0.084
858	0.083
858	0.082
859	0.082
859	0.081
860	0.081
860	0.08
860	0.08
861	0.079
861	0.079
862	0.078
862	0.077
863	0.077
863	0.077
863	0.077
864	0.078
864	0.078
865	0.079
865	0.08
866	0.082
866	0.083
866	0.084
867	0.085
867	0.087
868	0.088
868	0.089
869	0.09
869	0.091
869	0.091
870	0.091
870	0.091
871	0.091
871	0.091
872	0.09
872	0.09
872	0.09
873	0.09
873	0.09
874	0.09
874	0.09
875	0.091
875	0.091
875	0.091
876	0.092
876	0.092
877	0.092
877	0.092
878	0.092
878	0.091
878	0.09
879	0.089
879	0.088
880	0.087
880	0.085
881	0.084
881	0.084
881	0.083
882	0.083
882	0.083
883	0.083
883	0.083
884	0.083
884	0.084
884	0.084
885	0.085
885	0.086
886	0.087
886	0.087
887	0.088
887	0.088
887	0.088
888	0.088
888	0.088
889	0.088
889	0.089
890	0.089
890	0.089
890	0.089
891	0.089
891	0.089
892	0.089
892	0.09
893	0.09
893	0.09
893	0.091
894	0.092
894	0.092
895	0.092
895	0.093
895	0.093
896	0.094
896	0.095
897	0.095
897	0.096
898	0.096
898	0.096
898	0.096
899	0.096
899	0.096
900	0.096
900	0.096
901	0.096
901	0.096
901	0.097
902	0.097
902	0.097
903	0.097
903	0.097
904	0.097
904	0.097
904	0.097
905	0.096
905	0.096
906	0.095
906	0.095
907	0.094
907	0.094
907	0.094
908	0.094
908	0.094
909	0.095
909	0.096
910	0.096
910	0.097
910	0.097
911	0.098
911	0.098
912	0.099
912	0.099
913	0.099
913	0.099
913	0.099
914	0.099
914	0.099
915	0.099
915	0.098
916	0.098
916	0.098
916	0.097
917	0.096
917	0.096
918	0.095
918	0.095
918	0.094
919	0.094
919	0.093
920	0.093
920	0.093
921	0.092
921	0.092
921	0.091
922	0.091
922	0.091
923	0.09
923	0.09
924	0.089
924	0.089
924	0.088
925	0.087
925	0.087
926	0.086
926	0.085
927	0.084
927	0.083
927	0.083
928	0.082
928	0.082
929	0.082
929	0.083
930	0.083
930	0.084
930	0.085
931	0.086
931	0.088
932	0.089
932	0.091
933	0.093
933	0.094
933	0.096
934	0.097
934	0.098
935	0.099
935	0.1
935	0.101
936	0.102
936	0.102
937	0.103
937	0.104
938	0.104
938	0.105
938	0.106
939	0.107
939	0.108
940	0.109
940	0.11
941	0.111
941	0.111
941	0.112
942	0.111
942	0.111
943	0.11
943	0.11
944	0.109
944	0.109
944	0.109
945	0.109
945	0.11
946	0.11
946	0.11
946	0.11
947	0.11
947	0.11
948	0.11
948	0.109
949	0.109
949	0.108
949	0.108
950	0.107
950	0.106
951	0.106
951	0.106
952	0.106
952	0.106
952	0.106
953	0.106
953	0.106
954	0.107
954	0.107
955	0.107
955	0.108
955	0.108
956	0.109
956	0.109
957	0.109
957	0.109
957	0.109
958	0.109
958	0.108
959	0.108
959	0.107
960	0.106
960	0.105
960	0.104
961	0.103
961	0.102
962	0.101
962	0.101
963	0.101
963	0.101
963	0.101
964	0.101
964	0.102
965	0.103
965	0.104
966	0.105
966	0.106
966	0.107
967	0.108
967	0.108
968	0.108
968	0.109
968	0.109
969	0.108
969	0.108
970	0.107
970	0.107
971	0.106
971	0.106
971	0.105
972	0.105
972	0.106
973	0.106
973	0.106
974	0.107
974	0.107
974	0.108
975	0.108
975	0.109
976	0.109
976	0.109
976	0.108
977	0.108
977	0.107
978	0.106
978	0.105
979	0.105
979	0.104
979	0.103
980	0.103
980	0.102
981	0.101
981	0.101
982	0.101
982	0.1
982	0.1
983	0.1
983	0.1
984	0.099
984	0.099
984	0.098
985	0.098
985	0.097
986	0.096
986	0.095
987	0.094
987	0.094
987	0.093
988	0.092
988	0.092
989	0.092
989	0.091
990	0.091
990	0.092
990	0.092
991	0.093
991	0.094
992	0.094
992	0.095
992	0.096
993	0.096
993	0.097
994	0.097
994	0.097
995	0.098
995	0.098
995	0.098
996	0.098
996	0.097
997	0.097
997	0.098
997	0.098
998	0.099
998	0.099
999	0.1
999	0.101
1000	0.102
1000	0.103
1000	0.103
1001	0.104
1001	0.105
1002	0.106
1002	0.106
1003	0.106
1003	0.106
1003	0.106
1004	0.106
1004	0.105
1005	0.105
1005	0.104
1005	0.104
1006	0.103
1006	0.102
1007	0.102
1007	0.101
1008	0.1
1008	0.1
1008	0.099
1009	0.099
1009	0.099
1010	0.098
1010	0.098
1010	0.098
1011	0.098
1011	0.098
1012	0.098
1012	0.099
1013	0.099
1013	0.099
1013	0.099
1014	0.099
1014	0.099
1015	0.098
1015	0.098
1016	0.098
1016	0.097
1016	0.097
1017	0.096
1017	0.095
1018	0.095
1018	0.095
1018	0.095
1019	0.095
1019	0.095
1020	0.094
1020	0.094
1021	0.094
1021	0.094
1021	0.095
1022	0.094
1022	0.094
1023	0.094
1023	0.093
1023	0.093
1024	0.093
1024	0.092
1025	0.091
1025	0.091
1026	0.09
1026	0.09
1026	0.09
1027	0.09
1027	0.09
1028	0.09
1028	0.09
1028	0.09
1029	0.091
1029	0.091
1030	0.092
1030	0.092
1031	0.092
1031	0.093
1031	0.093
1032	0.093
1032	0.094
1033	0.094
1033	0.095
1033	0.095
1034	0.095
1034	0.095
1035	0.095
1035	0.095
1036	0.096
1036	0.096
1036	0.097
1037	0.098
1037	0.099
1038	0.099
1038	0.1
1039	0.101
1039	0.102
1039	0.104
1040	0.104
1040	0.105
1041	0.106
1041	0.106
1041	0.106
1042	0.106
1042	0.106
1043	0.106
1043	0.106
1044	0.106
1044	0.106
1044	0.106
1045	0.105
1045	0.105
1046	0.105
1046	0.105
1046	0.105
1047	0.105
1047	0.105
1048	0.105
1048	0.105
1049	0.105
1049	0.105
1049	0.105
1050	0.105
1050	0.106
1051	0.106
1051	0.107
1051	0.107
1052	0.108
1052	0.108
1053	0.109
1053	0.11
1053	0.11
1054	0.111
1054	0.112
1055	0.113
1055	0.113
1056	0.114
1056	0.114
1056	0.114
1057	0.115
1057	0.116
1058	0.117
1058	0.119
1058	0.12
1059	0.121
1059	0.122
1060	0.124
1060	0.126
1061	0.127
1061	0.129
1061	0.131
1062	0.132
1062	0.132
1063	0.133
1063	0.135
1063	0.135
1064	0.137
1064	0.138
1065	0.14
1065	0.141
1066	0.143
1066	0.145
1066	0.147
1067	0.149
1067	0.151
1068	0.152
1068	0.154
1068	0.155
1069	0.157
1069	0.158
1070	0.16
1070	0.161
1071	0.163
1071	0.165
1071	0.167
1072	0.169
1072	0.173
1073	0.176
1073	0.179
1073	0.181
1074	0.184
1074	0.187
1075	0.189
1075	0.191
1076	0.193
1076	0.196
1076	0.198
1077	0.2
1077	0.203
1078	0.206
1078	0.21
1078	0.213
1079	0.216
1079	0.221
1080	0.224
1080	0.228
1080	0.23
1081	0.234
1081	0.238
1082	0.242
1082	0.246
1083	0.25
1083	0.255
1083	0.262
1084	0.267
1084	0.274
1085	0.281
1085	0.289
1085	0.297
1086	0.304
1086	0.311
1087	0.319
1087	0.327
1088	0.336
1088	0.345
1088	0.355
1089	0.366
1089	0.378
1090	0.391
1090	0.406
1090	0.422
1091	0.439
1091	0.46
1092	0.482
1092	0.505
1092	0.53
1093	0.556
1093	0.588
1094	0.621
1094	0.657
1095	0.699
1095	0.754
1095	0.822
1096	0.9
1096	1
1097	1.15
1097	1.373
1097	1.977
1098	-0
1098	-0
1099	-0
1099	-0
1100	-0
1100	-0
1100	-0
1101	-0
1101	-0
1102	-0
1102	-0
1102	-0
1103	-0
1103	-0
1104	-0
1104	-0
1104	-0
1105	-0
1105	-0
1106	-0
1106	-0
1107	-0
1107	-0
1107	-0
1108	-0
1108	-0
1109	-0
1109	-0
1109	-0
1110	-0
1110	-0
1111	-0
1111	-0
