Data from 15c-2-5a_Absorbance__156__01063.txt Node

Date: Tue Jan 16 11:32:26 CET 2024
User: Marek
Spectrometer: MAYP115816
Trigger mode: 0
Integration Time (sec): 2.000000E-1
Scans to average: 10
Electric dark correction enabled: true
Nonlinearity correction enabled: true
Boxcar width: 5
XAxis mode: Wavelengths
Number of Pixels in Spectrum: 2068
>>>>>Begin Spectral Data<<<<<
199	-2.222
199	-2.033
200	-1.897
200	-1.777
201	-1.703
201	-1.65
202	-1.574
202	-1.511
203	-1.461
203	-1.412
204	-1.385
204	-1.359
205	-1.339
205	-1.327
205	-1.324
206	-1.319
206	-1.316
207	-1.313
207	-1.312
208	-1.308
208	-1.307
209	-1.303
209	-1.3
210	-1.3
210	-1.297
211	-1.295
211	-1.295
212	-1.294
212	-1.293
213	-1.291
213	-1.29
213	-1.29
214	-1.288
214	-1.287
215	-1.286
215	-1.286
216	-1.282
216	-1.281
217	-1.278
217	-1.276
218	-1.272
218	-1.268
219	-1.264
219	-1.262
220	-1.26
220	-1.259
221	-1.254
221	-1.253
221	-1.248
222	-1.244
222	-1.238
223	-1.233
223	-1.228
224	-1.222
224	-1.214
225	-1.205
225	-1.195
226	-1.187
226	-1.177
227	-1.163
227	-1.15
228	-1.134
228	-1.118
229	-1.097
229	-1.074
229	-1.048
230	-1.019
230	-0.987
231	-0.951
231	-0.912
232	-0.872
232	-0.829
233	-0.783
233	-0.735
234	-0.687
234	-0.638
235	-0.588
235	-0.539
236	-0.49
236	-0.442
236	-0.394
237	-0.348
237	-0.304
238	-0.262
238	-0.221
239	-0.182
239	-0.146
240	-0.112
240	-0.08
241	-0.049
241	-0.021
242	0.005
242	0.03
243	0.052
243	0.073
243	0.093
244	0.111
244	0.128
245	0.143
245	0.158
246	0.171
246	0.184
247	0.195
247	0.206
248	0.216
248	0.226
249	0.234
249	0.243
250	0.25
250	0.258
250	0.265
251	0.271
251	0.277
252	0.283
252	0.288
253	0.293
253	0.298
254	0.302
254	0.306
255	0.31
255	0.314
256	0.317
256	0.32
257	0.323
257	0.325
258	0.328
258	0.33
258	0.332
259	0.333
259	0.335
260	0.336
260	0.337
261	0.338
261	0.339
262	0.34
262	0.341
263	0.342
263	0.342
264	0.343
264	0.343
265	0.344
265	0.344
265	0.344
266	0.345
266	0.345
267	0.345
267	0.344
268	0.344
268	0.343
269	0.343
269	0.342
270	0.341
270	0.34
271	0.339
271	0.338
272	0.338
272	0.337
272	0.336
273	0.335
273	0.335
274	0.334
274	0.333
275	0.332
275	0.331
276	0.33
276	0.329
277	0.327
277	0.325
278	0.323
278	0.322
278	0.32
279	0.318
279	0.317
280	0.316
280	0.315
281	0.315
281	0.314
282	0.314
282	0.314
283	0.314
283	0.313
284	0.313
284	0.313
285	0.312
285	0.311
285	0.31
286	0.309
286	0.309
287	0.308
287	0.307
288	0.306
288	0.305
289	0.305
289	0.304
290	0.303
290	0.302
291	0.302
291	0.301
292	0.3
292	0.3
292	0.299
293	0.298
293	0.297
294	0.296
294	0.296
295	0.295
295	0.295
296	0.294
296	0.293
297	0.293
297	0.292
298	0.292
298	0.291
298	0.291
299	0.29
299	0.29
300	0.289
300	0.288
301	0.288
301	0.287
302	0.286
302	0.286
303	0.285
303	0.285
304	0.284
304	0.284
305	0.283
305	0.282
305	0.282
306	0.281
306	0.28
307	0.28
307	0.279
308	0.278
308	0.277
309	0.276
309	0.275
310	0.275
310	0.274
311	0.273
311	0.273
311	0.272
312	0.271
312	0.27
313	0.27
313	0.269
314	0.268
314	0.268
315	0.267
315	0.266
316	0.265
316	0.264
317	0.263
317	0.262
318	0.262
318	0.261
318	0.26
319	0.259
319	0.258
320	0.257
320	0.256
321	0.255
321	0.254
322	0.253
322	0.253
323	0.252
323	0.251
324	0.25
324	0.249
324	0.248
325	0.248
325	0.247
326	0.246
326	0.245
327	0.244
327	0.244
328	0.243
328	0.242
329	0.241
329	0.24
330	0.239
330	0.239
330	0.238
331	0.237
331	0.236
332	0.235
332	0.234
333	0.234
333	0.233
334	0.232
334	0.231
335	0.231
335	0.23
336	0.229
336	0.228
336	0.228
337	0.227
337	0.226
338	0.225
338	0.225
339	0.224
339	0.224
340	0.223
340	0.222
341	0.221
341	0.221
342	0.22
342	0.22
342	0.219
343	0.218
343	0.218
344	0.217
344	0.216
345	0.215
345	0.215
346	0.214
346	0.213
347	0.212
347	0.212
348	0.211
348	0.21
348	0.209
349	0.208
349	0.208
350	0.207
350	0.206
351	0.205
351	0.204
352	0.203
352	0.202
353	0.201
353	0.2
354	0.199
354	0.197
354	0.196
355	0.195
355	0.194
356	0.193
356	0.192
357	0.191
357	0.19
358	0.191
358	0.191
359	0.192
359	0.193
360	0.194
360	0.194
360	0.195
361	0.196
361	0.197
362	0.197
362	0.197
363	0.198
363	0.197
364	0.197
364	0.196
365	0.196
365	0.196
366	0.195
366	0.195
366	0.194
367	0.194
367	0.194
368	0.193
368	0.193
369	0.192
369	0.192
370	0.191
370	0.191
371	0.19
371	0.19
372	0.189
372	0.189
372	0.188
373	0.188
373	0.188
374	0.188
374	0.188
375	0.188
375	0.188
376	0.188
376	0.188
377	0.189
377	0.189
378	0.19
378	0.19
378	0.19
379	0.19
379	0.19
380	0.19
380	0.19
381	0.19
381	0.19
382	0.19
382	0.189
383	0.189
383	0.189
383	0.188
384	0.188
384	0.187
385	0.187
385	0.187
386	0.187
386	0.187
387	0.187
387	0.187
388	0.187
388	0.187
389	0.186
389	0.186
389	0.186
390	0.186
390	0.186
391	0.187
391	0.187
392	0.187
392	0.187
393	0.188
393	0.188
394	0.188
394	0.188
394	0.187
395	0.187
395	0.187
396	0.187
396	0.187
397	0.187
397	0.187
398	0.187
398	0.187
399	0.187
399	0.187
400	0.187
400	0.187
400	0.186
401	0.185
401	0.184
402	0.183
402	0.182
403	0.182
403	0.182
404	0.181
404	0.181
405	0.181
405	0.181
405	0.181
406	0.18
406	0.18
407	0.18
407	0.18
408	0.18
408	0.179
409	0.178
409	0.178
410	0.178
410	0.178
411	0.178
411	0.178
411	0.177
412	0.177
412	0.177
413	0.176
413	0.176
414	0.175
414	0.175
415	0.175
415	0.174
416	0.174
416	0.174
416	0.173
417	0.173
417	0.173
418	0.173
418	0.173
419	0.174
419	0.175
420	0.175
420	0.177
421	0.177
421	0.178
421	0.178
422	0.178
422	0.179
423	0.179
423	0.179
424	0.178
424	0.177
425	0.176
425	0.175
426	0.174
426	0.174
427	0.173
427	0.173
427	0.174
428	0.174
428	0.175
429	0.176
429	0.177
430	0.177
430	0.177
431	0.177
431	0.176
432	0.176
432	0.175
432	0.174
433	0.173
433	0.172
434	0.171
434	0.17
435	0.17
435	0.17
436	0.17
436	0.171
437	0.171
437	0.171
437	0.171
438	0.171
438	0.171
439	0.171
439	0.17
440	0.17
440	0.17
441	0.17
441	0.17
442	0.171
442	0.171
442	0.172
443	0.172
443	0.173
444	0.173
444	0.174
445	0.174
445	0.175
446	0.175
446	0.175
447	0.175
447	0.174
447	0.174
448	0.174
448	0.174
449	0.173
449	0.173
450	0.173
450	0.172
451	0.172
451	0.171
452	0.171
452	0.17
452	0.17
453	0.169
453	0.169
454	0.168
454	0.167
455	0.166
455	0.166
456	0.166
456	0.165
457	0.165
457	0.165
458	0.165
458	0.165
458	0.165
459	0.166
459	0.166
460	0.166
460	0.165
461	0.165
461	0.164
462	0.164
462	0.164
463	0.164
463	0.164
463	0.165
464	0.166
464	0.166
465	0.166
465	0.166
466	0.166
466	0.166
467	0.166
467	0.166
467	0.165
468	0.163
468	0.161
469	0.159
469	0.158
470	0.157
470	0.156
471	0.156
471	0.156
472	0.156
472	0.156
472	0.157
473	0.158
473	0.16
474	0.161
474	0.162
475	0.163
475	0.164
476	0.164
476	0.164
477	0.165
477	0.165
477	0.165
478	0.165
478	0.166
479	0.166
479	0.167
480	0.167
480	0.168
481	0.169
481	0.169
482	0.17
482	0.171
482	0.172
483	0.174
483	0.177
484	0.181
484	0.184
485	0.186
485	0.188
486	0.189
486	0.19
487	0.191
487	0.191
487	0.192
488	0.191
488	0.19
489	0.187
489	0.185
490	0.184
490	0.182
491	0.182
491	0.182
492	0.182
492	0.182
492	0.183
493	0.183
493	0.184
494	0.186
494	0.188
495	0.19
495	0.191
496	0.192
496	0.193
496	0.194
497	0.195
497	0.196
498	0.197
498	0.197
499	0.197
499	0.197
500	0.197
500	0.199
501	0.2
501	0.202
501	0.203
502	0.205
502	0.206
503	0.208
503	0.209
504	0.21
504	0.211
505	0.211
505	0.211
506	0.211
506	0.212
506	0.212
507	0.212
507	0.212
508	0.213
508	0.213
509	0.213
509	0.214
510	0.214
510	0.214
511	0.215
511	0.215
511	0.214
512	0.214
512	0.214
513	0.213
513	0.212
514	0.211
514	0.211
515	0.21
515	0.209
515	0.208
516	0.206
516	0.205
517	0.206
517	0.206
518	0.207
518	0.207
519	0.206
519	0.205
520	0.203
520	0.202
520	0.2
521	0.197
521	0.195
522	0.191
522	0.188
523	0.184
523	0.182
524	0.181
524	0.181
524	0.181
525	0.183
525	0.185
526	0.188
526	0.191
527	0.196
527	0.2
528	0.203
528	0.206
529	0.208
529	0.21
529	0.212
530	0.213
530	0.214
531	0.214
531	0.215
532	0.215
532	0.215
533	0.216
533	0.216
533	0.216
534	0.216
534	0.215
535	0.215
535	0.215
536	0.215
536	0.214
537	0.214
537	0.214
538	0.213
538	0.212
538	0.211
539	0.21
539	0.209
540	0.209
540	0.208
541	0.206
541	0.205
542	0.203
542	0.201
542	0.2
543	0.198
543	0.198
544	0.196
544	0.195
545	0.194
545	0.194
546	0.193
546	0.193
547	0.192
547	0.19
547	0.187
548	0.185
548	0.183
549	0.181
549	0.179
550	0.177
550	0.175
551	0.173
551	0.171
551	0.169
552	0.168
552	0.167
553	0.167
553	0.167
554	0.167
554	0.166
555	0.164
555	0.161
556	0.158
556	0.156
556	0.153
557	0.15
557	0.148
558	0.146
558	0.143
559	0.142
559	0.141
560	0.141
560	0.141
560	0.141
561	0.141
561	0.142
562	0.142
562	0.141
563	0.14
563	0.138
564	0.135
564	0.132
564	0.129
565	0.127
565	0.126
566	0.124
566	0.123
567	0.123
567	0.124
568	0.126
568	0.128
568	0.13
569	0.133
569	0.136
570	0.138
570	0.139
571	0.141
571	0.142
572	0.143
572	0.143
573	0.144
573	0.144
573	0.143
574	0.142
574	0.142
575	0.141
575	0.142
576	0.144
576	0.143
577	0.143
577	0.141
577	0.141
578	0.14
578	0.14
579	0.141
579	0.142
580	0.143
580	0.142
581	0.139
581	0.137
581	0.136
582	0.135
582	0.135
583	0.135
583	0.135
584	0.133
584	0.129
585	0.126
585	0.125
585	0.124
586	0.123
586	0.123
587	0.122
587	0.12
588	0.117
588	0.114
589	0.112
589	0.111
590	0.11
590	0.108
590	0.109
591	0.11
591	0.11
592	0.11
592	0.109
593	0.109
593	0.109
594	0.108
594	0.108
594	0.107
595	0.106
595	0.105
596	0.103
596	0.104
597	0.105
597	0.108
598	0.109
598	0.111
598	0.113
599	0.114
599	0.114
600	0.114
600	0.113
601	0.112
601	0.111
602	0.109
602	0.107
602	0.105
603	0.104
603	0.104
604	0.104
604	0.105
605	0.106
605	0.108
606	0.109
606	0.109
606	0.108
607	0.108
607	0.108
608	0.107
608	0.105
609	0.104
609	0.103
610	0.101
610	0.1
610	0.098
611	0.098
611	0.098
612	0.099
612	0.1
613	0.102
613	0.103
614	0.103
614	0.103
614	0.103
615	0.103
615	0.102
616	0.101
616	0.101
617	0.1
617	0.099
618	0.098
618	0.097
618	0.096
619	0.096
619	0.097
620	0.098
620	0.099
621	0.1
621	0.101
622	0.102
622	0.102
622	0.103
623	0.103
623	0.104
624	0.104
624	0.104
625	0.104
625	0.104
626	0.104
626	0.104
626	0.104
627	0.104
627	0.104
628	0.105
628	0.105
629	0.105
629	0.105
630	0.105
630	0.105
630	0.105
631	0.106
631	0.107
632	0.107
632	0.107
633	0.108
633	0.109
634	0.11
634	0.112
634	0.114
635	0.116
635	0.117
636	0.119
636	0.12
637	0.122
637	0.123
638	0.124
638	0.126
638	0.127
639	0.127
639	0.128
640	0.129
640	0.13
641	0.131
641	0.132
642	0.134
642	0.136
642	0.137
643	0.139
643	0.14
644	0.141
644	0.143
645	0.145
645	0.147
646	0.149
646	0.152
646	0.156
647	0.16
647	0.164
648	0.167
648	0.171
649	0.174
649	0.177
650	0.18
650	0.183
650	0.186
651	0.189
651	0.191
652	0.192
652	0.194
653	0.197
653	0.205
653	0.21
654	0.172
654	0.143
655	0.149
655	0.151
656	0.153
656	0.155
657	0.157
657	0.158
657	0.159
658	0.156
658	0.15
659	0.186
659	0.233
660	0.234
660	0.235
661	0.236
661	0.238
661	0.241
662	0.244
662	0.247
663	0.25
663	0.254
664	0.256
664	0.259
665	0.261
665	0.264
665	0.267
666	0.27
666	0.272
667	0.275
667	0.278
668	0.281
668	0.283
669	0.286
669	0.289
669	0.293
670	0.298
670	0.301
671	0.304
671	0.306
672	0.307
672	0.308
672	0.309
673	0.309
673	0.31
674	0.311
674	0.311
675	0.311
675	0.311
676	0.312
676	0.315
676	0.317
677	0.319
677	0.322
678	0.324
678	0.326
679	0.328
679	0.329
680	0.331
680	0.333
680	0.333
681	0.333
681	0.334
682	0.335
682	0.336
683	0.338
683	0.341
684	0.344
684	0.346
684	0.347
685	0.348
685	0.35
686	0.351
686	0.352
687	0.352
687	0.352
687	0.352
688	0.351
688	0.349
689	0.349
689	0.35
690	0.35
690	0.35
691	0.35
691	0.35
691	0.351
692	0.351
692	0.351
693	0.351
693	0.352
694	0.352
694	0.351
695	0.351
695	0.353
695	0.353
696	0.353
696	0.352
697	0.351
697	0.35
698	0.348
698	0.346
698	0.343
699	0.342
699	0.339
700	0.335
700	0.332
701	0.331
701	0.33
702	0.328
702	0.327
702	0.325
703	0.324
703	0.323
704	0.321
704	0.321
705	0.32
705	0.319
705	0.318
706	0.317
706	0.316
707	0.314
707	0.312
708	0.31
708	0.309
709	0.307
709	0.306
709	0.302
710	0.299
710	0.296
711	0.293
711	0.291
712	0.289
712	0.287
713	0.286
713	0.284
713	0.281
714	0.278
714	0.275
715	0.273
715	0.27
716	0.267
716	0.264
716	0.262
717	0.259
717	0.257
718	0.254
718	0.252
719	0.25
719	0.249
720	0.248
720	0.246
720	0.244
721	0.241
721	0.238
722	0.236
722	0.233
723	0.23
723	0.228
723	0.225
724	0.222
724	0.219
725	0.216
725	0.213
726	0.211
726	0.209
727	0.207
727	0.205
727	0.203
728	0.201
728	0.199
729	0.199
729	0.198
730	0.197
730	0.195
730	0.194
731	0.192
731	0.191
732	0.19
732	0.189
733	0.187
733	0.185
734	0.182
734	0.18
734	0.178
735	0.177
735	0.175
736	0.172
736	0.17
737	0.168
737	0.166
737	0.164
738	0.162
738	0.158
739	0.155
739	0.152
740	0.15
740	0.148
741	0.146
741	0.143
741	0.14
742	0.135
742	0.131
743	0.128
743	0.125
744	0.123
744	0.121
744	0.118
745	0.116
745	0.113
746	0.111
746	0.11
747	0.109
747	0.109
748	0.108
748	0.108
748	0.107
749	0.107
749	0.106
750	0.106
750	0.105
751	0.105
751	0.105
751	0.105
752	0.104
752	0.102
753	0.101
753	0.1
754	0.1
754	0.099
754	0.099
755	0.098
755	0.098
756	0.098
756	0.096
757	0.094
757	0.093
758	0.092
758	0.09
758	0.089
759	0.087
759	0.085
760	0.081
760	0.078
761	0.075
761	0.073
761	0.071
762	0.069
762	0.068
763	0.067
763	0.065
764	0.062
764	0.06
764	0.058
765	0.056
765	0.054
766	0.052
766	0.052
767	0.051
767	0.048
768	0.045
768	0.043
768	0.041
769	0.041
769	0.04
770	0.039
770	0.037
771	0.035
771	0.032
771	0.028
772	0.026
772	0.023
773	0.02
773	0.017
774	0.013
774	0.009
775	0.006
775	0.002
775	-0.002
776	-0.007
776	-0.012
777	-0.017
777	-0.022
778	-0.028
778	-0.034
778	-0.04
779	-0.044
779	-0.046
780	-0.049
780	-0.054
781	-0.057
781	-0.06
781	-0.062
782	-0.065
782	-0.068
783	-0.07
783	-0.071
784	-0.072
784	-0.075
784	-0.077
785	-0.078
785	-0.08
786	-0.081
786	-0.079
787	-0.075
787	-0.071
788	-0.07
788	-0.071
788	-0.072
789	-0.074
789	-0.073
790	-0.07
790	-0.069
791	-0.07
791	-0.071
791	-0.074
792	-0.068
792	-0.059
793	-0.053
793	-0.05
794	-0.048
794	-0.05
794	-0.053
795	-0.055
795	-0.055
796	-0.055
796	-0.057
797	-0.065
797	-0.074
797	-0.08
798	-0.085
798	-0.088
799	-0.089
799	-0.088
800	-0.088
800	-0.091
801	-0.094
801	-0.095
801	-0.096
802	-0.098
802	-0.099
803	-0.1
803	-0.101
804	-0.1
804	-0.095
804	-0.089
805	-0.085
805	-0.083
806	-0.081
806	-0.08
807	-0.079
807	-0.078
807	-0.077
808	-0.077
808	-0.077
809	-0.081
809	-0.086
810	-0.089
810	-0.091
810	-0.094
811	-0.096
811	-0.096
812	-0.093
812	-0.09
813	-0.09
813	-0.091
813	-0.092
814	-0.092
814	-0.092
815	-0.09
815	-0.087
816	-0.085
816	-0.086
817	-0.09
817	-0.093
817	-0.094
818	-0.093
818	-0.09
819	-0.085
819	-0.083
820	-0.084
820	-0.086
820	-0.087
821	-0.087
821	-0.085
822	-0.083
822	-0.08
823	-0.076
823	-0.074
823	-0.073
824	-0.07
824	-0.063
825	-0.055
825	-0.045
826	-0.036
826	-0.028
826	-0.02
827	-0.013
827	-0.006
828	-0
828	0.005
829	0.009
829	0.013
829	0.017
830	0.019
830	0.022
831	0.026
831	0.029
832	0.032
832	0.034
832	0.036
833	0.038
833	0.041
834	0.042
834	0.044
835	0.045
835	0.046
835	0.047
836	0.048
836	0.048
837	0.049
837	0.05
838	0.05
838	0.05
839	0.051
839	0.051
839	0.052
840	0.053
840	0.053
841	0.054
841	0.056
842	0.057
842	0.058
842	0.06
843	0.061
843	0.062
844	0.063
844	0.065
845	0.066
845	0.068
845	0.069
846	0.071
846	0.072
847	0.074
847	0.075
848	0.077
848	0.078
848	0.08
849	0.081
849	0.081
850	0.082
850	0.082
851	0.083
851	0.083
851	0.083
852	0.084
852	0.084
853	0.084
853	0.085
854	0.085
854	0.086
854	0.086
855	0.087
855	0.087
856	0.087
856	0.087
857	0.086
857	0.086
857	0.085
858	0.084
858	0.083
859	0.082
859	0.082
860	0.081
860	0.081
860	0.08
861	0.08
861	0.079
862	0.079
862	0.079
863	0.079
863	0.08
863	0.08
864	0.081
864	0.082
865	0.083
865	0.084
866	0.085
866	0.086
866	0.087
867	0.088
867	0.09
868	0.091
868	0.092
869	0.092
869	0.093
869	0.093
870	0.093
870	0.093
871	0.093
871	0.093
872	0.093
872	0.093
872	0.093
873	0.093
873	0.093
874	0.093
874	0.093
875	0.094
875	0.095
875	0.095
876	0.095
876	0.096
877	0.096
877	0.095
878	0.095
878	0.094
878	0.093
879	0.092
879	0.091
880	0.09
880	0.089
881	0.088
881	0.087
881	0.087
882	0.087
882	0.087
883	0.087
883	0.087
884	0.088
884	0.088
884	0.089
885	0.09
885	0.091
886	0.092
886	0.092
887	0.093
887	0.093
887	0.094
888	0.094
888	0.094
889	0.094
889	0.095
890	0.095
890	0.095
890	0.095
891	0.096
891	0.096
892	0.096
892	0.096
893	0.096
893	0.096
893	0.097
894	0.097
894	0.097
895	0.097
895	0.097
895	0.098
896	0.098
896	0.098
897	0.099
897	0.099
898	0.1
898	0.1
898	0.1
899	0.1
899	0.1
900	0.1
900	0.1
901	0.101
901	0.101
901	0.101
902	0.102
902	0.102
903	0.102
903	0.102
904	0.102
904	0.102
904	0.101
905	0.101
905	0.101
906	0.101
906	0.1
907	0.1
907	0.1
907	0.1
908	0.1
908	0.101
909	0.101
909	0.102
910	0.102
910	0.102
910	0.102
911	0.102
911	0.102
912	0.103
912	0.103
913	0.103
913	0.103
913	0.104
914	0.104
914	0.104
915	0.104
915	0.104
916	0.103
916	0.103
916	0.102
917	0.101
917	0.1
918	0.099
918	0.099
918	0.098
919	0.097
919	0.097
920	0.097
920	0.097
921	0.097
921	0.097
921	0.096
922	0.096
922	0.096
923	0.095
923	0.095
924	0.094
924	0.093
924	0.093
925	0.092
925	0.091
926	0.09
926	0.089
927	0.089
927	0.088
927	0.088
928	0.088
928	0.088
929	0.088
929	0.089
930	0.09
930	0.091
930	0.092
931	0.093
931	0.094
932	0.096
932	0.098
933	0.099
933	0.101
933	0.102
934	0.103
934	0.104
935	0.105
935	0.105
935	0.106
936	0.107
936	0.108
937	0.108
937	0.109
938	0.109
938	0.11
938	0.111
939	0.112
939	0.113
940	0.113
940	0.114
941	0.115
941	0.115
941	0.115
942	0.115
942	0.114
943	0.114
943	0.113
944	0.113
944	0.112
944	0.113
945	0.113
945	0.113
946	0.114
946	0.114
946	0.115
947	0.116
947	0.116
948	0.116
948	0.116
949	0.116
949	0.116
949	0.116
950	0.115
950	0.115
951	0.114
951	0.114
952	0.113
952	0.113
952	0.113
953	0.113
953	0.113
954	0.113
954	0.113
955	0.113
955	0.114
955	0.115
956	0.116
956	0.116
957	0.117
957	0.117
957	0.117
958	0.117
958	0.117
959	0.116
959	0.116
960	0.115
960	0.114
960	0.113
961	0.112
961	0.112
962	0.111
962	0.112
963	0.112
963	0.112
963	0.112
964	0.112
964	0.112
965	0.113
965	0.114
966	0.114
966	0.115
966	0.115
967	0.115
967	0.115
968	0.114
968	0.114
968	0.113
969	0.112
969	0.111
970	0.11
970	0.11
971	0.109
971	0.108
971	0.107
972	0.107
972	0.107
973	0.107
973	0.107
974	0.108
974	0.108
974	0.109
975	0.109
975	0.11
976	0.111
976	0.111
976	0.111
977	0.111
977	0.111
978	0.11
978	0.11
979	0.11
979	0.109
979	0.109
980	0.108
980	0.107
981	0.106
981	0.106
982	0.106
982	0.105
982	0.105
983	0.105
983	0.105
984	0.105
984	0.104
984	0.104
985	0.103
985	0.103
986	0.102
986	0.101
987	0.1
987	0.099
987	0.099
988	0.098
988	0.097
989	0.097
989	0.097
990	0.097
990	0.097
990	0.097
991	0.098
991	0.099
992	0.099
992	0.1
992	0.1
993	0.101
993	0.101
994	0.102
994	0.102
995	0.102
995	0.102
995	0.101
996	0.101
996	0.1
997	0.1
997	0.1
997	0.1
998	0.1
998	0.1
999	0.101
999	0.101
1000	0.102
1000	0.102
1000	0.103
1001	0.103
1001	0.104
1002	0.104
1002	0.104
1003	0.105
1003	0.105
1003	0.105
1004	0.105
1004	0.105
1005	0.105
1005	0.105
1005	0.104
1006	0.104
1006	0.104
1007	0.103
1007	0.103
1008	0.103
1008	0.103
1008	0.102
1009	0.103
1009	0.103
1010	0.103
1010	0.103
1010	0.103
1011	0.103
1011	0.103
1012	0.104
1012	0.104
1013	0.104
1013	0.103
1013	0.103
1014	0.103
1014	0.102
1015	0.102
1015	0.102
1016	0.101
1016	0.101
1016	0.101
1017	0.1
1017	0.099
1018	0.099
1018	0.099
1018	0.099
1019	0.098
1019	0.098
1020	0.098
1020	0.098
1021	0.097
1021	0.097
1021	0.097
1022	0.097
1022	0.097
1023	0.097
1023	0.097
1023	0.096
1024	0.096
1024	0.095
1025	0.094
1025	0.094
1026	0.093
1026	0.093
1026	0.092
1027	0.092
1027	0.092
1028	0.091
1028	0.091
1028	0.091
1029	0.091
1029	0.092
1030	0.092
1030	0.092
1031	0.093
1031	0.093
1031	0.093
1032	0.094
1032	0.095
1033	0.095
1033	0.096
1033	0.096
1034	0.096
1034	0.096
1035	0.096
1035	0.097
1036	0.097
1036	0.098
1036	0.099
1037	0.1
1037	0.101
1038	0.101
1038	0.103
1039	0.104
1039	0.106
1039	0.107
1040	0.108
1040	0.109
1041	0.109
1041	0.11
1041	0.11
1042	0.11
1042	0.11
1043	0.11
1043	0.109
1044	0.109
1044	0.108
1044	0.108
1045	0.107
1045	0.107
1046	0.106
1046	0.106
1046	0.106
1047	0.105
1047	0.105
1048	0.105
1048	0.105
1049	0.105
1049	0.104
1049	0.104
1050	0.104
1050	0.104
1051	0.105
1051	0.105
1051	0.105
1052	0.106
1052	0.106
1053	0.107
1053	0.107
1053	0.108
1054	0.109
1054	0.11
1055	0.111
1055	0.111
1056	0.112
1056	0.112
1056	0.112
1057	0.113
1057	0.114
1058	0.116
1058	0.117
1058	0.119
1059	0.121
1059	0.123
1060	0.124
1060	0.127
1061	0.129
1061	0.131
1061	0.132
1062	0.133
1062	0.134
1063	0.135
1063	0.136
1063	0.137
1064	0.138
1064	0.14
1065	0.141
1065	0.142
1066	0.144
1066	0.146
1066	0.148
1067	0.15
1067	0.152
1068	0.153
1068	0.155
1068	0.156
1069	0.157
1069	0.159
1070	0.16
1070	0.162
1071	0.164
1071	0.166
1071	0.167
1072	0.169
1072	0.172
1073	0.175
1073	0.178
1073	0.18
1074	0.182
1074	0.185
1075	0.187
1075	0.189
1076	0.191
1076	0.194
1076	0.196
1077	0.198
1077	0.201
1078	0.204
1078	0.207
1078	0.211
1079	0.214
1079	0.218
1080	0.221
1080	0.225
1080	0.227
1081	0.231
1081	0.235
1082	0.239
1082	0.244
1083	0.248
1083	0.253
1083	0.259
1084	0.265
1084	0.272
1085	0.277
1085	0.284
1085	0.291
1086	0.298
1086	0.303
1087	0.311
1087	0.318
1088	0.325
1088	0.334
1088	0.343
1089	0.352
1089	0.364
1090	0.377
1090	0.391
1090	0.406
1091	0.423
1091	0.443
1092	0.463
1092	0.486
1092	0.508
1093	0.531
1093	0.56
1094	0.59
1094	0.625
1095	0.664
1095	0.71
1095	0.77
1096	0.831
1096	0.91
1097	1.027
1097	1.17
1097	1.426
1098	2.096
1098	-0
1099	-0
1099	-0
1100	-0
1100	-0
1100	-0
1101	-0
1101	-0
1102	-0
1102	-0
1102	-0
1103	-0
1103	-0
1104	-0
1104	-0
1104	-0
1105	-0
1105	-0
1106	-0
1106	-0
1107	-0
1107	-0
1107	-0
1108	-0
1108	-0
1109	-0
1109	-0
1109	-0
1110	-0
1110	-0
1111	-0
1111	-0
