Data from 15c-2-5a_Absorbance__516__01423.txt Node

Date: Tue Jan 16 11:44:26 CET 2024
User: Marek
Spectrometer: MAYP115816
Trigger mode: 0
Integration Time (sec): 2.000000E-1
Scans to average: 10
Electric dark correction enabled: true
Nonlinearity correction enabled: true
Boxcar width: 5
XAxis mode: Wavelengths
Number of Pixels in Spectrum: 2068
>>>>>Begin Spectral Data<<<<<
199	-2.218
199	-2.029
200	-1.893
200	-1.773
201	-1.698
201	-1.646
202	-1.569
202	-1.507
203	-1.457
203	-1.408
204	-1.38
204	-1.355
205	-1.335
205	-1.323
205	-1.32
206	-1.315
206	-1.312
207	-1.309
207	-1.309
208	-1.304
208	-1.303
209	-1.299
209	-1.296
210	-1.295
210	-1.292
211	-1.292
211	-1.29
212	-1.289
212	-1.289
213	-1.286
213	-1.286
213	-1.286
214	-1.284
214	-1.283
215	-1.282
215	-1.282
216	-1.278
216	-1.278
217	-1.275
217	-1.272
218	-1.268
218	-1.264
219	-1.26
219	-1.259
220	-1.256
220	-1.255
221	-1.25
221	-1.249
221	-1.244
222	-1.239
222	-1.234
223	-1.229
223	-1.224
224	-1.219
224	-1.21
225	-1.201
225	-1.191
226	-1.182
226	-1.173
227	-1.159
227	-1.146
228	-1.13
228	-1.114
229	-1.093
229	-1.069
229	-1.043
230	-1.014
230	-0.982
231	-0.946
231	-0.907
232	-0.867
232	-0.823
233	-0.777
233	-0.729
234	-0.681
234	-0.631
235	-0.582
235	-0.533
236	-0.483
236	-0.435
236	-0.387
237	-0.341
237	-0.297
238	-0.254
238	-0.213
239	-0.174
239	-0.138
240	-0.103
240	-0.071
241	-0.041
241	-0.012
242	0.014
242	0.039
243	0.062
243	0.083
243	0.103
244	0.121
244	0.138
245	0.154
245	0.169
246	0.182
246	0.195
247	0.206
247	0.218
248	0.228
248	0.237
249	0.246
249	0.255
250	0.262
250	0.27
250	0.277
251	0.284
251	0.29
252	0.296
252	0.301
253	0.307
253	0.311
254	0.315
254	0.32
255	0.323
255	0.327
256	0.331
256	0.333
257	0.336
257	0.339
258	0.341
258	0.343
258	0.345
259	0.347
259	0.349
260	0.351
260	0.352
261	0.353
261	0.354
262	0.355
262	0.355
263	0.356
263	0.357
264	0.358
264	0.358
265	0.359
265	0.359
265	0.359
266	0.359
266	0.359
267	0.359
267	0.359
268	0.358
268	0.358
269	0.357
269	0.357
270	0.356
270	0.355
271	0.354
271	0.353
272	0.352
272	0.352
272	0.351
273	0.349
273	0.348
274	0.348
274	0.347
275	0.346
275	0.345
276	0.343
276	0.342
277	0.34
277	0.338
278	0.337
278	0.335
278	0.333
279	0.332
279	0.33
280	0.329
280	0.328
281	0.328
281	0.327
282	0.326
282	0.326
283	0.326
283	0.326
284	0.325
284	0.325
285	0.324
285	0.323
285	0.322
286	0.321
286	0.32
287	0.319
287	0.319
288	0.318
288	0.317
289	0.316
289	0.316
290	0.315
290	0.314
291	0.313
291	0.313
292	0.312
292	0.311
292	0.31
293	0.309
293	0.308
294	0.308
294	0.307
295	0.306
295	0.306
296	0.305
296	0.304
297	0.303
297	0.303
298	0.302
298	0.301
298	0.301
299	0.3
299	0.299
300	0.298
300	0.298
301	0.297
301	0.297
302	0.296
302	0.295
303	0.295
303	0.294
304	0.294
304	0.293
305	0.293
305	0.292
305	0.291
306	0.29
306	0.29
307	0.289
307	0.288
308	0.287
308	0.287
309	0.286
309	0.285
310	0.284
310	0.283
311	0.283
311	0.282
311	0.281
312	0.28
312	0.279
313	0.279
313	0.278
314	0.277
314	0.276
315	0.275
315	0.274
316	0.273
316	0.273
317	0.272
317	0.271
318	0.27
318	0.269
318	0.268
319	0.268
319	0.267
320	0.266
320	0.265
321	0.264
321	0.263
322	0.262
322	0.261
323	0.26
323	0.259
324	0.258
324	0.257
324	0.256
325	0.256
325	0.255
326	0.254
326	0.254
327	0.253
327	0.252
328	0.251
328	0.25
329	0.249
329	0.249
330	0.248
330	0.247
330	0.246
331	0.245
331	0.244
332	0.243
332	0.242
333	0.242
333	0.241
334	0.24
334	0.239
335	0.238
335	0.237
336	0.237
336	0.236
336	0.235
337	0.234
337	0.233
338	0.232
338	0.232
339	0.231
339	0.23
340	0.23
340	0.229
341	0.228
341	0.228
342	0.227
342	0.226
342	0.226
343	0.225
343	0.224
344	0.224
344	0.223
345	0.222
345	0.222
346	0.221
346	0.22
347	0.22
347	0.219
348	0.218
348	0.217
348	0.217
349	0.216
349	0.215
350	0.214
350	0.213
351	0.212
351	0.211
352	0.209
352	0.208
353	0.207
353	0.206
354	0.205
354	0.204
354	0.203
355	0.201
355	0.2
356	0.199
356	0.198
357	0.197
357	0.197
358	0.197
358	0.197
359	0.198
359	0.199
360	0.2
360	0.201
360	0.201
361	0.202
361	0.203
362	0.204
362	0.204
363	0.204
363	0.204
364	0.203
364	0.203
365	0.202
365	0.202
366	0.201
366	0.201
366	0.2
367	0.2
367	0.2
368	0.199
368	0.199
369	0.198
369	0.198
370	0.197
370	0.197
371	0.196
371	0.196
372	0.196
372	0.195
372	0.195
373	0.195
373	0.195
374	0.195
374	0.195
375	0.194
375	0.194
376	0.194
376	0.195
377	0.195
377	0.195
378	0.195
378	0.196
378	0.196
379	0.196
379	0.196
380	0.197
380	0.197
381	0.197
381	0.197
382	0.196
382	0.196
383	0.195
383	0.195
383	0.194
384	0.194
384	0.194
385	0.193
385	0.193
386	0.193
386	0.193
387	0.193
387	0.193
388	0.193
388	0.193
389	0.193
389	0.192
389	0.192
390	0.192
390	0.192
391	0.193
391	0.193
392	0.193
392	0.193
393	0.194
393	0.194
394	0.194
394	0.194
394	0.194
395	0.194
395	0.193
396	0.193
396	0.193
397	0.193
397	0.194
398	0.194
398	0.194
399	0.194
399	0.193
400	0.193
400	0.193
400	0.192
401	0.191
401	0.19
402	0.189
402	0.188
403	0.188
403	0.187
404	0.187
404	0.187
405	0.187
405	0.187
405	0.186
406	0.186
406	0.186
407	0.186
407	0.186
408	0.186
408	0.185
409	0.184
409	0.184
410	0.184
410	0.184
411	0.184
411	0.183
411	0.183
412	0.183
412	0.182
413	0.182
413	0.182
414	0.181
414	0.181
415	0.181
415	0.18
416	0.18
416	0.18
416	0.179
417	0.179
417	0.179
418	0.179
418	0.179
419	0.18
419	0.18
420	0.181
420	0.182
421	0.183
421	0.183
421	0.184
422	0.184
422	0.184
423	0.184
423	0.184
424	0.184
424	0.183
425	0.181
425	0.18
426	0.179
426	0.179
427	0.179
427	0.179
427	0.179
428	0.18
428	0.181
429	0.182
429	0.183
430	0.183
430	0.183
431	0.183
431	0.183
432	0.182
432	0.182
432	0.181
433	0.179
433	0.178
434	0.177
434	0.176
435	0.176
435	0.176
436	0.176
436	0.176
437	0.177
437	0.177
437	0.177
438	0.177
438	0.177
439	0.176
439	0.176
440	0.176
440	0.176
441	0.176
441	0.176
442	0.177
442	0.177
442	0.178
443	0.178
443	0.179
444	0.179
444	0.18
445	0.18
445	0.181
446	0.181
446	0.181
447	0.18
447	0.18
447	0.18
448	0.179
448	0.179
449	0.179
449	0.178
450	0.178
450	0.178
451	0.177
451	0.177
452	0.176
452	0.175
452	0.175
453	0.174
453	0.173
454	0.173
454	0.172
455	0.171
455	0.171
456	0.171
456	0.17
457	0.17
457	0.17
458	0.17
458	0.17
458	0.171
459	0.171
459	0.171
460	0.171
460	0.17
461	0.17
461	0.169
462	0.169
462	0.169
463	0.169
463	0.17
463	0.171
464	0.171
464	0.171
465	0.172
465	0.172
466	0.172
466	0.172
467	0.172
467	0.172
467	0.17
468	0.169
468	0.167
469	0.165
469	0.163
470	0.162
470	0.162
471	0.162
471	0.162
472	0.161
472	0.162
472	0.162
473	0.163
473	0.165
474	0.166
474	0.167
475	0.168
475	0.169
476	0.169
476	0.169
477	0.17
477	0.17
477	0.17
478	0.17
478	0.171
479	0.171
479	0.172
480	0.173
480	0.174
481	0.175
481	0.175
482	0.176
482	0.178
482	0.179
483	0.181
483	0.184
484	0.188
484	0.191
485	0.193
485	0.195
486	0.196
486	0.197
487	0.198
487	0.198
487	0.198
488	0.198
488	0.196
489	0.194
489	0.192
490	0.19
490	0.189
491	0.188
491	0.188
492	0.189
492	0.189
492	0.189
493	0.19
493	0.191
494	0.192
494	0.195
495	0.197
495	0.198
496	0.199
496	0.2
496	0.201
497	0.202
497	0.202
498	0.203
498	0.204
499	0.204
499	0.203
500	0.204
500	0.205
501	0.207
501	0.208
501	0.21
502	0.212
502	0.213
503	0.215
503	0.216
504	0.217
504	0.218
505	0.218
505	0.218
506	0.218
506	0.218
506	0.219
507	0.219
507	0.219
508	0.219
508	0.219
509	0.219
509	0.22
510	0.22
510	0.221
511	0.221
511	0.221
511	0.22
512	0.22
512	0.22
513	0.22
513	0.219
514	0.217
514	0.216
515	0.215
515	0.214
515	0.213
516	0.212
516	0.212
517	0.212
517	0.213
518	0.213
518	0.213
519	0.212
519	0.21
520	0.209
520	0.206
520	0.204
521	0.201
521	0.198
522	0.195
522	0.192
523	0.189
523	0.189
524	0.189
524	0.19
524	0.193
525	0.195
525	0.199
526	0.202
526	0.205
527	0.209
527	0.212
528	0.215
528	0.217
529	0.219
529	0.22
529	0.22
530	0.221
530	0.221
531	0.222
531	0.222
532	0.222
532	0.221
533	0.222
533	0.222
533	0.222
534	0.222
534	0.222
535	0.221
535	0.22
536	0.22
536	0.22
537	0.22
537	0.22
538	0.219
538	0.218
538	0.216
539	0.215
539	0.215
540	0.215
540	0.214
541	0.212
541	0.21
542	0.209
542	0.207
542	0.206
543	0.205
543	0.204
544	0.202
544	0.201
545	0.2
545	0.199
546	0.199
546	0.199
547	0.198
547	0.196
547	0.193
548	0.191
548	0.188
549	0.186
549	0.184
550	0.182
550	0.18
551	0.178
551	0.175
551	0.173
552	0.172
552	0.171
553	0.171
553	0.17
554	0.171
554	0.17
555	0.168
555	0.165
556	0.162
556	0.159
556	0.156
557	0.153
557	0.151
558	0.149
558	0.147
559	0.145
559	0.145
560	0.145
560	0.145
560	0.144
561	0.145
561	0.146
562	0.146
562	0.145
563	0.143
563	0.141
564	0.139
564	0.135
564	0.133
565	0.131
565	0.129
566	0.128
566	0.127
567	0.127
567	0.128
568	0.13
568	0.132
568	0.134
569	0.137
569	0.14
570	0.142
570	0.143
571	0.144
571	0.145
572	0.146
572	0.146
573	0.147
573	0.147
573	0.146
574	0.145
574	0.144
575	0.144
575	0.145
576	0.146
576	0.146
577	0.145
577	0.143
577	0.142
578	0.141
578	0.141
579	0.142
579	0.144
580	0.145
580	0.143
581	0.141
581	0.138
581	0.137
582	0.137
582	0.136
583	0.137
583	0.136
584	0.134
584	0.13
585	0.128
585	0.126
585	0.126
586	0.126
586	0.126
587	0.124
587	0.122
588	0.12
588	0.117
589	0.115
589	0.114
590	0.113
590	0.112
590	0.112
591	0.113
591	0.113
592	0.113
592	0.112
593	0.112
593	0.111
594	0.111
594	0.11
594	0.109
595	0.108
595	0.107
596	0.105
596	0.106
597	0.108
597	0.11
598	0.112
598	0.114
598	0.115
599	0.116
599	0.117
600	0.116
600	0.115
601	0.114
601	0.113
602	0.111
602	0.11
602	0.108
603	0.107
603	0.106
604	0.106
604	0.107
605	0.108
605	0.11
606	0.111
606	0.111
606	0.11
607	0.11
607	0.109
608	0.109
608	0.107
609	0.106
609	0.105
610	0.104
610	0.102
610	0.101
611	0.101
611	0.101
612	0.102
612	0.103
613	0.104
613	0.106
614	0.106
614	0.106
614	0.106
615	0.106
615	0.105
616	0.105
616	0.104
617	0.104
617	0.102
618	0.101
618	0.1
618	0.099
619	0.099
619	0.1
620	0.101
620	0.103
621	0.103
621	0.104
622	0.105
622	0.106
622	0.106
623	0.106
623	0.107
624	0.108
624	0.108
625	0.108
625	0.108
626	0.108
626	0.108
626	0.108
627	0.108
627	0.108
628	0.109
628	0.109
629	0.11
629	0.11
630	0.11
630	0.109
630	0.11
631	0.11
631	0.111
632	0.111
632	0.111
633	0.111
633	0.112
634	0.113
634	0.115
634	0.117
635	0.119
635	0.121
636	0.122
636	0.124
637	0.125
637	0.127
638	0.128
638	0.13
638	0.131
639	0.132
639	0.132
640	0.133
640	0.135
641	0.136
641	0.138
642	0.139
642	0.141
642	0.143
643	0.144
643	0.145
644	0.147
644	0.149
645	0.151
645	0.153
646	0.156
646	0.159
646	0.163
647	0.167
647	0.171
648	0.174
648	0.177
649	0.181
649	0.184
650	0.187
650	0.191
650	0.194
651	0.196
651	0.198
652	0.2
652	0.201
653	0.204
653	0.213
653	0.219
654	0.179
654	0.148
655	0.155
655	0.157
656	0.159
656	0.16
657	0.162
657	0.164
657	0.165
658	0.161
658	0.154
659	0.191
659	0.241
660	0.241
660	0.242
661	0.244
661	0.245
661	0.248
662	0.251
662	0.254
663	0.257
663	0.261
664	0.264
664	0.266
665	0.269
665	0.272
665	0.274
666	0.277
666	0.28
667	0.282
667	0.285
668	0.288
668	0.291
669	0.294
669	0.297
669	0.301
670	0.306
670	0.31
671	0.313
671	0.315
672	0.316
672	0.318
672	0.319
673	0.32
673	0.321
674	0.321
674	0.322
675	0.321
675	0.321
676	0.323
676	0.325
676	0.326
677	0.329
677	0.331
678	0.334
678	0.336
679	0.337
679	0.339
680	0.34
680	0.342
680	0.342
681	0.342
681	0.343
682	0.344
682	0.345
683	0.346
683	0.349
684	0.352
684	0.353
684	0.354
685	0.355
685	0.357
686	0.358
686	0.359
687	0.36
687	0.359
687	0.359
688	0.358
688	0.357
689	0.357
689	0.358
690	0.358
690	0.358
691	0.357
691	0.358
691	0.358
692	0.358
692	0.358
693	0.358
693	0.358
694	0.358
694	0.356
695	0.356
695	0.358
695	0.359
696	0.359
696	0.358
697	0.357
697	0.356
698	0.354
698	0.352
698	0.35
699	0.348
699	0.345
700	0.341
700	0.339
701	0.337
701	0.336
702	0.334
702	0.332
702	0.331
703	0.33
703	0.328
704	0.327
704	0.326
705	0.325
705	0.324
705	0.323
706	0.322
706	0.321
707	0.319
707	0.316
708	0.314
708	0.312
709	0.311
709	0.309
709	0.305
710	0.302
710	0.299
711	0.296
711	0.294
712	0.292
712	0.29
713	0.289
713	0.287
713	0.285
714	0.282
714	0.28
715	0.277
715	0.275
716	0.272
716	0.269
716	0.267
717	0.264
717	0.262
718	0.259
718	0.257
719	0.255
719	0.254
720	0.252
720	0.251
720	0.249
721	0.246
721	0.243
722	0.24
722	0.237
723	0.235
723	0.233
723	0.23
724	0.227
724	0.224
725	0.221
725	0.218
726	0.215
726	0.213
727	0.211
727	0.208
727	0.206
728	0.204
728	0.202
729	0.201
729	0.2
730	0.199
730	0.197
730	0.196
731	0.195
731	0.194
732	0.193
732	0.191
733	0.189
733	0.187
734	0.185
734	0.183
734	0.181
735	0.179
735	0.177
736	0.175
736	0.172
737	0.17
737	0.169
737	0.167
738	0.165
738	0.161
739	0.158
739	0.156
740	0.153
740	0.151
741	0.15
741	0.147
741	0.144
742	0.139
742	0.135
743	0.131
743	0.128
744	0.126
744	0.123
744	0.121
745	0.118
745	0.115
746	0.112
746	0.11
747	0.109
747	0.109
748	0.108
748	0.108
748	0.107
749	0.106
749	0.105
750	0.105
750	0.104
751	0.104
751	0.104
751	0.104
752	0.103
752	0.102
753	0.101
753	0.1
754	0.1
754	0.099
754	0.099
755	0.099
755	0.099
756	0.099
756	0.097
757	0.096
757	0.095
758	0.094
758	0.093
758	0.092
759	0.09
759	0.088
760	0.085
760	0.081
761	0.079
761	0.077
761	0.075
762	0.073
762	0.072
763	0.071
763	0.069
764	0.066
764	0.063
764	0.061
765	0.059
765	0.056
766	0.055
766	0.054
767	0.053
767	0.051
768	0.048
768	0.046
768	0.045
769	0.044
769	0.044
770	0.043
770	0.041
771	0.039
771	0.036
771	0.033
772	0.03
772	0.028
773	0.025
773	0.022
774	0.019
774	0.015
775	0.012
775	0.008
775	0.004
776	0
776	-0.004
777	-0.009
777	-0.014
778	-0.019
778	-0.025
778	-0.031
779	-0.036
779	-0.038
780	-0.042
780	-0.048
781	-0.052
781	-0.056
781	-0.059
782	-0.062
782	-0.066
783	-0.069
783	-0.07
784	-0.072
784	-0.075
784	-0.077
785	-0.078
785	-0.081
786	-0.081
786	-0.079
787	-0.075
787	-0.071
788	-0.07
788	-0.071
788	-0.072
789	-0.074
789	-0.074
790	-0.071
790	-0.069
791	-0.07
791	-0.072
791	-0.074
792	-0.068
792	-0.059
793	-0.053
793	-0.05
794	-0.048
794	-0.05
794	-0.053
795	-0.055
795	-0.055
796	-0.055
796	-0.057
797	-0.065
797	-0.074
797	-0.08
798	-0.085
798	-0.088
799	-0.089
799	-0.089
800	-0.089
800	-0.091
801	-0.094
801	-0.095
801	-0.096
802	-0.098
802	-0.099
803	-0.1
803	-0.101
804	-0.1
804	-0.095
804	-0.089
805	-0.085
805	-0.083
806	-0.081
806	-0.08
807	-0.079
807	-0.078
807	-0.078
808	-0.077
808	-0.077
809	-0.081
809	-0.086
810	-0.089
810	-0.091
810	-0.094
811	-0.096
811	-0.097
812	-0.093
812	-0.09
813	-0.09
813	-0.091
813	-0.092
814	-0.093
814	-0.092
815	-0.09
815	-0.087
816	-0.085
816	-0.086
817	-0.09
817	-0.094
817	-0.094
818	-0.094
818	-0.09
819	-0.085
819	-0.083
820	-0.084
820	-0.086
820	-0.087
821	-0.087
821	-0.086
822	-0.084
822	-0.081
823	-0.078
823	-0.076
823	-0.076
824	-0.073
824	-0.067
825	-0.059
825	-0.05
826	-0.041
826	-0.033
826	-0.026
827	-0.018
827	-0.012
828	-0.005
828	0
829	0.005
829	0.01
829	0.013
830	0.017
830	0.02
831	0.024
831	0.027
832	0.03
832	0.033
832	0.036
833	0.038
833	0.04
834	0.042
834	0.044
835	0.045
835	0.046
835	0.047
836	0.048
836	0.048
837	0.049
837	0.049
838	0.05
838	0.05
839	0.051
839	0.051
839	0.051
840	0.052
840	0.052
841	0.053
841	0.054
842	0.055
842	0.057
842	0.058
843	0.06
843	0.061
844	0.062
844	0.064
845	0.065
845	0.067
845	0.068
846	0.07
846	0.071
847	0.072
847	0.074
848	0.075
848	0.077
848	0.078
849	0.08
849	0.08
850	0.081
850	0.081
851	0.082
851	0.082
851	0.083
852	0.083
852	0.083
853	0.084
853	0.084
854	0.084
854	0.085
854	0.085
855	0.085
855	0.085
856	0.085
856	0.085
857	0.085
857	0.084
857	0.083
858	0.083
858	0.082
859	0.081
859	0.08
860	0.079
860	0.079
860	0.078
861	0.077
861	0.077
862	0.076
862	0.076
863	0.077
863	0.077
863	0.077
864	0.078
864	0.079
865	0.08
865	0.081
866	0.082
866	0.083
866	0.084
867	0.086
867	0.087
868	0.088
868	0.089
869	0.09
869	0.091
869	0.091
870	0.091
870	0.091
871	0.092
871	0.092
872	0.092
872	0.092
872	0.091
873	0.091
873	0.091
874	0.091
874	0.092
875	0.093
875	0.093
875	0.094
876	0.095
876	0.095
877	0.095
877	0.095
878	0.095
878	0.094
878	0.093
879	0.093
879	0.092
880	0.091
880	0.09
881	0.088
881	0.088
881	0.087
882	0.087
882	0.087
883	0.087
883	0.087
884	0.088
884	0.088
884	0.089
885	0.089
885	0.09
886	0.091
886	0.092
887	0.093
887	0.093
887	0.093
888	0.094
888	0.094
889	0.094
889	0.095
890	0.095
890	0.095
890	0.095
891	0.095
891	0.096
892	0.096
892	0.096
893	0.096
893	0.097
893	0.097
894	0.097
894	0.097
895	0.097
895	0.097
895	0.098
896	0.098
896	0.098
897	0.098
897	0.099
898	0.099
898	0.099
898	0.099
899	0.099
899	0.1
900	0.1
900	0.1
901	0.101
901	0.101
901	0.101
902	0.102
902	0.102
903	0.102
903	0.102
904	0.102
904	0.102
904	0.101
905	0.101
905	0.101
906	0.101
906	0.1
907	0.1
907	0.1
907	0.099
908	0.1
908	0.1
909	0.1
909	0.101
910	0.101
910	0.101
910	0.101
911	0.101
911	0.102
912	0.102
912	0.102
913	0.103
913	0.103
913	0.103
914	0.103
914	0.103
915	0.103
915	0.103
916	0.102
916	0.102
916	0.101
917	0.1
917	0.099
918	0.099
918	0.098
918	0.097
919	0.097
919	0.096
920	0.096
920	0.096
921	0.096
921	0.095
921	0.095
922	0.095
922	0.094
923	0.094
923	0.094
924	0.094
924	0.094
924	0.093
925	0.093
925	0.092
926	0.092
926	0.091
927	0.091
927	0.09
927	0.09
928	0.09
928	0.09
929	0.09
929	0.091
930	0.092
930	0.093
930	0.095
931	0.096
931	0.098
932	0.1
932	0.101
933	0.103
933	0.105
933	0.106
934	0.107
934	0.108
935	0.109
935	0.109
935	0.11
936	0.11
936	0.111
937	0.111
937	0.112
938	0.112
938	0.113
938	0.114
939	0.114
939	0.115
940	0.116
940	0.116
941	0.117
941	0.117
941	0.117
942	0.117
942	0.116
943	0.115
943	0.115
944	0.114
944	0.114
944	0.114
945	0.114
945	0.114
946	0.114
946	0.114
946	0.114
947	0.114
947	0.114
948	0.114
948	0.114
949	0.114
949	0.113
949	0.113
950	0.112
950	0.112
951	0.111
951	0.11
952	0.109
952	0.109
952	0.108
953	0.108
953	0.107
954	0.107
954	0.107
955	0.108
955	0.108
955	0.109
956	0.11
956	0.111
957	0.112
957	0.112
957	0.113
958	0.113
958	0.114
959	0.113
959	0.113
960	0.112
960	0.112
960	0.111
961	0.11
961	0.109
962	0.109
962	0.109
963	0.109
963	0.109
963	0.109
964	0.109
964	0.109
965	0.11
965	0.11
966	0.11
966	0.11
966	0.11
967	0.11
967	0.109
968	0.109
968	0.108
968	0.107
969	0.106
969	0.105
970	0.104
970	0.103
971	0.102
971	0.101
971	0.101
972	0.1
972	0.1
973	0.101
973	0.101
974	0.102
974	0.103
974	0.103
975	0.104
975	0.105
976	0.106
976	0.106
976	0.107
977	0.107
977	0.107
978	0.107
978	0.107
979	0.107
979	0.107
979	0.107
980	0.106
980	0.105
981	0.105
981	0.105
982	0.104
982	0.104
982	0.104
983	0.104
983	0.104
984	0.103
984	0.103
984	0.103
985	0.103
985	0.103
986	0.102
986	0.102
987	0.101
987	0.1
987	0.1
988	0.099
988	0.099
989	0.098
989	0.098
990	0.097
990	0.097
990	0.097
991	0.098
991	0.098
992	0.099
992	0.099
992	0.1
993	0.1
993	0.1
994	0.1
994	0.1
995	0.1
995	0.099
995	0.099
996	0.098
996	0.097
997	0.097
997	0.097
997	0.097
998	0.097
998	0.097
999	0.098
999	0.098
1000	0.099
1000	0.099
1000	0.1
1001	0.101
1001	0.102
1002	0.102
1002	0.103
1003	0.104
1003	0.104
1003	0.105
1004	0.105
1004	0.105
1005	0.105
1005	0.105
1005	0.105
1006	0.104
1006	0.104
1007	0.104
1007	0.103
1008	0.103
1008	0.102
1008	0.102
1009	0.102
1009	0.102
1010	0.102
1010	0.102
1010	0.102
1011	0.102
1011	0.102
1012	0.102
1012	0.102
1013	0.102
1013	0.102
1013	0.102
1014	0.101
1014	0.1
1015	0.1
1015	0.099
1016	0.099
1016	0.098
1016	0.098
1017	0.097
1017	0.096
1018	0.096
1018	0.096
1018	0.095
1019	0.095
1019	0.095
1020	0.094
1020	0.094
1021	0.094
1021	0.093
1021	0.093
1022	0.093
1022	0.093
1023	0.093
1023	0.092
1023	0.092
1024	0.092
1024	0.091
1025	0.09
1025	0.09
1026	0.09
1026	0.09
1026	0.089
1027	0.089
1027	0.089
1028	0.09
1028	0.09
1028	0.09
1029	0.09
1029	0.091
1030	0.091
1030	0.092
1031	0.092
1031	0.093
1031	0.093
1032	0.094
1032	0.094
1033	0.095
1033	0.096
1033	0.096
1034	0.096
1034	0.096
1035	0.096
1035	0.096
1036	0.096
1036	0.097
1036	0.097
1037	0.098
1037	0.099
1038	0.099
1038	0.1
1039	0.101
1039	0.102
1039	0.103
1040	0.104
1040	0.105
1041	0.105
1041	0.105
1041	0.105
1042	0.105
1042	0.104
1043	0.104
1043	0.103
1044	0.103
1044	0.102
1044	0.101
1045	0.101
1045	0.1
1046	0.1
1046	0.099
1046	0.099
1047	0.099
1047	0.1
1048	0.099
1048	0.099
1049	0.099
1049	0.098
1049	0.098
1050	0.098
1050	0.098
1051	0.098
1051	0.098
1051	0.099
1052	0.099
1052	0.099
1053	0.099
1053	0.099
1053	0.1
1054	0.1
1054	0.1
1055	0.101
1055	0.101
1056	0.101
1056	0.101
1056	0.102
1057	0.102
1057	0.103
1058	0.105
1058	0.106
1058	0.109
1059	0.111
1059	0.112
1060	0.114
1060	0.116
1061	0.118
1061	0.12
1061	0.122
1062	0.124
1062	0.125
1063	0.126
1063	0.127
1063	0.128
1064	0.13
1064	0.131
1065	0.133
1065	0.134
1066	0.136
1066	0.138
1066	0.139
1067	0.141
1067	0.142
1068	0.143
1068	0.145
1068	0.146
1069	0.147
1069	0.148
1070	0.149
1070	0.15
1071	0.152
1071	0.154
1071	0.155
1072	0.158
1072	0.16
1073	0.163
1073	0.166
1073	0.168
1074	0.171
1074	0.174
1075	0.175
1075	0.177
1076	0.179
1076	0.182
1076	0.184
1077	0.187
1077	0.189
1078	0.191
1078	0.195
1078	0.198
1079	0.201
1079	0.205
1080	0.209
1080	0.212
1080	0.215
1081	0.218
1081	0.222
1082	0.225
1082	0.229
1083	0.233
1083	0.237
1083	0.243
1084	0.248
1084	0.254
1085	0.26
1085	0.267
1085	0.273
1086	0.28
1086	0.285
1087	0.292
1087	0.298
1088	0.305
1088	0.312
1088	0.321
1089	0.33
1089	0.341
1090	0.353
1090	0.366
1090	0.38
1091	0.396
1091	0.414
1092	0.434
1092	0.456
1092	0.476
1093	0.495
1093	0.521
1094	0.547
1094	0.577
1095	0.611
1095	0.649
1095	0.699
1096	0.752
1096	0.817
1097	0.904
1097	1.006
1097	1.165
1098	1.407
1098	2.107
1099	-0
1099	-0
1100	-0
1100	-0
1100	-0
1101	-0
1101	-0
1102	-0
1102	-0
1102	-0
1103	-0
1103	-0
1104	-0
1104	-0
1104	-0
1105	-0
1105	-0
1106	-0
1106	-0
1107	-0
1107	-0
1107	-0
1108	-0
1108	-0
1109	-0
1109	-0
1109	-0
1110	-0
1110	-0
1111	-0
1111	-0
