Data from 15c-2-5a_Absorbance__114__01021.txt Node

Date: Tue Jan 16 11:31:02 CET 2024
User: Marek
Spectrometer: MAYP115816
Trigger mode: 0
Integration Time (sec): 2.000000E-1
Scans to average: 10
Electric dark correction enabled: true
Nonlinearity correction enabled: true
Boxcar width: 5
XAxis mode: Wavelengths
Number of Pixels in Spectrum: 2068
>>>>>Begin Spectral Data<<<<<
199	-2.225
199	-2.036
200	-1.9
200	-1.78
201	-1.705
201	-1.653
202	-1.576
202	-1.513
203	-1.464
203	-1.414
204	-1.387
204	-1.361
205	-1.342
205	-1.329
205	-1.326
206	-1.321
206	-1.318
207	-1.315
207	-1.314
208	-1.31
208	-1.309
209	-1.305
209	-1.302
210	-1.301
210	-1.299
211	-1.297
211	-1.297
212	-1.296
212	-1.295
213	-1.293
213	-1.292
213	-1.293
214	-1.291
214	-1.289
215	-1.288
215	-1.288
216	-1.285
216	-1.283
217	-1.281
217	-1.278
218	-1.274
218	-1.27
219	-1.266
219	-1.265
220	-1.263
220	-1.261
221	-1.257
221	-1.255
221	-1.251
222	-1.246
222	-1.241
223	-1.236
223	-1.23
224	-1.225
224	-1.216
225	-1.207
225	-1.197
226	-1.189
226	-1.18
227	-1.166
227	-1.153
228	-1.137
228	-1.12
229	-1.099
229	-1.076
229	-1.05
230	-1.021
230	-0.989
231	-0.954
231	-0.914
232	-0.874
232	-0.831
233	-0.785
233	-0.737
234	-0.689
234	-0.64
235	-0.59
235	-0.541
236	-0.492
236	-0.444
236	-0.396
237	-0.351
237	-0.306
238	-0.264
238	-0.224
239	-0.185
239	-0.149
240	-0.115
240	-0.083
241	-0.053
241	-0.025
242	0.001
242	0.026
243	0.048
243	0.07
243	0.089
244	0.107
244	0.124
245	0.139
245	0.154
246	0.167
246	0.18
247	0.191
247	0.202
248	0.212
248	0.221
249	0.23
249	0.238
250	0.246
250	0.253
250	0.26
251	0.266
251	0.272
252	0.278
252	0.283
253	0.288
253	0.293
254	0.297
254	0.302
255	0.305
255	0.309
256	0.312
256	0.315
257	0.318
257	0.321
258	0.323
258	0.325
258	0.327
259	0.329
259	0.33
260	0.332
260	0.333
261	0.334
261	0.335
262	0.336
262	0.336
263	0.337
263	0.338
264	0.338
264	0.339
265	0.339
265	0.339
265	0.339
266	0.34
266	0.34
267	0.34
267	0.339
268	0.339
268	0.339
269	0.338
269	0.337
270	0.337
270	0.336
271	0.335
271	0.335
272	0.334
272	0.333
272	0.332
273	0.331
273	0.33
274	0.329
274	0.328
275	0.327
275	0.326
276	0.325
276	0.323
277	0.322
277	0.32
278	0.319
278	0.317
278	0.315
279	0.314
279	0.313
280	0.312
280	0.311
281	0.311
281	0.31
282	0.31
282	0.31
283	0.309
283	0.309
284	0.309
284	0.309
285	0.308
285	0.307
285	0.306
286	0.305
286	0.305
287	0.304
287	0.303
288	0.302
288	0.301
289	0.3
289	0.299
290	0.299
290	0.298
291	0.297
291	0.297
292	0.296
292	0.295
292	0.294
293	0.294
293	0.293
294	0.292
294	0.292
295	0.291
295	0.29
296	0.29
296	0.289
297	0.289
297	0.288
298	0.287
298	0.287
298	0.286
299	0.286
299	0.285
300	0.284
300	0.284
301	0.283
301	0.283
302	0.282
302	0.282
303	0.281
303	0.28
304	0.28
304	0.279
305	0.278
305	0.278
305	0.277
306	0.276
306	0.276
307	0.275
307	0.274
308	0.273
308	0.272
309	0.272
309	0.271
310	0.27
310	0.27
311	0.269
311	0.268
311	0.267
312	0.267
312	0.266
313	0.265
313	0.265
314	0.264
314	0.263
315	0.262
315	0.261
316	0.26
316	0.259
317	0.259
317	0.258
318	0.257
318	0.256
318	0.255
319	0.254
319	0.253
320	0.252
320	0.251
321	0.251
321	0.25
322	0.249
322	0.248
323	0.247
323	0.246
324	0.245
324	0.244
324	0.244
325	0.243
325	0.242
326	0.242
326	0.241
327	0.24
327	0.239
328	0.238
328	0.238
329	0.237
329	0.236
330	0.235
330	0.234
330	0.233
331	0.232
331	0.231
332	0.23
332	0.23
333	0.229
333	0.228
334	0.227
334	0.227
335	0.226
335	0.225
336	0.225
336	0.224
336	0.223
337	0.222
337	0.222
338	0.221
338	0.22
339	0.219
339	0.219
340	0.218
340	0.217
341	0.216
341	0.216
342	0.215
342	0.215
342	0.214
343	0.213
343	0.212
344	0.212
344	0.211
345	0.211
345	0.21
346	0.209
346	0.208
347	0.208
347	0.207
348	0.206
348	0.206
348	0.205
349	0.204
349	0.203
350	0.202
350	0.201
351	0.2
351	0.199
352	0.199
352	0.198
353	0.197
353	0.195
354	0.194
354	0.193
354	0.192
355	0.19
355	0.189
356	0.188
356	0.187
357	0.186
357	0.186
358	0.186
358	0.186
359	0.187
359	0.188
360	0.188
360	0.189
360	0.19
361	0.191
361	0.192
362	0.192
362	0.193
363	0.193
363	0.193
364	0.192
364	0.192
365	0.191
365	0.191
366	0.191
366	0.19
366	0.19
367	0.19
367	0.189
368	0.189
368	0.188
369	0.188
369	0.187
370	0.187
370	0.186
371	0.185
371	0.185
372	0.185
372	0.184
372	0.184
373	0.184
373	0.184
374	0.184
374	0.184
375	0.184
375	0.184
376	0.183
376	0.184
377	0.184
377	0.184
378	0.185
378	0.185
378	0.185
379	0.185
379	0.186
380	0.186
380	0.186
381	0.186
381	0.186
382	0.185
382	0.185
383	0.184
383	0.184
383	0.183
384	0.183
384	0.183
385	0.182
385	0.182
386	0.182
386	0.182
387	0.183
387	0.182
388	0.182
388	0.182
389	0.182
389	0.182
389	0.182
390	0.181
390	0.182
391	0.182
391	0.182
392	0.182
392	0.182
393	0.182
393	0.183
394	0.183
394	0.183
394	0.182
395	0.182
395	0.182
396	0.182
396	0.182
397	0.182
397	0.183
398	0.183
398	0.183
399	0.183
399	0.182
400	0.182
400	0.182
400	0.181
401	0.18
401	0.179
402	0.178
402	0.177
403	0.176
403	0.176
404	0.176
404	0.176
405	0.176
405	0.175
405	0.175
406	0.175
406	0.175
407	0.175
407	0.175
408	0.174
408	0.174
409	0.173
409	0.173
410	0.173
410	0.173
411	0.173
411	0.172
411	0.172
412	0.172
412	0.171
413	0.171
413	0.171
414	0.171
414	0.17
415	0.17
415	0.17
416	0.169
416	0.169
416	0.168
417	0.168
417	0.168
418	0.168
418	0.168
419	0.169
419	0.17
420	0.171
420	0.172
421	0.172
421	0.173
421	0.173
422	0.174
422	0.174
423	0.174
423	0.173
424	0.173
424	0.172
425	0.171
425	0.17
426	0.169
426	0.169
427	0.168
427	0.168
427	0.169
428	0.17
428	0.171
429	0.171
429	0.172
430	0.172
430	0.172
431	0.172
431	0.172
432	0.172
432	0.171
432	0.17
433	0.169
433	0.167
434	0.166
434	0.166
435	0.166
435	0.166
436	0.165
436	0.166
437	0.166
437	0.166
437	0.166
438	0.166
438	0.166
439	0.166
439	0.165
440	0.165
440	0.165
441	0.165
441	0.166
442	0.166
442	0.167
442	0.167
443	0.168
443	0.169
444	0.169
444	0.169
445	0.17
445	0.17
446	0.17
446	0.17
447	0.17
447	0.17
447	0.169
448	0.169
448	0.169
449	0.168
449	0.168
450	0.168
450	0.167
451	0.167
451	0.166
452	0.166
452	0.165
452	0.164
453	0.164
453	0.163
454	0.162
454	0.162
455	0.161
455	0.161
456	0.16
456	0.16
457	0.16
457	0.159
458	0.16
458	0.16
458	0.16
459	0.161
459	0.161
460	0.161
460	0.16
461	0.16
461	0.159
462	0.159
462	0.159
463	0.159
463	0.159
463	0.16
464	0.16
464	0.16
465	0.161
465	0.161
466	0.161
466	0.161
467	0.161
467	0.161
467	0.16
468	0.158
468	0.156
469	0.154
469	0.152
470	0.151
470	0.151
471	0.151
471	0.15
472	0.15
472	0.15
472	0.151
473	0.152
473	0.154
474	0.155
474	0.156
475	0.157
475	0.158
476	0.158
476	0.158
477	0.159
477	0.159
477	0.159
478	0.159
478	0.16
479	0.16
479	0.161
480	0.161
480	0.162
481	0.163
481	0.164
482	0.165
482	0.166
482	0.167
483	0.169
483	0.172
484	0.176
484	0.178
485	0.18
485	0.182
486	0.183
486	0.184
487	0.185
487	0.186
487	0.186
488	0.186
488	0.184
489	0.182
489	0.179
490	0.178
490	0.177
491	0.176
491	0.176
492	0.176
492	0.176
492	0.177
493	0.177
493	0.178
494	0.18
494	0.182
495	0.184
495	0.185
496	0.186
496	0.187
496	0.188
497	0.189
497	0.19
498	0.19
498	0.191
499	0.191
499	0.19
500	0.191
500	0.192
501	0.194
501	0.195
501	0.196
502	0.198
502	0.2
503	0.201
503	0.203
504	0.204
504	0.204
505	0.205
505	0.205
506	0.205
506	0.205
506	0.205
507	0.205
507	0.205
508	0.205
508	0.206
509	0.206
509	0.206
510	0.207
510	0.207
511	0.207
511	0.207
511	0.207
512	0.207
512	0.206
513	0.205
513	0.204
514	0.204
514	0.203
515	0.203
515	0.202
515	0.201
516	0.199
516	0.199
517	0.199
517	0.199
518	0.2
518	0.2
519	0.2
519	0.198
520	0.197
520	0.196
520	0.194
521	0.192
521	0.189
522	0.186
522	0.183
523	0.18
523	0.177
524	0.176
524	0.175
524	0.176
525	0.177
525	0.179
526	0.181
526	0.184
527	0.188
527	0.192
528	0.196
528	0.199
529	0.201
529	0.203
529	0.205
530	0.206
530	0.207
531	0.208
531	0.208
532	0.208
532	0.208
533	0.209
533	0.209
533	0.21
534	0.21
534	0.209
535	0.208
535	0.208
536	0.208
536	0.208
537	0.208
537	0.208
538	0.207
538	0.206
538	0.204
539	0.203
539	0.203
540	0.203
540	0.202
541	0.2
541	0.198
542	0.197
542	0.195
542	0.193
543	0.193
543	0.192
544	0.19
544	0.189
545	0.188
545	0.187
546	0.187
546	0.187
547	0.186
547	0.184
547	0.182
548	0.179
548	0.177
549	0.174
549	0.173
550	0.171
550	0.169
551	0.167
551	0.165
551	0.163
552	0.162
552	0.162
553	0.161
553	0.161
554	0.161
554	0.161
555	0.159
555	0.156
556	0.153
556	0.15
556	0.147
557	0.144
557	0.142
558	0.14
558	0.138
559	0.137
559	0.136
560	0.136
560	0.136
560	0.136
561	0.137
561	0.137
562	0.137
562	0.136
563	0.135
563	0.133
564	0.13
564	0.127
564	0.124
565	0.122
565	0.121
566	0.119
566	0.118
567	0.118
567	0.119
568	0.121
568	0.123
568	0.125
569	0.128
569	0.131
570	0.134
570	0.135
571	0.136
571	0.137
572	0.138
572	0.139
573	0.139
573	0.139
573	0.138
574	0.138
574	0.137
575	0.136
575	0.138
576	0.139
576	0.139
577	0.138
577	0.137
577	0.136
578	0.135
578	0.135
579	0.136
579	0.138
580	0.138
580	0.137
581	0.135
581	0.133
581	0.131
582	0.131
582	0.131
583	0.131
583	0.131
584	0.128
584	0.125
585	0.122
585	0.12
585	0.119
586	0.119
586	0.119
587	0.118
587	0.115
588	0.113
588	0.11
589	0.108
589	0.107
590	0.106
590	0.105
590	0.105
591	0.106
591	0.106
592	0.106
592	0.105
593	0.105
593	0.105
594	0.104
594	0.104
594	0.103
595	0.102
595	0.101
596	0.1
596	0.099
597	0.101
597	0.103
598	0.105
598	0.107
598	0.108
599	0.109
599	0.11
600	0.109
600	0.108
601	0.107
601	0.106
602	0.104
602	0.103
602	0.101
603	0.1
603	0.1
604	0.1
604	0.101
605	0.102
605	0.104
606	0.105
606	0.105
606	0.105
607	0.104
607	0.104
608	0.103
608	0.102
609	0.1
609	0.099
610	0.098
610	0.096
610	0.095
611	0.095
611	0.095
612	0.095
612	0.096
613	0.098
613	0.099
614	0.1
614	0.099
614	0.099
615	0.099
615	0.098
616	0.098
616	0.097
617	0.097
617	0.095
618	0.094
618	0.093
618	0.092
619	0.092
619	0.093
620	0.094
620	0.096
621	0.096
621	0.097
622	0.098
622	0.099
622	0.099
623	0.099
623	0.1
624	0.1
624	0.1
625	0.1
625	0.1
626	0.1
626	0.1
626	0.1
627	0.1
627	0.1
628	0.1
628	0.101
629	0.101
629	0.101
630	0.101
630	0.101
630	0.101
631	0.102
631	0.102
632	0.103
632	0.103
633	0.103
633	0.104
634	0.105
634	0.107
634	0.11
635	0.112
635	0.113
636	0.114
636	0.116
637	0.117
637	0.118
638	0.12
638	0.121
638	0.122
639	0.123
639	0.123
640	0.124
640	0.125
641	0.126
641	0.128
642	0.129
642	0.131
642	0.133
643	0.134
643	0.135
644	0.137
644	0.138
645	0.14
645	0.142
646	0.144
646	0.147
646	0.151
647	0.155
647	0.159
648	0.162
648	0.166
649	0.169
649	0.172
650	0.175
650	0.178
650	0.181
651	0.183
651	0.186
652	0.187
652	0.189
653	0.191
653	0.199
653	0.205
654	0.168
654	0.139
655	0.146
655	0.148
656	0.15
656	0.151
657	0.153
657	0.155
657	0.155
658	0.152
658	0.147
659	0.181
659	0.227
660	0.227
660	0.229
661	0.231
661	0.232
661	0.235
662	0.237
662	0.241
663	0.244
663	0.247
664	0.25
664	0.253
665	0.255
665	0.258
665	0.26
666	0.263
666	0.266
667	0.269
667	0.272
668	0.274
668	0.277
669	0.28
669	0.284
669	0.288
670	0.292
670	0.296
671	0.298
671	0.3
672	0.301
672	0.302
672	0.303
673	0.304
673	0.305
674	0.305
674	0.305
675	0.305
675	0.305
676	0.307
676	0.309
676	0.311
677	0.313
677	0.316
678	0.318
678	0.32
679	0.322
679	0.323
680	0.325
680	0.327
680	0.327
681	0.327
681	0.328
682	0.329
682	0.33
683	0.332
683	0.335
684	0.338
684	0.34
684	0.341
685	0.342
685	0.344
686	0.345
686	0.347
687	0.347
687	0.347
687	0.346
688	0.345
688	0.344
689	0.344
689	0.345
690	0.345
690	0.345
691	0.345
691	0.345
691	0.346
692	0.346
692	0.346
693	0.346
693	0.347
694	0.347
694	0.345
695	0.346
695	0.347
695	0.348
696	0.348
696	0.347
697	0.346
697	0.344
698	0.343
698	0.341
698	0.338
699	0.337
699	0.334
700	0.33
700	0.328
701	0.326
701	0.325
702	0.323
702	0.322
702	0.321
703	0.32
703	0.318
704	0.317
704	0.316
705	0.316
705	0.315
705	0.314
706	0.312
706	0.311
707	0.309
707	0.307
708	0.305
708	0.304
709	0.303
709	0.301
709	0.298
710	0.294
710	0.292
711	0.289
711	0.287
712	0.285
712	0.283
713	0.282
713	0.28
713	0.277
714	0.274
714	0.271
715	0.269
715	0.266
716	0.263
716	0.26
716	0.258
717	0.255
717	0.253
718	0.25
718	0.248
719	0.246
719	0.245
720	0.244
720	0.242
720	0.24
721	0.238
721	0.235
722	0.232
722	0.229
723	0.226
723	0.224
723	0.221
724	0.218
724	0.215
725	0.212
725	0.21
726	0.207
726	0.205
727	0.203
727	0.201
727	0.2
728	0.198
728	0.196
729	0.196
729	0.195
730	0.193
730	0.192
730	0.191
731	0.189
731	0.188
732	0.187
732	0.185
733	0.183
733	0.181
734	0.179
734	0.177
734	0.175
735	0.173
735	0.171
736	0.169
736	0.166
737	0.164
737	0.163
737	0.161
738	0.158
738	0.155
739	0.152
739	0.149
740	0.146
740	0.144
741	0.142
741	0.14
741	0.136
742	0.131
742	0.127
743	0.125
743	0.122
744	0.12
744	0.118
744	0.115
745	0.113
745	0.11
746	0.109
746	0.107
747	0.106
747	0.106
748	0.106
748	0.106
748	0.105
749	0.104
749	0.104
750	0.103
750	0.103
751	0.102
751	0.102
751	0.102
752	0.101
752	0.1
753	0.098
753	0.097
754	0.097
754	0.096
754	0.096
755	0.096
755	0.096
756	0.095
756	0.093
757	0.092
757	0.091
758	0.089
758	0.088
758	0.086
759	0.085
759	0.082
760	0.079
760	0.075
761	0.072
761	0.07
761	0.068
762	0.067
762	0.065
763	0.064
763	0.062
764	0.06
764	0.057
764	0.055
765	0.053
765	0.051
766	0.05
766	0.049
767	0.049
767	0.046
768	0.043
768	0.04
768	0.039
769	0.038
769	0.037
770	0.036
770	0.035
771	0.032
771	0.029
771	0.026
772	0.023
772	0.02
773	0.017
773	0.014
774	0.01
774	0.007
775	0.003
775	-0.001
775	-0.005
776	-0.01
776	-0.015
777	-0.02
777	-0.025
778	-0.031
778	-0.037
778	-0.043
779	-0.048
779	-0.049
780	-0.052
780	-0.056
781	-0.059
781	-0.062
781	-0.064
782	-0.066
782	-0.069
783	-0.071
783	-0.071
784	-0.072
784	-0.075
784	-0.077
785	-0.078
785	-0.08
786	-0.081
786	-0.079
787	-0.075
787	-0.071
788	-0.07
788	-0.071
788	-0.072
789	-0.074
789	-0.073
790	-0.07
790	-0.069
791	-0.07
791	-0.071
791	-0.073
792	-0.068
792	-0.059
793	-0.053
793	-0.049
794	-0.048
794	-0.05
794	-0.053
795	-0.055
795	-0.055
796	-0.055
796	-0.057
797	-0.065
797	-0.074
797	-0.08
798	-0.085
798	-0.088
799	-0.089
799	-0.088
800	-0.088
800	-0.091
801	-0.094
801	-0.095
801	-0.096
802	-0.098
802	-0.099
803	-0.1
803	-0.101
804	-0.1
804	-0.095
804	-0.089
805	-0.085
805	-0.083
806	-0.081
806	-0.08
807	-0.079
807	-0.078
807	-0.077
808	-0.077
808	-0.077
809	-0.081
809	-0.086
810	-0.089
810	-0.091
810	-0.094
811	-0.096
811	-0.096
812	-0.092
812	-0.09
813	-0.09
813	-0.091
813	-0.092
814	-0.092
814	-0.092
815	-0.09
815	-0.087
816	-0.085
816	-0.086
817	-0.09
817	-0.093
817	-0.094
818	-0.093
818	-0.09
819	-0.085
819	-0.083
820	-0.084
820	-0.086
820	-0.087
821	-0.087
821	-0.085
822	-0.083
822	-0.08
823	-0.076
823	-0.074
823	-0.074
824	-0.07
824	-0.064
825	-0.055
825	-0.046
826	-0.036
826	-0.029
826	-0.021
827	-0.014
827	-0.008
828	-0.002
828	0.003
829	0.008
829	0.012
829	0.015
830	0.018
830	0.021
831	0.024
831	0.028
832	0.03
832	0.032
832	0.035
833	0.037
833	0.039
834	0.041
834	0.042
835	0.043
835	0.044
835	0.045
836	0.046
836	0.047
837	0.047
837	0.048
838	0.048
838	0.048
839	0.049
839	0.049
839	0.05
840	0.05
840	0.051
841	0.052
841	0.053
842	0.054
842	0.055
842	0.057
843	0.058
843	0.059
844	0.061
844	0.062
845	0.064
845	0.065
845	0.067
846	0.068
846	0.07
847	0.071
847	0.073
848	0.075
848	0.076
848	0.077
849	0.078
849	0.079
850	0.08
850	0.08
851	0.081
851	0.081
851	0.081
852	0.081
852	0.082
853	0.082
853	0.082
854	0.083
854	0.083
854	0.084
855	0.084
855	0.084
856	0.084
856	0.084
857	0.084
857	0.083
857	0.082
858	0.082
858	0.081
859	0.081
859	0.08
860	0.08
860	0.079
860	0.079
861	0.078
861	0.078
862	0.077
862	0.077
863	0.077
863	0.078
863	0.078
864	0.079
864	0.079
865	0.081
865	0.082
866	0.083
866	0.084
866	0.085
867	0.086
867	0.087
868	0.088
868	0.089
869	0.09
869	0.091
869	0.091
870	0.091
870	0.091
871	0.091
871	0.091
872	0.091
872	0.091
872	0.09
873	0.09
873	0.09
874	0.091
874	0.091
875	0.091
875	0.092
875	0.092
876	0.093
876	0.093
877	0.093
877	0.093
878	0.092
878	0.091
878	0.091
879	0.09
879	0.089
880	0.088
880	0.086
881	0.085
881	0.085
881	0.084
882	0.084
882	0.084
883	0.084
883	0.084
884	0.085
884	0.086
884	0.086
885	0.087
885	0.088
886	0.089
886	0.09
887	0.09
887	0.09
887	0.091
888	0.091
888	0.091
889	0.091
889	0.092
890	0.092
890	0.092
890	0.093
891	0.093
891	0.093
892	0.093
892	0.093
893	0.093
893	0.094
893	0.094
894	0.094
894	0.094
895	0.094
895	0.095
895	0.095
896	0.095
896	0.096
897	0.097
897	0.097
898	0.097
898	0.098
898	0.098
899	0.098
899	0.098
900	0.098
900	0.098
901	0.098
901	0.098
901	0.099
902	0.099
902	0.099
903	0.099
903	0.1
904	0.1
904	0.099
904	0.099
905	0.099
905	0.099
906	0.098
906	0.098
907	0.098
907	0.098
907	0.098
908	0.098
908	0.098
909	0.099
909	0.099
910	0.099
910	0.099
910	0.099
911	0.099
911	0.1
912	0.1
912	0.1
913	0.101
913	0.101
913	0.101
914	0.101
914	0.101
915	0.101
915	0.101
916	0.101
916	0.1
916	0.099
917	0.099
917	0.098
918	0.097
918	0.097
918	0.096
919	0.096
919	0.095
920	0.095
920	0.095
921	0.095
921	0.094
921	0.094
922	0.094
922	0.093
923	0.092
923	0.092
924	0.091
924	0.09
924	0.089
925	0.089
925	0.088
926	0.087
926	0.086
927	0.085
927	0.085
927	0.085
928	0.084
928	0.085
929	0.085
929	0.086
930	0.087
930	0.088
930	0.089
931	0.091
931	0.092
932	0.094
932	0.095
933	0.097
933	0.098
933	0.099
934	0.1
934	0.101
935	0.102
935	0.103
935	0.104
936	0.104
936	0.105
937	0.106
937	0.107
938	0.107
938	0.108
938	0.109
939	0.109
939	0.11
940	0.111
940	0.112
941	0.113
941	0.113
941	0.113
942	0.112
942	0.112
943	0.112
943	0.111
944	0.111
944	0.111
944	0.111
945	0.111
945	0.112
946	0.112
946	0.113
946	0.113
947	0.114
947	0.114
948	0.114
948	0.114
949	0.113
949	0.113
949	0.113
950	0.112
950	0.111
951	0.111
951	0.11
952	0.11
952	0.109
952	0.109
953	0.109
953	0.109
954	0.109
954	0.109
955	0.11
955	0.11
955	0.111
956	0.112
956	0.113
957	0.113
957	0.113
957	0.113
958	0.113
958	0.113
959	0.113
959	0.112
960	0.111
960	0.11
960	0.109
961	0.109
961	0.108
962	0.108
962	0.108
963	0.108
963	0.108
963	0.108
964	0.108
964	0.109
965	0.109
965	0.11
966	0.111
966	0.111
966	0.112
967	0.112
967	0.112
968	0.111
968	0.111
968	0.11
969	0.11
969	0.109
970	0.108
970	0.107
971	0.106
971	0.105
971	0.105
972	0.105
972	0.105
973	0.105
973	0.105
974	0.106
974	0.106
974	0.106
975	0.107
975	0.108
976	0.108
976	0.109
976	0.109
977	0.109
977	0.108
978	0.108
978	0.107
979	0.107
979	0.106
979	0.106
980	0.105
980	0.104
981	0.103
981	0.103
982	0.103
982	0.103
982	0.103
983	0.103
983	0.102
984	0.102
984	0.102
984	0.102
985	0.101
985	0.101
986	0.1
986	0.099
987	0.098
987	0.097
987	0.097
988	0.096
988	0.095
989	0.095
989	0.095
990	0.095
990	0.095
990	0.095
991	0.096
991	0.097
992	0.097
992	0.098
992	0.098
993	0.099
993	0.099
994	0.099
994	0.099
995	0.099
995	0.099
995	0.099
996	0.098
996	0.098
997	0.098
997	0.098
997	0.098
998	0.098
998	0.098
999	0.098
999	0.099
1000	0.099
1000	0.099
1000	0.1
1001	0.1
1001	0.101
1002	0.101
1002	0.102
1003	0.102
1003	0.102
1003	0.102
1004	0.102
1004	0.102
1005	0.102
1005	0.102
1005	0.102
1006	0.102
1006	0.101
1007	0.101
1007	0.1
1008	0.1
1008	0.1
1008	0.1
1009	0.1
1009	0.1
1010	0.1
1010	0.1
1010	0.1
1011	0.1
1011	0.1
1012	0.101
1012	0.101
1013	0.101
1013	0.101
1013	0.101
1014	0.1
1014	0.1
1015	0.1
1015	0.099
1016	0.099
1016	0.099
1016	0.098
1017	0.098
1017	0.097
1018	0.097
1018	0.097
1018	0.096
1019	0.096
1019	0.096
1020	0.095
1020	0.095
1021	0.095
1021	0.095
1021	0.095
1022	0.095
1022	0.094
1023	0.094
1023	0.094
1023	0.094
1024	0.093
1024	0.092
1025	0.091
1025	0.091
1026	0.09
1026	0.09
1026	0.089
1027	0.089
1027	0.089
1028	0.088
1028	0.088
1028	0.088
1029	0.088
1029	0.089
1030	0.089
1030	0.089
1031	0.09
1031	0.09
1031	0.09
1032	0.091
1032	0.091
1033	0.092
1033	0.093
1033	0.093
1034	0.094
1034	0.094
1035	0.094
1035	0.095
1036	0.095
1036	0.096
1036	0.097
1037	0.098
1037	0.099
1038	0.1
1038	0.101
1039	0.103
1039	0.104
1039	0.106
1040	0.107
1040	0.108
1041	0.108
1041	0.108
1041	0.108
1042	0.108
1042	0.108
1043	0.108
1043	0.108
1044	0.107
1044	0.107
1044	0.106
1045	0.106
1045	0.105
1046	0.104
1046	0.104
1046	0.104
1047	0.104
1047	0.104
1048	0.104
1048	0.104
1049	0.103
1049	0.103
1049	0.103
1050	0.103
1050	0.103
1051	0.103
1051	0.104
1051	0.104
1052	0.105
1052	0.105
1053	0.106
1053	0.107
1053	0.108
1054	0.108
1054	0.109
1055	0.11
1055	0.111
1056	0.111
1056	0.112
1056	0.112
1057	0.113
1057	0.114
1058	0.115
1058	0.116
1058	0.118
1059	0.119
1059	0.121
1060	0.122
1060	0.124
1061	0.126
1061	0.128
1061	0.13
1062	0.131
1062	0.132
1063	0.133
1063	0.134
1063	0.135
1064	0.137
1064	0.138
1065	0.14
1065	0.141
1066	0.142
1066	0.143
1066	0.145
1067	0.147
1067	0.149
1068	0.15
1068	0.152
1068	0.154
1069	0.155
1069	0.156
1070	0.158
1070	0.16
1071	0.162
1071	0.164
1071	0.165
1072	0.168
1072	0.171
1073	0.174
1073	0.177
1073	0.179
1074	0.182
1074	0.184
1075	0.186
1075	0.188
1076	0.19
1076	0.192
1076	0.194
1077	0.197
1077	0.199
1078	0.202
1078	0.205
1078	0.209
1079	0.212
1079	0.217
1080	0.22
1080	0.224
1080	0.227
1081	0.231
1081	0.235
1082	0.239
1082	0.243
1083	0.247
1083	0.252
1083	0.258
1084	0.263
1084	0.269
1085	0.275
1085	0.282
1085	0.289
1086	0.296
1086	0.302
1087	0.31
1087	0.317
1088	0.325
1088	0.333
1088	0.343
1089	0.353
1089	0.364
1090	0.377
1090	0.392
1090	0.408
1091	0.425
1091	0.444
1092	0.465
1092	0.487
1092	0.51
1093	0.533
1093	0.563
1094	0.593
1094	0.627
1095	0.665
1095	0.711
1095	0.77
1096	0.836
1096	0.92
1097	1.043
1097	1.202
1097	1.49
1098	2.486
1098	-0
1099	-0
1099	-0
1100	-0
1100	-0
1100	-0
1101	-0
1101	-0
1102	-0
1102	-0
1102	-0
1103	-0
1103	-0
1104	-0
1104	-0
1104	-0
1105	-0
1105	-0
1106	-0
1106	-0
1107	-0
1107	-0
1107	-0
1108	-0
1108	-0
1109	-0
1109	-0
1109	-0
1110	-0
1110	-0
1111	-0
1111	-0
