Data from 15c-2-5a_Absorbance__599__01506.txt Node

Date: Tue Jan 16 11:47:12 CET 2024
User: Marek
Spectrometer: MAYP115816
Trigger mode: 0
Integration Time (sec): 2.000000E-1
Scans to average: 10
Electric dark correction enabled: true
Nonlinearity correction enabled: true
Boxcar width: 5
XAxis mode: Wavelengths
Number of Pixels in Spectrum: 2068
>>>>>Begin Spectral Data<<<<<
199	-2.216
199	-2.027
200	-1.892
200	-1.772
201	-1.697
201	-1.645
202	-1.568
202	-1.506
203	-1.456
203	-1.407
204	-1.38
204	-1.354
205	-1.335
205	-1.322
205	-1.319
206	-1.314
206	-1.311
207	-1.308
207	-1.308
208	-1.303
208	-1.303
209	-1.298
209	-1.296
210	-1.295
210	-1.292
211	-1.291
211	-1.291
212	-1.29
212	-1.289
213	-1.286
213	-1.286
213	-1.286
214	-1.284
214	-1.283
215	-1.282
215	-1.282
216	-1.278
216	-1.277
217	-1.275
217	-1.272
218	-1.269
218	-1.265
219	-1.261
219	-1.259
220	-1.257
220	-1.256
221	-1.252
221	-1.25
221	-1.245
222	-1.241
222	-1.236
223	-1.23
223	-1.225
224	-1.22
224	-1.211
225	-1.202
225	-1.192
226	-1.184
226	-1.174
227	-1.16
227	-1.147
228	-1.131
228	-1.115
229	-1.094
229	-1.07
229	-1.044
230	-1.015
230	-0.983
231	-0.948
231	-0.908
232	-0.869
232	-0.825
233	-0.779
233	-0.731
234	-0.682
234	-0.633
235	-0.583
235	-0.534
236	-0.484
236	-0.435
236	-0.387
237	-0.341
237	-0.297
238	-0.254
238	-0.213
239	-0.174
239	-0.137
240	-0.102
240	-0.07
241	-0.04
241	-0.012
242	0.015
242	0.04
243	0.063
243	0.084
243	0.104
244	0.122
244	0.139
245	0.155
245	0.17
246	0.184
246	0.197
247	0.208
247	0.219
248	0.23
248	0.24
249	0.249
249	0.257
250	0.265
250	0.273
250	0.28
251	0.287
251	0.293
252	0.299
252	0.305
253	0.31
253	0.315
254	0.319
254	0.324
255	0.327
255	0.331
256	0.335
256	0.338
257	0.341
257	0.343
258	0.345
258	0.347
258	0.349
259	0.351
259	0.353
260	0.354
260	0.356
261	0.357
261	0.358
262	0.358
262	0.359
263	0.36
263	0.361
264	0.362
264	0.362
265	0.362
265	0.362
265	0.363
266	0.363
266	0.363
267	0.363
267	0.362
268	0.362
268	0.361
269	0.361
269	0.36
270	0.359
270	0.359
271	0.358
271	0.357
272	0.356
272	0.355
272	0.355
273	0.354
273	0.353
274	0.352
274	0.351
275	0.35
275	0.349
276	0.348
276	0.346
277	0.345
277	0.343
278	0.341
278	0.339
278	0.337
279	0.336
279	0.334
280	0.333
280	0.332
281	0.332
281	0.331
282	0.331
282	0.33
283	0.33
283	0.329
284	0.329
284	0.329
285	0.328
285	0.327
285	0.326
286	0.325
286	0.324
287	0.323
287	0.322
288	0.322
288	0.321
289	0.32
289	0.319
290	0.318
290	0.317
291	0.317
291	0.316
292	0.315
292	0.314
292	0.313
293	0.313
293	0.312
294	0.311
294	0.31
295	0.31
295	0.309
296	0.308
296	0.307
297	0.307
297	0.306
298	0.305
298	0.305
298	0.304
299	0.304
299	0.303
300	0.302
300	0.302
301	0.301
301	0.301
302	0.3
302	0.299
303	0.299
303	0.298
304	0.298
304	0.297
305	0.296
305	0.295
305	0.295
306	0.294
306	0.293
307	0.293
307	0.292
308	0.291
308	0.29
309	0.289
309	0.288
310	0.288
310	0.287
311	0.286
311	0.285
311	0.284
312	0.284
312	0.283
313	0.282
313	0.281
314	0.28
314	0.279
315	0.279
315	0.278
316	0.277
316	0.276
317	0.275
317	0.274
318	0.273
318	0.272
318	0.271
319	0.27
319	0.269
320	0.268
320	0.267
321	0.267
321	0.266
322	0.265
322	0.264
323	0.263
323	0.262
324	0.261
324	0.26
324	0.259
325	0.259
325	0.258
326	0.257
326	0.256
327	0.256
327	0.255
328	0.254
328	0.253
329	0.252
329	0.251
330	0.25
330	0.249
330	0.248
331	0.247
331	0.247
332	0.246
332	0.245
333	0.244
333	0.243
334	0.242
334	0.241
335	0.241
335	0.24
336	0.239
336	0.238
336	0.238
337	0.237
337	0.236
338	0.235
338	0.234
339	0.234
339	0.233
340	0.232
340	0.232
341	0.231
341	0.23
342	0.23
342	0.229
342	0.228
343	0.227
343	0.227
344	0.226
344	0.226
345	0.225
345	0.224
346	0.224
346	0.223
347	0.222
347	0.222
348	0.221
348	0.22
348	0.219
349	0.218
349	0.217
350	0.216
350	0.215
351	0.214
351	0.213
352	0.212
352	0.211
353	0.211
353	0.209
354	0.208
354	0.207
354	0.206
355	0.205
355	0.203
356	0.203
356	0.202
357	0.201
357	0.2
358	0.2
358	0.2
359	0.201
359	0.202
360	0.202
360	0.203
360	0.204
361	0.205
361	0.205
362	0.206
362	0.206
363	0.206
363	0.206
364	0.206
364	0.205
365	0.205
365	0.204
366	0.204
366	0.203
366	0.203
367	0.203
367	0.202
368	0.202
368	0.201
369	0.201
369	0.201
370	0.2
370	0.2
371	0.199
371	0.199
372	0.198
372	0.198
372	0.198
373	0.197
373	0.197
374	0.197
374	0.197
375	0.197
375	0.197
376	0.197
376	0.197
377	0.197
377	0.198
378	0.198
378	0.198
378	0.199
379	0.199
379	0.199
380	0.199
380	0.199
381	0.199
381	0.199
382	0.199
382	0.198
383	0.198
383	0.197
383	0.197
384	0.196
384	0.196
385	0.196
385	0.196
386	0.196
386	0.196
387	0.196
387	0.196
388	0.195
388	0.195
389	0.195
389	0.195
389	0.195
390	0.195
390	0.195
391	0.195
391	0.196
392	0.196
392	0.196
393	0.196
393	0.196
394	0.196
394	0.196
394	0.196
395	0.196
395	0.195
396	0.195
396	0.195
397	0.195
397	0.196
398	0.196
398	0.196
399	0.196
399	0.196
400	0.195
400	0.195
400	0.194
401	0.193
401	0.192
402	0.191
402	0.19
403	0.19
403	0.19
404	0.19
404	0.19
405	0.189
405	0.189
405	0.188
406	0.188
406	0.188
407	0.188
407	0.188
408	0.188
408	0.187
409	0.186
409	0.186
410	0.186
410	0.186
411	0.186
411	0.186
411	0.185
412	0.185
412	0.184
413	0.184
413	0.184
414	0.184
414	0.183
415	0.183
415	0.182
416	0.182
416	0.182
416	0.181
417	0.181
417	0.181
418	0.181
418	0.181
419	0.182
419	0.183
420	0.183
420	0.185
421	0.185
421	0.186
421	0.186
422	0.186
422	0.186
423	0.187
423	0.186
424	0.186
424	0.185
425	0.184
425	0.182
426	0.182
426	0.181
427	0.181
427	0.181
427	0.182
428	0.182
428	0.183
429	0.184
429	0.185
430	0.186
430	0.185
431	0.185
431	0.185
432	0.185
432	0.184
432	0.183
433	0.182
433	0.18
434	0.179
434	0.179
435	0.179
435	0.179
436	0.179
436	0.179
437	0.179
437	0.179
437	0.179
438	0.179
438	0.179
439	0.179
439	0.179
440	0.178
440	0.178
441	0.178
441	0.178
442	0.179
442	0.179
442	0.18
443	0.181
443	0.181
444	0.182
444	0.182
445	0.183
445	0.183
446	0.183
446	0.183
447	0.183
447	0.183
447	0.182
448	0.182
448	0.182
449	0.181
449	0.181
450	0.181
450	0.18
451	0.18
451	0.179
452	0.179
452	0.178
452	0.178
453	0.177
453	0.177
454	0.176
454	0.175
455	0.174
455	0.174
456	0.174
456	0.173
457	0.173
457	0.173
458	0.173
458	0.173
458	0.173
459	0.174
459	0.174
460	0.174
460	0.173
461	0.172
461	0.172
462	0.172
462	0.172
463	0.172
463	0.172
463	0.173
464	0.174
464	0.174
465	0.174
465	0.174
466	0.174
466	0.174
467	0.174
467	0.174
467	0.173
468	0.171
468	0.169
469	0.167
469	0.165
470	0.165
470	0.164
471	0.164
471	0.164
472	0.164
472	0.164
472	0.164
473	0.166
473	0.167
474	0.168
474	0.169
475	0.17
475	0.171
476	0.171
476	0.171
477	0.172
477	0.172
477	0.172
478	0.172
478	0.173
479	0.173
479	0.174
480	0.175
480	0.176
481	0.177
481	0.177
482	0.178
482	0.179
482	0.181
483	0.183
483	0.186
484	0.19
484	0.193
485	0.195
485	0.197
486	0.198
486	0.2
487	0.2
487	0.201
487	0.201
488	0.201
488	0.199
489	0.197
489	0.194
490	0.193
490	0.192
491	0.191
491	0.191
492	0.191
492	0.191
492	0.192
493	0.192
493	0.193
494	0.195
494	0.198
495	0.2
495	0.201
496	0.202
496	0.203
496	0.204
497	0.205
497	0.206
498	0.206
498	0.207
499	0.207
499	0.206
500	0.206
500	0.208
501	0.21
501	0.211
501	0.213
502	0.215
502	0.216
503	0.218
503	0.219
504	0.22
504	0.221
505	0.221
505	0.221
506	0.221
506	0.222
506	0.222
507	0.222
507	0.222
508	0.222
508	0.222
509	0.223
509	0.224
510	0.224
510	0.224
511	0.224
511	0.224
511	0.224
512	0.224
512	0.224
513	0.223
513	0.222
514	0.221
514	0.219
515	0.218
515	0.218
515	0.216
516	0.216
516	0.215
517	0.216
517	0.216
518	0.216
518	0.216
519	0.215
519	0.214
520	0.211
520	0.209
520	0.206
521	0.203
521	0.2
522	0.197
522	0.194
523	0.192
523	0.191
524	0.191
524	0.193
524	0.195
525	0.198
525	0.202
526	0.205
526	0.209
527	0.212
527	0.216
528	0.218
528	0.22
529	0.222
529	0.223
529	0.223
530	0.224
530	0.224
531	0.225
531	0.225
532	0.225
532	0.225
533	0.225
533	0.226
533	0.226
534	0.226
534	0.225
535	0.224
535	0.223
536	0.223
536	0.223
537	0.222
537	0.222
538	0.221
538	0.22
538	0.219
539	0.218
539	0.218
540	0.217
540	0.216
541	0.214
541	0.212
542	0.211
542	0.209
542	0.208
543	0.207
543	0.206
544	0.204
544	0.203
545	0.202
545	0.202
546	0.202
546	0.201
547	0.2
547	0.198
547	0.195
548	0.192
548	0.19
549	0.188
549	0.186
550	0.184
550	0.182
551	0.179
551	0.177
551	0.175
552	0.174
552	0.173
553	0.173
553	0.173
554	0.173
554	0.172
555	0.17
555	0.167
556	0.164
556	0.161
556	0.158
557	0.155
557	0.153
558	0.151
558	0.149
559	0.147
559	0.147
560	0.147
560	0.147
560	0.146
561	0.147
561	0.147
562	0.148
562	0.146
563	0.145
563	0.143
564	0.14
564	0.137
564	0.134
565	0.132
565	0.131
566	0.13
566	0.129
567	0.129
567	0.13
568	0.131
568	0.133
568	0.135
569	0.138
569	0.141
570	0.143
570	0.144
571	0.145
571	0.146
572	0.147
572	0.148
573	0.148
573	0.148
573	0.147
574	0.146
574	0.145
575	0.145
575	0.146
576	0.147
576	0.147
577	0.145
577	0.144
577	0.143
578	0.142
578	0.142
579	0.143
579	0.145
580	0.146
580	0.144
581	0.142
581	0.139
581	0.138
582	0.138
582	0.137
583	0.138
583	0.137
584	0.135
584	0.131
585	0.128
585	0.127
585	0.126
586	0.126
586	0.126
587	0.125
587	0.123
588	0.12
588	0.118
589	0.116
589	0.114
590	0.113
590	0.112
590	0.113
591	0.114
591	0.114
592	0.114
592	0.113
593	0.112
593	0.112
594	0.112
594	0.111
594	0.11
595	0.11
595	0.108
596	0.107
596	0.107
597	0.109
597	0.112
598	0.114
598	0.115
598	0.117
599	0.118
599	0.118
600	0.118
600	0.117
601	0.116
601	0.114
602	0.112
602	0.11
602	0.109
603	0.107
603	0.107
604	0.107
604	0.108
605	0.109
605	0.111
606	0.111
606	0.111
606	0.111
607	0.11
607	0.11
608	0.11
608	0.108
609	0.107
609	0.106
610	0.105
610	0.103
610	0.102
611	0.102
611	0.103
612	0.103
612	0.104
613	0.106
613	0.107
614	0.108
614	0.107
614	0.107
615	0.107
615	0.106
616	0.106
616	0.105
617	0.105
617	0.104
618	0.102
618	0.101
618	0.101
619	0.101
619	0.101
620	0.103
620	0.104
621	0.105
621	0.106
622	0.107
622	0.108
622	0.108
623	0.108
623	0.109
624	0.11
624	0.11
625	0.109
625	0.11
626	0.109
626	0.109
626	0.109
627	0.109
627	0.11
628	0.11
628	0.11
629	0.111
629	0.111
630	0.111
630	0.111
630	0.111
631	0.112
631	0.112
632	0.113
632	0.113
633	0.113
633	0.114
634	0.115
634	0.117
634	0.119
635	0.121
635	0.123
636	0.124
636	0.126
637	0.127
637	0.128
638	0.13
638	0.132
638	0.133
639	0.134
639	0.134
640	0.135
640	0.136
641	0.138
641	0.139
642	0.141
642	0.143
642	0.144
643	0.146
643	0.147
644	0.149
644	0.151
645	0.153
645	0.155
646	0.157
646	0.161
646	0.165
647	0.169
647	0.173
648	0.176
648	0.179
649	0.183
649	0.186
650	0.189
650	0.193
650	0.196
651	0.198
651	0.2
652	0.202
652	0.204
653	0.206
653	0.215
653	0.222
654	0.181
654	0.15
655	0.156
655	0.159
656	0.16
656	0.162
657	0.164
657	0.166
657	0.166
658	0.163
658	0.156
659	0.193
659	0.243
660	0.243
660	0.245
661	0.246
661	0.248
661	0.25
662	0.253
662	0.257
663	0.26
663	0.264
664	0.267
664	0.269
665	0.272
665	0.275
665	0.278
666	0.281
666	0.283
667	0.286
667	0.289
668	0.292
668	0.294
669	0.297
669	0.3
669	0.305
670	0.31
670	0.313
671	0.316
671	0.318
672	0.319
672	0.321
672	0.322
673	0.323
673	0.323
674	0.324
674	0.324
675	0.324
675	0.323
676	0.325
676	0.327
676	0.328
677	0.331
677	0.334
678	0.336
678	0.338
679	0.339
679	0.341
680	0.343
680	0.345
680	0.345
681	0.345
681	0.346
682	0.347
682	0.348
683	0.35
683	0.352
684	0.355
684	0.356
684	0.357
685	0.358
685	0.359
686	0.361
686	0.362
687	0.362
687	0.362
687	0.362
688	0.361
688	0.359
689	0.359
689	0.36
690	0.361
690	0.361
691	0.361
691	0.361
691	0.361
692	0.361
692	0.361
693	0.361
693	0.362
694	0.362
694	0.36
695	0.36
695	0.361
695	0.362
696	0.362
696	0.361
697	0.36
697	0.359
698	0.357
698	0.355
698	0.352
699	0.351
699	0.348
700	0.344
700	0.341
701	0.34
701	0.338
702	0.336
702	0.335
702	0.334
703	0.332
703	0.331
704	0.329
704	0.328
705	0.328
705	0.327
705	0.325
706	0.324
706	0.323
707	0.321
707	0.319
708	0.316
708	0.314
709	0.313
709	0.311
709	0.307
710	0.303
710	0.3
711	0.298
711	0.296
712	0.294
712	0.292
713	0.291
713	0.289
713	0.287
714	0.284
714	0.281
715	0.279
715	0.276
716	0.273
716	0.271
716	0.268
717	0.266
717	0.263
718	0.261
718	0.258
719	0.256
719	0.255
720	0.254
720	0.252
720	0.25
721	0.247
721	0.244
722	0.241
722	0.238
723	0.235
723	0.233
723	0.231
724	0.228
724	0.225
725	0.222
725	0.219
726	0.216
726	0.214
727	0.212
727	0.209
727	0.207
728	0.205
728	0.203
729	0.202
729	0.201
730	0.2
730	0.198
730	0.197
731	0.196
731	0.194
732	0.193
732	0.192
733	0.19
733	0.188
734	0.185
734	0.183
734	0.181
735	0.18
735	0.178
736	0.175
736	0.173
737	0.171
737	0.169
737	0.168
738	0.165
738	0.162
739	0.159
739	0.156
740	0.154
740	0.152
741	0.15
741	0.147
741	0.144
742	0.139
742	0.135
743	0.132
743	0.129
744	0.126
744	0.124
744	0.121
745	0.118
745	0.115
746	0.113
746	0.111
747	0.11
747	0.11
748	0.109
748	0.109
748	0.108
749	0.107
749	0.107
750	0.106
750	0.105
751	0.105
751	0.105
751	0.105
752	0.104
752	0.102
753	0.101
753	0.1
754	0.1
754	0.099
754	0.099
755	0.099
755	0.1
756	0.099
756	0.097
757	0.096
757	0.095
758	0.094
758	0.093
758	0.092
759	0.09
759	0.088
760	0.084
760	0.081
761	0.078
761	0.077
761	0.075
762	0.073
762	0.071
763	0.07
763	0.068
764	0.065
764	0.062
764	0.06
765	0.058
765	0.056
766	0.054
766	0.054
767	0.053
767	0.051
768	0.048
768	0.046
768	0.045
769	0.044
769	0.044
770	0.043
770	0.042
771	0.039
771	0.036
771	0.033
772	0.031
772	0.028
773	0.026
773	0.023
774	0.019
774	0.016
775	0.012
775	0.009
775	0.005
776	0.001
776	-0.003
777	-0.008
777	-0.013
778	-0.018
778	-0.025
778	-0.03
779	-0.035
779	-0.037
780	-0.042
780	-0.047
781	-0.051
781	-0.056
781	-0.059
782	-0.062
782	-0.066
783	-0.069
783	-0.07
784	-0.072
784	-0.075
784	-0.077
785	-0.079
785	-0.081
786	-0.081
786	-0.079
787	-0.075
787	-0.071
788	-0.07
788	-0.071
788	-0.072
789	-0.074
789	-0.074
790	-0.071
790	-0.069
791	-0.07
791	-0.072
791	-0.074
792	-0.068
792	-0.059
793	-0.053
793	-0.05
794	-0.048
794	-0.05
794	-0.053
795	-0.055
795	-0.055
796	-0.055
796	-0.057
797	-0.065
797	-0.074
797	-0.08
798	-0.085
798	-0.088
799	-0.089
799	-0.089
800	-0.089
800	-0.091
801	-0.094
801	-0.095
801	-0.096
802	-0.098
802	-0.099
803	-0.1
803	-0.101
804	-0.1
804	-0.095
804	-0.089
805	-0.085
805	-0.083
806	-0.081
806	-0.08
807	-0.079
807	-0.078
807	-0.078
808	-0.077
808	-0.077
809	-0.082
809	-0.086
810	-0.089
810	-0.091
810	-0.094
811	-0.097
811	-0.097
812	-0.093
812	-0.09
813	-0.09
813	-0.091
813	-0.092
814	-0.093
814	-0.092
815	-0.09
815	-0.087
816	-0.085
816	-0.086
817	-0.09
817	-0.094
817	-0.094
818	-0.094
818	-0.09
819	-0.085
819	-0.083
820	-0.084
820	-0.086
820	-0.087
821	-0.087
821	-0.086
822	-0.084
822	-0.081
823	-0.078
823	-0.077
823	-0.076
824	-0.074
824	-0.067
825	-0.059
825	-0.05
826	-0.041
826	-0.033
826	-0.026
827	-0.018
827	-0.012
828	-0.005
828	-0
829	0.005
829	0.01
829	0.013
830	0.017
830	0.02
831	0.024
831	0.028
832	0.031
832	0.034
832	0.036
833	0.039
833	0.041
834	0.043
834	0.044
835	0.045
835	0.046
835	0.047
836	0.048
836	0.049
837	0.05
837	0.05
838	0.051
838	0.051
839	0.051
839	0.052
839	0.052
840	0.053
840	0.053
841	0.054
841	0.055
842	0.056
842	0.057
842	0.059
843	0.06
843	0.061
844	0.063
844	0.064
845	0.066
845	0.067
845	0.069
846	0.07
846	0.071
847	0.073
847	0.075
848	0.077
848	0.078
848	0.08
849	0.081
849	0.082
850	0.083
850	0.083
851	0.083
851	0.084
851	0.084
852	0.084
852	0.084
853	0.084
853	0.084
854	0.085
854	0.085
854	0.086
855	0.086
855	0.086
856	0.086
856	0.086
857	0.086
857	0.085
857	0.085
858	0.084
858	0.083
859	0.081
859	0.08
860	0.08
860	0.079
860	0.078
861	0.077
861	0.077
862	0.076
862	0.076
863	0.076
863	0.076
863	0.077
864	0.077
864	0.078
865	0.079
865	0.08
866	0.081
866	0.082
866	0.083
867	0.084
867	0.085
868	0.087
868	0.088
869	0.089
869	0.09
869	0.09
870	0.09
870	0.091
871	0.091
871	0.091
872	0.092
872	0.091
872	0.092
873	0.092
873	0.092
874	0.092
874	0.093
875	0.093
875	0.094
875	0.095
876	0.095
876	0.096
877	0.096
877	0.096
878	0.095
878	0.095
878	0.094
879	0.094
879	0.093
880	0.092
880	0.091
881	0.09
881	0.089
881	0.088
882	0.088
882	0.088
883	0.088
883	0.088
884	0.088
884	0.088
884	0.089
885	0.089
885	0.09
886	0.091
886	0.091
887	0.092
887	0.093
887	0.093
888	0.093
888	0.094
889	0.094
889	0.095
890	0.096
890	0.096
890	0.096
891	0.097
891	0.097
892	0.097
892	0.097
893	0.097
893	0.098
893	0.098
894	0.098
894	0.098
895	0.098
895	0.098
895	0.098
896	0.098
896	0.098
897	0.099
897	0.099
898	0.099
898	0.1
898	0.1
899	0.1
899	0.101
900	0.101
900	0.101
901	0.101
901	0.101
901	0.101
902	0.102
902	0.102
903	0.102
903	0.102
904	0.102
904	0.101
904	0.101
905	0.101
905	0.1
906	0.1
906	0.1
907	0.099
907	0.099
907	0.099
908	0.099
908	0.099
909	0.1
909	0.1
910	0.1
910	0.101
910	0.101
911	0.101
911	0.101
912	0.102
912	0.102
913	0.102
913	0.102
913	0.102
914	0.102
914	0.102
915	0.102
915	0.102
916	0.101
916	0.101
916	0.1
917	0.099
917	0.099
918	0.098
918	0.098
918	0.097
919	0.097
919	0.096
920	0.096
920	0.096
921	0.096
921	0.096
921	0.096
922	0.095
922	0.095
923	0.095
923	0.095
924	0.095
924	0.095
924	0.094
925	0.094
925	0.093
926	0.093
926	0.093
927	0.092
927	0.092
927	0.092
928	0.092
928	0.092
929	0.092
929	0.092
930	0.093
930	0.094
930	0.095
931	0.097
931	0.098
932	0.1
932	0.102
933	0.103
933	0.105
933	0.106
934	0.107
934	0.108
935	0.109
935	0.109
935	0.11
936	0.11
936	0.11
937	0.111
937	0.111
938	0.112
938	0.112
938	0.113
939	0.114
939	0.115
940	0.115
940	0.116
941	0.116
941	0.116
941	0.116
942	0.116
942	0.115
943	0.114
943	0.114
944	0.113
944	0.112
944	0.112
945	0.113
945	0.113
946	0.113
946	0.113
946	0.114
947	0.114
947	0.114
948	0.114
948	0.114
949	0.114
949	0.114
949	0.113
950	0.113
950	0.112
951	0.111
951	0.11
952	0.109
952	0.109
952	0.108
953	0.108
953	0.107
954	0.107
954	0.107
955	0.107
955	0.108
955	0.109
956	0.11
956	0.111
957	0.112
957	0.112
957	0.113
958	0.113
958	0.113
959	0.113
959	0.113
960	0.112
960	0.111
960	0.11
961	0.11
961	0.109
962	0.108
962	0.108
963	0.108
963	0.108
963	0.107
964	0.108
964	0.108
965	0.108
965	0.109
966	0.109
966	0.109
966	0.11
967	0.109
967	0.109
968	0.108
968	0.107
968	0.107
969	0.105
969	0.104
970	0.103
970	0.102
971	0.102
971	0.101
971	0.1
972	0.1
972	0.1
973	0.1
973	0.101
974	0.101
974	0.102
974	0.102
975	0.103
975	0.104
976	0.105
976	0.106
976	0.106
977	0.106
977	0.107
978	0.106
978	0.106
979	0.106
979	0.106
979	0.106
980	0.105
980	0.105
981	0.104
981	0.104
982	0.103
982	0.103
982	0.103
983	0.103
983	0.103
984	0.102
984	0.102
984	0.102
985	0.102
985	0.101
986	0.101
986	0.1
987	0.1
987	0.099
987	0.099
988	0.098
988	0.098
989	0.097
989	0.097
990	0.097
990	0.097
990	0.097
991	0.098
991	0.099
992	0.099
992	0.1
992	0.1
993	0.1
993	0.101
994	0.101
994	0.1
995	0.1
995	0.1
995	0.099
996	0.099
996	0.098
997	0.097
997	0.097
997	0.097
998	0.097
998	0.097
999	0.097
999	0.098
1000	0.098
1000	0.099
1000	0.099
1001	0.1
1001	0.101
1002	0.101
1002	0.102
1003	0.102
1003	0.103
1003	0.103
1004	0.103
1004	0.103
1005	0.104
1005	0.104
1005	0.103
1006	0.103
1006	0.103
1007	0.102
1007	0.102
1008	0.102
1008	0.101
1008	0.101
1009	0.101
1009	0.101
1010	0.101
1010	0.101
1010	0.101
1011	0.102
1011	0.102
1012	0.102
1012	0.102
1013	0.102
1013	0.102
1013	0.102
1014	0.101
1014	0.101
1015	0.1
1015	0.1
1016	0.099
1016	0.099
1016	0.098
1017	0.097
1017	0.097
1018	0.096
1018	0.096
1018	0.096
1019	0.095
1019	0.095
1020	0.094
1020	0.094
1021	0.093
1021	0.093
1021	0.093
1022	0.093
1022	0.093
1023	0.093
1023	0.092
1023	0.092
1024	0.091
1024	0.091
1025	0.09
1025	0.09
1026	0.09
1026	0.09
1026	0.089
1027	0.089
1027	0.09
1028	0.09
1028	0.091
1028	0.091
1029	0.091
1029	0.092
1030	0.092
1030	0.092
1031	0.093
1031	0.093
1031	0.093
1032	0.094
1032	0.094
1033	0.095
1033	0.095
1033	0.096
1034	0.096
1034	0.095
1035	0.096
1035	0.096
1036	0.096
1036	0.096
1036	0.097
1037	0.097
1037	0.098
1038	0.098
1038	0.099
1039	0.1
1039	0.101
1039	0.102
1040	0.103
1040	0.103
1041	0.104
1041	0.104
1041	0.104
1042	0.103
1042	0.103
1043	0.103
1043	0.102
1044	0.102
1044	0.101
1044	0.1
1045	0.1
1045	0.099
1046	0.098
1046	0.098
1046	0.098
1047	0.098
1047	0.098
1048	0.098
1048	0.098
1049	0.098
1049	0.097
1049	0.097
1050	0.097
1050	0.097
1051	0.097
1051	0.097
1051	0.098
1052	0.098
1052	0.098
1053	0.099
1053	0.099
1053	0.099
1054	0.1
1054	0.1
1055	0.1
1055	0.101
1056	0.101
1056	0.101
1056	0.101
1057	0.102
1057	0.103
1058	0.105
1058	0.106
1058	0.108
1059	0.11
1059	0.112
1060	0.114
1060	0.116
1061	0.118
1061	0.121
1061	0.123
1062	0.124
1062	0.126
1063	0.127
1063	0.128
1063	0.129
1064	0.13
1064	0.132
1065	0.133
1065	0.134
1066	0.136
1066	0.137
1066	0.139
1067	0.14
1067	0.142
1068	0.143
1068	0.145
1068	0.145
1069	0.146
1069	0.147
1070	0.149
1070	0.15
1071	0.152
1071	0.154
1071	0.155
1072	0.157
1072	0.16
1073	0.163
1073	0.165
1073	0.167
1074	0.17
1074	0.173
1075	0.174
1075	0.176
1076	0.178
1076	0.181
1076	0.183
1077	0.185
1077	0.187
1078	0.19
1078	0.193
1078	0.196
1079	0.199
1079	0.203
1080	0.206
1080	0.21
1080	0.212
1081	0.216
1081	0.219
1082	0.222
1082	0.225
1083	0.23
1083	0.234
1083	0.24
1084	0.245
1084	0.251
1085	0.256
1085	0.263
1085	0.269
1086	0.276
1086	0.282
1087	0.289
1087	0.296
1088	0.302
1088	0.309
1088	0.317
1089	0.326
1089	0.337
1090	0.349
1090	0.362
1090	0.375
1091	0.391
1091	0.409
1092	0.427
1092	0.449
1092	0.47
1093	0.492
1093	0.517
1094	0.542
1094	0.572
1095	0.603
1095	0.643
1095	0.691
1096	0.744
1096	0.806
1097	0.888
1097	0.983
1097	1.13
1098	1.353
1098	1.882
1099	-0
1099	-0
1100	-0
1100	-0
1100	-0
1101	-0
1101	-0
1102	-0
1102	-0
1102	-0
1103	-0
1103	-0
1104	-0
1104	-0
1104	-0
1105	-0
1105	-0
1106	-0
1106	-0
1107	-0
1107	-0
1107	-0
1108	-0
1108	-0
1109	-0
1109	-0
1109	-0
1110	-0
1110	-0
1111	-0
1111	-0
