Data from 15c-2-5a_Absorbance__13__00920.txt Node

Date: Tue Jan 16 11:27:40 CET 2024
User: Marek
Spectrometer: MAYP115816
Trigger mode: 0
Integration Time (sec): 2.000000E-1
Scans to average: 10
Electric dark correction enabled: true
Nonlinearity correction enabled: true
Boxcar width: 5
XAxis mode: Wavelengths
Number of Pixels in Spectrum: 2068
>>>>>Begin Spectral Data<<<<<
199	-2.27
199	-2.081
200	-1.945
200	-1.824
201	-1.749
201	-1.697
202	-1.62
202	-1.557
203	-1.507
203	-1.458
204	-1.431
204	-1.405
205	-1.385
205	-1.373
205	-1.37
206	-1.365
206	-1.361
207	-1.358
207	-1.358
208	-1.353
208	-1.352
209	-1.348
209	-1.345
210	-1.344
210	-1.342
211	-1.34
211	-1.34
212	-1.338
212	-1.338
213	-1.336
213	-1.335
213	-1.335
214	-1.332
214	-1.331
215	-1.33
215	-1.33
216	-1.326
216	-1.325
217	-1.322
217	-1.319
218	-1.315
218	-1.312
219	-1.307
219	-1.306
220	-1.304
220	-1.302
221	-1.298
221	-1.297
221	-1.292
222	-1.288
222	-1.282
223	-1.277
223	-1.272
224	-1.266
224	-1.258
225	-1.249
225	-1.239
226	-1.231
226	-1.221
227	-1.207
227	-1.194
228	-1.178
228	-1.161
229	-1.14
229	-1.117
229	-1.091
230	-1.062
230	-1.03
231	-0.994
231	-0.955
232	-0.915
232	-0.872
233	-0.825
233	-0.778
234	-0.729
234	-0.68
235	-0.63
235	-0.58
236	-0.531
236	-0.483
236	-0.434
237	-0.388
237	-0.343
238	-0.301
238	-0.26
239	-0.221
239	-0.184
240	-0.149
240	-0.116
241	-0.085
241	-0.057
242	-0.031
242	-0.005
243	0.018
243	0.039
243	0.059
244	0.078
244	0.095
245	0.111
245	0.126
246	0.139
246	0.152
247	0.164
247	0.175
248	0.185
248	0.195
249	0.204
249	0.213
250	0.22
250	0.228
250	0.235
251	0.242
251	0.248
252	0.254
252	0.259
253	0.264
253	0.269
254	0.273
254	0.278
255	0.281
255	0.285
256	0.288
256	0.291
257	0.294
257	0.297
258	0.299
258	0.301
258	0.304
259	0.305
259	0.307
260	0.308
260	0.309
261	0.31
261	0.311
262	0.312
262	0.313
263	0.313
263	0.314
264	0.314
264	0.315
265	0.315
265	0.315
265	0.316
266	0.316
266	0.316
267	0.316
267	0.316
268	0.316
268	0.315
269	0.315
269	0.314
270	0.313
270	0.313
271	0.312
271	0.312
272	0.311
272	0.311
272	0.31
273	0.309
273	0.309
274	0.308
274	0.307
275	0.306
275	0.305
276	0.304
276	0.303
277	0.301
277	0.3
278	0.298
278	0.297
278	0.295
279	0.294
279	0.293
280	0.293
280	0.292
281	0.292
281	0.291
282	0.291
282	0.291
283	0.291
283	0.291
284	0.291
284	0.291
285	0.29
285	0.29
285	0.289
286	0.288
286	0.288
287	0.287
287	0.286
288	0.286
288	0.285
289	0.284
289	0.284
290	0.283
290	0.282
291	0.282
291	0.282
292	0.281
292	0.28
292	0.28
293	0.279
293	0.279
294	0.278
294	0.278
295	0.277
295	0.277
296	0.276
296	0.276
297	0.275
297	0.275
298	0.274
298	0.274
298	0.274
299	0.273
299	0.272
300	0.272
300	0.271
301	0.271
301	0.27
302	0.27
302	0.269
303	0.269
303	0.268
304	0.268
304	0.267
305	0.267
305	0.266
305	0.266
306	0.265
306	0.264
307	0.264
307	0.263
308	0.262
308	0.262
309	0.261
309	0.26
310	0.259
310	0.259
311	0.258
311	0.257
311	0.257
312	0.256
312	0.255
313	0.254
313	0.254
314	0.253
314	0.252
315	0.251
315	0.25
316	0.249
316	0.248
317	0.248
317	0.247
318	0.246
318	0.245
318	0.244
319	0.243
319	0.242
320	0.242
320	0.241
321	0.24
321	0.239
322	0.238
322	0.237
323	0.236
323	0.235
324	0.235
324	0.234
324	0.233
325	0.232
325	0.232
326	0.231
326	0.231
327	0.23
327	0.229
328	0.228
328	0.227
329	0.226
329	0.225
330	0.225
330	0.224
330	0.223
331	0.222
331	0.221
332	0.22
332	0.219
333	0.219
333	0.218
334	0.217
334	0.216
335	0.215
335	0.215
336	0.214
336	0.213
336	0.212
337	0.212
337	0.211
338	0.21
338	0.209
339	0.209
339	0.208
340	0.207
340	0.206
341	0.206
341	0.205
342	0.204
342	0.204
342	0.203
343	0.202
343	0.202
344	0.201
344	0.201
345	0.2
345	0.199
346	0.199
346	0.198
347	0.197
347	0.196
348	0.196
348	0.195
348	0.194
349	0.193
349	0.193
350	0.192
350	0.191
351	0.19
351	0.189
352	0.188
352	0.187
353	0.185
353	0.184
354	0.183
354	0.182
354	0.18
355	0.179
355	0.178
356	0.177
356	0.176
357	0.175
357	0.175
358	0.175
358	0.175
359	0.176
359	0.177
360	0.178
360	0.179
360	0.18
361	0.18
361	0.181
362	0.182
362	0.182
363	0.182
363	0.182
364	0.181
364	0.18
365	0.18
365	0.179
366	0.179
366	0.179
366	0.178
367	0.178
367	0.177
368	0.177
368	0.177
369	0.176
369	0.176
370	0.175
370	0.175
371	0.174
371	0.174
372	0.173
372	0.173
372	0.173
373	0.172
373	0.172
374	0.172
374	0.172
375	0.172
375	0.172
376	0.172
376	0.173
377	0.173
377	0.173
378	0.174
378	0.174
378	0.174
379	0.175
379	0.175
380	0.175
380	0.175
381	0.175
381	0.175
382	0.174
382	0.174
383	0.173
383	0.173
383	0.172
384	0.172
384	0.171
385	0.171
385	0.171
386	0.171
386	0.171
387	0.171
387	0.171
388	0.171
388	0.171
389	0.171
389	0.17
389	0.17
390	0.171
390	0.171
391	0.171
391	0.172
392	0.172
392	0.172
393	0.172
393	0.172
394	0.172
394	0.172
394	0.172
395	0.171
395	0.171
396	0.171
396	0.171
397	0.171
397	0.171
398	0.171
398	0.172
399	0.172
399	0.171
400	0.171
400	0.171
400	0.17
401	0.169
401	0.168
402	0.167
402	0.166
403	0.166
403	0.165
404	0.165
404	0.165
405	0.165
405	0.164
405	0.164
406	0.164
406	0.164
407	0.164
407	0.164
408	0.163
408	0.163
409	0.162
409	0.162
410	0.162
410	0.162
411	0.162
411	0.162
411	0.161
412	0.161
412	0.161
413	0.16
413	0.16
414	0.16
414	0.159
415	0.159
415	0.159
416	0.158
416	0.158
416	0.157
417	0.157
417	0.156
418	0.156
418	0.157
419	0.157
419	0.158
420	0.159
420	0.16
421	0.161
421	0.161
421	0.162
422	0.162
422	0.162
423	0.163
423	0.163
424	0.162
424	0.161
425	0.16
425	0.159
426	0.158
426	0.158
427	0.157
427	0.157
427	0.158
428	0.159
428	0.16
429	0.161
429	0.162
430	0.162
430	0.162
431	0.161
431	0.161
432	0.161
432	0.16
432	0.159
433	0.157
433	0.156
434	0.155
434	0.154
435	0.154
435	0.154
436	0.154
436	0.154
437	0.154
437	0.154
437	0.154
438	0.154
438	0.154
439	0.154
439	0.153
440	0.153
440	0.153
441	0.154
441	0.154
442	0.154
442	0.155
442	0.155
443	0.156
443	0.157
444	0.157
444	0.158
445	0.158
445	0.158
446	0.159
446	0.159
447	0.158
447	0.158
447	0.158
448	0.157
448	0.157
449	0.157
449	0.156
450	0.156
450	0.155
451	0.155
451	0.154
452	0.154
452	0.153
452	0.152
453	0.152
453	0.151
454	0.15
454	0.149
455	0.149
455	0.148
456	0.148
456	0.148
457	0.147
457	0.147
458	0.147
458	0.147
458	0.148
459	0.148
459	0.149
460	0.148
460	0.148
461	0.147
461	0.146
462	0.146
462	0.146
463	0.146
463	0.147
463	0.147
464	0.147
464	0.148
465	0.147
465	0.147
466	0.147
466	0.147
467	0.147
467	0.147
467	0.146
468	0.144
468	0.142
469	0.14
469	0.138
470	0.137
470	0.136
471	0.135
471	0.135
472	0.135
472	0.135
472	0.136
473	0.137
473	0.138
474	0.139
474	0.141
475	0.142
475	0.143
476	0.143
476	0.143
477	0.144
477	0.144
477	0.144
478	0.145
478	0.145
479	0.145
479	0.146
480	0.146
480	0.147
481	0.148
481	0.149
482	0.149
482	0.15
482	0.152
483	0.153
483	0.156
484	0.16
484	0.163
485	0.165
485	0.167
486	0.169
486	0.17
487	0.17
487	0.171
487	0.171
488	0.17
488	0.169
489	0.166
489	0.164
490	0.162
490	0.16
491	0.159
491	0.159
492	0.159
492	0.159
492	0.16
493	0.16
493	0.161
494	0.163
494	0.165
495	0.167
495	0.168
496	0.17
496	0.17
496	0.171
497	0.172
497	0.173
498	0.173
498	0.173
499	0.173
499	0.172
500	0.173
500	0.174
501	0.176
501	0.177
501	0.179
502	0.18
502	0.182
503	0.183
503	0.185
504	0.186
504	0.186
505	0.187
505	0.187
506	0.187
506	0.187
506	0.187
507	0.187
507	0.187
508	0.187
508	0.187
509	0.187
509	0.187
510	0.187
510	0.187
511	0.188
511	0.188
511	0.188
512	0.187
512	0.186
513	0.185
513	0.184
514	0.183
514	0.183
515	0.183
515	0.183
515	0.181
516	0.179
516	0.178
517	0.177
517	0.178
518	0.178
518	0.178
519	0.178
519	0.177
520	0.176
520	0.174
520	0.172
521	0.171
521	0.168
522	0.165
522	0.161
523	0.157
523	0.154
524	0.152
524	0.151
524	0.15
525	0.15
525	0.151
526	0.154
526	0.157
527	0.161
527	0.166
528	0.17
528	0.174
529	0.177
529	0.18
529	0.183
530	0.185
530	0.186
531	0.187
531	0.188
532	0.189
532	0.189
533	0.19
533	0.19
533	0.191
534	0.191
534	0.19
535	0.189
535	0.189
536	0.19
536	0.189
537	0.189
537	0.189
538	0.188
538	0.187
538	0.186
539	0.185
539	0.185
540	0.185
540	0.184
541	0.182
541	0.181
542	0.179
542	0.178
542	0.177
543	0.176
543	0.175
544	0.174
544	0.173
545	0.172
545	0.172
546	0.171
546	0.171
547	0.171
547	0.169
547	0.166
548	0.164
548	0.161
549	0.159
549	0.158
550	0.156
550	0.154
551	0.152
551	0.15
551	0.148
552	0.148
552	0.147
553	0.147
553	0.147
554	0.148
554	0.147
555	0.145
555	0.142
556	0.139
556	0.137
556	0.134
557	0.131
557	0.129
558	0.127
558	0.125
559	0.123
559	0.123
560	0.123
560	0.123
560	0.124
561	0.124
561	0.125
562	0.125
562	0.124
563	0.123
563	0.121
564	0.118
564	0.115
564	0.112
565	0.11
565	0.109
566	0.108
566	0.107
567	0.107
567	0.109
568	0.111
568	0.114
568	0.116
569	0.12
569	0.123
570	0.126
570	0.127
571	0.129
571	0.13
572	0.131
572	0.132
573	0.133
573	0.133
573	0.132
574	0.132
574	0.131
575	0.131
575	0.132
576	0.133
576	0.133
577	0.133
577	0.132
577	0.131
578	0.13
578	0.13
579	0.131
579	0.133
580	0.134
580	0.133
581	0.13
581	0.128
581	0.126
582	0.126
582	0.125
583	0.126
583	0.126
584	0.123
584	0.12
585	0.117
585	0.115
585	0.114
586	0.114
586	0.114
587	0.113
587	0.111
588	0.108
588	0.105
589	0.103
589	0.102
590	0.1
590	0.099
590	0.099
591	0.1
591	0.1
592	0.1
592	0.099
593	0.099
593	0.099
594	0.098
594	0.098
594	0.097
595	0.096
595	0.095
596	0.094
596	0.094
597	0.096
597	0.098
598	0.1
598	0.101
598	0.103
599	0.104
599	0.104
600	0.104
600	0.103
601	0.102
601	0.101
602	0.099
602	0.098
602	0.096
603	0.095
603	0.095
604	0.095
604	0.096
605	0.097
605	0.099
606	0.1
606	0.1
606	0.099
607	0.098
607	0.098
608	0.097
608	0.095
609	0.094
609	0.093
610	0.091
610	0.089
610	0.087
611	0.087
611	0.087
612	0.088
612	0.089
613	0.091
613	0.093
614	0.093
614	0.093
614	0.093
615	0.092
615	0.092
616	0.091
616	0.091
617	0.09
617	0.089
618	0.087
618	0.086
618	0.085
619	0.085
619	0.085
620	0.086
620	0.088
621	0.088
621	0.089
622	0.089
622	0.09
622	0.091
623	0.091
623	0.091
624	0.092
624	0.092
625	0.092
625	0.092
626	0.092
626	0.091
626	0.091
627	0.091
627	0.091
628	0.091
628	0.091
629	0.091
629	0.091
630	0.091
630	0.091
630	0.091
631	0.091
631	0.092
632	0.092
632	0.092
633	0.093
633	0.093
634	0.095
634	0.097
634	0.099
635	0.101
635	0.102
636	0.103
636	0.105
637	0.106
637	0.107
638	0.108
638	0.109
638	0.111
639	0.111
639	0.111
640	0.112
640	0.113
641	0.114
641	0.115
642	0.117
642	0.119
642	0.12
643	0.121
643	0.123
644	0.124
644	0.126
645	0.127
645	0.129
646	0.132
646	0.135
646	0.139
647	0.143
647	0.147
648	0.15
648	0.154
649	0.157
649	0.16
650	0.163
650	0.166
650	0.169
651	0.171
651	0.173
652	0.175
652	0.176
653	0.178
653	0.186
653	0.192
654	0.158
654	0.132
655	0.138
655	0.141
656	0.142
656	0.144
657	0.146
657	0.148
657	0.148
658	0.145
658	0.14
659	0.171
659	0.214
660	0.213
660	0.215
661	0.216
661	0.218
661	0.22
662	0.223
662	0.226
663	0.23
663	0.233
664	0.236
664	0.238
665	0.241
665	0.243
665	0.246
666	0.249
666	0.251
667	0.254
667	0.256
668	0.259
668	0.262
669	0.265
669	0.267
669	0.272
670	0.276
670	0.28
671	0.283
671	0.284
672	0.286
672	0.287
672	0.288
673	0.288
673	0.289
674	0.29
674	0.29
675	0.289
675	0.289
676	0.291
676	0.293
676	0.295
677	0.297
677	0.3
678	0.303
678	0.305
679	0.307
679	0.308
680	0.311
680	0.312
680	0.313
681	0.313
681	0.314
682	0.315
682	0.317
683	0.319
683	0.321
684	0.325
684	0.326
684	0.327
685	0.329
685	0.33
686	0.332
686	0.334
687	0.334
687	0.334
687	0.333
688	0.333
688	0.331
689	0.331
689	0.332
690	0.333
690	0.333
691	0.333
691	0.333
691	0.334
692	0.334
692	0.334
693	0.334
693	0.334
694	0.334
694	0.333
695	0.333
695	0.335
695	0.336
696	0.336
696	0.335
697	0.334
697	0.333
698	0.332
698	0.33
698	0.328
699	0.326
699	0.324
700	0.32
700	0.318
701	0.316
701	0.315
702	0.314
702	0.313
702	0.312
703	0.311
703	0.31
704	0.308
704	0.308
705	0.308
705	0.307
705	0.306
706	0.305
706	0.304
707	0.303
707	0.301
708	0.299
708	0.297
709	0.296
709	0.295
709	0.292
710	0.288
710	0.285
711	0.283
711	0.281
712	0.279
712	0.277
713	0.276
713	0.274
713	0.271
714	0.268
714	0.266
715	0.263
715	0.26
716	0.257
716	0.254
716	0.251
717	0.249
717	0.246
718	0.244
718	0.241
719	0.24
719	0.239
720	0.238
720	0.236
720	0.234
721	0.231
721	0.228
722	0.225
722	0.222
723	0.219
723	0.217
723	0.214
724	0.211
724	0.208
725	0.205
725	0.203
726	0.201
726	0.199
727	0.197
727	0.195
727	0.194
728	0.192
728	0.19
729	0.19
729	0.189
730	0.188
730	0.186
730	0.185
731	0.184
731	0.183
732	0.182
732	0.181
733	0.179
733	0.177
734	0.175
734	0.173
734	0.171
735	0.169
735	0.167
736	0.164
736	0.162
737	0.159
737	0.158
737	0.156
738	0.153
738	0.15
739	0.147
739	0.144
740	0.141
740	0.139
741	0.137
741	0.134
741	0.13
742	0.125
742	0.12
743	0.117
743	0.114
744	0.112
744	0.109
744	0.107
745	0.104
745	0.102
746	0.1
746	0.098
747	0.098
747	0.097
748	0.097
748	0.097
748	0.096
749	0.096
749	0.095
750	0.095
750	0.094
751	0.094
751	0.094
751	0.094
752	0.094
752	0.093
753	0.091
753	0.09
754	0.09
754	0.089
754	0.088
755	0.088
755	0.088
756	0.088
756	0.086
757	0.084
757	0.084
758	0.082
758	0.08
758	0.079
759	0.078
759	0.075
760	0.072
760	0.068
761	0.064
761	0.062
761	0.06
762	0.058
762	0.057
763	0.056
763	0.054
764	0.051
764	0.048
764	0.046
765	0.044
765	0.042
766	0.041
766	0.04
767	0.039
767	0.037
768	0.033
768	0.03
768	0.029
769	0.028
769	0.027
770	0.026
770	0.024
771	0.021
771	0.018
771	0.015
772	0.012
772	0.009
773	0.006
773	0.003
774	-0.001
774	-0.005
775	-0.009
775	-0.013
775	-0.018
776	-0.024
776	-0.03
777	-0.036
777	-0.041
778	-0.047
778	-0.054
778	-0.061
779	-0.064
779	-0.064
780	-0.065
780	-0.067
781	-0.068
781	-0.069
781	-0.069
782	-0.07
782	-0.071
783	-0.071
783	-0.07
784	-0.071
784	-0.074
784	-0.075
785	-0.077
785	-0.079
786	-0.079
786	-0.077
787	-0.073
787	-0.07
788	-0.069
788	-0.069
788	-0.07
789	-0.072
789	-0.072
790	-0.069
790	-0.068
791	-0.068
791	-0.07
791	-0.072
792	-0.067
792	-0.058
793	-0.052
793	-0.048
794	-0.047
794	-0.048
794	-0.052
795	-0.054
795	-0.053
796	-0.054
796	-0.056
797	-0.064
797	-0.073
797	-0.079
798	-0.084
798	-0.087
799	-0.087
799	-0.087
800	-0.087
800	-0.089
801	-0.092
801	-0.094
801	-0.095
802	-0.096
802	-0.098
803	-0.099
803	-0.099
804	-0.098
804	-0.094
804	-0.087
805	-0.084
805	-0.082
806	-0.08
806	-0.078
807	-0.077
807	-0.076
807	-0.076
808	-0.075
808	-0.076
809	-0.08
809	-0.085
810	-0.088
810	-0.09
810	-0.093
811	-0.095
811	-0.095
812	-0.091
812	-0.088
813	-0.088
813	-0.089
813	-0.09
814	-0.091
814	-0.091
815	-0.088
815	-0.086
816	-0.084
816	-0.085
817	-0.089
817	-0.092
817	-0.093
818	-0.092
818	-0.089
819	-0.084
819	-0.081
820	-0.082
820	-0.084
820	-0.086
821	-0.085
821	-0.084
822	-0.083
822	-0.08
823	-0.077
823	-0.076
823	-0.076
824	-0.074
824	-0.068
825	-0.06
825	-0.051
826	-0.043
826	-0.035
826	-0.028
827	-0.021
827	-0.014
828	-0.008
828	-0.004
829	0.001
829	0.005
829	0.008
830	0.011
830	0.014
831	0.018
831	0.022
832	0.025
832	0.027
832	0.03
833	0.032
833	0.035
834	0.036
834	0.038
835	0.039
835	0.04
835	0.041
836	0.042
836	0.042
837	0.043
837	0.043
838	0.044
838	0.044
839	0.044
839	0.045
839	0.045
840	0.045
840	0.046
841	0.047
841	0.048
842	0.049
842	0.051
842	0.052
843	0.053
843	0.055
844	0.056
844	0.058
845	0.06
845	0.061
845	0.063
846	0.065
846	0.066
847	0.068
847	0.07
848	0.071
848	0.073
848	0.074
849	0.075
849	0.076
850	0.077
850	0.077
851	0.078
851	0.078
851	0.079
852	0.079
852	0.08
853	0.08
853	0.081
854	0.081
854	0.082
854	0.083
855	0.083
855	0.084
856	0.084
856	0.084
857	0.084
857	0.084
857	0.083
858	0.083
858	0.082
859	0.082
859	0.081
860	0.081
860	0.08
860	0.079
861	0.079
861	0.078
862	0.078
862	0.077
863	0.077
863	0.077
863	0.077
864	0.077
864	0.078
865	0.079
865	0.08
866	0.081
866	0.082
866	0.084
867	0.085
867	0.086
868	0.087
868	0.089
869	0.089
869	0.09
869	0.09
870	0.09
870	0.09
871	0.091
871	0.091
872	0.09
872	0.09
872	0.09
873	0.09
873	0.09
874	0.09
874	0.09
875	0.091
875	0.091
875	0.092
876	0.092
876	0.092
877	0.092
877	0.092
878	0.091
878	0.09
878	0.089
879	0.088
879	0.087
880	0.086
880	0.085
881	0.083
881	0.083
881	0.082
882	0.082
882	0.082
883	0.082
883	0.083
884	0.084
884	0.084
884	0.085
885	0.086
885	0.087
886	0.087
886	0.088
887	0.089
887	0.089
887	0.089
888	0.089
888	0.089
889	0.089
889	0.089
890	0.089
890	0.09
890	0.089
891	0.089
891	0.089
892	0.089
892	0.09
893	0.09
893	0.091
893	0.092
894	0.092
894	0.092
895	0.093
895	0.094
895	0.094
896	0.095
896	0.096
897	0.096
897	0.097
898	0.097
898	0.097
898	0.097
899	0.098
899	0.098
900	0.098
900	0.098
901	0.098
901	0.098
901	0.098
902	0.098
902	0.098
903	0.098
903	0.098
904	0.098
904	0.098
904	0.098
905	0.097
905	0.097
906	0.097
906	0.096
907	0.096
907	0.095
907	0.095
908	0.095
908	0.096
909	0.096
909	0.097
910	0.097
910	0.097
910	0.098
911	0.098
911	0.098
912	0.099
912	0.099
913	0.099
913	0.099
913	0.099
914	0.099
914	0.099
915	0.099
915	0.099
916	0.099
916	0.098
916	0.098
917	0.097
917	0.096
918	0.096
918	0.095
918	0.094
919	0.094
919	0.093
920	0.093
920	0.093
921	0.093
921	0.092
921	0.092
922	0.092
922	0.092
923	0.091
923	0.091
924	0.091
924	0.09
924	0.089
925	0.089
925	0.088
926	0.087
926	0.086
927	0.085
927	0.084
927	0.084
928	0.083
928	0.083
929	0.083
929	0.084
930	0.084
930	0.085
930	0.086
931	0.087
931	0.089
932	0.091
932	0.092
933	0.094
933	0.096
933	0.097
934	0.099
934	0.1
935	0.101
935	0.102
935	0.103
936	0.103
936	0.104
937	0.105
937	0.105
938	0.106
938	0.107
938	0.109
939	0.11
939	0.111
940	0.112
940	0.113
941	0.114
941	0.114
941	0.114
942	0.114
942	0.114
943	0.113
943	0.112
944	0.112
944	0.111
944	0.111
945	0.112
945	0.112
946	0.112
946	0.112
946	0.112
947	0.111
947	0.111
948	0.111
948	0.11
949	0.11
949	0.109
949	0.109
950	0.108
950	0.107
951	0.107
951	0.107
952	0.107
952	0.107
952	0.107
953	0.107
953	0.107
954	0.108
954	0.108
955	0.109
955	0.109
955	0.11
956	0.111
956	0.111
957	0.111
957	0.11
957	0.11
958	0.109
958	0.109
959	0.108
959	0.107
960	0.106
960	0.105
960	0.104
961	0.103
961	0.102
962	0.102
962	0.102
963	0.102
963	0.102
963	0.102
964	0.102
964	0.103
965	0.104
965	0.105
966	0.106
966	0.108
966	0.109
967	0.109
967	0.11
968	0.11
968	0.11
968	0.11
969	0.11
969	0.109
970	0.109
970	0.108
971	0.107
971	0.107
971	0.107
972	0.106
972	0.107
973	0.107
973	0.107
974	0.108
974	0.109
974	0.109
975	0.11
975	0.11
976	0.11
976	0.11
976	0.11
977	0.109
977	0.108
978	0.107
978	0.106
979	0.106
979	0.105
979	0.105
980	0.104
980	0.103
981	0.103
981	0.102
982	0.102
982	0.102
982	0.102
983	0.102
983	0.101
984	0.101
984	0.1
984	0.1
985	0.1
985	0.099
986	0.098
986	0.097
987	0.096
987	0.096
987	0.095
988	0.094
988	0.094
989	0.094
989	0.093
990	0.093
990	0.094
990	0.094
991	0.095
991	0.095
992	0.096
992	0.097
992	0.097
993	0.098
993	0.099
994	0.099
994	0.099
995	0.1
995	0.1
995	0.1
996	0.1
996	0.1
997	0.1
997	0.1
997	0.101
998	0.101
998	0.102
999	0.103
999	0.104
1000	0.105
1000	0.106
1000	0.106
1001	0.107
1001	0.108
1002	0.109
1002	0.109
1003	0.109
1003	0.109
1003	0.109
1004	0.109
1004	0.108
1005	0.108
1005	0.107
1005	0.106
1006	0.106
1006	0.105
1007	0.104
1007	0.104
1008	0.103
1008	0.102
1008	0.102
1009	0.102
1009	0.101
1010	0.101
1010	0.101
1010	0.101
1011	0.101
1011	0.101
1012	0.101
1012	0.101
1013	0.102
1013	0.102
1013	0.102
1014	0.101
1014	0.101
1015	0.101
1015	0.101
1016	0.1
1016	0.1
1016	0.1
1017	0.099
1017	0.098
1018	0.098
1018	0.098
1018	0.098
1019	0.098
1019	0.097
1020	0.097
1020	0.097
1021	0.097
1021	0.097
1021	0.097
1022	0.097
1022	0.097
1023	0.097
1023	0.097
1023	0.097
1024	0.096
1024	0.096
1025	0.095
1025	0.095
1026	0.095
1026	0.094
1026	0.094
1027	0.094
1027	0.094
1028	0.094
1028	0.095
1028	0.095
1029	0.095
1029	0.096
1030	0.096
1030	0.096
1031	0.097
1031	0.097
1031	0.097
1032	0.098
1032	0.098
1033	0.099
1033	0.099
1033	0.1
1034	0.099
1034	0.099
1035	0.099
1035	0.1
1036	0.1
1036	0.101
1036	0.101
1037	0.102
1037	0.103
1038	0.104
1038	0.105
1039	0.106
1039	0.107
1039	0.108
1040	0.109
1040	0.11
1041	0.11
1041	0.11
1041	0.11
1042	0.111
1042	0.111
1043	0.111
1043	0.111
1044	0.111
1044	0.111
1044	0.111
1045	0.111
1045	0.111
1046	0.111
1046	0.111
1046	0.111
1047	0.112
1047	0.112
1048	0.112
1048	0.112
1049	0.112
1049	0.112
1049	0.112
1050	0.112
1050	0.113
1051	0.113
1051	0.114
1051	0.114
1052	0.115
1052	0.116
1053	0.116
1053	0.117
1053	0.118
1054	0.119
1054	0.12
1055	0.121
1055	0.122
1056	0.122
1056	0.122
1056	0.123
1057	0.123
1057	0.125
1058	0.126
1058	0.127
1058	0.128
1059	0.13
1059	0.131
1060	0.133
1060	0.135
1061	0.137
1061	0.139
1061	0.141
1062	0.142
1062	0.143
1063	0.145
1063	0.146
1063	0.147
1064	0.149
1064	0.151
1065	0.152
1065	0.154
1066	0.156
1066	0.157
1066	0.159
1067	0.161
1067	0.163
1068	0.165
1068	0.166
1068	0.168
1069	0.17
1069	0.171
1070	0.173
1070	0.175
1071	0.177
1071	0.18
1071	0.182
1072	0.185
1072	0.188
1073	0.192
1073	0.195
1073	0.198
1074	0.2
1074	0.203
1075	0.205
1075	0.207
1076	0.21
1076	0.213
1076	0.216
1077	0.219
1077	0.222
1078	0.225
1078	0.229
1078	0.234
1079	0.238
1079	0.243
1080	0.247
1080	0.251
1080	0.254
1081	0.258
1081	0.262
1082	0.266
1082	0.271
1083	0.276
1083	0.282
1083	0.29
1084	0.296
1084	0.304
1085	0.312
1085	0.321
1085	0.33
1086	0.339
1086	0.347
1087	0.356
1087	0.365
1088	0.374
1088	0.384
1088	0.397
1089	0.41
1089	0.425
1090	0.441
1090	0.46
1090	0.481
1091	0.503
1091	0.53
1092	0.558
1092	0.589
1092	0.621
1093	0.655
1093	0.698
1094	0.745
1094	0.801
1095	0.867
1095	0.95
1095	1.072
1096	1.242
1096	1.555
1097	-0
1097	-0
1097	-0
1098	-0
1098	-0
1099	-0
1099	-0
1100	-0
1100	-0
1100	-0
1101	-0
1101	-0
1102	-0
1102	-0
1102	-0
1103	-0
1103	-0
1104	-0
1104	-0
1104	-0
1105	-0
1105	-0
1106	-0
1106	-0
1107	-0
1107	-0
1107	-0
1108	-0
1108	-0
1109	-0
1109	-0
1109	-0
1110	-0
1110	-0
1111	-0
1111	-0
