Data from 15c-2-5a_Absorbance__705__01612.txt Node

Date: Tue Jan 16 11:50:44 CET 2024
User: Marek
Spectrometer: MAYP115816
Trigger mode: 0
Integration Time (sec): 2.000000E-1
Scans to average: 10
Electric dark correction enabled: true
Nonlinearity correction enabled: true
Boxcar width: 5
XAxis mode: Wavelengths
Number of Pixels in Spectrum: 2068
>>>>>Begin Spectral Data<<<<<
199	-2.217
199	-2.028
200	-1.892
200	-1.772
201	-1.698
201	-1.646
202	-1.569
202	-1.506
203	-1.457
203	-1.408
204	-1.38
204	-1.355
205	-1.335
205	-1.323
205	-1.32
206	-1.315
206	-1.311
207	-1.309
207	-1.308
208	-1.304
208	-1.303
209	-1.299
209	-1.296
210	-1.295
210	-1.292
211	-1.291
211	-1.29
212	-1.289
212	-1.289
213	-1.287
213	-1.285
213	-1.286
214	-1.284
214	-1.283
215	-1.282
215	-1.282
216	-1.279
216	-1.278
217	-1.275
217	-1.272
218	-1.268
218	-1.265
219	-1.26
219	-1.259
220	-1.257
220	-1.255
221	-1.251
221	-1.249
221	-1.244
222	-1.24
222	-1.235
223	-1.23
223	-1.225
224	-1.219
224	-1.21
225	-1.201
225	-1.192
226	-1.183
226	-1.173
227	-1.16
227	-1.147
228	-1.131
228	-1.114
229	-1.093
229	-1.069
229	-1.044
230	-1.015
230	-0.983
231	-0.948
231	-0.908
232	-0.868
232	-0.825
233	-0.778
233	-0.73
234	-0.682
234	-0.632
235	-0.582
235	-0.533
236	-0.484
236	-0.435
236	-0.387
237	-0.341
237	-0.296
238	-0.254
238	-0.213
239	-0.174
239	-0.137
240	-0.102
240	-0.07
241	-0.039
241	-0.01
242	0.017
242	0.041
243	0.064
243	0.086
243	0.106
244	0.125
244	0.142
245	0.158
245	0.173
246	0.187
246	0.2
247	0.211
247	0.223
248	0.234
248	0.244
249	0.253
249	0.261
250	0.269
250	0.277
250	0.284
251	0.291
251	0.297
252	0.303
252	0.308
253	0.313
253	0.318
254	0.323
254	0.327
255	0.331
255	0.335
256	0.338
256	0.341
257	0.344
257	0.347
258	0.349
258	0.352
258	0.354
259	0.356
259	0.357
260	0.358
260	0.36
261	0.361
261	0.362
262	0.363
262	0.363
263	0.364
263	0.365
264	0.365
264	0.366
265	0.366
265	0.366
265	0.367
266	0.366
266	0.366
267	0.366
267	0.366
268	0.366
268	0.365
269	0.365
269	0.364
270	0.363
270	0.362
271	0.361
271	0.361
272	0.36
272	0.359
272	0.358
273	0.357
273	0.357
274	0.356
274	0.355
275	0.354
275	0.353
276	0.351
276	0.35
277	0.348
277	0.346
278	0.344
278	0.343
278	0.341
279	0.339
279	0.337
280	0.337
280	0.336
281	0.335
281	0.334
282	0.334
282	0.333
283	0.333
283	0.333
284	0.332
284	0.332
285	0.332
285	0.331
285	0.33
286	0.329
286	0.328
287	0.327
287	0.326
288	0.325
288	0.325
289	0.324
289	0.323
290	0.322
290	0.321
291	0.32
291	0.319
292	0.319
292	0.318
292	0.317
293	0.316
293	0.315
294	0.315
294	0.314
295	0.313
295	0.313
296	0.312
296	0.311
297	0.31
297	0.31
298	0.309
298	0.308
298	0.308
299	0.307
299	0.306
300	0.305
300	0.305
301	0.304
301	0.304
302	0.303
302	0.302
303	0.302
303	0.301
304	0.301
304	0.3
305	0.299
305	0.299
305	0.298
306	0.297
306	0.296
307	0.296
307	0.295
308	0.294
308	0.293
309	0.292
309	0.292
310	0.291
310	0.29
311	0.289
311	0.289
311	0.288
312	0.287
312	0.286
313	0.286
313	0.285
314	0.284
314	0.283
315	0.282
315	0.281
316	0.28
316	0.279
317	0.278
317	0.277
318	0.276
318	0.275
318	0.274
319	0.273
319	0.272
320	0.272
320	0.27
321	0.27
321	0.268
322	0.268
322	0.267
323	0.266
323	0.265
324	0.264
324	0.263
324	0.262
325	0.261
325	0.261
326	0.26
326	0.259
327	0.258
327	0.257
328	0.257
328	0.256
329	0.255
329	0.254
330	0.253
330	0.253
330	0.251
331	0.251
331	0.25
332	0.249
332	0.248
333	0.247
333	0.246
334	0.245
334	0.244
335	0.244
335	0.243
336	0.242
336	0.241
336	0.24
337	0.24
337	0.239
338	0.238
338	0.238
339	0.237
339	0.236
340	0.235
340	0.235
341	0.234
341	0.233
342	0.233
342	0.232
342	0.231
343	0.23
343	0.23
344	0.229
344	0.228
345	0.228
345	0.227
346	0.227
346	0.226
347	0.225
347	0.224
348	0.223
348	0.223
348	0.222
349	0.221
349	0.22
350	0.219
350	0.218
351	0.217
351	0.216
352	0.215
352	0.214
353	0.213
353	0.212
354	0.211
354	0.209
354	0.208
355	0.207
355	0.206
356	0.205
356	0.204
357	0.203
357	0.202
358	0.202
358	0.203
359	0.203
359	0.204
360	0.205
360	0.206
360	0.207
361	0.207
361	0.208
362	0.209
362	0.209
363	0.209
363	0.209
364	0.208
364	0.208
365	0.207
365	0.207
366	0.207
366	0.206
366	0.206
367	0.205
367	0.205
368	0.205
368	0.204
369	0.203
369	0.203
370	0.203
370	0.202
371	0.202
371	0.201
372	0.201
372	0.2
372	0.2
373	0.199
373	0.199
374	0.199
374	0.199
375	0.199
375	0.199
376	0.199
376	0.199
377	0.199
377	0.2
378	0.2
378	0.2
378	0.201
379	0.201
379	0.201
380	0.201
380	0.201
381	0.201
381	0.201
382	0.201
382	0.2
383	0.2
383	0.199
383	0.199
384	0.199
384	0.198
385	0.198
385	0.198
386	0.198
386	0.198
387	0.198
387	0.198
388	0.197
388	0.197
389	0.197
389	0.197
389	0.197
390	0.197
390	0.197
391	0.197
391	0.198
392	0.198
392	0.198
393	0.198
393	0.199
394	0.198
394	0.198
394	0.198
395	0.198
395	0.198
396	0.198
396	0.197
397	0.198
397	0.198
398	0.198
398	0.198
399	0.198
399	0.198
400	0.198
400	0.197
400	0.196
401	0.196
401	0.195
402	0.193
402	0.193
403	0.192
403	0.192
404	0.192
404	0.192
405	0.191
405	0.191
405	0.191
406	0.19
406	0.19
407	0.19
407	0.19
408	0.19
408	0.189
409	0.189
409	0.188
410	0.188
410	0.188
411	0.188
411	0.188
411	0.187
412	0.187
412	0.186
413	0.186
413	0.186
414	0.185
414	0.185
415	0.185
415	0.184
416	0.184
416	0.184
416	0.183
417	0.183
417	0.183
418	0.183
418	0.183
419	0.184
419	0.185
420	0.185
420	0.186
421	0.187
421	0.188
421	0.188
422	0.188
422	0.188
423	0.189
423	0.188
424	0.188
424	0.187
425	0.186
425	0.184
426	0.183
426	0.183
427	0.183
427	0.183
427	0.183
428	0.184
428	0.185
429	0.186
429	0.187
430	0.187
430	0.187
431	0.187
431	0.187
432	0.186
432	0.186
432	0.184
433	0.183
433	0.182
434	0.181
434	0.18
435	0.18
435	0.18
436	0.18
436	0.181
437	0.181
437	0.181
437	0.181
438	0.181
438	0.181
439	0.18
439	0.18
440	0.18
440	0.18
441	0.18
441	0.18
442	0.181
442	0.181
442	0.182
443	0.182
443	0.183
444	0.183
444	0.184
445	0.184
445	0.185
446	0.185
446	0.185
447	0.184
447	0.184
447	0.184
448	0.183
448	0.183
449	0.183
449	0.183
450	0.182
450	0.182
451	0.182
451	0.181
452	0.18
452	0.18
452	0.179
453	0.179
453	0.178
454	0.177
454	0.176
455	0.176
455	0.175
456	0.175
456	0.174
457	0.174
457	0.174
458	0.174
458	0.174
458	0.174
459	0.175
459	0.175
460	0.175
460	0.174
461	0.173
461	0.173
462	0.173
462	0.173
463	0.173
463	0.174
463	0.175
464	0.175
464	0.175
465	0.175
465	0.176
466	0.176
466	0.176
467	0.176
467	0.176
467	0.174
468	0.172
468	0.17
469	0.168
469	0.167
470	0.166
470	0.166
471	0.166
471	0.165
472	0.165
472	0.165
472	0.166
473	0.167
473	0.168
474	0.169
474	0.17
475	0.171
475	0.172
476	0.172
476	0.173
477	0.173
477	0.173
477	0.174
478	0.174
478	0.174
479	0.175
479	0.176
480	0.177
480	0.177
481	0.178
481	0.179
482	0.18
482	0.181
482	0.182
483	0.185
483	0.188
484	0.191
484	0.194
485	0.197
485	0.198
486	0.2
486	0.201
487	0.202
487	0.202
487	0.203
488	0.202
488	0.201
489	0.198
489	0.196
490	0.194
490	0.193
491	0.192
491	0.192
492	0.193
492	0.193
492	0.193
493	0.194
493	0.195
494	0.197
494	0.199
495	0.201
495	0.202
496	0.203
496	0.204
496	0.205
497	0.206
497	0.207
498	0.207
498	0.208
499	0.208
499	0.207
500	0.208
500	0.209
501	0.211
501	0.213
501	0.214
502	0.216
502	0.218
503	0.219
503	0.221
504	0.222
504	0.223
505	0.223
505	0.223
506	0.223
506	0.224
506	0.224
507	0.224
507	0.224
508	0.224
508	0.224
509	0.224
509	0.225
510	0.226
510	0.226
511	0.226
511	0.225
511	0.225
512	0.225
512	0.226
513	0.225
513	0.224
514	0.222
514	0.221
515	0.22
515	0.219
515	0.218
516	0.218
516	0.218
517	0.218
517	0.218
518	0.219
518	0.218
519	0.217
519	0.215
520	0.213
520	0.21
520	0.207
521	0.204
521	0.201
522	0.198
522	0.195
523	0.193
523	0.192
524	0.193
524	0.195
524	0.198
525	0.201
525	0.205
526	0.208
526	0.211
527	0.215
527	0.218
528	0.221
528	0.223
529	0.224
529	0.225
529	0.225
530	0.226
530	0.226
531	0.226
531	0.227
532	0.227
532	0.226
533	0.227
533	0.227
533	0.227
534	0.227
534	0.227
535	0.226
535	0.225
536	0.225
536	0.225
537	0.224
537	0.224
538	0.223
538	0.222
538	0.221
539	0.22
539	0.22
540	0.219
540	0.218
541	0.217
541	0.215
542	0.213
542	0.211
542	0.21
543	0.209
543	0.208
544	0.206
544	0.204
545	0.203
545	0.203
546	0.203
546	0.203
547	0.202
547	0.199
547	0.197
548	0.194
548	0.192
549	0.19
549	0.188
550	0.186
550	0.184
551	0.181
551	0.179
551	0.177
552	0.176
552	0.175
553	0.174
553	0.174
554	0.174
554	0.173
555	0.171
555	0.168
556	0.165
556	0.162
556	0.159
557	0.156
557	0.154
558	0.152
558	0.15
559	0.149
559	0.148
560	0.148
560	0.148
560	0.148
561	0.148
561	0.149
562	0.149
562	0.148
563	0.146
563	0.144
564	0.141
564	0.138
564	0.135
565	0.133
565	0.132
566	0.131
566	0.13
567	0.13
567	0.131
568	0.132
568	0.134
568	0.136
569	0.139
569	0.142
570	0.144
570	0.145
571	0.146
571	0.147
572	0.148
572	0.148
573	0.149
573	0.149
573	0.148
574	0.147
574	0.146
575	0.146
575	0.147
576	0.148
576	0.148
577	0.147
577	0.145
577	0.144
578	0.144
578	0.143
579	0.145
579	0.146
580	0.147
580	0.145
581	0.143
581	0.141
581	0.139
582	0.139
582	0.138
583	0.139
583	0.138
584	0.136
584	0.132
585	0.129
585	0.128
585	0.127
586	0.127
586	0.127
587	0.126
587	0.124
588	0.121
588	0.119
589	0.117
589	0.116
590	0.114
590	0.113
590	0.114
591	0.115
591	0.115
592	0.115
592	0.114
593	0.114
593	0.113
594	0.113
594	0.112
594	0.111
595	0.111
595	0.109
596	0.108
596	0.108
597	0.11
597	0.112
598	0.114
598	0.116
598	0.117
599	0.118
599	0.119
600	0.118
600	0.117
601	0.116
601	0.115
602	0.113
602	0.111
602	0.109
603	0.108
603	0.108
604	0.108
604	0.109
605	0.11
605	0.112
606	0.113
606	0.112
606	0.112
607	0.111
607	0.111
608	0.11
608	0.109
609	0.108
609	0.107
610	0.105
610	0.103
610	0.102
611	0.102
611	0.103
612	0.103
612	0.105
613	0.106
613	0.107
614	0.108
614	0.107
614	0.107
615	0.107
615	0.106
616	0.106
616	0.105
617	0.105
617	0.103
618	0.102
618	0.101
618	0.1
619	0.1
619	0.101
620	0.103
620	0.104
621	0.105
621	0.106
622	0.107
622	0.108
622	0.108
623	0.108
623	0.109
624	0.11
624	0.11
625	0.11
625	0.11
626	0.109
626	0.109
626	0.109
627	0.109
627	0.109
628	0.11
628	0.11
629	0.111
629	0.111
630	0.111
630	0.111
630	0.111
631	0.112
631	0.112
632	0.112
632	0.112
633	0.113
633	0.114
634	0.115
634	0.117
634	0.119
635	0.121
635	0.123
636	0.124
636	0.126
637	0.128
637	0.129
638	0.131
638	0.132
638	0.133
639	0.134
639	0.134
640	0.136
640	0.137
641	0.138
641	0.14
642	0.141
642	0.143
642	0.145
643	0.147
643	0.148
644	0.15
644	0.152
645	0.154
645	0.156
646	0.158
646	0.162
646	0.166
647	0.17
647	0.174
648	0.177
648	0.18
649	0.184
649	0.187
650	0.191
650	0.194
650	0.197
651	0.199
651	0.201
652	0.203
652	0.205
653	0.208
653	0.216
653	0.224
654	0.182
654	0.151
655	0.157
655	0.16
656	0.162
656	0.163
657	0.165
657	0.167
657	0.168
658	0.164
658	0.157
659	0.194
659	0.245
660	0.245
660	0.246
661	0.248
661	0.25
661	0.252
662	0.255
662	0.258
663	0.262
663	0.265
664	0.269
664	0.271
665	0.274
665	0.277
665	0.279
666	0.282
666	0.285
667	0.287
667	0.29
668	0.293
668	0.296
669	0.299
669	0.302
669	0.307
670	0.312
670	0.316
671	0.319
671	0.321
672	0.322
672	0.323
672	0.324
673	0.325
673	0.326
674	0.327
674	0.327
675	0.326
675	0.326
676	0.327
676	0.329
676	0.331
677	0.333
677	0.336
678	0.339
678	0.341
679	0.342
679	0.344
680	0.346
680	0.348
680	0.348
681	0.348
681	0.349
682	0.35
682	0.351
683	0.352
683	0.354
684	0.357
684	0.358
684	0.359
685	0.36
685	0.362
686	0.363
686	0.364
687	0.365
687	0.364
687	0.364
688	0.363
688	0.362
689	0.362
689	0.363
690	0.364
690	0.363
691	0.363
691	0.364
691	0.364
692	0.364
692	0.364
693	0.364
693	0.364
694	0.364
694	0.363
695	0.363
695	0.364
695	0.365
696	0.365
696	0.364
697	0.363
697	0.362
698	0.36
698	0.358
698	0.355
699	0.354
699	0.351
700	0.347
700	0.344
701	0.343
701	0.341
702	0.339
702	0.338
702	0.336
703	0.335
703	0.334
704	0.332
704	0.331
705	0.331
705	0.33
705	0.328
706	0.327
706	0.326
707	0.324
707	0.321
708	0.319
708	0.317
709	0.315
709	0.313
709	0.31
710	0.306
710	0.303
711	0.301
711	0.298
712	0.296
712	0.295
713	0.293
713	0.291
713	0.289
714	0.286
714	0.283
715	0.281
715	0.278
716	0.275
716	0.272
716	0.27
717	0.267
717	0.265
718	0.262
718	0.26
719	0.258
719	0.257
720	0.255
720	0.254
720	0.251
721	0.248
721	0.246
722	0.243
722	0.24
723	0.237
723	0.235
723	0.233
724	0.23
724	0.227
725	0.224
725	0.221
726	0.218
726	0.216
727	0.213
727	0.211
727	0.209
728	0.207
728	0.205
729	0.204
729	0.203
730	0.202
730	0.2
730	0.199
731	0.197
731	0.196
732	0.195
732	0.194
733	0.192
733	0.189
734	0.187
734	0.185
734	0.183
735	0.181
735	0.179
736	0.177
736	0.174
737	0.172
737	0.171
737	0.169
738	0.167
738	0.163
739	0.161
739	0.158
740	0.155
740	0.153
741	0.151
741	0.149
741	0.146
742	0.141
742	0.136
743	0.133
743	0.13
744	0.128
744	0.125
744	0.122
745	0.119
745	0.116
746	0.114
746	0.112
747	0.111
747	0.111
748	0.11
748	0.11
748	0.109
749	0.108
749	0.107
750	0.106
750	0.106
751	0.105
751	0.105
751	0.105
752	0.105
752	0.103
753	0.102
753	0.101
754	0.101
754	0.1
754	0.1
755	0.1
755	0.1
756	0.1
756	0.098
757	0.097
757	0.096
758	0.095
758	0.094
758	0.092
759	0.091
759	0.088
760	0.085
760	0.082
761	0.079
761	0.077
761	0.075
762	0.073
762	0.072
763	0.071
763	0.069
764	0.065
764	0.063
764	0.06
765	0.058
765	0.056
766	0.055
766	0.054
767	0.054
767	0.051
768	0.048
768	0.046
768	0.045
769	0.044
769	0.044
770	0.043
770	0.042
771	0.04
771	0.037
771	0.033
772	0.031
772	0.029
773	0.026
773	0.023
774	0.02
774	0.016
775	0.013
775	0.009
775	0.005
776	0.001
776	-0.003
777	-0.007
777	-0.012
778	-0.017
778	-0.023
778	-0.029
779	-0.034
779	-0.036
780	-0.041
780	-0.046
781	-0.051
781	-0.055
781	-0.059
782	-0.062
782	-0.066
783	-0.069
783	-0.07
784	-0.072
784	-0.075
784	-0.077
785	-0.079
785	-0.081
786	-0.081
786	-0.079
787	-0.075
787	-0.071
788	-0.07
788	-0.071
788	-0.072
789	-0.074
789	-0.074
790	-0.071
790	-0.069
791	-0.07
791	-0.072
791	-0.074
792	-0.069
792	-0.059
793	-0.054
793	-0.05
794	-0.048
794	-0.05
794	-0.053
795	-0.055
795	-0.055
796	-0.055
796	-0.057
797	-0.065
797	-0.074
797	-0.081
798	-0.086
798	-0.088
799	-0.089
799	-0.089
800	-0.089
800	-0.091
801	-0.094
801	-0.095
801	-0.096
802	-0.098
802	-0.099
803	-0.1
803	-0.101
804	-0.1
804	-0.095
804	-0.089
805	-0.085
805	-0.083
806	-0.081
806	-0.08
807	-0.079
807	-0.078
807	-0.078
808	-0.077
808	-0.078
809	-0.082
809	-0.087
810	-0.089
810	-0.091
810	-0.094
811	-0.097
811	-0.097
812	-0.093
812	-0.09
813	-0.09
813	-0.091
813	-0.092
814	-0.093
814	-0.092
815	-0.09
815	-0.087
816	-0.086
816	-0.086
817	-0.09
817	-0.094
817	-0.094
818	-0.094
818	-0.09
819	-0.085
819	-0.083
820	-0.084
820	-0.086
820	-0.087
821	-0.087
821	-0.086
822	-0.084
822	-0.082
823	-0.078
823	-0.077
823	-0.077
824	-0.075
824	-0.069
825	-0.061
825	-0.052
826	-0.043
826	-0.035
826	-0.027
827	-0.02
827	-0.013
828	-0.007
828	-0.001
829	0.004
829	0.009
829	0.013
830	0.016
830	0.019
831	0.024
831	0.027
832	0.031
832	0.033
832	0.036
833	0.038
833	0.04
834	0.042
834	0.044
835	0.045
835	0.046
835	0.046
836	0.048
836	0.048
837	0.049
837	0.05
838	0.05
838	0.051
839	0.051
839	0.051
839	0.052
840	0.052
840	0.053
841	0.054
841	0.055
842	0.056
842	0.057
842	0.059
843	0.06
843	0.061
844	0.063
844	0.064
845	0.066
845	0.067
845	0.069
846	0.07
846	0.071
847	0.073
847	0.074
848	0.076
848	0.078
848	0.079
849	0.08
849	0.081
850	0.082
850	0.082
851	0.083
851	0.083
851	0.084
852	0.084
852	0.084
853	0.084
853	0.085
854	0.085
854	0.086
854	0.086
855	0.086
855	0.086
856	0.086
856	0.086
857	0.086
857	0.086
857	0.085
858	0.084
858	0.083
859	0.081
859	0.08
860	0.08
860	0.079
860	0.078
861	0.077
861	0.076
862	0.076
862	0.075
863	0.076
863	0.076
863	0.076
864	0.077
864	0.077
865	0.079
865	0.08
866	0.08
866	0.081
866	0.082
867	0.084
867	0.085
868	0.086
868	0.087
869	0.089
869	0.089
869	0.089
870	0.09
870	0.09
871	0.091
871	0.091
872	0.091
872	0.091
872	0.091
873	0.091
873	0.091
874	0.092
874	0.092
875	0.093
875	0.094
875	0.094
876	0.095
876	0.095
877	0.095
877	0.096
878	0.095
878	0.095
878	0.094
879	0.094
879	0.093
880	0.092
880	0.091
881	0.09
881	0.089
881	0.089
882	0.088
882	0.088
883	0.088
883	0.088
884	0.088
884	0.088
884	0.089
885	0.089
885	0.09
886	0.091
886	0.091
887	0.092
887	0.093
887	0.093
888	0.093
888	0.093
889	0.094
889	0.095
890	0.095
890	0.096
890	0.096
891	0.096
891	0.097
892	0.097
892	0.097
893	0.097
893	0.098
893	0.098
894	0.098
894	0.098
895	0.098
895	0.098
895	0.098
896	0.098
896	0.099
897	0.099
897	0.099
898	0.1
898	0.1
898	0.1
899	0.1
899	0.101
900	0.101
900	0.101
901	0.101
901	0.101
901	0.102
902	0.102
902	0.102
903	0.102
903	0.102
904	0.102
904	0.102
904	0.102
905	0.101
905	0.101
906	0.101
906	0.1
907	0.1
907	0.1
907	0.1
908	0.1
908	0.1
909	0.101
909	0.101
910	0.101
910	0.101
910	0.101
911	0.101
911	0.102
912	0.102
912	0.102
913	0.102
913	0.102
913	0.102
914	0.102
914	0.102
915	0.102
915	0.102
916	0.101
916	0.101
916	0.1
917	0.099
917	0.099
918	0.098
918	0.097
918	0.097
919	0.096
919	0.096
920	0.096
920	0.096
921	0.096
921	0.095
921	0.095
922	0.095
922	0.095
923	0.094
923	0.094
924	0.094
924	0.094
924	0.094
925	0.093
925	0.093
926	0.093
926	0.092
927	0.092
927	0.092
927	0.091
928	0.091
928	0.091
929	0.092
929	0.092
930	0.093
930	0.094
930	0.095
931	0.097
931	0.098
932	0.1
932	0.102
933	0.104
933	0.105
933	0.106
934	0.108
934	0.108
935	0.109
935	0.109
935	0.11
936	0.11
936	0.11
937	0.111
937	0.111
938	0.112
938	0.113
938	0.113
939	0.114
939	0.115
940	0.116
940	0.116
941	0.117
941	0.117
941	0.117
942	0.116
942	0.115
943	0.115
943	0.114
944	0.113
944	0.113
944	0.112
945	0.113
945	0.113
946	0.113
946	0.113
946	0.114
947	0.114
947	0.115
948	0.115
948	0.114
949	0.114
949	0.114
949	0.114
950	0.113
950	0.112
951	0.111
951	0.11
952	0.109
952	0.109
952	0.108
953	0.108
953	0.107
954	0.107
954	0.107
955	0.107
955	0.108
955	0.109
956	0.11
956	0.11
957	0.111
957	0.112
957	0.112
958	0.112
958	0.113
959	0.112
959	0.112
960	0.111
960	0.111
960	0.11
961	0.109
961	0.108
962	0.108
962	0.108
963	0.108
963	0.108
963	0.107
964	0.107
964	0.108
965	0.108
965	0.108
966	0.108
966	0.109
966	0.109
967	0.109
967	0.108
968	0.108
968	0.107
968	0.106
969	0.105
969	0.104
970	0.103
970	0.102
971	0.101
971	0.1
971	0.1
972	0.099
972	0.099
973	0.099
973	0.1
974	0.1
974	0.101
974	0.102
975	0.102
975	0.103
976	0.104
976	0.105
976	0.106
977	0.106
977	0.106
978	0.106
978	0.106
979	0.106
979	0.106
979	0.105
980	0.105
980	0.104
981	0.104
981	0.103
982	0.103
982	0.103
982	0.103
983	0.103
983	0.103
984	0.103
984	0.102
984	0.102
985	0.102
985	0.102
986	0.101
986	0.101
987	0.1
987	0.099
987	0.099
988	0.098
988	0.098
989	0.097
989	0.097
990	0.096
990	0.096
990	0.097
991	0.097
991	0.098
992	0.099
992	0.099
992	0.1
993	0.1
993	0.1
994	0.1
994	0.1
995	0.099
995	0.099
995	0.098
996	0.098
996	0.097
997	0.096
997	0.096
997	0.096
998	0.096
998	0.096
999	0.097
999	0.097
1000	0.097
1000	0.098
1000	0.099
1001	0.099
1001	0.1
1002	0.101
1002	0.102
1003	0.102
1003	0.102
1003	0.103
1004	0.103
1004	0.103
1005	0.103
1005	0.103
1005	0.103
1006	0.103
1006	0.102
1007	0.102
1007	0.102
1008	0.101
1008	0.101
1008	0.101
1009	0.101
1009	0.101
1010	0.101
1010	0.102
1010	0.102
1011	0.102
1011	0.102
1012	0.102
1012	0.102
1013	0.103
1013	0.102
1013	0.102
1014	0.102
1014	0.101
1015	0.101
1015	0.1
1016	0.1
1016	0.099
1016	0.099
1017	0.098
1017	0.097
1018	0.096
1018	0.096
1018	0.095
1019	0.095
1019	0.094
1020	0.094
1020	0.093
1021	0.093
1021	0.092
1021	0.092
1022	0.092
1022	0.092
1023	0.092
1023	0.092
1023	0.091
1024	0.091
1024	0.09
1025	0.09
1025	0.089
1026	0.089
1026	0.089
1026	0.089
1027	0.089
1027	0.089
1028	0.089
1028	0.09
1028	0.09
1029	0.09
1029	0.091
1030	0.091
1030	0.091
1031	0.092
1031	0.092
1031	0.092
1032	0.093
1032	0.093
1033	0.094
1033	0.095
1033	0.095
1034	0.095
1034	0.095
1035	0.095
1035	0.095
1036	0.095
1036	0.096
1036	0.096
1037	0.097
1037	0.097
1038	0.098
1038	0.098
1039	0.099
1039	0.1
1039	0.101
1040	0.102
1040	0.102
1041	0.103
1041	0.103
1041	0.103
1042	0.102
1042	0.102
1043	0.102
1043	0.101
1044	0.101
1044	0.1
1044	0.1
1045	0.099
1045	0.099
1046	0.098
1046	0.098
1046	0.098
1047	0.098
1047	0.098
1048	0.098
1048	0.098
1049	0.098
1049	0.098
1049	0.097
1050	0.097
1050	0.097
1051	0.097
1051	0.097
1051	0.098
1052	0.098
1052	0.098
1053	0.098
1053	0.098
1053	0.098
1054	0.099
1054	0.099
1055	0.1
1055	0.1
1056	0.1
1056	0.1
1056	0.101
1057	0.101
1057	0.102
1058	0.104
1058	0.105
1058	0.107
1059	0.109
1059	0.111
1060	0.113
1060	0.115
1061	0.118
1061	0.12
1061	0.122
1062	0.123
1062	0.125
1063	0.126
1063	0.127
1063	0.128
1064	0.13
1064	0.132
1065	0.133
1065	0.134
1066	0.135
1066	0.137
1066	0.138
1067	0.14
1067	0.141
1068	0.142
1068	0.144
1068	0.145
1069	0.146
1069	0.146
1070	0.147
1070	0.149
1071	0.151
1071	0.153
1071	0.154
1072	0.156
1072	0.159
1073	0.162
1073	0.164
1073	0.166
1074	0.169
1074	0.172
1075	0.173
1075	0.175
1076	0.177
1076	0.179
1076	0.181
1077	0.183
1077	0.185
1078	0.188
1078	0.191
1078	0.194
1079	0.197
1079	0.201
1080	0.204
1080	0.208
1080	0.21
1081	0.214
1081	0.217
1082	0.22
1082	0.224
1083	0.228
1083	0.232
1083	0.238
1084	0.243
1084	0.248
1085	0.254
1085	0.26
1085	0.266
1086	0.273
1086	0.278
1087	0.284
1087	0.291
1088	0.297
1088	0.303
1088	0.312
1089	0.321
1089	0.332
1090	0.343
1090	0.356
1090	0.37
1091	0.386
1091	0.404
1092	0.422
1092	0.444
1092	0.464
1093	0.485
1093	0.511
1094	0.536
1094	0.563
1095	0.595
1095	0.633
1095	0.68
1096	0.73
1096	0.788
1097	0.871
1097	0.969
1097	1.105
1098	1.299
1098	1.74
1099	-0
1099	-0
1100	-0
1100	-0
1100	-0
1101	-0
1101	-0
1102	-0
1102	-0
1102	-0
1103	-0
1103	-0
1104	-0
1104	-0
1104	-0
1105	-0
1105	-0
1106	-0
1106	-0
1107	-0
1107	-0
1107	-0
1108	-0
1108	-0
1109	-0
1109	-0
1109	-0
1110	-0
1110	-0
1111	-0
1111	-0
