Data from 15c-2-5a_Absorbance__99__01006.txt Node

Date: Tue Jan 16 11:30:32 CET 2024
User: Marek
Spectrometer: MAYP115816
Trigger mode: 0
Integration Time (sec): 2.000000E-1
Scans to average: 10
Electric dark correction enabled: true
Nonlinearity correction enabled: true
Boxcar width: 5
XAxis mode: Wavelengths
Number of Pixels in Spectrum: 2068
>>>>>Begin Spectral Data<<<<<
199	-2.224
199	-2.035
200	-1.9
200	-1.779
201	-1.705
201	-1.652
202	-1.575
202	-1.513
203	-1.463
203	-1.414
204	-1.387
204	-1.361
205	-1.341
205	-1.329
205	-1.325
206	-1.321
206	-1.317
207	-1.314
207	-1.314
208	-1.31
208	-1.308
209	-1.304
209	-1.301
210	-1.3
210	-1.298
211	-1.297
211	-1.296
212	-1.294
212	-1.294
213	-1.292
213	-1.291
213	-1.291
214	-1.289
214	-1.288
215	-1.287
215	-1.287
216	-1.283
216	-1.282
217	-1.28
217	-1.277
218	-1.273
218	-1.269
219	-1.265
219	-1.263
220	-1.262
220	-1.26
221	-1.256
221	-1.254
221	-1.249
222	-1.245
222	-1.24
223	-1.235
223	-1.23
224	-1.224
224	-1.216
225	-1.207
225	-1.197
226	-1.188
226	-1.179
227	-1.166
227	-1.153
228	-1.136
228	-1.119
229	-1.098
229	-1.075
229	-1.049
230	-1.02
230	-0.988
231	-0.953
231	-0.913
232	-0.873
232	-0.83
233	-0.784
233	-0.737
234	-0.688
234	-0.639
235	-0.59
235	-0.541
236	-0.492
236	-0.444
236	-0.396
237	-0.351
237	-0.307
238	-0.265
238	-0.225
239	-0.186
239	-0.15
240	-0.116
240	-0.084
241	-0.054
241	-0.027
242	-0.001
242	0.024
243	0.046
243	0.067
243	0.086
244	0.104
244	0.121
245	0.137
245	0.151
246	0.164
246	0.177
247	0.188
247	0.199
248	0.209
248	0.218
249	0.227
249	0.235
250	0.243
250	0.25
250	0.256
251	0.263
251	0.268
252	0.274
252	0.28
253	0.284
253	0.289
254	0.293
254	0.297
255	0.301
255	0.305
256	0.308
256	0.311
257	0.314
257	0.316
258	0.319
258	0.321
258	0.323
259	0.325
259	0.326
260	0.327
260	0.328
261	0.329
261	0.33
262	0.331
262	0.331
263	0.332
263	0.332
264	0.333
264	0.333
265	0.334
265	0.334
265	0.334
266	0.334
266	0.334
267	0.335
267	0.335
268	0.334
268	0.334
269	0.333
269	0.332
270	0.331
270	0.331
271	0.33
271	0.329
272	0.328
272	0.327
272	0.326
273	0.325
273	0.324
274	0.323
274	0.322
275	0.322
275	0.321
276	0.32
276	0.318
277	0.317
277	0.315
278	0.313
278	0.312
278	0.31
279	0.309
279	0.308
280	0.307
280	0.306
281	0.305
281	0.305
282	0.304
282	0.304
283	0.304
283	0.303
284	0.303
284	0.303
285	0.302
285	0.301
285	0.3
286	0.299
286	0.298
287	0.297
287	0.297
288	0.296
288	0.295
289	0.295
289	0.294
290	0.293
290	0.292
291	0.292
291	0.291
292	0.29
292	0.29
292	0.289
293	0.288
293	0.287
294	0.287
294	0.286
295	0.285
295	0.285
296	0.284
296	0.283
297	0.283
297	0.283
298	0.282
298	0.281
298	0.281
299	0.281
299	0.28
300	0.279
300	0.278
301	0.278
301	0.277
302	0.277
302	0.276
303	0.276
303	0.275
304	0.274
304	0.274
305	0.273
305	0.273
305	0.272
306	0.271
306	0.271
307	0.27
307	0.269
308	0.268
308	0.268
309	0.267
309	0.266
310	0.265
310	0.265
311	0.264
311	0.263
311	0.263
312	0.262
312	0.261
313	0.26
313	0.259
314	0.259
314	0.258
315	0.257
315	0.256
316	0.255
316	0.254
317	0.254
317	0.253
318	0.252
318	0.251
318	0.251
319	0.25
319	0.249
320	0.248
320	0.247
321	0.246
321	0.245
322	0.244
322	0.243
323	0.242
323	0.242
324	0.241
324	0.24
324	0.239
325	0.238
325	0.238
326	0.237
326	0.237
327	0.236
327	0.235
328	0.234
328	0.233
329	0.232
329	0.231
330	0.231
330	0.23
330	0.229
331	0.228
331	0.227
332	0.226
332	0.225
333	0.225
333	0.224
334	0.223
334	0.222
335	0.222
335	0.221
336	0.22
336	0.219
336	0.218
337	0.218
337	0.217
338	0.216
338	0.215
339	0.215
339	0.214
340	0.213
340	0.213
341	0.212
341	0.211
342	0.211
342	0.21
342	0.209
343	0.209
343	0.208
344	0.207
344	0.207
345	0.206
345	0.205
346	0.205
346	0.204
347	0.203
347	0.203
348	0.202
348	0.201
348	0.201
349	0.2
349	0.199
350	0.198
350	0.197
351	0.196
351	0.195
352	0.194
352	0.193
353	0.192
353	0.191
354	0.19
354	0.189
354	0.188
355	0.186
355	0.185
356	0.184
356	0.183
357	0.183
357	0.182
358	0.182
358	0.183
359	0.183
359	0.184
360	0.185
360	0.186
360	0.186
361	0.187
361	0.188
362	0.188
362	0.188
363	0.188
363	0.188
364	0.188
364	0.187
365	0.187
365	0.186
366	0.186
366	0.186
366	0.185
367	0.185
367	0.185
368	0.184
368	0.184
369	0.184
369	0.183
370	0.183
370	0.183
371	0.182
371	0.181
372	0.181
372	0.181
372	0.18
373	0.18
373	0.18
374	0.18
374	0.18
375	0.18
375	0.18
376	0.18
376	0.18
377	0.18
377	0.18
378	0.181
378	0.181
378	0.181
379	0.181
379	0.181
380	0.182
380	0.182
381	0.182
381	0.181
382	0.181
382	0.181
383	0.18
383	0.18
383	0.179
384	0.179
384	0.179
385	0.178
385	0.179
386	0.179
386	0.179
387	0.179
387	0.179
388	0.178
388	0.178
389	0.178
389	0.178
389	0.178
390	0.178
390	0.178
391	0.178
391	0.179
392	0.179
392	0.179
393	0.179
393	0.179
394	0.179
394	0.179
394	0.179
395	0.178
395	0.178
396	0.178
396	0.178
397	0.178
397	0.178
398	0.178
398	0.178
399	0.178
399	0.178
400	0.178
400	0.178
400	0.177
401	0.177
401	0.175
402	0.174
402	0.173
403	0.173
403	0.173
404	0.173
404	0.173
405	0.172
405	0.172
405	0.172
406	0.172
406	0.171
407	0.171
407	0.171
408	0.171
408	0.17
409	0.17
409	0.169
410	0.169
410	0.169
411	0.169
411	0.169
411	0.169
412	0.169
412	0.168
413	0.168
413	0.167
414	0.167
414	0.167
415	0.166
415	0.166
416	0.166
416	0.165
416	0.165
417	0.164
417	0.164
418	0.164
418	0.164
419	0.165
419	0.166
420	0.167
420	0.167
421	0.168
421	0.169
421	0.169
422	0.17
422	0.17
423	0.17
423	0.17
424	0.169
424	0.168
425	0.167
425	0.166
426	0.166
426	0.165
427	0.165
427	0.165
427	0.165
428	0.166
428	0.167
429	0.168
429	0.169
430	0.169
430	0.169
431	0.169
431	0.168
432	0.168
432	0.167
432	0.166
433	0.165
433	0.163
434	0.162
434	0.162
435	0.162
435	0.162
436	0.162
436	0.162
437	0.162
437	0.163
437	0.163
438	0.162
438	0.162
439	0.162
439	0.162
440	0.161
440	0.162
441	0.162
441	0.162
442	0.163
442	0.163
442	0.164
443	0.164
443	0.165
444	0.165
444	0.166
445	0.166
445	0.166
446	0.167
446	0.167
447	0.166
447	0.166
447	0.166
448	0.165
448	0.165
449	0.165
449	0.164
450	0.164
450	0.164
451	0.163
451	0.163
452	0.162
452	0.162
452	0.161
453	0.161
453	0.16
454	0.159
454	0.158
455	0.158
455	0.157
456	0.157
456	0.157
457	0.157
457	0.156
458	0.156
458	0.156
458	0.157
459	0.157
459	0.158
460	0.157
460	0.157
461	0.156
461	0.156
462	0.155
462	0.155
463	0.156
463	0.156
463	0.157
464	0.157
464	0.157
465	0.157
465	0.157
466	0.157
466	0.157
467	0.157
467	0.157
467	0.156
468	0.154
468	0.152
469	0.15
469	0.148
470	0.148
470	0.147
471	0.147
471	0.147
472	0.147
472	0.147
472	0.147
473	0.149
473	0.15
474	0.151
474	0.152
475	0.153
475	0.154
476	0.154
476	0.155
477	0.155
477	0.155
477	0.155
478	0.156
478	0.156
479	0.156
479	0.157
480	0.157
480	0.158
481	0.159
481	0.16
482	0.16
482	0.161
482	0.163
483	0.165
483	0.167
484	0.171
484	0.174
485	0.176
485	0.178
486	0.179
486	0.18
487	0.181
487	0.182
487	0.182
488	0.182
488	0.18
489	0.178
489	0.176
490	0.174
490	0.173
491	0.172
491	0.172
492	0.173
492	0.173
492	0.173
493	0.174
493	0.174
494	0.176
494	0.178
495	0.18
495	0.182
496	0.183
496	0.184
496	0.185
497	0.186
497	0.186
498	0.187
498	0.187
499	0.187
499	0.187
500	0.188
500	0.189
501	0.191
501	0.192
501	0.193
502	0.195
502	0.196
503	0.198
503	0.199
504	0.2
504	0.201
505	0.201
505	0.201
506	0.201
506	0.202
506	0.202
507	0.202
507	0.202
508	0.202
508	0.202
509	0.203
509	0.203
510	0.204
510	0.204
511	0.204
511	0.204
511	0.204
512	0.203
512	0.203
513	0.202
513	0.201
514	0.201
514	0.2
515	0.2
515	0.199
515	0.198
516	0.196
516	0.196
517	0.196
517	0.196
518	0.197
518	0.197
519	0.196
519	0.195
520	0.194
520	0.192
520	0.19
521	0.188
521	0.186
522	0.183
522	0.179
523	0.176
523	0.174
524	0.172
524	0.172
524	0.172
525	0.173
525	0.175
526	0.178
526	0.181
527	0.185
527	0.189
528	0.192
528	0.195
529	0.198
529	0.2
529	0.201
530	0.202
530	0.203
531	0.205
531	0.205
532	0.205
532	0.205
533	0.206
533	0.206
533	0.206
534	0.206
534	0.206
535	0.205
535	0.205
536	0.205
536	0.205
537	0.204
537	0.204
538	0.203
538	0.202
538	0.201
539	0.2
539	0.199
540	0.199
540	0.198
541	0.196
541	0.195
542	0.193
542	0.191
542	0.19
543	0.189
543	0.188
544	0.187
544	0.186
545	0.185
545	0.184
546	0.184
546	0.183
547	0.183
547	0.181
547	0.178
548	0.176
548	0.173
549	0.171
549	0.169
550	0.168
550	0.166
551	0.164
551	0.162
551	0.16
552	0.159
552	0.159
553	0.158
553	0.158
554	0.158
554	0.158
555	0.156
555	0.153
556	0.15
556	0.148
556	0.145
557	0.142
557	0.139
558	0.138
558	0.136
559	0.134
559	0.133
560	0.133
560	0.133
560	0.133
561	0.134
561	0.134
562	0.134
562	0.133
563	0.132
563	0.13
564	0.127
564	0.124
564	0.122
565	0.119
565	0.118
566	0.117
566	0.116
567	0.116
567	0.117
568	0.119
568	0.121
568	0.123
569	0.126
569	0.129
570	0.131
570	0.132
571	0.133
571	0.134
572	0.135
572	0.136
573	0.136
573	0.136
573	0.136
574	0.135
574	0.134
575	0.134
575	0.135
576	0.136
576	0.136
577	0.135
577	0.134
577	0.133
578	0.132
578	0.132
579	0.133
579	0.135
580	0.135
580	0.134
581	0.132
581	0.13
581	0.128
582	0.128
582	0.128
583	0.128
583	0.128
584	0.126
584	0.122
585	0.119
585	0.117
585	0.117
586	0.116
586	0.116
587	0.115
587	0.113
588	0.11
588	0.108
589	0.106
589	0.104
590	0.103
590	0.102
590	0.103
591	0.104
591	0.104
592	0.104
592	0.103
593	0.103
593	0.102
594	0.102
594	0.101
594	0.1
595	0.1
595	0.099
596	0.097
596	0.097
597	0.099
597	0.101
598	0.103
598	0.105
598	0.106
599	0.107
599	0.107
600	0.107
600	0.106
601	0.105
601	0.104
602	0.102
602	0.101
602	0.099
603	0.098
603	0.098
604	0.098
604	0.099
605	0.1
605	0.102
606	0.103
606	0.103
606	0.102
607	0.102
607	0.101
608	0.101
608	0.099
609	0.098
609	0.097
610	0.096
610	0.094
610	0.093
611	0.093
611	0.093
612	0.094
612	0.095
613	0.096
613	0.098
614	0.098
614	0.097
614	0.097
615	0.097
615	0.096
616	0.096
616	0.095
617	0.094
617	0.093
618	0.092
618	0.091
618	0.09
619	0.09
619	0.091
620	0.092
620	0.094
621	0.095
621	0.095
622	0.096
622	0.097
622	0.097
623	0.097
623	0.098
624	0.099
624	0.099
625	0.098
625	0.098
626	0.098
626	0.098
626	0.098
627	0.098
627	0.098
628	0.098
628	0.099
629	0.099
629	0.099
630	0.099
630	0.099
630	0.1
631	0.1
631	0.101
632	0.101
632	0.102
633	0.102
633	0.103
634	0.104
634	0.106
634	0.108
635	0.11
635	0.112
636	0.113
636	0.114
637	0.116
637	0.117
638	0.118
638	0.119
638	0.121
639	0.121
639	0.121
640	0.122
640	0.123
641	0.125
641	0.126
642	0.128
642	0.129
642	0.131
643	0.132
643	0.133
644	0.135
644	0.136
645	0.138
645	0.14
646	0.142
646	0.145
646	0.149
647	0.153
647	0.157
648	0.16
648	0.164
649	0.167
649	0.17
650	0.173
650	0.176
650	0.179
651	0.181
651	0.183
652	0.185
652	0.187
653	0.189
653	0.197
653	0.202
654	0.166
654	0.138
655	0.144
655	0.146
656	0.148
656	0.15
657	0.151
657	0.153
657	0.154
658	0.151
658	0.145
659	0.179
659	0.225
660	0.225
660	0.226
661	0.228
661	0.229
661	0.232
662	0.235
662	0.238
663	0.242
663	0.245
664	0.248
664	0.25
665	0.253
665	0.255
665	0.258
666	0.261
666	0.264
667	0.266
667	0.269
668	0.272
668	0.275
669	0.278
669	0.281
669	0.285
670	0.289
670	0.293
671	0.295
671	0.297
672	0.298
672	0.299
672	0.3
673	0.301
673	0.302
674	0.302
674	0.302
675	0.302
675	0.302
676	0.304
676	0.306
676	0.308
677	0.31
677	0.313
678	0.316
678	0.318
679	0.319
679	0.32
680	0.322
680	0.324
680	0.325
681	0.325
681	0.326
682	0.327
682	0.328
683	0.33
683	0.332
684	0.335
684	0.337
684	0.338
685	0.339
685	0.341
686	0.343
686	0.344
687	0.344
687	0.344
687	0.343
688	0.343
688	0.341
689	0.342
689	0.342
690	0.343
690	0.343
691	0.343
691	0.343
691	0.344
692	0.344
692	0.344
693	0.344
693	0.345
694	0.344
694	0.343
695	0.343
695	0.345
695	0.345
696	0.345
696	0.344
697	0.343
697	0.342
698	0.34
698	0.338
698	0.336
699	0.334
699	0.332
700	0.328
700	0.325
701	0.324
701	0.323
702	0.321
702	0.32
702	0.319
703	0.317
703	0.316
704	0.314
704	0.314
705	0.313
705	0.313
705	0.311
706	0.31
706	0.309
707	0.307
707	0.305
708	0.303
708	0.302
709	0.301
709	0.299
709	0.296
710	0.292
710	0.289
711	0.287
711	0.284
712	0.282
712	0.281
713	0.279
713	0.277
713	0.275
714	0.271
714	0.269
715	0.266
715	0.263
716	0.26
716	0.258
716	0.255
717	0.253
717	0.25
718	0.248
718	0.245
719	0.244
719	0.243
720	0.242
720	0.24
720	0.238
721	0.235
721	0.233
722	0.23
722	0.227
723	0.224
723	0.222
723	0.219
724	0.216
724	0.213
725	0.21
725	0.207
726	0.205
726	0.203
727	0.201
727	0.199
727	0.198
728	0.196
728	0.195
729	0.194
729	0.193
730	0.192
730	0.19
730	0.189
731	0.188
731	0.186
732	0.185
732	0.183
733	0.181
733	0.179
734	0.177
734	0.175
734	0.173
735	0.171
735	0.169
736	0.167
736	0.164
737	0.162
737	0.16
737	0.159
738	0.156
738	0.152
739	0.149
739	0.147
740	0.144
740	0.142
741	0.14
741	0.138
741	0.134
742	0.129
742	0.126
743	0.123
743	0.12
744	0.118
744	0.116
744	0.114
745	0.111
745	0.109
746	0.107
746	0.106
747	0.105
747	0.105
748	0.104
748	0.104
748	0.104
749	0.103
749	0.102
750	0.102
750	0.101
751	0.101
751	0.101
751	0.1
752	0.1
752	0.098
753	0.097
753	0.096
754	0.095
754	0.094
754	0.094
755	0.093
755	0.093
756	0.093
756	0.091
757	0.089
757	0.088
758	0.087
758	0.085
758	0.084
759	0.082
759	0.08
760	0.077
760	0.073
761	0.07
761	0.068
761	0.067
762	0.065
762	0.064
763	0.063
763	0.061
764	0.058
764	0.056
764	0.054
765	0.052
765	0.05
766	0.049
766	0.048
767	0.047
767	0.044
768	0.041
768	0.039
768	0.037
769	0.037
769	0.036
770	0.035
770	0.033
771	0.031
771	0.028
771	0.024
772	0.021
772	0.019
773	0.016
773	0.013
774	0.009
774	0.005
775	0.002
775	-0.002
775	-0.006
776	-0.011
776	-0.016
777	-0.021
777	-0.026
778	-0.032
778	-0.038
778	-0.044
779	-0.048
779	-0.05
780	-0.053
780	-0.057
781	-0.06
781	-0.062
781	-0.064
782	-0.066
782	-0.069
783	-0.071
783	-0.071
784	-0.072
784	-0.075
784	-0.077
785	-0.078
785	-0.08
786	-0.081
786	-0.079
787	-0.075
787	-0.071
788	-0.07
788	-0.071
788	-0.072
789	-0.074
789	-0.073
790	-0.07
790	-0.069
791	-0.07
791	-0.071
791	-0.073
792	-0.068
792	-0.059
793	-0.053
793	-0.05
794	-0.048
794	-0.05
794	-0.053
795	-0.055
795	-0.055
796	-0.055
796	-0.057
797	-0.065
797	-0.074
797	-0.08
798	-0.085
798	-0.088
799	-0.089
799	-0.088
800	-0.088
800	-0.091
801	-0.094
801	-0.095
801	-0.096
802	-0.098
802	-0.099
803	-0.1
803	-0.101
804	-0.1
804	-0.095
804	-0.089
805	-0.085
805	-0.083
806	-0.081
806	-0.08
807	-0.079
807	-0.078
807	-0.077
808	-0.077
808	-0.077
809	-0.081
809	-0.086
810	-0.089
810	-0.091
810	-0.094
811	-0.096
811	-0.096
812	-0.092
812	-0.09
813	-0.09
813	-0.091
813	-0.092
814	-0.092
814	-0.092
815	-0.09
815	-0.087
816	-0.085
816	-0.086
817	-0.09
817	-0.093
817	-0.094
818	-0.093
818	-0.09
819	-0.085
819	-0.083
820	-0.084
820	-0.086
820	-0.087
821	-0.087
821	-0.085
822	-0.083
822	-0.08
823	-0.076
823	-0.075
823	-0.074
824	-0.071
824	-0.064
825	-0.056
825	-0.047
826	-0.038
826	-0.03
826	-0.023
827	-0.016
827	-0.009
828	-0.003
828	0.002
829	0.007
829	0.011
829	0.014
830	0.016
830	0.019
831	0.023
831	0.027
832	0.029
832	0.031
832	0.033
833	0.036
833	0.038
834	0.039
834	0.041
835	0.042
835	0.043
835	0.044
836	0.044
836	0.045
837	0.046
837	0.046
838	0.046
838	0.047
839	0.047
839	0.048
839	0.048
840	0.049
840	0.049
841	0.05
841	0.051
842	0.053
842	0.054
842	0.055
843	0.057
843	0.058
844	0.059
844	0.06
845	0.062
845	0.064
845	0.065
846	0.067
846	0.068
847	0.07
847	0.072
848	0.073
848	0.074
848	0.076
849	0.077
849	0.078
850	0.078
850	0.078
851	0.079
851	0.079
851	0.079
852	0.079
852	0.08
853	0.08
853	0.08
854	0.081
854	0.082
854	0.082
855	0.082
855	0.082
856	0.082
856	0.082
857	0.082
857	0.082
857	0.081
858	0.08
858	0.08
859	0.079
859	0.079
860	0.079
860	0.078
860	0.077
861	0.077
861	0.077
862	0.076
862	0.076
863	0.076
863	0.076
863	0.077
864	0.077
864	0.078
865	0.079
865	0.081
866	0.081
866	0.082
866	0.084
867	0.085
867	0.086
868	0.087
868	0.088
869	0.089
869	0.089
869	0.089
870	0.09
870	0.09
871	0.09
871	0.09
872	0.09
872	0.089
872	0.089
873	0.089
873	0.089
874	0.089
874	0.089
875	0.09
875	0.09
875	0.091
876	0.091
876	0.091
877	0.091
877	0.091
878	0.091
878	0.09
878	0.089
879	0.088
879	0.087
880	0.086
880	0.085
881	0.084
881	0.083
881	0.083
882	0.083
882	0.082
883	0.082
883	0.083
884	0.083
884	0.084
884	0.084
885	0.085
885	0.086
886	0.087
886	0.087
887	0.088
887	0.088
887	0.089
888	0.089
888	0.089
889	0.089
889	0.09
890	0.09
890	0.09
890	0.09
891	0.09
891	0.09
892	0.09
892	0.091
893	0.091
893	0.091
893	0.091
894	0.092
894	0.092
895	0.092
895	0.092
895	0.093
896	0.093
896	0.094
897	0.094
897	0.095
898	0.095
898	0.095
898	0.095
899	0.095
899	0.096
900	0.096
900	0.096
901	0.096
901	0.096
901	0.096
902	0.097
902	0.097
903	0.097
903	0.097
904	0.097
904	0.097
904	0.097
905	0.096
905	0.096
906	0.096
906	0.095
907	0.095
907	0.095
907	0.095
908	0.096
908	0.096
909	0.097
909	0.097
910	0.097
910	0.097
910	0.097
911	0.098
911	0.098
912	0.098
912	0.098
913	0.099
913	0.099
913	0.099
914	0.099
914	0.099
915	0.099
915	0.1
916	0.099
916	0.098
916	0.098
917	0.097
917	0.096
918	0.095
918	0.095
918	0.094
919	0.094
919	0.094
920	0.094
920	0.094
921	0.094
921	0.093
921	0.093
922	0.092
922	0.092
923	0.091
923	0.09
924	0.089
924	0.089
924	0.088
925	0.087
925	0.086
926	0.085
926	0.084
927	0.083
927	0.083
927	0.082
928	0.082
928	0.082
929	0.083
929	0.083
930	0.085
930	0.086
930	0.087
931	0.088
931	0.09
932	0.091
932	0.093
933	0.095
933	0.096
933	0.097
934	0.099
934	0.1
935	0.1
935	0.101
935	0.102
936	0.103
936	0.103
937	0.104
937	0.105
938	0.105
938	0.106
938	0.107
939	0.107
939	0.108
940	0.109
940	0.11
941	0.11
941	0.111
941	0.111
942	0.111
942	0.11
943	0.11
943	0.109
944	0.109
944	0.109
944	0.11
945	0.11
945	0.111
946	0.111
946	0.111
946	0.112
947	0.112
947	0.113
948	0.113
948	0.112
949	0.112
949	0.111
949	0.111
950	0.11
950	0.11
951	0.109
951	0.108
952	0.108
952	0.107
952	0.107
953	0.107
953	0.107
954	0.107
954	0.107
955	0.108
955	0.108
955	0.109
956	0.11
956	0.111
957	0.111
957	0.111
957	0.112
958	0.112
958	0.111
959	0.111
959	0.111
960	0.11
960	0.109
960	0.108
961	0.107
961	0.107
962	0.106
962	0.106
963	0.106
963	0.106
963	0.106
964	0.107
964	0.107
965	0.108
965	0.109
966	0.109
966	0.11
966	0.11
967	0.11
967	0.11
968	0.11
968	0.109
968	0.109
969	0.108
969	0.107
970	0.106
970	0.105
971	0.105
971	0.104
971	0.103
972	0.103
972	0.103
973	0.103
973	0.103
974	0.104
974	0.104
974	0.105
975	0.105
975	0.106
976	0.107
976	0.107
976	0.107
977	0.107
977	0.107
978	0.106
978	0.106
979	0.105
979	0.105
979	0.104
980	0.103
980	0.102
981	0.102
981	0.101
982	0.101
982	0.101
982	0.101
983	0.101
983	0.101
984	0.101
984	0.101
984	0.101
985	0.1
985	0.099
986	0.098
986	0.098
987	0.097
987	0.096
987	0.095
988	0.094
988	0.094
989	0.093
989	0.093
990	0.093
990	0.093
990	0.093
991	0.094
991	0.095
992	0.095
992	0.096
992	0.096
993	0.097
993	0.097
994	0.097
994	0.097
995	0.097
995	0.097
995	0.097
996	0.096
996	0.096
997	0.096
997	0.096
997	0.095
998	0.096
998	0.096
999	0.096
999	0.097
1000	0.097
1000	0.098
1000	0.098
1001	0.099
1001	0.099
1002	0.099
1002	0.1
1003	0.1
1003	0.1
1003	0.1
1004	0.1
1004	0.1
1005	0.1
1005	0.1
1005	0.099
1006	0.099
1006	0.099
1007	0.099
1007	0.098
1008	0.098
1008	0.098
1008	0.098
1009	0.098
1009	0.098
1010	0.098
1010	0.098
1010	0.098
1011	0.098
1011	0.098
1012	0.098
1012	0.099
1013	0.099
1013	0.099
1013	0.098
1014	0.098
1014	0.098
1015	0.097
1015	0.097
1016	0.097
1016	0.097
1016	0.097
1017	0.096
1017	0.095
1018	0.095
1018	0.095
1018	0.095
1019	0.094
1019	0.094
1020	0.093
1020	0.093
1021	0.093
1021	0.092
1021	0.092
1022	0.092
1022	0.092
1023	0.092
1023	0.092
1023	0.091
1024	0.091
1024	0.09
1025	0.089
1025	0.089
1026	0.088
1026	0.088
1026	0.087
1027	0.087
1027	0.086
1028	0.086
1028	0.086
1028	0.086
1029	0.086
1029	0.087
1030	0.087
1030	0.087
1031	0.088
1031	0.088
1031	0.089
1032	0.089
1032	0.09
1033	0.091
1033	0.091
1033	0.092
1034	0.092
1034	0.092
1035	0.092
1035	0.093
1036	0.093
1036	0.094
1036	0.095
1037	0.096
1037	0.097
1038	0.098
1038	0.099
1039	0.101
1039	0.102
1039	0.103
1040	0.104
1040	0.105
1041	0.106
1041	0.106
1041	0.106
1042	0.106
1042	0.106
1043	0.106
1043	0.106
1044	0.106
1044	0.105
1044	0.105
1045	0.104
1045	0.104
1046	0.103
1046	0.103
1046	0.103
1047	0.102
1047	0.102
1048	0.102
1048	0.102
1049	0.101
1049	0.101
1049	0.1
1050	0.1
1050	0.1
1051	0.101
1051	0.101
1051	0.102
1052	0.103
1052	0.103
1053	0.104
1053	0.104
1053	0.105
1054	0.106
1054	0.107
1055	0.108
1055	0.109
1056	0.109
1056	0.109
1056	0.109
1057	0.11
1057	0.111
1058	0.112
1058	0.113
1058	0.115
1059	0.117
1059	0.118
1060	0.12
1060	0.122
1061	0.124
1061	0.126
1061	0.128
1062	0.129
1062	0.13
1063	0.131
1063	0.132
1063	0.132
1064	0.134
1064	0.135
1065	0.137
1065	0.138
1066	0.139
1066	0.141
1066	0.143
1067	0.145
1067	0.147
1068	0.149
1068	0.151
1068	0.152
1069	0.154
1069	0.155
1070	0.157
1070	0.159
1071	0.16
1071	0.162
1071	0.163
1072	0.166
1072	0.168
1073	0.171
1073	0.174
1073	0.176
1074	0.178
1074	0.181
1075	0.182
1075	0.184
1076	0.186
1076	0.189
1076	0.191
1077	0.194
1077	0.197
1078	0.199
1078	0.202
1078	0.206
1079	0.21
1079	0.214
1080	0.218
1080	0.221
1080	0.224
1081	0.228
1081	0.231
1082	0.235
1082	0.239
1083	0.244
1083	0.248
1083	0.254
1084	0.26
1084	0.266
1085	0.272
1085	0.28
1085	0.287
1086	0.295
1086	0.3
1087	0.307
1087	0.315
1088	0.323
1088	0.331
1088	0.341
1089	0.35
1089	0.362
1090	0.374
1090	0.388
1090	0.401
1091	0.417
1091	0.437
1092	0.457
1092	0.478
1092	0.5
1093	0.523
1093	0.552
1094	0.581
1094	0.614
1095	0.651
1095	0.699
1095	0.759
1096	0.823
1096	0.903
1097	1.021
1097	1.165
1097	1.423
1098	2.122
1098	-0
1099	-0
1099	-0
1100	-0
1100	-0
1100	-0
1101	-0
1101	-0
1102	-0
1102	-0
1102	-0
1103	-0
1103	-0
1104	-0
1104	-0
1104	-0
1105	-0
1105	-0
1106	-0
1106	-0
1107	-0
1107	-0
1107	-0
1108	-0
1108	-0
1109	-0
1109	-0
1109	-0
1110	-0
1110	-0
1111	-0
1111	-0
