Data from 15c-2-5a_Absorbance__191__01098.txt Node

Date: Tue Jan 16 11:33:36 CET 2024
User: Marek
Spectrometer: MAYP115816
Trigger mode: 0
Integration Time (sec): 2.000000E-1
Scans to average: 10
Electric dark correction enabled: true
Nonlinearity correction enabled: true
Boxcar width: 5
XAxis mode: Wavelengths
Number of Pixels in Spectrum: 2068
>>>>>Begin Spectral Data<<<<<
199	-2.221
199	-2.031
200	-1.896
200	-1.776
201	-1.701
201	-1.649
202	-1.572
202	-1.509
203	-1.46
203	-1.41
204	-1.383
204	-1.358
205	-1.339
205	-1.326
205	-1.323
206	-1.318
206	-1.315
207	-1.312
207	-1.311
208	-1.307
208	-1.306
209	-1.302
209	-1.3
210	-1.298
210	-1.296
211	-1.294
211	-1.294
212	-1.293
212	-1.292
213	-1.29
213	-1.289
213	-1.289
214	-1.287
214	-1.286
215	-1.286
215	-1.286
216	-1.282
216	-1.281
217	-1.278
217	-1.276
218	-1.272
218	-1.268
219	-1.263
219	-1.262
220	-1.259
220	-1.257
221	-1.253
221	-1.252
221	-1.247
222	-1.242
222	-1.237
223	-1.232
223	-1.227
224	-1.222
224	-1.213
225	-1.204
225	-1.194
226	-1.186
226	-1.176
227	-1.162
227	-1.149
228	-1.133
228	-1.117
229	-1.096
229	-1.072
229	-1.047
230	-1.017
230	-0.985
231	-0.949
231	-0.91
232	-0.87
232	-0.827
233	-0.781
233	-0.733
234	-0.685
234	-0.636
235	-0.586
235	-0.537
236	-0.488
236	-0.44
236	-0.393
237	-0.347
237	-0.303
238	-0.261
238	-0.22
239	-0.182
239	-0.146
240	-0.111
240	-0.079
241	-0.049
241	-0.021
242	0.005
242	0.03
243	0.053
243	0.074
243	0.093
244	0.112
244	0.129
245	0.144
245	0.158
246	0.172
246	0.185
247	0.196
247	0.207
248	0.218
248	0.227
249	0.236
249	0.244
250	0.252
250	0.259
250	0.266
251	0.273
251	0.279
252	0.284
252	0.289
253	0.294
253	0.299
254	0.304
254	0.308
255	0.311
255	0.315
256	0.318
256	0.321
257	0.324
257	0.327
258	0.329
258	0.331
258	0.334
259	0.335
259	0.337
260	0.338
260	0.339
261	0.34
261	0.341
262	0.342
262	0.343
263	0.344
263	0.344
264	0.345
264	0.345
265	0.346
265	0.346
265	0.346
266	0.346
266	0.346
267	0.346
267	0.346
268	0.346
268	0.345
269	0.345
269	0.344
270	0.343
270	0.342
271	0.342
271	0.341
272	0.34
272	0.339
272	0.339
273	0.338
273	0.337
274	0.336
274	0.335
275	0.334
275	0.333
276	0.332
276	0.33
277	0.329
277	0.327
278	0.325
278	0.324
278	0.322
279	0.32
279	0.319
280	0.319
280	0.318
281	0.317
281	0.316
282	0.316
282	0.316
283	0.316
283	0.315
284	0.315
284	0.315
285	0.314
285	0.313
285	0.312
286	0.311
286	0.31
287	0.309
287	0.308
288	0.307
288	0.307
289	0.306
289	0.305
290	0.305
290	0.304
291	0.303
291	0.302
292	0.302
292	0.301
292	0.3
293	0.299
293	0.299
294	0.298
294	0.297
295	0.297
295	0.296
296	0.295
296	0.295
297	0.294
297	0.294
298	0.293
298	0.292
298	0.292
299	0.291
299	0.291
300	0.29
300	0.289
301	0.289
301	0.288
302	0.287
302	0.287
303	0.286
303	0.286
304	0.285
304	0.284
305	0.284
305	0.283
305	0.282
306	0.282
306	0.281
307	0.281
307	0.28
308	0.279
308	0.278
309	0.277
309	0.277
310	0.276
310	0.275
311	0.275
311	0.274
311	0.273
312	0.272
312	0.271
313	0.271
313	0.27
314	0.269
314	0.268
315	0.267
315	0.266
316	0.265
316	0.264
317	0.264
317	0.263
318	0.262
318	0.261
318	0.26
319	0.259
319	0.259
320	0.258
320	0.257
321	0.256
321	0.255
322	0.254
322	0.253
323	0.252
323	0.251
324	0.251
324	0.25
324	0.249
325	0.248
325	0.248
326	0.247
326	0.246
327	0.245
327	0.244
328	0.243
328	0.243
329	0.242
329	0.241
330	0.24
330	0.24
330	0.239
331	0.238
331	0.237
332	0.236
332	0.235
333	0.234
333	0.234
334	0.233
334	0.232
335	0.231
335	0.23
336	0.229
336	0.229
336	0.228
337	0.227
337	0.226
338	0.226
338	0.225
339	0.224
339	0.224
340	0.223
340	0.222
341	0.222
341	0.221
342	0.22
342	0.22
342	0.219
343	0.218
343	0.218
344	0.217
344	0.216
345	0.216
345	0.215
346	0.214
346	0.214
347	0.213
347	0.212
348	0.211
348	0.211
348	0.21
349	0.209
349	0.208
350	0.207
350	0.207
351	0.206
351	0.205
352	0.204
352	0.203
353	0.202
353	0.201
354	0.199
354	0.198
354	0.197
355	0.195
355	0.194
356	0.193
356	0.192
357	0.191
357	0.191
358	0.191
358	0.191
359	0.192
359	0.193
360	0.194
360	0.194
360	0.195
361	0.196
361	0.197
362	0.197
362	0.197
363	0.198
363	0.197
364	0.197
364	0.196
365	0.196
365	0.196
366	0.195
366	0.195
366	0.195
367	0.195
367	0.194
368	0.194
368	0.193
369	0.193
369	0.192
370	0.192
370	0.192
371	0.191
371	0.19
372	0.19
372	0.189
372	0.189
373	0.189
373	0.189
374	0.189
374	0.188
375	0.188
375	0.188
376	0.188
376	0.188
377	0.189
377	0.189
378	0.19
378	0.19
378	0.19
379	0.19
379	0.191
380	0.191
380	0.191
381	0.191
381	0.191
382	0.19
382	0.19
383	0.189
383	0.189
383	0.188
384	0.188
384	0.187
385	0.187
385	0.188
386	0.188
386	0.188
387	0.188
387	0.188
388	0.187
388	0.187
389	0.187
389	0.187
389	0.187
390	0.187
390	0.187
391	0.187
391	0.187
392	0.187
392	0.187
393	0.187
393	0.188
394	0.188
394	0.188
394	0.188
395	0.187
395	0.187
396	0.187
396	0.187
397	0.187
397	0.188
398	0.188
398	0.188
399	0.188
399	0.188
400	0.187
400	0.187
400	0.187
401	0.186
401	0.184
402	0.183
402	0.182
403	0.182
403	0.182
404	0.182
404	0.181
405	0.181
405	0.18
405	0.18
406	0.18
406	0.18
407	0.18
407	0.18
408	0.18
408	0.179
409	0.179
409	0.178
410	0.178
410	0.178
411	0.178
411	0.178
411	0.178
412	0.177
412	0.177
413	0.177
413	0.176
414	0.176
414	0.175
415	0.175
415	0.175
416	0.174
416	0.174
416	0.173
417	0.173
417	0.173
418	0.173
418	0.173
419	0.174
419	0.175
420	0.175
420	0.177
421	0.177
421	0.178
421	0.178
422	0.178
422	0.179
423	0.179
423	0.178
424	0.178
424	0.177
425	0.176
425	0.175
426	0.174
426	0.174
427	0.173
427	0.173
427	0.174
428	0.175
428	0.176
429	0.176
429	0.177
430	0.178
430	0.177
431	0.177
431	0.177
432	0.176
432	0.176
432	0.175
433	0.173
433	0.172
434	0.171
434	0.171
435	0.171
435	0.171
436	0.171
436	0.171
437	0.171
437	0.171
437	0.171
438	0.171
438	0.171
439	0.171
439	0.17
440	0.17
440	0.17
441	0.17
441	0.17
442	0.171
442	0.171
442	0.172
443	0.173
443	0.173
444	0.174
444	0.174
445	0.175
445	0.175
446	0.176
446	0.175
447	0.175
447	0.175
447	0.175
448	0.174
448	0.174
449	0.174
449	0.173
450	0.173
450	0.173
451	0.172
451	0.171
452	0.171
452	0.17
452	0.17
453	0.169
453	0.168
454	0.168
454	0.167
455	0.167
455	0.166
456	0.166
456	0.166
457	0.165
457	0.165
458	0.165
458	0.165
458	0.165
459	0.166
459	0.166
460	0.166
460	0.165
461	0.164
461	0.164
462	0.164
462	0.164
463	0.164
463	0.164
463	0.165
464	0.165
464	0.165
465	0.165
465	0.166
466	0.166
466	0.166
467	0.166
467	0.165
467	0.164
468	0.162
468	0.161
469	0.159
469	0.157
470	0.156
470	0.156
471	0.156
471	0.156
472	0.156
472	0.156
472	0.157
473	0.158
473	0.159
474	0.16
474	0.161
475	0.162
475	0.163
476	0.163
476	0.164
477	0.164
477	0.164
477	0.164
478	0.165
478	0.165
479	0.165
479	0.166
480	0.167
480	0.168
481	0.168
481	0.169
482	0.17
482	0.171
482	0.172
483	0.174
483	0.177
484	0.181
484	0.184
485	0.186
485	0.188
486	0.189
486	0.19
487	0.191
487	0.192
487	0.192
488	0.191
488	0.19
489	0.187
489	0.185
490	0.184
490	0.182
491	0.182
491	0.182
492	0.182
492	0.182
492	0.182
493	0.183
493	0.184
494	0.185
494	0.188
495	0.19
495	0.191
496	0.192
496	0.193
496	0.194
497	0.195
497	0.196
498	0.196
498	0.196
499	0.197
499	0.196
500	0.197
500	0.198
501	0.2
501	0.201
501	0.203
502	0.205
502	0.206
503	0.207
503	0.209
504	0.21
504	0.21
505	0.211
505	0.211
506	0.211
506	0.211
506	0.211
507	0.211
507	0.211
508	0.212
508	0.211
509	0.212
509	0.212
510	0.213
510	0.213
511	0.213
511	0.213
511	0.213
512	0.212
512	0.212
513	0.211
513	0.211
514	0.21
514	0.21
515	0.209
515	0.208
515	0.207
516	0.205
516	0.205
517	0.205
517	0.205
518	0.206
518	0.206
519	0.205
519	0.204
520	0.202
520	0.2
520	0.198
521	0.196
521	0.194
522	0.19
522	0.187
523	0.184
523	0.182
524	0.18
524	0.18
524	0.181
525	0.182
525	0.185
526	0.188
526	0.191
527	0.195
527	0.199
528	0.202
528	0.205
529	0.208
529	0.21
529	0.211
530	0.212
530	0.213
531	0.214
531	0.214
532	0.214
532	0.214
533	0.214
533	0.215
533	0.215
534	0.215
534	0.215
535	0.214
535	0.214
536	0.214
536	0.214
537	0.213
537	0.213
538	0.213
538	0.212
538	0.21
539	0.209
539	0.209
540	0.208
540	0.207
541	0.205
541	0.204
542	0.202
542	0.2
542	0.199
543	0.198
543	0.197
544	0.196
544	0.194
545	0.193
545	0.193
546	0.193
546	0.192
547	0.191
547	0.189
547	0.187
548	0.184
548	0.182
549	0.18
549	0.178
550	0.176
550	0.174
551	0.172
551	0.169
551	0.168
552	0.167
552	0.166
553	0.166
553	0.166
554	0.166
554	0.165
555	0.163
555	0.16
556	0.158
556	0.155
556	0.152
557	0.149
557	0.147
558	0.145
558	0.143
559	0.141
559	0.141
560	0.141
560	0.141
560	0.141
561	0.141
561	0.141
562	0.141
562	0.141
563	0.139
563	0.137
564	0.134
564	0.131
564	0.128
565	0.126
565	0.125
566	0.124
566	0.123
567	0.123
567	0.124
568	0.126
568	0.128
568	0.13
569	0.133
569	0.136
570	0.138
570	0.139
571	0.14
571	0.141
572	0.142
572	0.143
573	0.143
573	0.143
573	0.143
574	0.142
574	0.141
575	0.141
575	0.142
576	0.143
576	0.143
577	0.142
577	0.141
577	0.14
578	0.139
578	0.139
579	0.14
579	0.142
580	0.142
580	0.141
581	0.139
581	0.136
581	0.135
582	0.134
582	0.134
583	0.135
583	0.134
584	0.132
584	0.128
585	0.126
585	0.124
585	0.123
586	0.123
586	0.123
587	0.121
587	0.119
588	0.117
588	0.114
589	0.112
589	0.111
590	0.109
590	0.108
590	0.109
591	0.11
591	0.11
592	0.11
592	0.109
593	0.109
593	0.109
594	0.108
594	0.108
594	0.107
595	0.106
595	0.105
596	0.103
596	0.103
597	0.105
597	0.107
598	0.109
598	0.111
598	0.112
599	0.113
599	0.113
600	0.113
600	0.112
601	0.111
601	0.11
602	0.108
602	0.106
602	0.105
603	0.103
603	0.103
604	0.104
604	0.104
605	0.106
605	0.108
606	0.109
606	0.108
606	0.108
607	0.107
607	0.107
608	0.106
608	0.105
609	0.104
609	0.103
610	0.101
610	0.099
610	0.098
611	0.098
611	0.098
612	0.098
612	0.099
613	0.101
613	0.102
614	0.103
614	0.102
614	0.102
615	0.102
615	0.101
616	0.101
616	0.1
617	0.1
617	0.099
618	0.097
618	0.097
618	0.096
619	0.096
619	0.096
620	0.098
620	0.099
621	0.1
621	0.101
622	0.101
622	0.102
622	0.102
623	0.102
623	0.103
624	0.104
624	0.104
625	0.104
625	0.104
626	0.103
626	0.103
626	0.103
627	0.104
627	0.104
628	0.104
628	0.105
629	0.105
629	0.105
630	0.105
630	0.105
630	0.105
631	0.106
631	0.106
632	0.107
632	0.107
633	0.107
633	0.108
634	0.109
634	0.111
634	0.114
635	0.115
635	0.117
636	0.118
636	0.12
637	0.121
637	0.122
638	0.124
638	0.125
638	0.127
639	0.127
639	0.127
640	0.128
640	0.13
641	0.131
641	0.132
642	0.134
642	0.136
642	0.137
643	0.139
643	0.14
644	0.141
644	0.143
645	0.145
645	0.147
646	0.149
646	0.153
646	0.156
647	0.16
647	0.164
648	0.168
648	0.171
649	0.174
649	0.177
650	0.181
650	0.184
650	0.187
651	0.189
651	0.191
652	0.193
652	0.194
653	0.197
653	0.205
653	0.21
654	0.172
654	0.143
655	0.149
655	0.152
656	0.153
656	0.155
657	0.157
657	0.158
657	0.159
658	0.156
658	0.15
659	0.185
659	0.233
660	0.233
660	0.235
661	0.236
661	0.238
661	0.24
662	0.243
662	0.247
663	0.25
663	0.253
664	0.256
664	0.258
665	0.261
665	0.263
665	0.266
666	0.269
666	0.271
667	0.274
667	0.277
668	0.28
668	0.282
669	0.286
669	0.289
669	0.293
670	0.298
670	0.301
671	0.304
671	0.306
672	0.307
672	0.308
672	0.309
673	0.31
673	0.31
674	0.311
674	0.311
675	0.311
675	0.311
676	0.312
676	0.314
676	0.316
677	0.318
677	0.321
678	0.324
678	0.326
679	0.327
679	0.329
680	0.33
680	0.332
680	0.332
681	0.332
681	0.333
682	0.334
682	0.335
683	0.337
683	0.339
684	0.342
684	0.344
684	0.345
685	0.347
685	0.349
686	0.35
686	0.352
687	0.352
687	0.352
687	0.351
688	0.35
688	0.349
689	0.349
689	0.35
690	0.35
690	0.35
691	0.35
691	0.35
691	0.351
692	0.351
692	0.35
693	0.351
693	0.351
694	0.351
694	0.349
695	0.349
695	0.351
695	0.352
696	0.351
696	0.35
697	0.349
697	0.348
698	0.346
698	0.344
698	0.342
699	0.34
699	0.338
700	0.334
700	0.331
701	0.33
701	0.328
702	0.327
702	0.326
702	0.324
703	0.323
703	0.322
704	0.32
704	0.32
705	0.319
705	0.318
705	0.317
706	0.316
706	0.315
707	0.313
707	0.311
708	0.309
708	0.307
709	0.306
709	0.304
709	0.301
710	0.298
710	0.295
711	0.292
711	0.29
712	0.288
712	0.287
713	0.285
713	0.283
713	0.28
714	0.277
714	0.275
715	0.272
715	0.269
716	0.266
716	0.263
716	0.261
717	0.258
717	0.256
718	0.253
718	0.251
719	0.249
719	0.248
720	0.247
720	0.245
720	0.243
721	0.24
721	0.238
722	0.235
722	0.232
723	0.229
723	0.226
723	0.224
724	0.221
724	0.217
725	0.214
725	0.211
726	0.209
726	0.207
727	0.205
727	0.203
727	0.201
728	0.199
728	0.198
729	0.197
729	0.196
730	0.195
730	0.194
730	0.193
731	0.192
731	0.191
732	0.19
732	0.188
733	0.186
733	0.184
734	0.182
734	0.18
734	0.178
735	0.177
735	0.174
736	0.172
736	0.169
737	0.167
737	0.165
737	0.164
738	0.161
738	0.158
739	0.155
739	0.152
740	0.15
740	0.147
741	0.146
741	0.143
741	0.139
742	0.135
742	0.13
743	0.127
743	0.124
744	0.122
744	0.12
744	0.117
745	0.115
745	0.112
746	0.11
746	0.109
747	0.108
747	0.107
748	0.107
748	0.107
748	0.107
749	0.106
749	0.106
750	0.105
750	0.105
751	0.104
751	0.104
751	0.104
752	0.103
752	0.102
753	0.101
753	0.1
754	0.099
754	0.098
754	0.098
755	0.098
755	0.098
756	0.097
756	0.095
757	0.094
757	0.093
758	0.092
758	0.09
758	0.089
759	0.087
759	0.085
760	0.082
760	0.078
761	0.075
761	0.074
761	0.072
762	0.07
762	0.069
763	0.068
763	0.066
764	0.063
764	0.06
764	0.058
765	0.056
765	0.054
766	0.052
766	0.052
767	0.051
767	0.049
768	0.045
768	0.043
768	0.042
769	0.041
769	0.04
770	0.039
770	0.038
771	0.035
771	0.032
771	0.029
772	0.026
772	0.023
773	0.02
773	0.017
774	0.014
774	0.01
775	0.006
775	0.003
775	-0.002
776	-0.006
776	-0.011
777	-0.016
777	-0.021
778	-0.027
778	-0.033
778	-0.039
779	-0.044
779	-0.046
780	-0.049
780	-0.054
781	-0.057
781	-0.06
781	-0.063
782	-0.065
782	-0.068
783	-0.07
783	-0.071
784	-0.072
784	-0.075
784	-0.077
785	-0.078
785	-0.08
786	-0.081
786	-0.079
787	-0.075
787	-0.071
788	-0.07
788	-0.071
788	-0.072
789	-0.074
789	-0.073
790	-0.07
790	-0.069
791	-0.07
791	-0.071
791	-0.074
792	-0.068
792	-0.059
793	-0.053
793	-0.05
794	-0.048
794	-0.05
794	-0.053
795	-0.055
795	-0.055
796	-0.055
796	-0.057
797	-0.065
797	-0.074
797	-0.08
798	-0.085
798	-0.088
799	-0.089
799	-0.088
800	-0.088
800	-0.091
801	-0.094
801	-0.095
801	-0.096
802	-0.098
802	-0.099
803	-0.1
803	-0.101
804	-0.1
804	-0.095
804	-0.089
805	-0.085
805	-0.083
806	-0.081
806	-0.08
807	-0.079
807	-0.078
807	-0.077
808	-0.077
808	-0.077
809	-0.081
809	-0.086
810	-0.089
810	-0.091
810	-0.094
811	-0.096
811	-0.096
812	-0.093
812	-0.09
813	-0.09
813	-0.091
813	-0.092
814	-0.092
814	-0.092
815	-0.09
815	-0.087
816	-0.085
816	-0.086
817	-0.09
817	-0.093
817	-0.094
818	-0.093
818	-0.09
819	-0.085
819	-0.083
820	-0.084
820	-0.086
820	-0.087
821	-0.087
821	-0.085
822	-0.083
822	-0.08
823	-0.076
823	-0.075
823	-0.074
824	-0.071
824	-0.064
825	-0.055
825	-0.046
826	-0.037
826	-0.029
826	-0.021
827	-0.014
827	-0.008
828	-0.002
828	0.003
829	0.008
829	0.012
829	0.015
830	0.018
830	0.021
831	0.024
831	0.028
832	0.03
832	0.033
832	0.035
833	0.038
833	0.04
834	0.042
834	0.043
835	0.045
835	0.046
835	0.047
836	0.048
836	0.049
837	0.049
837	0.05
838	0.05
838	0.05
839	0.05
839	0.051
839	0.051
840	0.052
840	0.053
841	0.054
841	0.055
842	0.056
842	0.058
842	0.059
843	0.061
843	0.062
844	0.063
844	0.065
845	0.066
845	0.068
845	0.069
846	0.07
846	0.072
847	0.073
847	0.075
848	0.076
848	0.077
848	0.078
849	0.08
849	0.08
850	0.081
850	0.081
851	0.082
851	0.082
851	0.083
852	0.083
852	0.084
853	0.084
853	0.084
854	0.085
854	0.085
854	0.086
855	0.086
855	0.086
856	0.086
856	0.086
857	0.085
857	0.084
857	0.084
858	0.083
858	0.082
859	0.081
859	0.081
860	0.08
860	0.08
860	0.079
861	0.079
861	0.079
862	0.078
862	0.079
863	0.079
863	0.079
863	0.08
864	0.08
864	0.081
865	0.082
865	0.084
866	0.084
866	0.085
866	0.087
867	0.088
867	0.089
868	0.09
868	0.091
869	0.091
869	0.092
869	0.092
870	0.091
870	0.092
871	0.092
871	0.092
872	0.091
872	0.091
872	0.091
873	0.091
873	0.091
874	0.091
874	0.092
875	0.092
875	0.093
875	0.094
876	0.094
876	0.094
877	0.095
877	0.094
878	0.094
878	0.093
878	0.092
879	0.091
879	0.09
880	0.089
880	0.087
881	0.086
881	0.086
881	0.085
882	0.085
882	0.085
883	0.085
883	0.086
884	0.087
884	0.088
884	0.088
885	0.089
885	0.09
886	0.091
886	0.092
887	0.092
887	0.093
887	0.093
888	0.093
888	0.093
889	0.094
889	0.094
890	0.094
890	0.094
890	0.094
891	0.094
891	0.095
892	0.095
892	0.095
893	0.095
893	0.096
893	0.096
894	0.097
894	0.097
895	0.097
895	0.097
895	0.098
896	0.098
896	0.098
897	0.099
897	0.099
898	0.099
898	0.099
898	0.099
899	0.099
899	0.1
900	0.1
900	0.1
901	0.1
901	0.1
901	0.1
902	0.101
902	0.101
903	0.101
903	0.101
904	0.101
904	0.101
904	0.101
905	0.101
905	0.101
906	0.1
906	0.1
907	0.1
907	0.099
907	0.1
908	0.1
908	0.1
909	0.101
909	0.101
910	0.101
910	0.101
910	0.101
911	0.101
911	0.102
912	0.102
912	0.102
913	0.103
913	0.103
913	0.103
914	0.103
914	0.103
915	0.103
915	0.103
916	0.103
916	0.102
916	0.102
917	0.101
917	0.1
918	0.099
918	0.098
918	0.098
919	0.097
919	0.097
920	0.096
920	0.096
921	0.096
921	0.096
921	0.096
922	0.095
922	0.095
923	0.094
923	0.094
924	0.094
924	0.093
924	0.092
925	0.092
925	0.091
926	0.09
926	0.089
927	0.089
927	0.088
927	0.088
928	0.088
928	0.088
929	0.088
929	0.089
930	0.09
930	0.091
930	0.092
931	0.093
931	0.095
932	0.096
932	0.098
933	0.099
933	0.101
933	0.102
934	0.103
934	0.104
935	0.105
935	0.105
935	0.106
936	0.106
936	0.107
937	0.108
937	0.108
938	0.109
938	0.11
938	0.111
939	0.111
939	0.112
940	0.113
940	0.114
941	0.115
941	0.115
941	0.115
942	0.115
942	0.115
943	0.114
943	0.114
944	0.113
944	0.113
944	0.113
945	0.113
945	0.114
946	0.114
946	0.114
946	0.114
947	0.115
947	0.115
948	0.115
948	0.115
949	0.115
949	0.115
949	0.114
950	0.114
950	0.114
951	0.113
951	0.113
952	0.112
952	0.112
952	0.112
953	0.112
953	0.112
954	0.112
954	0.112
955	0.112
955	0.113
955	0.114
956	0.115
956	0.115
957	0.116
957	0.116
957	0.116
958	0.116
958	0.116
959	0.116
959	0.115
960	0.115
960	0.114
960	0.113
961	0.112
961	0.112
962	0.111
962	0.112
963	0.112
963	0.112
963	0.112
964	0.112
964	0.113
965	0.114
965	0.114
966	0.115
966	0.115
966	0.115
967	0.115
967	0.115
968	0.114
968	0.113
968	0.113
969	0.111
969	0.11
970	0.109
970	0.108
971	0.107
971	0.107
971	0.106
972	0.106
972	0.106
973	0.106
973	0.106
974	0.106
974	0.107
974	0.107
975	0.108
975	0.109
976	0.109
976	0.109
976	0.11
977	0.11
977	0.109
978	0.109
978	0.108
979	0.108
979	0.108
979	0.108
980	0.107
980	0.106
981	0.106
981	0.105
982	0.105
982	0.105
982	0.105
983	0.105
983	0.105
984	0.105
984	0.104
984	0.104
985	0.104
985	0.103
986	0.102
986	0.101
987	0.1
987	0.099
987	0.099
988	0.098
988	0.097
989	0.097
989	0.097
990	0.096
990	0.096
990	0.097
991	0.098
991	0.098
992	0.099
992	0.1
992	0.101
993	0.101
993	0.102
994	0.102
994	0.102
995	0.102
995	0.102
995	0.102
996	0.101
996	0.101
997	0.1
997	0.1
997	0.1
998	0.101
998	0.101
999	0.101
999	0.102
1000	0.102
1000	0.102
1000	0.103
1001	0.103
1001	0.104
1002	0.104
1002	0.105
1003	0.105
1003	0.105
1003	0.105
1004	0.106
1004	0.105
1005	0.105
1005	0.105
1005	0.105
1006	0.105
1006	0.104
1007	0.104
1007	0.103
1008	0.103
1008	0.102
1008	0.102
1009	0.102
1009	0.102
1010	0.102
1010	0.102
1010	0.103
1011	0.103
1011	0.103
1012	0.103
1012	0.103
1013	0.103
1013	0.103
1013	0.103
1014	0.102
1014	0.101
1015	0.101
1015	0.101
1016	0.1
1016	0.1
1016	0.1
1017	0.099
1017	0.099
1018	0.099
1018	0.098
1018	0.098
1019	0.098
1019	0.098
1020	0.098
1020	0.098
1021	0.098
1021	0.097
1021	0.097
1022	0.097
1022	0.097
1023	0.097
1023	0.097
1023	0.096
1024	0.096
1024	0.095
1025	0.094
1025	0.094
1026	0.093
1026	0.092
1026	0.092
1027	0.092
1027	0.091
1028	0.091
1028	0.091
1028	0.091
1029	0.091
1029	0.091
1030	0.092
1030	0.092
1031	0.092
1031	0.093
1031	0.093
1032	0.094
1032	0.094
1033	0.095
1033	0.096
1033	0.096
1034	0.096
1034	0.097
1035	0.097
1035	0.097
1036	0.098
1036	0.099
1036	0.1
1037	0.1
1037	0.101
1038	0.102
1038	0.103
1039	0.104
1039	0.106
1039	0.107
1040	0.108
1040	0.109
1041	0.109
1041	0.109
1041	0.109
1042	0.109
1042	0.109
1043	0.109
1043	0.109
1044	0.108
1044	0.108
1044	0.107
1045	0.107
1045	0.106
1046	0.106
1046	0.106
1046	0.106
1047	0.105
1047	0.105
1048	0.105
1048	0.105
1049	0.105
1049	0.104
1049	0.104
1050	0.104
1050	0.104
1051	0.104
1051	0.105
1051	0.105
1052	0.106
1052	0.106
1053	0.106
1053	0.107
1053	0.108
1054	0.108
1054	0.109
1055	0.11
1055	0.11
1056	0.111
1056	0.111
1056	0.111
1057	0.112
1057	0.113
1058	0.115
1058	0.116
1058	0.118
1059	0.12
1059	0.121
1060	0.123
1060	0.125
1061	0.127
1061	0.129
1061	0.13
1062	0.131
1062	0.132
1063	0.133
1063	0.134
1063	0.135
1064	0.136
1064	0.138
1065	0.139
1065	0.14
1066	0.141
1066	0.143
1066	0.145
1067	0.147
1067	0.148
1068	0.15
1068	0.152
1068	0.153
1069	0.155
1069	0.156
1070	0.157
1070	0.159
1071	0.161
1071	0.163
1071	0.164
1072	0.167
1072	0.17
1073	0.173
1073	0.175
1073	0.178
1074	0.181
1074	0.184
1075	0.185
1075	0.187
1076	0.189
1076	0.192
1076	0.193
1077	0.195
1077	0.198
1078	0.2
1078	0.203
1078	0.207
1079	0.211
1079	0.215
1080	0.218
1080	0.222
1080	0.225
1081	0.229
1081	0.233
1082	0.238
1082	0.242
1083	0.246
1083	0.251
1083	0.256
1084	0.261
1084	0.268
1085	0.273
1085	0.28
1085	0.287
1086	0.294
1086	0.299
1087	0.307
1087	0.314
1088	0.321
1088	0.33
1088	0.339
1089	0.348
1089	0.361
1090	0.374
1090	0.388
1090	0.404
1091	0.421
1091	0.44
1092	0.46
1092	0.482
1092	0.504
1093	0.529
1093	0.559
1094	0.586
1094	0.618
1095	0.654
1095	0.699
1095	0.756
1096	0.819
1096	0.897
1097	1.009
1097	1.146
1097	1.368
1098	1.863
1098	-0
1099	-0
1099	-0
1100	-0
1100	-0
1100	-0
1101	-0
1101	-0
1102	-0
1102	-0
1102	-0
1103	-0
1103	-0
1104	-0
1104	-0
1104	-0
1105	-0
1105	-0
1106	-0
1106	-0
1107	-0
1107	-0
1107	-0
1108	-0
1108	-0
1109	-0
1109	-0
1109	-0
1110	-0
1110	-0
1111	-0
1111	-0
