Data from 15c-2-5a_Absorbance__27__00934.txt Node

Date: Tue Jan 16 11:28:08 CET 2024
User: Marek
Spectrometer: MAYP115816
Trigger mode: 0
Integration Time (sec): 2.000000E-1
Scans to average: 10
Electric dark correction enabled: true
Nonlinearity correction enabled: true
Boxcar width: 5
XAxis mode: Wavelengths
Number of Pixels in Spectrum: 2068
>>>>>Begin Spectral Data<<<<<
199	-2.231
199	-2.042
200	-1.906
200	-1.786
201	-1.711
201	-1.659
202	-1.581
202	-1.519
203	-1.469
203	-1.419
204	-1.392
204	-1.366
205	-1.346
205	-1.334
205	-1.331
206	-1.326
206	-1.322
207	-1.32
207	-1.319
208	-1.315
208	-1.314
209	-1.31
209	-1.307
210	-1.307
210	-1.304
211	-1.303
211	-1.302
212	-1.301
212	-1.3
213	-1.298
213	-1.297
213	-1.297
214	-1.295
214	-1.294
215	-1.293
215	-1.293
216	-1.289
216	-1.288
217	-1.286
217	-1.283
218	-1.28
218	-1.276
219	-1.271
219	-1.27
220	-1.268
220	-1.266
221	-1.262
221	-1.261
221	-1.256
222	-1.251
222	-1.245
223	-1.241
223	-1.235
224	-1.23
224	-1.221
225	-1.212
225	-1.202
226	-1.194
226	-1.184
227	-1.17
227	-1.157
228	-1.142
228	-1.125
229	-1.104
229	-1.08
229	-1.055
230	-1.026
230	-0.994
231	-0.958
231	-0.919
232	-0.879
232	-0.836
233	-0.79
233	-0.742
234	-0.694
234	-0.644
235	-0.595
235	-0.546
236	-0.497
236	-0.449
236	-0.401
237	-0.355
237	-0.311
238	-0.268
238	-0.228
239	-0.189
239	-0.153
240	-0.119
240	-0.087
241	-0.057
241	-0.029
242	-0.003
242	0.021
243	0.044
243	0.065
243	0.084
244	0.102
244	0.119
245	0.135
245	0.149
246	0.163
246	0.176
247	0.187
247	0.198
248	0.208
248	0.218
249	0.226
249	0.234
250	0.242
250	0.249
250	0.256
251	0.262
251	0.268
252	0.274
252	0.279
253	0.284
253	0.288
254	0.293
254	0.297
255	0.301
255	0.304
256	0.308
256	0.31
257	0.313
257	0.316
258	0.318
258	0.32
258	0.322
259	0.324
259	0.325
260	0.327
260	0.328
261	0.329
261	0.33
262	0.33
262	0.331
263	0.331
263	0.332
264	0.332
264	0.333
265	0.333
265	0.333
265	0.333
266	0.334
266	0.334
267	0.334
267	0.333
268	0.333
268	0.332
269	0.332
269	0.331
270	0.33
270	0.33
271	0.329
271	0.328
272	0.327
272	0.327
272	0.326
273	0.325
273	0.324
274	0.323
274	0.323
275	0.322
275	0.321
276	0.319
276	0.318
277	0.317
277	0.315
278	0.313
278	0.312
278	0.31
279	0.309
279	0.308
280	0.307
280	0.306
281	0.306
281	0.306
282	0.306
282	0.305
283	0.305
283	0.305
284	0.305
284	0.304
285	0.304
285	0.303
285	0.302
286	0.301
286	0.3
287	0.299
287	0.299
288	0.298
288	0.298
289	0.297
289	0.296
290	0.296
290	0.295
291	0.294
291	0.294
292	0.293
292	0.292
292	0.292
293	0.291
293	0.29
294	0.29
294	0.289
295	0.289
295	0.288
296	0.288
296	0.287
297	0.286
297	0.286
298	0.285
298	0.285
298	0.285
299	0.284
299	0.283
300	0.283
300	0.282
301	0.282
301	0.281
302	0.281
302	0.28
303	0.28
303	0.279
304	0.278
304	0.278
305	0.277
305	0.277
305	0.276
306	0.275
306	0.275
307	0.274
307	0.273
308	0.272
308	0.272
309	0.271
309	0.27
310	0.269
310	0.269
311	0.268
311	0.267
311	0.267
312	0.266
312	0.265
313	0.265
313	0.264
314	0.263
314	0.262
315	0.262
315	0.261
316	0.26
316	0.259
317	0.258
317	0.257
318	0.256
318	0.256
318	0.255
319	0.254
319	0.253
320	0.252
320	0.251
321	0.25
321	0.249
322	0.249
322	0.248
323	0.247
323	0.246
324	0.245
324	0.244
324	0.244
325	0.243
325	0.242
326	0.241
326	0.241
327	0.24
327	0.239
328	0.238
328	0.237
329	0.236
329	0.236
330	0.235
330	0.234
330	0.233
331	0.232
331	0.231
332	0.231
332	0.23
333	0.229
333	0.228
334	0.227
334	0.227
335	0.226
335	0.225
336	0.224
336	0.224
336	0.223
337	0.222
337	0.221
338	0.221
338	0.22
339	0.219
339	0.219
340	0.218
340	0.218
341	0.217
341	0.216
342	0.215
342	0.215
342	0.214
343	0.213
343	0.213
344	0.212
344	0.212
345	0.211
345	0.21
346	0.21
346	0.209
347	0.208
347	0.208
348	0.207
348	0.206
348	0.206
349	0.205
349	0.204
350	0.203
350	0.202
351	0.201
351	0.201
352	0.199
352	0.198
353	0.197
353	0.196
354	0.195
354	0.194
354	0.192
355	0.191
355	0.19
356	0.189
356	0.188
357	0.187
357	0.187
358	0.187
358	0.187
359	0.188
359	0.189
360	0.189
360	0.19
360	0.191
361	0.192
361	0.193
362	0.193
362	0.193
363	0.193
363	0.193
364	0.193
364	0.192
365	0.192
365	0.191
366	0.191
366	0.191
366	0.19
367	0.19
367	0.19
368	0.189
368	0.189
369	0.188
369	0.188
370	0.187
370	0.187
371	0.186
371	0.186
372	0.185
372	0.185
372	0.185
373	0.185
373	0.184
374	0.184
374	0.184
375	0.184
375	0.184
376	0.184
376	0.184
377	0.184
377	0.185
378	0.185
378	0.185
378	0.186
379	0.186
379	0.186
380	0.187
380	0.187
381	0.187
381	0.186
382	0.186
382	0.186
383	0.185
383	0.185
383	0.184
384	0.184
384	0.183
385	0.183
385	0.183
386	0.183
386	0.183
387	0.183
387	0.183
388	0.183
388	0.183
389	0.183
389	0.182
389	0.182
390	0.182
390	0.182
391	0.183
391	0.183
392	0.183
392	0.183
393	0.183
393	0.183
394	0.183
394	0.183
394	0.183
395	0.183
395	0.182
396	0.182
396	0.182
397	0.183
397	0.183
398	0.183
398	0.183
399	0.183
399	0.183
400	0.183
400	0.182
400	0.182
401	0.181
401	0.18
402	0.179
402	0.178
403	0.178
403	0.177
404	0.177
404	0.177
405	0.177
405	0.176
405	0.176
406	0.176
406	0.176
407	0.176
407	0.176
408	0.176
408	0.175
409	0.174
409	0.174
410	0.174
410	0.174
411	0.174
411	0.174
411	0.173
412	0.173
412	0.173
413	0.172
413	0.172
414	0.171
414	0.171
415	0.171
415	0.171
416	0.17
416	0.17
416	0.169
417	0.169
417	0.169
418	0.169
418	0.169
419	0.17
419	0.17
420	0.171
420	0.172
421	0.173
421	0.174
421	0.174
422	0.174
422	0.175
423	0.175
423	0.175
424	0.174
424	0.173
425	0.172
425	0.171
426	0.17
426	0.17
427	0.17
427	0.17
427	0.17
428	0.171
428	0.172
429	0.173
429	0.174
430	0.174
430	0.174
431	0.174
431	0.173
432	0.173
432	0.172
432	0.171
433	0.17
433	0.168
434	0.167
434	0.167
435	0.167
435	0.167
436	0.167
436	0.167
437	0.167
437	0.167
437	0.167
438	0.167
438	0.167
439	0.167
439	0.167
440	0.166
440	0.166
441	0.166
441	0.167
442	0.167
442	0.167
442	0.168
443	0.169
443	0.169
444	0.17
444	0.17
445	0.17
445	0.171
446	0.171
446	0.171
447	0.17
447	0.17
447	0.17
448	0.17
448	0.169
449	0.169
449	0.169
450	0.168
450	0.168
451	0.168
451	0.167
452	0.167
452	0.166
452	0.166
453	0.165
453	0.164
454	0.163
454	0.162
455	0.162
455	0.161
456	0.161
456	0.161
457	0.161
457	0.161
458	0.16
458	0.161
458	0.161
459	0.161
459	0.162
460	0.161
460	0.161
461	0.16
461	0.16
462	0.16
462	0.16
463	0.16
463	0.16
463	0.161
464	0.161
464	0.161
465	0.161
465	0.162
466	0.162
466	0.162
467	0.162
467	0.161
467	0.16
468	0.158
468	0.156
469	0.154
469	0.153
470	0.152
470	0.151
471	0.151
471	0.151
472	0.151
472	0.151
472	0.151
473	0.152
473	0.154
474	0.155
474	0.156
475	0.157
475	0.158
476	0.158
476	0.159
477	0.159
477	0.159
477	0.159
478	0.159
478	0.16
479	0.16
479	0.16
480	0.161
480	0.162
481	0.163
481	0.163
482	0.164
482	0.165
482	0.166
483	0.168
483	0.171
484	0.175
484	0.178
485	0.18
485	0.182
486	0.183
486	0.184
487	0.185
487	0.186
487	0.186
488	0.185
488	0.184
489	0.181
489	0.179
490	0.177
490	0.176
491	0.175
491	0.175
492	0.175
492	0.175
492	0.176
493	0.176
493	0.177
494	0.179
494	0.181
495	0.183
495	0.185
496	0.186
496	0.187
496	0.187
497	0.188
497	0.189
498	0.19
498	0.19
499	0.19
499	0.19
500	0.19
500	0.191
501	0.193
501	0.195
501	0.197
502	0.198
502	0.199
503	0.201
503	0.202
504	0.203
504	0.204
505	0.204
505	0.204
506	0.204
506	0.204
506	0.204
507	0.204
507	0.205
508	0.205
508	0.205
509	0.206
509	0.206
510	0.206
510	0.206
511	0.207
511	0.207
511	0.207
512	0.206
512	0.206
513	0.205
513	0.203
514	0.203
514	0.203
515	0.203
515	0.202
515	0.201
516	0.199
516	0.198
517	0.198
517	0.198
518	0.198
518	0.199
519	0.198
519	0.197
520	0.196
520	0.195
520	0.193
521	0.191
521	0.189
522	0.186
522	0.183
523	0.179
523	0.177
524	0.175
524	0.174
524	0.173
525	0.173
525	0.175
526	0.177
526	0.179
527	0.183
527	0.187
528	0.191
528	0.195
529	0.198
529	0.2
529	0.202
530	0.203
530	0.205
531	0.206
531	0.207
532	0.207
532	0.207
533	0.208
533	0.208
533	0.209
534	0.209
534	0.208
535	0.207
535	0.207
536	0.207
536	0.207
537	0.207
537	0.207
538	0.206
538	0.205
538	0.203
539	0.203
539	0.202
540	0.202
540	0.201
541	0.199
541	0.198
542	0.196
542	0.195
542	0.194
543	0.193
543	0.192
544	0.19
544	0.189
545	0.188
545	0.188
546	0.187
546	0.187
547	0.186
547	0.184
547	0.182
548	0.18
548	0.177
549	0.175
549	0.174
550	0.172
550	0.17
551	0.168
551	0.166
551	0.164
552	0.163
552	0.163
553	0.162
553	0.162
554	0.162
554	0.161
555	0.16
555	0.157
556	0.154
556	0.151
556	0.148
557	0.145
557	0.143
558	0.141
558	0.139
559	0.138
559	0.137
560	0.137
560	0.137
560	0.138
561	0.138
561	0.139
562	0.139
562	0.138
563	0.137
563	0.135
564	0.132
564	0.129
564	0.126
565	0.124
565	0.123
566	0.121
566	0.12
567	0.121
567	0.122
568	0.124
568	0.125
568	0.128
569	0.131
569	0.134
570	0.136
570	0.138
571	0.139
571	0.14
572	0.141
572	0.142
573	0.142
573	0.142
573	0.142
574	0.141
574	0.14
575	0.139
575	0.141
576	0.142
576	0.142
577	0.141
577	0.14
577	0.14
578	0.139
578	0.139
579	0.139
579	0.141
580	0.142
580	0.141
581	0.138
581	0.136
581	0.134
582	0.134
582	0.133
583	0.134
583	0.133
584	0.131
584	0.127
585	0.124
585	0.123
585	0.122
586	0.122
586	0.122
587	0.121
587	0.119
588	0.116
588	0.114
589	0.112
589	0.111
590	0.109
590	0.108
590	0.108
591	0.109
591	0.109
592	0.109
592	0.108
593	0.108
593	0.108
594	0.107
594	0.106
594	0.106
595	0.105
595	0.104
596	0.103
596	0.103
597	0.105
597	0.107
598	0.109
598	0.11
598	0.112
599	0.113
599	0.113
600	0.113
600	0.112
601	0.111
601	0.11
602	0.108
602	0.107
602	0.105
603	0.104
603	0.104
604	0.104
604	0.105
605	0.106
605	0.108
606	0.109
606	0.108
606	0.108
607	0.107
607	0.106
608	0.106
608	0.104
609	0.103
609	0.102
610	0.1
610	0.098
610	0.097
611	0.097
611	0.097
612	0.098
612	0.099
613	0.101
613	0.102
614	0.103
614	0.102
614	0.102
615	0.102
615	0.101
616	0.101
616	0.101
617	0.1
617	0.099
618	0.097
618	0.096
618	0.095
619	0.095
619	0.096
620	0.097
620	0.098
621	0.099
621	0.1
622	0.1
622	0.101
622	0.101
623	0.101
623	0.102
624	0.102
624	0.103
625	0.102
625	0.102
626	0.102
626	0.102
626	0.102
627	0.102
627	0.102
628	0.102
628	0.102
629	0.103
629	0.103
630	0.103
630	0.102
630	0.102
631	0.103
631	0.103
632	0.104
632	0.104
633	0.104
633	0.105
634	0.106
634	0.109
634	0.111
635	0.113
635	0.114
636	0.115
636	0.117
637	0.118
637	0.119
638	0.12
638	0.122
638	0.123
639	0.123
639	0.123
640	0.124
640	0.125
641	0.127
641	0.128
642	0.129
642	0.131
642	0.132
643	0.134
643	0.135
644	0.136
644	0.138
645	0.139
645	0.142
646	0.144
646	0.147
646	0.151
647	0.155
647	0.159
648	0.163
648	0.166
649	0.17
649	0.173
650	0.176
650	0.179
650	0.182
651	0.184
651	0.186
652	0.187
652	0.189
653	0.191
653	0.199
653	0.204
654	0.167
654	0.139
655	0.145
655	0.148
656	0.149
656	0.151
657	0.153
657	0.154
657	0.155
658	0.152
658	0.147
659	0.181
659	0.227
660	0.227
660	0.228
661	0.229
661	0.231
661	0.233
662	0.236
662	0.24
663	0.243
663	0.246
664	0.249
664	0.252
665	0.254
665	0.257
665	0.26
666	0.263
666	0.266
667	0.268
667	0.271
668	0.274
668	0.277
669	0.28
669	0.283
669	0.287
670	0.292
670	0.295
671	0.298
671	0.299
672	0.3
672	0.301
672	0.302
673	0.303
673	0.304
674	0.305
674	0.305
675	0.305
675	0.305
676	0.307
676	0.309
676	0.311
677	0.314
677	0.316
678	0.319
678	0.321
679	0.323
679	0.325
680	0.327
680	0.328
680	0.329
681	0.329
681	0.33
682	0.331
682	0.333
683	0.334
683	0.337
684	0.34
684	0.342
684	0.343
685	0.344
685	0.346
686	0.348
686	0.349
687	0.349
687	0.349
687	0.349
688	0.348
688	0.347
689	0.347
689	0.348
690	0.349
690	0.349
691	0.348
691	0.349
691	0.349
692	0.349
692	0.349
693	0.349
693	0.35
694	0.35
694	0.348
695	0.348
695	0.35
695	0.351
696	0.351
696	0.35
697	0.35
697	0.349
698	0.348
698	0.345
698	0.343
699	0.342
699	0.339
700	0.336
700	0.333
701	0.332
701	0.331
702	0.33
702	0.328
702	0.327
703	0.326
703	0.325
704	0.324
704	0.323
705	0.323
705	0.322
705	0.321
706	0.32
706	0.319
707	0.317
707	0.315
708	0.313
708	0.312
709	0.31
709	0.309
709	0.306
710	0.302
710	0.299
711	0.297
711	0.295
712	0.293
712	0.292
713	0.29
713	0.288
713	0.285
714	0.282
714	0.28
715	0.277
715	0.274
716	0.271
716	0.268
716	0.265
717	0.263
717	0.26
718	0.258
718	0.256
719	0.254
719	0.253
720	0.251
720	0.249
720	0.247
721	0.244
721	0.241
722	0.239
722	0.235
723	0.232
723	0.23
723	0.227
724	0.224
724	0.221
725	0.218
725	0.216
726	0.214
726	0.212
727	0.21
727	0.208
727	0.207
728	0.205
728	0.203
729	0.202
729	0.202
730	0.2
730	0.199
730	0.198
731	0.196
731	0.195
732	0.194
732	0.193
733	0.191
733	0.189
734	0.187
734	0.184
734	0.182
735	0.181
735	0.178
736	0.176
736	0.173
737	0.171
737	0.17
737	0.168
738	0.165
738	0.162
739	0.159
739	0.156
740	0.153
740	0.151
741	0.149
741	0.146
741	0.142
742	0.137
742	0.132
743	0.129
743	0.127
744	0.124
744	0.122
744	0.12
745	0.117
745	0.114
746	0.113
746	0.111
747	0.111
747	0.11
748	0.11
748	0.11
748	0.109
749	0.109
749	0.108
750	0.107
750	0.107
751	0.107
751	0.107
751	0.107
752	0.106
752	0.105
753	0.104
753	0.102
754	0.102
754	0.101
754	0.1
755	0.1
755	0.1
756	0.099
756	0.097
757	0.096
757	0.095
758	0.093
758	0.092
758	0.09
759	0.089
759	0.086
760	0.083
760	0.08
761	0.077
761	0.075
761	0.073
762	0.071
762	0.07
763	0.069
763	0.067
764	0.064
764	0.061
764	0.059
765	0.057
765	0.055
766	0.054
766	0.053
767	0.052
767	0.05
768	0.046
768	0.044
768	0.042
769	0.041
769	0.04
770	0.039
770	0.037
771	0.035
771	0.031
771	0.028
772	0.025
772	0.023
773	0.021
773	0.018
774	0.014
774	0.01
775	0.006
775	0.002
775	-0.003
776	-0.008
776	-0.013
777	-0.019
777	-0.025
778	-0.031
778	-0.037
778	-0.043
779	-0.048
779	-0.05
780	-0.053
780	-0.057
781	-0.059
781	-0.062
781	-0.064
782	-0.066
782	-0.069
783	-0.071
783	-0.071
784	-0.072
784	-0.075
784	-0.077
785	-0.078
785	-0.08
786	-0.081
786	-0.079
787	-0.075
787	-0.071
788	-0.07
788	-0.071
788	-0.072
789	-0.074
789	-0.073
790	-0.07
790	-0.069
791	-0.069
791	-0.071
791	-0.073
792	-0.068
792	-0.059
793	-0.053
793	-0.049
794	-0.048
794	-0.049
794	-0.053
795	-0.055
795	-0.055
796	-0.055
796	-0.057
797	-0.065
797	-0.074
797	-0.08
798	-0.085
798	-0.088
799	-0.088
799	-0.088
800	-0.088
800	-0.09
801	-0.094
801	-0.095
801	-0.096
802	-0.098
802	-0.099
803	-0.1
803	-0.1
804	-0.1
804	-0.095
804	-0.088
805	-0.085
805	-0.083
806	-0.081
806	-0.08
807	-0.078
807	-0.078
807	-0.077
808	-0.077
808	-0.077
809	-0.081
809	-0.086
810	-0.089
810	-0.091
810	-0.094
811	-0.096
811	-0.096
812	-0.092
812	-0.089
813	-0.09
813	-0.09
813	-0.091
814	-0.092
814	-0.092
815	-0.09
815	-0.087
816	-0.085
816	-0.086
817	-0.09
817	-0.093
817	-0.094
818	-0.093
818	-0.09
819	-0.085
819	-0.082
820	-0.084
820	-0.086
820	-0.087
821	-0.086
821	-0.084
822	-0.081
822	-0.077
823	-0.073
823	-0.07
823	-0.069
824	-0.065
824	-0.058
825	-0.049
825	-0.039
826	-0.029
826	-0.022
826	-0.015
827	-0.008
827	-0.001
828	0.004
828	0.009
829	0.013
829	0.017
829	0.02
830	0.023
830	0.026
831	0.03
831	0.033
832	0.036
832	0.038
832	0.04
833	0.043
833	0.045
834	0.047
834	0.048
835	0.049
835	0.05
835	0.05
836	0.051
836	0.052
837	0.053
837	0.053
838	0.053
838	0.053
839	0.053
839	0.054
839	0.054
840	0.055
840	0.055
841	0.056
841	0.057
842	0.058
842	0.06
842	0.061
843	0.062
843	0.063
844	0.065
844	0.066
845	0.068
845	0.069
845	0.071
846	0.072
846	0.074
847	0.075
847	0.077
848	0.079
848	0.08
848	0.082
849	0.083
849	0.084
850	0.084
850	0.085
851	0.085
851	0.086
851	0.086
852	0.086
852	0.087
853	0.087
853	0.087
854	0.088
854	0.088
854	0.089
855	0.089
855	0.089
856	0.09
856	0.09
857	0.09
857	0.09
857	0.089
858	0.089
858	0.089
859	0.088
859	0.088
860	0.088
860	0.087
860	0.086
861	0.085
861	0.085
862	0.084
862	0.084
863	0.083
863	0.083
863	0.083
864	0.083
864	0.084
865	0.085
865	0.086
866	0.087
866	0.088
866	0.089
867	0.091
867	0.092
868	0.093
868	0.093
869	0.094
869	0.095
869	0.094
870	0.094
870	0.095
871	0.095
871	0.095
872	0.095
872	0.094
872	0.094
873	0.095
873	0.095
874	0.095
874	0.095
875	0.096
875	0.097
875	0.097
876	0.098
876	0.098
877	0.098
877	0.098
878	0.097
878	0.097
878	0.096
879	0.095
879	0.094
880	0.092
880	0.091
881	0.09
881	0.089
881	0.089
882	0.088
882	0.088
883	0.088
883	0.088
884	0.089
884	0.089
884	0.09
885	0.09
885	0.091
886	0.092
886	0.093
887	0.093
887	0.094
887	0.094
888	0.094
888	0.094
889	0.094
889	0.094
890	0.094
890	0.094
890	0.094
891	0.094
891	0.094
892	0.094
892	0.094
893	0.095
893	0.096
893	0.096
894	0.097
894	0.097
895	0.098
895	0.099
895	0.099
896	0.1
896	0.1
897	0.101
897	0.101
898	0.102
898	0.102
898	0.102
899	0.102
899	0.102
900	0.102
900	0.102
901	0.102
901	0.102
901	0.102
902	0.102
902	0.103
903	0.103
903	0.103
904	0.103
904	0.102
904	0.102
905	0.102
905	0.102
906	0.101
906	0.101
907	0.1
907	0.1
907	0.1
908	0.1
908	0.1
909	0.101
909	0.101
910	0.101
910	0.102
910	0.102
911	0.103
911	0.103
912	0.104
912	0.104
913	0.104
913	0.104
913	0.104
914	0.104
914	0.104
915	0.103
915	0.103
916	0.102
916	0.102
916	0.101
917	0.101
917	0.1
918	0.099
918	0.099
918	0.098
919	0.098
919	0.097
920	0.097
920	0.097
921	0.097
921	0.097
921	0.096
922	0.096
922	0.096
923	0.096
923	0.096
924	0.095
924	0.095
924	0.095
925	0.094
925	0.093
926	0.093
926	0.092
927	0.091
927	0.09
927	0.089
928	0.089
928	0.088
929	0.088
929	0.088
930	0.089
930	0.089
930	0.09
931	0.091
931	0.093
932	0.094
932	0.096
933	0.098
933	0.1
933	0.101
934	0.103
934	0.104
935	0.105
935	0.106
935	0.107
936	0.108
936	0.108
937	0.109
937	0.11
938	0.11
938	0.111
938	0.112
939	0.113
939	0.114
940	0.115
940	0.116
941	0.117
941	0.117
941	0.118
942	0.117
942	0.117
943	0.116
943	0.115
944	0.115
944	0.115
944	0.114
945	0.115
945	0.115
946	0.115
946	0.115
946	0.115
947	0.116
947	0.115
948	0.115
948	0.115
949	0.115
949	0.114
949	0.113
950	0.113
950	0.112
951	0.111
951	0.111
952	0.111
952	0.111
952	0.111
953	0.111
953	0.111
954	0.111
954	0.112
955	0.112
955	0.113
955	0.114
956	0.114
956	0.115
957	0.115
957	0.114
957	0.114
958	0.114
958	0.113
959	0.113
959	0.112
960	0.111
960	0.11
960	0.109
961	0.108
961	0.107
962	0.106
962	0.106
963	0.106
963	0.106
963	0.106
964	0.106
964	0.107
965	0.108
965	0.109
966	0.11
966	0.111
966	0.113
967	0.113
967	0.114
968	0.114
968	0.114
968	0.114
969	0.114
969	0.113
970	0.113
970	0.112
971	0.111
971	0.11
971	0.11
972	0.11
972	0.11
973	0.111
973	0.111
974	0.111
974	0.112
974	0.112
975	0.113
975	0.113
976	0.114
976	0.114
976	0.114
977	0.113
977	0.112
978	0.112
978	0.111
979	0.111
979	0.11
979	0.109
980	0.108
980	0.108
981	0.107
981	0.106
982	0.106
982	0.106
982	0.105
983	0.105
983	0.105
984	0.104
984	0.104
984	0.103
985	0.103
985	0.102
986	0.101
986	0.1
987	0.099
987	0.098
987	0.097
988	0.097
988	0.096
989	0.096
989	0.095
990	0.096
990	0.096
990	0.097
991	0.097
991	0.098
992	0.099
992	0.1
992	0.101
993	0.101
993	0.102
994	0.102
994	0.103
995	0.103
995	0.103
995	0.103
996	0.103
996	0.102
997	0.103
997	0.103
997	0.103
998	0.104
998	0.105
999	0.105
999	0.106
1000	0.107
1000	0.108
1000	0.109
1001	0.11
1001	0.111
1002	0.111
1002	0.111
1003	0.111
1003	0.111
1003	0.111
1004	0.11
1004	0.109
1005	0.109
1005	0.108
1005	0.107
1006	0.107
1006	0.106
1007	0.105
1007	0.105
1008	0.104
1008	0.103
1008	0.103
1009	0.103
1009	0.102
1010	0.102
1010	0.102
1010	0.102
1011	0.102
1011	0.102
1012	0.102
1012	0.102
1013	0.103
1013	0.103
1013	0.103
1014	0.103
1014	0.103
1015	0.102
1015	0.102
1016	0.102
1016	0.102
1016	0.101
1017	0.1
1017	0.1
1018	0.099
1018	0.099
1018	0.099
1019	0.099
1019	0.098
1020	0.098
1020	0.098
1021	0.098
1021	0.098
1021	0.099
1022	0.099
1022	0.098
1023	0.098
1023	0.098
1023	0.098
1024	0.098
1024	0.097
1025	0.097
1025	0.097
1026	0.096
1026	0.096
1026	0.096
1027	0.096
1027	0.097
1028	0.097
1028	0.097
1028	0.097
1029	0.098
1029	0.098
1030	0.099
1030	0.099
1031	0.1
1031	0.1
1031	0.1
1032	0.1
1032	0.101
1033	0.101
1033	0.101
1033	0.101
1034	0.101
1034	0.101
1035	0.101
1035	0.101
1036	0.102
1036	0.102
1036	0.103
1037	0.104
1037	0.105
1038	0.105
1038	0.106
1039	0.107
1039	0.108
1039	0.109
1040	0.11
1040	0.111
1041	0.111
1041	0.111
1041	0.112
1042	0.111
1042	0.112
1043	0.112
1043	0.112
1044	0.112
1044	0.111
1044	0.112
1045	0.111
1045	0.111
1046	0.111
1046	0.111
1046	0.111
1047	0.112
1047	0.112
1048	0.112
1048	0.112
1049	0.112
1049	0.111
1049	0.111
1050	0.111
1050	0.111
1051	0.112
1051	0.112
1051	0.112
1052	0.113
1052	0.113
1053	0.113
1053	0.114
1053	0.115
1054	0.116
1054	0.117
1055	0.118
1055	0.118
1056	0.118
1056	0.119
1056	0.119
1057	0.119
1057	0.12
1058	0.122
1058	0.122
1058	0.124
1059	0.126
1059	0.127
1060	0.128
1060	0.13
1061	0.132
1061	0.134
1061	0.136
1062	0.137
1062	0.138
1063	0.14
1063	0.141
1063	0.141
1064	0.143
1064	0.145
1065	0.146
1065	0.147
1066	0.149
1066	0.151
1066	0.153
1067	0.155
1067	0.156
1068	0.158
1068	0.16
1068	0.161
1069	0.162
1069	0.163
1070	0.165
1070	0.167
1071	0.169
1071	0.171
1071	0.173
1072	0.175
1072	0.178
1073	0.181
1073	0.184
1073	0.186
1074	0.189
1074	0.191
1075	0.193
1075	0.195
1076	0.197
1076	0.201
1076	0.203
1077	0.205
1077	0.208
1078	0.21
1078	0.214
1078	0.217
1079	0.221
1079	0.225
1080	0.229
1080	0.232
1080	0.235
1081	0.239
1081	0.243
1082	0.247
1082	0.251
1083	0.256
1083	0.261
1083	0.267
1084	0.273
1084	0.279
1085	0.286
1085	0.294
1085	0.302
1086	0.309
1086	0.316
1087	0.324
1087	0.333
1088	0.34
1088	0.35
1088	0.36
1089	0.371
1089	0.383
1090	0.395
1090	0.41
1090	0.426
1091	0.444
1091	0.465
1092	0.486
1092	0.509
1092	0.532
1093	0.558
1093	0.589
1094	0.625
1094	0.663
1095	0.705
1095	0.757
1095	0.825
1096	0.901
1096	0.998
1097	1.147
1097	1.359
1097	1.86
1098	-0
1098	-0
1099	-0
1099	-0
1100	-0
1100	-0
1100	-0
1101	-0
1101	-0
1102	-0
1102	-0
1102	-0
1103	-0
1103	-0
1104	-0
1104	-0
1104	-0
1105	-0
1105	-0
1106	-0
1106	-0
1107	-0
1107	-0
1107	-0
1108	-0
1108	-0
1109	-0
1109	-0
1109	-0
1110	-0
1110	-0
1111	-0
1111	-0
