Data from 15c-2-5a_Absorbance__117__01024.txt Node

Date: Tue Jan 16 11:31:08 CET 2024
User: Marek
Spectrometer: MAYP115816
Trigger mode: 0
Integration Time (sec): 2.000000E-1
Scans to average: 10
Electric dark correction enabled: true
Nonlinearity correction enabled: true
Boxcar width: 5
XAxis mode: Wavelengths
Number of Pixels in Spectrum: 2068
>>>>>Begin Spectral Data<<<<<
199	-2.225
199	-2.035
200	-1.9
200	-1.78
201	-1.705
201	-1.653
202	-1.576
202	-1.513
203	-1.463
203	-1.414
204	-1.387
204	-1.362
205	-1.342
205	-1.33
205	-1.327
206	-1.322
206	-1.318
207	-1.316
207	-1.315
208	-1.311
208	-1.311
209	-1.306
209	-1.304
210	-1.303
210	-1.3
211	-1.299
211	-1.298
212	-1.297
212	-1.297
213	-1.294
213	-1.293
213	-1.293
214	-1.291
214	-1.29
215	-1.289
215	-1.289
216	-1.285
216	-1.284
217	-1.282
217	-1.279
218	-1.275
218	-1.271
219	-1.267
219	-1.265
220	-1.263
220	-1.261
221	-1.257
221	-1.256
221	-1.251
222	-1.246
222	-1.241
223	-1.236
223	-1.231
224	-1.225
224	-1.217
225	-1.208
225	-1.198
226	-1.19
226	-1.18
227	-1.167
227	-1.154
228	-1.138
228	-1.121
229	-1.1
229	-1.077
229	-1.052
230	-1.022
230	-0.99
231	-0.955
231	-0.915
232	-0.875
232	-0.832
233	-0.786
233	-0.738
234	-0.69
234	-0.64
235	-0.591
235	-0.542
236	-0.493
236	-0.444
236	-0.397
237	-0.351
237	-0.307
238	-0.265
238	-0.225
239	-0.186
239	-0.15
240	-0.116
240	-0.084
241	-0.054
241	-0.026
242	0
242	0.025
243	0.048
243	0.069
243	0.089
244	0.107
244	0.124
245	0.139
245	0.154
246	0.168
246	0.181
247	0.192
247	0.203
248	0.213
248	0.222
249	0.231
249	0.239
250	0.247
250	0.254
250	0.261
251	0.267
251	0.273
252	0.279
252	0.285
253	0.29
253	0.294
254	0.298
254	0.303
255	0.306
255	0.31
256	0.314
256	0.316
257	0.319
257	0.322
258	0.324
258	0.326
258	0.328
259	0.33
259	0.331
260	0.333
260	0.334
261	0.335
261	0.336
262	0.337
262	0.337
263	0.338
263	0.339
264	0.339
264	0.34
265	0.34
265	0.34
265	0.341
266	0.341
266	0.341
267	0.341
267	0.341
268	0.34
268	0.34
269	0.339
269	0.339
270	0.338
270	0.337
271	0.336
271	0.335
272	0.334
272	0.333
272	0.333
273	0.332
273	0.331
274	0.33
274	0.329
275	0.328
275	0.327
276	0.326
276	0.325
277	0.323
277	0.321
278	0.32
278	0.318
278	0.316
279	0.315
279	0.314
280	0.313
280	0.312
281	0.312
281	0.311
282	0.311
282	0.31
283	0.31
283	0.31
284	0.31
284	0.31
285	0.309
285	0.308
285	0.307
286	0.307
286	0.306
287	0.305
287	0.304
288	0.303
288	0.303
289	0.302
289	0.301
290	0.3
290	0.299
291	0.298
291	0.298
292	0.297
292	0.296
292	0.295
293	0.295
293	0.294
294	0.293
294	0.293
295	0.292
295	0.291
296	0.291
296	0.29
297	0.289
297	0.289
298	0.288
298	0.288
298	0.287
299	0.287
299	0.286
300	0.286
300	0.285
301	0.285
301	0.284
302	0.283
302	0.283
303	0.282
303	0.282
304	0.281
304	0.28
305	0.28
305	0.279
305	0.278
306	0.278
306	0.277
307	0.277
307	0.276
308	0.275
308	0.274
309	0.274
309	0.273
310	0.272
310	0.271
311	0.271
311	0.27
311	0.269
312	0.269
312	0.268
313	0.267
313	0.266
314	0.265
314	0.264
315	0.263
315	0.263
316	0.262
316	0.261
317	0.26
317	0.259
318	0.258
318	0.257
318	0.257
319	0.256
319	0.255
320	0.254
320	0.253
321	0.252
321	0.251
322	0.25
322	0.249
323	0.248
323	0.248
324	0.247
324	0.246
324	0.245
325	0.244
325	0.244
326	0.243
326	0.242
327	0.242
327	0.241
328	0.24
328	0.239
329	0.238
329	0.237
330	0.237
330	0.236
330	0.235
331	0.234
331	0.233
332	0.232
332	0.231
333	0.23
333	0.23
334	0.229
334	0.228
335	0.227
335	0.227
336	0.226
336	0.225
336	0.224
337	0.224
337	0.223
338	0.222
338	0.221
339	0.221
339	0.22
340	0.219
340	0.218
341	0.218
341	0.217
342	0.216
342	0.216
342	0.215
343	0.214
343	0.214
344	0.213
344	0.212
345	0.212
345	0.211
346	0.211
346	0.21
347	0.209
347	0.208
348	0.208
348	0.207
348	0.206
349	0.205
349	0.204
350	0.204
350	0.203
351	0.202
351	0.201
352	0.2
352	0.199
353	0.198
353	0.197
354	0.196
354	0.194
354	0.193
355	0.192
355	0.191
356	0.19
356	0.189
357	0.188
357	0.188
358	0.188
358	0.188
359	0.188
359	0.189
360	0.19
360	0.191
360	0.192
361	0.193
361	0.193
362	0.194
362	0.194
363	0.194
363	0.194
364	0.193
364	0.193
365	0.193
365	0.192
366	0.192
366	0.192
366	0.191
367	0.191
367	0.191
368	0.19
368	0.19
369	0.189
369	0.189
370	0.188
370	0.188
371	0.187
371	0.187
372	0.186
372	0.186
372	0.185
373	0.185
373	0.185
374	0.185
374	0.185
375	0.185
375	0.185
376	0.185
376	0.185
377	0.185
377	0.185
378	0.186
378	0.186
378	0.186
379	0.186
379	0.187
380	0.187
380	0.187
381	0.187
381	0.187
382	0.186
382	0.186
383	0.185
383	0.185
383	0.184
384	0.184
384	0.184
385	0.183
385	0.183
386	0.183
386	0.184
387	0.183
387	0.183
388	0.183
388	0.183
389	0.183
389	0.183
389	0.183
390	0.182
390	0.183
391	0.183
391	0.183
392	0.184
392	0.184
393	0.184
393	0.184
394	0.184
394	0.184
394	0.184
395	0.184
395	0.184
396	0.183
396	0.183
397	0.184
397	0.184
398	0.184
398	0.184
399	0.184
399	0.184
400	0.184
400	0.183
400	0.183
401	0.182
401	0.181
402	0.18
402	0.179
403	0.178
403	0.178
404	0.178
404	0.178
405	0.177
405	0.177
405	0.177
406	0.177
406	0.177
407	0.177
407	0.177
408	0.176
408	0.175
409	0.175
409	0.174
410	0.174
410	0.174
411	0.174
411	0.174
411	0.174
412	0.173
412	0.173
413	0.173
413	0.172
414	0.172
414	0.172
415	0.171
415	0.171
416	0.17
416	0.17
416	0.17
417	0.17
417	0.169
418	0.169
418	0.17
419	0.17
419	0.171
420	0.172
420	0.173
421	0.173
421	0.174
421	0.174
422	0.175
422	0.175
423	0.175
423	0.175
424	0.174
424	0.173
425	0.172
425	0.171
426	0.171
426	0.17
427	0.17
427	0.17
427	0.17
428	0.171
428	0.172
429	0.173
429	0.173
430	0.174
430	0.174
431	0.174
431	0.173
432	0.173
432	0.172
432	0.171
433	0.17
433	0.169
434	0.168
434	0.167
435	0.167
435	0.167
436	0.167
436	0.167
437	0.167
437	0.167
437	0.167
438	0.167
438	0.167
439	0.167
439	0.166
440	0.166
440	0.166
441	0.167
441	0.167
442	0.167
442	0.168
442	0.168
443	0.169
443	0.17
444	0.17
444	0.171
445	0.171
445	0.171
446	0.171
446	0.171
447	0.171
447	0.171
447	0.171
448	0.17
448	0.17
449	0.17
449	0.169
450	0.169
450	0.169
451	0.168
451	0.167
452	0.167
452	0.166
452	0.166
453	0.165
453	0.164
454	0.164
454	0.163
455	0.162
455	0.162
456	0.162
456	0.161
457	0.161
457	0.161
458	0.161
458	0.161
458	0.161
459	0.162
459	0.162
460	0.162
460	0.161
461	0.161
461	0.16
462	0.16
462	0.16
463	0.16
463	0.16
463	0.161
464	0.161
464	0.162
465	0.162
465	0.162
466	0.162
466	0.162
467	0.162
467	0.162
467	0.161
468	0.159
468	0.157
469	0.155
469	0.153
470	0.152
470	0.152
471	0.151
471	0.151
472	0.151
472	0.151
472	0.152
473	0.153
473	0.154
474	0.156
474	0.157
475	0.158
475	0.158
476	0.159
476	0.159
477	0.16
477	0.16
477	0.16
478	0.16
478	0.161
479	0.161
479	0.162
480	0.163
480	0.163
481	0.164
481	0.165
482	0.166
482	0.167
482	0.168
483	0.17
483	0.173
484	0.176
484	0.179
485	0.181
485	0.183
486	0.185
486	0.186
487	0.187
487	0.187
487	0.187
488	0.187
488	0.185
489	0.183
489	0.181
490	0.179
490	0.178
491	0.177
491	0.177
492	0.177
492	0.178
492	0.178
493	0.179
493	0.18
494	0.182
494	0.184
495	0.186
495	0.187
496	0.188
496	0.189
496	0.19
497	0.191
497	0.192
498	0.192
498	0.193
499	0.193
499	0.193
500	0.193
500	0.194
501	0.196
501	0.198
501	0.199
502	0.201
502	0.202
503	0.204
503	0.205
504	0.206
504	0.207
505	0.207
505	0.207
506	0.207
506	0.207
506	0.207
507	0.207
507	0.207
508	0.208
508	0.208
509	0.208
509	0.209
510	0.209
510	0.209
511	0.21
511	0.21
511	0.209
512	0.209
512	0.209
513	0.208
513	0.207
514	0.207
514	0.206
515	0.205
515	0.204
515	0.203
516	0.202
516	0.201
517	0.201
517	0.201
518	0.202
518	0.202
519	0.201
519	0.2
520	0.199
520	0.197
520	0.195
521	0.193
521	0.191
522	0.187
522	0.184
523	0.18
523	0.178
524	0.177
524	0.177
524	0.177
525	0.178
525	0.18
526	0.183
526	0.186
527	0.19
527	0.194
528	0.198
528	0.201
529	0.203
529	0.205
529	0.207
530	0.208
530	0.209
531	0.21
531	0.211
532	0.211
532	0.211
533	0.211
533	0.212
533	0.212
534	0.212
534	0.211
535	0.21
535	0.21
536	0.21
536	0.21
537	0.21
537	0.21
538	0.209
538	0.207
538	0.206
539	0.205
539	0.205
540	0.204
540	0.203
541	0.202
541	0.2
542	0.198
542	0.197
542	0.195
543	0.194
543	0.194
544	0.192
544	0.191
545	0.19
545	0.189
546	0.189
546	0.188
547	0.187
547	0.186
547	0.183
548	0.181
548	0.178
549	0.176
549	0.174
550	0.172
550	0.171
551	0.168
551	0.166
551	0.164
552	0.164
552	0.163
553	0.162
553	0.162
554	0.163
554	0.162
555	0.16
555	0.157
556	0.154
556	0.151
556	0.148
557	0.145
557	0.143
558	0.142
558	0.139
559	0.138
559	0.137
560	0.137
560	0.137
560	0.138
561	0.138
561	0.139
562	0.139
562	0.138
563	0.136
563	0.134
564	0.131
564	0.128
564	0.125
565	0.123
565	0.122
566	0.121
566	0.12
567	0.12
567	0.121
568	0.123
568	0.125
568	0.127
569	0.13
569	0.133
570	0.135
570	0.136
571	0.137
571	0.138
572	0.139
572	0.14
573	0.14
573	0.141
573	0.14
574	0.139
574	0.138
575	0.138
575	0.139
576	0.14
576	0.14
577	0.139
577	0.138
577	0.137
578	0.137
578	0.136
579	0.138
579	0.139
580	0.14
580	0.138
581	0.136
581	0.134
581	0.133
582	0.132
582	0.132
583	0.132
583	0.132
584	0.13
584	0.126
585	0.123
585	0.121
585	0.121
586	0.12
586	0.12
587	0.119
587	0.117
588	0.114
588	0.111
589	0.109
589	0.108
590	0.107
590	0.106
590	0.106
591	0.107
591	0.107
592	0.107
592	0.107
593	0.106
593	0.106
594	0.106
594	0.105
594	0.104
595	0.103
595	0.102
596	0.1
596	0.1
597	0.102
597	0.104
598	0.106
598	0.108
598	0.109
599	0.11
599	0.111
600	0.11
600	0.109
601	0.108
601	0.107
602	0.105
602	0.104
602	0.102
603	0.101
603	0.101
604	0.101
604	0.102
605	0.103
605	0.105
606	0.106
606	0.106
606	0.105
607	0.105
607	0.104
608	0.104
608	0.102
609	0.101
609	0.1
610	0.098
610	0.096
610	0.095
611	0.095
611	0.095
612	0.096
612	0.097
613	0.099
613	0.1
614	0.101
614	0.1
614	0.1
615	0.1
615	0.099
616	0.099
616	0.098
617	0.098
617	0.097
618	0.095
618	0.094
618	0.093
619	0.093
619	0.094
620	0.095
620	0.096
621	0.097
621	0.098
622	0.099
622	0.099
622	0.1
623	0.1
623	0.101
624	0.101
624	0.101
625	0.101
625	0.101
626	0.101
626	0.101
626	0.101
627	0.101
627	0.101
628	0.101
628	0.102
629	0.102
629	0.102
630	0.102
630	0.102
630	0.102
631	0.103
631	0.103
632	0.103
632	0.104
633	0.104
633	0.105
634	0.106
634	0.108
634	0.111
635	0.113
635	0.114
636	0.115
636	0.117
637	0.119
637	0.12
638	0.121
638	0.123
638	0.124
639	0.124
639	0.125
640	0.126
640	0.127
641	0.128
641	0.129
642	0.131
642	0.133
642	0.134
643	0.135
643	0.137
644	0.138
644	0.139
645	0.141
645	0.143
646	0.145
646	0.149
646	0.152
647	0.156
647	0.16
648	0.164
648	0.167
649	0.171
649	0.174
650	0.177
650	0.18
650	0.183
651	0.185
651	0.187
652	0.189
652	0.19
653	0.193
653	0.201
653	0.206
654	0.169
654	0.14
655	0.147
655	0.149
656	0.151
656	0.152
657	0.154
657	0.156
657	0.157
658	0.153
658	0.148
659	0.182
659	0.229
660	0.229
660	0.231
661	0.232
661	0.234
661	0.236
662	0.239
662	0.243
663	0.246
663	0.249
664	0.252
664	0.255
665	0.257
665	0.26
665	0.262
666	0.265
666	0.268
667	0.27
667	0.273
668	0.276
668	0.279
669	0.282
669	0.285
669	0.289
670	0.294
670	0.298
671	0.3
671	0.302
672	0.303
672	0.304
672	0.305
673	0.306
673	0.306
674	0.307
674	0.307
675	0.307
675	0.307
676	0.308
676	0.311
676	0.313
677	0.315
677	0.318
678	0.32
678	0.322
679	0.324
679	0.325
680	0.327
680	0.328
680	0.329
681	0.329
681	0.33
682	0.331
682	0.332
683	0.334
683	0.337
684	0.34
684	0.342
684	0.343
685	0.344
685	0.346
686	0.348
686	0.349
687	0.349
687	0.349
687	0.349
688	0.348
688	0.347
689	0.346
689	0.347
690	0.348
690	0.347
691	0.347
691	0.347
691	0.348
692	0.348
692	0.348
693	0.348
693	0.349
694	0.349
694	0.347
695	0.347
695	0.349
695	0.35
696	0.35
696	0.349
697	0.348
697	0.347
698	0.345
698	0.343
698	0.34
699	0.339
699	0.336
700	0.332
700	0.33
701	0.328
701	0.327
702	0.325
702	0.324
702	0.322
703	0.321
703	0.32
704	0.319
704	0.318
705	0.317
705	0.317
705	0.315
706	0.314
706	0.313
707	0.311
707	0.309
708	0.307
708	0.306
709	0.304
709	0.303
709	0.3
710	0.296
710	0.293
711	0.291
711	0.288
712	0.287
712	0.285
713	0.283
713	0.281
713	0.279
714	0.276
714	0.273
715	0.27
715	0.267
716	0.264
716	0.262
716	0.259
717	0.257
717	0.254
718	0.252
718	0.249
719	0.248
719	0.247
720	0.245
720	0.244
720	0.242
721	0.239
721	0.236
722	0.233
722	0.23
723	0.227
723	0.225
723	0.222
724	0.219
724	0.216
725	0.213
725	0.211
726	0.208
726	0.206
727	0.204
727	0.202
727	0.201
728	0.199
728	0.197
729	0.197
729	0.196
730	0.194
730	0.193
730	0.192
731	0.19
731	0.189
732	0.188
732	0.186
733	0.184
733	0.182
734	0.18
734	0.178
734	0.176
735	0.174
735	0.172
736	0.17
736	0.167
737	0.165
737	0.163
737	0.162
738	0.159
738	0.156
739	0.153
739	0.15
740	0.147
740	0.145
741	0.143
741	0.141
741	0.137
742	0.132
742	0.128
743	0.126
743	0.123
744	0.121
744	0.118
744	0.116
745	0.114
745	0.111
746	0.109
746	0.108
747	0.107
747	0.107
748	0.106
748	0.106
748	0.106
749	0.105
749	0.105
750	0.104
750	0.103
751	0.103
751	0.103
751	0.103
752	0.102
752	0.1
753	0.099
753	0.098
754	0.097
754	0.096
754	0.096
755	0.096
755	0.096
756	0.095
756	0.093
757	0.092
757	0.091
758	0.09
758	0.088
758	0.087
759	0.085
759	0.083
760	0.079
760	0.076
761	0.073
761	0.071
761	0.069
762	0.067
762	0.066
763	0.065
763	0.063
764	0.06
764	0.058
764	0.055
765	0.053
765	0.052
766	0.05
766	0.05
767	0.049
767	0.046
768	0.043
768	0.041
768	0.039
769	0.039
769	0.038
770	0.037
770	0.035
771	0.033
771	0.029
771	0.026
772	0.023
772	0.021
773	0.018
773	0.015
774	0.011
774	0.007
775	0.004
775	-0
775	-0.004
776	-0.009
776	-0.014
777	-0.019
777	-0.024
778	-0.03
778	-0.036
778	-0.042
779	-0.047
779	-0.048
780	-0.052
780	-0.056
781	-0.059
781	-0.061
781	-0.063
782	-0.066
782	-0.069
783	-0.071
783	-0.071
784	-0.072
784	-0.075
784	-0.077
785	-0.078
785	-0.08
786	-0.081
786	-0.079
787	-0.075
787	-0.071
788	-0.07
788	-0.071
788	-0.072
789	-0.074
789	-0.073
790	-0.07
790	-0.069
791	-0.07
791	-0.071
791	-0.073
792	-0.068
792	-0.059
793	-0.053
793	-0.049
794	-0.048
794	-0.05
794	-0.053
795	-0.055
795	-0.055
796	-0.055
796	-0.057
797	-0.065
797	-0.074
797	-0.08
798	-0.085
798	-0.088
799	-0.089
799	-0.088
800	-0.088
800	-0.091
801	-0.094
801	-0.095
801	-0.096
802	-0.098
802	-0.099
803	-0.1
803	-0.101
804	-0.1
804	-0.095
804	-0.089
805	-0.085
805	-0.083
806	-0.081
806	-0.08
807	-0.079
807	-0.078
807	-0.077
808	-0.077
808	-0.077
809	-0.081
809	-0.086
810	-0.089
810	-0.091
810	-0.094
811	-0.096
811	-0.096
812	-0.092
812	-0.09
813	-0.09
813	-0.091
813	-0.092
814	-0.092
814	-0.092
815	-0.09
815	-0.087
816	-0.085
816	-0.086
817	-0.09
817	-0.093
817	-0.094
818	-0.093
818	-0.09
819	-0.085
819	-0.083
820	-0.084
820	-0.086
820	-0.087
821	-0.087
821	-0.085
822	-0.083
822	-0.08
823	-0.076
823	-0.074
823	-0.074
824	-0.07
824	-0.064
825	-0.055
825	-0.046
826	-0.037
826	-0.029
826	-0.022
827	-0.014
827	-0.008
828	-0.002
828	0.003
829	0.008
829	0.012
829	0.015
830	0.018
830	0.021
831	0.025
831	0.028
832	0.031
832	0.033
832	0.035
833	0.037
833	0.039
834	0.041
834	0.043
835	0.044
835	0.045
835	0.045
836	0.046
836	0.047
837	0.048
837	0.048
838	0.048
838	0.048
839	0.049
839	0.049
839	0.05
840	0.051
840	0.051
841	0.052
841	0.053
842	0.054
842	0.056
842	0.057
843	0.058
843	0.06
844	0.061
844	0.062
845	0.064
845	0.066
845	0.067
846	0.069
846	0.07
847	0.071
847	0.073
848	0.075
848	0.076
848	0.078
849	0.079
849	0.079
850	0.08
850	0.08
851	0.081
851	0.081
851	0.082
852	0.082
852	0.082
853	0.083
853	0.083
854	0.084
854	0.084
854	0.084
855	0.085
855	0.085
856	0.084
856	0.084
857	0.084
857	0.084
857	0.083
858	0.082
858	0.082
859	0.081
859	0.08
860	0.08
860	0.08
860	0.079
861	0.079
861	0.078
862	0.078
862	0.078
863	0.078
863	0.078
863	0.078
864	0.079
864	0.08
865	0.081
865	0.082
866	0.083
866	0.084
866	0.086
867	0.087
867	0.088
868	0.089
868	0.09
869	0.091
869	0.091
869	0.091
870	0.091
870	0.091
871	0.092
871	0.091
872	0.091
872	0.091
872	0.091
873	0.091
873	0.091
874	0.091
874	0.091
875	0.092
875	0.092
875	0.093
876	0.093
876	0.093
877	0.093
877	0.093
878	0.092
878	0.092
878	0.091
879	0.09
879	0.089
880	0.088
880	0.087
881	0.086
881	0.085
881	0.085
882	0.084
882	0.084
883	0.085
883	0.085
884	0.085
884	0.086
884	0.087
885	0.088
885	0.089
886	0.089
886	0.09
887	0.09
887	0.091
887	0.091
888	0.091
888	0.092
889	0.092
889	0.092
890	0.093
890	0.093
890	0.093
891	0.093
891	0.093
892	0.093
892	0.093
893	0.094
893	0.094
893	0.094
894	0.094
894	0.095
895	0.095
895	0.095
895	0.096
896	0.096
896	0.097
897	0.097
897	0.098
898	0.098
898	0.098
898	0.098
899	0.098
899	0.098
900	0.098
900	0.098
901	0.098
901	0.099
901	0.099
902	0.099
902	0.1
903	0.1
903	0.1
904	0.1
904	0.1
904	0.099
905	0.099
905	0.099
906	0.099
906	0.098
907	0.098
907	0.098
907	0.098
908	0.098
908	0.099
909	0.099
909	0.1
910	0.1
910	0.1
910	0.1
911	0.1
911	0.1
912	0.101
912	0.101
913	0.101
913	0.101
913	0.102
914	0.102
914	0.102
915	0.102
915	0.102
916	0.102
916	0.101
916	0.1
917	0.099
917	0.098
918	0.098
918	0.097
918	0.096
919	0.096
919	0.096
920	0.095
920	0.095
921	0.095
921	0.095
921	0.095
922	0.094
922	0.094
923	0.093
923	0.092
924	0.091
924	0.091
924	0.09
925	0.089
925	0.088
926	0.087
926	0.087
927	0.086
927	0.085
927	0.085
928	0.085
928	0.085
929	0.086
929	0.087
930	0.088
930	0.089
930	0.09
931	0.091
931	0.093
932	0.094
932	0.096
933	0.097
933	0.099
933	0.1
934	0.101
934	0.102
935	0.103
935	0.104
935	0.104
936	0.105
936	0.106
937	0.106
937	0.107
938	0.107
938	0.108
938	0.109
939	0.11
939	0.11
940	0.111
940	0.112
941	0.113
941	0.113
941	0.113
942	0.113
942	0.113
943	0.112
943	0.112
944	0.111
944	0.111
944	0.111
945	0.112
945	0.112
946	0.113
946	0.113
946	0.114
947	0.114
947	0.114
948	0.114
948	0.114
949	0.114
949	0.114
949	0.113
950	0.113
950	0.112
951	0.112
951	0.111
952	0.11
952	0.11
952	0.11
953	0.11
953	0.11
954	0.11
954	0.11
955	0.111
955	0.111
955	0.112
956	0.113
956	0.114
957	0.114
957	0.114
957	0.114
958	0.114
958	0.114
959	0.114
959	0.113
960	0.112
960	0.111
960	0.11
961	0.109
961	0.109
962	0.108
962	0.108
963	0.108
963	0.109
963	0.109
964	0.109
964	0.109
965	0.11
965	0.111
966	0.111
966	0.112
966	0.113
967	0.113
967	0.113
968	0.112
968	0.112
968	0.111
969	0.11
969	0.109
970	0.109
970	0.108
971	0.107
971	0.106
971	0.105
972	0.105
972	0.105
973	0.105
973	0.105
974	0.106
974	0.107
974	0.107
975	0.108
975	0.108
976	0.109
976	0.11
976	0.11
977	0.109
977	0.109
978	0.108
978	0.108
979	0.107
979	0.107
979	0.106
980	0.105
980	0.104
981	0.104
981	0.103
982	0.103
982	0.103
982	0.103
983	0.103
983	0.103
984	0.103
984	0.103
984	0.102
985	0.102
985	0.101
986	0.1
986	0.099
987	0.098
987	0.097
987	0.097
988	0.096
988	0.096
989	0.095
989	0.095
990	0.095
990	0.095
990	0.096
991	0.096
991	0.097
992	0.098
992	0.099
992	0.099
993	0.1
993	0.1
994	0.1
994	0.1
995	0.1
995	0.1
995	0.099
996	0.099
996	0.098
997	0.098
997	0.098
997	0.098
998	0.098
998	0.098
999	0.099
999	0.099
1000	0.099
1000	0.1
1000	0.1
1001	0.101
1001	0.102
1002	0.102
1002	0.102
1003	0.102
1003	0.103
1003	0.103
1004	0.103
1004	0.103
1005	0.103
1005	0.103
1005	0.102
1006	0.102
1006	0.102
1007	0.101
1007	0.101
1008	0.1
1008	0.1
1008	0.1
1009	0.1
1009	0.1
1010	0.101
1010	0.101
1010	0.101
1011	0.101
1011	0.101
1012	0.102
1012	0.102
1013	0.102
1013	0.102
1013	0.102
1014	0.101
1014	0.101
1015	0.1
1015	0.1
1016	0.1
1016	0.1
1016	0.099
1017	0.098
1017	0.098
1018	0.098
1018	0.097
1018	0.097
1019	0.097
1019	0.097
1020	0.096
1020	0.096
1021	0.095
1021	0.095
1021	0.095
1022	0.095
1022	0.095
1023	0.094
1023	0.094
1023	0.094
1024	0.093
1024	0.093
1025	0.092
1025	0.091
1026	0.091
1026	0.09
1026	0.09
1027	0.09
1027	0.089
1028	0.089
1028	0.089
1028	0.089
1029	0.089
1029	0.089
1030	0.09
1030	0.09
1031	0.09
1031	0.091
1031	0.091
1032	0.091
1032	0.092
1033	0.093
1033	0.093
1033	0.094
1034	0.094
1034	0.094
1035	0.095
1035	0.095
1036	0.096
1036	0.096
1036	0.097
1037	0.098
1037	0.099
1038	0.1
1038	0.102
1039	0.103
1039	0.104
1039	0.106
1040	0.107
1040	0.108
1041	0.108
1041	0.108
1041	0.109
1042	0.108
1042	0.108
1043	0.108
1043	0.108
1044	0.108
1044	0.107
1044	0.107
1045	0.106
1045	0.106
1046	0.105
1046	0.105
1046	0.104
1047	0.104
1047	0.104
1048	0.104
1048	0.104
1049	0.103
1049	0.103
1049	0.103
1050	0.103
1050	0.103
1051	0.104
1051	0.104
1051	0.105
1052	0.105
1052	0.106
1053	0.106
1053	0.107
1053	0.108
1054	0.109
1054	0.109
1055	0.111
1055	0.111
1056	0.111
1056	0.111
1056	0.112
1057	0.113
1057	0.114
1058	0.115
1058	0.117
1058	0.118
1059	0.12
1059	0.121
1060	0.123
1060	0.125
1061	0.127
1061	0.129
1061	0.131
1062	0.132
1062	0.133
1063	0.134
1063	0.135
1063	0.135
1064	0.137
1064	0.138
1065	0.14
1065	0.141
1066	0.142
1066	0.144
1066	0.146
1067	0.148
1067	0.15
1068	0.151
1068	0.154
1068	0.155
1069	0.156
1069	0.157
1070	0.159
1070	0.161
1071	0.163
1071	0.165
1071	0.166
1072	0.169
1072	0.172
1073	0.174
1073	0.177
1073	0.179
1074	0.182
1074	0.185
1075	0.186
1075	0.188
1076	0.19
1076	0.192
1076	0.194
1077	0.197
1077	0.199
1078	0.202
1078	0.206
1078	0.209
1079	0.213
1079	0.217
1080	0.221
1080	0.225
1080	0.228
1081	0.233
1081	0.236
1082	0.24
1082	0.244
1083	0.247
1083	0.252
1083	0.258
1084	0.262
1084	0.268
1085	0.274
1085	0.282
1085	0.289
1086	0.296
1086	0.302
1087	0.309
1087	0.318
1088	0.326
1088	0.334
1088	0.344
1089	0.354
1089	0.365
1090	0.378
1090	0.392
1090	0.408
1091	0.425
1091	0.445
1092	0.465
1092	0.487
1092	0.51
1093	0.534
1093	0.564
1094	0.594
1094	0.629
1095	0.666
1095	0.712
1095	0.773
1096	0.837
1096	0.918
1097	1.038
1097	1.194
1097	1.469
1098	2.376
1098	-0
1099	-0
1099	-0
1100	-0
1100	-0
1100	-0
1101	-0
1101	-0
1102	-0
1102	-0
1102	-0
1103	-0
1103	-0
1104	-0
1104	-0
1104	-0
1105	-0
1105	-0
1106	-0
1106	-0
1107	-0
1107	-0
1107	-0
1108	-0
1108	-0
1109	-0
1109	-0
1109	-0
1110	-0
1110	-0
1111	-0
1111	-0
