Data from 15c-2-5a_Absorbance__421__01328.txt Node

Date: Tue Jan 16 11:41:16 CET 2024
User: Marek
Spectrometer: MAYP115816
Trigger mode: 0
Integration Time (sec): 2.000000E-1
Scans to average: 10
Electric dark correction enabled: true
Nonlinearity correction enabled: true
Boxcar width: 5
XAxis mode: Wavelengths
Number of Pixels in Spectrum: 2068
>>>>>Begin Spectral Data<<<<<
199	-2.219
199	-2.03
200	-1.894
200	-1.774
201	-1.699
201	-1.647
202	-1.57
202	-1.508
203	-1.458
203	-1.409
204	-1.382
204	-1.356
205	-1.336
205	-1.325
205	-1.321
206	-1.316
206	-1.313
207	-1.31
207	-1.31
208	-1.306
208	-1.305
209	-1.3
209	-1.298
210	-1.297
210	-1.294
211	-1.293
211	-1.293
212	-1.291
212	-1.29
213	-1.288
213	-1.287
213	-1.287
214	-1.285
214	-1.284
215	-1.283
215	-1.283
216	-1.279
216	-1.278
217	-1.275
217	-1.273
218	-1.269
218	-1.265
219	-1.26
219	-1.259
220	-1.257
220	-1.255
221	-1.251
221	-1.249
221	-1.245
222	-1.24
222	-1.235
223	-1.23
223	-1.225
224	-1.219
224	-1.211
225	-1.202
225	-1.192
226	-1.184
226	-1.174
227	-1.16
227	-1.147
228	-1.131
228	-1.115
229	-1.094
229	-1.07
229	-1.045
230	-1.015
230	-0.983
231	-0.948
231	-0.909
232	-0.869
232	-0.825
233	-0.779
233	-0.731
234	-0.683
234	-0.633
235	-0.583
235	-0.534
236	-0.485
236	-0.436
236	-0.389
237	-0.343
237	-0.298
238	-0.256
238	-0.215
239	-0.176
239	-0.14
240	-0.105
240	-0.073
241	-0.043
241	-0.015
242	0.012
242	0.037
243	0.059
243	0.081
243	0.1
244	0.119
244	0.135
245	0.151
245	0.165
246	0.179
246	0.192
247	0.204
247	0.215
248	0.225
248	0.235
249	0.244
249	0.252
250	0.26
250	0.267
250	0.274
251	0.281
251	0.287
252	0.293
252	0.298
253	0.303
253	0.308
254	0.312
254	0.316
255	0.32
255	0.323
256	0.327
256	0.33
257	0.333
257	0.335
258	0.338
258	0.34
258	0.342
259	0.344
259	0.345
260	0.347
260	0.348
261	0.349
261	0.35
262	0.351
262	0.351
263	0.352
263	0.353
264	0.353
264	0.354
265	0.354
265	0.355
265	0.355
266	0.355
266	0.355
267	0.355
267	0.355
268	0.355
268	0.354
269	0.353
269	0.353
270	0.352
270	0.351
271	0.35
271	0.349
272	0.348
272	0.348
272	0.347
273	0.346
273	0.345
274	0.344
274	0.343
275	0.342
275	0.341
276	0.34
276	0.339
277	0.337
277	0.335
278	0.333
278	0.332
278	0.33
279	0.328
279	0.327
280	0.326
280	0.325
281	0.325
281	0.324
282	0.323
282	0.323
283	0.323
283	0.323
284	0.323
284	0.322
285	0.321
285	0.32
285	0.319
286	0.318
286	0.317
287	0.316
287	0.316
288	0.315
288	0.314
289	0.313
289	0.312
290	0.312
290	0.311
291	0.31
291	0.309
292	0.309
292	0.308
292	0.307
293	0.306
293	0.305
294	0.305
294	0.304
295	0.303
295	0.303
296	0.302
296	0.301
297	0.301
297	0.3
298	0.299
298	0.299
298	0.298
299	0.298
299	0.297
300	0.296
300	0.296
301	0.295
301	0.294
302	0.294
302	0.293
303	0.293
303	0.292
304	0.292
304	0.291
305	0.29
305	0.29
305	0.289
306	0.288
306	0.288
307	0.287
307	0.286
308	0.285
308	0.284
309	0.284
309	0.283
310	0.282
310	0.281
311	0.281
311	0.28
311	0.279
312	0.278
312	0.277
313	0.277
313	0.276
314	0.275
314	0.274
315	0.273
315	0.272
316	0.271
316	0.27
317	0.27
317	0.269
318	0.268
318	0.267
318	0.266
319	0.265
319	0.264
320	0.263
320	0.262
321	0.261
321	0.26
322	0.26
322	0.259
323	0.258
323	0.257
324	0.256
324	0.255
324	0.254
325	0.254
325	0.253
326	0.252
326	0.251
327	0.251
327	0.25
328	0.249
328	0.248
329	0.247
329	0.246
330	0.245
330	0.245
330	0.244
331	0.243
331	0.242
332	0.241
332	0.24
333	0.239
333	0.239
334	0.238
334	0.237
335	0.236
335	0.235
336	0.234
336	0.233
336	0.232
337	0.232
337	0.231
338	0.23
338	0.229
339	0.229
339	0.228
340	0.228
340	0.227
341	0.226
341	0.225
342	0.225
342	0.224
342	0.223
343	0.223
343	0.222
344	0.221
344	0.221
345	0.22
345	0.219
346	0.219
346	0.218
347	0.217
347	0.216
348	0.216
348	0.215
348	0.214
349	0.214
349	0.213
350	0.212
350	0.211
351	0.21
351	0.209
352	0.208
352	0.207
353	0.206
353	0.205
354	0.204
354	0.203
354	0.201
355	0.2
355	0.199
356	0.198
356	0.197
357	0.196
357	0.196
358	0.196
358	0.196
359	0.196
359	0.197
360	0.198
360	0.199
360	0.2
361	0.2
361	0.201
362	0.201
362	0.201
363	0.202
363	0.201
364	0.201
364	0.2
365	0.2
365	0.199
366	0.199
366	0.199
366	0.198
367	0.198
367	0.198
368	0.197
368	0.197
369	0.196
369	0.196
370	0.196
370	0.195
371	0.194
371	0.194
372	0.193
372	0.193
372	0.193
373	0.192
373	0.192
374	0.192
374	0.192
375	0.192
375	0.192
376	0.192
376	0.192
377	0.193
377	0.193
378	0.193
378	0.194
378	0.194
379	0.194
379	0.194
380	0.195
380	0.195
381	0.195
381	0.194
382	0.194
382	0.194
383	0.193
383	0.193
383	0.192
384	0.192
384	0.191
385	0.191
385	0.191
386	0.191
386	0.191
387	0.191
387	0.191
388	0.191
388	0.191
389	0.19
389	0.19
389	0.19
390	0.19
390	0.19
391	0.191
391	0.191
392	0.192
392	0.191
393	0.192
393	0.192
394	0.192
394	0.192
394	0.192
395	0.191
395	0.191
396	0.191
396	0.191
397	0.191
397	0.191
398	0.191
398	0.191
399	0.191
399	0.191
400	0.191
400	0.19
400	0.19
401	0.189
401	0.188
402	0.187
402	0.186
403	0.186
403	0.185
404	0.185
404	0.185
405	0.185
405	0.185
405	0.184
406	0.184
406	0.184
407	0.184
407	0.184
408	0.184
408	0.183
409	0.182
409	0.182
410	0.182
410	0.182
411	0.182
411	0.181
411	0.181
412	0.18
412	0.18
413	0.18
413	0.18
414	0.179
414	0.179
415	0.179
415	0.178
416	0.178
416	0.178
416	0.178
417	0.177
417	0.177
418	0.177
418	0.177
419	0.178
419	0.179
420	0.18
420	0.181
421	0.181
421	0.182
421	0.182
422	0.182
422	0.183
423	0.183
423	0.183
424	0.182
424	0.181
425	0.18
425	0.179
426	0.178
426	0.178
427	0.177
427	0.177
427	0.178
428	0.179
428	0.179
429	0.18
429	0.181
430	0.181
430	0.182
431	0.181
431	0.181
432	0.181
432	0.18
432	0.179
433	0.177
433	0.176
434	0.175
434	0.175
435	0.175
435	0.175
436	0.175
436	0.175
437	0.175
437	0.176
437	0.176
438	0.176
438	0.175
439	0.175
439	0.175
440	0.174
440	0.174
441	0.174
441	0.175
442	0.175
442	0.176
442	0.176
443	0.177
443	0.178
444	0.178
444	0.179
445	0.179
445	0.18
446	0.18
446	0.179
447	0.179
447	0.179
447	0.178
448	0.178
448	0.178
449	0.178
449	0.177
450	0.177
450	0.176
451	0.176
451	0.175
452	0.175
452	0.174
452	0.174
453	0.173
453	0.172
454	0.171
454	0.171
455	0.17
455	0.17
456	0.17
456	0.169
457	0.169
457	0.169
458	0.169
458	0.169
458	0.17
459	0.17
459	0.17
460	0.17
460	0.169
461	0.169
461	0.168
462	0.168
462	0.168
463	0.168
463	0.168
463	0.169
464	0.169
464	0.17
465	0.17
465	0.17
466	0.17
466	0.17
467	0.17
467	0.17
467	0.169
468	0.167
468	0.165
469	0.163
469	0.162
470	0.161
470	0.16
471	0.16
471	0.16
472	0.16
472	0.16
472	0.16
473	0.162
473	0.163
474	0.164
474	0.165
475	0.166
475	0.167
476	0.167
476	0.168
477	0.168
477	0.168
477	0.168
478	0.169
478	0.169
479	0.17
479	0.17
480	0.171
480	0.172
481	0.173
481	0.173
482	0.174
482	0.176
482	0.177
483	0.179
483	0.182
484	0.186
484	0.189
485	0.191
485	0.192
486	0.194
486	0.195
487	0.196
487	0.196
487	0.197
488	0.196
488	0.194
489	0.192
489	0.19
490	0.188
490	0.187
491	0.186
491	0.186
492	0.186
492	0.187
492	0.187
493	0.188
493	0.189
494	0.19
494	0.193
495	0.195
495	0.196
496	0.197
496	0.198
496	0.199
497	0.2
497	0.201
498	0.201
498	0.202
499	0.202
499	0.202
500	0.202
500	0.203
501	0.205
501	0.207
501	0.208
502	0.21
502	0.211
503	0.213
503	0.214
504	0.216
504	0.216
505	0.216
505	0.216
506	0.216
506	0.217
506	0.217
507	0.217
507	0.217
508	0.217
508	0.217
509	0.217
509	0.218
510	0.218
510	0.219
511	0.219
511	0.218
511	0.218
512	0.218
512	0.218
513	0.217
513	0.217
514	0.216
514	0.215
515	0.214
515	0.213
515	0.212
516	0.211
516	0.211
517	0.211
517	0.211
518	0.212
518	0.212
519	0.211
519	0.209
520	0.207
520	0.205
520	0.202
521	0.2
521	0.197
522	0.194
522	0.19
523	0.188
523	0.187
524	0.186
524	0.188
524	0.189
525	0.192
525	0.195
526	0.198
526	0.201
527	0.205
527	0.209
528	0.211
528	0.213
529	0.215
529	0.217
529	0.217
530	0.218
530	0.219
531	0.219
531	0.22
532	0.22
532	0.219
533	0.22
533	0.22
533	0.22
534	0.22
534	0.22
535	0.219
535	0.218
536	0.218
536	0.218
537	0.217
537	0.217
538	0.217
538	0.216
538	0.214
539	0.213
539	0.213
540	0.212
540	0.212
541	0.21
541	0.208
542	0.207
542	0.205
542	0.204
543	0.202
543	0.202
544	0.2
544	0.199
545	0.198
545	0.198
546	0.197
546	0.197
547	0.196
547	0.194
547	0.191
548	0.189
548	0.186
549	0.184
549	0.182
550	0.18
550	0.178
551	0.176
551	0.173
551	0.171
552	0.17
552	0.169
553	0.169
553	0.169
554	0.169
554	0.168
555	0.166
555	0.164
556	0.161
556	0.158
556	0.155
557	0.152
557	0.15
558	0.148
558	0.146
559	0.144
559	0.144
560	0.144
560	0.144
560	0.143
561	0.144
561	0.144
562	0.144
562	0.144
563	0.142
563	0.14
564	0.138
564	0.134
564	0.132
565	0.13
565	0.129
566	0.127
566	0.126
567	0.126
567	0.127
568	0.129
568	0.131
568	0.133
569	0.136
569	0.139
570	0.141
570	0.142
571	0.143
571	0.144
572	0.145
572	0.145
573	0.146
573	0.146
573	0.145
574	0.144
574	0.143
575	0.143
575	0.144
576	0.145
576	0.145
577	0.144
577	0.142
577	0.142
578	0.141
578	0.141
579	0.142
579	0.143
580	0.144
580	0.143
581	0.14
581	0.138
581	0.136
582	0.136
582	0.136
583	0.136
583	0.136
584	0.134
584	0.13
585	0.127
585	0.126
585	0.125
586	0.125
586	0.125
587	0.124
587	0.122
588	0.119
588	0.116
589	0.114
589	0.113
590	0.112
590	0.111
590	0.111
591	0.112
591	0.112
592	0.112
592	0.111
593	0.111
593	0.111
594	0.11
594	0.109
594	0.108
595	0.108
595	0.106
596	0.105
596	0.105
597	0.107
597	0.109
598	0.111
598	0.113
598	0.115
599	0.116
599	0.116
600	0.116
600	0.115
601	0.113
601	0.112
602	0.11
602	0.109
602	0.107
603	0.106
603	0.105
604	0.106
604	0.106
605	0.108
605	0.109
606	0.11
606	0.11
606	0.11
607	0.109
607	0.108
608	0.108
608	0.106
609	0.105
609	0.104
610	0.103
610	0.101
610	0.1
611	0.099
611	0.1
612	0.101
612	0.102
613	0.103
613	0.105
614	0.105
614	0.105
614	0.105
615	0.105
615	0.104
616	0.104
616	0.103
617	0.102
617	0.101
618	0.1
618	0.099
618	0.098
619	0.098
619	0.099
620	0.1
620	0.102
621	0.103
621	0.103
622	0.104
622	0.105
622	0.105
623	0.105
623	0.106
624	0.107
624	0.107
625	0.107
625	0.107
626	0.107
626	0.107
626	0.107
627	0.107
627	0.107
628	0.107
628	0.108
629	0.108
629	0.108
630	0.108
630	0.108
630	0.108
631	0.109
631	0.109
632	0.109
632	0.11
633	0.11
633	0.111
634	0.112
634	0.114
634	0.116
635	0.118
635	0.119
636	0.121
636	0.123
637	0.124
637	0.126
638	0.127
638	0.129
638	0.13
639	0.131
639	0.131
640	0.132
640	0.134
641	0.135
641	0.136
642	0.138
642	0.14
642	0.141
643	0.143
643	0.144
644	0.146
644	0.148
645	0.15
645	0.152
646	0.154
646	0.158
646	0.161
647	0.165
647	0.169
648	0.172
648	0.176
649	0.179
649	0.182
650	0.186
650	0.189
650	0.192
651	0.194
651	0.196
652	0.198
652	0.2
653	0.202
653	0.211
653	0.217
654	0.177
654	0.147
655	0.153
655	0.156
656	0.157
656	0.159
657	0.161
657	0.162
657	0.163
658	0.16
658	0.153
659	0.189
659	0.238
660	0.238
660	0.239
661	0.241
661	0.243
661	0.245
662	0.248
662	0.251
663	0.254
663	0.258
664	0.261
664	0.264
665	0.266
665	0.269
665	0.271
666	0.274
666	0.277
667	0.28
667	0.282
668	0.285
668	0.288
669	0.291
669	0.294
669	0.298
670	0.303
670	0.307
671	0.309
671	0.311
672	0.313
672	0.314
672	0.315
673	0.316
673	0.317
674	0.318
674	0.318
675	0.317
675	0.317
676	0.319
676	0.321
676	0.323
677	0.325
677	0.328
678	0.33
678	0.332
679	0.333
679	0.335
680	0.337
680	0.339
680	0.339
681	0.339
681	0.34
682	0.341
682	0.342
683	0.343
683	0.346
684	0.349
684	0.35
684	0.351
685	0.352
685	0.354
686	0.356
686	0.357
687	0.357
687	0.357
687	0.356
688	0.355
688	0.354
689	0.354
689	0.355
690	0.355
690	0.355
691	0.355
691	0.355
691	0.356
692	0.356
692	0.355
693	0.355
693	0.356
694	0.356
694	0.354
695	0.354
695	0.356
695	0.357
696	0.356
696	0.355
697	0.355
697	0.353
698	0.352
698	0.35
698	0.347
699	0.346
699	0.343
700	0.339
700	0.336
701	0.335
701	0.333
702	0.331
702	0.33
702	0.329
703	0.327
703	0.326
704	0.324
704	0.324
705	0.323
705	0.322
705	0.321
706	0.32
706	0.318
707	0.316
707	0.314
708	0.312
708	0.31
709	0.309
709	0.307
709	0.303
710	0.3
710	0.297
711	0.294
711	0.292
712	0.29
712	0.289
713	0.287
713	0.285
713	0.283
714	0.28
714	0.278
715	0.275
715	0.273
716	0.27
716	0.267
716	0.264
717	0.262
717	0.26
718	0.257
718	0.254
719	0.253
719	0.252
720	0.25
720	0.248
720	0.246
721	0.244
721	0.241
722	0.238
722	0.235
723	0.232
723	0.23
723	0.228
724	0.225
724	0.222
725	0.219
725	0.216
726	0.213
726	0.211
727	0.209
727	0.206
727	0.205
728	0.202
728	0.2
729	0.2
729	0.199
730	0.197
730	0.196
730	0.195
731	0.193
731	0.192
732	0.191
732	0.19
733	0.188
733	0.186
734	0.184
734	0.181
734	0.18
735	0.178
735	0.176
736	0.173
736	0.171
737	0.169
737	0.168
737	0.166
738	0.164
738	0.16
739	0.158
739	0.155
740	0.152
740	0.15
741	0.149
741	0.146
741	0.143
742	0.138
742	0.133
743	0.13
743	0.127
744	0.125
744	0.122
744	0.12
745	0.117
745	0.114
746	0.111
746	0.11
747	0.109
747	0.108
748	0.108
748	0.107
748	0.107
749	0.106
749	0.105
750	0.105
750	0.104
751	0.103
751	0.104
751	0.104
752	0.103
752	0.102
753	0.101
753	0.1
754	0.099
754	0.098
754	0.098
755	0.098
755	0.098
756	0.098
756	0.096
757	0.095
757	0.094
758	0.093
758	0.091
758	0.09
759	0.089
759	0.086
760	0.083
760	0.079
761	0.077
761	0.075
761	0.073
762	0.071
762	0.07
763	0.069
763	0.067
764	0.064
764	0.061
764	0.059
765	0.057
765	0.055
766	0.053
766	0.053
767	0.052
767	0.05
768	0.047
768	0.045
768	0.044
769	0.043
769	0.043
770	0.042
770	0.041
771	0.038
771	0.035
771	0.032
772	0.029
772	0.027
773	0.025
773	0.021
774	0.018
774	0.014
775	0.011
775	0.007
775	0.003
776	-0.001
776	-0.005
777	-0.01
777	-0.015
778	-0.021
778	-0.027
778	-0.033
779	-0.037
779	-0.04
780	-0.044
780	-0.049
781	-0.053
781	-0.057
781	-0.06
782	-0.063
782	-0.067
783	-0.069
783	-0.071
784	-0.072
784	-0.075
784	-0.077
785	-0.078
785	-0.081
786	-0.081
786	-0.079
787	-0.075
787	-0.071
788	-0.07
788	-0.071
788	-0.072
789	-0.074
789	-0.074
790	-0.071
790	-0.069
791	-0.07
791	-0.072
791	-0.074
792	-0.068
792	-0.059
793	-0.053
793	-0.05
794	-0.048
794	-0.05
794	-0.053
795	-0.055
795	-0.055
796	-0.055
796	-0.057
797	-0.065
797	-0.074
797	-0.08
798	-0.085
798	-0.088
799	-0.089
799	-0.089
800	-0.089
800	-0.091
801	-0.094
801	-0.095
801	-0.096
802	-0.098
802	-0.099
803	-0.1
803	-0.101
804	-0.1
804	-0.095
804	-0.089
805	-0.085
805	-0.083
806	-0.081
806	-0.08
807	-0.079
807	-0.078
807	-0.078
808	-0.077
808	-0.077
809	-0.081
809	-0.086
810	-0.089
810	-0.091
810	-0.094
811	-0.096
811	-0.097
812	-0.093
812	-0.09
813	-0.09
813	-0.091
813	-0.092
814	-0.093
814	-0.092
815	-0.09
815	-0.087
816	-0.085
816	-0.086
817	-0.09
817	-0.094
817	-0.094
818	-0.094
818	-0.09
819	-0.085
819	-0.083
820	-0.084
820	-0.086
820	-0.087
821	-0.087
821	-0.086
822	-0.084
822	-0.081
823	-0.077
823	-0.076
823	-0.076
824	-0.073
824	-0.066
825	-0.058
825	-0.049
826	-0.04
826	-0.032
826	-0.024
827	-0.017
827	-0.01
828	-0.004
828	0.001
829	0.006
829	0.011
829	0.014
830	0.017
830	0.021
831	0.025
831	0.028
832	0.031
832	0.034
832	0.036
833	0.039
833	0.041
834	0.043
834	0.044
835	0.045
835	0.046
835	0.047
836	0.048
836	0.049
837	0.05
837	0.05
838	0.05
838	0.051
839	0.051
839	0.051
839	0.051
840	0.052
840	0.053
841	0.053
841	0.055
842	0.056
842	0.057
842	0.058
843	0.06
843	0.061
844	0.063
844	0.064
845	0.065
845	0.067
845	0.068
846	0.07
846	0.071
847	0.072
847	0.074
848	0.076
848	0.077
848	0.079
849	0.08
849	0.081
850	0.082
850	0.082
851	0.082
851	0.083
851	0.083
852	0.083
852	0.083
853	0.084
853	0.084
854	0.085
854	0.085
854	0.085
855	0.085
855	0.085
856	0.085
856	0.085
857	0.085
857	0.085
857	0.084
858	0.083
858	0.082
859	0.081
859	0.08
860	0.08
860	0.079
860	0.078
861	0.078
861	0.077
862	0.076
862	0.076
863	0.076
863	0.077
863	0.077
864	0.078
864	0.078
865	0.079
865	0.08
866	0.081
866	0.082
866	0.083
867	0.085
867	0.086
868	0.087
868	0.088
869	0.089
869	0.09
869	0.09
870	0.091
870	0.091
871	0.091
871	0.092
872	0.092
872	0.092
872	0.092
873	0.092
873	0.092
874	0.092
874	0.093
875	0.093
875	0.094
875	0.095
876	0.095
876	0.096
877	0.096
877	0.096
878	0.095
878	0.095
878	0.094
879	0.093
879	0.092
880	0.091
880	0.09
881	0.089
881	0.088
881	0.088
882	0.087
882	0.087
883	0.087
883	0.087
884	0.088
884	0.088
884	0.089
885	0.09
885	0.09
886	0.091
886	0.092
887	0.093
887	0.093
887	0.094
888	0.094
888	0.094
889	0.095
889	0.095
890	0.096
890	0.096
890	0.096
891	0.097
891	0.097
892	0.097
892	0.097
893	0.097
893	0.098
893	0.098
894	0.098
894	0.098
895	0.098
895	0.098
895	0.098
896	0.098
896	0.098
897	0.099
897	0.099
898	0.099
898	0.1
898	0.1
899	0.1
899	0.1
900	0.1
900	0.1
901	0.101
901	0.101
901	0.101
902	0.101
902	0.102
903	0.102
903	0.102
904	0.102
904	0.101
904	0.101
905	0.101
905	0.101
906	0.1
906	0.1
907	0.099
907	0.099
907	0.099
908	0.1
908	0.1
909	0.1
909	0.1
910	0.101
910	0.101
910	0.101
911	0.101
911	0.101
912	0.102
912	0.102
913	0.102
913	0.102
913	0.102
914	0.103
914	0.102
915	0.102
915	0.102
916	0.102
916	0.101
916	0.101
917	0.1
917	0.099
918	0.099
918	0.098
918	0.098
919	0.097
919	0.097
920	0.097
920	0.097
921	0.096
921	0.096
921	0.096
922	0.095
922	0.095
923	0.094
923	0.094
924	0.094
924	0.094
924	0.093
925	0.093
925	0.093
926	0.092
926	0.092
927	0.091
927	0.091
927	0.091
928	0.091
928	0.091
929	0.091
929	0.092
930	0.093
930	0.094
930	0.095
931	0.096
931	0.098
932	0.1
932	0.101
933	0.103
933	0.104
933	0.106
934	0.107
934	0.108
935	0.108
935	0.109
935	0.109
936	0.109
936	0.11
937	0.11
937	0.111
938	0.112
938	0.112
938	0.113
939	0.114
939	0.115
940	0.115
940	0.116
941	0.117
941	0.117
941	0.116
942	0.116
942	0.116
943	0.115
943	0.114
944	0.114
944	0.113
944	0.113
945	0.113
945	0.114
946	0.114
946	0.114
946	0.114
947	0.114
947	0.114
948	0.114
948	0.114
949	0.114
949	0.114
949	0.113
950	0.113
950	0.112
951	0.112
951	0.111
952	0.11
952	0.11
952	0.109
953	0.109
953	0.108
954	0.108
954	0.108
955	0.109
955	0.109
955	0.11
956	0.111
956	0.112
957	0.112
957	0.113
957	0.113
958	0.113
958	0.113
959	0.113
959	0.113
960	0.112
960	0.112
960	0.111
961	0.11
961	0.109
962	0.109
962	0.108
963	0.108
963	0.108
963	0.108
964	0.108
964	0.108
965	0.109
965	0.109
966	0.11
966	0.11
966	0.11
967	0.11
967	0.109
968	0.109
968	0.108
968	0.107
969	0.106
969	0.105
970	0.105
970	0.104
971	0.103
971	0.102
971	0.102
972	0.101
972	0.101
973	0.102
973	0.102
974	0.102
974	0.103
974	0.103
975	0.104
975	0.105
976	0.105
976	0.106
976	0.106
977	0.106
977	0.106
978	0.106
978	0.106
979	0.106
979	0.106
979	0.106
980	0.105
980	0.104
981	0.104
981	0.104
982	0.104
982	0.104
982	0.104
983	0.104
983	0.103
984	0.103
984	0.103
984	0.103
985	0.103
985	0.103
986	0.102
986	0.101
987	0.101
987	0.1
987	0.1
988	0.099
988	0.099
989	0.098
989	0.098
990	0.098
990	0.098
990	0.098
991	0.099
991	0.099
992	0.1
992	0.101
992	0.101
993	0.101
993	0.101
994	0.101
994	0.101
995	0.101
995	0.101
995	0.1
996	0.099
996	0.099
997	0.098
997	0.098
997	0.098
998	0.098
998	0.098
999	0.099
999	0.099
1000	0.1
1000	0.1
1000	0.101
1001	0.102
1001	0.103
1002	0.103
1002	0.104
1003	0.105
1003	0.105
1003	0.105
1004	0.105
1004	0.105
1005	0.105
1005	0.105
1005	0.105
1006	0.105
1006	0.105
1007	0.104
1007	0.103
1008	0.103
1008	0.103
1008	0.102
1009	0.102
1009	0.102
1010	0.102
1010	0.102
1010	0.102
1011	0.102
1011	0.103
1012	0.103
1012	0.103
1013	0.103
1013	0.103
1013	0.103
1014	0.102
1014	0.102
1015	0.101
1015	0.101
1016	0.101
1016	0.1
1016	0.099
1017	0.099
1017	0.098
1018	0.098
1018	0.097
1018	0.097
1019	0.096
1019	0.096
1020	0.095
1020	0.095
1021	0.095
1021	0.094
1021	0.094
1022	0.094
1022	0.094
1023	0.093
1023	0.093
1023	0.093
1024	0.092
1024	0.092
1025	0.091
1025	0.091
1026	0.09
1026	0.09
1026	0.09
1027	0.09
1027	0.09
1028	0.09
1028	0.091
1028	0.091
1029	0.091
1029	0.092
1030	0.092
1030	0.093
1031	0.094
1031	0.094
1031	0.095
1032	0.095
1032	0.096
1033	0.096
1033	0.097
1033	0.097
1034	0.097
1034	0.097
1035	0.097
1035	0.097
1036	0.098
1036	0.098
1036	0.098
1037	0.099
1037	0.099
1038	0.1
1038	0.101
1039	0.102
1039	0.103
1039	0.104
1040	0.105
1040	0.105
1041	0.106
1041	0.106
1041	0.106
1042	0.105
1042	0.105
1043	0.105
1043	0.104
1044	0.103
1044	0.103
1044	0.102
1045	0.101
1045	0.101
1046	0.1
1046	0.1
1046	0.1
1047	0.1
1047	0.1
1048	0.1
1048	0.1
1049	0.099
1049	0.099
1049	0.099
1050	0.099
1050	0.098
1051	0.099
1051	0.099
1051	0.099
1052	0.099
1052	0.099
1053	0.099
1053	0.1
1053	0.1
1054	0.1
1054	0.101
1055	0.101
1055	0.101
1056	0.102
1056	0.102
1056	0.102
1057	0.103
1057	0.104
1058	0.106
1058	0.107
1058	0.11
1059	0.112
1059	0.113
1060	0.115
1060	0.117
1061	0.12
1061	0.122
1061	0.124
1062	0.125
1062	0.126
1063	0.127
1063	0.129
1063	0.129
1064	0.131
1064	0.133
1065	0.134
1065	0.135
1066	0.137
1066	0.138
1066	0.14
1067	0.142
1067	0.144
1068	0.145
1068	0.146
1068	0.147
1069	0.148
1069	0.149
1070	0.15
1070	0.152
1071	0.154
1071	0.156
1071	0.157
1072	0.159
1072	0.162
1073	0.165
1073	0.168
1073	0.17
1074	0.173
1074	0.176
1075	0.177
1075	0.179
1076	0.181
1076	0.184
1076	0.186
1077	0.188
1077	0.19
1078	0.193
1078	0.196
1078	0.199
1079	0.202
1079	0.206
1080	0.209
1080	0.213
1080	0.215
1081	0.219
1081	0.222
1082	0.227
1082	0.231
1083	0.235
1083	0.24
1083	0.245
1084	0.25
1084	0.256
1085	0.262
1085	0.269
1085	0.275
1086	0.281
1086	0.286
1087	0.293
1087	0.3
1088	0.305
1088	0.313
1088	0.322
1089	0.331
1089	0.341
1090	0.353
1090	0.365
1090	0.38
1091	0.395
1091	0.413
1092	0.433
1092	0.455
1092	0.476
1093	0.498
1093	0.525
1094	0.552
1094	0.583
1095	0.616
1095	0.656
1095	0.709
1096	0.765
1096	0.832
1097	0.92
1097	1.026
1097	1.187
1098	1.458
1098	2.541
1099	-0
1099	-0
1100	-0
1100	-0
1100	-0
1101	-0
1101	-0
1102	-0
1102	-0
1102	-0
1103	-0
1103	-0
1104	-0
1104	-0
1104	-0
1105	-0
1105	-0
1106	-0
1106	-0
1107	-0
1107	-0
1107	-0
1108	-0
1108	-0
1109	-0
1109	-0
1109	-0
1110	-0
1110	-0
1111	-0
1111	-0
