Data from 15c-2-5a_Absorbance__30__00937.txt Node

Date: Tue Jan 16 11:28:14 CET 2024
User: Marek
Spectrometer: MAYP115816
Trigger mode: 0
Integration Time (sec): 2.000000E-1
Scans to average: 10
Electric dark correction enabled: true
Nonlinearity correction enabled: true
Boxcar width: 5
XAxis mode: Wavelengths
Number of Pixels in Spectrum: 2068
>>>>>Begin Spectral Data<<<<<
199	-2.232
199	-2.043
200	-1.907
200	-1.787
201	-1.712
201	-1.66
202	-1.584
202	-1.521
203	-1.471
203	-1.422
204	-1.394
204	-1.369
205	-1.349
205	-1.337
205	-1.334
206	-1.329
206	-1.325
207	-1.323
207	-1.322
208	-1.318
208	-1.317
209	-1.313
209	-1.311
210	-1.31
210	-1.307
211	-1.305
211	-1.305
212	-1.303
212	-1.303
213	-1.3
213	-1.299
213	-1.3
214	-1.298
214	-1.296
215	-1.295
215	-1.296
216	-1.292
216	-1.291
217	-1.288
217	-1.286
218	-1.282
218	-1.278
219	-1.274
219	-1.273
220	-1.27
220	-1.269
221	-1.264
221	-1.263
221	-1.258
222	-1.254
222	-1.249
223	-1.244
223	-1.239
224	-1.233
224	-1.224
225	-1.215
225	-1.206
226	-1.197
226	-1.188
227	-1.174
227	-1.161
228	-1.144
228	-1.127
229	-1.106
229	-1.083
229	-1.058
230	-1.028
230	-0.996
231	-0.961
231	-0.921
232	-0.881
232	-0.838
233	-0.792
233	-0.745
234	-0.697
234	-0.647
235	-0.597
235	-0.548
236	-0.499
236	-0.451
236	-0.403
237	-0.357
237	-0.313
238	-0.271
238	-0.231
239	-0.192
239	-0.155
240	-0.121
240	-0.088
241	-0.058
241	-0.03
242	-0.004
242	0.021
243	0.043
243	0.065
243	0.084
244	0.103
244	0.119
245	0.135
245	0.149
246	0.163
246	0.176
247	0.188
247	0.199
248	0.209
248	0.218
249	0.227
249	0.235
250	0.243
250	0.251
250	0.258
251	0.264
251	0.27
252	0.276
252	0.281
253	0.286
253	0.291
254	0.295
254	0.3
255	0.304
255	0.307
256	0.311
256	0.314
257	0.316
257	0.319
258	0.321
258	0.323
258	0.325
259	0.327
259	0.328
260	0.329
260	0.33
261	0.331
261	0.332
262	0.333
262	0.334
263	0.334
263	0.335
264	0.335
264	0.336
265	0.336
265	0.336
265	0.336
266	0.337
266	0.337
267	0.336
267	0.336
268	0.336
268	0.335
269	0.335
269	0.334
270	0.333
270	0.333
271	0.332
271	0.331
272	0.331
272	0.33
272	0.329
273	0.328
273	0.328
274	0.327
274	0.326
275	0.325
275	0.324
276	0.323
276	0.322
277	0.32
277	0.319
278	0.317
278	0.316
278	0.314
279	0.313
279	0.312
280	0.311
280	0.311
281	0.31
281	0.31
282	0.309
282	0.309
283	0.309
283	0.309
284	0.309
284	0.309
285	0.308
285	0.307
285	0.306
286	0.305
286	0.304
287	0.304
287	0.303
288	0.302
288	0.301
289	0.301
289	0.3
290	0.299
290	0.299
291	0.298
291	0.298
292	0.297
292	0.296
292	0.295
293	0.295
293	0.294
294	0.294
294	0.293
295	0.293
295	0.292
296	0.291
296	0.291
297	0.29
297	0.29
298	0.29
298	0.289
298	0.289
299	0.288
299	0.288
300	0.287
300	0.286
301	0.286
301	0.285
302	0.285
302	0.284
303	0.284
303	0.283
304	0.283
304	0.282
305	0.282
305	0.281
305	0.28
306	0.28
306	0.279
307	0.278
307	0.277
308	0.277
308	0.276
309	0.275
309	0.274
310	0.274
310	0.273
311	0.272
311	0.272
311	0.271
312	0.27
312	0.269
313	0.269
313	0.268
314	0.267
314	0.266
315	0.265
315	0.264
316	0.263
316	0.262
317	0.262
317	0.261
318	0.26
318	0.259
318	0.258
319	0.257
319	0.257
320	0.256
320	0.255
321	0.254
321	0.253
322	0.252
322	0.251
323	0.25
323	0.25
324	0.249
324	0.248
324	0.247
325	0.246
325	0.246
326	0.245
326	0.244
327	0.243
327	0.243
328	0.242
328	0.241
329	0.24
329	0.239
330	0.238
330	0.238
330	0.237
331	0.236
331	0.235
332	0.234
332	0.233
333	0.233
333	0.232
334	0.231
334	0.23
335	0.229
335	0.229
336	0.228
336	0.227
336	0.227
337	0.226
337	0.225
338	0.224
338	0.224
339	0.223
339	0.222
340	0.222
340	0.221
341	0.22
341	0.22
342	0.219
342	0.218
342	0.218
343	0.217
343	0.216
344	0.216
344	0.215
345	0.214
345	0.214
346	0.213
346	0.212
347	0.212
347	0.211
348	0.21
348	0.21
348	0.209
349	0.208
349	0.207
350	0.206
350	0.205
351	0.205
351	0.204
352	0.203
352	0.202
353	0.201
353	0.199
354	0.198
354	0.197
354	0.195
355	0.194
355	0.193
356	0.192
356	0.191
357	0.19
357	0.19
358	0.19
358	0.19
359	0.191
359	0.192
360	0.193
360	0.194
360	0.194
361	0.195
361	0.196
362	0.196
362	0.196
363	0.197
363	0.196
364	0.196
364	0.195
365	0.195
365	0.194
366	0.194
366	0.193
366	0.193
367	0.193
367	0.192
368	0.192
368	0.192
369	0.191
369	0.191
370	0.19
370	0.19
371	0.189
371	0.189
372	0.188
372	0.188
372	0.188
373	0.187
373	0.187
374	0.187
374	0.187
375	0.187
375	0.187
376	0.187
376	0.187
377	0.187
377	0.188
378	0.188
378	0.189
378	0.189
379	0.19
379	0.19
380	0.19
380	0.19
381	0.19
381	0.189
382	0.189
382	0.189
383	0.188
383	0.187
383	0.187
384	0.186
384	0.186
385	0.186
385	0.186
386	0.186
386	0.186
387	0.186
387	0.186
388	0.186
388	0.186
389	0.185
389	0.185
389	0.185
390	0.185
390	0.185
391	0.186
391	0.186
392	0.186
392	0.186
393	0.186
393	0.186
394	0.186
394	0.186
394	0.186
395	0.186
395	0.186
396	0.185
396	0.185
397	0.186
397	0.186
398	0.186
398	0.186
399	0.186
399	0.186
400	0.186
400	0.185
400	0.185
401	0.184
401	0.183
402	0.182
402	0.181
403	0.18
403	0.18
404	0.18
404	0.18
405	0.179
405	0.179
405	0.179
406	0.179
406	0.179
407	0.179
407	0.179
408	0.178
408	0.178
409	0.177
409	0.177
410	0.177
410	0.177
411	0.177
411	0.177
411	0.176
412	0.176
412	0.175
413	0.175
413	0.175
414	0.175
414	0.174
415	0.174
415	0.173
416	0.173
416	0.172
416	0.172
417	0.172
417	0.171
418	0.171
418	0.172
419	0.172
419	0.173
420	0.174
420	0.175
421	0.176
421	0.177
421	0.177
422	0.177
422	0.178
423	0.178
423	0.178
424	0.177
424	0.176
425	0.175
425	0.174
426	0.173
426	0.173
427	0.173
427	0.173
427	0.173
428	0.174
428	0.175
429	0.176
429	0.177
430	0.177
430	0.177
431	0.177
431	0.176
432	0.176
432	0.175
432	0.174
433	0.173
433	0.171
434	0.17
434	0.17
435	0.17
435	0.17
436	0.17
436	0.17
437	0.17
437	0.17
437	0.17
438	0.17
438	0.17
439	0.169
439	0.169
440	0.169
440	0.169
441	0.169
441	0.169
442	0.17
442	0.17
442	0.171
443	0.171
443	0.172
444	0.173
444	0.173
445	0.173
445	0.174
446	0.174
446	0.174
447	0.174
447	0.173
447	0.173
448	0.173
448	0.172
449	0.172
449	0.172
450	0.171
450	0.171
451	0.17
451	0.17
452	0.169
452	0.169
452	0.168
453	0.168
453	0.167
454	0.166
454	0.165
455	0.165
455	0.164
456	0.164
456	0.164
457	0.164
457	0.163
458	0.163
458	0.163
458	0.164
459	0.164
459	0.165
460	0.164
460	0.164
461	0.163
461	0.163
462	0.163
462	0.162
463	0.162
463	0.163
463	0.163
464	0.164
464	0.164
465	0.164
465	0.164
466	0.164
466	0.164
467	0.164
467	0.164
467	0.163
468	0.161
468	0.159
469	0.157
469	0.155
470	0.154
470	0.153
471	0.153
471	0.153
472	0.153
472	0.153
472	0.153
473	0.155
473	0.156
474	0.157
474	0.158
475	0.159
475	0.16
476	0.161
476	0.161
477	0.161
477	0.162
477	0.162
478	0.162
478	0.163
479	0.163
479	0.163
480	0.164
480	0.165
481	0.166
481	0.166
482	0.167
482	0.168
482	0.169
483	0.171
483	0.174
484	0.177
484	0.18
485	0.183
485	0.185
486	0.186
486	0.187
487	0.188
487	0.189
487	0.189
488	0.188
488	0.187
489	0.184
489	0.181
490	0.18
490	0.178
491	0.177
491	0.177
492	0.178
492	0.178
492	0.178
493	0.179
493	0.18
494	0.181
494	0.184
495	0.186
495	0.187
496	0.188
496	0.189
496	0.19
497	0.191
497	0.192
498	0.192
498	0.193
499	0.193
499	0.193
500	0.193
500	0.194
501	0.196
501	0.197
501	0.199
502	0.201
502	0.202
503	0.204
503	0.205
504	0.206
504	0.207
505	0.207
505	0.207
506	0.207
506	0.207
506	0.207
507	0.207
507	0.208
508	0.208
508	0.208
509	0.209
509	0.209
510	0.209
510	0.209
511	0.209
511	0.21
511	0.21
512	0.209
512	0.208
513	0.207
513	0.206
514	0.205
514	0.205
515	0.205
515	0.205
515	0.204
516	0.202
516	0.201
517	0.201
517	0.201
518	0.202
518	0.202
519	0.202
519	0.201
520	0.199
520	0.198
520	0.196
521	0.194
521	0.192
522	0.189
522	0.185
523	0.182
523	0.179
524	0.177
524	0.176
524	0.175
525	0.176
525	0.177
526	0.179
526	0.182
527	0.186
527	0.191
528	0.194
528	0.198
529	0.201
529	0.204
529	0.205
530	0.207
530	0.208
531	0.209
531	0.21
532	0.21
532	0.21
533	0.211
533	0.211
533	0.212
534	0.212
534	0.211
535	0.21
535	0.21
536	0.21
536	0.21
537	0.21
537	0.21
538	0.209
538	0.208
538	0.206
539	0.205
539	0.205
540	0.205
540	0.204
541	0.203
541	0.201
542	0.199
542	0.198
542	0.197
543	0.196
543	0.195
544	0.194
544	0.192
545	0.191
545	0.19
546	0.19
546	0.19
547	0.189
547	0.187
547	0.185
548	0.182
548	0.18
549	0.178
549	0.176
550	0.174
550	0.172
551	0.17
551	0.168
551	0.166
552	0.165
552	0.165
553	0.164
553	0.164
554	0.165
554	0.164
555	0.162
555	0.16
556	0.157
556	0.154
556	0.151
557	0.148
557	0.146
558	0.144
558	0.142
559	0.14
559	0.14
560	0.139
560	0.14
560	0.14
561	0.14
561	0.14
562	0.141
562	0.14
563	0.138
563	0.136
564	0.134
564	0.131
564	0.128
565	0.126
565	0.124
566	0.123
566	0.122
567	0.122
567	0.124
568	0.125
568	0.127
568	0.13
569	0.133
569	0.136
570	0.138
570	0.139
571	0.141
571	0.142
572	0.143
572	0.144
573	0.144
573	0.144
573	0.144
574	0.143
574	0.142
575	0.142
575	0.143
576	0.144
576	0.144
577	0.144
577	0.142
577	0.142
578	0.141
578	0.141
579	0.142
579	0.143
580	0.144
580	0.143
581	0.14
581	0.138
581	0.137
582	0.136
582	0.136
583	0.136
583	0.136
584	0.133
584	0.13
585	0.127
585	0.125
585	0.124
586	0.124
586	0.124
587	0.123
587	0.121
588	0.118
588	0.116
589	0.114
589	0.112
590	0.111
590	0.11
590	0.11
591	0.111
591	0.111
592	0.111
592	0.11
593	0.11
593	0.109
594	0.109
594	0.108
594	0.108
595	0.107
595	0.106
596	0.105
596	0.105
597	0.107
597	0.109
598	0.11
598	0.112
598	0.114
599	0.115
599	0.115
600	0.115
600	0.114
601	0.113
601	0.111
602	0.11
602	0.108
602	0.107
603	0.105
603	0.105
604	0.105
604	0.106
605	0.108
605	0.109
606	0.11
606	0.11
606	0.11
607	0.109
607	0.109
608	0.108
608	0.107
609	0.105
609	0.104
610	0.102
610	0.1
610	0.099
611	0.099
611	0.099
612	0.1
612	0.101
613	0.102
613	0.104
614	0.104
614	0.104
614	0.104
615	0.104
615	0.103
616	0.103
616	0.102
617	0.101
617	0.1
618	0.099
618	0.098
618	0.097
619	0.097
619	0.097
620	0.099
620	0.1
621	0.101
621	0.102
622	0.102
622	0.103
622	0.103
623	0.103
623	0.104
624	0.105
624	0.105
625	0.104
625	0.104
626	0.104
626	0.104
626	0.104
627	0.104
627	0.104
628	0.104
628	0.104
629	0.104
629	0.104
630	0.104
630	0.104
630	0.104
631	0.104
631	0.105
632	0.105
632	0.106
633	0.106
633	0.107
634	0.109
634	0.111
634	0.113
635	0.115
635	0.116
636	0.117
636	0.119
637	0.12
637	0.121
638	0.122
638	0.124
638	0.125
639	0.125
639	0.125
640	0.126
640	0.127
641	0.128
641	0.13
642	0.131
642	0.133
642	0.134
643	0.135
643	0.137
644	0.138
644	0.14
645	0.141
645	0.143
646	0.146
646	0.149
646	0.153
647	0.157
647	0.161
648	0.164
648	0.168
649	0.171
649	0.174
650	0.178
650	0.181
650	0.183
651	0.186
651	0.188
652	0.189
652	0.191
653	0.193
653	0.201
653	0.206
654	0.169
654	0.14
655	0.147
655	0.149
656	0.151
656	0.152
657	0.154
657	0.156
657	0.157
658	0.153
658	0.148
659	0.182
659	0.229
660	0.229
660	0.23
661	0.232
661	0.233
661	0.236
662	0.239
662	0.242
663	0.246
663	0.249
664	0.252
664	0.254
665	0.257
665	0.26
665	0.262
666	0.265
666	0.268
667	0.27
667	0.273
668	0.276
668	0.279
669	0.282
669	0.285
669	0.289
670	0.294
670	0.298
671	0.3
671	0.302
672	0.303
672	0.304
672	0.305
673	0.306
673	0.307
674	0.308
674	0.308
675	0.308
675	0.307
676	0.309
676	0.312
676	0.314
677	0.316
677	0.319
678	0.322
678	0.324
679	0.326
679	0.327
680	0.329
680	0.331
680	0.332
681	0.332
681	0.333
682	0.334
682	0.335
683	0.337
683	0.339
684	0.342
684	0.344
684	0.345
685	0.347
685	0.349
686	0.35
686	0.352
687	0.352
687	0.352
687	0.352
688	0.351
688	0.35
689	0.35
689	0.351
690	0.352
690	0.352
691	0.352
691	0.352
691	0.352
692	0.352
692	0.352
693	0.352
693	0.353
694	0.353
694	0.351
695	0.351
695	0.353
695	0.354
696	0.354
696	0.353
697	0.352
697	0.351
698	0.35
698	0.348
698	0.346
699	0.344
699	0.342
700	0.339
700	0.336
701	0.335
701	0.334
702	0.332
702	0.331
702	0.33
703	0.329
703	0.328
704	0.326
704	0.326
705	0.325
705	0.325
705	0.324
706	0.323
706	0.322
707	0.32
707	0.318
708	0.316
708	0.314
709	0.313
709	0.311
709	0.308
710	0.304
710	0.301
711	0.299
711	0.297
712	0.295
712	0.293
713	0.292
713	0.29
713	0.287
714	0.284
714	0.282
715	0.279
715	0.276
716	0.273
716	0.27
716	0.268
717	0.265
717	0.263
718	0.26
718	0.257
719	0.256
719	0.255
720	0.253
720	0.251
720	0.249
721	0.246
721	0.243
722	0.241
722	0.237
723	0.234
723	0.232
723	0.229
724	0.226
724	0.223
725	0.22
725	0.218
726	0.216
726	0.214
727	0.211
727	0.21
727	0.208
728	0.206
728	0.205
729	0.204
729	0.203
730	0.202
730	0.201
730	0.199
731	0.198
731	0.197
732	0.196
732	0.194
733	0.192
733	0.19
734	0.188
734	0.186
734	0.184
735	0.182
735	0.18
736	0.178
736	0.175
737	0.173
737	0.171
737	0.169
738	0.167
738	0.163
739	0.16
739	0.157
740	0.154
740	0.152
741	0.15
741	0.147
741	0.143
742	0.138
742	0.133
743	0.13
743	0.127
744	0.125
744	0.123
744	0.12
745	0.118
745	0.115
746	0.113
746	0.112
747	0.111
747	0.111
748	0.111
748	0.11
748	0.11
749	0.109
749	0.109
750	0.108
750	0.107
751	0.107
751	0.107
751	0.107
752	0.107
752	0.105
753	0.104
753	0.103
754	0.102
754	0.101
754	0.101
755	0.101
755	0.101
756	0.1
756	0.098
757	0.096
757	0.096
758	0.094
758	0.093
758	0.091
759	0.09
759	0.087
760	0.084
760	0.081
761	0.078
761	0.076
761	0.074
762	0.072
762	0.071
763	0.07
763	0.068
764	0.065
764	0.062
764	0.06
765	0.058
765	0.056
766	0.055
766	0.054
767	0.053
767	0.05
768	0.047
768	0.044
768	0.043
769	0.042
769	0.041
770	0.04
770	0.038
771	0.035
771	0.032
771	0.029
772	0.026
772	0.024
773	0.021
773	0.018
774	0.014
774	0.01
775	0.007
775	0.003
775	-0.002
776	-0.007
776	-0.013
777	-0.018
777	-0.024
778	-0.03
778	-0.036
778	-0.042
779	-0.047
779	-0.049
780	-0.052
780	-0.056
781	-0.059
781	-0.061
781	-0.063
782	-0.066
782	-0.068
783	-0.071
783	-0.071
784	-0.072
784	-0.075
784	-0.077
785	-0.078
785	-0.08
786	-0.081
786	-0.079
787	-0.074
787	-0.071
788	-0.07
788	-0.07
788	-0.072
789	-0.074
789	-0.073
790	-0.07
790	-0.069
791	-0.069
791	-0.071
791	-0.073
792	-0.068
792	-0.059
793	-0.053
793	-0.049
794	-0.048
794	-0.049
794	-0.053
795	-0.055
795	-0.055
796	-0.055
796	-0.057
797	-0.065
797	-0.074
797	-0.08
798	-0.085
798	-0.088
799	-0.088
799	-0.088
800	-0.088
800	-0.09
801	-0.094
801	-0.095
801	-0.096
802	-0.097
802	-0.099
803	-0.1
803	-0.1
804	-0.099
804	-0.095
804	-0.088
805	-0.085
805	-0.083
806	-0.081
806	-0.08
807	-0.078
807	-0.078
807	-0.077
808	-0.076
808	-0.077
809	-0.081
809	-0.086
810	-0.089
810	-0.091
810	-0.094
811	-0.096
811	-0.096
812	-0.092
812	-0.089
813	-0.089
813	-0.09
813	-0.091
814	-0.092
814	-0.092
815	-0.09
815	-0.087
816	-0.085
816	-0.086
817	-0.09
817	-0.093
817	-0.094
818	-0.093
818	-0.09
819	-0.085
819	-0.082
820	-0.084
820	-0.085
820	-0.087
821	-0.086
821	-0.084
822	-0.081
822	-0.078
823	-0.073
823	-0.071
823	-0.07
824	-0.066
824	-0.058
825	-0.049
825	-0.039
826	-0.029
826	-0.022
826	-0.015
827	-0.008
827	-0.001
828	0.004
828	0.009
829	0.013
829	0.017
829	0.021
830	0.023
830	0.026
831	0.03
831	0.034
832	0.036
832	0.039
832	0.041
833	0.043
833	0.046
834	0.047
834	0.049
835	0.05
835	0.051
835	0.051
836	0.052
836	0.053
837	0.053
837	0.054
838	0.054
838	0.054
839	0.054
839	0.055
839	0.055
840	0.056
840	0.056
841	0.057
841	0.058
842	0.059
842	0.061
842	0.062
843	0.063
843	0.064
844	0.066
844	0.067
845	0.069
845	0.07
845	0.072
846	0.073
846	0.075
847	0.076
847	0.078
848	0.08
848	0.081
848	0.083
849	0.084
849	0.085
850	0.085
850	0.085
851	0.086
851	0.087
851	0.087
852	0.087
852	0.088
853	0.088
853	0.088
854	0.089
854	0.089
854	0.089
855	0.09
855	0.09
856	0.09
856	0.091
857	0.091
857	0.091
857	0.09
858	0.09
858	0.089
859	0.089
859	0.089
860	0.088
860	0.088
860	0.087
861	0.086
861	0.086
862	0.085
862	0.085
863	0.084
863	0.084
863	0.084
864	0.085
864	0.085
865	0.087
865	0.088
866	0.089
866	0.09
866	0.091
867	0.092
867	0.093
868	0.094
868	0.096
869	0.096
869	0.097
869	0.097
870	0.097
870	0.097
871	0.097
871	0.097
872	0.097
872	0.096
872	0.096
873	0.096
873	0.096
874	0.097
874	0.097
875	0.098
875	0.098
875	0.099
876	0.099
876	0.1
877	0.1
877	0.1
878	0.099
878	0.098
878	0.097
879	0.096
879	0.095
880	0.094
880	0.093
881	0.092
881	0.091
881	0.09
882	0.09
882	0.09
883	0.089
883	0.09
884	0.09
884	0.091
884	0.091
885	0.092
885	0.092
886	0.093
886	0.094
887	0.095
887	0.095
887	0.095
888	0.095
888	0.095
889	0.095
889	0.095
890	0.095
890	0.096
890	0.095
891	0.095
891	0.095
892	0.095
892	0.096
893	0.096
893	0.097
893	0.097
894	0.098
894	0.099
895	0.099
895	0.1
895	0.1
896	0.101
896	0.102
897	0.102
897	0.103
898	0.103
898	0.103
898	0.103
899	0.103
899	0.103
900	0.103
900	0.103
901	0.103
901	0.103
901	0.103
902	0.103
902	0.103
903	0.103
903	0.104
904	0.104
904	0.103
904	0.103
905	0.103
905	0.103
906	0.103
906	0.102
907	0.101
907	0.101
907	0.101
908	0.101
908	0.102
909	0.102
909	0.103
910	0.103
910	0.104
910	0.104
911	0.105
911	0.105
912	0.106
912	0.106
913	0.106
913	0.106
913	0.106
914	0.106
914	0.105
915	0.105
915	0.105
916	0.104
916	0.103
916	0.103
917	0.102
917	0.101
918	0.101
918	0.1
918	0.1
919	0.099
919	0.099
920	0.099
920	0.099
921	0.099
921	0.098
921	0.098
922	0.098
922	0.098
923	0.097
923	0.097
924	0.097
924	0.097
924	0.096
925	0.095
925	0.095
926	0.094
926	0.093
927	0.092
927	0.092
927	0.091
928	0.09
928	0.09
929	0.09
929	0.09
930	0.09
930	0.091
930	0.092
931	0.093
931	0.094
932	0.096
932	0.097
933	0.099
933	0.101
933	0.103
934	0.104
934	0.105
935	0.107
935	0.108
935	0.108
936	0.109
936	0.11
937	0.11
937	0.111
938	0.112
938	0.112
938	0.113
939	0.114
939	0.115
940	0.116
940	0.117
941	0.118
941	0.119
941	0.119
942	0.119
942	0.118
943	0.118
943	0.117
944	0.116
944	0.116
944	0.116
945	0.116
945	0.116
946	0.117
946	0.116
946	0.117
947	0.117
947	0.117
948	0.117
948	0.116
949	0.116
949	0.116
949	0.115
950	0.114
950	0.114
951	0.113
951	0.113
952	0.113
952	0.113
952	0.113
953	0.113
953	0.113
954	0.113
954	0.113
955	0.114
955	0.115
955	0.115
956	0.116
956	0.116
957	0.117
957	0.116
957	0.116
958	0.116
958	0.115
959	0.115
959	0.114
960	0.113
960	0.112
960	0.111
961	0.11
961	0.109
962	0.108
962	0.108
963	0.108
963	0.108
963	0.108
964	0.108
964	0.109
965	0.11
965	0.111
966	0.112
966	0.113
966	0.114
967	0.115
967	0.116
968	0.116
968	0.116
968	0.116
969	0.115
969	0.115
970	0.114
970	0.114
971	0.113
971	0.112
971	0.112
972	0.112
972	0.112
973	0.112
973	0.113
974	0.113
974	0.114
974	0.114
975	0.115
975	0.115
976	0.116
976	0.116
976	0.115
977	0.115
977	0.114
978	0.113
978	0.113
979	0.112
979	0.111
979	0.111
980	0.11
980	0.109
981	0.108
981	0.108
982	0.108
982	0.107
982	0.107
983	0.107
983	0.106
984	0.106
984	0.105
984	0.105
985	0.104
985	0.103
986	0.102
986	0.101
987	0.1
987	0.1
987	0.099
988	0.098
988	0.098
989	0.097
989	0.097
990	0.097
990	0.098
990	0.098
991	0.099
991	0.1
992	0.101
992	0.101
992	0.102
993	0.103
993	0.103
994	0.103
994	0.104
995	0.104
995	0.104
995	0.104
996	0.104
996	0.104
997	0.104
997	0.104
997	0.105
998	0.105
998	0.106
999	0.107
999	0.108
1000	0.109
1000	0.11
1000	0.11
1001	0.111
1001	0.112
1002	0.112
1002	0.112
1003	0.112
1003	0.112
1003	0.112
1004	0.112
1004	0.111
1005	0.111
1005	0.11
1005	0.109
1006	0.108
1006	0.108
1007	0.107
1007	0.106
1008	0.106
1008	0.105
1008	0.105
1009	0.104
1009	0.104
1010	0.104
1010	0.104
1010	0.103
1011	0.103
1011	0.104
1012	0.104
1012	0.104
1013	0.104
1013	0.105
1013	0.105
1014	0.105
1014	0.104
1015	0.104
1015	0.104
1016	0.104
1016	0.103
1016	0.103
1017	0.102
1017	0.102
1018	0.101
1018	0.101
1018	0.101
1019	0.101
1019	0.1
1020	0.1
1020	0.1
1021	0.1
1021	0.1
1021	0.1
1022	0.1
1022	0.1
1023	0.1
1023	0.1
1023	0.1
1024	0.1
1024	0.099
1025	0.099
1025	0.098
1026	0.098
1026	0.098
1026	0.098
1027	0.098
1027	0.098
1028	0.098
1028	0.099
1028	0.099
1029	0.099
1029	0.1
1030	0.1
1030	0.1
1031	0.101
1031	0.101
1031	0.101
1032	0.101
1032	0.102
1033	0.102
1033	0.103
1033	0.103
1034	0.103
1034	0.103
1035	0.103
1035	0.103
1036	0.103
1036	0.104
1036	0.104
1037	0.105
1037	0.106
1038	0.106
1038	0.107
1039	0.109
1039	0.11
1039	0.111
1040	0.112
1040	0.113
1041	0.113
1041	0.113
1041	0.113
1042	0.113
1042	0.113
1043	0.113
1043	0.113
1044	0.113
1044	0.113
1044	0.113
1045	0.113
1045	0.112
1046	0.112
1046	0.112
1046	0.113
1047	0.113
1047	0.114
1048	0.114
1048	0.114
1049	0.114
1049	0.113
1049	0.113
1050	0.113
1050	0.113
1051	0.113
1051	0.113
1051	0.114
1052	0.114
1052	0.115
1053	0.115
1053	0.116
1053	0.117
1054	0.118
1054	0.118
1055	0.119
1055	0.12
1056	0.12
1056	0.12
1056	0.12
1057	0.121
1057	0.122
1058	0.123
1058	0.124
1058	0.125
1059	0.127
1059	0.128
1060	0.13
1060	0.132
1061	0.133
1061	0.135
1061	0.137
1062	0.138
1062	0.139
1063	0.141
1063	0.142
1063	0.143
1064	0.145
1064	0.146
1065	0.148
1065	0.149
1066	0.151
1066	0.153
1066	0.155
1067	0.157
1067	0.159
1068	0.16
1068	0.162
1068	0.163
1069	0.165
1069	0.166
1070	0.168
1070	0.17
1071	0.172
1071	0.174
1071	0.176
1072	0.178
1072	0.181
1073	0.184
1073	0.187
1073	0.19
1074	0.192
1074	0.195
1075	0.196
1075	0.199
1076	0.201
1076	0.204
1076	0.206
1077	0.208
1077	0.211
1078	0.213
1078	0.217
1078	0.221
1079	0.225
1079	0.229
1080	0.233
1080	0.237
1080	0.24
1081	0.244
1081	0.248
1082	0.252
1082	0.256
1083	0.261
1083	0.266
1083	0.271
1084	0.277
1084	0.284
1085	0.29
1085	0.298
1085	0.306
1086	0.313
1086	0.319
1087	0.328
1087	0.336
1088	0.345
1088	0.354
1088	0.364
1089	0.374
1089	0.388
1090	0.402
1090	0.417
1090	0.433
1091	0.451
1091	0.472
1092	0.493
1092	0.517
1092	0.542
1093	0.568
1093	0.601
1094	0.633
1094	0.67
1095	0.713
1095	0.77
1095	0.842
1096	0.924
1096	1.037
1097	1.207
1097	1.479
1097	2.798
1098	-0
1098	-0
1099	-0
1099	-0
1100	-0
1100	-0
1100	-0
1101	-0
1101	-0
1102	-0
1102	-0
1102	-0
1103	-0
1103	-0
1104	-0
1104	-0
1104	-0
1105	-0
1105	-0
1106	-0
1106	-0
1107	-0
1107	-0
1107	-0
1108	-0
1108	-0
1109	-0
1109	-0
1109	-0
1110	-0
1110	-0
1111	-0
1111	-0
