Data from 15c-2-5a_Absorbance__570__01477.txt Node

Date: Tue Jan 16 11:46:14 CET 2024
User: Marek
Spectrometer: MAYP115816
Trigger mode: 0
Integration Time (sec): 2.000000E-1
Scans to average: 10
Electric dark correction enabled: true
Nonlinearity correction enabled: true
Boxcar width: 5
XAxis mode: Wavelengths
Number of Pixels in Spectrum: 2068
>>>>>Begin Spectral Data<<<<<
199	-2.216
199	-2.027
200	-1.891
200	-1.771
201	-1.696
201	-1.644
202	-1.567
202	-1.505
203	-1.455
203	-1.406
204	-1.379
204	-1.354
205	-1.334
205	-1.322
205	-1.319
206	-1.314
206	-1.311
207	-1.308
207	-1.308
208	-1.304
208	-1.303
209	-1.298
209	-1.296
210	-1.295
210	-1.293
211	-1.291
211	-1.291
212	-1.29
212	-1.289
213	-1.287
213	-1.286
213	-1.286
214	-1.284
214	-1.283
215	-1.282
215	-1.282
216	-1.278
216	-1.277
217	-1.274
217	-1.271
218	-1.267
218	-1.264
219	-1.259
219	-1.258
220	-1.256
220	-1.254
221	-1.25
221	-1.249
221	-1.244
222	-1.24
222	-1.235
223	-1.23
223	-1.225
224	-1.219
224	-1.21
225	-1.201
225	-1.192
226	-1.183
226	-1.173
227	-1.159
227	-1.146
228	-1.131
228	-1.114
229	-1.093
229	-1.069
229	-1.044
230	-1.015
230	-0.983
231	-0.947
231	-0.908
232	-0.867
232	-0.824
233	-0.778
233	-0.73
234	-0.681
234	-0.632
235	-0.582
235	-0.533
236	-0.483
236	-0.435
236	-0.387
237	-0.341
237	-0.296
238	-0.254
238	-0.213
239	-0.174
239	-0.137
240	-0.103
240	-0.071
241	-0.04
241	-0.012
242	0.015
242	0.039
243	0.062
243	0.084
243	0.104
244	0.122
244	0.139
245	0.154
245	0.169
246	0.183
246	0.196
247	0.207
247	0.218
248	0.229
248	0.238
249	0.247
249	0.256
250	0.264
250	0.271
250	0.279
251	0.285
251	0.291
252	0.297
252	0.303
253	0.308
253	0.313
254	0.317
254	0.321
255	0.325
255	0.329
256	0.332
256	0.336
257	0.339
257	0.341
258	0.343
258	0.346
258	0.348
259	0.35
259	0.352
260	0.353
260	0.355
261	0.356
261	0.357
262	0.357
262	0.358
263	0.359
263	0.36
264	0.36
264	0.361
265	0.361
265	0.361
265	0.361
266	0.361
266	0.361
267	0.361
267	0.361
268	0.361
268	0.36
269	0.359
269	0.358
270	0.357
270	0.357
271	0.356
271	0.355
272	0.354
272	0.353
272	0.353
273	0.352
273	0.351
274	0.35
274	0.349
275	0.348
275	0.347
276	0.346
276	0.344
277	0.343
277	0.341
278	0.339
278	0.337
278	0.335
279	0.334
279	0.333
280	0.332
280	0.331
281	0.33
281	0.33
282	0.329
282	0.329
283	0.329
283	0.328
284	0.328
284	0.327
285	0.327
285	0.326
285	0.325
286	0.324
286	0.323
287	0.322
287	0.321
288	0.32
288	0.319
289	0.318
289	0.318
290	0.317
290	0.316
291	0.315
291	0.314
292	0.314
292	0.313
292	0.312
293	0.311
293	0.311
294	0.31
294	0.309
295	0.308
295	0.308
296	0.307
296	0.306
297	0.306
297	0.305
298	0.304
298	0.304
298	0.303
299	0.302
299	0.302
300	0.301
300	0.3
301	0.3
301	0.299
302	0.298
302	0.298
303	0.298
303	0.297
304	0.296
304	0.296
305	0.295
305	0.294
305	0.293
306	0.293
306	0.292
307	0.291
307	0.29
308	0.29
308	0.289
309	0.288
309	0.287
310	0.286
310	0.286
311	0.285
311	0.284
311	0.283
312	0.283
312	0.282
313	0.281
313	0.28
314	0.279
314	0.279
315	0.278
315	0.277
316	0.276
316	0.275
317	0.274
317	0.273
318	0.272
318	0.271
318	0.27
319	0.269
319	0.268
320	0.267
320	0.266
321	0.265
321	0.264
322	0.264
322	0.263
323	0.262
323	0.261
324	0.26
324	0.259
324	0.258
325	0.258
325	0.257
326	0.256
326	0.256
327	0.255
327	0.254
328	0.253
328	0.252
329	0.251
329	0.251
330	0.25
330	0.249
330	0.248
331	0.247
331	0.246
332	0.245
332	0.244
333	0.243
333	0.243
334	0.242
334	0.241
335	0.24
335	0.239
336	0.238
336	0.238
336	0.237
337	0.236
337	0.235
338	0.235
338	0.234
339	0.233
339	0.233
340	0.232
340	0.231
341	0.23
341	0.23
342	0.229
342	0.228
342	0.228
343	0.227
343	0.226
344	0.225
344	0.225
345	0.224
345	0.223
346	0.223
346	0.222
347	0.221
347	0.221
348	0.22
348	0.219
348	0.218
349	0.217
349	0.217
350	0.216
350	0.215
351	0.214
351	0.213
352	0.211
352	0.21
353	0.209
353	0.208
354	0.207
354	0.206
354	0.204
355	0.203
355	0.202
356	0.201
356	0.2
357	0.199
357	0.199
358	0.199
358	0.199
359	0.2
359	0.201
360	0.202
360	0.203
360	0.203
361	0.204
361	0.205
362	0.205
362	0.206
363	0.206
363	0.206
364	0.205
364	0.204
365	0.204
365	0.203
366	0.203
366	0.203
366	0.202
367	0.202
367	0.202
368	0.201
368	0.201
369	0.2
369	0.2
370	0.199
370	0.199
371	0.198
371	0.198
372	0.197
372	0.197
372	0.196
373	0.196
373	0.196
374	0.196
374	0.196
375	0.196
375	0.196
376	0.196
376	0.196
377	0.197
377	0.197
378	0.197
378	0.198
378	0.198
379	0.198
379	0.198
380	0.198
380	0.198
381	0.198
381	0.198
382	0.198
382	0.198
383	0.197
383	0.197
383	0.196
384	0.196
384	0.195
385	0.195
385	0.195
386	0.195
386	0.195
387	0.195
387	0.195
388	0.194
388	0.194
389	0.194
389	0.194
389	0.194
390	0.194
390	0.194
391	0.194
391	0.195
392	0.195
392	0.195
393	0.195
393	0.195
394	0.195
394	0.195
394	0.195
395	0.195
395	0.195
396	0.194
396	0.194
397	0.195
397	0.195
398	0.195
398	0.195
399	0.195
399	0.195
400	0.195
400	0.194
400	0.194
401	0.193
401	0.192
402	0.191
402	0.19
403	0.189
403	0.189
404	0.189
404	0.189
405	0.188
405	0.188
405	0.188
406	0.188
406	0.187
407	0.187
407	0.187
408	0.187
408	0.186
409	0.186
409	0.185
410	0.185
410	0.185
411	0.185
411	0.185
411	0.185
412	0.184
412	0.184
413	0.183
413	0.183
414	0.183
414	0.182
415	0.182
415	0.181
416	0.181
416	0.181
416	0.18
417	0.18
417	0.18
418	0.18
418	0.18
419	0.181
419	0.182
420	0.183
420	0.184
421	0.184
421	0.185
421	0.185
422	0.186
422	0.186
423	0.186
423	0.186
424	0.185
424	0.184
425	0.183
425	0.182
426	0.181
426	0.181
427	0.181
427	0.181
427	0.181
428	0.182
428	0.183
429	0.184
429	0.184
430	0.185
430	0.185
431	0.185
431	0.184
432	0.184
432	0.183
432	0.182
433	0.181
433	0.179
434	0.178
434	0.178
435	0.178
435	0.178
436	0.178
436	0.178
437	0.178
437	0.178
437	0.179
438	0.178
438	0.178
439	0.178
439	0.178
440	0.177
440	0.177
441	0.177
441	0.177
442	0.178
442	0.178
442	0.179
443	0.18
443	0.18
444	0.181
444	0.181
445	0.182
445	0.182
446	0.182
446	0.182
447	0.182
447	0.181
447	0.181
448	0.181
448	0.18
449	0.18
449	0.18
450	0.179
450	0.179
451	0.179
451	0.178
452	0.178
452	0.177
452	0.177
453	0.176
453	0.175
454	0.175
454	0.174
455	0.173
455	0.173
456	0.173
456	0.172
457	0.172
457	0.172
458	0.172
458	0.172
458	0.172
459	0.173
459	0.173
460	0.173
460	0.172
461	0.171
461	0.171
462	0.171
462	0.171
463	0.171
463	0.172
463	0.172
464	0.173
464	0.173
465	0.173
465	0.173
466	0.173
466	0.174
467	0.174
467	0.173
467	0.172
468	0.17
468	0.168
469	0.166
469	0.165
470	0.164
470	0.164
471	0.164
471	0.163
472	0.163
472	0.163
472	0.164
473	0.165
473	0.166
474	0.167
474	0.168
475	0.169
475	0.17
476	0.17
476	0.171
477	0.171
477	0.171
477	0.172
478	0.172
478	0.172
479	0.173
479	0.174
480	0.174
480	0.175
481	0.176
481	0.177
482	0.178
482	0.179
482	0.18
483	0.182
483	0.185
484	0.189
484	0.192
485	0.194
485	0.196
486	0.197
486	0.198
487	0.199
487	0.2
487	0.2
488	0.199
488	0.198
489	0.195
489	0.193
490	0.192
490	0.191
491	0.19
491	0.19
492	0.19
492	0.19
492	0.191
493	0.191
493	0.192
494	0.194
494	0.196
495	0.199
495	0.2
496	0.201
496	0.202
496	0.203
497	0.203
497	0.204
498	0.205
498	0.205
499	0.205
499	0.205
500	0.205
500	0.207
501	0.208
501	0.21
501	0.211
502	0.213
502	0.215
503	0.216
503	0.218
504	0.219
504	0.22
505	0.22
505	0.22
506	0.22
506	0.221
506	0.221
507	0.221
507	0.221
508	0.221
508	0.221
509	0.221
509	0.222
510	0.223
510	0.223
511	0.223
511	0.222
511	0.222
512	0.222
512	0.222
513	0.222
513	0.221
514	0.22
514	0.218
515	0.217
515	0.216
515	0.215
516	0.214
516	0.214
517	0.215
517	0.215
518	0.216
518	0.215
519	0.214
519	0.212
520	0.21
520	0.208
520	0.205
521	0.202
521	0.199
522	0.196
522	0.193
523	0.191
523	0.19
524	0.191
524	0.192
524	0.195
525	0.198
525	0.201
526	0.204
526	0.208
527	0.212
527	0.215
528	0.217
528	0.219
529	0.221
529	0.222
529	0.222
530	0.223
530	0.223
531	0.224
531	0.224
532	0.224
532	0.224
533	0.224
533	0.225
533	0.225
534	0.224
534	0.224
535	0.223
535	0.222
536	0.222
536	0.222
537	0.222
537	0.221
538	0.22
538	0.219
538	0.218
539	0.217
539	0.217
540	0.216
540	0.215
541	0.214
541	0.212
542	0.21
542	0.208
542	0.207
543	0.205
543	0.204
544	0.203
544	0.202
545	0.201
545	0.2
546	0.2
546	0.2
547	0.199
547	0.197
547	0.194
548	0.192
548	0.189
549	0.187
549	0.185
550	0.183
550	0.181
551	0.178
551	0.176
551	0.174
552	0.173
552	0.172
553	0.172
553	0.172
554	0.171
554	0.17
555	0.168
555	0.166
556	0.163
556	0.16
556	0.157
557	0.154
557	0.151
558	0.149
558	0.147
559	0.146
559	0.145
560	0.145
560	0.145
560	0.145
561	0.146
561	0.146
562	0.147
562	0.146
563	0.144
563	0.142
564	0.14
564	0.136
564	0.134
565	0.131
565	0.13
566	0.129
566	0.128
567	0.128
567	0.129
568	0.131
568	0.132
568	0.134
569	0.137
569	0.14
570	0.142
570	0.143
571	0.144
571	0.145
572	0.146
572	0.147
573	0.147
573	0.147
573	0.147
574	0.146
574	0.145
575	0.144
575	0.145
576	0.146
576	0.146
577	0.145
577	0.144
577	0.143
578	0.142
578	0.142
579	0.143
579	0.145
580	0.145
580	0.144
581	0.141
581	0.139
581	0.138
582	0.137
582	0.137
583	0.137
583	0.137
584	0.135
584	0.131
585	0.128
585	0.127
585	0.126
586	0.126
586	0.126
587	0.125
587	0.123
588	0.12
588	0.118
589	0.116
589	0.115
590	0.113
590	0.112
590	0.113
591	0.114
591	0.114
592	0.114
592	0.113
593	0.112
593	0.112
594	0.112
594	0.111
594	0.11
595	0.109
595	0.108
596	0.106
596	0.106
597	0.109
597	0.111
598	0.113
598	0.114
598	0.116
599	0.117
599	0.117
600	0.117
600	0.116
601	0.115
601	0.114
602	0.112
602	0.11
602	0.108
603	0.107
603	0.107
604	0.107
604	0.108
605	0.109
605	0.111
606	0.112
606	0.112
606	0.111
607	0.11
607	0.11
608	0.11
608	0.108
609	0.107
609	0.106
610	0.104
610	0.103
610	0.102
611	0.102
611	0.102
612	0.103
612	0.104
613	0.105
613	0.107
614	0.107
614	0.107
614	0.107
615	0.106
615	0.106
616	0.105
616	0.105
617	0.104
617	0.103
618	0.101
618	0.1
618	0.1
619	0.1
619	0.1
620	0.102
620	0.103
621	0.104
621	0.105
622	0.106
622	0.107
622	0.107
623	0.107
623	0.108
624	0.109
624	0.109
625	0.108
625	0.108
626	0.108
626	0.108
626	0.108
627	0.108
627	0.109
628	0.109
628	0.109
629	0.11
629	0.11
630	0.11
630	0.11
630	0.11
631	0.111
631	0.111
632	0.111
632	0.111
633	0.112
633	0.113
634	0.114
634	0.116
634	0.118
635	0.12
635	0.121
636	0.123
636	0.125
637	0.126
637	0.127
638	0.129
638	0.131
638	0.132
639	0.133
639	0.133
640	0.134
640	0.136
641	0.137
641	0.138
642	0.14
642	0.142
642	0.144
643	0.145
643	0.147
644	0.148
644	0.15
645	0.152
645	0.154
646	0.156
646	0.16
646	0.163
647	0.167
647	0.171
648	0.175
648	0.178
649	0.181
649	0.185
650	0.188
650	0.192
650	0.194
651	0.197
651	0.199
652	0.201
652	0.203
653	0.205
653	0.214
653	0.221
654	0.18
654	0.149
655	0.156
655	0.158
656	0.16
656	0.161
657	0.163
657	0.165
657	0.166
658	0.162
658	0.155
659	0.192
659	0.242
660	0.242
660	0.243
661	0.245
661	0.247
661	0.249
662	0.252
662	0.255
663	0.259
663	0.262
664	0.265
664	0.268
665	0.27
665	0.273
665	0.276
666	0.279
666	0.282
667	0.284
667	0.287
668	0.29
668	0.293
669	0.296
669	0.299
669	0.303
670	0.308
670	0.312
671	0.314
671	0.316
672	0.318
672	0.319
672	0.32
673	0.321
673	0.322
674	0.323
674	0.322
675	0.322
675	0.322
676	0.324
676	0.326
676	0.328
677	0.33
677	0.333
678	0.335
678	0.337
679	0.339
679	0.34
680	0.342
680	0.343
680	0.344
681	0.344
681	0.345
682	0.345
682	0.346
683	0.348
683	0.35
684	0.353
684	0.354
684	0.355
685	0.356
685	0.358
686	0.359
686	0.36
687	0.36
687	0.36
687	0.36
688	0.359
688	0.358
689	0.358
689	0.359
690	0.36
690	0.359
691	0.359
691	0.359
691	0.36
692	0.36
692	0.36
693	0.36
693	0.36
694	0.36
694	0.359
695	0.358
695	0.36
695	0.361
696	0.361
696	0.36
697	0.359
697	0.358
698	0.356
698	0.354
698	0.351
699	0.35
699	0.347
700	0.343
700	0.34
701	0.338
701	0.337
702	0.335
702	0.334
702	0.332
703	0.331
703	0.33
704	0.328
704	0.327
705	0.327
705	0.326
705	0.324
706	0.323
706	0.322
707	0.32
707	0.317
708	0.315
708	0.313
709	0.312
709	0.31
709	0.306
710	0.303
710	0.3
711	0.297
711	0.295
712	0.293
712	0.292
713	0.29
713	0.288
713	0.286
714	0.283
714	0.281
715	0.278
715	0.275
716	0.272
716	0.27
716	0.267
717	0.265
717	0.262
718	0.26
718	0.257
719	0.256
719	0.254
720	0.253
720	0.251
720	0.249
721	0.246
721	0.243
722	0.241
722	0.237
723	0.235
723	0.233
723	0.23
724	0.227
724	0.224
725	0.221
725	0.219
726	0.216
726	0.214
727	0.211
727	0.209
727	0.207
728	0.205
728	0.203
729	0.202
729	0.201
730	0.2
730	0.198
730	0.197
731	0.195
731	0.194
732	0.193
732	0.192
733	0.19
733	0.188
734	0.185
734	0.183
734	0.181
735	0.18
735	0.177
736	0.175
736	0.173
737	0.17
737	0.169
737	0.167
738	0.165
738	0.162
739	0.159
739	0.156
740	0.153
740	0.151
741	0.15
741	0.147
741	0.144
742	0.139
742	0.135
743	0.131
743	0.128
744	0.126
744	0.124
744	0.121
745	0.118
745	0.115
746	0.113
746	0.111
747	0.11
747	0.109
748	0.109
748	0.109
748	0.108
749	0.107
749	0.106
750	0.105
750	0.105
751	0.104
751	0.104
751	0.104
752	0.104
752	0.102
753	0.101
753	0.1
754	0.1
754	0.099
754	0.099
755	0.099
755	0.099
756	0.099
756	0.097
757	0.096
757	0.095
758	0.094
758	0.093
758	0.092
759	0.09
759	0.087
760	0.084
760	0.081
761	0.078
761	0.077
761	0.075
762	0.073
762	0.071
763	0.07
763	0.068
764	0.065
764	0.062
764	0.06
765	0.058
765	0.056
766	0.054
766	0.054
767	0.053
767	0.051
768	0.048
768	0.046
768	0.045
769	0.044
769	0.044
770	0.043
770	0.041
771	0.039
771	0.036
771	0.033
772	0.03
772	0.028
773	0.025
773	0.022
774	0.019
774	0.015
775	0.012
775	0.008
775	0.005
776	0
776	-0.004
777	-0.008
777	-0.013
778	-0.019
778	-0.025
778	-0.031
779	-0.036
779	-0.038
780	-0.042
780	-0.048
781	-0.052
781	-0.056
781	-0.059
782	-0.062
782	-0.066
783	-0.069
783	-0.07
784	-0.072
784	-0.075
784	-0.077
785	-0.079
785	-0.081
786	-0.081
786	-0.079
787	-0.075
787	-0.071
788	-0.07
788	-0.071
788	-0.072
789	-0.074
789	-0.074
790	-0.071
790	-0.069
791	-0.07
791	-0.072
791	-0.074
792	-0.068
792	-0.059
793	-0.053
793	-0.05
794	-0.048
794	-0.05
794	-0.053
795	-0.055
795	-0.055
796	-0.055
796	-0.057
797	-0.065
797	-0.074
797	-0.08
798	-0.085
798	-0.088
799	-0.089
799	-0.089
800	-0.089
800	-0.091
801	-0.094
801	-0.095
801	-0.096
802	-0.098
802	-0.099
803	-0.1
803	-0.101
804	-0.1
804	-0.095
804	-0.089
805	-0.085
805	-0.083
806	-0.081
806	-0.08
807	-0.079
807	-0.078
807	-0.078
808	-0.077
808	-0.077
809	-0.082
809	-0.086
810	-0.089
810	-0.091
810	-0.094
811	-0.097
811	-0.097
812	-0.093
812	-0.09
813	-0.09
813	-0.091
813	-0.092
814	-0.093
814	-0.092
815	-0.09
815	-0.087
816	-0.085
816	-0.086
817	-0.09
817	-0.094
817	-0.094
818	-0.094
818	-0.09
819	-0.085
819	-0.083
820	-0.084
820	-0.086
820	-0.087
821	-0.087
821	-0.086
822	-0.084
822	-0.081
823	-0.078
823	-0.077
823	-0.077
824	-0.074
824	-0.068
825	-0.06
825	-0.05
826	-0.041
826	-0.034
826	-0.026
827	-0.019
827	-0.012
828	-0.006
828	-0
829	0.005
829	0.01
829	0.014
830	0.017
830	0.02
831	0.024
831	0.028
832	0.031
832	0.034
832	0.036
833	0.038
833	0.04
834	0.042
834	0.044
835	0.045
835	0.046
835	0.047
836	0.048
836	0.049
837	0.049
837	0.05
838	0.051
838	0.051
839	0.051
839	0.052
839	0.052
840	0.053
840	0.053
841	0.054
841	0.055
842	0.056
842	0.057
842	0.059
843	0.06
843	0.061
844	0.063
844	0.064
845	0.065
845	0.067
845	0.068
846	0.07
846	0.071
847	0.073
847	0.074
848	0.076
848	0.078
848	0.079
849	0.081
849	0.082
850	0.082
850	0.083
851	0.083
851	0.084
851	0.084
852	0.084
852	0.084
853	0.084
853	0.084
854	0.085
854	0.085
854	0.085
855	0.086
855	0.086
856	0.086
856	0.086
857	0.086
857	0.085
857	0.084
858	0.083
858	0.082
859	0.081
859	0.08
860	0.08
860	0.079
860	0.078
861	0.077
861	0.077
862	0.076
862	0.076
863	0.076
863	0.076
863	0.077
864	0.077
864	0.078
865	0.079
865	0.08
866	0.081
866	0.082
866	0.083
867	0.085
867	0.086
868	0.087
868	0.088
869	0.089
869	0.09
869	0.09
870	0.091
870	0.091
871	0.091
871	0.092
872	0.092
872	0.092
872	0.091
873	0.092
873	0.092
874	0.092
874	0.092
875	0.093
875	0.094
875	0.095
876	0.095
876	0.095
877	0.096
877	0.096
878	0.095
878	0.095
878	0.094
879	0.094
879	0.093
880	0.092
880	0.091
881	0.09
881	0.089
881	0.088
882	0.088
882	0.088
883	0.088
883	0.088
884	0.088
884	0.088
884	0.089
885	0.089
885	0.09
886	0.091
886	0.092
887	0.092
887	0.093
887	0.093
888	0.094
888	0.094
889	0.094
889	0.095
890	0.096
890	0.096
890	0.096
891	0.096
891	0.097
892	0.097
892	0.097
893	0.097
893	0.098
893	0.098
894	0.098
894	0.098
895	0.098
895	0.098
895	0.098
896	0.098
896	0.099
897	0.099
897	0.099
898	0.099
898	0.099
898	0.1
899	0.1
899	0.1
900	0.1
900	0.1
901	0.101
901	0.101
901	0.101
902	0.101
902	0.102
903	0.102
903	0.102
904	0.102
904	0.101
904	0.101
905	0.101
905	0.1
906	0.1
906	0.1
907	0.099
907	0.099
907	0.099
908	0.099
908	0.1
909	0.1
909	0.1
910	0.101
910	0.101
910	0.101
911	0.101
911	0.102
912	0.102
912	0.102
913	0.103
913	0.103
913	0.103
914	0.103
914	0.103
915	0.103
915	0.102
916	0.102
916	0.101
916	0.1
917	0.1
917	0.099
918	0.098
918	0.098
918	0.097
919	0.097
919	0.096
920	0.096
920	0.096
921	0.096
921	0.096
921	0.096
922	0.095
922	0.095
923	0.095
923	0.095
924	0.095
924	0.094
924	0.094
925	0.094
925	0.093
926	0.093
926	0.093
927	0.092
927	0.092
927	0.092
928	0.091
928	0.091
929	0.092
929	0.092
930	0.093
930	0.094
930	0.095
931	0.097
931	0.098
932	0.1
932	0.101
933	0.103
933	0.105
933	0.106
934	0.107
934	0.108
935	0.109
935	0.109
935	0.11
936	0.11
936	0.111
937	0.111
937	0.112
938	0.112
938	0.113
938	0.113
939	0.114
939	0.115
940	0.116
940	0.116
941	0.117
941	0.117
941	0.117
942	0.116
942	0.116
943	0.115
943	0.114
944	0.114
944	0.113
944	0.113
945	0.113
945	0.113
946	0.113
946	0.113
946	0.114
947	0.114
947	0.114
948	0.114
948	0.114
949	0.114
949	0.114
949	0.113
950	0.113
950	0.112
951	0.111
951	0.11
952	0.109
952	0.108
952	0.108
953	0.107
953	0.107
954	0.107
954	0.106
955	0.107
955	0.108
955	0.109
956	0.11
956	0.111
957	0.112
957	0.112
957	0.113
958	0.113
958	0.113
959	0.113
959	0.113
960	0.112
960	0.111
960	0.11
961	0.11
961	0.109
962	0.108
962	0.108
963	0.108
963	0.108
963	0.108
964	0.108
964	0.108
965	0.109
965	0.109
966	0.109
966	0.109
966	0.11
967	0.11
967	0.109
968	0.109
968	0.108
968	0.107
969	0.106
969	0.105
970	0.104
970	0.103
971	0.102
971	0.101
971	0.101
972	0.1
972	0.1
973	0.1
973	0.101
974	0.101
974	0.102
974	0.102
975	0.103
975	0.104
976	0.105
976	0.106
976	0.106
977	0.107
977	0.107
978	0.107
978	0.106
979	0.106
979	0.106
979	0.106
980	0.106
980	0.105
981	0.104
981	0.104
982	0.104
982	0.104
982	0.104
983	0.104
983	0.103
984	0.103
984	0.103
984	0.103
985	0.102
985	0.102
986	0.101
986	0.1
987	0.1
987	0.099
987	0.099
988	0.098
988	0.098
989	0.097
989	0.097
990	0.097
990	0.097
990	0.097
991	0.098
991	0.099
992	0.099
992	0.1
992	0.1
993	0.1
993	0.1
994	0.1
994	0.1
995	0.1
995	0.1
995	0.099
996	0.098
996	0.098
997	0.097
997	0.097
997	0.097
998	0.097
998	0.097
999	0.097
999	0.098
1000	0.098
1000	0.099
1000	0.1
1001	0.1
1001	0.101
1002	0.102
1002	0.102
1003	0.103
1003	0.103
1003	0.104
1004	0.104
1004	0.104
1005	0.104
1005	0.104
1005	0.104
1006	0.104
1006	0.103
1007	0.103
1007	0.103
1008	0.102
1008	0.102
1008	0.102
1009	0.102
1009	0.102
1010	0.102
1010	0.102
1010	0.102
1011	0.102
1011	0.102
1012	0.102
1012	0.102
1013	0.102
1013	0.102
1013	0.101
1014	0.101
1014	0.1
1015	0.1
1015	0.099
1016	0.099
1016	0.099
1016	0.098
1017	0.097
1017	0.097
1018	0.096
1018	0.096
1018	0.095
1019	0.095
1019	0.094
1020	0.094
1020	0.094
1021	0.093
1021	0.093
1021	0.093
1022	0.093
1022	0.093
1023	0.093
1023	0.093
1023	0.092
1024	0.092
1024	0.091
1025	0.091
1025	0.09
1026	0.09
1026	0.09
1026	0.09
1027	0.09
1027	0.089
1028	0.09
1028	0.09
1028	0.091
1029	0.091
1029	0.092
1030	0.092
1030	0.093
1031	0.093
1031	0.094
1031	0.094
1032	0.095
1032	0.095
1033	0.096
1033	0.096
1033	0.096
1034	0.096
1034	0.096
1035	0.096
1035	0.096
1036	0.096
1036	0.097
1036	0.097
1037	0.098
1037	0.098
1038	0.099
1038	0.1
1039	0.101
1039	0.102
1039	0.103
1040	0.104
1040	0.104
1041	0.104
1041	0.105
1041	0.104
1042	0.104
1042	0.104
1043	0.103
1043	0.103
1044	0.102
1044	0.102
1044	0.101
1045	0.101
1045	0.1
1046	0.099
1046	0.099
1046	0.099
1047	0.099
1047	0.099
1048	0.099
1048	0.099
1049	0.098
1049	0.098
1049	0.097
1050	0.097
1050	0.097
1051	0.097
1051	0.098
1051	0.098
1052	0.098
1052	0.098
1053	0.098
1053	0.099
1053	0.099
1054	0.099
1054	0.099
1055	0.1
1055	0.1
1056	0.1
1056	0.101
1056	0.101
1057	0.102
1057	0.103
1058	0.105
1058	0.106
1058	0.108
1059	0.111
1059	0.112
1060	0.114
1060	0.116
1061	0.118
1061	0.121
1061	0.122
1062	0.124
1062	0.125
1063	0.126
1063	0.127
1063	0.128
1064	0.13
1064	0.131
1065	0.133
1065	0.134
1066	0.135
1066	0.137
1066	0.139
1067	0.14
1067	0.142
1068	0.143
1068	0.144
1068	0.146
1069	0.147
1069	0.147
1070	0.149
1070	0.151
1071	0.153
1071	0.155
1071	0.156
1072	0.158
1072	0.161
1073	0.164
1073	0.167
1073	0.17
1074	0.172
1074	0.175
1075	0.176
1075	0.178
1076	0.18
1076	0.183
1076	0.185
1077	0.187
1077	0.19
1078	0.192
1078	0.195
1078	0.198
1079	0.201
1079	0.205
1080	0.208
1080	0.211
1080	0.214
1081	0.218
1081	0.221
1082	0.224
1082	0.227
1083	0.232
1083	0.236
1083	0.241
1084	0.246
1084	0.252
1085	0.258
1085	0.265
1085	0.27
1086	0.277
1086	0.282
1087	0.289
1087	0.296
1088	0.303
1088	0.31
1088	0.319
1089	0.327
1089	0.337
1090	0.349
1090	0.363
1090	0.377
1091	0.393
1091	0.411
1092	0.429
1092	0.449
1092	0.471
1093	0.492
1093	0.518
1094	0.545
1094	0.575
1095	0.606
1095	0.644
1095	0.693
1096	0.744
1096	0.808
1097	0.894
1097	0.992
1097	1.141
1098	1.361
1098	1.881
1099	-0
1099	-0
1100	-0
1100	-0
1100	-0
1101	-0
1101	-0
1102	-0
1102	-0
1102	-0
1103	-0
1103	-0
1104	-0
1104	-0
1104	-0
1105	-0
1105	-0
1106	-0
1106	-0
1107	-0
1107	-0
1107	-0
1108	-0
1108	-0
1109	-0
1109	-0
1109	-0
1110	-0
1110	-0
1111	-0
1111	-0
