Data from 15c-2-5a_Absorbance__739__01646.txt Node

Date: Tue Jan 16 11:51:52 CET 2024
User: Marek
Spectrometer: MAYP115816
Trigger mode: 0
Integration Time (sec): 2.000000E-1
Scans to average: 10
Electric dark correction enabled: true
Nonlinearity correction enabled: true
Boxcar width: 5
XAxis mode: Wavelengths
Number of Pixels in Spectrum: 2068
>>>>>Begin Spectral Data<<<<<
199	-2.213
199	-2.025
200	-1.889
200	-1.769
201	-1.694
201	-1.643
202	-1.566
202	-1.503
203	-1.454
203	-1.405
204	-1.378
204	-1.352
205	-1.332
205	-1.32
205	-1.317
206	-1.312
206	-1.309
207	-1.306
207	-1.305
208	-1.301
208	-1.3
209	-1.295
209	-1.293
210	-1.293
210	-1.29
211	-1.288
211	-1.287
212	-1.286
212	-1.286
213	-1.284
213	-1.283
213	-1.283
214	-1.281
214	-1.28
215	-1.279
215	-1.279
216	-1.276
216	-1.275
217	-1.272
217	-1.27
218	-1.266
218	-1.262
219	-1.257
219	-1.256
220	-1.254
220	-1.253
221	-1.248
221	-1.247
221	-1.242
222	-1.238
222	-1.233
223	-1.228
223	-1.223
224	-1.217
224	-1.209
225	-1.2
225	-1.19
226	-1.181
226	-1.172
227	-1.158
227	-1.145
228	-1.129
228	-1.112
229	-1.091
229	-1.068
229	-1.042
230	-1.013
230	-0.981
231	-0.945
231	-0.906
232	-0.866
232	-0.823
233	-0.776
233	-0.729
234	-0.68
234	-0.631
235	-0.58
235	-0.531
236	-0.482
236	-0.434
236	-0.385
237	-0.34
237	-0.295
238	-0.252
238	-0.211
239	-0.172
239	-0.135
240	-0.1
240	-0.068
241	-0.037
241	-0.009
242	0.018
242	0.043
243	0.066
243	0.088
243	0.108
244	0.126
244	0.143
245	0.159
245	0.174
246	0.188
246	0.201
247	0.213
247	0.224
248	0.235
248	0.245
249	0.254
249	0.262
250	0.27
250	0.278
250	0.285
251	0.292
251	0.298
252	0.304
252	0.31
253	0.315
253	0.32
254	0.324
254	0.329
255	0.333
255	0.336
256	0.34
256	0.343
257	0.346
257	0.349
258	0.351
258	0.353
258	0.355
259	0.357
259	0.359
260	0.36
260	0.362
261	0.363
261	0.364
262	0.365
262	0.365
263	0.366
263	0.367
264	0.367
264	0.368
265	0.368
265	0.368
265	0.368
266	0.369
266	0.369
267	0.368
267	0.368
268	0.368
268	0.367
269	0.367
269	0.366
270	0.365
270	0.364
271	0.363
271	0.363
272	0.362
272	0.361
272	0.36
273	0.359
273	0.359
274	0.358
274	0.357
275	0.356
275	0.354
276	0.353
276	0.352
277	0.35
277	0.348
278	0.346
278	0.344
278	0.343
279	0.341
279	0.339
280	0.338
280	0.338
281	0.337
281	0.336
282	0.336
282	0.335
283	0.335
283	0.335
284	0.334
284	0.334
285	0.333
285	0.332
285	0.331
286	0.33
286	0.329
287	0.328
287	0.327
288	0.326
288	0.326
289	0.325
289	0.324
290	0.323
290	0.322
291	0.321
291	0.32
292	0.32
292	0.319
292	0.318
293	0.317
293	0.316
294	0.315
294	0.315
295	0.314
295	0.313
296	0.312
296	0.311
297	0.311
297	0.31
298	0.31
298	0.309
298	0.309
299	0.308
299	0.307
300	0.307
300	0.306
301	0.305
301	0.305
302	0.304
302	0.304
303	0.303
303	0.302
304	0.302
304	0.301
305	0.3
305	0.3
305	0.299
306	0.298
306	0.297
307	0.297
307	0.296
308	0.295
308	0.294
309	0.293
309	0.293
310	0.292
310	0.291
311	0.29
311	0.29
311	0.289
312	0.288
312	0.287
313	0.286
313	0.285
314	0.284
314	0.284
315	0.283
315	0.282
316	0.281
316	0.28
317	0.279
317	0.278
318	0.277
318	0.276
318	0.275
319	0.274
319	0.273
320	0.273
320	0.271
321	0.27
321	0.269
322	0.268
322	0.267
323	0.266
323	0.265
324	0.265
324	0.264
324	0.263
325	0.262
325	0.262
326	0.261
326	0.26
327	0.259
327	0.258
328	0.258
328	0.257
329	0.256
329	0.255
330	0.254
330	0.253
330	0.252
331	0.251
331	0.25
332	0.249
332	0.249
333	0.248
333	0.247
334	0.246
334	0.245
335	0.244
335	0.243
336	0.243
336	0.242
336	0.241
337	0.24
337	0.24
338	0.239
338	0.238
339	0.237
339	0.237
340	0.236
340	0.235
341	0.235
341	0.234
342	0.233
342	0.232
342	0.232
343	0.231
343	0.231
344	0.23
344	0.229
345	0.229
345	0.228
346	0.227
346	0.227
347	0.226
347	0.225
348	0.224
348	0.224
348	0.223
349	0.222
349	0.221
350	0.22
350	0.219
351	0.218
351	0.217
352	0.216
352	0.215
353	0.214
353	0.213
354	0.212
354	0.21
354	0.209
355	0.208
355	0.207
356	0.205
356	0.205
357	0.204
357	0.203
358	0.203
358	0.204
359	0.204
359	0.205
360	0.206
360	0.207
360	0.208
361	0.209
361	0.209
362	0.21
362	0.21
363	0.21
363	0.21
364	0.209
364	0.209
365	0.208
365	0.207
366	0.207
366	0.207
366	0.206
367	0.206
367	0.206
368	0.205
368	0.205
369	0.204
369	0.204
370	0.204
370	0.203
371	0.203
371	0.202
372	0.202
372	0.201
372	0.201
373	0.2
373	0.2
374	0.2
374	0.2
375	0.2
375	0.2
376	0.2
376	0.2
377	0.2
377	0.201
378	0.201
378	0.201
378	0.202
379	0.202
379	0.202
380	0.202
380	0.202
381	0.202
381	0.202
382	0.201
382	0.201
383	0.201
383	0.2
383	0.2
384	0.199
384	0.199
385	0.199
385	0.199
386	0.199
386	0.199
387	0.199
387	0.199
388	0.198
388	0.198
389	0.198
389	0.198
389	0.198
390	0.198
390	0.198
391	0.198
391	0.199
392	0.199
392	0.199
393	0.199
393	0.199
394	0.199
394	0.199
394	0.199
395	0.198
395	0.198
396	0.198
396	0.198
397	0.198
397	0.199
398	0.199
398	0.199
399	0.199
399	0.199
400	0.199
400	0.198
400	0.198
401	0.197
401	0.196
402	0.194
402	0.194
403	0.193
403	0.193
404	0.193
404	0.193
405	0.192
405	0.192
405	0.191
406	0.191
406	0.191
407	0.192
407	0.191
408	0.191
408	0.19
409	0.189
409	0.189
410	0.189
410	0.189
411	0.189
411	0.189
411	0.188
412	0.188
412	0.188
413	0.187
413	0.187
414	0.187
414	0.186
415	0.186
415	0.186
416	0.185
416	0.185
416	0.184
417	0.184
417	0.184
418	0.184
418	0.184
419	0.185
419	0.185
420	0.186
420	0.187
421	0.188
421	0.188
421	0.189
422	0.189
422	0.189
423	0.189
423	0.189
424	0.188
424	0.187
425	0.186
425	0.185
426	0.184
426	0.184
427	0.184
427	0.184
427	0.184
428	0.185
428	0.186
429	0.187
429	0.188
430	0.188
430	0.188
431	0.188
431	0.187
432	0.187
432	0.186
432	0.185
433	0.184
433	0.183
434	0.182
434	0.181
435	0.181
435	0.181
436	0.181
436	0.182
437	0.182
437	0.182
437	0.182
438	0.182
438	0.182
439	0.182
439	0.181
440	0.181
440	0.181
441	0.181
441	0.181
442	0.182
442	0.182
442	0.183
443	0.183
443	0.184
444	0.185
444	0.185
445	0.186
445	0.186
446	0.186
446	0.186
447	0.186
447	0.185
447	0.185
448	0.185
448	0.184
449	0.184
449	0.183
450	0.183
450	0.183
451	0.182
451	0.182
452	0.181
452	0.181
452	0.18
453	0.18
453	0.179
454	0.178
454	0.177
455	0.177
455	0.176
456	0.176
456	0.176
457	0.176
457	0.175
458	0.175
458	0.175
458	0.176
459	0.176
459	0.176
460	0.176
460	0.175
461	0.175
461	0.174
462	0.174
462	0.174
463	0.174
463	0.175
463	0.176
464	0.176
464	0.176
465	0.177
465	0.177
466	0.177
466	0.177
467	0.177
467	0.176
467	0.175
468	0.174
468	0.171
469	0.169
469	0.168
470	0.167
470	0.167
471	0.167
471	0.166
472	0.166
472	0.166
472	0.167
473	0.168
473	0.169
474	0.17
474	0.171
475	0.172
475	0.173
476	0.173
476	0.174
477	0.174
477	0.174
477	0.175
478	0.175
478	0.175
479	0.176
479	0.177
480	0.177
480	0.179
481	0.179
481	0.18
482	0.181
482	0.182
482	0.184
483	0.186
483	0.189
484	0.192
484	0.196
485	0.198
485	0.199
486	0.201
486	0.202
487	0.203
487	0.204
487	0.204
488	0.204
488	0.202
489	0.2
489	0.198
490	0.196
490	0.195
491	0.194
491	0.194
492	0.194
492	0.194
492	0.194
493	0.195
493	0.196
494	0.197
494	0.2
495	0.202
495	0.203
496	0.204
496	0.205
496	0.206
497	0.207
497	0.208
498	0.208
498	0.209
499	0.209
499	0.208
500	0.209
500	0.21
501	0.212
501	0.213
501	0.215
502	0.217
502	0.218
503	0.22
503	0.222
504	0.223
504	0.223
505	0.223
505	0.223
506	0.224
506	0.224
506	0.224
507	0.224
507	0.224
508	0.224
508	0.224
509	0.225
509	0.226
510	0.226
510	0.226
511	0.226
511	0.226
511	0.225
512	0.226
512	0.226
513	0.226
513	0.224
514	0.222
514	0.221
515	0.22
515	0.219
515	0.219
516	0.218
516	0.218
517	0.219
517	0.219
518	0.219
518	0.218
519	0.217
519	0.216
520	0.213
520	0.211
520	0.208
521	0.205
521	0.201
522	0.198
522	0.196
523	0.194
523	0.194
524	0.195
524	0.198
524	0.201
525	0.204
525	0.208
526	0.211
526	0.214
527	0.218
527	0.221
528	0.223
528	0.225
529	0.226
529	0.226
529	0.227
530	0.227
530	0.227
531	0.227
531	0.228
532	0.228
532	0.227
533	0.228
533	0.228
533	0.229
534	0.228
534	0.227
535	0.227
535	0.227
536	0.226
536	0.226
537	0.226
537	0.225
538	0.225
538	0.223
538	0.222
539	0.221
539	0.221
540	0.22
540	0.219
541	0.217
541	0.215
542	0.213
542	0.212
542	0.21
543	0.209
543	0.208
544	0.207
544	0.206
545	0.204
545	0.204
546	0.204
546	0.204
547	0.203
547	0.201
547	0.198
548	0.195
548	0.193
549	0.19
549	0.188
550	0.186
550	0.184
551	0.182
551	0.18
551	0.177
552	0.176
552	0.175
553	0.175
553	0.175
554	0.175
554	0.174
555	0.172
555	0.169
556	0.166
556	0.163
556	0.16
557	0.157
557	0.155
558	0.153
558	0.151
559	0.149
559	0.149
560	0.148
560	0.148
560	0.148
561	0.149
561	0.149
562	0.149
562	0.148
563	0.147
563	0.145
564	0.142
564	0.139
564	0.136
565	0.134
565	0.133
566	0.131
566	0.131
567	0.13
567	0.131
568	0.133
568	0.135
568	0.137
569	0.14
569	0.142
570	0.144
570	0.145
571	0.146
571	0.148
572	0.148
572	0.149
573	0.149
573	0.149
573	0.149
574	0.148
574	0.147
575	0.147
575	0.147
576	0.149
576	0.148
577	0.147
577	0.146
577	0.145
578	0.144
578	0.144
579	0.145
579	0.147
580	0.147
580	0.146
581	0.143
581	0.141
581	0.14
582	0.139
582	0.139
583	0.139
583	0.139
584	0.136
584	0.132
585	0.13
585	0.128
585	0.128
586	0.128
586	0.128
587	0.126
587	0.124
588	0.121
588	0.119
589	0.117
589	0.116
590	0.115
590	0.114
590	0.114
591	0.115
591	0.115
592	0.115
592	0.114
593	0.114
593	0.114
594	0.113
594	0.112
594	0.111
595	0.111
595	0.109
596	0.108
596	0.108
597	0.11
597	0.112
598	0.114
598	0.116
598	0.118
599	0.119
599	0.119
600	0.119
600	0.117
601	0.116
601	0.115
602	0.113
602	0.111
602	0.11
603	0.108
603	0.108
604	0.108
604	0.109
605	0.11
605	0.112
606	0.113
606	0.113
606	0.112
607	0.112
607	0.111
608	0.111
608	0.109
609	0.108
609	0.107
610	0.106
610	0.104
610	0.103
611	0.103
611	0.103
612	0.104
612	0.105
613	0.107
613	0.108
614	0.109
614	0.108
614	0.108
615	0.108
615	0.107
616	0.107
616	0.106
617	0.106
617	0.105
618	0.103
618	0.102
618	0.102
619	0.102
619	0.102
620	0.104
620	0.105
621	0.106
621	0.107
622	0.108
622	0.109
622	0.109
623	0.109
623	0.11
624	0.11
624	0.11
625	0.11
625	0.11
626	0.11
626	0.11
626	0.11
627	0.11
627	0.11
628	0.111
628	0.111
629	0.112
629	0.112
630	0.112
630	0.112
630	0.112
631	0.113
631	0.113
632	0.113
632	0.113
633	0.114
633	0.114
634	0.116
634	0.118
634	0.12
635	0.122
635	0.124
636	0.125
636	0.127
637	0.129
637	0.13
638	0.132
638	0.133
638	0.134
639	0.135
639	0.136
640	0.137
640	0.138
641	0.139
641	0.141
642	0.142
642	0.144
642	0.146
643	0.148
643	0.149
644	0.151
644	0.152
645	0.154
645	0.156
646	0.159
646	0.162
646	0.166
647	0.171
647	0.174
648	0.178
648	0.181
649	0.185
649	0.188
650	0.191
650	0.195
650	0.198
651	0.2
651	0.202
652	0.204
652	0.206
653	0.209
653	0.217
653	0.225
654	0.183
654	0.151
655	0.158
655	0.16
656	0.162
656	0.164
657	0.166
657	0.167
657	0.168
658	0.165
658	0.158
659	0.195
659	0.246
660	0.246
660	0.248
661	0.249
661	0.251
661	0.253
662	0.256
662	0.259
663	0.263
663	0.266
664	0.269
664	0.272
665	0.275
665	0.278
665	0.28
666	0.283
666	0.286
667	0.289
667	0.292
668	0.294
668	0.297
669	0.3
669	0.304
669	0.308
670	0.313
670	0.317
671	0.32
671	0.322
672	0.323
672	0.325
672	0.326
673	0.327
673	0.328
674	0.328
674	0.328
675	0.328
675	0.328
676	0.329
676	0.331
676	0.333
677	0.335
677	0.338
678	0.34
678	0.342
679	0.344
679	0.345
680	0.347
680	0.349
680	0.349
681	0.349
681	0.35
682	0.35
682	0.351
683	0.353
683	0.355
684	0.358
684	0.359
684	0.36
685	0.361
685	0.363
686	0.365
686	0.366
687	0.366
687	0.366
687	0.366
688	0.365
688	0.364
689	0.364
689	0.365
690	0.365
690	0.365
691	0.365
691	0.365
691	0.365
692	0.365
692	0.365
693	0.365
693	0.365
694	0.365
694	0.363
695	0.364
695	0.365
695	0.366
696	0.366
696	0.365
697	0.364
697	0.363
698	0.361
698	0.359
698	0.356
699	0.355
699	0.352
700	0.348
700	0.346
701	0.344
701	0.342
702	0.34
702	0.339
702	0.338
703	0.336
703	0.335
704	0.333
704	0.332
705	0.332
705	0.33
705	0.329
706	0.328
706	0.327
707	0.325
707	0.322
708	0.32
708	0.318
709	0.316
709	0.314
709	0.311
710	0.307
710	0.304
711	0.302
711	0.299
712	0.297
712	0.296
713	0.294
713	0.292
713	0.29
714	0.287
714	0.285
715	0.282
715	0.279
716	0.276
716	0.273
716	0.271
717	0.268
717	0.266
718	0.263
718	0.26
719	0.259
719	0.257
720	0.256
720	0.254
720	0.252
721	0.249
721	0.247
722	0.244
722	0.241
723	0.238
723	0.236
723	0.234
724	0.231
724	0.228
725	0.224
725	0.222
726	0.219
726	0.217
727	0.214
727	0.212
727	0.21
728	0.208
728	0.205
729	0.205
729	0.204
730	0.203
730	0.201
730	0.2
731	0.198
731	0.197
732	0.196
732	0.195
733	0.192
733	0.19
734	0.188
734	0.185
734	0.183
735	0.181
735	0.179
736	0.177
736	0.174
737	0.172
737	0.171
737	0.169
738	0.167
738	0.164
739	0.161
739	0.158
740	0.155
740	0.154
741	0.152
741	0.15
741	0.146
742	0.141
742	0.137
743	0.134
743	0.131
744	0.128
744	0.126
744	0.123
745	0.12
745	0.117
746	0.114
746	0.112
747	0.111
747	0.11
748	0.11
748	0.11
748	0.109
749	0.108
749	0.107
750	0.106
750	0.105
751	0.105
751	0.105
751	0.105
752	0.105
752	0.103
753	0.102
753	0.101
754	0.101
754	0.1
754	0.1
755	0.101
755	0.101
756	0.1
756	0.099
757	0.097
757	0.097
758	0.096
758	0.094
758	0.093
759	0.092
759	0.089
760	0.086
760	0.083
761	0.08
761	0.078
761	0.076
762	0.074
762	0.073
763	0.071
763	0.069
764	0.066
764	0.063
764	0.061
765	0.059
765	0.056
766	0.055
766	0.054
767	0.054
767	0.052
768	0.048
768	0.046
768	0.045
769	0.045
769	0.045
770	0.043
770	0.042
771	0.04
771	0.037
771	0.034
772	0.031
772	0.029
773	0.027
773	0.024
774	0.02
774	0.017
775	0.013
775	0.01
775	0.006
776	0.002
776	-0.002
777	-0.006
777	-0.011
778	-0.016
778	-0.022
778	-0.028
779	-0.032
779	-0.035
780	-0.039
780	-0.045
781	-0.05
781	-0.054
781	-0.058
782	-0.061
782	-0.066
783	-0.069
783	-0.07
784	-0.072
784	-0.075
784	-0.077
785	-0.079
785	-0.081
786	-0.081
786	-0.079
787	-0.075
787	-0.071
788	-0.07
788	-0.071
788	-0.072
789	-0.074
789	-0.074
790	-0.071
790	-0.069
791	-0.07
791	-0.072
791	-0.074
792	-0.069
792	-0.059
793	-0.054
793	-0.05
794	-0.048
794	-0.05
794	-0.053
795	-0.055
795	-0.055
796	-0.055
796	-0.057
797	-0.065
797	-0.074
797	-0.081
798	-0.086
798	-0.088
799	-0.089
799	-0.089
800	-0.089
800	-0.091
801	-0.094
801	-0.095
801	-0.096
802	-0.098
802	-0.099
803	-0.1
803	-0.101
804	-0.1
804	-0.095
804	-0.089
805	-0.085
805	-0.083
806	-0.081
806	-0.08
807	-0.079
807	-0.078
807	-0.078
808	-0.077
808	-0.078
809	-0.082
809	-0.087
810	-0.089
810	-0.091
810	-0.094
811	-0.097
811	-0.097
812	-0.093
812	-0.09
813	-0.09
813	-0.091
813	-0.092
814	-0.093
814	-0.092
815	-0.09
815	-0.087
816	-0.086
816	-0.086
817	-0.09
817	-0.094
817	-0.094
818	-0.094
818	-0.09
819	-0.085
819	-0.083
820	-0.084
820	-0.086
820	-0.087
821	-0.087
821	-0.086
822	-0.084
822	-0.082
823	-0.079
823	-0.078
823	-0.078
824	-0.076
824	-0.07
825	-0.062
825	-0.053
826	-0.045
826	-0.037
826	-0.029
827	-0.022
827	-0.015
828	-0.008
828	-0.003
829	0.003
829	0.007
829	0.011
830	0.015
830	0.018
831	0.023
831	0.026
832	0.03
832	0.033
832	0.035
833	0.037
833	0.039
834	0.041
834	0.043
835	0.044
835	0.045
835	0.046
836	0.047
836	0.048
837	0.049
837	0.05
838	0.05
838	0.051
839	0.051
839	0.051
839	0.052
840	0.052
840	0.053
841	0.054
841	0.055
842	0.056
842	0.057
842	0.058
843	0.059
843	0.061
844	0.062
844	0.064
845	0.065
845	0.067
845	0.068
846	0.069
846	0.071
847	0.072
847	0.074
848	0.076
848	0.077
848	0.079
849	0.08
849	0.081
850	0.082
850	0.082
851	0.083
851	0.083
851	0.084
852	0.084
852	0.084
853	0.084
853	0.085
854	0.085
854	0.086
854	0.086
855	0.086
855	0.086
856	0.086
856	0.086
857	0.086
857	0.085
857	0.085
858	0.084
858	0.082
859	0.081
859	0.08
860	0.079
860	0.078
860	0.078
861	0.077
861	0.076
862	0.075
862	0.075
863	0.075
863	0.076
863	0.076
864	0.076
864	0.077
865	0.079
865	0.079
866	0.08
866	0.081
866	0.082
867	0.083
867	0.085
868	0.086
868	0.087
869	0.088
869	0.089
869	0.089
870	0.09
870	0.09
871	0.091
871	0.091
872	0.091
872	0.091
872	0.091
873	0.091
873	0.091
874	0.091
874	0.092
875	0.093
875	0.093
875	0.094
876	0.095
876	0.095
877	0.095
877	0.095
878	0.095
878	0.094
878	0.094
879	0.093
879	0.092
880	0.091
880	0.09
881	0.089
881	0.089
881	0.088
882	0.088
882	0.088
883	0.088
883	0.088
884	0.088
884	0.088
884	0.089
885	0.089
885	0.09
886	0.091
886	0.092
887	0.092
887	0.093
887	0.093
888	0.094
888	0.094
889	0.094
889	0.095
890	0.096
890	0.096
890	0.096
891	0.096
891	0.097
892	0.097
892	0.097
893	0.097
893	0.098
893	0.098
894	0.098
894	0.098
895	0.098
895	0.098
895	0.098
896	0.098
896	0.099
897	0.099
897	0.099
898	0.1
898	0.1
898	0.1
899	0.1
899	0.101
900	0.101
900	0.101
901	0.101
901	0.102
901	0.102
902	0.102
902	0.102
903	0.102
903	0.102
904	0.102
904	0.102
904	0.101
905	0.101
905	0.101
906	0.1
906	0.1
907	0.1
907	0.1
907	0.1
908	0.1
908	0.1
909	0.101
909	0.101
910	0.101
910	0.101
910	0.101
911	0.101
911	0.101
912	0.101
912	0.101
913	0.102
913	0.102
913	0.102
914	0.102
914	0.102
915	0.102
915	0.102
916	0.101
916	0.101
916	0.1
917	0.1
917	0.099
918	0.098
918	0.098
918	0.097
919	0.097
919	0.096
920	0.096
920	0.096
921	0.096
921	0.096
921	0.095
922	0.095
922	0.095
923	0.095
923	0.094
924	0.094
924	0.094
924	0.094
925	0.094
925	0.093
926	0.093
926	0.093
927	0.092
927	0.092
927	0.092
928	0.092
928	0.092
929	0.092
929	0.093
930	0.093
930	0.094
930	0.096
931	0.097
931	0.099
932	0.1
932	0.102
933	0.104
933	0.105
933	0.106
934	0.107
934	0.108
935	0.109
935	0.109
935	0.109
936	0.109
936	0.11
937	0.11
937	0.111
938	0.111
938	0.112
938	0.113
939	0.114
939	0.115
940	0.115
940	0.116
941	0.116
941	0.116
941	0.116
942	0.116
942	0.115
943	0.115
943	0.114
944	0.113
944	0.113
944	0.113
945	0.113
945	0.113
946	0.114
946	0.114
946	0.114
947	0.114
947	0.114
948	0.114
948	0.114
949	0.114
949	0.114
949	0.113
950	0.113
950	0.112
951	0.111
951	0.11
952	0.109
952	0.109
952	0.108
953	0.108
953	0.107
954	0.107
954	0.107
955	0.107
955	0.108
955	0.108
956	0.109
956	0.11
957	0.111
957	0.111
957	0.112
958	0.112
958	0.112
959	0.113
959	0.112
960	0.111
960	0.111
960	0.11
961	0.109
961	0.108
962	0.108
962	0.107
963	0.107
963	0.107
963	0.107
964	0.107
964	0.108
965	0.108
965	0.108
966	0.109
966	0.109
966	0.109
967	0.109
967	0.108
968	0.108
968	0.107
968	0.106
969	0.105
969	0.104
970	0.103
970	0.102
971	0.101
971	0.1
971	0.099
972	0.099
972	0.099
973	0.099
973	0.1
974	0.1
974	0.101
974	0.101
975	0.102
975	0.103
976	0.104
976	0.105
976	0.106
977	0.106
977	0.106
978	0.106
978	0.106
979	0.106
979	0.106
979	0.106
980	0.105
980	0.104
981	0.104
981	0.103
982	0.103
982	0.103
982	0.103
983	0.103
983	0.102
984	0.102
984	0.102
984	0.102
985	0.102
985	0.101
986	0.101
986	0.1
987	0.1
987	0.099
987	0.099
988	0.098
988	0.098
989	0.097
989	0.097
990	0.097
990	0.097
990	0.097
991	0.098
991	0.098
992	0.099
992	0.099
992	0.1
993	0.1
993	0.1
994	0.1
994	0.1
995	0.099
995	0.099
995	0.098
996	0.097
996	0.097
997	0.096
997	0.096
997	0.096
998	0.096
998	0.096
999	0.096
999	0.097
1000	0.097
1000	0.098
1000	0.099
1001	0.1
1001	0.1
1002	0.101
1002	0.101
1003	0.102
1003	0.102
1003	0.103
1004	0.103
1004	0.103
1005	0.103
1005	0.103
1005	0.103
1006	0.102
1006	0.102
1007	0.102
1007	0.101
1008	0.101
1008	0.101
1008	0.101
1009	0.101
1009	0.101
1010	0.101
1010	0.101
1010	0.101
1011	0.101
1011	0.102
1012	0.102
1012	0.102
1013	0.102
1013	0.102
1013	0.102
1014	0.101
1014	0.101
1015	0.101
1015	0.1
1016	0.1
1016	0.099
1016	0.098
1017	0.098
1017	0.097
1018	0.096
1018	0.096
1018	0.095
1019	0.094
1019	0.094
1020	0.093
1020	0.093
1021	0.093
1021	0.092
1021	0.092
1022	0.092
1022	0.092
1023	0.092
1023	0.091
1023	0.091
1024	0.091
1024	0.09
1025	0.089
1025	0.089
1026	0.089
1026	0.089
1026	0.088
1027	0.089
1027	0.089
1028	0.089
1028	0.089
1028	0.089
1029	0.09
1029	0.09
1030	0.091
1030	0.091
1031	0.092
1031	0.092
1031	0.092
1032	0.093
1032	0.094
1033	0.094
1033	0.095
1033	0.095
1034	0.095
1034	0.095
1035	0.095
1035	0.095
1036	0.095
1036	0.096
1036	0.096
1037	0.097
1037	0.097
1038	0.098
1038	0.099
1039	0.1
1039	0.101
1039	0.102
1040	0.102
1040	0.103
1041	0.103
1041	0.103
1041	0.103
1042	0.102
1042	0.102
1043	0.102
1043	0.101
1044	0.101
1044	0.1
1044	0.1
1045	0.099
1045	0.099
1046	0.098
1046	0.098
1046	0.098
1047	0.098
1047	0.098
1048	0.099
1048	0.099
1049	0.099
1049	0.098
1049	0.098
1050	0.098
1050	0.098
1051	0.098
1051	0.098
1051	0.098
1052	0.098
1052	0.098
1053	0.098
1053	0.098
1053	0.099
1054	0.099
1054	0.099
1055	0.1
1055	0.1
1056	0.1
1056	0.1
1056	0.1
1057	0.101
1057	0.102
1058	0.103
1058	0.105
1058	0.107
1059	0.109
1059	0.111
1060	0.113
1060	0.115
1061	0.118
1061	0.12
1061	0.122
1062	0.123
1062	0.124
1063	0.125
1063	0.126
1063	0.127
1064	0.129
1064	0.13
1065	0.131
1065	0.133
1066	0.134
1066	0.135
1066	0.137
1067	0.139
1067	0.141
1068	0.142
1068	0.143
1068	0.144
1069	0.145
1069	0.145
1070	0.146
1070	0.148
1071	0.149
1071	0.151
1071	0.152
1072	0.155
1072	0.158
1073	0.161
1073	0.163
1073	0.166
1074	0.169
1074	0.172
1075	0.173
1075	0.175
1076	0.176
1076	0.179
1076	0.18
1077	0.182
1077	0.185
1078	0.187
1078	0.189
1078	0.192
1079	0.196
1079	0.2
1080	0.203
1080	0.207
1080	0.209
1081	0.213
1081	0.217
1082	0.22
1082	0.224
1083	0.228
1083	0.232
1083	0.238
1084	0.242
1084	0.248
1085	0.253
1085	0.259
1085	0.265
1086	0.271
1086	0.276
1087	0.283
1087	0.29
1088	0.296
1088	0.302
1088	0.311
1089	0.32
1089	0.331
1090	0.341
1090	0.355
1090	0.367
1091	0.382
1091	0.4
1092	0.418
1092	0.439
1092	0.459
1093	0.479
1093	0.505
1094	0.529
1094	0.557
1095	0.588
1095	0.627
1095	0.674
1096	0.723
1096	0.781
1097	0.862
1097	0.952
1097	1.086
1098	1.271
1098	1.647
1099	-0
1099	-0
1100	-0
1100	-0
1100	-0
1101	-0
1101	-0
1102	-0
1102	-0
1102	-0
1103	-0
1103	-0
1104	-0
1104	-0
1104	-0
1105	-0
1105	-0
1106	-0
1106	-0
1107	-0
1107	-0
1107	-0
1108	-0
1108	-0
1109	-0
1109	-0
1109	-0
1110	-0
1110	-0
1111	-0
1111	-0
