Data from 15c-2-5a_Absorbance__233__01140.txt Node

Date: Tue Jan 16 11:35:00 CET 2024
User: Marek
Spectrometer: MAYP115816
Trigger mode: 0
Integration Time (sec): 2.000000E-1
Scans to average: 10
Electric dark correction enabled: true
Nonlinearity correction enabled: true
Boxcar width: 5
XAxis mode: Wavelengths
Number of Pixels in Spectrum: 2068
>>>>>Begin Spectral Data<<<<<
199	-2.219
199	-2.029
200	-1.894
200	-1.774
201	-1.699
201	-1.647
202	-1.57
202	-1.507
203	-1.457
203	-1.408
204	-1.38
204	-1.355
205	-1.335
205	-1.323
205	-1.32
206	-1.315
206	-1.312
207	-1.309
207	-1.309
208	-1.305
208	-1.304
209	-1.3
209	-1.298
210	-1.297
210	-1.294
211	-1.293
211	-1.292
212	-1.291
212	-1.29
213	-1.287
213	-1.286
213	-1.286
214	-1.284
214	-1.283
215	-1.282
215	-1.282
216	-1.278
216	-1.277
217	-1.274
217	-1.272
218	-1.268
218	-1.264
219	-1.26
219	-1.259
220	-1.256
220	-1.255
221	-1.251
221	-1.249
221	-1.244
222	-1.24
222	-1.235
223	-1.23
223	-1.225
224	-1.22
224	-1.211
225	-1.202
225	-1.192
226	-1.184
226	-1.174
227	-1.16
227	-1.147
228	-1.131
228	-1.114
229	-1.093
229	-1.07
229	-1.045
230	-1.015
230	-0.983
231	-0.947
231	-0.908
232	-0.868
232	-0.825
233	-0.779
233	-0.731
234	-0.682
234	-0.633
235	-0.583
235	-0.534
236	-0.486
236	-0.438
236	-0.39
237	-0.344
237	-0.3
238	-0.258
238	-0.217
239	-0.179
239	-0.143
240	-0.108
240	-0.076
241	-0.046
241	-0.018
242	0.008
242	0.033
243	0.055
243	0.076
243	0.096
244	0.114
244	0.131
245	0.146
245	0.161
246	0.174
246	0.187
247	0.198
247	0.209
248	0.22
248	0.229
249	0.238
249	0.246
250	0.254
250	0.261
250	0.268
251	0.275
251	0.281
252	0.286
252	0.292
253	0.297
253	0.301
254	0.305
254	0.31
255	0.313
255	0.317
256	0.321
256	0.324
257	0.327
257	0.329
258	0.332
258	0.334
258	0.336
259	0.338
259	0.339
260	0.341
260	0.342
261	0.342
261	0.344
262	0.344
262	0.345
263	0.346
263	0.346
264	0.347
264	0.347
265	0.348
265	0.348
265	0.348
266	0.348
266	0.348
267	0.348
267	0.348
268	0.347
268	0.347
269	0.346
269	0.345
270	0.345
270	0.344
271	0.343
271	0.342
272	0.342
272	0.341
272	0.34
273	0.339
273	0.338
274	0.338
274	0.337
275	0.336
275	0.335
276	0.333
276	0.332
277	0.33
277	0.329
278	0.327
278	0.325
278	0.324
279	0.322
279	0.321
280	0.32
280	0.32
281	0.319
281	0.318
282	0.318
282	0.318
283	0.317
283	0.317
284	0.317
284	0.316
285	0.316
285	0.315
285	0.314
286	0.313
286	0.312
287	0.311
287	0.31
288	0.31
288	0.309
289	0.308
289	0.307
290	0.306
290	0.306
291	0.305
291	0.304
292	0.304
292	0.303
292	0.302
293	0.301
293	0.301
294	0.3
294	0.299
295	0.299
295	0.298
296	0.297
296	0.296
297	0.296
297	0.295
298	0.295
298	0.294
298	0.293
299	0.293
299	0.292
300	0.292
300	0.291
301	0.29
301	0.29
302	0.289
302	0.288
303	0.288
303	0.287
304	0.287
304	0.286
305	0.285
305	0.285
305	0.284
306	0.283
306	0.282
307	0.282
307	0.281
308	0.28
308	0.279
309	0.279
309	0.278
310	0.277
310	0.276
311	0.276
311	0.275
311	0.274
312	0.273
312	0.273
313	0.272
313	0.271
314	0.27
314	0.27
315	0.269
315	0.268
316	0.267
316	0.266
317	0.265
317	0.264
318	0.263
318	0.262
318	0.262
319	0.261
319	0.26
320	0.259
320	0.258
321	0.257
321	0.256
322	0.255
322	0.254
323	0.253
323	0.252
324	0.251
324	0.251
324	0.25
325	0.249
325	0.249
326	0.248
326	0.247
327	0.246
327	0.245
328	0.245
328	0.244
329	0.243
329	0.242
330	0.241
330	0.24
330	0.239
331	0.238
331	0.238
332	0.237
332	0.236
333	0.235
333	0.234
334	0.234
334	0.233
335	0.232
335	0.231
336	0.231
336	0.23
336	0.229
337	0.229
337	0.228
338	0.227
338	0.226
339	0.225
339	0.225
340	0.224
340	0.223
341	0.222
341	0.222
342	0.221
342	0.22
342	0.22
343	0.219
343	0.218
344	0.218
344	0.217
345	0.216
345	0.216
346	0.215
346	0.215
347	0.214
347	0.213
348	0.212
348	0.212
348	0.211
349	0.21
349	0.21
350	0.209
350	0.208
351	0.207
351	0.206
352	0.205
352	0.204
353	0.203
353	0.202
354	0.201
354	0.199
354	0.198
355	0.197
355	0.196
356	0.195
356	0.194
357	0.193
357	0.192
358	0.192
358	0.193
359	0.193
359	0.194
360	0.195
360	0.196
360	0.196
361	0.197
361	0.198
362	0.198
362	0.199
363	0.199
363	0.198
364	0.198
364	0.198
365	0.197
365	0.197
366	0.196
366	0.196
366	0.196
367	0.195
367	0.195
368	0.195
368	0.194
369	0.194
369	0.194
370	0.193
370	0.193
371	0.192
371	0.191
372	0.191
372	0.191
372	0.19
373	0.19
373	0.19
374	0.19
374	0.19
375	0.19
375	0.189
376	0.19
376	0.19
377	0.19
377	0.19
378	0.191
378	0.191
378	0.191
379	0.192
379	0.192
380	0.192
380	0.192
381	0.192
381	0.192
382	0.191
382	0.191
383	0.19
383	0.19
383	0.189
384	0.189
384	0.189
385	0.188
385	0.188
386	0.188
386	0.189
387	0.189
387	0.189
388	0.188
388	0.188
389	0.188
389	0.188
389	0.188
390	0.188
390	0.188
391	0.188
391	0.188
392	0.188
392	0.189
393	0.189
393	0.189
394	0.189
394	0.189
394	0.189
395	0.189
395	0.188
396	0.188
396	0.188
397	0.189
397	0.189
398	0.189
398	0.189
399	0.189
399	0.188
400	0.188
400	0.188
400	0.187
401	0.186
401	0.185
402	0.184
402	0.183
403	0.183
403	0.183
404	0.183
404	0.182
405	0.182
405	0.182
405	0.181
406	0.181
406	0.181
407	0.181
407	0.181
408	0.181
408	0.18
409	0.179
409	0.179
410	0.179
410	0.179
411	0.179
411	0.179
411	0.178
412	0.178
412	0.178
413	0.177
413	0.177
414	0.177
414	0.176
415	0.176
415	0.176
416	0.175
416	0.175
416	0.175
417	0.174
417	0.174
418	0.174
418	0.174
419	0.175
419	0.176
420	0.176
420	0.178
421	0.178
421	0.179
421	0.179
422	0.179
422	0.18
423	0.18
423	0.18
424	0.179
424	0.178
425	0.177
425	0.176
426	0.175
426	0.175
427	0.175
427	0.175
427	0.175
428	0.176
428	0.177
429	0.178
429	0.178
430	0.178
430	0.178
431	0.178
431	0.178
432	0.177
432	0.177
432	0.176
433	0.174
433	0.173
434	0.172
434	0.171
435	0.171
435	0.172
436	0.172
436	0.172
437	0.172
437	0.172
437	0.172
438	0.172
438	0.172
439	0.172
439	0.171
440	0.171
440	0.171
441	0.171
441	0.171
442	0.172
442	0.172
442	0.173
443	0.174
443	0.175
444	0.175
444	0.176
445	0.176
445	0.176
446	0.177
446	0.177
447	0.176
447	0.176
447	0.176
448	0.175
448	0.175
449	0.175
449	0.174
450	0.174
450	0.174
451	0.173
451	0.173
452	0.172
452	0.171
452	0.171
453	0.17
453	0.17
454	0.169
454	0.168
455	0.167
455	0.167
456	0.167
456	0.167
457	0.166
457	0.166
458	0.166
458	0.166
458	0.166
459	0.167
459	0.167
460	0.167
460	0.166
461	0.165
461	0.165
462	0.164
462	0.164
463	0.165
463	0.165
463	0.166
464	0.166
464	0.166
465	0.166
465	0.166
466	0.167
466	0.167
467	0.167
467	0.166
467	0.165
468	0.163
468	0.161
469	0.16
469	0.158
470	0.157
470	0.157
471	0.156
471	0.156
472	0.156
472	0.157
472	0.157
473	0.159
473	0.16
474	0.161
474	0.162
475	0.163
475	0.164
476	0.165
476	0.165
477	0.165
477	0.165
477	0.166
478	0.166
478	0.166
479	0.166
479	0.167
480	0.168
480	0.169
481	0.169
481	0.17
482	0.171
482	0.172
482	0.173
483	0.175
483	0.178
484	0.182
484	0.185
485	0.187
485	0.189
486	0.19
486	0.191
487	0.192
487	0.193
487	0.193
488	0.193
488	0.191
489	0.189
489	0.187
490	0.185
490	0.184
491	0.183
491	0.183
492	0.183
492	0.183
492	0.184
493	0.184
493	0.185
494	0.187
494	0.189
495	0.191
495	0.192
496	0.193
496	0.194
496	0.195
497	0.196
497	0.196
498	0.197
498	0.198
499	0.198
499	0.198
500	0.198
500	0.199
501	0.201
501	0.203
501	0.204
502	0.206
502	0.207
503	0.209
503	0.211
504	0.211
504	0.212
505	0.212
505	0.212
506	0.212
506	0.212
506	0.212
507	0.213
507	0.213
508	0.213
508	0.213
509	0.213
509	0.213
510	0.214
510	0.214
511	0.214
511	0.214
511	0.214
512	0.213
512	0.213
513	0.213
513	0.212
514	0.211
514	0.211
515	0.21
515	0.209
515	0.208
516	0.207
516	0.206
517	0.207
517	0.207
518	0.207
518	0.207
519	0.207
519	0.205
520	0.204
520	0.202
520	0.2
521	0.197
521	0.194
522	0.191
522	0.187
523	0.185
523	0.183
524	0.182
524	0.183
524	0.183
525	0.185
525	0.188
526	0.191
526	0.194
527	0.198
527	0.202
528	0.205
528	0.207
529	0.21
529	0.211
529	0.213
530	0.214
530	0.214
531	0.215
531	0.216
532	0.216
532	0.215
533	0.216
533	0.217
533	0.217
534	0.217
534	0.216
535	0.215
535	0.215
536	0.215
536	0.215
537	0.215
537	0.215
538	0.214
538	0.213
538	0.211
539	0.21
539	0.21
540	0.21
540	0.209
541	0.207
541	0.205
542	0.203
542	0.201
542	0.2
543	0.199
543	0.198
544	0.197
544	0.195
545	0.194
545	0.193
546	0.193
546	0.193
547	0.192
547	0.19
547	0.188
548	0.185
548	0.183
549	0.181
549	0.179
550	0.177
550	0.175
551	0.173
551	0.171
551	0.169
552	0.168
552	0.167
553	0.167
553	0.167
554	0.167
554	0.166
555	0.164
555	0.162
556	0.159
556	0.156
556	0.153
557	0.15
557	0.148
558	0.146
558	0.144
559	0.142
559	0.142
560	0.141
560	0.141
560	0.141
561	0.142
561	0.142
562	0.142
562	0.141
563	0.14
563	0.138
564	0.135
564	0.132
564	0.129
565	0.127
565	0.126
566	0.124
566	0.124
567	0.123
567	0.125
568	0.127
568	0.128
568	0.131
569	0.134
569	0.137
570	0.139
570	0.14
571	0.141
571	0.142
572	0.143
572	0.143
573	0.144
573	0.144
573	0.144
574	0.143
574	0.142
575	0.142
575	0.143
576	0.144
576	0.144
577	0.143
577	0.142
577	0.141
578	0.14
578	0.14
579	0.141
579	0.142
580	0.143
580	0.142
581	0.139
581	0.137
581	0.136
582	0.135
582	0.135
583	0.135
583	0.135
584	0.133
584	0.129
585	0.126
585	0.125
585	0.124
586	0.124
586	0.123
587	0.122
587	0.12
588	0.117
588	0.115
589	0.113
589	0.111
590	0.11
590	0.109
590	0.11
591	0.111
591	0.111
592	0.111
592	0.11
593	0.11
593	0.109
594	0.109
594	0.108
594	0.107
595	0.107
595	0.105
596	0.104
596	0.104
597	0.106
597	0.108
598	0.11
598	0.111
598	0.113
599	0.114
599	0.114
600	0.114
600	0.113
601	0.112
601	0.11
602	0.108
602	0.107
602	0.105
603	0.104
603	0.104
604	0.104
604	0.105
605	0.107
605	0.108
606	0.109
606	0.109
606	0.109
607	0.108
607	0.108
608	0.107
608	0.106
609	0.104
609	0.103
610	0.102
610	0.1
610	0.099
611	0.098
611	0.099
612	0.099
612	0.1
613	0.102
613	0.103
614	0.104
614	0.103
614	0.103
615	0.103
615	0.103
616	0.102
616	0.102
617	0.101
617	0.1
618	0.099
618	0.098
618	0.097
619	0.097
619	0.097
620	0.099
620	0.1
621	0.101
621	0.102
622	0.102
622	0.103
622	0.103
623	0.103
623	0.104
624	0.105
624	0.105
625	0.104
625	0.105
626	0.104
626	0.104
626	0.104
627	0.105
627	0.105
628	0.105
628	0.106
629	0.106
629	0.106
630	0.106
630	0.106
630	0.106
631	0.107
631	0.108
632	0.108
632	0.108
633	0.108
633	0.109
634	0.11
634	0.112
634	0.115
635	0.116
635	0.118
636	0.119
636	0.121
637	0.122
637	0.124
638	0.125
638	0.127
638	0.128
639	0.128
639	0.129
640	0.13
640	0.131
641	0.132
641	0.134
642	0.135
642	0.137
642	0.139
643	0.14
643	0.142
644	0.143
644	0.145
645	0.147
645	0.149
646	0.151
646	0.154
646	0.158
647	0.162
647	0.166
648	0.169
648	0.172
649	0.176
649	0.179
650	0.182
650	0.185
650	0.188
651	0.191
651	0.193
652	0.195
652	0.196
653	0.199
653	0.207
653	0.212
654	0.174
654	0.144
655	0.151
655	0.153
656	0.154
656	0.156
657	0.158
657	0.159
657	0.16
658	0.157
658	0.151
659	0.187
659	0.235
660	0.235
660	0.236
661	0.238
661	0.24
661	0.242
662	0.245
662	0.248
663	0.252
663	0.255
664	0.258
664	0.26
665	0.263
665	0.265
665	0.268
666	0.27
666	0.273
667	0.276
667	0.278
668	0.281
668	0.284
669	0.287
669	0.29
669	0.295
670	0.299
670	0.303
671	0.306
671	0.308
672	0.309
672	0.31
672	0.311
673	0.312
673	0.313
674	0.313
674	0.313
675	0.313
675	0.313
676	0.314
676	0.316
676	0.318
677	0.321
677	0.323
678	0.326
678	0.328
679	0.329
679	0.331
680	0.333
680	0.334
680	0.334
681	0.335
681	0.335
682	0.336
682	0.338
683	0.34
683	0.342
684	0.345
684	0.347
684	0.348
685	0.349
685	0.351
686	0.353
686	0.354
687	0.354
687	0.353
687	0.353
688	0.352
688	0.351
689	0.351
689	0.352
690	0.352
690	0.351
691	0.351
691	0.351
691	0.352
692	0.352
692	0.351
693	0.351
693	0.352
694	0.352
694	0.35
695	0.35
695	0.352
695	0.353
696	0.352
696	0.351
697	0.351
697	0.349
698	0.348
698	0.345
698	0.343
699	0.342
699	0.339
700	0.335
700	0.333
701	0.331
701	0.33
702	0.328
702	0.327
702	0.326
703	0.325
703	0.324
704	0.322
704	0.321
705	0.321
705	0.32
705	0.319
706	0.317
706	0.316
707	0.314
707	0.312
708	0.31
708	0.308
709	0.307
709	0.305
709	0.302
710	0.299
710	0.295
711	0.293
711	0.291
712	0.289
712	0.287
713	0.286
713	0.284
713	0.281
714	0.278
714	0.275
715	0.273
715	0.27
716	0.267
716	0.264
716	0.262
717	0.259
717	0.257
718	0.254
718	0.252
719	0.25
719	0.249
720	0.248
720	0.246
720	0.244
721	0.241
721	0.238
722	0.236
722	0.232
723	0.23
723	0.227
723	0.225
724	0.222
724	0.219
725	0.215
725	0.213
726	0.21
726	0.208
727	0.206
727	0.204
727	0.203
728	0.201
728	0.199
729	0.198
729	0.197
730	0.196
730	0.195
730	0.194
731	0.193
731	0.192
732	0.191
732	0.189
733	0.187
733	0.185
734	0.183
734	0.181
734	0.179
735	0.177
735	0.175
736	0.172
736	0.17
737	0.168
737	0.166
737	0.164
738	0.162
738	0.159
739	0.156
739	0.153
740	0.15
740	0.148
741	0.146
741	0.144
741	0.14
742	0.136
742	0.131
743	0.128
743	0.126
744	0.123
744	0.121
744	0.119
745	0.116
745	0.113
746	0.111
746	0.11
747	0.109
747	0.108
748	0.108
748	0.108
748	0.107
749	0.106
749	0.106
750	0.105
750	0.105
751	0.104
751	0.105
751	0.105
752	0.104
752	0.102
753	0.101
753	0.1
754	0.1
754	0.099
754	0.099
755	0.098
755	0.098
756	0.098
756	0.096
757	0.095
757	0.094
758	0.093
758	0.091
758	0.09
759	0.088
759	0.086
760	0.082
760	0.079
761	0.076
761	0.075
761	0.073
762	0.071
762	0.069
763	0.069
763	0.066
764	0.063
764	0.061
764	0.058
765	0.056
765	0.054
766	0.053
766	0.052
767	0.052
767	0.049
768	0.046
768	0.044
768	0.042
769	0.042
769	0.041
770	0.04
770	0.038
771	0.035
771	0.032
771	0.029
772	0.026
772	0.024
773	0.021
773	0.018
774	0.014
774	0.01
775	0.007
775	0.004
775	-0.001
776	-0.005
776	-0.01
777	-0.015
777	-0.02
778	-0.025
778	-0.032
778	-0.038
779	-0.042
779	-0.044
780	-0.048
780	-0.053
781	-0.056
781	-0.059
781	-0.062
782	-0.064
782	-0.068
783	-0.07
783	-0.071
784	-0.072
784	-0.075
784	-0.077
785	-0.078
785	-0.08
786	-0.081
786	-0.079
787	-0.075
787	-0.071
788	-0.07
788	-0.071
788	-0.072
789	-0.074
789	-0.073
790	-0.07
790	-0.069
791	-0.07
791	-0.071
791	-0.074
792	-0.068
792	-0.059
793	-0.053
793	-0.05
794	-0.048
794	-0.05
794	-0.053
795	-0.055
795	-0.055
796	-0.055
796	-0.057
797	-0.065
797	-0.074
797	-0.08
798	-0.085
798	-0.088
799	-0.089
799	-0.088
800	-0.089
800	-0.091
801	-0.094
801	-0.095
801	-0.096
802	-0.098
802	-0.099
803	-0.1
803	-0.101
804	-0.1
804	-0.095
804	-0.089
805	-0.085
805	-0.083
806	-0.081
806	-0.08
807	-0.079
807	-0.078
807	-0.077
808	-0.077
808	-0.077
809	-0.081
809	-0.086
810	-0.089
810	-0.091
810	-0.094
811	-0.096
811	-0.096
812	-0.093
812	-0.09
813	-0.09
813	-0.091
813	-0.092
814	-0.092
814	-0.092
815	-0.09
815	-0.087
816	-0.085
816	-0.086
817	-0.09
817	-0.094
817	-0.094
818	-0.094
818	-0.09
819	-0.085
819	-0.083
820	-0.084
820	-0.086
820	-0.087
821	-0.087
821	-0.085
822	-0.083
822	-0.08
823	-0.077
823	-0.075
823	-0.074
824	-0.071
824	-0.064
825	-0.056
825	-0.047
826	-0.037
826	-0.029
826	-0.022
827	-0.015
827	-0.009
828	-0.003
828	0.002
829	0.007
829	0.011
829	0.015
830	0.017
830	0.02
831	0.024
831	0.027
832	0.03
832	0.033
832	0.035
833	0.037
833	0.039
834	0.041
834	0.043
835	0.044
835	0.046
835	0.046
836	0.047
836	0.048
837	0.049
837	0.049
838	0.049
838	0.049
839	0.05
839	0.05
839	0.05
840	0.051
840	0.052
841	0.053
841	0.054
842	0.056
842	0.057
842	0.058
843	0.06
843	0.061
844	0.063
844	0.064
845	0.066
845	0.067
845	0.069
846	0.07
846	0.071
847	0.073
847	0.074
848	0.076
848	0.077
848	0.078
849	0.079
849	0.08
850	0.081
850	0.081
851	0.082
851	0.082
851	0.082
852	0.083
852	0.083
853	0.084
853	0.084
854	0.085
854	0.086
854	0.086
855	0.086
855	0.086
856	0.086
856	0.086
857	0.085
857	0.085
857	0.084
858	0.083
858	0.082
859	0.081
859	0.081
860	0.08
860	0.08
860	0.079
861	0.078
861	0.078
862	0.078
862	0.078
863	0.078
863	0.078
863	0.079
864	0.079
864	0.08
865	0.081
865	0.082
866	0.083
866	0.084
866	0.085
867	0.086
867	0.087
868	0.088
868	0.089
869	0.09
869	0.09
869	0.09
870	0.09
870	0.091
871	0.091
871	0.091
872	0.09
872	0.09
872	0.09
873	0.09
873	0.09
874	0.09
874	0.091
875	0.092
875	0.092
875	0.093
876	0.094
876	0.094
877	0.094
877	0.094
878	0.093
878	0.093
878	0.092
879	0.091
879	0.09
880	0.088
880	0.087
881	0.086
881	0.085
881	0.085
882	0.085
882	0.085
883	0.085
883	0.086
884	0.087
884	0.088
884	0.088
885	0.089
885	0.09
886	0.092
886	0.092
887	0.093
887	0.093
887	0.094
888	0.094
888	0.094
889	0.094
889	0.095
890	0.095
890	0.095
890	0.095
891	0.095
891	0.095
892	0.095
892	0.095
893	0.096
893	0.096
893	0.096
894	0.097
894	0.097
895	0.097
895	0.097
895	0.097
896	0.098
896	0.098
897	0.098
897	0.099
898	0.099
898	0.099
898	0.099
899	0.099
899	0.099
900	0.099
900	0.099
901	0.1
901	0.1
901	0.1
902	0.101
902	0.101
903	0.101
903	0.102
904	0.102
904	0.101
904	0.101
905	0.101
905	0.1
906	0.1
906	0.1
907	0.099
907	0.099
907	0.099
908	0.1
908	0.1
909	0.1
909	0.101
910	0.101
910	0.101
910	0.101
911	0.101
911	0.102
912	0.102
912	0.102
913	0.103
913	0.103
913	0.103
914	0.104
914	0.103
915	0.103
915	0.103
916	0.103
916	0.102
916	0.102
917	0.101
917	0.1
918	0.099
918	0.098
918	0.097
919	0.097
919	0.097
920	0.096
920	0.096
921	0.096
921	0.096
921	0.095
922	0.095
922	0.095
923	0.094
923	0.094
924	0.093
924	0.093
924	0.092
925	0.091
925	0.091
926	0.09
926	0.089
927	0.089
927	0.088
927	0.088
928	0.088
928	0.088
929	0.088
929	0.089
930	0.09
930	0.091
930	0.092
931	0.094
931	0.095
932	0.097
932	0.098
933	0.1
933	0.101
933	0.102
934	0.103
934	0.104
935	0.105
935	0.105
935	0.106
936	0.106
936	0.107
937	0.108
937	0.108
938	0.109
938	0.11
938	0.111
939	0.111
939	0.112
940	0.113
940	0.114
941	0.114
941	0.114
941	0.115
942	0.115
942	0.114
943	0.114
943	0.113
944	0.113
944	0.113
944	0.112
945	0.113
945	0.113
946	0.114
946	0.114
946	0.114
947	0.114
947	0.114
948	0.114
948	0.114
949	0.114
949	0.114
949	0.114
950	0.113
950	0.113
951	0.112
951	0.111
952	0.111
952	0.111
952	0.11
953	0.11
953	0.11
954	0.11
954	0.11
955	0.111
955	0.111
955	0.112
956	0.113
956	0.114
957	0.115
957	0.115
957	0.115
958	0.115
958	0.115
959	0.115
959	0.115
960	0.114
960	0.113
960	0.112
961	0.112
961	0.111
962	0.111
962	0.111
963	0.111
963	0.112
963	0.112
964	0.112
964	0.113
965	0.113
965	0.114
966	0.114
966	0.115
966	0.115
967	0.115
967	0.114
968	0.114
968	0.113
968	0.112
969	0.111
969	0.11
970	0.109
970	0.108
971	0.107
971	0.106
971	0.105
972	0.105
972	0.105
973	0.105
973	0.105
974	0.106
974	0.106
974	0.106
975	0.107
975	0.108
976	0.108
976	0.109
976	0.109
977	0.109
977	0.108
978	0.108
978	0.108
979	0.107
979	0.107
979	0.107
980	0.106
980	0.106
981	0.105
981	0.105
982	0.105
982	0.105
982	0.105
983	0.105
983	0.105
984	0.104
984	0.104
984	0.104
985	0.103
985	0.102
986	0.102
986	0.101
987	0.1
987	0.099
987	0.098
988	0.098
988	0.097
989	0.097
989	0.096
990	0.096
990	0.096
990	0.097
991	0.097
991	0.098
992	0.099
992	0.099
992	0.1
993	0.1
993	0.101
994	0.101
994	0.101
995	0.101
995	0.101
995	0.101
996	0.101
996	0.1
997	0.099
997	0.099
997	0.099
998	0.099
998	0.1
999	0.1
999	0.1
1000	0.101
1000	0.101
1000	0.102
1001	0.103
1001	0.103
1002	0.104
1002	0.104
1003	0.105
1003	0.105
1003	0.105
1004	0.105
1004	0.105
1005	0.105
1005	0.105
1005	0.105
1006	0.104
1006	0.104
1007	0.104
1007	0.103
1008	0.103
1008	0.103
1008	0.102
1009	0.102
1009	0.103
1010	0.103
1010	0.103
1010	0.103
1011	0.103
1011	0.103
1012	0.104
1012	0.104
1013	0.104
1013	0.103
1013	0.103
1014	0.102
1014	0.102
1015	0.102
1015	0.101
1016	0.101
1016	0.1
1016	0.1
1017	0.099
1017	0.099
1018	0.098
1018	0.098
1018	0.098
1019	0.098
1019	0.098
1020	0.097
1020	0.097
1021	0.097
1021	0.097
1021	0.097
1022	0.097
1022	0.097
1023	0.097
1023	0.096
1023	0.096
1024	0.095
1024	0.094
1025	0.094
1025	0.093
1026	0.093
1026	0.092
1026	0.091
1027	0.091
1027	0.091
1028	0.09
1028	0.091
1028	0.091
1029	0.091
1029	0.091
1030	0.092
1030	0.092
1031	0.093
1031	0.093
1031	0.093
1032	0.094
1032	0.095
1033	0.095
1033	0.096
1033	0.096
1034	0.096
1034	0.096
1035	0.097
1035	0.097
1036	0.097
1036	0.098
1036	0.099
1037	0.1
1037	0.101
1038	0.102
1038	0.103
1039	0.104
1039	0.106
1039	0.107
1040	0.108
1040	0.109
1041	0.109
1041	0.109
1041	0.109
1042	0.109
1042	0.109
1043	0.108
1043	0.108
1044	0.108
1044	0.107
1044	0.106
1045	0.106
1045	0.105
1046	0.105
1046	0.104
1046	0.105
1047	0.105
1047	0.105
1048	0.105
1048	0.105
1049	0.105
1049	0.104
1049	0.104
1050	0.104
1050	0.104
1051	0.105
1051	0.105
1051	0.105
1052	0.106
1052	0.106
1053	0.106
1053	0.107
1053	0.108
1054	0.108
1054	0.109
1055	0.109
1055	0.109
1056	0.11
1056	0.11
1056	0.11
1057	0.11
1057	0.112
1058	0.113
1058	0.114
1058	0.117
1059	0.118
1059	0.12
1060	0.122
1060	0.123
1061	0.125
1061	0.128
1061	0.129
1062	0.13
1062	0.131
1063	0.132
1063	0.133
1063	0.134
1064	0.135
1064	0.136
1065	0.138
1065	0.139
1066	0.14
1066	0.142
1066	0.144
1067	0.146
1067	0.147
1068	0.149
1068	0.151
1068	0.152
1069	0.154
1069	0.154
1070	0.156
1070	0.158
1071	0.16
1071	0.161
1071	0.163
1072	0.166
1072	0.168
1073	0.171
1073	0.173
1073	0.176
1074	0.179
1074	0.181
1075	0.182
1075	0.184
1076	0.186
1076	0.189
1076	0.191
1077	0.193
1077	0.196
1078	0.198
1078	0.202
1078	0.205
1079	0.208
1079	0.213
1080	0.216
1080	0.22
1080	0.223
1081	0.227
1081	0.23
1082	0.234
1082	0.239
1083	0.243
1083	0.248
1083	0.253
1084	0.259
1084	0.265
1085	0.271
1085	0.278
1085	0.284
1086	0.29
1086	0.296
1087	0.303
1087	0.31
1088	0.317
1088	0.325
1088	0.335
1089	0.344
1089	0.355
1090	0.368
1090	0.381
1090	0.396
1091	0.411
1091	0.431
1092	0.45
1092	0.473
1092	0.496
1093	0.518
1093	0.545
1094	0.574
1094	0.607
1095	0.644
1095	0.687
1095	0.744
1096	0.804
1096	0.877
1097	0.98
1097	1.105
1097	1.317
1098	1.716
1098	-0
1099	-0
1099	-0
1100	-0
1100	-0
1100	-0
1101	-0
1101	-0
1102	-0
1102	-0
1102	-0
1103	-0
1103	-0
1104	-0
1104	-0
1104	-0
1105	-0
1105	-0
1106	-0
1106	-0
1107	-0
1107	-0
1107	-0
1108	-0
1108	-0
1109	-0
1109	-0
1109	-0
1110	-0
1110	-0
1111	-0
1111	-0
