Data from 17C_3.1A_35min_2sec_int_Absorbance__411__02814.txt Node

Date: Mon Jun 19 18:31:57 CEST 2023
User: Marek
Spectrometer: MAYP115816
Trigger mode: 0
Integration Time (sec): 2.500000E-1
Scans to average: 10
Electric dark correction enabled: true
Nonlinearity correction enabled: true
Boxcar width: 5
XAxis mode: Wavelengths
Number of Pixels in Spectrum: 2068
>>>>>Begin Spectral Data<<<<<
199	-0.761
199	-0.775
200	-0.672
200	-0.621
201	-0.587
201	-0.572
202	-0.554
202	-0.54
203	-0.531
203	-0.528
204	-0.514
204	-0.501
205	-0.476
205	-0.472
205	-0.47
206	-0.47
206	-0.474
207	-0.466
207	-0.47
208	-0.471
208	-0.468
209	-0.463
209	-0.462
210	-0.465
210	-0.473
211	-0.473
211	-0.474
212	-0.478
212	-0.486
213	-0.483
213	-0.483
213	-0.488
214	-0.484
214	-0.486
215	-0.489
215	-0.492
216	-0.496
216	-0.506
217	-0.499
217	-0.503
218	-0.508
218	-0.509
219	-0.514
219	-0.525
220	-0.53
220	-0.539
221	-0.538
221	-0.539
221	-0.533
222	-0.53
222	-0.531
223	-0.532
223	-0.536
224	-0.539
224	-0.538
225	-0.531
225	-0.525
226	-0.531
226	-0.531
227	-0.535
227	-0.545
228	-0.547
228	-0.546
229	-0.547
229	-0.54
229	-0.534
230	-0.539
230	-0.541
231	-0.535
231	-0.526
232	-0.52
232	-0.516
233	-0.508
233	-0.507
234	-0.507
234	-0.504
235	-0.509
235	-0.513
236	-0.513
236	-0.516
236	-0.523
237	-0.528
237	-0.53
238	-0.542
238	-0.54
239	-0.539
239	-0.548
240	-0.547
240	-0.546
241	-0.552
241	-0.551
242	-0.556
242	-0.554
243	-0.55
243	-0.55
243	-0.559
244	-0.557
244	-0.557
245	-0.571
245	-0.57
246	-0.574
246	-0.583
247	-0.584
247	-0.588
248	-0.597
248	-0.593
249	-0.597
249	-0.607
250	-0.606
250	-0.601
250	-0.599
251	-0.598
251	-0.594
252	-0.594
252	-0.584
253	-0.586
253	-0.598
254	-0.596
254	-0.595
255	-0.602
255	-0.597
256	-0.595
256	-0.605
257	-0.601
257	-0.602
258	-0.619
258	-0.617
258	-0.612
259	-0.609
259	-0.618
260	-0.618
260	-0.623
261	-0.635
261	-0.627
262	-0.627
262	-0.627
263	-0.616
263	-0.61
264	-0.611
264	-0.62
265	-0.615
265	-0.625
265	-0.628
266	-0.625
266	-0.623
267	-0.635
267	-0.643
268	-0.66
268	-0.67
269	-0.667
269	-0.661
270	-0.664
270	-0.666
271	-0.663
271	-0.668
272	-0.67
272	-0.663
272	-0.656
273	-0.654
273	-0.663
274	-0.67
274	-0.675
275	-0.676
275	-0.67
276	-0.678
276	-0.672
277	-0.676
277	-0.695
278	-0.706
278	-0.7
278	-0.692
279	-0.694
279	-0.704
280	-0.701
280	-0.701
281	-0.694
281	-0.7
282	-0.692
282	-0.691
283	-0.68
283	-0.682
284	-0.677
284	-0.666
285	-0.659
285	-0.658
285	-0.655
286	-0.662
286	-0.657
287	-0.655
287	-0.64
288	-0.631
288	-0.641
289	-0.655
289	-0.664
290	-0.655
290	-0.654
291	-0.651
291	-0.644
292	-0.648
292	-0.655
292	-0.661
293	-0.666
293	-0.653
294	-0.644
294	-0.634
295	-0.632
295	-0.628
296	-0.626
296	-0.623
297	-0.616
297	-0.601
298	-0.594
298	-0.603
298	-0.593
299	-0.584
299	-0.586
300	-0.581
300	-0.576
301	-0.573
301	-0.572
302	-0.579
302	-0.586
303	-0.571
303	-0.557
304	-0.561
304	-0.559
305	-0.559
305	-0.559
305	-0.56
306	-0.543
306	-0.538
307	-0.526
307	-0.528
308	-0.541
308	-0.539
309	-0.54
309	-0.532
310	-0.519
310	-0.516
311	-0.505
311	-0.515
311	-0.511
312	-0.506
312	-0.503
313	-0.489
313	-0.49
314	-0.489
314	-0.491
315	-0.494
315	-0.491
316	-0.489
316	-0.479
317	-0.473
317	-0.469
318	-0.457
318	-0.456
318	-0.452
319	-0.44
319	-0.437
320	-0.43
320	-0.432
321	-0.438
321	-0.437
322	-0.432
322	-0.427
323	-0.43
323	-0.425
324	-0.417
324	-0.409
324	-0.4
325	-0.39
325	-0.372
326	-0.354
326	-0.337
327	-0.322
327	-0.304
328	-0.276
328	-0.256
329	-0.233
329	-0.208
330	-0.183
330	-0.152
330	-0.126
331	-0.098
331	-0.069
332	-0.042
332	-0.017
333	0.005
333	0.03
334	0.05
334	0.067
335	0.086
335	0.1
336	0.115
336	0.129
336	0.138
337	0.149
337	0.157
338	0.166
338	0.171
339	0.179
339	0.185
340	0.19
340	0.195
341	0.198
341	0.202
342	0.205
342	0.209
342	0.212
343	0.214
343	0.217
344	0.219
344	0.22
345	0.221
345	0.222
346	0.223
346	0.224
347	0.224
347	0.225
348	0.225
348	0.226
348	0.226
349	0.226
349	0.227
350	0.227
350	0.227
351	0.228
351	0.228
352	0.228
352	0.228
353	0.228
353	0.228
354	0.228
354	0.228
354	0.228
355	0.227
355	0.227
356	0.227
356	0.227
357	0.226
357	0.226
358	0.225
358	0.225
359	0.225
359	0.225
360	0.225
360	0.225
360	0.225
361	0.224
361	0.224
362	0.225
362	0.225
363	0.225
363	0.225
364	0.225
364	0.225
365	0.225
365	0.225
366	0.225
366	0.225
366	0.225
367	0.225
367	0.225
368	0.225
368	0.225
369	0.225
369	0.225
370	0.225
370	0.225
371	0.224
371	0.224
372	0.224
372	0.224
372	0.224
373	0.224
373	0.224
374	0.224
374	0.224
375	0.224
375	0.224
376	0.224
376	0.224
377	0.224
377	0.224
378	0.224
378	0.224
378	0.224
379	0.224
379	0.224
380	0.224
380	0.223
381	0.223
381	0.223
382	0.223
382	0.223
383	0.222
383	0.222
383	0.222
384	0.222
384	0.222
385	0.222
385	0.222
386	0.222
386	0.222
387	0.222
387	0.222
388	0.222
388	0.222
389	0.222
389	0.222
389	0.222
390	0.223
390	0.222
391	0.222
391	0.222
392	0.222
392	0.222
393	0.222
393	0.222
394	0.221
394	0.221
394	0.221
395	0.221
395	0.22
396	0.221
396	0.22
397	0.22
397	0.221
398	0.221
398	0.221
399	0.221
399	0.221
400	0.22
400	0.22
400	0.22
401	0.22
401	0.22
402	0.22
402	0.219
403	0.219
403	0.219
404	0.219
404	0.219
405	0.219
405	0.219
405	0.219
406	0.219
406	0.218
407	0.218
407	0.218
408	0.218
408	0.218
409	0.218
409	0.218
410	0.219
410	0.219
411	0.219
411	0.219
411	0.219
412	0.219
412	0.219
413	0.219
413	0.218
414	0.218
414	0.218
415	0.218
415	0.218
416	0.217
416	0.217
416	0.217
417	0.217
417	0.217
418	0.217
418	0.217
419	0.218
419	0.218
420	0.218
420	0.218
421	0.218
421	0.218
421	0.218
422	0.218
422	0.218
423	0.218
423	0.217
424	0.217
424	0.216
425	0.216
425	0.216
426	0.215
426	0.215
427	0.215
427	0.215
427	0.215
428	0.215
428	0.215
429	0.215
429	0.214
430	0.214
430	0.214
431	0.214
431	0.214
432	0.214
432	0.214
432	0.213
433	0.213
433	0.213
434	0.213
434	0.213
435	0.213
435	0.213
436	0.213
436	0.213
437	0.213
437	0.213
437	0.213
438	0.213
438	0.213
439	0.213
439	0.213
440	0.212
440	0.212
441	0.212
441	0.212
442	0.212
442	0.212
442	0.212
443	0.211
443	0.212
444	0.212
444	0.211
445	0.211
445	0.211
446	0.212
446	0.212
447	0.212
447	0.212
447	0.212
448	0.212
448	0.212
449	0.212
449	0.212
450	0.213
450	0.212
451	0.212
451	0.212
452	0.212
452	0.212
452	0.212
453	0.212
453	0.211
454	0.211
454	0.211
455	0.211
455	0.211
456	0.21
456	0.21
457	0.21
457	0.21
458	0.21
458	0.21
458	0.21
459	0.21
459	0.21
460	0.21
460	0.21
461	0.21
461	0.21
462	0.21
462	0.21
463	0.21
463	0.211
463	0.211
464	0.211
464	0.211
465	0.211
465	0.211
466	0.211
466	0.211
467	0.211
467	0.211
467	0.211
468	0.211
468	0.21
469	0.21
469	0.211
470	0.211
470	0.211
471	0.211
471	0.211
472	0.211
472	0.211
472	0.212
473	0.212
473	0.212
474	0.212
474	0.212
475	0.213
475	0.213
476	0.213
476	0.213
477	0.213
477	0.213
477	0.213
478	0.214
478	0.214
479	0.214
479	0.214
480	0.214
480	0.214
481	0.215
481	0.215
482	0.215
482	0.215
482	0.216
483	0.216
483	0.216
484	0.216
484	0.216
485	0.216
485	0.216
486	0.217
486	0.217
487	0.217
487	0.218
487	0.218
488	0.219
488	0.219
489	0.22
489	0.222
490	0.222
490	0.223
491	0.224
491	0.225
492	0.225
492	0.226
492	0.227
493	0.227
493	0.228
494	0.229
494	0.23
495	0.23
495	0.231
496	0.232
496	0.233
496	0.233
497	0.234
497	0.235
498	0.236
498	0.237
499	0.238
499	0.239
500	0.24
500	0.241
501	0.242
501	0.243
501	0.243
502	0.244
502	0.245
503	0.246
503	0.247
504	0.248
504	0.249
505	0.25
505	0.251
506	0.252
506	0.253
506	0.254
507	0.254
507	0.255
508	0.256
508	0.257
509	0.258
509	0.259
510	0.26
510	0.261
511	0.262
511	0.263
511	0.264
512	0.266
512	0.267
513	0.268
513	0.27
514	0.271
514	0.272
515	0.273
515	0.274
515	0.275
516	0.276
516	0.277
517	0.278
517	0.279
518	0.28
518	0.281
519	0.282
519	0.283
520	0.284
520	0.286
520	0.287
521	0.288
521	0.29
522	0.291
522	0.292
523	0.293
523	0.295
524	0.296
524	0.296
524	0.297
525	0.298
525	0.298
526	0.299
526	0.3
527	0.301
527	0.301
528	0.302
528	0.303
529	0.304
529	0.305
529	0.306
530	0.307
530	0.307
531	0.308
531	0.308
532	0.309
532	0.31
533	0.311
533	0.311
533	0.312
534	0.312
534	0.312
535	0.313
535	0.313
536	0.313
536	0.313
537	0.314
537	0.314
538	0.314
538	0.315
538	0.315
539	0.316
539	0.317
540	0.317
540	0.318
541	0.318
541	0.319
542	0.319
542	0.32
542	0.32
543	0.32
543	0.32
544	0.319
544	0.319
545	0.32
545	0.32
546	0.32
546	0.32
547	0.32
547	0.32
547	0.321
548	0.321
548	0.321
549	0.322
549	0.322
550	0.323
550	0.323
551	0.324
551	0.325
551	0.326
552	0.327
552	0.328
553	0.328
553	0.329
554	0.329
554	0.329
555	0.329
555	0.329
556	0.329
556	0.329
556	0.329
557	0.329
557	0.329
558	0.329
558	0.328
559	0.328
559	0.329
560	0.329
560	0.329
560	0.329
561	0.329
561	0.329
562	0.329
562	0.328
563	0.328
563	0.328
564	0.329
564	0.329
564	0.329
565	0.33
565	0.33
566	0.33
566	0.331
567	0.331
567	0.331
568	0.331
568	0.331
568	0.33
569	0.33
569	0.329
570	0.328
570	0.327
571	0.328
571	0.327
572	0.327
572	0.327
573	0.327
573	0.327
573	0.326
574	0.326
574	0.327
575	0.327
575	0.328
576	0.328
576	0.328
577	0.328
577	0.328
577	0.328
578	0.329
578	0.329
579	0.33
579	0.33
580	0.329
580	0.328
581	0.328
581	0.328
581	0.328
582	0.329
582	0.329
583	0.329
583	0.329
584	0.328
584	0.328
585	0.329
585	0.33
585	0.33
586	0.33
586	0.33
587	0.33
587	0.329
588	0.329
588	0.329
589	0.329
589	0.329
590	0.329
590	0.329
590	0.33
591	0.33
591	0.329
592	0.329
592	0.328
593	0.329
593	0.329
594	0.328
594	0.328
594	0.328
595	0.328
595	0.328
596	0.328
596	0.329
597	0.331
597	0.331
598	0.33
598	0.33
598	0.33
599	0.33
599	0.329
600	0.328
600	0.327
601	0.327
601	0.326
602	0.325
602	0.325
602	0.324
603	0.325
603	0.326
604	0.326
604	0.326
605	0.327
605	0.327
606	0.327
606	0.326
606	0.326
607	0.326
607	0.326
608	0.325
608	0.323
609	0.323
609	0.323
610	0.323
610	0.323
610	0.323
611	0.324
611	0.325
612	0.326
612	0.326
613	0.327
613	0.327
614	0.327
614	0.326
614	0.325
615	0.324
615	0.324
616	0.323
616	0.322
617	0.321
617	0.319
618	0.318
618	0.318
618	0.317
619	0.317
619	0.317
620	0.318
620	0.317
621	0.317
621	0.316
622	0.316
622	0.315
622	0.314
623	0.314
623	0.314
624	0.313
624	0.312
625	0.312
625	0.311
626	0.31
626	0.31
626	0.309
627	0.308
627	0.307
628	0.306
628	0.304
629	0.303
629	0.301
630	0.299
630	0.296
630	0.294
631	0.292
631	0.29
632	0.287
632	0.284
633	0.281
633	0.278
634	0.275
634	0.272
634	0.27
635	0.266
635	0.263
636	0.259
636	0.255
637	0.251
637	0.246
638	0.241
638	0.237
638	0.232
639	0.226
639	0.22
640	0.214
640	0.208
641	0.203
641	0.197
642	0.191
642	0.186
642	0.18
643	0.173
643	0.166
644	0.159
644	0.152
645	0.145
645	0.138
646	0.13
646	0.122
646	0.114
647	0.106
647	0.098
648	0.09
648	0.082
649	0.072
649	0.064
650	0.056
650	0.047
650	0.037
651	0.026
651	0.012
652	-0.004
652	-0.021
653	-0.036
653	-0.049
653	-0.046
654	-0.025
654	-0.013
655	-0.017
655	-0.022
656	-0.028
656	-0.035
657	-0.041
657	-0.046
657	-0.052
658	-0.059
658	-0.09
659	-0.179
659	-0.284
660	-0.331
660	-0.358
661	-0.387
661	-0.418
661	-0.452
662	-0.485
662	-0.52
663	-0.559
663	-0.602
664	-0.645
664	-0.696
665	-0.747
665	-0.805
665	-0.86
666	-0.917
666	-0.978
667	-1.043
667	-1.108
668	-1.18
668	-1.252
669	-1.326
669	-1.399
669	-1.477
670	-1.544
670	-1.569
671	-1.683
671	-1.966
672	-2.197
672	-2.389
672	-2.519
673	-2.611
673	-2.692
674	-2.731
674	-2.75
675	-2.774
675	-2.915
676	-3.113
676	-3.064
676	-2.839
677	-2.634
677	-2.469
678	-2.289
678	-1.979
679	-1.719
679	-1.589
680	-1.495
680	-1.414
680	-1.344
681	-1.3
681	-1.242
682	-1.204
682	-1.168
683	-1.133
683	-1.117
684	-1.098
684	-1.079
684	-1.057
685	-1.033
685	-1.012
686	-0.987
686	-0.972
687	-0.948
687	-0.935
687	-0.917
688	-0.891
688	-0.871
689	-0.85
689	-0.838
690	-0.818
690	-0.805
691	-0.799
691	-0.805
691	-0.82
692	-0.813
692	-0.804
693	-0.8
693	-0.81
694	-0.804
694	-0.796
695	-0.802
695	-0.8
695	-0.785
696	-0.781
696	-0.761
697	-0.76
697	-0.776
698	-0.779
698	-0.767
698	-0.781
699	-0.785
699	-0.783
700	-0.774
700	-0.789
701	-0.788
701	-0.794
702	-0.796
702	-0.784
702	-0.776
703	-0.77
703	-0.762
704	-0.758
704	-0.757
705	-0.768
705	-0.761
705	-0.748
706	-0.748
706	-0.743
707	-0.746
707	-0.74
708	-0.739
708	-0.732
709	-0.736
709	-0.74
709	-0.731
710	-0.739
710	-0.75
711	-0.741
711	-0.744
712	-0.744
712	-0.76
713	-0.759
713	-0.766
713	-0.758
714	-0.754
714	-0.756
715	-0.747
715	-0.732
716	-0.741
716	-0.741
716	-0.733
717	-0.734
717	-0.736
718	-0.726
718	-0.725
719	-0.73
719	-0.731
720	-0.727
720	-0.736
720	-0.728
721	-0.716
721	-0.717
722	-0.704
722	-0.694
723	-0.694
723	-0.699
723	-0.688
724	-0.691
724	-0.696
725	-0.697
725	-0.706
726	-0.72
726	-0.729
727	-0.734
727	-0.747
727	-0.753
728	-0.752
728	-0.757
729	-0.759
729	-0.763
730	-0.771
730	-0.762
730	-0.754
731	-0.733
731	-0.743
732	-0.75
732	-0.751
733	-0.749
733	-0.755
734	-0.746
734	-0.746
734	-0.73
735	-0.729
735	-0.729
736	-0.739
736	-0.724
737	-0.713
737	-0.715
737	-0.727
738	-0.721
738	-0.723
739	-0.718
739	-0.732
740	-0.731
740	-0.73
741	-0.727
741	-0.729
741	-0.733
742	-0.73
742	-0.731
743	-0.738
743	-0.741
744	-0.739
744	-0.729
744	-0.73
745	-0.736
745	-0.728
746	-0.726
746	-0.722
747	-0.725
747	-0.711
748	-0.699
748	-0.704
748	-0.706
749	-0.704
749	-0.705
750	-0.695
750	-0.699
751	-0.703
751	-0.713
751	-0.714
752	-0.719
752	-0.728
753	-0.722
753	-0.718
754	-0.724
754	-0.718
754	-0.731
755	-0.746
755	-0.758
756	-0.746
756	-0.743
757	-0.74
757	-0.737
758	-0.739
758	-0.737
758	-0.739
759	-0.747
759	-0.731
760	-0.725
760	-0.719
761	-0.731
761	-0.728
761	-0.728
762	-0.736
762	-0.737
763	-0.746
763	-0.746
764	-0.742
764	-0.749
764	-0.754
765	-0.743
765	-0.729
766	-0.738
766	-0.744
767	-0.759
767	-0.752
768	-0.742
768	-0.75
768	-0.756
769	-0.773
769	-0.774
770	-0.781
770	-0.796
771	-0.793
771	-0.796
771	-0.794
772	-0.798
772	-0.798
773	-0.798
773	-0.792
774	-0.79
774	-0.79
775	-0.791
775	-0.786
775	-0.794
776	-0.795
776	-0.786
777	-0.794
777	-0.813
778	-0.81
778	-0.831
778	-0.818
779	-0.839
779	-0.847
780	-0.86
780	-0.859
781	-0.87
781	-0.864
781	-0.878
782	-0.88
782	-0.884
783	-0.87
783	-0.87
784	-0.851
784	-0.838
784	-0.847
785	-0.853
785	-0.837
786	-0.846
786	-0.825
787	-0.81
787	-0.81
788	-0.814
788	-0.822
788	-0.835
789	-0.84
789	-0.822
790	-0.801
790	-0.805
791	-0.804
791	-0.822
791	-0.828
792	-0.822
792	-0.797
793	-0.786
793	-0.761
794	-0.764
794	-0.757
794	-0.766
795	-0.76
795	-0.755
796	-0.737
796	-0.742
797	-0.734
797	-0.749
797	-0.756
798	-0.77
798	-0.764
799	-0.773
799	-0.759
800	-0.767
800	-0.759
801	-0.765
801	-0.753
801	-0.765
802	-0.774
802	-0.774
803	-0.775
803	-0.784
804	-0.779
804	-0.789
804	-0.776
805	-0.779
805	-0.768
806	-0.771
806	-0.757
807	-0.751
807	-0.732
807	-0.719
808	-0.71
808	-0.703
809	-0.688
809	-0.695
810	-0.694
810	-0.688
810	-0.687
811	-0.691
811	-0.682
812	-0.685
812	-0.688
813	-0.693
813	-0.689
813	-0.694
814	-0.697
814	-0.701
815	-0.705
815	-0.706
816	-0.698
816	-0.704
817	-0.712
817	-0.731
817	-0.747
818	-0.757
818	-0.761
819	-0.75
819	-0.75
820	-0.759
820	-0.756
820	-0.766
821	-0.766
821	-0.752
822	-0.72
822	-0.695
823	-0.69
823	-0.693
823	-0.692
824	-0.686
824	-0.688
825	-0.682
825	-0.662
826	-0.657
826	-0.665
826	-0.674
827	-0.67
827	-0.667
828	-0.646
828	-0.645
829	-0.636
829	-0.621
829	-0.613
830	-0.625
830	-0.621
831	-0.613
831	-0.602
832	-0.597
832	-0.591
832	-0.6
833	-0.595
833	-0.596
834	-0.594
834	-0.602
835	-0.587
835	-0.584
835	-0.58
836	-0.578
836	-0.577
837	-0.573
837	-0.562
838	-0.553
838	-0.541
839	-0.528
839	-0.518
839	-0.507
840	-0.494
840	-0.492
841	-0.481
841	-0.471
842	-0.464
842	-0.453
842	-0.444
843	-0.439
843	-0.434
844	-0.424
844	-0.416
845	-0.406
845	-0.394
845	-0.379
846	-0.367
846	-0.354
847	-0.343
847	-0.332
848	-0.319
848	-0.307
848	-0.29
849	-0.278
849	-0.267
850	-0.252
850	-0.245
851	-0.235
851	-0.223
851	-0.213
852	-0.196
852	-0.183
853	-0.173
853	-0.166
854	-0.156
854	-0.143
854	-0.131
855	-0.117
855	-0.11
856	-0.098
856	-0.089
857	-0.083
857	-0.073
857	-0.061
858	-0.049
858	-0.041
859	-0.032
859	-0.021
860	-0.013
860	0.001
860	0.01
861	0.019
861	0.029
862	0.036
862	0.044
863	0.052
863	0.062
863	0.068
864	0.073
864	0.081
865	0.087
865	0.092
866	0.097
866	0.102
866	0.106
867	0.109
867	0.113
868	0.116
868	0.12
869	0.123
869	0.125
869	0.127
870	0.13
870	0.132
871	0.135
871	0.137
872	0.138
872	0.138
872	0.139
873	0.139
873	0.139
874	0.139
874	0.138
875	0.137
875	0.136
875	0.135
876	0.134
876	0.133
877	0.131
877	0.13
878	0.129
878	0.128
878	0.126
879	0.125
879	0.125
880	0.124
880	0.125
881	0.124
881	0.124
881	0.124
882	0.123
882	0.122
883	0.12
883	0.119
884	0.118
884	0.116
884	0.115
885	0.114
885	0.114
886	0.113
886	0.113
887	0.113
887	0.113
887	0.113
888	0.114
888	0.114
889	0.114
889	0.115
890	0.115
890	0.114
890	0.114
891	0.114
891	0.114
892	0.114
892	0.114
893	0.114
893	0.114
893	0.114
894	0.113
894	0.113
895	0.113
895	0.113
895	0.113
896	0.112
896	0.111
897	0.11
897	0.109
898	0.107
898	0.106
898	0.106
899	0.106
899	0.106
900	0.106
900	0.106
901	0.107
901	0.107
901	0.108
902	0.109
902	0.109
903	0.11
903	0.11
904	0.111
904	0.111
904	0.112
905	0.113
905	0.113
906	0.114
906	0.114
907	0.113
907	0.113
907	0.113
908	0.112
908	0.111
909	0.111
909	0.11
910	0.109
910	0.109
910	0.109
911	0.109
911	0.11
912	0.11
912	0.111
913	0.111
913	0.112
913	0.113
914	0.114
914	0.115
915	0.116
915	0.116
916	0.117
916	0.117
916	0.117
917	0.118
917	0.118
918	0.117
918	0.117
918	0.117
919	0.116
919	0.116
920	0.116
920	0.116
921	0.115
921	0.115
921	0.115
922	0.114
922	0.114
923	0.114
923	0.113
924	0.113
924	0.112
924	0.112
925	0.111
925	0.11
926	0.109
926	0.108
927	0.107
927	0.106
927	0.106
928	0.105
928	0.105
929	0.104
929	0.104
930	0.103
930	0.102
930	0.101
931	0.101
931	0.1
932	0.1
932	0.099
933	0.098
933	0.097
933	0.095
934	0.094
934	0.094
935	0.093
935	0.092
935	0.092
936	0.09
936	0.089
937	0.089
937	0.088
938	0.088
938	0.088
938	0.088
939	0.088
939	0.088
940	0.088
940	0.088
941	0.088
941	0.089
941	0.09
942	0.09
942	0.09
943	0.09
943	0.09
944	0.089
944	0.089
944	0.088
945	0.088
945	0.086
946	0.085
946	0.083
946	0.082
947	0.082
947	0.081
948	0.081
948	0.081
949	0.081
949	0.081
949	0.081
950	0.082
950	0.082
951	0.083
951	0.083
952	0.084
952	0.085
952	0.086
953	0.086
953	0.088
954	0.088
954	0.089
955	0.09
955	0.091
955	0.091
956	0.092
956	0.092
957	0.092
957	0.093
957	0.093
958	0.094
958	0.094
959	0.095
959	0.095
960	0.095
960	0.095
960	0.096
961	0.096
961	0.096
962	0.096
962	0.096
963	0.096
963	0.096
963	0.095
964	0.095
964	0.096
965	0.096
965	0.095
966	0.095
966	0.095
966	0.095
967	0.094
967	0.093
968	0.093
968	0.092
968	0.092
969	0.091
969	0.091
970	0.09
970	0.09
971	0.09
971	0.091
971	0.091
972	0.091
972	0.092
973	0.092
973	0.091
974	0.091
974	0.091
974	0.091
975	0.091
975	0.091
976	0.09
976	0.089
976	0.089
977	0.089
977	0.089
978	0.09
978	0.09
979	0.09
979	0.09
979	0.09
980	0.09
980	0.09
981	0.09
981	0.09
982	0.09
982	0.089
982	0.089
983	0.088
983	0.088
984	0.087
984	0.087
984	0.087
985	0.086
985	0.086
986	0.085
986	0.085
987	0.084
987	0.084
987	0.083
988	0.083
988	0.082
989	0.081
989	0.08
990	0.079
990	0.079
990	0.078
991	0.078
991	0.078
992	0.077
992	0.077
992	0.077
993	0.077
993	0.077
994	0.077
994	0.076
995	0.076
995	0.076
995	0.075
996	0.074
996	0.074
997	0.073
997	0.074
997	0.073
998	0.074
998	0.074
999	0.074
999	0.074
1000	0.075
1000	0.075
1000	0.076
1001	0.076
1001	0.077
1002	0.077
1002	0.077
1003	0.077
1003	0.077
1003	0.076
1004	0.076
1004	0.076
1005	0.075
1005	0.074
1005	0.073
1006	0.072
1006	0.071
1007	0.07
1007	0.069
1008	0.068
1008	0.068
1008	0.067
1009	0.067
1009	0.067
1010	0.067
1010	0.068
1010	0.068
1011	0.068
1011	0.068
1012	0.068
1012	0.068
1013	0.067
1013	0.067
1013	0.066
1014	0.065
1014	0.065
1015	0.064
1015	0.064
1016	0.063
1016	0.062
1016	0.061
1017	0.06
1017	0.059
1018	0.058
1018	0.057
1018	0.056
1019	0.055
1019	0.054
1020	0.053
1020	0.053
1021	0.052
1021	0.052
1021	0.051
1022	0.05
1022	0.05
1023	0.05
1023	0.05
1023	0.049
1024	0.05
1024	0.049
1025	0.049
1025	0.049
1026	0.05
1026	0.05
1026	0.05
1027	0.05
1027	0.05
1028	0.051
1028	0.051
1028	0.05
1029	0.05
1029	0.05
1030	0.049
1030	0.049
1031	0.048
1031	0.048
1031	0.048
1032	0.047
1032	0.047
1033	0.047
1033	0.047
1033	0.047
1034	0.047
1034	0.046
1035	0.046
1035	0.046
1036	0.046
1036	0.046
1036	0.046
1037	0.046
1037	0.047
1038	0.047
1038	0.047
1039	0.047
1039	0.047
1039	0.048
1040	0.048
1040	0.049
1041	0.049
1041	0.049
1041	0.049
1042	0.049
1042	0.049
1043	0.048
1043	0.048
1044	0.047
1044	0.047
1044	0.046
1045	0.045
1045	0.044
1046	0.043
1046	0.042
1046	0.042
1047	0.042
1047	0.042
1048	0.041
1048	0.041
1049	0.041
1049	0.041
1049	0.042
1050	0.042
1050	0.043
1051	0.043
1051	0.043
1051	0.044
1052	0.044
1052	0.045
1053	0.045
1053	0.045
1053	0.045
1054	0.045
1054	0.045
1055	0.045
1055	0.044
1056	0.044
1056	0.043
1056	0.042
1057	0.041
1057	0.041
1058	0.04
1058	0.04
1058	0.039
1059	0.039
1059	0.038
1060	0.037
1060	0.037
1061	0.036
1061	0.036
1061	0.036
1062	0.035
1062	0.035
1063	0.035
1063	0.034
1063	0.034
1064	0.035
1064	0.035
1065	0.034
1065	0.034
1066	0.034
1066	0.033
1066	0.033
1067	0.033
1067	0.033
1068	0.033
1068	0.032
1068	0.032
1069	0.032
1069	0.031
1070	0.03
1070	0.03
1071	0.03
1071	0.029
1071	0.029
1072	0.028
1072	0.028
1073	0.027
1073	0.027
1073	0.027
1074	0.027
1074	0.027
1075	0.026
1075	0.026
1076	0.026
1076	0.026
1076	0.025
1077	0.024
1077	0.024
1078	0.023
1078	0.022
1078	0.021
1079	0.02
1079	0.02
1080	0.019
1080	0.019
1080	0.018
1081	0.018
1081	0.017
1082	0.017
1082	0.016
1083	0.015
1083	0.014
1083	0.013
1084	0.012
1084	0.012
1085	0.01
1085	0.009
1085	0.008
1086	0.008
1086	0.007
1087	0.007
1087	0.007
1088	0.005
1088	0.005
1088	0.004
1089	0.003
1089	0.003
1090	0.001
1090	0.001
1090	-0.001
1091	-0.002
1091	-0.002
1092	-0.004
1092	-0.004
1092	-0.005
1093	-0.006
1093	-0.006
1094	-0.006
1094	-0.007
1095	-0.008
1095	-0.008
1095	-0.008
1096	-0.01
1096	-0.01
1097	-0.011
1097	-0.012
1097	-0.013
1098	-0.014
1098	-0.016
1099	-0.017
1099	-0.018
1100	-0.02
1100	-0.021
1100	-0.024
1101	-0.027
1101	-0.03
1102	-0.032
1102	-0.034
1102	-0.036
1103	-0.038
1103	-0.041
1104	-0.043
1104	-0.046
1104	-0.048
1105	-0.051
1105	-0.053
1106	-0.057
1106	-0.06
1107	-0.065
1107	-0.071
1107	-0.076
1108	-0.078
1108	-0.081
1109	-0.084
1109	-0.089
1109	-0.091
1110	-0.093
1110	-0.097
1111	-0.103
1111	-0.099
