Data from 17C_3.1A_35min_2sec_int_Absorbance__440__02843.txt Node

Date: Mon Jun 19 18:33:09 CEST 2023
User: Marek
Spectrometer: MAYP115816
Trigger mode: 0
Integration Time (sec): 2.500000E-1
Scans to average: 10
Electric dark correction enabled: true
Nonlinearity correction enabled: true
Boxcar width: 5
XAxis mode: Wavelengths
Number of Pixels in Spectrum: 2068
>>>>>Begin Spectral Data<<<<<
199	-0.754
199	-0.769
200	-0.677
200	-0.622
201	-0.588
201	-0.575
202	-0.556
202	-0.543
203	-0.534
203	-0.531
204	-0.519
204	-0.503
205	-0.479
205	-0.472
205	-0.472
206	-0.473
206	-0.474
207	-0.465
207	-0.467
208	-0.47
208	-0.468
209	-0.462
209	-0.465
210	-0.468
210	-0.472
211	-0.473
211	-0.476
212	-0.48
212	-0.488
213	-0.484
213	-0.484
213	-0.491
214	-0.488
214	-0.486
215	-0.486
215	-0.494
216	-0.496
216	-0.502
217	-0.498
217	-0.505
218	-0.509
218	-0.507
219	-0.509
219	-0.519
220	-0.525
220	-0.535
221	-0.532
221	-0.537
221	-0.53
222	-0.524
222	-0.523
223	-0.524
223	-0.529
224	-0.532
224	-0.533
225	-0.528
225	-0.523
226	-0.529
226	-0.528
227	-0.532
227	-0.544
228	-0.544
228	-0.546
229	-0.548
229	-0.542
229	-0.535
230	-0.538
230	-0.541
231	-0.535
231	-0.527
232	-0.523
232	-0.521
233	-0.516
233	-0.514
234	-0.515
234	-0.513
235	-0.518
235	-0.524
236	-0.522
236	-0.525
236	-0.531
237	-0.538
237	-0.539
238	-0.55
238	-0.548
239	-0.547
239	-0.554
240	-0.552
240	-0.55
241	-0.556
241	-0.555
242	-0.56
242	-0.553
243	-0.55
243	-0.549
243	-0.559
244	-0.56
244	-0.559
245	-0.574
245	-0.573
246	-0.578
246	-0.585
247	-0.586
247	-0.592
248	-0.598
248	-0.596
249	-0.599
249	-0.605
250	-0.604
250	-0.6
250	-0.599
251	-0.597
251	-0.596
252	-0.598
252	-0.589
253	-0.594
253	-0.606
254	-0.604
254	-0.603
255	-0.611
255	-0.603
256	-0.602
256	-0.614
257	-0.61
257	-0.608
258	-0.624
258	-0.621
258	-0.614
259	-0.61
259	-0.619
260	-0.617
260	-0.623
261	-0.633
261	-0.624
262	-0.62
262	-0.621
263	-0.611
263	-0.605
264	-0.605
264	-0.615
265	-0.611
265	-0.618
265	-0.623
266	-0.619
266	-0.616
267	-0.63
267	-0.638
268	-0.654
268	-0.664
269	-0.662
269	-0.656
270	-0.66
270	-0.664
271	-0.665
271	-0.671
272	-0.676
272	-0.67
272	-0.664
273	-0.662
273	-0.671
274	-0.678
274	-0.682
275	-0.682
275	-0.675
276	-0.679
276	-0.673
277	-0.676
277	-0.695
278	-0.704
278	-0.697
278	-0.688
279	-0.693
279	-0.703
280	-0.7
280	-0.701
281	-0.696
281	-0.701
282	-0.694
282	-0.694
283	-0.685
283	-0.69
284	-0.685
284	-0.672
285	-0.669
285	-0.669
285	-0.667
286	-0.674
286	-0.67
287	-0.668
287	-0.651
288	-0.644
288	-0.651
289	-0.664
289	-0.675
290	-0.663
290	-0.663
291	-0.658
291	-0.651
292	-0.653
292	-0.66
292	-0.664
293	-0.67
293	-0.661
294	-0.65
294	-0.64
295	-0.637
295	-0.632
296	-0.629
296	-0.627
297	-0.621
297	-0.603
298	-0.595
298	-0.604
298	-0.59
299	-0.584
299	-0.585
300	-0.581
300	-0.576
301	-0.575
301	-0.574
302	-0.582
302	-0.591
303	-0.579
303	-0.564
304	-0.567
304	-0.565
305	-0.566
305	-0.566
305	-0.564
306	-0.546
306	-0.539
307	-0.527
307	-0.529
308	-0.544
308	-0.543
309	-0.545
309	-0.535
310	-0.524
310	-0.52
311	-0.512
311	-0.521
311	-0.519
312	-0.514
312	-0.511
313	-0.498
313	-0.499
314	-0.498
314	-0.5
315	-0.501
315	-0.5
316	-0.495
316	-0.487
317	-0.48
317	-0.476
318	-0.464
318	-0.461
318	-0.456
319	-0.441
319	-0.437
320	-0.43
320	-0.431
321	-0.437
321	-0.435
322	-0.428
322	-0.424
323	-0.424
323	-0.419
324	-0.411
324	-0.405
324	-0.395
325	-0.385
325	-0.368
326	-0.353
326	-0.336
327	-0.322
327	-0.3
328	-0.275
328	-0.255
329	-0.231
329	-0.209
330	-0.184
330	-0.151
330	-0.123
331	-0.095
331	-0.068
332	-0.042
332	-0.02
333	0.002
333	0.026
334	0.046
334	0.064
335	0.081
335	0.095
336	0.108
336	0.122
336	0.132
337	0.143
337	0.152
338	0.161
338	0.167
339	0.174
339	0.179
340	0.184
340	0.189
341	0.193
341	0.196
342	0.2
342	0.203
342	0.206
343	0.208
343	0.211
344	0.213
344	0.214
345	0.215
345	0.216
346	0.218
346	0.218
347	0.219
347	0.219
348	0.22
348	0.221
348	0.221
349	0.221
349	0.222
350	0.222
350	0.222
351	0.222
351	0.222
352	0.223
352	0.223
353	0.223
353	0.223
354	0.222
354	0.222
354	0.222
355	0.222
355	0.222
356	0.222
356	0.221
357	0.221
357	0.221
358	0.22
358	0.22
359	0.22
359	0.22
360	0.22
360	0.22
360	0.22
361	0.22
361	0.219
362	0.219
362	0.219
363	0.219
363	0.219
364	0.219
364	0.219
365	0.219
365	0.219
366	0.219
366	0.219
366	0.219
367	0.22
367	0.22
368	0.219
368	0.22
369	0.22
369	0.22
370	0.219
370	0.219
371	0.219
371	0.219
372	0.219
372	0.219
372	0.219
373	0.219
373	0.219
374	0.218
374	0.219
375	0.219
375	0.219
376	0.219
376	0.219
377	0.219
377	0.219
378	0.219
378	0.219
378	0.219
379	0.218
379	0.218
380	0.218
380	0.218
381	0.218
381	0.217
382	0.217
382	0.217
383	0.217
383	0.217
383	0.217
384	0.217
384	0.217
385	0.217
385	0.217
386	0.217
386	0.217
387	0.217
387	0.217
388	0.217
388	0.217
389	0.217
389	0.217
389	0.217
390	0.218
390	0.217
391	0.217
391	0.217
392	0.217
392	0.217
393	0.217
393	0.217
394	0.216
394	0.216
394	0.216
395	0.216
395	0.215
396	0.216
396	0.215
397	0.216
397	0.216
398	0.216
398	0.216
399	0.216
399	0.215
400	0.215
400	0.215
400	0.215
401	0.215
401	0.215
402	0.215
402	0.214
403	0.214
403	0.214
404	0.214
404	0.214
405	0.214
405	0.214
405	0.214
406	0.214
406	0.214
407	0.213
407	0.213
408	0.214
408	0.214
409	0.214
409	0.214
410	0.214
410	0.214
411	0.214
411	0.214
411	0.214
412	0.214
412	0.214
413	0.214
413	0.213
414	0.213
414	0.213
415	0.213
415	0.213
416	0.212
416	0.212
416	0.212
417	0.212
417	0.212
418	0.212
418	0.212
419	0.212
419	0.212
420	0.212
420	0.212
421	0.212
421	0.212
421	0.213
422	0.213
422	0.213
423	0.212
423	0.212
424	0.211
424	0.211
425	0.211
425	0.211
426	0.21
426	0.21
427	0.21
427	0.21
427	0.21
428	0.21
428	0.21
429	0.21
429	0.21
430	0.21
430	0.21
431	0.21
431	0.209
432	0.209
432	0.209
432	0.209
433	0.209
433	0.208
434	0.208
434	0.208
435	0.208
435	0.208
436	0.208
436	0.208
437	0.208
437	0.208
437	0.208
438	0.208
438	0.208
439	0.208
439	0.208
440	0.208
440	0.208
441	0.208
441	0.208
442	0.208
442	0.207
442	0.207
443	0.207
443	0.207
444	0.207
444	0.207
445	0.207
445	0.207
446	0.207
446	0.207
447	0.207
447	0.207
447	0.207
448	0.207
448	0.207
449	0.207
449	0.208
450	0.208
450	0.208
451	0.208
451	0.208
452	0.207
452	0.207
452	0.207
453	0.207
453	0.207
454	0.206
454	0.206
455	0.206
455	0.206
456	0.206
456	0.205
457	0.205
457	0.205
458	0.205
458	0.205
458	0.205
459	0.205
459	0.205
460	0.205
460	0.205
461	0.205
461	0.205
462	0.205
462	0.205
463	0.206
463	0.206
463	0.206
464	0.206
464	0.206
465	0.206
465	0.206
466	0.206
466	0.206
467	0.206
467	0.206
467	0.206
468	0.206
468	0.206
469	0.206
469	0.206
470	0.206
470	0.207
471	0.207
471	0.207
472	0.207
472	0.207
472	0.207
473	0.207
473	0.208
474	0.208
474	0.208
475	0.208
475	0.208
476	0.208
476	0.208
477	0.208
477	0.208
477	0.208
478	0.208
478	0.208
479	0.209
479	0.209
480	0.209
480	0.209
481	0.209
481	0.21
482	0.21
482	0.21
482	0.211
483	0.211
483	0.211
484	0.211
484	0.211
485	0.211
485	0.211
486	0.211
486	0.212
487	0.212
487	0.213
487	0.213
488	0.214
488	0.214
489	0.215
489	0.217
490	0.217
490	0.218
491	0.218
491	0.219
492	0.22
492	0.22
492	0.221
493	0.222
493	0.222
494	0.223
494	0.224
495	0.225
495	0.225
496	0.226
496	0.227
496	0.228
497	0.229
497	0.23
498	0.23
498	0.231
499	0.232
499	0.233
500	0.234
500	0.235
501	0.236
501	0.237
501	0.237
502	0.238
502	0.239
503	0.24
503	0.241
504	0.241
504	0.242
505	0.243
505	0.244
506	0.245
506	0.246
506	0.247
507	0.247
507	0.248
508	0.249
508	0.25
509	0.251
509	0.252
510	0.253
510	0.254
511	0.255
511	0.256
511	0.257
512	0.258
512	0.259
513	0.261
513	0.262
514	0.263
514	0.264
515	0.265
515	0.266
515	0.267
516	0.268
516	0.269
517	0.271
517	0.272
518	0.273
518	0.273
519	0.274
519	0.275
520	0.276
520	0.278
520	0.279
521	0.28
521	0.281
522	0.282
522	0.284
523	0.285
523	0.286
524	0.287
524	0.288
524	0.288
525	0.289
525	0.289
526	0.29
526	0.291
527	0.292
527	0.293
528	0.293
528	0.294
529	0.295
529	0.296
529	0.297
530	0.298
530	0.299
531	0.3
531	0.3
532	0.301
532	0.302
533	0.302
533	0.303
533	0.303
534	0.303
534	0.304
535	0.304
535	0.304
536	0.304
536	0.304
537	0.304
537	0.305
538	0.305
538	0.305
538	0.306
539	0.306
539	0.307
540	0.308
540	0.308
541	0.309
541	0.309
542	0.31
542	0.31
542	0.31
543	0.311
543	0.31
544	0.31
544	0.31
545	0.311
545	0.311
546	0.311
546	0.312
547	0.311
547	0.311
547	0.312
548	0.312
548	0.313
549	0.313
549	0.314
550	0.314
550	0.314
551	0.315
551	0.315
551	0.316
552	0.318
552	0.318
553	0.319
553	0.32
554	0.32
554	0.32
555	0.32
555	0.32
556	0.32
556	0.32
556	0.32
557	0.32
557	0.32
558	0.32
558	0.32
559	0.32
559	0.32
560	0.32
560	0.32
560	0.32
561	0.32
561	0.32
562	0.319
562	0.319
563	0.319
563	0.319
564	0.319
564	0.319
564	0.32
565	0.321
565	0.321
566	0.321
566	0.322
567	0.322
567	0.322
568	0.322
568	0.322
568	0.322
569	0.321
569	0.321
570	0.32
570	0.319
571	0.319
571	0.319
572	0.318
572	0.318
573	0.318
573	0.318
573	0.317
574	0.318
574	0.318
575	0.318
575	0.319
576	0.319
576	0.319
577	0.319
577	0.319
577	0.32
578	0.32
578	0.321
579	0.321
579	0.322
580	0.321
580	0.32
581	0.319
581	0.32
581	0.32
582	0.32
582	0.32
583	0.321
583	0.321
584	0.319
584	0.319
585	0.32
585	0.321
585	0.322
586	0.322
586	0.322
587	0.322
587	0.321
588	0.321
588	0.321
589	0.321
589	0.321
590	0.321
590	0.321
590	0.322
591	0.322
591	0.322
592	0.321
592	0.321
593	0.321
593	0.321
594	0.321
594	0.321
594	0.32
595	0.321
595	0.32
596	0.32
596	0.322
597	0.323
597	0.323
598	0.323
598	0.323
598	0.323
599	0.322
599	0.322
600	0.321
600	0.32
601	0.32
601	0.319
602	0.318
602	0.318
602	0.317
603	0.318
603	0.319
604	0.319
604	0.32
605	0.32
605	0.321
606	0.32
606	0.32
606	0.32
607	0.32
607	0.319
608	0.319
608	0.317
609	0.317
609	0.317
610	0.317
610	0.317
610	0.317
611	0.318
611	0.319
612	0.32
612	0.321
613	0.321
613	0.322
614	0.321
614	0.32
614	0.32
615	0.319
615	0.318
616	0.317
616	0.316
617	0.315
617	0.314
618	0.313
618	0.312
618	0.312
619	0.312
619	0.312
620	0.313
620	0.312
621	0.312
621	0.312
622	0.311
622	0.311
622	0.31
623	0.309
623	0.309
624	0.308
624	0.308
625	0.307
625	0.306
626	0.306
626	0.305
626	0.304
627	0.304
627	0.303
628	0.302
628	0.3
629	0.299
629	0.298
630	0.296
630	0.294
630	0.292
631	0.29
631	0.287
632	0.284
632	0.281
633	0.279
633	0.276
634	0.273
634	0.27
634	0.267
635	0.264
635	0.26
636	0.257
636	0.253
637	0.249
637	0.244
638	0.24
638	0.235
638	0.23
639	0.224
639	0.218
640	0.213
640	0.207
641	0.202
641	0.196
642	0.19
642	0.185
642	0.179
643	0.173
643	0.166
644	0.16
644	0.153
645	0.145
645	0.138
646	0.131
646	0.123
646	0.115
647	0.107
647	0.1
648	0.092
648	0.084
649	0.075
649	0.066
650	0.057
650	0.049
650	0.039
651	0.028
651	0.014
652	-0.002
652	-0.019
653	-0.034
653	-0.047
653	-0.044
654	-0.022
654	-0.01
655	-0.014
655	-0.019
656	-0.026
656	-0.033
657	-0.038
657	-0.042
657	-0.049
658	-0.055
658	-0.085
659	-0.175
659	-0.28
660	-0.326
660	-0.354
661	-0.382
661	-0.414
661	-0.448
662	-0.48
662	-0.514
663	-0.554
663	-0.597
664	-0.641
664	-0.692
665	-0.742
665	-0.801
665	-0.856
666	-0.912
666	-0.974
667	-1.038
667	-1.103
668	-1.174
668	-1.246
669	-1.319
669	-1.393
669	-1.47
670	-1.536
670	-1.56
671	-1.677
671	-1.963
672	-2.195
672	-2.387
672	-2.518
673	-2.611
673	-2.691
674	-2.733
674	-2.752
675	-2.777
675	-2.917
676	-3.116
676	-3.067
676	-2.843
677	-2.639
677	-2.475
678	-2.298
678	-1.996
679	-1.722
679	-1.588
680	-1.494
680	-1.412
680	-1.342
681	-1.297
681	-1.239
682	-1.201
682	-1.164
683	-1.13
683	-1.114
684	-1.093
684	-1.075
684	-1.052
685	-1.029
685	-1.008
686	-0.985
686	-0.971
687	-0.945
687	-0.936
687	-0.917
688	-0.892
688	-0.873
689	-0.853
689	-0.84
690	-0.82
690	-0.808
691	-0.802
691	-0.807
691	-0.823
692	-0.814
692	-0.806
693	-0.801
693	-0.808
694	-0.802
694	-0.796
695	-0.803
695	-0.8
695	-0.784
696	-0.781
696	-0.758
697	-0.757
697	-0.773
698	-0.777
698	-0.768
698	-0.782
699	-0.784
699	-0.781
700	-0.773
700	-0.788
701	-0.788
701	-0.795
702	-0.797
702	-0.784
702	-0.776
703	-0.768
703	-0.76
704	-0.756
704	-0.754
705	-0.768
705	-0.759
705	-0.747
706	-0.748
706	-0.743
707	-0.747
707	-0.742
708	-0.742
708	-0.733
709	-0.737
709	-0.74
709	-0.73
710	-0.739
710	-0.749
711	-0.74
711	-0.74
712	-0.74
712	-0.754
713	-0.752
713	-0.761
713	-0.753
714	-0.749
714	-0.749
715	-0.742
715	-0.729
716	-0.738
716	-0.742
716	-0.736
717	-0.738
717	-0.741
718	-0.731
718	-0.731
719	-0.738
719	-0.74
720	-0.732
720	-0.741
720	-0.733
721	-0.72
721	-0.72
722	-0.706
722	-0.696
723	-0.694
723	-0.696
723	-0.682
724	-0.685
724	-0.69
725	-0.688
725	-0.697
726	-0.71
726	-0.716
727	-0.722
727	-0.734
727	-0.742
728	-0.742
728	-0.75
729	-0.749
729	-0.755
730	-0.763
730	-0.757
730	-0.748
731	-0.73
731	-0.741
732	-0.749
732	-0.751
733	-0.751
733	-0.755
734	-0.75
734	-0.748
734	-0.735
735	-0.733
735	-0.734
736	-0.745
736	-0.73
737	-0.72
737	-0.72
737	-0.728
738	-0.723
738	-0.724
739	-0.722
739	-0.734
740	-0.732
740	-0.729
741	-0.724
741	-0.723
741	-0.726
742	-0.725
742	-0.726
743	-0.733
743	-0.738
744	-0.736
744	-0.726
744	-0.727
745	-0.732
745	-0.723
746	-0.725
746	-0.722
747	-0.723
747	-0.709
748	-0.698
748	-0.704
748	-0.706
749	-0.704
749	-0.706
750	-0.697
750	-0.698
751	-0.702
751	-0.712
751	-0.714
752	-0.719
752	-0.728
753	-0.722
753	-0.718
754	-0.723
754	-0.717
754	-0.732
755	-0.749
755	-0.761
756	-0.748
756	-0.745
757	-0.743
757	-0.738
758	-0.74
758	-0.736
758	-0.741
759	-0.748
759	-0.733
760	-0.724
760	-0.718
761	-0.727
761	-0.727
761	-0.727
762	-0.736
762	-0.734
763	-0.744
763	-0.74
764	-0.736
764	-0.744
764	-0.751
765	-0.742
765	-0.73
766	-0.737
766	-0.743
767	-0.757
767	-0.753
768	-0.743
768	-0.751
768	-0.757
769	-0.776
769	-0.778
770	-0.783
770	-0.797
771	-0.794
771	-0.796
771	-0.797
772	-0.8
772	-0.801
773	-0.801
773	-0.796
774	-0.793
774	-0.793
775	-0.797
775	-0.791
775	-0.798
776	-0.798
776	-0.788
777	-0.796
777	-0.814
778	-0.812
778	-0.831
778	-0.817
779	-0.839
779	-0.846
780	-0.861
780	-0.86
781	-0.874
781	-0.867
781	-0.884
782	-0.886
782	-0.889
783	-0.874
783	-0.873
784	-0.854
784	-0.843
784	-0.852
785	-0.858
785	-0.842
786	-0.848
786	-0.823
787	-0.806
787	-0.808
788	-0.81
788	-0.823
788	-0.833
789	-0.835
789	-0.816
790	-0.799
790	-0.802
791	-0.802
791	-0.822
791	-0.83
792	-0.823
792	-0.799
793	-0.789
793	-0.766
794	-0.769
794	-0.761
794	-0.769
795	-0.762
795	-0.755
796	-0.739
796	-0.746
797	-0.741
797	-0.755
797	-0.759
798	-0.774
798	-0.768
799	-0.779
799	-0.764
800	-0.772
800	-0.766
801	-0.771
801	-0.757
801	-0.767
802	-0.776
802	-0.778
803	-0.776
803	-0.785
804	-0.78
804	-0.791
804	-0.778
805	-0.78
805	-0.769
806	-0.771
806	-0.753
807	-0.751
807	-0.732
807	-0.721
808	-0.711
808	-0.704
809	-0.691
809	-0.7
810	-0.698
810	-0.689
810	-0.687
811	-0.695
811	-0.685
812	-0.687
812	-0.691
813	-0.696
813	-0.694
813	-0.699
814	-0.704
814	-0.709
815	-0.715
815	-0.718
816	-0.71
816	-0.716
817	-0.724
817	-0.74
817	-0.753
818	-0.76
818	-0.761
819	-0.751
819	-0.752
820	-0.762
820	-0.759
820	-0.772
821	-0.769
821	-0.755
822	-0.724
822	-0.7
823	-0.697
823	-0.699
823	-0.695
824	-0.688
824	-0.69
825	-0.682
825	-0.662
826	-0.658
826	-0.666
826	-0.676
827	-0.671
827	-0.667
828	-0.647
828	-0.65
829	-0.64
829	-0.626
829	-0.618
830	-0.626
830	-0.623
831	-0.614
831	-0.603
832	-0.601
832	-0.592
832	-0.601
833	-0.596
833	-0.598
834	-0.597
834	-0.605
835	-0.593
835	-0.587
835	-0.584
836	-0.58
836	-0.577
837	-0.576
837	-0.564
838	-0.555
838	-0.541
839	-0.528
839	-0.515
839	-0.505
840	-0.495
840	-0.489
841	-0.48
841	-0.47
842	-0.462
842	-0.453
842	-0.445
843	-0.438
843	-0.431
844	-0.42
844	-0.412
845	-0.404
845	-0.394
845	-0.378
846	-0.367
846	-0.353
847	-0.34
847	-0.329
848	-0.317
848	-0.305
848	-0.29
849	-0.279
849	-0.266
850	-0.251
850	-0.246
851	-0.237
851	-0.225
851	-0.216
852	-0.2
852	-0.186
853	-0.176
853	-0.169
854	-0.156
854	-0.142
854	-0.131
855	-0.117
855	-0.109
856	-0.098
856	-0.088
857	-0.081
857	-0.072
857	-0.06
858	-0.047
858	-0.041
859	-0.032
859	-0.022
860	-0.013
860	0.001
860	0.011
861	0.02
861	0.029
862	0.037
862	0.045
863	0.053
863	0.063
863	0.07
864	0.076
864	0.083
865	0.09
865	0.095
866	0.1
866	0.104
866	0.108
867	0.112
867	0.117
868	0.119
868	0.123
869	0.127
869	0.129
869	0.131
870	0.133
870	0.135
871	0.138
871	0.139
872	0.14
872	0.141
872	0.141
873	0.142
873	0.142
874	0.141
874	0.141
875	0.14
875	0.139
875	0.138
876	0.137
876	0.135
877	0.134
877	0.133
878	0.132
878	0.131
878	0.129
879	0.128
879	0.127
880	0.127
880	0.127
881	0.127
881	0.127
881	0.127
882	0.126
882	0.125
883	0.123
883	0.122
884	0.121
884	0.12
884	0.119
885	0.118
885	0.117
886	0.116
886	0.116
887	0.115
887	0.115
887	0.116
888	0.116
888	0.116
889	0.117
889	0.117
890	0.117
890	0.117
890	0.117
891	0.116
891	0.116
892	0.117
892	0.117
893	0.117
893	0.117
893	0.117
894	0.117
894	0.117
895	0.116
895	0.116
895	0.116
896	0.115
896	0.114
897	0.112
897	0.111
898	0.11
898	0.109
898	0.109
899	0.108
899	0.109
900	0.109
900	0.109
901	0.11
901	0.11
901	0.111
902	0.112
902	0.112
903	0.113
903	0.113
904	0.114
904	0.114
904	0.115
905	0.116
905	0.116
906	0.117
906	0.117
907	0.117
907	0.116
907	0.116
908	0.116
908	0.115
909	0.114
909	0.113
910	0.112
910	0.111
910	0.111
911	0.111
911	0.112
912	0.112
912	0.113
913	0.114
913	0.115
913	0.116
914	0.117
914	0.118
915	0.118
915	0.119
916	0.119
916	0.12
916	0.12
917	0.12
917	0.12
918	0.12
918	0.12
918	0.119
919	0.119
919	0.119
920	0.118
920	0.118
921	0.118
921	0.118
921	0.118
922	0.117
922	0.117
923	0.117
923	0.116
924	0.116
924	0.115
924	0.114
925	0.114
925	0.113
926	0.112
926	0.111
927	0.11
927	0.109
927	0.109
928	0.108
928	0.108
929	0.107
929	0.106
930	0.106
930	0.105
930	0.104
931	0.103
931	0.103
932	0.103
932	0.102
933	0.101
933	0.1
933	0.099
934	0.097
934	0.097
935	0.096
935	0.095
935	0.094
936	0.093
936	0.092
937	0.091
937	0.091
938	0.091
938	0.09
938	0.09
939	0.091
939	0.091
940	0.091
940	0.091
941	0.092
941	0.092
941	0.093
942	0.093
942	0.093
943	0.093
943	0.092
944	0.092
944	0.091
944	0.091
945	0.09
945	0.088
946	0.087
946	0.086
946	0.086
947	0.084
947	0.084
948	0.084
948	0.084
949	0.083
949	0.084
949	0.084
950	0.085
950	0.085
951	0.086
951	0.086
952	0.086
952	0.088
952	0.088
953	0.089
953	0.091
954	0.091
954	0.092
955	0.092
955	0.094
955	0.095
956	0.095
956	0.096
957	0.096
957	0.096
957	0.096
958	0.096
958	0.097
959	0.098
959	0.098
960	0.098
960	0.098
960	0.098
961	0.098
961	0.099
962	0.099
962	0.099
963	0.099
963	0.099
963	0.099
964	0.099
964	0.099
965	0.099
965	0.098
966	0.098
966	0.097
966	0.097
967	0.096
967	0.096
968	0.095
968	0.095
968	0.094
969	0.094
969	0.093
970	0.093
970	0.093
971	0.093
971	0.093
971	0.093
972	0.093
972	0.094
973	0.094
973	0.093
974	0.093
974	0.093
974	0.093
975	0.093
975	0.093
976	0.092
976	0.092
976	0.092
977	0.092
977	0.092
978	0.092
978	0.092
979	0.093
979	0.092
979	0.093
980	0.092
980	0.093
981	0.093
981	0.093
982	0.092
982	0.092
982	0.091
983	0.091
983	0.091
984	0.09
984	0.09
984	0.09
985	0.09
985	0.089
986	0.089
986	0.088
987	0.087
987	0.087
987	0.086
988	0.086
988	0.085
989	0.084
989	0.083
990	0.082
990	0.081
990	0.081
991	0.081
991	0.08
992	0.08
992	0.08
992	0.079
993	0.079
993	0.079
994	0.079
994	0.079
995	0.079
995	0.078
995	0.078
996	0.077
996	0.077
997	0.076
997	0.076
997	0.077
998	0.077
998	0.077
999	0.077
999	0.077
1000	0.078
1000	0.078
1000	0.078
1001	0.079
1001	0.079
1002	0.079
1002	0.079
1003	0.079
1003	0.079
1003	0.079
1004	0.079
1004	0.079
1005	0.078
1005	0.078
1005	0.077
1006	0.076
1006	0.075
1007	0.073
1007	0.072
1008	0.072
1008	0.071
1008	0.071
1009	0.07
1009	0.07
1010	0.07
1010	0.071
1010	0.071
1011	0.071
1011	0.071
1012	0.071
1012	0.071
1013	0.07
1013	0.07
1013	0.069
1014	0.069
1014	0.068
1015	0.067
1015	0.067
1016	0.066
1016	0.065
1016	0.064
1017	0.063
1017	0.062
1018	0.061
1018	0.059
1018	0.059
1019	0.058
1019	0.057
1020	0.056
1020	0.055
1021	0.055
1021	0.054
1021	0.053
1022	0.052
1022	0.052
1023	0.052
1023	0.051
1023	0.051
1024	0.051
1024	0.051
1025	0.051
1025	0.051
1026	0.052
1026	0.052
1026	0.052
1027	0.052
1027	0.053
1028	0.053
1028	0.053
1028	0.053
1029	0.053
1029	0.052
1030	0.052
1030	0.051
1031	0.05
1031	0.05
1031	0.05
1032	0.05
1032	0.049
1033	0.049
1033	0.05
1033	0.05
1034	0.049
1034	0.049
1035	0.049
1035	0.049
1036	0.049
1036	0.049
1036	0.049
1037	0.049
1037	0.049
1038	0.049
1038	0.049
1039	0.049
1039	0.05
1039	0.05
1040	0.05
1040	0.051
1041	0.051
1041	0.051
1041	0.052
1042	0.052
1042	0.052
1043	0.051
1043	0.05
1044	0.05
1044	0.049
1044	0.048
1045	0.047
1045	0.046
1046	0.045
1046	0.044
1046	0.044
1047	0.044
1047	0.044
1048	0.044
1048	0.044
1049	0.044
1049	0.044
1049	0.045
1050	0.045
1050	0.046
1051	0.046
1051	0.046
1051	0.047
1052	0.047
1052	0.047
1053	0.047
1053	0.047
1053	0.047
1054	0.047
1054	0.047
1055	0.047
1055	0.047
1056	0.046
1056	0.045
1056	0.044
1057	0.044
1057	0.043
1058	0.043
1058	0.042
1058	0.042
1059	0.041
1059	0.04
1060	0.039
1060	0.039
1061	0.039
1061	0.038
1061	0.038
1062	0.038
1062	0.037
1063	0.037
1063	0.037
1063	0.037
1064	0.037
1064	0.037
1065	0.037
1065	0.037
1066	0.036
1066	0.036
1066	0.036
1067	0.036
1067	0.035
1068	0.035
1068	0.034
1068	0.034
1069	0.034
1069	0.033
1070	0.033
1070	0.033
1071	0.032
1071	0.032
1071	0.031
1072	0.031
1072	0.031
1073	0.03
1073	0.03
1073	0.029
1074	0.03
1074	0.03
1075	0.029
1075	0.029
1076	0.028
1076	0.028
1076	0.027
1077	0.027
1077	0.027
1078	0.026
1078	0.025
1078	0.024
1079	0.023
1079	0.023
1080	0.022
1080	0.022
1080	0.021
1081	0.021
1081	0.02
1082	0.02
1082	0.018
1083	0.018
1083	0.017
1083	0.016
1084	0.015
1084	0.014
1085	0.013
1085	0.013
1085	0.012
1086	0.011
1086	0.01
1087	0.01
1087	0.01
1088	0.009
1088	0.008
1088	0.007
1089	0.006
1089	0.005
1090	0.003
1090	0.003
1090	0.001
1091	0.001
1091	0
1092	-0.001
1092	-0.001
1092	-0.003
1093	-0.003
1093	-0.003
1094	-0.003
1094	-0.004
1095	-0.006
1095	-0.007
1095	-0.008
1096	-0.009
1096	-0.01
1097	-0.011
1097	-0.012
1097	-0.013
1098	-0.015
1098	-0.016
1099	-0.017
1099	-0.018
1100	-0.019
1100	-0.02
1100	-0.023
1101	-0.025
1101	-0.027
1102	-0.029
1102	-0.032
1102	-0.033
1103	-0.036
1103	-0.039
1104	-0.042
1104	-0.045
1104	-0.048
1105	-0.05
1105	-0.054
1106	-0.059
1106	-0.061
1107	-0.067
1107	-0.072
1107	-0.077
1108	-0.08
1108	-0.082
1109	-0.086
1109	-0.091
1109	-0.094
1110	-0.095
1110	-0.098
1111	-0.107
1111	-0.105
