Data from 17C_3.1A_35min_2sec_int_Absorbance__79__02482.txt Node

Date: Mon Jun 19 18:18:07 CEST 2023
User: Marek
Spectrometer: MAYP115816
Trigger mode: 0
Integration Time (sec): 2.500000E-1
Scans to average: 10
Electric dark correction enabled: true
Nonlinearity correction enabled: true
Boxcar width: 5
XAxis mode: Wavelengths
Number of Pixels in Spectrum: 2068
>>>>>Begin Spectral Data<<<<<
199	-0.763
199	-0.774
200	-0.678
200	-0.625
201	-0.583
201	-0.567
202	-0.549
202	-0.535
203	-0.526
203	-0.52
204	-0.505
204	-0.491
205	-0.467
205	-0.459
205	-0.457
206	-0.46
206	-0.463
207	-0.454
207	-0.455
208	-0.456
208	-0.456
209	-0.45
209	-0.452
210	-0.457
210	-0.466
211	-0.467
211	-0.471
212	-0.475
212	-0.483
213	-0.484
213	-0.484
213	-0.49
214	-0.486
214	-0.485
215	-0.483
215	-0.488
216	-0.491
216	-0.499
217	-0.494
217	-0.498
218	-0.5
218	-0.5
219	-0.505
219	-0.516
220	-0.523
220	-0.532
221	-0.532
221	-0.535
221	-0.525
222	-0.522
222	-0.522
223	-0.524
223	-0.531
224	-0.533
224	-0.532
225	-0.525
225	-0.521
226	-0.525
226	-0.523
227	-0.53
227	-0.54
228	-0.54
228	-0.542
229	-0.541
229	-0.535
229	-0.53
230	-0.534
230	-0.534
231	-0.526
231	-0.518
232	-0.512
232	-0.508
233	-0.502
233	-0.5
234	-0.5
234	-0.498
235	-0.5
235	-0.506
236	-0.506
236	-0.511
236	-0.517
237	-0.522
237	-0.525
238	-0.534
238	-0.532
239	-0.532
239	-0.539
240	-0.539
240	-0.536
241	-0.543
241	-0.541
242	-0.546
242	-0.545
243	-0.541
243	-0.54
243	-0.549
244	-0.548
244	-0.547
245	-0.562
245	-0.562
246	-0.565
246	-0.571
247	-0.573
247	-0.577
248	-0.581
248	-0.579
249	-0.58
249	-0.588
250	-0.587
250	-0.582
250	-0.581
251	-0.578
251	-0.578
252	-0.582
252	-0.571
253	-0.578
253	-0.589
254	-0.588
254	-0.587
255	-0.595
255	-0.588
256	-0.588
256	-0.599
257	-0.595
257	-0.591
258	-0.607
258	-0.603
258	-0.6
259	-0.597
259	-0.607
260	-0.606
260	-0.612
261	-0.622
261	-0.612
262	-0.611
262	-0.612
263	-0.602
263	-0.597
264	-0.597
264	-0.605
265	-0.599
265	-0.606
265	-0.608
266	-0.605
266	-0.604
267	-0.616
267	-0.623
268	-0.638
268	-0.649
269	-0.646
269	-0.641
270	-0.644
270	-0.648
271	-0.647
271	-0.651
272	-0.655
272	-0.649
272	-0.642
273	-0.639
273	-0.645
274	-0.649
274	-0.653
275	-0.654
275	-0.647
276	-0.655
276	-0.649
277	-0.653
277	-0.671
278	-0.683
278	-0.68
278	-0.678
279	-0.681
279	-0.691
280	-0.687
280	-0.688
281	-0.682
281	-0.688
282	-0.681
282	-0.683
283	-0.671
283	-0.673
284	-0.664
284	-0.654
285	-0.649
285	-0.65
285	-0.645
286	-0.652
286	-0.648
287	-0.646
287	-0.629
288	-0.623
288	-0.63
289	-0.642
289	-0.651
290	-0.642
290	-0.639
291	-0.637
291	-0.63
292	-0.631
292	-0.638
292	-0.641
293	-0.645
293	-0.636
294	-0.625
294	-0.614
295	-0.61
295	-0.608
296	-0.606
296	-0.602
297	-0.596
297	-0.581
298	-0.572
298	-0.582
298	-0.567
299	-0.56
299	-0.563
300	-0.558
300	-0.552
301	-0.546
301	-0.547
302	-0.554
302	-0.561
303	-0.551
303	-0.535
304	-0.54
304	-0.542
305	-0.542
305	-0.542
305	-0.541
306	-0.525
306	-0.518
307	-0.505
307	-0.507
308	-0.519
308	-0.517
309	-0.52
309	-0.509
310	-0.497
310	-0.493
311	-0.484
311	-0.493
311	-0.489
312	-0.485
312	-0.482
313	-0.467
313	-0.47
314	-0.465
314	-0.468
315	-0.471
315	-0.47
316	-0.467
316	-0.458
317	-0.452
317	-0.447
318	-0.439
318	-0.436
318	-0.43
319	-0.421
319	-0.415
320	-0.407
320	-0.407
321	-0.411
321	-0.411
322	-0.404
322	-0.396
323	-0.395
323	-0.39
324	-0.382
324	-0.373
324	-0.363
325	-0.353
325	-0.333
326	-0.32
326	-0.3
327	-0.283
327	-0.262
328	-0.234
328	-0.209
329	-0.185
329	-0.16
330	-0.13
330	-0.094
330	-0.066
331	-0.032
331	-0.003
332	0.026
332	0.053
333	0.081
333	0.108
334	0.133
334	0.154
335	0.175
335	0.194
336	0.211
336	0.227
336	0.24
337	0.254
337	0.264
338	0.275
338	0.282
339	0.292
339	0.299
340	0.305
340	0.312
341	0.317
341	0.321
342	0.327
342	0.33
342	0.334
343	0.337
343	0.341
344	0.343
344	0.345
345	0.347
345	0.348
346	0.349
346	0.35
347	0.351
347	0.352
348	0.352
348	0.353
348	0.354
349	0.354
349	0.354
350	0.355
350	0.355
351	0.355
351	0.355
352	0.355
352	0.355
353	0.355
353	0.355
354	0.355
354	0.355
354	0.354
355	0.354
355	0.354
356	0.354
356	0.354
357	0.352
357	0.352
358	0.351
358	0.351
359	0.351
359	0.351
360	0.351
360	0.351
360	0.35
361	0.35
361	0.349
362	0.35
362	0.35
363	0.35
363	0.35
364	0.35
364	0.35
365	0.35
365	0.35
366	0.35
366	0.35
366	0.35
367	0.35
367	0.35
368	0.349
368	0.349
369	0.349
369	0.349
370	0.349
370	0.348
371	0.348
371	0.347
372	0.347
372	0.347
372	0.347
373	0.347
373	0.346
374	0.346
374	0.346
375	0.345
375	0.345
376	0.345
376	0.345
377	0.345
377	0.344
378	0.344
378	0.344
378	0.343
379	0.343
379	0.343
380	0.343
380	0.342
381	0.342
381	0.342
382	0.341
382	0.341
383	0.34
383	0.34
383	0.34
384	0.34
384	0.339
385	0.339
385	0.339
386	0.339
386	0.339
387	0.338
387	0.338
388	0.338
388	0.338
389	0.337
389	0.337
389	0.337
390	0.337
390	0.337
391	0.336
391	0.336
392	0.336
392	0.335
393	0.335
393	0.335
394	0.334
394	0.334
394	0.333
395	0.333
395	0.333
396	0.332
396	0.332
397	0.332
397	0.332
398	0.332
398	0.331
399	0.331
399	0.331
400	0.33
400	0.33
400	0.33
401	0.329
401	0.329
402	0.329
402	0.328
403	0.328
403	0.327
404	0.327
404	0.327
405	0.327
405	0.326
405	0.326
406	0.326
406	0.326
407	0.325
407	0.325
408	0.325
408	0.325
409	0.325
409	0.325
410	0.325
410	0.325
411	0.325
411	0.324
411	0.324
412	0.324
412	0.324
413	0.323
413	0.323
414	0.323
414	0.323
415	0.322
415	0.322
416	0.322
416	0.321
416	0.321
417	0.321
417	0.321
418	0.321
418	0.321
419	0.321
419	0.321
420	0.32
420	0.32
421	0.32
421	0.32
421	0.32
422	0.32
422	0.32
423	0.32
423	0.32
424	0.319
424	0.319
425	0.318
425	0.318
426	0.317
426	0.317
427	0.317
427	0.317
427	0.316
428	0.316
428	0.316
429	0.316
429	0.316
430	0.316
430	0.316
431	0.315
431	0.315
432	0.315
432	0.315
432	0.315
433	0.314
433	0.314
434	0.314
434	0.314
435	0.314
435	0.314
436	0.314
436	0.314
437	0.313
437	0.313
437	0.313
438	0.313
438	0.313
439	0.313
439	0.313
440	0.313
440	0.313
441	0.313
441	0.313
442	0.312
442	0.312
442	0.312
443	0.312
443	0.312
444	0.312
444	0.312
445	0.312
445	0.312
446	0.312
446	0.312
447	0.312
447	0.313
447	0.313
448	0.313
448	0.313
449	0.313
449	0.313
450	0.313
450	0.313
451	0.313
451	0.313
452	0.313
452	0.313
452	0.313
453	0.313
453	0.313
454	0.313
454	0.313
455	0.313
455	0.313
456	0.313
456	0.313
457	0.313
457	0.313
458	0.313
458	0.313
458	0.314
459	0.314
459	0.314
460	0.314
460	0.314
461	0.314
461	0.314
462	0.314
462	0.315
463	0.315
463	0.315
463	0.316
464	0.316
464	0.316
465	0.316
465	0.317
466	0.317
466	0.318
467	0.318
467	0.318
467	0.318
468	0.319
468	0.319
469	0.319
469	0.32
470	0.321
470	0.321
471	0.322
471	0.322
472	0.323
472	0.323
472	0.324
473	0.325
473	0.325
474	0.326
474	0.326
475	0.327
475	0.328
476	0.328
476	0.329
477	0.33
477	0.33
477	0.331
478	0.332
478	0.333
479	0.334
479	0.335
480	0.335
480	0.336
481	0.337
481	0.338
482	0.339
482	0.34
482	0.341
483	0.342
483	0.343
484	0.344
484	0.345
485	0.346
485	0.347
486	0.348
486	0.349
487	0.351
487	0.352
487	0.354
488	0.355
488	0.356
489	0.359
489	0.361
490	0.363
490	0.365
491	0.367
491	0.369
492	0.37
492	0.372
492	0.374
493	0.376
493	0.378
494	0.38
494	0.382
495	0.384
495	0.385
496	0.388
496	0.39
496	0.392
497	0.395
497	0.397
498	0.399
498	0.402
499	0.404
499	0.407
500	0.41
500	0.413
501	0.415
501	0.418
501	0.42
502	0.422
502	0.425
503	0.427
503	0.43
504	0.432
504	0.435
505	0.438
505	0.441
506	0.443
506	0.446
506	0.449
507	0.451
507	0.454
508	0.457
508	0.46
509	0.463
509	0.465
510	0.469
510	0.471
511	0.474
511	0.477
511	0.48
512	0.483
512	0.486
513	0.489
513	0.491
514	0.494
514	0.497
515	0.499
515	0.502
515	0.504
516	0.507
516	0.509
517	0.512
517	0.514
518	0.516
518	0.519
519	0.521
519	0.523
520	0.526
520	0.529
520	0.531
521	0.533
521	0.536
522	0.538
522	0.54
523	0.542
523	0.544
524	0.546
524	0.547
524	0.549
525	0.55
525	0.551
526	0.553
526	0.554
527	0.556
527	0.557
528	0.558
528	0.559
529	0.56
529	0.561
529	0.562
530	0.563
530	0.564
531	0.564
531	0.565
532	0.565
532	0.566
533	0.566
533	0.566
533	0.566
534	0.566
534	0.566
535	0.566
535	0.566
536	0.566
536	0.565
537	0.565
537	0.565
538	0.564
538	0.564
538	0.564
539	0.563
539	0.563
540	0.563
540	0.562
541	0.561
541	0.561
542	0.56
542	0.559
542	0.557
543	0.556
543	0.554
544	0.553
544	0.551
545	0.55
545	0.549
546	0.548
546	0.546
547	0.544
547	0.543
547	0.541
548	0.54
548	0.539
549	0.538
549	0.537
550	0.535
550	0.533
551	0.532
551	0.531
551	0.53
552	0.529
552	0.527
553	0.526
553	0.525
554	0.523
554	0.521
555	0.519
555	0.517
556	0.515
556	0.514
556	0.512
557	0.51
557	0.508
558	0.505
558	0.503
559	0.501
559	0.499
560	0.497
560	0.495
560	0.493
561	0.491
561	0.488
562	0.486
562	0.484
563	0.481
563	0.479
564	0.477
564	0.475
564	0.474
565	0.472
565	0.47
566	0.468
566	0.465
567	0.463
567	0.461
568	0.459
568	0.456
568	0.454
569	0.451
569	0.449
570	0.445
570	0.443
571	0.441
571	0.439
572	0.436
572	0.434
573	0.431
573	0.429
573	0.427
574	0.425
574	0.423
575	0.421
575	0.42
576	0.418
576	0.415
577	0.413
577	0.411
577	0.41
578	0.408
578	0.406
579	0.405
579	0.403
580	0.4
580	0.396
581	0.394
581	0.392
581	0.39
582	0.389
582	0.387
583	0.385
583	0.383
584	0.38
584	0.377
585	0.376
585	0.374
585	0.372
586	0.37
586	0.368
587	0.366
587	0.364
588	0.362
588	0.36
589	0.358
589	0.356
590	0.354
590	0.352
590	0.351
591	0.349
591	0.346
592	0.343
592	0.341
593	0.339
593	0.337
594	0.335
594	0.333
594	0.332
595	0.33
595	0.328
596	0.326
596	0.325
597	0.324
597	0.322
598	0.319
598	0.317
598	0.315
599	0.313
599	0.311
600	0.309
600	0.307
601	0.305
601	0.303
602	0.3
602	0.298
602	0.296
603	0.294
603	0.294
604	0.292
604	0.291
605	0.29
605	0.289
606	0.287
606	0.285
606	0.283
607	0.282
607	0.28
608	0.278
608	0.275
609	0.273
609	0.272
610	0.27
610	0.268
610	0.267
611	0.266
611	0.265
612	0.265
612	0.265
613	0.264
613	0.263
614	0.261
614	0.258
614	0.257
615	0.255
615	0.253
616	0.251
616	0.249
617	0.247
617	0.245
618	0.242
618	0.241
618	0.239
619	0.238
619	0.237
620	0.236
620	0.235
621	0.233
621	0.232
622	0.23
622	0.228
622	0.227
623	0.225
623	0.224
624	0.223
624	0.221
625	0.219
625	0.218
626	0.216
626	0.214
626	0.213
627	0.211
627	0.209
628	0.207
628	0.205
629	0.202
629	0.2
630	0.197
630	0.194
630	0.191
631	0.188
631	0.185
632	0.181
632	0.178
633	0.175
633	0.171
634	0.167
634	0.164
634	0.16
635	0.156
635	0.152
636	0.147
636	0.142
637	0.138
637	0.132
638	0.127
638	0.122
638	0.116
639	0.109
639	0.103
640	0.096
640	0.09
641	0.084
641	0.077
642	0.071
642	0.065
642	0.058
643	0.051
643	0.044
644	0.037
644	0.029
645	0.022
645	0.014
646	0.007
646	-0.001
646	-0.009
647	-0.016
647	-0.024
648	-0.032
648	-0.039
649	-0.047
649	-0.055
650	-0.062
650	-0.07
650	-0.078
651	-0.088
651	-0.101
652	-0.115
652	-0.13
653	-0.142
653	-0.154
653	-0.149
654	-0.127
654	-0.115
655	-0.117
655	-0.12
656	-0.124
656	-0.129
657	-0.131
657	-0.133
657	-0.137
658	-0.142
658	-0.169
659	-0.248
659	-0.341
660	-0.381
660	-0.404
661	-0.429
661	-0.456
661	-0.487
662	-0.517
662	-0.548
663	-0.584
663	-0.622
664	-0.663
664	-0.711
665	-0.76
665	-0.815
665	-0.867
666	-0.922
666	-0.982
667	-1.044
667	-1.108
668	-1.178
668	-1.25
669	-1.324
669	-1.399
669	-1.479
670	-1.555
670	-1.618
671	-1.863
671	-2.07
672	-2.269
672	-2.444
672	-2.564
673	-2.649
673	-2.723
674	-2.749
674	-2.764
675	-2.787
675	-2.923
676	-3.092
676	-3.039
676	-2.809
677	-2.596
677	-2.416
678	-2.206
678	-1.799
679	-1.601
679	-1.49
680	-1.406
680	-1.332
680	-1.269
681	-1.231
681	-1.177
682	-1.143
682	-1.11
683	-1.078
683	-1.065
684	-1.047
684	-1.031
684	-1.012
685	-0.991
685	-0.972
686	-0.95
686	-0.935
687	-0.91
687	-0.901
687	-0.884
688	-0.86
688	-0.841
689	-0.822
689	-0.811
690	-0.792
690	-0.78
691	-0.774
691	-0.783
691	-0.801
692	-0.793
692	-0.785
693	-0.783
693	-0.792
694	-0.787
694	-0.78
695	-0.786
695	-0.785
695	-0.769
696	-0.767
696	-0.745
697	-0.745
697	-0.762
698	-0.763
698	-0.754
698	-0.769
699	-0.771
699	-0.769
700	-0.762
700	-0.777
701	-0.775
701	-0.781
702	-0.782
702	-0.771
702	-0.764
703	-0.756
703	-0.746
704	-0.742
704	-0.742
705	-0.753
705	-0.748
705	-0.736
706	-0.737
706	-0.732
707	-0.734
707	-0.727
708	-0.726
708	-0.722
709	-0.726
709	-0.729
709	-0.719
710	-0.727
710	-0.735
711	-0.727
711	-0.729
712	-0.728
712	-0.744
713	-0.744
713	-0.75
713	-0.74
714	-0.737
714	-0.738
715	-0.729
715	-0.717
716	-0.726
716	-0.727
716	-0.721
717	-0.72
717	-0.722
718	-0.714
718	-0.717
719	-0.723
719	-0.727
720	-0.722
720	-0.732
720	-0.723
721	-0.714
721	-0.714
722	-0.703
722	-0.694
723	-0.69
723	-0.692
723	-0.679
724	-0.68
724	-0.684
725	-0.684
725	-0.696
726	-0.709
726	-0.713
727	-0.718
727	-0.732
727	-0.739
728	-0.74
728	-0.749
729	-0.748
729	-0.754
730	-0.759
730	-0.75
730	-0.74
731	-0.724
731	-0.733
732	-0.737
732	-0.738
733	-0.737
733	-0.741
734	-0.735
734	-0.733
734	-0.718
735	-0.716
735	-0.714
736	-0.727
736	-0.713
737	-0.704
737	-0.707
737	-0.716
738	-0.709
738	-0.711
739	-0.708
739	-0.724
740	-0.723
740	-0.727
741	-0.72
741	-0.723
741	-0.73
742	-0.727
742	-0.727
743	-0.736
743	-0.739
744	-0.738
744	-0.726
744	-0.728
745	-0.732
745	-0.726
746	-0.723
746	-0.719
747	-0.717
747	-0.704
748	-0.692
748	-0.699
748	-0.699
749	-0.697
749	-0.698
750	-0.687
750	-0.688
751	-0.693
751	-0.703
751	-0.706
752	-0.711
752	-0.72
753	-0.715
753	-0.712
754	-0.718
754	-0.713
754	-0.726
755	-0.742
755	-0.753
756	-0.742
756	-0.741
757	-0.741
757	-0.737
758	-0.737
758	-0.736
758	-0.738
759	-0.745
759	-0.731
760	-0.723
760	-0.719
761	-0.728
761	-0.724
761	-0.722
762	-0.73
762	-0.729
763	-0.739
763	-0.736
764	-0.734
764	-0.742
764	-0.75
765	-0.738
765	-0.725
766	-0.732
766	-0.739
767	-0.753
767	-0.746
768	-0.737
768	-0.744
768	-0.747
769	-0.765
769	-0.764
770	-0.77
770	-0.783
771	-0.781
771	-0.783
771	-0.785
772	-0.791
772	-0.791
773	-0.792
773	-0.787
774	-0.784
774	-0.786
775	-0.788
775	-0.784
775	-0.791
776	-0.79
776	-0.779
777	-0.787
777	-0.806
778	-0.804
778	-0.825
778	-0.812
779	-0.834
779	-0.842
780	-0.855
780	-0.853
781	-0.865
781	-0.86
781	-0.875
782	-0.875
782	-0.877
783	-0.865
783	-0.863
784	-0.844
784	-0.833
784	-0.844
785	-0.851
785	-0.839
786	-0.845
786	-0.824
787	-0.81
787	-0.814
788	-0.817
788	-0.827
788	-0.837
789	-0.838
789	-0.82
790	-0.801
790	-0.802
791	-0.8
791	-0.816
791	-0.823
792	-0.814
792	-0.788
793	-0.777
793	-0.755
794	-0.758
794	-0.75
794	-0.759
795	-0.755
795	-0.749
796	-0.733
796	-0.74
797	-0.735
797	-0.749
797	-0.755
798	-0.767
798	-0.763
799	-0.773
799	-0.758
800	-0.765
800	-0.759
801	-0.765
801	-0.75
801	-0.761
802	-0.768
802	-0.769
803	-0.771
803	-0.78
804	-0.774
804	-0.786
804	-0.771
805	-0.777
805	-0.765
806	-0.766
806	-0.75
807	-0.748
807	-0.729
807	-0.716
808	-0.705
808	-0.701
809	-0.684
809	-0.695
810	-0.691
810	-0.684
810	-0.683
811	-0.69
811	-0.682
812	-0.685
812	-0.691
813	-0.694
813	-0.69
813	-0.698
814	-0.7
814	-0.703
815	-0.709
815	-0.713
816	-0.705
816	-0.711
817	-0.716
817	-0.734
817	-0.749
818	-0.756
818	-0.757
819	-0.748
819	-0.748
820	-0.758
820	-0.754
820	-0.766
821	-0.763
821	-0.75
822	-0.715
822	-0.692
823	-0.687
823	-0.691
823	-0.689
824	-0.684
824	-0.684
825	-0.676
825	-0.657
826	-0.654
826	-0.663
826	-0.676
827	-0.671
827	-0.669
828	-0.649
828	-0.649
829	-0.642
829	-0.63
829	-0.622
830	-0.633
830	-0.628
831	-0.621
831	-0.612
832	-0.609
832	-0.602
832	-0.611
833	-0.607
833	-0.607
834	-0.604
834	-0.613
835	-0.599
835	-0.595
835	-0.59
836	-0.586
836	-0.584
837	-0.582
837	-0.572
838	-0.563
838	-0.551
839	-0.539
839	-0.525
839	-0.517
840	-0.506
840	-0.502
841	-0.49
841	-0.481
842	-0.475
842	-0.464
842	-0.457
843	-0.451
843	-0.447
844	-0.438
844	-0.43
845	-0.422
845	-0.412
845	-0.399
846	-0.389
846	-0.375
847	-0.364
847	-0.352
848	-0.342
848	-0.331
848	-0.315
849	-0.305
849	-0.295
850	-0.282
850	-0.277
851	-0.27
851	-0.26
851	-0.25
852	-0.235
852	-0.222
853	-0.213
853	-0.209
854	-0.198
854	-0.186
854	-0.177
855	-0.166
855	-0.159
856	-0.151
856	-0.143
857	-0.138
857	-0.13
857	-0.12
858	-0.11
858	-0.105
859	-0.097
859	-0.088
860	-0.08
860	-0.069
860	-0.061
861	-0.054
861	-0.046
862	-0.04
862	-0.033
863	-0.027
863	-0.019
863	-0.013
864	-0.009
864	-0.004
865	0.001
865	0.005
866	0.009
866	0.013
866	0.016
867	0.019
867	0.022
868	0.025
868	0.028
869	0.03
869	0.032
869	0.033
870	0.035
870	0.038
871	0.04
871	0.041
872	0.043
872	0.043
872	0.044
873	0.044
873	0.045
874	0.045
874	0.044
875	0.044
875	0.043
875	0.042
876	0.041
876	0.04
877	0.039
877	0.038
878	0.037
878	0.035
878	0.034
879	0.032
879	0.032
880	0.031
880	0.031
881	0.031
881	0.031
881	0.031
882	0.03
882	0.029
883	0.028
883	0.027
884	0.026
884	0.025
884	0.024
885	0.023
885	0.023
886	0.022
886	0.022
887	0.022
887	0.022
887	0.022
888	0.023
888	0.023
889	0.024
889	0.024
890	0.024
890	0.024
890	0.024
891	0.024
891	0.024
892	0.025
892	0.024
893	0.024
893	0.024
893	0.024
894	0.024
894	0.024
895	0.024
895	0.024
895	0.024
896	0.023
896	0.023
897	0.021
897	0.02
898	0.02
898	0.019
898	0.019
899	0.018
899	0.018
900	0.019
900	0.019
901	0.019
901	0.02
901	0.021
902	0.021
902	0.022
903	0.023
903	0.023
904	0.024
904	0.025
904	0.025
905	0.026
905	0.027
906	0.027
906	0.027
907	0.027
907	0.027
907	0.026
908	0.026
908	0.025
909	0.025
909	0.024
910	0.024
910	0.023
910	0.023
911	0.023
911	0.024
912	0.025
912	0.025
913	0.026
913	0.027
913	0.028
914	0.029
914	0.03
915	0.031
915	0.032
916	0.033
916	0.033
916	0.034
917	0.034
917	0.034
918	0.034
918	0.034
918	0.034
919	0.033
919	0.033
920	0.033
920	0.032
921	0.032
921	0.032
921	0.032
922	0.032
922	0.031
923	0.031
923	0.031
924	0.031
924	0.03
924	0.03
925	0.029
925	0.028
926	0.027
926	0.026
927	0.025
927	0.024
927	0.024
928	0.023
928	0.023
929	0.022
929	0.022
930	0.021
930	0.02
930	0.02
931	0.019
931	0.019
932	0.018
932	0.017
933	0.017
933	0.015
933	0.014
934	0.013
934	0.012
935	0.012
935	0.011
935	0.011
936	0.01
936	0.009
937	0.008
937	0.008
938	0.008
938	0.008
938	0.008
939	0.008
939	0.009
940	0.009
940	0.009
941	0.01
941	0.011
941	0.012
942	0.012
942	0.013
943	0.013
943	0.012
944	0.012
944	0.012
944	0.011
945	0.011
945	0.009
946	0.008
946	0.007
946	0.006
947	0.006
947	0.005
948	0.005
948	0.006
949	0.006
949	0.006
949	0.007
950	0.008
950	0.008
951	0.01
951	0.01
952	0.011
952	0.012
952	0.013
953	0.014
953	0.015
954	0.015
954	0.016
955	0.017
955	0.019
955	0.019
956	0.02
956	0.021
957	0.021
957	0.021
957	0.021
958	0.021
958	0.022
959	0.022
959	0.023
960	0.023
960	0.023
960	0.023
961	0.023
961	0.023
962	0.024
962	0.024
963	0.024
963	0.023
963	0.023
964	0.023
964	0.023
965	0.024
965	0.024
966	0.024
966	0.023
966	0.023
967	0.023
967	0.022
968	0.022
968	0.021
968	0.02
969	0.02
969	0.019
970	0.019
970	0.019
971	0.019
971	0.02
971	0.02
972	0.02
972	0.021
973	0.021
973	0.021
974	0.021
974	0.021
974	0.021
975	0.021
975	0.02
976	0.02
976	0.019
976	0.019
977	0.019
977	0.019
978	0.019
978	0.019
979	0.019
979	0.019
979	0.019
980	0.019
980	0.019
981	0.019
981	0.019
982	0.019
982	0.018
982	0.018
983	0.018
983	0.017
984	0.017
984	0.017
984	0.017
985	0.017
985	0.017
986	0.016
986	0.016
987	0.016
987	0.015
987	0.015
988	0.015
988	0.014
989	0.013
989	0.012
990	0.011
990	0.011
990	0.01
991	0.01
991	0.01
992	0.009
992	0.009
992	0.009
993	0.009
993	0.009
994	0.009
994	0.009
995	0.009
995	0.008
995	0.008
996	0.007
996	0.007
997	0.006
997	0.006
997	0.006
998	0.006
998	0.006
999	0.006
999	0.007
1000	0.007
1000	0.007
1000	0.008
1001	0.008
1001	0.009
1002	0.009
1002	0.01
1003	0.01
1003	0.01
1003	0.01
1004	0.01
1004	0.009
1005	0.009
1005	0.008
1005	0.007
1006	0.006
1006	0.005
1007	0.004
1007	0.003
1008	0.003
1008	0.002
1008	0.002
1009	0.002
1009	0.001
1010	0.001
1010	0.001
1010	0.001
1011	0.002
1011	0.002
1012	0.001
1012	0.001
1013	0.001
1013	-0
1013	-0.001
1014	-0.001
1014	-0.002
1015	-0.003
1015	-0.003
1016	-0.004
1016	-0.005
1016	-0.005
1017	-0.006
1017	-0.007
1018	-0.008
1018	-0.009
1018	-0.01
1019	-0.01
1019	-0.011
1020	-0.012
1020	-0.012
1021	-0.013
1021	-0.013
1021	-0.014
1022	-0.014
1022	-0.015
1023	-0.015
1023	-0.015
1023	-0.015
1024	-0.015
1024	-0.016
1025	-0.015
1025	-0.015
1026	-0.015
1026	-0.014
1026	-0.014
1027	-0.014
1027	-0.014
1028	-0.014
1028	-0.013
1028	-0.014
1029	-0.013
1029	-0.014
1030	-0.014
1030	-0.015
1031	-0.015
1031	-0.015
1031	-0.015
1032	-0.016
1032	-0.015
1033	-0.015
1033	-0.015
1033	-0.015
1034	-0.015
1034	-0.015
1035	-0.015
1035	-0.015
1036	-0.015
1036	-0.015
1036	-0.015
1037	-0.015
1037	-0.015
1038	-0.015
1038	-0.015
1039	-0.014
1039	-0.014
1039	-0.014
1040	-0.013
1040	-0.013
1041	-0.012
1041	-0.012
1041	-0.012
1042	-0.012
1042	-0.012
1043	-0.013
1043	-0.013
1044	-0.014
1044	-0.015
1044	-0.016
1045	-0.017
1045	-0.018
1046	-0.018
1046	-0.019
1046	-0.019
1047	-0.019
1047	-0.019
1048	-0.019
1048	-0.019
1049	-0.018
1049	-0.018
1049	-0.018
1050	-0.017
1050	-0.017
1051	-0.017
1051	-0.016
1051	-0.016
1052	-0.016
1052	-0.015
1053	-0.015
1053	-0.015
1053	-0.015
1054	-0.015
1054	-0.015
1055	-0.015
1055	-0.015
1056	-0.016
1056	-0.017
1056	-0.017
1057	-0.018
1057	-0.018
1058	-0.019
1058	-0.019
1058	-0.02
1059	-0.02
1059	-0.021
1060	-0.021
1060	-0.022
1061	-0.022
1061	-0.022
1061	-0.022
1062	-0.023
1062	-0.023
1063	-0.023
1063	-0.023
1063	-0.023
1064	-0.022
1064	-0.022
1065	-0.023
1065	-0.023
1066	-0.023
1066	-0.023
1066	-0.023
1067	-0.023
1067	-0.023
1068	-0.024
1068	-0.024
1068	-0.025
1069	-0.025
1069	-0.025
1070	-0.026
1070	-0.026
1071	-0.026
1071	-0.026
1071	-0.027
1072	-0.027
1072	-0.028
1073	-0.028
1073	-0.028
1073	-0.028
1074	-0.028
1074	-0.027
1075	-0.028
1075	-0.028
1076	-0.029
1076	-0.029
1076	-0.03
1077	-0.03
1077	-0.031
1078	-0.032
1078	-0.032
1078	-0.033
1079	-0.034
1079	-0.034
1080	-0.035
1080	-0.035
1080	-0.036
1081	-0.036
1081	-0.037
1082	-0.037
1082	-0.039
1083	-0.039
1083	-0.04
1083	-0.041
1084	-0.042
1084	-0.043
1085	-0.044
1085	-0.045
1085	-0.045
1086	-0.045
1086	-0.047
1087	-0.046
1087	-0.046
1088	-0.047
1088	-0.047
1088	-0.048
1089	-0.049
1089	-0.05
1090	-0.051
1090	-0.052
1090	-0.053
1091	-0.053
1091	-0.054
1092	-0.055
1092	-0.055
1092	-0.056
1093	-0.057
1093	-0.056
1094	-0.057
1094	-0.057
1095	-0.058
1095	-0.058
1095	-0.058
1096	-0.059
1096	-0.06
1097	-0.061
1097	-0.061
1097	-0.061
1098	-0.063
1098	-0.065
1099	-0.065
1099	-0.066
1100	-0.068
1100	-0.069
1100	-0.072
1101	-0.073
1101	-0.076
1102	-0.077
1102	-0.08
1102	-0.081
1103	-0.083
1103	-0.085
1104	-0.087
1104	-0.09
1104	-0.091
1105	-0.093
1105	-0.097
1106	-0.101
1106	-0.103
1107	-0.107
1107	-0.111
1107	-0.116
1108	-0.118
1108	-0.12
1109	-0.123
1109	-0.127
1109	-0.13
1110	-0.131
1110	-0.132
1111	-0.138
1111	-0.14
