Data from 17C_3.1A_35min_2sec_int_Absorbance__214__02617.txt Node

Date: Mon Jun 19 18:23:44 CEST 2023
User: Marek
Spectrometer: MAYP115816
Trigger mode: 0
Integration Time (sec): 2.500000E-1
Scans to average: 10
Electric dark correction enabled: true
Nonlinearity correction enabled: true
Boxcar width: 5
XAxis mode: Wavelengths
Number of Pixels in Spectrum: 2068
>>>>>Begin Spectral Data<<<<<
199	-0.754
199	-0.761
200	-0.665
200	-0.617
201	-0.581
201	-0.567
202	-0.549
202	-0.535
203	-0.529
203	-0.524
204	-0.508
204	-0.496
205	-0.473
205	-0.468
205	-0.465
206	-0.467
206	-0.469
207	-0.461
207	-0.462
208	-0.462
208	-0.461
209	-0.458
209	-0.458
210	-0.462
210	-0.468
211	-0.47
211	-0.473
212	-0.477
212	-0.485
213	-0.481
213	-0.481
213	-0.486
214	-0.482
214	-0.482
215	-0.483
215	-0.487
216	-0.491
216	-0.498
217	-0.492
217	-0.496
218	-0.503
218	-0.503
219	-0.506
219	-0.515
220	-0.519
220	-0.53
221	-0.529
221	-0.531
221	-0.524
222	-0.521
222	-0.522
223	-0.523
223	-0.527
224	-0.532
224	-0.534
225	-0.529
225	-0.52
226	-0.524
226	-0.524
227	-0.53
227	-0.539
228	-0.539
228	-0.54
229	-0.542
229	-0.534
229	-0.529
230	-0.533
230	-0.536
231	-0.531
231	-0.523
232	-0.517
232	-0.516
233	-0.509
233	-0.509
234	-0.507
234	-0.503
235	-0.505
235	-0.511
236	-0.51
236	-0.516
236	-0.523
237	-0.528
237	-0.527
238	-0.536
238	-0.533
239	-0.535
239	-0.545
240	-0.545
240	-0.543
241	-0.549
241	-0.544
242	-0.548
242	-0.545
243	-0.541
243	-0.542
243	-0.552
244	-0.551
244	-0.55
245	-0.562
245	-0.562
246	-0.566
246	-0.572
247	-0.573
247	-0.578
248	-0.585
248	-0.582
249	-0.585
249	-0.592
250	-0.59
250	-0.587
250	-0.587
251	-0.582
251	-0.581
252	-0.586
252	-0.577
253	-0.58
253	-0.592
254	-0.589
254	-0.587
255	-0.597
255	-0.591
256	-0.589
256	-0.602
257	-0.6
257	-0.594
258	-0.611
258	-0.607
258	-0.603
259	-0.601
259	-0.611
260	-0.609
260	-0.614
261	-0.625
261	-0.617
262	-0.614
262	-0.617
263	-0.609
263	-0.605
264	-0.605
264	-0.613
265	-0.607
265	-0.617
265	-0.618
266	-0.615
266	-0.613
267	-0.626
267	-0.632
268	-0.645
268	-0.655
269	-0.652
269	-0.648
270	-0.654
270	-0.657
271	-0.657
271	-0.664
272	-0.666
272	-0.66
272	-0.655
273	-0.651
273	-0.66
274	-0.665
274	-0.668
275	-0.668
275	-0.66
276	-0.665
276	-0.658
277	-0.665
277	-0.683
278	-0.695
278	-0.692
278	-0.683
279	-0.688
279	-0.7
280	-0.698
280	-0.698
281	-0.692
281	-0.7
282	-0.691
282	-0.692
283	-0.68
283	-0.682
284	-0.679
284	-0.667
285	-0.662
285	-0.658
285	-0.653
286	-0.659
286	-0.653
287	-0.649
287	-0.632
288	-0.624
288	-0.631
289	-0.643
289	-0.652
290	-0.639
290	-0.64
291	-0.638
291	-0.633
292	-0.635
292	-0.641
292	-0.647
293	-0.651
293	-0.642
294	-0.632
294	-0.624
295	-0.623
295	-0.619
296	-0.619
296	-0.617
297	-0.61
297	-0.597
298	-0.588
298	-0.596
298	-0.584
299	-0.577
299	-0.579
300	-0.572
300	-0.57
301	-0.564
301	-0.562
302	-0.571
302	-0.577
303	-0.566
303	-0.553
304	-0.556
304	-0.556
305	-0.556
305	-0.556
305	-0.554
306	-0.539
306	-0.533
307	-0.518
307	-0.52
308	-0.532
308	-0.531
309	-0.532
309	-0.521
310	-0.511
310	-0.506
311	-0.497
311	-0.506
311	-0.501
312	-0.498
312	-0.495
313	-0.483
313	-0.484
314	-0.481
314	-0.482
315	-0.483
315	-0.481
316	-0.478
316	-0.467
317	-0.46
317	-0.456
318	-0.446
318	-0.442
318	-0.438
319	-0.427
319	-0.423
320	-0.417
320	-0.417
321	-0.421
321	-0.421
322	-0.416
322	-0.409
323	-0.41
323	-0.405
324	-0.396
324	-0.388
324	-0.378
325	-0.368
325	-0.351
326	-0.338
326	-0.32
327	-0.305
327	-0.285
328	-0.258
328	-0.237
329	-0.214
329	-0.189
330	-0.16
330	-0.125
330	-0.097
331	-0.067
331	-0.037
332	-0.011
332	0.013
333	0.037
333	0.063
334	0.086
334	0.104
335	0.123
335	0.138
336	0.153
336	0.168
336	0.179
337	0.192
337	0.202
338	0.211
338	0.218
339	0.227
339	0.233
340	0.238
340	0.242
341	0.247
341	0.251
342	0.255
342	0.258
342	0.261
343	0.264
343	0.267
344	0.268
344	0.27
345	0.272
345	0.272
346	0.273
346	0.274
347	0.275
347	0.276
348	0.276
348	0.277
348	0.277
349	0.277
349	0.278
350	0.278
350	0.279
351	0.279
351	0.279
352	0.279
352	0.279
353	0.279
353	0.279
354	0.279
354	0.279
354	0.279
355	0.279
355	0.278
356	0.279
356	0.278
357	0.277
357	0.277
358	0.277
358	0.277
359	0.276
359	0.276
360	0.276
360	0.276
360	0.276
361	0.276
361	0.275
362	0.276
362	0.276
363	0.276
363	0.276
364	0.276
364	0.275
365	0.275
365	0.275
366	0.276
366	0.276
366	0.276
367	0.276
367	0.276
368	0.275
368	0.275
369	0.275
369	0.275
370	0.275
370	0.275
371	0.275
371	0.274
372	0.274
372	0.274
372	0.274
373	0.274
373	0.274
374	0.274
374	0.274
375	0.274
375	0.274
376	0.274
376	0.274
377	0.274
377	0.274
378	0.273
378	0.273
378	0.273
379	0.273
379	0.273
380	0.273
380	0.273
381	0.273
381	0.272
382	0.272
382	0.272
383	0.272
383	0.271
383	0.271
384	0.271
384	0.271
385	0.271
385	0.271
386	0.271
386	0.271
387	0.271
387	0.27
388	0.27
388	0.27
389	0.27
389	0.27
389	0.27
390	0.27
390	0.27
391	0.27
391	0.27
392	0.27
392	0.27
393	0.27
393	0.269
394	0.269
394	0.269
394	0.268
395	0.268
395	0.268
396	0.268
396	0.268
397	0.267
397	0.267
398	0.268
398	0.268
399	0.268
399	0.267
400	0.267
400	0.267
400	0.267
401	0.267
401	0.266
402	0.266
402	0.266
403	0.266
403	0.265
404	0.265
404	0.265
405	0.265
405	0.265
405	0.265
406	0.264
406	0.264
407	0.264
407	0.264
408	0.264
408	0.264
409	0.264
409	0.264
410	0.264
410	0.264
411	0.264
411	0.264
411	0.264
412	0.264
412	0.263
413	0.263
413	0.263
414	0.263
414	0.263
415	0.262
415	0.262
416	0.262
416	0.262
416	0.262
417	0.261
417	0.262
418	0.262
418	0.262
419	0.262
419	0.262
420	0.262
420	0.262
421	0.262
421	0.262
421	0.262
422	0.262
422	0.262
423	0.261
423	0.261
424	0.26
424	0.26
425	0.26
425	0.259
426	0.259
426	0.259
427	0.258
427	0.258
427	0.258
428	0.258
428	0.258
429	0.258
429	0.258
430	0.258
430	0.258
431	0.258
431	0.257
432	0.257
432	0.257
432	0.257
433	0.256
433	0.256
434	0.256
434	0.256
435	0.256
435	0.256
436	0.256
436	0.256
437	0.256
437	0.256
437	0.256
438	0.256
438	0.256
439	0.256
439	0.256
440	0.256
440	0.256
441	0.255
441	0.255
442	0.255
442	0.254
442	0.254
443	0.254
443	0.254
444	0.254
444	0.254
445	0.254
445	0.254
446	0.254
446	0.254
447	0.254
447	0.255
447	0.255
448	0.255
448	0.254
449	0.254
449	0.254
450	0.255
450	0.255
451	0.255
451	0.255
452	0.254
452	0.254
452	0.254
453	0.254
453	0.254
454	0.254
454	0.253
455	0.253
455	0.253
456	0.253
456	0.253
457	0.253
457	0.253
458	0.253
458	0.253
458	0.253
459	0.253
459	0.253
460	0.253
460	0.253
461	0.253
461	0.253
462	0.253
462	0.253
463	0.253
463	0.253
463	0.253
464	0.253
464	0.253
465	0.253
465	0.253
466	0.253
466	0.254
467	0.254
467	0.254
467	0.254
468	0.254
468	0.254
469	0.254
469	0.254
470	0.255
470	0.255
471	0.255
471	0.255
472	0.255
472	0.256
472	0.256
473	0.257
473	0.257
474	0.257
474	0.257
475	0.258
475	0.258
476	0.258
476	0.258
477	0.259
477	0.259
477	0.259
478	0.259
478	0.26
479	0.26
479	0.26
480	0.26
480	0.261
481	0.261
481	0.262
482	0.262
482	0.263
482	0.263
483	0.264
483	0.264
484	0.264
484	0.264
485	0.265
485	0.265
486	0.265
486	0.266
487	0.266
487	0.267
487	0.268
488	0.268
488	0.269
489	0.271
489	0.272
490	0.273
490	0.274
491	0.275
491	0.276
492	0.277
492	0.278
492	0.279
493	0.28
493	0.281
494	0.283
494	0.283
495	0.284
495	0.285
496	0.286
496	0.288
496	0.289
497	0.29
497	0.292
498	0.293
498	0.294
499	0.295
499	0.297
500	0.299
500	0.301
501	0.302
501	0.303
501	0.305
502	0.305
502	0.307
503	0.308
503	0.31
504	0.311
504	0.312
505	0.314
505	0.315
506	0.317
506	0.318
506	0.32
507	0.321
507	0.323
508	0.324
508	0.325
509	0.327
509	0.328
510	0.33
510	0.331
511	0.333
511	0.335
511	0.336
512	0.338
512	0.34
513	0.341
513	0.343
514	0.345
514	0.347
515	0.348
515	0.35
515	0.351
516	0.353
516	0.355
517	0.357
517	0.358
518	0.359
518	0.36
519	0.362
519	0.363
520	0.365
520	0.367
520	0.369
521	0.37
521	0.371
522	0.373
522	0.375
523	0.376
523	0.378
524	0.379
524	0.38
524	0.381
525	0.382
525	0.383
526	0.384
526	0.386
527	0.387
527	0.388
528	0.389
528	0.39
529	0.391
529	0.392
529	0.394
530	0.395
530	0.396
531	0.397
531	0.397
532	0.398
532	0.399
533	0.4
533	0.401
533	0.402
534	0.402
534	0.402
535	0.403
535	0.404
536	0.404
536	0.404
537	0.404
537	0.405
538	0.405
538	0.406
538	0.406
539	0.407
539	0.408
540	0.408
540	0.408
541	0.409
541	0.409
542	0.41
542	0.41
542	0.41
543	0.41
543	0.41
544	0.41
544	0.41
545	0.41
545	0.411
546	0.411
546	0.411
547	0.41
547	0.41
547	0.411
548	0.411
548	0.411
549	0.411
549	0.412
550	0.412
550	0.412
551	0.412
551	0.413
551	0.414
552	0.415
552	0.415
553	0.416
553	0.416
554	0.416
554	0.416
555	0.416
555	0.416
556	0.416
556	0.416
556	0.416
557	0.415
557	0.415
558	0.415
558	0.415
559	0.415
559	0.415
560	0.415
560	0.414
560	0.414
561	0.414
561	0.414
562	0.414
562	0.413
563	0.413
563	0.413
564	0.413
564	0.413
564	0.413
565	0.413
565	0.413
566	0.413
566	0.413
567	0.413
567	0.413
568	0.413
568	0.412
568	0.412
569	0.412
569	0.411
570	0.41
570	0.408
571	0.408
571	0.408
572	0.407
572	0.407
573	0.406
573	0.406
573	0.405
574	0.405
574	0.405
575	0.405
575	0.406
576	0.406
576	0.405
577	0.404
577	0.405
577	0.405
578	0.405
578	0.405
579	0.405
579	0.405
580	0.404
580	0.403
581	0.402
581	0.402
581	0.402
582	0.402
582	0.401
583	0.401
583	0.401
584	0.399
584	0.399
585	0.4
585	0.4
585	0.4
586	0.4
586	0.399
587	0.398
587	0.398
588	0.397
588	0.397
589	0.396
589	0.396
590	0.395
590	0.395
590	0.395
591	0.395
591	0.394
592	0.393
592	0.392
593	0.392
593	0.391
594	0.391
594	0.39
594	0.39
595	0.389
595	0.388
596	0.388
596	0.389
597	0.39
597	0.389
598	0.388
598	0.387
598	0.387
599	0.386
599	0.385
600	0.383
600	0.382
601	0.381
601	0.38
602	0.378
602	0.378
602	0.377
603	0.377
603	0.377
604	0.377
604	0.377
605	0.377
605	0.376
606	0.375
606	0.374
606	0.374
607	0.373
607	0.372
608	0.371
608	0.369
609	0.368
609	0.367
610	0.366
610	0.365
610	0.365
611	0.365
611	0.366
612	0.366
612	0.366
613	0.366
613	0.366
614	0.365
614	0.363
614	0.362
615	0.361
615	0.36
616	0.359
616	0.357
617	0.355
617	0.354
618	0.352
618	0.351
618	0.35
619	0.349
619	0.348
620	0.348
620	0.347
621	0.346
621	0.345
622	0.344
622	0.343
622	0.341
623	0.34
623	0.339
624	0.338
624	0.336
625	0.335
625	0.334
626	0.332
626	0.331
626	0.329
627	0.328
627	0.326
628	0.324
628	0.322
629	0.319
629	0.317
630	0.313
630	0.31
630	0.308
631	0.304
631	0.301
632	0.297
632	0.293
633	0.289
633	0.286
634	0.281
634	0.278
634	0.274
635	0.269
635	0.265
636	0.26
636	0.255
637	0.249
637	0.244
638	0.238
638	0.231
638	0.225
639	0.218
639	0.211
640	0.204
640	0.196
641	0.189
641	0.182
642	0.175
642	0.168
642	0.161
643	0.153
643	0.145
644	0.137
644	0.128
645	0.12
645	0.112
646	0.103
646	0.094
646	0.085
647	0.076
647	0.067
648	0.059
648	0.05
649	0.04
649	0.031
650	0.022
650	0.013
650	0.003
651	-0.009
651	-0.024
652	-0.041
652	-0.058
653	-0.074
653	-0.088
653	-0.084
654	-0.06
654	-0.046
655	-0.049
655	-0.054
656	-0.061
656	-0.066
657	-0.07
657	-0.074
657	-0.08
658	-0.086
658	-0.117
659	-0.209
659	-0.317
660	-0.364
660	-0.391
661	-0.42
661	-0.452
661	-0.487
662	-0.522
662	-0.559
663	-0.6
663	-0.645
664	-0.691
664	-0.745
665	-0.797
665	-0.858
665	-0.914
666	-0.973
666	-1.036
667	-1.102
667	-1.168
668	-1.241
668	-1.315
669	-1.39
669	-1.466
669	-1.547
670	-1.62
670	-1.662
671	-1.841
671	-2.056
672	-2.258
672	-2.435
672	-2.556
673	-2.642
673	-2.717
674	-2.752
674	-2.769
675	-2.792
675	-2.93
676	-3.11
676	-3.061
676	-2.836
677	-2.63
677	-2.464
678	-2.282
678	-1.964
679	-1.727
679	-1.605
680	-1.514
680	-1.434
680	-1.367
681	-1.324
681	-1.267
682	-1.228
682	-1.191
683	-1.155
683	-1.139
684	-1.118
684	-1.099
684	-1.077
685	-1.052
685	-1.029
686	-1.005
686	-0.988
687	-0.961
687	-0.95
687	-0.93
688	-0.905
688	-0.884
689	-0.863
689	-0.849
690	-0.832
690	-0.82
691	-0.814
691	-0.82
691	-0.837
692	-0.829
692	-0.818
693	-0.814
693	-0.821
694	-0.816
694	-0.809
695	-0.813
695	-0.811
695	-0.794
696	-0.789
696	-0.766
697	-0.767
697	-0.782
698	-0.783
698	-0.773
698	-0.786
699	-0.789
699	-0.785
700	-0.777
700	-0.793
701	-0.792
701	-0.8
702	-0.799
702	-0.791
702	-0.782
703	-0.773
703	-0.766
704	-0.764
704	-0.764
705	-0.776
705	-0.767
705	-0.755
706	-0.755
706	-0.749
707	-0.752
707	-0.749
708	-0.748
708	-0.74
709	-0.74
709	-0.742
709	-0.732
710	-0.743
710	-0.752
711	-0.744
711	-0.745
712	-0.742
712	-0.755
713	-0.755
713	-0.763
713	-0.755
714	-0.752
714	-0.754
715	-0.741
715	-0.73
716	-0.736
716	-0.738
716	-0.732
717	-0.733
717	-0.736
718	-0.728
718	-0.729
719	-0.734
719	-0.734
720	-0.731
720	-0.741
720	-0.733
721	-0.722
721	-0.722
722	-0.71
722	-0.699
723	-0.696
723	-0.7
723	-0.687
724	-0.691
724	-0.697
725	-0.694
725	-0.703
726	-0.717
726	-0.722
727	-0.727
727	-0.74
727	-0.746
728	-0.748
728	-0.755
729	-0.753
729	-0.754
730	-0.762
730	-0.755
730	-0.742
731	-0.723
731	-0.733
732	-0.738
732	-0.74
733	-0.738
733	-0.742
734	-0.737
734	-0.739
734	-0.725
735	-0.724
735	-0.726
736	-0.737
736	-0.722
737	-0.714
737	-0.715
737	-0.725
738	-0.718
738	-0.717
739	-0.715
739	-0.728
740	-0.727
740	-0.728
741	-0.722
741	-0.725
741	-0.727
742	-0.725
742	-0.725
743	-0.733
743	-0.738
744	-0.735
744	-0.724
744	-0.725
745	-0.732
745	-0.725
746	-0.723
746	-0.719
747	-0.721
747	-0.708
748	-0.696
748	-0.703
748	-0.706
749	-0.705
749	-0.706
750	-0.695
750	-0.698
751	-0.701
751	-0.712
751	-0.713
752	-0.718
752	-0.726
753	-0.721
753	-0.717
754	-0.722
754	-0.717
754	-0.73
755	-0.747
755	-0.758
756	-0.746
756	-0.744
757	-0.742
757	-0.738
758	-0.739
758	-0.736
758	-0.739
759	-0.745
759	-0.727
760	-0.719
760	-0.712
761	-0.723
761	-0.72
761	-0.718
762	-0.726
762	-0.727
763	-0.738
763	-0.736
764	-0.734
764	-0.742
764	-0.75
765	-0.741
765	-0.729
766	-0.736
766	-0.747
767	-0.761
767	-0.753
768	-0.741
768	-0.749
768	-0.754
769	-0.773
769	-0.771
770	-0.776
770	-0.788
771	-0.786
771	-0.787
771	-0.787
772	-0.791
772	-0.791
773	-0.792
773	-0.787
774	-0.784
774	-0.785
775	-0.787
775	-0.783
775	-0.791
776	-0.79
776	-0.779
777	-0.79
777	-0.809
778	-0.805
778	-0.827
778	-0.815
779	-0.839
779	-0.847
780	-0.86
780	-0.858
781	-0.87
781	-0.867
781	-0.883
782	-0.883
782	-0.884
783	-0.868
783	-0.866
784	-0.845
784	-0.835
784	-0.843
785	-0.849
785	-0.835
786	-0.839
786	-0.816
787	-0.803
787	-0.806
788	-0.812
788	-0.821
788	-0.833
789	-0.832
789	-0.813
790	-0.794
790	-0.797
791	-0.798
791	-0.815
791	-0.822
792	-0.815
792	-0.789
793	-0.778
793	-0.756
794	-0.761
794	-0.752
794	-0.763
795	-0.759
795	-0.749
796	-0.734
796	-0.739
797	-0.734
797	-0.747
797	-0.755
798	-0.767
798	-0.763
799	-0.774
799	-0.76
800	-0.766
800	-0.761
801	-0.766
801	-0.753
801	-0.762
802	-0.77
802	-0.77
803	-0.769
803	-0.777
804	-0.773
804	-0.783
804	-0.769
805	-0.771
805	-0.759
806	-0.762
806	-0.749
807	-0.747
807	-0.727
807	-0.714
808	-0.704
808	-0.697
809	-0.684
809	-0.694
810	-0.693
810	-0.686
810	-0.683
811	-0.689
811	-0.682
812	-0.685
812	-0.692
813	-0.698
813	-0.694
813	-0.698
814	-0.702
814	-0.706
815	-0.71
815	-0.712
816	-0.706
816	-0.71
817	-0.716
817	-0.733
817	-0.747
818	-0.754
818	-0.757
819	-0.748
819	-0.749
820	-0.759
820	-0.755
820	-0.765
821	-0.762
821	-0.752
822	-0.72
822	-0.697
823	-0.695
823	-0.698
823	-0.694
824	-0.688
824	-0.69
825	-0.682
825	-0.664
826	-0.66
826	-0.665
826	-0.674
827	-0.668
827	-0.662
828	-0.642
828	-0.643
829	-0.633
829	-0.619
829	-0.611
830	-0.621
830	-0.616
831	-0.609
831	-0.599
832	-0.598
832	-0.593
832	-0.598
833	-0.594
833	-0.595
834	-0.592
834	-0.602
835	-0.589
835	-0.584
835	-0.579
836	-0.576
836	-0.571
837	-0.569
837	-0.56
838	-0.551
838	-0.539
839	-0.525
839	-0.512
839	-0.501
840	-0.49
840	-0.485
841	-0.475
841	-0.466
842	-0.459
842	-0.448
842	-0.44
843	-0.436
843	-0.431
844	-0.422
844	-0.416
845	-0.408
845	-0.397
845	-0.383
846	-0.373
846	-0.359
847	-0.349
847	-0.34
848	-0.327
848	-0.316
848	-0.299
849	-0.289
849	-0.277
850	-0.264
850	-0.258
851	-0.249
851	-0.238
851	-0.228
852	-0.211
852	-0.197
853	-0.188
853	-0.183
854	-0.171
854	-0.16
854	-0.148
855	-0.136
855	-0.129
856	-0.118
856	-0.108
857	-0.101
857	-0.093
857	-0.081
858	-0.07
858	-0.062
859	-0.054
859	-0.044
860	-0.035
860	-0.021
860	-0.013
861	-0.005
861	0.003
862	0.011
862	0.018
863	0.026
863	0.035
863	0.042
864	0.047
864	0.054
865	0.059
865	0.064
866	0.069
866	0.072
866	0.076
867	0.079
867	0.083
868	0.085
868	0.089
869	0.092
869	0.094
869	0.096
870	0.098
870	0.1
871	0.102
871	0.104
872	0.105
872	0.105
872	0.106
873	0.106
873	0.106
874	0.106
874	0.106
875	0.105
875	0.104
875	0.103
876	0.102
876	0.101
877	0.1
877	0.099
878	0.098
878	0.096
878	0.095
879	0.093
879	0.093
880	0.092
880	0.092
881	0.092
881	0.092
881	0.092
882	0.091
882	0.09
883	0.089
883	0.087
884	0.087
884	0.085
884	0.085
885	0.083
885	0.083
886	0.082
886	0.082
887	0.082
887	0.082
887	0.082
888	0.083
888	0.082
889	0.083
889	0.083
890	0.083
890	0.083
890	0.083
891	0.082
891	0.083
892	0.083
892	0.083
893	0.083
893	0.083
893	0.083
894	0.082
894	0.082
895	0.082
895	0.082
895	0.082
896	0.081
896	0.08
897	0.078
897	0.077
898	0.076
898	0.076
898	0.075
899	0.075
899	0.076
900	0.076
900	0.076
901	0.076
901	0.077
901	0.078
902	0.079
902	0.08
903	0.08
903	0.081
904	0.081
904	0.082
904	0.082
905	0.083
905	0.083
906	0.083
906	0.083
907	0.083
907	0.083
907	0.082
908	0.082
908	0.081
909	0.08
909	0.079
910	0.079
910	0.078
910	0.078
911	0.078
911	0.079
912	0.08
912	0.08
913	0.081
913	0.082
913	0.083
914	0.084
914	0.084
915	0.085
915	0.086
916	0.086
916	0.087
916	0.087
917	0.087
917	0.087
918	0.087
918	0.087
918	0.087
919	0.086
919	0.086
920	0.086
920	0.086
921	0.086
921	0.086
921	0.086
922	0.085
922	0.085
923	0.084
923	0.084
924	0.084
924	0.083
924	0.082
925	0.081
925	0.08
926	0.079
926	0.078
927	0.077
927	0.077
927	0.076
928	0.075
928	0.075
929	0.074
929	0.074
930	0.073
930	0.072
930	0.071
931	0.071
931	0.071
932	0.07
932	0.069
933	0.068
933	0.067
933	0.066
934	0.065
934	0.064
935	0.064
935	0.063
935	0.062
936	0.061
936	0.06
937	0.059
937	0.059
938	0.059
938	0.059
938	0.059
939	0.059
939	0.059
940	0.06
940	0.06
941	0.06
941	0.061
941	0.062
942	0.062
942	0.063
943	0.063
943	0.062
944	0.062
944	0.061
944	0.06
945	0.06
945	0.059
946	0.057
946	0.056
946	0.055
947	0.054
947	0.054
948	0.053
948	0.053
949	0.053
949	0.054
949	0.054
950	0.055
950	0.055
951	0.056
951	0.057
952	0.058
952	0.059
952	0.06
953	0.06
953	0.062
954	0.062
954	0.063
955	0.063
955	0.065
955	0.066
956	0.066
956	0.067
957	0.067
957	0.067
957	0.067
958	0.067
958	0.068
959	0.069
959	0.069
960	0.069
960	0.069
960	0.069
961	0.069
961	0.07
962	0.069
962	0.069
963	0.07
963	0.069
963	0.069
964	0.069
964	0.069
965	0.07
965	0.069
966	0.069
966	0.069
966	0.069
967	0.068
967	0.068
968	0.067
968	0.066
968	0.066
969	0.065
969	0.064
970	0.064
970	0.064
971	0.064
971	0.065
971	0.065
972	0.065
972	0.065
973	0.065
973	0.065
974	0.065
974	0.065
974	0.065
975	0.065
975	0.064
976	0.064
976	0.063
976	0.063
977	0.063
977	0.063
978	0.063
978	0.064
979	0.064
979	0.063
979	0.063
980	0.063
980	0.063
981	0.063
981	0.063
982	0.062
982	0.062
982	0.061
983	0.061
983	0.06
984	0.06
984	0.06
984	0.059
985	0.059
985	0.059
986	0.058
986	0.058
987	0.057
987	0.057
987	0.057
988	0.056
988	0.055
989	0.054
989	0.054
990	0.053
990	0.052
990	0.052
991	0.052
991	0.051
992	0.051
992	0.05
992	0.05
993	0.05
993	0.05
994	0.05
994	0.05
995	0.049
995	0.049
995	0.048
996	0.048
996	0.047
997	0.047
997	0.047
997	0.047
998	0.047
998	0.047
999	0.047
999	0.048
1000	0.048
1000	0.048
1000	0.049
1001	0.05
1001	0.05
1002	0.05
1002	0.051
1003	0.051
1003	0.051
1003	0.051
1004	0.051
1004	0.05
1005	0.05
1005	0.049
1005	0.048
1006	0.047
1006	0.046
1007	0.045
1007	0.044
1008	0.043
1008	0.042
1008	0.041
1009	0.041
1009	0.041
1010	0.041
1010	0.042
1010	0.042
1011	0.042
1011	0.042
1012	0.042
1012	0.042
1013	0.041
1013	0.041
1013	0.04
1014	0.039
1014	0.038
1015	0.037
1015	0.037
1016	0.036
1016	0.035
1016	0.034
1017	0.033
1017	0.032
1018	0.031
1018	0.03
1018	0.029
1019	0.029
1019	0.028
1020	0.027
1020	0.027
1021	0.027
1021	0.026
1021	0.025
1022	0.025
1022	0.024
1023	0.024
1023	0.024
1023	0.024
1024	0.024
1024	0.024
1025	0.024
1025	0.024
1026	0.024
1026	0.025
1026	0.025
1027	0.025
1027	0.025
1028	0.025
1028	0.025
1028	0.025
1029	0.025
1029	0.025
1030	0.024
1030	0.024
1031	0.023
1031	0.023
1031	0.023
1032	0.023
1032	0.023
1033	0.023
1033	0.023
1033	0.023
1034	0.023
1034	0.023
1035	0.023
1035	0.023
1036	0.022
1036	0.022
1036	0.022
1037	0.022
1037	0.022
1038	0.022
1038	0.022
1039	0.022
1039	0.023
1039	0.023
1040	0.024
1040	0.024
1041	0.025
1041	0.025
1041	0.025
1042	0.025
1042	0.024
1043	0.024
1043	0.023
1044	0.023
1044	0.022
1044	0.021
1045	0.02
1045	0.019
1046	0.018
1046	0.017
1046	0.017
1047	0.017
1047	0.017
1048	0.017
1048	0.017
1049	0.017
1049	0.017
1049	0.017
1050	0.017
1050	0.018
1051	0.018
1051	0.018
1051	0.019
1052	0.019
1052	0.02
1053	0.02
1053	0.02
1053	0.02
1054	0.02
1054	0.02
1055	0.02
1055	0.02
1056	0.019
1056	0.018
1056	0.017
1057	0.017
1057	0.016
1058	0.016
1058	0.015
1058	0.015
1059	0.014
1059	0.013
1060	0.013
1060	0.012
1061	0.012
1061	0.012
1061	0.012
1062	0.011
1062	0.011
1063	0.011
1063	0.011
1063	0.011
1064	0.011
1064	0.011
1065	0.011
1065	0.011
1066	0.01
1066	0.01
1066	0.01
1067	0.01
1067	0.01
1068	0.009
1068	0.009
1068	0.008
1069	0.008
1069	0.008
1070	0.007
1070	0.008
1071	0.007
1071	0.007
1071	0.006
1072	0.006
1072	0.006
1073	0.006
1073	0.006
1073	0.005
1074	0.005
1074	0.005
1075	0.005
1075	0.005
1076	0.004
1076	0.004
1076	0.004
1077	0.003
1077	0.003
1078	0.001
1078	0.001
1078	-0
1079	-0.001
1079	-0.002
1080	-0.003
1080	-0.004
1080	-0.005
1081	-0.006
1081	-0.006
1082	-0.006
1082	-0.008
1083	-0.008
1083	-0.009
1083	-0.009
1084	-0.01
1084	-0.01
1085	-0.011
1085	-0.012
1085	-0.012
1086	-0.013
1086	-0.014
1087	-0.014
1087	-0.014
1088	-0.015
1088	-0.015
1088	-0.016
1089	-0.018
1089	-0.018
1090	-0.02
1090	-0.021
1090	-0.022
1091	-0.023
1091	-0.024
1092	-0.024
1092	-0.024
1092	-0.026
1093	-0.026
1093	-0.025
1094	-0.025
1094	-0.026
1095	-0.027
1095	-0.028
1095	-0.028
1096	-0.029
1096	-0.03
1097	-0.031
1097	-0.032
1097	-0.033
1098	-0.035
1098	-0.037
1099	-0.037
1099	-0.038
1100	-0.04
1100	-0.041
1100	-0.044
1101	-0.046
1101	-0.049
1102	-0.051
1102	-0.054
1102	-0.055
1103	-0.057
1103	-0.06
1104	-0.062
1104	-0.064
1104	-0.067
1105	-0.068
1105	-0.071
1106	-0.076
1106	-0.078
1107	-0.082
1107	-0.086
1107	-0.091
1108	-0.092
1108	-0.094
1109	-0.098
1109	-0.101
1109	-0.105
1110	-0.107
1110	-0.107
1111	-0.113
1111	-0.111
