Data from 17C_3.1A_35min_2sec_int_Absorbance__566__02969.txt Node

Date: Mon Jun 19 18:38:24 CEST 2023
User: Marek
Spectrometer: MAYP115816
Trigger mode: 0
Integration Time (sec): 2.500000E-1
Scans to average: 10
Electric dark correction enabled: true
Nonlinearity correction enabled: true
Boxcar width: 5
XAxis mode: Wavelengths
Number of Pixels in Spectrum: 2068
>>>>>Begin Spectral Data<<<<<
199	-0.746
199	-0.764
200	-0.664
200	-0.615
201	-0.581
201	-0.571
202	-0.552
202	-0.536
203	-0.526
203	-0.522
204	-0.509
204	-0.496
205	-0.472
205	-0.469
205	-0.465
206	-0.467
206	-0.468
207	-0.461
207	-0.466
208	-0.471
208	-0.469
209	-0.462
209	-0.462
210	-0.467
210	-0.473
211	-0.474
211	-0.476
212	-0.48
212	-0.487
213	-0.482
213	-0.481
213	-0.488
214	-0.484
214	-0.485
215	-0.483
215	-0.487
216	-0.49
216	-0.498
217	-0.493
217	-0.498
218	-0.503
218	-0.503
219	-0.506
219	-0.517
220	-0.52
220	-0.531
221	-0.53
221	-0.533
221	-0.525
222	-0.519
222	-0.52
223	-0.521
223	-0.526
224	-0.53
224	-0.531
225	-0.528
225	-0.522
226	-0.526
226	-0.527
227	-0.534
227	-0.543
228	-0.541
228	-0.544
229	-0.544
229	-0.535
229	-0.529
230	-0.531
230	-0.534
231	-0.528
231	-0.519
232	-0.513
232	-0.514
233	-0.51
233	-0.507
234	-0.506
234	-0.506
235	-0.51
235	-0.517
236	-0.516
236	-0.521
236	-0.527
237	-0.534
237	-0.534
238	-0.544
238	-0.542
239	-0.542
239	-0.549
240	-0.548
240	-0.546
241	-0.552
241	-0.549
242	-0.553
242	-0.549
243	-0.544
243	-0.543
243	-0.552
244	-0.552
244	-0.551
245	-0.566
245	-0.565
246	-0.569
246	-0.576
247	-0.576
247	-0.582
248	-0.59
248	-0.59
249	-0.592
249	-0.601
250	-0.6
250	-0.596
250	-0.595
251	-0.592
251	-0.594
252	-0.599
252	-0.589
253	-0.592
253	-0.601
254	-0.601
254	-0.599
255	-0.607
255	-0.6
256	-0.598
256	-0.61
257	-0.605
257	-0.601
258	-0.618
258	-0.615
258	-0.61
259	-0.605
259	-0.615
260	-0.614
260	-0.621
261	-0.631
261	-0.62
262	-0.617
262	-0.619
263	-0.608
263	-0.603
264	-0.604
264	-0.615
265	-0.607
265	-0.615
265	-0.617
266	-0.616
266	-0.617
267	-0.63
267	-0.635
268	-0.651
268	-0.662
269	-0.66
269	-0.651
270	-0.658
270	-0.66
271	-0.662
271	-0.665
272	-0.668
272	-0.664
272	-0.658
273	-0.656
273	-0.663
274	-0.67
274	-0.676
275	-0.675
275	-0.669
276	-0.673
276	-0.666
277	-0.669
277	-0.686
278	-0.698
278	-0.69
278	-0.684
279	-0.686
279	-0.697
280	-0.695
280	-0.695
281	-0.69
281	-0.7
282	-0.693
282	-0.693
283	-0.683
283	-0.689
284	-0.683
284	-0.671
285	-0.665
285	-0.664
285	-0.659
286	-0.665
286	-0.657
287	-0.654
287	-0.64
288	-0.634
288	-0.641
289	-0.655
289	-0.665
290	-0.654
290	-0.653
291	-0.653
291	-0.648
292	-0.653
292	-0.66
292	-0.664
293	-0.669
293	-0.657
294	-0.647
294	-0.637
295	-0.637
295	-0.635
296	-0.632
296	-0.628
297	-0.622
297	-0.607
298	-0.599
298	-0.608
298	-0.595
299	-0.587
299	-0.589
300	-0.583
300	-0.579
301	-0.574
301	-0.575
302	-0.584
302	-0.591
303	-0.579
303	-0.565
304	-0.569
304	-0.569
305	-0.571
305	-0.572
305	-0.57
306	-0.554
306	-0.545
307	-0.53
307	-0.53
308	-0.543
308	-0.54
309	-0.544
309	-0.532
310	-0.52
310	-0.515
311	-0.506
311	-0.515
311	-0.512
312	-0.509
312	-0.507
313	-0.494
313	-0.497
314	-0.492
314	-0.496
315	-0.496
315	-0.494
316	-0.489
316	-0.48
317	-0.474
317	-0.47
318	-0.459
318	-0.457
318	-0.451
319	-0.441
319	-0.436
320	-0.431
320	-0.433
321	-0.44
321	-0.44
322	-0.436
322	-0.43
323	-0.431
323	-0.425
324	-0.42
324	-0.411
324	-0.399
325	-0.39
325	-0.373
326	-0.358
326	-0.341
327	-0.325
327	-0.306
328	-0.279
328	-0.259
329	-0.232
329	-0.211
330	-0.186
330	-0.154
330	-0.128
331	-0.099
331	-0.073
332	-0.048
332	-0.026
333	-0.005
333	0.018
334	0.037
334	0.054
335	0.071
335	0.086
336	0.099
336	0.112
336	0.122
337	0.132
337	0.14
338	0.148
338	0.153
339	0.161
339	0.166
340	0.17
340	0.174
341	0.178
341	0.18
342	0.184
342	0.187
342	0.19
343	0.192
343	0.195
344	0.197
344	0.198
345	0.199
345	0.2
346	0.201
346	0.202
347	0.203
347	0.204
348	0.204
348	0.205
348	0.205
349	0.205
349	0.206
350	0.206
350	0.206
351	0.206
351	0.206
352	0.206
352	0.206
353	0.206
353	0.206
354	0.206
354	0.206
354	0.206
355	0.206
355	0.206
356	0.206
356	0.206
357	0.205
357	0.205
358	0.205
358	0.205
359	0.204
359	0.204
360	0.204
360	0.204
360	0.204
361	0.204
361	0.203
362	0.203
362	0.203
363	0.203
363	0.203
364	0.203
364	0.203
365	0.203
365	0.203
366	0.203
366	0.203
366	0.204
367	0.204
367	0.204
368	0.204
368	0.204
369	0.204
369	0.204
370	0.204
370	0.204
371	0.204
371	0.204
372	0.203
372	0.203
372	0.203
373	0.203
373	0.203
374	0.203
374	0.203
375	0.203
375	0.203
376	0.203
376	0.203
377	0.203
377	0.203
378	0.203
378	0.203
378	0.203
379	0.204
379	0.203
380	0.203
380	0.203
381	0.203
381	0.203
382	0.203
382	0.202
383	0.202
383	0.202
383	0.202
384	0.202
384	0.202
385	0.202
385	0.202
386	0.202
386	0.202
387	0.202
387	0.202
388	0.202
388	0.202
389	0.202
389	0.202
389	0.202
390	0.202
390	0.202
391	0.202
391	0.202
392	0.202
392	0.202
393	0.202
393	0.202
394	0.201
394	0.201
394	0.201
395	0.201
395	0.2
396	0.2
396	0.2
397	0.2
397	0.2
398	0.201
398	0.201
399	0.201
399	0.201
400	0.201
400	0.201
400	0.201
401	0.2
401	0.2
402	0.2
402	0.2
403	0.2
403	0.2
404	0.2
404	0.2
405	0.2
405	0.2
405	0.199
406	0.199
406	0.199
407	0.199
407	0.199
408	0.199
408	0.198
409	0.199
409	0.199
410	0.199
410	0.199
411	0.199
411	0.199
411	0.199
412	0.199
412	0.199
413	0.199
413	0.199
414	0.199
414	0.199
415	0.199
415	0.198
416	0.198
416	0.198
416	0.198
417	0.198
417	0.198
418	0.198
418	0.198
419	0.198
419	0.198
420	0.198
420	0.198
421	0.199
421	0.199
421	0.199
422	0.199
422	0.199
423	0.199
423	0.198
424	0.198
424	0.198
425	0.197
425	0.197
426	0.197
426	0.196
427	0.196
427	0.196
427	0.196
428	0.196
428	0.196
429	0.196
429	0.196
430	0.196
430	0.196
431	0.196
431	0.196
432	0.196
432	0.195
432	0.195
433	0.195
433	0.195
434	0.195
434	0.195
435	0.195
435	0.195
436	0.195
436	0.195
437	0.195
437	0.195
437	0.195
438	0.195
438	0.195
439	0.195
439	0.195
440	0.195
440	0.195
441	0.194
441	0.194
442	0.194
442	0.194
442	0.194
443	0.194
443	0.194
444	0.194
444	0.194
445	0.193
445	0.193
446	0.194
446	0.194
447	0.194
447	0.194
447	0.193
448	0.194
448	0.194
449	0.193
449	0.193
450	0.194
450	0.194
451	0.193
451	0.193
452	0.193
452	0.194
452	0.194
453	0.193
453	0.193
454	0.193
454	0.193
455	0.193
455	0.192
456	0.192
456	0.192
457	0.192
457	0.192
458	0.192
458	0.192
458	0.192
459	0.192
459	0.192
460	0.192
460	0.192
461	0.192
461	0.192
462	0.192
462	0.192
463	0.192
463	0.192
463	0.192
464	0.192
464	0.192
465	0.192
465	0.193
466	0.193
466	0.193
467	0.193
467	0.193
467	0.193
468	0.193
468	0.193
469	0.193
469	0.193
470	0.193
470	0.193
471	0.193
471	0.193
472	0.193
472	0.193
472	0.194
473	0.194
473	0.194
474	0.194
474	0.194
475	0.194
475	0.194
476	0.194
476	0.194
477	0.194
477	0.194
477	0.194
478	0.194
478	0.194
479	0.194
479	0.194
480	0.194
480	0.194
481	0.195
481	0.195
482	0.195
482	0.196
482	0.196
483	0.196
483	0.197
484	0.197
484	0.196
485	0.196
485	0.196
486	0.197
486	0.197
487	0.197
487	0.198
487	0.198
488	0.198
488	0.198
489	0.199
489	0.201
490	0.201
490	0.202
491	0.202
491	0.203
492	0.204
492	0.204
492	0.205
493	0.205
493	0.206
494	0.207
494	0.207
495	0.208
495	0.208
496	0.209
496	0.21
496	0.211
497	0.212
497	0.213
498	0.213
498	0.214
499	0.215
499	0.215
500	0.216
500	0.217
501	0.218
501	0.218
501	0.219
502	0.219
502	0.22
503	0.221
503	0.221
504	0.222
504	0.223
505	0.224
505	0.225
506	0.226
506	0.227
506	0.228
507	0.228
507	0.229
508	0.23
508	0.231
509	0.232
509	0.232
510	0.233
510	0.234
511	0.235
511	0.236
511	0.237
512	0.238
512	0.239
513	0.24
513	0.241
514	0.242
514	0.243
515	0.244
515	0.244
515	0.245
516	0.246
516	0.247
517	0.248
517	0.249
518	0.25
518	0.251
519	0.252
519	0.252
520	0.253
520	0.254
520	0.255
521	0.256
521	0.257
522	0.258
522	0.259
523	0.261
523	0.261
524	0.262
524	0.263
524	0.263
525	0.264
525	0.264
526	0.265
526	0.266
527	0.266
527	0.267
528	0.268
528	0.269
529	0.269
529	0.27
529	0.271
530	0.272
530	0.273
531	0.273
531	0.274
532	0.274
532	0.275
533	0.276
533	0.276
533	0.277
534	0.277
534	0.277
535	0.277
535	0.277
536	0.277
536	0.277
537	0.277
537	0.277
538	0.277
538	0.277
538	0.278
539	0.279
539	0.279
540	0.28
540	0.28
541	0.281
541	0.281
542	0.282
542	0.282
542	0.283
543	0.283
543	0.283
544	0.283
544	0.283
545	0.284
545	0.284
546	0.285
546	0.285
547	0.285
547	0.285
547	0.285
548	0.285
548	0.286
549	0.286
549	0.287
550	0.287
550	0.287
551	0.288
551	0.289
551	0.29
552	0.291
552	0.291
553	0.292
553	0.293
554	0.293
554	0.293
555	0.293
555	0.293
556	0.294
556	0.294
556	0.294
557	0.294
557	0.294
558	0.294
558	0.294
559	0.294
559	0.294
560	0.294
560	0.294
560	0.294
561	0.294
561	0.294
562	0.293
562	0.293
563	0.293
563	0.293
564	0.293
564	0.293
564	0.294
565	0.294
565	0.295
566	0.295
566	0.295
567	0.296
567	0.296
568	0.296
568	0.296
568	0.296
569	0.296
569	0.296
570	0.295
570	0.294
571	0.294
571	0.294
572	0.293
572	0.293
573	0.293
573	0.293
573	0.292
574	0.292
574	0.293
575	0.293
575	0.294
576	0.294
576	0.294
577	0.294
577	0.294
577	0.295
578	0.296
578	0.296
579	0.297
579	0.298
580	0.297
580	0.296
581	0.296
581	0.296
581	0.297
582	0.297
582	0.297
583	0.297
583	0.297
584	0.296
584	0.295
585	0.296
585	0.297
585	0.297
586	0.297
586	0.297
587	0.297
587	0.297
588	0.296
588	0.297
589	0.297
589	0.298
590	0.298
590	0.298
590	0.3
591	0.3
591	0.3
592	0.299
592	0.299
593	0.299
593	0.299
594	0.299
594	0.299
594	0.299
595	0.299
595	0.299
596	0.299
596	0.3
597	0.301
597	0.301
598	0.301
598	0.302
598	0.301
599	0.301
599	0.3
600	0.3
600	0.299
601	0.298
601	0.298
602	0.297
602	0.297
602	0.296
603	0.297
603	0.298
604	0.298
604	0.299
605	0.3
605	0.301
606	0.3
606	0.3
606	0.3
607	0.3
607	0.299
608	0.299
608	0.298
609	0.297
609	0.298
610	0.297
610	0.297
610	0.298
611	0.299
611	0.3
612	0.301
612	0.302
613	0.303
613	0.303
614	0.302
614	0.301
614	0.301
615	0.3
615	0.299
616	0.299
616	0.298
617	0.297
617	0.296
618	0.295
618	0.295
618	0.295
619	0.295
619	0.295
620	0.296
620	0.295
621	0.295
621	0.295
622	0.294
622	0.294
622	0.294
623	0.293
623	0.294
624	0.293
624	0.293
625	0.292
625	0.292
626	0.291
626	0.291
626	0.291
627	0.29
627	0.289
628	0.288
628	0.287
629	0.285
629	0.284
630	0.282
630	0.28
630	0.279
631	0.277
631	0.275
632	0.272
632	0.27
633	0.268
633	0.265
634	0.263
634	0.26
634	0.258
635	0.255
635	0.251
636	0.248
636	0.245
637	0.241
637	0.237
638	0.233
638	0.228
638	0.224
639	0.219
639	0.214
640	0.208
640	0.203
641	0.198
641	0.193
642	0.188
642	0.183
642	0.177
643	0.172
643	0.165
644	0.159
644	0.152
645	0.145
645	0.139
646	0.132
646	0.125
646	0.117
647	0.11
647	0.102
648	0.094
648	0.086
649	0.078
649	0.069
650	0.061
650	0.052
650	0.043
651	0.033
651	0.019
652	0.003
652	-0.013
653	-0.027
653	-0.04
653	-0.037
654	-0.015
654	-0.004
655	-0.007
655	-0.013
656	-0.019
656	-0.026
657	-0.031
657	-0.036
657	-0.042
658	-0.049
658	-0.08
659	-0.167
659	-0.271
660	-0.317
660	-0.344
661	-0.373
661	-0.404
661	-0.437
662	-0.47
662	-0.503
663	-0.541
663	-0.583
664	-0.626
664	-0.678
665	-0.728
665	-0.786
665	-0.839
666	-0.895
666	-0.956
667	-1.019
667	-1.084
668	-1.156
668	-1.227
669	-1.3
669	-1.373
669	-1.449
670	-1.514
670	-1.538
671	-1.654
671	-1.952
672	-2.188
672	-2.382
672	-2.514
673	-2.607
673	-2.688
674	-2.732
674	-2.751
675	-2.777
675	-2.918
676	-3.117
676	-3.069
676	-2.845
677	-2.641
677	-2.478
678	-2.303
678	-2.005
679	-1.716
679	-1.579
680	-1.483
680	-1.4
680	-1.33
681	-1.286
681	-1.227
682	-1.189
682	-1.153
683	-1.118
683	-1.102
684	-1.083
684	-1.064
684	-1.043
685	-1.02
685	-0.998
686	-0.974
686	-0.959
687	-0.933
687	-0.923
687	-0.905
688	-0.88
688	-0.86
689	-0.84
689	-0.828
690	-0.81
690	-0.798
691	-0.793
691	-0.798
691	-0.816
692	-0.808
692	-0.799
693	-0.796
693	-0.804
694	-0.801
694	-0.794
695	-0.8
695	-0.799
695	-0.783
696	-0.779
696	-0.755
697	-0.756
697	-0.773
698	-0.775
698	-0.766
698	-0.779
699	-0.781
699	-0.776
700	-0.769
700	-0.783
701	-0.782
701	-0.791
702	-0.792
702	-0.78
702	-0.773
703	-0.764
703	-0.756
704	-0.752
704	-0.754
705	-0.765
705	-0.758
705	-0.748
706	-0.747
706	-0.74
707	-0.747
707	-0.741
708	-0.741
708	-0.733
709	-0.738
709	-0.741
709	-0.731
710	-0.741
710	-0.751
711	-0.742
711	-0.744
712	-0.742
712	-0.757
713	-0.754
713	-0.762
713	-0.753
714	-0.75
714	-0.75
715	-0.741
715	-0.726
716	-0.734
716	-0.735
716	-0.727
717	-0.726
717	-0.728
718	-0.717
718	-0.717
719	-0.722
719	-0.724
720	-0.718
720	-0.729
720	-0.722
721	-0.711
721	-0.711
722	-0.701
722	-0.691
723	-0.689
723	-0.694
723	-0.682
724	-0.685
724	-0.69
725	-0.687
725	-0.697
726	-0.711
726	-0.718
727	-0.723
727	-0.74
727	-0.748
728	-0.747
728	-0.752
729	-0.751
729	-0.757
730	-0.765
730	-0.758
730	-0.748
731	-0.732
731	-0.743
732	-0.746
732	-0.747
733	-0.745
733	-0.752
734	-0.746
734	-0.742
734	-0.728
735	-0.725
735	-0.723
736	-0.733
736	-0.717
737	-0.708
737	-0.709
737	-0.72
738	-0.714
738	-0.714
739	-0.714
739	-0.727
740	-0.726
740	-0.727
741	-0.724
741	-0.725
741	-0.728
742	-0.725
742	-0.725
743	-0.731
743	-0.737
744	-0.734
744	-0.723
744	-0.725
745	-0.733
745	-0.724
746	-0.724
746	-0.722
747	-0.725
747	-0.713
748	-0.701
748	-0.707
748	-0.711
749	-0.709
749	-0.71
750	-0.698
750	-0.7
751	-0.703
751	-0.711
751	-0.715
752	-0.719
752	-0.73
753	-0.722
753	-0.717
754	-0.724
754	-0.718
754	-0.733
755	-0.752
755	-0.762
756	-0.749
756	-0.745
757	-0.743
757	-0.737
758	-0.741
758	-0.739
758	-0.739
759	-0.747
759	-0.729
760	-0.719
760	-0.717
761	-0.728
761	-0.725
761	-0.725
762	-0.733
762	-0.733
763	-0.741
763	-0.74
764	-0.736
764	-0.746
764	-0.751
765	-0.742
765	-0.73
766	-0.736
766	-0.744
767	-0.757
767	-0.75
768	-0.742
768	-0.75
768	-0.755
769	-0.771
769	-0.773
770	-0.775
770	-0.787
771	-0.786
771	-0.785
771	-0.788
772	-0.792
772	-0.79
773	-0.789
773	-0.785
774	-0.783
774	-0.782
775	-0.785
775	-0.779
775	-0.786
776	-0.788
776	-0.775
777	-0.782
777	-0.803
778	-0.798
778	-0.818
778	-0.806
779	-0.829
779	-0.837
780	-0.85
780	-0.85
781	-0.861
781	-0.857
781	-0.872
782	-0.877
782	-0.88
783	-0.867
783	-0.865
784	-0.846
784	-0.837
784	-0.847
785	-0.851
785	-0.839
786	-0.845
786	-0.825
787	-0.807
787	-0.809
788	-0.813
788	-0.823
788	-0.834
789	-0.833
789	-0.814
790	-0.796
790	-0.796
791	-0.797
791	-0.813
791	-0.819
792	-0.811
792	-0.787
793	-0.776
793	-0.755
794	-0.761
794	-0.755
794	-0.765
795	-0.76
795	-0.75
796	-0.734
796	-0.741
797	-0.738
797	-0.751
797	-0.76
798	-0.773
798	-0.766
799	-0.774
799	-0.759
800	-0.764
800	-0.758
801	-0.763
801	-0.748
801	-0.756
802	-0.765
802	-0.763
803	-0.763
803	-0.772
804	-0.767
804	-0.779
804	-0.768
805	-0.774
805	-0.763
806	-0.766
806	-0.752
807	-0.747
807	-0.729
807	-0.717
808	-0.709
808	-0.703
809	-0.688
809	-0.695
810	-0.694
810	-0.685
810	-0.684
811	-0.69
811	-0.683
812	-0.684
812	-0.689
813	-0.693
813	-0.689
813	-0.696
814	-0.702
814	-0.705
815	-0.711
815	-0.713
816	-0.705
816	-0.709
817	-0.718
817	-0.734
817	-0.749
818	-0.757
818	-0.757
819	-0.748
819	-0.749
820	-0.761
820	-0.758
820	-0.769
821	-0.768
821	-0.755
822	-0.721
822	-0.698
823	-0.696
823	-0.698
823	-0.696
824	-0.689
824	-0.691
825	-0.682
825	-0.663
826	-0.658
826	-0.666
826	-0.677
827	-0.672
827	-0.668
828	-0.647
828	-0.646
829	-0.637
829	-0.622
829	-0.613
830	-0.622
830	-0.619
831	-0.61
831	-0.601
832	-0.596
832	-0.587
832	-0.594
833	-0.589
833	-0.589
834	-0.587
834	-0.595
835	-0.583
835	-0.576
835	-0.573
836	-0.57
836	-0.568
837	-0.566
837	-0.556
838	-0.546
838	-0.534
839	-0.519
839	-0.507
839	-0.498
840	-0.488
840	-0.483
841	-0.472
841	-0.462
842	-0.456
842	-0.446
842	-0.44
843	-0.433
843	-0.428
844	-0.42
844	-0.413
845	-0.404
845	-0.393
845	-0.379
846	-0.368
846	-0.354
847	-0.34
847	-0.328
848	-0.317
848	-0.304
848	-0.287
849	-0.274
849	-0.26
850	-0.245
850	-0.238
851	-0.228
851	-0.215
851	-0.207
852	-0.191
852	-0.178
853	-0.169
853	-0.163
854	-0.151
854	-0.138
854	-0.127
855	-0.114
855	-0.107
856	-0.096
856	-0.086
857	-0.079
857	-0.069
857	-0.056
858	-0.044
858	-0.036
859	-0.027
859	-0.015
860	-0.005
860	0.009
860	0.018
861	0.027
861	0.038
862	0.046
862	0.054
863	0.062
863	0.071
863	0.078
864	0.083
864	0.09
865	0.096
865	0.102
866	0.107
866	0.111
866	0.115
867	0.119
867	0.123
868	0.126
868	0.13
869	0.134
869	0.137
869	0.139
870	0.142
870	0.144
871	0.147
871	0.148
872	0.149
872	0.15
872	0.151
873	0.151
873	0.151
874	0.151
874	0.15
875	0.149
875	0.148
875	0.147
876	0.145
876	0.144
877	0.142
877	0.141
878	0.139
878	0.137
878	0.136
879	0.135
879	0.134
880	0.133
880	0.133
881	0.133
881	0.133
881	0.133
882	0.132
882	0.131
883	0.129
883	0.128
884	0.127
884	0.126
884	0.125
885	0.124
885	0.123
886	0.123
886	0.123
887	0.122
887	0.122
887	0.122
888	0.123
888	0.123
889	0.123
889	0.124
890	0.124
890	0.123
890	0.123
891	0.124
891	0.124
892	0.124
892	0.123
893	0.123
893	0.123
893	0.123
894	0.123
894	0.122
895	0.122
895	0.122
895	0.121
896	0.12
896	0.12
897	0.119
897	0.118
898	0.116
898	0.116
898	0.115
899	0.115
899	0.115
900	0.116
900	0.115
901	0.116
901	0.117
901	0.117
902	0.118
902	0.119
903	0.119
903	0.12
904	0.12
904	0.121
904	0.121
905	0.122
905	0.123
906	0.123
906	0.124
907	0.124
907	0.123
907	0.123
908	0.123
908	0.122
909	0.122
909	0.121
910	0.12
910	0.12
910	0.119
911	0.119
911	0.12
912	0.12
912	0.12
913	0.121
913	0.121
913	0.122
914	0.123
914	0.123
915	0.124
915	0.124
916	0.125
916	0.125
916	0.125
917	0.125
917	0.125
918	0.125
918	0.125
918	0.125
919	0.124
919	0.124
920	0.124
920	0.124
921	0.124
921	0.124
921	0.124
922	0.123
922	0.123
923	0.123
923	0.123
924	0.123
924	0.122
924	0.122
925	0.121
925	0.12
926	0.119
926	0.118
927	0.117
927	0.117
927	0.116
928	0.116
928	0.116
929	0.115
929	0.115
930	0.114
930	0.113
930	0.113
931	0.113
931	0.113
932	0.113
932	0.112
933	0.111
933	0.109
933	0.108
934	0.107
934	0.106
935	0.105
935	0.104
935	0.102
936	0.101
936	0.1
937	0.099
937	0.099
938	0.099
938	0.099
938	0.099
939	0.099
939	0.099
940	0.099
940	0.1
941	0.1
941	0.1
941	0.101
942	0.101
942	0.102
943	0.102
943	0.102
944	0.101
944	0.101
944	0.1
945	0.099
945	0.098
946	0.097
946	0.095
946	0.094
947	0.093
947	0.092
948	0.091
948	0.091
949	0.09
949	0.09
949	0.09
950	0.09
950	0.09
951	0.091
951	0.092
952	0.092
952	0.093
952	0.094
953	0.095
953	0.095
954	0.096
954	0.097
955	0.098
955	0.099
955	0.099
956	0.1
956	0.101
957	0.101
957	0.101
957	0.102
958	0.102
958	0.103
959	0.104
959	0.104
960	0.104
960	0.105
960	0.106
961	0.107
961	0.107
962	0.108
962	0.108
963	0.108
963	0.108
963	0.108
964	0.107
964	0.107
965	0.107
965	0.106
966	0.106
966	0.105
966	0.105
967	0.104
967	0.104
968	0.103
968	0.102
968	0.102
969	0.101
969	0.1
970	0.1
970	0.1
971	0.1
971	0.101
971	0.1
972	0.101
972	0.101
973	0.101
973	0.101
974	0.101
974	0.101
974	0.102
975	0.102
975	0.102
976	0.101
976	0.101
976	0.101
977	0.101
977	0.101
978	0.101
978	0.101
979	0.101
979	0.101
979	0.1
980	0.1
980	0.1
981	0.1
981	0.1
982	0.099
982	0.099
982	0.098
983	0.098
983	0.098
984	0.098
984	0.098
984	0.098
985	0.098
985	0.097
986	0.097
986	0.096
987	0.096
987	0.095
987	0.095
988	0.094
988	0.093
989	0.093
989	0.092
990	0.091
990	0.09
990	0.09
991	0.09
991	0.089
992	0.089
992	0.089
992	0.089
993	0.089
993	0.089
994	0.089
994	0.089
995	0.089
995	0.088
995	0.088
996	0.087
996	0.087
997	0.086
997	0.086
997	0.086
998	0.086
998	0.086
999	0.087
999	0.087
1000	0.087
1000	0.087
1000	0.087
1001	0.088
1001	0.088
1002	0.088
1002	0.088
1003	0.087
1003	0.087
1003	0.086
1004	0.086
1004	0.085
1005	0.085
1005	0.084
1005	0.083
1006	0.081
1006	0.08
1007	0.079
1007	0.078
1008	0.077
1008	0.077
1008	0.076
1009	0.076
1009	0.076
1010	0.076
1010	0.076
1010	0.076
1011	0.077
1011	0.076
1012	0.076
1012	0.076
1013	0.075
1013	0.075
1013	0.074
1014	0.073
1014	0.072
1015	0.071
1015	0.07
1016	0.069
1016	0.068
1016	0.067
1017	0.066
1017	0.065
1018	0.064
1018	0.064
1018	0.063
1019	0.062
1019	0.062
1020	0.061
1020	0.06
1021	0.06
1021	0.059
1021	0.058
1022	0.058
1022	0.057
1023	0.057
1023	0.056
1023	0.056
1024	0.056
1024	0.055
1025	0.055
1025	0.055
1026	0.056
1026	0.056
1026	0.056
1027	0.056
1027	0.057
1028	0.057
1028	0.057
1028	0.057
1029	0.057
1029	0.057
1030	0.056
1030	0.056
1031	0.055
1031	0.055
1031	0.055
1032	0.055
1032	0.055
1033	0.055
1033	0.055
1033	0.055
1034	0.055
1034	0.055
1035	0.055
1035	0.055
1036	0.055
1036	0.054
1036	0.054
1037	0.054
1037	0.055
1038	0.055
1038	0.055
1039	0.055
1039	0.056
1039	0.056
1040	0.057
1040	0.057
1041	0.058
1041	0.058
1041	0.058
1042	0.058
1042	0.058
1043	0.058
1043	0.058
1044	0.057
1044	0.057
1044	0.056
1045	0.056
1045	0.055
1046	0.054
1046	0.054
1046	0.054
1047	0.054
1047	0.054
1048	0.054
1048	0.054
1049	0.055
1049	0.055
1049	0.055
1050	0.055
1050	0.055
1051	0.056
1051	0.056
1051	0.056
1052	0.057
1052	0.057
1053	0.057
1053	0.057
1053	0.057
1054	0.056
1054	0.056
1055	0.056
1055	0.055
1056	0.054
1056	0.053
1056	0.052
1057	0.051
1057	0.051
1058	0.05
1058	0.049
1058	0.049
1059	0.048
1059	0.047
1060	0.046
1060	0.046
1061	0.045
1061	0.045
1061	0.045
1062	0.044
1062	0.044
1063	0.044
1063	0.044
1063	0.044
1064	0.044
1064	0.044
1065	0.044
1065	0.044
1066	0.043
1066	0.043
1066	0.043
1067	0.043
1067	0.043
1068	0.042
1068	0.041
1068	0.04
1069	0.04
1069	0.039
1070	0.039
1070	0.039
1071	0.038
1071	0.038
1071	0.037
1072	0.037
1072	0.037
1073	0.036
1073	0.036
1073	0.036
1074	0.036
1074	0.037
1075	0.036
1075	0.036
1076	0.035
1076	0.036
1076	0.035
1077	0.035
1077	0.034
1078	0.033
1078	0.032
1078	0.031
1079	0.03
1079	0.03
1080	0.03
1080	0.029
1080	0.028
1081	0.028
1081	0.027
1082	0.027
1082	0.026
1083	0.025
1083	0.024
1083	0.023
1084	0.022
1084	0.021
1085	0.02
1085	0.019
1085	0.018
1086	0.017
1086	0.016
1087	0.016
1087	0.015
1088	0.014
1088	0.014
1088	0.013
1089	0.013
1089	0.012
1090	0.011
1090	0.01
1090	0.009
1091	0.008
1091	0.007
1092	0.006
1092	0.006
1092	0.005
1093	0.005
1093	0.005
1094	0.004
1094	0.003
1095	0.002
1095	0.002
1095	0.002
1096	0.001
1096	0
1097	0
1097	-0.001
1097	-0.002
1098	-0.004
1098	-0.006
1099	-0.006
1099	-0.007
1100	-0.009
1100	-0.011
1100	-0.014
1101	-0.017
1101	-0.021
1102	-0.023
1102	-0.026
1102	-0.027
1103	-0.03
1103	-0.033
1104	-0.035
1104	-0.038
1104	-0.04
1105	-0.042
1105	-0.045
1106	-0.05
1106	-0.052
1107	-0.057
1107	-0.063
1107	-0.068
1108	-0.07
1108	-0.073
1109	-0.077
1109	-0.082
1109	-0.086
1110	-0.086
1110	-0.09
1111	-0.098
1111	-0.101
