Data from 17C_3.1A_35min_2sec_int_Absorbance__233__02636.txt Node

Date: Mon Jun 19 18:24:32 CEST 2023
User: Marek
Spectrometer: MAYP115816
Trigger mode: 0
Integration Time (sec): 2.500000E-1
Scans to average: 10
Electric dark correction enabled: true
Nonlinearity correction enabled: true
Boxcar width: 5
XAxis mode: Wavelengths
Number of Pixels in Spectrum: 2068
>>>>>Begin Spectral Data<<<<<
199	-0.748
199	-0.769
200	-0.67
200	-0.615
201	-0.58
201	-0.567
202	-0.548
202	-0.531
203	-0.525
203	-0.521
204	-0.507
204	-0.495
205	-0.469
205	-0.465
205	-0.465
206	-0.466
206	-0.469
207	-0.461
207	-0.465
208	-0.465
208	-0.463
209	-0.457
209	-0.457
210	-0.461
210	-0.467
211	-0.467
211	-0.47
212	-0.472
212	-0.48
213	-0.477
213	-0.478
213	-0.485
214	-0.482
214	-0.481
215	-0.48
215	-0.486
216	-0.489
216	-0.496
217	-0.492
217	-0.495
218	-0.498
218	-0.496
219	-0.499
219	-0.512
220	-0.517
220	-0.529
221	-0.527
221	-0.529
221	-0.523
222	-0.518
222	-0.518
223	-0.523
223	-0.528
224	-0.532
224	-0.53
225	-0.525
225	-0.519
226	-0.524
226	-0.525
227	-0.531
227	-0.542
228	-0.544
228	-0.544
229	-0.545
229	-0.54
229	-0.534
230	-0.539
230	-0.538
231	-0.534
231	-0.526
232	-0.52
232	-0.517
233	-0.511
233	-0.512
234	-0.509
234	-0.505
235	-0.508
235	-0.513
236	-0.512
236	-0.514
236	-0.521
237	-0.527
237	-0.527
238	-0.537
238	-0.534
239	-0.536
239	-0.543
240	-0.544
240	-0.541
241	-0.55
241	-0.548
242	-0.55
242	-0.544
243	-0.541
243	-0.543
243	-0.554
244	-0.552
244	-0.551
245	-0.565
245	-0.567
246	-0.57
246	-0.578
247	-0.58
247	-0.587
248	-0.593
248	-0.59
249	-0.591
249	-0.601
250	-0.601
250	-0.598
250	-0.595
251	-0.593
251	-0.59
252	-0.594
252	-0.583
253	-0.587
253	-0.595
254	-0.594
254	-0.591
255	-0.596
255	-0.589
256	-0.588
256	-0.601
257	-0.599
257	-0.596
258	-0.612
258	-0.611
258	-0.609
259	-0.605
259	-0.616
260	-0.616
260	-0.621
261	-0.631
261	-0.621
262	-0.618
262	-0.618
263	-0.61
263	-0.602
264	-0.602
264	-0.609
265	-0.604
265	-0.613
265	-0.615
266	-0.614
266	-0.613
267	-0.625
267	-0.635
268	-0.649
268	-0.66
269	-0.658
269	-0.654
270	-0.659
270	-0.661
271	-0.662
271	-0.666
272	-0.667
272	-0.66
272	-0.654
273	-0.652
273	-0.66
274	-0.668
274	-0.67
275	-0.67
275	-0.664
276	-0.67
276	-0.664
277	-0.669
277	-0.687
278	-0.697
278	-0.69
278	-0.685
279	-0.686
279	-0.698
280	-0.694
280	-0.692
281	-0.688
281	-0.696
282	-0.689
282	-0.69
283	-0.68
283	-0.685
284	-0.677
284	-0.665
285	-0.66
285	-0.66
285	-0.657
286	-0.664
286	-0.655
287	-0.651
287	-0.636
288	-0.63
288	-0.637
289	-0.65
289	-0.662
290	-0.651
290	-0.649
291	-0.648
291	-0.641
292	-0.646
292	-0.654
292	-0.657
293	-0.66
293	-0.649
294	-0.638
294	-0.627
295	-0.624
295	-0.62
296	-0.614
296	-0.61
297	-0.603
297	-0.585
298	-0.577
298	-0.587
298	-0.576
299	-0.568
299	-0.57
300	-0.565
300	-0.562
301	-0.56
301	-0.559
302	-0.566
302	-0.576
303	-0.562
303	-0.549
304	-0.551
304	-0.554
305	-0.554
305	-0.557
305	-0.552
306	-0.535
306	-0.531
307	-0.518
307	-0.519
308	-0.534
308	-0.532
309	-0.535
309	-0.523
310	-0.514
310	-0.508
311	-0.501
311	-0.51
311	-0.505
312	-0.501
312	-0.497
313	-0.482
313	-0.484
314	-0.479
314	-0.482
315	-0.482
315	-0.48
316	-0.477
316	-0.466
317	-0.459
317	-0.457
318	-0.448
318	-0.445
318	-0.44
319	-0.431
319	-0.426
320	-0.418
320	-0.42
321	-0.425
321	-0.426
322	-0.422
322	-0.416
323	-0.415
323	-0.411
324	-0.404
324	-0.394
324	-0.384
325	-0.375
325	-0.357
326	-0.34
326	-0.323
327	-0.306
327	-0.284
328	-0.258
328	-0.236
329	-0.213
329	-0.188
330	-0.161
330	-0.128
330	-0.1
331	-0.071
331	-0.043
332	-0.016
332	0.009
333	0.034
333	0.058
334	0.081
334	0.098
335	0.117
335	0.133
336	0.148
336	0.163
336	0.174
337	0.187
337	0.196
338	0.205
338	0.211
339	0.219
339	0.226
340	0.231
340	0.236
341	0.24
341	0.244
342	0.249
342	0.252
342	0.255
343	0.257
343	0.261
344	0.263
344	0.264
345	0.265
345	0.267
346	0.267
346	0.268
347	0.268
347	0.269
348	0.27
348	0.27
348	0.271
349	0.271
349	0.271
350	0.271
350	0.272
351	0.272
351	0.272
352	0.272
352	0.272
353	0.272
353	0.272
354	0.272
354	0.272
354	0.272
355	0.271
355	0.271
356	0.271
356	0.271
357	0.271
357	0.271
358	0.27
358	0.27
359	0.27
359	0.27
360	0.27
360	0.27
360	0.27
361	0.27
361	0.269
362	0.269
362	0.269
363	0.269
363	0.269
364	0.269
364	0.269
365	0.269
365	0.268
366	0.269
366	0.268
366	0.269
367	0.269
367	0.269
368	0.269
368	0.269
369	0.269
369	0.268
370	0.268
370	0.268
371	0.268
371	0.268
372	0.268
372	0.268
372	0.268
373	0.268
373	0.268
374	0.267
374	0.267
375	0.267
375	0.267
376	0.267
376	0.267
377	0.267
377	0.267
378	0.267
378	0.267
378	0.267
379	0.266
379	0.266
380	0.266
380	0.266
381	0.266
381	0.265
382	0.265
382	0.265
383	0.265
383	0.265
383	0.264
384	0.264
384	0.264
385	0.264
385	0.265
386	0.265
386	0.264
387	0.264
387	0.264
388	0.264
388	0.264
389	0.264
389	0.264
389	0.264
390	0.264
390	0.264
391	0.264
391	0.264
392	0.264
392	0.263
393	0.263
393	0.263
394	0.263
394	0.263
394	0.262
395	0.262
395	0.262
396	0.261
396	0.261
397	0.261
397	0.261
398	0.261
398	0.261
399	0.261
399	0.261
400	0.261
400	0.261
400	0.261
401	0.261
401	0.26
402	0.26
402	0.26
403	0.26
403	0.259
404	0.259
404	0.259
405	0.259
405	0.259
405	0.259
406	0.258
406	0.258
407	0.258
407	0.258
408	0.258
408	0.258
409	0.258
409	0.258
410	0.258
410	0.258
411	0.258
411	0.258
411	0.258
412	0.258
412	0.257
413	0.257
413	0.257
414	0.257
414	0.257
415	0.257
415	0.256
416	0.256
416	0.256
416	0.256
417	0.256
417	0.256
418	0.256
418	0.256
419	0.256
419	0.256
420	0.256
420	0.256
421	0.256
421	0.256
421	0.256
422	0.256
422	0.256
423	0.255
423	0.255
424	0.255
424	0.254
425	0.254
425	0.254
426	0.253
426	0.253
427	0.253
427	0.253
427	0.253
428	0.253
428	0.253
429	0.253
429	0.253
430	0.253
430	0.252
431	0.252
431	0.252
432	0.252
432	0.251
432	0.251
433	0.251
433	0.251
434	0.25
434	0.25
435	0.25
435	0.25
436	0.25
436	0.25
437	0.25
437	0.25
437	0.25
438	0.25
438	0.25
439	0.25
439	0.25
440	0.25
440	0.25
441	0.249
441	0.249
442	0.249
442	0.249
442	0.249
443	0.249
443	0.249
444	0.249
444	0.249
445	0.249
445	0.249
446	0.249
446	0.249
447	0.249
447	0.249
447	0.249
448	0.249
448	0.249
449	0.249
449	0.249
450	0.249
450	0.249
451	0.249
451	0.249
452	0.249
452	0.249
452	0.249
453	0.249
453	0.248
454	0.248
454	0.248
455	0.248
455	0.247
456	0.247
456	0.247
457	0.247
457	0.247
458	0.247
458	0.247
458	0.247
459	0.247
459	0.247
460	0.247
460	0.247
461	0.247
461	0.247
462	0.248
462	0.248
463	0.248
463	0.248
463	0.248
464	0.248
464	0.248
465	0.248
465	0.248
466	0.248
466	0.248
467	0.248
467	0.248
467	0.248
468	0.248
468	0.248
469	0.248
469	0.249
470	0.249
470	0.249
471	0.249
471	0.25
472	0.25
472	0.25
472	0.251
473	0.251
473	0.251
474	0.251
474	0.251
475	0.251
475	0.252
476	0.252
476	0.252
477	0.252
477	0.252
477	0.253
478	0.253
478	0.253
479	0.254
479	0.254
480	0.254
480	0.254
481	0.255
481	0.255
482	0.256
482	0.256
482	0.256
483	0.257
483	0.257
484	0.257
484	0.257
485	0.258
485	0.258
486	0.259
486	0.259
487	0.26
487	0.26
487	0.261
488	0.262
488	0.262
489	0.264
489	0.266
490	0.267
490	0.268
491	0.269
491	0.27
492	0.271
492	0.272
492	0.273
493	0.274
493	0.275
494	0.276
494	0.277
495	0.277
495	0.278
496	0.279
496	0.281
496	0.282
497	0.283
497	0.284
498	0.286
498	0.287
499	0.288
499	0.29
500	0.291
500	0.293
501	0.294
501	0.295
501	0.296
502	0.297
502	0.298
503	0.3
503	0.301
504	0.303
504	0.304
505	0.306
505	0.307
506	0.308
506	0.31
506	0.311
507	0.312
507	0.313
508	0.315
508	0.316
509	0.317
509	0.318
510	0.32
510	0.321
511	0.323
511	0.325
511	0.326
512	0.328
512	0.329
513	0.331
513	0.333
514	0.334
514	0.336
515	0.338
515	0.339
515	0.34
516	0.342
516	0.344
517	0.345
517	0.347
518	0.348
518	0.35
519	0.351
519	0.352
520	0.354
520	0.355
520	0.357
521	0.359
521	0.36
522	0.362
522	0.363
523	0.365
523	0.366
524	0.367
524	0.369
524	0.37
525	0.371
525	0.372
526	0.373
526	0.373
527	0.375
527	0.375
528	0.376
528	0.377
529	0.378
529	0.38
529	0.381
530	0.382
530	0.383
531	0.384
531	0.385
532	0.385
532	0.386
533	0.387
533	0.388
533	0.389
534	0.389
534	0.39
535	0.39
535	0.391
536	0.391
536	0.391
537	0.392
537	0.392
538	0.393
538	0.393
538	0.394
539	0.395
539	0.395
540	0.396
540	0.396
541	0.396
541	0.397
542	0.397
542	0.397
542	0.397
543	0.397
543	0.397
544	0.397
544	0.397
545	0.397
545	0.398
546	0.398
546	0.398
547	0.398
547	0.398
547	0.398
548	0.399
548	0.399
549	0.399
549	0.4
550	0.4
550	0.4
551	0.4
551	0.401
551	0.402
552	0.403
552	0.404
553	0.404
553	0.405
554	0.405
554	0.404
555	0.404
555	0.404
556	0.405
556	0.404
556	0.404
557	0.404
557	0.404
558	0.403
558	0.403
559	0.403
559	0.403
560	0.403
560	0.403
560	0.402
561	0.403
561	0.402
562	0.402
562	0.401
563	0.401
563	0.401
564	0.401
564	0.401
564	0.401
565	0.402
565	0.402
566	0.402
566	0.402
567	0.402
567	0.402
568	0.402
568	0.402
568	0.401
569	0.401
569	0.4
570	0.399
570	0.398
571	0.398
571	0.397
572	0.397
572	0.396
573	0.396
573	0.395
573	0.395
574	0.395
574	0.395
575	0.395
575	0.396
576	0.396
576	0.395
577	0.395
577	0.395
577	0.395
578	0.395
578	0.395
579	0.396
579	0.396
580	0.395
580	0.393
581	0.393
581	0.392
581	0.393
582	0.393
582	0.392
583	0.393
583	0.392
584	0.391
584	0.39
585	0.391
585	0.391
585	0.391
586	0.391
586	0.39
587	0.39
587	0.389
588	0.388
588	0.388
589	0.388
589	0.388
590	0.387
590	0.387
590	0.388
591	0.387
591	0.386
592	0.385
592	0.384
593	0.384
593	0.384
594	0.384
594	0.383
594	0.383
595	0.383
595	0.382
596	0.382
596	0.383
597	0.383
597	0.383
598	0.382
598	0.381
598	0.38
599	0.38
599	0.378
600	0.377
600	0.376
601	0.375
601	0.374
602	0.372
602	0.372
602	0.371
603	0.371
603	0.371
604	0.371
604	0.371
605	0.371
605	0.371
606	0.371
606	0.37
606	0.369
607	0.368
607	0.368
608	0.366
608	0.365
609	0.364
609	0.364
610	0.362
610	0.362
610	0.362
611	0.362
611	0.362
612	0.363
612	0.363
613	0.363
613	0.363
614	0.362
614	0.361
614	0.36
615	0.359
615	0.358
616	0.357
616	0.355
617	0.353
617	0.351
618	0.35
618	0.349
618	0.348
619	0.347
619	0.347
620	0.347
620	0.346
621	0.345
621	0.344
622	0.343
622	0.342
622	0.34
623	0.339
623	0.339
624	0.338
624	0.336
625	0.335
625	0.334
626	0.332
626	0.33
626	0.329
627	0.328
627	0.326
628	0.324
628	0.322
629	0.32
629	0.317
630	0.314
630	0.311
630	0.309
631	0.306
631	0.302
632	0.298
632	0.295
633	0.291
633	0.287
634	0.283
634	0.279
634	0.275
635	0.271
635	0.266
636	0.262
636	0.257
637	0.251
637	0.246
638	0.24
638	0.234
638	0.228
639	0.221
639	0.214
640	0.207
640	0.2
641	0.193
641	0.186
642	0.179
642	0.172
642	0.165
643	0.158
643	0.15
644	0.142
644	0.134
645	0.125
645	0.117
646	0.109
646	0.1
646	0.09
647	0.082
647	0.073
648	0.064
648	0.055
649	0.046
649	0.037
650	0.028
650	0.019
650	0.009
651	-0.003
651	-0.017
652	-0.034
652	-0.051
653	-0.066
653	-0.08
653	-0.077
654	-0.053
654	-0.04
655	-0.043
655	-0.048
656	-0.054
656	-0.061
657	-0.065
657	-0.07
657	-0.075
658	-0.082
658	-0.113
659	-0.205
659	-0.312
660	-0.358
660	-0.387
661	-0.416
661	-0.447
661	-0.483
662	-0.517
662	-0.553
663	-0.594
663	-0.639
664	-0.684
664	-0.738
665	-0.791
665	-0.85
665	-0.906
666	-0.964
666	-1.026
667	-1.092
667	-1.158
668	-1.231
668	-1.305
669	-1.38
669	-1.456
669	-1.537
670	-1.616
670	-1.698
671	-1.907
671	-2.097
672	-2.289
672	-2.459
672	-2.575
673	-2.658
673	-2.732
674	-2.768
674	-2.785
675	-2.808
675	-2.941
676	-3.113
676	-3.064
676	-2.84
677	-2.635
677	-2.47
678	-2.291
678	-1.982
679	-1.734
679	-1.607
680	-1.515
680	-1.434
680	-1.366
681	-1.323
681	-1.264
682	-1.226
682	-1.19
683	-1.155
683	-1.138
684	-1.117
684	-1.098
684	-1.076
685	-1.051
685	-1.029
686	-1.004
686	-0.988
687	-0.961
687	-0.949
687	-0.929
688	-0.904
688	-0.882
689	-0.861
689	-0.847
690	-0.829
690	-0.817
691	-0.81
691	-0.815
691	-0.833
692	-0.824
692	-0.814
693	-0.81
693	-0.818
694	-0.813
694	-0.808
695	-0.813
695	-0.81
695	-0.794
696	-0.79
696	-0.766
697	-0.766
697	-0.783
698	-0.787
698	-0.777
698	-0.79
699	-0.792
699	-0.79
700	-0.78
700	-0.794
701	-0.792
701	-0.8
702	-0.799
702	-0.786
702	-0.778
703	-0.772
703	-0.762
704	-0.758
704	-0.758
705	-0.771
705	-0.763
705	-0.752
706	-0.752
706	-0.747
707	-0.752
707	-0.747
708	-0.748
708	-0.742
709	-0.745
709	-0.745
709	-0.736
710	-0.744
710	-0.755
711	-0.747
711	-0.749
712	-0.747
712	-0.761
713	-0.757
713	-0.765
713	-0.754
714	-0.752
714	-0.754
715	-0.744
715	-0.732
716	-0.738
716	-0.738
716	-0.731
717	-0.733
717	-0.735
718	-0.725
718	-0.727
719	-0.733
719	-0.735
720	-0.731
720	-0.74
720	-0.733
721	-0.723
721	-0.723
722	-0.709
722	-0.698
723	-0.696
723	-0.701
723	-0.689
724	-0.691
724	-0.694
725	-0.695
725	-0.703
726	-0.717
726	-0.722
727	-0.728
727	-0.745
727	-0.752
728	-0.753
728	-0.759
729	-0.758
729	-0.762
730	-0.766
730	-0.757
730	-0.746
731	-0.729
731	-0.738
732	-0.741
732	-0.741
733	-0.739
733	-0.745
734	-0.74
734	-0.74
734	-0.728
735	-0.731
735	-0.731
736	-0.742
736	-0.729
737	-0.721
737	-0.723
737	-0.732
738	-0.726
738	-0.724
739	-0.722
739	-0.735
740	-0.732
740	-0.734
741	-0.728
741	-0.728
741	-0.732
742	-0.73
742	-0.732
743	-0.74
743	-0.745
744	-0.743
744	-0.732
744	-0.733
745	-0.739
745	-0.733
746	-0.732
746	-0.727
747	-0.728
747	-0.715
748	-0.702
748	-0.705
748	-0.707
749	-0.704
749	-0.705
750	-0.693
750	-0.694
751	-0.698
751	-0.709
751	-0.712
752	-0.717
752	-0.726
753	-0.723
753	-0.72
754	-0.725
754	-0.72
754	-0.736
755	-0.751
755	-0.763
756	-0.751
756	-0.749
757	-0.747
757	-0.743
758	-0.744
758	-0.742
758	-0.743
759	-0.751
759	-0.733
760	-0.727
760	-0.723
761	-0.734
761	-0.727
761	-0.726
762	-0.734
762	-0.734
763	-0.743
763	-0.741
764	-0.739
764	-0.748
764	-0.754
765	-0.744
765	-0.729
766	-0.737
766	-0.744
767	-0.758
767	-0.753
768	-0.744
768	-0.753
768	-0.759
769	-0.777
769	-0.778
770	-0.782
770	-0.797
771	-0.796
771	-0.799
771	-0.798
772	-0.801
772	-0.801
773	-0.802
773	-0.796
774	-0.793
774	-0.791
775	-0.794
775	-0.788
775	-0.795
776	-0.795
776	-0.785
777	-0.794
777	-0.813
778	-0.809
778	-0.831
778	-0.818
779	-0.841
779	-0.85
780	-0.861
780	-0.86
781	-0.871
781	-0.866
781	-0.881
782	-0.882
782	-0.884
783	-0.869
783	-0.868
784	-0.847
784	-0.836
784	-0.847
785	-0.852
785	-0.84
786	-0.848
786	-0.827
787	-0.812
787	-0.814
788	-0.817
788	-0.827
788	-0.839
789	-0.84
789	-0.821
790	-0.803
790	-0.804
791	-0.804
791	-0.821
791	-0.827
792	-0.818
792	-0.793
793	-0.782
793	-0.758
794	-0.762
794	-0.755
794	-0.765
795	-0.76
795	-0.751
796	-0.735
796	-0.74
797	-0.737
797	-0.752
797	-0.76
798	-0.774
798	-0.769
799	-0.779
799	-0.763
800	-0.77
800	-0.765
801	-0.77
801	-0.758
801	-0.768
802	-0.775
802	-0.773
803	-0.773
803	-0.781
804	-0.777
804	-0.789
804	-0.776
805	-0.781
805	-0.77
806	-0.772
806	-0.756
807	-0.753
807	-0.735
807	-0.724
808	-0.716
808	-0.708
809	-0.693
809	-0.701
810	-0.699
810	-0.691
810	-0.687
811	-0.693
811	-0.683
812	-0.685
812	-0.689
813	-0.693
813	-0.689
813	-0.694
814	-0.695
814	-0.698
815	-0.704
815	-0.708
816	-0.7
816	-0.707
817	-0.716
817	-0.733
817	-0.745
818	-0.753
818	-0.755
819	-0.747
819	-0.748
820	-0.757
820	-0.753
820	-0.765
821	-0.763
821	-0.748
822	-0.716
822	-0.694
823	-0.693
823	-0.697
823	-0.696
824	-0.69
824	-0.691
825	-0.685
825	-0.665
826	-0.66
826	-0.669
826	-0.677
827	-0.673
827	-0.668
828	-0.646
828	-0.645
829	-0.635
829	-0.622
829	-0.614
830	-0.622
830	-0.618
831	-0.612
831	-0.603
832	-0.601
832	-0.591
832	-0.6
833	-0.594
833	-0.596
834	-0.592
834	-0.599
835	-0.587
835	-0.583
835	-0.578
836	-0.575
836	-0.572
837	-0.571
837	-0.561
838	-0.554
838	-0.542
839	-0.531
839	-0.519
839	-0.509
840	-0.497
840	-0.494
841	-0.482
841	-0.472
842	-0.466
842	-0.454
842	-0.447
843	-0.44
843	-0.434
844	-0.424
844	-0.416
845	-0.406
845	-0.394
845	-0.381
846	-0.371
846	-0.356
847	-0.345
847	-0.335
848	-0.324
848	-0.312
848	-0.297
849	-0.287
849	-0.276
850	-0.262
850	-0.255
851	-0.246
851	-0.236
851	-0.226
852	-0.209
852	-0.195
853	-0.185
853	-0.18
854	-0.167
854	-0.154
854	-0.143
855	-0.132
855	-0.125
856	-0.114
856	-0.105
857	-0.097
857	-0.088
857	-0.076
858	-0.064
858	-0.058
859	-0.049
859	-0.038
860	-0.029
860	-0.015
860	-0.006
861	0.001
861	0.009
862	0.016
862	0.023
863	0.03
863	0.039
863	0.044
864	0.049
864	0.056
865	0.062
865	0.067
866	0.072
866	0.076
866	0.08
867	0.084
867	0.088
868	0.091
868	0.094
869	0.097
869	0.099
869	0.101
870	0.103
870	0.105
871	0.108
871	0.109
872	0.11
872	0.11
872	0.111
873	0.111
873	0.112
874	0.111
874	0.111
875	0.11
875	0.109
875	0.108
876	0.107
876	0.106
877	0.105
877	0.104
878	0.102
878	0.101
878	0.099
879	0.098
879	0.097
880	0.097
880	0.097
881	0.097
881	0.097
881	0.096
882	0.096
882	0.095
883	0.093
883	0.092
884	0.091
884	0.09
884	0.089
885	0.088
885	0.088
886	0.087
886	0.086
887	0.086
887	0.086
887	0.086
888	0.086
888	0.086
889	0.087
889	0.087
890	0.087
890	0.086
890	0.086
891	0.086
891	0.087
892	0.087
892	0.087
893	0.087
893	0.087
893	0.087
894	0.087
894	0.087
895	0.087
895	0.087
895	0.086
896	0.085
896	0.084
897	0.083
897	0.082
898	0.081
898	0.08
898	0.079
899	0.079
899	0.08
900	0.08
900	0.08
901	0.081
901	0.082
901	0.082
902	0.083
902	0.084
903	0.084
903	0.085
904	0.085
904	0.086
904	0.086
905	0.087
905	0.087
906	0.087
906	0.087
907	0.087
907	0.087
907	0.086
908	0.086
908	0.085
909	0.084
909	0.084
910	0.083
910	0.083
910	0.082
911	0.082
911	0.083
912	0.083
912	0.084
913	0.085
913	0.086
913	0.087
914	0.088
914	0.089
915	0.09
915	0.09
916	0.091
916	0.091
916	0.092
917	0.092
917	0.092
918	0.092
918	0.091
918	0.091
919	0.091
919	0.091
920	0.09
920	0.09
921	0.09
921	0.09
921	0.089
922	0.089
922	0.089
923	0.088
923	0.088
924	0.088
924	0.087
924	0.086
925	0.085
925	0.084
926	0.084
926	0.083
927	0.082
927	0.081
927	0.08
928	0.08
928	0.079
929	0.079
929	0.078
930	0.077
930	0.076
930	0.076
931	0.075
931	0.075
932	0.074
932	0.073
933	0.073
933	0.071
933	0.07
934	0.069
934	0.068
935	0.068
935	0.067
935	0.066
936	0.065
936	0.064
937	0.063
937	0.063
938	0.063
938	0.062
938	0.062
939	0.062
939	0.063
940	0.063
940	0.063
941	0.064
941	0.064
941	0.065
942	0.065
942	0.066
943	0.066
943	0.066
944	0.065
944	0.065
944	0.064
945	0.064
945	0.063
946	0.062
946	0.06
946	0.059
947	0.059
947	0.058
948	0.058
948	0.058
949	0.057
949	0.058
949	0.058
950	0.059
950	0.059
951	0.06
951	0.061
952	0.061
952	0.063
952	0.063
953	0.064
953	0.066
954	0.066
954	0.067
955	0.067
955	0.069
955	0.07
956	0.07
956	0.071
957	0.071
957	0.071
957	0.072
958	0.072
958	0.073
959	0.073
959	0.073
960	0.073
960	0.073
960	0.074
961	0.074
961	0.074
962	0.074
962	0.074
963	0.074
963	0.074
963	0.073
964	0.073
964	0.073
965	0.073
965	0.073
966	0.072
966	0.072
966	0.072
967	0.071
967	0.07
968	0.07
968	0.069
968	0.069
969	0.068
969	0.068
970	0.067
970	0.067
971	0.067
971	0.068
971	0.068
972	0.068
972	0.068
973	0.068
973	0.068
974	0.068
974	0.068
974	0.069
975	0.068
975	0.068
976	0.068
976	0.067
976	0.067
977	0.067
977	0.067
978	0.067
978	0.068
979	0.067
979	0.067
979	0.067
980	0.067
980	0.067
981	0.067
981	0.067
982	0.067
982	0.066
982	0.065
983	0.065
983	0.064
984	0.064
984	0.064
984	0.064
985	0.064
985	0.063
986	0.063
986	0.062
987	0.062
987	0.061
987	0.061
988	0.06
988	0.059
989	0.058
989	0.057
990	0.056
990	0.056
990	0.055
991	0.055
991	0.055
992	0.055
992	0.054
992	0.054
993	0.054
993	0.054
994	0.054
994	0.053
995	0.053
995	0.053
995	0.052
996	0.052
996	0.051
997	0.05
997	0.05
997	0.05
998	0.05
998	0.051
999	0.051
999	0.051
1000	0.052
1000	0.052
1000	0.052
1001	0.053
1001	0.054
1002	0.054
1002	0.054
1003	0.054
1003	0.054
1003	0.054
1004	0.054
1004	0.054
1005	0.053
1005	0.052
1005	0.051
1006	0.05
1006	0.049
1007	0.048
1007	0.047
1008	0.046
1008	0.046
1008	0.045
1009	0.045
1009	0.045
1010	0.045
1010	0.045
1010	0.046
1011	0.046
1011	0.046
1012	0.046
1012	0.046
1013	0.045
1013	0.044
1013	0.043
1014	0.043
1014	0.042
1015	0.041
1015	0.041
1016	0.04
1016	0.039
1016	0.038
1017	0.037
1017	0.036
1018	0.036
1018	0.035
1018	0.034
1019	0.033
1019	0.032
1020	0.031
1020	0.031
1021	0.03
1021	0.029
1021	0.028
1022	0.028
1022	0.028
1023	0.027
1023	0.027
1023	0.027
1024	0.027
1024	0.026
1025	0.026
1025	0.026
1026	0.027
1026	0.027
1026	0.028
1027	0.028
1027	0.028
1028	0.028
1028	0.028
1028	0.028
1029	0.028
1029	0.028
1030	0.027
1030	0.027
1031	0.026
1031	0.026
1031	0.026
1032	0.025
1032	0.025
1033	0.025
1033	0.025
1033	0.026
1034	0.026
1034	0.026
1035	0.025
1035	0.025
1036	0.025
1036	0.025
1036	0.025
1037	0.025
1037	0.025
1038	0.025
1038	0.025
1039	0.026
1039	0.026
1039	0.026
1040	0.026
1040	0.027
1041	0.027
1041	0.028
1041	0.028
1042	0.028
1042	0.027
1043	0.027
1043	0.026
1044	0.025
1044	0.025
1044	0.024
1045	0.023
1045	0.022
1046	0.021
1046	0.02
1046	0.02
1047	0.02
1047	0.02
1048	0.02
1048	0.02
1049	0.02
1049	0.02
1049	0.021
1050	0.021
1050	0.022
1051	0.022
1051	0.022
1051	0.023
1052	0.023
1052	0.023
1053	0.024
1053	0.024
1053	0.024
1054	0.024
1054	0.024
1055	0.024
1055	0.024
1056	0.023
1056	0.022
1056	0.021
1057	0.02
1057	0.02
1058	0.02
1058	0.019
1058	0.019
1059	0.018
1059	0.017
1060	0.016
1060	0.016
1061	0.015
1061	0.015
1061	0.015
1062	0.014
1062	0.014
1063	0.014
1063	0.013
1063	0.014
1064	0.014
1064	0.014
1065	0.014
1065	0.014
1066	0.013
1066	0.013
1066	0.013
1067	0.013
1067	0.013
1068	0.012
1068	0.012
1068	0.011
1069	0.011
1069	0.011
1070	0.011
1070	0.01
1071	0.01
1071	0.01
1071	0.009
1072	0.009
1072	0.008
1073	0.008
1073	0.008
1073	0.007
1074	0.008
1074	0.008
1075	0.007
1075	0.007
1076	0.007
1076	0.007
1076	0.006
1077	0.006
1077	0.005
1078	0.004
1078	0.003
1078	0.002
1079	0.001
1079	0.001
1080	-0
1080	-0.001
1080	-0.002
1081	-0.002
1081	-0.002
1082	-0.003
1082	-0.004
1083	-0.005
1083	-0.006
1083	-0.007
1084	-0.008
1084	-0.008
1085	-0.009
1085	-0.01
1085	-0.011
1086	-0.011
1086	-0.012
1087	-0.012
1087	-0.012
1088	-0.013
1088	-0.013
1088	-0.014
1089	-0.015
1089	-0.015
1090	-0.017
1090	-0.018
1090	-0.019
1091	-0.02
1091	-0.021
1092	-0.022
1092	-0.022
1092	-0.023
1093	-0.024
1093	-0.024
1094	-0.024
1094	-0.025
1095	-0.026
1095	-0.026
1095	-0.027
1096	-0.028
1096	-0.029
1097	-0.03
1097	-0.031
1097	-0.031
1098	-0.032
1098	-0.034
1099	-0.035
1099	-0.036
1100	-0.038
1100	-0.039
1100	-0.041
1101	-0.044
1101	-0.047
1102	-0.048
1102	-0.051
1102	-0.052
1103	-0.055
1103	-0.057
1104	-0.059
1104	-0.062
1104	-0.065
1105	-0.067
1105	-0.069
1106	-0.074
1106	-0.076
1107	-0.081
1107	-0.085
1107	-0.09
1108	-0.093
1108	-0.095
1109	-0.099
1109	-0.103
1109	-0.107
1110	-0.109
1110	-0.108
1111	-0.114
1111	-0.116
