Data from 17C_3.1A_35min_2sec_int_Absorbance__234__02637.txt Node

Date: Mon Jun 19 18:24:34 CEST 2023
User: Marek
Spectrometer: MAYP115816
Trigger mode: 0
Integration Time (sec): 2.500000E-1
Scans to average: 10
Electric dark correction enabled: true
Nonlinearity correction enabled: true
Boxcar width: 5
XAxis mode: Wavelengths
Number of Pixels in Spectrum: 2068
>>>>>Begin Spectral Data<<<<<
199	-0.769
199	-0.776
200	-0.674
200	-0.621
201	-0.583
201	-0.57
202	-0.549
202	-0.533
203	-0.525
203	-0.521
204	-0.507
204	-0.493
205	-0.47
205	-0.464
205	-0.463
206	-0.466
206	-0.468
207	-0.461
207	-0.465
208	-0.468
208	-0.467
209	-0.461
209	-0.461
210	-0.463
210	-0.471
211	-0.472
211	-0.473
212	-0.475
212	-0.48
213	-0.476
213	-0.475
213	-0.48
214	-0.477
214	-0.477
215	-0.477
215	-0.481
216	-0.482
216	-0.489
217	-0.485
217	-0.491
218	-0.496
218	-0.498
219	-0.502
219	-0.513
220	-0.518
220	-0.531
221	-0.531
221	-0.536
221	-0.528
222	-0.524
222	-0.524
223	-0.526
223	-0.527
224	-0.531
224	-0.529
225	-0.524
225	-0.518
226	-0.522
226	-0.52
227	-0.526
227	-0.537
228	-0.539
228	-0.54
229	-0.542
229	-0.535
229	-0.531
230	-0.535
230	-0.537
231	-0.532
231	-0.526
232	-0.521
232	-0.52
233	-0.514
233	-0.511
234	-0.511
234	-0.507
235	-0.509
235	-0.516
236	-0.515
236	-0.518
236	-0.522
237	-0.528
237	-0.528
238	-0.534
238	-0.534
239	-0.532
239	-0.542
240	-0.542
240	-0.538
241	-0.543
241	-0.542
242	-0.549
242	-0.543
243	-0.541
243	-0.544
243	-0.552
244	-0.555
244	-0.553
245	-0.567
245	-0.566
246	-0.57
246	-0.574
247	-0.577
247	-0.582
248	-0.588
248	-0.587
249	-0.589
249	-0.596
250	-0.593
250	-0.589
250	-0.589
251	-0.585
251	-0.586
252	-0.588
252	-0.577
253	-0.581
253	-0.592
254	-0.591
254	-0.589
255	-0.598
255	-0.591
256	-0.591
256	-0.603
257	-0.6
257	-0.597
258	-0.613
258	-0.609
258	-0.604
259	-0.601
259	-0.612
260	-0.611
260	-0.617
261	-0.63
261	-0.62
262	-0.618
262	-0.621
263	-0.609
263	-0.605
264	-0.607
264	-0.614
265	-0.608
265	-0.616
265	-0.619
266	-0.614
266	-0.613
267	-0.625
267	-0.632
268	-0.648
268	-0.658
269	-0.655
269	-0.652
270	-0.657
270	-0.661
271	-0.66
271	-0.666
272	-0.67
272	-0.667
272	-0.659
273	-0.658
273	-0.665
274	-0.669
274	-0.671
275	-0.67
275	-0.664
276	-0.668
276	-0.658
277	-0.661
277	-0.679
278	-0.69
278	-0.684
278	-0.677
279	-0.681
279	-0.691
280	-0.689
280	-0.69
281	-0.686
281	-0.693
282	-0.686
282	-0.686
283	-0.675
283	-0.676
284	-0.671
284	-0.66
285	-0.656
285	-0.652
285	-0.646
286	-0.653
286	-0.648
287	-0.645
287	-0.628
288	-0.621
288	-0.632
289	-0.645
289	-0.658
290	-0.648
290	-0.648
291	-0.644
291	-0.639
292	-0.642
292	-0.65
292	-0.655
293	-0.661
293	-0.649
294	-0.638
294	-0.625
295	-0.624
295	-0.62
296	-0.618
296	-0.616
297	-0.611
297	-0.594
298	-0.586
298	-0.595
298	-0.584
299	-0.576
299	-0.578
300	-0.572
300	-0.568
301	-0.566
301	-0.563
302	-0.571
302	-0.581
303	-0.57
303	-0.555
304	-0.556
304	-0.555
305	-0.558
305	-0.557
305	-0.554
306	-0.539
306	-0.534
307	-0.518
307	-0.519
308	-0.529
308	-0.527
309	-0.529
309	-0.52
310	-0.51
310	-0.507
311	-0.499
311	-0.506
311	-0.503
312	-0.497
312	-0.494
313	-0.48
313	-0.483
314	-0.482
314	-0.482
315	-0.481
315	-0.479
316	-0.476
316	-0.469
317	-0.462
317	-0.46
318	-0.45
318	-0.447
318	-0.442
319	-0.432
319	-0.429
320	-0.423
320	-0.423
321	-0.427
321	-0.424
322	-0.42
322	-0.413
323	-0.413
323	-0.408
324	-0.402
324	-0.393
324	-0.382
325	-0.371
325	-0.353
326	-0.338
326	-0.321
327	-0.303
327	-0.283
328	-0.256
328	-0.235
329	-0.21
329	-0.185
330	-0.157
330	-0.124
330	-0.096
331	-0.067
331	-0.04
332	-0.014
332	0.01
333	0.034
333	0.06
334	0.081
334	0.1
335	0.118
335	0.134
336	0.149
336	0.164
336	0.175
337	0.188
337	0.198
338	0.207
338	0.213
339	0.221
339	0.228
340	0.233
340	0.238
341	0.241
341	0.245
342	0.249
342	0.253
342	0.256
343	0.258
343	0.261
344	0.263
344	0.264
345	0.265
345	0.266
346	0.267
346	0.268
347	0.269
347	0.269
348	0.27
348	0.27
348	0.271
349	0.271
349	0.272
350	0.272
350	0.272
351	0.272
351	0.272
352	0.272
352	0.272
353	0.273
353	0.273
354	0.272
354	0.273
354	0.272
355	0.272
355	0.272
356	0.272
356	0.272
357	0.272
357	0.271
358	0.271
358	0.271
359	0.27
359	0.27
360	0.27
360	0.27
360	0.27
361	0.269
361	0.269
362	0.269
362	0.269
363	0.269
363	0.269
364	0.269
364	0.269
365	0.269
365	0.269
366	0.269
366	0.269
366	0.269
367	0.269
367	0.269
368	0.269
368	0.269
369	0.269
369	0.269
370	0.269
370	0.269
371	0.268
371	0.268
372	0.268
372	0.268
372	0.268
373	0.268
373	0.268
374	0.268
374	0.268
375	0.268
375	0.268
376	0.268
376	0.268
377	0.268
377	0.267
378	0.267
378	0.267
378	0.267
379	0.267
379	0.267
380	0.267
380	0.266
381	0.266
381	0.266
382	0.266
382	0.265
383	0.265
383	0.265
383	0.265
384	0.264
384	0.264
385	0.265
385	0.265
386	0.265
386	0.265
387	0.265
387	0.265
388	0.265
388	0.265
389	0.265
389	0.265
389	0.265
390	0.264
390	0.264
391	0.264
391	0.264
392	0.264
392	0.264
393	0.264
393	0.263
394	0.263
394	0.263
394	0.263
395	0.262
395	0.262
396	0.262
396	0.262
397	0.262
397	0.262
398	0.262
398	0.262
399	0.261
399	0.261
400	0.261
400	0.261
400	0.261
401	0.261
401	0.261
402	0.26
402	0.26
403	0.26
403	0.26
404	0.26
404	0.259
405	0.259
405	0.259
405	0.259
406	0.259
406	0.259
407	0.258
407	0.258
408	0.258
408	0.258
409	0.258
409	0.258
410	0.258
410	0.258
411	0.258
411	0.258
411	0.258
412	0.258
412	0.258
413	0.258
413	0.258
414	0.258
414	0.257
415	0.257
415	0.257
416	0.257
416	0.257
416	0.257
417	0.256
417	0.256
418	0.256
418	0.256
419	0.256
419	0.256
420	0.256
420	0.257
421	0.256
421	0.256
421	0.256
422	0.256
422	0.256
423	0.256
423	0.256
424	0.255
424	0.255
425	0.254
425	0.254
426	0.254
426	0.253
427	0.253
427	0.253
427	0.253
428	0.253
428	0.253
429	0.253
429	0.253
430	0.253
430	0.253
431	0.252
431	0.252
432	0.252
432	0.252
432	0.251
433	0.251
433	0.251
434	0.251
434	0.251
435	0.251
435	0.25
436	0.25
436	0.25
437	0.25
437	0.25
437	0.25
438	0.25
438	0.25
439	0.25
439	0.25
440	0.25
440	0.25
441	0.249
441	0.249
442	0.249
442	0.249
442	0.249
443	0.249
443	0.249
444	0.249
444	0.249
445	0.249
445	0.249
446	0.249
446	0.249
447	0.25
447	0.25
447	0.25
448	0.25
448	0.25
449	0.249
449	0.25
450	0.25
450	0.25
451	0.249
451	0.249
452	0.249
452	0.249
452	0.249
453	0.249
453	0.248
454	0.248
454	0.248
455	0.248
455	0.247
456	0.247
456	0.247
457	0.247
457	0.247
458	0.247
458	0.247
458	0.247
459	0.248
459	0.248
460	0.247
460	0.247
461	0.247
461	0.248
462	0.248
462	0.248
463	0.248
463	0.248
463	0.248
464	0.248
464	0.248
465	0.248
465	0.248
466	0.249
466	0.249
467	0.249
467	0.249
467	0.249
468	0.249
468	0.248
469	0.249
469	0.249
470	0.249
470	0.25
471	0.25
471	0.25
472	0.25
472	0.25
472	0.25
473	0.251
473	0.251
474	0.251
474	0.252
475	0.252
475	0.252
476	0.252
476	0.253
477	0.253
477	0.253
477	0.253
478	0.253
478	0.253
479	0.254
479	0.254
480	0.254
480	0.254
481	0.255
481	0.255
482	0.256
482	0.256
482	0.257
483	0.257
483	0.258
484	0.258
484	0.258
485	0.259
485	0.259
486	0.259
486	0.26
487	0.26
487	0.261
487	0.262
488	0.262
488	0.263
489	0.264
489	0.266
490	0.267
490	0.268
491	0.269
491	0.269
492	0.271
492	0.272
492	0.273
493	0.273
493	0.274
494	0.276
494	0.276
495	0.277
495	0.278
496	0.28
496	0.281
496	0.282
497	0.283
497	0.285
498	0.286
498	0.287
499	0.289
499	0.29
500	0.292
500	0.293
501	0.294
501	0.296
501	0.296
502	0.297
502	0.299
503	0.3
503	0.301
504	0.303
504	0.304
505	0.306
505	0.307
506	0.308
506	0.31
506	0.311
507	0.312
507	0.314
508	0.315
508	0.316
509	0.318
509	0.319
510	0.32
510	0.322
511	0.323
511	0.325
511	0.326
512	0.328
512	0.33
513	0.331
513	0.333
514	0.335
514	0.337
515	0.338
515	0.339
515	0.341
516	0.342
516	0.344
517	0.346
517	0.347
518	0.348
518	0.349
519	0.351
519	0.352
520	0.354
520	0.356
520	0.357
521	0.359
521	0.36
522	0.362
522	0.363
523	0.365
523	0.367
524	0.368
524	0.369
524	0.37
525	0.371
525	0.372
526	0.373
526	0.374
527	0.375
527	0.376
528	0.377
528	0.378
529	0.379
529	0.38
529	0.382
530	0.383
530	0.384
531	0.385
531	0.385
532	0.386
532	0.387
533	0.388
533	0.389
533	0.389
534	0.389
534	0.39
535	0.39
535	0.391
536	0.391
536	0.391
537	0.391
537	0.392
538	0.393
538	0.393
538	0.394
539	0.394
539	0.395
540	0.395
540	0.396
541	0.396
541	0.397
542	0.397
542	0.397
542	0.397
543	0.398
543	0.398
544	0.398
544	0.398
545	0.398
545	0.398
546	0.399
546	0.399
547	0.398
547	0.398
547	0.399
548	0.399
548	0.399
549	0.4
549	0.4
550	0.4
550	0.4
551	0.401
551	0.401
551	0.402
552	0.403
552	0.404
553	0.404
553	0.405
554	0.405
554	0.405
555	0.405
555	0.405
556	0.405
556	0.405
556	0.405
557	0.404
557	0.404
558	0.404
558	0.404
559	0.404
559	0.403
560	0.403
560	0.403
560	0.403
561	0.403
561	0.403
562	0.402
562	0.402
563	0.401
563	0.401
564	0.401
564	0.401
564	0.402
565	0.402
565	0.402
566	0.402
566	0.403
567	0.403
567	0.403
568	0.403
568	0.402
568	0.402
569	0.401
569	0.401
570	0.399
570	0.398
571	0.398
571	0.398
572	0.397
572	0.397
573	0.396
573	0.396
573	0.395
574	0.395
574	0.396
575	0.396
575	0.396
576	0.396
576	0.395
577	0.395
577	0.395
577	0.396
578	0.396
578	0.396
579	0.396
579	0.396
580	0.395
580	0.394
581	0.393
581	0.393
581	0.393
582	0.393
582	0.393
583	0.393
583	0.392
584	0.391
584	0.39
585	0.391
585	0.392
585	0.392
586	0.391
586	0.391
587	0.39
587	0.39
588	0.389
588	0.389
589	0.389
589	0.388
590	0.388
590	0.388
590	0.388
591	0.388
591	0.387
592	0.386
592	0.385
593	0.385
593	0.385
594	0.384
594	0.384
594	0.383
595	0.383
595	0.382
596	0.382
596	0.383
597	0.384
597	0.383
598	0.382
598	0.381
598	0.381
599	0.38
599	0.379
600	0.378
600	0.377
601	0.376
601	0.375
602	0.373
602	0.372
602	0.371
603	0.372
603	0.372
604	0.372
604	0.372
605	0.372
605	0.372
606	0.371
606	0.37
606	0.369
607	0.369
607	0.368
608	0.367
608	0.365
609	0.364
609	0.364
610	0.363
610	0.362
610	0.363
611	0.363
611	0.363
612	0.363
612	0.364
613	0.364
613	0.364
614	0.363
614	0.361
614	0.36
615	0.359
615	0.358
616	0.357
616	0.356
617	0.354
617	0.352
618	0.351
618	0.35
618	0.349
619	0.348
619	0.348
620	0.347
620	0.346
621	0.345
621	0.344
622	0.343
622	0.342
622	0.341
623	0.34
623	0.339
624	0.338
624	0.336
625	0.335
625	0.334
626	0.332
626	0.331
626	0.33
627	0.328
627	0.326
628	0.325
628	0.322
629	0.32
629	0.318
630	0.315
630	0.312
630	0.309
631	0.306
631	0.303
632	0.299
632	0.296
633	0.292
633	0.288
634	0.284
634	0.28
634	0.276
635	0.272
635	0.267
636	0.262
636	0.257
637	0.252
637	0.246
638	0.241
638	0.235
638	0.228
639	0.222
639	0.214
640	0.207
640	0.2
641	0.193
641	0.187
642	0.18
642	0.173
642	0.165
643	0.158
643	0.15
644	0.142
644	0.134
645	0.126
645	0.118
646	0.109
646	0.101
646	0.091
647	0.083
647	0.074
648	0.065
648	0.056
649	0.047
649	0.038
650	0.029
650	0.02
650	0.01
651	-0.002
651	-0.016
652	-0.033
652	-0.05
653	-0.065
653	-0.079
653	-0.075
654	-0.052
654	-0.039
655	-0.042
655	-0.048
656	-0.053
656	-0.061
657	-0.065
657	-0.069
657	-0.075
658	-0.082
658	-0.113
659	-0.205
659	-0.312
660	-0.358
660	-0.385
661	-0.414
661	-0.445
661	-0.481
662	-0.514
662	-0.551
663	-0.591
663	-0.636
664	-0.681
664	-0.734
665	-0.787
665	-0.847
665	-0.904
666	-0.961
666	-1.024
667	-1.089
667	-1.155
668	-1.228
668	-1.301
669	-1.376
669	-1.451
669	-1.531
670	-1.605
670	-1.656
671	-1.827
671	-2.047
672	-2.252
672	-2.43
672	-2.552
673	-2.639
673	-2.715
674	-2.751
674	-2.769
675	-2.792
675	-2.929
676	-3.112
676	-3.063
676	-2.839
677	-2.634
677	-2.469
678	-2.289
678	-1.977
679	-1.736
679	-1.61
680	-1.518
680	-1.436
680	-1.367
681	-1.323
681	-1.265
682	-1.226
682	-1.189
683	-1.154
683	-1.138
684	-1.117
684	-1.098
684	-1.076
685	-1.052
685	-1.028
686	-1.004
686	-0.989
687	-0.963
687	-0.951
687	-0.929
688	-0.902
688	-0.88
689	-0.86
689	-0.846
690	-0.826
690	-0.815
691	-0.808
691	-0.812
691	-0.829
692	-0.821
692	-0.813
693	-0.811
693	-0.817
694	-0.813
694	-0.805
695	-0.809
695	-0.807
695	-0.791
696	-0.787
696	-0.763
697	-0.763
697	-0.778
698	-0.78
698	-0.772
698	-0.785
699	-0.788
699	-0.787
700	-0.779
700	-0.793
701	-0.793
701	-0.8
702	-0.8
702	-0.788
702	-0.779
703	-0.77
703	-0.761
704	-0.759
704	-0.756
705	-0.768
705	-0.759
705	-0.747
706	-0.748
706	-0.743
707	-0.748
707	-0.742
708	-0.74
708	-0.733
709	-0.736
709	-0.739
709	-0.727
710	-0.738
710	-0.747
711	-0.738
711	-0.739
712	-0.741
712	-0.756
713	-0.757
713	-0.767
713	-0.755
714	-0.752
714	-0.754
715	-0.745
715	-0.731
716	-0.738
716	-0.74
716	-0.73
717	-0.73
717	-0.731
718	-0.721
718	-0.724
719	-0.732
719	-0.733
720	-0.73
720	-0.741
720	-0.736
721	-0.725
721	-0.725
722	-0.711
722	-0.7
723	-0.697
723	-0.701
723	-0.687
724	-0.691
724	-0.693
725	-0.692
725	-0.699
726	-0.712
726	-0.717
727	-0.724
727	-0.738
727	-0.746
728	-0.745
728	-0.752
729	-0.753
729	-0.757
730	-0.762
730	-0.753
730	-0.741
731	-0.726
731	-0.736
732	-0.743
732	-0.742
733	-0.742
733	-0.746
734	-0.738
734	-0.738
734	-0.724
735	-0.724
735	-0.726
736	-0.737
736	-0.725
737	-0.715
737	-0.717
737	-0.725
738	-0.719
738	-0.718
739	-0.715
739	-0.729
740	-0.73
740	-0.73
741	-0.727
741	-0.725
741	-0.728
742	-0.726
742	-0.726
743	-0.733
743	-0.739
744	-0.737
744	-0.726
744	-0.726
745	-0.73
745	-0.722
746	-0.723
746	-0.721
747	-0.721
747	-0.71
748	-0.698
748	-0.704
748	-0.705
749	-0.702
749	-0.702
750	-0.692
750	-0.692
751	-0.695
751	-0.705
751	-0.707
752	-0.711
752	-0.722
753	-0.715
753	-0.714
754	-0.72
754	-0.717
754	-0.733
755	-0.75
755	-0.762
756	-0.75
756	-0.746
757	-0.743
757	-0.738
758	-0.742
758	-0.739
758	-0.742
759	-0.748
759	-0.731
760	-0.723
760	-0.719
761	-0.729
761	-0.727
761	-0.727
762	-0.734
762	-0.733
763	-0.741
763	-0.738
764	-0.735
764	-0.742
764	-0.748
765	-0.737
765	-0.724
766	-0.731
766	-0.739
767	-0.753
767	-0.745
768	-0.739
768	-0.747
768	-0.752
769	-0.77
769	-0.771
770	-0.776
770	-0.79
771	-0.79
771	-0.793
771	-0.795
772	-0.8
772	-0.798
773	-0.796
773	-0.791
774	-0.791
774	-0.791
775	-0.795
775	-0.79
775	-0.795
776	-0.792
776	-0.781
777	-0.79
777	-0.811
778	-0.81
778	-0.83
778	-0.814
779	-0.837
779	-0.844
780	-0.855
780	-0.855
781	-0.868
781	-0.863
781	-0.878
782	-0.879
782	-0.881
783	-0.868
783	-0.87
784	-0.849
784	-0.839
784	-0.849
785	-0.856
785	-0.84
786	-0.845
786	-0.821
787	-0.806
787	-0.807
788	-0.811
788	-0.82
788	-0.831
789	-0.833
789	-0.814
790	-0.795
790	-0.799
791	-0.798
791	-0.818
791	-0.825
792	-0.818
792	-0.793
793	-0.781
793	-0.757
794	-0.761
794	-0.755
794	-0.764
795	-0.759
795	-0.753
796	-0.735
796	-0.74
797	-0.735
797	-0.75
797	-0.758
798	-0.77
798	-0.765
799	-0.773
799	-0.759
800	-0.765
800	-0.758
801	-0.764
801	-0.751
801	-0.76
802	-0.768
802	-0.768
803	-0.77
803	-0.779
804	-0.775
804	-0.787
804	-0.774
805	-0.778
805	-0.766
806	-0.768
806	-0.753
807	-0.749
807	-0.731
807	-0.718
808	-0.707
808	-0.701
809	-0.686
809	-0.695
810	-0.694
810	-0.685
810	-0.683
811	-0.689
811	-0.68
812	-0.68
812	-0.684
813	-0.689
813	-0.684
813	-0.689
814	-0.692
814	-0.694
815	-0.701
815	-0.703
816	-0.695
816	-0.7
817	-0.709
817	-0.724
817	-0.741
818	-0.751
818	-0.752
819	-0.743
819	-0.744
820	-0.753
820	-0.751
820	-0.763
821	-0.76
821	-0.749
822	-0.719
822	-0.693
823	-0.691
823	-0.694
823	-0.692
824	-0.687
824	-0.69
825	-0.681
825	-0.661
826	-0.657
826	-0.664
826	-0.673
827	-0.668
827	-0.663
828	-0.643
828	-0.643
829	-0.633
829	-0.616
829	-0.611
830	-0.62
830	-0.615
831	-0.607
831	-0.598
832	-0.598
832	-0.587
832	-0.594
833	-0.588
833	-0.589
834	-0.589
834	-0.597
835	-0.584
835	-0.58
835	-0.576
836	-0.572
836	-0.568
837	-0.568
837	-0.558
838	-0.549
838	-0.537
839	-0.524
839	-0.511
839	-0.501
840	-0.491
840	-0.486
841	-0.474
841	-0.465
842	-0.458
842	-0.448
842	-0.443
843	-0.437
843	-0.432
844	-0.421
844	-0.414
845	-0.405
845	-0.395
845	-0.382
846	-0.372
846	-0.358
847	-0.345
847	-0.331
848	-0.32
848	-0.308
848	-0.293
849	-0.282
849	-0.268
850	-0.254
850	-0.25
851	-0.239
851	-0.228
851	-0.218
852	-0.201
852	-0.188
853	-0.179
853	-0.174
854	-0.163
854	-0.152
854	-0.142
855	-0.129
855	-0.121
856	-0.111
856	-0.103
857	-0.098
857	-0.091
857	-0.079
858	-0.068
858	-0.062
859	-0.053
859	-0.042
860	-0.033
860	-0.019
860	-0.011
861	-0.002
861	0.007
862	0.015
862	0.023
863	0.03
863	0.04
863	0.046
864	0.051
864	0.058
865	0.063
865	0.068
866	0.073
866	0.078
866	0.082
867	0.085
867	0.088
868	0.091
868	0.095
869	0.098
869	0.099
869	0.101
870	0.103
870	0.105
871	0.108
871	0.109
872	0.11
872	0.111
872	0.111
873	0.112
873	0.112
874	0.112
874	0.111
875	0.111
875	0.11
875	0.108
876	0.107
876	0.106
877	0.105
877	0.104
878	0.103
878	0.101
878	0.1
879	0.099
879	0.098
880	0.097
880	0.097
881	0.097
881	0.097
881	0.097
882	0.097
882	0.095
883	0.094
883	0.092
884	0.092
884	0.091
884	0.09
885	0.089
885	0.088
886	0.088
886	0.087
887	0.087
887	0.087
887	0.087
888	0.087
888	0.087
889	0.088
889	0.088
890	0.088
890	0.088
890	0.087
891	0.088
891	0.088
892	0.088
892	0.088
893	0.088
893	0.088
893	0.088
894	0.088
894	0.087
895	0.087
895	0.087
895	0.086
896	0.086
896	0.085
897	0.084
897	0.083
898	0.082
898	0.081
898	0.081
899	0.08
899	0.08
900	0.081
900	0.081
901	0.082
901	0.082
901	0.083
902	0.084
902	0.085
903	0.085
903	0.086
904	0.086
904	0.087
904	0.088
905	0.088
905	0.088
906	0.089
906	0.089
907	0.088
907	0.088
907	0.088
908	0.087
908	0.086
909	0.085
909	0.084
910	0.084
910	0.083
910	0.083
911	0.083
911	0.083
912	0.084
912	0.084
913	0.085
913	0.086
913	0.087
914	0.088
914	0.089
915	0.09
915	0.091
916	0.091
916	0.092
916	0.092
917	0.092
917	0.092
918	0.092
918	0.092
918	0.092
919	0.091
919	0.091
920	0.091
920	0.091
921	0.091
921	0.09
921	0.09
922	0.09
922	0.089
923	0.089
923	0.089
924	0.088
924	0.088
924	0.087
925	0.086
925	0.085
926	0.084
926	0.083
927	0.082
927	0.082
927	0.081
928	0.08
928	0.08
929	0.079
929	0.078
930	0.077
930	0.077
930	0.076
931	0.075
931	0.075
932	0.074
932	0.074
933	0.073
933	0.072
933	0.07
934	0.069
934	0.069
935	0.068
935	0.067
935	0.066
936	0.066
936	0.064
937	0.063
937	0.063
938	0.063
938	0.062
938	0.063
939	0.062
939	0.063
940	0.063
940	0.064
941	0.064
941	0.065
941	0.066
942	0.066
942	0.066
943	0.067
943	0.066
944	0.066
944	0.065
944	0.064
945	0.064
945	0.063
946	0.062
946	0.06
946	0.059
947	0.059
947	0.058
948	0.058
948	0.058
949	0.058
949	0.058
949	0.058
950	0.059
950	0.059
951	0.06
951	0.06
952	0.061
952	0.062
952	0.063
953	0.064
953	0.065
954	0.066
954	0.067
955	0.068
955	0.069
955	0.07
956	0.071
956	0.071
957	0.071
957	0.071
957	0.072
958	0.072
958	0.073
959	0.073
959	0.073
960	0.073
960	0.073
960	0.074
961	0.074
961	0.074
962	0.074
962	0.074
963	0.074
963	0.073
963	0.073
964	0.073
964	0.073
965	0.073
965	0.073
966	0.073
966	0.072
966	0.072
967	0.071
967	0.071
968	0.07
968	0.07
968	0.069
969	0.069
969	0.068
970	0.068
970	0.068
971	0.068
971	0.068
971	0.068
972	0.069
972	0.069
973	0.069
973	0.069
974	0.069
974	0.069
974	0.069
975	0.069
975	0.069
976	0.068
976	0.068
976	0.068
977	0.067
977	0.067
978	0.068
978	0.068
979	0.068
979	0.067
979	0.067
980	0.067
980	0.067
981	0.067
981	0.067
982	0.066
982	0.066
982	0.065
983	0.065
983	0.064
984	0.064
984	0.064
984	0.064
985	0.063
985	0.063
986	0.063
986	0.062
987	0.062
987	0.061
987	0.061
988	0.06
988	0.06
989	0.059
989	0.058
990	0.057
990	0.056
990	0.056
991	0.055
991	0.055
992	0.055
992	0.054
992	0.054
993	0.054
993	0.054
994	0.054
994	0.054
995	0.054
995	0.053
995	0.053
996	0.052
996	0.052
997	0.051
997	0.051
997	0.051
998	0.051
998	0.051
999	0.052
999	0.052
1000	0.052
1000	0.052
1000	0.053
1001	0.054
1001	0.054
1002	0.054
1002	0.055
1003	0.055
1003	0.055
1003	0.055
1004	0.054
1004	0.054
1005	0.054
1005	0.053
1005	0.052
1006	0.051
1006	0.05
1007	0.049
1007	0.048
1008	0.047
1008	0.047
1008	0.046
1009	0.046
1009	0.046
1010	0.046
1010	0.046
1010	0.046
1011	0.047
1011	0.046
1012	0.046
1012	0.046
1013	0.045
1013	0.045
1013	0.044
1014	0.043
1014	0.042
1015	0.042
1015	0.041
1016	0.04
1016	0.039
1016	0.039
1017	0.038
1017	0.036
1018	0.036
1018	0.035
1018	0.033
1019	0.033
1019	0.032
1020	0.031
1020	0.03
1021	0.03
1021	0.029
1021	0.029
1022	0.028
1022	0.028
1023	0.028
1023	0.028
1023	0.028
1024	0.027
1024	0.027
1025	0.027
1025	0.027
1026	0.027
1026	0.028
1026	0.028
1027	0.028
1027	0.029
1028	0.029
1028	0.029
1028	0.029
1029	0.029
1029	0.029
1030	0.028
1030	0.028
1031	0.027
1031	0.027
1031	0.027
1032	0.026
1032	0.026
1033	0.026
1033	0.026
1033	0.026
1034	0.026
1034	0.026
1035	0.026
1035	0.026
1036	0.026
1036	0.026
1036	0.026
1037	0.026
1037	0.026
1038	0.026
1038	0.026
1039	0.026
1039	0.027
1039	0.027
1040	0.028
1040	0.028
1041	0.028
1041	0.029
1041	0.029
1042	0.029
1042	0.028
1043	0.028
1043	0.027
1044	0.027
1044	0.026
1044	0.025
1045	0.024
1045	0.023
1046	0.022
1046	0.022
1046	0.021
1047	0.021
1047	0.021
1048	0.021
1048	0.021
1049	0.021
1049	0.021
1049	0.021
1050	0.022
1050	0.022
1051	0.022
1051	0.022
1051	0.022
1052	0.023
1052	0.023
1053	0.023
1053	0.023
1053	0.023
1054	0.024
1054	0.023
1055	0.023
1055	0.023
1056	0.023
1056	0.022
1056	0.021
1057	0.021
1057	0.02
1058	0.02
1058	0.019
1058	0.018
1059	0.018
1059	0.017
1060	0.016
1060	0.015
1061	0.015
1061	0.015
1061	0.015
1062	0.014
1062	0.014
1063	0.014
1063	0.014
1063	0.014
1064	0.014
1064	0.014
1065	0.014
1065	0.014
1066	0.014
1066	0.013
1066	0.013
1067	0.013
1067	0.013
1068	0.013
1068	0.012
1068	0.012
1069	0.011
1069	0.011
1070	0.011
1070	0.011
1071	0.01
1071	0.01
1071	0.009
1072	0.009
1072	0.008
1073	0.008
1073	0.008
1073	0.008
1074	0.008
1074	0.008
1075	0.008
1075	0.007
1076	0.007
1076	0.007
1076	0.006
1077	0.005
1077	0.005
1078	0.004
1078	0.003
1078	0.002
1079	0.001
1079	0.001
1080	-0
1080	-0
1080	-0.001
1081	-0.002
1081	-0.002
1082	-0.003
1082	-0.004
1083	-0.005
1083	-0.005
1083	-0.006
1084	-0.007
1084	-0.008
1085	-0.009
1085	-0.01
1085	-0.01
1086	-0.01
1086	-0.012
1087	-0.011
1087	-0.011
1088	-0.012
1088	-0.013
1088	-0.013
1089	-0.014
1089	-0.015
1090	-0.016
1090	-0.016
1090	-0.018
1091	-0.019
1091	-0.02
1092	-0.021
1092	-0.02
1092	-0.022
1093	-0.022
1093	-0.022
1094	-0.022
1094	-0.023
1095	-0.025
1095	-0.025
1095	-0.025
1096	-0.026
1096	-0.027
1097	-0.028
1097	-0.03
1097	-0.031
1098	-0.033
1098	-0.035
1099	-0.035
1099	-0.036
1100	-0.038
1100	-0.039
1100	-0.042
1101	-0.045
1101	-0.048
1102	-0.049
1102	-0.051
1102	-0.052
1103	-0.054
1103	-0.057
1104	-0.06
1104	-0.062
1104	-0.065
1105	-0.068
1105	-0.071
1106	-0.075
1106	-0.077
1107	-0.081
1107	-0.086
1107	-0.091
1108	-0.093
1108	-0.095
1109	-0.098
1109	-0.102
1109	-0.104
1110	-0.104
1110	-0.106
1111	-0.112
1111	-0.113
