Data from 17C_3.1A_35min_2sec_int_Absorbance__420__02823.txt Node

Date: Mon Jun 19 18:32:19 CEST 2023
User: Marek
Spectrometer: MAYP115816
Trigger mode: 0
Integration Time (sec): 2.500000E-1
Scans to average: 10
Electric dark correction enabled: true
Nonlinearity correction enabled: true
Boxcar width: 5
XAxis mode: Wavelengths
Number of Pixels in Spectrum: 2068
>>>>>Begin Spectral Data<<<<<
199	-0.758
199	-0.773
200	-0.674
200	-0.621
201	-0.586
201	-0.572
202	-0.557
202	-0.543
203	-0.534
203	-0.53
204	-0.518
204	-0.503
205	-0.48
205	-0.476
205	-0.473
206	-0.476
206	-0.48
207	-0.47
207	-0.472
208	-0.474
208	-0.473
209	-0.468
209	-0.467
210	-0.472
210	-0.477
211	-0.481
211	-0.48
212	-0.482
212	-0.489
213	-0.488
213	-0.488
213	-0.491
214	-0.488
214	-0.488
215	-0.486
215	-0.492
216	-0.493
216	-0.503
217	-0.499
217	-0.501
218	-0.504
218	-0.504
219	-0.508
219	-0.52
220	-0.526
220	-0.537
221	-0.534
221	-0.538
221	-0.529
222	-0.525
222	-0.528
223	-0.532
223	-0.535
224	-0.539
224	-0.537
225	-0.531
225	-0.524
226	-0.531
226	-0.529
227	-0.536
227	-0.544
228	-0.544
228	-0.546
229	-0.547
229	-0.54
229	-0.535
230	-0.539
230	-0.543
231	-0.534
231	-0.529
232	-0.524
232	-0.523
233	-0.517
233	-0.513
234	-0.513
234	-0.511
235	-0.514
235	-0.519
236	-0.519
236	-0.523
236	-0.528
237	-0.535
237	-0.535
238	-0.544
238	-0.543
239	-0.543
239	-0.55
240	-0.549
240	-0.549
241	-0.553
241	-0.554
242	-0.557
242	-0.553
243	-0.55
243	-0.55
243	-0.56
244	-0.559
244	-0.561
245	-0.575
245	-0.573
246	-0.577
246	-0.582
247	-0.587
247	-0.591
248	-0.598
248	-0.596
249	-0.597
249	-0.605
250	-0.602
250	-0.596
250	-0.597
251	-0.594
251	-0.593
252	-0.596
252	-0.585
253	-0.588
253	-0.599
254	-0.597
254	-0.596
255	-0.604
255	-0.6
256	-0.597
256	-0.608
257	-0.607
257	-0.602
258	-0.62
258	-0.615
258	-0.612
259	-0.609
259	-0.619
260	-0.619
260	-0.623
261	-0.635
261	-0.626
262	-0.622
262	-0.623
263	-0.612
263	-0.609
264	-0.609
264	-0.618
265	-0.611
265	-0.617
265	-0.619
266	-0.618
266	-0.617
267	-0.63
267	-0.638
268	-0.653
268	-0.664
269	-0.661
269	-0.655
270	-0.663
270	-0.668
271	-0.668
271	-0.671
272	-0.675
272	-0.67
272	-0.663
273	-0.662
273	-0.669
274	-0.675
274	-0.677
275	-0.677
275	-0.67
276	-0.678
276	-0.671
277	-0.675
277	-0.694
278	-0.704
278	-0.695
278	-0.691
279	-0.693
279	-0.705
280	-0.701
280	-0.7
281	-0.694
281	-0.7
282	-0.692
282	-0.692
283	-0.683
283	-0.687
284	-0.681
284	-0.671
285	-0.668
285	-0.665
285	-0.662
286	-0.668
286	-0.662
287	-0.661
287	-0.646
288	-0.638
288	-0.646
289	-0.658
289	-0.668
290	-0.657
290	-0.657
291	-0.654
291	-0.648
292	-0.654
292	-0.659
292	-0.663
293	-0.669
293	-0.657
294	-0.647
294	-0.637
295	-0.633
295	-0.63
296	-0.627
296	-0.623
297	-0.616
297	-0.6
298	-0.592
298	-0.599
298	-0.588
299	-0.581
299	-0.584
300	-0.579
300	-0.575
301	-0.571
301	-0.572
302	-0.581
302	-0.59
303	-0.576
303	-0.562
304	-0.563
304	-0.565
305	-0.566
305	-0.566
305	-0.565
306	-0.549
306	-0.544
307	-0.531
307	-0.533
308	-0.548
308	-0.546
309	-0.55
309	-0.538
310	-0.525
310	-0.522
311	-0.512
311	-0.522
311	-0.517
312	-0.512
312	-0.508
313	-0.492
313	-0.495
314	-0.49
314	-0.492
315	-0.495
315	-0.493
316	-0.489
316	-0.481
317	-0.474
317	-0.47
318	-0.46
318	-0.458
318	-0.455
319	-0.445
319	-0.44
320	-0.432
320	-0.434
321	-0.44
321	-0.44
322	-0.434
322	-0.428
323	-0.427
323	-0.422
324	-0.413
324	-0.406
324	-0.397
325	-0.386
325	-0.368
326	-0.354
326	-0.334
327	-0.319
327	-0.3
328	-0.274
328	-0.254
329	-0.232
329	-0.208
330	-0.181
330	-0.15
330	-0.124
331	-0.095
331	-0.069
332	-0.043
332	-0.019
333	0.002
333	0.026
334	0.047
334	0.064
335	0.081
335	0.096
336	0.109
336	0.124
336	0.135
337	0.146
337	0.155
338	0.164
338	0.17
339	0.178
339	0.184
340	0.188
340	0.193
341	0.197
341	0.2
342	0.203
342	0.207
342	0.21
343	0.212
343	0.215
344	0.216
344	0.217
345	0.219
345	0.22
346	0.221
346	0.222
347	0.223
347	0.224
348	0.224
348	0.225
348	0.225
349	0.226
349	0.226
350	0.226
350	0.226
351	0.226
351	0.227
352	0.227
352	0.227
353	0.227
353	0.227
354	0.226
354	0.226
354	0.226
355	0.226
355	0.226
356	0.226
356	0.225
357	0.225
357	0.225
358	0.224
358	0.224
359	0.224
359	0.224
360	0.224
360	0.224
360	0.224
361	0.224
361	0.223
362	0.223
362	0.223
363	0.223
363	0.223
364	0.223
364	0.223
365	0.223
365	0.223
366	0.223
366	0.223
366	0.223
367	0.223
367	0.223
368	0.223
368	0.223
369	0.223
369	0.223
370	0.223
370	0.223
371	0.223
371	0.223
372	0.223
372	0.222
372	0.223
373	0.223
373	0.223
374	0.223
374	0.223
375	0.223
375	0.223
376	0.223
376	0.223
377	0.223
377	0.223
378	0.223
378	0.223
378	0.223
379	0.223
379	0.223
380	0.222
380	0.222
381	0.222
381	0.222
382	0.222
382	0.221
383	0.221
383	0.221
383	0.221
384	0.221
384	0.221
385	0.221
385	0.221
386	0.221
386	0.221
387	0.221
387	0.221
388	0.221
388	0.221
389	0.221
389	0.221
389	0.221
390	0.221
390	0.221
391	0.221
391	0.221
392	0.221
392	0.221
393	0.22
393	0.22
394	0.22
394	0.22
394	0.22
395	0.219
395	0.219
396	0.219
396	0.219
397	0.219
397	0.219
398	0.219
398	0.219
399	0.219
399	0.219
400	0.219
400	0.219
400	0.219
401	0.219
401	0.219
402	0.218
402	0.218
403	0.218
403	0.218
404	0.218
404	0.218
405	0.218
405	0.218
405	0.217
406	0.217
406	0.217
407	0.217
407	0.217
408	0.217
408	0.217
409	0.217
409	0.217
410	0.217
410	0.217
411	0.217
411	0.217
411	0.217
412	0.217
412	0.217
413	0.217
413	0.217
414	0.217
414	0.217
415	0.216
415	0.216
416	0.216
416	0.216
416	0.216
417	0.216
417	0.216
418	0.216
418	0.216
419	0.216
419	0.216
420	0.216
420	0.216
421	0.216
421	0.216
421	0.216
422	0.216
422	0.216
423	0.216
423	0.216
424	0.215
424	0.215
425	0.214
425	0.214
426	0.214
426	0.214
427	0.214
427	0.213
427	0.213
428	0.213
428	0.213
429	0.213
429	0.213
430	0.213
430	0.213
431	0.213
431	0.213
432	0.212
432	0.212
432	0.212
433	0.212
433	0.211
434	0.211
434	0.211
435	0.211
435	0.211
436	0.211
436	0.211
437	0.211
437	0.212
437	0.212
438	0.212
438	0.212
439	0.212
439	0.211
440	0.211
440	0.211
441	0.211
441	0.211
442	0.211
442	0.211
442	0.211
443	0.21
443	0.21
444	0.21
444	0.21
445	0.21
445	0.211
446	0.211
446	0.211
447	0.211
447	0.211
447	0.211
448	0.211
448	0.211
449	0.211
449	0.211
450	0.211
450	0.211
451	0.211
451	0.211
452	0.211
452	0.211
452	0.211
453	0.21
453	0.21
454	0.21
454	0.209
455	0.209
455	0.209
456	0.209
456	0.209
457	0.209
457	0.209
458	0.209
458	0.209
458	0.209
459	0.209
459	0.209
460	0.209
460	0.209
461	0.209
461	0.209
462	0.209
462	0.209
463	0.209
463	0.209
463	0.21
464	0.21
464	0.209
465	0.209
465	0.21
466	0.21
466	0.21
467	0.209
467	0.209
467	0.209
468	0.209
468	0.209
469	0.209
469	0.209
470	0.21
470	0.21
471	0.21
471	0.21
472	0.21
472	0.21
472	0.21
473	0.211
473	0.211
474	0.211
474	0.211
475	0.211
475	0.211
476	0.212
476	0.212
477	0.212
477	0.212
477	0.212
478	0.212
478	0.212
479	0.212
479	0.212
480	0.212
480	0.213
481	0.213
481	0.213
482	0.213
482	0.214
482	0.214
483	0.215
483	0.215
484	0.215
484	0.214
485	0.215
485	0.215
486	0.215
486	0.215
487	0.216
487	0.216
487	0.217
488	0.217
488	0.218
489	0.219
489	0.22
490	0.221
490	0.222
491	0.223
491	0.223
492	0.224
492	0.224
492	0.225
493	0.226
493	0.226
494	0.227
494	0.228
495	0.228
495	0.229
496	0.23
496	0.23
496	0.231
497	0.232
497	0.233
498	0.234
498	0.235
499	0.236
499	0.237
500	0.238
500	0.239
501	0.24
501	0.241
501	0.242
502	0.242
502	0.243
503	0.244
503	0.245
504	0.246
504	0.247
505	0.248
505	0.249
506	0.25
506	0.251
506	0.252
507	0.253
507	0.253
508	0.254
508	0.255
509	0.256
509	0.257
510	0.258
510	0.259
511	0.26
511	0.261
511	0.262
512	0.264
512	0.265
513	0.266
513	0.267
514	0.268
514	0.27
515	0.271
515	0.271
515	0.272
516	0.273
516	0.275
517	0.276
517	0.277
518	0.278
518	0.279
519	0.28
519	0.281
520	0.282
520	0.283
520	0.285
521	0.286
521	0.287
522	0.288
522	0.289
523	0.291
523	0.292
524	0.293
524	0.294
524	0.295
525	0.295
525	0.296
526	0.297
526	0.297
527	0.298
527	0.299
528	0.3
528	0.3
529	0.301
529	0.302
529	0.303
530	0.304
530	0.305
531	0.305
531	0.306
532	0.307
532	0.307
533	0.308
533	0.309
533	0.309
534	0.31
534	0.31
535	0.31
535	0.311
536	0.311
536	0.311
537	0.311
537	0.312
538	0.312
538	0.312
538	0.313
539	0.314
539	0.314
540	0.314
540	0.315
541	0.315
541	0.316
542	0.316
542	0.316
542	0.316
543	0.316
543	0.317
544	0.316
544	0.316
545	0.317
545	0.317
546	0.318
546	0.317
547	0.317
547	0.317
547	0.318
548	0.318
548	0.318
549	0.319
549	0.319
550	0.32
550	0.32
551	0.321
551	0.322
551	0.323
552	0.324
552	0.324
553	0.325
553	0.326
554	0.326
554	0.326
555	0.326
555	0.327
556	0.327
556	0.327
556	0.327
557	0.327
557	0.326
558	0.326
558	0.326
559	0.326
559	0.326
560	0.326
560	0.326
560	0.325
561	0.326
561	0.325
562	0.325
562	0.325
563	0.325
563	0.325
564	0.325
564	0.325
564	0.326
565	0.327
565	0.327
566	0.327
566	0.328
567	0.328
567	0.328
568	0.328
568	0.328
568	0.328
569	0.327
569	0.327
570	0.326
570	0.325
571	0.325
571	0.325
572	0.324
572	0.324
573	0.324
573	0.324
573	0.324
574	0.324
574	0.324
575	0.324
575	0.325
576	0.326
576	0.325
577	0.325
577	0.325
577	0.326
578	0.326
578	0.327
579	0.328
579	0.328
580	0.327
580	0.326
581	0.325
581	0.325
581	0.326
582	0.326
582	0.326
583	0.326
583	0.326
584	0.325
584	0.325
585	0.326
585	0.327
585	0.327
586	0.327
586	0.327
587	0.327
587	0.327
588	0.326
588	0.326
589	0.326
589	0.326
590	0.326
590	0.326
590	0.328
591	0.328
591	0.327
592	0.327
592	0.326
593	0.326
593	0.326
594	0.326
594	0.326
594	0.326
595	0.326
595	0.326
596	0.326
596	0.327
597	0.329
597	0.328
598	0.328
598	0.328
598	0.328
599	0.328
599	0.327
600	0.326
600	0.325
601	0.325
601	0.324
602	0.323
602	0.323
602	0.322
603	0.323
603	0.324
604	0.324
604	0.324
605	0.325
605	0.325
606	0.325
606	0.324
606	0.324
607	0.324
607	0.323
608	0.323
608	0.321
609	0.321
609	0.321
610	0.321
610	0.321
610	0.321
611	0.322
611	0.323
612	0.324
612	0.325
613	0.325
613	0.326
614	0.325
614	0.324
614	0.324
615	0.323
615	0.322
616	0.321
616	0.32
617	0.319
617	0.318
618	0.317
618	0.317
618	0.316
619	0.316
619	0.316
620	0.316
620	0.316
621	0.315
621	0.315
622	0.314
622	0.314
622	0.313
623	0.312
623	0.313
624	0.312
624	0.311
625	0.311
625	0.31
626	0.309
626	0.309
626	0.308
627	0.308
627	0.307
628	0.305
628	0.304
629	0.302
629	0.301
630	0.298
630	0.296
630	0.294
631	0.292
631	0.29
632	0.287
632	0.284
633	0.281
633	0.278
634	0.275
634	0.272
634	0.269
635	0.266
635	0.262
636	0.258
636	0.254
637	0.25
637	0.246
638	0.241
638	0.236
638	0.231
639	0.225
639	0.22
640	0.214
640	0.208
641	0.202
641	0.197
642	0.191
642	0.185
642	0.179
643	0.173
643	0.166
644	0.159
644	0.152
645	0.145
645	0.138
646	0.13
646	0.122
646	0.114
647	0.106
647	0.098
648	0.09
648	0.082
649	0.073
649	0.064
650	0.055
650	0.046
650	0.037
651	0.026
651	0.012
652	-0.004
652	-0.021
653	-0.036
653	-0.049
653	-0.046
654	-0.024
654	-0.013
655	-0.016
655	-0.021
656	-0.028
656	-0.034
657	-0.039
657	-0.043
657	-0.05
658	-0.057
658	-0.088
659	-0.178
659	-0.282
660	-0.328
660	-0.356
661	-0.385
661	-0.416
661	-0.451
662	-0.485
662	-0.521
663	-0.559
663	-0.602
664	-0.646
664	-0.698
665	-0.749
665	-0.808
665	-0.862
666	-0.918
666	-0.979
667	-1.043
667	-1.107
668	-1.179
668	-1.251
669	-1.324
669	-1.398
669	-1.475
670	-1.541
670	-1.568
671	-1.695
671	-1.973
672	-2.201
672	-2.392
672	-2.522
673	-2.614
673	-2.694
674	-2.736
674	-2.755
675	-2.779
675	-2.92
676	-3.116
676	-3.068
676	-2.844
677	-2.64
677	-2.477
678	-2.301
678	-2.002
679	-1.727
679	-1.592
680	-1.498
680	-1.416
680	-1.346
681	-1.301
681	-1.243
682	-1.205
682	-1.168
683	-1.133
683	-1.117
684	-1.097
684	-1.079
684	-1.057
685	-1.033
685	-1.012
686	-0.987
686	-0.972
687	-0.947
687	-0.937
687	-0.917
688	-0.893
688	-0.872
689	-0.853
689	-0.839
690	-0.82
690	-0.808
691	-0.805
691	-0.809
691	-0.825
692	-0.814
692	-0.806
693	-0.801
693	-0.809
694	-0.804
694	-0.799
695	-0.804
695	-0.801
695	-0.783
696	-0.78
696	-0.758
697	-0.76
697	-0.776
698	-0.781
698	-0.771
698	-0.785
699	-0.789
699	-0.786
700	-0.78
700	-0.794
701	-0.791
701	-0.802
702	-0.801
702	-0.789
702	-0.779
703	-0.772
703	-0.763
704	-0.758
704	-0.757
705	-0.769
705	-0.762
705	-0.752
706	-0.749
706	-0.745
707	-0.75
707	-0.744
708	-0.742
708	-0.737
709	-0.738
709	-0.742
709	-0.731
710	-0.74
710	-0.748
711	-0.74
711	-0.742
712	-0.741
712	-0.756
713	-0.758
713	-0.764
713	-0.756
714	-0.753
714	-0.755
715	-0.746
715	-0.735
716	-0.743
716	-0.745
716	-0.737
717	-0.738
717	-0.739
718	-0.729
718	-0.73
719	-0.735
719	-0.736
720	-0.733
720	-0.741
720	-0.734
721	-0.722
721	-0.722
722	-0.708
722	-0.696
723	-0.693
723	-0.697
723	-0.685
724	-0.688
724	-0.692
725	-0.692
725	-0.701
726	-0.715
726	-0.72
727	-0.726
727	-0.743
727	-0.753
728	-0.752
728	-0.758
729	-0.758
729	-0.763
730	-0.767
730	-0.76
730	-0.749
731	-0.733
731	-0.743
732	-0.747
732	-0.747
733	-0.745
733	-0.75
734	-0.745
734	-0.741
734	-0.729
735	-0.73
735	-0.732
736	-0.741
736	-0.728
737	-0.719
737	-0.718
737	-0.731
738	-0.726
738	-0.726
739	-0.725
739	-0.737
740	-0.734
740	-0.733
741	-0.73
741	-0.731
741	-0.735
742	-0.733
742	-0.731
743	-0.738
743	-0.742
744	-0.74
744	-0.729
744	-0.731
745	-0.739
745	-0.73
746	-0.73
746	-0.727
747	-0.727
747	-0.715
748	-0.702
748	-0.706
748	-0.707
749	-0.708
749	-0.708
750	-0.696
750	-0.699
751	-0.701
751	-0.712
751	-0.715
752	-0.719
752	-0.731
753	-0.726
753	-0.724
754	-0.726
754	-0.72
754	-0.733
755	-0.749
755	-0.762
756	-0.75
756	-0.748
757	-0.746
757	-0.74
758	-0.743
758	-0.74
758	-0.744
759	-0.751
759	-0.736
760	-0.73
760	-0.724
761	-0.734
761	-0.731
761	-0.732
762	-0.74
762	-0.739
763	-0.747
763	-0.746
764	-0.743
764	-0.751
764	-0.755
765	-0.747
765	-0.734
766	-0.74
766	-0.745
767	-0.759
767	-0.753
768	-0.744
768	-0.752
768	-0.759
769	-0.775
769	-0.777
770	-0.779
770	-0.792
771	-0.789
771	-0.792
771	-0.794
772	-0.798
772	-0.797
773	-0.798
773	-0.793
774	-0.794
774	-0.795
775	-0.799
775	-0.794
775	-0.803
776	-0.803
776	-0.792
777	-0.8
777	-0.818
778	-0.816
778	-0.835
778	-0.82
779	-0.843
779	-0.849
780	-0.862
780	-0.858
781	-0.869
781	-0.864
781	-0.881
782	-0.882
782	-0.883
783	-0.869
783	-0.868
784	-0.848
784	-0.838
784	-0.848
785	-0.857
785	-0.843
786	-0.85
786	-0.827
787	-0.812
787	-0.813
788	-0.817
788	-0.827
788	-0.839
789	-0.84
789	-0.821
790	-0.8
790	-0.804
791	-0.803
791	-0.821
791	-0.829
792	-0.822
792	-0.798
793	-0.788
793	-0.766
794	-0.773
794	-0.764
794	-0.775
795	-0.768
795	-0.761
796	-0.743
796	-0.75
797	-0.744
797	-0.758
797	-0.763
798	-0.775
798	-0.768
799	-0.779
799	-0.764
800	-0.771
800	-0.764
801	-0.769
801	-0.755
801	-0.765
802	-0.772
802	-0.772
803	-0.77
803	-0.778
804	-0.772
804	-0.784
804	-0.769
805	-0.775
805	-0.764
806	-0.767
806	-0.752
807	-0.749
807	-0.73
807	-0.721
808	-0.714
808	-0.709
809	-0.695
809	-0.704
810	-0.701
810	-0.694
810	-0.693
811	-0.698
811	-0.69
812	-0.693
812	-0.695
813	-0.698
813	-0.692
813	-0.697
814	-0.698
814	-0.703
815	-0.707
815	-0.71
816	-0.705
816	-0.709
817	-0.716
817	-0.734
817	-0.749
818	-0.757
818	-0.76
819	-0.753
819	-0.753
820	-0.764
820	-0.759
820	-0.769
821	-0.768
821	-0.757
822	-0.724
822	-0.7
823	-0.698
823	-0.702
823	-0.699
824	-0.694
824	-0.696
825	-0.689
825	-0.668
826	-0.662
826	-0.669
826	-0.68
827	-0.675
827	-0.669
828	-0.647
828	-0.649
829	-0.639
829	-0.623
829	-0.615
830	-0.626
830	-0.621
831	-0.613
831	-0.602
832	-0.6
832	-0.594
832	-0.603
833	-0.596
833	-0.596
834	-0.593
834	-0.602
835	-0.591
835	-0.586
835	-0.581
836	-0.578
836	-0.575
837	-0.572
837	-0.562
838	-0.553
838	-0.542
839	-0.529
839	-0.513
839	-0.502
840	-0.493
840	-0.488
841	-0.477
841	-0.467
842	-0.461
842	-0.451
842	-0.444
843	-0.438
843	-0.434
844	-0.424
844	-0.416
845	-0.408
845	-0.398
845	-0.385
846	-0.374
846	-0.358
847	-0.346
847	-0.333
848	-0.32
848	-0.307
848	-0.293
849	-0.282
849	-0.268
850	-0.252
850	-0.244
851	-0.234
851	-0.222
851	-0.213
852	-0.196
852	-0.184
853	-0.173
853	-0.167
854	-0.155
854	-0.143
854	-0.132
855	-0.119
855	-0.111
856	-0.101
856	-0.092
857	-0.085
857	-0.076
857	-0.063
858	-0.05
858	-0.043
859	-0.034
859	-0.022
860	-0.012
860	0.002
860	0.011
861	0.021
861	0.032
862	0.04
862	0.047
863	0.054
863	0.065
863	0.07
864	0.076
864	0.082
865	0.089
865	0.094
866	0.099
866	0.102
866	0.106
867	0.11
867	0.114
868	0.117
868	0.121
869	0.124
869	0.127
869	0.129
870	0.131
870	0.133
871	0.136
871	0.138
872	0.138
872	0.139
872	0.14
873	0.14
873	0.14
874	0.14
874	0.139
875	0.139
875	0.138
875	0.136
876	0.135
876	0.134
877	0.133
877	0.132
878	0.13
878	0.129
878	0.128
879	0.126
879	0.126
880	0.125
880	0.125
881	0.125
881	0.125
881	0.125
882	0.124
882	0.123
883	0.122
883	0.12
884	0.119
884	0.118
884	0.117
885	0.116
885	0.116
886	0.116
886	0.115
887	0.114
887	0.114
887	0.114
888	0.115
888	0.115
889	0.115
889	0.115
890	0.115
890	0.115
890	0.114
891	0.114
891	0.114
892	0.114
892	0.114
893	0.114
893	0.115
893	0.115
894	0.115
894	0.115
895	0.115
895	0.114
895	0.114
896	0.114
896	0.113
897	0.112
897	0.11
898	0.109
898	0.108
898	0.108
899	0.108
899	0.108
900	0.108
900	0.108
901	0.109
901	0.109
901	0.11
902	0.111
902	0.112
903	0.112
903	0.113
904	0.113
904	0.114
904	0.114
905	0.115
905	0.116
906	0.116
906	0.116
907	0.116
907	0.115
907	0.115
908	0.115
908	0.114
909	0.113
909	0.112
910	0.111
910	0.11
910	0.11
911	0.11
911	0.11
912	0.111
912	0.111
913	0.112
913	0.113
913	0.114
914	0.115
914	0.116
915	0.117
915	0.118
916	0.118
916	0.119
916	0.119
917	0.119
917	0.119
918	0.119
918	0.119
918	0.118
919	0.118
919	0.118
920	0.118
920	0.117
921	0.117
921	0.117
921	0.117
922	0.116
922	0.116
923	0.115
923	0.115
924	0.115
924	0.114
924	0.113
925	0.113
925	0.111
926	0.111
926	0.11
927	0.109
927	0.108
927	0.107
928	0.107
928	0.106
929	0.106
929	0.105
930	0.104
930	0.103
930	0.103
931	0.102
931	0.101
932	0.101
932	0.1
933	0.099
933	0.098
933	0.097
934	0.096
934	0.095
935	0.094
935	0.094
935	0.093
936	0.092
936	0.091
937	0.09
937	0.089
938	0.089
938	0.089
938	0.089
939	0.089
939	0.089
940	0.089
940	0.089
941	0.089
941	0.09
941	0.091
942	0.091
942	0.091
943	0.091
943	0.091
944	0.09
944	0.09
944	0.089
945	0.088
945	0.087
946	0.086
946	0.085
946	0.084
947	0.083
947	0.082
948	0.082
948	0.082
949	0.082
949	0.082
949	0.082
950	0.083
950	0.083
951	0.084
951	0.085
952	0.085
952	0.086
952	0.087
953	0.088
953	0.089
954	0.09
954	0.09
955	0.091
955	0.092
955	0.093
956	0.094
956	0.094
957	0.095
957	0.095
957	0.095
958	0.096
958	0.096
959	0.096
959	0.097
960	0.097
960	0.097
960	0.097
961	0.097
961	0.097
962	0.098
962	0.097
963	0.097
963	0.097
963	0.097
964	0.097
964	0.097
965	0.097
965	0.097
966	0.096
966	0.096
966	0.096
967	0.095
967	0.094
968	0.094
968	0.093
968	0.092
969	0.092
969	0.091
970	0.091
970	0.091
971	0.091
971	0.092
971	0.092
972	0.092
972	0.092
973	0.092
973	0.092
974	0.092
974	0.092
974	0.093
975	0.092
975	0.092
976	0.091
976	0.091
976	0.091
977	0.091
977	0.091
978	0.091
978	0.091
979	0.091
979	0.091
979	0.091
980	0.091
980	0.091
981	0.091
981	0.091
982	0.091
982	0.09
982	0.09
983	0.089
983	0.089
984	0.089
984	0.088
984	0.088
985	0.088
985	0.087
986	0.086
986	0.086
987	0.085
987	0.085
987	0.084
988	0.084
988	0.083
989	0.082
989	0.081
990	0.08
990	0.08
990	0.079
991	0.079
991	0.079
992	0.079
992	0.079
992	0.078
993	0.078
993	0.078
994	0.078
994	0.078
995	0.078
995	0.077
995	0.077
996	0.076
996	0.075
997	0.075
997	0.075
997	0.075
998	0.075
998	0.075
999	0.075
999	0.076
1000	0.076
1000	0.076
1000	0.076
1001	0.077
1001	0.077
1002	0.078
1002	0.078
1003	0.078
1003	0.078
1003	0.078
1004	0.078
1004	0.077
1005	0.077
1005	0.076
1005	0.075
1006	0.074
1006	0.073
1007	0.072
1007	0.07
1008	0.07
1008	0.069
1008	0.069
1009	0.069
1009	0.069
1010	0.069
1010	0.069
1010	0.069
1011	0.07
1011	0.069
1012	0.069
1012	0.069
1013	0.069
1013	0.068
1013	0.067
1014	0.067
1014	0.066
1015	0.065
1015	0.065
1016	0.064
1016	0.063
1016	0.062
1017	0.061
1017	0.06
1018	0.059
1018	0.058
1018	0.057
1019	0.056
1019	0.055
1020	0.054
1020	0.053
1021	0.053
1021	0.052
1021	0.051
1022	0.051
1022	0.051
1023	0.05
1023	0.05
1023	0.05
1024	0.05
1024	0.05
1025	0.05
1025	0.05
1026	0.051
1026	0.051
1026	0.051
1027	0.052
1027	0.052
1028	0.052
1028	0.052
1028	0.052
1029	0.052
1029	0.051
1030	0.051
1030	0.05
1031	0.05
1031	0.049
1031	0.049
1032	0.048
1032	0.048
1033	0.048
1033	0.049
1033	0.049
1034	0.048
1034	0.049
1035	0.049
1035	0.048
1036	0.048
1036	0.048
1036	0.048
1037	0.048
1037	0.048
1038	0.048
1038	0.048
1039	0.048
1039	0.049
1039	0.049
1040	0.049
1040	0.05
1041	0.051
1041	0.051
1041	0.051
1042	0.051
1042	0.05
1043	0.05
1043	0.049
1044	0.049
1044	0.048
1044	0.047
1045	0.046
1045	0.045
1046	0.044
1046	0.044
1046	0.043
1047	0.043
1047	0.043
1048	0.043
1048	0.043
1049	0.043
1049	0.043
1049	0.044
1050	0.044
1050	0.044
1051	0.044
1051	0.045
1051	0.045
1052	0.046
1052	0.046
1053	0.046
1053	0.046
1053	0.046
1054	0.046
1054	0.046
1055	0.046
1055	0.046
1056	0.045
1056	0.044
1056	0.043
1057	0.042
1057	0.042
1058	0.041
1058	0.041
1058	0.04
1059	0.04
1059	0.039
1060	0.038
1060	0.037
1061	0.036
1061	0.036
1061	0.036
1062	0.036
1062	0.035
1063	0.035
1063	0.035
1063	0.035
1064	0.036
1064	0.035
1065	0.035
1065	0.035
1066	0.035
1066	0.035
1066	0.034
1067	0.034
1067	0.034
1068	0.033
1068	0.033
1068	0.032
1069	0.032
1069	0.032
1070	0.031
1070	0.031
1071	0.031
1071	0.031
1071	0.03
1072	0.03
1072	0.029
1073	0.029
1073	0.029
1073	0.028
1074	0.029
1074	0.029
1075	0.028
1075	0.028
1076	0.027
1076	0.027
1076	0.026
1077	0.026
1077	0.025
1078	0.025
1078	0.024
1078	0.023
1079	0.022
1079	0.021
1080	0.02
1080	0.02
1080	0.019
1081	0.018
1081	0.018
1082	0.017
1082	0.016
1083	0.016
1083	0.014
1083	0.014
1084	0.013
1084	0.012
1085	0.011
1085	0.01
1085	0.01
1086	0.01
1086	0.008
1087	0.008
1087	0.008
1088	0.007
1088	0.006
1088	0.005
1089	0.004
1089	0.003
1090	0.001
1090	0.001
1090	-0.001
1091	-0.002
1091	-0.002
1092	-0.004
1092	-0.003
1092	-0.005
1093	-0.006
1093	-0.005
1094	-0.005
1094	-0.005
1095	-0.007
1095	-0.007
1095	-0.007
1096	-0.008
1096	-0.009
1097	-0.009
1097	-0.01
1097	-0.01
1098	-0.013
1098	-0.015
1099	-0.016
1099	-0.017
1100	-0.019
1100	-0.021
1100	-0.024
1101	-0.026
1101	-0.03
1102	-0.031
1102	-0.033
1102	-0.035
1103	-0.037
1103	-0.04
1104	-0.043
1104	-0.045
1104	-0.047
1105	-0.05
1105	-0.054
1106	-0.059
1106	-0.062
1107	-0.067
1107	-0.071
1107	-0.077
1108	-0.078
1108	-0.081
1109	-0.084
1109	-0.09
1109	-0.093
1110	-0.092
1110	-0.095
1111	-0.102
1111	-0.103
