Data from 17C_3.1A_35min_2sec_int_Absorbance__40__02443.txt Node

Date: Mon Jun 19 18:16:29 CEST 2023
User: Marek
Spectrometer: MAYP115816
Trigger mode: 0
Integration Time (sec): 2.500000E-1
Scans to average: 10
Electric dark correction enabled: true
Nonlinearity correction enabled: true
Boxcar width: 5
XAxis mode: Wavelengths
Number of Pixels in Spectrum: 2068
>>>>>Begin Spectral Data<<<<<
199	-0.756
199	-0.769
200	-0.666
200	-0.613
201	-0.576
201	-0.563
202	-0.545
202	-0.532
203	-0.522
203	-0.518
204	-0.503
204	-0.487
205	-0.463
205	-0.459
205	-0.457
206	-0.461
206	-0.461
207	-0.451
207	-0.454
208	-0.456
208	-0.455
209	-0.45
209	-0.453
210	-0.456
210	-0.462
211	-0.464
211	-0.465
212	-0.469
212	-0.479
213	-0.476
213	-0.477
213	-0.481
214	-0.476
214	-0.476
215	-0.476
215	-0.481
216	-0.483
216	-0.49
217	-0.485
217	-0.488
218	-0.492
218	-0.491
219	-0.497
219	-0.507
220	-0.513
220	-0.522
221	-0.52
221	-0.523
221	-0.516
222	-0.514
222	-0.516
223	-0.519
223	-0.525
224	-0.529
224	-0.529
225	-0.524
225	-0.517
226	-0.524
226	-0.523
227	-0.53
227	-0.536
228	-0.537
228	-0.54
229	-0.539
229	-0.531
229	-0.526
230	-0.529
230	-0.532
231	-0.526
231	-0.52
232	-0.514
232	-0.515
233	-0.506
233	-0.504
234	-0.503
234	-0.5
235	-0.503
235	-0.51
236	-0.511
236	-0.514
236	-0.519
237	-0.525
237	-0.527
238	-0.537
238	-0.535
239	-0.535
239	-0.545
240	-0.544
240	-0.541
241	-0.546
241	-0.545
242	-0.55
242	-0.545
243	-0.541
243	-0.543
243	-0.552
244	-0.551
244	-0.55
245	-0.564
245	-0.564
246	-0.566
246	-0.57
247	-0.574
247	-0.58
248	-0.587
248	-0.584
249	-0.584
249	-0.595
250	-0.593
250	-0.589
250	-0.588
251	-0.584
251	-0.584
252	-0.583
252	-0.571
253	-0.575
253	-0.584
254	-0.582
254	-0.577
255	-0.587
255	-0.578
256	-0.577
256	-0.59
257	-0.587
257	-0.585
258	-0.602
258	-0.598
258	-0.595
259	-0.592
259	-0.603
260	-0.603
260	-0.607
261	-0.617
261	-0.607
262	-0.605
262	-0.605
263	-0.595
263	-0.592
264	-0.589
264	-0.599
265	-0.59
265	-0.6
265	-0.605
266	-0.603
266	-0.6
267	-0.615
267	-0.623
268	-0.637
268	-0.646
269	-0.646
269	-0.641
270	-0.646
270	-0.646
271	-0.645
271	-0.65
272	-0.654
272	-0.646
272	-0.638
273	-0.638
273	-0.646
274	-0.652
274	-0.656
275	-0.657
275	-0.65
276	-0.656
276	-0.648
277	-0.653
277	-0.671
278	-0.685
278	-0.678
278	-0.671
279	-0.673
279	-0.684
280	-0.681
280	-0.682
281	-0.676
281	-0.684
282	-0.676
282	-0.677
283	-0.666
283	-0.668
284	-0.664
284	-0.651
285	-0.646
285	-0.645
285	-0.642
286	-0.65
286	-0.644
287	-0.643
287	-0.626
288	-0.618
288	-0.626
289	-0.638
289	-0.649
290	-0.637
290	-0.636
291	-0.631
291	-0.624
292	-0.628
292	-0.632
292	-0.636
293	-0.644
293	-0.634
294	-0.623
294	-0.613
295	-0.611
295	-0.608
296	-0.607
296	-0.605
297	-0.599
297	-0.583
298	-0.577
298	-0.585
298	-0.573
299	-0.567
299	-0.568
300	-0.565
300	-0.561
301	-0.558
301	-0.556
302	-0.563
302	-0.572
303	-0.56
303	-0.545
304	-0.548
304	-0.547
305	-0.547
305	-0.546
305	-0.542
306	-0.526
306	-0.519
307	-0.506
307	-0.508
308	-0.521
308	-0.518
309	-0.519
309	-0.509
310	-0.498
310	-0.494
311	-0.485
311	-0.492
311	-0.488
312	-0.483
312	-0.482
313	-0.467
313	-0.468
314	-0.466
314	-0.468
315	-0.468
315	-0.466
316	-0.462
316	-0.453
317	-0.446
317	-0.442
318	-0.43
318	-0.428
318	-0.424
319	-0.413
319	-0.408
320	-0.4
320	-0.401
321	-0.406
321	-0.405
322	-0.399
322	-0.391
323	-0.392
323	-0.385
324	-0.376
324	-0.366
324	-0.358
325	-0.348
325	-0.329
326	-0.316
326	-0.297
327	-0.28
327	-0.26
328	-0.231
328	-0.21
329	-0.183
329	-0.155
330	-0.123
330	-0.087
330	-0.056
331	-0.021
331	0.01
332	0.04
332	0.067
333	0.094
333	0.124
334	0.148
334	0.169
335	0.19
335	0.209
336	0.228
336	0.245
336	0.258
337	0.274
337	0.286
338	0.297
338	0.305
339	0.316
339	0.325
340	0.331
340	0.337
341	0.342
341	0.347
342	0.352
342	0.355
342	0.359
343	0.362
343	0.366
344	0.368
344	0.369
345	0.371
345	0.373
346	0.375
346	0.376
347	0.377
347	0.378
348	0.379
348	0.38
348	0.38
349	0.38
349	0.381
350	0.381
350	0.382
351	0.382
351	0.382
352	0.382
352	0.381
353	0.381
353	0.381
354	0.381
354	0.38
354	0.38
355	0.38
355	0.379
356	0.379
356	0.379
357	0.377
357	0.377
358	0.376
358	0.376
359	0.376
359	0.376
360	0.376
360	0.375
360	0.375
361	0.375
361	0.375
362	0.375
362	0.375
363	0.375
363	0.375
364	0.374
364	0.374
365	0.374
365	0.373
366	0.373
366	0.373
366	0.373
367	0.373
367	0.372
368	0.372
368	0.372
369	0.371
369	0.371
370	0.371
370	0.37
371	0.37
371	0.37
372	0.369
372	0.369
372	0.369
373	0.369
373	0.368
374	0.368
374	0.367
375	0.367
375	0.367
376	0.366
376	0.366
377	0.365
377	0.365
378	0.365
378	0.364
378	0.364
379	0.363
379	0.363
380	0.363
380	0.362
381	0.362
381	0.361
382	0.36
382	0.36
383	0.359
383	0.359
383	0.359
384	0.358
384	0.358
385	0.357
385	0.357
386	0.357
386	0.356
387	0.356
387	0.356
388	0.355
388	0.355
389	0.354
389	0.354
389	0.354
390	0.354
390	0.354
391	0.353
391	0.353
392	0.352
392	0.352
393	0.351
393	0.351
394	0.351
394	0.35
394	0.349
395	0.349
395	0.348
396	0.348
396	0.347
397	0.347
397	0.346
398	0.346
398	0.346
399	0.345
399	0.345
400	0.345
400	0.345
400	0.344
401	0.344
401	0.343
402	0.343
402	0.343
403	0.342
403	0.342
404	0.342
404	0.341
405	0.341
405	0.341
405	0.34
406	0.34
406	0.339
407	0.339
407	0.339
408	0.338
408	0.338
409	0.338
409	0.338
410	0.337
410	0.337
411	0.337
411	0.337
411	0.337
412	0.337
412	0.336
413	0.336
413	0.336
414	0.336
414	0.335
415	0.335
415	0.334
416	0.334
416	0.334
416	0.333
417	0.333
417	0.333
418	0.333
418	0.333
419	0.333
419	0.333
420	0.332
420	0.333
421	0.332
421	0.332
421	0.332
422	0.332
422	0.332
423	0.332
423	0.332
424	0.331
424	0.331
425	0.33
425	0.33
426	0.329
426	0.329
427	0.329
427	0.329
427	0.329
428	0.328
428	0.328
429	0.328
429	0.328
430	0.328
430	0.328
431	0.328
431	0.327
432	0.327
432	0.327
432	0.327
433	0.327
433	0.327
434	0.327
434	0.327
435	0.327
435	0.326
436	0.326
436	0.326
437	0.326
437	0.326
437	0.326
438	0.326
438	0.326
439	0.326
439	0.326
440	0.326
440	0.326
441	0.326
441	0.326
442	0.326
442	0.326
442	0.326
443	0.326
443	0.326
444	0.326
444	0.326
445	0.326
445	0.326
446	0.326
446	0.326
447	0.327
447	0.327
447	0.327
448	0.327
448	0.327
449	0.327
449	0.328
450	0.328
450	0.328
451	0.328
451	0.328
452	0.329
452	0.329
452	0.329
453	0.329
453	0.329
454	0.329
454	0.329
455	0.329
455	0.329
456	0.329
456	0.329
457	0.33
457	0.33
458	0.33
458	0.331
458	0.331
459	0.332
459	0.332
460	0.332
460	0.333
461	0.333
461	0.334
462	0.334
462	0.335
463	0.335
463	0.336
463	0.336
464	0.337
464	0.337
465	0.338
465	0.338
466	0.339
466	0.34
467	0.34
467	0.34
467	0.341
468	0.341
468	0.342
469	0.343
469	0.344
470	0.345
470	0.345
471	0.346
471	0.347
472	0.348
472	0.348
472	0.35
473	0.351
473	0.352
474	0.353
474	0.353
475	0.355
475	0.356
476	0.357
476	0.358
477	0.358
477	0.36
477	0.361
478	0.362
478	0.363
479	0.365
479	0.366
480	0.367
480	0.369
481	0.37
481	0.372
482	0.373
482	0.375
482	0.376
483	0.378
483	0.38
484	0.381
484	0.382
485	0.384
485	0.386
486	0.387
486	0.389
487	0.391
487	0.393
487	0.395
488	0.397
488	0.399
489	0.401
489	0.405
490	0.407
490	0.41
491	0.412
491	0.415
492	0.418
492	0.42
492	0.423
493	0.425
493	0.428
494	0.431
494	0.434
495	0.436
495	0.439
496	0.442
496	0.445
496	0.448
497	0.452
497	0.455
498	0.458
498	0.461
499	0.464
499	0.468
500	0.472
500	0.476
501	0.479
501	0.482
501	0.486
502	0.489
502	0.492
503	0.496
503	0.499
504	0.502
504	0.506
505	0.51
505	0.513
506	0.517
506	0.52
506	0.524
507	0.527
507	0.531
508	0.534
508	0.538
509	0.542
509	0.545
510	0.549
510	0.552
511	0.556
511	0.559
511	0.563
512	0.567
512	0.57
513	0.573
513	0.577
514	0.58
514	0.584
515	0.586
515	0.59
515	0.593
516	0.596
516	0.599
517	0.602
517	0.605
518	0.607
518	0.609
519	0.612
519	0.614
520	0.617
520	0.62
520	0.622
521	0.624
521	0.626
522	0.628
522	0.63
523	0.632
523	0.634
524	0.635
524	0.636
524	0.637
525	0.638
525	0.638
526	0.639
526	0.64
527	0.64
527	0.64
528	0.64
528	0.64
529	0.64
529	0.64
529	0.641
530	0.641
530	0.64
531	0.64
531	0.639
532	0.638
532	0.637
533	0.636
533	0.634
533	0.633
534	0.631
534	0.628
535	0.626
535	0.624
536	0.621
536	0.618
537	0.616
537	0.613
538	0.61
538	0.608
538	0.605
539	0.603
539	0.6
540	0.597
540	0.594
541	0.591
541	0.588
542	0.584
542	0.58
542	0.576
543	0.572
543	0.568
544	0.563
544	0.559
545	0.555
545	0.551
546	0.547
546	0.543
547	0.538
547	0.533
547	0.53
548	0.526
548	0.522
549	0.518
549	0.513
550	0.509
550	0.504
551	0.5
551	0.496
551	0.492
552	0.487
552	0.483
553	0.48
553	0.475
554	0.471
554	0.466
555	0.461
555	0.457
556	0.452
556	0.447
556	0.443
557	0.438
557	0.434
558	0.428
558	0.423
559	0.418
559	0.413
560	0.408
560	0.403
560	0.399
561	0.395
561	0.39
562	0.385
562	0.381
563	0.376
563	0.372
564	0.368
564	0.364
564	0.36
565	0.356
565	0.352
566	0.348
566	0.343
567	0.339
567	0.335
568	0.33
568	0.326
568	0.321
569	0.317
569	0.312
570	0.308
570	0.303
571	0.3
571	0.296
572	0.292
572	0.288
573	0.285
573	0.281
573	0.277
574	0.274
574	0.271
575	0.268
575	0.265
576	0.262
576	0.258
577	0.254
577	0.252
577	0.249
578	0.247
578	0.244
579	0.242
579	0.239
580	0.235
580	0.231
581	0.227
581	0.224
581	0.222
582	0.22
582	0.218
583	0.216
583	0.213
584	0.209
584	0.206
585	0.204
585	0.203
585	0.2
586	0.198
586	0.196
587	0.194
587	0.191
588	0.189
588	0.186
589	0.184
589	0.182
590	0.18
590	0.178
590	0.177
591	0.175
591	0.172
592	0.169
592	0.167
593	0.165
593	0.164
594	0.162
594	0.16
594	0.159
595	0.157
595	0.155
596	0.153
596	0.153
597	0.152
597	0.15
598	0.148
598	0.147
598	0.145
599	0.143
599	0.141
600	0.139
600	0.137
601	0.136
601	0.134
602	0.131
602	0.13
602	0.128
603	0.127
603	0.127
604	0.126
604	0.126
605	0.125
605	0.125
606	0.123
606	0.122
606	0.12
607	0.119
607	0.118
608	0.116
608	0.114
609	0.113
609	0.112
610	0.111
610	0.11
610	0.109
611	0.109
611	0.109
612	0.109
612	0.11
613	0.109
613	0.109
614	0.107
614	0.106
614	0.105
615	0.103
615	0.102
616	0.101
616	0.1
617	0.098
617	0.096
618	0.095
618	0.094
618	0.094
619	0.094
619	0.094
620	0.094
620	0.093
621	0.092
621	0.092
622	0.091
622	0.091
622	0.09
623	0.089
623	0.089
624	0.089
624	0.088
625	0.087
625	0.087
626	0.086
626	0.086
626	0.086
627	0.086
627	0.085
628	0.084
628	0.084
629	0.083
629	0.081
630	0.08
630	0.079
630	0.078
631	0.077
631	0.076
632	0.075
632	0.074
633	0.073
633	0.072
634	0.071
634	0.071
634	0.07
635	0.069
635	0.067
636	0.066
636	0.065
637	0.063
637	0.062
638	0.06
638	0.058
638	0.056
639	0.054
639	0.052
640	0.051
640	0.049
641	0.047
641	0.045
642	0.043
642	0.041
642	0.039
643	0.037
643	0.034
644	0.032
644	0.029
645	0.026
645	0.024
646	0.021
646	0.018
646	0.015
647	0.012
647	0.009
648	0.006
648	0.003
649	-0
649	-0.004
650	-0.008
650	-0.012
650	-0.017
651	-0.023
651	-0.03
652	-0.037
652	-0.045
653	-0.051
653	-0.057
653	-0.054
654	-0.049
654	-0.049
655	-0.053
655	-0.057
656	-0.06
656	-0.064
657	-0.067
657	-0.07
657	-0.075
658	-0.079
658	-0.096
659	-0.142
659	-0.191
660	-0.216
660	-0.232
661	-0.25
661	-0.269
661	-0.289
662	-0.307
662	-0.325
663	-0.344
663	-0.368
664	-0.39
664	-0.419
665	-0.445
665	-0.477
665	-0.506
666	-0.536
666	-0.572
667	-0.609
667	-0.65
668	-0.7
668	-0.753
669	-0.807
669	-0.861
669	-0.92
670	-0.972
670	-1.08
671	-1.374
671	-1.77
672	-2.079
672	-2.307
672	-2.458
673	-2.558
673	-2.586
674	-2.604
674	-2.618
675	-2.643
675	-2.783
676	-2.977
676	-2.921
676	-2.66
677	-2.393
677	-2.1
678	-1.523
678	-1.164
679	-1.028
679	-0.954
680	-0.903
680	-0.857
680	-0.821
681	-0.809
681	-0.779
682	-0.767
682	-0.751
683	-0.736
683	-0.743
684	-0.744
684	-0.744
684	-0.741
685	-0.737
685	-0.732
686	-0.72
686	-0.718
687	-0.705
687	-0.709
687	-0.701
688	-0.686
688	-0.676
689	-0.666
689	-0.658
690	-0.646
690	-0.641
691	-0.64
691	-0.649
691	-0.672
692	-0.666
692	-0.664
693	-0.665
693	-0.678
694	-0.677
694	-0.674
695	-0.685
695	-0.685
695	-0.674
696	-0.675
696	-0.654
697	-0.659
697	-0.676
698	-0.682
698	-0.676
698	-0.693
699	-0.697
699	-0.695
700	-0.692
700	-0.709
701	-0.711
701	-0.721
702	-0.723
702	-0.714
702	-0.707
703	-0.698
703	-0.689
704	-0.687
704	-0.687
705	-0.7
705	-0.692
705	-0.681
706	-0.68
706	-0.677
707	-0.684
707	-0.68
708	-0.683
708	-0.676
709	-0.681
709	-0.686
709	-0.677
710	-0.686
710	-0.696
711	-0.69
711	-0.691
712	-0.69
712	-0.703
713	-0.702
713	-0.71
713	-0.7
714	-0.696
714	-0.7
715	-0.692
715	-0.678
716	-0.687
716	-0.691
716	-0.684
717	-0.685
717	-0.688
718	-0.68
718	-0.683
719	-0.69
719	-0.69
720	-0.686
720	-0.698
720	-0.69
721	-0.678
721	-0.678
722	-0.667
722	-0.659
723	-0.657
723	-0.661
723	-0.65
724	-0.653
724	-0.659
725	-0.657
725	-0.666
726	-0.681
726	-0.687
727	-0.692
727	-0.705
727	-0.715
728	-0.716
728	-0.722
729	-0.721
729	-0.726
730	-0.736
730	-0.729
730	-0.718
731	-0.699
731	-0.711
732	-0.716
732	-0.715
733	-0.715
733	-0.72
734	-0.715
734	-0.715
734	-0.701
735	-0.7
735	-0.702
736	-0.714
736	-0.699
737	-0.691
737	-0.694
737	-0.703
738	-0.697
738	-0.698
739	-0.698
739	-0.712
740	-0.713
740	-0.713
741	-0.71
741	-0.712
741	-0.717
742	-0.714
742	-0.714
743	-0.721
743	-0.725
744	-0.72
744	-0.709
744	-0.708
745	-0.715
745	-0.709
746	-0.707
746	-0.703
747	-0.706
747	-0.693
748	-0.681
748	-0.687
748	-0.691
749	-0.689
749	-0.692
750	-0.681
750	-0.683
751	-0.688
751	-0.697
751	-0.7
752	-0.705
752	-0.716
753	-0.71
753	-0.705
754	-0.709
754	-0.701
754	-0.714
755	-0.729
755	-0.741
756	-0.731
756	-0.726
757	-0.724
757	-0.719
758	-0.72
758	-0.721
758	-0.725
759	-0.734
759	-0.718
760	-0.711
760	-0.703
761	-0.713
761	-0.711
761	-0.712
762	-0.721
762	-0.719
763	-0.729
763	-0.726
764	-0.722
764	-0.73
764	-0.737
765	-0.729
765	-0.714
766	-0.723
766	-0.728
767	-0.744
767	-0.739
768	-0.727
768	-0.735
768	-0.739
769	-0.756
769	-0.757
770	-0.761
770	-0.773
771	-0.771
771	-0.773
771	-0.771
772	-0.775
772	-0.776
773	-0.776
773	-0.773
774	-0.771
774	-0.773
775	-0.775
775	-0.773
775	-0.78
776	-0.779
776	-0.769
777	-0.776
777	-0.797
778	-0.793
778	-0.811
778	-0.798
779	-0.817
779	-0.825
780	-0.837
780	-0.833
781	-0.845
781	-0.841
781	-0.856
782	-0.855
782	-0.857
783	-0.843
783	-0.842
784	-0.825
784	-0.815
784	-0.824
785	-0.833
785	-0.819
786	-0.825
786	-0.804
787	-0.79
787	-0.793
788	-0.798
788	-0.81
788	-0.82
789	-0.822
789	-0.803
790	-0.785
790	-0.787
791	-0.788
791	-0.807
791	-0.814
792	-0.807
792	-0.781
793	-0.772
793	-0.749
794	-0.755
794	-0.749
794	-0.757
795	-0.754
795	-0.748
796	-0.733
796	-0.742
797	-0.735
797	-0.749
797	-0.755
798	-0.77
798	-0.759
799	-0.769
799	-0.754
800	-0.762
800	-0.755
801	-0.758
801	-0.743
801	-0.756
802	-0.764
802	-0.763
803	-0.764
803	-0.776
804	-0.77
804	-0.782
804	-0.767
805	-0.774
805	-0.762
806	-0.765
806	-0.75
807	-0.75
807	-0.732
807	-0.719
808	-0.709
808	-0.705
809	-0.69
809	-0.7
810	-0.696
810	-0.691
810	-0.688
811	-0.693
811	-0.684
812	-0.687
812	-0.691
813	-0.695
813	-0.691
813	-0.696
814	-0.698
814	-0.701
815	-0.705
815	-0.708
816	-0.7
816	-0.704
817	-0.711
817	-0.727
817	-0.742
818	-0.748
818	-0.752
819	-0.743
819	-0.743
820	-0.754
820	-0.753
820	-0.764
821	-0.763
821	-0.75
822	-0.72
822	-0.697
823	-0.695
823	-0.698
823	-0.694
824	-0.687
824	-0.691
825	-0.684
825	-0.665
826	-0.661
826	-0.668
826	-0.679
827	-0.674
827	-0.669
828	-0.649
828	-0.65
829	-0.642
829	-0.627
829	-0.616
830	-0.625
830	-0.62
831	-0.613
831	-0.602
832	-0.603
832	-0.594
832	-0.604
833	-0.599
833	-0.601
834	-0.598
834	-0.607
835	-0.596
835	-0.592
835	-0.587
836	-0.585
836	-0.583
837	-0.582
837	-0.571
838	-0.562
838	-0.55
839	-0.538
839	-0.528
839	-0.518
840	-0.508
840	-0.507
841	-0.495
841	-0.484
842	-0.479
842	-0.471
842	-0.465
843	-0.46
843	-0.456
844	-0.446
844	-0.438
845	-0.431
845	-0.42
845	-0.408
846	-0.398
846	-0.385
847	-0.373
847	-0.363
848	-0.35
848	-0.34
848	-0.325
849	-0.317
849	-0.307
850	-0.294
850	-0.287
851	-0.28
851	-0.271
851	-0.265
852	-0.249
852	-0.238
853	-0.231
853	-0.226
854	-0.215
854	-0.205
854	-0.196
855	-0.187
855	-0.181
856	-0.171
856	-0.163
857	-0.158
857	-0.152
857	-0.141
858	-0.131
858	-0.126
859	-0.119
859	-0.109
860	-0.101
860	-0.09
860	-0.083
861	-0.076
861	-0.069
862	-0.063
862	-0.057
863	-0.051
863	-0.043
863	-0.038
864	-0.034
864	-0.029
865	-0.024
865	-0.02
866	-0.016
866	-0.014
866	-0.011
867	-0.007
867	-0.004
868	-0.002
868	0.001
869	0.003
869	0.005
869	0.006
870	0.008
870	0.01
871	0.013
871	0.014
872	0.015
872	0.016
872	0.017
873	0.017
873	0.018
874	0.018
874	0.017
875	0.017
875	0.016
875	0.015
876	0.014
876	0.013
877	0.012
877	0.011
878	0.01
878	0.009
878	0.007
879	0.006
879	0.005
880	0.005
880	0.005
881	0.005
881	0.005
881	0.005
882	0.004
882	0.003
883	0.002
883	0.001
884	0
884	-0.001
884	-0.001
885	-0.002
885	-0.003
886	-0.003
886	-0.003
887	-0.004
887	-0.003
887	-0.003
888	-0.002
888	-0.002
889	-0.001
889	-0.001
890	-0.001
890	-0.001
890	-0.001
891	-0.001
891	-0
892	0
892	0
893	0.001
893	0.001
893	0.001
894	0.001
894	0.001
895	0.001
895	0.001
895	0.001
896	-0.001
896	-0.001
897	-0.002
897	-0.003
898	-0.004
898	-0.005
898	-0.005
899	-0.006
899	-0.005
900	-0.005
900	-0.005
901	-0.004
901	-0.004
901	-0.003
902	-0.002
902	-0.001
903	-0
903	0
904	0.001
904	0.002
904	0.002
905	0.003
905	0.004
906	0.004
906	0.004
907	0.004
907	0.004
907	0.004
908	0.003
908	0.003
909	0.002
909	0.001
910	0.001
910	0.001
910	0.001
911	0.001
911	0.002
912	0.003
912	0.003
913	0.004
913	0.005
913	0.007
914	0.008
914	0.009
915	0.01
915	0.011
916	0.011
916	0.012
916	0.012
917	0.012
917	0.013
918	0.013
918	0.012
918	0.012
919	0.012
919	0.012
920	0.012
920	0.011
921	0.011
921	0.011
921	0.011
922	0.011
922	0.011
923	0.01
923	0.01
924	0.01
924	0.009
924	0.009
925	0.008
925	0.007
926	0.007
926	0.006
927	0.005
927	0.004
927	0.004
928	0.003
928	0.003
929	0.002
929	0.001
930	0.001
930	-0
930	-0.001
931	-0.001
931	-0.002
932	-0.002
932	-0.003
933	-0.004
933	-0.005
933	-0.006
934	-0.007
934	-0.008
935	-0.008
935	-0.009
935	-0.01
936	-0.011
936	-0.011
937	-0.012
937	-0.012
938	-0.012
938	-0.012
938	-0.012
939	-0.012
939	-0.011
940	-0.011
940	-0.011
941	-0.01
941	-0.009
941	-0.008
942	-0.007
942	-0.007
943	-0.007
943	-0.007
944	-0.007
944	-0.007
944	-0.008
945	-0.008
945	-0.009
946	-0.01
946	-0.011
946	-0.011
947	-0.012
947	-0.012
948	-0.012
948	-0.012
949	-0.012
949	-0.012
949	-0.011
950	-0.011
950	-0.01
951	-0.009
951	-0.009
952	-0.008
952	-0.007
952	-0.006
953	-0.005
953	-0.003
954	-0.003
954	-0.002
955	-0.001
955	0
955	0.001
956	0.002
956	0.003
957	0.003
957	0.003
957	0.004
958	0.004
958	0.005
959	0.005
959	0.005
960	0.005
960	0.005
960	0.006
961	0.006
961	0.006
962	0.006
962	0.006
963	0.006
963	0.006
963	0.006
964	0.006
964	0.007
965	0.007
965	0.007
966	0.007
966	0.006
966	0.006
967	0.005
967	0.005
968	0.004
968	0.004
968	0.003
969	0.003
969	0.002
970	0.002
970	0.002
971	0.002
971	0.003
971	0.003
972	0.003
972	0.004
973	0.004
973	0.004
974	0.004
974	0.004
974	0.004
975	0.004
975	0.004
976	0.003
976	0.003
976	0.003
977	0.003
977	0.003
978	0.003
978	0.003
979	0.003
979	0.003
979	0.003
980	0.003
980	0.003
981	0.003
981	0.003
982	0.003
982	0.003
982	0.002
983	0.002
983	0.001
984	0.001
984	0.001
984	0.001
985	0.001
985	0.001
986	0.001
986	0
987	-0
987	-0.001
987	-0.001
988	-0.002
988	-0.002
989	-0.003
989	-0.004
990	-0.005
990	-0.005
990	-0.006
991	-0.006
991	-0.006
992	-0.006
992	-0.006
992	-0.007
993	-0.007
993	-0.007
994	-0.007
994	-0.007
995	-0.007
995	-0.008
995	-0.008
996	-0.008
996	-0.009
997	-0.009
997	-0.009
997	-0.01
998	-0.01
998	-0.01
999	-0.009
999	-0.009
1000	-0.009
1000	-0.008
1000	-0.008
1001	-0.007
1001	-0.006
1002	-0.006
1002	-0.006
1003	-0.006
1003	-0.005
1003	-0.006
1004	-0.006
1004	-0.006
1005	-0.006
1005	-0.007
1005	-0.008
1006	-0.009
1006	-0.01
1007	-0.011
1007	-0.012
1008	-0.013
1008	-0.013
1008	-0.014
1009	-0.014
1009	-0.014
1010	-0.014
1010	-0.014
1010	-0.013
1011	-0.013
1011	-0.013
1012	-0.013
1012	-0.013
1013	-0.014
1013	-0.015
1013	-0.015
1014	-0.016
1014	-0.016
1015	-0.017
1015	-0.018
1016	-0.019
1016	-0.019
1016	-0.02
1017	-0.021
1017	-0.022
1018	-0.022
1018	-0.023
1018	-0.024
1019	-0.024
1019	-0.025
1020	-0.026
1020	-0.026
1021	-0.027
1021	-0.027
1021	-0.028
1022	-0.028
1022	-0.029
1023	-0.029
1023	-0.029
1023	-0.029
1024	-0.029
1024	-0.029
1025	-0.029
1025	-0.029
1026	-0.029
1026	-0.028
1026	-0.028
1027	-0.027
1027	-0.027
1028	-0.027
1028	-0.027
1028	-0.027
1029	-0.027
1029	-0.027
1030	-0.028
1030	-0.029
1031	-0.029
1031	-0.029
1031	-0.03
1032	-0.03
1032	-0.03
1033	-0.03
1033	-0.029
1033	-0.029
1034	-0.029
1034	-0.029
1035	-0.029
1035	-0.029
1036	-0.029
1036	-0.029
1036	-0.029
1037	-0.029
1037	-0.029
1038	-0.029
1038	-0.029
1039	-0.029
1039	-0.028
1039	-0.028
1040	-0.027
1040	-0.026
1041	-0.026
1041	-0.026
1041	-0.025
1042	-0.026
1042	-0.026
1043	-0.026
1043	-0.026
1044	-0.027
1044	-0.028
1044	-0.029
1045	-0.03
1045	-0.03
1046	-0.031
1046	-0.032
1046	-0.032
1047	-0.032
1047	-0.032
1048	-0.032
1048	-0.031
1049	-0.031
1049	-0.031
1049	-0.03
1050	-0.03
1050	-0.03
1051	-0.03
1051	-0.029
1051	-0.029
1052	-0.029
1052	-0.028
1053	-0.028
1053	-0.028
1053	-0.028
1054	-0.028
1054	-0.028
1055	-0.028
1055	-0.028
1056	-0.028
1056	-0.029
1056	-0.03
1057	-0.031
1057	-0.031
1058	-0.031
1058	-0.032
1058	-0.032
1059	-0.033
1059	-0.033
1060	-0.034
1060	-0.034
1061	-0.034
1061	-0.035
1061	-0.034
1062	-0.034
1062	-0.035
1063	-0.035
1063	-0.035
1063	-0.035
1064	-0.034
1064	-0.034
1065	-0.034
1065	-0.034
1066	-0.034
1066	-0.035
1066	-0.035
1067	-0.034
1067	-0.035
1068	-0.035
1068	-0.035
1068	-0.036
1069	-0.036
1069	-0.037
1070	-0.037
1070	-0.037
1071	-0.037
1071	-0.037
1071	-0.038
1072	-0.038
1072	-0.039
1073	-0.039
1073	-0.039
1073	-0.039
1074	-0.039
1074	-0.038
1075	-0.039
1075	-0.039
1076	-0.04
1076	-0.04
1076	-0.04
1077	-0.04
1077	-0.041
1078	-0.042
1078	-0.042
1078	-0.043
1079	-0.044
1079	-0.045
1080	-0.046
1080	-0.046
1080	-0.047
1081	-0.047
1081	-0.047
1082	-0.048
1082	-0.049
1083	-0.05
1083	-0.051
1083	-0.051
1084	-0.052
1084	-0.052
1085	-0.053
1085	-0.054
1085	-0.055
1086	-0.055
1086	-0.056
1087	-0.056
1087	-0.056
1088	-0.057
1088	-0.057
1088	-0.058
1089	-0.058
1089	-0.059
1090	-0.06
1090	-0.061
1090	-0.062
1091	-0.063
1091	-0.063
1092	-0.064
1092	-0.064
1092	-0.065
1093	-0.066
1093	-0.066
1094	-0.066
1094	-0.067
1095	-0.067
1095	-0.067
1095	-0.068
1096	-0.069
1096	-0.07
1097	-0.07
1097	-0.071
1097	-0.072
1098	-0.073
1098	-0.074
1099	-0.074
1099	-0.075
1100	-0.076
1100	-0.077
1100	-0.079
1101	-0.081
1101	-0.084
1102	-0.085
1102	-0.087
1102	-0.088
1103	-0.09
1103	-0.092
1104	-0.094
1104	-0.096
1104	-0.099
1105	-0.101
1105	-0.104
1106	-0.108
1106	-0.109
1107	-0.114
1107	-0.119
1107	-0.123
1108	-0.126
1108	-0.128
1109	-0.132
1109	-0.134
1109	-0.139
1110	-0.139
1110	-0.143
1111	-0.153
1111	-0.152
