Data from 17C_3.1A_35min_2sec_int_Absorbance__645__03048.txt Node

Date: Mon Jun 19 18:41:42 CEST 2023
User: Marek
Spectrometer: MAYP115816
Trigger mode: 0
Integration Time (sec): 2.500000E-1
Scans to average: 10
Electric dark correction enabled: true
Nonlinearity correction enabled: true
Boxcar width: 5
XAxis mode: Wavelengths
Number of Pixels in Spectrum: 2068
>>>>>Begin Spectral Data<<<<<
199	-0.749
199	-0.756
200	-0.665
200	-0.613
201	-0.575
201	-0.562
202	-0.545
202	-0.532
203	-0.523
203	-0.518
204	-0.505
204	-0.491
205	-0.47
205	-0.462
205	-0.46
206	-0.463
206	-0.465
207	-0.456
207	-0.456
208	-0.46
208	-0.459
209	-0.454
209	-0.456
210	-0.461
210	-0.468
211	-0.47
211	-0.473
212	-0.475
212	-0.482
213	-0.483
213	-0.482
213	-0.489
214	-0.486
214	-0.485
215	-0.484
215	-0.489
216	-0.492
216	-0.497
217	-0.494
217	-0.499
218	-0.502
218	-0.503
219	-0.505
219	-0.512
220	-0.517
220	-0.527
221	-0.525
221	-0.529
221	-0.522
222	-0.519
222	-0.52
223	-0.52
223	-0.523
224	-0.527
224	-0.529
225	-0.525
225	-0.519
226	-0.525
226	-0.523
227	-0.53
227	-0.539
228	-0.539
228	-0.541
229	-0.542
229	-0.536
229	-0.531
230	-0.535
230	-0.536
231	-0.53
231	-0.521
232	-0.515
232	-0.514
233	-0.51
233	-0.509
234	-0.508
234	-0.505
235	-0.509
235	-0.513
236	-0.512
236	-0.516
236	-0.522
237	-0.528
237	-0.527
238	-0.535
238	-0.533
239	-0.534
239	-0.541
240	-0.541
240	-0.539
241	-0.545
241	-0.543
242	-0.55
242	-0.546
243	-0.543
243	-0.544
243	-0.553
244	-0.552
244	-0.551
245	-0.565
245	-0.566
246	-0.572
246	-0.577
247	-0.576
247	-0.581
248	-0.589
248	-0.586
249	-0.588
249	-0.595
250	-0.592
250	-0.588
250	-0.587
251	-0.582
251	-0.583
252	-0.588
252	-0.581
253	-0.584
253	-0.597
254	-0.598
254	-0.598
255	-0.607
255	-0.6
256	-0.595
256	-0.607
257	-0.604
257	-0.6
258	-0.615
258	-0.61
258	-0.605
259	-0.601
259	-0.609
260	-0.609
260	-0.614
261	-0.628
261	-0.618
262	-0.615
262	-0.616
263	-0.604
263	-0.6
264	-0.599
264	-0.607
265	-0.602
265	-0.61
265	-0.612
266	-0.609
266	-0.607
267	-0.62
267	-0.627
268	-0.644
268	-0.652
269	-0.65
269	-0.645
270	-0.649
270	-0.653
271	-0.655
271	-0.662
272	-0.666
272	-0.659
272	-0.654
273	-0.651
273	-0.661
274	-0.665
274	-0.668
275	-0.672
275	-0.663
276	-0.667
276	-0.66
277	-0.663
277	-0.682
278	-0.692
278	-0.687
278	-0.679
279	-0.684
279	-0.693
280	-0.687
280	-0.688
281	-0.683
281	-0.69
282	-0.682
282	-0.681
283	-0.671
283	-0.674
284	-0.672
284	-0.661
285	-0.658
285	-0.657
285	-0.654
286	-0.662
286	-0.657
287	-0.652
287	-0.64
288	-0.633
288	-0.642
289	-0.654
289	-0.664
290	-0.653
290	-0.652
291	-0.649
291	-0.643
292	-0.647
292	-0.655
292	-0.659
293	-0.663
293	-0.652
294	-0.64
294	-0.631
295	-0.629
295	-0.625
296	-0.623
296	-0.621
297	-0.616
297	-0.601
298	-0.593
298	-0.602
298	-0.59
299	-0.584
299	-0.584
300	-0.58
300	-0.578
301	-0.575
301	-0.572
302	-0.58
302	-0.586
303	-0.573
303	-0.558
304	-0.561
304	-0.56
305	-0.562
305	-0.56
305	-0.556
306	-0.539
306	-0.534
307	-0.52
307	-0.523
308	-0.538
308	-0.536
309	-0.538
309	-0.529
310	-0.516
310	-0.514
311	-0.506
311	-0.516
311	-0.511
312	-0.506
312	-0.503
313	-0.488
313	-0.49
314	-0.487
314	-0.489
315	-0.491
315	-0.488
316	-0.485
316	-0.476
317	-0.47
317	-0.466
318	-0.456
318	-0.454
318	-0.447
319	-0.436
319	-0.431
320	-0.424
320	-0.426
321	-0.432
321	-0.43
322	-0.426
322	-0.42
323	-0.42
323	-0.413
324	-0.408
324	-0.402
324	-0.394
325	-0.384
325	-0.367
326	-0.352
326	-0.335
327	-0.318
327	-0.299
328	-0.274
328	-0.255
329	-0.232
329	-0.21
330	-0.183
330	-0.151
330	-0.125
331	-0.098
331	-0.073
332	-0.05
332	-0.028
333	-0.007
333	0.017
334	0.037
334	0.053
335	0.07
335	0.083
336	0.095
336	0.108
336	0.117
337	0.127
337	0.136
338	0.143
338	0.147
339	0.155
339	0.16
340	0.164
340	0.168
341	0.172
341	0.175
342	0.178
342	0.181
342	0.184
343	0.186
343	0.189
344	0.19
344	0.191
345	0.193
345	0.194
346	0.195
346	0.195
347	0.196
347	0.196
348	0.197
348	0.198
348	0.198
349	0.198
349	0.198
350	0.199
350	0.199
351	0.199
351	0.199
352	0.2
352	0.2
353	0.2
353	0.199
354	0.199
354	0.199
354	0.199
355	0.199
355	0.199
356	0.198
356	0.198
357	0.198
357	0.197
358	0.197
358	0.197
359	0.197
359	0.197
360	0.197
360	0.197
360	0.197
361	0.197
361	0.197
362	0.197
362	0.197
363	0.197
363	0.197
364	0.197
364	0.196
365	0.197
365	0.196
366	0.197
366	0.197
366	0.197
367	0.197
367	0.197
368	0.197
368	0.197
369	0.197
369	0.197
370	0.197
370	0.196
371	0.196
371	0.196
372	0.196
372	0.196
372	0.196
373	0.196
373	0.196
374	0.196
374	0.196
375	0.196
375	0.196
376	0.196
376	0.196
377	0.196
377	0.196
378	0.196
378	0.196
378	0.196
379	0.196
379	0.196
380	0.196
380	0.196
381	0.196
381	0.195
382	0.195
382	0.195
383	0.195
383	0.195
383	0.195
384	0.195
384	0.195
385	0.195
385	0.195
386	0.195
386	0.195
387	0.195
387	0.195
388	0.195
388	0.195
389	0.195
389	0.195
389	0.195
390	0.195
390	0.195
391	0.196
391	0.196
392	0.196
392	0.196
393	0.196
393	0.195
394	0.195
394	0.195
394	0.195
395	0.195
395	0.195
396	0.194
396	0.194
397	0.194
397	0.194
398	0.194
398	0.194
399	0.194
399	0.194
400	0.194
400	0.194
400	0.194
401	0.194
401	0.194
402	0.194
402	0.194
403	0.193
403	0.193
404	0.193
404	0.193
405	0.193
405	0.193
405	0.193
406	0.193
406	0.193
407	0.192
407	0.192
408	0.192
408	0.192
409	0.192
409	0.192
410	0.192
410	0.192
411	0.192
411	0.192
411	0.192
412	0.193
412	0.192
413	0.192
413	0.192
414	0.192
414	0.192
415	0.192
415	0.192
416	0.192
416	0.192
416	0.192
417	0.192
417	0.192
418	0.192
418	0.192
419	0.192
419	0.192
420	0.192
420	0.192
421	0.192
421	0.192
421	0.192
422	0.193
422	0.192
423	0.192
423	0.192
424	0.192
424	0.191
425	0.191
425	0.191
426	0.191
426	0.19
427	0.19
427	0.19
427	0.19
428	0.19
428	0.19
429	0.19
429	0.19
430	0.19
430	0.19
431	0.189
431	0.189
432	0.189
432	0.189
432	0.189
433	0.189
433	0.189
434	0.189
434	0.189
435	0.189
435	0.189
436	0.189
436	0.189
437	0.189
437	0.189
437	0.189
438	0.188
438	0.189
439	0.188
439	0.189
440	0.188
440	0.188
441	0.188
441	0.188
442	0.188
442	0.188
442	0.188
443	0.188
443	0.188
444	0.188
444	0.188
445	0.188
445	0.188
446	0.188
446	0.188
447	0.188
447	0.188
447	0.188
448	0.188
448	0.188
449	0.188
449	0.188
450	0.188
450	0.188
451	0.188
451	0.188
452	0.187
452	0.187
452	0.187
453	0.187
453	0.187
454	0.187
454	0.186
455	0.186
455	0.186
456	0.186
456	0.186
457	0.186
457	0.186
458	0.186
458	0.186
458	0.186
459	0.186
459	0.186
460	0.186
460	0.186
461	0.186
461	0.186
462	0.186
462	0.186
463	0.186
463	0.186
463	0.186
464	0.186
464	0.186
465	0.186
465	0.186
466	0.186
466	0.187
467	0.186
467	0.186
467	0.187
468	0.187
468	0.187
469	0.187
469	0.187
470	0.187
470	0.187
471	0.187
471	0.187
472	0.188
472	0.188
472	0.188
473	0.188
473	0.188
474	0.188
474	0.188
475	0.187
475	0.187
476	0.188
476	0.187
477	0.187
477	0.187
477	0.187
478	0.187
478	0.187
479	0.187
479	0.188
480	0.188
480	0.188
481	0.188
481	0.188
482	0.189
482	0.189
482	0.19
483	0.19
483	0.19
484	0.19
484	0.19
485	0.19
485	0.19
486	0.19
486	0.191
487	0.191
487	0.191
487	0.191
488	0.192
488	0.192
489	0.193
489	0.194
490	0.194
490	0.195
491	0.195
491	0.196
492	0.197
492	0.197
492	0.198
493	0.198
493	0.199
494	0.199
494	0.2
495	0.2
495	0.201
496	0.201
496	0.202
496	0.203
497	0.204
497	0.205
498	0.205
498	0.206
499	0.207
499	0.208
500	0.209
500	0.209
501	0.21
501	0.21
501	0.211
502	0.211
502	0.211
503	0.212
503	0.213
504	0.214
504	0.214
505	0.215
505	0.216
506	0.217
506	0.218
506	0.219
507	0.219
507	0.22
508	0.221
508	0.222
509	0.222
509	0.223
510	0.224
510	0.225
511	0.226
511	0.227
511	0.228
512	0.229
512	0.23
513	0.231
513	0.232
514	0.233
514	0.234
515	0.234
515	0.235
515	0.235
516	0.236
516	0.237
517	0.238
517	0.239
518	0.24
518	0.24
519	0.241
519	0.242
520	0.243
520	0.244
520	0.245
521	0.246
521	0.247
522	0.248
522	0.249
523	0.25
523	0.251
524	0.252
524	0.252
524	0.253
525	0.253
525	0.254
526	0.254
526	0.255
527	0.255
527	0.256
528	0.256
528	0.257
529	0.258
529	0.259
529	0.26
530	0.261
530	0.262
531	0.262
531	0.263
532	0.264
532	0.264
533	0.265
533	0.265
533	0.265
534	0.265
534	0.266
535	0.266
535	0.266
536	0.266
536	0.266
537	0.266
537	0.266
538	0.266
538	0.267
538	0.268
539	0.268
539	0.269
540	0.269
540	0.269
541	0.27
541	0.271
542	0.271
542	0.271
542	0.272
543	0.272
543	0.272
544	0.272
544	0.272
545	0.273
545	0.273
546	0.274
546	0.274
547	0.273
547	0.273
547	0.274
548	0.275
548	0.275
549	0.275
549	0.276
550	0.276
550	0.276
551	0.277
551	0.278
551	0.279
552	0.28
552	0.281
553	0.281
553	0.282
554	0.282
554	0.282
555	0.282
555	0.282
556	0.283
556	0.283
556	0.283
557	0.283
557	0.283
558	0.283
558	0.283
559	0.282
559	0.283
560	0.282
560	0.282
560	0.282
561	0.282
561	0.282
562	0.282
562	0.282
563	0.282
563	0.282
564	0.282
564	0.282
564	0.283
565	0.284
565	0.284
566	0.284
566	0.285
567	0.285
567	0.285
568	0.285
568	0.285
568	0.285
569	0.285
569	0.285
570	0.284
570	0.283
571	0.283
571	0.283
572	0.283
572	0.283
573	0.282
573	0.282
573	0.282
574	0.282
574	0.282
575	0.282
575	0.283
576	0.283
576	0.283
577	0.283
577	0.283
577	0.284
578	0.285
578	0.286
579	0.287
579	0.288
580	0.287
580	0.286
581	0.286
581	0.286
581	0.287
582	0.287
582	0.287
583	0.287
583	0.287
584	0.286
584	0.285
585	0.286
585	0.286
585	0.287
586	0.287
586	0.287
587	0.286
587	0.286
588	0.286
588	0.286
589	0.287
589	0.288
590	0.288
590	0.288
590	0.29
591	0.29
591	0.29
592	0.29
592	0.289
593	0.289
593	0.289
594	0.289
594	0.289
594	0.289
595	0.289
595	0.289
596	0.289
596	0.29
597	0.291
597	0.291
598	0.291
598	0.291
598	0.291
599	0.291
599	0.29
600	0.29
600	0.289
601	0.289
601	0.288
602	0.287
602	0.287
602	0.287
603	0.288
603	0.289
604	0.289
604	0.29
605	0.291
605	0.291
606	0.291
606	0.291
606	0.291
607	0.291
607	0.291
608	0.29
608	0.289
609	0.289
609	0.289
610	0.289
610	0.289
610	0.29
611	0.291
611	0.292
612	0.293
612	0.294
613	0.294
613	0.295
614	0.294
614	0.293
614	0.292
615	0.291
615	0.291
616	0.291
616	0.289
617	0.289
617	0.287
618	0.287
618	0.287
618	0.286
619	0.287
619	0.287
620	0.288
620	0.287
621	0.287
621	0.287
622	0.287
622	0.287
622	0.286
623	0.286
623	0.286
624	0.286
624	0.285
625	0.285
625	0.285
626	0.284
626	0.283
626	0.283
627	0.282
627	0.281
628	0.28
628	0.279
629	0.278
629	0.277
630	0.275
630	0.273
630	0.272
631	0.27
631	0.268
632	0.266
632	0.264
633	0.262
633	0.259
634	0.257
634	0.255
634	0.252
635	0.25
635	0.247
636	0.244
636	0.24
637	0.237
637	0.233
638	0.229
638	0.225
638	0.221
639	0.216
639	0.211
640	0.206
640	0.201
641	0.196
641	0.191
642	0.186
642	0.181
642	0.176
643	0.17
643	0.164
644	0.158
644	0.151
645	0.145
645	0.138
646	0.132
646	0.124
646	0.117
647	0.11
647	0.103
648	0.095
648	0.087
649	0.079
649	0.071
650	0.063
650	0.054
650	0.045
651	0.035
651	0.021
652	0.006
652	-0.01
653	-0.023
653	-0.036
653	-0.033
654	-0.012
654	-0.001
655	-0.005
655	-0.011
656	-0.017
656	-0.024
657	-0.028
657	-0.033
657	-0.04
658	-0.048
658	-0.078
659	-0.165
659	-0.267
660	-0.312
660	-0.338
661	-0.367
661	-0.398
661	-0.432
662	-0.463
662	-0.497
663	-0.536
663	-0.577
664	-0.62
664	-0.671
665	-0.721
665	-0.779
665	-0.833
666	-0.889
666	-0.949
667	-1.013
667	-1.077
668	-1.148
668	-1.22
669	-1.293
669	-1.365
669	-1.442
670	-1.507
670	-1.531
671	-1.655
671	-1.953
672	-2.188
672	-2.382
672	-2.514
673	-2.608
673	-2.689
674	-2.737
674	-2.756
675	-2.781
675	-2.923
676	-3.122
676	-3.074
676	-2.851
677	-2.648
677	-2.488
678	-2.317
678	-2.032
679	-1.72
679	-1.575
680	-1.479
680	-1.396
680	-1.325
681	-1.28
681	-1.221
682	-1.183
682	-1.146
683	-1.112
683	-1.097
684	-1.077
684	-1.059
684	-1.038
685	-1.015
685	-0.994
686	-0.968
686	-0.954
687	-0.929
687	-0.919
687	-0.9
688	-0.875
688	-0.854
689	-0.835
689	-0.821
690	-0.802
690	-0.789
691	-0.785
691	-0.791
691	-0.807
692	-0.798
692	-0.79
693	-0.786
693	-0.795
694	-0.79
694	-0.783
695	-0.789
695	-0.788
695	-0.771
696	-0.766
696	-0.744
697	-0.746
697	-0.761
698	-0.763
698	-0.753
698	-0.768
699	-0.771
699	-0.77
700	-0.762
700	-0.779
701	-0.78
701	-0.785
702	-0.784
702	-0.773
702	-0.767
703	-0.76
703	-0.751
704	-0.747
704	-0.745
705	-0.758
705	-0.751
705	-0.738
706	-0.739
706	-0.735
707	-0.739
707	-0.733
708	-0.731
708	-0.724
709	-0.727
709	-0.729
709	-0.72
710	-0.729
710	-0.739
711	-0.729
711	-0.731
712	-0.73
712	-0.742
713	-0.744
713	-0.75
713	-0.742
714	-0.74
714	-0.74
715	-0.731
715	-0.718
716	-0.727
716	-0.727
716	-0.72
717	-0.723
717	-0.723
718	-0.714
718	-0.714
719	-0.719
719	-0.722
720	-0.715
720	-0.725
720	-0.717
721	-0.708
721	-0.706
722	-0.693
722	-0.683
723	-0.68
723	-0.685
723	-0.674
724	-0.677
724	-0.682
725	-0.681
725	-0.693
726	-0.706
726	-0.712
727	-0.717
727	-0.734
727	-0.742
728	-0.743
728	-0.749
729	-0.748
729	-0.753
730	-0.758
730	-0.75
730	-0.739
731	-0.723
731	-0.735
732	-0.737
732	-0.737
733	-0.735
733	-0.741
734	-0.735
734	-0.734
734	-0.721
735	-0.718
735	-0.721
736	-0.732
736	-0.718
737	-0.71
737	-0.711
737	-0.722
738	-0.716
738	-0.715
739	-0.711
739	-0.726
740	-0.725
740	-0.722
741	-0.72
741	-0.721
741	-0.725
742	-0.721
742	-0.72
743	-0.728
743	-0.734
744	-0.733
744	-0.721
744	-0.722
745	-0.73
745	-0.72
746	-0.719
746	-0.716
747	-0.718
747	-0.706
748	-0.693
748	-0.696
748	-0.699
749	-0.699
749	-0.699
750	-0.688
750	-0.69
751	-0.694
751	-0.703
751	-0.706
752	-0.71
752	-0.72
753	-0.714
753	-0.711
754	-0.717
754	-0.712
754	-0.725
755	-0.74
755	-0.751
756	-0.737
756	-0.734
757	-0.731
757	-0.726
758	-0.731
758	-0.724
758	-0.726
759	-0.733
759	-0.716
760	-0.71
760	-0.705
761	-0.715
761	-0.714
761	-0.715
762	-0.723
762	-0.721
763	-0.735
763	-0.731
764	-0.73
764	-0.738
764	-0.745
765	-0.735
765	-0.723
766	-0.731
766	-0.737
767	-0.75
767	-0.743
768	-0.733
768	-0.742
768	-0.745
769	-0.763
769	-0.764
770	-0.769
770	-0.783
771	-0.779
771	-0.779
771	-0.782
772	-0.787
772	-0.788
773	-0.789
773	-0.786
774	-0.783
774	-0.782
775	-0.784
775	-0.778
775	-0.784
776	-0.784
776	-0.772
777	-0.781
777	-0.799
778	-0.795
778	-0.815
778	-0.803
779	-0.826
779	-0.836
780	-0.85
780	-0.85
781	-0.864
781	-0.861
781	-0.875
782	-0.877
782	-0.877
783	-0.864
783	-0.862
784	-0.84
784	-0.827
784	-0.837
785	-0.842
785	-0.826
786	-0.834
786	-0.813
787	-0.797
787	-0.801
788	-0.804
788	-0.814
788	-0.827
789	-0.83
789	-0.813
790	-0.795
790	-0.797
791	-0.796
791	-0.812
791	-0.82
792	-0.812
792	-0.789
793	-0.776
793	-0.752
794	-0.755
794	-0.745
794	-0.754
795	-0.751
795	-0.743
796	-0.728
796	-0.734
797	-0.729
797	-0.74
797	-0.748
798	-0.762
798	-0.758
799	-0.768
799	-0.753
800	-0.757
800	-0.751
801	-0.756
801	-0.74
801	-0.751
802	-0.76
802	-0.76
803	-0.76
803	-0.767
804	-0.763
804	-0.775
804	-0.763
805	-0.767
805	-0.757
806	-0.76
806	-0.744
807	-0.742
807	-0.723
807	-0.713
808	-0.704
808	-0.697
809	-0.682
809	-0.69
810	-0.689
810	-0.678
810	-0.676
811	-0.682
811	-0.673
812	-0.675
812	-0.678
813	-0.682
813	-0.678
813	-0.685
814	-0.69
814	-0.694
815	-0.701
815	-0.704
816	-0.697
816	-0.703
817	-0.709
817	-0.727
817	-0.74
818	-0.747
818	-0.749
819	-0.737
819	-0.737
820	-0.747
820	-0.742
820	-0.753
821	-0.75
821	-0.741
822	-0.707
822	-0.685
823	-0.681
823	-0.685
823	-0.684
824	-0.68
824	-0.681
825	-0.675
825	-0.656
826	-0.651
826	-0.656
826	-0.667
827	-0.661
827	-0.658
828	-0.636
828	-0.638
829	-0.627
829	-0.614
829	-0.607
830	-0.616
830	-0.612
831	-0.607
831	-0.597
832	-0.596
832	-0.587
832	-0.593
833	-0.586
833	-0.588
834	-0.585
834	-0.591
835	-0.575
835	-0.57
835	-0.564
836	-0.563
836	-0.558
837	-0.557
837	-0.549
838	-0.54
838	-0.528
839	-0.515
839	-0.503
839	-0.496
840	-0.485
840	-0.482
841	-0.468
841	-0.459
842	-0.453
842	-0.44
842	-0.432
843	-0.426
843	-0.42
844	-0.411
844	-0.403
845	-0.392
845	-0.38
845	-0.366
846	-0.356
846	-0.341
847	-0.33
847	-0.32
848	-0.305
848	-0.294
848	-0.276
849	-0.264
849	-0.252
850	-0.238
850	-0.231
851	-0.222
851	-0.21
851	-0.202
852	-0.184
852	-0.172
853	-0.162
853	-0.157
854	-0.144
854	-0.133
854	-0.121
855	-0.108
855	-0.099
856	-0.088
856	-0.079
857	-0.071
857	-0.062
857	-0.049
858	-0.036
858	-0.029
859	-0.02
859	-0.01
860	-0.001
860	0.013
860	0.023
861	0.033
861	0.042
862	0.05
862	0.058
863	0.065
863	0.075
863	0.082
864	0.087
864	0.094
865	0.1
865	0.104
866	0.11
866	0.113
866	0.118
867	0.122
867	0.126
868	0.128
868	0.132
869	0.137
869	0.139
869	0.142
870	0.144
870	0.147
871	0.149
871	0.151
872	0.152
872	0.153
872	0.153
873	0.154
873	0.154
874	0.153
874	0.153
875	0.152
875	0.151
875	0.149
876	0.148
876	0.146
877	0.145
877	0.143
878	0.141
878	0.139
878	0.137
879	0.136
879	0.135
880	0.134
880	0.134
881	0.134
881	0.134
881	0.134
882	0.133
882	0.132
883	0.131
883	0.13
884	0.129
884	0.128
884	0.127
885	0.126
885	0.126
886	0.126
886	0.125
887	0.125
887	0.125
887	0.125
888	0.125
888	0.125
889	0.126
889	0.125
890	0.126
890	0.126
890	0.125
891	0.126
891	0.126
892	0.126
892	0.126
893	0.126
893	0.126
893	0.126
894	0.126
894	0.126
895	0.126
895	0.125
895	0.125
896	0.124
896	0.123
897	0.122
897	0.12
898	0.119
898	0.118
898	0.117
899	0.117
899	0.117
900	0.117
900	0.117
901	0.118
901	0.118
901	0.119
902	0.119
902	0.12
903	0.12
903	0.121
904	0.122
904	0.122
904	0.123
905	0.123
905	0.124
906	0.124
906	0.125
907	0.125
907	0.125
907	0.125
908	0.125
908	0.124
909	0.124
909	0.123
910	0.123
910	0.123
910	0.123
911	0.123
911	0.123
912	0.123
912	0.123
913	0.124
913	0.124
913	0.125
914	0.126
914	0.126
915	0.126
915	0.126
916	0.127
916	0.127
916	0.127
917	0.127
917	0.127
918	0.127
918	0.126
918	0.126
919	0.125
919	0.125
920	0.125
920	0.124
921	0.124
921	0.123
921	0.123
922	0.123
922	0.122
923	0.122
923	0.122
924	0.122
924	0.121
924	0.121
925	0.12
925	0.12
926	0.119
926	0.118
927	0.118
927	0.117
927	0.117
928	0.117
928	0.116
929	0.116
929	0.115
930	0.115
930	0.115
930	0.115
931	0.115
931	0.115
932	0.115
932	0.114
933	0.113
933	0.112
933	0.111
934	0.11
934	0.109
935	0.108
935	0.107
935	0.105
936	0.104
936	0.103
937	0.102
937	0.101
938	0.101
938	0.101
938	0.101
939	0.101
939	0.101
940	0.101
940	0.102
941	0.102
941	0.102
941	0.103
942	0.104
942	0.104
943	0.104
943	0.104
944	0.104
944	0.104
944	0.103
945	0.103
945	0.101
946	0.1
946	0.098
946	0.097
947	0.096
947	0.095
948	0.095
948	0.094
949	0.093
949	0.093
949	0.093
950	0.094
950	0.094
951	0.095
951	0.095
952	0.095
952	0.096
952	0.096
953	0.097
953	0.098
954	0.098
954	0.099
955	0.1
955	0.101
955	0.102
956	0.103
956	0.103
957	0.104
957	0.104
957	0.105
958	0.105
958	0.106
959	0.107
959	0.108
960	0.108
960	0.109
960	0.11
961	0.11
961	0.111
962	0.111
962	0.111
963	0.112
963	0.111
963	0.111
964	0.11
964	0.11
965	0.11
965	0.109
966	0.108
966	0.108
966	0.108
967	0.107
967	0.106
968	0.106
968	0.105
968	0.105
969	0.104
969	0.104
970	0.104
970	0.104
971	0.104
971	0.104
971	0.103
972	0.104
972	0.104
973	0.104
973	0.104
974	0.104
974	0.104
974	0.104
975	0.104
975	0.104
976	0.104
976	0.104
976	0.104
977	0.104
977	0.104
978	0.104
978	0.104
979	0.104
979	0.103
979	0.103
980	0.103
980	0.102
981	0.102
981	0.102
982	0.102
982	0.101
982	0.101
983	0.101
983	0.101
984	0.101
984	0.101
984	0.102
985	0.102
985	0.102
986	0.101
986	0.101
987	0.101
987	0.1
987	0.1
988	0.099
988	0.099
989	0.098
989	0.097
990	0.096
990	0.096
990	0.095
991	0.095
991	0.094
992	0.094
992	0.094
992	0.094
993	0.094
993	0.094
994	0.093
994	0.093
995	0.093
995	0.093
995	0.092
996	0.092
996	0.091
997	0.091
997	0.091
997	0.091
998	0.091
998	0.091
999	0.091
999	0.091
1000	0.091
1000	0.091
1000	0.091
1001	0.091
1001	0.091
1002	0.091
1002	0.091
1003	0.09
1003	0.089
1003	0.089
1004	0.088
1004	0.087
1005	0.086
1005	0.085
1005	0.084
1006	0.083
1006	0.081
1007	0.08
1007	0.079
1008	0.079
1008	0.078
1008	0.078
1009	0.078
1009	0.078
1010	0.078
1010	0.078
1010	0.078
1011	0.078
1011	0.078
1012	0.078
1012	0.077
1013	0.077
1013	0.076
1013	0.075
1014	0.074
1014	0.073
1015	0.072
1015	0.072
1016	0.071
1016	0.069
1016	0.069
1017	0.068
1017	0.067
1018	0.067
1018	0.066
1018	0.065
1019	0.065
1019	0.064
1020	0.063
1020	0.062
1021	0.062
1021	0.061
1021	0.06
1022	0.059
1022	0.059
1023	0.059
1023	0.058
1023	0.058
1024	0.058
1024	0.057
1025	0.058
1025	0.058
1026	0.058
1026	0.059
1026	0.059
1027	0.059
1027	0.06
1028	0.06
1028	0.06
1028	0.06
1029	0.06
1029	0.06
1030	0.059
1030	0.059
1031	0.058
1031	0.058
1031	0.057
1032	0.057
1032	0.057
1033	0.057
1033	0.057
1033	0.057
1034	0.057
1034	0.057
1035	0.057
1035	0.057
1036	0.057
1036	0.057
1036	0.057
1037	0.057
1037	0.057
1038	0.057
1038	0.057
1039	0.057
1039	0.058
1039	0.058
1040	0.059
1040	0.06
1041	0.06
1041	0.061
1041	0.061
1042	0.061
1042	0.061
1043	0.061
1043	0.061
1044	0.061
1044	0.06
1044	0.06
1045	0.059
1045	0.059
1046	0.058
1046	0.058
1046	0.057
1047	0.058
1047	0.058
1048	0.058
1048	0.058
1049	0.058
1049	0.059
1049	0.059
1050	0.06
1050	0.06
1051	0.06
1051	0.061
1051	0.061
1052	0.061
1052	0.061
1053	0.061
1053	0.061
1053	0.061
1054	0.06
1054	0.06
1055	0.059
1055	0.058
1056	0.058
1056	0.056
1056	0.055
1057	0.055
1057	0.054
1058	0.053
1058	0.052
1058	0.052
1059	0.051
1059	0.05
1060	0.049
1060	0.049
1061	0.049
1061	0.049
1061	0.049
1062	0.048
1062	0.048
1063	0.048
1063	0.048
1063	0.049
1064	0.05
1064	0.05
1065	0.05
1065	0.049
1066	0.049
1066	0.049
1066	0.048
1067	0.048
1067	0.048
1068	0.047
1068	0.046
1068	0.045
1069	0.045
1069	0.044
1070	0.043
1070	0.043
1071	0.042
1071	0.042
1071	0.041
1072	0.041
1072	0.041
1073	0.04
1073	0.04
1073	0.04
1074	0.04
1074	0.041
1075	0.041
1075	0.04
1076	0.04
1076	0.04
1076	0.039
1077	0.039
1077	0.038
1078	0.037
1078	0.037
1078	0.036
1079	0.035
1079	0.035
1080	0.034
1080	0.034
1080	0.032
1081	0.032
1081	0.031
1082	0.031
1082	0.03
1083	0.029
1083	0.028
1083	0.027
1084	0.026
1084	0.025
1085	0.024
1085	0.024
1085	0.023
1086	0.023
1086	0.022
1087	0.021
1087	0.021
1088	0.02
1088	0.02
1088	0.019
1089	0.018
1089	0.018
1090	0.016
1090	0.015
1090	0.014
1091	0.013
1091	0.012
1092	0.011
1092	0.011
1092	0.009
1093	0.008
1093	0.008
1094	0.008
1094	0.007
1095	0.005
1095	0.005
1095	0.005
1096	0.003
1096	0.002
1097	0.002
1097	0.001
1097	0.001
1098	-0.001
1098	-0.003
1099	-0.004
1099	-0.004
1100	-0.006
1100	-0.008
1100	-0.011
1101	-0.014
1101	-0.017
1102	-0.019
1102	-0.022
1102	-0.023
1103	-0.026
1103	-0.028
1104	-0.031
1104	-0.034
1104	-0.036
1105	-0.037
1105	-0.041
1106	-0.046
1106	-0.049
1107	-0.053
1107	-0.058
1107	-0.063
1108	-0.065
1108	-0.067
1109	-0.071
1109	-0.076
1109	-0.08
1110	-0.079
1110	-0.08
1111	-0.088
1111	-0.088
