Data from 17C_3.1A_35min_2sec_int_Absorbance__639__03042.txt Node

Date: Mon Jun 19 18:41:27 CEST 2023
User: Marek
Spectrometer: MAYP115816
Trigger mode: 0
Integration Time (sec): 2.500000E-1
Scans to average: 10
Electric dark correction enabled: true
Nonlinearity correction enabled: true
Boxcar width: 5
XAxis mode: Wavelengths
Number of Pixels in Spectrum: 2068
>>>>>Begin Spectral Data<<<<<
199	-0.739
199	-0.763
200	-0.662
200	-0.607
201	-0.574
201	-0.558
202	-0.541
202	-0.53
203	-0.522
203	-0.518
204	-0.505
204	-0.492
205	-0.466
205	-0.463
205	-0.463
206	-0.463
206	-0.467
207	-0.459
207	-0.46
208	-0.462
208	-0.46
209	-0.453
209	-0.453
210	-0.46
210	-0.464
211	-0.465
211	-0.468
212	-0.471
212	-0.478
213	-0.475
213	-0.474
213	-0.481
214	-0.481
214	-0.481
215	-0.478
215	-0.484
216	-0.488
216	-0.497
217	-0.491
217	-0.497
218	-0.501
218	-0.501
219	-0.502
219	-0.511
220	-0.517
220	-0.529
221	-0.526
221	-0.528
221	-0.519
222	-0.517
222	-0.518
223	-0.522
223	-0.524
224	-0.529
224	-0.528
225	-0.523
225	-0.519
226	-0.526
226	-0.523
227	-0.529
227	-0.539
228	-0.536
228	-0.536
229	-0.538
229	-0.533
229	-0.527
230	-0.53
230	-0.53
231	-0.523
231	-0.516
232	-0.509
232	-0.506
233	-0.504
233	-0.504
234	-0.505
234	-0.502
235	-0.504
235	-0.509
236	-0.507
236	-0.511
236	-0.518
237	-0.526
237	-0.529
238	-0.536
238	-0.532
239	-0.53
239	-0.537
240	-0.537
240	-0.536
241	-0.543
241	-0.542
242	-0.547
242	-0.542
243	-0.537
243	-0.538
243	-0.547
244	-0.549
244	-0.55
245	-0.565
245	-0.564
246	-0.569
246	-0.576
247	-0.578
247	-0.583
248	-0.59
248	-0.587
249	-0.592
249	-0.6
250	-0.597
250	-0.591
250	-0.59
251	-0.586
251	-0.585
252	-0.586
252	-0.576
253	-0.582
253	-0.591
254	-0.588
254	-0.587
255	-0.595
255	-0.588
256	-0.587
256	-0.599
257	-0.597
257	-0.595
258	-0.611
258	-0.605
258	-0.602
259	-0.598
259	-0.607
260	-0.608
260	-0.614
261	-0.625
261	-0.617
262	-0.613
262	-0.617
263	-0.606
263	-0.601
264	-0.603
264	-0.612
265	-0.606
265	-0.613
265	-0.616
266	-0.613
266	-0.609
267	-0.622
267	-0.631
268	-0.644
268	-0.656
269	-0.654
269	-0.649
270	-0.655
270	-0.658
271	-0.657
271	-0.661
272	-0.667
272	-0.661
272	-0.651
273	-0.651
273	-0.657
274	-0.661
274	-0.666
275	-0.667
275	-0.661
276	-0.668
276	-0.662
277	-0.665
277	-0.684
278	-0.696
278	-0.689
278	-0.685
279	-0.688
279	-0.696
280	-0.692
280	-0.689
281	-0.682
281	-0.689
282	-0.682
282	-0.682
283	-0.672
283	-0.675
284	-0.669
284	-0.661
285	-0.656
285	-0.656
285	-0.655
286	-0.664
286	-0.662
287	-0.66
287	-0.646
288	-0.639
288	-0.647
289	-0.66
289	-0.669
290	-0.66
290	-0.659
291	-0.655
291	-0.647
292	-0.646
292	-0.649
292	-0.652
293	-0.657
293	-0.644
294	-0.633
294	-0.622
295	-0.619
295	-0.616
296	-0.614
296	-0.613
297	-0.608
297	-0.595
298	-0.585
298	-0.593
298	-0.581
299	-0.577
299	-0.58
300	-0.574
300	-0.571
301	-0.568
301	-0.565
302	-0.574
302	-0.582
303	-0.572
303	-0.557
304	-0.561
304	-0.558
305	-0.56
305	-0.56
305	-0.557
306	-0.541
306	-0.536
307	-0.522
307	-0.523
308	-0.535
308	-0.535
309	-0.537
309	-0.528
310	-0.516
310	-0.513
311	-0.505
311	-0.514
311	-0.512
312	-0.507
312	-0.506
313	-0.491
313	-0.492
314	-0.49
314	-0.493
315	-0.492
315	-0.491
316	-0.485
316	-0.478
317	-0.469
317	-0.465
318	-0.454
318	-0.452
318	-0.447
319	-0.437
319	-0.433
320	-0.428
320	-0.428
321	-0.434
321	-0.431
322	-0.427
322	-0.422
323	-0.421
323	-0.416
324	-0.409
324	-0.403
324	-0.393
325	-0.382
325	-0.366
326	-0.352
326	-0.335
327	-0.319
327	-0.301
328	-0.276
328	-0.258
329	-0.236
329	-0.212
330	-0.187
330	-0.156
330	-0.129
331	-0.101
331	-0.076
332	-0.051
332	-0.029
333	-0.008
333	0.016
334	0.035
334	0.051
335	0.068
335	0.082
336	0.095
336	0.107
336	0.117
337	0.127
337	0.135
338	0.143
338	0.148
339	0.155
339	0.16
340	0.164
340	0.169
341	0.172
341	0.175
342	0.179
342	0.182
342	0.185
343	0.187
343	0.19
344	0.192
344	0.193
345	0.194
345	0.195
346	0.196
346	0.196
347	0.197
347	0.198
348	0.198
348	0.198
348	0.199
349	0.199
349	0.199
350	0.199
350	0.199
351	0.199
351	0.2
352	0.2
352	0.2
353	0.2
353	0.2
354	0.2
354	0.2
354	0.2
355	0.2
355	0.2
356	0.2
356	0.199
357	0.198
357	0.198
358	0.198
358	0.197
359	0.197
359	0.197
360	0.197
360	0.197
360	0.197
361	0.197
361	0.197
362	0.198
362	0.198
363	0.198
363	0.197
364	0.198
364	0.197
365	0.197
365	0.197
366	0.198
366	0.198
366	0.198
367	0.198
367	0.198
368	0.198
368	0.198
369	0.198
369	0.198
370	0.197
370	0.197
371	0.197
371	0.197
372	0.197
372	0.197
372	0.197
373	0.197
373	0.197
374	0.197
374	0.197
375	0.197
375	0.197
376	0.197
376	0.197
377	0.197
377	0.197
378	0.197
378	0.197
378	0.197
379	0.197
379	0.197
380	0.197
380	0.197
381	0.197
381	0.197
382	0.197
382	0.197
383	0.196
383	0.196
383	0.196
384	0.196
384	0.196
385	0.196
385	0.196
386	0.196
386	0.196
387	0.196
387	0.196
388	0.196
388	0.196
389	0.196
389	0.196
389	0.196
390	0.196
390	0.196
391	0.196
391	0.196
392	0.196
392	0.196
393	0.196
393	0.196
394	0.196
394	0.196
394	0.195
395	0.195
395	0.195
396	0.195
396	0.195
397	0.195
397	0.195
398	0.195
398	0.195
399	0.195
399	0.195
400	0.195
400	0.195
400	0.195
401	0.194
401	0.194
402	0.194
402	0.194
403	0.194
403	0.194
404	0.194
404	0.194
405	0.194
405	0.194
405	0.194
406	0.193
406	0.193
407	0.193
407	0.193
408	0.193
408	0.193
409	0.193
409	0.193
410	0.193
410	0.193
411	0.193
411	0.193
411	0.193
412	0.193
412	0.193
413	0.193
413	0.193
414	0.193
414	0.193
415	0.193
415	0.193
416	0.193
416	0.193
416	0.193
417	0.192
417	0.192
418	0.192
418	0.193
419	0.193
419	0.193
420	0.193
420	0.193
421	0.193
421	0.193
421	0.193
422	0.193
422	0.193
423	0.193
423	0.193
424	0.193
424	0.192
425	0.192
425	0.192
426	0.192
426	0.191
427	0.191
427	0.191
427	0.191
428	0.191
428	0.191
429	0.191
429	0.191
430	0.191
430	0.191
431	0.19
431	0.19
432	0.19
432	0.19
432	0.19
433	0.19
433	0.189
434	0.189
434	0.189
435	0.189
435	0.189
436	0.189
436	0.189
437	0.189
437	0.189
437	0.189
438	0.189
438	0.189
439	0.189
439	0.189
440	0.189
440	0.189
441	0.189
441	0.189
442	0.189
442	0.189
442	0.189
443	0.189
443	0.188
444	0.188
444	0.188
445	0.188
445	0.188
446	0.188
446	0.188
447	0.188
447	0.188
447	0.188
448	0.189
448	0.188
449	0.188
449	0.188
450	0.189
450	0.188
451	0.188
451	0.188
452	0.188
452	0.188
452	0.188
453	0.188
453	0.188
454	0.187
454	0.187
455	0.187
455	0.187
456	0.187
456	0.187
457	0.187
457	0.187
458	0.187
458	0.187
458	0.187
459	0.187
459	0.187
460	0.186
460	0.186
461	0.186
461	0.186
462	0.186
462	0.187
463	0.187
463	0.187
463	0.187
464	0.187
464	0.187
465	0.187
465	0.187
466	0.187
466	0.188
467	0.188
467	0.187
467	0.187
468	0.187
468	0.187
469	0.188
469	0.188
470	0.188
470	0.188
471	0.188
471	0.188
472	0.188
472	0.188
472	0.188
473	0.188
473	0.189
474	0.188
474	0.188
475	0.188
475	0.188
476	0.188
476	0.188
477	0.188
477	0.188
477	0.188
478	0.188
478	0.188
479	0.188
479	0.189
480	0.189
480	0.189
481	0.189
481	0.189
482	0.19
482	0.19
482	0.19
483	0.191
483	0.191
484	0.191
484	0.191
485	0.191
485	0.191
486	0.191
486	0.191
487	0.192
487	0.192
487	0.192
488	0.192
488	0.193
489	0.193
489	0.195
490	0.195
490	0.196
491	0.196
491	0.197
492	0.198
492	0.198
492	0.198
493	0.199
493	0.199
494	0.2
494	0.2
495	0.201
495	0.201
496	0.202
496	0.203
496	0.204
497	0.205
497	0.206
498	0.206
498	0.207
499	0.208
499	0.208
500	0.209
500	0.21
501	0.21
501	0.211
501	0.211
502	0.211
502	0.212
503	0.213
503	0.214
504	0.214
504	0.215
505	0.216
505	0.217
506	0.218
506	0.219
506	0.22
507	0.221
507	0.221
508	0.222
508	0.223
509	0.224
509	0.225
510	0.226
510	0.227
511	0.227
511	0.228
511	0.229
512	0.23
512	0.231
513	0.232
513	0.233
514	0.234
514	0.235
515	0.236
515	0.236
515	0.237
516	0.238
516	0.239
517	0.24
517	0.24
518	0.241
518	0.242
519	0.242
519	0.243
520	0.244
520	0.245
520	0.246
521	0.247
521	0.248
522	0.249
522	0.251
523	0.252
523	0.252
524	0.253
524	0.254
524	0.254
525	0.254
525	0.255
526	0.256
526	0.256
527	0.257
527	0.257
528	0.258
528	0.259
529	0.26
529	0.261
529	0.262
530	0.262
530	0.263
531	0.264
531	0.264
532	0.265
532	0.266
533	0.266
533	0.266
533	0.267
534	0.267
534	0.267
535	0.267
535	0.267
536	0.267
536	0.267
537	0.267
537	0.267
538	0.267
538	0.268
538	0.268
539	0.269
539	0.27
540	0.27
540	0.27
541	0.271
541	0.271
542	0.272
542	0.272
542	0.273
543	0.273
543	0.273
544	0.273
544	0.273
545	0.274
545	0.274
546	0.275
546	0.275
547	0.275
547	0.275
547	0.275
548	0.276
548	0.276
549	0.276
549	0.277
550	0.277
550	0.277
551	0.278
551	0.279
551	0.28
552	0.28
552	0.281
553	0.282
553	0.282
554	0.283
554	0.283
555	0.283
555	0.283
556	0.284
556	0.283
556	0.284
557	0.284
557	0.284
558	0.283
558	0.283
559	0.283
559	0.283
560	0.283
560	0.283
560	0.283
561	0.283
561	0.283
562	0.283
562	0.283
563	0.283
563	0.283
564	0.283
564	0.283
564	0.284
565	0.284
565	0.285
566	0.285
566	0.285
567	0.286
567	0.286
568	0.286
568	0.286
568	0.286
569	0.286
569	0.286
570	0.285
570	0.284
571	0.284
571	0.284
572	0.284
572	0.283
573	0.283
573	0.283
573	0.283
574	0.283
574	0.283
575	0.283
575	0.285
576	0.285
576	0.284
577	0.284
577	0.285
577	0.285
578	0.286
578	0.287
579	0.288
579	0.289
580	0.288
580	0.287
581	0.287
581	0.287
581	0.287
582	0.288
582	0.288
583	0.288
583	0.287
584	0.286
584	0.285
585	0.286
585	0.287
585	0.287
586	0.287
586	0.288
587	0.287
587	0.287
588	0.287
588	0.287
589	0.288
589	0.288
590	0.288
590	0.289
590	0.29
591	0.291
591	0.291
592	0.29
592	0.29
593	0.29
593	0.29
594	0.29
594	0.29
594	0.29
595	0.29
595	0.289
596	0.29
596	0.291
597	0.292
597	0.292
598	0.292
598	0.292
598	0.292
599	0.292
599	0.291
600	0.29
600	0.29
601	0.289
601	0.289
602	0.288
602	0.288
602	0.288
603	0.288
603	0.289
604	0.29
604	0.291
605	0.291
605	0.292
606	0.292
606	0.291
606	0.292
607	0.291
607	0.291
608	0.291
608	0.29
609	0.29
609	0.29
610	0.29
610	0.29
610	0.291
611	0.292
611	0.293
612	0.294
612	0.295
613	0.295
613	0.296
614	0.295
614	0.294
614	0.293
615	0.293
615	0.292
616	0.292
616	0.291
617	0.29
617	0.289
618	0.288
618	0.288
618	0.288
619	0.288
619	0.288
620	0.288
620	0.288
621	0.288
621	0.288
622	0.287
622	0.287
622	0.287
623	0.287
623	0.287
624	0.287
624	0.286
625	0.286
625	0.286
626	0.285
626	0.284
626	0.284
627	0.284
627	0.282
628	0.281
628	0.28
629	0.279
629	0.278
630	0.276
630	0.274
630	0.273
631	0.271
631	0.269
632	0.267
632	0.265
633	0.263
633	0.261
634	0.259
634	0.256
634	0.254
635	0.251
635	0.248
636	0.245
636	0.242
637	0.238
637	0.234
638	0.23
638	0.226
638	0.221
639	0.216
639	0.212
640	0.207
640	0.202
641	0.197
641	0.192
642	0.187
642	0.182
642	0.177
643	0.171
643	0.165
644	0.159
644	0.152
645	0.146
645	0.139
646	0.132
646	0.125
646	0.117
647	0.11
647	0.103
648	0.095
648	0.088
649	0.079
649	0.072
650	0.063
650	0.055
650	0.046
651	0.036
651	0.023
652	0.007
652	-0.009
653	-0.022
653	-0.035
653	-0.032
654	-0.011
654	-0.002
655	-0.006
655	-0.011
656	-0.018
656	-0.024
657	-0.029
657	-0.034
657	-0.041
658	-0.048
658	-0.078
659	-0.166
659	-0.267
660	-0.312
660	-0.339
661	-0.368
661	-0.399
661	-0.432
662	-0.464
662	-0.498
663	-0.536
663	-0.579
664	-0.621
664	-0.673
665	-0.722
665	-0.78
665	-0.834
666	-0.89
666	-0.951
667	-1.014
667	-1.078
668	-1.15
668	-1.221
669	-1.294
669	-1.367
669	-1.444
670	-1.51
670	-1.54
671	-1.687
671	-1.969
672	-2.199
672	-2.391
672	-2.521
673	-2.613
673	-2.693
674	-2.739
674	-2.758
675	-2.783
675	-2.924
676	-3.119
676	-3.071
676	-2.848
677	-2.644
677	-2.482
678	-2.309
678	-2.017
679	-1.714
679	-1.573
680	-1.477
680	-1.394
680	-1.323
681	-1.278
681	-1.22
682	-1.181
682	-1.145
683	-1.111
683	-1.095
684	-1.075
684	-1.058
684	-1.037
685	-1.013
685	-0.992
686	-0.968
686	-0.953
687	-0.929
687	-0.917
687	-0.897
688	-0.871
688	-0.852
689	-0.831
689	-0.819
690	-0.799
690	-0.788
691	-0.783
691	-0.788
691	-0.804
692	-0.798
692	-0.789
693	-0.787
693	-0.794
694	-0.79
694	-0.783
695	-0.789
695	-0.787
695	-0.77
696	-0.767
696	-0.745
697	-0.745
697	-0.761
698	-0.762
698	-0.753
698	-0.766
699	-0.769
699	-0.767
700	-0.76
700	-0.776
701	-0.775
701	-0.78
702	-0.781
702	-0.771
702	-0.764
703	-0.757
703	-0.748
704	-0.745
704	-0.744
705	-0.755
705	-0.749
705	-0.739
706	-0.74
706	-0.736
707	-0.739
707	-0.733
708	-0.733
708	-0.727
709	-0.73
709	-0.732
709	-0.724
710	-0.732
710	-0.74
711	-0.731
711	-0.732
712	-0.732
712	-0.746
713	-0.744
713	-0.751
713	-0.743
714	-0.742
714	-0.743
715	-0.733
715	-0.72
716	-0.73
716	-0.73
716	-0.722
717	-0.722
717	-0.723
718	-0.713
718	-0.713
719	-0.718
719	-0.719
720	-0.712
720	-0.722
720	-0.714
721	-0.703
721	-0.704
722	-0.691
722	-0.682
723	-0.681
723	-0.685
723	-0.673
724	-0.674
724	-0.681
725	-0.681
725	-0.69
726	-0.705
726	-0.711
727	-0.716
727	-0.731
727	-0.737
728	-0.739
728	-0.744
729	-0.744
729	-0.746
730	-0.751
730	-0.744
730	-0.732
731	-0.714
731	-0.727
732	-0.732
732	-0.733
733	-0.729
733	-0.734
734	-0.729
734	-0.732
734	-0.72
735	-0.718
735	-0.719
736	-0.73
736	-0.713
737	-0.703
737	-0.705
737	-0.717
738	-0.714
738	-0.715
739	-0.711
739	-0.722
740	-0.721
740	-0.722
741	-0.717
741	-0.721
741	-0.724
742	-0.721
742	-0.721
743	-0.728
743	-0.731
744	-0.727
744	-0.717
744	-0.721
745	-0.726
745	-0.718
746	-0.714
746	-0.712
747	-0.714
747	-0.7
748	-0.689
748	-0.696
748	-0.699
749	-0.696
749	-0.697
750	-0.687
750	-0.691
751	-0.695
751	-0.704
751	-0.706
752	-0.71
752	-0.719
753	-0.711
753	-0.708
754	-0.714
754	-0.708
754	-0.721
755	-0.738
755	-0.748
756	-0.735
756	-0.731
757	-0.73
757	-0.726
758	-0.731
758	-0.728
758	-0.733
759	-0.742
759	-0.725
760	-0.718
760	-0.715
761	-0.726
761	-0.727
761	-0.726
762	-0.733
762	-0.732
763	-0.741
763	-0.736
764	-0.731
764	-0.739
764	-0.745
765	-0.735
765	-0.721
766	-0.726
766	-0.732
767	-0.746
767	-0.739
768	-0.73
768	-0.739
768	-0.746
769	-0.762
769	-0.762
770	-0.765
770	-0.78
771	-0.777
771	-0.78
771	-0.781
772	-0.787
772	-0.786
773	-0.784
773	-0.781
774	-0.78
774	-0.781
775	-0.784
775	-0.779
775	-0.787
776	-0.786
776	-0.779
777	-0.785
777	-0.805
778	-0.804
778	-0.822
778	-0.809
779	-0.833
779	-0.841
780	-0.854
780	-0.853
781	-0.866
781	-0.859
781	-0.877
782	-0.877
782	-0.879
783	-0.866
783	-0.865
784	-0.843
784	-0.833
784	-0.839
785	-0.846
785	-0.829
786	-0.835
786	-0.811
787	-0.796
787	-0.796
788	-0.797
788	-0.808
788	-0.821
789	-0.822
789	-0.807
790	-0.786
790	-0.789
791	-0.788
791	-0.804
791	-0.811
792	-0.806
792	-0.784
793	-0.772
793	-0.748
794	-0.751
794	-0.742
794	-0.752
795	-0.747
795	-0.74
796	-0.725
796	-0.732
797	-0.725
797	-0.739
797	-0.745
798	-0.759
798	-0.754
799	-0.764
799	-0.751
800	-0.757
800	-0.75
801	-0.756
801	-0.74
801	-0.75
802	-0.757
802	-0.758
803	-0.755
803	-0.767
804	-0.761
804	-0.772
804	-0.761
805	-0.767
805	-0.758
806	-0.763
806	-0.747
807	-0.746
807	-0.727
807	-0.718
808	-0.707
808	-0.702
809	-0.687
809	-0.695
810	-0.691
810	-0.683
810	-0.677
811	-0.685
811	-0.675
812	-0.677
812	-0.682
813	-0.686
813	-0.681
813	-0.687
814	-0.689
814	-0.693
815	-0.698
815	-0.702
816	-0.695
816	-0.7
817	-0.706
817	-0.72
817	-0.736
818	-0.744
818	-0.746
819	-0.739
819	-0.739
820	-0.749
820	-0.746
820	-0.758
821	-0.755
821	-0.742
822	-0.711
822	-0.686
823	-0.684
823	-0.689
823	-0.685
824	-0.681
824	-0.683
825	-0.675
825	-0.656
826	-0.653
826	-0.66
826	-0.67
827	-0.665
827	-0.66
828	-0.638
828	-0.638
829	-0.627
829	-0.613
829	-0.604
830	-0.611
830	-0.606
831	-0.598
831	-0.588
832	-0.586
832	-0.578
832	-0.587
833	-0.582
833	-0.583
834	-0.578
834	-0.585
835	-0.574
835	-0.57
835	-0.566
836	-0.561
836	-0.56
837	-0.558
837	-0.546
838	-0.538
838	-0.526
839	-0.514
839	-0.503
839	-0.494
840	-0.482
840	-0.477
841	-0.467
841	-0.457
842	-0.45
842	-0.438
842	-0.433
843	-0.427
843	-0.422
844	-0.413
844	-0.404
845	-0.398
845	-0.388
845	-0.372
846	-0.362
846	-0.346
847	-0.336
847	-0.321
848	-0.307
848	-0.295
848	-0.279
849	-0.268
849	-0.255
850	-0.241
850	-0.236
851	-0.225
851	-0.213
851	-0.203
852	-0.187
852	-0.174
853	-0.163
853	-0.156
854	-0.143
854	-0.129
854	-0.116
855	-0.103
855	-0.095
856	-0.084
856	-0.075
857	-0.067
857	-0.058
857	-0.045
858	-0.033
858	-0.026
859	-0.018
859	-0.006
860	0.004
860	0.018
860	0.026
861	0.036
861	0.045
862	0.052
862	0.06
863	0.067
863	0.077
863	0.083
864	0.088
864	0.095
865	0.1
865	0.105
866	0.111
866	0.114
866	0.118
867	0.122
867	0.126
868	0.129
868	0.133
869	0.137
869	0.139
869	0.142
870	0.144
870	0.146
871	0.149
871	0.151
872	0.152
872	0.153
872	0.154
873	0.154
873	0.154
874	0.154
874	0.153
875	0.152
875	0.151
875	0.149
876	0.148
876	0.146
877	0.145
877	0.143
878	0.141
878	0.139
878	0.137
879	0.136
879	0.135
880	0.134
880	0.134
881	0.134
881	0.134
881	0.134
882	0.133
882	0.132
883	0.131
883	0.13
884	0.129
884	0.128
884	0.127
885	0.127
885	0.126
886	0.126
886	0.126
887	0.125
887	0.125
887	0.125
888	0.126
888	0.126
889	0.126
889	0.126
890	0.126
890	0.126
890	0.126
891	0.126
891	0.126
892	0.126
892	0.126
893	0.126
893	0.126
893	0.126
894	0.126
894	0.126
895	0.126
895	0.126
895	0.126
896	0.125
896	0.124
897	0.122
897	0.121
898	0.119
898	0.118
898	0.118
899	0.118
899	0.118
900	0.118
900	0.118
901	0.118
901	0.119
901	0.12
902	0.121
902	0.121
903	0.122
903	0.122
904	0.122
904	0.123
904	0.123
905	0.124
905	0.125
906	0.125
906	0.126
907	0.126
907	0.126
907	0.126
908	0.126
908	0.125
909	0.125
909	0.124
910	0.124
910	0.124
910	0.123
911	0.123
911	0.123
912	0.124
912	0.124
913	0.124
913	0.124
913	0.125
914	0.126
914	0.126
915	0.126
915	0.127
916	0.127
916	0.127
916	0.127
917	0.128
917	0.128
918	0.127
918	0.127
918	0.126
919	0.126
919	0.125
920	0.125
920	0.125
921	0.125
921	0.124
921	0.124
922	0.124
922	0.123
923	0.123
923	0.123
924	0.123
924	0.122
924	0.122
925	0.121
925	0.121
926	0.12
926	0.119
927	0.119
927	0.118
927	0.118
928	0.118
928	0.117
929	0.117
929	0.116
930	0.116
930	0.116
930	0.116
931	0.115
931	0.116
932	0.115
932	0.115
933	0.114
933	0.113
933	0.112
934	0.11
934	0.109
935	0.108
935	0.107
935	0.106
936	0.105
936	0.103
937	0.102
937	0.102
938	0.102
938	0.102
938	0.102
939	0.102
939	0.102
940	0.103
940	0.103
941	0.103
941	0.104
941	0.105
942	0.105
942	0.105
943	0.105
943	0.105
944	0.105
944	0.105
944	0.104
945	0.103
945	0.102
946	0.101
946	0.099
946	0.097
947	0.097
947	0.095
948	0.095
948	0.095
949	0.094
949	0.094
949	0.094
950	0.094
950	0.094
951	0.095
951	0.095
952	0.095
952	0.096
952	0.097
953	0.097
953	0.098
954	0.098
954	0.099
955	0.1
955	0.101
955	0.102
956	0.103
956	0.104
957	0.104
957	0.104
957	0.105
958	0.105
958	0.106
959	0.107
959	0.108
960	0.108
960	0.109
960	0.11
961	0.11
961	0.111
962	0.112
962	0.112
963	0.112
963	0.111
963	0.111
964	0.111
964	0.11
965	0.11
965	0.109
966	0.109
966	0.108
966	0.108
967	0.107
967	0.107
968	0.106
968	0.105
968	0.105
969	0.105
969	0.104
970	0.104
970	0.104
971	0.104
971	0.104
971	0.104
972	0.105
972	0.105
973	0.105
973	0.105
974	0.104
974	0.105
974	0.105
975	0.105
975	0.105
976	0.104
976	0.104
976	0.104
977	0.104
977	0.104
978	0.104
978	0.104
979	0.104
979	0.104
979	0.104
980	0.103
980	0.103
981	0.103
981	0.103
982	0.103
982	0.102
982	0.102
983	0.102
983	0.102
984	0.102
984	0.102
984	0.102
985	0.102
985	0.102
986	0.102
986	0.101
987	0.101
987	0.101
987	0.1
988	0.099
988	0.099
989	0.098
989	0.097
990	0.097
990	0.096
990	0.095
991	0.095
991	0.095
992	0.094
992	0.094
992	0.094
993	0.094
993	0.093
994	0.093
994	0.093
995	0.093
995	0.092
995	0.092
996	0.092
996	0.091
997	0.091
997	0.091
997	0.09
998	0.091
998	0.09
999	0.091
999	0.091
1000	0.091
1000	0.091
1000	0.091
1001	0.091
1001	0.091
1002	0.091
1002	0.091
1003	0.091
1003	0.09
1003	0.09
1004	0.089
1004	0.088
1005	0.087
1005	0.086
1005	0.085
1006	0.084
1006	0.082
1007	0.081
1007	0.08
1008	0.079
1008	0.079
1008	0.079
1009	0.078
1009	0.078
1010	0.079
1010	0.079
1010	0.079
1011	0.079
1011	0.079
1012	0.079
1012	0.078
1013	0.077
1013	0.076
1013	0.075
1014	0.075
1014	0.074
1015	0.073
1015	0.072
1016	0.071
1016	0.07
1016	0.069
1017	0.068
1017	0.068
1018	0.067
1018	0.066
1018	0.065
1019	0.065
1019	0.064
1020	0.063
1020	0.063
1021	0.062
1021	0.061
1021	0.06
1022	0.06
1022	0.059
1023	0.059
1023	0.058
1023	0.058
1024	0.058
1024	0.058
1025	0.058
1025	0.058
1026	0.059
1026	0.059
1026	0.059
1027	0.06
1027	0.06
1028	0.061
1028	0.061
1028	0.061
1029	0.061
1029	0.061
1030	0.06
1030	0.06
1031	0.059
1031	0.059
1031	0.058
1032	0.058
1032	0.058
1033	0.058
1033	0.058
1033	0.058
1034	0.058
1034	0.057
1035	0.058
1035	0.057
1036	0.057
1036	0.057
1036	0.057
1037	0.057
1037	0.057
1038	0.057
1038	0.057
1039	0.058
1039	0.058
1039	0.059
1040	0.06
1040	0.061
1041	0.061
1041	0.062
1041	0.062
1042	0.062
1042	0.062
1043	0.062
1043	0.062
1044	0.061
1044	0.06
1044	0.06
1045	0.059
1045	0.059
1046	0.059
1046	0.058
1046	0.058
1047	0.058
1047	0.059
1048	0.059
1048	0.059
1049	0.059
1049	0.059
1049	0.06
1050	0.06
1050	0.06
1051	0.06
1051	0.061
1051	0.061
1052	0.061
1052	0.061
1053	0.061
1053	0.061
1053	0.061
1054	0.06
1054	0.06
1055	0.059
1055	0.059
1056	0.058
1056	0.057
1056	0.056
1057	0.055
1057	0.054
1058	0.053
1058	0.053
1058	0.052
1059	0.051
1059	0.05
1060	0.05
1060	0.049
1061	0.049
1061	0.049
1061	0.049
1062	0.049
1062	0.048
1063	0.049
1063	0.049
1063	0.049
1064	0.049
1064	0.049
1065	0.049
1065	0.049
1066	0.049
1066	0.049
1066	0.048
1067	0.048
1067	0.047
1068	0.047
1068	0.046
1068	0.045
1069	0.045
1069	0.044
1070	0.043
1070	0.043
1071	0.042
1071	0.042
1071	0.041
1072	0.041
1072	0.041
1073	0.041
1073	0.041
1073	0.041
1074	0.041
1074	0.042
1075	0.041
1075	0.041
1076	0.041
1076	0.041
1076	0.04
1077	0.04
1077	0.039
1078	0.039
1078	0.038
1078	0.037
1079	0.036
1079	0.036
1080	0.035
1080	0.034
1080	0.033
1081	0.032
1081	0.032
1082	0.031
1082	0.03
1083	0.029
1083	0.028
1083	0.027
1084	0.026
1084	0.026
1085	0.024
1085	0.024
1085	0.024
1086	0.023
1086	0.022
1087	0.022
1087	0.022
1088	0.02
1088	0.02
1088	0.019
1089	0.018
1089	0.018
1090	0.016
1090	0.015
1090	0.014
1091	0.013
1091	0.012
1092	0.011
1092	0.012
1092	0.011
1093	0.01
1093	0.01
1094	0.01
1094	0.009
1095	0.008
1095	0.007
1095	0.006
1096	0.005
1096	0.004
1097	0.004
1097	0.002
1097	0.002
1098	-0.001
1098	-0.003
1099	-0.004
1099	-0.005
1100	-0.007
1100	-0.008
1100	-0.011
1101	-0.014
1101	-0.018
1102	-0.02
1102	-0.022
1102	-0.023
1103	-0.025
1103	-0.028
1104	-0.031
1104	-0.032
1104	-0.036
1105	-0.038
1105	-0.041
1106	-0.045
1106	-0.048
1107	-0.052
1107	-0.057
1107	-0.062
1108	-0.064
1108	-0.066
1109	-0.07
1109	-0.074
1109	-0.078
1110	-0.079
1110	-0.081
1111	-0.087
1111	-0.09
