Data from 17C_3.1A_35min_2sec_int_Absorbance__697__03100.txt Node

Date: Mon Jun 19 18:43:52 CEST 2023
User: Marek
Spectrometer: MAYP115816
Trigger mode: 0
Integration Time (sec): 2.500000E-1
Scans to average: 10
Electric dark correction enabled: true
Nonlinearity correction enabled: true
Boxcar width: 5
XAxis mode: Wavelengths
Number of Pixels in Spectrum: 2068
>>>>>Begin Spectral Data<<<<<
199	-0.747
199	-0.76
200	-0.664
200	-0.612
201	-0.574
201	-0.56
202	-0.54
202	-0.525
203	-0.517
203	-0.512
204	-0.496
204	-0.482
205	-0.458
205	-0.451
205	-0.449
206	-0.451
206	-0.453
207	-0.445
207	-0.448
208	-0.45
208	-0.45
209	-0.445
209	-0.448
210	-0.451
210	-0.457
211	-0.459
211	-0.459
212	-0.464
212	-0.473
213	-0.472
213	-0.473
213	-0.48
214	-0.476
214	-0.477
215	-0.476
215	-0.48
216	-0.484
216	-0.493
217	-0.487
217	-0.492
218	-0.494
218	-0.494
219	-0.494
219	-0.504
220	-0.508
220	-0.519
221	-0.517
221	-0.52
221	-0.513
222	-0.51
222	-0.509
223	-0.51
223	-0.514
224	-0.518
224	-0.518
225	-0.514
225	-0.508
226	-0.513
226	-0.514
227	-0.518
227	-0.53
228	-0.531
228	-0.533
229	-0.533
229	-0.527
229	-0.521
230	-0.523
230	-0.526
231	-0.522
231	-0.511
232	-0.507
232	-0.503
233	-0.497
233	-0.495
234	-0.494
234	-0.491
235	-0.496
235	-0.502
236	-0.501
236	-0.503
236	-0.51
237	-0.516
237	-0.518
238	-0.528
238	-0.528
239	-0.528
239	-0.537
240	-0.538
240	-0.535
241	-0.539
241	-0.538
242	-0.544
242	-0.541
243	-0.535
243	-0.535
243	-0.543
244	-0.541
244	-0.54
245	-0.553
245	-0.554
246	-0.559
246	-0.565
247	-0.565
247	-0.568
248	-0.576
248	-0.574
249	-0.576
249	-0.585
250	-0.582
250	-0.577
250	-0.577
251	-0.575
251	-0.574
252	-0.579
252	-0.57
253	-0.574
253	-0.586
254	-0.583
254	-0.581
255	-0.59
255	-0.585
256	-0.584
256	-0.595
257	-0.591
257	-0.587
258	-0.604
258	-0.601
258	-0.598
259	-0.595
259	-0.604
260	-0.604
260	-0.608
261	-0.618
261	-0.608
262	-0.608
262	-0.61
263	-0.597
263	-0.594
264	-0.594
264	-0.604
265	-0.599
265	-0.605
265	-0.608
266	-0.609
266	-0.607
267	-0.618
267	-0.626
268	-0.642
268	-0.651
269	-0.647
269	-0.641
270	-0.647
270	-0.653
271	-0.651
271	-0.655
272	-0.657
272	-0.653
272	-0.644
273	-0.641
273	-0.648
274	-0.654
274	-0.658
275	-0.658
275	-0.65
276	-0.658
276	-0.652
277	-0.659
277	-0.676
278	-0.688
278	-0.685
278	-0.68
279	-0.684
279	-0.694
280	-0.692
280	-0.69
281	-0.684
281	-0.69
282	-0.683
282	-0.683
283	-0.675
283	-0.675
284	-0.671
284	-0.659
285	-0.654
285	-0.651
285	-0.649
286	-0.655
286	-0.65
287	-0.647
287	-0.631
288	-0.622
288	-0.633
289	-0.644
289	-0.653
290	-0.642
290	-0.639
291	-0.636
291	-0.632
292	-0.634
292	-0.642
292	-0.648
293	-0.653
293	-0.642
294	-0.63
294	-0.622
295	-0.62
295	-0.621
296	-0.618
296	-0.616
297	-0.609
297	-0.592
298	-0.584
298	-0.592
298	-0.582
299	-0.577
299	-0.578
300	-0.574
300	-0.567
301	-0.563
301	-0.561
302	-0.57
302	-0.577
303	-0.564
303	-0.549
304	-0.551
304	-0.549
305	-0.55
305	-0.549
305	-0.549
306	-0.533
306	-0.526
307	-0.512
307	-0.513
308	-0.527
308	-0.526
309	-0.528
309	-0.519
310	-0.506
310	-0.503
311	-0.494
311	-0.505
311	-0.504
312	-0.5
312	-0.499
313	-0.487
313	-0.488
314	-0.484
314	-0.485
315	-0.487
315	-0.487
316	-0.483
316	-0.475
317	-0.468
317	-0.462
318	-0.452
318	-0.449
318	-0.445
319	-0.436
319	-0.432
320	-0.424
320	-0.423
321	-0.428
321	-0.426
322	-0.422
322	-0.418
323	-0.418
323	-0.412
324	-0.404
324	-0.395
324	-0.386
325	-0.376
325	-0.362
326	-0.347
326	-0.329
327	-0.313
327	-0.292
328	-0.266
328	-0.249
329	-0.227
329	-0.205
330	-0.179
330	-0.148
330	-0.122
331	-0.095
331	-0.07
332	-0.045
332	-0.024
333	-0.004
333	0.019
334	0.037
334	0.053
335	0.069
335	0.082
336	0.094
336	0.106
336	0.115
337	0.125
337	0.133
338	0.14
338	0.145
339	0.152
339	0.157
340	0.161
340	0.165
341	0.169
341	0.172
342	0.175
342	0.178
342	0.181
343	0.183
343	0.185
344	0.187
344	0.188
345	0.19
345	0.19
346	0.191
346	0.192
347	0.192
347	0.193
348	0.193
348	0.194
348	0.194
349	0.195
349	0.195
350	0.195
350	0.195
351	0.196
351	0.196
352	0.196
352	0.196
353	0.196
353	0.196
354	0.196
354	0.196
354	0.196
355	0.196
355	0.195
356	0.195
356	0.195
357	0.195
357	0.194
358	0.194
358	0.194
359	0.194
359	0.194
360	0.193
360	0.193
360	0.193
361	0.193
361	0.193
362	0.193
362	0.193
363	0.194
363	0.193
364	0.194
364	0.194
365	0.194
365	0.194
366	0.194
366	0.194
366	0.194
367	0.194
367	0.194
368	0.194
368	0.194
369	0.194
369	0.194
370	0.194
370	0.193
371	0.193
371	0.193
372	0.193
372	0.193
372	0.194
373	0.193
373	0.194
374	0.193
374	0.193
375	0.193
375	0.193
376	0.193
376	0.193
377	0.194
377	0.194
378	0.193
378	0.193
378	0.193
379	0.193
379	0.193
380	0.193
380	0.193
381	0.193
381	0.193
382	0.193
382	0.192
383	0.192
383	0.192
383	0.192
384	0.192
384	0.192
385	0.192
385	0.192
386	0.192
386	0.192
387	0.192
387	0.192
388	0.192
388	0.192
389	0.192
389	0.192
389	0.192
390	0.192
390	0.192
391	0.192
391	0.192
392	0.192
392	0.192
393	0.192
393	0.192
394	0.192
394	0.192
394	0.191
395	0.191
395	0.191
396	0.191
396	0.191
397	0.191
397	0.191
398	0.191
398	0.191
399	0.191
399	0.191
400	0.191
400	0.191
400	0.191
401	0.191
401	0.191
402	0.191
402	0.191
403	0.19
403	0.19
404	0.19
404	0.19
405	0.19
405	0.19
405	0.19
406	0.19
406	0.19
407	0.19
407	0.19
408	0.19
408	0.189
409	0.189
409	0.189
410	0.189
410	0.189
411	0.189
411	0.189
411	0.19
412	0.19
412	0.19
413	0.19
413	0.189
414	0.19
414	0.189
415	0.189
415	0.189
416	0.189
416	0.189
416	0.189
417	0.188
417	0.188
418	0.188
418	0.189
419	0.189
419	0.189
420	0.189
420	0.189
421	0.189
421	0.189
421	0.189
422	0.19
422	0.19
423	0.189
423	0.189
424	0.189
424	0.189
425	0.189
425	0.188
426	0.188
426	0.188
427	0.188
427	0.187
427	0.187
428	0.187
428	0.187
429	0.187
429	0.187
430	0.187
430	0.187
431	0.187
431	0.187
432	0.187
432	0.187
432	0.186
433	0.186
433	0.186
434	0.186
434	0.186
435	0.186
435	0.186
436	0.186
436	0.186
437	0.186
437	0.186
437	0.186
438	0.186
438	0.186
439	0.186
439	0.186
440	0.186
440	0.186
441	0.186
441	0.186
442	0.185
442	0.185
442	0.185
443	0.185
443	0.185
444	0.185
444	0.185
445	0.185
445	0.185
446	0.185
446	0.185
447	0.185
447	0.185
447	0.185
448	0.185
448	0.185
449	0.185
449	0.185
450	0.185
450	0.185
451	0.185
451	0.185
452	0.185
452	0.185
452	0.185
453	0.185
453	0.184
454	0.184
454	0.184
455	0.183
455	0.183
456	0.183
456	0.183
457	0.183
457	0.183
458	0.183
458	0.183
458	0.183
459	0.183
459	0.183
460	0.183
460	0.183
461	0.183
461	0.183
462	0.183
462	0.183
463	0.183
463	0.183
463	0.183
464	0.183
464	0.183
465	0.183
465	0.183
466	0.184
466	0.184
467	0.184
467	0.184
467	0.184
468	0.184
468	0.184
469	0.184
469	0.184
470	0.185
470	0.185
471	0.184
471	0.184
472	0.185
472	0.185
472	0.185
473	0.185
473	0.185
474	0.185
474	0.184
475	0.184
475	0.184
476	0.185
476	0.184
477	0.184
477	0.184
477	0.184
478	0.184
478	0.184
479	0.185
479	0.185
480	0.185
480	0.185
481	0.185
481	0.186
482	0.186
482	0.186
482	0.187
483	0.187
483	0.188
484	0.187
484	0.187
485	0.187
485	0.187
486	0.188
486	0.188
487	0.188
487	0.188
487	0.189
488	0.189
488	0.189
489	0.19
489	0.191
490	0.191
490	0.192
491	0.193
491	0.193
492	0.194
492	0.194
492	0.194
493	0.195
493	0.195
494	0.196
494	0.196
495	0.197
495	0.197
496	0.198
496	0.199
496	0.2
497	0.201
497	0.201
498	0.202
498	0.203
499	0.203
499	0.204
500	0.205
500	0.206
501	0.206
501	0.207
501	0.207
502	0.207
502	0.208
503	0.209
503	0.209
504	0.21
504	0.21
505	0.211
505	0.212
506	0.213
506	0.214
506	0.215
507	0.215
507	0.216
508	0.217
508	0.218
509	0.219
509	0.22
510	0.221
510	0.222
511	0.222
511	0.223
511	0.224
512	0.225
512	0.226
513	0.227
513	0.228
514	0.229
514	0.229
515	0.23
515	0.23
515	0.231
516	0.232
516	0.233
517	0.234
517	0.234
518	0.235
518	0.236
519	0.236
519	0.237
520	0.238
520	0.239
520	0.24
521	0.241
521	0.242
522	0.243
522	0.244
523	0.246
523	0.246
524	0.247
524	0.248
524	0.248
525	0.249
525	0.249
526	0.25
526	0.25
527	0.251
527	0.251
528	0.252
528	0.253
529	0.253
529	0.254
529	0.255
530	0.256
530	0.256
531	0.257
531	0.257
532	0.258
532	0.259
533	0.259
533	0.26
533	0.26
534	0.26
534	0.26
535	0.26
535	0.261
536	0.261
536	0.26
537	0.26
537	0.26
538	0.261
538	0.261
538	0.262
539	0.262
539	0.263
540	0.263
540	0.264
541	0.264
541	0.265
542	0.266
542	0.266
542	0.266
543	0.266
543	0.266
544	0.266
544	0.267
545	0.267
545	0.268
546	0.268
546	0.268
547	0.268
547	0.268
547	0.269
548	0.269
548	0.269
549	0.27
549	0.27
550	0.271
550	0.271
551	0.271
551	0.272
551	0.273
552	0.274
552	0.275
553	0.276
553	0.277
554	0.277
554	0.277
555	0.277
555	0.277
556	0.277
556	0.278
556	0.278
557	0.278
557	0.277
558	0.277
558	0.277
559	0.277
559	0.277
560	0.277
560	0.276
560	0.276
561	0.277
561	0.277
562	0.276
562	0.276
563	0.276
563	0.276
564	0.277
564	0.277
564	0.278
565	0.278
565	0.279
566	0.279
566	0.279
567	0.28
567	0.28
568	0.28
568	0.28
568	0.28
569	0.28
569	0.28
570	0.279
570	0.278
571	0.278
571	0.278
572	0.278
572	0.277
573	0.277
573	0.277
573	0.277
574	0.277
574	0.277
575	0.277
575	0.278
576	0.278
576	0.278
577	0.278
577	0.278
577	0.279
578	0.28
578	0.281
579	0.282
579	0.283
580	0.282
580	0.281
581	0.281
581	0.281
581	0.282
582	0.282
582	0.282
583	0.282
583	0.282
584	0.28
584	0.279
585	0.28
585	0.281
585	0.281
586	0.281
586	0.281
587	0.281
587	0.281
588	0.281
588	0.281
589	0.282
589	0.282
590	0.282
590	0.283
590	0.284
591	0.285
591	0.285
592	0.284
592	0.284
593	0.284
593	0.284
594	0.284
594	0.284
594	0.284
595	0.284
595	0.284
596	0.284
596	0.285
597	0.287
597	0.287
598	0.287
598	0.287
598	0.287
599	0.286
599	0.286
600	0.285
600	0.284
601	0.284
601	0.283
602	0.282
602	0.283
602	0.282
603	0.283
603	0.284
604	0.285
604	0.286
605	0.286
605	0.287
606	0.287
606	0.287
606	0.286
607	0.286
607	0.286
608	0.285
608	0.284
609	0.284
609	0.285
610	0.285
610	0.285
610	0.286
611	0.287
611	0.288
612	0.289
612	0.29
613	0.29
613	0.291
614	0.29
614	0.289
614	0.288
615	0.288
615	0.287
616	0.287
616	0.286
617	0.285
617	0.284
618	0.283
618	0.283
618	0.283
619	0.283
619	0.283
620	0.284
620	0.283
621	0.283
621	0.283
622	0.283
622	0.282
622	0.282
623	0.282
623	0.282
624	0.282
624	0.281
625	0.281
625	0.281
626	0.28
626	0.28
626	0.279
627	0.279
627	0.278
628	0.277
628	0.276
629	0.275
629	0.274
630	0.272
630	0.27
630	0.269
631	0.268
631	0.266
632	0.263
632	0.261
633	0.259
633	0.257
634	0.255
634	0.253
634	0.25
635	0.248
635	0.245
636	0.241
636	0.238
637	0.235
637	0.231
638	0.227
638	0.223
638	0.218
639	0.213
639	0.209
640	0.204
640	0.199
641	0.194
641	0.189
642	0.184
642	0.18
642	0.175
643	0.169
643	0.163
644	0.157
644	0.151
645	0.144
645	0.138
646	0.132
646	0.125
646	0.118
647	0.11
647	0.103
648	0.096
648	0.088
649	0.08
649	0.072
650	0.064
650	0.056
650	0.047
651	0.036
651	0.023
652	0.008
652	-0.009
653	-0.022
653	-0.035
653	-0.032
654	-0.011
654	0
655	-0.003
655	-0.009
656	-0.015
656	-0.021
657	-0.026
657	-0.031
657	-0.038
658	-0.044
658	-0.073
659	-0.16
659	-0.261
660	-0.306
660	-0.333
661	-0.362
661	-0.393
661	-0.427
662	-0.459
662	-0.494
663	-0.533
663	-0.576
664	-0.619
664	-0.67
665	-0.721
665	-0.779
665	-0.832
666	-0.889
666	-0.95
667	-1.015
667	-1.079
668	-1.151
668	-1.224
669	-1.297
669	-1.37
669	-1.448
670	-1.516
670	-1.553
671	-1.711
671	-1.982
672	-2.208
672	-2.397
672	-2.526
673	-2.617
673	-2.697
674	-2.738
674	-2.756
675	-2.781
675	-2.921
676	-3.113
676	-3.064
676	-2.839
677	-2.634
677	-2.469
678	-2.288
678	-1.976
679	-1.693
679	-1.557
680	-1.464
680	-1.382
680	-1.313
681	-1.268
681	-1.21
682	-1.171
682	-1.135
683	-1.101
683	-1.087
684	-1.068
684	-1.05
684	-1.031
685	-1.008
685	-0.985
686	-0.962
686	-0.948
687	-0.923
687	-0.914
687	-0.894
688	-0.869
688	-0.849
689	-0.829
689	-0.815
690	-0.796
690	-0.786
691	-0.781
691	-0.786
691	-0.802
692	-0.794
692	-0.787
693	-0.782
693	-0.792
694	-0.786
694	-0.78
695	-0.786
695	-0.784
695	-0.768
696	-0.764
696	-0.741
697	-0.741
697	-0.755
698	-0.758
698	-0.746
698	-0.763
699	-0.763
699	-0.76
700	-0.751
700	-0.765
701	-0.764
701	-0.773
702	-0.774
702	-0.764
702	-0.756
703	-0.75
703	-0.74
704	-0.738
704	-0.739
705	-0.751
705	-0.745
705	-0.734
706	-0.734
706	-0.728
707	-0.732
707	-0.728
708	-0.728
708	-0.721
709	-0.725
709	-0.728
709	-0.72
710	-0.728
710	-0.739
711	-0.73
711	-0.732
712	-0.732
712	-0.744
713	-0.742
713	-0.749
713	-0.739
714	-0.736
714	-0.736
715	-0.724
715	-0.709
716	-0.717
716	-0.719
716	-0.711
717	-0.714
717	-0.716
718	-0.706
718	-0.709
719	-0.714
719	-0.714
720	-0.712
720	-0.722
720	-0.714
721	-0.706
721	-0.706
722	-0.691
722	-0.68
723	-0.679
723	-0.682
723	-0.666
724	-0.67
724	-0.672
725	-0.673
725	-0.68
726	-0.691
726	-0.695
727	-0.702
727	-0.717
727	-0.725
728	-0.726
728	-0.734
729	-0.734
729	-0.74
730	-0.747
730	-0.741
730	-0.73
731	-0.714
731	-0.724
732	-0.728
732	-0.729
733	-0.725
733	-0.73
734	-0.726
734	-0.724
734	-0.709
735	-0.707
735	-0.707
736	-0.718
736	-0.704
737	-0.698
737	-0.699
737	-0.711
738	-0.707
738	-0.706
739	-0.702
739	-0.716
740	-0.715
740	-0.716
741	-0.712
741	-0.712
741	-0.716
742	-0.712
742	-0.711
743	-0.718
743	-0.723
744	-0.722
744	-0.712
744	-0.715
745	-0.723
745	-0.714
746	-0.714
746	-0.71
747	-0.711
747	-0.698
748	-0.687
748	-0.691
748	-0.692
749	-0.689
749	-0.687
750	-0.676
750	-0.679
751	-0.683
751	-0.695
751	-0.697
752	-0.703
752	-0.713
753	-0.708
753	-0.705
754	-0.71
754	-0.707
754	-0.721
755	-0.736
755	-0.748
756	-0.735
756	-0.733
757	-0.73
757	-0.723
758	-0.724
758	-0.721
758	-0.725
759	-0.731
759	-0.714
760	-0.706
760	-0.699
761	-0.708
761	-0.706
761	-0.706
762	-0.715
762	-0.717
763	-0.725
763	-0.723
764	-0.721
764	-0.728
764	-0.735
765	-0.726
765	-0.713
766	-0.72
766	-0.726
767	-0.74
767	-0.733
768	-0.726
768	-0.735
768	-0.74
769	-0.76
769	-0.761
770	-0.764
770	-0.778
771	-0.776
771	-0.779
771	-0.778
772	-0.782
772	-0.78
773	-0.781
773	-0.776
774	-0.774
774	-0.775
775	-0.777
775	-0.77
775	-0.777
776	-0.777
776	-0.769
777	-0.779
777	-0.798
778	-0.795
778	-0.814
778	-0.8
779	-0.821
779	-0.828
780	-0.844
780	-0.843
781	-0.854
781	-0.85
781	-0.865
782	-0.866
782	-0.869
783	-0.855
783	-0.853
784	-0.834
784	-0.825
784	-0.836
785	-0.844
785	-0.83
786	-0.836
786	-0.813
787	-0.799
787	-0.801
788	-0.804
788	-0.815
788	-0.826
789	-0.825
789	-0.803
790	-0.783
790	-0.785
791	-0.784
791	-0.803
791	-0.808
792	-0.801
792	-0.779
793	-0.768
793	-0.744
794	-0.75
794	-0.743
794	-0.752
795	-0.746
795	-0.741
796	-0.724
796	-0.729
797	-0.724
797	-0.737
797	-0.745
798	-0.759
798	-0.753
799	-0.763
799	-0.748
800	-0.754
800	-0.745
801	-0.749
801	-0.735
801	-0.744
802	-0.752
802	-0.75
803	-0.751
803	-0.761
804	-0.755
804	-0.768
804	-0.756
805	-0.761
805	-0.752
806	-0.755
806	-0.739
807	-0.736
807	-0.718
807	-0.706
808	-0.697
808	-0.69
809	-0.676
809	-0.686
810	-0.683
810	-0.675
810	-0.671
811	-0.679
811	-0.67
812	-0.673
812	-0.674
813	-0.679
813	-0.675
813	-0.679
814	-0.681
814	-0.685
815	-0.69
815	-0.696
816	-0.687
816	-0.692
817	-0.698
817	-0.716
817	-0.73
818	-0.739
818	-0.741
819	-0.735
819	-0.737
820	-0.746
820	-0.741
820	-0.755
821	-0.753
821	-0.742
822	-0.708
822	-0.683
823	-0.68
823	-0.684
823	-0.677
824	-0.671
824	-0.673
825	-0.667
825	-0.646
826	-0.641
826	-0.65
826	-0.662
827	-0.656
827	-0.654
828	-0.634
828	-0.634
829	-0.623
829	-0.609
829	-0.601
830	-0.61
830	-0.607
831	-0.597
831	-0.586
832	-0.586
832	-0.577
832	-0.584
833	-0.58
833	-0.581
834	-0.579
834	-0.588
835	-0.574
835	-0.569
835	-0.566
836	-0.562
836	-0.559
837	-0.556
837	-0.546
838	-0.536
838	-0.525
839	-0.511
839	-0.497
839	-0.487
840	-0.475
840	-0.471
841	-0.459
841	-0.45
842	-0.442
842	-0.432
842	-0.425
843	-0.418
843	-0.413
844	-0.403
844	-0.396
845	-0.387
845	-0.375
845	-0.363
846	-0.349
846	-0.336
847	-0.322
847	-0.309
848	-0.299
848	-0.287
848	-0.27
849	-0.258
849	-0.245
850	-0.233
850	-0.225
851	-0.217
851	-0.206
851	-0.197
852	-0.182
852	-0.166
853	-0.157
853	-0.152
854	-0.139
854	-0.126
854	-0.115
855	-0.104
855	-0.096
856	-0.084
856	-0.074
857	-0.067
857	-0.058
857	-0.045
858	-0.033
858	-0.027
859	-0.02
859	-0.007
860	0.004
860	0.019
860	0.028
861	0.037
861	0.046
862	0.055
862	0.062
863	0.07
863	0.08
863	0.086
864	0.092
864	0.098
865	0.104
865	0.108
866	0.113
866	0.117
866	0.12
867	0.124
867	0.128
868	0.131
868	0.135
869	0.138
869	0.141
869	0.143
870	0.146
870	0.149
871	0.151
871	0.153
872	0.154
872	0.155
872	0.156
873	0.157
873	0.156
874	0.156
874	0.155
875	0.154
875	0.153
875	0.152
876	0.15
876	0.149
877	0.147
877	0.145
878	0.143
878	0.141
878	0.139
879	0.138
879	0.136
880	0.136
880	0.135
881	0.135
881	0.135
881	0.135
882	0.134
882	0.134
883	0.133
883	0.132
884	0.131
884	0.131
884	0.13
885	0.129
885	0.129
886	0.129
886	0.128
887	0.128
887	0.128
887	0.128
888	0.128
888	0.128
889	0.128
889	0.128
890	0.128
890	0.128
890	0.128
891	0.128
891	0.128
892	0.128
892	0.128
893	0.128
893	0.128
893	0.128
894	0.128
894	0.128
895	0.128
895	0.128
895	0.127
896	0.126
896	0.125
897	0.124
897	0.122
898	0.121
898	0.12
898	0.119
899	0.119
899	0.119
900	0.119
900	0.119
901	0.12
901	0.12
901	0.121
902	0.123
902	0.123
903	0.124
903	0.124
904	0.125
904	0.125
904	0.126
905	0.126
905	0.126
906	0.127
906	0.127
907	0.127
907	0.127
907	0.127
908	0.127
908	0.127
909	0.126
909	0.126
910	0.126
910	0.126
910	0.125
911	0.126
911	0.126
912	0.126
912	0.126
913	0.126
913	0.127
913	0.127
914	0.128
914	0.128
915	0.128
915	0.128
916	0.129
916	0.129
916	0.129
917	0.129
917	0.128
918	0.128
918	0.127
918	0.127
919	0.126
919	0.126
920	0.126
920	0.125
921	0.125
921	0.125
921	0.124
922	0.124
922	0.124
923	0.123
923	0.123
924	0.123
924	0.123
924	0.122
925	0.121
925	0.121
926	0.12
926	0.119
927	0.119
927	0.118
927	0.118
928	0.118
928	0.118
929	0.117
929	0.117
930	0.117
930	0.117
930	0.117
931	0.117
931	0.117
932	0.117
932	0.116
933	0.115
933	0.114
933	0.113
934	0.112
934	0.111
935	0.11
935	0.109
935	0.107
936	0.106
936	0.105
937	0.104
937	0.103
938	0.103
938	0.103
938	0.103
939	0.103
939	0.103
940	0.104
940	0.104
941	0.105
941	0.105
941	0.106
942	0.106
942	0.107
943	0.107
943	0.107
944	0.107
944	0.107
944	0.106
945	0.105
945	0.104
946	0.103
946	0.101
946	0.1
947	0.099
947	0.098
948	0.097
948	0.096
949	0.096
949	0.096
949	0.096
950	0.095
950	0.095
951	0.096
951	0.096
952	0.096
952	0.097
952	0.098
953	0.098
953	0.099
954	0.1
954	0.1
955	0.101
955	0.102
955	0.103
956	0.104
956	0.105
957	0.105
957	0.105
957	0.106
958	0.106
958	0.107
959	0.108
959	0.109
960	0.109
960	0.11
960	0.11
961	0.111
961	0.112
962	0.113
962	0.113
963	0.113
963	0.113
963	0.112
964	0.112
964	0.112
965	0.112
965	0.111
966	0.11
966	0.11
966	0.109
967	0.109
967	0.108
968	0.108
968	0.107
968	0.107
969	0.106
969	0.106
970	0.106
970	0.106
971	0.106
971	0.106
971	0.106
972	0.106
972	0.106
973	0.106
973	0.106
974	0.106
974	0.106
974	0.106
975	0.106
975	0.106
976	0.106
976	0.106
976	0.105
977	0.105
977	0.105
978	0.105
978	0.105
979	0.105
979	0.105
979	0.104
980	0.104
980	0.104
981	0.104
981	0.104
982	0.104
982	0.104
982	0.103
983	0.103
983	0.103
984	0.104
984	0.104
984	0.104
985	0.104
985	0.105
986	0.104
986	0.104
987	0.104
987	0.104
987	0.103
988	0.103
988	0.102
989	0.101
989	0.1
990	0.1
990	0.099
990	0.098
991	0.098
991	0.097
992	0.097
992	0.097
992	0.097
993	0.097
993	0.097
994	0.096
994	0.096
995	0.096
995	0.095
995	0.095
996	0.095
996	0.094
997	0.094
997	0.093
997	0.093
998	0.093
998	0.093
999	0.093
999	0.093
1000	0.094
1000	0.093
1000	0.093
1001	0.093
1001	0.093
1002	0.093
1002	0.093
1003	0.092
1003	0.092
1003	0.091
1004	0.091
1004	0.09
1005	0.088
1005	0.087
1005	0.086
1006	0.084
1006	0.083
1007	0.082
1007	0.081
1008	0.08
1008	0.08
1008	0.08
1009	0.08
1009	0.08
1010	0.08
1010	0.08
1010	0.08
1011	0.081
1011	0.08
1012	0.08
1012	0.08
1013	0.079
1013	0.078
1013	0.077
1014	0.076
1014	0.075
1015	0.074
1015	0.074
1016	0.072
1016	0.072
1016	0.071
1017	0.07
1017	0.069
1018	0.068
1018	0.068
1018	0.067
1019	0.067
1019	0.066
1020	0.065
1020	0.065
1021	0.064
1021	0.063
1021	0.062
1022	0.062
1022	0.061
1023	0.061
1023	0.061
1023	0.06
1024	0.061
1024	0.06
1025	0.06
1025	0.06
1026	0.061
1026	0.061
1026	0.061
1027	0.062
1027	0.062
1028	0.062
1028	0.063
1028	0.062
1029	0.062
1029	0.062
1030	0.062
1030	0.061
1031	0.061
1031	0.061
1031	0.06
1032	0.06
1032	0.06
1033	0.06
1033	0.059
1033	0.06
1034	0.059
1034	0.059
1035	0.059
1035	0.059
1036	0.059
1036	0.059
1036	0.059
1037	0.059
1037	0.059
1038	0.06
1038	0.06
1039	0.06
1039	0.06
1039	0.061
1040	0.062
1040	0.062
1041	0.063
1041	0.064
1041	0.064
1042	0.064
1042	0.064
1043	0.064
1043	0.063
1044	0.063
1044	0.062
1044	0.062
1045	0.061
1045	0.061
1046	0.06
1046	0.06
1046	0.06
1047	0.061
1047	0.061
1048	0.061
1048	0.061
1049	0.062
1049	0.062
1049	0.062
1050	0.063
1050	0.063
1051	0.063
1051	0.063
1051	0.064
1052	0.064
1052	0.064
1053	0.063
1053	0.063
1053	0.063
1054	0.063
1054	0.062
1055	0.061
1055	0.061
1056	0.06
1056	0.059
1056	0.057
1057	0.057
1057	0.056
1058	0.055
1058	0.054
1058	0.054
1059	0.053
1059	0.052
1060	0.052
1060	0.051
1061	0.051
1061	0.051
1061	0.051
1062	0.051
1062	0.051
1063	0.051
1063	0.051
1063	0.051
1064	0.051
1064	0.051
1065	0.051
1065	0.051
1066	0.051
1066	0.051
1066	0.05
1067	0.05
1067	0.05
1068	0.049
1068	0.048
1068	0.047
1069	0.047
1069	0.046
1070	0.045
1070	0.045
1071	0.044
1071	0.044
1071	0.044
1072	0.043
1072	0.043
1073	0.043
1073	0.043
1073	0.043
1074	0.044
1074	0.044
1075	0.043
1075	0.043
1076	0.042
1076	0.043
1076	0.042
1077	0.041
1077	0.04
1078	0.039
1078	0.039
1078	0.037
1079	0.037
1079	0.036
1080	0.036
1080	0.035
1080	0.034
1081	0.034
1081	0.034
1082	0.033
1082	0.032
1083	0.032
1083	0.031
1083	0.03
1084	0.029
1084	0.029
1085	0.028
1085	0.027
1085	0.026
1086	0.026
1086	0.025
1087	0.025
1087	0.024
1088	0.023
1088	0.023
1088	0.022
1089	0.02
1089	0.02
1090	0.019
1090	0.018
1090	0.016
1091	0.015
1091	0.014
1092	0.013
1092	0.013
1092	0.012
1093	0.012
1093	0.012
1094	0.012
1094	0.011
1095	0.01
1095	0.009
1095	0.009
1096	0.007
1096	0.005
1097	0.005
1097	0.004
1097	0.003
1098	0.001
1098	-0.001
1099	-0.002
1099	-0.004
1100	-0.006
1100	-0.007
1100	-0.009
1101	-0.011
1101	-0.014
1102	-0.016
1102	-0.02
1102	-0.021
1103	-0.022
1103	-0.025
1104	-0.027
1104	-0.029
1104	-0.032
1105	-0.034
1105	-0.037
1106	-0.043
1106	-0.045
1107	-0.049
1107	-0.054
1107	-0.061
1108	-0.063
1108	-0.066
1109	-0.068
1109	-0.073
1109	-0.077
1110	-0.077
1110	-0.08
1111	-0.087
1111	-0.09
