Data from 17C_3.1A_35min_2sec_int_Absorbance__56__02459.txt Node

Date: Mon Jun 19 18:17:09 CEST 2023
User: Marek
Spectrometer: MAYP115816
Trigger mode: 0
Integration Time (sec): 2.500000E-1
Scans to average: 10
Electric dark correction enabled: true
Nonlinearity correction enabled: true
Boxcar width: 5
XAxis mode: Wavelengths
Number of Pixels in Spectrum: 2068
>>>>>Begin Spectral Data<<<<<
199	-0.742
199	-0.758
200	-0.666
200	-0.612
201	-0.58
201	-0.563
202	-0.547
202	-0.536
203	-0.525
203	-0.52
204	-0.508
204	-0.495
205	-0.471
205	-0.465
205	-0.465
206	-0.466
206	-0.47
207	-0.46
207	-0.46
208	-0.464
208	-0.466
209	-0.46
209	-0.46
210	-0.463
210	-0.468
211	-0.466
211	-0.468
212	-0.471
212	-0.479
213	-0.475
213	-0.475
213	-0.477
214	-0.474
214	-0.473
215	-0.474
215	-0.48
216	-0.483
216	-0.49
217	-0.484
217	-0.487
218	-0.494
218	-0.495
219	-0.498
219	-0.508
220	-0.514
220	-0.526
221	-0.523
221	-0.527
221	-0.52
222	-0.518
222	-0.521
223	-0.52
223	-0.523
224	-0.525
224	-0.526
225	-0.522
225	-0.515
226	-0.521
226	-0.521
227	-0.528
227	-0.538
228	-0.537
228	-0.538
229	-0.541
229	-0.536
229	-0.531
230	-0.534
230	-0.536
231	-0.531
231	-0.521
232	-0.515
232	-0.512
233	-0.507
233	-0.507
234	-0.505
234	-0.501
235	-0.501
235	-0.506
236	-0.505
236	-0.507
236	-0.514
237	-0.52
237	-0.52
238	-0.529
238	-0.528
239	-0.527
239	-0.538
240	-0.538
240	-0.536
241	-0.541
241	-0.54
242	-0.545
242	-0.541
243	-0.539
243	-0.539
243	-0.547
244	-0.546
244	-0.543
245	-0.557
245	-0.558
246	-0.563
246	-0.571
247	-0.572
247	-0.576
248	-0.582
248	-0.579
249	-0.58
249	-0.59
250	-0.59
250	-0.585
250	-0.585
251	-0.58
251	-0.578
252	-0.582
252	-0.571
253	-0.575
253	-0.588
254	-0.588
254	-0.585
255	-0.592
255	-0.587
256	-0.586
256	-0.597
257	-0.593
257	-0.59
258	-0.608
258	-0.604
258	-0.6
259	-0.596
259	-0.603
260	-0.603
260	-0.61
261	-0.62
261	-0.612
262	-0.611
262	-0.611
263	-0.6
263	-0.597
264	-0.597
264	-0.604
265	-0.601
265	-0.609
265	-0.61
266	-0.608
266	-0.606
267	-0.621
267	-0.628
268	-0.641
268	-0.649
269	-0.646
269	-0.64
270	-0.644
270	-0.647
271	-0.646
271	-0.65
272	-0.653
272	-0.645
272	-0.637
273	-0.638
273	-0.648
274	-0.656
274	-0.661
275	-0.662
275	-0.656
276	-0.661
276	-0.655
277	-0.657
277	-0.677
278	-0.688
278	-0.681
278	-0.674
279	-0.673
279	-0.684
280	-0.681
280	-0.681
281	-0.677
281	-0.684
282	-0.678
282	-0.678
283	-0.666
283	-0.67
284	-0.665
284	-0.653
285	-0.648
285	-0.647
285	-0.642
286	-0.649
286	-0.643
287	-0.639
287	-0.623
288	-0.619
288	-0.623
289	-0.635
289	-0.645
290	-0.636
290	-0.634
291	-0.63
291	-0.625
292	-0.628
292	-0.635
292	-0.636
293	-0.636
293	-0.625
294	-0.615
294	-0.605
295	-0.602
295	-0.601
296	-0.6
296	-0.599
297	-0.592
297	-0.575
298	-0.568
298	-0.578
298	-0.569
299	-0.563
299	-0.566
300	-0.562
300	-0.556
301	-0.552
301	-0.551
302	-0.559
302	-0.569
303	-0.556
303	-0.543
304	-0.546
304	-0.544
305	-0.544
305	-0.542
305	-0.541
306	-0.525
306	-0.517
307	-0.504
307	-0.502
308	-0.516
308	-0.514
309	-0.515
309	-0.504
310	-0.494
310	-0.49
311	-0.482
311	-0.491
311	-0.488
312	-0.485
312	-0.483
313	-0.47
313	-0.473
314	-0.47
314	-0.473
315	-0.472
315	-0.47
316	-0.466
316	-0.457
317	-0.449
317	-0.443
318	-0.431
318	-0.427
318	-0.422
319	-0.412
319	-0.409
320	-0.402
320	-0.404
321	-0.407
321	-0.403
322	-0.399
322	-0.393
323	-0.393
323	-0.388
324	-0.379
324	-0.37
324	-0.358
325	-0.348
325	-0.329
326	-0.315
326	-0.296
327	-0.279
327	-0.259
328	-0.233
328	-0.211
329	-0.184
329	-0.157
330	-0.128
330	-0.092
330	-0.062
331	-0.028
331	0.002
332	0.033
332	0.06
333	0.088
333	0.118
334	0.143
334	0.167
335	0.189
335	0.207
336	0.224
336	0.242
336	0.256
337	0.27
337	0.282
338	0.294
338	0.3
339	0.31
339	0.318
340	0.324
340	0.331
341	0.336
341	0.34
342	0.345
342	0.349
342	0.353
343	0.356
343	0.36
344	0.362
344	0.364
345	0.366
345	0.367
346	0.368
346	0.369
347	0.37
347	0.371
348	0.371
348	0.372
348	0.372
349	0.372
349	0.373
350	0.373
350	0.374
351	0.374
351	0.374
352	0.374
352	0.374
353	0.374
353	0.374
354	0.374
354	0.374
354	0.373
355	0.373
355	0.373
356	0.373
356	0.373
357	0.371
357	0.37
358	0.37
358	0.37
359	0.37
359	0.369
360	0.369
360	0.369
360	0.369
361	0.369
361	0.368
362	0.369
362	0.369
363	0.369
363	0.368
364	0.368
364	0.368
365	0.368
365	0.367
366	0.367
366	0.367
366	0.367
367	0.367
367	0.366
368	0.366
368	0.366
369	0.365
369	0.365
370	0.365
370	0.364
371	0.364
371	0.364
372	0.363
372	0.363
372	0.363
373	0.363
373	0.362
374	0.362
374	0.361
375	0.361
375	0.361
376	0.361
376	0.36
377	0.36
377	0.36
378	0.36
378	0.359
378	0.359
379	0.359
379	0.358
380	0.358
380	0.357
381	0.357
381	0.356
382	0.356
382	0.355
383	0.355
383	0.354
383	0.354
384	0.354
384	0.353
385	0.353
385	0.353
386	0.353
386	0.352
387	0.352
387	0.352
388	0.351
388	0.351
389	0.351
389	0.35
389	0.35
390	0.35
390	0.35
391	0.349
391	0.349
392	0.349
392	0.348
393	0.348
393	0.348
394	0.347
394	0.347
394	0.346
395	0.345
395	0.345
396	0.344
396	0.344
397	0.343
397	0.343
398	0.343
398	0.343
399	0.342
399	0.342
400	0.342
400	0.341
400	0.341
401	0.341
401	0.34
402	0.34
402	0.34
403	0.339
403	0.339
404	0.338
404	0.338
405	0.338
405	0.338
405	0.338
406	0.337
406	0.337
407	0.336
407	0.336
408	0.336
408	0.336
409	0.335
409	0.335
410	0.335
410	0.335
411	0.335
411	0.335
411	0.335
412	0.335
412	0.334
413	0.334
413	0.334
414	0.333
414	0.333
415	0.332
415	0.332
416	0.332
416	0.331
416	0.331
417	0.331
417	0.331
418	0.331
418	0.331
419	0.331
419	0.33
420	0.33
420	0.33
421	0.33
421	0.33
421	0.33
422	0.33
422	0.33
423	0.33
423	0.329
424	0.329
424	0.328
425	0.328
425	0.327
426	0.327
426	0.327
427	0.326
427	0.326
427	0.326
428	0.326
428	0.326
429	0.326
429	0.326
430	0.326
430	0.326
431	0.325
431	0.325
432	0.325
432	0.325
432	0.325
433	0.324
433	0.324
434	0.324
434	0.324
435	0.324
435	0.323
436	0.323
436	0.323
437	0.323
437	0.324
437	0.323
438	0.323
438	0.323
439	0.323
439	0.323
440	0.323
440	0.324
441	0.323
441	0.323
442	0.323
442	0.323
442	0.323
443	0.323
443	0.323
444	0.323
444	0.323
445	0.323
445	0.323
446	0.323
446	0.323
447	0.323
447	0.324
447	0.324
448	0.324
448	0.324
449	0.324
449	0.325
450	0.325
450	0.325
451	0.325
451	0.325
452	0.325
452	0.325
452	0.325
453	0.325
453	0.325
454	0.325
454	0.325
455	0.325
455	0.325
456	0.325
456	0.325
457	0.325
457	0.326
458	0.326
458	0.326
458	0.326
459	0.327
459	0.327
460	0.327
460	0.327
461	0.328
461	0.328
462	0.329
462	0.329
463	0.33
463	0.33
463	0.331
464	0.331
464	0.331
465	0.332
465	0.332
466	0.333
466	0.333
467	0.334
467	0.334
467	0.335
468	0.335
468	0.335
469	0.336
469	0.337
470	0.338
470	0.339
471	0.339
471	0.339
472	0.34
472	0.341
472	0.342
473	0.343
473	0.344
474	0.344
474	0.345
475	0.346
475	0.347
476	0.348
476	0.349
477	0.349
477	0.35
477	0.351
478	0.353
478	0.354
479	0.355
479	0.356
480	0.357
480	0.358
481	0.36
481	0.361
482	0.362
482	0.364
482	0.365
483	0.367
483	0.368
484	0.369
484	0.371
485	0.372
485	0.374
486	0.375
486	0.376
487	0.378
487	0.38
487	0.381
488	0.383
488	0.385
489	0.387
489	0.39
490	0.393
490	0.395
491	0.397
491	0.399
492	0.402
492	0.404
492	0.407
493	0.409
493	0.411
494	0.414
494	0.417
495	0.419
495	0.422
496	0.424
496	0.427
496	0.43
497	0.433
497	0.436
498	0.439
498	0.442
499	0.445
499	0.448
500	0.451
500	0.455
501	0.458
501	0.461
501	0.464
502	0.467
502	0.47
503	0.473
503	0.476
504	0.48
504	0.483
505	0.486
505	0.489
506	0.493
506	0.496
506	0.499
507	0.502
507	0.506
508	0.509
508	0.512
509	0.516
509	0.519
510	0.522
510	0.526
511	0.529
511	0.533
511	0.536
512	0.539
512	0.542
513	0.545
513	0.548
514	0.552
514	0.555
515	0.558
515	0.561
515	0.563
516	0.566
516	0.57
517	0.573
517	0.576
518	0.578
518	0.58
519	0.583
519	0.585
520	0.588
520	0.591
520	0.594
521	0.595
521	0.598
522	0.599
522	0.601
523	0.604
523	0.606
524	0.607
524	0.608
524	0.609
525	0.61
525	0.611
526	0.612
526	0.613
527	0.614
527	0.615
528	0.615
528	0.616
529	0.617
529	0.617
529	0.618
530	0.618
530	0.618
531	0.618
531	0.618
532	0.618
532	0.618
533	0.618
533	0.617
533	0.616
534	0.616
534	0.615
535	0.613
535	0.612
536	0.611
536	0.609
537	0.607
537	0.605
538	0.604
538	0.602
538	0.6
539	0.598
539	0.597
540	0.595
540	0.593
541	0.59
541	0.588
542	0.586
542	0.583
542	0.58
543	0.577
543	0.574
544	0.571
544	0.568
545	0.565
545	0.562
546	0.56
546	0.556
547	0.553
547	0.55
547	0.547
548	0.545
548	0.541
549	0.539
549	0.536
550	0.533
550	0.529
551	0.526
551	0.523
551	0.52
552	0.517
552	0.514
553	0.511
553	0.508
554	0.505
554	0.501
555	0.498
555	0.494
556	0.491
556	0.487
556	0.483
557	0.48
557	0.476
558	0.472
558	0.468
559	0.464
559	0.46
560	0.456
560	0.452
560	0.449
561	0.445
561	0.441
562	0.437
562	0.434
563	0.43
563	0.426
564	0.423
564	0.419
564	0.416
565	0.413
565	0.41
566	0.406
566	0.402
567	0.399
567	0.395
568	0.391
568	0.387
568	0.383
569	0.38
569	0.376
570	0.371
570	0.367
571	0.364
571	0.361
572	0.357
572	0.354
573	0.351
573	0.347
573	0.344
574	0.342
574	0.339
575	0.336
575	0.334
576	0.33
576	0.326
577	0.323
577	0.321
577	0.319
578	0.316
578	0.314
579	0.312
579	0.309
580	0.305
580	0.301
581	0.297
581	0.295
581	0.292
582	0.29
582	0.288
583	0.286
583	0.283
584	0.279
584	0.276
585	0.274
585	0.272
585	0.27
586	0.268
586	0.266
587	0.263
587	0.261
588	0.258
588	0.256
589	0.253
589	0.251
590	0.249
590	0.247
590	0.245
591	0.242
591	0.239
592	0.236
592	0.234
593	0.232
593	0.23
594	0.228
594	0.226
594	0.225
595	0.223
595	0.221
596	0.219
596	0.218
597	0.217
597	0.215
598	0.212
598	0.21
598	0.208
599	0.206
599	0.204
600	0.202
600	0.2
601	0.198
601	0.196
602	0.194
602	0.192
602	0.19
603	0.189
603	0.188
604	0.187
604	0.186
605	0.185
605	0.184
606	0.182
606	0.18
606	0.179
607	0.177
607	0.176
608	0.174
608	0.172
609	0.17
609	0.169
610	0.167
610	0.166
610	0.165
611	0.165
611	0.164
612	0.164
612	0.164
613	0.163
613	0.162
614	0.161
614	0.159
614	0.157
615	0.156
615	0.154
616	0.153
616	0.151
617	0.149
617	0.147
618	0.145
618	0.144
618	0.143
619	0.143
619	0.142
620	0.142
620	0.141
621	0.14
621	0.139
622	0.138
622	0.137
622	0.136
623	0.135
623	0.134
624	0.134
624	0.132
625	0.131
625	0.13
626	0.129
626	0.128
626	0.127
627	0.127
627	0.125
628	0.124
628	0.123
629	0.121
629	0.12
630	0.118
630	0.116
630	0.114
631	0.113
631	0.111
632	0.108
632	0.106
633	0.104
633	0.102
634	0.1
634	0.098
634	0.096
635	0.094
635	0.091
636	0.089
636	0.086
637	0.083
637	0.08
638	0.077
638	0.073
638	0.07
639	0.066
639	0.062
640	0.058
640	0.054
641	0.05
641	0.046
642	0.042
642	0.038
642	0.034
643	0.03
643	0.025
644	0.02
644	0.015
645	0.01
645	0.005
646	0.001
646	-0.005
646	-0.011
647	-0.016
647	-0.021
648	-0.026
648	-0.031
649	-0.037
649	-0.043
650	-0.048
650	-0.054
650	-0.061
651	-0.068
651	-0.077
652	-0.088
652	-0.1
653	-0.109
653	-0.117
653	-0.114
654	-0.099
654	-0.092
655	-0.095
655	-0.098
656	-0.102
656	-0.106
657	-0.108
657	-0.11
657	-0.114
658	-0.118
658	-0.14
659	-0.201
659	-0.273
660	-0.305
660	-0.324
661	-0.346
661	-0.369
661	-0.395
662	-0.418
662	-0.442
663	-0.47
663	-0.502
664	-0.534
664	-0.574
665	-0.613
665	-0.658
665	-0.702
666	-0.747
666	-0.797
667	-0.852
667	-0.907
668	-0.97
668	-1.037
669	-1.106
669	-1.174
669	-1.25
670	-1.325
670	-1.44
671	-1.776
671	-2.02
672	-2.236
672	-2.419
672	-2.545
673	-2.635
673	-2.68
674	-2.7
674	-2.714
675	-2.738
675	-2.873
676	-3.037
676	-2.973
676	-2.727
677	-2.487
677	-2.256
678	-1.904
678	-1.512
679	-1.346
679	-1.249
680	-1.177
680	-1.114
680	-1.061
681	-1.032
681	-0.988
682	-0.962
682	-0.935
683	-0.911
683	-0.906
684	-0.896
684	-0.886
684	-0.874
685	-0.86
685	-0.847
686	-0.83
686	-0.822
687	-0.803
687	-0.8
687	-0.788
688	-0.768
688	-0.753
689	-0.739
689	-0.732
690	-0.717
690	-0.709
691	-0.707
691	-0.716
691	-0.734
692	-0.727
692	-0.721
693	-0.72
693	-0.732
694	-0.728
694	-0.723
695	-0.73
695	-0.733
695	-0.719
696	-0.719
696	-0.697
697	-0.701
697	-0.718
698	-0.721
698	-0.713
698	-0.729
699	-0.733
699	-0.732
700	-0.724
700	-0.742
701	-0.741
701	-0.749
702	-0.75
702	-0.739
702	-0.732
703	-0.726
703	-0.718
704	-0.716
704	-0.716
705	-0.728
705	-0.718
705	-0.708
706	-0.709
706	-0.706
707	-0.712
707	-0.709
708	-0.708
708	-0.7
709	-0.702
709	-0.707
709	-0.699
710	-0.71
710	-0.717
711	-0.708
711	-0.708
712	-0.705
712	-0.719
713	-0.721
713	-0.728
713	-0.72
714	-0.714
714	-0.715
715	-0.706
715	-0.694
716	-0.704
716	-0.708
716	-0.704
717	-0.704
717	-0.704
718	-0.697
718	-0.697
719	-0.705
719	-0.707
720	-0.703
720	-0.714
720	-0.706
721	-0.695
721	-0.693
722	-0.68
722	-0.672
723	-0.669
723	-0.676
723	-0.662
724	-0.665
724	-0.67
725	-0.669
725	-0.68
726	-0.693
726	-0.701
727	-0.708
727	-0.724
727	-0.732
728	-0.731
728	-0.739
729	-0.74
729	-0.744
730	-0.749
730	-0.741
730	-0.731
731	-0.713
731	-0.724
732	-0.73
732	-0.729
733	-0.729
733	-0.732
734	-0.724
734	-0.723
734	-0.712
735	-0.712
735	-0.714
736	-0.724
736	-0.71
737	-0.7
737	-0.703
737	-0.713
738	-0.709
738	-0.711
739	-0.707
739	-0.718
740	-0.717
740	-0.716
741	-0.712
741	-0.712
741	-0.716
742	-0.712
742	-0.713
743	-0.72
743	-0.724
744	-0.722
744	-0.712
744	-0.715
745	-0.721
745	-0.714
746	-0.715
746	-0.711
747	-0.713
747	-0.701
748	-0.69
748	-0.696
748	-0.698
749	-0.697
749	-0.697
750	-0.688
750	-0.688
751	-0.69
751	-0.701
751	-0.703
752	-0.706
752	-0.717
753	-0.713
753	-0.711
754	-0.715
754	-0.71
754	-0.722
755	-0.738
755	-0.75
756	-0.738
756	-0.735
757	-0.733
757	-0.727
758	-0.727
758	-0.724
758	-0.728
759	-0.733
759	-0.716
760	-0.709
760	-0.703
761	-0.714
761	-0.713
761	-0.713
762	-0.722
762	-0.721
763	-0.732
763	-0.73
764	-0.729
764	-0.738
764	-0.742
765	-0.734
765	-0.72
766	-0.728
766	-0.735
767	-0.748
767	-0.743
768	-0.733
768	-0.739
768	-0.744
769	-0.76
769	-0.762
770	-0.765
770	-0.779
771	-0.775
771	-0.778
771	-0.781
772	-0.78
772	-0.781
773	-0.781
773	-0.778
774	-0.777
774	-0.781
775	-0.785
775	-0.78
775	-0.788
776	-0.787
776	-0.773
777	-0.783
777	-0.803
778	-0.801
778	-0.821
778	-0.807
779	-0.828
779	-0.835
780	-0.85
780	-0.848
781	-0.859
781	-0.855
781	-0.869
782	-0.868
782	-0.869
783	-0.853
783	-0.853
784	-0.831
784	-0.82
784	-0.828
785	-0.833
785	-0.82
786	-0.828
786	-0.809
787	-0.795
787	-0.799
788	-0.802
788	-0.812
788	-0.824
789	-0.829
789	-0.812
790	-0.794
790	-0.797
791	-0.797
791	-0.814
791	-0.822
792	-0.815
792	-0.792
793	-0.783
793	-0.76
794	-0.764
794	-0.756
794	-0.765
795	-0.76
795	-0.752
796	-0.735
796	-0.741
797	-0.736
797	-0.751
797	-0.756
798	-0.769
798	-0.762
799	-0.773
799	-0.759
800	-0.764
800	-0.758
801	-0.764
801	-0.753
801	-0.763
802	-0.768
802	-0.77
803	-0.771
803	-0.779
804	-0.771
804	-0.783
804	-0.772
805	-0.779
805	-0.768
806	-0.769
806	-0.753
807	-0.751
807	-0.731
807	-0.718
808	-0.711
808	-0.706
809	-0.691
809	-0.699
810	-0.695
810	-0.687
810	-0.685
811	-0.691
811	-0.684
812	-0.687
812	-0.69
813	-0.694
813	-0.691
813	-0.697
814	-0.699
814	-0.703
815	-0.709
815	-0.71
816	-0.703
816	-0.706
817	-0.712
817	-0.734
817	-0.749
818	-0.757
818	-0.759
819	-0.751
819	-0.751
820	-0.761
820	-0.759
820	-0.772
821	-0.771
821	-0.76
822	-0.726
822	-0.702
823	-0.699
823	-0.703
823	-0.7
824	-0.695
824	-0.696
825	-0.688
825	-0.667
826	-0.663
826	-0.67
826	-0.681
827	-0.677
827	-0.672
828	-0.651
828	-0.651
829	-0.642
829	-0.629
829	-0.62
830	-0.631
830	-0.628
831	-0.62
831	-0.609
832	-0.606
832	-0.598
832	-0.607
833	-0.602
833	-0.602
834	-0.601
834	-0.611
835	-0.598
835	-0.594
835	-0.592
836	-0.59
836	-0.586
837	-0.584
837	-0.574
838	-0.566
838	-0.554
839	-0.541
839	-0.53
839	-0.52
840	-0.508
840	-0.504
841	-0.491
841	-0.484
842	-0.48
842	-0.469
842	-0.462
843	-0.456
843	-0.451
844	-0.443
844	-0.435
845	-0.427
845	-0.417
845	-0.405
846	-0.394
846	-0.378
847	-0.369
847	-0.36
848	-0.35
848	-0.34
848	-0.325
849	-0.317
849	-0.307
850	-0.293
850	-0.289
851	-0.28
851	-0.27
851	-0.261
852	-0.246
852	-0.233
853	-0.223
853	-0.218
854	-0.207
854	-0.196
854	-0.187
855	-0.177
855	-0.171
856	-0.163
856	-0.156
857	-0.15
857	-0.143
857	-0.135
858	-0.126
858	-0.12
859	-0.113
859	-0.103
860	-0.094
860	-0.084
860	-0.077
861	-0.07
861	-0.063
862	-0.057
862	-0.05
863	-0.045
863	-0.037
863	-0.033
864	-0.029
864	-0.024
865	-0.019
865	-0.015
866	-0.01
866	-0.007
866	-0.004
867	-0.001
867	0.003
868	0.005
868	0.008
869	0.011
869	0.012
869	0.014
870	0.016
870	0.017
871	0.02
871	0.021
872	0.023
872	0.023
872	0.024
873	0.025
873	0.025
874	0.025
874	0.025
875	0.024
875	0.023
875	0.023
876	0.022
876	0.021
877	0.02
877	0.019
878	0.017
878	0.016
878	0.015
879	0.013
879	0.013
880	0.012
880	0.012
881	0.012
881	0.012
881	0.011
882	0.011
882	0.01
883	0.009
883	0.008
884	0.007
884	0.006
884	0.005
885	0.004
885	0.004
886	0.004
886	0.004
887	0.003
887	0.004
887	0.004
888	0.004
888	0.005
889	0.005
889	0.006
890	0.006
890	0.006
890	0.006
891	0.006
891	0.006
892	0.006
892	0.007
893	0.007
893	0.007
893	0.007
894	0.007
894	0.007
895	0.006
895	0.006
895	0.006
896	0.005
896	0.004
897	0.003
897	0.002
898	0.001
898	0
898	0
899	0
899	0.001
900	0.001
900	0.001
901	0.002
901	0.003
901	0.004
902	0.005
902	0.006
903	0.006
903	0.006
904	0.007
904	0.008
904	0.009
905	0.009
905	0.01
906	0.01
906	0.011
907	0.011
907	0.011
907	0.01
908	0.01
908	0.01
909	0.009
909	0.008
910	0.008
910	0.007
910	0.007
911	0.007
911	0.008
912	0.009
912	0.009
913	0.01
913	0.011
913	0.012
914	0.013
914	0.014
915	0.016
915	0.016
916	0.017
916	0.017
916	0.018
917	0.018
917	0.018
918	0.018
918	0.018
918	0.018
919	0.017
919	0.017
920	0.017
920	0.017
921	0.017
921	0.016
921	0.016
922	0.016
922	0.016
923	0.016
923	0.015
924	0.015
924	0.015
924	0.014
925	0.013
925	0.012
926	0.012
926	0.011
927	0.01
927	0.009
927	0.009
928	0.008
928	0.008
929	0.007
929	0.006
930	0.006
930	0.005
930	0.005
931	0.004
931	0.004
932	0.003
932	0.002
933	0.001
933	0
933	-0.001
934	-0.002
934	-0.002
935	-0.003
935	-0.004
935	-0.004
936	-0.005
936	-0.006
937	-0.007
937	-0.007
938	-0.007
938	-0.007
938	-0.006
939	-0.006
939	-0.006
940	-0.005
940	-0.005
941	-0.004
941	-0.004
941	-0.002
942	-0.002
942	-0.002
943	-0.001
943	-0.001
944	-0.002
944	-0.002
944	-0.003
945	-0.003
945	-0.004
946	-0.005
946	-0.006
946	-0.007
947	-0.007
947	-0.008
948	-0.008
948	-0.007
949	-0.007
949	-0.007
949	-0.007
950	-0.006
950	-0.006
951	-0.005
951	-0.004
952	-0.004
952	-0.002
952	-0.002
953	-0.001
953	0.001
954	0.001
954	0.002
955	0.004
955	0.005
955	0.006
956	0.007
956	0.008
957	0.008
957	0.008
957	0.009
958	0.009
958	0.01
959	0.01
959	0.01
960	0.01
960	0.01
960	0.01
961	0.01
961	0.01
962	0.01
962	0.01
963	0.011
963	0.01
963	0.01
964	0.01
964	0.011
965	0.011
965	0.011
966	0.011
966	0.011
966	0.01
967	0.01
967	0.009
968	0.009
968	0.008
968	0.008
969	0.007
969	0.007
970	0.006
970	0.006
971	0.006
971	0.007
971	0.007
972	0.007
972	0.007
973	0.008
973	0.007
974	0.008
974	0.008
974	0.008
975	0.008
975	0.007
976	0.007
976	0.007
976	0.007
977	0.007
977	0.007
978	0.007
978	0.007
979	0.007
979	0.007
979	0.007
980	0.007
980	0.007
981	0.007
981	0.007
982	0.007
982	0.006
982	0.006
983	0.005
983	0.005
984	0.005
984	0.005
984	0.005
985	0.005
985	0.005
986	0.004
986	0.004
987	0.004
987	0.003
987	0.003
988	0.002
988	0.002
989	0.001
989	0
990	-0.001
990	-0.001
990	-0.002
991	-0.002
991	-0.002
992	-0.002
992	-0.002
992	-0.002
993	-0.002
993	-0.003
994	-0.002
994	-0.003
995	-0.003
995	-0.003
995	-0.004
996	-0.004
996	-0.005
997	-0.006
997	-0.006
997	-0.006
998	-0.006
998	-0.006
999	-0.005
999	-0.005
1000	-0.005
1000	-0.004
1000	-0.004
1001	-0.003
1001	-0.003
1002	-0.003
1002	-0.002
1003	-0.002
1003	-0.002
1003	-0.002
1004	-0.002
1004	-0.002
1005	-0.003
1005	-0.004
1005	-0.004
1006	-0.005
1006	-0.006
1007	-0.007
1007	-0.008
1008	-0.009
1008	-0.01
1008	-0.01
1009	-0.01
1009	-0.01
1010	-0.01
1010	-0.01
1010	-0.01
1011	-0.01
1011	-0.01
1012	-0.01
1012	-0.01
1013	-0.011
1013	-0.011
1013	-0.012
1014	-0.012
1014	-0.013
1015	-0.014
1015	-0.014
1016	-0.015
1016	-0.016
1016	-0.017
1017	-0.017
1017	-0.018
1018	-0.019
1018	-0.02
1018	-0.021
1019	-0.021
1019	-0.022
1020	-0.023
1020	-0.023
1021	-0.024
1021	-0.024
1021	-0.025
1022	-0.025
1022	-0.026
1023	-0.026
1023	-0.026
1023	-0.026
1024	-0.026
1024	-0.027
1025	-0.027
1025	-0.026
1026	-0.026
1026	-0.025
1026	-0.025
1027	-0.024
1027	-0.024
1028	-0.023
1028	-0.024
1028	-0.024
1029	-0.024
1029	-0.023
1030	-0.024
1030	-0.025
1031	-0.025
1031	-0.025
1031	-0.026
1032	-0.026
1032	-0.026
1033	-0.026
1033	-0.026
1033	-0.025
1034	-0.026
1034	-0.026
1035	-0.026
1035	-0.026
1036	-0.026
1036	-0.026
1036	-0.026
1037	-0.026
1037	-0.025
1038	-0.025
1038	-0.025
1039	-0.025
1039	-0.024
1039	-0.024
1040	-0.024
1040	-0.023
1041	-0.023
1041	-0.022
1041	-0.022
1042	-0.022
1042	-0.022
1043	-0.023
1043	-0.023
1044	-0.024
1044	-0.024
1044	-0.025
1045	-0.026
1045	-0.027
1046	-0.028
1046	-0.028
1046	-0.029
1047	-0.029
1047	-0.029
1048	-0.029
1048	-0.029
1049	-0.028
1049	-0.028
1049	-0.028
1050	-0.027
1050	-0.027
1051	-0.027
1051	-0.026
1051	-0.026
1052	-0.025
1052	-0.025
1053	-0.025
1053	-0.025
1053	-0.025
1054	-0.025
1054	-0.025
1055	-0.024
1055	-0.025
1056	-0.025
1056	-0.026
1056	-0.027
1057	-0.028
1057	-0.028
1058	-0.028
1058	-0.029
1058	-0.029
1059	-0.029
1059	-0.03
1060	-0.031
1060	-0.032
1061	-0.032
1061	-0.032
1061	-0.032
1062	-0.032
1062	-0.032
1063	-0.032
1063	-0.033
1063	-0.032
1064	-0.031
1064	-0.032
1065	-0.031
1065	-0.031
1066	-0.032
1066	-0.032
1066	-0.032
1067	-0.032
1067	-0.032
1068	-0.032
1068	-0.033
1068	-0.033
1069	-0.033
1069	-0.034
1070	-0.034
1070	-0.034
1071	-0.035
1071	-0.034
1071	-0.035
1072	-0.035
1072	-0.036
1073	-0.036
1073	-0.036
1073	-0.036
1074	-0.036
1074	-0.036
1075	-0.036
1075	-0.036
1076	-0.037
1076	-0.037
1076	-0.038
1077	-0.038
1077	-0.038
1078	-0.039
1078	-0.04
1078	-0.041
1079	-0.042
1079	-0.042
1080	-0.044
1080	-0.044
1080	-0.045
1081	-0.045
1081	-0.045
1082	-0.046
1082	-0.047
1083	-0.048
1083	-0.048
1083	-0.049
1084	-0.05
1084	-0.05
1085	-0.051
1085	-0.052
1085	-0.052
1086	-0.052
1086	-0.054
1087	-0.054
1087	-0.054
1088	-0.055
1088	-0.055
1088	-0.056
1089	-0.057
1089	-0.057
1090	-0.058
1090	-0.059
1090	-0.06
1091	-0.06
1091	-0.061
1092	-0.062
1092	-0.061
1092	-0.062
1093	-0.063
1093	-0.063
1094	-0.063
1094	-0.064
1095	-0.065
1095	-0.065
1095	-0.065
1096	-0.066
1096	-0.067
1097	-0.067
1097	-0.068
1097	-0.068
1098	-0.069
1098	-0.07
1099	-0.071
1099	-0.072
1100	-0.074
1100	-0.076
1100	-0.078
1101	-0.079
1101	-0.082
1102	-0.084
1102	-0.086
1102	-0.087
1103	-0.089
1103	-0.091
1104	-0.093
1104	-0.095
1104	-0.097
1105	-0.098
1105	-0.102
1106	-0.106
1106	-0.108
1107	-0.114
1107	-0.118
1107	-0.123
1108	-0.126
1108	-0.128
1109	-0.132
1109	-0.137
1109	-0.14
1110	-0.141
1110	-0.146
1111	-0.152
1111	-0.15
