Data from 17C_3.1A_35min_2sec_int_Absorbance__355__02758.txt Node

Date: Mon Jun 19 18:29:37 CEST 2023
User: Marek
Spectrometer: MAYP115816
Trigger mode: 0
Integration Time (sec): 2.500000E-1
Scans to average: 10
Electric dark correction enabled: true
Nonlinearity correction enabled: true
Boxcar width: 5
XAxis mode: Wavelengths
Number of Pixels in Spectrum: 2068
>>>>>Begin Spectral Data<<<<<
199	-0.746
199	-0.767
200	-0.674
200	-0.621
201	-0.587
201	-0.571
202	-0.552
202	-0.539
203	-0.53
203	-0.526
204	-0.513
204	-0.5
205	-0.473
205	-0.466
205	-0.466
206	-0.466
206	-0.468
207	-0.459
207	-0.462
208	-0.465
208	-0.463
209	-0.458
209	-0.459
210	-0.465
210	-0.472
211	-0.472
211	-0.474
212	-0.477
212	-0.487
213	-0.484
213	-0.483
213	-0.488
214	-0.485
214	-0.485
215	-0.484
215	-0.49
216	-0.492
216	-0.502
217	-0.498
217	-0.502
218	-0.506
218	-0.508
219	-0.512
219	-0.522
220	-0.527
220	-0.537
221	-0.533
221	-0.538
221	-0.53
222	-0.526
222	-0.527
223	-0.53
223	-0.531
224	-0.535
224	-0.535
225	-0.528
225	-0.525
226	-0.531
226	-0.529
227	-0.534
227	-0.542
228	-0.542
228	-0.544
229	-0.546
229	-0.539
229	-0.536
230	-0.541
230	-0.544
231	-0.537
231	-0.53
232	-0.524
232	-0.525
233	-0.52
233	-0.52
234	-0.521
234	-0.518
235	-0.519
235	-0.524
236	-0.523
236	-0.527
236	-0.534
237	-0.54
237	-0.539
238	-0.546
238	-0.542
239	-0.54
239	-0.548
240	-0.547
240	-0.545
241	-0.551
241	-0.547
242	-0.552
242	-0.551
243	-0.548
243	-0.55
243	-0.558
244	-0.559
244	-0.558
245	-0.573
245	-0.572
246	-0.575
246	-0.583
247	-0.584
247	-0.585
248	-0.593
248	-0.59
249	-0.593
249	-0.601
250	-0.599
250	-0.594
250	-0.595
251	-0.594
251	-0.594
252	-0.594
252	-0.587
253	-0.59
253	-0.601
254	-0.6
254	-0.598
255	-0.609
255	-0.603
256	-0.599
256	-0.612
257	-0.609
257	-0.608
258	-0.623
258	-0.621
258	-0.617
259	-0.613
259	-0.622
260	-0.62
260	-0.627
261	-0.638
261	-0.627
262	-0.626
262	-0.626
263	-0.615
263	-0.609
264	-0.608
264	-0.616
265	-0.61
265	-0.619
265	-0.621
266	-0.616
266	-0.615
267	-0.626
267	-0.633
268	-0.648
268	-0.657
269	-0.656
269	-0.652
270	-0.658
270	-0.66
271	-0.66
271	-0.668
272	-0.672
272	-0.667
272	-0.659
273	-0.658
273	-0.667
274	-0.672
274	-0.677
275	-0.676
275	-0.669
276	-0.674
276	-0.668
277	-0.671
277	-0.688
278	-0.699
278	-0.693
278	-0.689
279	-0.691
279	-0.702
280	-0.701
280	-0.701
281	-0.695
281	-0.7
282	-0.693
282	-0.696
283	-0.687
283	-0.689
284	-0.683
284	-0.673
285	-0.667
285	-0.666
285	-0.662
286	-0.671
286	-0.665
287	-0.663
287	-0.646
288	-0.638
288	-0.647
289	-0.659
289	-0.669
290	-0.659
290	-0.656
291	-0.654
291	-0.646
292	-0.648
292	-0.655
292	-0.66
293	-0.666
293	-0.653
294	-0.639
294	-0.628
295	-0.627
295	-0.626
296	-0.623
296	-0.621
297	-0.617
297	-0.601
298	-0.593
298	-0.601
298	-0.592
299	-0.586
299	-0.589
300	-0.585
300	-0.579
301	-0.575
301	-0.573
302	-0.58
302	-0.589
303	-0.578
303	-0.564
304	-0.565
304	-0.564
305	-0.565
305	-0.564
305	-0.562
306	-0.545
306	-0.539
307	-0.525
307	-0.524
308	-0.537
308	-0.534
309	-0.534
309	-0.524
310	-0.513
310	-0.51
311	-0.501
311	-0.512
311	-0.509
312	-0.505
312	-0.503
313	-0.488
313	-0.492
314	-0.491
314	-0.494
315	-0.494
315	-0.492
316	-0.488
316	-0.48
317	-0.473
317	-0.469
318	-0.459
318	-0.458
318	-0.454
319	-0.443
319	-0.438
320	-0.43
320	-0.433
321	-0.439
321	-0.435
322	-0.43
322	-0.422
323	-0.422
323	-0.417
324	-0.41
324	-0.403
324	-0.395
325	-0.386
325	-0.367
326	-0.351
326	-0.333
327	-0.319
327	-0.3
328	-0.273
328	-0.252
329	-0.227
329	-0.203
330	-0.176
330	-0.144
330	-0.116
331	-0.088
331	-0.06
332	-0.034
332	-0.01
333	0.014
333	0.038
334	0.059
334	0.077
335	0.095
335	0.11
336	0.123
336	0.137
336	0.147
337	0.159
337	0.169
338	0.177
338	0.182
339	0.191
339	0.196
340	0.201
340	0.205
341	0.209
341	0.212
342	0.216
342	0.219
342	0.222
343	0.224
343	0.227
344	0.229
344	0.23
345	0.231
345	0.232
346	0.233
346	0.234
347	0.235
347	0.236
348	0.236
348	0.237
348	0.237
349	0.237
349	0.238
350	0.238
350	0.238
351	0.239
351	0.239
352	0.239
352	0.239
353	0.239
353	0.239
354	0.238
354	0.238
354	0.238
355	0.238
355	0.238
356	0.237
356	0.237
357	0.236
357	0.236
358	0.236
358	0.236
359	0.236
359	0.236
360	0.235
360	0.236
360	0.235
361	0.235
361	0.235
362	0.236
362	0.236
363	0.236
363	0.235
364	0.235
364	0.235
365	0.235
365	0.235
366	0.235
366	0.235
366	0.235
367	0.236
367	0.236
368	0.235
368	0.235
369	0.235
369	0.235
370	0.235
370	0.235
371	0.235
371	0.235
372	0.235
372	0.235
372	0.235
373	0.235
373	0.235
374	0.235
374	0.235
375	0.234
375	0.234
376	0.234
376	0.234
377	0.235
377	0.235
378	0.234
378	0.234
378	0.234
379	0.234
379	0.234
380	0.234
380	0.234
381	0.233
381	0.233
382	0.233
382	0.233
383	0.233
383	0.232
383	0.232
384	0.232
384	0.232
385	0.232
385	0.233
386	0.233
386	0.232
387	0.232
387	0.232
388	0.232
388	0.232
389	0.232
389	0.233
389	0.233
390	0.233
390	0.233
391	0.232
391	0.232
392	0.232
392	0.232
393	0.232
393	0.232
394	0.232
394	0.231
394	0.231
395	0.231
395	0.23
396	0.23
396	0.23
397	0.23
397	0.23
398	0.23
398	0.23
399	0.23
399	0.23
400	0.23
400	0.23
400	0.23
401	0.23
401	0.23
402	0.23
402	0.229
403	0.229
403	0.229
404	0.229
404	0.229
405	0.229
405	0.229
405	0.228
406	0.228
406	0.228
407	0.228
407	0.228
408	0.228
408	0.228
409	0.228
409	0.228
410	0.228
410	0.228
411	0.228
411	0.228
411	0.228
412	0.228
412	0.228
413	0.228
413	0.228
414	0.228
414	0.228
415	0.227
415	0.227
416	0.227
416	0.227
416	0.227
417	0.226
417	0.226
418	0.227
418	0.227
419	0.227
419	0.227
420	0.227
420	0.227
421	0.227
421	0.227
421	0.227
422	0.227
422	0.227
423	0.226
423	0.226
424	0.225
424	0.225
425	0.225
425	0.224
426	0.224
426	0.224
427	0.224
427	0.224
427	0.224
428	0.224
428	0.224
429	0.224
429	0.224
430	0.224
430	0.224
431	0.223
431	0.223
432	0.223
432	0.223
432	0.223
433	0.222
433	0.222
434	0.222
434	0.222
435	0.222
435	0.222
436	0.222
436	0.222
437	0.222
437	0.222
437	0.222
438	0.222
438	0.222
439	0.222
439	0.222
440	0.222
440	0.222
441	0.221
441	0.221
442	0.221
442	0.221
442	0.221
443	0.221
443	0.221
444	0.221
444	0.22
445	0.22
445	0.22
446	0.22
446	0.22
447	0.22
447	0.221
447	0.221
448	0.221
448	0.221
449	0.221
449	0.221
450	0.221
450	0.221
451	0.221
451	0.221
452	0.221
452	0.221
452	0.22
453	0.22
453	0.22
454	0.22
454	0.22
455	0.22
455	0.22
456	0.219
456	0.219
457	0.219
457	0.219
458	0.219
458	0.219
458	0.219
459	0.219
459	0.219
460	0.219
460	0.219
461	0.219
461	0.219
462	0.219
462	0.219
463	0.219
463	0.219
463	0.219
464	0.219
464	0.219
465	0.219
465	0.219
466	0.219
466	0.22
467	0.22
467	0.22
467	0.219
468	0.219
468	0.219
469	0.219
469	0.22
470	0.22
470	0.22
471	0.22
471	0.22
472	0.22
472	0.22
472	0.221
473	0.221
473	0.221
474	0.221
474	0.221
475	0.222
475	0.222
476	0.222
476	0.222
477	0.222
477	0.222
477	0.222
478	0.223
478	0.223
479	0.223
479	0.223
480	0.224
480	0.224
481	0.224
481	0.225
482	0.225
482	0.225
482	0.226
483	0.226
483	0.226
484	0.226
484	0.226
485	0.226
485	0.226
486	0.226
486	0.227
487	0.227
487	0.228
487	0.228
488	0.228
488	0.229
489	0.23
489	0.232
490	0.233
490	0.234
491	0.234
491	0.235
492	0.236
492	0.237
492	0.237
493	0.238
493	0.239
494	0.24
494	0.24
495	0.241
495	0.242
496	0.243
496	0.243
496	0.244
497	0.245
497	0.247
498	0.248
498	0.248
499	0.25
499	0.251
500	0.252
500	0.253
501	0.254
501	0.255
501	0.256
502	0.257
502	0.258
503	0.259
503	0.26
504	0.261
504	0.262
505	0.263
505	0.264
506	0.265
506	0.266
506	0.267
507	0.268
507	0.269
508	0.27
508	0.271
509	0.272
509	0.273
510	0.274
510	0.275
511	0.276
511	0.277
511	0.279
512	0.28
512	0.281
513	0.282
513	0.283
514	0.285
514	0.286
515	0.287
515	0.288
515	0.29
516	0.291
516	0.293
517	0.294
517	0.295
518	0.296
518	0.297
519	0.298
519	0.299
520	0.301
520	0.302
520	0.304
521	0.305
521	0.306
522	0.308
522	0.309
523	0.31
523	0.312
524	0.313
524	0.313
524	0.314
525	0.315
525	0.316
526	0.316
526	0.317
527	0.318
527	0.319
528	0.32
528	0.32
529	0.321
529	0.322
529	0.323
530	0.325
530	0.325
531	0.326
531	0.327
532	0.327
532	0.328
533	0.329
533	0.329
533	0.33
534	0.33
534	0.33
535	0.331
535	0.331
536	0.331
536	0.332
537	0.332
537	0.333
538	0.333
538	0.333
538	0.334
539	0.335
539	0.336
540	0.336
540	0.336
541	0.337
541	0.337
542	0.338
542	0.338
542	0.338
543	0.338
543	0.338
544	0.338
544	0.338
545	0.338
545	0.338
546	0.339
546	0.339
547	0.338
547	0.338
547	0.339
548	0.339
548	0.34
549	0.34
549	0.341
550	0.341
550	0.341
551	0.342
551	0.343
551	0.344
552	0.345
552	0.345
553	0.346
553	0.347
554	0.347
554	0.347
555	0.347
555	0.347
556	0.347
556	0.347
556	0.347
557	0.347
557	0.347
558	0.347
558	0.346
559	0.347
559	0.347
560	0.347
560	0.346
560	0.347
561	0.347
561	0.346
562	0.346
562	0.346
563	0.346
563	0.346
564	0.345
564	0.345
564	0.346
565	0.347
565	0.347
566	0.347
566	0.347
567	0.347
567	0.348
568	0.348
568	0.348
568	0.348
569	0.348
569	0.347
570	0.346
570	0.345
571	0.345
571	0.345
572	0.344
572	0.344
573	0.344
573	0.343
573	0.343
574	0.343
574	0.344
575	0.344
575	0.345
576	0.345
576	0.344
577	0.344
577	0.344
577	0.345
578	0.345
578	0.346
579	0.346
579	0.346
580	0.345
580	0.344
581	0.343
581	0.344
581	0.344
582	0.344
582	0.344
583	0.345
583	0.344
584	0.343
584	0.343
585	0.344
585	0.345
585	0.345
586	0.345
586	0.345
587	0.344
587	0.344
588	0.343
588	0.343
589	0.343
589	0.344
590	0.343
590	0.344
590	0.345
591	0.345
591	0.344
592	0.344
592	0.343
593	0.343
593	0.343
594	0.343
594	0.342
594	0.342
595	0.342
595	0.342
596	0.342
596	0.343
597	0.344
597	0.344
598	0.344
598	0.344
598	0.343
599	0.343
599	0.342
600	0.341
600	0.34
601	0.34
601	0.339
602	0.338
602	0.337
602	0.337
603	0.337
603	0.338
604	0.338
604	0.339
605	0.339
605	0.339
606	0.339
606	0.338
606	0.338
607	0.338
607	0.337
608	0.336
608	0.335
609	0.335
609	0.335
610	0.334
610	0.334
610	0.334
611	0.335
611	0.335
612	0.336
612	0.337
613	0.338
613	0.338
614	0.337
614	0.336
614	0.336
615	0.335
615	0.334
616	0.333
616	0.332
617	0.331
617	0.329
618	0.328
618	0.328
618	0.327
619	0.327
619	0.327
620	0.328
620	0.327
621	0.326
621	0.326
622	0.325
622	0.325
622	0.324
623	0.323
623	0.323
624	0.322
624	0.32
625	0.32
625	0.319
626	0.318
626	0.317
626	0.316
627	0.315
627	0.314
628	0.313
628	0.311
629	0.31
629	0.308
630	0.305
630	0.303
630	0.301
631	0.298
631	0.296
632	0.292
632	0.289
633	0.286
633	0.283
634	0.28
634	0.276
634	0.273
635	0.27
635	0.266
636	0.262
636	0.257
637	0.253
637	0.248
638	0.243
638	0.238
638	0.233
639	0.227
639	0.221
640	0.215
640	0.208
641	0.202
641	0.196
642	0.19
642	0.184
642	0.177
643	0.171
643	0.164
644	0.157
644	0.149
645	0.142
645	0.134
646	0.127
646	0.119
646	0.11
647	0.102
647	0.094
648	0.085
648	0.076
649	0.067
649	0.059
650	0.05
650	0.041
650	0.031
651	0.02
651	0.006
652	-0.01
652	-0.027
653	-0.042
653	-0.056
653	-0.052
654	-0.03
654	-0.018
655	-0.021
655	-0.027
656	-0.033
656	-0.04
657	-0.044
657	-0.049
657	-0.055
658	-0.062
658	-0.093
659	-0.183
659	-0.288
660	-0.336
660	-0.363
661	-0.392
661	-0.424
661	-0.458
662	-0.491
662	-0.526
663	-0.566
663	-0.61
664	-0.655
664	-0.708
665	-0.759
665	-0.817
665	-0.873
666	-0.93
666	-0.992
667	-1.057
667	-1.122
668	-1.194
668	-1.267
669	-1.341
669	-1.415
669	-1.492
670	-1.561
670	-1.59
671	-1.726
671	-1.989
672	-2.212
672	-2.4
672	-2.528
673	-2.619
673	-2.698
674	-2.736
674	-2.754
675	-2.778
675	-2.918
676	-3.112
676	-3.063
676	-2.838
677	-2.632
677	-2.467
678	-2.286
678	-1.971
679	-1.72
679	-1.592
680	-1.5
680	-1.417
680	-1.348
681	-1.305
681	-1.247
682	-1.208
682	-1.172
683	-1.137
683	-1.121
684	-1.102
684	-1.083
684	-1.061
685	-1.038
685	-1.016
686	-0.991
686	-0.976
687	-0.95
687	-0.94
687	-0.92
688	-0.893
688	-0.872
689	-0.851
689	-0.837
690	-0.82
690	-0.807
691	-0.801
691	-0.806
691	-0.822
692	-0.815
692	-0.808
693	-0.805
693	-0.811
694	-0.808
694	-0.802
695	-0.807
695	-0.805
695	-0.789
696	-0.786
696	-0.763
697	-0.761
697	-0.778
698	-0.778
698	-0.772
698	-0.784
699	-0.786
699	-0.784
700	-0.774
700	-0.789
701	-0.789
701	-0.796
702	-0.796
702	-0.784
702	-0.774
703	-0.766
703	-0.76
704	-0.757
704	-0.755
705	-0.769
705	-0.761
705	-0.749
706	-0.749
706	-0.745
707	-0.748
707	-0.744
708	-0.743
708	-0.735
709	-0.738
709	-0.743
709	-0.733
710	-0.743
710	-0.753
711	-0.744
711	-0.744
712	-0.744
712	-0.758
713	-0.758
713	-0.765
713	-0.756
714	-0.751
714	-0.752
715	-0.742
715	-0.729
716	-0.738
716	-0.742
716	-0.734
717	-0.735
717	-0.737
718	-0.727
718	-0.727
719	-0.733
719	-0.735
720	-0.73
720	-0.741
720	-0.733
721	-0.721
721	-0.721
722	-0.708
722	-0.695
723	-0.695
723	-0.701
723	-0.688
724	-0.693
724	-0.696
725	-0.694
725	-0.703
726	-0.717
726	-0.724
727	-0.729
727	-0.747
727	-0.752
728	-0.75
728	-0.756
729	-0.752
729	-0.756
730	-0.761
730	-0.753
730	-0.744
731	-0.725
731	-0.735
732	-0.74
732	-0.74
733	-0.74
733	-0.746
734	-0.741
734	-0.742
734	-0.73
735	-0.728
735	-0.73
736	-0.741
736	-0.728
737	-0.717
737	-0.72
737	-0.73
738	-0.725
738	-0.726
739	-0.726
739	-0.738
740	-0.737
740	-0.735
741	-0.731
741	-0.73
741	-0.734
742	-0.73
742	-0.729
743	-0.736
743	-0.739
744	-0.734
744	-0.724
744	-0.725
745	-0.732
745	-0.724
746	-0.725
746	-0.722
747	-0.723
747	-0.712
748	-0.701
748	-0.707
748	-0.709
749	-0.707
749	-0.709
750	-0.697
750	-0.7
751	-0.702
751	-0.713
751	-0.717
752	-0.721
752	-0.731
753	-0.725
753	-0.722
754	-0.724
754	-0.718
754	-0.733
755	-0.749
755	-0.761
756	-0.747
756	-0.745
757	-0.743
757	-0.735
758	-0.738
758	-0.733
758	-0.738
759	-0.746
759	-0.729
760	-0.722
760	-0.718
761	-0.731
761	-0.728
761	-0.727
762	-0.736
762	-0.736
763	-0.748
763	-0.746
764	-0.743
764	-0.75
764	-0.756
765	-0.746
765	-0.731
766	-0.739
766	-0.745
767	-0.76
767	-0.754
768	-0.744
768	-0.751
768	-0.758
769	-0.776
769	-0.779
770	-0.784
770	-0.796
771	-0.793
771	-0.793
771	-0.793
772	-0.796
772	-0.794
773	-0.795
773	-0.787
774	-0.786
774	-0.785
775	-0.786
775	-0.782
775	-0.789
776	-0.791
776	-0.781
777	-0.788
777	-0.81
778	-0.806
778	-0.825
778	-0.811
779	-0.832
779	-0.838
780	-0.852
780	-0.852
781	-0.864
781	-0.862
781	-0.876
782	-0.876
782	-0.88
783	-0.869
783	-0.869
784	-0.851
784	-0.842
784	-0.851
785	-0.857
785	-0.844
786	-0.85
786	-0.831
787	-0.818
787	-0.816
788	-0.818
788	-0.829
788	-0.84
789	-0.841
789	-0.823
790	-0.802
790	-0.802
791	-0.802
791	-0.818
791	-0.825
792	-0.822
792	-0.796
793	-0.782
793	-0.758
794	-0.762
794	-0.755
794	-0.766
795	-0.763
795	-0.755
796	-0.741
796	-0.745
797	-0.739
797	-0.754
797	-0.762
798	-0.775
798	-0.771
799	-0.78
799	-0.766
800	-0.771
800	-0.763
801	-0.767
801	-0.754
801	-0.763
802	-0.771
802	-0.771
803	-0.772
803	-0.779
804	-0.775
804	-0.784
804	-0.774
805	-0.779
805	-0.768
806	-0.77
806	-0.755
807	-0.753
807	-0.734
807	-0.724
808	-0.716
808	-0.709
809	-0.694
809	-0.701
810	-0.7
810	-0.693
810	-0.689
811	-0.695
811	-0.684
812	-0.687
812	-0.693
813	-0.696
813	-0.69
813	-0.696
814	-0.7
814	-0.703
815	-0.708
815	-0.712
816	-0.708
816	-0.715
817	-0.719
817	-0.735
817	-0.747
818	-0.757
818	-0.76
819	-0.752
819	-0.751
820	-0.759
820	-0.755
820	-0.765
821	-0.762
821	-0.75
822	-0.718
822	-0.694
823	-0.693
823	-0.697
823	-0.694
824	-0.69
824	-0.694
825	-0.686
825	-0.666
826	-0.661
826	-0.67
826	-0.679
827	-0.675
827	-0.668
828	-0.648
828	-0.647
829	-0.636
829	-0.621
829	-0.613
830	-0.623
830	-0.62
831	-0.611
831	-0.602
832	-0.602
832	-0.596
832	-0.602
833	-0.596
833	-0.597
834	-0.596
834	-0.604
835	-0.591
835	-0.585
835	-0.581
836	-0.577
836	-0.572
837	-0.569
837	-0.558
838	-0.55
838	-0.537
839	-0.522
839	-0.511
839	-0.5
840	-0.49
840	-0.488
841	-0.476
841	-0.468
842	-0.463
842	-0.453
842	-0.447
843	-0.441
843	-0.437
844	-0.427
844	-0.42
845	-0.41
845	-0.399
845	-0.383
846	-0.37
846	-0.356
847	-0.344
847	-0.33
848	-0.319
848	-0.306
848	-0.29
849	-0.279
849	-0.266
850	-0.252
850	-0.248
851	-0.24
851	-0.227
851	-0.217
852	-0.2
852	-0.186
853	-0.177
853	-0.17
854	-0.158
854	-0.146
854	-0.134
855	-0.121
855	-0.113
856	-0.104
856	-0.095
857	-0.089
857	-0.081
857	-0.068
858	-0.057
858	-0.05
859	-0.041
859	-0.029
860	-0.018
860	-0.004
860	0.005
861	0.015
861	0.025
862	0.033
862	0.04
863	0.048
863	0.058
863	0.064
864	0.069
864	0.075
865	0.081
865	0.087
866	0.092
866	0.096
866	0.1
867	0.104
867	0.108
868	0.11
868	0.114
869	0.118
869	0.119
869	0.122
870	0.124
870	0.126
871	0.129
871	0.131
872	0.132
872	0.132
872	0.133
873	0.133
873	0.133
874	0.133
874	0.133
875	0.132
875	0.131
875	0.13
876	0.129
876	0.127
877	0.126
877	0.125
878	0.124
878	0.123
878	0.121
879	0.12
879	0.119
880	0.119
880	0.119
881	0.119
881	0.119
881	0.118
882	0.117
882	0.116
883	0.115
883	0.113
884	0.113
884	0.111
884	0.111
885	0.11
885	0.109
886	0.109
886	0.108
887	0.108
887	0.107
887	0.107
888	0.108
888	0.108
889	0.109
889	0.109
890	0.109
890	0.108
890	0.108
891	0.108
891	0.108
892	0.108
892	0.109
893	0.109
893	0.109
893	0.108
894	0.108
894	0.108
895	0.108
895	0.108
895	0.107
896	0.106
896	0.105
897	0.104
897	0.103
898	0.102
898	0.101
898	0.1
899	0.1
899	0.1
900	0.101
900	0.101
901	0.102
901	0.102
901	0.103
902	0.104
902	0.105
903	0.105
903	0.106
904	0.106
904	0.107
904	0.108
905	0.108
905	0.109
906	0.109
906	0.109
907	0.108
907	0.108
907	0.108
908	0.107
908	0.106
909	0.105
909	0.105
910	0.104
910	0.103
910	0.103
911	0.103
911	0.104
912	0.104
912	0.105
913	0.106
913	0.107
913	0.108
914	0.109
914	0.11
915	0.11
915	0.111
916	0.112
916	0.112
916	0.112
917	0.112
917	0.112
918	0.112
918	0.112
918	0.111
919	0.111
919	0.111
920	0.111
920	0.11
921	0.11
921	0.11
921	0.11
922	0.109
922	0.109
923	0.108
923	0.108
924	0.108
924	0.107
924	0.106
925	0.106
925	0.104
926	0.103
926	0.102
927	0.102
927	0.101
927	0.1
928	0.099
928	0.099
929	0.098
929	0.097
930	0.097
930	0.096
930	0.095
931	0.094
931	0.094
932	0.093
932	0.092
933	0.091
933	0.09
933	0.088
934	0.087
934	0.086
935	0.086
935	0.085
935	0.085
936	0.084
936	0.083
937	0.082
937	0.082
938	0.082
938	0.081
938	0.082
939	0.082
939	0.082
940	0.082
940	0.082
941	0.082
941	0.083
941	0.084
942	0.084
942	0.084
943	0.085
943	0.084
944	0.084
944	0.083
944	0.083
945	0.082
945	0.081
946	0.08
946	0.078
946	0.078
947	0.077
947	0.076
948	0.076
948	0.076
949	0.076
949	0.077
949	0.077
950	0.078
950	0.078
951	0.079
951	0.079
952	0.08
952	0.081
952	0.082
953	0.082
953	0.084
954	0.084
954	0.085
955	0.085
955	0.087
955	0.087
956	0.088
956	0.088
957	0.088
957	0.088
957	0.088
958	0.088
958	0.089
959	0.09
959	0.09
960	0.09
960	0.09
960	0.09
961	0.09
961	0.091
962	0.091
962	0.09
963	0.091
963	0.09
963	0.09
964	0.09
964	0.09
965	0.09
965	0.09
966	0.09
966	0.089
966	0.089
967	0.089
967	0.088
968	0.087
968	0.086
968	0.086
969	0.086
969	0.085
970	0.085
970	0.085
971	0.085
971	0.086
971	0.086
972	0.086
972	0.087
973	0.087
973	0.087
974	0.086
974	0.086
974	0.086
975	0.086
975	0.085
976	0.085
976	0.084
976	0.084
977	0.084
977	0.084
978	0.084
978	0.084
979	0.084
979	0.084
979	0.084
980	0.084
980	0.084
981	0.084
981	0.084
982	0.084
982	0.083
982	0.083
983	0.082
983	0.081
984	0.081
984	0.081
984	0.081
985	0.081
985	0.08
986	0.079
986	0.079
987	0.079
987	0.078
987	0.078
988	0.077
988	0.076
989	0.075
989	0.074
990	0.074
990	0.073
990	0.072
991	0.072
991	0.072
992	0.072
992	0.071
992	0.071
993	0.071
993	0.071
994	0.071
994	0.071
995	0.071
995	0.07
995	0.07
996	0.069
996	0.068
997	0.068
997	0.068
997	0.068
998	0.068
998	0.068
999	0.068
999	0.069
1000	0.069
1000	0.069
1000	0.07
1001	0.071
1001	0.071
1002	0.071
1002	0.072
1003	0.072
1003	0.072
1003	0.072
1004	0.071
1004	0.071
1005	0.07
1005	0.07
1005	0.069
1006	0.068
1006	0.067
1007	0.066
1007	0.065
1008	0.064
1008	0.063
1008	0.063
1009	0.063
1009	0.063
1010	0.063
1010	0.063
1010	0.063
1011	0.063
1011	0.063
1012	0.063
1012	0.063
1013	0.062
1013	0.061
1013	0.061
1014	0.06
1014	0.059
1015	0.059
1015	0.059
1016	0.058
1016	0.057
1016	0.056
1017	0.055
1017	0.054
1018	0.053
1018	0.052
1018	0.051
1019	0.05
1019	0.049
1020	0.048
1020	0.048
1021	0.047
1021	0.047
1021	0.046
1022	0.046
1022	0.045
1023	0.045
1023	0.045
1023	0.045
1024	0.045
1024	0.044
1025	0.044
1025	0.045
1026	0.045
1026	0.045
1026	0.046
1027	0.046
1027	0.047
1028	0.047
1028	0.047
1028	0.046
1029	0.047
1029	0.046
1030	0.046
1030	0.045
1031	0.045
1031	0.044
1031	0.044
1032	0.043
1032	0.043
1033	0.043
1033	0.043
1033	0.043
1034	0.043
1034	0.043
1035	0.043
1035	0.043
1036	0.043
1036	0.042
1036	0.043
1037	0.042
1037	0.043
1038	0.043
1038	0.043
1039	0.043
1039	0.043
1039	0.044
1040	0.044
1040	0.045
1041	0.045
1041	0.045
1041	0.045
1042	0.045
1042	0.045
1043	0.044
1043	0.044
1044	0.043
1044	0.042
1044	0.041
1045	0.04
1045	0.039
1046	0.038
1046	0.037
1046	0.037
1047	0.037
1047	0.037
1048	0.037
1048	0.036
1049	0.037
1049	0.036
1049	0.037
1050	0.037
1050	0.037
1051	0.037
1051	0.038
1051	0.038
1052	0.039
1052	0.039
1053	0.039
1053	0.039
1053	0.04
1054	0.04
1054	0.04
1055	0.039
1055	0.039
1056	0.038
1056	0.037
1056	0.036
1057	0.036
1057	0.035
1058	0.035
1058	0.034
1058	0.034
1059	0.033
1059	0.032
1060	0.032
1060	0.031
1061	0.031
1061	0.031
1061	0.031
1062	0.03
1062	0.029
1063	0.029
1063	0.029
1063	0.029
1064	0.029
1064	0.029
1065	0.029
1065	0.029
1066	0.028
1066	0.028
1066	0.028
1067	0.029
1067	0.029
1068	0.028
1068	0.028
1068	0.027
1069	0.027
1069	0.026
1070	0.026
1070	0.026
1071	0.025
1071	0.025
1071	0.024
1072	0.024
1072	0.024
1073	0.023
1073	0.023
1073	0.023
1074	0.023
1074	0.023
1075	0.022
1075	0.022
1076	0.021
1076	0.021
1076	0.02
1077	0.019
1077	0.019
1078	0.018
1078	0.017
1078	0.016
1079	0.015
1079	0.015
1080	0.013
1080	0.013
1080	0.011
1081	0.011
1081	0.011
1082	0.01
1082	0.009
1083	0.009
1083	0.008
1083	0.007
1084	0.007
1084	0.006
1085	0.005
1085	0.004
1085	0.004
1086	0.003
1086	0.002
1087	0.001
1087	0.002
1088	0.001
1088	0
1088	-0.001
1089	-0.002
1089	-0.003
1090	-0.005
1090	-0.006
1090	-0.007
1091	-0.008
1091	-0.008
1092	-0.009
1092	-0.009
1092	-0.011
1093	-0.011
1093	-0.011
1094	-0.011
1094	-0.011
1095	-0.012
1095	-0.012
1095	-0.013
1096	-0.014
1096	-0.015
1097	-0.016
1097	-0.017
1097	-0.018
1098	-0.02
1098	-0.022
1099	-0.023
1099	-0.024
1100	-0.026
1100	-0.028
1100	-0.03
1101	-0.033
1101	-0.036
1102	-0.037
1102	-0.039
1102	-0.041
1103	-0.043
1103	-0.046
1104	-0.048
1104	-0.051
1104	-0.053
1105	-0.055
1105	-0.059
1106	-0.064
1106	-0.066
1107	-0.071
1107	-0.075
1107	-0.08
1108	-0.083
1108	-0.085
1109	-0.089
1109	-0.093
1109	-0.096
1110	-0.097
1110	-0.097
1111	-0.103
1111	-0.104
