Data from 17C_3.1A_35min_2sec_int_Absorbance__191__02594.txt Node

Date: Mon Jun 19 18:22:47 CEST 2023
User: Marek
Spectrometer: MAYP115816
Trigger mode: 0
Integration Time (sec): 2.500000E-1
Scans to average: 10
Electric dark correction enabled: true
Nonlinearity correction enabled: true
Boxcar width: 5
XAxis mode: Wavelengths
Number of Pixels in Spectrum: 2068
>>>>>Begin Spectral Data<<<<<
199	-0.733
199	-0.749
200	-0.655
200	-0.604
201	-0.568
201	-0.558
202	-0.542
202	-0.53
203	-0.522
203	-0.518
204	-0.507
204	-0.493
205	-0.47
205	-0.465
205	-0.464
206	-0.466
206	-0.468
207	-0.457
207	-0.458
208	-0.461
208	-0.46
209	-0.454
209	-0.456
210	-0.46
210	-0.467
211	-0.467
211	-0.47
212	-0.472
212	-0.481
213	-0.48
213	-0.478
213	-0.482
214	-0.478
214	-0.477
215	-0.477
215	-0.481
216	-0.484
216	-0.491
217	-0.487
217	-0.494
218	-0.497
218	-0.499
219	-0.505
219	-0.515
220	-0.519
220	-0.529
221	-0.528
221	-0.531
221	-0.524
222	-0.52
222	-0.517
223	-0.519
223	-0.523
224	-0.525
224	-0.528
225	-0.522
225	-0.518
226	-0.522
226	-0.523
227	-0.528
227	-0.54
228	-0.542
228	-0.544
229	-0.546
229	-0.54
229	-0.534
230	-0.537
230	-0.538
231	-0.532
231	-0.524
232	-0.518
232	-0.515
233	-0.51
233	-0.506
234	-0.504
234	-0.5
235	-0.503
235	-0.509
236	-0.508
236	-0.512
236	-0.519
237	-0.525
237	-0.525
238	-0.532
238	-0.531
239	-0.529
239	-0.541
240	-0.54
240	-0.538
241	-0.544
241	-0.543
242	-0.547
242	-0.543
243	-0.538
243	-0.54
243	-0.551
244	-0.551
244	-0.548
245	-0.562
245	-0.562
246	-0.566
246	-0.569
247	-0.573
247	-0.577
248	-0.584
248	-0.582
249	-0.586
249	-0.595
250	-0.593
250	-0.589
250	-0.588
251	-0.586
251	-0.588
252	-0.589
252	-0.58
253	-0.586
253	-0.598
254	-0.594
254	-0.59
255	-0.598
255	-0.591
256	-0.587
256	-0.598
257	-0.595
257	-0.592
258	-0.61
258	-0.605
258	-0.6
259	-0.598
259	-0.608
260	-0.609
260	-0.616
261	-0.628
261	-0.618
262	-0.615
262	-0.616
263	-0.603
263	-0.598
264	-0.601
264	-0.61
265	-0.604
265	-0.609
265	-0.613
266	-0.612
266	-0.61
267	-0.624
267	-0.631
268	-0.648
268	-0.656
269	-0.653
269	-0.646
270	-0.652
270	-0.657
271	-0.655
271	-0.66
272	-0.666
272	-0.658
272	-0.652
273	-0.649
273	-0.659
274	-0.663
274	-0.667
275	-0.668
275	-0.663
276	-0.669
276	-0.662
277	-0.664
277	-0.681
278	-0.69
278	-0.685
278	-0.677
279	-0.681
279	-0.692
280	-0.688
280	-0.688
281	-0.682
281	-0.689
282	-0.68
282	-0.68
283	-0.671
283	-0.674
284	-0.67
284	-0.659
285	-0.654
285	-0.652
285	-0.649
286	-0.654
286	-0.647
287	-0.644
287	-0.631
288	-0.623
288	-0.631
289	-0.643
289	-0.653
290	-0.642
290	-0.64
291	-0.637
291	-0.631
292	-0.635
292	-0.641
292	-0.646
293	-0.651
293	-0.64
294	-0.63
294	-0.621
295	-0.619
295	-0.617
296	-0.614
296	-0.614
297	-0.608
297	-0.594
298	-0.586
298	-0.595
298	-0.583
299	-0.575
299	-0.577
300	-0.571
300	-0.566
301	-0.562
301	-0.56
302	-0.568
302	-0.577
303	-0.565
303	-0.55
304	-0.554
304	-0.552
305	-0.553
305	-0.555
305	-0.555
306	-0.539
306	-0.534
307	-0.518
307	-0.518
308	-0.531
308	-0.528
309	-0.529
309	-0.518
310	-0.509
310	-0.504
311	-0.492
311	-0.501
311	-0.496
312	-0.493
312	-0.491
313	-0.477
313	-0.481
314	-0.479
314	-0.48
315	-0.479
315	-0.479
316	-0.476
316	-0.468
317	-0.461
317	-0.457
318	-0.444
318	-0.444
318	-0.437
319	-0.427
319	-0.427
320	-0.42
320	-0.421
321	-0.426
321	-0.423
322	-0.418
322	-0.413
323	-0.412
323	-0.406
324	-0.399
324	-0.389
324	-0.377
325	-0.368
325	-0.349
326	-0.334
326	-0.316
327	-0.297
327	-0.277
328	-0.252
328	-0.229
329	-0.203
329	-0.181
330	-0.152
330	-0.119
330	-0.089
331	-0.057
331	-0.029
332	-0.002
332	0.024
333	0.046
333	0.072
334	0.094
334	0.113
335	0.132
335	0.148
336	0.163
336	0.177
336	0.188
337	0.201
337	0.211
338	0.221
338	0.226
339	0.235
339	0.241
340	0.246
340	0.252
341	0.256
341	0.26
342	0.264
342	0.267
342	0.271
343	0.273
343	0.276
344	0.278
344	0.28
345	0.281
345	0.282
346	0.283
346	0.284
347	0.285
347	0.285
348	0.286
348	0.287
348	0.287
349	0.287
349	0.287
350	0.288
350	0.288
351	0.288
351	0.289
352	0.289
352	0.289
353	0.289
353	0.289
354	0.289
354	0.289
354	0.288
355	0.288
355	0.288
356	0.288
356	0.288
357	0.286
357	0.286
358	0.286
358	0.286
359	0.285
359	0.285
360	0.285
360	0.285
360	0.285
361	0.285
361	0.285
362	0.285
362	0.285
363	0.285
363	0.285
364	0.285
364	0.285
365	0.285
365	0.284
366	0.284
366	0.284
366	0.285
367	0.285
367	0.285
368	0.284
368	0.284
369	0.284
369	0.284
370	0.284
370	0.284
371	0.283
371	0.283
372	0.283
372	0.283
372	0.283
373	0.283
373	0.283
374	0.283
374	0.283
375	0.283
375	0.283
376	0.283
376	0.283
377	0.283
377	0.283
378	0.283
378	0.283
378	0.282
379	0.282
379	0.282
380	0.282
380	0.282
381	0.281
381	0.281
382	0.281
382	0.281
383	0.28
383	0.28
383	0.28
384	0.28
384	0.28
385	0.28
385	0.28
386	0.28
386	0.28
387	0.28
387	0.279
388	0.279
388	0.279
389	0.279
389	0.279
389	0.279
390	0.279
390	0.279
391	0.279
391	0.279
392	0.278
392	0.278
393	0.278
393	0.278
394	0.278
394	0.277
394	0.277
395	0.277
395	0.276
396	0.276
396	0.276
397	0.276
397	0.276
398	0.276
398	0.276
399	0.276
399	0.275
400	0.275
400	0.275
400	0.275
401	0.275
401	0.274
402	0.274
402	0.274
403	0.273
403	0.273
404	0.273
404	0.273
405	0.273
405	0.273
405	0.273
406	0.272
406	0.272
407	0.272
407	0.272
408	0.272
408	0.272
409	0.272
409	0.272
410	0.272
410	0.272
411	0.272
411	0.272
411	0.272
412	0.272
412	0.272
413	0.271
413	0.271
414	0.271
414	0.271
415	0.27
415	0.27
416	0.27
416	0.27
416	0.269
417	0.269
417	0.269
418	0.269
418	0.269
419	0.269
419	0.27
420	0.269
420	0.269
421	0.269
421	0.269
421	0.269
422	0.269
422	0.269
423	0.269
423	0.269
424	0.268
424	0.268
425	0.267
425	0.267
426	0.267
426	0.267
427	0.266
427	0.266
427	0.266
428	0.266
428	0.266
429	0.266
429	0.266
430	0.266
430	0.265
431	0.265
431	0.265
432	0.265
432	0.264
432	0.264
433	0.264
433	0.264
434	0.264
434	0.264
435	0.264
435	0.264
436	0.264
436	0.264
437	0.264
437	0.264
437	0.264
438	0.264
438	0.264
439	0.264
439	0.263
440	0.263
440	0.263
441	0.263
441	0.263
442	0.263
442	0.263
442	0.262
443	0.262
443	0.262
444	0.262
444	0.262
445	0.262
445	0.262
446	0.262
446	0.262
447	0.262
447	0.262
447	0.262
448	0.262
448	0.262
449	0.262
449	0.262
450	0.263
450	0.262
451	0.262
451	0.262
452	0.262
452	0.262
452	0.262
453	0.262
453	0.261
454	0.261
454	0.261
455	0.261
455	0.261
456	0.261
456	0.261
457	0.26
457	0.26
458	0.26
458	0.26
458	0.261
459	0.261
459	0.261
460	0.26
460	0.26
461	0.26
461	0.26
462	0.26
462	0.261
463	0.261
463	0.261
463	0.261
464	0.261
464	0.261
465	0.261
465	0.261
466	0.261
466	0.262
467	0.262
467	0.262
467	0.262
468	0.262
468	0.262
469	0.262
469	0.263
470	0.263
470	0.263
471	0.263
471	0.263
472	0.263
472	0.264
472	0.264
473	0.264
473	0.265
474	0.265
474	0.265
475	0.266
475	0.266
476	0.266
476	0.267
477	0.267
477	0.267
477	0.267
478	0.267
478	0.268
479	0.268
479	0.268
480	0.269
480	0.269
481	0.27
481	0.27
482	0.271
482	0.271
482	0.272
483	0.273
483	0.273
484	0.274
484	0.273
485	0.274
485	0.274
486	0.275
486	0.275
487	0.276
487	0.277
487	0.277
488	0.278
488	0.279
489	0.28
489	0.282
490	0.283
490	0.284
491	0.286
491	0.287
492	0.288
492	0.289
492	0.29
493	0.291
493	0.292
494	0.293
494	0.294
495	0.295
495	0.296
496	0.297
496	0.299
496	0.3
497	0.302
497	0.303
498	0.304
498	0.306
499	0.307
499	0.308
500	0.31
500	0.312
501	0.313
501	0.314
501	0.316
502	0.317
502	0.318
503	0.32
503	0.321
504	0.323
504	0.324
505	0.326
505	0.328
506	0.329
506	0.331
506	0.332
507	0.334
507	0.335
508	0.337
508	0.338
509	0.34
509	0.342
510	0.343
510	0.345
511	0.347
511	0.349
511	0.35
512	0.352
512	0.354
513	0.356
513	0.357
514	0.359
514	0.361
515	0.363
515	0.364
515	0.366
516	0.368
516	0.37
517	0.371
517	0.373
518	0.374
518	0.376
519	0.378
519	0.379
520	0.381
520	0.383
520	0.385
521	0.386
521	0.388
522	0.389
522	0.391
523	0.393
523	0.394
524	0.395
524	0.396
524	0.397
525	0.398
525	0.4
526	0.401
526	0.402
527	0.403
527	0.404
528	0.405
528	0.406
529	0.407
529	0.409
529	0.41
530	0.411
530	0.412
531	0.413
531	0.414
532	0.415
532	0.416
533	0.417
533	0.418
533	0.418
534	0.419
534	0.42
535	0.42
535	0.421
536	0.421
536	0.421
537	0.422
537	0.422
538	0.423
538	0.423
538	0.424
539	0.425
539	0.426
540	0.426
540	0.426
541	0.426
541	0.427
542	0.427
542	0.427
542	0.427
543	0.428
543	0.427
544	0.427
544	0.427
545	0.427
545	0.428
546	0.428
546	0.428
547	0.427
547	0.427
547	0.428
548	0.428
548	0.428
549	0.429
549	0.429
550	0.429
550	0.429
551	0.429
551	0.43
551	0.431
552	0.432
552	0.433
553	0.433
553	0.433
554	0.433
554	0.433
555	0.433
555	0.433
556	0.433
556	0.432
556	0.432
557	0.432
557	0.432
558	0.431
558	0.431
559	0.431
559	0.431
560	0.43
560	0.43
560	0.43
561	0.43
561	0.43
562	0.429
562	0.429
563	0.428
563	0.428
564	0.428
564	0.428
564	0.428
565	0.428
565	0.428
566	0.428
566	0.428
567	0.428
567	0.428
568	0.428
568	0.427
568	0.427
569	0.426
569	0.425
570	0.424
570	0.423
571	0.423
571	0.422
572	0.421
572	0.42
573	0.42
573	0.419
573	0.418
574	0.418
574	0.418
575	0.418
575	0.418
576	0.418
576	0.417
577	0.416
577	0.416
577	0.417
578	0.417
578	0.417
579	0.417
579	0.417
580	0.416
580	0.414
581	0.413
581	0.413
581	0.413
582	0.413
582	0.413
583	0.412
583	0.412
584	0.41
584	0.409
585	0.41
585	0.41
585	0.41
586	0.41
586	0.409
587	0.408
587	0.408
588	0.407
588	0.406
589	0.406
589	0.406
590	0.405
590	0.405
590	0.405
591	0.404
591	0.403
592	0.402
592	0.401
593	0.401
593	0.4
594	0.399
594	0.398
594	0.398
595	0.397
595	0.396
596	0.396
596	0.396
597	0.397
597	0.396
598	0.395
598	0.394
598	0.393
599	0.392
599	0.391
600	0.39
600	0.389
601	0.388
601	0.386
602	0.384
602	0.384
602	0.383
603	0.382
603	0.382
604	0.382
604	0.382
605	0.382
605	0.381
606	0.38
606	0.379
606	0.378
607	0.377
607	0.377
608	0.375
608	0.373
609	0.372
609	0.371
610	0.37
610	0.369
610	0.369
611	0.369
611	0.369
612	0.369
612	0.369
613	0.369
613	0.369
614	0.367
614	0.366
614	0.365
615	0.363
615	0.362
616	0.361
616	0.359
617	0.357
617	0.355
618	0.354
618	0.352
618	0.351
619	0.35
619	0.35
620	0.349
620	0.348
621	0.347
621	0.345
622	0.344
622	0.343
622	0.341
623	0.34
623	0.339
624	0.338
624	0.336
625	0.335
625	0.333
626	0.332
626	0.33
626	0.328
627	0.327
627	0.325
628	0.323
628	0.321
629	0.318
629	0.315
630	0.312
630	0.309
630	0.305
631	0.302
631	0.299
632	0.295
632	0.29
633	0.286
633	0.282
634	0.278
634	0.274
634	0.27
635	0.266
635	0.261
636	0.256
636	0.251
637	0.245
637	0.239
638	0.233
638	0.227
638	0.22
639	0.213
639	0.205
640	0.198
640	0.191
641	0.183
641	0.176
642	0.169
642	0.161
642	0.154
643	0.146
643	0.138
644	0.129
644	0.121
645	0.112
645	0.104
646	0.095
646	0.087
646	0.077
647	0.068
647	0.06
648	0.05
648	0.041
649	0.032
649	0.022
650	0.014
650	0.004
650	-0.005
651	-0.017
651	-0.032
652	-0.049
652	-0.067
653	-0.082
653	-0.095
653	-0.091
654	-0.067
654	-0.053
655	-0.056
655	-0.06
656	-0.066
656	-0.072
657	-0.075
657	-0.079
657	-0.085
658	-0.091
658	-0.122
659	-0.216
659	-0.323
660	-0.37
660	-0.398
661	-0.427
661	-0.46
661	-0.495
662	-0.529
662	-0.565
663	-0.606
663	-0.65
664	-0.696
664	-0.749
665	-0.803
665	-0.863
665	-0.92
666	-0.977
666	-1.04
667	-1.105
667	-1.171
668	-1.244
668	-1.318
669	-1.393
669	-1.469
669	-1.55
670	-1.626
670	-1.69
671	-1.896
671	-2.09
672	-2.283
672	-2.454
672	-2.571
673	-2.655
673	-2.729
674	-2.765
674	-2.782
675	-2.805
675	-2.94
676	-3.114
676	-3.065
676	-2.84
677	-2.636
677	-2.471
678	-2.293
678	-1.986
679	-1.74
679	-1.614
680	-1.523
680	-1.442
680	-1.374
681	-1.331
681	-1.272
682	-1.233
682	-1.197
683	-1.162
683	-1.146
684	-1.124
684	-1.105
684	-1.082
685	-1.057
685	-1.035
686	-1.011
686	-0.995
687	-0.968
687	-0.956
687	-0.936
688	-0.911
688	-0.889
689	-0.867
689	-0.854
690	-0.835
690	-0.822
691	-0.816
691	-0.82
691	-0.836
692	-0.827
692	-0.819
693	-0.813
693	-0.82
694	-0.817
694	-0.809
695	-0.813
695	-0.812
695	-0.796
696	-0.791
696	-0.769
697	-0.769
697	-0.783
698	-0.786
698	-0.776
698	-0.79
699	-0.793
699	-0.791
700	-0.779
700	-0.793
701	-0.792
701	-0.798
702	-0.797
702	-0.785
702	-0.775
703	-0.768
703	-0.758
704	-0.755
704	-0.753
705	-0.767
705	-0.759
705	-0.749
706	-0.75
706	-0.747
707	-0.752
707	-0.75
708	-0.746
708	-0.741
709	-0.742
709	-0.745
709	-0.735
710	-0.743
710	-0.752
711	-0.743
711	-0.744
712	-0.743
712	-0.757
713	-0.757
713	-0.764
713	-0.756
714	-0.754
714	-0.755
715	-0.745
715	-0.731
716	-0.74
716	-0.742
716	-0.735
717	-0.735
717	-0.738
718	-0.728
718	-0.73
719	-0.733
719	-0.734
720	-0.732
720	-0.742
720	-0.734
721	-0.722
721	-0.723
722	-0.709
722	-0.698
723	-0.696
723	-0.699
723	-0.69
724	-0.694
724	-0.696
725	-0.695
725	-0.705
726	-0.719
726	-0.724
727	-0.728
727	-0.742
727	-0.749
728	-0.749
728	-0.754
729	-0.753
729	-0.758
730	-0.764
730	-0.756
730	-0.746
731	-0.728
731	-0.737
732	-0.744
732	-0.745
733	-0.742
733	-0.747
734	-0.74
734	-0.739
734	-0.725
735	-0.724
735	-0.725
736	-0.735
736	-0.723
737	-0.714
737	-0.714
737	-0.726
738	-0.721
738	-0.723
739	-0.719
739	-0.732
740	-0.73
740	-0.728
741	-0.725
741	-0.724
741	-0.726
742	-0.725
742	-0.725
743	-0.731
743	-0.735
744	-0.734
744	-0.724
744	-0.725
745	-0.734
745	-0.725
746	-0.727
746	-0.727
747	-0.726
747	-0.714
748	-0.703
748	-0.707
748	-0.709
749	-0.707
749	-0.708
750	-0.697
750	-0.701
751	-0.702
751	-0.71
751	-0.714
752	-0.718
752	-0.727
753	-0.723
753	-0.718
754	-0.723
754	-0.717
754	-0.731
755	-0.747
755	-0.758
756	-0.748
756	-0.744
757	-0.743
757	-0.737
758	-0.74
758	-0.738
758	-0.742
759	-0.749
759	-0.735
760	-0.724
760	-0.72
761	-0.729
761	-0.726
761	-0.725
762	-0.736
762	-0.734
763	-0.745
763	-0.74
764	-0.735
764	-0.741
764	-0.747
765	-0.739
765	-0.727
766	-0.733
766	-0.739
767	-0.755
767	-0.75
768	-0.741
768	-0.75
768	-0.757
769	-0.775
769	-0.776
770	-0.781
770	-0.794
771	-0.793
771	-0.794
771	-0.792
772	-0.794
772	-0.792
773	-0.791
773	-0.788
774	-0.785
774	-0.787
775	-0.79
775	-0.783
775	-0.789
776	-0.788
776	-0.778
777	-0.787
777	-0.807
778	-0.804
778	-0.822
778	-0.809
779	-0.831
779	-0.84
780	-0.853
780	-0.852
781	-0.866
781	-0.863
781	-0.879
782	-0.88
782	-0.882
783	-0.869
783	-0.869
784	-0.848
784	-0.837
784	-0.848
785	-0.854
785	-0.84
786	-0.845
786	-0.822
787	-0.807
787	-0.808
788	-0.811
788	-0.82
788	-0.832
789	-0.833
789	-0.813
790	-0.796
790	-0.799
791	-0.8
791	-0.815
791	-0.822
792	-0.815
792	-0.791
793	-0.779
793	-0.755
794	-0.76
794	-0.752
794	-0.76
795	-0.754
795	-0.745
796	-0.73
796	-0.736
797	-0.731
797	-0.743
797	-0.751
798	-0.764
798	-0.759
799	-0.769
799	-0.753
800	-0.759
800	-0.753
801	-0.758
801	-0.743
801	-0.755
802	-0.764
802	-0.764
803	-0.765
803	-0.773
804	-0.767
804	-0.779
804	-0.765
805	-0.771
805	-0.761
806	-0.764
806	-0.748
807	-0.745
807	-0.726
807	-0.714
808	-0.705
808	-0.701
809	-0.687
809	-0.697
810	-0.695
810	-0.689
810	-0.687
811	-0.693
811	-0.686
812	-0.688
812	-0.691
813	-0.693
813	-0.686
813	-0.692
814	-0.695
814	-0.699
815	-0.703
815	-0.706
816	-0.699
816	-0.703
817	-0.71
817	-0.728
817	-0.745
818	-0.753
818	-0.754
819	-0.745
819	-0.744
820	-0.753
820	-0.75
820	-0.762
821	-0.758
821	-0.747
822	-0.715
822	-0.691
823	-0.69
823	-0.695
823	-0.69
824	-0.684
824	-0.687
825	-0.679
825	-0.658
826	-0.654
826	-0.663
826	-0.673
827	-0.669
827	-0.661
828	-0.641
828	-0.642
829	-0.633
829	-0.618
829	-0.61
830	-0.622
830	-0.618
831	-0.609
831	-0.6
832	-0.596
832	-0.59
832	-0.599
833	-0.594
833	-0.597
834	-0.594
834	-0.601
835	-0.588
835	-0.585
835	-0.581
836	-0.579
836	-0.576
837	-0.572
837	-0.56
838	-0.552
838	-0.538
839	-0.526
839	-0.515
839	-0.504
840	-0.491
840	-0.488
841	-0.477
841	-0.468
842	-0.465
842	-0.456
842	-0.449
843	-0.442
843	-0.436
844	-0.425
844	-0.419
845	-0.41
845	-0.398
845	-0.383
846	-0.372
846	-0.357
847	-0.345
847	-0.332
848	-0.322
848	-0.311
848	-0.295
849	-0.283
849	-0.272
850	-0.259
850	-0.253
851	-0.245
851	-0.233
851	-0.224
852	-0.209
852	-0.195
853	-0.185
853	-0.181
854	-0.169
854	-0.157
854	-0.147
855	-0.135
855	-0.129
856	-0.119
856	-0.111
857	-0.105
857	-0.097
857	-0.085
858	-0.074
858	-0.067
859	-0.059
859	-0.048
860	-0.038
860	-0.025
860	-0.016
861	-0.007
861	0.002
862	0.009
862	0.016
863	0.023
863	0.032
863	0.038
864	0.042
864	0.048
865	0.054
865	0.059
866	0.064
866	0.067
866	0.071
867	0.074
867	0.077
868	0.08
868	0.084
869	0.087
869	0.089
869	0.09
870	0.092
870	0.095
871	0.097
871	0.098
872	0.099
872	0.1
872	0.1
873	0.101
873	0.101
874	0.101
874	0.1
875	0.099
875	0.098
875	0.097
876	0.096
876	0.095
877	0.094
877	0.093
878	0.091
878	0.09
878	0.088
879	0.087
879	0.086
880	0.086
880	0.086
881	0.086
881	0.085
881	0.085
882	0.085
882	0.084
883	0.082
883	0.081
884	0.08
884	0.079
884	0.078
885	0.077
885	0.076
886	0.076
886	0.075
887	0.075
887	0.075
887	0.075
888	0.075
888	0.075
889	0.076
889	0.076
890	0.076
890	0.076
890	0.076
891	0.076
891	0.076
892	0.076
892	0.076
893	0.076
893	0.077
893	0.077
894	0.077
894	0.077
895	0.076
895	0.076
895	0.076
896	0.075
896	0.074
897	0.073
897	0.072
898	0.071
898	0.07
898	0.069
899	0.069
899	0.07
900	0.07
900	0.07
901	0.071
901	0.071
901	0.072
902	0.073
902	0.073
903	0.074
903	0.074
904	0.075
904	0.075
904	0.076
905	0.077
905	0.077
906	0.077
906	0.078
907	0.077
907	0.077
907	0.077
908	0.076
908	0.075
909	0.075
909	0.074
910	0.073
910	0.073
910	0.073
911	0.073
911	0.073
912	0.074
912	0.075
913	0.075
913	0.076
913	0.077
914	0.078
914	0.079
915	0.079
915	0.08
916	0.081
916	0.081
916	0.081
917	0.081
917	0.082
918	0.081
918	0.081
918	0.081
919	0.08
919	0.08
920	0.08
920	0.08
921	0.08
921	0.08
921	0.079
922	0.079
922	0.079
923	0.078
923	0.078
924	0.078
924	0.077
924	0.076
925	0.076
925	0.075
926	0.074
926	0.073
927	0.072
927	0.071
927	0.07
928	0.07
928	0.069
929	0.068
929	0.068
930	0.067
930	0.066
930	0.065
931	0.065
931	0.065
932	0.064
932	0.063
933	0.063
933	0.061
933	0.06
934	0.059
934	0.058
935	0.058
935	0.057
935	0.057
936	0.056
936	0.055
937	0.054
937	0.053
938	0.053
938	0.053
938	0.053
939	0.053
939	0.053
940	0.054
940	0.054
941	0.054
941	0.055
941	0.056
942	0.057
942	0.057
943	0.057
943	0.057
944	0.057
944	0.056
944	0.056
945	0.055
945	0.054
946	0.053
946	0.052
946	0.051
947	0.05
947	0.05
948	0.05
948	0.05
949	0.049
949	0.05
949	0.05
950	0.05
950	0.051
951	0.052
951	0.052
952	0.052
952	0.053
952	0.054
953	0.055
953	0.056
954	0.057
954	0.058
955	0.059
955	0.06
955	0.061
956	0.062
956	0.062
957	0.062
957	0.063
957	0.063
958	0.063
958	0.064
959	0.064
959	0.064
960	0.065
960	0.065
960	0.065
961	0.065
961	0.066
962	0.066
962	0.066
963	0.066
963	0.066
963	0.066
964	0.066
964	0.066
965	0.066
965	0.066
966	0.065
966	0.065
966	0.065
967	0.064
967	0.064
968	0.063
968	0.062
968	0.061
969	0.061
969	0.06
970	0.06
970	0.06
971	0.06
971	0.06
971	0.06
972	0.06
972	0.061
973	0.061
973	0.061
974	0.061
974	0.061
974	0.061
975	0.06
975	0.06
976	0.059
976	0.059
976	0.059
977	0.059
977	0.059
978	0.059
978	0.059
979	0.059
979	0.059
979	0.059
980	0.059
980	0.058
981	0.058
981	0.058
982	0.058
982	0.057
982	0.057
983	0.056
983	0.056
984	0.056
984	0.055
984	0.055
985	0.055
985	0.055
986	0.054
986	0.054
987	0.053
987	0.053
987	0.053
988	0.052
988	0.051
989	0.05
989	0.049
990	0.049
990	0.048
990	0.048
991	0.047
991	0.047
992	0.046
992	0.046
992	0.046
993	0.045
993	0.045
994	0.045
994	0.045
995	0.045
995	0.044
995	0.044
996	0.043
996	0.043
997	0.042
997	0.043
997	0.043
998	0.043
998	0.043
999	0.043
999	0.043
1000	0.044
1000	0.044
1000	0.044
1001	0.045
1001	0.046
1002	0.046
1002	0.046
1003	0.046
1003	0.047
1003	0.046
1004	0.046
1004	0.046
1005	0.045
1005	0.045
1005	0.044
1006	0.042
1006	0.041
1007	0.04
1007	0.039
1008	0.039
1008	0.038
1008	0.037
1009	0.037
1009	0.037
1010	0.037
1010	0.037
1010	0.038
1011	0.038
1011	0.038
1012	0.038
1012	0.037
1013	0.037
1013	0.036
1013	0.035
1014	0.035
1014	0.034
1015	0.033
1015	0.033
1016	0.032
1016	0.031
1016	0.03
1017	0.029
1017	0.028
1018	0.027
1018	0.026
1018	0.026
1019	0.025
1019	0.024
1020	0.023
1020	0.023
1021	0.022
1021	0.022
1021	0.021
1022	0.02
1022	0.02
1023	0.02
1023	0.02
1023	0.02
1024	0.019
1024	0.019
1025	0.019
1025	0.02
1026	0.02
1026	0.02
1026	0.021
1027	0.021
1027	0.021
1028	0.021
1028	0.021
1028	0.021
1029	0.021
1029	0.02
1030	0.019
1030	0.019
1031	0.018
1031	0.018
1031	0.018
1032	0.017
1032	0.017
1033	0.017
1033	0.018
1033	0.018
1034	0.018
1034	0.018
1035	0.018
1035	0.018
1036	0.018
1036	0.018
1036	0.018
1037	0.018
1037	0.018
1038	0.018
1038	0.018
1039	0.018
1039	0.018
1039	0.019
1040	0.019
1040	0.019
1041	0.02
1041	0.02
1041	0.02
1042	0.02
1042	0.02
1043	0.019
1043	0.019
1044	0.018
1044	0.017
1044	0.016
1045	0.015
1045	0.014
1046	0.013
1046	0.013
1046	0.013
1047	0.012
1047	0.013
1048	0.013
1048	0.013
1049	0.013
1049	0.013
1049	0.013
1050	0.013
1050	0.014
1051	0.014
1051	0.014
1051	0.015
1052	0.015
1052	0.015
1053	0.015
1053	0.015
1053	0.016
1054	0.016
1054	0.016
1055	0.016
1055	0.016
1056	0.015
1056	0.015
1056	0.014
1057	0.013
1057	0.013
1058	0.012
1058	0.012
1058	0.011
1059	0.011
1059	0.01
1060	0.009
1060	0.009
1061	0.008
1061	0.008
1061	0.008
1062	0.008
1062	0.008
1063	0.007
1063	0.007
1063	0.008
1064	0.008
1064	0.008
1065	0.008
1065	0.008
1066	0.008
1066	0.007
1066	0.007
1067	0.007
1067	0.007
1068	0.006
1068	0.006
1068	0.005
1069	0.005
1069	0.004
1070	0.004
1070	0.004
1071	0.004
1071	0.004
1071	0.003
1072	0.003
1072	0.003
1073	0.002
1073	0.002
1073	0.002
1074	0.002
1074	0.003
1075	0.002
1075	0.002
1076	0.001
1076	0.001
1076	0
1077	-0
1077	-0.001
1078	-0.001
1078	-0.002
1078	-0.003
1079	-0.004
1079	-0.004
1080	-0.005
1080	-0.006
1080	-0.006
1081	-0.006
1081	-0.007
1082	-0.008
1082	-0.009
1083	-0.01
1083	-0.011
1083	-0.012
1084	-0.013
1084	-0.013
1085	-0.015
1085	-0.015
1085	-0.016
1086	-0.016
1086	-0.018
1087	-0.017
1087	-0.017
1088	-0.019
1088	-0.019
1088	-0.019
1089	-0.02
1089	-0.021
1090	-0.022
1090	-0.023
1090	-0.024
1091	-0.025
1091	-0.026
1092	-0.027
1092	-0.027
1092	-0.028
1093	-0.029
1093	-0.029
1094	-0.029
1094	-0.03
1095	-0.03
1095	-0.031
1095	-0.031
1096	-0.032
1096	-0.033
1097	-0.034
1097	-0.035
1097	-0.035
1098	-0.037
1098	-0.039
1099	-0.039
1099	-0.04
1100	-0.042
1100	-0.043
1100	-0.045
1101	-0.048
1101	-0.05
1102	-0.052
1102	-0.054
1102	-0.055
1103	-0.057
1103	-0.06
1104	-0.063
1104	-0.065
1104	-0.067
1105	-0.069
1105	-0.072
1106	-0.076
1106	-0.079
1107	-0.084
1107	-0.089
1107	-0.095
1108	-0.097
1108	-0.099
1109	-0.102
1109	-0.107
1109	-0.11
1110	-0.111
1110	-0.114
1111	-0.121
1111	-0.122
