Data from 17C_3.1A_35min_2sec_int_Absorbance__115__02518.txt Node

Date: Mon Jun 19 18:19:37 CEST 2023
User: Marek
Spectrometer: MAYP115816
Trigger mode: 0
Integration Time (sec): 2.500000E-1
Scans to average: 10
Electric dark correction enabled: true
Nonlinearity correction enabled: true
Boxcar width: 5
XAxis mode: Wavelengths
Number of Pixels in Spectrum: 2068
>>>>>Begin Spectral Data<<<<<
199	-0.743
199	-0.763
200	-0.671
200	-0.617
201	-0.58
201	-0.568
202	-0.549
202	-0.533
203	-0.524
203	-0.52
204	-0.506
204	-0.492
205	-0.468
205	-0.461
205	-0.46
206	-0.463
206	-0.466
207	-0.457
207	-0.462
208	-0.464
208	-0.461
209	-0.456
209	-0.455
210	-0.458
210	-0.464
211	-0.465
211	-0.468
212	-0.469
212	-0.477
213	-0.475
213	-0.477
213	-0.484
214	-0.48
214	-0.48
215	-0.48
215	-0.483
216	-0.487
216	-0.491
217	-0.487
217	-0.493
218	-0.495
218	-0.493
219	-0.495
219	-0.506
220	-0.512
220	-0.523
221	-0.525
221	-0.528
221	-0.523
222	-0.521
222	-0.521
223	-0.524
223	-0.527
224	-0.533
224	-0.532
225	-0.525
225	-0.52
226	-0.524
226	-0.524
227	-0.529
227	-0.537
228	-0.539
228	-0.54
229	-0.542
229	-0.536
229	-0.532
230	-0.537
230	-0.539
231	-0.529
231	-0.52
232	-0.514
232	-0.515
233	-0.508
233	-0.508
234	-0.506
234	-0.504
235	-0.506
235	-0.513
236	-0.512
236	-0.52
236	-0.527
237	-0.534
237	-0.533
238	-0.542
238	-0.538
239	-0.537
239	-0.544
240	-0.543
240	-0.543
241	-0.548
241	-0.547
242	-0.552
242	-0.545
243	-0.539
243	-0.541
243	-0.55
244	-0.55
244	-0.55
245	-0.563
245	-0.56
246	-0.565
246	-0.57
247	-0.573
247	-0.58
248	-0.589
248	-0.585
249	-0.59
249	-0.598
250	-0.597
250	-0.593
250	-0.594
251	-0.591
251	-0.589
252	-0.59
252	-0.578
253	-0.581
253	-0.593
254	-0.591
254	-0.588
255	-0.596
255	-0.587
256	-0.583
256	-0.595
257	-0.593
257	-0.59
258	-0.608
258	-0.605
258	-0.6
259	-0.595
259	-0.606
260	-0.606
260	-0.613
261	-0.626
261	-0.614
262	-0.613
262	-0.612
263	-0.601
263	-0.595
264	-0.595
264	-0.604
265	-0.598
265	-0.605
265	-0.609
266	-0.604
266	-0.602
267	-0.615
267	-0.624
268	-0.639
268	-0.65
269	-0.645
269	-0.641
270	-0.646
270	-0.649
271	-0.65
271	-0.657
272	-0.661
272	-0.657
272	-0.649
273	-0.647
273	-0.657
274	-0.664
274	-0.668
275	-0.669
275	-0.661
276	-0.666
276	-0.658
277	-0.661
277	-0.678
278	-0.69
278	-0.683
278	-0.676
279	-0.678
279	-0.688
280	-0.684
280	-0.685
281	-0.679
281	-0.684
282	-0.678
282	-0.677
283	-0.667
283	-0.67
284	-0.665
284	-0.653
285	-0.649
285	-0.649
285	-0.644
286	-0.652
286	-0.647
287	-0.643
287	-0.626
288	-0.619
288	-0.628
289	-0.641
289	-0.652
290	-0.641
290	-0.639
291	-0.638
291	-0.63
292	-0.634
292	-0.642
292	-0.649
293	-0.654
293	-0.642
294	-0.63
294	-0.619
295	-0.614
295	-0.612
296	-0.608
296	-0.605
297	-0.598
297	-0.581
298	-0.571
298	-0.58
298	-0.568
299	-0.563
299	-0.566
300	-0.562
300	-0.558
301	-0.556
301	-0.556
302	-0.564
302	-0.573
303	-0.561
303	-0.548
304	-0.551
304	-0.551
305	-0.553
305	-0.553
305	-0.55
306	-0.532
306	-0.528
307	-0.513
307	-0.516
308	-0.529
308	-0.526
309	-0.526
309	-0.515
310	-0.501
310	-0.495
311	-0.487
311	-0.497
311	-0.492
312	-0.487
312	-0.484
313	-0.472
313	-0.473
314	-0.471
314	-0.474
315	-0.476
315	-0.475
316	-0.471
316	-0.46
317	-0.451
317	-0.447
318	-0.435
318	-0.43
318	-0.426
319	-0.415
319	-0.41
320	-0.404
320	-0.404
321	-0.409
321	-0.407
322	-0.404
322	-0.399
323	-0.4
323	-0.395
324	-0.386
324	-0.377
324	-0.367
325	-0.355
325	-0.339
326	-0.323
326	-0.304
327	-0.288
327	-0.268
328	-0.24
328	-0.219
329	-0.195
329	-0.171
330	-0.142
330	-0.108
330	-0.079
331	-0.047
331	-0.018
332	0.013
332	0.039
333	0.064
333	0.093
334	0.117
334	0.136
335	0.157
335	0.174
336	0.19
336	0.206
336	0.217
337	0.23
337	0.241
338	0.252
338	0.258
339	0.267
339	0.275
340	0.28
340	0.285
341	0.29
341	0.295
342	0.3
342	0.303
342	0.307
343	0.309
343	0.313
344	0.315
344	0.316
345	0.318
345	0.319
346	0.321
346	0.321
347	0.322
347	0.323
348	0.323
348	0.324
348	0.324
349	0.324
349	0.325
350	0.325
350	0.326
351	0.326
351	0.326
352	0.326
352	0.327
353	0.327
353	0.326
354	0.326
354	0.326
354	0.326
355	0.326
355	0.326
356	0.326
356	0.325
357	0.325
357	0.325
358	0.324
358	0.325
359	0.324
359	0.324
360	0.324
360	0.324
360	0.323
361	0.323
361	0.323
362	0.323
362	0.322
363	0.322
363	0.322
364	0.322
364	0.322
365	0.322
365	0.322
366	0.322
366	0.322
366	0.322
367	0.322
367	0.322
368	0.322
368	0.321
369	0.321
369	0.321
370	0.321
370	0.321
371	0.32
371	0.32
372	0.32
372	0.32
372	0.32
373	0.32
373	0.32
374	0.319
374	0.319
375	0.319
375	0.319
376	0.319
376	0.319
377	0.318
377	0.318
378	0.318
378	0.318
378	0.318
379	0.318
379	0.317
380	0.317
380	0.317
381	0.316
381	0.316
382	0.316
382	0.316
383	0.315
383	0.315
383	0.315
384	0.314
384	0.314
385	0.314
385	0.314
386	0.314
386	0.314
387	0.314
387	0.313
388	0.313
388	0.313
389	0.313
389	0.313
389	0.313
390	0.313
390	0.313
391	0.313
391	0.312
392	0.312
392	0.312
393	0.312
393	0.312
394	0.311
394	0.311
394	0.31
395	0.31
395	0.31
396	0.309
396	0.309
397	0.309
397	0.309
398	0.309
398	0.309
399	0.308
399	0.308
400	0.308
400	0.308
400	0.308
401	0.307
401	0.307
402	0.307
402	0.307
403	0.306
403	0.306
404	0.306
404	0.305
405	0.305
405	0.305
405	0.305
406	0.305
406	0.305
407	0.304
407	0.304
408	0.304
408	0.304
409	0.304
409	0.304
410	0.304
410	0.304
411	0.303
411	0.303
411	0.303
412	0.303
412	0.303
413	0.302
413	0.302
414	0.302
414	0.302
415	0.301
415	0.301
416	0.301
416	0.301
416	0.3
417	0.3
417	0.3
418	0.3
418	0.3
419	0.3
419	0.3
420	0.3
420	0.3
421	0.3
421	0.3
421	0.3
422	0.3
422	0.3
423	0.3
423	0.299
424	0.299
424	0.298
425	0.298
425	0.298
426	0.297
426	0.297
427	0.297
427	0.296
427	0.296
428	0.296
428	0.296
429	0.296
429	0.296
430	0.296
430	0.296
431	0.296
431	0.296
432	0.296
432	0.295
432	0.295
433	0.295
433	0.294
434	0.294
434	0.294
435	0.294
435	0.294
436	0.294
436	0.294
437	0.293
437	0.293
437	0.293
438	0.293
438	0.293
439	0.293
439	0.293
440	0.293
440	0.293
441	0.293
441	0.293
442	0.292
442	0.292
442	0.292
443	0.292
443	0.292
444	0.292
444	0.292
445	0.291
445	0.291
446	0.292
446	0.292
447	0.292
447	0.292
447	0.292
448	0.292
448	0.292
449	0.292
449	0.292
450	0.292
450	0.292
451	0.292
451	0.292
452	0.292
452	0.292
452	0.292
453	0.292
453	0.291
454	0.291
454	0.291
455	0.291
455	0.291
456	0.291
456	0.291
457	0.291
457	0.291
458	0.291
458	0.291
458	0.291
459	0.291
459	0.291
460	0.291
460	0.291
461	0.291
461	0.291
462	0.292
462	0.292
463	0.292
463	0.292
463	0.292
464	0.292
464	0.292
465	0.293
465	0.293
466	0.293
466	0.294
467	0.294
467	0.294
467	0.294
468	0.294
468	0.294
469	0.295
469	0.295
470	0.296
470	0.296
471	0.296
471	0.296
472	0.297
472	0.297
472	0.298
473	0.298
473	0.298
474	0.299
474	0.299
475	0.3
475	0.3
476	0.301
476	0.301
477	0.301
477	0.302
477	0.302
478	0.303
478	0.303
479	0.304
479	0.305
480	0.305
480	0.306
481	0.306
481	0.307
482	0.308
482	0.309
482	0.309
483	0.31
483	0.311
484	0.311
484	0.311
485	0.312
485	0.313
486	0.314
486	0.315
487	0.316
487	0.317
487	0.318
488	0.319
488	0.32
489	0.322
489	0.324
490	0.326
490	0.327
491	0.329
491	0.33
492	0.331
492	0.333
492	0.334
493	0.335
493	0.337
494	0.339
494	0.34
495	0.341
495	0.343
496	0.344
496	0.346
496	0.348
497	0.35
497	0.352
498	0.353
498	0.355
499	0.357
499	0.359
500	0.362
500	0.364
501	0.366
501	0.368
501	0.369
502	0.371
502	0.373
503	0.375
503	0.377
504	0.379
504	0.381
505	0.383
505	0.386
506	0.388
506	0.39
506	0.392
507	0.394
507	0.396
508	0.398
508	0.4
509	0.402
509	0.405
510	0.407
510	0.409
511	0.411
511	0.413
511	0.416
512	0.418
512	0.42
513	0.423
513	0.425
514	0.427
514	0.43
515	0.432
515	0.434
515	0.436
516	0.438
516	0.441
517	0.443
517	0.445
518	0.447
518	0.449
519	0.451
519	0.452
520	0.454
520	0.457
520	0.459
521	0.461
521	0.463
522	0.465
522	0.467
523	0.469
523	0.471
524	0.473
524	0.474
524	0.475
525	0.477
525	0.478
526	0.479
526	0.481
527	0.482
527	0.483
528	0.484
528	0.485
529	0.487
529	0.488
529	0.49
530	0.491
530	0.492
531	0.493
531	0.494
532	0.495
532	0.496
533	0.497
533	0.498
533	0.498
534	0.499
534	0.499
535	0.499
535	0.5
536	0.5
536	0.5
537	0.5
537	0.501
538	0.501
538	0.502
538	0.502
539	0.503
539	0.503
540	0.503
540	0.503
541	0.503
541	0.504
542	0.504
542	0.504
542	0.503
543	0.503
543	0.502
544	0.501
544	0.501
545	0.501
545	0.501
546	0.501
546	0.5
547	0.499
547	0.499
547	0.499
548	0.499
548	0.499
549	0.499
549	0.498
550	0.498
550	0.498
551	0.497
551	0.498
551	0.498
552	0.498
552	0.498
553	0.498
553	0.497
554	0.497
554	0.496
555	0.496
555	0.495
556	0.495
556	0.494
556	0.493
557	0.492
557	0.491
558	0.49
558	0.489
559	0.488
559	0.487
560	0.486
560	0.485
560	0.484
561	0.484
561	0.483
562	0.481
562	0.48
563	0.479
563	0.478
564	0.478
564	0.477
564	0.476
565	0.476
565	0.476
566	0.475
566	0.474
567	0.473
567	0.472
568	0.471
568	0.47
568	0.469
569	0.468
569	0.466
570	0.464
570	0.462
571	0.461
571	0.46
572	0.459
572	0.457
573	0.456
573	0.455
573	0.454
574	0.453
574	0.452
575	0.451
575	0.451
576	0.45
576	0.448
577	0.447
577	0.446
577	0.446
578	0.445
578	0.444
579	0.444
579	0.443
580	0.441
580	0.439
581	0.437
581	0.436
581	0.436
582	0.435
582	0.434
583	0.433
583	0.431
584	0.429
584	0.427
585	0.427
585	0.426
585	0.425
586	0.424
586	0.423
587	0.421
587	0.42
588	0.418
588	0.417
589	0.416
589	0.415
590	0.414
590	0.413
590	0.412
591	0.411
591	0.408
592	0.407
592	0.405
593	0.404
593	0.402
594	0.401
594	0.4
594	0.398
595	0.397
595	0.396
596	0.394
596	0.394
597	0.394
597	0.392
598	0.39
598	0.389
598	0.388
599	0.386
599	0.384
600	0.382
600	0.38
601	0.379
601	0.376
602	0.374
602	0.372
602	0.371
603	0.37
603	0.369
604	0.368
604	0.367
605	0.367
605	0.366
606	0.364
606	0.363
606	0.362
607	0.36
607	0.358
608	0.356
608	0.354
609	0.352
609	0.351
610	0.349
610	0.348
610	0.347
611	0.346
611	0.346
612	0.345
612	0.345
613	0.344
613	0.343
614	0.341
614	0.339
614	0.338
615	0.336
615	0.334
616	0.332
616	0.33
617	0.328
617	0.325
618	0.323
618	0.321
618	0.32
619	0.319
619	0.318
620	0.317
620	0.315
621	0.313
621	0.312
622	0.31
622	0.308
622	0.306
623	0.305
623	0.303
624	0.302
624	0.3
625	0.298
625	0.296
626	0.294
626	0.292
626	0.29
627	0.288
627	0.286
628	0.283
628	0.281
629	0.278
629	0.275
630	0.271
630	0.268
630	0.265
631	0.261
631	0.258
632	0.253
632	0.249
633	0.245
633	0.24
634	0.236
634	0.232
634	0.227
635	0.223
635	0.217
636	0.212
636	0.207
637	0.201
637	0.195
638	0.188
638	0.182
638	0.175
639	0.167
639	0.159
640	0.152
640	0.144
641	0.137
641	0.129
642	0.122
642	0.114
642	0.106
643	0.099
643	0.09
644	0.082
644	0.073
645	0.064
645	0.056
646	0.047
646	0.038
646	0.029
647	0.02
647	0.012
648	0.003
648	-0.006
649	-0.016
649	-0.025
650	-0.034
650	-0.042
650	-0.052
651	-0.063
651	-0.077
652	-0.094
652	-0.111
653	-0.125
653	-0.137
653	-0.133
654	-0.109
654	-0.094
655	-0.097
655	-0.101
656	-0.107
656	-0.112
657	-0.115
657	-0.117
657	-0.122
658	-0.128
658	-0.157
659	-0.247
659	-0.352
660	-0.396
660	-0.422
661	-0.45
661	-0.481
661	-0.515
662	-0.549
662	-0.585
663	-0.625
663	-0.668
664	-0.712
664	-0.764
665	-0.816
665	-0.876
665	-0.933
666	-0.991
666	-1.053
667	-1.118
667	-1.184
668	-1.257
668	-1.332
669	-1.409
669	-1.486
669	-1.571
670	-1.661
670	-1.802
671	-2
671	-2.16
672	-2.335
672	-2.496
672	-2.606
673	-2.684
673	-2.754
674	-2.786
674	-2.801
675	-2.823
675	-2.946
676	-3.108
676	-3.058
676	-2.832
677	-2.625
677	-2.457
678	-2.271
678	-1.941
679	-1.711
679	-1.591
680	-1.503
680	-1.425
680	-1.359
681	-1.318
681	-1.261
682	-1.223
682	-1.187
683	-1.153
683	-1.138
684	-1.117
684	-1.098
684	-1.076
685	-1.053
685	-1.032
686	-1.006
686	-0.991
687	-0.965
687	-0.954
687	-0.935
688	-0.908
688	-0.887
689	-0.866
689	-0.852
690	-0.831
690	-0.819
691	-0.813
691	-0.816
691	-0.834
692	-0.824
692	-0.814
693	-0.809
693	-0.816
694	-0.811
694	-0.804
695	-0.81
695	-0.807
695	-0.791
696	-0.787
696	-0.764
697	-0.765
697	-0.78
698	-0.783
698	-0.774
698	-0.786
699	-0.789
699	-0.787
700	-0.779
700	-0.794
701	-0.793
701	-0.8
702	-0.799
702	-0.787
702	-0.778
703	-0.77
703	-0.76
704	-0.757
704	-0.756
705	-0.768
705	-0.76
705	-0.748
706	-0.747
706	-0.742
707	-0.748
707	-0.744
708	-0.741
708	-0.735
709	-0.738
709	-0.74
709	-0.73
710	-0.741
710	-0.752
711	-0.745
711	-0.747
712	-0.742
712	-0.756
713	-0.755
713	-0.763
713	-0.753
714	-0.75
714	-0.749
715	-0.737
715	-0.724
716	-0.729
716	-0.73
716	-0.725
717	-0.727
717	-0.73
718	-0.72
718	-0.723
719	-0.729
719	-0.732
720	-0.729
720	-0.74
720	-0.734
721	-0.724
721	-0.724
722	-0.712
722	-0.702
723	-0.7
723	-0.703
723	-0.687
724	-0.691
724	-0.694
725	-0.691
725	-0.699
726	-0.712
726	-0.716
727	-0.72
727	-0.735
727	-0.742
728	-0.742
728	-0.748
729	-0.747
729	-0.753
730	-0.758
730	-0.752
730	-0.744
731	-0.728
731	-0.74
732	-0.745
732	-0.747
733	-0.745
733	-0.753
734	-0.747
734	-0.747
734	-0.733
735	-0.73
735	-0.729
736	-0.739
736	-0.724
737	-0.716
737	-0.717
737	-0.728
738	-0.721
738	-0.72
739	-0.717
739	-0.729
740	-0.729
740	-0.73
741	-0.723
741	-0.723
741	-0.725
742	-0.721
742	-0.722
743	-0.729
743	-0.735
744	-0.732
744	-0.724
744	-0.726
745	-0.732
745	-0.727
746	-0.728
746	-0.726
747	-0.727
747	-0.713
748	-0.703
748	-0.709
748	-0.711
749	-0.71
749	-0.711
750	-0.7
750	-0.701
751	-0.704
751	-0.713
751	-0.716
752	-0.722
752	-0.732
753	-0.726
753	-0.723
754	-0.727
754	-0.72
754	-0.734
755	-0.75
755	-0.761
756	-0.749
756	-0.747
757	-0.744
757	-0.738
758	-0.739
758	-0.736
758	-0.74
759	-0.749
759	-0.734
760	-0.727
760	-0.721
761	-0.73
761	-0.728
761	-0.728
762	-0.734
762	-0.734
763	-0.742
763	-0.739
764	-0.736
764	-0.742
764	-0.75
765	-0.74
765	-0.729
766	-0.735
766	-0.742
767	-0.758
767	-0.752
768	-0.746
768	-0.753
768	-0.76
769	-0.778
769	-0.777
770	-0.781
770	-0.794
771	-0.791
771	-0.792
771	-0.792
772	-0.795
772	-0.794
773	-0.796
773	-0.789
774	-0.789
774	-0.79
775	-0.792
775	-0.788
775	-0.797
776	-0.797
776	-0.786
777	-0.795
777	-0.813
778	-0.809
778	-0.829
778	-0.812
779	-0.834
779	-0.842
780	-0.855
780	-0.854
781	-0.868
781	-0.862
781	-0.879
782	-0.88
782	-0.883
783	-0.87
783	-0.87
784	-0.853
784	-0.842
784	-0.85
785	-0.857
785	-0.841
786	-0.848
786	-0.826
787	-0.81
787	-0.811
788	-0.814
788	-0.824
788	-0.833
789	-0.835
789	-0.816
790	-0.796
790	-0.8
791	-0.801
791	-0.818
791	-0.827
792	-0.821
792	-0.796
793	-0.787
793	-0.762
794	-0.766
794	-0.76
794	-0.77
795	-0.765
795	-0.757
796	-0.738
796	-0.743
797	-0.737
797	-0.751
797	-0.757
798	-0.772
798	-0.765
799	-0.774
799	-0.76
800	-0.766
800	-0.761
801	-0.768
801	-0.753
801	-0.761
802	-0.768
802	-0.768
803	-0.768
803	-0.778
804	-0.773
804	-0.781
804	-0.771
805	-0.775
805	-0.763
806	-0.767
806	-0.751
807	-0.75
807	-0.732
807	-0.72
808	-0.71
808	-0.707
809	-0.693
809	-0.7
810	-0.697
810	-0.689
810	-0.687
811	-0.695
811	-0.688
812	-0.689
812	-0.695
813	-0.7
813	-0.695
813	-0.701
814	-0.703
814	-0.707
815	-0.714
815	-0.715
816	-0.708
816	-0.712
817	-0.719
817	-0.732
817	-0.747
818	-0.755
818	-0.759
819	-0.75
819	-0.751
820	-0.759
820	-0.757
820	-0.768
821	-0.765
821	-0.752
822	-0.721
822	-0.696
823	-0.693
823	-0.695
823	-0.69
824	-0.685
824	-0.687
825	-0.679
825	-0.66
826	-0.656
826	-0.663
826	-0.675
827	-0.669
827	-0.667
828	-0.647
828	-0.648
829	-0.638
829	-0.622
829	-0.616
830	-0.626
830	-0.621
831	-0.614
831	-0.604
832	-0.603
832	-0.594
832	-0.601
833	-0.596
833	-0.599
834	-0.599
834	-0.606
835	-0.591
835	-0.588
835	-0.583
836	-0.581
836	-0.578
837	-0.575
837	-0.563
838	-0.554
838	-0.54
839	-0.528
839	-0.515
839	-0.509
840	-0.497
840	-0.493
841	-0.482
841	-0.472
842	-0.467
842	-0.459
842	-0.454
843	-0.449
843	-0.445
844	-0.434
844	-0.425
845	-0.419
845	-0.408
845	-0.394
846	-0.384
846	-0.369
847	-0.357
847	-0.346
848	-0.334
848	-0.322
848	-0.309
849	-0.299
849	-0.288
850	-0.276
850	-0.269
851	-0.26
851	-0.25
851	-0.241
852	-0.225
852	-0.213
853	-0.205
853	-0.198
854	-0.185
854	-0.173
854	-0.161
855	-0.151
855	-0.144
856	-0.134
856	-0.126
857	-0.121
857	-0.112
857	-0.101
858	-0.091
858	-0.086
859	-0.079
859	-0.069
860	-0.061
860	-0.048
860	-0.04
861	-0.033
861	-0.024
862	-0.018
862	-0.011
863	-0.005
863	0.003
863	0.009
864	0.014
864	0.019
865	0.024
865	0.029
866	0.033
866	0.036
866	0.04
867	0.043
867	0.046
868	0.049
868	0.052
869	0.055
869	0.057
869	0.059
870	0.061
870	0.063
871	0.065
871	0.067
872	0.068
872	0.069
872	0.07
873	0.07
873	0.071
874	0.07
874	0.07
875	0.069
875	0.068
875	0.067
876	0.066
876	0.065
877	0.064
877	0.063
878	0.062
878	0.06
878	0.059
879	0.058
879	0.057
880	0.056
880	0.057
881	0.056
881	0.056
881	0.056
882	0.055
882	0.054
883	0.053
883	0.052
884	0.051
884	0.05
884	0.049
885	0.048
885	0.047
886	0.047
886	0.046
887	0.046
887	0.046
887	0.046
888	0.047
888	0.047
889	0.047
889	0.048
890	0.048
890	0.048
890	0.048
891	0.048
891	0.048
892	0.049
892	0.049
893	0.049
893	0.049
893	0.048
894	0.048
894	0.048
895	0.048
895	0.048
895	0.048
896	0.047
896	0.046
897	0.045
897	0.044
898	0.043
898	0.042
898	0.042
899	0.042
899	0.042
900	0.043
900	0.043
901	0.043
901	0.044
901	0.044
902	0.045
902	0.046
903	0.046
903	0.047
904	0.047
904	0.048
904	0.048
905	0.049
905	0.049
906	0.05
906	0.05
907	0.05
907	0.05
907	0.049
908	0.049
908	0.048
909	0.048
909	0.047
910	0.046
910	0.046
910	0.045
911	0.046
911	0.046
912	0.047
912	0.047
913	0.048
913	0.049
913	0.05
914	0.051
914	0.052
915	0.053
915	0.054
916	0.055
916	0.055
916	0.055
917	0.055
917	0.056
918	0.055
918	0.055
918	0.055
919	0.054
919	0.054
920	0.054
920	0.054
921	0.053
921	0.053
921	0.053
922	0.053
922	0.052
923	0.052
923	0.052
924	0.051
924	0.051
924	0.05
925	0.049
925	0.048
926	0.048
926	0.047
927	0.046
927	0.045
927	0.045
928	0.044
928	0.044
929	0.043
929	0.043
930	0.042
930	0.041
930	0.041
931	0.04
931	0.04
932	0.04
932	0.039
933	0.038
933	0.037
933	0.035
934	0.034
934	0.034
935	0.033
935	0.032
935	0.031
936	0.03
936	0.029
937	0.028
937	0.028
938	0.028
938	0.028
938	0.028
939	0.028
939	0.028
940	0.029
940	0.029
941	0.03
941	0.031
941	0.032
942	0.032
942	0.032
943	0.033
943	0.033
944	0.032
944	0.032
944	0.031
945	0.031
945	0.03
946	0.028
946	0.027
946	0.026
947	0.025
947	0.025
948	0.025
948	0.025
949	0.025
949	0.026
949	0.026
950	0.026
950	0.027
951	0.028
951	0.028
952	0.029
952	0.03
952	0.031
953	0.032
953	0.033
954	0.034
954	0.035
955	0.036
955	0.037
955	0.038
956	0.038
956	0.039
957	0.039
957	0.039
957	0.04
958	0.04
958	0.041
959	0.041
959	0.041
960	0.041
960	0.041
960	0.042
961	0.042
961	0.043
962	0.043
962	0.042
963	0.043
963	0.042
963	0.042
964	0.042
964	0.042
965	0.043
965	0.042
966	0.042
966	0.042
966	0.041
967	0.041
967	0.04
968	0.039
968	0.038
968	0.038
969	0.037
969	0.037
970	0.037
970	0.037
971	0.037
971	0.037
971	0.037
972	0.038
972	0.038
973	0.039
973	0.038
974	0.038
974	0.038
974	0.038
975	0.038
975	0.038
976	0.037
976	0.037
976	0.037
977	0.036
977	0.037
978	0.037
978	0.037
979	0.037
979	0.037
979	0.037
980	0.037
980	0.037
981	0.037
981	0.037
982	0.036
982	0.036
982	0.035
983	0.035
983	0.035
984	0.035
984	0.034
984	0.034
985	0.034
985	0.034
986	0.034
986	0.033
987	0.033
987	0.033
987	0.032
988	0.032
988	0.031
989	0.03
989	0.029
990	0.028
990	0.028
990	0.027
991	0.027
991	0.026
992	0.026
992	0.026
992	0.025
993	0.025
993	0.025
994	0.025
994	0.025
995	0.025
995	0.025
995	0.024
996	0.024
996	0.023
997	0.023
997	0.023
997	0.023
998	0.023
998	0.023
999	0.023
999	0.023
1000	0.024
1000	0.024
1000	0.024
1001	0.024
1001	0.025
1002	0.025
1002	0.026
1003	0.026
1003	0.026
1003	0.026
1004	0.025
1004	0.025
1005	0.025
1005	0.024
1005	0.023
1006	0.022
1006	0.021
1007	0.02
1007	0.019
1008	0.018
1008	0.018
1008	0.017
1009	0.017
1009	0.017
1010	0.017
1010	0.017
1010	0.017
1011	0.018
1011	0.017
1012	0.017
1012	0.017
1013	0.016
1013	0.016
1013	0.015
1014	0.014
1014	0.013
1015	0.013
1015	0.012
1016	0.011
1016	0.011
1016	0.01
1017	0.009
1017	0.008
1018	0.007
1018	0.006
1018	0.005
1019	0.005
1019	0.004
1020	0.003
1020	0.003
1021	0.002
1021	0.001
1021	0.001
1022	0
1022	0
1023	-0
1023	-0
1023	-0.001
1024	-0.001
1024	-0.001
1025	-0.001
1025	-0.001
1026	-0
1026	0.001
1026	0.001
1027	0.001
1027	0.001
1028	0.001
1028	0.002
1028	0.001
1029	0.001
1029	0.001
1030	0.001
1030	0
1031	-0
1031	-0.001
1031	-0.001
1032	-0.001
1032	-0.001
1033	-0.001
1033	-0.001
1033	-0.001
1034	-0.001
1034	-0.001
1035	-0.001
1035	-0.001
1036	-0.002
1036	-0.002
1036	-0.002
1037	-0.002
1037	-0.001
1038	-0.001
1038	-0.001
1039	-0.001
1039	-0.001
1039	-0
1040	0
1040	0.001
1041	0.002
1041	0.002
1041	0.002
1042	0.002
1042	0.002
1043	0.001
1043	0.001
1044	0
1044	-0.001
1044	-0.002
1045	-0.003
1045	-0.003
1046	-0.004
1046	-0.005
1046	-0.005
1047	-0.005
1047	-0.005
1048	-0.005
1048	-0.005
1049	-0.005
1049	-0.005
1049	-0.004
1050	-0.004
1050	-0.003
1051	-0.003
1051	-0.003
1051	-0.002
1052	-0.002
1052	-0.002
1053	-0.001
1053	-0.001
1053	-0.001
1054	-0.001
1054	-0.001
1055	-0.001
1055	-0.002
1056	-0.002
1056	-0.003
1056	-0.004
1057	-0.005
1057	-0.005
1058	-0.005
1058	-0.006
1058	-0.006
1059	-0.007
1059	-0.008
1060	-0.008
1060	-0.009
1061	-0.009
1061	-0.009
1061	-0.009
1062	-0.009
1062	-0.009
1063	-0.009
1063	-0.01
1063	-0.009
1064	-0.009
1064	-0.009
1065	-0.009
1065	-0.01
1066	-0.01
1066	-0.01
1066	-0.01
1067	-0.01
1067	-0.01
1068	-0.011
1068	-0.011
1068	-0.011
1069	-0.011
1069	-0.012
1070	-0.012
1070	-0.012
1071	-0.012
1071	-0.013
1071	-0.013
1072	-0.014
1072	-0.014
1073	-0.015
1073	-0.014
1073	-0.015
1074	-0.014
1074	-0.014
1075	-0.015
1075	-0.015
1076	-0.016
1076	-0.016
1076	-0.017
1077	-0.017
1077	-0.017
1078	-0.019
1078	-0.019
1078	-0.02
1079	-0.021
1079	-0.022
1080	-0.023
1080	-0.023
1080	-0.024
1081	-0.025
1081	-0.025
1082	-0.026
1082	-0.027
1083	-0.027
1083	-0.028
1083	-0.029
1084	-0.03
1084	-0.03
1085	-0.031
1085	-0.032
1085	-0.032
1086	-0.032
1086	-0.033
1087	-0.033
1087	-0.033
1088	-0.034
1088	-0.034
1088	-0.035
1089	-0.036
1089	-0.036
1090	-0.038
1090	-0.039
1090	-0.04
1091	-0.041
1091	-0.041
1092	-0.043
1092	-0.043
1092	-0.044
1093	-0.045
1093	-0.045
1094	-0.045
1094	-0.046
1095	-0.046
1095	-0.047
1095	-0.047
1096	-0.048
1096	-0.049
1097	-0.049
1097	-0.05
1097	-0.05
1098	-0.051
1098	-0.053
1099	-0.052
1099	-0.053
1100	-0.055
1100	-0.057
1100	-0.059
1101	-0.061
1101	-0.063
1102	-0.065
1102	-0.068
1102	-0.069
1103	-0.072
1103	-0.075
1104	-0.078
1104	-0.08
1104	-0.083
1105	-0.085
1105	-0.088
1106	-0.092
1106	-0.095
1107	-0.099
1107	-0.104
1107	-0.109
1108	-0.111
1108	-0.113
1109	-0.116
1109	-0.12
1109	-0.123
1110	-0.123
1110	-0.126
1111	-0.132
1111	-0.132
