Data from 17C_3.1A_35min_2sec_int_Absorbance__819__03222.txt Node

Date: Mon Jun 19 18:48:57 CEST 2023
User: Marek
Spectrometer: MAYP115816
Trigger mode: 0
Integration Time (sec): 2.500000E-1
Scans to average: 10
Electric dark correction enabled: true
Nonlinearity correction enabled: true
Boxcar width: 5
XAxis mode: Wavelengths
Number of Pixels in Spectrum: 2068
>>>>>Begin Spectral Data<<<<<
199	-0.704
199	-0.729
200	-0.636
200	-0.585
201	-0.552
201	-0.54
202	-0.523
202	-0.512
203	-0.503
203	-0.499
204	-0.487
204	-0.476
205	-0.453
205	-0.45
205	-0.448
206	-0.449
206	-0.452
207	-0.443
207	-0.445
208	-0.445
208	-0.445
209	-0.438
209	-0.438
210	-0.442
210	-0.445
211	-0.446
211	-0.449
212	-0.451
212	-0.459
213	-0.458
213	-0.46
213	-0.464
214	-0.461
214	-0.46
215	-0.456
215	-0.461
216	-0.465
216	-0.472
217	-0.468
217	-0.473
218	-0.474
218	-0.474
219	-0.478
219	-0.489
220	-0.494
220	-0.507
221	-0.507
221	-0.51
221	-0.503
222	-0.498
222	-0.498
223	-0.501
223	-0.507
224	-0.511
224	-0.509
225	-0.505
225	-0.497
226	-0.5
226	-0.498
227	-0.504
227	-0.514
228	-0.514
228	-0.515
229	-0.514
229	-0.505
229	-0.5
230	-0.506
230	-0.509
231	-0.504
231	-0.495
232	-0.488
232	-0.49
233	-0.483
233	-0.482
234	-0.48
234	-0.48
235	-0.483
235	-0.487
236	-0.487
236	-0.489
236	-0.497
237	-0.505
237	-0.504
238	-0.515
238	-0.512
239	-0.514
239	-0.52
240	-0.519
240	-0.517
241	-0.521
241	-0.522
242	-0.527
242	-0.522
243	-0.517
243	-0.514
243	-0.523
244	-0.522
244	-0.523
245	-0.538
245	-0.538
246	-0.544
246	-0.547
247	-0.549
247	-0.554
248	-0.563
248	-0.562
249	-0.566
249	-0.577
250	-0.575
250	-0.569
250	-0.569
251	-0.567
251	-0.569
252	-0.572
252	-0.563
253	-0.566
253	-0.576
254	-0.575
254	-0.572
255	-0.578
255	-0.572
256	-0.568
256	-0.578
257	-0.573
257	-0.57
258	-0.585
258	-0.582
258	-0.581
259	-0.576
259	-0.584
260	-0.584
260	-0.59
261	-0.605
261	-0.597
262	-0.595
262	-0.596
263	-0.587
263	-0.581
264	-0.582
264	-0.59
265	-0.587
265	-0.594
265	-0.598
266	-0.591
266	-0.588
267	-0.602
267	-0.611
268	-0.627
268	-0.635
269	-0.631
269	-0.625
270	-0.63
270	-0.635
271	-0.635
271	-0.642
272	-0.645
272	-0.639
272	-0.631
273	-0.628
273	-0.638
274	-0.644
274	-0.651
275	-0.65
275	-0.642
276	-0.65
276	-0.643
277	-0.648
277	-0.666
278	-0.676
278	-0.67
278	-0.663
279	-0.667
279	-0.677
280	-0.675
280	-0.675
281	-0.666
281	-0.672
282	-0.664
282	-0.663
283	-0.655
283	-0.657
284	-0.653
284	-0.642
285	-0.637
285	-0.634
285	-0.63
286	-0.638
286	-0.633
287	-0.631
287	-0.615
288	-0.607
288	-0.616
289	-0.629
289	-0.639
290	-0.628
290	-0.627
291	-0.625
291	-0.621
292	-0.624
292	-0.631
292	-0.637
293	-0.642
293	-0.63
294	-0.618
294	-0.608
295	-0.607
295	-0.603
296	-0.602
296	-0.597
297	-0.592
297	-0.576
298	-0.566
298	-0.576
298	-0.568
299	-0.561
299	-0.562
300	-0.557
300	-0.554
301	-0.55
301	-0.551
302	-0.557
302	-0.565
303	-0.552
303	-0.535
304	-0.537
304	-0.537
305	-0.54
305	-0.537
305	-0.534
306	-0.519
306	-0.512
307	-0.5
307	-0.504
308	-0.519
308	-0.518
309	-0.52
309	-0.51
310	-0.497
310	-0.495
311	-0.487
311	-0.495
311	-0.493
312	-0.489
312	-0.486
313	-0.471
313	-0.474
314	-0.47
314	-0.472
315	-0.472
315	-0.472
316	-0.468
316	-0.46
317	-0.452
317	-0.447
318	-0.436
318	-0.432
318	-0.428
319	-0.417
319	-0.414
320	-0.409
320	-0.409
321	-0.415
321	-0.413
322	-0.409
322	-0.404
323	-0.405
323	-0.401
324	-0.393
324	-0.386
324	-0.376
325	-0.366
325	-0.351
326	-0.337
326	-0.321
327	-0.306
327	-0.287
328	-0.262
328	-0.242
329	-0.221
329	-0.199
330	-0.174
330	-0.143
330	-0.117
331	-0.09
331	-0.065
332	-0.042
332	-0.021
333	-0.002
333	0.019
334	0.038
334	0.053
335	0.068
335	0.08
336	0.092
336	0.103
336	0.113
337	0.122
337	0.13
338	0.137
338	0.141
339	0.148
339	0.153
340	0.157
340	0.16
341	0.164
341	0.167
342	0.17
342	0.172
342	0.175
343	0.176
343	0.179
344	0.181
344	0.182
345	0.183
345	0.184
346	0.184
346	0.185
347	0.186
347	0.186
348	0.187
348	0.187
348	0.187
349	0.188
349	0.188
350	0.188
350	0.188
351	0.188
351	0.188
352	0.188
352	0.188
353	0.188
353	0.188
354	0.188
354	0.188
354	0.188
355	0.188
355	0.188
356	0.188
356	0.188
357	0.187
357	0.186
358	0.186
358	0.186
359	0.186
359	0.186
360	0.186
360	0.186
360	0.186
361	0.185
361	0.185
362	0.186
362	0.186
363	0.186
363	0.186
364	0.186
364	0.186
365	0.186
365	0.186
366	0.186
366	0.186
366	0.186
367	0.186
367	0.186
368	0.186
368	0.186
369	0.186
369	0.186
370	0.186
370	0.186
371	0.186
371	0.186
372	0.185
372	0.186
372	0.186
373	0.186
373	0.186
374	0.185
374	0.186
375	0.185
375	0.186
376	0.186
376	0.186
377	0.186
377	0.186
378	0.186
378	0.186
378	0.186
379	0.185
379	0.185
380	0.185
380	0.185
381	0.185
381	0.185
382	0.185
382	0.185
383	0.184
383	0.184
383	0.184
384	0.184
384	0.184
385	0.184
385	0.184
386	0.184
386	0.184
387	0.184
387	0.184
388	0.184
388	0.184
389	0.184
389	0.184
389	0.184
390	0.184
390	0.185
391	0.185
391	0.185
392	0.185
392	0.185
393	0.185
393	0.185
394	0.185
394	0.184
394	0.184
395	0.184
395	0.184
396	0.184
396	0.184
397	0.184
397	0.184
398	0.184
398	0.184
399	0.184
399	0.184
400	0.184
400	0.184
400	0.184
401	0.184
401	0.183
402	0.183
402	0.183
403	0.183
403	0.183
404	0.183
404	0.183
405	0.183
405	0.183
405	0.183
406	0.183
406	0.183
407	0.183
407	0.182
408	0.182
408	0.182
409	0.182
409	0.182
410	0.182
410	0.182
411	0.182
411	0.182
411	0.182
412	0.182
412	0.182
413	0.182
413	0.182
414	0.182
414	0.182
415	0.182
415	0.182
416	0.182
416	0.182
416	0.182
417	0.181
417	0.181
418	0.181
418	0.181
419	0.182
419	0.182
420	0.182
420	0.182
421	0.182
421	0.182
421	0.183
422	0.183
422	0.183
423	0.183
423	0.182
424	0.182
424	0.182
425	0.182
425	0.181
426	0.181
426	0.181
427	0.18
427	0.18
427	0.18
428	0.18
428	0.18
429	0.18
429	0.18
430	0.18
430	0.18
431	0.18
431	0.18
432	0.18
432	0.179
432	0.179
433	0.179
433	0.179
434	0.179
434	0.179
435	0.179
435	0.179
436	0.179
436	0.179
437	0.179
437	0.179
437	0.179
438	0.179
438	0.179
439	0.179
439	0.179
440	0.179
440	0.179
441	0.179
441	0.179
442	0.179
442	0.178
442	0.178
443	0.178
443	0.178
444	0.178
444	0.178
445	0.178
445	0.178
446	0.178
446	0.178
447	0.178
447	0.178
447	0.178
448	0.179
448	0.179
449	0.178
449	0.178
450	0.179
450	0.178
451	0.178
451	0.178
452	0.178
452	0.178
452	0.178
453	0.178
453	0.178
454	0.177
454	0.177
455	0.177
455	0.177
456	0.177
456	0.177
457	0.176
457	0.176
458	0.176
458	0.176
458	0.176
459	0.176
459	0.176
460	0.176
460	0.176
461	0.176
461	0.176
462	0.176
462	0.176
463	0.176
463	0.176
463	0.177
464	0.176
464	0.176
465	0.177
465	0.177
466	0.177
466	0.177
467	0.177
467	0.177
467	0.177
468	0.177
468	0.177
469	0.177
469	0.177
470	0.178
470	0.178
471	0.178
471	0.178
472	0.178
472	0.178
472	0.178
473	0.178
473	0.178
474	0.177
474	0.177
475	0.177
475	0.177
476	0.178
476	0.177
477	0.177
477	0.177
477	0.177
478	0.177
478	0.177
479	0.177
479	0.178
480	0.178
480	0.178
481	0.178
481	0.178
482	0.178
482	0.179
482	0.179
483	0.18
483	0.18
484	0.18
484	0.18
485	0.18
485	0.18
486	0.18
486	0.18
487	0.181
487	0.181
487	0.181
488	0.181
488	0.181
489	0.182
489	0.183
490	0.184
490	0.184
491	0.185
491	0.185
492	0.186
492	0.186
492	0.187
493	0.187
493	0.188
494	0.188
494	0.189
495	0.189
495	0.19
496	0.19
496	0.191
496	0.192
497	0.193
497	0.194
498	0.194
498	0.194
499	0.195
499	0.196
500	0.197
500	0.197
501	0.198
501	0.198
501	0.198
502	0.198
502	0.199
503	0.199
503	0.2
504	0.201
504	0.201
505	0.202
505	0.203
506	0.204
506	0.205
506	0.205
507	0.206
507	0.207
508	0.208
508	0.209
509	0.209
509	0.21
510	0.211
510	0.212
511	0.213
511	0.214
511	0.215
512	0.216
512	0.216
513	0.217
513	0.218
514	0.218
514	0.219
515	0.22
515	0.22
515	0.221
516	0.222
516	0.222
517	0.223
517	0.224
518	0.225
518	0.225
519	0.226
519	0.227
520	0.227
520	0.228
520	0.23
521	0.231
521	0.231
522	0.232
522	0.233
523	0.234
523	0.235
524	0.235
524	0.236
524	0.236
525	0.237
525	0.237
526	0.238
526	0.239
527	0.239
527	0.24
528	0.24
528	0.241
529	0.242
529	0.243
529	0.243
530	0.244
530	0.245
531	0.246
531	0.246
532	0.247
532	0.247
533	0.248
533	0.249
533	0.249
534	0.249
534	0.249
535	0.249
535	0.249
536	0.249
536	0.249
537	0.249
537	0.25
538	0.25
538	0.25
538	0.251
539	0.252
539	0.252
540	0.252
540	0.253
541	0.253
541	0.254
542	0.254
542	0.254
542	0.255
543	0.255
543	0.255
544	0.255
544	0.255
545	0.256
545	0.256
546	0.257
546	0.257
547	0.257
547	0.257
547	0.257
548	0.257
548	0.257
549	0.258
549	0.258
550	0.258
550	0.259
551	0.259
551	0.26
551	0.261
552	0.262
552	0.263
553	0.264
553	0.265
554	0.265
554	0.265
555	0.265
555	0.265
556	0.266
556	0.265
556	0.266
557	0.266
557	0.266
558	0.265
558	0.265
559	0.265
559	0.265
560	0.265
560	0.265
560	0.265
561	0.265
561	0.265
562	0.265
562	0.265
563	0.264
563	0.264
564	0.265
564	0.265
564	0.266
565	0.266
565	0.267
566	0.267
566	0.267
567	0.267
567	0.268
568	0.268
568	0.268
568	0.268
569	0.268
569	0.268
570	0.267
570	0.266
571	0.266
571	0.266
572	0.266
572	0.266
573	0.265
573	0.265
573	0.265
574	0.265
574	0.265
575	0.265
575	0.266
576	0.267
576	0.266
577	0.266
577	0.266
577	0.267
578	0.268
578	0.269
579	0.27
579	0.271
580	0.27
580	0.269
581	0.269
581	0.269
581	0.27
582	0.27
582	0.27
583	0.27
583	0.269
584	0.268
584	0.267
585	0.268
585	0.269
585	0.269
586	0.269
586	0.269
587	0.268
587	0.268
588	0.268
588	0.269
589	0.269
589	0.27
590	0.27
590	0.271
590	0.272
591	0.273
591	0.273
592	0.272
592	0.272
593	0.272
593	0.272
594	0.272
594	0.272
594	0.272
595	0.272
595	0.272
596	0.272
596	0.274
597	0.276
597	0.276
598	0.276
598	0.276
598	0.276
599	0.276
599	0.275
600	0.274
600	0.273
601	0.273
601	0.272
602	0.272
602	0.272
602	0.272
603	0.272
603	0.273
604	0.274
604	0.275
605	0.276
605	0.277
606	0.276
606	0.276
606	0.276
607	0.276
607	0.275
608	0.275
608	0.274
609	0.274
609	0.275
610	0.275
610	0.275
610	0.276
611	0.277
611	0.278
612	0.279
612	0.28
613	0.281
613	0.281
614	0.28
614	0.279
614	0.279
615	0.278
615	0.278
616	0.277
616	0.276
617	0.275
617	0.274
618	0.274
618	0.273
618	0.273
619	0.273
619	0.274
620	0.274
620	0.274
621	0.274
621	0.274
622	0.273
622	0.273
622	0.273
623	0.273
623	0.274
624	0.273
624	0.273
625	0.273
625	0.273
626	0.272
626	0.272
626	0.271
627	0.271
627	0.27
628	0.269
628	0.268
629	0.267
629	0.266
630	0.264
630	0.263
630	0.261
631	0.26
631	0.258
632	0.256
632	0.254
633	0.252
633	0.25
634	0.248
634	0.246
634	0.244
635	0.241
635	0.238
636	0.235
636	0.233
637	0.229
637	0.226
638	0.222
638	0.218
638	0.214
639	0.209
639	0.204
640	0.2
640	0.195
641	0.191
641	0.186
642	0.181
642	0.177
642	0.172
643	0.167
643	0.161
644	0.155
644	0.149
645	0.143
645	0.137
646	0.131
646	0.124
646	0.117
647	0.11
647	0.103
648	0.096
648	0.089
649	0.081
649	0.073
650	0.066
650	0.058
650	0.049
651	0.039
651	0.026
652	0.011
652	-0.004
653	-0.018
653	-0.03
653	-0.027
654	-0.008
654	0.002
655	-0.002
655	-0.006
656	-0.013
656	-0.02
657	-0.024
657	-0.028
657	-0.034
658	-0.041
658	-0.07
659	-0.155
659	-0.254
660	-0.298
660	-0.326
661	-0.354
661	-0.384
661	-0.419
662	-0.451
662	-0.485
663	-0.523
663	-0.566
664	-0.609
664	-0.661
665	-0.712
665	-0.77
665	-0.824
666	-0.88
666	-0.941
667	-1.006
667	-1.07
668	-1.142
668	-1.215
669	-1.289
669	-1.362
669	-1.44
670	-1.508
670	-1.547
671	-1.723
671	-1.989
672	-2.212
672	-2.401
672	-2.529
673	-2.62
673	-2.699
674	-2.74
674	-2.758
675	-2.783
675	-2.923
676	-3.113
676	-3.063
676	-2.838
677	-2.633
677	-2.467
678	-2.285
678	-1.97
679	-1.688
679	-1.552
680	-1.459
680	-1.377
680	-1.307
681	-1.263
681	-1.204
682	-1.167
682	-1.131
683	-1.097
683	-1.082
684	-1.063
684	-1.044
684	-1.022
685	-0.999
685	-0.978
686	-0.954
686	-0.941
687	-0.915
687	-0.904
687	-0.885
688	-0.86
688	-0.839
689	-0.819
689	-0.806
690	-0.788
690	-0.777
691	-0.771
691	-0.775
691	-0.791
692	-0.783
692	-0.774
693	-0.769
693	-0.779
694	-0.775
694	-0.769
695	-0.775
695	-0.773
695	-0.757
696	-0.755
696	-0.732
697	-0.733
697	-0.75
698	-0.752
698	-0.743
698	-0.754
699	-0.758
699	-0.755
700	-0.746
700	-0.762
701	-0.759
701	-0.767
702	-0.766
702	-0.753
702	-0.747
703	-0.739
703	-0.731
704	-0.726
704	-0.726
705	-0.737
705	-0.731
705	-0.719
706	-0.718
706	-0.714
707	-0.717
707	-0.71
708	-0.708
708	-0.699
709	-0.702
709	-0.704
709	-0.695
710	-0.704
710	-0.713
711	-0.705
711	-0.705
712	-0.707
712	-0.721
713	-0.722
713	-0.73
713	-0.72
714	-0.716
714	-0.72
715	-0.707
715	-0.696
716	-0.704
716	-0.706
716	-0.696
717	-0.695
717	-0.698
718	-0.688
718	-0.692
719	-0.699
719	-0.7
720	-0.697
720	-0.706
720	-0.698
721	-0.689
721	-0.691
722	-0.679
722	-0.667
723	-0.666
723	-0.667
723	-0.652
724	-0.654
724	-0.658
725	-0.657
725	-0.667
726	-0.679
726	-0.684
727	-0.688
727	-0.703
727	-0.708
728	-0.71
728	-0.717
729	-0.717
729	-0.722
730	-0.729
730	-0.721
730	-0.711
731	-0.695
731	-0.706
732	-0.711
732	-0.712
733	-0.709
733	-0.714
734	-0.71
734	-0.709
734	-0.694
735	-0.691
735	-0.694
736	-0.704
736	-0.69
737	-0.684
737	-0.686
737	-0.698
738	-0.692
738	-0.689
739	-0.687
739	-0.701
740	-0.702
740	-0.702
741	-0.697
741	-0.697
741	-0.7
742	-0.695
742	-0.695
743	-0.703
743	-0.707
744	-0.704
744	-0.696
744	-0.696
745	-0.701
745	-0.694
746	-0.695
746	-0.692
747	-0.695
747	-0.682
748	-0.67
748	-0.678
748	-0.68
749	-0.677
749	-0.678
750	-0.668
750	-0.669
751	-0.673
751	-0.682
751	-0.685
752	-0.69
752	-0.698
753	-0.691
753	-0.686
754	-0.692
754	-0.687
754	-0.701
755	-0.718
755	-0.727
756	-0.718
756	-0.714
757	-0.713
757	-0.711
758	-0.714
758	-0.711
758	-0.715
759	-0.723
759	-0.705
760	-0.696
760	-0.693
761	-0.703
761	-0.7
761	-0.699
762	-0.705
762	-0.703
763	-0.714
763	-0.709
764	-0.705
764	-0.715
764	-0.723
765	-0.712
765	-0.697
766	-0.703
766	-0.709
767	-0.723
767	-0.717
768	-0.707
768	-0.717
768	-0.723
769	-0.74
769	-0.741
770	-0.745
770	-0.759
771	-0.757
771	-0.759
771	-0.76
772	-0.764
772	-0.763
773	-0.763
773	-0.758
774	-0.755
774	-0.756
775	-0.759
775	-0.754
775	-0.76
776	-0.761
776	-0.751
777	-0.759
777	-0.777
778	-0.772
778	-0.791
778	-0.778
779	-0.8
779	-0.807
780	-0.819
780	-0.819
781	-0.831
781	-0.827
781	-0.844
782	-0.846
782	-0.85
783	-0.835
783	-0.835
784	-0.817
784	-0.809
784	-0.82
785	-0.827
785	-0.81
786	-0.815
786	-0.791
787	-0.777
787	-0.778
788	-0.781
788	-0.789
788	-0.798
789	-0.797
789	-0.778
790	-0.758
790	-0.76
791	-0.761
791	-0.778
791	-0.786
792	-0.779
792	-0.756
793	-0.748
793	-0.724
794	-0.73
794	-0.722
794	-0.733
795	-0.728
795	-0.721
796	-0.706
796	-0.713
797	-0.707
797	-0.719
797	-0.727
798	-0.743
798	-0.735
799	-0.745
799	-0.73
800	-0.738
800	-0.733
801	-0.737
801	-0.724
801	-0.733
802	-0.741
802	-0.739
803	-0.737
803	-0.747
804	-0.742
804	-0.752
804	-0.739
805	-0.742
805	-0.732
806	-0.732
806	-0.718
807	-0.716
807	-0.697
807	-0.686
808	-0.678
808	-0.674
809	-0.659
809	-0.666
810	-0.664
810	-0.655
810	-0.654
811	-0.66
811	-0.652
812	-0.654
812	-0.659
813	-0.662
813	-0.658
813	-0.665
814	-0.668
814	-0.675
815	-0.681
815	-0.683
816	-0.674
816	-0.678
817	-0.685
817	-0.703
817	-0.717
818	-0.725
818	-0.728
819	-0.719
819	-0.719
820	-0.728
820	-0.726
820	-0.738
821	-0.736
821	-0.725
822	-0.693
822	-0.669
823	-0.664
823	-0.667
823	-0.661
824	-0.655
824	-0.656
825	-0.648
825	-0.63
826	-0.627
826	-0.634
826	-0.644
827	-0.64
827	-0.637
828	-0.614
828	-0.617
829	-0.607
829	-0.591
829	-0.585
830	-0.59
830	-0.585
831	-0.577
831	-0.566
832	-0.564
832	-0.556
832	-0.564
833	-0.558
833	-0.56
834	-0.56
834	-0.567
835	-0.557
835	-0.551
835	-0.547
836	-0.545
836	-0.54
837	-0.537
837	-0.527
838	-0.517
838	-0.503
839	-0.489
839	-0.475
839	-0.466
840	-0.456
840	-0.452
841	-0.44
841	-0.432
842	-0.427
842	-0.419
842	-0.414
843	-0.406
843	-0.403
844	-0.394
844	-0.387
845	-0.378
845	-0.367
845	-0.353
846	-0.343
846	-0.327
847	-0.314
847	-0.302
848	-0.292
848	-0.281
848	-0.265
849	-0.253
849	-0.24
850	-0.225
850	-0.22
851	-0.209
851	-0.199
851	-0.188
852	-0.171
852	-0.159
853	-0.149
853	-0.142
854	-0.13
854	-0.118
854	-0.106
855	-0.094
855	-0.087
856	-0.076
856	-0.067
857	-0.059
857	-0.05
857	-0.037
858	-0.025
858	-0.018
859	-0.009
859	0.003
860	0.013
860	0.028
860	0.037
861	0.047
861	0.055
862	0.062
862	0.07
863	0.077
863	0.086
863	0.093
864	0.097
864	0.103
865	0.109
865	0.113
866	0.117
866	0.121
866	0.124
867	0.128
867	0.132
868	0.134
868	0.138
869	0.142
869	0.145
869	0.147
870	0.149
870	0.152
871	0.154
871	0.156
872	0.157
872	0.158
872	0.158
873	0.159
873	0.159
874	0.159
874	0.158
875	0.157
875	0.156
875	0.154
876	0.153
876	0.151
877	0.15
877	0.148
878	0.146
878	0.144
878	0.142
879	0.14
879	0.138
880	0.138
880	0.137
881	0.137
881	0.137
881	0.137
882	0.137
882	0.136
883	0.135
883	0.135
884	0.134
884	0.134
884	0.133
885	0.133
885	0.132
886	0.132
886	0.132
887	0.132
887	0.132
887	0.131
888	0.132
888	0.132
889	0.132
889	0.132
890	0.132
890	0.132
890	0.132
891	0.132
891	0.132
892	0.132
892	0.132
893	0.132
893	0.132
893	0.132
894	0.132
894	0.131
895	0.131
895	0.131
895	0.13
896	0.129
896	0.128
897	0.127
897	0.125
898	0.124
898	0.123
898	0.122
899	0.122
899	0.122
900	0.122
900	0.122
901	0.123
901	0.123
901	0.124
902	0.125
902	0.126
903	0.127
903	0.127
904	0.128
904	0.128
904	0.129
905	0.13
905	0.13
906	0.13
906	0.13
907	0.13
907	0.13
907	0.13
908	0.13
908	0.13
909	0.13
909	0.13
910	0.129
910	0.129
910	0.129
911	0.129
911	0.13
912	0.13
912	0.13
913	0.13
913	0.13
913	0.131
914	0.131
914	0.131
915	0.131
915	0.131
916	0.131
916	0.131
916	0.131
917	0.131
917	0.131
918	0.13
918	0.129
918	0.129
919	0.128
919	0.128
920	0.128
920	0.127
921	0.127
921	0.127
921	0.126
922	0.126
922	0.125
923	0.125
923	0.125
924	0.125
924	0.124
924	0.124
925	0.123
925	0.123
926	0.122
926	0.121
927	0.121
927	0.121
927	0.121
928	0.12
928	0.12
929	0.12
929	0.12
930	0.119
930	0.119
930	0.119
931	0.119
931	0.119
932	0.119
932	0.118
933	0.118
933	0.117
933	0.116
934	0.114
934	0.113
935	0.112
935	0.111
935	0.11
936	0.109
936	0.108
937	0.107
937	0.106
938	0.106
938	0.107
938	0.107
939	0.107
939	0.108
940	0.109
940	0.109
941	0.109
941	0.11
941	0.111
942	0.111
942	0.112
943	0.112
943	0.112
944	0.112
944	0.111
944	0.111
945	0.11
945	0.109
946	0.107
946	0.106
946	0.104
947	0.103
947	0.102
948	0.101
948	0.1
949	0.099
949	0.099
949	0.099
950	0.1
950	0.1
951	0.1
951	0.1
952	0.101
952	0.102
952	0.102
953	0.103
953	0.104
954	0.104
954	0.104
955	0.105
955	0.107
955	0.107
956	0.108
956	0.109
957	0.109
957	0.109
957	0.11
958	0.11
958	0.111
959	0.112
959	0.113
960	0.113
960	0.114
960	0.114
961	0.115
961	0.116
962	0.116
962	0.116
963	0.116
963	0.116
963	0.115
964	0.115
964	0.115
965	0.115
965	0.114
966	0.114
966	0.113
966	0.113
967	0.113
967	0.112
968	0.112
968	0.111
968	0.111
969	0.11
969	0.11
970	0.11
970	0.109
971	0.109
971	0.11
971	0.109
972	0.109
972	0.11
973	0.11
973	0.109
974	0.109
974	0.109
974	0.11
975	0.109
975	0.109
976	0.109
976	0.109
976	0.109
977	0.108
977	0.108
978	0.109
978	0.109
979	0.108
979	0.108
979	0.108
980	0.107
980	0.107
981	0.107
981	0.107
982	0.106
982	0.106
982	0.106
983	0.106
983	0.106
984	0.107
984	0.107
984	0.107
985	0.108
985	0.108
986	0.108
986	0.108
987	0.108
987	0.108
987	0.107
988	0.107
988	0.106
989	0.105
989	0.104
990	0.104
990	0.103
990	0.102
991	0.101
991	0.101
992	0.101
992	0.1
992	0.1
993	0.1
993	0.1
994	0.1
994	0.1
995	0.099
995	0.099
995	0.099
996	0.099
996	0.098
997	0.098
997	0.098
997	0.097
998	0.097
998	0.097
999	0.097
999	0.097
1000	0.097
1000	0.097
1000	0.097
1001	0.097
1001	0.097
1002	0.096
1002	0.096
1003	0.095
1003	0.095
1003	0.094
1004	0.093
1004	0.093
1005	0.092
1005	0.091
1005	0.089
1006	0.088
1006	0.087
1007	0.086
1007	0.085
1008	0.084
1008	0.083
1008	0.083
1009	0.083
1009	0.083
1010	0.083
1010	0.083
1010	0.083
1011	0.083
1011	0.083
1012	0.083
1012	0.083
1013	0.082
1013	0.081
1013	0.08
1014	0.08
1014	0.078
1015	0.078
1015	0.077
1016	0.076
1016	0.075
1016	0.074
1017	0.073
1017	0.072
1018	0.072
1018	0.071
1018	0.071
1019	0.071
1019	0.07
1020	0.069
1020	0.069
1021	0.068
1021	0.067
1021	0.067
1022	0.066
1022	0.066
1023	0.065
1023	0.064
1023	0.064
1024	0.064
1024	0.063
1025	0.063
1025	0.064
1026	0.064
1026	0.065
1026	0.065
1027	0.065
1027	0.066
1028	0.067
1028	0.067
1028	0.067
1029	0.067
1029	0.067
1030	0.066
1030	0.065
1031	0.065
1031	0.064
1031	0.064
1032	0.064
1032	0.063
1033	0.063
1033	0.063
1033	0.063
1034	0.063
1034	0.063
1035	0.063
1035	0.063
1036	0.063
1036	0.063
1036	0.063
1037	0.063
1037	0.063
1038	0.063
1038	0.063
1039	0.063
1039	0.064
1039	0.064
1040	0.065
1040	0.065
1041	0.066
1041	0.066
1041	0.067
1042	0.067
1042	0.067
1043	0.067
1043	0.067
1044	0.067
1044	0.066
1044	0.066
1045	0.065
1045	0.065
1046	0.065
1046	0.064
1046	0.064
1047	0.064
1047	0.065
1048	0.065
1048	0.065
1049	0.065
1049	0.066
1049	0.066
1050	0.066
1050	0.067
1051	0.067
1051	0.067
1051	0.067
1052	0.068
1052	0.067
1053	0.067
1053	0.067
1053	0.067
1054	0.066
1054	0.066
1055	0.065
1055	0.065
1056	0.064
1056	0.062
1056	0.061
1057	0.06
1057	0.06
1058	0.059
1058	0.058
1058	0.057
1059	0.056
1059	0.055
1060	0.055
1060	0.054
1061	0.054
1061	0.054
1061	0.054
1062	0.054
1062	0.054
1063	0.054
1063	0.054
1063	0.055
1064	0.055
1064	0.055
1065	0.056
1065	0.056
1066	0.055
1066	0.055
1066	0.055
1067	0.055
1067	0.055
1068	0.054
1068	0.053
1068	0.052
1069	0.052
1069	0.051
1070	0.05
1070	0.05
1071	0.049
1071	0.049
1071	0.048
1072	0.048
1072	0.047
1073	0.047
1073	0.047
1073	0.047
1074	0.047
1074	0.048
1075	0.048
1075	0.047
1076	0.046
1076	0.047
1076	0.046
1077	0.046
1077	0.045
1078	0.044
1078	0.044
1078	0.043
1079	0.042
1079	0.042
1080	0.041
1080	0.041
1080	0.04
1081	0.039
1081	0.038
1082	0.038
1082	0.036
1083	0.035
1083	0.035
1083	0.033
1084	0.032
1084	0.031
1085	0.03
1085	0.029
1085	0.029
1086	0.028
1086	0.027
1087	0.027
1087	0.027
1088	0.026
1088	0.026
1088	0.025
1089	0.024
1089	0.023
1090	0.022
1090	0.022
1090	0.02
1091	0.02
1091	0.019
1092	0.018
1092	0.019
1092	0.017
1093	0.016
1093	0.016
1094	0.016
1094	0.015
1095	0.013
1095	0.013
1095	0.012
1096	0.011
1096	0.01
1097	0.009
1097	0.008
1097	0.008
1098	0.006
1098	0.004
1099	0.003
1099	0.003
1100	0.001
1100	-0
1100	-0.002
1101	-0.005
1101	-0.007
1102	-0.009
1102	-0.012
1102	-0.013
1103	-0.014
1103	-0.017
1104	-0.02
1104	-0.022
1104	-0.025
1105	-0.027
1105	-0.031
1106	-0.035
1106	-0.037
1107	-0.041
1107	-0.046
1107	-0.051
1108	-0.052
1108	-0.055
1109	-0.058
1109	-0.062
1109	-0.065
1110	-0.066
1110	-0.069
1111	-0.075
1111	-0.072
