Data from 17C_3.1A_35min_2sec_int_Absorbance__653__03056.txt Node

Date: Mon Jun 19 18:42:02 CEST 2023
User: Marek
Spectrometer: MAYP115816
Trigger mode: 0
Integration Time (sec): 2.500000E-1
Scans to average: 10
Electric dark correction enabled: true
Nonlinearity correction enabled: true
Boxcar width: 5
XAxis mode: Wavelengths
Number of Pixels in Spectrum: 2068
>>>>>Begin Spectral Data<<<<<
199	-0.738
199	-0.756
200	-0.657
200	-0.607
201	-0.573
201	-0.561
202	-0.545
202	-0.531
203	-0.523
203	-0.519
204	-0.505
204	-0.492
205	-0.467
205	-0.463
205	-0.459
206	-0.463
206	-0.465
207	-0.455
207	-0.458
208	-0.459
208	-0.457
209	-0.453
209	-0.455
210	-0.461
210	-0.467
211	-0.468
211	-0.468
212	-0.471
212	-0.478
213	-0.475
213	-0.475
213	-0.48
214	-0.478
214	-0.475
215	-0.475
215	-0.479
216	-0.484
216	-0.491
217	-0.487
217	-0.492
218	-0.496
218	-0.498
219	-0.501
219	-0.511
220	-0.518
220	-0.526
221	-0.523
221	-0.526
221	-0.519
222	-0.514
222	-0.515
223	-0.517
223	-0.518
224	-0.523
224	-0.523
225	-0.518
225	-0.514
226	-0.521
226	-0.519
227	-0.526
227	-0.536
228	-0.538
228	-0.541
229	-0.543
229	-0.535
229	-0.529
230	-0.53
230	-0.532
231	-0.525
231	-0.518
232	-0.512
232	-0.511
233	-0.505
233	-0.504
234	-0.503
234	-0.503
235	-0.506
235	-0.512
236	-0.509
236	-0.513
236	-0.519
237	-0.523
237	-0.525
238	-0.533
238	-0.531
239	-0.529
239	-0.535
240	-0.535
240	-0.534
241	-0.54
241	-0.54
242	-0.545
242	-0.543
243	-0.537
243	-0.538
243	-0.545
244	-0.547
244	-0.547
245	-0.562
245	-0.563
246	-0.568
246	-0.574
247	-0.575
247	-0.58
248	-0.586
248	-0.582
249	-0.585
249	-0.594
250	-0.592
250	-0.589
250	-0.589
251	-0.585
251	-0.585
252	-0.588
252	-0.576
253	-0.582
253	-0.593
254	-0.592
254	-0.588
255	-0.595
255	-0.589
256	-0.585
256	-0.595
257	-0.592
257	-0.59
258	-0.609
258	-0.605
258	-0.602
259	-0.599
259	-0.609
260	-0.609
260	-0.612
261	-0.625
261	-0.617
262	-0.617
262	-0.617
263	-0.604
263	-0.601
264	-0.601
264	-0.61
265	-0.605
265	-0.611
265	-0.616
266	-0.614
266	-0.611
267	-0.623
267	-0.632
268	-0.648
268	-0.656
269	-0.653
269	-0.646
270	-0.65
270	-0.652
271	-0.652
271	-0.656
272	-0.66
272	-0.656
272	-0.646
273	-0.646
273	-0.655
274	-0.66
274	-0.665
275	-0.667
275	-0.662
276	-0.669
276	-0.661
277	-0.665
277	-0.683
278	-0.695
278	-0.69
278	-0.683
279	-0.687
279	-0.698
280	-0.693
280	-0.695
281	-0.687
281	-0.694
282	-0.687
282	-0.685
283	-0.673
283	-0.676
284	-0.671
284	-0.661
285	-0.655
285	-0.654
285	-0.649
286	-0.656
286	-0.652
287	-0.649
287	-0.635
288	-0.629
288	-0.637
289	-0.651
289	-0.661
290	-0.652
290	-0.653
291	-0.651
291	-0.644
292	-0.648
292	-0.653
292	-0.659
293	-0.664
293	-0.654
294	-0.641
294	-0.632
295	-0.628
295	-0.623
296	-0.619
296	-0.618
297	-0.611
297	-0.596
298	-0.586
298	-0.594
298	-0.581
299	-0.575
299	-0.577
300	-0.57
300	-0.565
301	-0.564
301	-0.563
302	-0.57
302	-0.578
303	-0.566
303	-0.552
304	-0.555
304	-0.553
305	-0.555
305	-0.555
305	-0.554
306	-0.537
306	-0.529
307	-0.517
307	-0.52
308	-0.533
308	-0.532
309	-0.536
309	-0.525
310	-0.512
310	-0.509
311	-0.501
311	-0.509
311	-0.505
312	-0.499
312	-0.494
313	-0.48
313	-0.482
314	-0.478
314	-0.481
315	-0.482
315	-0.481
316	-0.478
316	-0.471
317	-0.466
317	-0.463
318	-0.454
318	-0.452
318	-0.447
319	-0.437
319	-0.433
320	-0.427
320	-0.429
321	-0.434
321	-0.432
322	-0.425
322	-0.42
323	-0.422
323	-0.417
324	-0.41
324	-0.402
324	-0.393
325	-0.385
325	-0.368
326	-0.352
326	-0.335
327	-0.32
327	-0.3
328	-0.275
328	-0.253
329	-0.231
329	-0.21
330	-0.185
330	-0.153
330	-0.127
331	-0.101
331	-0.075
332	-0.051
332	-0.028
333	-0.007
333	0.016
334	0.035
334	0.052
335	0.068
335	0.081
336	0.095
336	0.107
336	0.117
337	0.128
337	0.136
338	0.143
338	0.147
339	0.154
339	0.159
340	0.164
340	0.168
341	0.171
341	0.174
342	0.178
342	0.181
342	0.184
343	0.186
343	0.189
344	0.191
344	0.192
345	0.193
345	0.194
346	0.195
346	0.196
347	0.197
347	0.197
348	0.198
348	0.198
348	0.198
349	0.198
349	0.199
350	0.199
350	0.199
351	0.199
351	0.2
352	0.199
352	0.2
353	0.2
353	0.2
354	0.2
354	0.2
354	0.199
355	0.199
355	0.199
356	0.199
356	0.199
357	0.198
357	0.198
358	0.198
358	0.198
359	0.197
359	0.197
360	0.197
360	0.197
360	0.197
361	0.197
361	0.197
362	0.197
362	0.197
363	0.197
363	0.197
364	0.197
364	0.197
365	0.197
365	0.197
366	0.197
366	0.197
366	0.197
367	0.197
367	0.197
368	0.197
368	0.197
369	0.197
369	0.197
370	0.197
370	0.197
371	0.197
371	0.197
372	0.196
372	0.196
372	0.196
373	0.196
373	0.197
374	0.196
374	0.197
375	0.196
375	0.196
376	0.196
376	0.196
377	0.197
377	0.197
378	0.197
378	0.197
378	0.197
379	0.197
379	0.196
380	0.196
380	0.196
381	0.196
381	0.196
382	0.196
382	0.196
383	0.195
383	0.195
383	0.195
384	0.195
384	0.195
385	0.195
385	0.195
386	0.196
386	0.195
387	0.195
387	0.195
388	0.195
388	0.195
389	0.195
389	0.196
389	0.196
390	0.196
390	0.196
391	0.196
391	0.196
392	0.196
392	0.196
393	0.196
393	0.196
394	0.195
394	0.195
394	0.195
395	0.194
395	0.194
396	0.194
396	0.194
397	0.194
397	0.194
398	0.194
398	0.194
399	0.194
399	0.194
400	0.194
400	0.194
400	0.194
401	0.194
401	0.194
402	0.194
402	0.193
403	0.193
403	0.193
404	0.193
404	0.193
405	0.193
405	0.193
405	0.193
406	0.193
406	0.193
407	0.193
407	0.193
408	0.192
408	0.192
409	0.192
409	0.192
410	0.192
410	0.192
411	0.192
411	0.193
411	0.193
412	0.193
412	0.193
413	0.193
413	0.193
414	0.193
414	0.193
415	0.193
415	0.192
416	0.192
416	0.192
416	0.192
417	0.192
417	0.192
418	0.192
418	0.192
419	0.192
419	0.192
420	0.192
420	0.192
421	0.192
421	0.192
421	0.192
422	0.192
422	0.192
423	0.192
423	0.192
424	0.192
424	0.191
425	0.191
425	0.191
426	0.19
426	0.19
427	0.19
427	0.19
427	0.19
428	0.19
428	0.19
429	0.19
429	0.19
430	0.19
430	0.19
431	0.19
431	0.19
432	0.19
432	0.189
432	0.189
433	0.189
433	0.189
434	0.189
434	0.189
435	0.189
435	0.189
436	0.189
436	0.189
437	0.189
437	0.189
437	0.189
438	0.189
438	0.189
439	0.189
439	0.189
440	0.189
440	0.189
441	0.188
441	0.188
442	0.188
442	0.188
442	0.188
443	0.188
443	0.188
444	0.188
444	0.188
445	0.188
445	0.188
446	0.188
446	0.188
447	0.188
447	0.188
447	0.188
448	0.188
448	0.188
449	0.188
449	0.188
450	0.188
450	0.188
451	0.188
451	0.188
452	0.188
452	0.188
452	0.188
453	0.187
453	0.187
454	0.187
454	0.186
455	0.186
455	0.186
456	0.186
456	0.186
457	0.186
457	0.186
458	0.186
458	0.186
458	0.186
459	0.186
459	0.186
460	0.186
460	0.186
461	0.186
461	0.186
462	0.186
462	0.186
463	0.186
463	0.186
463	0.186
464	0.186
464	0.186
465	0.186
465	0.187
466	0.187
466	0.187
467	0.187
467	0.187
467	0.187
468	0.187
468	0.187
469	0.187
469	0.187
470	0.188
470	0.188
471	0.188
471	0.188
472	0.188
472	0.188
472	0.188
473	0.188
473	0.188
474	0.188
474	0.188
475	0.188
475	0.188
476	0.188
476	0.188
477	0.188
477	0.188
477	0.187
478	0.188
478	0.188
479	0.188
479	0.188
480	0.188
480	0.188
481	0.189
481	0.189
482	0.189
482	0.19
482	0.19
483	0.19
483	0.191
484	0.191
484	0.19
485	0.19
485	0.19
486	0.19
486	0.19
487	0.191
487	0.191
487	0.191
488	0.191
488	0.192
489	0.192
489	0.194
490	0.194
490	0.195
491	0.196
491	0.196
492	0.197
492	0.197
492	0.198
493	0.198
493	0.199
494	0.2
494	0.2
495	0.201
495	0.201
496	0.202
496	0.203
496	0.204
497	0.205
497	0.205
498	0.206
498	0.207
499	0.207
499	0.208
500	0.209
500	0.21
501	0.21
501	0.211
501	0.211
502	0.211
502	0.212
503	0.213
503	0.213
504	0.214
504	0.215
505	0.216
505	0.217
506	0.218
506	0.219
506	0.219
507	0.22
507	0.22
508	0.221
508	0.222
509	0.223
509	0.224
510	0.225
510	0.225
511	0.226
511	0.227
511	0.228
512	0.229
512	0.23
513	0.231
513	0.232
514	0.233
514	0.234
515	0.235
515	0.236
515	0.236
516	0.237
516	0.238
517	0.239
517	0.24
518	0.241
518	0.241
519	0.242
519	0.242
520	0.243
520	0.244
520	0.245
521	0.246
521	0.247
522	0.248
522	0.249
523	0.25
523	0.251
524	0.251
524	0.252
524	0.253
525	0.253
525	0.253
526	0.254
526	0.255
527	0.255
527	0.256
528	0.256
528	0.257
529	0.258
529	0.259
529	0.259
530	0.26
530	0.261
531	0.262
531	0.262
532	0.263
532	0.264
533	0.264
533	0.265
533	0.265
534	0.265
534	0.266
535	0.266
535	0.266
536	0.266
536	0.266
537	0.266
537	0.266
538	0.267
538	0.267
538	0.267
539	0.268
539	0.269
540	0.269
540	0.269
541	0.27
541	0.27
542	0.271
542	0.271
542	0.271
543	0.271
543	0.272
544	0.272
544	0.272
545	0.273
545	0.273
546	0.274
546	0.274
547	0.273
547	0.274
547	0.274
548	0.275
548	0.275
549	0.275
549	0.275
550	0.275
550	0.276
551	0.276
551	0.277
551	0.278
552	0.279
552	0.28
553	0.281
553	0.282
554	0.282
554	0.282
555	0.282
555	0.283
556	0.283
556	0.283
556	0.283
557	0.283
557	0.283
558	0.283
558	0.283
559	0.282
559	0.282
560	0.282
560	0.282
560	0.282
561	0.282
561	0.282
562	0.282
562	0.282
563	0.282
563	0.282
564	0.282
564	0.282
564	0.283
565	0.283
565	0.284
566	0.284
566	0.284
567	0.285
567	0.285
568	0.285
568	0.285
568	0.285
569	0.285
569	0.285
570	0.284
570	0.283
571	0.283
571	0.283
572	0.283
572	0.283
573	0.282
573	0.282
573	0.282
574	0.282
574	0.282
575	0.282
575	0.284
576	0.284
576	0.283
577	0.283
577	0.284
577	0.285
578	0.285
578	0.286
579	0.287
579	0.288
580	0.287
580	0.286
581	0.286
581	0.286
581	0.287
582	0.287
582	0.287
583	0.287
583	0.287
584	0.285
584	0.284
585	0.285
585	0.286
585	0.286
586	0.287
586	0.287
587	0.286
587	0.286
588	0.286
588	0.286
589	0.287
589	0.287
590	0.287
590	0.288
590	0.289
591	0.29
591	0.29
592	0.289
592	0.289
593	0.289
593	0.289
594	0.289
594	0.288
594	0.289
595	0.289
595	0.288
596	0.289
596	0.29
597	0.291
597	0.291
598	0.291
598	0.291
598	0.291
599	0.291
599	0.29
600	0.289
600	0.289
601	0.288
601	0.288
602	0.287
602	0.287
602	0.287
603	0.287
603	0.289
604	0.289
604	0.29
605	0.291
605	0.292
606	0.291
606	0.291
606	0.291
607	0.291
607	0.291
608	0.29
608	0.289
609	0.289
609	0.289
610	0.289
610	0.289
610	0.29
611	0.291
611	0.292
612	0.293
612	0.294
613	0.295
613	0.295
614	0.294
614	0.293
614	0.293
615	0.292
615	0.291
616	0.291
616	0.29
617	0.289
617	0.288
618	0.287
618	0.287
618	0.287
619	0.287
619	0.287
620	0.288
620	0.287
621	0.287
621	0.287
622	0.287
622	0.287
622	0.286
623	0.286
623	0.287
624	0.286
624	0.286
625	0.285
625	0.285
626	0.285
626	0.284
626	0.284
627	0.283
627	0.282
628	0.281
628	0.28
629	0.279
629	0.277
630	0.276
630	0.274
630	0.273
631	0.271
631	0.269
632	0.267
632	0.265
633	0.262
633	0.26
634	0.258
634	0.256
634	0.253
635	0.25
635	0.247
636	0.244
636	0.241
637	0.237
637	0.233
638	0.229
638	0.225
638	0.221
639	0.216
639	0.211
640	0.206
640	0.201
641	0.196
641	0.191
642	0.186
642	0.181
642	0.176
643	0.171
643	0.165
644	0.158
644	0.152
645	0.145
645	0.139
646	0.132
646	0.125
646	0.118
647	0.111
647	0.103
648	0.096
648	0.088
649	0.08
649	0.072
650	0.065
650	0.056
650	0.047
651	0.036
651	0.022
652	0.006
652	-0.01
653	-0.024
653	-0.037
653	-0.034
654	-0.013
654	-0.002
655	-0.006
655	-0.012
656	-0.018
656	-0.024
657	-0.028
657	-0.032
657	-0.039
658	-0.046
658	-0.076
659	-0.163
659	-0.264
660	-0.309
660	-0.337
661	-0.364
661	-0.395
661	-0.429
662	-0.462
662	-0.496
663	-0.534
663	-0.576
664	-0.619
664	-0.67
665	-0.72
665	-0.777
665	-0.831
666	-0.887
666	-0.948
667	-1.012
667	-1.076
668	-1.147
668	-1.22
669	-1.293
669	-1.365
669	-1.442
670	-1.508
670	-1.532
671	-1.657
671	-1.954
672	-2.189
672	-2.383
672	-2.515
673	-2.608
673	-2.689
674	-2.735
674	-2.754
675	-2.78
675	-2.921
676	-3.119
676	-3.071
676	-2.848
677	-2.644
677	-2.483
678	-2.309
678	-2.017
679	-1.712
679	-1.57
680	-1.475
680	-1.392
680	-1.322
681	-1.278
681	-1.22
682	-1.182
682	-1.146
683	-1.111
683	-1.095
684	-1.074
684	-1.056
684	-1.036
685	-1.012
685	-0.991
686	-0.966
686	-0.951
687	-0.926
687	-0.915
687	-0.896
688	-0.871
688	-0.853
689	-0.833
689	-0.818
690	-0.8
690	-0.787
691	-0.783
691	-0.789
691	-0.805
692	-0.798
692	-0.789
693	-0.785
693	-0.791
694	-0.787
694	-0.782
695	-0.786
695	-0.785
695	-0.771
696	-0.766
696	-0.743
697	-0.742
697	-0.757
698	-0.76
698	-0.75
698	-0.763
699	-0.766
699	-0.764
700	-0.756
700	-0.771
701	-0.769
701	-0.778
702	-0.778
702	-0.767
702	-0.761
703	-0.753
703	-0.745
704	-0.74
704	-0.74
705	-0.751
705	-0.744
705	-0.734
706	-0.734
706	-0.728
707	-0.733
707	-0.727
708	-0.727
708	-0.72
709	-0.724
709	-0.728
709	-0.719
710	-0.726
710	-0.735
711	-0.728
711	-0.731
712	-0.731
712	-0.746
713	-0.745
713	-0.752
713	-0.744
714	-0.74
714	-0.742
715	-0.732
715	-0.719
716	-0.725
716	-0.726
716	-0.717
717	-0.717
717	-0.718
718	-0.707
718	-0.707
719	-0.713
719	-0.714
720	-0.712
720	-0.721
720	-0.715
721	-0.705
721	-0.706
722	-0.694
722	-0.684
723	-0.686
723	-0.69
723	-0.677
724	-0.68
724	-0.684
725	-0.681
725	-0.689
726	-0.699
726	-0.706
727	-0.711
727	-0.725
727	-0.73
728	-0.728
728	-0.735
729	-0.733
729	-0.738
730	-0.746
730	-0.742
730	-0.733
731	-0.714
731	-0.724
732	-0.73
732	-0.73
733	-0.732
733	-0.737
734	-0.731
734	-0.73
734	-0.717
735	-0.715
735	-0.716
736	-0.726
736	-0.711
737	-0.702
737	-0.703
737	-0.712
738	-0.708
738	-0.707
739	-0.707
739	-0.72
740	-0.72
740	-0.72
741	-0.718
741	-0.719
741	-0.722
742	-0.721
742	-0.721
743	-0.728
743	-0.733
744	-0.729
744	-0.719
744	-0.72
745	-0.725
745	-0.717
746	-0.719
746	-0.714
747	-0.714
747	-0.701
748	-0.689
748	-0.696
748	-0.7
749	-0.698
749	-0.699
750	-0.69
750	-0.691
751	-0.693
751	-0.703
751	-0.706
752	-0.712
752	-0.722
753	-0.716
753	-0.711
754	-0.716
754	-0.709
754	-0.723
755	-0.738
755	-0.749
756	-0.74
756	-0.736
757	-0.733
757	-0.727
758	-0.728
758	-0.725
758	-0.727
759	-0.736
759	-0.718
760	-0.712
760	-0.708
761	-0.718
761	-0.716
761	-0.717
762	-0.726
762	-0.725
763	-0.734
763	-0.733
764	-0.73
764	-0.738
764	-0.744
765	-0.736
765	-0.721
766	-0.73
766	-0.736
767	-0.75
767	-0.743
768	-0.735
768	-0.743
768	-0.75
769	-0.768
769	-0.768
770	-0.773
770	-0.788
771	-0.785
771	-0.787
771	-0.787
772	-0.792
772	-0.789
773	-0.789
773	-0.783
774	-0.78
774	-0.782
775	-0.782
775	-0.775
775	-0.782
776	-0.783
776	-0.773
777	-0.782
777	-0.804
778	-0.803
778	-0.821
778	-0.807
779	-0.829
779	-0.835
780	-0.849
780	-0.849
781	-0.862
781	-0.857
781	-0.871
782	-0.871
782	-0.872
783	-0.859
783	-0.857
784	-0.838
784	-0.831
784	-0.84
785	-0.846
785	-0.831
786	-0.838
786	-0.816
787	-0.801
787	-0.802
788	-0.806
788	-0.819
788	-0.829
789	-0.829
789	-0.809
790	-0.791
790	-0.79
791	-0.79
791	-0.808
791	-0.813
792	-0.808
792	-0.784
793	-0.77
793	-0.747
794	-0.751
794	-0.742
794	-0.75
795	-0.748
795	-0.739
796	-0.722
796	-0.73
797	-0.724
797	-0.738
797	-0.743
798	-0.758
798	-0.753
799	-0.763
799	-0.749
800	-0.755
800	-0.747
801	-0.754
801	-0.74
801	-0.751
802	-0.756
802	-0.757
803	-0.759
803	-0.767
804	-0.762
804	-0.774
804	-0.76
805	-0.767
805	-0.754
806	-0.757
806	-0.739
807	-0.738
807	-0.72
807	-0.707
808	-0.7
808	-0.692
809	-0.677
809	-0.686
810	-0.683
810	-0.675
810	-0.672
811	-0.679
811	-0.672
812	-0.673
812	-0.675
813	-0.679
813	-0.677
813	-0.683
814	-0.686
814	-0.69
815	-0.694
815	-0.697
816	-0.689
816	-0.693
817	-0.701
817	-0.72
817	-0.734
818	-0.741
818	-0.744
819	-0.734
819	-0.738
820	-0.751
820	-0.747
820	-0.759
821	-0.755
821	-0.741
822	-0.708
822	-0.683
823	-0.682
823	-0.684
823	-0.682
824	-0.676
824	-0.675
825	-0.669
825	-0.649
826	-0.644
826	-0.652
826	-0.664
827	-0.66
827	-0.655
828	-0.632
828	-0.632
829	-0.621
829	-0.605
829	-0.597
830	-0.607
830	-0.601
831	-0.594
831	-0.583
832	-0.581
832	-0.573
832	-0.584
833	-0.577
833	-0.579
834	-0.577
834	-0.585
835	-0.575
835	-0.572
835	-0.568
836	-0.565
836	-0.56
837	-0.556
837	-0.544
838	-0.537
838	-0.524
839	-0.511
839	-0.5
839	-0.489
840	-0.477
840	-0.474
841	-0.46
841	-0.451
842	-0.448
842	-0.436
842	-0.428
843	-0.422
843	-0.419
844	-0.408
844	-0.399
845	-0.392
845	-0.381
845	-0.368
846	-0.358
846	-0.34
847	-0.33
847	-0.32
848	-0.306
848	-0.295
848	-0.279
849	-0.267
849	-0.254
850	-0.241
850	-0.234
851	-0.224
851	-0.213
851	-0.203
852	-0.186
852	-0.172
853	-0.162
853	-0.154
854	-0.142
854	-0.128
854	-0.117
855	-0.104
855	-0.095
856	-0.085
856	-0.075
857	-0.068
857	-0.059
857	-0.046
858	-0.034
858	-0.026
859	-0.017
859	-0.005
860	0.005
860	0.019
860	0.028
861	0.037
861	0.047
862	0.055
862	0.062
863	0.069
863	0.078
863	0.085
864	0.09
864	0.096
865	0.102
865	0.107
866	0.112
866	0.115
866	0.119
867	0.123
867	0.127
868	0.13
868	0.134
869	0.138
869	0.14
869	0.143
870	0.145
870	0.147
871	0.15
871	0.152
872	0.153
872	0.154
872	0.155
873	0.155
873	0.155
874	0.155
874	0.154
875	0.153
875	0.152
875	0.15
876	0.149
876	0.148
877	0.146
877	0.144
878	0.142
878	0.14
878	0.138
879	0.137
879	0.136
880	0.135
880	0.135
881	0.134
881	0.135
881	0.135
882	0.134
882	0.133
883	0.132
883	0.13
884	0.129
884	0.128
884	0.128
885	0.127
885	0.127
886	0.126
886	0.126
887	0.125
887	0.126
887	0.126
888	0.126
888	0.127
889	0.127
889	0.127
890	0.127
890	0.128
890	0.128
891	0.128
891	0.128
892	0.128
892	0.128
893	0.128
893	0.127
893	0.127
894	0.127
894	0.127
895	0.126
895	0.126
895	0.126
896	0.125
896	0.124
897	0.122
897	0.121
898	0.12
898	0.119
898	0.118
899	0.118
899	0.118
900	0.118
900	0.118
901	0.119
901	0.119
901	0.12
902	0.121
902	0.122
903	0.123
903	0.123
904	0.124
904	0.124
904	0.125
905	0.125
905	0.126
906	0.126
906	0.126
907	0.126
907	0.126
907	0.126
908	0.126
908	0.126
909	0.125
909	0.125
910	0.125
910	0.124
910	0.124
911	0.124
911	0.124
912	0.125
912	0.125
913	0.125
913	0.126
913	0.126
914	0.127
914	0.127
915	0.127
915	0.128
916	0.128
916	0.128
916	0.128
917	0.128
917	0.128
918	0.128
918	0.128
918	0.127
919	0.126
919	0.126
920	0.126
920	0.126
921	0.125
921	0.125
921	0.124
922	0.124
922	0.124
923	0.123
923	0.123
924	0.123
924	0.123
924	0.122
925	0.121
925	0.12
926	0.12
926	0.119
927	0.119
927	0.118
927	0.118
928	0.118
928	0.117
929	0.117
929	0.117
930	0.116
930	0.116
930	0.116
931	0.116
931	0.116
932	0.116
932	0.115
933	0.114
933	0.113
933	0.112
934	0.111
934	0.11
935	0.109
935	0.108
935	0.107
936	0.106
936	0.104
937	0.103
937	0.103
938	0.103
938	0.103
938	0.103
939	0.103
939	0.103
940	0.103
940	0.103
941	0.104
941	0.104
941	0.105
942	0.105
942	0.106
943	0.106
943	0.106
944	0.106
944	0.105
944	0.104
945	0.103
945	0.102
946	0.101
946	0.099
946	0.098
947	0.096
947	0.095
948	0.095
948	0.094
949	0.094
949	0.094
949	0.094
950	0.095
950	0.095
951	0.096
951	0.096
952	0.096
952	0.097
952	0.098
953	0.098
953	0.099
954	0.099
954	0.1
955	0.101
955	0.102
955	0.103
956	0.104
956	0.105
957	0.105
957	0.105
957	0.106
958	0.106
958	0.107
959	0.108
959	0.108
960	0.109
960	0.11
960	0.111
961	0.111
961	0.111
962	0.112
962	0.112
963	0.113
963	0.112
963	0.112
964	0.112
964	0.112
965	0.111
965	0.11
966	0.11
966	0.11
966	0.109
967	0.109
967	0.108
968	0.107
968	0.107
968	0.106
969	0.106
969	0.105
970	0.105
970	0.105
971	0.105
971	0.105
971	0.105
972	0.105
972	0.106
973	0.106
973	0.106
974	0.106
974	0.106
974	0.106
975	0.106
975	0.106
976	0.105
976	0.105
976	0.105
977	0.105
977	0.105
978	0.105
978	0.105
979	0.105
979	0.104
979	0.104
980	0.104
980	0.104
981	0.103
981	0.103
982	0.103
982	0.103
982	0.102
983	0.102
983	0.102
984	0.102
984	0.102
984	0.103
985	0.102
985	0.102
986	0.102
986	0.102
987	0.102
987	0.101
987	0.101
988	0.1
988	0.1
989	0.099
989	0.098
990	0.097
990	0.097
990	0.096
991	0.096
991	0.095
992	0.095
992	0.095
992	0.094
993	0.094
993	0.094
994	0.094
994	0.094
995	0.094
995	0.093
995	0.093
996	0.093
996	0.092
997	0.091
997	0.091
997	0.091
998	0.091
998	0.091
999	0.092
999	0.092
1000	0.092
1000	0.091
1000	0.091
1001	0.092
1001	0.092
1002	0.092
1002	0.092
1003	0.092
1003	0.091
1003	0.091
1004	0.09
1004	0.089
1005	0.089
1005	0.087
1005	0.086
1006	0.084
1006	0.083
1007	0.082
1007	0.081
1008	0.08
1008	0.079
1008	0.079
1009	0.079
1009	0.079
1010	0.079
1010	0.08
1010	0.08
1011	0.08
1011	0.08
1012	0.079
1012	0.079
1013	0.078
1013	0.077
1013	0.076
1014	0.075
1014	0.074
1015	0.073
1015	0.072
1016	0.071
1016	0.07
1016	0.07
1017	0.069
1017	0.068
1018	0.068
1018	0.067
1018	0.066
1019	0.066
1019	0.065
1020	0.064
1020	0.064
1021	0.063
1021	0.062
1021	0.062
1022	0.061
1022	0.06
1023	0.06
1023	0.059
1023	0.059
1024	0.059
1024	0.059
1025	0.059
1025	0.059
1026	0.059
1026	0.06
1026	0.06
1027	0.061
1027	0.062
1028	0.062
1028	0.062
1028	0.062
1029	0.062
1029	0.062
1030	0.061
1030	0.06
1031	0.06
1031	0.06
1031	0.059
1032	0.059
1032	0.059
1033	0.059
1033	0.059
1033	0.059
1034	0.059
1034	0.059
1035	0.059
1035	0.059
1036	0.059
1036	0.059
1036	0.059
1037	0.058
1037	0.059
1038	0.059
1038	0.059
1039	0.059
1039	0.06
1039	0.06
1040	0.061
1040	0.061
1041	0.062
1041	0.062
1041	0.063
1042	0.063
1042	0.063
1043	0.062
1043	0.062
1044	0.062
1044	0.061
1044	0.061
1045	0.06
1045	0.06
1046	0.059
1046	0.059
1046	0.059
1047	0.059
1047	0.059
1048	0.059
1048	0.059
1049	0.06
1049	0.06
1049	0.061
1050	0.061
1050	0.061
1051	0.061
1051	0.062
1051	0.062
1052	0.062
1052	0.062
1053	0.062
1053	0.062
1053	0.062
1054	0.061
1054	0.061
1055	0.061
1055	0.06
1056	0.059
1056	0.058
1056	0.057
1057	0.056
1057	0.055
1058	0.055
1058	0.054
1058	0.053
1059	0.052
1059	0.051
1060	0.051
1060	0.05
1061	0.05
1061	0.05
1061	0.05
1062	0.049
1062	0.049
1063	0.049
1063	0.049
1063	0.05
1064	0.05
1064	0.05
1065	0.05
1065	0.05
1066	0.049
1066	0.049
1066	0.049
1067	0.049
1067	0.048
1068	0.047
1068	0.047
1068	0.046
1069	0.046
1069	0.045
1070	0.044
1070	0.044
1071	0.043
1071	0.043
1071	0.042
1072	0.042
1072	0.042
1073	0.041
1073	0.041
1073	0.041
1074	0.042
1074	0.042
1075	0.042
1075	0.042
1076	0.041
1076	0.042
1076	0.041
1077	0.041
1077	0.041
1078	0.04
1078	0.039
1078	0.038
1079	0.037
1079	0.037
1080	0.036
1080	0.035
1080	0.034
1081	0.034
1081	0.033
1082	0.032
1082	0.031
1083	0.03
1083	0.029
1083	0.028
1084	0.027
1084	0.027
1085	0.025
1085	0.025
1085	0.024
1086	0.024
1086	0.023
1087	0.023
1087	0.023
1088	0.022
1088	0.021
1088	0.02
1089	0.019
1089	0.018
1090	0.016
1090	0.016
1090	0.014
1091	0.013
1091	0.013
1092	0.012
1092	0.012
1092	0.01
1093	0.01
1093	0.009
1094	0.009
1094	0.008
1095	0.006
1095	0.006
1095	0.006
1096	0.004
1096	0.004
1097	0.003
1097	0.001
1097	0.001
1098	-0.001
1098	-0.003
1099	-0.004
1099	-0.005
1100	-0.006
1100	-0.008
1100	-0.011
1101	-0.013
1101	-0.016
1102	-0.018
1102	-0.022
1102	-0.023
1103	-0.025
1103	-0.028
1104	-0.03
1104	-0.033
1104	-0.035
1105	-0.038
1105	-0.042
1106	-0.047
1106	-0.049
1107	-0.054
1107	-0.058
1107	-0.063
1108	-0.065
1108	-0.068
1109	-0.072
1109	-0.077
1109	-0.08
1110	-0.081
1110	-0.084
1111	-0.091
1111	-0.088
