Data from 17C_3.1A_35min_2sec_int_Absorbance__226__02629.txt Node

Date: Mon Jun 19 18:24:14 CEST 2023
User: Marek
Spectrometer: MAYP115816
Trigger mode: 0
Integration Time (sec): 2.500000E-1
Scans to average: 10
Electric dark correction enabled: true
Nonlinearity correction enabled: true
Boxcar width: 5
XAxis mode: Wavelengths
Number of Pixels in Spectrum: 2068
>>>>>Begin Spectral Data<<<<<
199	-0.758
199	-0.77
200	-0.675
200	-0.616
201	-0.578
201	-0.564
202	-0.548
202	-0.534
203	-0.526
203	-0.523
204	-0.51
204	-0.497
205	-0.472
205	-0.465
205	-0.465
206	-0.468
206	-0.472
207	-0.462
207	-0.464
208	-0.467
208	-0.465
209	-0.46
209	-0.458
210	-0.463
210	-0.468
211	-0.47
211	-0.471
212	-0.473
212	-0.481
213	-0.479
213	-0.479
213	-0.486
214	-0.483
214	-0.483
215	-0.482
215	-0.488
216	-0.491
216	-0.5
217	-0.495
217	-0.501
218	-0.505
218	-0.506
219	-0.508
219	-0.518
220	-0.521
220	-0.532
221	-0.53
221	-0.536
221	-0.528
222	-0.525
222	-0.524
223	-0.527
223	-0.529
224	-0.531
224	-0.53
225	-0.526
225	-0.521
226	-0.525
226	-0.522
227	-0.526
227	-0.534
228	-0.535
228	-0.536
229	-0.539
229	-0.533
229	-0.53
230	-0.534
230	-0.535
231	-0.533
231	-0.525
232	-0.521
232	-0.52
233	-0.517
233	-0.514
234	-0.512
234	-0.508
235	-0.51
235	-0.515
236	-0.514
236	-0.515
236	-0.52
237	-0.525
237	-0.529
238	-0.535
238	-0.536
239	-0.535
239	-0.544
240	-0.544
240	-0.543
241	-0.548
241	-0.546
242	-0.553
242	-0.55
243	-0.543
243	-0.545
243	-0.553
244	-0.551
244	-0.552
245	-0.565
245	-0.566
246	-0.57
246	-0.577
247	-0.58
247	-0.583
248	-0.591
248	-0.586
249	-0.588
249	-0.597
250	-0.597
250	-0.594
250	-0.593
251	-0.588
251	-0.587
252	-0.588
252	-0.579
253	-0.583
253	-0.597
254	-0.594
254	-0.591
255	-0.598
255	-0.59
256	-0.588
256	-0.599
257	-0.596
257	-0.595
258	-0.611
258	-0.607
258	-0.604
259	-0.6
259	-0.612
260	-0.611
260	-0.618
261	-0.63
261	-0.623
262	-0.619
262	-0.618
263	-0.607
263	-0.603
264	-0.601
264	-0.612
265	-0.607
265	-0.612
265	-0.613
266	-0.612
266	-0.61
267	-0.626
267	-0.637
268	-0.652
268	-0.659
269	-0.657
269	-0.649
270	-0.651
270	-0.654
271	-0.653
271	-0.656
272	-0.661
272	-0.653
272	-0.643
273	-0.642
273	-0.653
274	-0.659
274	-0.663
275	-0.667
275	-0.662
276	-0.67
276	-0.663
277	-0.665
277	-0.683
278	-0.696
278	-0.689
278	-0.682
279	-0.685
279	-0.697
280	-0.694
280	-0.692
281	-0.687
281	-0.695
282	-0.69
282	-0.692
283	-0.681
283	-0.685
284	-0.679
284	-0.668
285	-0.664
285	-0.662
285	-0.658
286	-0.663
286	-0.654
287	-0.649
287	-0.631
288	-0.623
288	-0.63
289	-0.643
289	-0.653
290	-0.642
290	-0.64
291	-0.637
291	-0.634
292	-0.638
292	-0.646
292	-0.651
293	-0.656
293	-0.645
294	-0.633
294	-0.623
295	-0.621
295	-0.616
296	-0.615
296	-0.611
297	-0.604
297	-0.586
298	-0.58
298	-0.589
298	-0.58
299	-0.573
299	-0.574
300	-0.571
300	-0.567
301	-0.564
301	-0.563
302	-0.572
302	-0.581
303	-0.568
303	-0.553
304	-0.554
304	-0.553
305	-0.555
305	-0.553
305	-0.551
306	-0.534
306	-0.527
307	-0.512
307	-0.514
308	-0.528
308	-0.526
309	-0.529
309	-0.52
310	-0.506
310	-0.503
311	-0.496
311	-0.505
311	-0.504
312	-0.501
312	-0.499
313	-0.484
313	-0.486
314	-0.482
314	-0.485
315	-0.486
315	-0.483
316	-0.479
316	-0.47
317	-0.46
317	-0.457
318	-0.445
318	-0.443
318	-0.44
319	-0.429
319	-0.426
320	-0.42
320	-0.423
321	-0.427
321	-0.425
322	-0.42
322	-0.414
323	-0.413
323	-0.408
324	-0.399
324	-0.391
324	-0.38
325	-0.369
325	-0.353
326	-0.338
326	-0.321
327	-0.305
327	-0.285
328	-0.261
328	-0.238
329	-0.214
329	-0.189
330	-0.162
330	-0.129
330	-0.1
331	-0.069
331	-0.041
332	-0.014
332	0.009
333	0.034
333	0.06
334	0.082
334	0.099
335	0.119
335	0.134
336	0.149
336	0.165
336	0.177
337	0.189
337	0.199
338	0.208
338	0.213
339	0.221
339	0.228
340	0.233
340	0.238
341	0.242
341	0.246
342	0.25
342	0.253
342	0.257
343	0.259
343	0.262
344	0.264
344	0.265
345	0.267
345	0.268
346	0.269
346	0.27
347	0.271
347	0.271
348	0.272
348	0.273
348	0.273
349	0.274
349	0.274
350	0.274
350	0.275
351	0.275
351	0.275
352	0.275
352	0.275
353	0.275
353	0.275
354	0.275
354	0.274
354	0.274
355	0.274
355	0.274
356	0.274
356	0.274
357	0.273
357	0.273
358	0.273
358	0.273
359	0.273
359	0.273
360	0.272
360	0.273
360	0.273
361	0.272
361	0.272
362	0.272
362	0.272
363	0.272
363	0.272
364	0.271
364	0.271
365	0.271
365	0.271
366	0.271
366	0.271
366	0.271
367	0.271
367	0.271
368	0.271
368	0.271
369	0.271
369	0.271
370	0.27
370	0.27
371	0.27
371	0.27
372	0.27
372	0.27
372	0.27
373	0.27
373	0.27
374	0.27
374	0.27
375	0.27
375	0.27
376	0.27
376	0.27
377	0.27
377	0.269
378	0.269
378	0.269
378	0.269
379	0.269
379	0.269
380	0.268
380	0.268
381	0.268
381	0.268
382	0.268
382	0.267
383	0.267
383	0.267
383	0.267
384	0.266
384	0.266
385	0.266
385	0.267
386	0.267
386	0.266
387	0.266
387	0.266
388	0.266
388	0.266
389	0.266
389	0.266
389	0.266
390	0.266
390	0.266
391	0.266
391	0.266
392	0.266
392	0.266
393	0.265
393	0.265
394	0.265
394	0.265
394	0.264
395	0.264
395	0.264
396	0.264
396	0.264
397	0.263
397	0.263
398	0.263
398	0.263
399	0.263
399	0.263
400	0.263
400	0.263
400	0.263
401	0.263
401	0.262
402	0.262
402	0.262
403	0.262
403	0.262
404	0.261
404	0.261
405	0.261
405	0.261
405	0.261
406	0.261
406	0.261
407	0.26
407	0.26
408	0.26
408	0.26
409	0.26
409	0.26
410	0.26
410	0.26
411	0.26
411	0.26
411	0.26
412	0.26
412	0.26
413	0.26
413	0.259
414	0.259
414	0.259
415	0.259
415	0.258
416	0.258
416	0.258
416	0.258
417	0.258
417	0.258
418	0.258
418	0.258
419	0.258
419	0.258
420	0.258
420	0.258
421	0.258
421	0.258
421	0.258
422	0.258
422	0.258
423	0.258
423	0.257
424	0.257
424	0.256
425	0.256
425	0.255
426	0.255
426	0.255
427	0.255
427	0.255
427	0.254
428	0.254
428	0.255
429	0.255
429	0.255
430	0.254
430	0.254
431	0.254
431	0.254
432	0.253
432	0.253
432	0.253
433	0.253
433	0.252
434	0.252
434	0.252
435	0.252
435	0.252
436	0.252
436	0.252
437	0.252
437	0.252
437	0.252
438	0.252
438	0.252
439	0.252
439	0.252
440	0.252
440	0.252
441	0.251
441	0.251
442	0.251
442	0.251
442	0.251
443	0.251
443	0.251
444	0.251
444	0.251
445	0.251
445	0.251
446	0.251
446	0.251
447	0.251
447	0.251
447	0.251
448	0.251
448	0.251
449	0.251
449	0.251
450	0.251
450	0.251
451	0.251
451	0.251
452	0.251
452	0.251
452	0.251
453	0.25
453	0.25
454	0.25
454	0.25
455	0.25
455	0.25
456	0.25
456	0.249
457	0.249
457	0.249
458	0.249
458	0.249
458	0.249
459	0.249
459	0.249
460	0.249
460	0.249
461	0.249
461	0.249
462	0.249
462	0.249
463	0.249
463	0.25
463	0.25
464	0.25
464	0.25
465	0.25
465	0.25
466	0.25
466	0.25
467	0.25
467	0.25
467	0.25
468	0.25
468	0.25
469	0.25
469	0.251
470	0.251
470	0.251
471	0.251
471	0.251
472	0.251
472	0.252
472	0.252
473	0.252
473	0.253
474	0.253
474	0.253
475	0.253
475	0.254
476	0.254
476	0.254
477	0.255
477	0.255
477	0.255
478	0.255
478	0.256
479	0.256
479	0.256
480	0.257
480	0.257
481	0.258
481	0.258
482	0.258
482	0.259
482	0.259
483	0.26
483	0.26
484	0.26
484	0.26
485	0.26
485	0.261
486	0.261
486	0.262
487	0.262
487	0.263
487	0.263
488	0.264
488	0.265
489	0.266
489	0.268
490	0.269
490	0.27
491	0.271
491	0.272
492	0.273
492	0.274
492	0.275
493	0.276
493	0.277
494	0.278
494	0.279
495	0.28
495	0.28
496	0.282
496	0.283
496	0.284
497	0.285
497	0.287
498	0.288
498	0.289
499	0.291
499	0.292
500	0.294
500	0.295
501	0.297
501	0.298
501	0.299
502	0.3
502	0.301
503	0.303
503	0.304
504	0.305
504	0.307
505	0.308
505	0.31
506	0.311
506	0.313
506	0.314
507	0.315
507	0.316
508	0.318
508	0.319
509	0.321
509	0.322
510	0.324
510	0.325
511	0.327
511	0.328
511	0.33
512	0.332
512	0.333
513	0.335
513	0.336
514	0.338
514	0.34
515	0.341
515	0.342
515	0.344
516	0.346
516	0.348
517	0.349
517	0.35
518	0.351
518	0.353
519	0.354
519	0.355
520	0.357
520	0.359
520	0.361
521	0.362
521	0.363
522	0.365
522	0.367
523	0.369
523	0.37
524	0.371
524	0.373
524	0.374
525	0.375
525	0.376
526	0.377
526	0.378
527	0.379
527	0.38
528	0.381
528	0.382
529	0.383
529	0.385
529	0.386
530	0.387
530	0.388
531	0.389
531	0.389
532	0.39
532	0.391
533	0.392
533	0.393
533	0.393
534	0.394
534	0.394
535	0.395
535	0.395
536	0.395
536	0.396
537	0.396
537	0.396
538	0.397
538	0.397
538	0.398
539	0.399
539	0.4
540	0.4
540	0.4
541	0.4
541	0.401
542	0.402
542	0.402
542	0.402
543	0.402
543	0.402
544	0.402
544	0.402
545	0.402
545	0.402
546	0.403
546	0.402
547	0.402
547	0.402
547	0.402
548	0.402
548	0.403
549	0.403
549	0.404
550	0.404
550	0.404
551	0.404
551	0.405
551	0.406
552	0.407
552	0.408
553	0.408
553	0.409
554	0.409
554	0.408
555	0.408
555	0.408
556	0.408
556	0.408
556	0.408
557	0.408
557	0.408
558	0.407
558	0.407
559	0.407
559	0.407
560	0.407
560	0.407
560	0.407
561	0.407
561	0.406
562	0.406
562	0.405
563	0.405
563	0.405
564	0.405
564	0.405
564	0.405
565	0.406
565	0.406
566	0.406
566	0.406
567	0.406
567	0.406
568	0.406
568	0.405
568	0.405
569	0.404
569	0.403
570	0.402
570	0.401
571	0.401
571	0.401
572	0.4
572	0.4
573	0.399
573	0.399
573	0.398
574	0.399
574	0.399
575	0.399
575	0.4
576	0.399
576	0.398
577	0.398
577	0.398
577	0.399
578	0.399
578	0.399
579	0.399
579	0.399
580	0.398
580	0.397
581	0.396
581	0.396
581	0.396
582	0.396
582	0.396
583	0.396
583	0.395
584	0.394
584	0.393
585	0.394
585	0.394
585	0.394
586	0.394
586	0.393
587	0.393
587	0.392
588	0.391
588	0.391
589	0.391
589	0.391
590	0.39
590	0.39
590	0.39
591	0.39
591	0.389
592	0.388
592	0.387
593	0.387
593	0.387
594	0.386
594	0.386
594	0.385
595	0.385
595	0.384
596	0.384
596	0.385
597	0.386
597	0.385
598	0.384
598	0.384
598	0.383
599	0.382
599	0.381
600	0.379
600	0.378
601	0.378
601	0.376
602	0.375
602	0.374
602	0.373
603	0.373
603	0.374
604	0.373
604	0.373
605	0.373
605	0.373
606	0.372
606	0.371
606	0.371
607	0.37
607	0.369
608	0.368
608	0.366
609	0.365
609	0.365
610	0.364
610	0.363
610	0.363
611	0.363
611	0.364
612	0.364
612	0.365
613	0.365
613	0.365
614	0.363
614	0.362
614	0.361
615	0.36
615	0.359
616	0.358
616	0.356
617	0.354
617	0.353
618	0.351
618	0.35
618	0.349
619	0.348
619	0.348
620	0.348
620	0.347
621	0.345
621	0.345
622	0.343
622	0.342
622	0.341
623	0.34
623	0.339
624	0.338
624	0.336
625	0.335
625	0.334
626	0.332
626	0.331
626	0.33
627	0.328
627	0.326
628	0.324
628	0.322
629	0.32
629	0.318
630	0.314
630	0.311
630	0.309
631	0.306
631	0.302
632	0.299
632	0.295
633	0.291
633	0.287
634	0.283
634	0.279
634	0.275
635	0.271
635	0.266
636	0.261
636	0.256
637	0.251
637	0.245
638	0.239
638	0.233
638	0.227
639	0.22
639	0.213
640	0.206
640	0.199
641	0.192
641	0.185
642	0.178
642	0.171
642	0.164
643	0.156
643	0.148
644	0.14
644	0.132
645	0.124
645	0.115
646	0.107
646	0.098
646	0.089
647	0.08
647	0.072
648	0.063
648	0.054
649	0.044
649	0.035
650	0.026
650	0.017
650	0.007
651	-0.005
651	-0.02
652	-0.036
652	-0.053
653	-0.069
653	-0.083
653	-0.079
654	-0.055
654	-0.041
655	-0.044
655	-0.049
656	-0.055
656	-0.061
657	-0.066
657	-0.07
657	-0.075
658	-0.081
658	-0.113
659	-0.205
659	-0.314
660	-0.361
660	-0.388
661	-0.417
661	-0.45
661	-0.485
662	-0.519
662	-0.556
663	-0.596
663	-0.64
664	-0.685
664	-0.737
665	-0.79
665	-0.85
665	-0.907
666	-0.964
666	-1.026
667	-1.092
667	-1.158
668	-1.231
668	-1.304
669	-1.379
669	-1.454
669	-1.534
670	-1.607
670	-1.653
671	-1.814
671	-2.039
672	-2.247
672	-2.426
672	-2.548
673	-2.636
673	-2.712
674	-2.751
674	-2.768
675	-2.792
675	-2.929
676	-3.115
676	-3.066
676	-2.843
677	-2.638
677	-2.475
678	-2.298
678	-1.996
679	-1.741
679	-1.613
680	-1.521
680	-1.439
680	-1.371
681	-1.327
681	-1.27
682	-1.23
682	-1.193
683	-1.158
683	-1.141
684	-1.121
684	-1.102
684	-1.08
685	-1.056
685	-1.033
686	-1.008
686	-0.992
687	-0.966
687	-0.954
687	-0.934
688	-0.908
688	-0.886
689	-0.866
689	-0.853
690	-0.833
690	-0.821
691	-0.813
691	-0.818
691	-0.834
692	-0.825
692	-0.815
693	-0.81
693	-0.818
694	-0.812
694	-0.804
695	-0.81
695	-0.807
695	-0.792
696	-0.787
696	-0.766
697	-0.766
697	-0.782
698	-0.784
698	-0.775
698	-0.787
699	-0.79
699	-0.788
700	-0.778
700	-0.793
701	-0.793
701	-0.799
702	-0.798
702	-0.787
702	-0.779
703	-0.772
703	-0.765
704	-0.759
704	-0.757
705	-0.769
705	-0.762
705	-0.752
706	-0.752
706	-0.747
707	-0.752
707	-0.747
708	-0.746
708	-0.738
709	-0.741
709	-0.744
709	-0.736
710	-0.745
710	-0.752
711	-0.745
711	-0.746
712	-0.744
712	-0.757
713	-0.756
713	-0.764
713	-0.756
714	-0.752
714	-0.754
715	-0.742
715	-0.73
716	-0.734
716	-0.736
716	-0.73
717	-0.73
717	-0.732
718	-0.721
718	-0.722
719	-0.728
719	-0.729
720	-0.726
720	-0.735
720	-0.73
721	-0.721
721	-0.721
722	-0.709
722	-0.697
723	-0.696
723	-0.699
723	-0.687
724	-0.69
724	-0.694
725	-0.692
725	-0.7
726	-0.71
726	-0.717
727	-0.721
727	-0.738
727	-0.746
728	-0.748
728	-0.756
729	-0.755
729	-0.759
730	-0.766
730	-0.757
730	-0.746
731	-0.728
731	-0.74
732	-0.745
732	-0.743
733	-0.74
733	-0.744
734	-0.738
734	-0.738
734	-0.723
735	-0.725
735	-0.728
736	-0.738
736	-0.725
737	-0.716
737	-0.719
737	-0.73
738	-0.727
738	-0.726
739	-0.723
739	-0.738
740	-0.735
740	-0.734
741	-0.73
741	-0.729
741	-0.731
742	-0.727
742	-0.726
743	-0.731
743	-0.737
744	-0.733
744	-0.721
744	-0.722
745	-0.729
745	-0.721
746	-0.722
746	-0.72
747	-0.722
747	-0.71
748	-0.698
748	-0.702
748	-0.704
749	-0.704
749	-0.705
750	-0.694
750	-0.695
751	-0.698
751	-0.708
751	-0.71
752	-0.715
752	-0.724
753	-0.72
753	-0.716
754	-0.722
754	-0.717
754	-0.731
755	-0.747
755	-0.76
756	-0.749
756	-0.745
757	-0.742
757	-0.739
758	-0.741
758	-0.74
758	-0.743
759	-0.75
759	-0.734
760	-0.726
760	-0.721
761	-0.731
761	-0.729
761	-0.727
762	-0.734
762	-0.732
763	-0.742
763	-0.739
764	-0.736
764	-0.741
764	-0.748
765	-0.737
765	-0.723
766	-0.731
766	-0.738
767	-0.753
767	-0.748
768	-0.739
768	-0.747
768	-0.751
769	-0.769
769	-0.77
770	-0.774
770	-0.789
771	-0.786
771	-0.789
771	-0.79
772	-0.794
772	-0.793
773	-0.792
773	-0.79
774	-0.79
774	-0.792
775	-0.795
775	-0.789
775	-0.797
776	-0.795
776	-0.786
777	-0.794
777	-0.812
778	-0.811
778	-0.828
778	-0.815
779	-0.835
779	-0.843
780	-0.854
780	-0.852
781	-0.865
781	-0.861
781	-0.877
782	-0.878
782	-0.88
783	-0.867
783	-0.865
784	-0.847
784	-0.836
784	-0.847
785	-0.854
785	-0.84
786	-0.845
786	-0.821
787	-0.806
787	-0.807
788	-0.811
788	-0.822
788	-0.83
789	-0.833
789	-0.813
790	-0.793
790	-0.795
791	-0.795
791	-0.814
791	-0.821
792	-0.815
792	-0.789
793	-0.777
793	-0.756
794	-0.762
794	-0.754
794	-0.765
795	-0.761
795	-0.753
796	-0.735
796	-0.741
797	-0.734
797	-0.749
797	-0.758
798	-0.769
798	-0.762
799	-0.773
799	-0.758
800	-0.765
800	-0.758
801	-0.763
801	-0.75
801	-0.763
802	-0.769
802	-0.769
803	-0.771
803	-0.781
804	-0.775
804	-0.787
804	-0.772
805	-0.779
805	-0.768
806	-0.77
806	-0.754
807	-0.752
807	-0.733
807	-0.721
808	-0.711
808	-0.706
809	-0.69
809	-0.699
810	-0.695
810	-0.689
810	-0.687
811	-0.694
811	-0.684
812	-0.687
812	-0.69
813	-0.697
813	-0.692
813	-0.698
814	-0.701
814	-0.704
815	-0.708
815	-0.711
816	-0.703
816	-0.709
817	-0.715
817	-0.732
817	-0.745
818	-0.753
818	-0.754
819	-0.745
819	-0.746
820	-0.754
820	-0.749
820	-0.76
821	-0.758
821	-0.747
822	-0.714
822	-0.692
823	-0.69
823	-0.696
823	-0.692
824	-0.688
824	-0.691
825	-0.684
825	-0.665
826	-0.66
826	-0.667
826	-0.678
827	-0.671
827	-0.667
828	-0.647
828	-0.648
829	-0.637
829	-0.621
829	-0.614
830	-0.623
830	-0.619
831	-0.61
831	-0.599
832	-0.598
832	-0.591
832	-0.597
833	-0.592
833	-0.593
834	-0.592
834	-0.6
835	-0.588
835	-0.584
835	-0.582
836	-0.58
836	-0.577
837	-0.574
837	-0.565
838	-0.558
838	-0.545
839	-0.53
839	-0.517
839	-0.508
840	-0.496
840	-0.49
841	-0.48
841	-0.471
842	-0.464
842	-0.453
842	-0.445
843	-0.441
843	-0.435
844	-0.426
844	-0.417
845	-0.41
845	-0.399
845	-0.384
846	-0.371
846	-0.358
847	-0.347
847	-0.335
848	-0.324
848	-0.313
848	-0.299
849	-0.287
849	-0.275
850	-0.261
850	-0.255
851	-0.248
851	-0.235
851	-0.225
852	-0.208
852	-0.194
853	-0.185
853	-0.178
854	-0.167
854	-0.155
854	-0.144
855	-0.132
855	-0.124
856	-0.114
856	-0.106
857	-0.1
857	-0.091
857	-0.08
858	-0.068
858	-0.061
859	-0.052
859	-0.041
860	-0.031
860	-0.018
860	-0.009
861	-0
861	0.009
862	0.017
862	0.024
863	0.031
863	0.039
863	0.045
864	0.05
864	0.056
865	0.061
865	0.066
866	0.071
866	0.075
866	0.079
867	0.082
867	0.086
868	0.089
868	0.092
869	0.095
869	0.097
869	0.099
870	0.101
870	0.104
871	0.106
871	0.107
872	0.108
872	0.109
872	0.109
873	0.11
873	0.11
874	0.11
874	0.109
875	0.108
875	0.108
875	0.106
876	0.105
876	0.104
877	0.103
877	0.102
878	0.101
878	0.099
878	0.098
879	0.097
879	0.096
880	0.096
880	0.095
881	0.095
881	0.095
881	0.095
882	0.094
882	0.094
883	0.092
883	0.091
884	0.09
884	0.089
884	0.088
885	0.087
885	0.086
886	0.086
886	0.085
887	0.084
887	0.084
887	0.084
888	0.085
888	0.085
889	0.085
889	0.085
890	0.085
890	0.085
890	0.085
891	0.085
891	0.085
892	0.085
892	0.086
893	0.085
893	0.086
893	0.086
894	0.086
894	0.085
895	0.085
895	0.085
895	0.085
896	0.084
896	0.083
897	0.082
897	0.08
898	0.08
898	0.079
898	0.079
899	0.079
899	0.079
900	0.079
900	0.079
901	0.08
901	0.08
901	0.081
902	0.082
902	0.083
903	0.083
903	0.084
904	0.085
904	0.085
904	0.086
905	0.087
905	0.087
906	0.087
906	0.087
907	0.086
907	0.086
907	0.086
908	0.085
908	0.084
909	0.083
909	0.082
910	0.082
910	0.081
910	0.081
911	0.081
911	0.082
912	0.082
912	0.083
913	0.084
913	0.085
913	0.086
914	0.087
914	0.088
915	0.088
915	0.089
916	0.09
916	0.09
916	0.09
917	0.09
917	0.091
918	0.09
918	0.09
918	0.09
919	0.089
919	0.089
920	0.089
920	0.089
921	0.088
921	0.088
921	0.088
922	0.088
922	0.087
923	0.087
923	0.086
924	0.086
924	0.086
924	0.085
925	0.084
925	0.083
926	0.082
926	0.081
927	0.08
927	0.08
927	0.079
928	0.079
928	0.078
929	0.077
929	0.077
930	0.076
930	0.075
930	0.075
931	0.074
931	0.074
932	0.073
932	0.072
933	0.071
933	0.07
933	0.069
934	0.068
934	0.067
935	0.066
935	0.065
935	0.064
936	0.064
936	0.062
937	0.062
937	0.061
938	0.061
938	0.061
938	0.061
939	0.061
939	0.061
940	0.061
940	0.062
941	0.062
941	0.063
941	0.064
942	0.064
942	0.065
943	0.065
943	0.065
944	0.064
944	0.064
944	0.063
945	0.063
945	0.061
946	0.06
946	0.059
946	0.058
947	0.057
947	0.057
948	0.056
948	0.056
949	0.056
949	0.057
949	0.057
950	0.057
950	0.058
951	0.059
951	0.059
952	0.059
952	0.061
952	0.061
953	0.062
953	0.064
954	0.064
954	0.065
955	0.066
955	0.067
955	0.068
956	0.069
956	0.069
957	0.069
957	0.07
957	0.07
958	0.07
958	0.071
959	0.071
959	0.071
960	0.071
960	0.071
960	0.072
961	0.071
961	0.072
962	0.072
962	0.071
963	0.071
963	0.071
963	0.071
964	0.071
964	0.071
965	0.071
965	0.071
966	0.071
966	0.071
966	0.071
967	0.07
967	0.07
968	0.069
968	0.068
968	0.067
969	0.067
969	0.066
970	0.066
970	0.066
971	0.066
971	0.066
971	0.067
972	0.067
972	0.067
973	0.068
973	0.067
974	0.067
974	0.067
974	0.067
975	0.067
975	0.067
976	0.066
976	0.066
976	0.066
977	0.066
977	0.066
978	0.066
978	0.066
979	0.066
979	0.066
979	0.066
980	0.066
980	0.066
981	0.065
981	0.065
982	0.065
982	0.064
982	0.064
983	0.063
983	0.063
984	0.063
984	0.062
984	0.062
985	0.062
985	0.062
986	0.061
986	0.061
987	0.06
987	0.06
987	0.059
988	0.059
988	0.058
989	0.057
989	0.056
990	0.055
990	0.055
990	0.054
991	0.054
991	0.054
992	0.054
992	0.053
992	0.053
993	0.053
993	0.053
994	0.053
994	0.053
995	0.052
995	0.052
995	0.051
996	0.051
996	0.05
997	0.05
997	0.05
997	0.05
998	0.05
998	0.05
999	0.05
999	0.05
1000	0.051
1000	0.051
1000	0.051
1001	0.052
1001	0.053
1002	0.053
1002	0.053
1003	0.053
1003	0.053
1003	0.053
1004	0.053
1004	0.052
1005	0.052
1005	0.051
1005	0.05
1006	0.049
1006	0.048
1007	0.047
1007	0.046
1008	0.046
1008	0.045
1008	0.045
1009	0.044
1009	0.044
1010	0.044
1010	0.044
1010	0.044
1011	0.045
1011	0.044
1012	0.044
1012	0.044
1013	0.044
1013	0.042
1013	0.042
1014	0.041
1014	0.04
1015	0.04
1015	0.039
1016	0.038
1016	0.038
1016	0.037
1017	0.035
1017	0.035
1018	0.034
1018	0.033
1018	0.032
1019	0.031
1019	0.03
1020	0.029
1020	0.029
1021	0.028
1021	0.028
1021	0.027
1022	0.026
1022	0.026
1023	0.026
1023	0.025
1023	0.025
1024	0.025
1024	0.025
1025	0.024
1025	0.025
1026	0.025
1026	0.026
1026	0.026
1027	0.026
1027	0.027
1028	0.027
1028	0.027
1028	0.027
1029	0.027
1029	0.027
1030	0.026
1030	0.026
1031	0.025
1031	0.025
1031	0.025
1032	0.025
1032	0.024
1033	0.025
1033	0.025
1033	0.025
1034	0.025
1034	0.025
1035	0.025
1035	0.025
1036	0.025
1036	0.025
1036	0.025
1037	0.024
1037	0.024
1038	0.024
1038	0.024
1039	0.025
1039	0.025
1039	0.025
1040	0.025
1040	0.026
1041	0.027
1041	0.027
1041	0.027
1042	0.027
1042	0.027
1043	0.026
1043	0.026
1044	0.025
1044	0.024
1044	0.024
1045	0.022
1045	0.021
1046	0.02
1046	0.019
1046	0.019
1047	0.019
1047	0.019
1048	0.019
1048	0.019
1049	0.019
1049	0.02
1049	0.02
1050	0.02
1050	0.021
1051	0.021
1051	0.021
1051	0.022
1052	0.022
1052	0.022
1053	0.022
1053	0.023
1053	0.023
1054	0.023
1054	0.023
1055	0.022
1055	0.022
1056	0.022
1056	0.021
1056	0.02
1057	0.019
1057	0.019
1058	0.018
1058	0.017
1058	0.017
1059	0.016
1059	0.015
1060	0.015
1060	0.014
1061	0.014
1061	0.014
1061	0.013
1062	0.013
1062	0.012
1063	0.012
1063	0.012
1063	0.012
1064	0.013
1064	0.013
1065	0.013
1065	0.013
1066	0.012
1066	0.012
1066	0.012
1067	0.012
1067	0.012
1068	0.012
1068	0.011
1068	0.011
1069	0.011
1069	0.01
1070	0.01
1070	0.01
1071	0.009
1071	0.009
1071	0.008
1072	0.008
1072	0.007
1073	0.007
1073	0.007
1073	0.006
1074	0.007
1074	0.007
1075	0.006
1075	0.006
1076	0.005
1076	0.005
1076	0.005
1077	0.004
1077	0.004
1078	0.003
1078	0.002
1078	0.001
1079	-0
1079	-0
1080	-0.001
1080	-0.002
1080	-0.003
1081	-0.003
1081	-0.003
1082	-0.004
1082	-0.005
1083	-0.006
1083	-0.007
1083	-0.007
1084	-0.008
1084	-0.009
1085	-0.01
1085	-0.01
1085	-0.011
1086	-0.012
1086	-0.013
1087	-0.012
1087	-0.012
1088	-0.013
1088	-0.013
1088	-0.014
1089	-0.015
1089	-0.016
1090	-0.017
1090	-0.018
1090	-0.02
1091	-0.021
1091	-0.021
1092	-0.023
1092	-0.023
1092	-0.025
1093	-0.026
1093	-0.026
1094	-0.025
1094	-0.026
1095	-0.028
1095	-0.028
1095	-0.028
1096	-0.029
1096	-0.03
1097	-0.03
1097	-0.031
1097	-0.031
1098	-0.033
1098	-0.035
1099	-0.036
1099	-0.036
1100	-0.037
1100	-0.038
1100	-0.041
1101	-0.043
1101	-0.045
1102	-0.047
1102	-0.049
1102	-0.05
1103	-0.052
1103	-0.054
1104	-0.057
1104	-0.06
1104	-0.062
1105	-0.064
1105	-0.068
1106	-0.072
1106	-0.075
1107	-0.08
1107	-0.084
1107	-0.089
1108	-0.091
1108	-0.092
1109	-0.095
1109	-0.1
1109	-0.103
1110	-0.104
1110	-0.106
1111	-0.112
1111	-0.108
