Data from 17C_3.1A_35min_2sec_int_Absorbance__600__03003.txt Node

Date: Mon Jun 19 18:39:49 CEST 2023
User: Marek
Spectrometer: MAYP115816
Trigger mode: 0
Integration Time (sec): 2.500000E-1
Scans to average: 10
Electric dark correction enabled: true
Nonlinearity correction enabled: true
Boxcar width: 5
XAxis mode: Wavelengths
Number of Pixels in Spectrum: 2068
>>>>>Begin Spectral Data<<<<<
199	-0.735
199	-0.751
200	-0.659
200	-0.61
201	-0.574
201	-0.563
202	-0.545
202	-0.534
203	-0.527
203	-0.522
204	-0.511
204	-0.496
205	-0.474
205	-0.468
205	-0.467
206	-0.469
206	-0.473
207	-0.467
207	-0.468
208	-0.468
208	-0.467
209	-0.461
209	-0.464
210	-0.468
210	-0.474
211	-0.474
211	-0.475
212	-0.477
212	-0.484
213	-0.482
213	-0.483
213	-0.488
214	-0.486
214	-0.485
215	-0.484
215	-0.488
216	-0.491
216	-0.498
217	-0.493
217	-0.497
218	-0.501
218	-0.502
219	-0.506
219	-0.515
220	-0.52
220	-0.529
221	-0.526
221	-0.528
221	-0.522
222	-0.519
222	-0.517
223	-0.519
223	-0.523
224	-0.528
224	-0.528
225	-0.522
225	-0.519
226	-0.525
226	-0.528
227	-0.535
227	-0.544
228	-0.547
228	-0.549
229	-0.55
229	-0.542
229	-0.536
230	-0.541
230	-0.542
231	-0.537
231	-0.527
232	-0.521
232	-0.519
233	-0.512
233	-0.511
234	-0.51
234	-0.507
235	-0.511
235	-0.516
236	-0.517
236	-0.521
236	-0.527
237	-0.533
237	-0.534
238	-0.543
238	-0.541
239	-0.54
239	-0.549
240	-0.547
240	-0.546
241	-0.549
241	-0.548
242	-0.552
242	-0.548
243	-0.543
243	-0.545
243	-0.556
244	-0.555
244	-0.555
245	-0.569
245	-0.567
246	-0.57
246	-0.577
247	-0.577
247	-0.581
248	-0.588
248	-0.585
249	-0.586
249	-0.595
250	-0.591
250	-0.588
250	-0.59
251	-0.588
251	-0.588
252	-0.592
252	-0.583
253	-0.587
253	-0.6
254	-0.597
254	-0.595
255	-0.603
255	-0.597
256	-0.594
256	-0.605
257	-0.599
257	-0.595
258	-0.613
258	-0.609
258	-0.604
259	-0.602
259	-0.611
260	-0.612
260	-0.617
261	-0.628
261	-0.621
262	-0.621
262	-0.623
263	-0.611
263	-0.607
264	-0.606
264	-0.615
265	-0.607
265	-0.616
265	-0.619
266	-0.617
266	-0.615
267	-0.628
267	-0.637
268	-0.652
268	-0.662
269	-0.66
269	-0.655
270	-0.663
270	-0.667
271	-0.668
271	-0.671
272	-0.675
272	-0.669
272	-0.661
273	-0.658
273	-0.667
274	-0.673
274	-0.676
275	-0.677
275	-0.67
276	-0.674
276	-0.666
277	-0.669
277	-0.686
278	-0.696
278	-0.693
278	-0.685
279	-0.687
279	-0.698
280	-0.695
280	-0.695
281	-0.687
281	-0.695
282	-0.689
282	-0.691
283	-0.681
283	-0.684
284	-0.679
284	-0.671
285	-0.666
285	-0.663
285	-0.658
286	-0.668
286	-0.662
287	-0.658
287	-0.639
288	-0.632
288	-0.64
289	-0.654
289	-0.663
290	-0.652
290	-0.65
291	-0.647
291	-0.641
292	-0.644
292	-0.652
292	-0.658
293	-0.663
293	-0.65
294	-0.64
294	-0.63
295	-0.627
295	-0.624
296	-0.622
296	-0.62
297	-0.615
297	-0.599
298	-0.593
298	-0.602
298	-0.591
299	-0.582
299	-0.583
300	-0.579
300	-0.574
301	-0.571
301	-0.57
302	-0.577
302	-0.584
303	-0.571
303	-0.556
304	-0.559
304	-0.56
305	-0.56
305	-0.561
305	-0.56
306	-0.545
306	-0.539
307	-0.526
307	-0.53
308	-0.544
308	-0.542
309	-0.543
309	-0.532
310	-0.522
310	-0.517
311	-0.509
311	-0.517
311	-0.513
312	-0.509
312	-0.505
313	-0.489
313	-0.492
314	-0.49
314	-0.491
315	-0.491
315	-0.49
316	-0.485
316	-0.478
317	-0.471
317	-0.467
318	-0.455
318	-0.453
318	-0.447
319	-0.438
319	-0.435
320	-0.43
320	-0.432
321	-0.437
321	-0.433
322	-0.429
322	-0.424
323	-0.426
323	-0.42
324	-0.416
324	-0.407
324	-0.397
325	-0.388
325	-0.37
326	-0.357
326	-0.341
327	-0.325
327	-0.306
328	-0.28
328	-0.26
329	-0.236
329	-0.214
330	-0.187
330	-0.155
330	-0.129
331	-0.099
331	-0.073
332	-0.049
332	-0.026
333	-0.005
333	0.018
334	0.038
334	0.055
335	0.071
335	0.084
336	0.097
336	0.109
336	0.119
337	0.13
337	0.138
338	0.146
338	0.151
339	0.158
339	0.163
340	0.167
340	0.172
341	0.176
341	0.178
342	0.182
342	0.185
342	0.188
343	0.189
343	0.192
344	0.194
344	0.195
345	0.196
345	0.197
346	0.198
346	0.199
347	0.2
347	0.2
348	0.201
348	0.201
348	0.202
349	0.202
349	0.202
350	0.202
350	0.203
351	0.203
351	0.203
352	0.203
352	0.203
353	0.203
353	0.203
354	0.203
354	0.203
354	0.203
355	0.203
355	0.203
356	0.203
356	0.202
357	0.201
357	0.201
358	0.201
358	0.201
359	0.201
359	0.2
360	0.201
360	0.201
360	0.2
361	0.2
361	0.2
362	0.201
362	0.201
363	0.201
363	0.201
364	0.2
364	0.2
365	0.2
365	0.2
366	0.2
366	0.2
366	0.2
367	0.201
367	0.201
368	0.201
368	0.2
369	0.2
369	0.2
370	0.2
370	0.2
371	0.2
371	0.2
372	0.2
372	0.2
372	0.2
373	0.2
373	0.2
374	0.2
374	0.2
375	0.2
375	0.2
376	0.2
376	0.2
377	0.2
377	0.2
378	0.2
378	0.2
378	0.2
379	0.2
379	0.2
380	0.2
380	0.2
381	0.2
381	0.2
382	0.199
382	0.199
383	0.199
383	0.199
383	0.199
384	0.199
384	0.199
385	0.199
385	0.199
386	0.199
386	0.199
387	0.199
387	0.199
388	0.199
388	0.199
389	0.199
389	0.199
389	0.199
390	0.199
390	0.199
391	0.199
391	0.199
392	0.199
392	0.199
393	0.198
393	0.198
394	0.198
394	0.198
394	0.197
395	0.197
395	0.197
396	0.197
396	0.197
397	0.197
397	0.197
398	0.197
398	0.198
399	0.198
399	0.198
400	0.198
400	0.197
400	0.197
401	0.197
401	0.197
402	0.197
402	0.197
403	0.197
403	0.197
404	0.197
404	0.196
405	0.196
405	0.196
405	0.196
406	0.196
406	0.196
407	0.196
407	0.196
408	0.196
408	0.195
409	0.196
409	0.196
410	0.196
410	0.196
411	0.196
411	0.196
411	0.196
412	0.196
412	0.196
413	0.196
413	0.196
414	0.196
414	0.196
415	0.195
415	0.195
416	0.195
416	0.195
416	0.195
417	0.195
417	0.195
418	0.195
418	0.195
419	0.195
419	0.195
420	0.195
420	0.195
421	0.195
421	0.196
421	0.196
422	0.196
422	0.196
423	0.196
423	0.195
424	0.195
424	0.194
425	0.194
425	0.194
426	0.194
426	0.194
427	0.193
427	0.193
427	0.193
428	0.193
428	0.193
429	0.193
429	0.193
430	0.193
430	0.193
431	0.193
431	0.193
432	0.193
432	0.193
432	0.193
433	0.193
433	0.192
434	0.192
434	0.192
435	0.192
435	0.192
436	0.192
436	0.192
437	0.192
437	0.192
437	0.192
438	0.192
438	0.192
439	0.192
439	0.192
440	0.192
440	0.192
441	0.191
441	0.191
442	0.191
442	0.191
442	0.191
443	0.191
443	0.191
444	0.191
444	0.191
445	0.19
445	0.19
446	0.19
446	0.19
447	0.19
447	0.191
447	0.19
448	0.191
448	0.191
449	0.191
449	0.191
450	0.191
450	0.191
451	0.19
451	0.19
452	0.191
452	0.19
452	0.19
453	0.19
453	0.19
454	0.19
454	0.189
455	0.189
455	0.189
456	0.189
456	0.189
457	0.189
457	0.189
458	0.189
458	0.189
458	0.189
459	0.189
459	0.189
460	0.189
460	0.189
461	0.189
461	0.189
462	0.189
462	0.189
463	0.189
463	0.189
463	0.189
464	0.189
464	0.189
465	0.189
465	0.189
466	0.19
466	0.19
467	0.19
467	0.19
467	0.19
468	0.19
468	0.19
469	0.19
469	0.19
470	0.191
470	0.191
471	0.191
471	0.191
472	0.191
472	0.191
472	0.191
473	0.191
473	0.191
474	0.191
474	0.191
475	0.191
475	0.191
476	0.191
476	0.191
477	0.191
477	0.191
477	0.19
478	0.191
478	0.191
479	0.191
479	0.191
480	0.191
480	0.191
481	0.192
481	0.192
482	0.192
482	0.193
482	0.193
483	0.193
483	0.194
484	0.194
484	0.193
485	0.193
485	0.193
486	0.193
486	0.194
487	0.194
487	0.194
487	0.195
488	0.195
488	0.195
489	0.196
489	0.197
490	0.198
490	0.198
491	0.199
491	0.2
492	0.2
492	0.201
492	0.201
493	0.202
493	0.202
494	0.203
494	0.204
495	0.204
495	0.205
496	0.205
496	0.206
496	0.207
497	0.208
497	0.209
498	0.209
498	0.21
499	0.211
499	0.212
500	0.212
500	0.213
501	0.214
501	0.214
501	0.215
502	0.215
502	0.215
503	0.216
503	0.217
504	0.217
504	0.218
505	0.219
505	0.22
506	0.221
506	0.222
506	0.223
507	0.223
507	0.224
508	0.225
508	0.226
509	0.227
509	0.228
510	0.229
510	0.23
511	0.231
511	0.232
511	0.232
512	0.233
512	0.234
513	0.235
513	0.236
514	0.237
514	0.238
515	0.239
515	0.24
515	0.24
516	0.241
516	0.243
517	0.244
517	0.245
518	0.245
518	0.246
519	0.246
519	0.247
520	0.248
520	0.249
520	0.25
521	0.251
521	0.252
522	0.253
522	0.254
523	0.256
523	0.257
524	0.257
524	0.258
524	0.258
525	0.259
525	0.259
526	0.26
526	0.261
527	0.261
527	0.262
528	0.262
528	0.263
529	0.264
529	0.265
529	0.266
530	0.267
530	0.267
531	0.268
531	0.269
532	0.269
532	0.27
533	0.27
533	0.271
533	0.271
534	0.271
534	0.271
535	0.271
535	0.272
536	0.272
536	0.271
537	0.271
537	0.272
538	0.272
538	0.272
538	0.273
539	0.274
539	0.274
540	0.274
540	0.275
541	0.275
541	0.276
542	0.276
542	0.276
542	0.277
543	0.277
543	0.277
544	0.277
544	0.278
545	0.278
545	0.278
546	0.279
546	0.279
547	0.279
547	0.279
547	0.28
548	0.28
548	0.28
549	0.281
549	0.281
550	0.282
550	0.282
551	0.282
551	0.283
551	0.284
552	0.286
552	0.286
553	0.287
553	0.288
554	0.288
554	0.288
555	0.288
555	0.288
556	0.288
556	0.288
556	0.288
557	0.288
557	0.288
558	0.288
558	0.288
559	0.288
559	0.288
560	0.288
560	0.288
560	0.288
561	0.288
561	0.288
562	0.288
562	0.287
563	0.287
563	0.287
564	0.287
564	0.288
564	0.288
565	0.289
565	0.289
566	0.289
566	0.29
567	0.29
567	0.29
568	0.291
568	0.29
568	0.291
569	0.291
569	0.29
570	0.29
570	0.289
571	0.289
571	0.289
572	0.288
572	0.288
573	0.288
573	0.288
573	0.287
574	0.287
574	0.287
575	0.288
575	0.289
576	0.289
576	0.288
577	0.288
577	0.289
577	0.29
578	0.29
578	0.291
579	0.292
579	0.293
580	0.292
580	0.291
581	0.291
581	0.291
581	0.291
582	0.292
582	0.292
583	0.292
583	0.292
584	0.29
584	0.29
585	0.291
585	0.292
585	0.292
586	0.292
586	0.292
587	0.292
587	0.291
588	0.291
588	0.292
589	0.292
589	0.292
590	0.292
590	0.293
590	0.294
591	0.294
591	0.294
592	0.294
592	0.293
593	0.294
593	0.294
594	0.293
594	0.293
594	0.293
595	0.294
595	0.293
596	0.294
596	0.295
597	0.296
597	0.296
598	0.296
598	0.296
598	0.296
599	0.296
599	0.295
600	0.294
600	0.293
601	0.293
601	0.293
602	0.291
602	0.292
602	0.291
603	0.292
603	0.293
604	0.294
604	0.294
605	0.295
605	0.296
606	0.295
606	0.295
606	0.295
607	0.295
607	0.295
608	0.294
608	0.293
609	0.293
609	0.294
610	0.293
610	0.293
610	0.294
611	0.295
611	0.296
612	0.297
612	0.298
613	0.298
613	0.299
614	0.298
614	0.297
614	0.296
615	0.296
615	0.295
616	0.295
616	0.294
617	0.293
617	0.292
618	0.291
618	0.291
618	0.291
619	0.291
619	0.292
620	0.292
620	0.291
621	0.291
621	0.291
622	0.291
622	0.291
622	0.29
623	0.29
623	0.29
624	0.29
624	0.289
625	0.289
625	0.289
626	0.288
626	0.287
626	0.287
627	0.286
627	0.285
628	0.284
628	0.283
629	0.282
629	0.28
630	0.278
630	0.277
630	0.275
631	0.274
631	0.272
632	0.269
632	0.267
633	0.265
633	0.262
634	0.26
634	0.258
634	0.255
635	0.253
635	0.249
636	0.246
636	0.243
637	0.239
637	0.236
638	0.231
638	0.227
638	0.223
639	0.218
639	0.213
640	0.208
640	0.203
641	0.197
641	0.192
642	0.187
642	0.182
642	0.176
643	0.171
643	0.164
644	0.158
644	0.151
645	0.144
645	0.137
646	0.131
646	0.123
646	0.116
647	0.108
647	0.101
648	0.093
648	0.086
649	0.077
649	0.069
650	0.062
650	0.053
650	0.045
651	0.034
651	0.021
652	0.005
652	-0.011
653	-0.025
653	-0.038
653	-0.034
654	-0.013
654	-0.002
655	-0.006
655	-0.012
656	-0.018
656	-0.025
657	-0.03
657	-0.035
657	-0.041
658	-0.048
658	-0.078
659	-0.166
659	-0.267
660	-0.312
660	-0.34
661	-0.369
661	-0.4
661	-0.433
662	-0.466
662	-0.501
663	-0.54
663	-0.582
664	-0.625
664	-0.676
665	-0.727
665	-0.785
665	-0.839
666	-0.894
666	-0.956
667	-1.02
667	-1.083
668	-1.155
668	-1.227
669	-1.3
669	-1.373
669	-1.45
670	-1.518
670	-1.561
671	-1.734
671	-1.994
672	-2.216
672	-2.403
672	-2.531
673	-2.622
673	-2.701
674	-2.747
674	-2.766
675	-2.791
675	-2.93
676	-3.121
676	-3.073
676	-2.85
677	-2.647
677	-2.486
678	-2.314
678	-2.027
679	-1.718
679	-1.575
680	-1.48
680	-1.397
680	-1.326
681	-1.282
681	-1.224
682	-1.186
682	-1.15
683	-1.116
683	-1.1
684	-1.08
684	-1.062
684	-1.041
685	-1.017
685	-0.997
686	-0.974
686	-0.96
687	-0.935
687	-0.925
687	-0.905
688	-0.88
688	-0.86
689	-0.841
689	-0.829
690	-0.811
690	-0.797
691	-0.79
691	-0.795
691	-0.813
692	-0.805
692	-0.8
693	-0.797
693	-0.805
694	-0.801
694	-0.794
695	-0.8
695	-0.799
695	-0.783
696	-0.78
696	-0.757
697	-0.758
697	-0.771
698	-0.773
698	-0.763
698	-0.777
699	-0.779
699	-0.776
700	-0.769
700	-0.785
701	-0.783
701	-0.79
702	-0.788
702	-0.777
702	-0.769
703	-0.763
703	-0.754
704	-0.749
704	-0.749
705	-0.759
705	-0.753
705	-0.74
706	-0.742
706	-0.738
707	-0.742
707	-0.736
708	-0.733
708	-0.726
709	-0.731
709	-0.732
709	-0.724
710	-0.731
710	-0.743
711	-0.732
711	-0.734
712	-0.732
712	-0.745
713	-0.745
713	-0.752
713	-0.742
714	-0.738
714	-0.738
715	-0.729
715	-0.714
716	-0.724
716	-0.726
716	-0.719
717	-0.72
717	-0.723
718	-0.714
718	-0.715
719	-0.721
719	-0.724
720	-0.72
720	-0.73
720	-0.722
721	-0.709
721	-0.712
722	-0.7
722	-0.69
723	-0.686
723	-0.69
723	-0.677
724	-0.682
724	-0.686
725	-0.687
725	-0.695
726	-0.709
726	-0.712
727	-0.717
727	-0.732
727	-0.741
728	-0.74
728	-0.746
729	-0.743
729	-0.748
730	-0.754
730	-0.746
730	-0.735
731	-0.718
731	-0.731
732	-0.735
732	-0.737
733	-0.734
733	-0.738
734	-0.735
734	-0.734
734	-0.72
735	-0.72
735	-0.723
736	-0.733
736	-0.717
737	-0.71
737	-0.71
737	-0.723
738	-0.718
738	-0.717
739	-0.716
739	-0.728
740	-0.726
740	-0.726
741	-0.721
741	-0.72
741	-0.724
742	-0.721
742	-0.723
743	-0.731
743	-0.734
744	-0.731
744	-0.724
744	-0.726
745	-0.733
745	-0.725
746	-0.726
746	-0.722
747	-0.724
747	-0.708
748	-0.697
748	-0.704
748	-0.705
749	-0.701
749	-0.701
750	-0.689
750	-0.692
751	-0.695
751	-0.706
751	-0.708
752	-0.716
752	-0.724
753	-0.719
753	-0.716
754	-0.723
754	-0.716
754	-0.729
755	-0.745
755	-0.754
756	-0.744
756	-0.74
757	-0.737
757	-0.734
758	-0.736
758	-0.733
758	-0.736
759	-0.744
759	-0.728
760	-0.72
760	-0.718
761	-0.727
761	-0.725
761	-0.724
762	-0.73
762	-0.73
763	-0.739
763	-0.734
764	-0.731
764	-0.74
764	-0.746
765	-0.736
765	-0.723
766	-0.73
766	-0.736
767	-0.751
767	-0.744
768	-0.734
768	-0.743
768	-0.748
769	-0.763
769	-0.765
770	-0.769
770	-0.78
771	-0.779
771	-0.782
771	-0.782
772	-0.788
772	-0.787
773	-0.788
773	-0.784
774	-0.784
774	-0.783
775	-0.787
775	-0.783
775	-0.789
776	-0.789
776	-0.779
777	-0.785
777	-0.804
778	-0.803
778	-0.823
778	-0.808
779	-0.83
779	-0.836
780	-0.85
780	-0.849
781	-0.861
781	-0.859
781	-0.876
782	-0.878
782	-0.879
783	-0.864
783	-0.863
784	-0.844
784	-0.836
784	-0.843
785	-0.848
785	-0.833
786	-0.839
786	-0.818
787	-0.801
787	-0.803
788	-0.806
788	-0.817
788	-0.829
789	-0.829
789	-0.813
790	-0.794
790	-0.797
791	-0.796
791	-0.812
791	-0.822
792	-0.815
792	-0.79
793	-0.779
793	-0.757
794	-0.763
794	-0.755
794	-0.766
795	-0.762
795	-0.753
796	-0.736
796	-0.742
797	-0.738
797	-0.753
797	-0.761
798	-0.772
798	-0.765
799	-0.776
799	-0.761
800	-0.767
800	-0.761
801	-0.765
801	-0.75
801	-0.761
802	-0.768
802	-0.767
803	-0.769
803	-0.776
804	-0.77
804	-0.782
804	-0.768
805	-0.773
805	-0.763
806	-0.768
806	-0.751
807	-0.747
807	-0.729
807	-0.714
808	-0.708
808	-0.702
809	-0.686
809	-0.694
810	-0.691
810	-0.685
810	-0.678
811	-0.684
811	-0.676
812	-0.677
812	-0.683
813	-0.686
813	-0.679
813	-0.684
814	-0.687
814	-0.692
815	-0.696
815	-0.701
816	-0.694
816	-0.701
817	-0.707
817	-0.723
817	-0.738
818	-0.749
818	-0.751
819	-0.743
819	-0.743
820	-0.752
820	-0.748
820	-0.757
821	-0.753
821	-0.743
822	-0.713
822	-0.687
823	-0.685
823	-0.689
823	-0.687
824	-0.682
824	-0.684
825	-0.679
825	-0.66
826	-0.655
826	-0.663
826	-0.672
827	-0.666
827	-0.661
828	-0.64
828	-0.639
829	-0.629
829	-0.615
829	-0.605
830	-0.616
830	-0.613
831	-0.603
831	-0.593
832	-0.593
832	-0.585
832	-0.594
833	-0.588
833	-0.589
834	-0.585
834	-0.595
835	-0.581
835	-0.575
835	-0.57
836	-0.566
836	-0.564
837	-0.561
837	-0.551
838	-0.543
838	-0.531
839	-0.52
839	-0.506
839	-0.497
840	-0.487
840	-0.485
841	-0.473
841	-0.463
842	-0.457
842	-0.446
842	-0.437
843	-0.431
843	-0.425
844	-0.415
844	-0.408
845	-0.4
845	-0.388
845	-0.376
846	-0.365
846	-0.35
847	-0.337
847	-0.326
848	-0.314
848	-0.302
848	-0.286
849	-0.273
849	-0.262
850	-0.246
850	-0.239
851	-0.228
851	-0.216
851	-0.206
852	-0.19
852	-0.176
853	-0.166
853	-0.159
854	-0.145
854	-0.131
854	-0.121
855	-0.106
855	-0.099
856	-0.088
856	-0.08
857	-0.073
857	-0.064
857	-0.052
858	-0.039
858	-0.032
859	-0.023
859	-0.011
860	-0.002
860	0.012
860	0.021
861	0.031
861	0.041
862	0.05
862	0.058
863	0.065
863	0.075
863	0.081
864	0.087
864	0.093
865	0.099
865	0.104
866	0.109
866	0.113
866	0.117
867	0.121
867	0.125
868	0.128
868	0.132
869	0.136
869	0.138
869	0.14
870	0.143
870	0.146
871	0.148
871	0.15
872	0.151
872	0.152
872	0.152
873	0.153
873	0.153
874	0.153
874	0.152
875	0.151
875	0.15
875	0.148
876	0.147
876	0.145
877	0.144
877	0.142
878	0.14
878	0.139
878	0.137
879	0.135
879	0.134
880	0.134
880	0.134
881	0.133
881	0.133
881	0.133
882	0.133
882	0.132
883	0.13
883	0.129
884	0.128
884	0.127
884	0.126
885	0.125
885	0.125
886	0.125
886	0.124
887	0.124
887	0.124
887	0.124
888	0.124
888	0.124
889	0.125
889	0.125
890	0.125
890	0.125
890	0.125
891	0.125
891	0.125
892	0.126
892	0.125
893	0.125
893	0.125
893	0.125
894	0.125
894	0.125
895	0.124
895	0.124
895	0.124
896	0.123
896	0.122
897	0.12
897	0.119
898	0.118
898	0.117
898	0.117
899	0.116
899	0.117
900	0.116
900	0.116
901	0.117
901	0.118
901	0.118
902	0.119
902	0.12
903	0.12
903	0.12
904	0.121
904	0.121
904	0.122
905	0.123
905	0.123
906	0.123
906	0.124
907	0.124
907	0.124
907	0.124
908	0.124
908	0.123
909	0.123
909	0.122
910	0.122
910	0.122
910	0.121
911	0.122
911	0.122
912	0.122
912	0.122
913	0.122
913	0.123
913	0.124
914	0.124
914	0.125
915	0.125
915	0.125
916	0.126
916	0.126
916	0.126
917	0.127
917	0.127
918	0.126
918	0.126
918	0.125
919	0.125
919	0.125
920	0.124
920	0.124
921	0.124
921	0.124
921	0.123
922	0.123
922	0.123
923	0.123
923	0.122
924	0.122
924	0.122
924	0.121
925	0.121
925	0.12
926	0.119
926	0.119
927	0.118
927	0.118
927	0.117
928	0.117
928	0.116
929	0.116
929	0.116
930	0.115
930	0.115
930	0.115
931	0.115
931	0.115
932	0.114
932	0.114
933	0.113
933	0.112
933	0.11
934	0.109
934	0.108
935	0.107
935	0.106
935	0.105
936	0.103
936	0.102
937	0.101
937	0.1
938	0.1
938	0.1
938	0.1
939	0.1
939	0.1
940	0.101
940	0.101
941	0.101
941	0.102
941	0.102
942	0.102
942	0.103
943	0.103
943	0.103
944	0.102
944	0.102
944	0.101
945	0.101
945	0.1
946	0.099
946	0.097
946	0.096
947	0.095
947	0.094
948	0.093
948	0.093
949	0.092
949	0.092
949	0.092
950	0.092
950	0.092
951	0.093
951	0.093
952	0.094
952	0.095
952	0.095
953	0.095
953	0.097
954	0.097
954	0.097
955	0.098
955	0.1
955	0.101
956	0.102
956	0.102
957	0.102
957	0.103
957	0.103
958	0.104
958	0.105
959	0.106
959	0.106
960	0.107
960	0.107
960	0.108
961	0.108
961	0.109
962	0.11
962	0.11
963	0.11
963	0.11
963	0.11
964	0.109
964	0.109
965	0.109
965	0.108
966	0.107
966	0.107
966	0.106
967	0.106
967	0.105
968	0.104
968	0.104
968	0.104
969	0.103
969	0.103
970	0.103
970	0.103
971	0.103
971	0.103
971	0.103
972	0.103
972	0.103
973	0.104
973	0.103
974	0.103
974	0.103
974	0.104
975	0.104
975	0.103
976	0.103
976	0.103
976	0.103
977	0.103
977	0.103
978	0.103
978	0.103
979	0.103
979	0.103
979	0.102
980	0.102
980	0.102
981	0.102
981	0.102
982	0.101
982	0.101
982	0.1
983	0.1
983	0.1
984	0.1
984	0.1
984	0.1
985	0.1
985	0.1
986	0.099
986	0.099
987	0.099
987	0.098
987	0.098
988	0.097
988	0.096
989	0.096
989	0.095
990	0.094
990	0.093
990	0.093
991	0.092
991	0.092
992	0.092
992	0.092
992	0.092
993	0.091
993	0.091
994	0.091
994	0.091
995	0.091
995	0.09
995	0.09
996	0.089
996	0.089
997	0.088
997	0.088
997	0.089
998	0.089
998	0.089
999	0.089
999	0.089
1000	0.089
1000	0.089
1000	0.089
1001	0.09
1001	0.09
1002	0.09
1002	0.09
1003	0.089
1003	0.089
1003	0.088
1004	0.088
1004	0.087
1005	0.086
1005	0.085
1005	0.084
1006	0.082
1006	0.081
1007	0.08
1007	0.079
1008	0.078
1008	0.078
1008	0.078
1009	0.077
1009	0.078
1010	0.078
1010	0.078
1010	0.078
1011	0.079
1011	0.078
1012	0.078
1012	0.078
1013	0.077
1013	0.076
1013	0.075
1014	0.074
1014	0.073
1015	0.072
1015	0.072
1016	0.07
1016	0.069
1016	0.068
1017	0.067
1017	0.066
1018	0.066
1018	0.065
1018	0.064
1019	0.063
1019	0.062
1020	0.062
1020	0.061
1021	0.061
1021	0.06
1021	0.059
1022	0.059
1022	0.058
1023	0.058
1023	0.058
1023	0.057
1024	0.057
1024	0.057
1025	0.057
1025	0.057
1026	0.057
1026	0.058
1026	0.058
1027	0.059
1027	0.059
1028	0.059
1028	0.059
1028	0.059
1029	0.059
1029	0.059
1030	0.058
1030	0.058
1031	0.057
1031	0.057
1031	0.057
1032	0.056
1032	0.056
1033	0.056
1033	0.056
1033	0.056
1034	0.056
1034	0.056
1035	0.056
1035	0.056
1036	0.056
1036	0.056
1036	0.056
1037	0.056
1037	0.056
1038	0.056
1038	0.057
1039	0.057
1039	0.057
1039	0.058
1040	0.058
1040	0.059
1041	0.06
1041	0.06
1041	0.061
1042	0.061
1042	0.06
1043	0.06
1043	0.06
1044	0.06
1044	0.059
1044	0.058
1045	0.058
1045	0.057
1046	0.056
1046	0.056
1046	0.056
1047	0.056
1047	0.056
1048	0.056
1048	0.056
1049	0.057
1049	0.057
1049	0.057
1050	0.058
1050	0.058
1051	0.058
1051	0.058
1051	0.059
1052	0.059
1052	0.059
1053	0.06
1053	0.06
1053	0.059
1054	0.059
1054	0.059
1055	0.058
1055	0.058
1056	0.057
1056	0.055
1056	0.054
1057	0.053
1057	0.053
1058	0.052
1058	0.051
1058	0.05
1059	0.05
1059	0.049
1060	0.048
1060	0.048
1061	0.047
1061	0.047
1061	0.047
1062	0.047
1062	0.047
1063	0.047
1063	0.047
1063	0.047
1064	0.047
1064	0.047
1065	0.047
1065	0.047
1066	0.047
1066	0.046
1066	0.046
1067	0.046
1067	0.045
1068	0.045
1068	0.044
1068	0.044
1069	0.043
1069	0.042
1070	0.042
1070	0.042
1071	0.041
1071	0.041
1071	0.04
1072	0.04
1072	0.04
1073	0.04
1073	0.04
1073	0.039
1074	0.04
1074	0.04
1075	0.04
1075	0.039
1076	0.039
1076	0.039
1076	0.038
1077	0.038
1077	0.037
1078	0.036
1078	0.036
1078	0.035
1079	0.034
1079	0.034
1080	0.033
1080	0.032
1080	0.031
1081	0.031
1081	0.03
1082	0.03
1082	0.029
1083	0.028
1083	0.027
1083	0.026
1084	0.025
1084	0.025
1085	0.024
1085	0.023
1085	0.023
1086	0.022
1086	0.021
1087	0.021
1087	0.021
1088	0.02
1088	0.019
1088	0.018
1089	0.017
1089	0.016
1090	0.014
1090	0.013
1090	0.012
1091	0.011
1091	0.01
1092	0.008
1092	0.008
1092	0.007
1093	0.006
1093	0.006
1094	0.005
1094	0.004
1095	0.003
1095	0.003
1095	0.002
1096	0.001
1096	0
1097	-0.001
1097	-0.002
1097	-0.002
1098	-0.004
1098	-0.006
1099	-0.007
1099	-0.008
1100	-0.01
1100	-0.012
1100	-0.014
1101	-0.017
1101	-0.02
1102	-0.023
1102	-0.026
1102	-0.027
1103	-0.029
1103	-0.032
1104	-0.035
1104	-0.037
1104	-0.04
1105	-0.042
1105	-0.045
1106	-0.05
1106	-0.052
1107	-0.056
1107	-0.061
1107	-0.065
1108	-0.068
1108	-0.069
1109	-0.072
1109	-0.076
1109	-0.08
1110	-0.08
1110	-0.081
1111	-0.087
1111	-0.088
