Data from 17C_3.1A_35min_2sec_int_Absorbance__572__02975.txt Node

Date: Mon Jun 19 18:38:39 CEST 2023
User: Marek
Spectrometer: MAYP115816
Trigger mode: 0
Integration Time (sec): 2.500000E-1
Scans to average: 10
Electric dark correction enabled: true
Nonlinearity correction enabled: true
Boxcar width: 5
XAxis mode: Wavelengths
Number of Pixels in Spectrum: 2068
>>>>>Begin Spectral Data<<<<<
199	-0.758
199	-0.773
200	-0.674
200	-0.623
201	-0.583
201	-0.57
202	-0.552
202	-0.536
203	-0.529
203	-0.524
204	-0.51
204	-0.496
205	-0.471
205	-0.468
205	-0.467
206	-0.471
206	-0.474
207	-0.465
207	-0.469
208	-0.469
208	-0.468
209	-0.463
209	-0.463
210	-0.469
210	-0.474
211	-0.473
211	-0.473
212	-0.474
212	-0.482
213	-0.479
213	-0.481
213	-0.485
214	-0.483
214	-0.482
215	-0.481
215	-0.485
216	-0.488
216	-0.496
217	-0.491
217	-0.495
218	-0.497
218	-0.495
219	-0.5
219	-0.509
220	-0.514
220	-0.524
221	-0.523
221	-0.527
221	-0.519
222	-0.518
222	-0.519
223	-0.523
223	-0.529
224	-0.532
224	-0.533
225	-0.527
225	-0.523
226	-0.528
226	-0.529
227	-0.535
227	-0.545
228	-0.545
228	-0.546
229	-0.547
229	-0.541
229	-0.534
230	-0.538
230	-0.54
231	-0.536
231	-0.528
232	-0.522
232	-0.52
233	-0.516
233	-0.516
234	-0.514
234	-0.51
235	-0.515
235	-0.52
236	-0.519
236	-0.522
236	-0.527
237	-0.533
237	-0.534
238	-0.542
238	-0.539
239	-0.54
239	-0.549
240	-0.548
240	-0.545
241	-0.551
241	-0.549
242	-0.554
242	-0.552
243	-0.548
243	-0.549
243	-0.558
244	-0.558
244	-0.558
245	-0.571
245	-0.571
246	-0.577
246	-0.586
247	-0.585
247	-0.588
248	-0.593
248	-0.59
249	-0.594
249	-0.603
250	-0.6
250	-0.595
250	-0.596
251	-0.591
251	-0.587
252	-0.59
252	-0.58
253	-0.586
253	-0.598
254	-0.598
254	-0.594
255	-0.601
255	-0.595
256	-0.595
256	-0.607
257	-0.604
257	-0.603
258	-0.619
258	-0.616
258	-0.61
259	-0.604
259	-0.615
260	-0.617
260	-0.623
261	-0.633
261	-0.622
262	-0.621
262	-0.619
263	-0.609
263	-0.605
264	-0.607
264	-0.615
265	-0.611
265	-0.618
265	-0.621
266	-0.617
266	-0.616
267	-0.628
267	-0.638
268	-0.653
268	-0.66
269	-0.657
269	-0.652
270	-0.656
270	-0.659
271	-0.659
271	-0.664
272	-0.668
272	-0.663
272	-0.656
273	-0.657
273	-0.667
274	-0.673
274	-0.677
275	-0.677
275	-0.671
276	-0.675
276	-0.666
277	-0.67
277	-0.689
278	-0.699
278	-0.692
278	-0.685
279	-0.687
279	-0.701
280	-0.699
280	-0.7
281	-0.697
281	-0.704
282	-0.697
282	-0.697
283	-0.688
283	-0.691
284	-0.687
284	-0.677
285	-0.671
285	-0.667
285	-0.663
286	-0.668
286	-0.664
287	-0.661
287	-0.645
288	-0.637
288	-0.646
289	-0.657
289	-0.664
290	-0.653
290	-0.654
291	-0.651
291	-0.645
292	-0.649
292	-0.653
292	-0.658
293	-0.663
293	-0.651
294	-0.643
294	-0.634
295	-0.631
295	-0.628
296	-0.626
296	-0.624
297	-0.617
297	-0.604
298	-0.594
298	-0.603
298	-0.591
299	-0.584
299	-0.587
300	-0.581
300	-0.578
301	-0.573
301	-0.574
302	-0.582
302	-0.589
303	-0.578
303	-0.564
304	-0.567
304	-0.568
305	-0.569
305	-0.569
305	-0.564
306	-0.55
306	-0.543
307	-0.53
307	-0.531
308	-0.544
308	-0.543
309	-0.546
309	-0.533
310	-0.521
310	-0.518
311	-0.511
311	-0.519
311	-0.514
312	-0.509
312	-0.509
313	-0.497
313	-0.499
314	-0.496
314	-0.498
315	-0.501
315	-0.499
316	-0.497
316	-0.489
317	-0.482
317	-0.479
318	-0.467
318	-0.463
318	-0.457
319	-0.446
319	-0.444
320	-0.437
320	-0.438
321	-0.442
321	-0.44
322	-0.436
322	-0.429
323	-0.429
323	-0.424
324	-0.414
324	-0.406
324	-0.396
325	-0.385
325	-0.368
326	-0.352
326	-0.333
327	-0.317
327	-0.298
328	-0.273
328	-0.254
329	-0.233
329	-0.21
330	-0.182
330	-0.15
330	-0.124
331	-0.096
331	-0.071
332	-0.047
332	-0.024
333	-0.002
333	0.022
334	0.041
334	0.056
335	0.072
335	0.085
336	0.097
336	0.11
336	0.119
337	0.13
337	0.138
338	0.146
338	0.151
339	0.159
339	0.165
340	0.17
340	0.175
341	0.178
341	0.182
342	0.185
342	0.188
342	0.192
343	0.193
343	0.196
344	0.197
344	0.198
345	0.2
345	0.2
346	0.201
346	0.202
347	0.202
347	0.203
348	0.203
348	0.204
348	0.204
349	0.204
349	0.205
350	0.205
350	0.205
351	0.205
351	0.205
352	0.205
352	0.206
353	0.206
353	0.206
354	0.206
354	0.206
354	0.206
355	0.206
355	0.205
356	0.205
356	0.205
357	0.205
357	0.204
358	0.204
358	0.204
359	0.204
359	0.204
360	0.204
360	0.204
360	0.203
361	0.203
361	0.203
362	0.203
362	0.203
363	0.203
363	0.203
364	0.203
364	0.203
365	0.203
365	0.203
366	0.203
366	0.203
366	0.203
367	0.204
367	0.203
368	0.203
368	0.203
369	0.203
369	0.203
370	0.203
370	0.203
371	0.203
371	0.203
372	0.203
372	0.203
372	0.203
373	0.203
373	0.203
374	0.203
374	0.203
375	0.203
375	0.203
376	0.203
376	0.203
377	0.203
377	0.203
378	0.203
378	0.203
378	0.203
379	0.203
379	0.203
380	0.203
380	0.202
381	0.202
381	0.202
382	0.202
382	0.202
383	0.202
383	0.202
383	0.201
384	0.201
384	0.201
385	0.201
385	0.201
386	0.201
386	0.201
387	0.201
387	0.201
388	0.201
388	0.201
389	0.201
389	0.201
389	0.202
390	0.202
390	0.202
391	0.202
391	0.202
392	0.202
392	0.201
393	0.201
393	0.201
394	0.201
394	0.201
394	0.2
395	0.2
395	0.2
396	0.2
396	0.2
397	0.2
397	0.2
398	0.2
398	0.2
399	0.2
399	0.2
400	0.2
400	0.2
400	0.2
401	0.2
401	0.2
402	0.2
402	0.2
403	0.199
403	0.199
404	0.199
404	0.199
405	0.199
405	0.199
405	0.199
406	0.198
406	0.198
407	0.198
407	0.198
408	0.198
408	0.198
409	0.198
409	0.198
410	0.198
410	0.198
411	0.198
411	0.199
411	0.199
412	0.199
412	0.199
413	0.199
413	0.199
414	0.199
414	0.199
415	0.198
415	0.198
416	0.198
416	0.198
416	0.198
417	0.198
417	0.198
418	0.198
418	0.198
419	0.198
419	0.198
420	0.198
420	0.198
421	0.198
421	0.198
421	0.198
422	0.198
422	0.198
423	0.198
423	0.197
424	0.197
424	0.197
425	0.197
425	0.196
426	0.196
426	0.196
427	0.196
427	0.196
427	0.195
428	0.195
428	0.196
429	0.196
429	0.196
430	0.195
430	0.195
431	0.195
431	0.195
432	0.195
432	0.195
432	0.195
433	0.195
433	0.194
434	0.194
434	0.194
435	0.194
435	0.194
436	0.194
436	0.194
437	0.194
437	0.194
437	0.194
438	0.194
438	0.194
439	0.194
439	0.194
440	0.194
440	0.194
441	0.194
441	0.194
442	0.194
442	0.194
442	0.194
443	0.194
443	0.193
444	0.193
444	0.193
445	0.193
445	0.193
446	0.193
446	0.193
447	0.193
447	0.193
447	0.193
448	0.193
448	0.193
449	0.193
449	0.193
450	0.193
450	0.193
451	0.193
451	0.193
452	0.193
452	0.193
452	0.193
453	0.193
453	0.192
454	0.192
454	0.192
455	0.192
455	0.191
456	0.191
456	0.191
457	0.191
457	0.191
458	0.191
458	0.191
458	0.191
459	0.191
459	0.191
460	0.191
460	0.191
461	0.191
461	0.191
462	0.191
462	0.191
463	0.192
463	0.192
463	0.192
464	0.192
464	0.192
465	0.192
465	0.192
466	0.192
466	0.192
467	0.192
467	0.192
467	0.192
468	0.192
468	0.192
469	0.192
469	0.193
470	0.193
470	0.193
471	0.193
471	0.193
472	0.193
472	0.193
472	0.193
473	0.193
473	0.194
474	0.193
474	0.193
475	0.193
475	0.194
476	0.194
476	0.194
477	0.194
477	0.193
477	0.193
478	0.193
478	0.193
479	0.194
479	0.194
480	0.194
480	0.194
481	0.194
481	0.194
482	0.194
482	0.195
482	0.195
483	0.196
483	0.196
484	0.196
484	0.196
485	0.196
485	0.196
486	0.196
486	0.196
487	0.197
487	0.197
487	0.197
488	0.197
488	0.198
489	0.198
489	0.2
490	0.201
490	0.201
491	0.202
491	0.203
492	0.203
492	0.204
492	0.204
493	0.205
493	0.206
494	0.207
494	0.207
495	0.207
495	0.208
496	0.209
496	0.209
496	0.21
497	0.211
497	0.212
498	0.212
498	0.213
499	0.214
499	0.215
500	0.216
500	0.216
501	0.217
501	0.217
501	0.218
502	0.218
502	0.219
503	0.22
503	0.22
504	0.221
504	0.222
505	0.223
505	0.224
506	0.225
506	0.226
506	0.227
507	0.227
507	0.228
508	0.229
508	0.23
509	0.231
509	0.231
510	0.232
510	0.233
511	0.234
511	0.235
511	0.236
512	0.237
512	0.238
513	0.239
513	0.24
514	0.241
514	0.242
515	0.243
515	0.243
515	0.244
516	0.245
516	0.246
517	0.247
517	0.248
518	0.248
518	0.249
519	0.25
519	0.251
520	0.252
520	0.253
520	0.254
521	0.255
521	0.256
522	0.257
522	0.258
523	0.26
523	0.261
524	0.261
524	0.262
524	0.262
525	0.263
525	0.263
526	0.264
526	0.265
527	0.266
527	0.266
528	0.267
528	0.267
529	0.268
529	0.269
529	0.27
530	0.271
530	0.272
531	0.272
531	0.273
532	0.273
532	0.274
533	0.275
533	0.275
533	0.275
534	0.275
534	0.275
535	0.275
535	0.276
536	0.275
536	0.275
537	0.276
537	0.276
538	0.276
538	0.276
538	0.277
539	0.278
539	0.279
540	0.279
540	0.279
541	0.28
541	0.28
542	0.281
542	0.281
542	0.281
543	0.282
543	0.282
544	0.282
544	0.282
545	0.283
545	0.283
546	0.284
546	0.284
547	0.284
547	0.284
547	0.284
548	0.285
548	0.285
549	0.285
549	0.286
550	0.286
550	0.287
551	0.287
551	0.288
551	0.289
552	0.29
552	0.29
553	0.291
553	0.292
554	0.292
554	0.292
555	0.292
555	0.293
556	0.293
556	0.293
556	0.293
557	0.293
557	0.293
558	0.293
558	0.292
559	0.292
559	0.293
560	0.292
560	0.292
560	0.292
561	0.293
561	0.292
562	0.292
562	0.292
563	0.292
563	0.292
564	0.292
564	0.293
564	0.293
565	0.294
565	0.294
566	0.294
566	0.295
567	0.295
567	0.295
568	0.295
568	0.295
568	0.295
569	0.295
569	0.295
570	0.294
570	0.293
571	0.293
571	0.293
572	0.292
572	0.292
573	0.292
573	0.292
573	0.291
574	0.291
574	0.292
575	0.292
575	0.293
576	0.293
576	0.293
577	0.293
577	0.293
577	0.294
578	0.295
578	0.295
579	0.296
579	0.297
580	0.297
580	0.296
581	0.295
581	0.295
581	0.296
582	0.296
582	0.296
583	0.296
583	0.296
584	0.295
584	0.294
585	0.295
585	0.296
585	0.296
586	0.296
586	0.297
587	0.296
587	0.296
588	0.296
588	0.296
589	0.297
589	0.297
590	0.297
590	0.297
590	0.299
591	0.299
591	0.299
592	0.298
592	0.298
593	0.298
593	0.298
594	0.298
594	0.298
594	0.298
595	0.298
595	0.298
596	0.298
596	0.299
597	0.3
597	0.3
598	0.3
598	0.301
598	0.3
599	0.3
599	0.299
600	0.298
600	0.298
601	0.297
601	0.297
602	0.296
602	0.295
602	0.295
603	0.296
603	0.297
604	0.297
604	0.298
605	0.299
605	0.3
606	0.3
606	0.299
606	0.299
607	0.299
607	0.299
608	0.298
608	0.297
609	0.297
609	0.297
610	0.297
610	0.297
610	0.298
611	0.299
611	0.299
612	0.3
612	0.301
613	0.302
613	0.302
614	0.301
614	0.3
614	0.3
615	0.299
615	0.298
616	0.298
616	0.297
617	0.296
617	0.295
618	0.294
618	0.294
618	0.294
619	0.294
619	0.295
620	0.295
620	0.295
621	0.294
621	0.294
622	0.294
622	0.294
622	0.293
623	0.293
623	0.293
624	0.293
624	0.292
625	0.292
625	0.291
626	0.291
626	0.29
626	0.29
627	0.289
627	0.288
628	0.287
628	0.286
629	0.285
629	0.283
630	0.281
630	0.28
630	0.278
631	0.276
631	0.274
632	0.272
632	0.269
633	0.267
633	0.265
634	0.262
634	0.26
634	0.257
635	0.254
635	0.251
636	0.248
636	0.245
637	0.241
637	0.237
638	0.233
638	0.228
638	0.224
639	0.219
639	0.214
640	0.208
640	0.203
641	0.198
641	0.193
642	0.188
642	0.183
642	0.178
643	0.172
643	0.166
644	0.159
644	0.153
645	0.146
645	0.139
646	0.132
646	0.124
646	0.117
647	0.109
647	0.102
648	0.094
648	0.086
649	0.078
649	0.069
650	0.061
650	0.053
650	0.044
651	0.033
651	0.019
652	0.004
652	-0.012
653	-0.027
653	-0.04
653	-0.037
654	-0.015
654	-0.005
655	-0.009
655	-0.014
656	-0.021
656	-0.027
657	-0.032
657	-0.037
657	-0.044
658	-0.05
658	-0.081
659	-0.171
659	-0.273
660	-0.318
660	-0.345
661	-0.374
661	-0.404
661	-0.438
662	-0.469
662	-0.504
663	-0.543
663	-0.584
664	-0.626
664	-0.678
665	-0.728
665	-0.785
665	-0.839
666	-0.896
666	-0.956
667	-1.02
667	-1.084
668	-1.155
668	-1.228
669	-1.301
669	-1.373
669	-1.45
670	-1.517
670	-1.555
671	-1.686
671	-1.968
672	-2.198
672	-2.39
672	-2.52
673	-2.613
673	-2.693
674	-2.737
674	-2.755
675	-2.78
675	-2.92
676	-3.117
676	-3.069
676	-2.845
677	-2.641
677	-2.478
678	-2.302
678	-2.004
679	-1.716
679	-1.579
680	-1.484
680	-1.401
680	-1.331
681	-1.286
681	-1.228
682	-1.19
682	-1.154
683	-1.121
683	-1.105
684	-1.086
684	-1.068
684	-1.045
685	-1.022
685	-1.001
686	-0.977
686	-0.962
687	-0.936
687	-0.925
687	-0.906
688	-0.881
688	-0.861
689	-0.841
689	-0.828
690	-0.81
690	-0.797
691	-0.792
691	-0.798
691	-0.815
692	-0.805
692	-0.797
693	-0.792
693	-0.8
694	-0.794
694	-0.79
695	-0.796
695	-0.796
695	-0.778
696	-0.773
696	-0.752
697	-0.754
697	-0.769
698	-0.772
698	-0.762
698	-0.775
699	-0.779
699	-0.775
700	-0.767
700	-0.783
701	-0.784
701	-0.79
702	-0.792
702	-0.781
702	-0.775
703	-0.768
703	-0.76
704	-0.754
704	-0.754
705	-0.765
705	-0.757
705	-0.745
706	-0.744
706	-0.739
707	-0.741
707	-0.736
708	-0.735
708	-0.727
709	-0.729
709	-0.733
709	-0.725
710	-0.733
710	-0.744
711	-0.736
711	-0.736
712	-0.736
712	-0.749
713	-0.747
713	-0.756
713	-0.747
714	-0.741
714	-0.744
715	-0.735
715	-0.72
716	-0.728
716	-0.73
716	-0.726
717	-0.727
717	-0.732
718	-0.72
718	-0.722
719	-0.729
719	-0.729
720	-0.723
720	-0.733
720	-0.726
721	-0.716
721	-0.714
722	-0.7
722	-0.688
723	-0.69
723	-0.693
723	-0.681
724	-0.683
724	-0.69
725	-0.689
725	-0.697
726	-0.71
726	-0.716
727	-0.72
727	-0.738
727	-0.744
728	-0.745
728	-0.75
729	-0.751
729	-0.756
730	-0.762
730	-0.754
730	-0.744
731	-0.726
731	-0.737
732	-0.74
732	-0.74
733	-0.739
733	-0.744
734	-0.737
734	-0.737
734	-0.723
735	-0.722
735	-0.724
736	-0.735
736	-0.721
737	-0.713
737	-0.715
737	-0.724
738	-0.718
738	-0.716
739	-0.712
739	-0.728
740	-0.729
740	-0.728
741	-0.722
741	-0.724
741	-0.727
742	-0.725
742	-0.725
743	-0.736
743	-0.742
744	-0.738
744	-0.726
744	-0.728
745	-0.735
745	-0.729
746	-0.726
746	-0.724
747	-0.725
747	-0.712
748	-0.697
748	-0.703
748	-0.706
749	-0.704
749	-0.705
750	-0.695
750	-0.697
751	-0.703
751	-0.711
751	-0.713
752	-0.719
752	-0.729
753	-0.722
753	-0.719
754	-0.725
754	-0.719
754	-0.731
755	-0.745
755	-0.755
756	-0.744
756	-0.739
757	-0.736
757	-0.73
758	-0.734
758	-0.732
758	-0.735
759	-0.742
759	-0.727
760	-0.721
760	-0.717
761	-0.73
761	-0.73
761	-0.73
762	-0.737
762	-0.737
763	-0.746
763	-0.742
764	-0.738
764	-0.746
764	-0.753
765	-0.743
765	-0.729
766	-0.736
766	-0.741
767	-0.755
767	-0.748
768	-0.74
768	-0.748
768	-0.753
769	-0.769
769	-0.769
770	-0.773
770	-0.785
771	-0.783
771	-0.785
771	-0.787
772	-0.791
772	-0.788
773	-0.787
773	-0.782
774	-0.783
774	-0.782
775	-0.784
775	-0.778
775	-0.785
776	-0.783
776	-0.774
777	-0.782
777	-0.804
778	-0.802
778	-0.821
778	-0.806
779	-0.829
779	-0.838
780	-0.853
780	-0.853
781	-0.869
781	-0.863
781	-0.88
782	-0.881
782	-0.884
783	-0.871
783	-0.871
784	-0.852
784	-0.842
784	-0.852
785	-0.857
785	-0.84
786	-0.845
786	-0.822
787	-0.806
787	-0.805
788	-0.808
788	-0.817
788	-0.827
789	-0.829
789	-0.811
790	-0.791
790	-0.796
791	-0.799
791	-0.817
791	-0.825
792	-0.821
792	-0.799
793	-0.789
793	-0.765
794	-0.768
794	-0.759
794	-0.771
795	-0.765
795	-0.755
796	-0.739
796	-0.746
797	-0.739
797	-0.752
797	-0.758
798	-0.773
798	-0.767
799	-0.778
799	-0.762
800	-0.768
800	-0.762
801	-0.767
801	-0.751
801	-0.761
802	-0.767
802	-0.768
803	-0.768
803	-0.777
804	-0.771
804	-0.78
804	-0.766
805	-0.769
805	-0.759
806	-0.763
806	-0.749
807	-0.748
807	-0.729
807	-0.716
808	-0.707
808	-0.702
809	-0.688
809	-0.698
810	-0.697
810	-0.687
810	-0.683
811	-0.69
811	-0.682
812	-0.684
812	-0.688
813	-0.693
813	-0.688
813	-0.692
814	-0.695
814	-0.7
815	-0.706
815	-0.711
816	-0.702
816	-0.705
817	-0.712
817	-0.728
817	-0.741
818	-0.747
818	-0.75
819	-0.741
819	-0.744
820	-0.753
820	-0.751
820	-0.762
821	-0.762
821	-0.751
822	-0.72
822	-0.698
823	-0.697
823	-0.7
823	-0.696
824	-0.689
824	-0.691
825	-0.681
825	-0.662
826	-0.657
826	-0.665
826	-0.673
827	-0.666
827	-0.662
828	-0.643
828	-0.644
829	-0.633
829	-0.619
829	-0.614
830	-0.622
830	-0.617
831	-0.608
831	-0.599
832	-0.599
832	-0.59
832	-0.597
833	-0.591
833	-0.592
834	-0.589
834	-0.596
835	-0.584
835	-0.581
835	-0.577
836	-0.572
836	-0.568
837	-0.565
837	-0.555
838	-0.548
838	-0.535
839	-0.523
839	-0.51
839	-0.498
840	-0.487
840	-0.482
841	-0.473
841	-0.464
842	-0.459
842	-0.448
842	-0.439
843	-0.431
843	-0.425
844	-0.416
844	-0.41
845	-0.401
845	-0.39
845	-0.375
846	-0.363
846	-0.347
847	-0.336
847	-0.325
848	-0.313
848	-0.302
848	-0.286
849	-0.274
849	-0.261
850	-0.247
850	-0.242
851	-0.231
851	-0.219
851	-0.209
852	-0.192
852	-0.179
853	-0.17
853	-0.164
854	-0.15
854	-0.137
854	-0.125
855	-0.112
855	-0.104
856	-0.094
856	-0.084
857	-0.076
857	-0.067
857	-0.055
858	-0.041
858	-0.035
859	-0.026
859	-0.015
860	-0.004
860	0.01
860	0.019
861	0.028
861	0.038
862	0.047
862	0.055
863	0.062
863	0.072
863	0.079
864	0.085
864	0.092
865	0.098
865	0.103
866	0.108
866	0.112
866	0.116
867	0.12
867	0.124
868	0.127
868	0.13
869	0.134
869	0.137
869	0.139
870	0.142
870	0.144
871	0.147
871	0.149
872	0.15
872	0.15
872	0.151
873	0.152
873	0.152
874	0.151
874	0.151
875	0.149
875	0.148
875	0.147
876	0.146
876	0.144
877	0.143
877	0.141
878	0.14
878	0.138
878	0.136
879	0.135
879	0.134
880	0.133
880	0.133
881	0.133
881	0.133
881	0.133
882	0.132
882	0.131
883	0.13
883	0.128
884	0.128
884	0.126
884	0.126
885	0.125
885	0.124
886	0.124
886	0.123
887	0.123
887	0.123
887	0.123
888	0.124
888	0.123
889	0.124
889	0.124
890	0.124
890	0.124
890	0.124
891	0.124
891	0.124
892	0.124
892	0.124
893	0.124
893	0.123
893	0.123
894	0.123
894	0.123
895	0.123
895	0.123
895	0.122
896	0.121
896	0.12
897	0.119
897	0.118
898	0.117
898	0.116
898	0.116
899	0.116
899	0.116
900	0.116
900	0.116
901	0.117
901	0.117
901	0.118
902	0.119
902	0.12
903	0.12
903	0.12
904	0.121
904	0.121
904	0.122
905	0.123
905	0.123
906	0.123
906	0.123
907	0.124
907	0.123
907	0.123
908	0.123
908	0.122
909	0.121
909	0.121
910	0.12
910	0.12
910	0.119
911	0.12
911	0.12
912	0.12
912	0.12
913	0.121
913	0.121
913	0.122
914	0.123
914	0.124
915	0.124
915	0.125
916	0.125
916	0.125
916	0.126
917	0.126
917	0.126
918	0.126
918	0.126
918	0.125
919	0.125
919	0.124
920	0.124
920	0.124
921	0.124
921	0.124
921	0.124
922	0.123
922	0.123
923	0.123
923	0.123
924	0.123
924	0.122
924	0.122
925	0.121
925	0.12
926	0.119
926	0.118
927	0.118
927	0.117
927	0.117
928	0.116
928	0.116
929	0.115
929	0.115
930	0.114
930	0.114
930	0.113
931	0.113
931	0.113
932	0.113
932	0.112
933	0.111
933	0.109
933	0.108
934	0.107
934	0.106
935	0.105
935	0.104
935	0.103
936	0.102
936	0.1
937	0.099
937	0.099
938	0.099
938	0.099
938	0.098
939	0.098
939	0.099
940	0.099
940	0.099
941	0.1
941	0.1
941	0.101
942	0.101
942	0.102
943	0.102
943	0.102
944	0.101
944	0.101
944	0.1
945	0.099
945	0.098
946	0.097
946	0.095
946	0.094
947	0.092
947	0.091
948	0.091
948	0.091
949	0.09
949	0.09
949	0.09
950	0.091
950	0.09
951	0.092
951	0.092
952	0.093
952	0.094
952	0.094
953	0.095
953	0.096
954	0.096
954	0.097
955	0.098
955	0.099
955	0.1
956	0.1
956	0.101
957	0.101
957	0.101
957	0.102
958	0.102
958	0.103
959	0.104
959	0.104
960	0.105
960	0.105
960	0.106
961	0.106
961	0.107
962	0.107
962	0.107
963	0.108
963	0.107
963	0.107
964	0.107
964	0.107
965	0.107
965	0.106
966	0.106
966	0.105
966	0.105
967	0.104
967	0.104
968	0.103
968	0.102
968	0.102
969	0.101
969	0.101
970	0.101
970	0.101
971	0.101
971	0.101
971	0.101
972	0.101
972	0.102
973	0.102
973	0.102
974	0.102
974	0.102
974	0.102
975	0.102
975	0.102
976	0.101
976	0.101
976	0.101
977	0.101
977	0.101
978	0.102
978	0.102
979	0.101
979	0.101
979	0.101
980	0.101
980	0.101
981	0.1
981	0.1
982	0.1
982	0.099
982	0.099
983	0.099
983	0.099
984	0.098
984	0.098
984	0.098
985	0.098
985	0.098
986	0.097
986	0.097
987	0.097
987	0.096
987	0.096
988	0.095
988	0.094
989	0.093
989	0.092
990	0.092
990	0.091
990	0.091
991	0.09
991	0.09
992	0.09
992	0.09
992	0.089
993	0.089
993	0.089
994	0.089
994	0.089
995	0.089
995	0.088
995	0.088
996	0.088
996	0.087
997	0.086
997	0.086
997	0.086
998	0.086
998	0.086
999	0.087
999	0.087
1000	0.087
1000	0.087
1000	0.087
1001	0.087
1001	0.088
1002	0.088
1002	0.088
1003	0.088
1003	0.087
1003	0.087
1004	0.086
1004	0.086
1005	0.085
1005	0.084
1005	0.083
1006	0.081
1006	0.08
1007	0.079
1007	0.078
1008	0.077
1008	0.077
1008	0.076
1009	0.076
1009	0.076
1010	0.076
1010	0.076
1010	0.076
1011	0.076
1011	0.076
1012	0.077
1012	0.076
1013	0.076
1013	0.075
1013	0.074
1014	0.073
1014	0.072
1015	0.071
1015	0.071
1016	0.07
1016	0.069
1016	0.068
1017	0.067
1017	0.066
1018	0.065
1018	0.064
1018	0.063
1019	0.063
1019	0.062
1020	0.061
1020	0.06
1021	0.06
1021	0.059
1021	0.058
1022	0.058
1022	0.057
1023	0.057
1023	0.057
1023	0.056
1024	0.056
1024	0.056
1025	0.056
1025	0.056
1026	0.056
1026	0.057
1026	0.057
1027	0.057
1027	0.057
1028	0.057
1028	0.057
1028	0.057
1029	0.057
1029	0.057
1030	0.057
1030	0.056
1031	0.056
1031	0.056
1031	0.056
1032	0.055
1032	0.055
1033	0.055
1033	0.056
1033	0.056
1034	0.055
1034	0.055
1035	0.056
1035	0.055
1036	0.055
1036	0.055
1036	0.055
1037	0.055
1037	0.055
1038	0.055
1038	0.055
1039	0.056
1039	0.056
1039	0.057
1040	0.057
1040	0.058
1041	0.058
1041	0.059
1041	0.059
1042	0.059
1042	0.059
1043	0.059
1043	0.059
1044	0.058
1044	0.057
1044	0.057
1045	0.056
1045	0.055
1046	0.055
1046	0.054
1046	0.054
1047	0.054
1047	0.054
1048	0.054
1048	0.055
1049	0.055
1049	0.055
1049	0.055
1050	0.056
1050	0.056
1051	0.056
1051	0.057
1051	0.057
1052	0.058
1052	0.058
1053	0.058
1053	0.058
1053	0.058
1054	0.058
1054	0.058
1055	0.057
1055	0.057
1056	0.056
1056	0.055
1056	0.054
1057	0.053
1057	0.052
1058	0.051
1058	0.05
1058	0.05
1059	0.049
1059	0.047
1060	0.046
1060	0.046
1061	0.045
1061	0.045
1061	0.045
1062	0.045
1062	0.044
1063	0.044
1063	0.044
1063	0.045
1064	0.045
1064	0.045
1065	0.045
1065	0.045
1066	0.045
1066	0.045
1066	0.044
1067	0.044
1067	0.044
1068	0.043
1068	0.043
1068	0.042
1069	0.041
1069	0.04
1070	0.04
1070	0.039
1071	0.039
1071	0.038
1071	0.038
1072	0.037
1072	0.037
1073	0.036
1073	0.037
1073	0.036
1074	0.037
1074	0.038
1075	0.037
1075	0.037
1076	0.037
1076	0.036
1076	0.036
1077	0.035
1077	0.035
1078	0.034
1078	0.033
1078	0.032
1079	0.031
1079	0.031
1080	0.029
1080	0.029
1080	0.028
1081	0.027
1081	0.027
1082	0.026
1082	0.025
1083	0.024
1083	0.024
1083	0.023
1084	0.022
1084	0.021
1085	0.02
1085	0.019
1085	0.019
1086	0.018
1086	0.017
1087	0.017
1087	0.017
1088	0.016
1088	0.016
1088	0.015
1089	0.014
1089	0.013
1090	0.012
1090	0.01
1090	0.009
1091	0.008
1091	0.008
1092	0.007
1092	0.007
1092	0.005
1093	0.004
1093	0.005
1094	0.004
1094	0.004
1095	0.002
1095	0.002
1095	0.002
1096	0.001
1096	-0.001
1097	-0.002
1097	-0.004
1097	-0.004
1098	-0.006
1098	-0.008
1099	-0.009
1099	-0.01
1100	-0.012
1100	-0.014
1100	-0.017
1101	-0.019
1101	-0.021
1102	-0.023
1102	-0.026
1102	-0.027
1103	-0.03
1103	-0.032
1104	-0.034
1104	-0.037
1104	-0.04
1105	-0.041
1105	-0.046
1106	-0.051
1106	-0.054
1107	-0.059
1107	-0.063
1107	-0.069
1108	-0.071
1108	-0.074
1109	-0.077
1109	-0.082
1109	-0.085
1110	-0.086
1110	-0.088
1111	-0.093
1111	-0.09
