Data from 17C_3.1A_35min_2sec_int_Absorbance__122__02525.txt Node

Date: Mon Jun 19 18:19:54 CEST 2023
User: Marek
Spectrometer: MAYP115816
Trigger mode: 0
Integration Time (sec): 2.500000E-1
Scans to average: 10
Electric dark correction enabled: true
Nonlinearity correction enabled: true
Boxcar width: 5
XAxis mode: Wavelengths
Number of Pixels in Spectrum: 2068
>>>>>Begin Spectral Data<<<<<
199	-0.759
199	-0.762
200	-0.663
200	-0.607
201	-0.572
201	-0.558
202	-0.538
202	-0.524
203	-0.515
203	-0.513
204	-0.501
204	-0.486
205	-0.462
205	-0.458
205	-0.456
206	-0.457
206	-0.46
207	-0.451
207	-0.454
208	-0.458
208	-0.456
209	-0.448
209	-0.449
210	-0.455
210	-0.461
211	-0.464
211	-0.467
212	-0.47
212	-0.48
213	-0.479
213	-0.477
213	-0.482
214	-0.48
214	-0.479
215	-0.478
215	-0.483
216	-0.486
216	-0.494
217	-0.491
217	-0.494
218	-0.498
218	-0.499
219	-0.502
219	-0.512
220	-0.519
220	-0.53
221	-0.529
221	-0.532
221	-0.523
222	-0.518
222	-0.518
223	-0.518
223	-0.521
224	-0.527
224	-0.524
225	-0.521
225	-0.514
226	-0.52
226	-0.518
227	-0.525
227	-0.534
228	-0.536
228	-0.537
229	-0.538
229	-0.531
229	-0.527
230	-0.53
230	-0.532
231	-0.524
231	-0.519
232	-0.513
232	-0.512
233	-0.504
233	-0.506
234	-0.504
234	-0.501
235	-0.504
235	-0.509
236	-0.509
236	-0.512
236	-0.518
237	-0.525
237	-0.526
238	-0.535
238	-0.531
239	-0.531
239	-0.54
240	-0.54
240	-0.537
241	-0.542
241	-0.541
242	-0.545
242	-0.54
243	-0.536
243	-0.539
243	-0.549
244	-0.55
244	-0.548
245	-0.561
245	-0.562
246	-0.566
246	-0.574
247	-0.575
247	-0.578
248	-0.585
248	-0.581
249	-0.583
249	-0.59
250	-0.588
250	-0.584
250	-0.584
251	-0.578
251	-0.576
252	-0.579
252	-0.571
253	-0.577
253	-0.59
254	-0.585
254	-0.582
255	-0.59
255	-0.584
256	-0.581
256	-0.597
257	-0.595
257	-0.592
258	-0.608
258	-0.604
258	-0.6
259	-0.601
259	-0.61
260	-0.611
260	-0.617
261	-0.628
261	-0.617
262	-0.614
262	-0.614
263	-0.603
263	-0.597
264	-0.598
264	-0.605
265	-0.6
265	-0.607
265	-0.609
266	-0.606
266	-0.604
267	-0.619
267	-0.629
268	-0.644
268	-0.654
269	-0.651
269	-0.647
270	-0.651
270	-0.654
271	-0.654
271	-0.66
272	-0.663
272	-0.655
272	-0.648
273	-0.646
273	-0.655
274	-0.659
274	-0.66
275	-0.66
275	-0.653
276	-0.658
276	-0.651
277	-0.655
277	-0.674
278	-0.684
278	-0.676
278	-0.67
279	-0.674
279	-0.683
280	-0.684
280	-0.684
281	-0.678
281	-0.686
282	-0.678
282	-0.678
283	-0.669
283	-0.672
284	-0.666
284	-0.655
285	-0.652
285	-0.649
285	-0.645
286	-0.652
286	-0.646
287	-0.643
287	-0.629
288	-0.619
288	-0.631
289	-0.643
289	-0.655
290	-0.645
290	-0.644
291	-0.642
291	-0.635
292	-0.638
292	-0.645
292	-0.648
293	-0.653
293	-0.638
294	-0.626
294	-0.617
295	-0.613
295	-0.609
296	-0.608
296	-0.604
297	-0.598
297	-0.581
298	-0.573
298	-0.582
298	-0.572
299	-0.565
299	-0.565
300	-0.558
300	-0.554
301	-0.548
301	-0.546
302	-0.552
302	-0.562
303	-0.55
303	-0.534
304	-0.538
304	-0.538
305	-0.54
305	-0.542
305	-0.54
306	-0.526
306	-0.524
307	-0.513
307	-0.515
308	-0.528
308	-0.529
309	-0.529
309	-0.518
310	-0.507
310	-0.504
311	-0.494
311	-0.501
311	-0.497
312	-0.493
312	-0.489
313	-0.475
313	-0.476
314	-0.473
314	-0.474
315	-0.476
315	-0.472
316	-0.469
316	-0.462
317	-0.457
317	-0.452
318	-0.441
318	-0.438
318	-0.433
319	-0.423
319	-0.419
320	-0.41
320	-0.413
321	-0.418
321	-0.416
322	-0.409
322	-0.402
323	-0.4
323	-0.394
324	-0.387
324	-0.378
324	-0.369
325	-0.36
325	-0.342
326	-0.327
326	-0.309
327	-0.293
327	-0.273
328	-0.246
328	-0.226
329	-0.201
329	-0.175
330	-0.145
330	-0.11
330	-0.08
331	-0.049
331	-0.019
332	0.01
332	0.036
333	0.061
333	0.089
334	0.113
334	0.133
335	0.153
335	0.17
336	0.187
336	0.203
336	0.215
337	0.228
337	0.239
338	0.25
338	0.256
339	0.265
339	0.273
340	0.279
340	0.284
341	0.288
341	0.292
342	0.297
342	0.3
342	0.304
343	0.306
343	0.31
344	0.312
344	0.312
345	0.314
345	0.315
346	0.316
346	0.317
347	0.318
347	0.319
348	0.319
348	0.32
348	0.321
349	0.321
349	0.322
350	0.322
350	0.322
351	0.323
351	0.323
352	0.323
352	0.323
353	0.323
353	0.322
354	0.322
354	0.322
354	0.322
355	0.322
355	0.322
356	0.321
356	0.321
357	0.321
357	0.321
358	0.321
358	0.321
359	0.32
359	0.32
360	0.32
360	0.32
360	0.319
361	0.319
361	0.319
362	0.319
362	0.319
363	0.318
363	0.318
364	0.318
364	0.318
365	0.318
365	0.318
366	0.318
366	0.318
366	0.318
367	0.318
367	0.318
368	0.318
368	0.317
369	0.317
369	0.317
370	0.317
370	0.317
371	0.316
371	0.316
372	0.316
372	0.316
372	0.316
373	0.316
373	0.315
374	0.315
374	0.315
375	0.315
375	0.315
376	0.315
376	0.315
377	0.315
377	0.315
378	0.314
378	0.314
378	0.314
379	0.314
379	0.313
380	0.313
380	0.313
381	0.313
381	0.312
382	0.312
382	0.312
383	0.311
383	0.311
383	0.311
384	0.31
384	0.31
385	0.31
385	0.31
386	0.31
386	0.31
387	0.31
387	0.31
388	0.31
388	0.31
389	0.31
389	0.31
389	0.31
390	0.31
390	0.31
391	0.309
391	0.309
392	0.309
392	0.309
393	0.308
393	0.308
394	0.308
394	0.307
394	0.307
395	0.307
395	0.306
396	0.306
396	0.306
397	0.306
397	0.306
398	0.305
398	0.305
399	0.305
399	0.305
400	0.305
400	0.305
400	0.304
401	0.304
401	0.304
402	0.304
402	0.303
403	0.303
403	0.303
404	0.303
404	0.302
405	0.302
405	0.302
405	0.301
406	0.301
406	0.301
407	0.301
407	0.301
408	0.301
408	0.3
409	0.3
409	0.3
410	0.3
410	0.3
411	0.3
411	0.3
411	0.3
412	0.3
412	0.299
413	0.299
413	0.299
414	0.299
414	0.299
415	0.298
415	0.298
416	0.298
416	0.298
416	0.298
417	0.297
417	0.297
418	0.297
418	0.297
419	0.297
419	0.297
420	0.297
420	0.297
421	0.297
421	0.297
421	0.297
422	0.297
422	0.297
423	0.296
423	0.296
424	0.295
424	0.295
425	0.294
425	0.294
426	0.293
426	0.293
427	0.293
427	0.293
427	0.293
428	0.293
428	0.293
429	0.293
429	0.293
430	0.293
430	0.293
431	0.293
431	0.292
432	0.292
432	0.292
432	0.292
433	0.291
433	0.291
434	0.291
434	0.291
435	0.291
435	0.291
436	0.29
436	0.29
437	0.29
437	0.29
437	0.29
438	0.29
438	0.29
439	0.29
439	0.29
440	0.29
440	0.29
441	0.289
441	0.289
442	0.289
442	0.289
442	0.289
443	0.289
443	0.289
444	0.289
444	0.289
445	0.289
445	0.289
446	0.289
446	0.289
447	0.289
447	0.289
447	0.289
448	0.289
448	0.289
449	0.289
449	0.289
450	0.289
450	0.289
451	0.289
451	0.289
452	0.289
452	0.289
452	0.289
453	0.288
453	0.288
454	0.288
454	0.288
455	0.288
455	0.288
456	0.288
456	0.288
457	0.288
457	0.288
458	0.288
458	0.288
458	0.288
459	0.288
459	0.288
460	0.288
460	0.288
461	0.288
461	0.288
462	0.288
462	0.289
463	0.289
463	0.289
463	0.289
464	0.289
464	0.289
465	0.289
465	0.29
466	0.29
466	0.29
467	0.29
467	0.29
467	0.29
468	0.29
468	0.291
469	0.291
469	0.291
470	0.292
470	0.292
471	0.292
471	0.293
472	0.293
472	0.293
472	0.294
473	0.294
473	0.295
474	0.295
474	0.295
475	0.296
475	0.296
476	0.297
476	0.297
477	0.298
477	0.298
477	0.298
478	0.299
478	0.299
479	0.3
479	0.301
480	0.301
480	0.302
481	0.302
481	0.303
482	0.304
482	0.304
482	0.305
483	0.306
483	0.307
484	0.307
484	0.307
485	0.308
485	0.309
486	0.309
486	0.31
487	0.311
487	0.312
487	0.313
488	0.314
488	0.315
489	0.317
489	0.319
490	0.32
490	0.322
491	0.323
491	0.324
492	0.326
492	0.327
492	0.328
493	0.33
493	0.331
494	0.333
494	0.334
495	0.335
495	0.337
496	0.338
496	0.34
496	0.342
497	0.344
497	0.346
498	0.347
498	0.349
499	0.351
499	0.353
500	0.355
500	0.357
501	0.359
501	0.361
501	0.363
502	0.364
502	0.366
503	0.368
503	0.37
504	0.372
504	0.374
505	0.376
505	0.378
506	0.38
506	0.382
506	0.384
507	0.386
507	0.388
508	0.39
508	0.392
509	0.394
509	0.396
510	0.399
510	0.401
511	0.403
511	0.405
511	0.407
512	0.41
512	0.412
513	0.414
513	0.416
514	0.418
514	0.42
515	0.422
515	0.424
515	0.426
516	0.429
516	0.431
517	0.433
517	0.435
518	0.437
518	0.439
519	0.441
519	0.442
520	0.445
520	0.447
520	0.449
521	0.451
521	0.453
522	0.455
522	0.457
523	0.459
523	0.461
524	0.463
524	0.464
524	0.465
525	0.467
525	0.468
526	0.469
526	0.471
527	0.472
527	0.473
528	0.474
528	0.475
529	0.477
529	0.478
529	0.48
530	0.482
530	0.483
531	0.484
531	0.484
532	0.485
532	0.486
533	0.487
533	0.488
533	0.489
534	0.489
534	0.49
535	0.49
535	0.491
536	0.491
536	0.491
537	0.491
537	0.492
538	0.492
538	0.492
538	0.493
539	0.493
539	0.494
540	0.494
540	0.494
541	0.494
541	0.495
542	0.495
542	0.495
542	0.494
543	0.494
543	0.494
544	0.493
544	0.493
545	0.493
545	0.493
546	0.493
546	0.492
547	0.491
547	0.491
547	0.491
548	0.491
548	0.491
549	0.491
549	0.491
550	0.49
550	0.49
551	0.49
551	0.49
551	0.491
552	0.491
552	0.491
553	0.491
553	0.491
554	0.49
554	0.49
555	0.489
555	0.489
556	0.488
556	0.488
556	0.487
557	0.486
557	0.485
558	0.484
558	0.484
559	0.483
559	0.482
560	0.481
560	0.48
560	0.48
561	0.479
561	0.478
562	0.477
562	0.476
563	0.475
563	0.474
564	0.473
564	0.473
564	0.472
565	0.472
565	0.472
566	0.471
566	0.471
567	0.47
567	0.469
568	0.468
568	0.467
568	0.466
569	0.465
569	0.464
570	0.462
570	0.46
571	0.459
571	0.458
572	0.457
572	0.456
573	0.455
573	0.454
573	0.452
574	0.452
574	0.451
575	0.45
575	0.45
576	0.449
576	0.447
577	0.447
577	0.446
577	0.446
578	0.445
578	0.445
579	0.444
579	0.443
580	0.441
580	0.439
581	0.438
581	0.437
581	0.436
582	0.436
582	0.435
583	0.434
583	0.432
584	0.43
584	0.429
585	0.429
585	0.428
585	0.427
586	0.426
586	0.425
587	0.424
587	0.422
588	0.421
588	0.42
589	0.419
589	0.418
590	0.417
590	0.415
590	0.415
591	0.414
591	0.411
592	0.41
592	0.408
593	0.407
593	0.406
594	0.405
594	0.403
594	0.402
595	0.402
595	0.4
596	0.398
596	0.398
597	0.398
597	0.396
598	0.395
598	0.394
598	0.392
599	0.391
599	0.389
600	0.387
600	0.385
601	0.384
601	0.382
602	0.38
602	0.378
602	0.377
603	0.376
603	0.375
604	0.374
604	0.373
605	0.372
605	0.372
606	0.37
606	0.369
606	0.367
607	0.366
607	0.365
608	0.363
608	0.36
609	0.359
609	0.358
610	0.356
610	0.354
610	0.353
611	0.353
611	0.352
612	0.352
612	0.352
613	0.351
613	0.35
614	0.348
614	0.346
614	0.345
615	0.343
615	0.341
616	0.34
616	0.338
617	0.335
617	0.333
618	0.331
618	0.329
618	0.327
619	0.326
619	0.325
620	0.324
620	0.323
621	0.321
621	0.32
622	0.318
622	0.317
622	0.314
623	0.313
623	0.312
624	0.31
624	0.308
625	0.306
625	0.304
626	0.302
626	0.3
626	0.298
627	0.297
627	0.294
628	0.292
628	0.289
629	0.286
629	0.283
630	0.28
630	0.276
630	0.273
631	0.269
631	0.265
632	0.261
632	0.257
633	0.252
633	0.248
634	0.243
634	0.239
634	0.235
635	0.23
635	0.225
636	0.219
636	0.214
637	0.208
637	0.201
638	0.195
638	0.188
638	0.182
639	0.174
639	0.166
640	0.158
640	0.151
641	0.143
641	0.136
642	0.128
642	0.121
642	0.113
643	0.105
643	0.097
644	0.088
644	0.079
645	0.07
645	0.062
646	0.053
646	0.044
646	0.035
647	0.026
647	0.017
648	0.008
648	-0.001
649	-0.01
649	-0.019
650	-0.027
650	-0.036
650	-0.046
651	-0.057
651	-0.071
652	-0.088
652	-0.105
653	-0.12
653	-0.132
653	-0.128
654	-0.103
654	-0.089
655	-0.091
655	-0.096
656	-0.1
656	-0.106
657	-0.109
657	-0.112
657	-0.117
658	-0.123
658	-0.152
659	-0.243
659	-0.348
660	-0.394
660	-0.42
661	-0.449
661	-0.479
661	-0.514
662	-0.548
662	-0.584
663	-0.624
663	-0.667
664	-0.712
664	-0.766
665	-0.818
665	-0.878
665	-0.934
666	-0.993
666	-1.056
667	-1.121
667	-1.188
668	-1.261
668	-1.337
669	-1.413
669	-1.491
669	-1.576
670	-1.67
670	-1.825
671	-2.012
671	-2.169
672	-2.342
672	-2.501
672	-2.61
673	-2.688
673	-2.757
674	-2.789
674	-2.805
675	-2.826
675	-2.947
676	-3.109
676	-3.059
676	-2.833
677	-2.627
677	-2.46
678	-2.275
678	-1.949
679	-1.718
679	-1.597
680	-1.508
680	-1.43
680	-1.364
681	-1.32
681	-1.263
682	-1.226
682	-1.188
683	-1.154
683	-1.138
684	-1.117
684	-1.097
684	-1.075
685	-1.051
685	-1.029
686	-1.004
686	-0.988
687	-0.961
687	-0.95
687	-0.929
688	-0.903
688	-0.881
689	-0.862
689	-0.848
690	-0.829
690	-0.817
691	-0.811
691	-0.816
691	-0.832
692	-0.824
692	-0.816
693	-0.81
693	-0.819
694	-0.814
694	-0.808
695	-0.812
695	-0.809
695	-0.792
696	-0.788
696	-0.766
697	-0.766
697	-0.779
698	-0.783
698	-0.773
698	-0.785
699	-0.789
699	-0.786
700	-0.776
700	-0.791
701	-0.788
701	-0.795
702	-0.796
702	-0.786
702	-0.777
703	-0.77
703	-0.763
704	-0.759
704	-0.758
705	-0.772
705	-0.764
705	-0.754
706	-0.754
706	-0.748
707	-0.752
707	-0.746
708	-0.746
708	-0.739
709	-0.741
709	-0.742
709	-0.731
710	-0.739
710	-0.748
711	-0.739
711	-0.742
712	-0.741
712	-0.753
713	-0.75
713	-0.755
713	-0.746
714	-0.745
714	-0.747
715	-0.739
715	-0.725
716	-0.733
716	-0.733
716	-0.727
717	-0.73
717	-0.732
718	-0.724
718	-0.725
719	-0.732
719	-0.732
720	-0.727
720	-0.737
720	-0.73
721	-0.719
721	-0.717
722	-0.704
722	-0.694
723	-0.69
723	-0.694
723	-0.68
724	-0.684
724	-0.688
725	-0.687
725	-0.695
726	-0.707
726	-0.714
727	-0.72
727	-0.735
727	-0.743
728	-0.743
728	-0.749
729	-0.749
729	-0.754
730	-0.76
730	-0.754
730	-0.746
731	-0.729
731	-0.738
732	-0.742
732	-0.742
733	-0.74
733	-0.745
734	-0.738
734	-0.736
734	-0.724
735	-0.721
735	-0.722
736	-0.732
736	-0.718
737	-0.712
737	-0.714
737	-0.725
738	-0.721
738	-0.722
739	-0.721
739	-0.733
740	-0.733
740	-0.733
741	-0.73
741	-0.729
741	-0.732
742	-0.729
742	-0.729
743	-0.734
743	-0.737
744	-0.736
744	-0.725
744	-0.724
745	-0.73
745	-0.72
746	-0.722
746	-0.719
747	-0.721
747	-0.706
748	-0.697
748	-0.704
748	-0.705
749	-0.704
749	-0.705
750	-0.694
750	-0.696
751	-0.697
751	-0.706
751	-0.709
752	-0.717
752	-0.724
753	-0.719
753	-0.714
754	-0.719
754	-0.715
754	-0.73
755	-0.746
755	-0.759
756	-0.748
756	-0.745
757	-0.739
757	-0.735
758	-0.737
758	-0.736
758	-0.738
759	-0.745
759	-0.728
760	-0.722
760	-0.718
761	-0.728
761	-0.723
761	-0.723
762	-0.732
762	-0.731
763	-0.742
763	-0.739
764	-0.738
764	-0.745
764	-0.749
765	-0.743
765	-0.73
766	-0.74
766	-0.746
767	-0.758
767	-0.753
768	-0.742
768	-0.752
768	-0.756
769	-0.774
769	-0.774
770	-0.777
770	-0.791
771	-0.787
771	-0.791
771	-0.792
772	-0.795
772	-0.795
773	-0.792
773	-0.788
774	-0.787
774	-0.788
775	-0.79
775	-0.783
775	-0.79
776	-0.79
776	-0.78
777	-0.789
777	-0.809
778	-0.808
778	-0.827
778	-0.813
779	-0.835
779	-0.843
780	-0.857
780	-0.856
781	-0.867
781	-0.863
781	-0.878
782	-0.878
782	-0.88
783	-0.868
783	-0.868
784	-0.848
784	-0.84
784	-0.849
785	-0.855
785	-0.841
786	-0.848
786	-0.825
787	-0.811
787	-0.814
788	-0.814
788	-0.825
788	-0.836
789	-0.835
789	-0.814
790	-0.796
790	-0.796
791	-0.794
791	-0.811
791	-0.816
792	-0.809
792	-0.786
793	-0.774
793	-0.751
794	-0.756
794	-0.75
794	-0.76
795	-0.756
795	-0.749
796	-0.733
796	-0.74
797	-0.735
797	-0.75
797	-0.755
798	-0.767
798	-0.761
799	-0.77
799	-0.756
800	-0.764
800	-0.757
801	-0.764
801	-0.749
801	-0.761
802	-0.766
802	-0.767
803	-0.767
803	-0.776
804	-0.773
804	-0.783
804	-0.769
805	-0.774
805	-0.76
806	-0.763
806	-0.745
807	-0.745
807	-0.726
807	-0.715
808	-0.705
808	-0.699
809	-0.685
809	-0.694
810	-0.69
810	-0.682
810	-0.68
811	-0.689
811	-0.68
812	-0.683
812	-0.686
813	-0.69
813	-0.685
813	-0.69
814	-0.693
814	-0.698
815	-0.704
815	-0.707
816	-0.699
816	-0.704
817	-0.71
817	-0.727
817	-0.743
818	-0.753
818	-0.757
819	-0.748
819	-0.748
820	-0.759
820	-0.753
820	-0.764
821	-0.761
821	-0.751
822	-0.72
822	-0.697
823	-0.693
823	-0.697
823	-0.692
824	-0.688
824	-0.688
825	-0.684
825	-0.661
826	-0.656
826	-0.662
826	-0.671
827	-0.665
827	-0.662
828	-0.64
828	-0.641
829	-0.631
829	-0.618
829	-0.61
830	-0.624
830	-0.623
831	-0.616
831	-0.608
832	-0.606
832	-0.597
832	-0.606
833	-0.599
833	-0.6
834	-0.6
834	-0.607
835	-0.592
835	-0.585
835	-0.581
836	-0.577
836	-0.573
837	-0.57
837	-0.559
838	-0.551
838	-0.539
839	-0.525
839	-0.513
839	-0.503
840	-0.494
840	-0.492
841	-0.48
841	-0.474
842	-0.47
842	-0.46
842	-0.454
843	-0.449
843	-0.443
844	-0.433
844	-0.426
845	-0.417
845	-0.404
845	-0.392
846	-0.381
846	-0.366
847	-0.354
847	-0.341
848	-0.331
848	-0.32
848	-0.305
849	-0.294
849	-0.282
850	-0.269
850	-0.263
851	-0.254
851	-0.242
851	-0.234
852	-0.22
852	-0.207
853	-0.198
853	-0.194
854	-0.181
854	-0.171
854	-0.161
855	-0.15
855	-0.143
856	-0.133
856	-0.125
857	-0.12
857	-0.111
857	-0.101
858	-0.089
858	-0.084
859	-0.075
859	-0.065
860	-0.055
860	-0.042
860	-0.036
861	-0.027
861	-0.019
862	-0.013
862	-0.006
863	0
863	0.008
863	0.014
864	0.018
864	0.023
865	0.028
865	0.033
866	0.038
866	0.041
866	0.044
867	0.047
867	0.051
868	0.053
868	0.056
869	0.059
869	0.061
869	0.062
870	0.065
870	0.067
871	0.069
871	0.071
872	0.072
872	0.073
872	0.073
873	0.074
873	0.074
874	0.074
874	0.074
875	0.073
875	0.072
875	0.071
876	0.07
876	0.069
877	0.068
877	0.067
878	0.066
878	0.065
878	0.063
879	0.062
879	0.061
880	0.061
880	0.061
881	0.06
881	0.06
881	0.06
882	0.059
882	0.059
883	0.057
883	0.056
884	0.055
884	0.054
884	0.053
885	0.052
885	0.052
886	0.051
886	0.051
887	0.051
887	0.051
887	0.05
888	0.051
888	0.051
889	0.051
889	0.051
890	0.052
890	0.051
890	0.051
891	0.051
891	0.051
892	0.051
892	0.051
893	0.051
893	0.051
893	0.052
894	0.051
894	0.051
895	0.051
895	0.051
895	0.051
896	0.05
896	0.049
897	0.048
897	0.047
898	0.046
898	0.046
898	0.046
899	0.046
899	0.046
900	0.046
900	0.046
901	0.047
901	0.047
901	0.048
902	0.049
902	0.05
903	0.05
903	0.05
904	0.051
904	0.052
904	0.052
905	0.053
905	0.054
906	0.054
906	0.054
907	0.054
907	0.053
907	0.053
908	0.053
908	0.052
909	0.051
909	0.05
910	0.05
910	0.049
910	0.049
911	0.049
911	0.05
912	0.05
912	0.051
913	0.051
913	0.052
913	0.053
914	0.055
914	0.055
915	0.056
915	0.057
916	0.057
916	0.058
916	0.058
917	0.059
917	0.059
918	0.059
918	0.058
918	0.058
919	0.058
919	0.057
920	0.057
920	0.057
921	0.057
921	0.057
921	0.056
922	0.056
922	0.056
923	0.055
923	0.055
924	0.055
924	0.054
924	0.054
925	0.053
925	0.052
926	0.051
926	0.05
927	0.049
927	0.048
927	0.048
928	0.047
928	0.047
929	0.046
929	0.046
930	0.045
930	0.044
930	0.044
931	0.043
931	0.043
932	0.043
932	0.042
933	0.041
933	0.04
933	0.039
934	0.037
934	0.037
935	0.036
935	0.035
935	0.035
936	0.034
936	0.033
937	0.032
937	0.031
938	0.031
938	0.031
938	0.031
939	0.031
939	0.032
940	0.032
940	0.032
941	0.033
941	0.034
941	0.035
942	0.035
942	0.035
943	0.035
943	0.035
944	0.035
944	0.034
944	0.034
945	0.033
945	0.032
946	0.031
946	0.03
946	0.029
947	0.028
947	0.028
948	0.028
948	0.028
949	0.028
949	0.029
949	0.029
950	0.029
950	0.03
951	0.031
951	0.031
952	0.032
952	0.034
952	0.034
953	0.035
953	0.037
954	0.037
954	0.038
955	0.039
955	0.04
955	0.041
956	0.042
956	0.042
957	0.042
957	0.042
957	0.042
958	0.043
958	0.043
959	0.044
959	0.044
960	0.044
960	0.044
960	0.044
961	0.044
961	0.045
962	0.045
962	0.045
963	0.044
963	0.044
963	0.044
964	0.044
964	0.044
965	0.044
965	0.044
966	0.044
966	0.044
966	0.044
967	0.043
967	0.043
968	0.042
968	0.041
968	0.041
969	0.041
969	0.04
970	0.04
970	0.04
971	0.04
971	0.04
971	0.04
972	0.041
972	0.041
973	0.041
973	0.041
974	0.041
974	0.041
974	0.041
975	0.041
975	0.041
976	0.04
976	0.04
976	0.04
977	0.039
977	0.039
978	0.04
978	0.04
979	0.04
979	0.039
979	0.039
980	0.039
980	0.039
981	0.039
981	0.039
982	0.039
982	0.038
982	0.038
983	0.038
983	0.037
984	0.037
984	0.037
984	0.037
985	0.037
985	0.037
986	0.036
986	0.036
987	0.035
987	0.035
987	0.035
988	0.034
988	0.033
989	0.032
989	0.032
990	0.031
990	0.03
990	0.03
991	0.029
991	0.029
992	0.029
992	0.028
992	0.028
993	0.028
993	0.028
994	0.028
994	0.028
995	0.028
995	0.027
995	0.027
996	0.026
996	0.025
997	0.025
997	0.025
997	0.025
998	0.025
998	0.025
999	0.025
999	0.025
1000	0.026
1000	0.026
1000	0.026
1001	0.027
1001	0.028
1002	0.028
1002	0.028
1003	0.028
1003	0.028
1003	0.028
1004	0.028
1004	0.028
1005	0.027
1005	0.027
1005	0.026
1006	0.025
1006	0.024
1007	0.023
1007	0.022
1008	0.021
1008	0.02
1008	0.02
1009	0.02
1009	0.02
1010	0.02
1010	0.02
1010	0.02
1011	0.02
1011	0.02
1012	0.02
1012	0.02
1013	0.019
1013	0.018
1013	0.017
1014	0.017
1014	0.016
1015	0.015
1015	0.015
1016	0.014
1016	0.013
1016	0.013
1017	0.012
1017	0.011
1018	0.01
1018	0.009
1018	0.008
1019	0.007
1019	0.007
1020	0.006
1020	0.005
1021	0.005
1021	0.004
1021	0.003
1022	0.002
1022	0.002
1023	0.002
1023	0.002
1023	0.002
1024	0.002
1024	0.001
1025	0.001
1025	0.002
1026	0.002
1026	0.003
1026	0.003
1027	0.004
1027	0.004
1028	0.004
1028	0.004
1028	0.004
1029	0.004
1029	0.004
1030	0.003
1030	0.002
1031	0.002
1031	0.002
1031	0.001
1032	0.001
1032	0.001
1033	0.001
1033	0.001
1033	0.001
1034	0.001
1034	0.001
1035	0.001
1035	0.001
1036	0.001
1036	0.001
1036	0.001
1037	0.001
1037	0.001
1038	0.001
1038	0.001
1039	0.001
1039	0.002
1039	0.002
1040	0.003
1040	0.003
1041	0.004
1041	0.004
1041	0.004
1042	0.004
1042	0.004
1043	0.004
1043	0.003
1044	0.002
1044	0.002
1044	0.001
1045	-0
1045	-0.001
1046	-0.002
1046	-0.003
1046	-0.003
1047	-0.003
1047	-0.003
1048	-0.003
1048	-0.003
1049	-0.002
1049	-0.002
1049	-0.002
1050	-0.002
1050	-0.001
1051	-0.001
1051	-0
1051	0
1052	0
1052	0.001
1053	0.001
1053	0.001
1053	0.001
1054	0.001
1054	0.001
1055	0.001
1055	0.001
1056	0
1056	-0.001
1056	-0.001
1057	-0.002
1057	-0.002
1058	-0.003
1058	-0.003
1058	-0.004
1059	-0.005
1059	-0.005
1060	-0.006
1060	-0.006
1061	-0.007
1061	-0.007
1061	-0.007
1062	-0.007
1062	-0.008
1063	-0.008
1063	-0.008
1063	-0.008
1064	-0.007
1064	-0.008
1065	-0.008
1065	-0.008
1066	-0.008
1066	-0.008
1066	-0.008
1067	-0.008
1067	-0.008
1068	-0.008
1068	-0.009
1068	-0.009
1069	-0.009
1069	-0.009
1070	-0.01
1070	-0.01
1071	-0.011
1071	-0.011
1071	-0.011
1072	-0.012
1072	-0.012
1073	-0.013
1073	-0.013
1073	-0.013
1074	-0.013
1074	-0.013
1075	-0.013
1075	-0.014
1076	-0.014
1076	-0.014
1076	-0.015
1077	-0.015
1077	-0.016
1078	-0.017
1078	-0.017
1078	-0.018
1079	-0.019
1079	-0.02
1080	-0.021
1080	-0.021
1080	-0.022
1081	-0.023
1081	-0.024
1082	-0.024
1082	-0.025
1083	-0.025
1083	-0.026
1083	-0.027
1084	-0.028
1084	-0.028
1085	-0.03
1085	-0.03
1085	-0.03
1086	-0.031
1086	-0.031
1087	-0.032
1087	-0.032
1088	-0.032
1088	-0.033
1088	-0.034
1089	-0.035
1089	-0.035
1090	-0.037
1090	-0.038
1090	-0.039
1091	-0.04
1091	-0.041
1092	-0.042
1092	-0.041
1092	-0.042
1093	-0.042
1093	-0.043
1094	-0.043
1094	-0.043
1095	-0.044
1095	-0.044
1095	-0.044
1096	-0.045
1096	-0.046
1097	-0.047
1097	-0.048
1097	-0.049
1098	-0.05
1098	-0.052
1099	-0.053
1099	-0.053
1100	-0.055
1100	-0.056
1100	-0.058
1101	-0.061
1101	-0.063
1102	-0.064
1102	-0.066
1102	-0.068
1103	-0.07
1103	-0.072
1104	-0.075
1104	-0.077
1104	-0.079
1105	-0.081
1105	-0.084
1106	-0.089
1106	-0.092
1107	-0.097
1107	-0.101
1107	-0.106
1108	-0.108
1108	-0.111
1109	-0.114
1109	-0.119
1109	-0.121
1110	-0.123
1110	-0.125
1111	-0.133
1111	-0.131
