Data from 17C_3.1A_35min_2sec_int_Absorbance__463__02866.txt Node

Date: Mon Jun 19 18:34:07 CEST 2023
User: Marek
Spectrometer: MAYP115816
Trigger mode: 0
Integration Time (sec): 2.500000E-1
Scans to average: 10
Electric dark correction enabled: true
Nonlinearity correction enabled: true
Boxcar width: 5
XAxis mode: Wavelengths
Number of Pixels in Spectrum: 2068
>>>>>Begin Spectral Data<<<<<
199	-0.758
199	-0.767
200	-0.671
200	-0.617
201	-0.58
201	-0.566
202	-0.548
202	-0.534
203	-0.526
203	-0.523
204	-0.511
204	-0.497
205	-0.473
205	-0.466
205	-0.465
206	-0.468
206	-0.472
207	-0.463
207	-0.466
208	-0.469
208	-0.466
209	-0.461
209	-0.461
210	-0.469
210	-0.475
211	-0.476
211	-0.479
212	-0.481
212	-0.49
213	-0.488
213	-0.488
213	-0.493
214	-0.489
214	-0.489
215	-0.485
215	-0.489
216	-0.495
216	-0.502
217	-0.498
217	-0.503
218	-0.507
218	-0.508
219	-0.511
219	-0.521
220	-0.525
220	-0.537
221	-0.537
221	-0.537
221	-0.529
222	-0.524
222	-0.523
223	-0.525
223	-0.527
224	-0.534
224	-0.535
225	-0.532
225	-0.527
226	-0.531
226	-0.532
227	-0.54
227	-0.548
228	-0.549
228	-0.549
229	-0.552
229	-0.542
229	-0.536
230	-0.539
230	-0.54
231	-0.536
231	-0.528
232	-0.52
232	-0.52
233	-0.515
233	-0.516
234	-0.513
234	-0.511
235	-0.515
235	-0.521
236	-0.52
236	-0.523
236	-0.529
237	-0.536
237	-0.536
238	-0.545
238	-0.541
239	-0.54
239	-0.548
240	-0.547
240	-0.545
241	-0.551
241	-0.551
242	-0.555
242	-0.553
243	-0.549
243	-0.55
243	-0.559
244	-0.559
244	-0.561
245	-0.575
245	-0.576
246	-0.579
246	-0.584
247	-0.586
247	-0.589
248	-0.595
248	-0.592
249	-0.597
249	-0.606
250	-0.603
250	-0.597
250	-0.597
251	-0.595
251	-0.595
252	-0.598
252	-0.588
253	-0.592
253	-0.604
254	-0.601
254	-0.597
255	-0.605
255	-0.599
256	-0.597
256	-0.609
257	-0.605
257	-0.603
258	-0.62
258	-0.617
258	-0.613
259	-0.611
259	-0.621
260	-0.621
260	-0.627
261	-0.638
261	-0.628
262	-0.624
262	-0.624
263	-0.613
263	-0.608
264	-0.609
264	-0.616
265	-0.61
265	-0.617
265	-0.618
266	-0.615
266	-0.613
267	-0.626
267	-0.636
268	-0.651
268	-0.661
269	-0.658
269	-0.654
270	-0.66
270	-0.665
271	-0.666
271	-0.671
272	-0.674
272	-0.668
272	-0.66
273	-0.659
273	-0.667
274	-0.674
274	-0.676
275	-0.677
275	-0.666
276	-0.671
276	-0.663
277	-0.667
277	-0.686
278	-0.698
278	-0.692
278	-0.686
279	-0.687
279	-0.699
280	-0.695
280	-0.699
281	-0.694
281	-0.703
282	-0.698
282	-0.698
283	-0.69
283	-0.691
284	-0.686
284	-0.676
285	-0.671
285	-0.671
285	-0.664
286	-0.672
286	-0.666
287	-0.662
287	-0.647
288	-0.64
288	-0.648
289	-0.66
289	-0.67
290	-0.66
290	-0.659
291	-0.658
291	-0.652
292	-0.655
292	-0.662
292	-0.666
293	-0.668
293	-0.658
294	-0.645
294	-0.634
295	-0.632
295	-0.627
296	-0.624
296	-0.621
297	-0.615
297	-0.598
298	-0.59
298	-0.6
298	-0.588
299	-0.583
299	-0.586
300	-0.581
300	-0.576
301	-0.573
301	-0.573
302	-0.58
302	-0.589
303	-0.576
303	-0.562
304	-0.565
304	-0.566
305	-0.567
305	-0.566
305	-0.565
306	-0.549
306	-0.542
307	-0.529
307	-0.532
308	-0.546
308	-0.542
309	-0.544
309	-0.533
310	-0.521
310	-0.52
311	-0.51
311	-0.52
311	-0.517
312	-0.511
312	-0.509
313	-0.495
313	-0.499
314	-0.496
314	-0.497
315	-0.5
315	-0.495
316	-0.49
316	-0.48
317	-0.474
317	-0.47
318	-0.46
318	-0.457
318	-0.451
319	-0.438
319	-0.433
320	-0.426
320	-0.428
321	-0.436
321	-0.433
322	-0.428
322	-0.422
323	-0.421
323	-0.414
324	-0.408
324	-0.402
324	-0.393
325	-0.382
325	-0.366
326	-0.35
326	-0.333
327	-0.319
327	-0.3
328	-0.274
328	-0.254
329	-0.232
329	-0.208
330	-0.182
330	-0.151
330	-0.124
331	-0.095
331	-0.068
332	-0.043
332	-0.021
333	0.001
333	0.024
334	0.044
334	0.062
335	0.079
335	0.093
336	0.108
336	0.12
336	0.13
337	0.142
337	0.15
338	0.158
338	0.163
339	0.171
339	0.177
340	0.181
340	0.186
341	0.19
341	0.193
342	0.197
342	0.2
342	0.203
343	0.205
343	0.208
344	0.21
344	0.211
345	0.212
345	0.213
346	0.214
346	0.215
347	0.216
347	0.216
348	0.216
348	0.217
348	0.217
349	0.217
349	0.218
350	0.218
350	0.218
351	0.219
351	0.219
352	0.219
352	0.219
353	0.219
353	0.219
354	0.219
354	0.218
354	0.218
355	0.218
355	0.218
356	0.218
356	0.218
357	0.217
357	0.217
358	0.217
358	0.217
359	0.217
359	0.217
360	0.216
360	0.217
360	0.216
361	0.216
361	0.216
362	0.216
362	0.216
363	0.216
363	0.216
364	0.216
364	0.216
365	0.216
365	0.216
366	0.216
366	0.216
366	0.216
367	0.216
367	0.216
368	0.216
368	0.216
369	0.216
369	0.216
370	0.216
370	0.216
371	0.216
371	0.216
372	0.216
372	0.216
372	0.216
373	0.216
373	0.216
374	0.216
374	0.216
375	0.216
375	0.216
376	0.216
376	0.216
377	0.216
377	0.216
378	0.215
378	0.216
378	0.216
379	0.216
379	0.215
380	0.215
380	0.215
381	0.215
381	0.215
382	0.215
382	0.215
383	0.214
383	0.214
383	0.214
384	0.214
384	0.214
385	0.214
385	0.214
386	0.214
386	0.214
387	0.214
387	0.214
388	0.214
388	0.214
389	0.214
389	0.214
389	0.214
390	0.214
390	0.214
391	0.214
391	0.214
392	0.214
392	0.214
393	0.213
393	0.213
394	0.213
394	0.213
394	0.213
395	0.212
395	0.212
396	0.212
396	0.212
397	0.212
397	0.212
398	0.212
398	0.212
399	0.212
399	0.212
400	0.212
400	0.212
400	0.212
401	0.212
401	0.211
402	0.211
402	0.211
403	0.211
403	0.211
404	0.211
404	0.211
405	0.211
405	0.211
405	0.211
406	0.211
406	0.211
407	0.211
407	0.21
408	0.21
408	0.21
409	0.21
409	0.21
410	0.21
410	0.211
411	0.211
411	0.211
411	0.211
412	0.211
412	0.211
413	0.21
413	0.21
414	0.21
414	0.21
415	0.21
415	0.21
416	0.209
416	0.209
416	0.209
417	0.209
417	0.209
418	0.209
418	0.209
419	0.209
419	0.209
420	0.209
420	0.21
421	0.21
421	0.21
421	0.21
422	0.21
422	0.21
423	0.21
423	0.209
424	0.209
424	0.208
425	0.208
425	0.208
426	0.207
426	0.207
427	0.207
427	0.207
427	0.207
428	0.207
428	0.207
429	0.207
429	0.207
430	0.207
430	0.207
431	0.207
431	0.206
432	0.206
432	0.206
432	0.206
433	0.206
433	0.205
434	0.205
434	0.205
435	0.205
435	0.205
436	0.205
436	0.205
437	0.205
437	0.205
437	0.205
438	0.205
438	0.205
439	0.205
439	0.205
440	0.205
440	0.205
441	0.205
441	0.205
442	0.204
442	0.204
442	0.204
443	0.204
443	0.204
444	0.204
444	0.204
445	0.204
445	0.204
446	0.204
446	0.204
447	0.204
447	0.204
447	0.204
448	0.204
448	0.204
449	0.204
449	0.204
450	0.205
450	0.205
451	0.205
451	0.205
452	0.205
452	0.204
452	0.204
453	0.204
453	0.204
454	0.204
454	0.203
455	0.203
455	0.203
456	0.203
456	0.203
457	0.203
457	0.203
458	0.203
458	0.203
458	0.203
459	0.203
459	0.203
460	0.203
460	0.202
461	0.203
461	0.203
462	0.203
462	0.203
463	0.203
463	0.203
463	0.203
464	0.203
464	0.203
465	0.203
465	0.203
466	0.203
466	0.203
467	0.203
467	0.203
467	0.203
468	0.203
468	0.203
469	0.203
469	0.203
470	0.204
470	0.204
471	0.204
471	0.204
472	0.204
472	0.204
472	0.204
473	0.204
473	0.205
474	0.205
474	0.205
475	0.205
475	0.205
476	0.205
476	0.205
477	0.205
477	0.205
477	0.205
478	0.205
478	0.205
479	0.206
479	0.206
480	0.206
480	0.206
481	0.207
481	0.207
482	0.207
482	0.208
482	0.208
483	0.208
483	0.209
484	0.208
484	0.208
485	0.208
485	0.208
486	0.208
486	0.209
487	0.209
487	0.209
487	0.21
488	0.21
488	0.211
489	0.212
489	0.213
490	0.214
490	0.214
491	0.215
491	0.216
492	0.216
492	0.217
492	0.218
493	0.218
493	0.219
494	0.22
494	0.22
495	0.22
495	0.221
496	0.222
496	0.223
496	0.224
497	0.225
497	0.225
498	0.226
498	0.227
499	0.228
499	0.229
500	0.23
500	0.231
501	0.232
501	0.233
501	0.233
502	0.234
502	0.234
503	0.236
503	0.236
504	0.237
504	0.238
505	0.239
505	0.24
506	0.241
506	0.242
506	0.243
507	0.244
507	0.244
508	0.245
508	0.246
509	0.247
509	0.248
510	0.249
510	0.25
511	0.251
511	0.252
511	0.253
512	0.254
512	0.255
513	0.256
513	0.257
514	0.258
514	0.26
515	0.261
515	0.262
515	0.263
516	0.264
516	0.265
517	0.266
517	0.267
518	0.268
518	0.269
519	0.269
519	0.27
520	0.271
520	0.272
520	0.274
521	0.275
521	0.276
522	0.277
522	0.279
523	0.28
523	0.281
524	0.282
524	0.282
524	0.283
525	0.283
525	0.284
526	0.285
526	0.286
527	0.286
527	0.287
528	0.288
528	0.288
529	0.289
529	0.291
529	0.292
530	0.293
530	0.293
531	0.294
531	0.294
532	0.295
532	0.296
533	0.296
533	0.297
533	0.297
534	0.298
534	0.298
535	0.298
535	0.299
536	0.299
536	0.299
537	0.299
537	0.299
538	0.3
538	0.3
538	0.301
539	0.302
539	0.302
540	0.303
540	0.303
541	0.304
541	0.304
542	0.305
542	0.305
542	0.305
543	0.305
543	0.305
544	0.305
544	0.305
545	0.305
545	0.305
546	0.306
546	0.306
547	0.306
547	0.306
547	0.306
548	0.306
548	0.307
549	0.307
549	0.308
550	0.308
550	0.308
551	0.308
551	0.309
551	0.311
552	0.312
552	0.313
553	0.313
553	0.314
554	0.314
554	0.314
555	0.315
555	0.315
556	0.315
556	0.315
556	0.315
557	0.315
557	0.315
558	0.315
558	0.314
559	0.314
559	0.314
560	0.314
560	0.314
560	0.314
561	0.315
561	0.314
562	0.314
562	0.314
563	0.314
563	0.314
564	0.314
564	0.314
564	0.315
565	0.316
565	0.316
566	0.316
566	0.316
567	0.317
567	0.317
568	0.317
568	0.317
568	0.317
569	0.317
569	0.316
570	0.315
570	0.314
571	0.314
571	0.314
572	0.313
572	0.313
573	0.313
573	0.313
573	0.312
574	0.312
574	0.313
575	0.313
575	0.315
576	0.315
576	0.314
577	0.314
577	0.314
577	0.315
578	0.315
578	0.316
579	0.316
579	0.317
580	0.316
580	0.314
581	0.314
581	0.314
581	0.315
582	0.315
582	0.315
583	0.316
583	0.316
584	0.315
584	0.314
585	0.315
585	0.316
585	0.317
586	0.317
586	0.317
587	0.316
587	0.316
588	0.316
588	0.316
589	0.316
589	0.316
590	0.316
590	0.316
590	0.317
591	0.318
591	0.317
592	0.317
592	0.316
593	0.316
593	0.316
594	0.316
594	0.316
594	0.316
595	0.316
595	0.316
596	0.316
596	0.318
597	0.319
597	0.319
598	0.319
598	0.318
598	0.318
599	0.318
599	0.317
600	0.316
600	0.316
601	0.315
601	0.315
602	0.313
602	0.313
602	0.313
603	0.314
603	0.315
604	0.315
604	0.316
605	0.316
605	0.317
606	0.317
606	0.316
606	0.316
607	0.316
607	0.316
608	0.315
608	0.314
609	0.313
609	0.313
610	0.313
610	0.313
610	0.313
611	0.314
611	0.315
612	0.316
612	0.317
613	0.318
613	0.318
614	0.317
614	0.317
614	0.316
615	0.315
615	0.315
616	0.314
616	0.313
617	0.312
617	0.311
618	0.31
618	0.31
618	0.309
619	0.31
619	0.31
620	0.31
620	0.31
621	0.309
621	0.309
622	0.309
622	0.308
622	0.307
623	0.307
623	0.307
624	0.306
624	0.305
625	0.305
625	0.305
626	0.304
626	0.303
626	0.303
627	0.302
627	0.301
628	0.3
628	0.298
629	0.297
629	0.295
630	0.293
630	0.291
630	0.289
631	0.287
631	0.285
632	0.282
632	0.279
633	0.277
633	0.274
634	0.271
634	0.269
634	0.266
635	0.263
635	0.259
636	0.256
636	0.252
637	0.248
637	0.244
638	0.239
638	0.234
638	0.229
639	0.224
639	0.218
640	0.213
640	0.207
641	0.202
641	0.196
642	0.191
642	0.185
642	0.179
643	0.173
643	0.167
644	0.16
644	0.153
645	0.146
645	0.139
646	0.131
646	0.123
646	0.115
647	0.108
647	0.1
648	0.092
648	0.084
649	0.075
649	0.067
650	0.059
650	0.05
650	0.041
651	0.029
651	0.016
652	0
652	-0.017
653	-0.031
653	-0.045
653	-0.042
654	-0.02
654	-0.01
655	-0.013
655	-0.019
656	-0.025
656	-0.032
657	-0.037
657	-0.041
657	-0.047
658	-0.053
658	-0.084
659	-0.173
659	-0.277
660	-0.324
660	-0.351
661	-0.38
661	-0.411
661	-0.446
662	-0.479
662	-0.514
663	-0.553
663	-0.595
664	-0.638
664	-0.689
665	-0.74
665	-0.798
665	-0.852
666	-0.908
666	-0.97
667	-1.033
667	-1.098
668	-1.17
668	-1.242
669	-1.315
669	-1.389
669	-1.466
670	-1.535
670	-1.575
671	-1.755
671	-2.006
672	-2.224
672	-2.409
672	-2.535
673	-2.625
673	-2.704
674	-2.75
674	-2.769
675	-2.794
675	-2.934
676	-3.122
676	-3.074
676	-2.852
677	-2.649
677	-2.489
678	-2.319
678	-2.036
679	-1.733
679	-1.59
680	-1.495
680	-1.411
680	-1.34
681	-1.295
681	-1.237
682	-1.198
682	-1.162
683	-1.127
683	-1.112
684	-1.092
684	-1.073
684	-1.053
685	-1.029
685	-1.009
686	-0.984
686	-0.97
687	-0.944
687	-0.934
687	-0.915
688	-0.888
688	-0.868
689	-0.848
689	-0.834
690	-0.817
690	-0.805
691	-0.799
691	-0.805
691	-0.822
692	-0.812
692	-0.804
693	-0.801
693	-0.809
694	-0.804
694	-0.798
695	-0.802
695	-0.8
695	-0.785
696	-0.782
696	-0.759
697	-0.759
697	-0.775
698	-0.777
698	-0.766
698	-0.782
699	-0.785
699	-0.782
700	-0.773
700	-0.79
701	-0.787
701	-0.795
702	-0.794
702	-0.784
702	-0.775
703	-0.769
703	-0.759
704	-0.755
704	-0.755
705	-0.765
705	-0.757
705	-0.747
706	-0.746
706	-0.742
707	-0.746
707	-0.743
708	-0.741
708	-0.735
709	-0.739
709	-0.741
709	-0.731
710	-0.738
710	-0.748
711	-0.739
711	-0.74
712	-0.741
712	-0.754
713	-0.753
713	-0.76
713	-0.75
714	-0.748
714	-0.753
715	-0.742
715	-0.728
716	-0.736
716	-0.738
716	-0.73
717	-0.73
717	-0.734
718	-0.722
718	-0.724
719	-0.732
719	-0.732
720	-0.731
720	-0.742
720	-0.734
721	-0.723
721	-0.724
722	-0.712
722	-0.701
723	-0.701
723	-0.705
723	-0.69
724	-0.694
724	-0.695
725	-0.692
725	-0.703
726	-0.715
726	-0.719
727	-0.724
727	-0.739
727	-0.745
728	-0.746
728	-0.753
729	-0.751
729	-0.757
730	-0.765
730	-0.756
730	-0.748
731	-0.732
731	-0.742
732	-0.747
732	-0.746
733	-0.743
733	-0.749
734	-0.742
734	-0.742
734	-0.73
735	-0.73
735	-0.73
736	-0.738
736	-0.724
737	-0.716
737	-0.719
737	-0.728
738	-0.723
738	-0.722
739	-0.719
739	-0.73
740	-0.73
740	-0.728
741	-0.725
741	-0.725
741	-0.729
742	-0.726
742	-0.726
743	-0.73
743	-0.737
744	-0.734
744	-0.723
744	-0.723
745	-0.73
745	-0.724
746	-0.722
746	-0.719
747	-0.72
747	-0.708
748	-0.697
748	-0.702
748	-0.705
749	-0.703
749	-0.705
750	-0.694
750	-0.695
751	-0.7
751	-0.71
751	-0.713
752	-0.718
752	-0.73
753	-0.723
753	-0.72
754	-0.729
754	-0.723
754	-0.738
755	-0.754
755	-0.764
756	-0.752
756	-0.748
757	-0.748
757	-0.742
758	-0.746
758	-0.742
758	-0.745
759	-0.75
759	-0.733
760	-0.726
760	-0.722
761	-0.731
761	-0.73
761	-0.729
762	-0.738
762	-0.736
763	-0.745
763	-0.74
764	-0.738
764	-0.747
764	-0.754
765	-0.743
765	-0.732
766	-0.739
766	-0.743
767	-0.757
767	-0.752
768	-0.744
768	-0.752
768	-0.758
769	-0.774
769	-0.775
770	-0.779
770	-0.792
771	-0.788
771	-0.792
771	-0.792
772	-0.796
772	-0.794
773	-0.796
773	-0.791
774	-0.789
774	-0.791
775	-0.794
775	-0.788
775	-0.796
776	-0.796
776	-0.786
777	-0.794
777	-0.815
778	-0.811
778	-0.831
778	-0.817
779	-0.837
779	-0.845
780	-0.858
780	-0.855
781	-0.867
781	-0.863
781	-0.879
782	-0.88
782	-0.883
783	-0.869
783	-0.867
784	-0.849
784	-0.838
784	-0.849
785	-0.857
785	-0.842
786	-0.848
786	-0.826
787	-0.808
787	-0.809
788	-0.814
788	-0.826
788	-0.836
789	-0.836
789	-0.817
790	-0.799
790	-0.801
791	-0.801
791	-0.819
791	-0.827
792	-0.82
792	-0.794
793	-0.784
793	-0.759
794	-0.764
794	-0.756
794	-0.767
795	-0.761
795	-0.753
796	-0.738
796	-0.744
797	-0.739
797	-0.754
797	-0.76
798	-0.775
798	-0.77
799	-0.781
799	-0.765
800	-0.772
800	-0.765
801	-0.77
801	-0.754
801	-0.765
802	-0.77
802	-0.77
803	-0.772
803	-0.778
804	-0.772
804	-0.783
804	-0.769
805	-0.774
805	-0.762
806	-0.765
806	-0.749
807	-0.75
807	-0.731
807	-0.718
808	-0.713
808	-0.707
809	-0.693
809	-0.702
810	-0.701
810	-0.694
810	-0.693
811	-0.699
811	-0.688
812	-0.69
812	-0.695
813	-0.698
813	-0.694
813	-0.698
814	-0.7
814	-0.704
815	-0.709
815	-0.711
816	-0.703
816	-0.711
817	-0.716
817	-0.734
817	-0.747
818	-0.755
818	-0.76
819	-0.75
819	-0.749
820	-0.76
820	-0.757
820	-0.77
821	-0.766
821	-0.756
822	-0.721
822	-0.698
823	-0.695
823	-0.697
823	-0.693
824	-0.688
824	-0.689
825	-0.682
825	-0.661
826	-0.655
826	-0.662
826	-0.673
827	-0.669
827	-0.664
828	-0.643
828	-0.644
829	-0.632
829	-0.618
829	-0.61
830	-0.62
830	-0.618
831	-0.611
831	-0.601
832	-0.601
832	-0.592
832	-0.601
833	-0.598
833	-0.601
834	-0.598
834	-0.606
835	-0.594
835	-0.588
835	-0.582
836	-0.58
836	-0.576
837	-0.573
837	-0.562
838	-0.551
838	-0.539
839	-0.526
839	-0.513
839	-0.502
840	-0.491
840	-0.486
841	-0.473
841	-0.464
842	-0.46
842	-0.451
842	-0.444
843	-0.438
843	-0.433
844	-0.423
844	-0.413
845	-0.404
845	-0.394
845	-0.381
846	-0.369
846	-0.353
847	-0.339
847	-0.329
848	-0.315
848	-0.305
848	-0.288
849	-0.278
849	-0.264
850	-0.249
850	-0.241
851	-0.231
851	-0.219
851	-0.211
852	-0.194
852	-0.182
853	-0.17
853	-0.165
854	-0.152
854	-0.14
854	-0.129
855	-0.116
855	-0.11
856	-0.098
856	-0.088
857	-0.081
857	-0.072
857	-0.06
858	-0.048
858	-0.041
859	-0.031
859	-0.02
860	-0.01
860	0.004
860	0.013
861	0.024
861	0.033
862	0.041
862	0.048
863	0.056
863	0.066
863	0.072
864	0.078
864	0.085
865	0.091
865	0.097
866	0.101
866	0.106
866	0.111
867	0.114
867	0.119
868	0.121
868	0.125
869	0.129
869	0.131
869	0.133
870	0.136
870	0.138
871	0.14
871	0.142
872	0.143
872	0.143
872	0.144
873	0.144
873	0.144
874	0.144
874	0.143
875	0.142
875	0.141
875	0.14
876	0.139
876	0.138
877	0.137
877	0.136
878	0.134
878	0.133
878	0.131
879	0.13
879	0.129
880	0.129
880	0.129
881	0.129
881	0.129
881	0.129
882	0.128
882	0.127
883	0.126
883	0.124
884	0.124
884	0.122
884	0.121
885	0.12
885	0.12
886	0.119
886	0.118
887	0.118
887	0.118
887	0.118
888	0.118
888	0.118
889	0.118
889	0.118
890	0.118
890	0.118
890	0.118
891	0.118
891	0.118
892	0.119
892	0.119
893	0.118
893	0.118
893	0.119
894	0.118
894	0.118
895	0.118
895	0.118
895	0.117
896	0.116
896	0.115
897	0.114
897	0.113
898	0.112
898	0.111
898	0.111
899	0.111
899	0.111
900	0.111
900	0.111
901	0.112
901	0.113
901	0.114
902	0.115
902	0.115
903	0.116
903	0.116
904	0.117
904	0.117
904	0.118
905	0.119
905	0.119
906	0.119
906	0.119
907	0.119
907	0.119
907	0.118
908	0.118
908	0.117
909	0.116
909	0.115
910	0.115
910	0.114
910	0.114
911	0.114
911	0.114
912	0.115
912	0.116
913	0.116
913	0.117
913	0.118
914	0.119
914	0.12
915	0.12
915	0.121
916	0.122
916	0.122
916	0.122
917	0.122
917	0.122
918	0.122
918	0.122
918	0.121
919	0.121
919	0.121
920	0.12
920	0.12
921	0.12
921	0.12
921	0.119
922	0.119
922	0.119
923	0.118
923	0.118
924	0.118
924	0.117
924	0.116
925	0.115
925	0.115
926	0.114
926	0.113
927	0.112
927	0.111
927	0.111
928	0.11
928	0.11
929	0.109
929	0.108
930	0.108
930	0.107
930	0.106
931	0.106
931	0.105
932	0.105
932	0.104
933	0.103
933	0.102
933	0.1
934	0.099
934	0.098
935	0.098
935	0.097
935	0.096
936	0.095
936	0.094
937	0.093
937	0.092
938	0.092
938	0.092
938	0.092
939	0.092
939	0.092
940	0.092
940	0.093
941	0.093
941	0.094
941	0.095
942	0.095
942	0.095
943	0.096
943	0.095
944	0.095
944	0.094
944	0.093
945	0.093
945	0.092
946	0.091
946	0.089
946	0.088
947	0.087
947	0.086
948	0.086
948	0.086
949	0.086
949	0.086
949	0.086
950	0.086
950	0.087
951	0.088
951	0.088
952	0.089
952	0.09
952	0.09
953	0.091
953	0.093
954	0.093
954	0.094
955	0.095
955	0.096
955	0.097
956	0.097
956	0.098
957	0.098
957	0.098
957	0.098
958	0.098
958	0.099
959	0.099
959	0.099
960	0.099
960	0.099
960	0.1
961	0.1
961	0.101
962	0.101
962	0.101
963	0.101
963	0.101
963	0.101
964	0.101
964	0.101
965	0.101
965	0.101
966	0.101
966	0.1
966	0.099
967	0.099
967	0.098
968	0.097
968	0.097
968	0.096
969	0.096
969	0.095
970	0.095
970	0.095
971	0.095
971	0.095
971	0.095
972	0.096
972	0.096
973	0.096
973	0.096
974	0.096
974	0.096
974	0.096
975	0.095
975	0.095
976	0.094
976	0.094
976	0.094
977	0.094
977	0.094
978	0.095
978	0.095
979	0.095
979	0.095
979	0.095
980	0.095
980	0.095
981	0.095
981	0.095
982	0.094
982	0.094
982	0.094
983	0.093
983	0.093
984	0.092
984	0.092
984	0.092
985	0.092
985	0.091
986	0.091
986	0.09
987	0.089
987	0.089
987	0.089
988	0.088
988	0.087
989	0.086
989	0.085
990	0.084
990	0.084
990	0.083
991	0.083
991	0.083
992	0.082
992	0.082
992	0.082
993	0.081
993	0.081
994	0.081
994	0.081
995	0.081
995	0.08
995	0.08
996	0.079
996	0.079
997	0.078
997	0.078
997	0.078
998	0.078
998	0.078
999	0.078
999	0.079
1000	0.079
1000	0.079
1000	0.079
1001	0.08
1001	0.081
1002	0.081
1002	0.081
1003	0.081
1003	0.082
1003	0.081
1004	0.081
1004	0.081
1005	0.08
1005	0.08
1005	0.079
1006	0.078
1006	0.077
1007	0.076
1007	0.075
1008	0.074
1008	0.073
1008	0.073
1009	0.072
1009	0.072
1010	0.072
1010	0.072
1010	0.072
1011	0.072
1011	0.072
1012	0.072
1012	0.072
1013	0.071
1013	0.071
1013	0.07
1014	0.07
1014	0.069
1015	0.068
1015	0.068
1016	0.067
1016	0.066
1016	0.065
1017	0.064
1017	0.063
1018	0.062
1018	0.061
1018	0.06
1019	0.06
1019	0.059
1020	0.057
1020	0.057
1021	0.056
1021	0.056
1021	0.055
1022	0.054
1022	0.054
1023	0.054
1023	0.053
1023	0.053
1024	0.053
1024	0.053
1025	0.053
1025	0.053
1026	0.054
1026	0.054
1026	0.054
1027	0.054
1027	0.055
1028	0.055
1028	0.055
1028	0.054
1029	0.054
1029	0.054
1030	0.054
1030	0.053
1031	0.053
1031	0.053
1031	0.052
1032	0.052
1032	0.052
1033	0.052
1033	0.052
1033	0.052
1034	0.051
1034	0.051
1035	0.051
1035	0.051
1036	0.051
1036	0.051
1036	0.051
1037	0.05
1037	0.051
1038	0.051
1038	0.05
1039	0.051
1039	0.051
1039	0.051
1040	0.052
1040	0.053
1041	0.053
1041	0.053
1041	0.054
1042	0.054
1042	0.053
1043	0.053
1043	0.053
1044	0.052
1044	0.051
1044	0.051
1045	0.049
1045	0.048
1046	0.047
1046	0.047
1046	0.046
1047	0.046
1047	0.046
1048	0.046
1048	0.046
1049	0.046
1049	0.046
1049	0.046
1050	0.047
1050	0.047
1051	0.047
1051	0.048
1051	0.048
1052	0.049
1052	0.049
1053	0.049
1053	0.049
1053	0.049
1054	0.049
1054	0.049
1055	0.049
1055	0.048
1056	0.048
1056	0.047
1056	0.046
1057	0.045
1057	0.045
1058	0.045
1058	0.044
1058	0.043
1059	0.043
1059	0.042
1060	0.041
1060	0.041
1061	0.04
1061	0.04
1061	0.04
1062	0.039
1062	0.039
1063	0.038
1063	0.038
1063	0.038
1064	0.039
1064	0.039
1065	0.038
1065	0.038
1066	0.038
1066	0.038
1066	0.038
1067	0.038
1067	0.038
1068	0.037
1068	0.037
1068	0.036
1069	0.037
1069	0.036
1070	0.036
1070	0.035
1071	0.035
1071	0.035
1071	0.034
1072	0.034
1072	0.033
1073	0.032
1073	0.032
1073	0.031
1074	0.032
1074	0.032
1075	0.031
1075	0.031
1076	0.03
1076	0.03
1076	0.029
1077	0.029
1077	0.028
1078	0.027
1078	0.027
1078	0.026
1079	0.025
1079	0.025
1080	0.024
1080	0.024
1080	0.022
1081	0.022
1081	0.021
1082	0.021
1082	0.02
1083	0.019
1083	0.018
1083	0.017
1084	0.016
1084	0.016
1085	0.015
1085	0.014
1085	0.013
1086	0.014
1086	0.012
1087	0.012
1087	0.012
1088	0.011
1088	0.01
1088	0.009
1089	0.008
1089	0.007
1090	0.005
1090	0.005
1090	0.002
1091	0.001
1091	0.001
1092	-0
1092	0
1092	-0.001
1093	-0.002
1093	-0.001
1094	-0.001
1094	-0.001
1095	-0.002
1095	-0.002
1095	-0.002
1096	-0.004
1096	-0.005
1097	-0.006
1097	-0.007
1097	-0.008
1098	-0.01
1098	-0.012
1099	-0.013
1099	-0.014
1100	-0.016
1100	-0.018
1100	-0.021
1101	-0.024
1101	-0.027
1102	-0.029
1102	-0.032
1102	-0.033
1103	-0.035
1103	-0.038
1104	-0.04
1104	-0.043
1104	-0.045
1105	-0.047
1105	-0.05
1106	-0.054
1106	-0.056
1107	-0.062
1107	-0.066
1107	-0.071
1108	-0.074
1108	-0.077
1109	-0.08
1109	-0.085
1109	-0.087
1110	-0.087
1110	-0.089
1111	-0.096
1111	-0.094
