Data from 17C_3.1A_35min_2sec_int_Absorbance__473__02876.txt Node

Date: Mon Jun 19 18:34:32 CEST 2023
User: Marek
Spectrometer: MAYP115816
Trigger mode: 0
Integration Time (sec): 2.500000E-1
Scans to average: 10
Electric dark correction enabled: true
Nonlinearity correction enabled: true
Boxcar width: 5
XAxis mode: Wavelengths
Number of Pixels in Spectrum: 2068
>>>>>Begin Spectral Data<<<<<
199	-0.755
199	-0.771
200	-0.674
200	-0.62
201	-0.582
201	-0.569
202	-0.553
202	-0.54
203	-0.534
203	-0.531
204	-0.517
204	-0.503
205	-0.48
205	-0.475
205	-0.474
206	-0.476
206	-0.48
207	-0.471
207	-0.473
208	-0.473
208	-0.471
209	-0.466
209	-0.466
210	-0.471
210	-0.476
211	-0.477
211	-0.481
212	-0.481
212	-0.49
213	-0.487
213	-0.489
213	-0.494
214	-0.49
214	-0.489
215	-0.488
215	-0.494
216	-0.499
216	-0.505
217	-0.503
217	-0.507
218	-0.51
218	-0.51
219	-0.514
219	-0.524
220	-0.528
220	-0.539
221	-0.537
221	-0.538
221	-0.531
222	-0.526
222	-0.525
223	-0.528
223	-0.532
224	-0.535
224	-0.537
225	-0.532
225	-0.525
226	-0.529
226	-0.53
227	-0.537
227	-0.546
228	-0.547
228	-0.548
229	-0.547
229	-0.541
229	-0.535
230	-0.539
230	-0.542
231	-0.537
231	-0.528
232	-0.521
232	-0.52
233	-0.515
233	-0.514
234	-0.515
234	-0.511
235	-0.514
235	-0.52
236	-0.518
236	-0.523
236	-0.531
237	-0.536
237	-0.536
238	-0.546
238	-0.545
239	-0.545
239	-0.554
240	-0.553
240	-0.551
241	-0.557
241	-0.555
242	-0.558
242	-0.554
243	-0.551
243	-0.552
243	-0.563
244	-0.562
244	-0.563
245	-0.577
245	-0.576
246	-0.58
246	-0.586
247	-0.589
247	-0.593
248	-0.599
248	-0.595
249	-0.598
249	-0.605
250	-0.6
250	-0.596
250	-0.597
251	-0.594
251	-0.595
252	-0.596
252	-0.586
253	-0.589
253	-0.601
254	-0.599
254	-0.598
255	-0.608
255	-0.601
256	-0.6
256	-0.611
257	-0.608
257	-0.605
258	-0.624
258	-0.621
258	-0.616
259	-0.613
259	-0.621
260	-0.62
260	-0.625
261	-0.636
261	-0.629
262	-0.625
262	-0.627
263	-0.614
263	-0.61
264	-0.612
264	-0.618
265	-0.615
265	-0.624
265	-0.626
266	-0.623
266	-0.619
267	-0.633
267	-0.642
268	-0.657
268	-0.667
269	-0.665
269	-0.66
270	-0.664
270	-0.667
271	-0.667
271	-0.672
272	-0.677
272	-0.673
272	-0.663
273	-0.661
273	-0.668
274	-0.674
274	-0.676
275	-0.677
275	-0.669
276	-0.675
276	-0.668
277	-0.671
277	-0.69
278	-0.701
278	-0.697
278	-0.693
279	-0.694
279	-0.707
280	-0.703
280	-0.705
281	-0.699
281	-0.706
282	-0.698
282	-0.697
283	-0.689
283	-0.69
284	-0.683
284	-0.675
285	-0.669
285	-0.668
285	-0.665
286	-0.672
286	-0.668
287	-0.664
287	-0.648
288	-0.64
288	-0.649
289	-0.663
289	-0.673
290	-0.662
290	-0.659
291	-0.656
291	-0.65
292	-0.653
292	-0.663
292	-0.667
293	-0.672
293	-0.66
294	-0.65
294	-0.638
295	-0.637
295	-0.636
296	-0.632
296	-0.629
297	-0.621
297	-0.604
298	-0.598
298	-0.606
298	-0.596
299	-0.588
299	-0.591
300	-0.583
300	-0.577
301	-0.577
301	-0.576
302	-0.585
302	-0.593
303	-0.58
303	-0.565
304	-0.567
304	-0.566
305	-0.567
305	-0.569
305	-0.569
306	-0.551
306	-0.544
307	-0.529
307	-0.532
308	-0.546
308	-0.544
309	-0.546
309	-0.535
310	-0.523
310	-0.519
311	-0.511
311	-0.52
311	-0.518
312	-0.515
312	-0.511
313	-0.496
313	-0.5
314	-0.497
314	-0.499
315	-0.501
315	-0.5
316	-0.495
316	-0.485
317	-0.479
317	-0.474
318	-0.463
318	-0.461
318	-0.454
319	-0.444
319	-0.44
320	-0.433
320	-0.433
321	-0.439
321	-0.438
322	-0.433
322	-0.425
323	-0.425
323	-0.42
324	-0.413
324	-0.405
324	-0.396
325	-0.385
325	-0.367
326	-0.351
326	-0.334
327	-0.318
327	-0.301
328	-0.275
328	-0.255
329	-0.232
329	-0.208
330	-0.181
330	-0.15
330	-0.126
331	-0.099
331	-0.072
332	-0.047
332	-0.023
333	0.001
333	0.025
334	0.046
334	0.062
335	0.079
335	0.094
336	0.109
336	0.122
336	0.132
337	0.143
337	0.151
338	0.159
338	0.164
339	0.172
339	0.177
340	0.182
340	0.186
341	0.189
341	0.192
342	0.196
342	0.199
342	0.202
343	0.203
343	0.206
344	0.208
344	0.21
345	0.211
345	0.212
346	0.213
346	0.214
347	0.215
347	0.215
348	0.216
348	0.217
348	0.217
349	0.217
349	0.217
350	0.218
350	0.218
351	0.218
351	0.218
352	0.218
352	0.218
353	0.218
353	0.218
354	0.218
354	0.218
354	0.218
355	0.218
355	0.217
356	0.217
356	0.217
357	0.217
357	0.217
358	0.217
358	0.216
359	0.216
359	0.216
360	0.216
360	0.216
360	0.216
361	0.216
361	0.216
362	0.216
362	0.216
363	0.216
363	0.216
364	0.216
364	0.215
365	0.215
365	0.215
366	0.215
366	0.215
366	0.216
367	0.216
367	0.216
368	0.215
368	0.215
369	0.215
369	0.215
370	0.215
370	0.215
371	0.215
371	0.215
372	0.215
372	0.215
372	0.215
373	0.215
373	0.215
374	0.215
374	0.215
375	0.215
375	0.215
376	0.215
376	0.215
377	0.215
377	0.215
378	0.215
378	0.215
378	0.215
379	0.215
379	0.214
380	0.214
380	0.214
381	0.214
381	0.214
382	0.214
382	0.214
383	0.213
383	0.213
383	0.213
384	0.213
384	0.213
385	0.213
385	0.213
386	0.213
386	0.213
387	0.213
387	0.213
388	0.213
388	0.213
389	0.213
389	0.213
389	0.213
390	0.214
390	0.213
391	0.213
391	0.213
392	0.213
392	0.213
393	0.213
393	0.213
394	0.212
394	0.212
394	0.212
395	0.212
395	0.211
396	0.211
396	0.211
397	0.211
397	0.211
398	0.212
398	0.212
399	0.212
399	0.212
400	0.211
400	0.211
400	0.211
401	0.211
401	0.211
402	0.211
402	0.211
403	0.211
403	0.21
404	0.21
404	0.21
405	0.21
405	0.21
405	0.21
406	0.21
406	0.21
407	0.21
407	0.21
408	0.209
408	0.209
409	0.209
409	0.209
410	0.21
410	0.21
411	0.21
411	0.21
411	0.21
412	0.21
412	0.21
413	0.21
413	0.21
414	0.21
414	0.209
415	0.209
415	0.209
416	0.209
416	0.209
416	0.209
417	0.209
417	0.209
418	0.209
418	0.209
419	0.209
419	0.209
420	0.209
420	0.209
421	0.209
421	0.209
421	0.209
422	0.209
422	0.209
423	0.209
423	0.209
424	0.208
424	0.208
425	0.208
425	0.207
426	0.207
426	0.207
427	0.207
427	0.207
427	0.206
428	0.206
428	0.207
429	0.207
429	0.206
430	0.206
430	0.206
431	0.206
431	0.206
432	0.206
432	0.205
432	0.205
433	0.205
433	0.205
434	0.204
434	0.205
435	0.204
435	0.204
436	0.204
436	0.204
437	0.205
437	0.204
437	0.204
438	0.204
438	0.204
439	0.204
439	0.204
440	0.204
440	0.204
441	0.204
441	0.204
442	0.204
442	0.204
442	0.204
443	0.203
443	0.203
444	0.203
444	0.203
445	0.203
445	0.203
446	0.203
446	0.203
447	0.204
447	0.204
447	0.204
448	0.204
448	0.204
449	0.204
449	0.204
450	0.204
450	0.204
451	0.204
451	0.204
452	0.204
452	0.204
452	0.204
453	0.203
453	0.203
454	0.203
454	0.203
455	0.203
455	0.203
456	0.203
456	0.202
457	0.202
457	0.202
458	0.202
458	0.202
458	0.202
459	0.202
459	0.202
460	0.202
460	0.202
461	0.202
461	0.202
462	0.202
462	0.202
463	0.202
463	0.202
463	0.202
464	0.202
464	0.202
465	0.202
465	0.203
466	0.203
466	0.203
467	0.203
467	0.203
467	0.202
468	0.202
468	0.202
469	0.202
469	0.202
470	0.203
470	0.203
471	0.202
471	0.202
472	0.203
472	0.203
472	0.203
473	0.204
473	0.204
474	0.204
474	0.204
475	0.204
475	0.204
476	0.205
476	0.204
477	0.205
477	0.204
477	0.204
478	0.204
478	0.205
479	0.205
479	0.205
480	0.205
480	0.205
481	0.206
481	0.206
482	0.206
482	0.206
482	0.207
483	0.207
483	0.207
484	0.207
484	0.207
485	0.207
485	0.207
486	0.207
486	0.208
487	0.208
487	0.209
487	0.209
488	0.21
488	0.21
489	0.211
489	0.212
490	0.213
490	0.214
491	0.214
491	0.215
492	0.216
492	0.216
492	0.217
493	0.217
493	0.218
494	0.219
494	0.219
495	0.22
495	0.22
496	0.221
496	0.222
496	0.223
497	0.224
497	0.225
498	0.225
498	0.226
499	0.227
499	0.228
500	0.229
500	0.23
501	0.231
501	0.232
501	0.232
502	0.233
502	0.234
503	0.235
503	0.235
504	0.236
504	0.237
505	0.238
505	0.239
506	0.24
506	0.241
506	0.242
507	0.242
507	0.244
508	0.244
508	0.245
509	0.246
509	0.247
510	0.248
510	0.249
511	0.25
511	0.251
511	0.252
512	0.253
512	0.254
513	0.255
513	0.256
514	0.257
514	0.258
515	0.259
515	0.26
515	0.261
516	0.262
516	0.263
517	0.264
517	0.265
518	0.266
518	0.267
519	0.268
519	0.269
520	0.27
520	0.271
520	0.272
521	0.273
521	0.275
522	0.275
522	0.277
523	0.278
523	0.279
524	0.28
524	0.281
524	0.281
525	0.282
525	0.282
526	0.283
526	0.284
527	0.285
527	0.285
528	0.286
528	0.287
529	0.288
529	0.288
529	0.29
530	0.291
530	0.291
531	0.292
531	0.293
532	0.293
532	0.294
533	0.295
533	0.295
533	0.296
534	0.296
534	0.296
535	0.297
535	0.297
536	0.297
536	0.297
537	0.297
537	0.298
538	0.298
538	0.299
538	0.299
539	0.3
539	0.3
540	0.301
540	0.301
541	0.301
541	0.302
542	0.303
542	0.303
542	0.303
543	0.303
543	0.303
544	0.302
544	0.303
545	0.303
545	0.303
546	0.304
546	0.304
547	0.304
547	0.304
547	0.304
548	0.305
548	0.305
549	0.305
549	0.306
550	0.306
550	0.306
551	0.307
551	0.308
551	0.309
552	0.31
552	0.311
553	0.312
553	0.312
554	0.312
554	0.312
555	0.313
555	0.313
556	0.313
556	0.313
556	0.313
557	0.313
557	0.313
558	0.313
558	0.313
559	0.313
559	0.313
560	0.313
560	0.313
560	0.313
561	0.313
561	0.312
562	0.312
562	0.312
563	0.312
563	0.312
564	0.312
564	0.312
564	0.313
565	0.313
565	0.314
566	0.314
566	0.315
567	0.315
567	0.315
568	0.315
568	0.315
568	0.315
569	0.315
569	0.314
570	0.313
570	0.312
571	0.312
571	0.312
572	0.312
572	0.311
573	0.311
573	0.311
573	0.311
574	0.311
574	0.311
575	0.311
575	0.313
576	0.313
576	0.312
577	0.312
577	0.312
577	0.313
578	0.314
578	0.314
579	0.315
579	0.315
580	0.315
580	0.313
581	0.313
581	0.313
581	0.313
582	0.314
582	0.314
583	0.314
583	0.314
584	0.313
584	0.312
585	0.314
585	0.315
585	0.315
586	0.315
586	0.315
587	0.315
587	0.315
588	0.314
588	0.314
589	0.315
589	0.315
590	0.315
590	0.315
590	0.316
591	0.316
591	0.316
592	0.315
592	0.315
593	0.315
593	0.315
594	0.315
594	0.315
594	0.315
595	0.315
595	0.314
596	0.315
596	0.316
597	0.317
597	0.317
598	0.317
598	0.317
598	0.317
599	0.317
599	0.316
600	0.315
600	0.314
601	0.314
601	0.313
602	0.312
602	0.312
602	0.312
603	0.312
603	0.313
604	0.314
604	0.314
605	0.315
605	0.316
606	0.315
606	0.315
606	0.315
607	0.315
607	0.314
608	0.313
608	0.312
609	0.312
609	0.312
610	0.312
610	0.311
610	0.312
611	0.313
611	0.314
612	0.315
612	0.316
613	0.317
613	0.317
614	0.317
614	0.316
614	0.315
615	0.314
615	0.314
616	0.313
616	0.312
617	0.311
617	0.31
618	0.309
618	0.308
618	0.308
619	0.308
619	0.309
620	0.309
620	0.308
621	0.308
621	0.308
622	0.308
622	0.307
622	0.306
623	0.306
623	0.306
624	0.306
624	0.305
625	0.304
625	0.304
626	0.303
626	0.302
626	0.302
627	0.301
627	0.3
628	0.299
628	0.298
629	0.296
629	0.295
630	0.293
630	0.291
630	0.289
631	0.287
631	0.285
632	0.282
632	0.279
633	0.276
633	0.274
634	0.271
634	0.268
634	0.265
635	0.262
635	0.259
636	0.255
636	0.252
637	0.248
637	0.243
638	0.239
638	0.234
638	0.23
639	0.224
639	0.218
640	0.213
640	0.208
641	0.202
641	0.197
642	0.191
642	0.185
642	0.18
643	0.174
643	0.167
644	0.16
644	0.153
645	0.146
645	0.139
646	0.132
646	0.124
646	0.116
647	0.108
647	0.1
648	0.093
648	0.085
649	0.076
649	0.068
650	0.059
650	0.051
650	0.041
651	0.031
651	0.017
652	0.001
652	-0.016
653	-0.03
653	-0.044
653	-0.04
654	-0.019
654	-0.008
655	-0.012
655	-0.018
656	-0.025
656	-0.032
657	-0.036
657	-0.041
657	-0.047
658	-0.054
658	-0.085
659	-0.174
659	-0.277
660	-0.323
660	-0.352
661	-0.38
661	-0.411
661	-0.445
662	-0.477
662	-0.511
663	-0.55
663	-0.593
664	-0.635
664	-0.687
665	-0.737
665	-0.794
665	-0.848
666	-0.904
666	-0.966
667	-1.029
667	-1.094
668	-1.165
668	-1.237
669	-1.31
669	-1.383
669	-1.459
670	-1.524
670	-1.548
671	-1.666
671	-1.958
672	-2.191
672	-2.385
672	-2.516
673	-2.609
673	-2.69
674	-2.741
674	-2.761
675	-2.787
675	-2.928
676	-3.127
676	-3.08
676	-2.859
677	-2.658
677	-2.501
678	-2.336
678	-2.069
679	-1.745
679	-1.596
680	-1.499
680	-1.416
680	-1.345
681	-1.299
681	-1.24
682	-1.201
682	-1.165
683	-1.13
683	-1.114
684	-1.093
684	-1.075
684	-1.054
685	-1.029
685	-1.008
686	-0.984
686	-0.97
687	-0.945
687	-0.934
687	-0.916
688	-0.89
688	-0.869
689	-0.849
689	-0.835
690	-0.817
690	-0.805
691	-0.8
691	-0.805
691	-0.82
692	-0.811
692	-0.801
693	-0.797
693	-0.807
694	-0.803
694	-0.795
695	-0.8
695	-0.798
695	-0.782
696	-0.779
696	-0.758
697	-0.76
697	-0.777
698	-0.78
698	-0.769
698	-0.784
699	-0.787
699	-0.785
700	-0.777
700	-0.792
701	-0.792
701	-0.798
702	-0.798
702	-0.784
702	-0.777
703	-0.769
703	-0.758
704	-0.756
704	-0.755
705	-0.765
705	-0.757
705	-0.743
706	-0.744
706	-0.738
707	-0.744
707	-0.741
708	-0.74
708	-0.732
709	-0.735
709	-0.737
709	-0.73
710	-0.739
710	-0.75
711	-0.742
711	-0.742
712	-0.742
712	-0.754
713	-0.754
713	-0.763
713	-0.753
714	-0.751
714	-0.752
715	-0.743
715	-0.729
716	-0.737
716	-0.739
716	-0.731
717	-0.732
717	-0.734
718	-0.724
718	-0.726
719	-0.732
719	-0.733
720	-0.729
720	-0.739
720	-0.732
721	-0.723
721	-0.723
722	-0.709
722	-0.7
723	-0.697
723	-0.7
723	-0.686
724	-0.69
724	-0.694
725	-0.692
725	-0.701
726	-0.712
726	-0.718
727	-0.724
727	-0.736
727	-0.746
728	-0.747
728	-0.754
729	-0.753
729	-0.757
730	-0.766
730	-0.759
730	-0.749
731	-0.732
731	-0.743
732	-0.749
732	-0.748
733	-0.747
733	-0.752
734	-0.745
734	-0.744
734	-0.728
735	-0.726
735	-0.727
736	-0.738
736	-0.724
737	-0.715
737	-0.718
737	-0.728
738	-0.724
738	-0.725
739	-0.723
739	-0.736
740	-0.737
740	-0.735
741	-0.731
741	-0.731
741	-0.736
742	-0.732
742	-0.731
743	-0.738
743	-0.741
744	-0.738
744	-0.727
744	-0.728
745	-0.736
745	-0.73
746	-0.729
746	-0.725
747	-0.728
747	-0.716
748	-0.703
748	-0.71
748	-0.714
749	-0.714
749	-0.716
750	-0.703
750	-0.705
751	-0.71
751	-0.72
751	-0.722
752	-0.725
752	-0.736
753	-0.731
753	-0.726
754	-0.73
754	-0.724
754	-0.738
755	-0.753
755	-0.763
756	-0.752
756	-0.748
757	-0.746
757	-0.74
758	-0.741
758	-0.74
758	-0.743
759	-0.749
759	-0.732
760	-0.725
760	-0.719
761	-0.729
761	-0.726
761	-0.725
762	-0.734
762	-0.734
763	-0.74
763	-0.736
764	-0.734
764	-0.743
764	-0.748
765	-0.737
765	-0.725
766	-0.732
766	-0.739
767	-0.755
767	-0.749
768	-0.742
768	-0.752
768	-0.758
769	-0.775
769	-0.778
770	-0.785
770	-0.798
771	-0.796
771	-0.8
771	-0.799
772	-0.803
772	-0.801
773	-0.801
773	-0.795
774	-0.792
774	-0.792
775	-0.791
775	-0.786
775	-0.793
776	-0.793
776	-0.783
777	-0.791
777	-0.811
778	-0.807
778	-0.829
778	-0.816
779	-0.839
779	-0.848
780	-0.862
780	-0.86
781	-0.87
781	-0.866
781	-0.881
782	-0.885
782	-0.889
783	-0.873
783	-0.871
784	-0.851
784	-0.842
784	-0.85
785	-0.858
785	-0.844
786	-0.849
786	-0.829
787	-0.812
787	-0.811
788	-0.815
788	-0.827
788	-0.839
789	-0.839
789	-0.822
790	-0.8
790	-0.803
791	-0.806
791	-0.823
791	-0.831
792	-0.827
792	-0.803
793	-0.79
793	-0.767
794	-0.773
794	-0.765
794	-0.777
795	-0.771
795	-0.761
796	-0.744
796	-0.75
797	-0.744
797	-0.754
797	-0.761
798	-0.774
798	-0.767
799	-0.777
799	-0.761
800	-0.767
800	-0.761
801	-0.766
801	-0.752
801	-0.765
802	-0.774
802	-0.775
803	-0.776
803	-0.786
804	-0.78
804	-0.791
804	-0.778
805	-0.781
805	-0.771
806	-0.772
806	-0.755
807	-0.753
807	-0.735
807	-0.722
808	-0.712
808	-0.707
809	-0.691
809	-0.7
810	-0.698
810	-0.689
810	-0.686
811	-0.691
811	-0.682
812	-0.683
812	-0.686
813	-0.69
813	-0.686
813	-0.694
814	-0.698
814	-0.703
815	-0.709
815	-0.714
816	-0.707
816	-0.711
817	-0.718
817	-0.736
817	-0.752
818	-0.76
818	-0.761
819	-0.75
819	-0.751
820	-0.76
820	-0.756
820	-0.767
821	-0.764
821	-0.752
822	-0.72
822	-0.695
823	-0.692
823	-0.696
823	-0.696
824	-0.69
824	-0.693
825	-0.683
825	-0.665
826	-0.664
826	-0.67
826	-0.68
827	-0.674
827	-0.671
828	-0.649
828	-0.647
829	-0.639
829	-0.624
829	-0.617
830	-0.626
830	-0.621
831	-0.615
831	-0.604
832	-0.603
832	-0.593
832	-0.602
833	-0.597
833	-0.596
834	-0.594
834	-0.603
835	-0.59
835	-0.585
835	-0.58
836	-0.579
836	-0.576
837	-0.574
837	-0.565
838	-0.556
838	-0.543
839	-0.529
839	-0.514
839	-0.503
840	-0.493
840	-0.489
841	-0.476
841	-0.466
842	-0.461
842	-0.449
842	-0.443
843	-0.437
843	-0.431
844	-0.422
844	-0.414
845	-0.404
845	-0.391
845	-0.378
846	-0.367
846	-0.351
847	-0.339
847	-0.327
848	-0.316
848	-0.305
848	-0.291
849	-0.279
849	-0.268
850	-0.255
850	-0.246
851	-0.237
851	-0.224
851	-0.214
852	-0.196
852	-0.182
853	-0.172
853	-0.163
854	-0.151
854	-0.137
854	-0.125
855	-0.114
855	-0.107
856	-0.097
856	-0.089
857	-0.083
857	-0.074
857	-0.062
858	-0.05
858	-0.043
859	-0.034
859	-0.023
860	-0.012
860	0.003
860	0.012
861	0.021
861	0.031
862	0.04
862	0.048
863	0.055
863	0.065
863	0.072
864	0.078
864	0.085
865	0.091
865	0.097
866	0.102
866	0.107
866	0.111
867	0.115
867	0.119
868	0.122
868	0.126
869	0.13
869	0.132
869	0.134
870	0.136
870	0.138
871	0.141
871	0.143
872	0.143
872	0.144
872	0.145
873	0.145
873	0.145
874	0.145
874	0.144
875	0.143
875	0.142
875	0.141
876	0.14
876	0.139
877	0.138
877	0.137
878	0.135
878	0.134
878	0.132
879	0.131
879	0.131
880	0.13
880	0.13
881	0.13
881	0.13
881	0.13
882	0.129
882	0.128
883	0.126
883	0.125
884	0.124
884	0.122
884	0.121
885	0.12
885	0.119
886	0.119
886	0.118
887	0.118
887	0.118
887	0.118
888	0.119
888	0.118
889	0.119
889	0.119
890	0.119
890	0.12
890	0.119
891	0.119
891	0.119
892	0.12
892	0.12
893	0.119
893	0.12
893	0.119
894	0.119
894	0.119
895	0.119
895	0.119
895	0.119
896	0.118
896	0.117
897	0.116
897	0.114
898	0.113
898	0.113
898	0.112
899	0.112
899	0.112
900	0.112
900	0.112
901	0.113
901	0.113
901	0.114
902	0.115
902	0.116
903	0.116
903	0.117
904	0.117
904	0.118
904	0.118
905	0.119
905	0.119
906	0.12
906	0.12
907	0.12
907	0.12
907	0.119
908	0.119
908	0.118
909	0.117
909	0.117
910	0.116
910	0.115
910	0.115
911	0.115
911	0.115
912	0.116
912	0.117
913	0.117
913	0.118
913	0.119
914	0.12
914	0.121
915	0.121
915	0.122
916	0.123
916	0.123
916	0.123
917	0.123
917	0.123
918	0.123
918	0.123
918	0.122
919	0.122
919	0.121
920	0.121
920	0.121
921	0.121
921	0.121
921	0.12
922	0.12
922	0.12
923	0.119
923	0.119
924	0.119
924	0.118
924	0.117
925	0.116
925	0.115
926	0.115
926	0.114
927	0.113
927	0.112
927	0.111
928	0.111
928	0.11
929	0.11
929	0.109
930	0.108
930	0.108
930	0.107
931	0.106
931	0.106
932	0.106
932	0.105
933	0.104
933	0.102
933	0.101
934	0.1
934	0.099
935	0.098
935	0.098
935	0.097
936	0.096
936	0.095
937	0.094
937	0.093
938	0.093
938	0.093
938	0.093
939	0.093
939	0.093
940	0.094
940	0.094
941	0.094
941	0.095
941	0.095
942	0.096
942	0.096
943	0.096
943	0.095
944	0.095
944	0.094
944	0.093
945	0.093
945	0.092
946	0.09
946	0.089
946	0.088
947	0.087
947	0.087
948	0.087
948	0.086
949	0.086
949	0.086
949	0.087
950	0.087
950	0.088
951	0.089
951	0.089
952	0.09
952	0.091
952	0.092
953	0.093
953	0.094
954	0.094
954	0.095
955	0.096
955	0.097
955	0.097
956	0.098
956	0.099
957	0.099
957	0.099
957	0.099
958	0.1
958	0.101
959	0.101
959	0.101
960	0.101
960	0.101
960	0.102
961	0.102
961	0.102
962	0.102
962	0.102
963	0.102
963	0.102
963	0.101
964	0.101
964	0.102
965	0.101
965	0.101
966	0.101
966	0.1
966	0.1
967	0.1
967	0.099
968	0.099
968	0.098
968	0.098
969	0.097
969	0.097
970	0.096
970	0.096
971	0.096
971	0.096
971	0.097
972	0.097
972	0.097
973	0.097
973	0.097
974	0.097
974	0.097
974	0.097
975	0.097
975	0.096
976	0.096
976	0.095
976	0.095
977	0.095
977	0.095
978	0.096
978	0.096
979	0.096
979	0.096
979	0.096
980	0.096
980	0.096
981	0.096
981	0.096
982	0.095
982	0.095
982	0.094
983	0.094
983	0.093
984	0.093
984	0.093
984	0.093
985	0.093
985	0.092
986	0.092
986	0.091
987	0.091
987	0.09
987	0.09
988	0.089
988	0.088
989	0.087
989	0.086
990	0.085
990	0.084
990	0.084
991	0.084
991	0.084
992	0.083
992	0.083
992	0.083
993	0.082
993	0.082
994	0.082
994	0.082
995	0.082
995	0.081
995	0.081
996	0.08
996	0.079
997	0.079
997	0.079
997	0.079
998	0.079
998	0.079
999	0.079
999	0.079
1000	0.08
1000	0.08
1000	0.08
1001	0.081
1001	0.081
1002	0.082
1002	0.082
1003	0.082
1003	0.082
1003	0.081
1004	0.081
1004	0.081
1005	0.08
1005	0.08
1005	0.079
1006	0.078
1006	0.077
1007	0.076
1007	0.075
1008	0.074
1008	0.074
1008	0.073
1009	0.073
1009	0.073
1010	0.073
1010	0.074
1010	0.074
1011	0.074
1011	0.074
1012	0.074
1012	0.073
1013	0.073
1013	0.072
1013	0.071
1014	0.071
1014	0.07
1015	0.069
1015	0.069
1016	0.068
1016	0.067
1016	0.066
1017	0.065
1017	0.064
1018	0.063
1018	0.062
1018	0.061
1019	0.06
1019	0.059
1020	0.058
1020	0.058
1021	0.057
1021	0.056
1021	0.056
1022	0.055
1022	0.055
1023	0.055
1023	0.054
1023	0.054
1024	0.054
1024	0.054
1025	0.054
1025	0.054
1026	0.055
1026	0.055
1026	0.055
1027	0.055
1027	0.056
1028	0.056
1028	0.056
1028	0.056
1029	0.056
1029	0.056
1030	0.055
1030	0.054
1031	0.053
1031	0.053
1031	0.052
1032	0.052
1032	0.052
1033	0.052
1033	0.052
1033	0.052
1034	0.052
1034	0.052
1035	0.053
1035	0.052
1036	0.052
1036	0.052
1036	0.052
1037	0.052
1037	0.052
1038	0.052
1038	0.052
1039	0.052
1039	0.052
1039	0.053
1040	0.053
1040	0.054
1041	0.054
1041	0.055
1041	0.055
1042	0.055
1042	0.055
1043	0.054
1043	0.054
1044	0.053
1044	0.052
1044	0.052
1045	0.051
1045	0.05
1046	0.049
1046	0.048
1046	0.048
1047	0.048
1047	0.047
1048	0.047
1048	0.047
1049	0.048
1049	0.047
1049	0.048
1050	0.048
1050	0.049
1051	0.049
1051	0.049
1051	0.049
1052	0.05
1052	0.05
1053	0.05
1053	0.05
1053	0.05
1054	0.05
1054	0.05
1055	0.05
1055	0.05
1056	0.049
1056	0.048
1056	0.047
1057	0.047
1057	0.046
1058	0.046
1058	0.045
1058	0.044
1059	0.044
1059	0.043
1060	0.042
1060	0.042
1061	0.041
1061	0.041
1061	0.041
1062	0.041
1062	0.04
1063	0.04
1063	0.04
1063	0.04
1064	0.04
1064	0.04
1065	0.04
1065	0.039
1066	0.039
1066	0.039
1066	0.039
1067	0.039
1067	0.039
1068	0.038
1068	0.038
1068	0.037
1069	0.037
1069	0.037
1070	0.036
1070	0.036
1071	0.035
1071	0.035
1071	0.034
1072	0.034
1072	0.034
1073	0.033
1073	0.033
1073	0.032
1074	0.033
1074	0.033
1075	0.032
1075	0.032
1076	0.031
1076	0.031
1076	0.03
1077	0.03
1077	0.029
1078	0.028
1078	0.028
1078	0.027
1079	0.025
1079	0.025
1080	0.024
1080	0.024
1080	0.023
1081	0.022
1081	0.022
1082	0.021
1082	0.02
1083	0.02
1083	0.019
1083	0.018
1084	0.017
1084	0.017
1085	0.015
1085	0.015
1085	0.014
1086	0.013
1086	0.012
1087	0.012
1087	0.012
1088	0.011
1088	0.01
1088	0.009
1089	0.008
1089	0.008
1090	0.006
1090	0.005
1090	0.004
1091	0.002
1091	0.001
1092	0
1092	0.001
1092	-0.001
1093	-0.002
1093	-0.001
1094	-0.002
1094	-0.003
1095	-0.004
1095	-0.005
1095	-0.005
1096	-0.006
1096	-0.007
1097	-0.008
1097	-0.009
1097	-0.01
1098	-0.012
1098	-0.014
1099	-0.014
1099	-0.015
1100	-0.017
1100	-0.018
1100	-0.021
1101	-0.024
1101	-0.027
1102	-0.029
1102	-0.032
1102	-0.033
1103	-0.035
1103	-0.038
1104	-0.041
1104	-0.043
1104	-0.046
1105	-0.048
1105	-0.051
1106	-0.056
1106	-0.059
1107	-0.064
1107	-0.068
1107	-0.073
1108	-0.075
1108	-0.078
1109	-0.081
1109	-0.086
1109	-0.089
1110	-0.09
1110	-0.092
1111	-0.097
1111	-0.094
