Data from 17C_3.1A_35min_2sec_int_Absorbance__378__02781.txt Node

Date: Mon Jun 19 18:30:34 CEST 2023
User: Marek
Spectrometer: MAYP115816
Trigger mode: 0
Integration Time (sec): 2.500000E-1
Scans to average: 10
Electric dark correction enabled: true
Nonlinearity correction enabled: true
Boxcar width: 5
XAxis mode: Wavelengths
Number of Pixels in Spectrum: 2068
>>>>>Begin Spectral Data<<<<<
199	-0.747
199	-0.765
200	-0.669
200	-0.613
201	-0.574
201	-0.563
202	-0.545
202	-0.531
203	-0.522
203	-0.519
204	-0.507
204	-0.494
205	-0.471
205	-0.464
205	-0.465
206	-0.468
206	-0.469
207	-0.461
207	-0.464
208	-0.467
208	-0.466
209	-0.461
209	-0.461
210	-0.465
210	-0.474
211	-0.473
211	-0.476
212	-0.481
212	-0.489
213	-0.485
213	-0.484
213	-0.49
214	-0.487
214	-0.484
215	-0.483
215	-0.487
216	-0.491
216	-0.499
217	-0.495
217	-0.499
218	-0.504
218	-0.506
219	-0.509
219	-0.519
220	-0.526
220	-0.535
221	-0.535
221	-0.537
221	-0.528
222	-0.523
222	-0.525
223	-0.527
223	-0.529
224	-0.534
224	-0.534
225	-0.529
225	-0.524
226	-0.529
226	-0.531
227	-0.537
227	-0.549
228	-0.549
228	-0.551
229	-0.554
229	-0.547
229	-0.542
230	-0.547
230	-0.551
231	-0.546
231	-0.536
232	-0.532
232	-0.527
233	-0.522
233	-0.521
234	-0.518
234	-0.514
235	-0.517
235	-0.523
236	-0.52
236	-0.523
236	-0.53
237	-0.536
237	-0.538
238	-0.548
238	-0.546
239	-0.547
239	-0.557
240	-0.556
240	-0.553
241	-0.558
241	-0.556
242	-0.56
242	-0.556
243	-0.551
243	-0.55
243	-0.558
244	-0.556
244	-0.555
245	-0.57
245	-0.57
246	-0.576
246	-0.582
247	-0.583
247	-0.586
248	-0.593
248	-0.591
249	-0.595
249	-0.604
250	-0.602
250	-0.595
250	-0.596
251	-0.592
251	-0.593
252	-0.596
252	-0.588
253	-0.592
253	-0.601
254	-0.6
254	-0.6
255	-0.606
255	-0.6
256	-0.596
256	-0.609
257	-0.605
257	-0.604
258	-0.619
258	-0.616
258	-0.613
259	-0.608
259	-0.616
260	-0.618
260	-0.623
261	-0.633
261	-0.623
262	-0.621
262	-0.62
263	-0.609
263	-0.604
264	-0.605
264	-0.612
265	-0.607
265	-0.612
265	-0.616
266	-0.616
266	-0.614
267	-0.627
267	-0.635
268	-0.652
268	-0.663
269	-0.661
269	-0.655
270	-0.66
270	-0.665
271	-0.667
271	-0.67
272	-0.672
272	-0.667
272	-0.659
273	-0.657
273	-0.664
274	-0.67
274	-0.674
275	-0.674
275	-0.667
276	-0.673
276	-0.668
277	-0.673
277	-0.692
278	-0.704
278	-0.699
278	-0.694
279	-0.696
279	-0.708
280	-0.706
280	-0.706
281	-0.698
281	-0.703
282	-0.696
282	-0.695
283	-0.684
283	-0.686
284	-0.678
284	-0.667
285	-0.664
285	-0.663
285	-0.659
286	-0.668
286	-0.663
287	-0.66
287	-0.644
288	-0.638
288	-0.647
289	-0.66
289	-0.668
290	-0.657
290	-0.655
291	-0.652
291	-0.645
292	-0.649
292	-0.654
292	-0.656
293	-0.66
293	-0.649
294	-0.637
294	-0.629
295	-0.626
295	-0.624
296	-0.62
296	-0.617
297	-0.613
297	-0.597
298	-0.592
298	-0.6
298	-0.59
299	-0.584
299	-0.586
300	-0.582
300	-0.578
301	-0.577
301	-0.578
302	-0.583
302	-0.593
303	-0.58
303	-0.568
304	-0.57
304	-0.57
305	-0.572
305	-0.569
305	-0.566
306	-0.55
306	-0.542
307	-0.528
307	-0.528
308	-0.541
308	-0.538
309	-0.537
309	-0.527
310	-0.516
310	-0.514
311	-0.507
311	-0.514
311	-0.511
312	-0.509
312	-0.508
313	-0.494
313	-0.498
314	-0.496
314	-0.498
315	-0.498
315	-0.495
316	-0.491
316	-0.482
317	-0.475
317	-0.47
318	-0.461
318	-0.459
318	-0.453
319	-0.445
319	-0.441
320	-0.436
320	-0.438
321	-0.442
321	-0.441
322	-0.434
322	-0.428
323	-0.427
323	-0.421
324	-0.413
324	-0.403
324	-0.393
325	-0.381
325	-0.363
326	-0.347
326	-0.332
327	-0.318
327	-0.298
328	-0.273
328	-0.252
329	-0.23
329	-0.207
330	-0.18
330	-0.147
330	-0.121
331	-0.092
331	-0.064
332	-0.038
332	-0.015
333	0.008
333	0.032
334	0.052
334	0.071
335	0.089
335	0.103
336	0.117
336	0.131
336	0.141
337	0.152
337	0.162
338	0.172
338	0.177
339	0.185
339	0.191
340	0.195
340	0.2
341	0.204
341	0.207
342	0.211
342	0.214
342	0.217
343	0.218
343	0.221
344	0.223
344	0.224
345	0.226
345	0.227
346	0.228
346	0.229
347	0.23
347	0.23
348	0.231
348	0.232
348	0.232
349	0.233
349	0.233
350	0.233
350	0.233
351	0.234
351	0.234
352	0.234
352	0.234
353	0.234
353	0.234
354	0.234
354	0.233
354	0.233
355	0.233
355	0.233
356	0.233
356	0.233
357	0.232
357	0.232
358	0.232
358	0.232
359	0.232
359	0.232
360	0.232
360	0.232
360	0.232
361	0.231
361	0.231
362	0.231
362	0.231
363	0.231
363	0.231
364	0.231
364	0.231
365	0.231
365	0.23
366	0.231
366	0.231
366	0.231
367	0.231
367	0.231
368	0.231
368	0.231
369	0.231
369	0.231
370	0.23
370	0.23
371	0.23
371	0.23
372	0.23
372	0.23
372	0.23
373	0.23
373	0.23
374	0.23
374	0.23
375	0.23
375	0.23
376	0.23
376	0.23
377	0.23
377	0.23
378	0.23
378	0.23
378	0.23
379	0.23
379	0.23
380	0.229
380	0.229
381	0.229
381	0.229
382	0.229
382	0.228
383	0.228
383	0.228
383	0.228
384	0.228
384	0.228
385	0.228
385	0.228
386	0.228
386	0.228
387	0.228
387	0.228
388	0.228
388	0.228
389	0.228
389	0.228
389	0.228
390	0.228
390	0.228
391	0.228
391	0.228
392	0.228
392	0.228
393	0.228
393	0.227
394	0.227
394	0.227
394	0.226
395	0.226
395	0.226
396	0.226
396	0.226
397	0.226
397	0.226
398	0.226
398	0.226
399	0.226
399	0.226
400	0.226
400	0.226
400	0.226
401	0.226
401	0.225
402	0.225
402	0.225
403	0.225
403	0.225
404	0.225
404	0.224
405	0.224
405	0.224
405	0.224
406	0.224
406	0.224
407	0.224
407	0.224
408	0.223
408	0.223
409	0.223
409	0.224
410	0.224
410	0.224
411	0.224
411	0.224
411	0.224
412	0.224
412	0.224
413	0.224
413	0.224
414	0.223
414	0.223
415	0.223
415	0.222
416	0.222
416	0.222
416	0.222
417	0.222
417	0.222
418	0.222
418	0.222
419	0.222
419	0.222
420	0.222
420	0.222
421	0.222
421	0.222
421	0.222
422	0.222
422	0.222
423	0.222
423	0.222
424	0.221
424	0.221
425	0.221
425	0.221
426	0.22
426	0.22
427	0.22
427	0.22
427	0.22
428	0.22
428	0.22
429	0.22
429	0.22
430	0.22
430	0.22
431	0.219
431	0.219
432	0.219
432	0.219
432	0.219
433	0.218
433	0.218
434	0.218
434	0.218
435	0.218
435	0.218
436	0.218
436	0.218
437	0.218
437	0.217
437	0.217
438	0.217
438	0.218
439	0.217
439	0.218
440	0.217
440	0.217
441	0.217
441	0.217
442	0.217
442	0.217
442	0.217
443	0.217
443	0.217
444	0.217
444	0.217
445	0.216
445	0.217
446	0.217
446	0.217
447	0.217
447	0.217
447	0.217
448	0.217
448	0.217
449	0.217
449	0.217
450	0.217
450	0.217
451	0.217
451	0.217
452	0.217
452	0.217
452	0.216
453	0.216
453	0.216
454	0.216
454	0.216
455	0.216
455	0.215
456	0.215
456	0.215
457	0.215
457	0.215
458	0.215
458	0.215
458	0.215
459	0.215
459	0.215
460	0.215
460	0.215
461	0.215
461	0.215
462	0.215
462	0.215
463	0.215
463	0.215
463	0.215
464	0.215
464	0.215
465	0.215
465	0.215
466	0.215
466	0.216
467	0.216
467	0.216
467	0.215
468	0.215
468	0.215
469	0.215
469	0.216
470	0.216
470	0.216
471	0.216
471	0.216
472	0.216
472	0.216
472	0.217
473	0.217
473	0.217
474	0.217
474	0.218
475	0.218
475	0.218
476	0.218
476	0.218
477	0.218
477	0.218
477	0.218
478	0.219
478	0.219
479	0.219
479	0.22
480	0.22
480	0.22
481	0.22
481	0.221
482	0.221
482	0.221
482	0.221
483	0.222
483	0.222
484	0.222
484	0.221
485	0.222
485	0.222
486	0.222
486	0.222
487	0.223
487	0.224
487	0.224
488	0.224
488	0.225
489	0.226
489	0.227
490	0.228
490	0.229
491	0.23
491	0.231
492	0.231
492	0.232
492	0.233
493	0.233
493	0.234
494	0.235
494	0.235
495	0.236
495	0.236
496	0.237
496	0.238
496	0.239
497	0.24
497	0.241
498	0.242
498	0.243
499	0.244
499	0.246
500	0.247
500	0.248
501	0.249
501	0.25
501	0.25
502	0.251
502	0.252
503	0.253
503	0.254
504	0.255
504	0.256
505	0.257
505	0.258
506	0.259
506	0.26
506	0.261
507	0.262
507	0.263
508	0.264
508	0.265
509	0.266
509	0.267
510	0.268
510	0.269
511	0.27
511	0.271
511	0.273
512	0.274
512	0.275
513	0.276
513	0.278
514	0.279
514	0.28
515	0.281
515	0.282
515	0.283
516	0.284
516	0.285
517	0.287
517	0.288
518	0.289
518	0.29
519	0.291
519	0.292
520	0.293
520	0.294
520	0.296
521	0.297
521	0.298
522	0.299
522	0.301
523	0.302
523	0.304
524	0.304
524	0.305
524	0.306
525	0.307
525	0.307
526	0.308
526	0.309
527	0.31
527	0.311
528	0.311
528	0.312
529	0.313
529	0.314
529	0.315
530	0.316
530	0.317
531	0.318
531	0.318
532	0.319
532	0.32
533	0.32
533	0.321
533	0.322
534	0.322
534	0.322
535	0.323
535	0.323
536	0.323
536	0.324
537	0.324
537	0.324
538	0.325
538	0.325
538	0.326
539	0.327
539	0.327
540	0.328
540	0.328
541	0.328
541	0.329
542	0.329
542	0.33
542	0.33
543	0.33
543	0.33
544	0.329
544	0.329
545	0.33
545	0.33
546	0.331
546	0.33
547	0.33
547	0.33
547	0.331
548	0.331
548	0.331
549	0.332
549	0.332
550	0.333
550	0.333
551	0.333
551	0.334
551	0.335
552	0.336
552	0.337
553	0.338
553	0.338
554	0.339
554	0.338
555	0.338
555	0.339
556	0.339
556	0.339
556	0.339
557	0.339
557	0.338
558	0.338
558	0.338
559	0.338
559	0.338
560	0.338
560	0.338
560	0.338
561	0.339
561	0.338
562	0.338
562	0.338
563	0.338
563	0.338
564	0.338
564	0.338
564	0.339
565	0.339
565	0.34
566	0.339
566	0.34
567	0.34
567	0.34
568	0.34
568	0.34
568	0.339
569	0.339
569	0.338
570	0.337
570	0.336
571	0.336
571	0.336
572	0.336
572	0.336
573	0.336
573	0.335
573	0.335
574	0.335
574	0.336
575	0.336
575	0.337
576	0.337
576	0.337
577	0.336
577	0.337
577	0.337
578	0.338
578	0.338
579	0.339
579	0.339
580	0.338
580	0.337
581	0.336
581	0.336
581	0.337
582	0.337
582	0.337
583	0.337
583	0.337
584	0.336
584	0.336
585	0.337
585	0.338
585	0.338
586	0.338
586	0.338
587	0.338
587	0.337
588	0.337
588	0.337
589	0.337
589	0.337
590	0.337
590	0.337
590	0.338
591	0.338
591	0.337
592	0.337
592	0.336
593	0.337
593	0.337
594	0.336
594	0.336
594	0.336
595	0.336
595	0.335
596	0.336
596	0.337
597	0.338
597	0.338
598	0.338
598	0.338
598	0.337
599	0.337
599	0.336
600	0.335
600	0.335
601	0.334
601	0.333
602	0.332
602	0.332
602	0.331
603	0.332
603	0.333
604	0.333
604	0.333
605	0.334
605	0.334
606	0.334
606	0.333
606	0.333
607	0.333
607	0.333
608	0.331
608	0.33
609	0.33
609	0.33
610	0.329
610	0.329
610	0.329
611	0.33
611	0.331
612	0.332
612	0.332
613	0.333
613	0.333
614	0.333
614	0.332
614	0.331
615	0.33
615	0.33
616	0.329
616	0.328
617	0.327
617	0.325
618	0.324
618	0.324
618	0.323
619	0.323
619	0.323
620	0.324
620	0.323
621	0.322
621	0.322
622	0.321
622	0.321
622	0.32
623	0.319
623	0.319
624	0.318
624	0.317
625	0.316
625	0.316
626	0.315
626	0.314
626	0.313
627	0.313
627	0.311
628	0.31
628	0.309
629	0.307
629	0.305
630	0.303
630	0.3
630	0.298
631	0.296
631	0.293
632	0.29
632	0.288
633	0.285
633	0.281
634	0.278
634	0.275
634	0.272
635	0.269
635	0.265
636	0.261
636	0.257
637	0.253
637	0.248
638	0.243
638	0.238
638	0.233
639	0.227
639	0.221
640	0.215
640	0.209
641	0.203
641	0.197
642	0.191
642	0.185
642	0.179
643	0.172
643	0.165
644	0.158
644	0.151
645	0.144
645	0.136
646	0.129
646	0.121
646	0.113
647	0.105
647	0.097
648	0.088
648	0.08
649	0.071
649	0.062
650	0.054
650	0.045
650	0.035
651	0.023
651	0.01
652	-0.007
652	-0.024
653	-0.039
653	-0.052
653	-0.048
654	-0.027
654	-0.015
655	-0.019
655	-0.025
656	-0.031
656	-0.037
657	-0.042
657	-0.046
657	-0.053
658	-0.059
658	-0.091
659	-0.181
659	-0.286
660	-0.333
660	-0.36
661	-0.389
661	-0.421
661	-0.456
662	-0.489
662	-0.525
663	-0.565
663	-0.607
664	-0.651
664	-0.704
665	-0.755
665	-0.814
665	-0.87
666	-0.927
666	-0.989
667	-1.053
667	-1.119
668	-1.19
668	-1.264
669	-1.338
669	-1.412
669	-1.49
670	-1.561
670	-1.603
671	-1.766
671	-2.012
672	-2.228
672	-2.412
672	-2.537
673	-2.627
673	-2.705
674	-2.747
674	-2.765
675	-2.79
675	-2.928
676	-3.117
676	-3.069
676	-2.845
677	-2.642
677	-2.479
678	-2.304
678	-2.008
679	-1.728
679	-1.592
680	-1.499
680	-1.417
680	-1.346
681	-1.303
681	-1.245
682	-1.207
682	-1.171
683	-1.136
683	-1.12
684	-1.099
684	-1.081
684	-1.061
685	-1.038
685	-1.017
686	-0.993
686	-0.978
687	-0.952
687	-0.942
687	-0.923
688	-0.896
688	-0.877
689	-0.857
689	-0.842
690	-0.823
690	-0.811
691	-0.804
691	-0.809
691	-0.826
692	-0.817
692	-0.809
693	-0.806
693	-0.813
694	-0.808
694	-0.801
695	-0.805
695	-0.803
695	-0.786
696	-0.783
696	-0.76
697	-0.76
697	-0.774
698	-0.775
698	-0.766
698	-0.78
699	-0.784
699	-0.782
700	-0.773
700	-0.79
701	-0.787
701	-0.792
702	-0.792
702	-0.78
702	-0.773
703	-0.767
703	-0.759
704	-0.756
704	-0.754
705	-0.767
705	-0.76
705	-0.749
706	-0.752
706	-0.749
707	-0.754
707	-0.75
708	-0.747
708	-0.739
709	-0.742
709	-0.745
709	-0.735
710	-0.741
710	-0.75
711	-0.74
711	-0.74
712	-0.737
712	-0.749
713	-0.748
713	-0.755
713	-0.746
714	-0.743
714	-0.745
715	-0.736
715	-0.723
716	-0.731
716	-0.734
716	-0.728
717	-0.729
717	-0.731
718	-0.721
718	-0.721
719	-0.727
719	-0.727
720	-0.725
720	-0.735
720	-0.729
721	-0.718
721	-0.718
722	-0.706
722	-0.696
723	-0.695
723	-0.7
723	-0.686
724	-0.69
724	-0.695
725	-0.693
725	-0.703
726	-0.715
726	-0.72
727	-0.725
727	-0.741
727	-0.748
728	-0.749
728	-0.755
729	-0.754
729	-0.756
730	-0.762
730	-0.755
730	-0.744
731	-0.729
731	-0.74
732	-0.744
732	-0.745
733	-0.742
733	-0.748
734	-0.743
734	-0.742
734	-0.729
735	-0.728
735	-0.73
736	-0.74
736	-0.727
737	-0.718
737	-0.718
737	-0.729
738	-0.725
738	-0.725
739	-0.725
739	-0.739
740	-0.737
740	-0.737
741	-0.732
741	-0.732
741	-0.736
742	-0.733
742	-0.733
743	-0.738
743	-0.745
744	-0.738
744	-0.728
744	-0.731
745	-0.736
745	-0.729
746	-0.729
746	-0.725
747	-0.726
747	-0.712
748	-0.7
748	-0.705
748	-0.709
749	-0.708
749	-0.707
750	-0.697
750	-0.698
751	-0.699
751	-0.71
751	-0.714
752	-0.72
752	-0.731
753	-0.725
753	-0.723
754	-0.727
754	-0.721
754	-0.735
755	-0.752
755	-0.765
756	-0.753
756	-0.748
757	-0.745
757	-0.738
758	-0.74
758	-0.735
758	-0.74
759	-0.748
759	-0.731
760	-0.724
760	-0.72
761	-0.731
761	-0.731
761	-0.73
762	-0.74
762	-0.738
763	-0.748
763	-0.742
764	-0.741
764	-0.748
764	-0.752
765	-0.741
765	-0.727
766	-0.733
766	-0.74
767	-0.751
767	-0.748
768	-0.741
768	-0.75
768	-0.755
769	-0.774
769	-0.776
770	-0.781
770	-0.793
771	-0.794
771	-0.796
771	-0.798
772	-0.801
772	-0.798
773	-0.798
773	-0.793
774	-0.791
774	-0.793
775	-0.795
775	-0.792
775	-0.797
776	-0.797
776	-0.787
777	-0.795
777	-0.815
778	-0.812
778	-0.832
778	-0.819
779	-0.839
779	-0.848
780	-0.862
780	-0.859
781	-0.873
781	-0.867
781	-0.882
782	-0.883
782	-0.887
783	-0.874
783	-0.872
784	-0.854
784	-0.843
784	-0.85
785	-0.859
785	-0.842
786	-0.849
786	-0.827
787	-0.812
787	-0.812
788	-0.815
788	-0.825
788	-0.834
789	-0.834
789	-0.816
790	-0.797
790	-0.8
791	-0.801
791	-0.819
791	-0.825
792	-0.819
792	-0.792
793	-0.781
793	-0.759
794	-0.763
794	-0.756
794	-0.765
795	-0.759
795	-0.75
796	-0.736
796	-0.744
797	-0.738
797	-0.754
797	-0.762
798	-0.776
798	-0.77
799	-0.78
799	-0.765
800	-0.77
800	-0.765
801	-0.77
801	-0.756
801	-0.767
802	-0.773
802	-0.773
803	-0.773
803	-0.781
804	-0.777
804	-0.788
804	-0.775
805	-0.779
805	-0.766
806	-0.766
806	-0.75
807	-0.749
807	-0.731
807	-0.718
808	-0.711
808	-0.707
809	-0.693
809	-0.701
810	-0.698
810	-0.691
810	-0.691
811	-0.696
811	-0.687
812	-0.687
812	-0.693
813	-0.697
813	-0.693
813	-0.7
814	-0.703
814	-0.707
815	-0.712
815	-0.714
816	-0.708
816	-0.712
817	-0.72
817	-0.738
817	-0.751
818	-0.758
818	-0.76
819	-0.751
819	-0.753
820	-0.763
820	-0.759
820	-0.771
821	-0.769
821	-0.756
822	-0.723
822	-0.699
823	-0.695
823	-0.698
823	-0.692
824	-0.688
824	-0.69
825	-0.682
825	-0.66
826	-0.656
826	-0.664
826	-0.671
827	-0.664
827	-0.661
828	-0.64
828	-0.641
829	-0.629
829	-0.614
829	-0.608
830	-0.617
830	-0.611
831	-0.605
831	-0.596
832	-0.596
832	-0.588
832	-0.596
833	-0.591
833	-0.592
834	-0.59
834	-0.597
835	-0.585
835	-0.583
835	-0.578
836	-0.575
836	-0.572
837	-0.569
837	-0.558
838	-0.551
838	-0.539
839	-0.526
839	-0.512
839	-0.504
840	-0.492
840	-0.489
841	-0.477
841	-0.469
842	-0.463
842	-0.453
842	-0.444
843	-0.437
843	-0.434
844	-0.424
844	-0.415
845	-0.406
845	-0.396
845	-0.382
846	-0.37
846	-0.354
847	-0.343
847	-0.332
848	-0.321
848	-0.308
848	-0.292
849	-0.282
849	-0.268
850	-0.254
850	-0.249
851	-0.24
851	-0.228
851	-0.217
852	-0.202
852	-0.187
853	-0.178
853	-0.171
854	-0.159
854	-0.146
854	-0.134
855	-0.123
855	-0.114
856	-0.102
856	-0.094
857	-0.086
857	-0.077
857	-0.065
858	-0.053
858	-0.045
859	-0.036
859	-0.024
860	-0.014
860	0
860	0.009
861	0.018
861	0.027
862	0.035
862	0.043
863	0.05
863	0.06
863	0.066
864	0.071
864	0.078
865	0.083
865	0.089
866	0.094
866	0.098
866	0.103
867	0.107
867	0.111
868	0.113
868	0.117
869	0.121
869	0.123
869	0.125
870	0.127
870	0.13
871	0.132
871	0.133
872	0.135
872	0.135
872	0.136
873	0.136
873	0.136
874	0.136
874	0.135
875	0.134
875	0.133
875	0.132
876	0.131
876	0.13
877	0.129
877	0.128
878	0.126
878	0.125
878	0.123
879	0.122
879	0.121
880	0.121
880	0.121
881	0.121
881	0.121
881	0.12
882	0.119
882	0.118
883	0.117
883	0.115
884	0.114
884	0.113
884	0.113
885	0.112
885	0.111
886	0.111
886	0.11
887	0.11
887	0.11
887	0.11
888	0.111
888	0.11
889	0.111
889	0.111
890	0.111
890	0.11
890	0.11
891	0.111
891	0.111
892	0.111
892	0.111
893	0.111
893	0.111
893	0.111
894	0.111
894	0.111
895	0.111
895	0.111
895	0.11
896	0.11
896	0.109
897	0.108
897	0.107
898	0.106
898	0.105
898	0.104
899	0.104
899	0.104
900	0.104
900	0.104
901	0.105
901	0.105
901	0.106
902	0.107
902	0.107
903	0.108
903	0.108
904	0.109
904	0.109
904	0.11
905	0.11
905	0.11
906	0.111
906	0.111
907	0.111
907	0.11
907	0.11
908	0.109
908	0.109
909	0.108
909	0.107
910	0.106
910	0.106
910	0.105
911	0.106
911	0.106
912	0.107
912	0.108
913	0.108
913	0.109
913	0.11
914	0.111
914	0.112
915	0.113
915	0.113
916	0.114
916	0.114
916	0.115
917	0.115
917	0.115
918	0.114
918	0.114
918	0.114
919	0.113
919	0.113
920	0.113
920	0.113
921	0.112
921	0.112
921	0.112
922	0.111
922	0.111
923	0.111
923	0.11
924	0.11
924	0.109
924	0.109
925	0.108
925	0.107
926	0.106
926	0.105
927	0.104
927	0.103
927	0.103
928	0.102
928	0.101
929	0.101
929	0.1
930	0.099
930	0.098
930	0.098
931	0.097
931	0.096
932	0.096
932	0.095
933	0.094
933	0.093
933	0.092
934	0.091
934	0.09
935	0.089
935	0.088
935	0.088
936	0.087
936	0.086
937	0.085
937	0.085
938	0.085
938	0.084
938	0.085
939	0.085
939	0.085
940	0.086
940	0.086
941	0.086
941	0.086
941	0.087
942	0.087
942	0.088
943	0.088
943	0.087
944	0.087
944	0.086
944	0.085
945	0.085
945	0.084
946	0.083
946	0.081
946	0.08
947	0.079
947	0.079
948	0.079
948	0.078
949	0.078
949	0.079
949	0.079
950	0.079
950	0.079
951	0.081
951	0.081
952	0.081
952	0.082
952	0.083
953	0.084
953	0.086
954	0.086
954	0.087
955	0.087
955	0.089
955	0.089
956	0.09
956	0.091
957	0.091
957	0.091
957	0.091
958	0.091
958	0.092
959	0.093
959	0.093
960	0.093
960	0.093
960	0.094
961	0.093
961	0.094
962	0.094
962	0.094
963	0.094
963	0.093
963	0.093
964	0.093
964	0.093
965	0.093
965	0.093
966	0.093
966	0.092
966	0.092
967	0.091
967	0.091
968	0.09
968	0.089
968	0.089
969	0.089
969	0.088
970	0.088
970	0.088
971	0.088
971	0.089
971	0.089
972	0.089
972	0.089
973	0.089
973	0.089
974	0.089
974	0.089
974	0.089
975	0.089
975	0.088
976	0.087
976	0.087
976	0.087
977	0.087
977	0.087
978	0.087
978	0.087
979	0.087
979	0.087
979	0.087
980	0.087
980	0.087
981	0.087
981	0.087
982	0.087
982	0.086
982	0.086
983	0.085
983	0.085
984	0.084
984	0.084
984	0.083
985	0.083
985	0.083
986	0.082
986	0.082
987	0.081
987	0.081
987	0.08
988	0.08
988	0.079
989	0.078
989	0.077
990	0.076
990	0.075
990	0.075
991	0.075
991	0.075
992	0.074
992	0.074
992	0.074
993	0.074
993	0.074
994	0.074
994	0.073
995	0.073
995	0.072
995	0.072
996	0.071
996	0.071
997	0.07
997	0.07
997	0.07
998	0.07
998	0.07
999	0.071
999	0.071
1000	0.072
1000	0.072
1000	0.072
1001	0.073
1001	0.073
1002	0.074
1002	0.074
1003	0.074
1003	0.074
1003	0.074
1004	0.074
1004	0.073
1005	0.072
1005	0.072
1005	0.071
1006	0.07
1006	0.069
1007	0.068
1007	0.067
1008	0.066
1008	0.065
1008	0.065
1009	0.065
1009	0.065
1010	0.065
1010	0.065
1010	0.065
1011	0.065
1011	0.065
1012	0.065
1012	0.065
1013	0.065
1013	0.064
1013	0.063
1014	0.063
1014	0.062
1015	0.062
1015	0.061
1016	0.06
1016	0.059
1016	0.059
1017	0.057
1017	0.056
1018	0.055
1018	0.054
1018	0.053
1019	0.052
1019	0.051
1020	0.05
1020	0.05
1021	0.049
1021	0.049
1021	0.048
1022	0.047
1022	0.047
1023	0.047
1023	0.047
1023	0.047
1024	0.047
1024	0.046
1025	0.046
1025	0.047
1026	0.047
1026	0.048
1026	0.048
1027	0.048
1027	0.048
1028	0.048
1028	0.048
1028	0.048
1029	0.048
1029	0.048
1030	0.047
1030	0.046
1031	0.046
1031	0.046
1031	0.045
1032	0.045
1032	0.045
1033	0.045
1033	0.045
1033	0.045
1034	0.045
1034	0.045
1035	0.045
1035	0.044
1036	0.044
1036	0.044
1036	0.044
1037	0.044
1037	0.044
1038	0.043
1038	0.044
1039	0.044
1039	0.044
1039	0.045
1040	0.045
1040	0.046
1041	0.046
1041	0.046
1041	0.046
1042	0.046
1042	0.046
1043	0.045
1043	0.045
1044	0.044
1044	0.043
1044	0.042
1045	0.041
1045	0.04
1046	0.039
1046	0.039
1046	0.038
1047	0.039
1047	0.039
1048	0.039
1048	0.039
1049	0.039
1049	0.039
1049	0.039
1050	0.039
1050	0.04
1051	0.04
1051	0.04
1051	0.04
1052	0.041
1052	0.041
1053	0.041
1053	0.042
1053	0.042
1054	0.041
1054	0.042
1055	0.042
1055	0.041
1056	0.041
1056	0.04
1056	0.039
1057	0.038
1057	0.038
1058	0.037
1058	0.037
1058	0.036
1059	0.035
1059	0.035
1060	0.034
1060	0.034
1061	0.033
1061	0.033
1061	0.033
1062	0.032
1062	0.032
1063	0.032
1063	0.032
1063	0.032
1064	0.032
1064	0.032
1065	0.032
1065	0.032
1066	0.031
1066	0.031
1066	0.031
1067	0.032
1067	0.031
1068	0.03
1068	0.03
1068	0.03
1069	0.03
1069	0.029
1070	0.029
1070	0.029
1071	0.028
1071	0.028
1071	0.027
1072	0.027
1072	0.027
1073	0.026
1073	0.026
1073	0.025
1074	0.025
1074	0.026
1075	0.025
1075	0.024
1076	0.024
1076	0.024
1076	0.023
1077	0.022
1077	0.022
1078	0.021
1078	0.021
1078	0.02
1079	0.019
1079	0.018
1080	0.017
1080	0.017
1080	0.016
1081	0.016
1081	0.016
1082	0.015
1082	0.014
1083	0.013
1083	0.012
1083	0.011
1084	0.01
1084	0.01
1085	0.009
1085	0.008
1085	0.007
1086	0.006
1086	0.005
1087	0.006
1087	0.005
1088	0.004
1088	0.004
1088	0.003
1089	0.002
1089	0
1090	-0.001
1090	-0.002
1090	-0.004
1091	-0.005
1091	-0.006
1092	-0.007
1092	-0.007
1092	-0.008
1093	-0.009
1093	-0.009
1094	-0.009
1094	-0.01
1095	-0.011
1095	-0.012
1095	-0.012
1096	-0.013
1096	-0.014
1097	-0.015
1097	-0.016
1097	-0.017
1098	-0.019
1098	-0.021
1099	-0.021
1099	-0.022
1100	-0.024
1100	-0.026
1100	-0.028
1101	-0.03
1101	-0.033
1102	-0.035
1102	-0.038
1102	-0.039
1103	-0.041
1103	-0.043
1104	-0.046
1104	-0.049
1104	-0.051
1105	-0.053
1105	-0.057
1106	-0.061
1106	-0.063
1107	-0.068
1107	-0.072
1107	-0.077
1108	-0.08
1108	-0.082
1109	-0.086
1109	-0.091
1109	-0.093
1110	-0.093
1110	-0.095
1111	-0.103
1111	-0.104
