Data from 17C_3.1A_35min_2sec_int_Absorbance__425__02828.txt Node

Date: Mon Jun 19 18:32:32 CEST 2023
User: Marek
Spectrometer: MAYP115816
Trigger mode: 0
Integration Time (sec): 2.500000E-1
Scans to average: 10
Electric dark correction enabled: true
Nonlinearity correction enabled: true
Boxcar width: 5
XAxis mode: Wavelengths
Number of Pixels in Spectrum: 2068
>>>>>Begin Spectral Data<<<<<
199	-0.754
199	-0.768
200	-0.676
200	-0.626
201	-0.589
201	-0.577
202	-0.558
202	-0.545
203	-0.537
203	-0.532
204	-0.519
204	-0.504
205	-0.481
205	-0.472
205	-0.471
206	-0.472
206	-0.472
207	-0.463
207	-0.465
208	-0.465
208	-0.465
209	-0.462
209	-0.461
210	-0.463
210	-0.471
211	-0.472
211	-0.475
212	-0.479
212	-0.489
213	-0.486
213	-0.489
213	-0.49
214	-0.486
214	-0.487
215	-0.487
215	-0.494
216	-0.496
216	-0.504
217	-0.499
217	-0.504
218	-0.509
218	-0.507
219	-0.513
219	-0.524
220	-0.53
220	-0.539
221	-0.537
221	-0.54
221	-0.533
222	-0.529
222	-0.529
223	-0.528
223	-0.532
224	-0.536
224	-0.536
225	-0.529
225	-0.525
226	-0.529
226	-0.528
227	-0.533
227	-0.544
228	-0.544
228	-0.547
229	-0.55
229	-0.543
229	-0.538
230	-0.544
230	-0.548
231	-0.542
231	-0.535
232	-0.529
232	-0.527
233	-0.518
233	-0.517
234	-0.515
234	-0.513
235	-0.517
235	-0.52
236	-0.518
236	-0.523
236	-0.529
237	-0.536
237	-0.535
238	-0.547
238	-0.546
239	-0.545
239	-0.552
240	-0.552
240	-0.549
241	-0.554
241	-0.552
242	-0.556
242	-0.55
243	-0.548
243	-0.548
243	-0.557
244	-0.556
244	-0.557
245	-0.572
245	-0.573
246	-0.576
246	-0.582
247	-0.585
247	-0.59
248	-0.598
248	-0.594
249	-0.598
249	-0.607
250	-0.605
250	-0.6
250	-0.599
251	-0.598
251	-0.596
252	-0.599
252	-0.589
253	-0.593
253	-0.605
254	-0.601
254	-0.598
255	-0.606
255	-0.6
256	-0.599
256	-0.61
257	-0.609
257	-0.609
258	-0.623
258	-0.62
258	-0.614
259	-0.613
259	-0.621
260	-0.62
260	-0.624
261	-0.635
261	-0.625
262	-0.621
262	-0.619
263	-0.61
263	-0.605
264	-0.607
264	-0.614
265	-0.61
265	-0.619
265	-0.622
266	-0.621
266	-0.617
267	-0.631
267	-0.64
268	-0.654
268	-0.665
269	-0.664
269	-0.658
270	-0.664
270	-0.666
271	-0.666
271	-0.67
272	-0.675
272	-0.668
272	-0.661
273	-0.66
273	-0.669
274	-0.674
274	-0.676
275	-0.677
275	-0.671
276	-0.679
276	-0.67
277	-0.674
277	-0.692
278	-0.703
278	-0.696
278	-0.687
279	-0.689
279	-0.701
280	-0.698
280	-0.698
281	-0.69
281	-0.698
282	-0.692
282	-0.695
283	-0.684
283	-0.688
284	-0.682
284	-0.67
285	-0.666
285	-0.663
285	-0.659
286	-0.668
286	-0.661
287	-0.658
287	-0.641
288	-0.633
288	-0.643
289	-0.657
289	-0.667
290	-0.655
290	-0.655
291	-0.654
291	-0.646
292	-0.652
292	-0.658
292	-0.663
293	-0.668
293	-0.656
294	-0.645
294	-0.637
295	-0.637
295	-0.631
296	-0.628
296	-0.627
297	-0.62
297	-0.604
298	-0.596
298	-0.605
298	-0.592
299	-0.584
299	-0.586
300	-0.58
300	-0.579
301	-0.576
301	-0.575
302	-0.58
302	-0.589
303	-0.577
303	-0.561
304	-0.564
304	-0.565
305	-0.567
305	-0.566
305	-0.561
306	-0.544
306	-0.538
307	-0.527
307	-0.529
308	-0.541
308	-0.54
309	-0.544
309	-0.532
310	-0.521
310	-0.517
311	-0.513
311	-0.523
311	-0.518
312	-0.513
312	-0.511
313	-0.498
313	-0.499
314	-0.496
314	-0.498
315	-0.498
315	-0.497
316	-0.49
316	-0.482
317	-0.475
317	-0.471
318	-0.46
318	-0.46
318	-0.457
319	-0.446
319	-0.441
320	-0.435
320	-0.435
321	-0.44
321	-0.436
322	-0.432
322	-0.426
323	-0.426
323	-0.42
324	-0.41
324	-0.401
324	-0.394
325	-0.383
325	-0.367
326	-0.353
326	-0.337
327	-0.322
327	-0.302
328	-0.275
328	-0.254
329	-0.231
329	-0.208
330	-0.183
330	-0.151
330	-0.124
331	-0.095
331	-0.068
332	-0.042
332	-0.02
333	0.001
333	0.025
334	0.046
334	0.063
335	0.081
335	0.096
336	0.109
336	0.122
336	0.132
337	0.143
337	0.153
338	0.162
338	0.167
339	0.176
339	0.181
340	0.186
340	0.191
341	0.195
341	0.198
342	0.202
342	0.205
342	0.208
343	0.211
343	0.214
344	0.215
344	0.216
345	0.218
345	0.219
346	0.22
346	0.22
347	0.221
347	0.222
348	0.222
348	0.223
348	0.223
349	0.223
349	0.224
350	0.224
350	0.224
351	0.224
351	0.225
352	0.225
352	0.225
353	0.225
353	0.225
354	0.225
354	0.224
354	0.224
355	0.224
355	0.224
356	0.224
356	0.223
357	0.223
357	0.222
358	0.222
358	0.222
359	0.222
359	0.222
360	0.222
360	0.222
360	0.222
361	0.222
361	0.222
362	0.222
362	0.221
363	0.222
363	0.222
364	0.222
364	0.221
365	0.221
365	0.221
366	0.222
366	0.222
366	0.222
367	0.222
367	0.222
368	0.222
368	0.221
369	0.221
369	0.221
370	0.221
370	0.221
371	0.221
371	0.221
372	0.221
372	0.221
372	0.221
373	0.221
373	0.221
374	0.221
374	0.221
375	0.221
375	0.221
376	0.221
376	0.221
377	0.221
377	0.221
378	0.221
378	0.221
378	0.221
379	0.221
379	0.221
380	0.221
380	0.22
381	0.22
381	0.22
382	0.22
382	0.22
383	0.219
383	0.219
383	0.219
384	0.219
384	0.219
385	0.219
385	0.219
386	0.219
386	0.219
387	0.219
387	0.219
388	0.219
388	0.219
389	0.219
389	0.219
389	0.219
390	0.219
390	0.219
391	0.219
391	0.219
392	0.219
392	0.219
393	0.219
393	0.218
394	0.218
394	0.218
394	0.218
395	0.218
395	0.217
396	0.217
396	0.218
397	0.218
397	0.218
398	0.218
398	0.218
399	0.218
399	0.218
400	0.218
400	0.217
400	0.217
401	0.217
401	0.217
402	0.217
402	0.217
403	0.216
403	0.216
404	0.216
404	0.216
405	0.216
405	0.216
405	0.216
406	0.216
406	0.216
407	0.215
407	0.215
408	0.215
408	0.215
409	0.215
409	0.215
410	0.215
410	0.215
411	0.216
411	0.216
411	0.216
412	0.216
412	0.216
413	0.215
413	0.215
414	0.215
414	0.215
415	0.215
415	0.215
416	0.215
416	0.214
416	0.214
417	0.214
417	0.214
418	0.214
418	0.214
419	0.214
419	0.214
420	0.214
420	0.214
421	0.214
421	0.214
421	0.214
422	0.215
422	0.215
423	0.214
423	0.214
424	0.214
424	0.213
425	0.213
425	0.213
426	0.212
426	0.212
427	0.212
427	0.212
427	0.212
428	0.212
428	0.212
429	0.212
429	0.212
430	0.212
430	0.212
431	0.211
431	0.211
432	0.211
432	0.211
432	0.211
433	0.211
433	0.21
434	0.21
434	0.21
435	0.21
435	0.21
436	0.21
436	0.21
437	0.21
437	0.21
437	0.21
438	0.21
438	0.21
439	0.21
439	0.21
440	0.21
440	0.21
441	0.21
441	0.209
442	0.209
442	0.209
442	0.209
443	0.209
443	0.209
444	0.209
444	0.209
445	0.209
445	0.209
446	0.209
446	0.209
447	0.209
447	0.209
447	0.209
448	0.209
448	0.209
449	0.209
449	0.209
450	0.209
450	0.209
451	0.209
451	0.209
452	0.209
452	0.209
452	0.209
453	0.209
453	0.208
454	0.208
454	0.208
455	0.208
455	0.208
456	0.208
456	0.208
457	0.207
457	0.207
458	0.207
458	0.207
458	0.207
459	0.208
459	0.208
460	0.207
460	0.207
461	0.207
461	0.207
462	0.207
462	0.207
463	0.207
463	0.208
463	0.208
464	0.208
464	0.207
465	0.208
465	0.208
466	0.208
466	0.208
467	0.208
467	0.208
467	0.208
468	0.207
468	0.207
469	0.207
469	0.208
470	0.208
470	0.208
471	0.208
471	0.208
472	0.208
472	0.208
472	0.209
473	0.209
473	0.209
474	0.209
474	0.209
475	0.21
475	0.21
476	0.21
476	0.21
477	0.21
477	0.21
477	0.21
478	0.21
478	0.21
479	0.211
479	0.211
480	0.211
480	0.211
481	0.211
481	0.212
482	0.212
482	0.212
482	0.213
483	0.213
483	0.214
484	0.213
484	0.213
485	0.213
485	0.213
486	0.213
486	0.214
487	0.214
487	0.214
487	0.215
488	0.215
488	0.215
489	0.216
489	0.218
490	0.219
490	0.219
491	0.22
491	0.221
492	0.222
492	0.222
492	0.223
493	0.224
493	0.225
494	0.225
494	0.226
495	0.226
495	0.227
496	0.228
496	0.229
496	0.23
497	0.23
497	0.231
498	0.232
498	0.233
499	0.234
499	0.235
500	0.236
500	0.237
501	0.238
501	0.239
501	0.24
502	0.24
502	0.241
503	0.243
503	0.243
504	0.244
504	0.245
505	0.246
505	0.247
506	0.248
506	0.249
506	0.25
507	0.25
507	0.251
508	0.252
508	0.253
509	0.254
509	0.255
510	0.256
510	0.257
511	0.258
511	0.259
511	0.26
512	0.262
512	0.263
513	0.264
513	0.265
514	0.266
514	0.267
515	0.268
515	0.269
515	0.27
516	0.271
516	0.273
517	0.274
517	0.275
518	0.276
518	0.276
519	0.277
519	0.278
520	0.28
520	0.281
520	0.282
521	0.284
521	0.285
522	0.286
522	0.287
523	0.289
523	0.29
524	0.291
524	0.291
524	0.292
525	0.293
525	0.294
526	0.294
526	0.295
527	0.296
527	0.296
528	0.297
528	0.298
529	0.299
529	0.3
529	0.301
530	0.302
530	0.303
531	0.303
531	0.304
532	0.304
532	0.305
533	0.306
533	0.306
533	0.307
534	0.307
534	0.307
535	0.308
535	0.308
536	0.308
536	0.308
537	0.309
537	0.309
538	0.31
538	0.31
538	0.31
539	0.311
539	0.312
540	0.312
540	0.313
541	0.313
541	0.314
542	0.314
542	0.314
542	0.314
543	0.315
543	0.315
544	0.315
544	0.315
545	0.315
545	0.315
546	0.316
546	0.316
547	0.315
547	0.315
547	0.316
548	0.316
548	0.316
549	0.317
549	0.317
550	0.317
550	0.318
551	0.318
551	0.319
551	0.32
552	0.321
552	0.322
553	0.323
553	0.323
554	0.323
554	0.323
555	0.323
555	0.324
556	0.324
556	0.324
556	0.324
557	0.324
557	0.323
558	0.323
558	0.323
559	0.323
559	0.324
560	0.324
560	0.323
560	0.323
561	0.324
561	0.324
562	0.323
562	0.323
563	0.323
563	0.323
564	0.323
564	0.323
564	0.324
565	0.324
565	0.325
566	0.325
566	0.325
567	0.325
567	0.326
568	0.326
568	0.325
568	0.325
569	0.325
569	0.324
570	0.323
570	0.322
571	0.323
571	0.322
572	0.322
572	0.322
573	0.321
573	0.321
573	0.321
574	0.321
574	0.321
575	0.322
575	0.323
576	0.323
576	0.322
577	0.322
577	0.323
577	0.323
578	0.324
578	0.324
579	0.325
579	0.326
580	0.325
580	0.324
581	0.323
581	0.323
581	0.324
582	0.324
582	0.324
583	0.324
583	0.324
584	0.323
584	0.323
585	0.324
585	0.325
585	0.325
586	0.325
586	0.325
587	0.325
587	0.324
588	0.324
588	0.324
589	0.324
589	0.324
590	0.324
590	0.324
590	0.325
591	0.325
591	0.325
592	0.324
592	0.324
593	0.324
593	0.324
594	0.324
594	0.324
594	0.324
595	0.324
595	0.324
596	0.324
596	0.325
597	0.326
597	0.326
598	0.326
598	0.326
598	0.326
599	0.325
599	0.324
600	0.324
600	0.323
601	0.323
601	0.322
602	0.321
602	0.321
602	0.32
603	0.321
603	0.322
604	0.322
604	0.323
605	0.323
605	0.324
606	0.323
606	0.323
606	0.322
607	0.322
607	0.322
608	0.321
608	0.32
609	0.319
609	0.319
610	0.319
610	0.319
610	0.32
611	0.32
611	0.321
612	0.322
612	0.323
613	0.324
613	0.324
614	0.323
614	0.322
614	0.322
615	0.321
615	0.32
616	0.32
616	0.319
617	0.318
617	0.316
618	0.316
618	0.315
618	0.314
619	0.314
619	0.315
620	0.315
620	0.314
621	0.314
621	0.314
622	0.313
622	0.313
622	0.312
623	0.311
623	0.311
624	0.311
624	0.31
625	0.309
625	0.309
626	0.308
626	0.307
626	0.307
627	0.306
627	0.305
628	0.304
628	0.302
629	0.301
629	0.299
630	0.297
630	0.295
630	0.293
631	0.291
631	0.289
632	0.286
632	0.283
633	0.28
633	0.277
634	0.274
634	0.271
634	0.268
635	0.265
635	0.261
636	0.258
636	0.254
637	0.249
637	0.245
638	0.24
638	0.236
638	0.23
639	0.225
639	0.219
640	0.213
640	0.208
641	0.202
641	0.196
642	0.191
642	0.185
642	0.179
643	0.173
643	0.166
644	0.159
644	0.152
645	0.145
645	0.138
646	0.13
646	0.123
646	0.114
647	0.107
647	0.099
648	0.091
648	0.083
649	0.074
649	0.065
650	0.057
650	0.048
650	0.038
651	0.027
651	0.013
652	-0.003
652	-0.02
653	-0.034
653	-0.048
653	-0.045
654	-0.024
654	-0.012
655	-0.016
655	-0.021
656	-0.028
656	-0.035
657	-0.04
657	-0.045
657	-0.051
658	-0.057
658	-0.088
659	-0.178
659	-0.282
660	-0.329
660	-0.357
661	-0.384
661	-0.414
661	-0.449
662	-0.483
662	-0.517
663	-0.556
663	-0.599
664	-0.642
664	-0.695
665	-0.745
665	-0.804
665	-0.858
666	-0.914
666	-0.975
667	-1.039
667	-1.104
668	-1.176
668	-1.248
669	-1.322
669	-1.394
669	-1.472
670	-1.538
670	-1.564
671	-1.684
671	-1.967
672	-2.197
672	-2.389
672	-2.519
673	-2.612
673	-2.692
674	-2.735
674	-2.753
675	-2.778
675	-2.919
676	-3.117
676	-3.068
676	-2.844
677	-2.64
677	-2.477
678	-2.301
678	-2.002
679	-1.724
679	-1.588
680	-1.494
680	-1.411
680	-1.341
681	-1.297
681	-1.24
682	-1.202
682	-1.166
683	-1.131
683	-1.115
684	-1.095
684	-1.077
684	-1.056
685	-1.032
685	-1.012
686	-0.988
686	-0.973
687	-0.948
687	-0.938
687	-0.92
688	-0.895
688	-0.875
689	-0.854
689	-0.841
690	-0.823
690	-0.81
691	-0.804
691	-0.809
691	-0.825
692	-0.817
692	-0.807
693	-0.802
693	-0.812
694	-0.807
694	-0.8
695	-0.805
695	-0.803
695	-0.786
696	-0.782
696	-0.76
697	-0.759
697	-0.776
698	-0.78
698	-0.771
698	-0.786
699	-0.789
699	-0.786
700	-0.778
700	-0.792
701	-0.791
701	-0.799
702	-0.799
702	-0.786
702	-0.778
703	-0.769
703	-0.758
704	-0.755
704	-0.756
705	-0.768
705	-0.761
705	-0.75
706	-0.749
706	-0.744
707	-0.749
707	-0.744
708	-0.742
708	-0.734
709	-0.737
709	-0.74
709	-0.73
710	-0.738
710	-0.749
711	-0.74
711	-0.742
712	-0.741
712	-0.756
713	-0.756
713	-0.764
713	-0.755
714	-0.751
714	-0.753
715	-0.743
715	-0.729
716	-0.737
716	-0.737
716	-0.731
717	-0.731
717	-0.734
718	-0.722
718	-0.723
719	-0.73
719	-0.731
720	-0.728
720	-0.74
720	-0.734
721	-0.724
721	-0.726
722	-0.713
722	-0.703
723	-0.702
723	-0.707
723	-0.693
724	-0.695
724	-0.699
725	-0.695
725	-0.704
726	-0.718
726	-0.72
727	-0.725
727	-0.738
727	-0.745
728	-0.745
728	-0.752
729	-0.752
729	-0.757
730	-0.764
730	-0.756
730	-0.747
731	-0.73
731	-0.741
732	-0.747
732	-0.75
733	-0.747
733	-0.752
734	-0.748
734	-0.749
734	-0.735
735	-0.734
735	-0.735
736	-0.747
736	-0.733
737	-0.724
737	-0.722
737	-0.735
738	-0.73
738	-0.729
739	-0.726
739	-0.739
740	-0.736
740	-0.735
741	-0.73
741	-0.73
741	-0.734
742	-0.732
742	-0.732
743	-0.739
743	-0.741
744	-0.739
744	-0.73
744	-0.733
745	-0.739
745	-0.733
746	-0.732
746	-0.731
747	-0.732
747	-0.721
748	-0.706
748	-0.712
748	-0.713
749	-0.711
749	-0.709
750	-0.698
750	-0.699
751	-0.704
751	-0.712
751	-0.715
752	-0.718
752	-0.73
753	-0.726
753	-0.723
754	-0.729
754	-0.725
754	-0.739
755	-0.754
755	-0.764
756	-0.753
756	-0.753
757	-0.749
757	-0.745
758	-0.747
758	-0.744
758	-0.746
759	-0.755
759	-0.738
760	-0.731
760	-0.725
761	-0.736
761	-0.732
761	-0.732
762	-0.739
762	-0.739
763	-0.748
763	-0.745
764	-0.742
764	-0.75
764	-0.756
765	-0.747
765	-0.733
766	-0.74
766	-0.747
767	-0.762
767	-0.754
768	-0.746
768	-0.754
768	-0.758
769	-0.776
769	-0.777
770	-0.781
770	-0.795
771	-0.792
771	-0.794
771	-0.795
772	-0.798
772	-0.797
773	-0.798
773	-0.793
774	-0.789
774	-0.791
775	-0.794
775	-0.788
775	-0.795
776	-0.795
776	-0.784
777	-0.793
777	-0.812
778	-0.807
778	-0.826
778	-0.814
779	-0.836
779	-0.843
780	-0.859
780	-0.857
781	-0.87
781	-0.866
781	-0.882
782	-0.885
782	-0.888
783	-0.875
783	-0.874
784	-0.855
784	-0.844
784	-0.851
785	-0.858
785	-0.844
786	-0.851
786	-0.827
787	-0.811
787	-0.814
788	-0.816
788	-0.828
788	-0.837
789	-0.839
789	-0.82
790	-0.802
790	-0.803
791	-0.803
791	-0.822
791	-0.83
792	-0.822
792	-0.799
793	-0.789
793	-0.765
794	-0.77
794	-0.764
794	-0.773
795	-0.768
795	-0.759
796	-0.743
796	-0.75
797	-0.744
797	-0.756
797	-0.763
798	-0.776
798	-0.768
799	-0.779
799	-0.763
800	-0.769
800	-0.764
801	-0.77
801	-0.753
801	-0.763
802	-0.772
802	-0.771
803	-0.773
803	-0.783
804	-0.778
804	-0.788
804	-0.776
805	-0.78
805	-0.768
806	-0.773
806	-0.759
807	-0.757
807	-0.739
807	-0.727
808	-0.719
808	-0.713
809	-0.699
809	-0.708
810	-0.705
810	-0.697
810	-0.692
811	-0.699
811	-0.69
812	-0.692
812	-0.695
813	-0.699
813	-0.693
813	-0.699
814	-0.7
814	-0.704
815	-0.712
815	-0.716
816	-0.709
816	-0.712
817	-0.718
817	-0.736
817	-0.748
818	-0.757
818	-0.757
819	-0.75
819	-0.753
820	-0.76
820	-0.756
820	-0.767
821	-0.767
821	-0.755
822	-0.723
822	-0.701
823	-0.699
823	-0.704
823	-0.699
824	-0.693
824	-0.696
825	-0.688
825	-0.668
826	-0.662
826	-0.67
826	-0.681
827	-0.675
827	-0.669
828	-0.65
828	-0.65
829	-0.639
829	-0.625
829	-0.615
830	-0.625
830	-0.621
831	-0.613
831	-0.602
832	-0.6
832	-0.592
832	-0.599
833	-0.594
833	-0.595
834	-0.593
834	-0.602
835	-0.591
835	-0.586
835	-0.58
836	-0.577
836	-0.574
837	-0.569
837	-0.559
838	-0.551
838	-0.539
839	-0.524
839	-0.511
839	-0.501
840	-0.49
840	-0.486
841	-0.475
841	-0.467
842	-0.461
842	-0.449
842	-0.441
843	-0.434
843	-0.431
844	-0.421
844	-0.412
845	-0.404
845	-0.394
845	-0.38
846	-0.369
846	-0.355
847	-0.343
847	-0.333
848	-0.322
848	-0.31
848	-0.295
849	-0.282
849	-0.27
850	-0.255
850	-0.248
851	-0.237
851	-0.226
851	-0.217
852	-0.198
852	-0.184
853	-0.174
853	-0.166
854	-0.154
854	-0.141
854	-0.13
855	-0.117
855	-0.11
856	-0.098
856	-0.09
857	-0.083
857	-0.075
857	-0.062
858	-0.051
858	-0.044
859	-0.035
859	-0.023
860	-0.013
860	0.002
860	0.011
861	0.021
861	0.03
862	0.039
862	0.046
863	0.053
863	0.062
863	0.069
864	0.074
864	0.081
865	0.086
865	0.092
866	0.097
866	0.101
866	0.106
867	0.11
867	0.114
868	0.117
868	0.121
869	0.125
869	0.127
869	0.129
870	0.132
870	0.134
871	0.136
871	0.138
872	0.139
872	0.139
872	0.14
873	0.14
873	0.14
874	0.14
874	0.139
875	0.139
875	0.137
875	0.136
876	0.135
876	0.134
877	0.133
877	0.132
878	0.13
878	0.129
878	0.128
879	0.126
879	0.126
880	0.125
880	0.126
881	0.125
881	0.125
881	0.125
882	0.125
882	0.124
883	0.122
883	0.12
884	0.119
884	0.118
884	0.117
885	0.116
885	0.115
886	0.115
886	0.114
887	0.114
887	0.113
887	0.113
888	0.114
888	0.114
889	0.115
889	0.115
890	0.115
890	0.115
890	0.115
891	0.115
891	0.115
892	0.115
892	0.116
893	0.116
893	0.116
893	0.116
894	0.116
894	0.115
895	0.115
895	0.115
895	0.115
896	0.114
896	0.113
897	0.111
897	0.11
898	0.108
898	0.107
898	0.107
899	0.107
899	0.107
900	0.107
900	0.107
901	0.107
901	0.108
901	0.109
902	0.11
902	0.111
903	0.111
903	0.111
904	0.112
904	0.113
904	0.113
905	0.114
905	0.115
906	0.115
906	0.115
907	0.115
907	0.115
907	0.114
908	0.114
908	0.113
909	0.112
909	0.111
910	0.111
910	0.11
910	0.11
911	0.11
911	0.111
912	0.111
912	0.112
913	0.112
913	0.113
913	0.114
914	0.115
914	0.116
915	0.117
915	0.117
916	0.118
916	0.118
916	0.118
917	0.119
917	0.119
918	0.119
918	0.118
918	0.118
919	0.117
919	0.117
920	0.117
920	0.117
921	0.117
921	0.116
921	0.116
922	0.116
922	0.116
923	0.115
923	0.115
924	0.114
924	0.114
924	0.113
925	0.112
925	0.111
926	0.11
926	0.109
927	0.109
927	0.108
927	0.107
928	0.107
928	0.106
929	0.106
929	0.105
930	0.104
930	0.103
930	0.103
931	0.102
931	0.101
932	0.101
932	0.1
933	0.099
933	0.098
933	0.097
934	0.095
934	0.094
935	0.094
935	0.093
935	0.093
936	0.092
936	0.09
937	0.09
937	0.089
938	0.089
938	0.089
938	0.089
939	0.089
939	0.089
940	0.089
940	0.089
941	0.089
941	0.09
941	0.091
942	0.091
942	0.091
943	0.091
943	0.091
944	0.09
944	0.089
944	0.089
945	0.089
945	0.087
946	0.086
946	0.085
946	0.084
947	0.083
947	0.082
948	0.083
948	0.083
949	0.082
949	0.082
949	0.082
950	0.083
950	0.083
951	0.084
951	0.084
952	0.085
952	0.086
952	0.086
953	0.087
953	0.089
954	0.089
954	0.09
955	0.091
955	0.092
955	0.093
956	0.094
956	0.094
957	0.094
957	0.094
957	0.095
958	0.095
958	0.096
959	0.096
959	0.096
960	0.097
960	0.096
960	0.097
961	0.097
961	0.097
962	0.097
962	0.097
963	0.097
963	0.097
963	0.097
964	0.097
964	0.097
965	0.097
965	0.096
966	0.096
966	0.096
966	0.095
967	0.095
967	0.094
968	0.094
968	0.093
968	0.093
969	0.092
969	0.092
970	0.091
970	0.091
971	0.091
971	0.092
971	0.092
972	0.092
972	0.093
973	0.093
973	0.092
974	0.092
974	0.092
974	0.092
975	0.092
975	0.092
976	0.091
976	0.091
976	0.091
977	0.091
977	0.091
978	0.091
978	0.092
979	0.092
979	0.092
979	0.091
980	0.091
980	0.091
981	0.091
981	0.091
982	0.091
982	0.09
982	0.09
983	0.089
983	0.089
984	0.089
984	0.088
984	0.088
985	0.088
985	0.088
986	0.087
986	0.086
987	0.086
987	0.085
987	0.085
988	0.084
988	0.083
989	0.082
989	0.081
990	0.081
990	0.08
990	0.079
991	0.079
991	0.079
992	0.078
992	0.078
992	0.078
993	0.078
993	0.078
994	0.078
994	0.077
995	0.077
995	0.077
995	0.076
996	0.076
996	0.075
997	0.075
997	0.075
997	0.075
998	0.075
998	0.075
999	0.075
999	0.076
1000	0.076
1000	0.076
1000	0.077
1001	0.077
1001	0.078
1002	0.078
1002	0.078
1003	0.078
1003	0.078
1003	0.078
1004	0.078
1004	0.077
1005	0.077
1005	0.076
1005	0.075
1006	0.074
1006	0.073
1007	0.072
1007	0.071
1008	0.071
1008	0.07
1008	0.069
1009	0.069
1009	0.069
1010	0.069
1010	0.069
1010	0.069
1011	0.069
1011	0.069
1012	0.069
1012	0.069
1013	0.069
1013	0.068
1013	0.067
1014	0.067
1014	0.066
1015	0.065
1015	0.065
1016	0.063
1016	0.063
1016	0.062
1017	0.061
1017	0.06
1018	0.059
1018	0.058
1018	0.057
1019	0.056
1019	0.055
1020	0.054
1020	0.054
1021	0.053
1021	0.053
1021	0.052
1022	0.051
1022	0.051
1023	0.05
1023	0.05
1023	0.05
1024	0.05
1024	0.05
1025	0.05
1025	0.05
1026	0.05
1026	0.051
1026	0.051
1027	0.051
1027	0.052
1028	0.051
1028	0.051
1028	0.051
1029	0.051
1029	0.051
1030	0.05
1030	0.05
1031	0.049
1031	0.049
1031	0.048
1032	0.048
1032	0.048
1033	0.048
1033	0.048
1033	0.048
1034	0.048
1034	0.048
1035	0.048
1035	0.048
1036	0.048
1036	0.048
1036	0.048
1037	0.048
1037	0.048
1038	0.048
1038	0.048
1039	0.048
1039	0.048
1039	0.048
1040	0.049
1040	0.049
1041	0.05
1041	0.05
1041	0.05
1042	0.05
1042	0.05
1043	0.049
1043	0.049
1044	0.048
1044	0.048
1044	0.047
1045	0.046
1045	0.045
1046	0.044
1046	0.043
1046	0.043
1047	0.043
1047	0.043
1048	0.042
1048	0.042
1049	0.043
1049	0.043
1049	0.043
1050	0.043
1050	0.044
1051	0.044
1051	0.044
1051	0.044
1052	0.045
1052	0.045
1053	0.045
1053	0.045
1053	0.045
1054	0.045
1054	0.045
1055	0.045
1055	0.045
1056	0.044
1056	0.044
1056	0.043
1057	0.042
1057	0.042
1058	0.041
1058	0.041
1058	0.04
1059	0.04
1059	0.039
1060	0.038
1060	0.038
1061	0.037
1061	0.037
1061	0.036
1062	0.036
1062	0.036
1063	0.035
1063	0.036
1063	0.036
1064	0.036
1064	0.036
1065	0.036
1065	0.035
1066	0.035
1066	0.035
1066	0.035
1067	0.035
1067	0.035
1068	0.034
1068	0.034
1068	0.033
1069	0.033
1069	0.032
1070	0.032
1070	0.032
1071	0.031
1071	0.031
1071	0.03
1072	0.03
1072	0.029
1073	0.029
1073	0.029
1073	0.028
1074	0.028
1074	0.028
1075	0.028
1075	0.028
1076	0.027
1076	0.027
1076	0.026
1077	0.026
1077	0.026
1078	0.024
1078	0.024
1078	0.023
1079	0.022
1079	0.022
1080	0.021
1080	0.02
1080	0.019
1081	0.018
1081	0.018
1082	0.017
1082	0.016
1083	0.016
1083	0.015
1083	0.014
1084	0.013
1084	0.013
1085	0.011
1085	0.011
1085	0.01
1086	0.009
1086	0.008
1087	0.009
1087	0.008
1088	0.007
1088	0.006
1088	0.005
1089	0.004
1089	0.003
1090	0.001
1090	0.001
1090	-0.001
1091	-0.002
1091	-0.002
1092	-0.004
1092	-0.004
1092	-0.005
1093	-0.006
1093	-0.006
1094	-0.006
1094	-0.007
1095	-0.008
1095	-0.009
1095	-0.009
1096	-0.01
1096	-0.011
1097	-0.012
1097	-0.013
1097	-0.014
1098	-0.016
1098	-0.017
1099	-0.018
1099	-0.019
1100	-0.02
1100	-0.021
1100	-0.024
1101	-0.026
1101	-0.028
1102	-0.031
1102	-0.034
1102	-0.035
1103	-0.038
1103	-0.04
1104	-0.043
1104	-0.045
1104	-0.048
1105	-0.051
1105	-0.054
1106	-0.059
1106	-0.061
1107	-0.065
1107	-0.07
1107	-0.075
1108	-0.077
1108	-0.079
1109	-0.082
1109	-0.087
1109	-0.09
1110	-0.091
1110	-0.093
1111	-0.099
1111	-0.1
