Data from 17C_3.1A_35min_2sec_int_Absorbance__414__02817.txt Node

Date: Mon Jun 19 18:32:04 CEST 2023
User: Marek
Spectrometer: MAYP115816
Trigger mode: 0
Integration Time (sec): 2.500000E-1
Scans to average: 10
Electric dark correction enabled: true
Nonlinearity correction enabled: true
Boxcar width: 5
XAxis mode: Wavelengths
Number of Pixels in Spectrum: 2068
>>>>>Begin Spectral Data<<<<<
199	-0.751
199	-0.766
200	-0.671
200	-0.622
201	-0.587
201	-0.572
202	-0.554
202	-0.54
203	-0.531
203	-0.528
204	-0.516
204	-0.501
205	-0.477
205	-0.47
205	-0.466
206	-0.466
206	-0.47
207	-0.462
207	-0.464
208	-0.468
208	-0.464
209	-0.459
209	-0.461
210	-0.465
210	-0.475
211	-0.479
211	-0.483
212	-0.485
212	-0.492
213	-0.49
213	-0.491
213	-0.496
214	-0.493
214	-0.494
215	-0.494
215	-0.497
216	-0.498
216	-0.506
217	-0.501
217	-0.507
218	-0.507
218	-0.507
219	-0.511
219	-0.521
220	-0.524
220	-0.533
221	-0.532
221	-0.535
221	-0.527
222	-0.526
222	-0.527
223	-0.533
223	-0.535
224	-0.54
224	-0.54
225	-0.536
225	-0.532
226	-0.537
226	-0.536
227	-0.541
227	-0.548
228	-0.548
228	-0.549
229	-0.551
229	-0.544
229	-0.538
230	-0.541
230	-0.543
231	-0.536
231	-0.53
232	-0.526
232	-0.526
233	-0.518
233	-0.517
234	-0.515
234	-0.511
235	-0.514
235	-0.52
236	-0.518
236	-0.523
236	-0.527
237	-0.534
237	-0.534
238	-0.544
238	-0.544
239	-0.544
239	-0.553
240	-0.553
240	-0.55
241	-0.555
241	-0.553
242	-0.559
242	-0.554
243	-0.55
243	-0.549
243	-0.555
244	-0.556
244	-0.555
245	-0.568
245	-0.568
246	-0.574
246	-0.581
247	-0.582
247	-0.587
248	-0.594
248	-0.591
249	-0.595
249	-0.602
250	-0.599
250	-0.597
250	-0.598
251	-0.596
251	-0.593
252	-0.595
252	-0.585
253	-0.589
253	-0.601
254	-0.601
254	-0.6
255	-0.607
255	-0.6
256	-0.597
256	-0.608
257	-0.606
257	-0.604
258	-0.62
258	-0.617
258	-0.611
259	-0.609
259	-0.618
260	-0.616
260	-0.622
261	-0.633
261	-0.624
262	-0.624
262	-0.624
263	-0.613
263	-0.609
264	-0.611
264	-0.617
265	-0.612
265	-0.62
265	-0.623
266	-0.619
266	-0.616
267	-0.627
267	-0.635
268	-0.65
268	-0.659
269	-0.654
269	-0.651
270	-0.656
270	-0.659
271	-0.66
271	-0.668
272	-0.673
272	-0.667
272	-0.662
273	-0.661
273	-0.668
274	-0.677
274	-0.68
275	-0.681
275	-0.675
276	-0.681
276	-0.671
277	-0.675
277	-0.695
278	-0.704
278	-0.697
278	-0.692
279	-0.694
279	-0.704
280	-0.701
280	-0.701
281	-0.694
281	-0.701
282	-0.693
282	-0.693
283	-0.684
283	-0.686
284	-0.681
284	-0.67
285	-0.665
285	-0.663
285	-0.661
286	-0.67
286	-0.664
287	-0.662
287	-0.647
288	-0.641
288	-0.648
289	-0.661
289	-0.669
290	-0.66
290	-0.658
291	-0.655
291	-0.646
292	-0.649
292	-0.655
292	-0.66
293	-0.664
293	-0.657
294	-0.646
294	-0.637
295	-0.633
295	-0.631
296	-0.63
296	-0.629
297	-0.622
297	-0.606
298	-0.596
298	-0.603
298	-0.591
299	-0.584
299	-0.588
300	-0.583
300	-0.579
301	-0.575
301	-0.575
302	-0.584
302	-0.593
303	-0.582
303	-0.567
304	-0.57
304	-0.568
305	-0.569
305	-0.568
305	-0.565
306	-0.549
306	-0.544
307	-0.528
307	-0.531
308	-0.544
308	-0.543
309	-0.543
309	-0.534
310	-0.52
310	-0.519
311	-0.509
311	-0.517
311	-0.512
312	-0.508
312	-0.505
313	-0.49
313	-0.493
314	-0.492
314	-0.494
315	-0.496
315	-0.493
316	-0.492
316	-0.485
317	-0.476
317	-0.472
318	-0.46
318	-0.46
318	-0.453
319	-0.444
319	-0.441
320	-0.433
320	-0.434
321	-0.437
321	-0.437
322	-0.434
322	-0.429
323	-0.429
323	-0.422
324	-0.417
324	-0.408
324	-0.396
325	-0.388
325	-0.371
326	-0.355
326	-0.336
327	-0.32
327	-0.301
328	-0.276
328	-0.255
329	-0.23
329	-0.207
330	-0.182
330	-0.149
330	-0.122
331	-0.093
331	-0.067
332	-0.04
332	-0.018
333	0.004
333	0.029
334	0.049
334	0.066
335	0.084
335	0.097
336	0.112
336	0.125
336	0.135
337	0.146
337	0.155
338	0.164
338	0.169
339	0.177
339	0.184
340	0.188
340	0.192
341	0.196
341	0.2
342	0.203
342	0.206
342	0.21
343	0.212
343	0.215
344	0.217
344	0.218
345	0.22
345	0.221
346	0.222
346	0.222
347	0.223
347	0.224
348	0.224
348	0.225
348	0.225
349	0.226
349	0.226
350	0.226
350	0.226
351	0.226
351	0.226
352	0.227
352	0.227
353	0.227
353	0.227
354	0.227
354	0.226
354	0.226
355	0.226
355	0.226
356	0.226
356	0.226
357	0.226
357	0.225
358	0.225
358	0.225
359	0.225
359	0.225
360	0.225
360	0.224
360	0.224
361	0.224
361	0.224
362	0.224
362	0.224
363	0.224
363	0.224
364	0.224
364	0.223
365	0.223
365	0.223
366	0.223
366	0.223
366	0.223
367	0.224
367	0.224
368	0.224
368	0.223
369	0.224
369	0.224
370	0.224
370	0.224
371	0.223
371	0.223
372	0.223
372	0.223
372	0.223
373	0.223
373	0.223
374	0.223
374	0.223
375	0.223
375	0.223
376	0.223
376	0.223
377	0.223
377	0.223
378	0.223
378	0.223
378	0.223
379	0.223
379	0.223
380	0.223
380	0.222
381	0.222
381	0.222
382	0.222
382	0.221
383	0.221
383	0.221
383	0.221
384	0.221
384	0.221
385	0.221
385	0.221
386	0.221
386	0.221
387	0.221
387	0.221
388	0.221
388	0.221
389	0.221
389	0.221
389	0.221
390	0.221
390	0.221
391	0.221
391	0.221
392	0.221
392	0.221
393	0.221
393	0.221
394	0.22
394	0.22
394	0.22
395	0.22
395	0.219
396	0.219
396	0.219
397	0.219
397	0.219
398	0.219
398	0.219
399	0.219
399	0.219
400	0.219
400	0.219
400	0.219
401	0.219
401	0.219
402	0.219
402	0.219
403	0.218
403	0.218
404	0.218
404	0.218
405	0.218
405	0.218
405	0.218
406	0.218
406	0.218
407	0.218
407	0.218
408	0.218
408	0.218
409	0.218
409	0.218
410	0.218
410	0.218
411	0.218
411	0.218
411	0.218
412	0.218
412	0.218
413	0.218
413	0.217
414	0.217
414	0.217
415	0.217
415	0.217
416	0.216
416	0.216
416	0.216
417	0.216
417	0.216
418	0.216
418	0.216
419	0.216
419	0.216
420	0.216
420	0.216
421	0.216
421	0.216
421	0.216
422	0.216
422	0.216
423	0.216
423	0.216
424	0.216
424	0.215
425	0.215
425	0.215
426	0.214
426	0.214
427	0.214
427	0.214
427	0.214
428	0.214
428	0.214
429	0.214
429	0.214
430	0.214
430	0.214
431	0.213
431	0.213
432	0.213
432	0.213
432	0.213
433	0.212
433	0.212
434	0.212
434	0.212
435	0.212
435	0.212
436	0.212
436	0.212
437	0.212
437	0.212
437	0.212
438	0.212
438	0.212
439	0.212
439	0.212
440	0.212
440	0.212
441	0.211
441	0.211
442	0.211
442	0.211
442	0.211
443	0.211
443	0.211
444	0.211
444	0.211
445	0.21
445	0.21
446	0.211
446	0.211
447	0.211
447	0.211
447	0.211
448	0.211
448	0.211
449	0.211
449	0.211
450	0.212
450	0.212
451	0.211
451	0.211
452	0.211
452	0.211
452	0.211
453	0.211
453	0.211
454	0.21
454	0.21
455	0.21
455	0.21
456	0.21
456	0.21
457	0.209
457	0.209
458	0.209
458	0.209
458	0.21
459	0.21
459	0.21
460	0.209
460	0.209
461	0.209
461	0.209
462	0.209
462	0.21
463	0.21
463	0.21
463	0.21
464	0.21
464	0.21
465	0.21
465	0.21
466	0.21
466	0.21
467	0.21
467	0.21
467	0.21
468	0.21
468	0.21
469	0.21
469	0.21
470	0.21
470	0.21
471	0.21
471	0.21
472	0.211
472	0.211
472	0.211
473	0.211
473	0.212
474	0.211
474	0.211
475	0.212
475	0.212
476	0.212
476	0.212
477	0.212
477	0.212
477	0.212
478	0.212
478	0.213
479	0.213
479	0.213
480	0.213
480	0.214
481	0.214
481	0.214
482	0.214
482	0.215
482	0.215
483	0.215
483	0.215
484	0.215
484	0.215
485	0.215
485	0.215
486	0.215
486	0.216
487	0.216
487	0.217
487	0.217
488	0.217
488	0.218
489	0.219
489	0.22
490	0.221
490	0.222
491	0.222
491	0.223
492	0.224
492	0.224
492	0.225
493	0.226
493	0.227
494	0.228
494	0.228
495	0.229
495	0.229
496	0.23
496	0.231
496	0.232
497	0.233
497	0.234
498	0.235
498	0.236
499	0.237
499	0.238
500	0.239
500	0.24
501	0.241
501	0.242
501	0.242
502	0.243
502	0.244
503	0.245
503	0.246
504	0.247
504	0.248
505	0.249
505	0.25
506	0.251
506	0.252
506	0.252
507	0.253
507	0.254
508	0.255
508	0.256
509	0.257
509	0.258
510	0.259
510	0.26
511	0.261
511	0.262
511	0.263
512	0.265
512	0.265
513	0.267
513	0.268
514	0.269
514	0.27
515	0.271
515	0.272
515	0.273
516	0.274
516	0.276
517	0.277
517	0.278
518	0.279
518	0.28
519	0.281
519	0.282
520	0.283
520	0.284
520	0.286
521	0.287
521	0.288
522	0.289
522	0.29
523	0.292
523	0.293
524	0.294
524	0.294
524	0.296
525	0.296
525	0.297
526	0.298
526	0.299
527	0.299
527	0.3
528	0.301
528	0.302
529	0.303
529	0.303
529	0.304
530	0.306
530	0.306
531	0.307
531	0.307
532	0.308
532	0.309
533	0.309
533	0.31
533	0.31
534	0.311
534	0.311
535	0.311
535	0.312
536	0.312
536	0.312
537	0.312
537	0.313
538	0.313
538	0.313
538	0.314
539	0.314
539	0.315
540	0.315
540	0.316
541	0.316
541	0.317
542	0.317
542	0.317
542	0.317
543	0.318
543	0.318
544	0.318
544	0.318
545	0.318
545	0.318
546	0.319
546	0.319
547	0.318
547	0.319
547	0.319
548	0.319
548	0.32
549	0.32
549	0.321
550	0.321
550	0.321
551	0.322
551	0.323
551	0.324
552	0.325
552	0.326
553	0.327
553	0.327
554	0.327
554	0.327
555	0.327
555	0.328
556	0.328
556	0.328
556	0.328
557	0.328
557	0.327
558	0.327
558	0.327
559	0.327
559	0.327
560	0.327
560	0.327
560	0.327
561	0.327
561	0.327
562	0.327
562	0.327
563	0.326
563	0.326
564	0.326
564	0.327
564	0.327
565	0.328
565	0.328
566	0.328
566	0.329
567	0.329
567	0.329
568	0.329
568	0.329
568	0.329
569	0.328
569	0.328
570	0.327
570	0.326
571	0.326
571	0.325
572	0.325
572	0.325
573	0.325
573	0.324
573	0.324
574	0.324
574	0.325
575	0.325
575	0.326
576	0.326
576	0.326
577	0.326
577	0.326
577	0.327
578	0.327
578	0.328
579	0.328
579	0.329
580	0.328
580	0.327
581	0.326
581	0.326
581	0.327
582	0.327
582	0.327
583	0.327
583	0.327
584	0.326
584	0.326
585	0.327
585	0.328
585	0.328
586	0.328
586	0.328
587	0.328
587	0.328
588	0.327
588	0.327
589	0.327
589	0.327
590	0.327
590	0.327
590	0.329
591	0.329
591	0.328
592	0.328
592	0.327
593	0.327
593	0.327
594	0.327
594	0.327
594	0.327
595	0.327
595	0.326
596	0.326
596	0.328
597	0.329
597	0.329
598	0.329
598	0.329
598	0.328
599	0.328
599	0.327
600	0.326
600	0.326
601	0.325
601	0.325
602	0.323
602	0.323
602	0.323
603	0.323
603	0.324
604	0.324
604	0.325
605	0.325
605	0.326
606	0.325
606	0.325
606	0.325
607	0.324
607	0.324
608	0.323
608	0.322
609	0.321
609	0.322
610	0.321
610	0.321
610	0.322
611	0.322
611	0.323
612	0.324
612	0.325
613	0.326
613	0.326
614	0.326
614	0.325
614	0.324
615	0.323
615	0.323
616	0.322
616	0.321
617	0.32
617	0.319
618	0.318
618	0.317
618	0.317
619	0.317
619	0.317
620	0.317
620	0.317
621	0.316
621	0.316
622	0.315
622	0.315
622	0.314
623	0.313
623	0.313
624	0.312
624	0.311
625	0.311
625	0.31
626	0.309
626	0.309
626	0.308
627	0.307
627	0.306
628	0.305
628	0.304
629	0.302
629	0.3
630	0.298
630	0.296
630	0.294
631	0.292
631	0.29
632	0.287
632	0.284
633	0.281
633	0.278
634	0.275
634	0.272
634	0.269
635	0.266
635	0.262
636	0.258
636	0.254
637	0.25
637	0.246
638	0.241
638	0.236
638	0.231
639	0.225
639	0.22
640	0.214
640	0.208
641	0.202
641	0.197
642	0.191
642	0.185
642	0.179
643	0.173
643	0.166
644	0.159
644	0.152
645	0.144
645	0.137
646	0.13
646	0.122
646	0.114
647	0.106
647	0.098
648	0.09
648	0.082
649	0.072
649	0.064
650	0.055
650	0.047
650	0.037
651	0.026
651	0.012
652	-0.004
652	-0.021
653	-0.036
653	-0.049
653	-0.046
654	-0.024
654	-0.012
655	-0.015
655	-0.021
656	-0.027
656	-0.034
657	-0.038
657	-0.043
657	-0.05
658	-0.056
658	-0.087
659	-0.176
659	-0.281
660	-0.328
660	-0.355
661	-0.384
661	-0.416
661	-0.451
662	-0.484
662	-0.518
663	-0.558
663	-0.601
664	-0.644
664	-0.696
665	-0.747
665	-0.805
665	-0.861
666	-0.917
666	-0.978
667	-1.042
667	-1.108
668	-1.179
668	-1.252
669	-1.326
669	-1.399
669	-1.476
670	-1.542
670	-1.566
671	-1.677
671	-1.964
672	-2.195
672	-2.387
672	-2.518
673	-2.611
673	-2.691
674	-2.731
674	-2.749
675	-2.774
675	-2.914
676	-3.113
676	-3.064
676	-2.84
677	-2.635
677	-2.47
678	-2.29
678	-1.979
679	-1.719
679	-1.589
680	-1.496
680	-1.414
680	-1.344
681	-1.3
681	-1.241
682	-1.203
682	-1.167
683	-1.133
683	-1.117
684	-1.097
684	-1.078
684	-1.056
685	-1.034
685	-1.012
686	-0.988
686	-0.973
687	-0.947
687	-0.935
687	-0.915
688	-0.89
688	-0.87
689	-0.85
689	-0.837
690	-0.818
690	-0.808
691	-0.802
691	-0.807
691	-0.824
692	-0.815
692	-0.807
693	-0.802
693	-0.809
694	-0.803
694	-0.797
695	-0.8
695	-0.798
695	-0.783
696	-0.781
696	-0.758
697	-0.759
697	-0.776
698	-0.779
698	-0.769
698	-0.784
699	-0.787
699	-0.787
700	-0.779
700	-0.793
701	-0.791
701	-0.797
702	-0.798
702	-0.784
702	-0.776
703	-0.77
703	-0.759
704	-0.757
704	-0.756
705	-0.769
705	-0.763
705	-0.75
706	-0.751
706	-0.746
707	-0.752
707	-0.747
708	-0.746
708	-0.74
709	-0.74
709	-0.742
709	-0.732
710	-0.741
710	-0.75
711	-0.742
711	-0.743
712	-0.742
712	-0.756
713	-0.756
713	-0.764
713	-0.756
714	-0.753
714	-0.752
715	-0.741
715	-0.728
716	-0.737
716	-0.739
716	-0.731
717	-0.733
717	-0.734
718	-0.724
718	-0.726
719	-0.731
719	-0.736
720	-0.732
720	-0.742
720	-0.733
721	-0.722
721	-0.721
722	-0.708
722	-0.698
723	-0.695
723	-0.698
723	-0.687
724	-0.688
724	-0.693
725	-0.691
725	-0.703
726	-0.716
726	-0.723
727	-0.729
727	-0.743
727	-0.752
728	-0.752
728	-0.757
729	-0.757
729	-0.763
730	-0.769
730	-0.761
730	-0.751
731	-0.735
731	-0.746
732	-0.752
732	-0.751
733	-0.749
733	-0.755
734	-0.75
734	-0.747
734	-0.733
735	-0.731
735	-0.733
736	-0.743
736	-0.727
737	-0.718
737	-0.72
737	-0.731
738	-0.726
738	-0.724
739	-0.722
739	-0.734
740	-0.734
740	-0.733
741	-0.728
741	-0.73
741	-0.734
742	-0.73
742	-0.731
743	-0.737
743	-0.741
744	-0.738
744	-0.729
744	-0.729
745	-0.736
745	-0.728
746	-0.726
746	-0.723
747	-0.723
747	-0.712
748	-0.702
748	-0.709
748	-0.711
749	-0.709
749	-0.712
750	-0.699
750	-0.703
751	-0.709
751	-0.717
751	-0.72
752	-0.723
752	-0.733
753	-0.727
753	-0.725
754	-0.73
754	-0.721
754	-0.737
755	-0.75
755	-0.76
756	-0.748
756	-0.746
757	-0.745
757	-0.74
758	-0.741
758	-0.738
758	-0.741
759	-0.747
759	-0.731
760	-0.724
760	-0.72
761	-0.732
761	-0.728
761	-0.726
762	-0.734
762	-0.734
763	-0.744
763	-0.74
764	-0.74
764	-0.748
764	-0.754
765	-0.745
765	-0.729
766	-0.738
766	-0.747
767	-0.761
767	-0.755
768	-0.744
768	-0.754
768	-0.76
769	-0.778
769	-0.779
770	-0.784
770	-0.796
771	-0.793
771	-0.794
771	-0.794
772	-0.797
772	-0.798
773	-0.796
773	-0.792
774	-0.791
774	-0.79
775	-0.792
775	-0.789
775	-0.797
776	-0.795
776	-0.785
777	-0.793
777	-0.814
778	-0.811
778	-0.83
778	-0.815
779	-0.838
779	-0.844
780	-0.856
780	-0.856
781	-0.869
781	-0.864
781	-0.88
782	-0.88
782	-0.883
783	-0.87
783	-0.872
784	-0.852
784	-0.845
784	-0.855
785	-0.859
785	-0.844
786	-0.849
786	-0.827
787	-0.812
787	-0.814
788	-0.815
788	-0.822
788	-0.831
789	-0.831
789	-0.813
790	-0.796
790	-0.799
791	-0.8
791	-0.818
791	-0.825
792	-0.819
792	-0.798
793	-0.786
793	-0.766
794	-0.77
794	-0.764
794	-0.773
795	-0.767
795	-0.761
796	-0.744
796	-0.751
797	-0.744
797	-0.756
797	-0.766
798	-0.779
798	-0.773
799	-0.783
799	-0.768
800	-0.775
800	-0.766
801	-0.77
801	-0.758
801	-0.768
802	-0.773
802	-0.772
803	-0.772
803	-0.781
804	-0.776
804	-0.786
804	-0.774
805	-0.78
805	-0.768
806	-0.771
806	-0.754
807	-0.753
807	-0.735
807	-0.722
808	-0.715
808	-0.708
809	-0.695
809	-0.704
810	-0.701
810	-0.693
810	-0.688
811	-0.695
811	-0.687
812	-0.688
812	-0.692
813	-0.695
813	-0.694
813	-0.698
814	-0.701
814	-0.705
815	-0.71
815	-0.714
816	-0.706
816	-0.711
817	-0.717
817	-0.736
817	-0.748
818	-0.752
818	-0.756
819	-0.748
819	-0.748
820	-0.759
820	-0.756
820	-0.769
821	-0.766
821	-0.756
822	-0.723
822	-0.7
823	-0.698
823	-0.7
823	-0.696
824	-0.691
824	-0.691
825	-0.684
825	-0.664
826	-0.658
826	-0.663
826	-0.672
827	-0.667
827	-0.663
828	-0.642
828	-0.643
829	-0.632
829	-0.619
829	-0.611
830	-0.622
830	-0.619
831	-0.613
831	-0.604
832	-0.602
832	-0.593
832	-0.6
833	-0.596
833	-0.598
834	-0.594
834	-0.6
835	-0.586
835	-0.582
835	-0.577
836	-0.574
836	-0.57
837	-0.569
837	-0.559
838	-0.548
838	-0.536
839	-0.523
839	-0.512
839	-0.503
840	-0.493
840	-0.49
841	-0.479
841	-0.469
842	-0.465
842	-0.454
842	-0.448
843	-0.441
843	-0.437
844	-0.427
844	-0.418
845	-0.409
845	-0.395
845	-0.38
846	-0.367
846	-0.351
847	-0.339
847	-0.329
848	-0.316
848	-0.306
848	-0.288
849	-0.278
849	-0.265
850	-0.252
850	-0.245
851	-0.237
851	-0.225
851	-0.215
852	-0.198
852	-0.185
853	-0.174
853	-0.168
854	-0.155
854	-0.143
854	-0.131
855	-0.119
855	-0.112
856	-0.102
856	-0.092
857	-0.086
857	-0.076
857	-0.063
858	-0.052
858	-0.044
859	-0.035
859	-0.024
860	-0.013
860	0.001
860	0.011
861	0.02
861	0.03
862	0.038
862	0.046
863	0.053
863	0.063
863	0.07
864	0.075
864	0.081
865	0.088
865	0.092
866	0.097
866	0.102
866	0.106
867	0.111
867	0.115
868	0.117
868	0.121
869	0.125
869	0.127
869	0.129
870	0.131
870	0.133
871	0.136
871	0.137
872	0.138
872	0.138
872	0.139
873	0.139
873	0.139
874	0.139
874	0.139
875	0.138
875	0.137
875	0.135
876	0.134
876	0.133
877	0.132
877	0.131
878	0.13
878	0.129
878	0.127
879	0.126
879	0.125
880	0.125
880	0.125
881	0.125
881	0.124
881	0.124
882	0.123
882	0.122
883	0.121
883	0.119
884	0.118
884	0.117
884	0.116
885	0.115
885	0.114
886	0.114
886	0.113
887	0.113
887	0.113
887	0.113
888	0.114
888	0.114
889	0.114
889	0.114
890	0.114
890	0.114
890	0.114
891	0.114
891	0.114
892	0.114
892	0.114
893	0.114
893	0.115
893	0.114
894	0.114
894	0.114
895	0.114
895	0.114
895	0.114
896	0.113
896	0.111
897	0.11
897	0.109
898	0.108
898	0.107
898	0.106
899	0.106
899	0.106
900	0.106
900	0.106
901	0.107
901	0.108
901	0.109
902	0.109
902	0.11
903	0.111
903	0.111
904	0.112
904	0.113
904	0.113
905	0.114
905	0.114
906	0.114
906	0.114
907	0.114
907	0.114
907	0.113
908	0.113
908	0.112
909	0.111
909	0.11
910	0.11
910	0.109
910	0.109
911	0.109
911	0.11
912	0.11
912	0.111
913	0.111
913	0.112
913	0.113
914	0.114
914	0.115
915	0.116
915	0.117
916	0.117
916	0.117
916	0.118
917	0.118
917	0.118
918	0.118
918	0.118
918	0.117
919	0.117
919	0.117
920	0.116
920	0.116
921	0.116
921	0.116
921	0.115
922	0.115
922	0.115
923	0.114
923	0.114
924	0.114
924	0.113
924	0.112
925	0.111
925	0.11
926	0.109
926	0.108
927	0.108
927	0.107
927	0.106
928	0.105
928	0.105
929	0.104
929	0.104
930	0.103
930	0.102
930	0.101
931	0.101
931	0.1
932	0.1
932	0.099
933	0.098
933	0.097
933	0.095
934	0.094
934	0.094
935	0.093
935	0.092
935	0.092
936	0.091
936	0.09
937	0.089
937	0.089
938	0.088
938	0.088
938	0.089
939	0.088
939	0.088
940	0.089
940	0.089
941	0.089
941	0.09
941	0.09
942	0.09
942	0.09
943	0.091
943	0.09
944	0.09
944	0.089
944	0.088
945	0.088
945	0.087
946	0.086
946	0.084
946	0.083
947	0.082
947	0.082
948	0.081
948	0.081
949	0.081
949	0.081
949	0.082
950	0.082
950	0.083
951	0.084
951	0.084
952	0.085
952	0.086
952	0.087
953	0.087
953	0.089
954	0.089
954	0.09
955	0.09
955	0.091
955	0.092
956	0.093
956	0.094
957	0.093
957	0.093
957	0.094
958	0.094
958	0.095
959	0.095
959	0.095
960	0.096
960	0.096
960	0.096
961	0.096
961	0.097
962	0.096
962	0.096
963	0.097
963	0.096
963	0.096
964	0.096
964	0.096
965	0.096
965	0.095
966	0.095
966	0.095
966	0.095
967	0.094
967	0.093
968	0.093
968	0.092
968	0.092
969	0.092
969	0.091
970	0.091
970	0.091
971	0.091
971	0.091
971	0.092
972	0.092
972	0.092
973	0.092
973	0.092
974	0.091
974	0.091
974	0.091
975	0.091
975	0.091
976	0.09
976	0.09
976	0.09
977	0.09
977	0.09
978	0.09
978	0.09
979	0.091
979	0.09
979	0.091
980	0.091
980	0.09
981	0.09
981	0.09
982	0.09
982	0.089
982	0.089
983	0.088
983	0.088
984	0.087
984	0.087
984	0.087
985	0.087
985	0.086
986	0.086
986	0.085
987	0.085
987	0.084
987	0.084
988	0.083
988	0.082
989	0.081
989	0.08
990	0.08
990	0.079
990	0.078
991	0.078
991	0.078
992	0.078
992	0.077
992	0.077
993	0.077
993	0.077
994	0.077
994	0.077
995	0.076
995	0.076
995	0.075
996	0.075
996	0.074
997	0.074
997	0.074
997	0.074
998	0.074
998	0.074
999	0.074
999	0.075
1000	0.075
1000	0.075
1000	0.075
1001	0.076
1001	0.077
1002	0.077
1002	0.077
1003	0.077
1003	0.077
1003	0.077
1004	0.077
1004	0.076
1005	0.076
1005	0.075
1005	0.074
1006	0.073
1006	0.072
1007	0.071
1007	0.07
1008	0.069
1008	0.069
1008	0.069
1009	0.068
1009	0.068
1010	0.068
1010	0.068
1010	0.068
1011	0.068
1011	0.068
1012	0.068
1012	0.068
1013	0.068
1013	0.067
1013	0.066
1014	0.066
1014	0.065
1015	0.065
1015	0.064
1016	0.063
1016	0.062
1016	0.061
1017	0.06
1017	0.059
1018	0.058
1018	0.057
1018	0.056
1019	0.055
1019	0.054
1020	0.053
1020	0.053
1021	0.052
1021	0.051
1021	0.051
1022	0.05
1022	0.05
1023	0.05
1023	0.049
1023	0.049
1024	0.049
1024	0.049
1025	0.049
1025	0.049
1026	0.05
1026	0.05
1026	0.051
1027	0.051
1027	0.051
1028	0.051
1028	0.051
1028	0.051
1029	0.051
1029	0.051
1030	0.05
1030	0.049
1031	0.049
1031	0.049
1031	0.048
1032	0.048
1032	0.048
1033	0.048
1033	0.048
1033	0.048
1034	0.048
1034	0.048
1035	0.048
1035	0.047
1036	0.047
1036	0.047
1036	0.047
1037	0.047
1037	0.047
1038	0.047
1038	0.047
1039	0.048
1039	0.048
1039	0.048
1040	0.049
1040	0.05
1041	0.05
1041	0.05
1041	0.051
1042	0.05
1042	0.05
1043	0.05
1043	0.049
1044	0.048
1044	0.048
1044	0.047
1045	0.045
1045	0.044
1046	0.043
1046	0.043
1046	0.042
1047	0.042
1047	0.042
1048	0.042
1048	0.042
1049	0.042
1049	0.042
1049	0.043
1050	0.043
1050	0.043
1051	0.043
1051	0.044
1051	0.044
1052	0.044
1052	0.044
1053	0.044
1053	0.045
1053	0.045
1054	0.045
1054	0.045
1055	0.044
1055	0.044
1056	0.043
1056	0.043
1056	0.042
1057	0.041
1057	0.041
1058	0.04
1058	0.04
1058	0.039
1059	0.039
1059	0.038
1060	0.037
1060	0.036
1061	0.036
1061	0.036
1061	0.036
1062	0.035
1062	0.035
1063	0.035
1063	0.034
1063	0.035
1064	0.035
1064	0.035
1065	0.035
1065	0.034
1066	0.034
1066	0.034
1066	0.033
1067	0.034
1067	0.034
1068	0.033
1068	0.033
1068	0.032
1069	0.032
1069	0.032
1070	0.031
1070	0.031
1071	0.031
1071	0.031
1071	0.03
1072	0.029
1072	0.029
1073	0.028
1073	0.028
1073	0.028
1074	0.028
1074	0.028
1075	0.028
1075	0.027
1076	0.027
1076	0.027
1076	0.026
1077	0.026
1077	0.024
1078	0.023
1078	0.022
1078	0.022
1079	0.021
1079	0.02
1080	0.019
1080	0.019
1080	0.018
1081	0.017
1081	0.017
1082	0.017
1082	0.016
1083	0.015
1083	0.014
1083	0.014
1084	0.012
1084	0.012
1085	0.011
1085	0.01
1085	0.01
1086	0.009
1086	0.008
1087	0.008
1087	0.008
1088	0.007
1088	0.006
1088	0.006
1089	0.004
1089	0.003
1090	0.001
1090	0
1090	-0.001
1091	-0.002
1091	-0.003
1092	-0.004
1092	-0.003
1092	-0.005
1093	-0.006
1093	-0.005
1094	-0.005
1094	-0.006
1095	-0.007
1095	-0.008
1095	-0.008
1096	-0.009
1096	-0.011
1097	-0.011
1097	-0.013
1097	-0.014
1098	-0.016
1098	-0.018
1099	-0.018
1099	-0.019
1100	-0.021
1100	-0.023
1100	-0.026
1101	-0.028
1101	-0.031
1102	-0.032
1102	-0.035
1102	-0.036
1103	-0.039
1103	-0.041
1104	-0.044
1104	-0.046
1104	-0.048
1105	-0.05
1105	-0.053
1106	-0.058
1106	-0.061
1107	-0.067
1107	-0.071
1107	-0.077
1108	-0.079
1108	-0.082
1109	-0.087
1109	-0.092
1109	-0.096
1110	-0.097
1110	-0.101
1111	-0.11
1111	-0.107
