Data from 17C_3.1A_35min_2sec_int_Absorbance__385__02788.txt Node

Date: Mon Jun 19 18:30:52 CEST 2023
User: Marek
Spectrometer: MAYP115816
Trigger mode: 0
Integration Time (sec): 2.500000E-1
Scans to average: 10
Electric dark correction enabled: true
Nonlinearity correction enabled: true
Boxcar width: 5
XAxis mode: Wavelengths
Number of Pixels in Spectrum: 2068
>>>>>Begin Spectral Data<<<<<
199	-0.746
199	-0.765
200	-0.669
200	-0.614
201	-0.579
201	-0.567
202	-0.552
202	-0.538
203	-0.529
203	-0.527
204	-0.514
204	-0.5
205	-0.476
205	-0.47
205	-0.469
206	-0.471
206	-0.473
207	-0.462
207	-0.464
208	-0.462
208	-0.461
209	-0.455
209	-0.458
210	-0.463
210	-0.469
211	-0.47
211	-0.474
212	-0.478
212	-0.487
213	-0.485
213	-0.488
213	-0.491
214	-0.49
214	-0.489
215	-0.487
215	-0.493
216	-0.497
216	-0.502
217	-0.498
217	-0.504
218	-0.508
218	-0.508
219	-0.512
219	-0.519
220	-0.523
220	-0.535
221	-0.531
221	-0.533
221	-0.527
222	-0.522
222	-0.522
223	-0.524
223	-0.53
224	-0.533
224	-0.534
225	-0.53
225	-0.524
226	-0.529
226	-0.53
227	-0.536
227	-0.546
228	-0.548
228	-0.551
229	-0.552
229	-0.546
229	-0.543
230	-0.545
230	-0.547
231	-0.543
231	-0.535
232	-0.528
232	-0.526
233	-0.518
233	-0.516
234	-0.515
234	-0.511
235	-0.513
235	-0.52
236	-0.519
236	-0.523
236	-0.529
237	-0.536
237	-0.535
238	-0.543
238	-0.541
239	-0.54
239	-0.548
240	-0.547
240	-0.542
241	-0.548
241	-0.545
242	-0.55
242	-0.546
243	-0.544
243	-0.544
243	-0.554
244	-0.554
244	-0.553
245	-0.567
245	-0.568
246	-0.574
246	-0.581
247	-0.58
247	-0.584
248	-0.592
248	-0.591
249	-0.592
249	-0.602
250	-0.601
250	-0.598
250	-0.598
251	-0.594
251	-0.593
252	-0.596
252	-0.586
253	-0.59
253	-0.602
254	-0.6
254	-0.596
255	-0.605
255	-0.596
256	-0.595
256	-0.607
257	-0.603
257	-0.604
258	-0.621
258	-0.617
258	-0.61
259	-0.608
259	-0.618
260	-0.616
260	-0.622
261	-0.634
261	-0.625
262	-0.623
262	-0.622
263	-0.612
263	-0.607
264	-0.607
264	-0.616
265	-0.611
265	-0.619
265	-0.623
266	-0.617
266	-0.617
267	-0.628
267	-0.637
268	-0.649
268	-0.66
269	-0.658
269	-0.651
270	-0.655
270	-0.657
271	-0.658
271	-0.665
272	-0.667
272	-0.663
272	-0.655
273	-0.655
273	-0.664
274	-0.671
274	-0.675
275	-0.677
275	-0.671
276	-0.675
276	-0.668
277	-0.675
277	-0.691
278	-0.702
278	-0.695
278	-0.69
279	-0.692
279	-0.701
280	-0.698
280	-0.698
281	-0.695
281	-0.702
282	-0.693
282	-0.693
283	-0.682
283	-0.686
284	-0.68
284	-0.667
285	-0.664
285	-0.662
285	-0.658
286	-0.664
286	-0.658
287	-0.654
287	-0.638
288	-0.631
288	-0.638
289	-0.65
289	-0.661
290	-0.65
290	-0.649
291	-0.644
291	-0.638
292	-0.641
292	-0.646
292	-0.651
293	-0.656
293	-0.645
294	-0.635
294	-0.625
295	-0.624
295	-0.623
296	-0.622
296	-0.62
297	-0.614
297	-0.601
298	-0.591
298	-0.6
298	-0.588
299	-0.583
299	-0.586
300	-0.579
300	-0.574
301	-0.57
301	-0.569
302	-0.577
302	-0.584
303	-0.573
303	-0.558
304	-0.562
304	-0.557
305	-0.558
305	-0.557
305	-0.556
306	-0.539
306	-0.534
307	-0.517
307	-0.52
308	-0.533
308	-0.533
309	-0.534
309	-0.525
310	-0.514
310	-0.511
311	-0.502
311	-0.51
311	-0.506
312	-0.504
312	-0.503
313	-0.489
313	-0.49
314	-0.486
314	-0.49
315	-0.489
315	-0.489
316	-0.486
316	-0.48
317	-0.473
317	-0.47
318	-0.458
318	-0.456
318	-0.451
319	-0.444
319	-0.44
320	-0.435
320	-0.434
321	-0.438
321	-0.436
322	-0.43
322	-0.424
323	-0.422
323	-0.417
324	-0.409
324	-0.399
324	-0.389
325	-0.378
325	-0.361
326	-0.346
326	-0.327
327	-0.312
327	-0.293
328	-0.268
328	-0.248
329	-0.226
329	-0.203
330	-0.176
330	-0.143
330	-0.117
331	-0.089
331	-0.061
332	-0.036
332	-0.013
333	0.009
333	0.033
334	0.055
334	0.073
335	0.091
335	0.105
336	0.118
336	0.132
336	0.141
337	0.152
337	0.161
338	0.17
338	0.175
339	0.183
339	0.189
340	0.194
340	0.199
341	0.203
341	0.206
342	0.21
342	0.213
342	0.217
343	0.219
343	0.222
344	0.223
344	0.225
345	0.226
345	0.227
346	0.228
346	0.228
347	0.229
347	0.23
348	0.23
348	0.231
348	0.231
349	0.231
349	0.231
350	0.232
350	0.232
351	0.232
351	0.232
352	0.232
352	0.233
353	0.233
353	0.233
354	0.233
354	0.232
354	0.232
355	0.232
355	0.232
356	0.232
356	0.232
357	0.231
357	0.231
358	0.231
358	0.231
359	0.23
359	0.23
360	0.23
360	0.23
360	0.23
361	0.23
361	0.23
362	0.23
362	0.229
363	0.229
363	0.229
364	0.229
364	0.229
365	0.229
365	0.229
366	0.229
366	0.229
366	0.229
367	0.229
367	0.229
368	0.229
368	0.229
369	0.229
369	0.229
370	0.229
370	0.229
371	0.229
371	0.229
372	0.229
372	0.229
372	0.229
373	0.229
373	0.229
374	0.229
374	0.229
375	0.228
375	0.229
376	0.228
376	0.228
377	0.229
377	0.228
378	0.228
378	0.228
378	0.228
379	0.228
379	0.228
380	0.228
380	0.228
381	0.228
381	0.227
382	0.227
382	0.227
383	0.227
383	0.227
383	0.226
384	0.226
384	0.226
385	0.226
385	0.227
386	0.227
386	0.227
387	0.227
387	0.227
388	0.227
388	0.227
389	0.227
389	0.227
389	0.227
390	0.227
390	0.227
391	0.227
391	0.226
392	0.226
392	0.226
393	0.226
393	0.226
394	0.226
394	0.226
394	0.225
395	0.225
395	0.225
396	0.225
396	0.225
397	0.225
397	0.225
398	0.225
398	0.225
399	0.225
399	0.225
400	0.224
400	0.224
400	0.224
401	0.224
401	0.224
402	0.224
402	0.224
403	0.224
403	0.223
404	0.223
404	0.223
405	0.223
405	0.223
405	0.223
406	0.223
406	0.222
407	0.222
407	0.222
408	0.222
408	0.222
409	0.222
409	0.222
410	0.222
410	0.222
411	0.222
411	0.222
411	0.222
412	0.223
412	0.222
413	0.222
413	0.222
414	0.222
414	0.222
415	0.221
415	0.221
416	0.221
416	0.221
416	0.221
417	0.221
417	0.221
418	0.221
418	0.221
419	0.221
419	0.221
420	0.221
420	0.221
421	0.222
421	0.221
421	0.221
422	0.221
422	0.221
423	0.221
423	0.221
424	0.22
424	0.22
425	0.22
425	0.219
426	0.219
426	0.219
427	0.219
427	0.218
427	0.218
428	0.218
428	0.219
429	0.219
429	0.219
430	0.218
430	0.218
431	0.218
431	0.218
432	0.218
432	0.218
432	0.217
433	0.217
433	0.217
434	0.217
434	0.217
435	0.217
435	0.216
436	0.216
436	0.216
437	0.216
437	0.216
437	0.216
438	0.216
438	0.216
439	0.216
439	0.216
440	0.216
440	0.216
441	0.216
441	0.216
442	0.216
442	0.215
442	0.215
443	0.215
443	0.215
444	0.215
444	0.215
445	0.215
445	0.215
446	0.215
446	0.215
447	0.215
447	0.216
447	0.216
448	0.216
448	0.216
449	0.216
449	0.216
450	0.216
450	0.216
451	0.216
451	0.216
452	0.216
452	0.216
452	0.216
453	0.215
453	0.215
454	0.215
454	0.215
455	0.214
455	0.214
456	0.214
456	0.214
457	0.214
457	0.214
458	0.213
458	0.213
458	0.214
459	0.214
459	0.214
460	0.214
460	0.214
461	0.213
461	0.213
462	0.213
462	0.214
463	0.214
463	0.214
463	0.214
464	0.214
464	0.214
465	0.214
465	0.214
466	0.214
466	0.215
467	0.215
467	0.215
467	0.214
468	0.214
468	0.214
469	0.214
469	0.214
470	0.215
470	0.214
471	0.214
471	0.214
472	0.215
472	0.215
472	0.215
473	0.215
473	0.216
474	0.216
474	0.216
475	0.216
475	0.217
476	0.217
476	0.217
477	0.217
477	0.217
477	0.217
478	0.217
478	0.218
479	0.218
479	0.218
480	0.218
480	0.218
481	0.219
481	0.219
482	0.219
482	0.22
482	0.22
483	0.22
483	0.221
484	0.22
484	0.22
485	0.22
485	0.22
486	0.221
486	0.221
487	0.221
487	0.222
487	0.222
488	0.223
488	0.223
489	0.224
489	0.226
490	0.227
490	0.227
491	0.228
491	0.229
492	0.23
492	0.23
492	0.231
493	0.232
493	0.233
494	0.234
494	0.234
495	0.234
495	0.235
496	0.236
496	0.237
496	0.238
497	0.239
497	0.24
498	0.241
498	0.242
499	0.243
499	0.244
500	0.245
500	0.246
501	0.247
501	0.248
501	0.249
502	0.25
502	0.251
503	0.252
503	0.253
504	0.254
504	0.255
505	0.256
505	0.257
506	0.258
506	0.258
506	0.259
507	0.26
507	0.261
508	0.262
508	0.262
509	0.264
509	0.264
510	0.266
510	0.267
511	0.268
511	0.269
511	0.271
512	0.272
512	0.273
513	0.274
513	0.276
514	0.277
514	0.278
515	0.279
515	0.28
515	0.281
516	0.282
516	0.284
517	0.285
517	0.286
518	0.287
518	0.288
519	0.289
519	0.29
520	0.291
520	0.293
520	0.294
521	0.295
521	0.296
522	0.298
522	0.299
523	0.3
523	0.302
524	0.302
524	0.303
524	0.304
525	0.305
525	0.306
526	0.306
526	0.307
527	0.308
527	0.308
528	0.309
528	0.31
529	0.311
529	0.312
529	0.313
530	0.314
530	0.314
531	0.315
531	0.316
532	0.316
532	0.317
533	0.318
533	0.319
533	0.32
534	0.32
534	0.32
535	0.321
535	0.321
536	0.321
536	0.321
537	0.322
537	0.322
538	0.322
538	0.323
538	0.323
539	0.324
539	0.324
540	0.325
540	0.325
541	0.326
541	0.326
542	0.327
542	0.327
542	0.327
543	0.327
543	0.327
544	0.327
544	0.327
545	0.327
545	0.328
546	0.328
546	0.328
547	0.328
547	0.328
547	0.328
548	0.329
548	0.329
549	0.329
549	0.33
550	0.33
550	0.33
551	0.331
551	0.332
551	0.333
552	0.334
552	0.335
553	0.335
553	0.336
554	0.336
554	0.336
555	0.336
555	0.336
556	0.336
556	0.336
556	0.336
557	0.336
557	0.336
558	0.336
558	0.336
559	0.336
559	0.337
560	0.336
560	0.336
560	0.336
561	0.337
561	0.336
562	0.336
562	0.335
563	0.335
563	0.335
564	0.335
564	0.335
564	0.336
565	0.336
565	0.337
566	0.337
566	0.338
567	0.338
567	0.338
568	0.338
568	0.338
568	0.338
569	0.337
569	0.337
570	0.336
570	0.334
571	0.334
571	0.334
572	0.334
572	0.334
573	0.334
573	0.333
573	0.333
574	0.333
574	0.333
575	0.334
575	0.335
576	0.335
576	0.334
577	0.334
577	0.334
577	0.335
578	0.336
578	0.336
579	0.337
579	0.337
580	0.336
580	0.335
581	0.334
581	0.334
581	0.335
582	0.335
582	0.335
583	0.335
583	0.335
584	0.334
584	0.334
585	0.335
585	0.336
585	0.336
586	0.336
586	0.336
587	0.336
587	0.335
588	0.335
588	0.335
589	0.335
589	0.335
590	0.335
590	0.335
590	0.336
591	0.336
591	0.335
592	0.335
592	0.334
593	0.335
593	0.335
594	0.335
594	0.334
594	0.334
595	0.334
595	0.334
596	0.334
596	0.335
597	0.337
597	0.336
598	0.336
598	0.336
598	0.336
599	0.335
599	0.334
600	0.334
600	0.333
601	0.332
601	0.331
602	0.33
602	0.33
602	0.329
603	0.33
603	0.331
604	0.331
604	0.332
605	0.332
605	0.332
606	0.332
606	0.331
606	0.331
607	0.331
607	0.33
608	0.33
608	0.328
609	0.328
609	0.328
610	0.327
610	0.327
610	0.328
611	0.328
611	0.329
612	0.33
612	0.331
613	0.331
613	0.332
614	0.331
614	0.33
614	0.33
615	0.329
615	0.328
616	0.328
616	0.326
617	0.325
617	0.324
618	0.323
618	0.322
618	0.322
619	0.322
619	0.322
620	0.322
620	0.321
621	0.321
621	0.32
622	0.32
622	0.319
622	0.318
623	0.318
623	0.318
624	0.317
624	0.316
625	0.315
625	0.315
626	0.314
626	0.313
626	0.312
627	0.311
627	0.31
628	0.309
628	0.307
629	0.306
629	0.304
630	0.301
630	0.299
630	0.297
631	0.295
631	0.293
632	0.29
632	0.287
633	0.284
633	0.281
634	0.278
634	0.275
634	0.272
635	0.268
635	0.264
636	0.261
636	0.257
637	0.252
637	0.248
638	0.243
638	0.238
638	0.233
639	0.227
639	0.221
640	0.215
640	0.209
641	0.203
641	0.197
642	0.191
642	0.185
642	0.179
643	0.172
643	0.165
644	0.158
644	0.151
645	0.143
645	0.136
646	0.129
646	0.121
646	0.112
647	0.104
647	0.096
648	0.088
648	0.08
649	0.071
649	0.062
650	0.054
650	0.045
650	0.035
651	0.024
651	0.01
652	-0.007
652	-0.024
653	-0.039
653	-0.053
653	-0.049
654	-0.028
654	-0.016
655	-0.02
655	-0.026
656	-0.031
656	-0.039
657	-0.042
657	-0.047
657	-0.054
658	-0.06
658	-0.091
659	-0.181
659	-0.286
660	-0.332
660	-0.36
661	-0.389
661	-0.421
661	-0.456
662	-0.488
662	-0.523
663	-0.563
663	-0.606
664	-0.651
664	-0.703
665	-0.755
665	-0.814
665	-0.869
666	-0.926
666	-0.988
667	-1.053
667	-1.118
668	-1.19
668	-1.263
669	-1.337
669	-1.41
669	-1.489
670	-1.558
670	-1.592
671	-1.748
671	-2.002
672	-2.221
672	-2.407
672	-2.533
673	-2.623
673	-2.702
674	-2.744
674	-2.763
675	-2.787
675	-2.927
676	-3.118
676	-3.069
676	-2.846
677	-2.642
677	-2.479
678	-2.304
678	-2.009
679	-1.726
679	-1.59
680	-1.497
680	-1.415
680	-1.345
681	-1.301
681	-1.244
682	-1.205
682	-1.168
683	-1.133
683	-1.118
684	-1.097
684	-1.078
684	-1.056
685	-1.032
685	-1.011
686	-0.985
686	-0.97
687	-0.944
687	-0.933
687	-0.914
688	-0.889
688	-0.871
689	-0.852
689	-0.841
690	-0.822
690	-0.811
691	-0.806
691	-0.812
691	-0.829
692	-0.82
692	-0.811
693	-0.807
693	-0.814
694	-0.808
694	-0.799
695	-0.803
695	-0.798
695	-0.781
696	-0.777
696	-0.754
697	-0.755
697	-0.771
698	-0.774
698	-0.763
698	-0.778
699	-0.782
699	-0.78
700	-0.773
700	-0.789
701	-0.787
701	-0.793
702	-0.791
702	-0.78
702	-0.772
703	-0.766
703	-0.757
704	-0.754
704	-0.756
705	-0.768
705	-0.761
705	-0.751
706	-0.754
706	-0.751
707	-0.754
707	-0.749
708	-0.748
708	-0.74
709	-0.743
709	-0.744
709	-0.734
710	-0.743
710	-0.752
711	-0.741
711	-0.742
712	-0.743
712	-0.754
713	-0.754
713	-0.76
713	-0.75
714	-0.747
714	-0.747
715	-0.737
715	-0.724
716	-0.733
716	-0.736
716	-0.728
717	-0.73
717	-0.732
718	-0.723
718	-0.725
719	-0.732
719	-0.734
720	-0.73
720	-0.737
720	-0.73
721	-0.718
721	-0.72
722	-0.708
722	-0.698
723	-0.697
723	-0.7
723	-0.687
724	-0.69
724	-0.694
725	-0.693
725	-0.703
726	-0.715
726	-0.72
727	-0.726
727	-0.741
727	-0.749
728	-0.75
728	-0.756
729	-0.755
729	-0.759
730	-0.765
730	-0.756
730	-0.748
731	-0.729
731	-0.738
732	-0.743
732	-0.743
733	-0.741
733	-0.747
734	-0.742
734	-0.744
734	-0.731
735	-0.731
735	-0.731
736	-0.741
736	-0.726
737	-0.718
737	-0.718
737	-0.728
738	-0.723
738	-0.723
739	-0.717
739	-0.731
740	-0.731
740	-0.729
741	-0.725
741	-0.726
741	-0.731
742	-0.731
742	-0.73
743	-0.736
743	-0.739
744	-0.739
744	-0.728
744	-0.731
745	-0.737
745	-0.729
746	-0.728
746	-0.725
747	-0.725
747	-0.715
748	-0.703
748	-0.708
748	-0.709
749	-0.708
749	-0.708
750	-0.699
750	-0.699
751	-0.703
751	-0.714
751	-0.715
752	-0.718
752	-0.727
753	-0.722
753	-0.718
754	-0.722
754	-0.715
754	-0.729
755	-0.746
755	-0.758
756	-0.743
756	-0.741
757	-0.739
757	-0.736
758	-0.739
758	-0.738
758	-0.741
759	-0.75
759	-0.732
760	-0.725
760	-0.722
761	-0.732
761	-0.729
761	-0.726
762	-0.734
762	-0.734
763	-0.742
763	-0.738
764	-0.736
764	-0.745
764	-0.75
765	-0.739
765	-0.727
766	-0.735
766	-0.745
767	-0.759
767	-0.751
768	-0.741
768	-0.752
768	-0.755
769	-0.774
769	-0.774
770	-0.78
770	-0.793
771	-0.789
771	-0.79
771	-0.79
772	-0.796
772	-0.795
773	-0.794
773	-0.79
774	-0.788
774	-0.789
775	-0.79
775	-0.785
775	-0.794
776	-0.792
776	-0.782
777	-0.788
777	-0.809
778	-0.807
778	-0.826
778	-0.813
779	-0.838
779	-0.846
780	-0.861
780	-0.859
781	-0.873
781	-0.87
781	-0.887
782	-0.887
782	-0.888
783	-0.876
783	-0.874
784	-0.853
784	-0.845
784	-0.853
785	-0.86
785	-0.845
786	-0.851
786	-0.829
787	-0.814
787	-0.817
788	-0.818
788	-0.827
788	-0.836
789	-0.837
789	-0.819
790	-0.799
790	-0.802
791	-0.801
791	-0.819
791	-0.827
792	-0.821
792	-0.799
793	-0.788
793	-0.765
794	-0.768
794	-0.76
794	-0.769
795	-0.764
795	-0.755
796	-0.739
796	-0.746
797	-0.738
797	-0.75
797	-0.757
798	-0.77
798	-0.763
799	-0.773
799	-0.758
800	-0.763
800	-0.757
801	-0.763
801	-0.75
801	-0.76
802	-0.767
802	-0.768
803	-0.771
803	-0.781
804	-0.777
804	-0.787
804	-0.775
805	-0.781
805	-0.768
806	-0.768
806	-0.752
807	-0.751
807	-0.731
807	-0.716
808	-0.707
808	-0.7
809	-0.685
809	-0.692
810	-0.69
810	-0.684
810	-0.683
811	-0.691
811	-0.682
812	-0.685
812	-0.692
813	-0.696
813	-0.692
813	-0.699
814	-0.704
814	-0.707
815	-0.711
815	-0.716
816	-0.708
816	-0.714
817	-0.723
817	-0.738
817	-0.751
818	-0.76
818	-0.761
819	-0.751
819	-0.752
820	-0.76
820	-0.753
820	-0.764
821	-0.763
821	-0.749
822	-0.717
822	-0.694
823	-0.692
823	-0.694
823	-0.692
824	-0.686
824	-0.688
825	-0.682
825	-0.661
826	-0.655
826	-0.661
826	-0.672
827	-0.667
827	-0.663
828	-0.644
828	-0.644
829	-0.636
829	-0.621
829	-0.613
830	-0.624
830	-0.619
831	-0.61
831	-0.599
832	-0.599
832	-0.589
832	-0.596
833	-0.59
833	-0.591
834	-0.588
834	-0.597
835	-0.584
835	-0.583
835	-0.578
836	-0.576
836	-0.573
837	-0.572
837	-0.563
838	-0.553
838	-0.539
839	-0.529
839	-0.516
839	-0.505
840	-0.492
840	-0.487
841	-0.476
841	-0.465
842	-0.458
842	-0.447
842	-0.44
843	-0.436
843	-0.431
844	-0.422
844	-0.414
845	-0.407
845	-0.397
845	-0.383
846	-0.372
846	-0.358
847	-0.345
847	-0.333
848	-0.32
848	-0.307
848	-0.29
849	-0.28
849	-0.267
850	-0.253
850	-0.246
851	-0.237
851	-0.225
851	-0.215
852	-0.199
852	-0.186
853	-0.176
853	-0.17
854	-0.157
854	-0.145
854	-0.134
855	-0.121
855	-0.113
856	-0.102
856	-0.093
857	-0.086
857	-0.077
857	-0.064
858	-0.052
858	-0.044
859	-0.036
859	-0.025
860	-0.015
860	-0.001
860	0.008
861	0.018
861	0.028
862	0.036
862	0.044
863	0.051
863	0.06
863	0.067
864	0.071
864	0.078
865	0.085
865	0.089
866	0.094
866	0.098
866	0.103
867	0.107
867	0.111
868	0.114
868	0.118
869	0.122
869	0.124
869	0.126
870	0.128
870	0.131
871	0.133
871	0.135
872	0.136
872	0.136
872	0.136
873	0.136
873	0.136
874	0.136
874	0.136
875	0.135
875	0.134
875	0.132
876	0.131
876	0.13
877	0.129
877	0.128
878	0.127
878	0.126
878	0.124
879	0.123
879	0.123
880	0.122
880	0.122
881	0.122
881	0.122
881	0.122
882	0.121
882	0.12
883	0.118
883	0.117
884	0.116
884	0.115
884	0.114
885	0.113
885	0.113
886	0.112
886	0.112
887	0.111
887	0.111
887	0.111
888	0.111
888	0.111
889	0.111
889	0.112
890	0.111
890	0.111
890	0.111
891	0.111
891	0.111
892	0.111
892	0.112
893	0.111
893	0.112
893	0.111
894	0.111
894	0.111
895	0.111
895	0.111
895	0.111
896	0.11
896	0.109
897	0.108
897	0.107
898	0.105
898	0.105
898	0.104
899	0.104
899	0.104
900	0.105
900	0.105
901	0.105
901	0.106
901	0.106
902	0.107
902	0.108
903	0.109
903	0.109
904	0.109
904	0.11
904	0.11
905	0.112
905	0.112
906	0.112
906	0.112
907	0.112
907	0.112
907	0.111
908	0.111
908	0.11
909	0.109
909	0.108
910	0.108
910	0.107
910	0.106
911	0.107
911	0.107
912	0.108
912	0.109
913	0.109
913	0.11
913	0.111
914	0.112
914	0.113
915	0.114
915	0.114
916	0.115
916	0.115
916	0.115
917	0.116
917	0.116
918	0.116
918	0.115
918	0.115
919	0.114
919	0.114
920	0.114
920	0.114
921	0.114
921	0.113
921	0.113
922	0.113
922	0.112
923	0.112
923	0.111
924	0.111
924	0.11
924	0.11
925	0.109
925	0.108
926	0.107
926	0.106
927	0.105
927	0.104
927	0.103
928	0.103
928	0.102
929	0.102
929	0.101
930	0.1
930	0.099
930	0.098
931	0.097
931	0.097
932	0.096
932	0.095
933	0.095
933	0.094
933	0.092
934	0.091
934	0.09
935	0.09
935	0.089
935	0.088
936	0.088
936	0.087
937	0.086
937	0.085
938	0.085
938	0.085
938	0.086
939	0.086
939	0.086
940	0.086
940	0.086
941	0.087
941	0.087
941	0.088
942	0.088
942	0.088
943	0.088
943	0.088
944	0.087
944	0.087
944	0.086
945	0.086
945	0.085
946	0.084
946	0.082
946	0.081
947	0.08
947	0.08
948	0.08
948	0.08
949	0.079
949	0.08
949	0.08
950	0.08
950	0.08
951	0.081
951	0.082
952	0.082
952	0.083
952	0.084
953	0.085
953	0.086
954	0.086
954	0.087
955	0.088
955	0.089
955	0.09
956	0.091
956	0.092
957	0.092
957	0.092
957	0.092
958	0.092
958	0.093
959	0.093
959	0.093
960	0.093
960	0.093
960	0.094
961	0.093
961	0.094
962	0.094
962	0.094
963	0.094
963	0.094
963	0.094
964	0.093
964	0.093
965	0.093
965	0.093
966	0.093
966	0.093
966	0.092
967	0.092
967	0.091
968	0.09
968	0.09
968	0.089
969	0.089
969	0.088
970	0.088
970	0.088
971	0.089
971	0.089
971	0.089
972	0.089
972	0.089
973	0.09
973	0.09
974	0.089
974	0.09
974	0.09
975	0.09
975	0.089
976	0.088
976	0.088
976	0.088
977	0.088
977	0.088
978	0.088
978	0.088
979	0.088
979	0.088
979	0.088
980	0.088
980	0.088
981	0.088
981	0.088
982	0.087
982	0.087
982	0.086
983	0.086
983	0.085
984	0.085
984	0.084
984	0.084
985	0.084
985	0.084
986	0.083
986	0.082
987	0.082
987	0.082
987	0.081
988	0.081
988	0.08
989	0.079
989	0.078
990	0.077
990	0.077
990	0.076
991	0.076
991	0.076
992	0.075
992	0.075
992	0.074
993	0.074
993	0.074
994	0.074
994	0.074
995	0.073
995	0.073
995	0.072
996	0.072
996	0.071
997	0.071
997	0.071
997	0.071
998	0.071
998	0.071
999	0.071
999	0.072
1000	0.072
1000	0.072
1000	0.073
1001	0.074
1001	0.074
1002	0.074
1002	0.074
1003	0.074
1003	0.074
1003	0.074
1004	0.074
1004	0.074
1005	0.073
1005	0.072
1005	0.071
1006	0.07
1006	0.069
1007	0.068
1007	0.068
1008	0.067
1008	0.066
1008	0.065
1009	0.065
1009	0.065
1010	0.065
1010	0.066
1010	0.066
1011	0.066
1011	0.066
1012	0.066
1012	0.066
1013	0.065
1013	0.064
1013	0.064
1014	0.063
1014	0.062
1015	0.062
1015	0.061
1016	0.06
1016	0.059
1016	0.058
1017	0.057
1017	0.057
1018	0.056
1018	0.055
1018	0.054
1019	0.053
1019	0.052
1020	0.052
1020	0.051
1021	0.051
1021	0.05
1021	0.049
1022	0.048
1022	0.048
1023	0.048
1023	0.048
1023	0.047
1024	0.047
1024	0.047
1025	0.047
1025	0.047
1026	0.048
1026	0.048
1026	0.048
1027	0.049
1027	0.049
1028	0.049
1028	0.049
1028	0.049
1029	0.049
1029	0.049
1030	0.048
1030	0.048
1031	0.047
1031	0.047
1031	0.046
1032	0.046
1032	0.045
1033	0.045
1033	0.046
1033	0.045
1034	0.045
1034	0.045
1035	0.045
1035	0.045
1036	0.045
1036	0.045
1036	0.045
1037	0.045
1037	0.045
1038	0.044
1038	0.045
1039	0.045
1039	0.045
1039	0.045
1040	0.046
1040	0.047
1041	0.047
1041	0.047
1041	0.047
1042	0.047
1042	0.047
1043	0.046
1043	0.046
1044	0.045
1044	0.044
1044	0.044
1045	0.042
1045	0.041
1046	0.04
1046	0.04
1046	0.039
1047	0.039
1047	0.039
1048	0.039
1048	0.039
1049	0.039
1049	0.039
1049	0.04
1050	0.04
1050	0.041
1051	0.041
1051	0.041
1051	0.041
1052	0.042
1052	0.042
1053	0.042
1053	0.042
1053	0.042
1054	0.042
1054	0.042
1055	0.042
1055	0.042
1056	0.041
1056	0.04
1056	0.039
1057	0.039
1057	0.038
1058	0.038
1058	0.037
1058	0.037
1059	0.036
1059	0.035
1060	0.035
1060	0.034
1061	0.034
1061	0.034
1061	0.033
1062	0.033
1062	0.033
1063	0.033
1063	0.032
1063	0.032
1064	0.032
1064	0.032
1065	0.032
1065	0.032
1066	0.032
1066	0.032
1066	0.032
1067	0.032
1067	0.032
1068	0.031
1068	0.031
1068	0.03
1069	0.031
1069	0.03
1070	0.029
1070	0.029
1071	0.029
1071	0.029
1071	0.028
1072	0.027
1072	0.027
1073	0.026
1073	0.026
1073	0.025
1074	0.026
1074	0.026
1075	0.025
1075	0.025
1076	0.024
1076	0.024
1076	0.023
1077	0.023
1077	0.022
1078	0.021
1078	0.021
1078	0.02
1079	0.019
1079	0.019
1080	0.018
1080	0.017
1080	0.017
1081	0.016
1081	0.015
1082	0.015
1082	0.014
1083	0.014
1083	0.013
1083	0.012
1084	0.011
1084	0.01
1085	0.009
1085	0.008
1085	0.008
1086	0.007
1086	0.006
1087	0.006
1087	0.005
1088	0.004
1088	0.004
1088	0.003
1089	0.002
1089	0.002
1090	-0
1090	-0.001
1090	-0.002
1091	-0.003
1091	-0.004
1092	-0.005
1092	-0.004
1092	-0.006
1093	-0.007
1093	-0.007
1094	-0.008
1094	-0.008
1095	-0.009
1095	-0.01
1095	-0.01
1096	-0.011
1096	-0.012
1097	-0.013
1097	-0.015
1097	-0.016
1098	-0.017
1098	-0.019
1099	-0.02
1099	-0.021
1100	-0.022
1100	-0.023
1100	-0.025
1101	-0.028
1101	-0.031
1102	-0.032
1102	-0.035
1102	-0.037
1103	-0.039
1103	-0.042
1104	-0.045
1104	-0.048
1104	-0.05
1105	-0.052
1105	-0.055
1106	-0.06
1106	-0.063
1107	-0.068
1107	-0.071
1107	-0.077
1108	-0.08
1108	-0.082
1109	-0.086
1109	-0.091
1109	-0.095
1110	-0.095
1110	-0.097
1111	-0.103
1111	-0.103
