Data from 17C_3.1A_35min_2sec_int_Absorbance__749__03152.txt Node

Date: Mon Jun 19 18:46:02 CEST 2023
User: Marek
Spectrometer: MAYP115816
Trigger mode: 0
Integration Time (sec): 2.500000E-1
Scans to average: 10
Electric dark correction enabled: true
Nonlinearity correction enabled: true
Boxcar width: 5
XAxis mode: Wavelengths
Number of Pixels in Spectrum: 2068
>>>>>Begin Spectral Data<<<<<
199	-0.737
199	-0.749
200	-0.65
200	-0.602
201	-0.568
201	-0.551
202	-0.537
202	-0.525
203	-0.516
203	-0.511
204	-0.497
204	-0.483
205	-0.46
205	-0.455
205	-0.453
206	-0.453
206	-0.456
207	-0.447
207	-0.449
208	-0.451
208	-0.449
209	-0.442
209	-0.443
210	-0.447
210	-0.454
211	-0.454
211	-0.457
212	-0.461
212	-0.469
213	-0.466
213	-0.468
213	-0.471
214	-0.47
214	-0.469
215	-0.471
215	-0.474
216	-0.48
216	-0.486
217	-0.481
217	-0.484
218	-0.489
218	-0.488
219	-0.493
219	-0.5
220	-0.505
220	-0.512
221	-0.509
221	-0.511
221	-0.503
222	-0.499
222	-0.501
223	-0.502
223	-0.505
224	-0.509
224	-0.51
225	-0.505
225	-0.5
226	-0.507
226	-0.505
227	-0.513
227	-0.523
228	-0.524
228	-0.523
229	-0.525
229	-0.519
229	-0.515
230	-0.519
230	-0.522
231	-0.516
231	-0.509
232	-0.504
232	-0.5
233	-0.493
233	-0.493
234	-0.492
234	-0.49
235	-0.491
235	-0.497
236	-0.496
236	-0.498
236	-0.505
237	-0.51
237	-0.512
238	-0.522
238	-0.52
239	-0.517
239	-0.525
240	-0.525
240	-0.523
241	-0.528
241	-0.528
242	-0.533
242	-0.529
243	-0.527
243	-0.526
243	-0.536
244	-0.539
244	-0.538
245	-0.551
245	-0.551
246	-0.556
246	-0.562
247	-0.564
247	-0.567
248	-0.574
248	-0.571
249	-0.571
249	-0.579
250	-0.578
250	-0.573
250	-0.573
251	-0.569
251	-0.568
252	-0.571
252	-0.563
253	-0.567
253	-0.58
254	-0.58
254	-0.577
255	-0.585
255	-0.579
256	-0.576
256	-0.591
257	-0.588
257	-0.584
258	-0.601
258	-0.598
258	-0.593
259	-0.59
259	-0.598
260	-0.6
260	-0.606
261	-0.617
261	-0.606
262	-0.604
262	-0.605
263	-0.592
263	-0.587
264	-0.585
264	-0.594
265	-0.59
265	-0.597
265	-0.601
266	-0.598
266	-0.596
267	-0.608
267	-0.616
268	-0.631
268	-0.64
269	-0.639
269	-0.632
270	-0.635
270	-0.64
271	-0.64
271	-0.645
272	-0.652
272	-0.647
272	-0.641
273	-0.64
273	-0.649
274	-0.655
274	-0.66
275	-0.662
275	-0.653
276	-0.659
276	-0.653
277	-0.655
277	-0.672
278	-0.686
278	-0.678
278	-0.673
279	-0.678
279	-0.688
280	-0.684
280	-0.684
281	-0.679
281	-0.685
282	-0.678
282	-0.679
283	-0.667
283	-0.671
284	-0.665
284	-0.652
285	-0.646
285	-0.645
285	-0.64
286	-0.645
286	-0.638
287	-0.633
287	-0.617
288	-0.609
288	-0.619
289	-0.63
289	-0.642
290	-0.632
290	-0.63
291	-0.629
291	-0.625
292	-0.629
292	-0.635
292	-0.642
293	-0.648
293	-0.634
294	-0.623
294	-0.612
295	-0.61
295	-0.606
296	-0.604
296	-0.602
297	-0.597
297	-0.583
298	-0.573
298	-0.582
298	-0.572
299	-0.565
299	-0.57
300	-0.566
300	-0.563
301	-0.558
301	-0.554
302	-0.564
302	-0.574
303	-0.562
303	-0.547
304	-0.55
304	-0.55
305	-0.552
305	-0.55
305	-0.547
306	-0.534
306	-0.528
307	-0.512
307	-0.513
308	-0.527
308	-0.522
309	-0.523
309	-0.513
310	-0.5
310	-0.495
311	-0.488
311	-0.496
311	-0.493
312	-0.492
312	-0.488
313	-0.475
313	-0.479
314	-0.476
314	-0.478
315	-0.477
315	-0.477
316	-0.474
316	-0.464
317	-0.458
317	-0.453
318	-0.442
318	-0.438
318	-0.433
319	-0.424
319	-0.42
320	-0.414
320	-0.414
321	-0.419
321	-0.417
322	-0.412
322	-0.404
323	-0.406
323	-0.402
324	-0.396
324	-0.388
324	-0.378
325	-0.37
325	-0.354
326	-0.339
326	-0.323
327	-0.309
327	-0.291
328	-0.265
328	-0.245
329	-0.223
329	-0.201
330	-0.177
330	-0.147
330	-0.122
331	-0.096
331	-0.072
332	-0.048
332	-0.027
333	-0.006
333	0.017
334	0.035
334	0.05
335	0.066
335	0.079
336	0.092
336	0.104
336	0.113
337	0.123
337	0.132
338	0.139
338	0.144
339	0.151
339	0.156
340	0.16
340	0.164
341	0.167
341	0.17
342	0.173
342	0.175
342	0.178
343	0.18
343	0.183
344	0.184
344	0.185
345	0.187
345	0.188
346	0.189
346	0.189
347	0.19
347	0.191
348	0.191
348	0.192
348	0.192
349	0.192
349	0.193
350	0.193
350	0.193
351	0.193
351	0.193
352	0.193
352	0.193
353	0.193
353	0.193
354	0.193
354	0.193
354	0.192
355	0.192
355	0.192
356	0.192
356	0.192
357	0.191
357	0.19
358	0.19
358	0.19
359	0.19
359	0.19
360	0.19
360	0.19
360	0.19
361	0.19
361	0.19
362	0.19
362	0.19
363	0.19
363	0.19
364	0.19
364	0.19
365	0.19
365	0.19
366	0.19
366	0.19
366	0.19
367	0.191
367	0.191
368	0.191
368	0.191
369	0.191
369	0.19
370	0.19
370	0.19
371	0.19
371	0.19
372	0.19
372	0.19
372	0.19
373	0.189
373	0.19
374	0.19
374	0.19
375	0.19
375	0.19
376	0.19
376	0.19
377	0.19
377	0.19
378	0.19
378	0.19
378	0.19
379	0.19
379	0.19
380	0.19
380	0.189
381	0.189
381	0.189
382	0.189
382	0.189
383	0.189
383	0.189
383	0.189
384	0.188
384	0.189
385	0.189
385	0.189
386	0.189
386	0.189
387	0.189
387	0.189
388	0.189
388	0.189
389	0.189
389	0.189
389	0.189
390	0.189
390	0.189
391	0.189
391	0.189
392	0.189
392	0.189
393	0.189
393	0.189
394	0.189
394	0.189
394	0.188
395	0.188
395	0.188
396	0.188
396	0.188
397	0.188
397	0.188
398	0.188
398	0.188
399	0.188
399	0.188
400	0.188
400	0.188
400	0.188
401	0.188
401	0.187
402	0.187
402	0.187
403	0.187
403	0.187
404	0.187
404	0.187
405	0.187
405	0.187
405	0.187
406	0.187
406	0.187
407	0.187
407	0.187
408	0.187
408	0.187
409	0.186
409	0.186
410	0.186
410	0.186
411	0.186
411	0.186
411	0.187
412	0.187
412	0.187
413	0.187
413	0.187
414	0.187
414	0.186
415	0.186
415	0.186
416	0.186
416	0.186
416	0.186
417	0.185
417	0.185
418	0.186
418	0.186
419	0.186
419	0.186
420	0.186
420	0.186
421	0.186
421	0.186
421	0.187
422	0.187
422	0.187
423	0.186
423	0.186
424	0.186
424	0.186
425	0.185
425	0.185
426	0.185
426	0.185
427	0.184
427	0.184
427	0.184
428	0.184
428	0.184
429	0.184
429	0.184
430	0.184
430	0.184
431	0.184
431	0.184
432	0.184
432	0.183
432	0.183
433	0.183
433	0.183
434	0.183
434	0.183
435	0.183
435	0.183
436	0.183
436	0.183
437	0.183
437	0.183
437	0.183
438	0.183
438	0.183
439	0.183
439	0.183
440	0.183
440	0.183
441	0.183
441	0.183
442	0.182
442	0.182
442	0.182
443	0.182
443	0.182
444	0.182
444	0.182
445	0.182
445	0.182
446	0.182
446	0.182
447	0.182
447	0.182
447	0.182
448	0.182
448	0.182
449	0.182
449	0.182
450	0.182
450	0.182
451	0.182
451	0.182
452	0.182
452	0.182
452	0.182
453	0.181
453	0.181
454	0.181
454	0.181
455	0.181
455	0.181
456	0.18
456	0.18
457	0.18
457	0.18
458	0.18
458	0.18
458	0.18
459	0.18
459	0.18
460	0.18
460	0.18
461	0.18
461	0.18
462	0.18
462	0.18
463	0.181
463	0.181
463	0.181
464	0.181
464	0.181
465	0.181
465	0.181
466	0.181
466	0.181
467	0.181
467	0.181
467	0.181
468	0.181
468	0.181
469	0.181
469	0.181
470	0.181
470	0.182
471	0.181
471	0.181
472	0.181
472	0.181
472	0.181
473	0.181
473	0.182
474	0.181
474	0.181
475	0.181
475	0.181
476	0.181
476	0.181
477	0.181
477	0.181
477	0.181
478	0.181
478	0.181
479	0.181
479	0.181
480	0.182
480	0.182
481	0.182
481	0.183
482	0.183
482	0.183
482	0.184
483	0.184
483	0.185
484	0.184
484	0.184
485	0.184
485	0.184
486	0.184
486	0.184
487	0.184
487	0.185
487	0.185
488	0.185
488	0.185
489	0.186
489	0.187
490	0.188
490	0.189
491	0.189
491	0.19
492	0.19
492	0.191
492	0.191
493	0.191
493	0.192
494	0.193
494	0.193
495	0.193
495	0.194
496	0.194
496	0.195
496	0.196
497	0.197
497	0.197
498	0.198
498	0.199
499	0.199
499	0.2
500	0.201
500	0.202
501	0.202
501	0.203
501	0.203
502	0.203
502	0.204
503	0.205
503	0.205
504	0.206
504	0.207
505	0.208
505	0.209
506	0.21
506	0.21
506	0.211
507	0.212
507	0.212
508	0.213
508	0.214
509	0.215
509	0.216
510	0.217
510	0.217
511	0.218
511	0.219
511	0.22
512	0.221
512	0.222
513	0.222
513	0.223
514	0.223
514	0.225
515	0.225
515	0.226
515	0.226
516	0.227
516	0.228
517	0.229
517	0.23
518	0.231
518	0.231
519	0.232
519	0.233
520	0.233
520	0.234
520	0.235
521	0.236
521	0.237
522	0.238
522	0.239
523	0.24
523	0.241
524	0.242
524	0.242
524	0.243
525	0.243
525	0.244
526	0.244
526	0.245
527	0.245
527	0.246
528	0.246
528	0.247
529	0.248
529	0.249
529	0.249
530	0.25
530	0.251
531	0.252
531	0.252
532	0.253
532	0.253
533	0.254
533	0.254
533	0.255
534	0.255
534	0.255
535	0.255
535	0.256
536	0.256
536	0.256
537	0.256
537	0.256
538	0.256
538	0.256
538	0.257
539	0.258
539	0.258
540	0.258
540	0.259
541	0.259
541	0.26
542	0.26
542	0.26
542	0.26
543	0.261
543	0.261
544	0.261
544	0.261
545	0.262
545	0.262
546	0.263
546	0.263
547	0.263
547	0.263
547	0.264
548	0.264
548	0.264
549	0.264
549	0.265
550	0.265
550	0.266
551	0.266
551	0.267
551	0.268
552	0.269
552	0.269
553	0.27
553	0.271
554	0.271
554	0.271
555	0.271
555	0.271
556	0.272
556	0.271
556	0.272
557	0.272
557	0.272
558	0.271
558	0.271
559	0.271
559	0.271
560	0.271
560	0.271
560	0.271
561	0.271
561	0.271
562	0.271
562	0.27
563	0.27
563	0.27
564	0.271
564	0.271
564	0.272
565	0.272
565	0.273
566	0.273
566	0.273
567	0.273
567	0.274
568	0.274
568	0.274
568	0.274
569	0.274
569	0.274
570	0.273
570	0.272
571	0.272
571	0.272
572	0.272
572	0.272
573	0.271
573	0.271
573	0.271
574	0.271
574	0.271
575	0.272
575	0.273
576	0.273
576	0.272
577	0.272
577	0.273
577	0.274
578	0.275
578	0.275
579	0.276
579	0.277
580	0.277
580	0.276
581	0.275
581	0.276
581	0.276
582	0.276
582	0.276
583	0.276
583	0.276
584	0.275
584	0.274
585	0.274
585	0.275
585	0.276
586	0.276
586	0.276
587	0.276
587	0.275
588	0.275
588	0.276
589	0.276
589	0.277
590	0.277
590	0.278
590	0.279
591	0.28
591	0.279
592	0.279
592	0.279
593	0.279
593	0.279
594	0.279
594	0.278
594	0.279
595	0.279
595	0.278
596	0.278
596	0.28
597	0.281
597	0.281
598	0.281
598	0.281
598	0.281
599	0.281
599	0.28
600	0.28
600	0.279
601	0.279
601	0.278
602	0.277
602	0.278
602	0.278
603	0.278
603	0.279
604	0.28
604	0.281
605	0.282
605	0.282
606	0.282
606	0.282
606	0.282
607	0.281
607	0.281
608	0.281
608	0.28
609	0.28
609	0.28
610	0.28
610	0.28
610	0.281
611	0.283
611	0.284
612	0.285
612	0.286
613	0.286
613	0.287
614	0.286
614	0.285
614	0.284
615	0.283
615	0.283
616	0.282
616	0.281
617	0.281
617	0.28
618	0.279
618	0.279
618	0.279
619	0.279
619	0.279
620	0.28
620	0.279
621	0.279
621	0.279
622	0.279
622	0.279
622	0.278
623	0.278
623	0.278
624	0.278
624	0.278
625	0.277
625	0.277
626	0.277
626	0.276
626	0.276
627	0.276
627	0.275
628	0.274
628	0.273
629	0.272
629	0.271
630	0.269
630	0.268
630	0.266
631	0.264
631	0.262
632	0.26
632	0.258
633	0.256
633	0.254
634	0.252
634	0.25
634	0.248
635	0.245
635	0.242
636	0.239
636	0.236
637	0.232
637	0.228
638	0.225
638	0.22
638	0.216
639	0.212
639	0.207
640	0.202
640	0.197
641	0.193
641	0.188
642	0.183
642	0.178
642	0.173
643	0.168
643	0.162
644	0.156
644	0.15
645	0.144
645	0.137
646	0.131
646	0.124
646	0.117
647	0.11
647	0.103
648	0.095
648	0.088
649	0.08
649	0.072
650	0.065
650	0.057
650	0.048
651	0.038
651	0.024
652	0.009
652	-0.006
653	-0.02
653	-0.033
653	-0.03
654	-0.01
654	0
655	-0.003
655	-0.009
656	-0.016
656	-0.022
657	-0.027
657	-0.031
657	-0.038
658	-0.044
658	-0.073
659	-0.16
659	-0.259
660	-0.305
660	-0.331
661	-0.359
661	-0.391
661	-0.425
662	-0.457
662	-0.491
663	-0.53
663	-0.572
664	-0.615
664	-0.667
665	-0.716
665	-0.774
665	-0.828
666	-0.884
666	-0.945
667	-1.009
667	-1.073
668	-1.145
668	-1.218
669	-1.291
669	-1.365
669	-1.442
670	-1.51
670	-1.539
671	-1.683
671	-1.967
672	-2.198
672	-2.39
672	-2.52
673	-2.613
673	-2.693
674	-2.735
674	-2.753
675	-2.778
675	-2.919
676	-3.114
676	-3.065
676	-2.84
677	-2.635
677	-2.47
678	-2.29
678	-1.98
679	-1.693
679	-1.557
680	-1.463
680	-1.38
680	-1.311
681	-1.266
681	-1.209
682	-1.17
682	-1.134
683	-1.1
683	-1.085
684	-1.065
684	-1.047
684	-1.027
685	-1.005
685	-0.983
686	-0.96
686	-0.945
687	-0.92
687	-0.909
687	-0.889
688	-0.864
688	-0.844
689	-0.825
689	-0.811
690	-0.792
690	-0.78
691	-0.774
691	-0.781
691	-0.797
692	-0.789
692	-0.782
693	-0.778
693	-0.785
694	-0.779
694	-0.774
695	-0.78
695	-0.776
695	-0.761
696	-0.758
696	-0.736
697	-0.737
697	-0.753
698	-0.755
698	-0.746
698	-0.759
699	-0.76
699	-0.758
700	-0.751
700	-0.768
701	-0.767
701	-0.774
702	-0.774
702	-0.761
702	-0.753
703	-0.744
703	-0.736
704	-0.732
704	-0.73
705	-0.743
705	-0.734
705	-0.722
706	-0.72
706	-0.715
707	-0.721
707	-0.716
708	-0.715
708	-0.708
709	-0.711
709	-0.715
709	-0.704
710	-0.712
710	-0.72
711	-0.713
711	-0.714
712	-0.714
712	-0.728
713	-0.728
713	-0.736
713	-0.727
714	-0.723
714	-0.727
715	-0.717
715	-0.704
716	-0.712
716	-0.714
716	-0.707
717	-0.707
717	-0.709
718	-0.699
718	-0.701
719	-0.708
719	-0.708
720	-0.705
720	-0.718
720	-0.713
721	-0.703
721	-0.703
722	-0.69
722	-0.679
723	-0.678
723	-0.681
723	-0.667
724	-0.671
724	-0.675
725	-0.671
725	-0.677
726	-0.689
726	-0.695
727	-0.701
727	-0.715
727	-0.724
728	-0.726
728	-0.732
729	-0.731
729	-0.734
730	-0.74
730	-0.735
730	-0.726
731	-0.706
731	-0.715
732	-0.721
732	-0.721
733	-0.717
733	-0.723
734	-0.718
734	-0.719
734	-0.704
735	-0.701
735	-0.702
736	-0.711
736	-0.697
737	-0.688
737	-0.688
737	-0.701
738	-0.693
738	-0.692
739	-0.69
739	-0.705
740	-0.705
740	-0.703
741	-0.7
741	-0.701
741	-0.706
742	-0.705
742	-0.706
743	-0.715
743	-0.718
744	-0.715
744	-0.704
744	-0.703
745	-0.711
745	-0.705
746	-0.705
746	-0.702
747	-0.703
747	-0.688
748	-0.675
748	-0.684
748	-0.685
749	-0.684
749	-0.686
750	-0.676
750	-0.678
751	-0.681
751	-0.69
751	-0.69
752	-0.697
752	-0.707
753	-0.7
753	-0.698
754	-0.704
754	-0.697
754	-0.71
755	-0.726
755	-0.74
756	-0.726
756	-0.725
757	-0.721
757	-0.716
758	-0.718
758	-0.714
758	-0.717
759	-0.724
759	-0.708
760	-0.701
760	-0.694
761	-0.704
761	-0.702
761	-0.7
762	-0.707
762	-0.707
763	-0.716
763	-0.711
764	-0.71
764	-0.717
764	-0.721
765	-0.712
765	-0.7
766	-0.706
766	-0.712
767	-0.729
767	-0.724
768	-0.717
768	-0.726
768	-0.732
769	-0.75
769	-0.751
770	-0.756
770	-0.769
771	-0.769
771	-0.773
771	-0.774
772	-0.778
772	-0.777
773	-0.776
773	-0.772
774	-0.772
774	-0.773
775	-0.774
775	-0.77
775	-0.776
776	-0.775
776	-0.764
777	-0.772
777	-0.79
778	-0.787
778	-0.804
778	-0.789
779	-0.811
779	-0.82
780	-0.836
780	-0.835
781	-0.847
781	-0.844
781	-0.856
782	-0.859
782	-0.861
783	-0.849
783	-0.849
784	-0.83
784	-0.816
784	-0.824
785	-0.829
785	-0.812
786	-0.818
786	-0.797
787	-0.781
787	-0.783
788	-0.786
788	-0.795
788	-0.806
789	-0.809
789	-0.791
790	-0.774
790	-0.778
791	-0.777
791	-0.794
791	-0.804
792	-0.797
792	-0.772
793	-0.762
793	-0.739
794	-0.743
794	-0.735
794	-0.745
795	-0.739
795	-0.732
796	-0.717
796	-0.722
797	-0.715
797	-0.731
797	-0.736
798	-0.748
798	-0.742
799	-0.753
799	-0.737
800	-0.745
800	-0.738
801	-0.745
801	-0.729
801	-0.742
802	-0.748
802	-0.749
803	-0.75
803	-0.76
804	-0.755
804	-0.767
804	-0.753
805	-0.759
805	-0.746
806	-0.751
806	-0.735
807	-0.731
807	-0.714
807	-0.7
808	-0.69
808	-0.683
809	-0.668
809	-0.677
810	-0.674
810	-0.667
810	-0.661
811	-0.666
811	-0.66
812	-0.661
812	-0.666
813	-0.672
813	-0.666
813	-0.669
814	-0.672
814	-0.676
815	-0.681
815	-0.688
816	-0.681
816	-0.686
817	-0.695
817	-0.711
817	-0.725
818	-0.734
818	-0.739
819	-0.731
819	-0.731
820	-0.74
820	-0.735
820	-0.745
821	-0.742
821	-0.73
822	-0.7
822	-0.677
823	-0.674
823	-0.676
823	-0.674
824	-0.669
824	-0.673
825	-0.665
825	-0.646
826	-0.641
826	-0.645
826	-0.654
827	-0.648
827	-0.645
828	-0.624
828	-0.623
829	-0.612
829	-0.595
829	-0.587
830	-0.598
830	-0.594
831	-0.588
831	-0.577
832	-0.576
832	-0.569
832	-0.577
833	-0.57
833	-0.573
834	-0.571
834	-0.578
835	-0.566
835	-0.561
835	-0.556
836	-0.553
836	-0.55
837	-0.546
837	-0.535
838	-0.527
838	-0.513
839	-0.501
839	-0.488
839	-0.478
840	-0.466
840	-0.464
841	-0.452
841	-0.442
842	-0.437
842	-0.425
842	-0.418
843	-0.413
843	-0.409
844	-0.4
844	-0.393
845	-0.385
845	-0.374
845	-0.361
846	-0.349
846	-0.334
847	-0.323
847	-0.311
848	-0.299
848	-0.286
848	-0.27
849	-0.258
849	-0.245
850	-0.23
850	-0.223
851	-0.214
851	-0.202
851	-0.192
852	-0.176
852	-0.164
853	-0.154
853	-0.147
854	-0.135
854	-0.123
854	-0.111
855	-0.098
855	-0.089
856	-0.078
856	-0.069
857	-0.06
857	-0.051
857	-0.036
858	-0.025
858	-0.017
859	-0.008
859	0.004
860	0.014
860	0.026
860	0.034
861	0.044
861	0.052
862	0.06
862	0.067
863	0.074
863	0.084
863	0.09
864	0.094
864	0.1
865	0.106
865	0.111
866	0.115
866	0.119
866	0.123
867	0.126
867	0.13
868	0.132
868	0.137
869	0.14
869	0.143
869	0.145
870	0.148
870	0.15
871	0.153
871	0.155
872	0.156
872	0.157
872	0.158
873	0.159
873	0.159
874	0.158
874	0.157
875	0.156
875	0.155
875	0.154
876	0.152
876	0.151
877	0.149
877	0.147
878	0.145
878	0.143
878	0.141
879	0.139
879	0.138
880	0.137
880	0.137
881	0.137
881	0.137
881	0.137
882	0.136
882	0.136
883	0.135
883	0.134
884	0.134
884	0.133
884	0.132
885	0.132
885	0.131
886	0.131
886	0.13
887	0.13
887	0.13
887	0.13
888	0.13
888	0.13
889	0.13
889	0.13
890	0.131
890	0.131
890	0.131
891	0.131
891	0.131
892	0.131
892	0.131
893	0.13
893	0.13
893	0.13
894	0.13
894	0.13
895	0.129
895	0.129
895	0.128
896	0.127
896	0.126
897	0.125
897	0.123
898	0.122
898	0.121
898	0.12
899	0.12
899	0.12
900	0.121
900	0.121
901	0.121
901	0.122
901	0.123
902	0.123
902	0.125
903	0.125
903	0.126
904	0.127
904	0.127
904	0.128
905	0.129
905	0.13
906	0.13
906	0.13
907	0.13
907	0.13
907	0.13
908	0.13
908	0.13
909	0.129
909	0.129
910	0.129
910	0.128
910	0.128
911	0.128
911	0.129
912	0.129
912	0.129
913	0.129
913	0.13
913	0.13
914	0.13
914	0.13
915	0.131
915	0.131
916	0.131
916	0.131
916	0.13
917	0.13
917	0.13
918	0.13
918	0.129
918	0.129
919	0.128
919	0.128
920	0.127
920	0.127
921	0.127
921	0.127
921	0.126
922	0.126
922	0.125
923	0.125
923	0.125
924	0.124
924	0.124
924	0.123
925	0.123
925	0.122
926	0.121
926	0.121
927	0.12
927	0.12
927	0.12
928	0.119
928	0.119
929	0.119
929	0.118
930	0.118
930	0.118
930	0.118
931	0.117
931	0.117
932	0.117
932	0.116
933	0.116
933	0.115
933	0.113
934	0.112
934	0.111
935	0.11
935	0.109
935	0.108
936	0.107
936	0.106
937	0.105
937	0.105
938	0.105
938	0.105
938	0.105
939	0.105
939	0.106
940	0.106
940	0.107
941	0.107
941	0.108
941	0.108
942	0.109
942	0.109
943	0.11
943	0.11
944	0.11
944	0.11
944	0.109
945	0.108
945	0.107
946	0.106
946	0.104
946	0.103
947	0.102
947	0.1
948	0.099
948	0.099
949	0.098
949	0.098
949	0.098
950	0.098
950	0.098
951	0.099
951	0.099
952	0.1
952	0.101
952	0.101
953	0.102
953	0.102
954	0.102
954	0.103
955	0.104
955	0.105
955	0.105
956	0.106
956	0.107
957	0.107
957	0.107
957	0.107
958	0.108
958	0.109
959	0.11
959	0.11
960	0.111
960	0.111
960	0.112
961	0.112
961	0.113
962	0.113
962	0.114
963	0.114
963	0.114
963	0.114
964	0.113
964	0.113
965	0.113
965	0.112
966	0.112
966	0.112
966	0.111
967	0.111
967	0.11
968	0.11
968	0.109
968	0.108
969	0.108
969	0.107
970	0.107
970	0.107
971	0.107
971	0.107
971	0.107
972	0.107
972	0.107
973	0.108
973	0.108
974	0.108
974	0.108
974	0.108
975	0.108
975	0.108
976	0.107
976	0.107
976	0.107
977	0.107
977	0.107
978	0.108
978	0.107
979	0.107
979	0.106
979	0.106
980	0.106
980	0.106
981	0.106
981	0.105
982	0.105
982	0.105
982	0.105
983	0.105
983	0.105
984	0.106
984	0.106
984	0.106
985	0.106
985	0.107
986	0.106
986	0.106
987	0.106
987	0.106
987	0.105
988	0.105
988	0.104
989	0.103
989	0.102
990	0.102
990	0.101
990	0.1
991	0.099
991	0.099
992	0.098
992	0.098
992	0.098
993	0.098
993	0.098
994	0.098
994	0.098
995	0.098
995	0.097
995	0.097
996	0.097
996	0.096
997	0.096
997	0.096
997	0.096
998	0.095
998	0.095
999	0.095
999	0.095
1000	0.095
1000	0.095
1000	0.095
1001	0.095
1001	0.095
1002	0.095
1002	0.094
1003	0.094
1003	0.094
1003	0.093
1004	0.092
1004	0.091
1005	0.09
1005	0.089
1005	0.088
1006	0.086
1006	0.085
1007	0.084
1007	0.083
1008	0.082
1008	0.081
1008	0.081
1009	0.081
1009	0.081
1010	0.081
1010	0.082
1010	0.082
1011	0.082
1011	0.082
1012	0.081
1012	0.081
1013	0.08
1013	0.079
1013	0.078
1014	0.077
1014	0.076
1015	0.075
1015	0.075
1016	0.074
1016	0.073
1016	0.073
1017	0.072
1017	0.071
1018	0.071
1018	0.07
1018	0.069
1019	0.069
1019	0.068
1020	0.068
1020	0.067
1021	0.067
1021	0.066
1021	0.065
1022	0.064
1022	0.063
1023	0.063
1023	0.063
1023	0.062
1024	0.062
1024	0.062
1025	0.062
1025	0.062
1026	0.063
1026	0.063
1026	0.063
1027	0.064
1027	0.064
1028	0.064
1028	0.065
1028	0.064
1029	0.065
1029	0.065
1030	0.064
1030	0.063
1031	0.063
1031	0.063
1031	0.062
1032	0.062
1032	0.061
1033	0.061
1033	0.062
1033	0.062
1034	0.061
1034	0.061
1035	0.061
1035	0.061
1036	0.061
1036	0.061
1036	0.061
1037	0.061
1037	0.061
1038	0.061
1038	0.061
1039	0.061
1039	0.062
1039	0.062
1040	0.063
1040	0.064
1041	0.064
1041	0.065
1041	0.065
1042	0.065
1042	0.065
1043	0.065
1043	0.065
1044	0.064
1044	0.064
1044	0.064
1045	0.063
1045	0.063
1046	0.062
1046	0.062
1046	0.062
1047	0.062
1047	0.062
1048	0.062
1048	0.062
1049	0.063
1049	0.063
1049	0.064
1050	0.064
1050	0.064
1051	0.064
1051	0.065
1051	0.065
1052	0.065
1052	0.065
1053	0.065
1053	0.065
1053	0.065
1054	0.064
1054	0.063
1055	0.063
1055	0.062
1056	0.061
1056	0.06
1056	0.059
1057	0.058
1057	0.057
1058	0.057
1058	0.056
1058	0.055
1059	0.055
1059	0.054
1060	0.053
1060	0.052
1061	0.052
1061	0.052
1061	0.052
1062	0.052
1062	0.052
1063	0.052
1063	0.052
1063	0.053
1064	0.054
1064	0.054
1065	0.054
1065	0.053
1066	0.053
1066	0.053
1066	0.053
1067	0.052
1067	0.052
1068	0.051
1068	0.05
1068	0.049
1069	0.049
1069	0.048
1070	0.047
1070	0.047
1071	0.046
1071	0.046
1071	0.045
1072	0.045
1072	0.044
1073	0.044
1073	0.044
1073	0.044
1074	0.044
1074	0.045
1075	0.044
1075	0.044
1076	0.044
1076	0.044
1076	0.043
1077	0.042
1077	0.042
1078	0.041
1078	0.04
1078	0.039
1079	0.039
1079	0.039
1080	0.038
1080	0.037
1080	0.036
1081	0.036
1081	0.035
1082	0.034
1082	0.033
1083	0.032
1083	0.032
1083	0.03
1084	0.029
1084	0.029
1085	0.028
1085	0.027
1085	0.027
1086	0.027
1086	0.026
1087	0.026
1087	0.026
1088	0.024
1088	0.024
1088	0.023
1089	0.022
1089	0.021
1090	0.02
1090	0.019
1090	0.017
1091	0.016
1091	0.016
1092	0.014
1092	0.015
1092	0.013
1093	0.013
1093	0.013
1094	0.013
1094	0.012
1095	0.011
1095	0.011
1095	0.011
1096	0.01
1096	0.009
1097	0.009
1097	0.008
1097	0.007
1098	0.005
1098	0.004
1099	0.002
1099	0.002
1100	0
1100	-0.002
1100	-0.004
1101	-0.007
1101	-0.01
1102	-0.013
1102	-0.016
1102	-0.017
1103	-0.019
1103	-0.022
1104	-0.025
1104	-0.027
1104	-0.03
1105	-0.033
1105	-0.036
1106	-0.04
1106	-0.042
1107	-0.047
1107	-0.052
1107	-0.058
1108	-0.06
1108	-0.062
1109	-0.066
1109	-0.07
1109	-0.072
1110	-0.073
1110	-0.077
1111	-0.086
1111	-0.084
