Data from 17C_3.1A_35min_2sec_int_Absorbance__2__02405.txt Node

Date: Mon Jun 19 18:14:54 CEST 2023
User: Marek
Spectrometer: MAYP115816
Trigger mode: 0
Integration Time (sec): 2.500000E-1
Scans to average: 10
Electric dark correction enabled: true
Nonlinearity correction enabled: true
Boxcar width: 5
XAxis mode: Wavelengths
Number of Pixels in Spectrum: 2068
>>>>>Begin Spectral Data<<<<<
199	-0.752
199	-0.768
200	-0.67
200	-0.618
201	-0.579
201	-0.564
202	-0.545
202	-0.531
203	-0.523
203	-0.52
204	-0.506
204	-0.492
205	-0.467
205	-0.464
205	-0.461
206	-0.462
206	-0.463
207	-0.456
207	-0.46
208	-0.462
208	-0.461
209	-0.455
209	-0.456
210	-0.461
210	-0.466
211	-0.466
211	-0.47
212	-0.475
212	-0.481
213	-0.478
213	-0.477
213	-0.482
214	-0.478
214	-0.476
215	-0.476
215	-0.481
216	-0.487
216	-0.494
217	-0.489
217	-0.496
218	-0.5
218	-0.501
219	-0.503
219	-0.516
220	-0.522
220	-0.532
221	-0.53
221	-0.531
221	-0.524
222	-0.521
222	-0.521
223	-0.523
223	-0.526
224	-0.532
224	-0.528
225	-0.523
225	-0.517
226	-0.522
226	-0.523
227	-0.529
227	-0.539
228	-0.54
228	-0.542
229	-0.542
229	-0.535
229	-0.532
230	-0.535
230	-0.538
231	-0.532
231	-0.523
232	-0.518
232	-0.515
233	-0.507
233	-0.504
234	-0.505
234	-0.501
235	-0.503
235	-0.509
236	-0.509
236	-0.513
236	-0.518
237	-0.522
237	-0.524
238	-0.535
238	-0.533
239	-0.532
239	-0.54
240	-0.54
240	-0.536
241	-0.539
241	-0.536
242	-0.542
242	-0.537
243	-0.534
243	-0.532
243	-0.541
244	-0.543
244	-0.542
245	-0.555
245	-0.556
246	-0.563
246	-0.573
247	-0.576
247	-0.581
248	-0.586
248	-0.585
249	-0.588
249	-0.596
250	-0.595
250	-0.59
250	-0.589
251	-0.584
251	-0.58
252	-0.58
252	-0.572
253	-0.577
253	-0.59
254	-0.588
254	-0.587
255	-0.595
255	-0.587
256	-0.584
256	-0.596
257	-0.592
257	-0.589
258	-0.605
258	-0.601
258	-0.594
259	-0.589
259	-0.599
260	-0.599
260	-0.605
261	-0.617
261	-0.608
262	-0.607
262	-0.61
263	-0.6
263	-0.595
264	-0.596
264	-0.604
265	-0.597
265	-0.604
265	-0.605
266	-0.604
266	-0.602
267	-0.615
267	-0.623
268	-0.636
268	-0.645
269	-0.643
269	-0.638
270	-0.644
270	-0.648
271	-0.65
271	-0.654
272	-0.659
272	-0.653
272	-0.645
273	-0.644
273	-0.653
274	-0.658
274	-0.663
275	-0.662
275	-0.656
276	-0.659
276	-0.653
277	-0.656
277	-0.674
278	-0.684
278	-0.679
278	-0.672
279	-0.678
279	-0.687
280	-0.685
280	-0.685
281	-0.68
281	-0.687
282	-0.678
282	-0.677
283	-0.668
283	-0.669
284	-0.664
284	-0.652
285	-0.647
285	-0.644
285	-0.64
286	-0.647
286	-0.641
287	-0.642
287	-0.628
288	-0.621
288	-0.63
289	-0.644
289	-0.653
290	-0.643
290	-0.643
291	-0.64
291	-0.634
292	-0.637
292	-0.641
292	-0.643
293	-0.647
293	-0.635
294	-0.624
294	-0.615
295	-0.612
295	-0.608
296	-0.606
296	-0.605
297	-0.598
297	-0.582
298	-0.575
298	-0.584
298	-0.573
299	-0.567
299	-0.567
300	-0.564
300	-0.559
301	-0.554
301	-0.552
302	-0.56
302	-0.569
303	-0.557
303	-0.541
304	-0.544
304	-0.542
305	-0.545
305	-0.544
305	-0.54
306	-0.525
306	-0.522
307	-0.509
307	-0.511
308	-0.523
308	-0.521
309	-0.523
309	-0.512
310	-0.499
310	-0.495
311	-0.488
311	-0.497
311	-0.492
312	-0.488
312	-0.483
313	-0.47
313	-0.475
314	-0.471
314	-0.473
315	-0.475
315	-0.474
316	-0.47
316	-0.463
317	-0.453
317	-0.449
318	-0.439
318	-0.434
318	-0.429
319	-0.418
319	-0.414
320	-0.406
320	-0.405
321	-0.409
321	-0.405
322	-0.403
322	-0.395
323	-0.395
323	-0.39
324	-0.382
324	-0.372
324	-0.36
325	-0.35
325	-0.332
326	-0.316
326	-0.298
327	-0.281
327	-0.259
328	-0.228
328	-0.205
329	-0.178
329	-0.151
330	-0.121
330	-0.086
330	-0.054
331	-0.02
331	0.013
332	0.045
332	0.071
333	0.099
333	0.128
334	0.152
334	0.173
335	0.195
335	0.214
336	0.23
336	0.248
336	0.26
337	0.275
337	0.288
338	0.299
338	0.307
339	0.318
339	0.327
340	0.333
340	0.339
341	0.344
341	0.348
342	0.353
342	0.358
342	0.361
343	0.364
343	0.368
344	0.37
344	0.372
345	0.374
345	0.375
346	0.377
346	0.378
347	0.379
347	0.379
348	0.38
348	0.381
348	0.381
349	0.381
349	0.382
350	0.382
350	0.382
351	0.383
351	0.383
352	0.383
352	0.383
353	0.383
353	0.383
354	0.382
354	0.382
354	0.382
355	0.382
355	0.382
356	0.382
356	0.381
357	0.379
357	0.379
358	0.379
358	0.378
359	0.378
359	0.378
360	0.377
360	0.377
360	0.377
361	0.376
361	0.376
362	0.377
362	0.377
363	0.376
363	0.376
364	0.376
364	0.375
365	0.375
365	0.375
366	0.375
366	0.374
366	0.374
367	0.374
367	0.374
368	0.373
368	0.373
369	0.373
369	0.373
370	0.372
370	0.372
371	0.371
371	0.371
372	0.37
372	0.37
372	0.37
373	0.369
373	0.369
374	0.369
374	0.368
375	0.368
375	0.367
376	0.367
376	0.367
377	0.367
377	0.366
378	0.365
378	0.365
378	0.365
379	0.364
379	0.364
380	0.363
380	0.363
381	0.362
381	0.362
382	0.361
382	0.361
383	0.36
383	0.359
383	0.359
384	0.358
384	0.358
385	0.357
385	0.357
386	0.357
386	0.356
387	0.356
387	0.356
388	0.355
388	0.355
389	0.355
389	0.355
389	0.355
390	0.354
390	0.354
391	0.353
391	0.353
392	0.353
392	0.352
393	0.352
393	0.351
394	0.351
394	0.35
394	0.35
395	0.349
395	0.349
396	0.348
396	0.348
397	0.347
397	0.347
398	0.346
398	0.346
399	0.346
399	0.345
400	0.345
400	0.344
400	0.344
401	0.344
401	0.343
402	0.343
402	0.342
403	0.342
403	0.342
404	0.341
404	0.341
405	0.341
405	0.34
405	0.34
406	0.339
406	0.339
407	0.339
407	0.338
408	0.338
408	0.338
409	0.337
409	0.337
410	0.337
410	0.337
411	0.337
411	0.337
411	0.337
412	0.337
412	0.336
413	0.336
413	0.335
414	0.335
414	0.335
415	0.334
415	0.334
416	0.334
416	0.333
416	0.333
417	0.333
417	0.333
418	0.333
418	0.333
419	0.332
419	0.332
420	0.332
420	0.332
421	0.332
421	0.332
421	0.332
422	0.332
422	0.332
423	0.331
423	0.331
424	0.33
424	0.33
425	0.33
425	0.329
426	0.329
426	0.329
427	0.328
427	0.328
427	0.328
428	0.328
428	0.328
429	0.328
429	0.328
430	0.328
430	0.328
431	0.327
431	0.327
432	0.327
432	0.327
432	0.326
433	0.326
433	0.326
434	0.326
434	0.326
435	0.326
435	0.326
436	0.326
436	0.326
437	0.326
437	0.326
437	0.326
438	0.326
438	0.326
439	0.326
439	0.326
440	0.326
440	0.326
441	0.326
441	0.326
442	0.326
442	0.326
442	0.326
443	0.326
443	0.326
444	0.326
444	0.326
445	0.326
445	0.326
446	0.327
446	0.327
447	0.327
447	0.327
447	0.328
448	0.328
448	0.328
449	0.328
449	0.328
450	0.329
450	0.329
451	0.329
451	0.329
452	0.33
452	0.33
452	0.33
453	0.33
453	0.33
454	0.33
454	0.33
455	0.33
455	0.33
456	0.331
456	0.331
457	0.331
457	0.331
458	0.332
458	0.332
458	0.333
459	0.333
459	0.333
460	0.333
460	0.334
461	0.334
461	0.335
462	0.335
462	0.336
463	0.336
463	0.337
463	0.337
464	0.338
464	0.338
465	0.339
465	0.34
466	0.34
466	0.341
467	0.342
467	0.342
467	0.343
468	0.344
468	0.344
469	0.345
469	0.346
470	0.347
470	0.348
471	0.348
471	0.349
472	0.35
472	0.351
472	0.352
473	0.353
473	0.354
474	0.355
474	0.356
475	0.357
475	0.358
476	0.359
476	0.36
477	0.361
477	0.362
477	0.363
478	0.365
478	0.366
479	0.367
479	0.369
480	0.37
480	0.372
481	0.373
481	0.375
482	0.377
482	0.379
482	0.38
483	0.382
483	0.384
484	0.385
484	0.386
485	0.388
485	0.39
486	0.391
486	0.393
487	0.395
487	0.397
487	0.399
488	0.401
488	0.403
489	0.406
489	0.41
490	0.412
490	0.415
491	0.418
491	0.421
492	0.424
492	0.426
492	0.429
493	0.431
493	0.434
494	0.438
494	0.441
495	0.443
495	0.446
496	0.449
496	0.452
496	0.456
497	0.459
497	0.462
498	0.466
498	0.469
499	0.472
499	0.476
500	0.48
500	0.484
501	0.487
501	0.49
501	0.494
502	0.497
502	0.5
503	0.504
503	0.508
504	0.511
504	0.514
505	0.518
505	0.522
506	0.525
506	0.529
506	0.533
507	0.536
507	0.54
508	0.543
508	0.547
509	0.551
509	0.554
510	0.558
510	0.562
511	0.565
511	0.569
511	0.572
512	0.576
512	0.58
513	0.583
513	0.586
514	0.589
514	0.593
515	0.596
515	0.599
515	0.602
516	0.605
516	0.609
517	0.612
517	0.614
518	0.617
518	0.619
519	0.622
519	0.624
520	0.627
520	0.629
520	0.631
521	0.633
521	0.635
522	0.637
522	0.639
523	0.641
523	0.642
524	0.643
524	0.644
524	0.644
525	0.645
525	0.645
526	0.645
526	0.646
527	0.646
527	0.646
528	0.645
528	0.645
529	0.645
529	0.645
529	0.645
530	0.644
530	0.643
531	0.642
531	0.641
532	0.64
532	0.639
533	0.638
533	0.635
533	0.633
534	0.631
534	0.628
535	0.626
535	0.623
536	0.62
536	0.617
537	0.613
537	0.61
538	0.606
538	0.603
538	0.6
539	0.597
539	0.594
540	0.59
540	0.586
541	0.582
541	0.579
542	0.575
542	0.57
542	0.566
543	0.561
543	0.556
544	0.551
544	0.547
545	0.542
545	0.538
546	0.533
546	0.528
547	0.522
547	0.518
547	0.513
548	0.509
548	0.504
549	0.499
549	0.495
550	0.49
550	0.485
551	0.479
551	0.475
551	0.47
552	0.466
552	0.461
553	0.457
553	0.452
554	0.447
554	0.442
555	0.436
555	0.432
556	0.427
556	0.421
556	0.416
557	0.411
557	0.406
558	0.401
558	0.395
559	0.389
559	0.384
560	0.379
560	0.374
560	0.369
561	0.365
561	0.359
562	0.355
562	0.35
563	0.345
563	0.341
564	0.337
564	0.332
564	0.328
565	0.324
565	0.32
566	0.315
566	0.311
567	0.306
567	0.302
568	0.297
568	0.293
568	0.288
569	0.284
569	0.279
570	0.274
570	0.27
571	0.267
571	0.263
572	0.259
572	0.255
573	0.251
573	0.248
573	0.244
574	0.241
574	0.238
575	0.235
575	0.232
576	0.229
576	0.225
577	0.221
577	0.219
577	0.216
578	0.214
578	0.211
579	0.209
579	0.206
580	0.202
580	0.198
581	0.195
581	0.192
581	0.19
582	0.188
582	0.186
583	0.184
583	0.181
584	0.178
584	0.174
585	0.173
585	0.171
585	0.169
586	0.167
586	0.165
587	0.163
587	0.161
588	0.158
588	0.156
589	0.154
589	0.153
590	0.151
590	0.149
590	0.148
591	0.146
591	0.143
592	0.141
592	0.139
593	0.137
593	0.136
594	0.134
594	0.132
594	0.131
595	0.13
595	0.128
596	0.127
596	0.126
597	0.126
597	0.124
598	0.122
598	0.121
598	0.119
599	0.118
599	0.116
600	0.114
600	0.112
601	0.111
601	0.109
602	0.107
602	0.106
602	0.104
603	0.104
603	0.103
604	0.103
604	0.102
605	0.102
605	0.102
606	0.1
606	0.099
606	0.098
607	0.097
607	0.096
608	0.094
608	0.092
609	0.091
609	0.091
610	0.089
610	0.088
610	0.088
611	0.088
611	0.088
612	0.089
612	0.089
613	0.089
613	0.089
614	0.087
614	0.086
614	0.085
615	0.084
615	0.083
616	0.082
616	0.08
617	0.079
617	0.077
618	0.076
618	0.076
618	0.075
619	0.075
619	0.076
620	0.076
620	0.075
621	0.075
621	0.074
622	0.074
622	0.074
622	0.073
623	0.072
623	0.073
624	0.072
624	0.071
625	0.071
625	0.071
626	0.07
626	0.07
626	0.07
627	0.07
627	0.069
628	0.069
628	0.069
629	0.068
629	0.067
630	0.067
630	0.066
630	0.066
631	0.065
631	0.064
632	0.064
632	0.063
633	0.063
633	0.062
634	0.062
634	0.062
634	0.061
635	0.06
635	0.059
636	0.058
636	0.058
637	0.057
637	0.056
638	0.055
638	0.054
638	0.053
639	0.051
639	0.05
640	0.049
640	0.049
641	0.048
641	0.047
642	0.046
642	0.045
642	0.044
643	0.043
643	0.042
644	0.04
644	0.039
645	0.037
645	0.036
646	0.034
646	0.032
646	0.03
647	0.028
647	0.026
648	0.024
648	0.021
649	0.019
649	0.016
650	0.013
650	0.009
650	0.004
651	-0
651	-0.005
652	-0.011
652	-0.016
653	-0.021
653	-0.026
653	-0.025
654	-0.023
654	-0.027
655	-0.031
655	-0.035
656	-0.039
656	-0.044
657	-0.048
657	-0.05
657	-0.055
658	-0.06
658	-0.076
659	-0.114
659	-0.152
660	-0.174
660	-0.189
661	-0.203
661	-0.22
661	-0.238
662	-0.254
662	-0.269
663	-0.285
663	-0.303
664	-0.318
664	-0.342
665	-0.358
665	-0.382
665	-0.403
666	-0.421
666	-0.445
667	-0.469
667	-0.496
668	-0.529
668	-0.568
669	-0.606
669	-0.641
669	-0.675
670	-0.681
670	-0.674
671	-0.893
671	-1.363
672	-1.855
672	-2.166
672	-2.345
673	-2.399
673	-2.418
674	-2.435
674	-2.449
675	-2.474
675	-2.619
676	-2.827
676	-2.799
676	-2.52
677	-2.174
677	-1.653
678	-1.109
678	-0.882
679	-0.796
679	-0.751
680	-0.726
680	-0.7
680	-0.682
681	-0.683
681	-0.665
682	-0.665
682	-0.658
683	-0.65
683	-0.666
684	-0.674
684	-0.682
684	-0.683
685	-0.683
685	-0.682
686	-0.673
686	-0.673
687	-0.664
687	-0.669
687	-0.663
688	-0.649
688	-0.642
689	-0.631
689	-0.626
690	-0.614
690	-0.611
691	-0.613
691	-0.627
691	-0.649
692	-0.647
692	-0.646
693	-0.648
693	-0.661
694	-0.662
694	-0.661
695	-0.671
695	-0.67
695	-0.661
696	-0.661
696	-0.642
697	-0.646
697	-0.665
698	-0.67
698	-0.661
698	-0.678
699	-0.684
699	-0.683
700	-0.68
700	-0.695
701	-0.696
701	-0.704
702	-0.707
702	-0.697
702	-0.692
703	-0.687
703	-0.679
704	-0.677
704	-0.678
705	-0.691
705	-0.687
705	-0.678
706	-0.68
706	-0.675
707	-0.681
707	-0.676
708	-0.676
708	-0.669
709	-0.676
709	-0.678
709	-0.67
710	-0.679
710	-0.689
711	-0.681
711	-0.684
712	-0.684
712	-0.7
713	-0.699
713	-0.706
713	-0.694
714	-0.694
714	-0.695
715	-0.684
715	-0.674
716	-0.682
716	-0.685
716	-0.679
717	-0.679
717	-0.684
718	-0.677
718	-0.677
719	-0.684
719	-0.686
720	-0.682
720	-0.691
720	-0.684
721	-0.673
721	-0.675
722	-0.665
722	-0.654
723	-0.654
723	-0.66
723	-0.647
724	-0.652
724	-0.656
725	-0.655
725	-0.664
726	-0.677
726	-0.682
727	-0.687
727	-0.702
727	-0.708
728	-0.71
728	-0.716
729	-0.715
729	-0.723
730	-0.73
730	-0.722
730	-0.715
731	-0.698
731	-0.709
732	-0.712
732	-0.712
733	-0.712
733	-0.718
734	-0.713
734	-0.714
734	-0.7
735	-0.702
735	-0.702
736	-0.713
736	-0.7
737	-0.694
737	-0.696
737	-0.704
738	-0.698
738	-0.697
739	-0.695
739	-0.708
740	-0.705
740	-0.705
741	-0.699
741	-0.7
741	-0.703
742	-0.702
742	-0.703
743	-0.712
743	-0.718
744	-0.715
744	-0.706
744	-0.708
745	-0.716
745	-0.71
746	-0.71
746	-0.705
747	-0.706
747	-0.694
748	-0.683
748	-0.688
748	-0.69
749	-0.689
749	-0.693
750	-0.682
750	-0.683
751	-0.686
751	-0.698
751	-0.7
752	-0.707
752	-0.717
753	-0.711
753	-0.706
754	-0.712
754	-0.704
754	-0.718
755	-0.735
755	-0.747
756	-0.735
756	-0.73
757	-0.726
757	-0.72
758	-0.722
758	-0.72
758	-0.722
759	-0.728
759	-0.713
760	-0.706
760	-0.701
761	-0.711
761	-0.712
761	-0.712
762	-0.719
762	-0.721
763	-0.729
763	-0.726
764	-0.725
764	-0.732
764	-0.736
765	-0.727
765	-0.714
766	-0.721
766	-0.729
767	-0.747
767	-0.74
768	-0.731
768	-0.739
768	-0.744
769	-0.761
769	-0.763
770	-0.765
770	-0.778
771	-0.775
771	-0.778
771	-0.778
772	-0.782
772	-0.781
773	-0.784
773	-0.778
774	-0.776
774	-0.776
775	-0.781
775	-0.776
775	-0.783
776	-0.779
776	-0.766
777	-0.774
777	-0.793
778	-0.79
778	-0.809
778	-0.796
779	-0.819
779	-0.827
780	-0.839
780	-0.836
781	-0.85
781	-0.847
781	-0.861
782	-0.861
782	-0.863
783	-0.849
783	-0.846
784	-0.824
784	-0.815
784	-0.825
785	-0.833
785	-0.82
786	-0.826
786	-0.807
787	-0.793
787	-0.793
788	-0.799
788	-0.811
788	-0.825
789	-0.826
789	-0.809
790	-0.791
790	-0.794
791	-0.795
791	-0.809
791	-0.82
792	-0.815
792	-0.79
793	-0.781
793	-0.756
794	-0.759
794	-0.75
794	-0.761
795	-0.757
795	-0.748
796	-0.732
796	-0.737
797	-0.731
797	-0.744
797	-0.748
798	-0.762
798	-0.756
799	-0.767
799	-0.75
800	-0.758
800	-0.751
801	-0.757
801	-0.743
801	-0.754
802	-0.765
802	-0.766
803	-0.769
803	-0.777
804	-0.771
804	-0.783
804	-0.768
805	-0.775
805	-0.763
806	-0.767
806	-0.752
807	-0.75
807	-0.732
807	-0.72
808	-0.712
808	-0.707
809	-0.694
809	-0.705
810	-0.702
810	-0.695
810	-0.692
811	-0.699
811	-0.689
812	-0.691
812	-0.695
813	-0.699
813	-0.694
813	-0.697
814	-0.698
814	-0.702
815	-0.707
815	-0.709
816	-0.701
816	-0.707
817	-0.713
817	-0.731
817	-0.747
818	-0.755
818	-0.759
819	-0.752
819	-0.751
820	-0.761
820	-0.759
820	-0.771
821	-0.769
821	-0.757
822	-0.726
822	-0.701
823	-0.697
823	-0.701
823	-0.698
824	-0.693
824	-0.695
825	-0.686
825	-0.666
826	-0.661
826	-0.668
826	-0.676
827	-0.672
827	-0.67
828	-0.649
828	-0.648
829	-0.64
829	-0.627
829	-0.621
830	-0.631
830	-0.629
831	-0.623
831	-0.616
832	-0.616
832	-0.606
832	-0.615
833	-0.61
833	-0.61
834	-0.607
834	-0.615
835	-0.603
835	-0.598
835	-0.591
836	-0.589
836	-0.585
837	-0.583
837	-0.571
838	-0.563
838	-0.553
839	-0.539
839	-0.527
839	-0.519
840	-0.507
840	-0.504
841	-0.49
841	-0.48
842	-0.475
842	-0.467
842	-0.462
843	-0.456
843	-0.453
844	-0.444
844	-0.437
845	-0.432
845	-0.422
845	-0.412
846	-0.403
846	-0.388
847	-0.378
847	-0.367
848	-0.356
848	-0.346
848	-0.331
849	-0.321
849	-0.31
850	-0.296
850	-0.29
851	-0.283
851	-0.274
851	-0.267
852	-0.252
852	-0.24
853	-0.231
853	-0.227
854	-0.217
854	-0.206
854	-0.198
855	-0.187
855	-0.182
856	-0.172
856	-0.164
857	-0.16
857	-0.152
857	-0.143
858	-0.133
858	-0.127
859	-0.12
859	-0.11
860	-0.103
860	-0.091
860	-0.084
861	-0.077
861	-0.07
862	-0.065
862	-0.059
863	-0.053
863	-0.045
863	-0.04
864	-0.036
864	-0.031
865	-0.027
865	-0.023
866	-0.019
866	-0.016
866	-0.013
867	-0.01
867	-0.007
868	-0.005
868	-0.002
869	0
869	0.002
869	0.003
870	0.005
870	0.007
871	0.01
871	0.012
872	0.013
872	0.014
872	0.015
873	0.016
873	0.016
874	0.016
874	0.015
875	0.015
875	0.014
875	0.013
876	0.012
876	0.011
877	0.01
877	0.009
878	0.008
878	0.006
878	0.005
879	0.004
879	0.003
880	0.003
880	0.003
881	0.002
881	0.003
881	0.003
882	0.002
882	0.001
883	0
883	-0.001
884	-0.002
884	-0.003
884	-0.003
885	-0.004
885	-0.004
886	-0.005
886	-0.005
887	-0.005
887	-0.005
887	-0.005
888	-0.004
888	-0.004
889	-0.003
889	-0.003
890	-0.002
890	-0.002
890	-0.003
891	-0.003
891	-0.003
892	-0.002
892	-0.002
893	-0.002
893	-0.002
893	-0.002
894	-0.002
894	-0.002
895	-0.003
895	-0.003
895	-0.003
896	-0.003
896	-0.004
897	-0.005
897	-0.006
898	-0.007
898	-0.008
898	-0.008
899	-0.008
899	-0.007
900	-0.007
900	-0.007
901	-0.006
901	-0.006
901	-0.005
902	-0.004
902	-0.003
903	-0.003
903	-0.002
904	-0.001
904	-0.001
904	0
905	0.001
905	0.002
906	0.002
906	0.002
907	0.002
907	0.001
907	0.001
908	0.001
908	0
909	-0.001
909	-0.001
910	-0.002
910	-0.002
910	-0.002
911	-0.001
911	-0
912	0
912	0.001
913	0.002
913	0.003
913	0.004
914	0.005
914	0.006
915	0.007
915	0.008
916	0.009
916	0.009
916	0.009
917	0.01
917	0.01
918	0.01
918	0.01
918	0.01
919	0.009
919	0.009
920	0.009
920	0.009
921	0.009
921	0.009
921	0.009
922	0.009
922	0.009
923	0.009
923	0.008
924	0.008
924	0.008
924	0.007
925	0.006
925	0.005
926	0.005
926	0.004
927	0.003
927	0.003
927	0.002
928	0.002
928	0.001
929	0.001
929	0
930	-0
930	-0.001
930	-0.001
931	-0.002
931	-0.002
932	-0.003
932	-0.004
933	-0.005
933	-0.006
933	-0.007
934	-0.008
934	-0.009
935	-0.01
935	-0.01
935	-0.011
936	-0.012
936	-0.013
937	-0.013
937	-0.014
938	-0.014
938	-0.014
938	-0.013
939	-0.013
939	-0.012
940	-0.012
940	-0.011
941	-0.01
941	-0.01
941	-0.009
942	-0.008
942	-0.008
943	-0.007
943	-0.007
944	-0.007
944	-0.008
944	-0.008
945	-0.009
945	-0.01
946	-0.011
946	-0.012
946	-0.012
947	-0.013
947	-0.013
948	-0.013
948	-0.013
949	-0.013
949	-0.012
949	-0.012
950	-0.011
950	-0.011
951	-0.01
951	-0.009
952	-0.008
952	-0.007
952	-0.006
953	-0.005
953	-0.004
954	-0.003
954	-0.002
955	-0.001
955	0
955	0.001
956	0.002
956	0.003
957	0.003
957	0.003
957	0.004
958	0.004
958	0.005
959	0.005
959	0.005
960	0.005
960	0.005
960	0.006
961	0.006
961	0.006
962	0.006
962	0.006
963	0.006
963	0.006
963	0.006
964	0.006
964	0.006
965	0.006
965	0.006
966	0.006
966	0.006
966	0.006
967	0.005
967	0.005
968	0.004
968	0.004
968	0.003
969	0.003
969	0.002
970	0.002
970	0.002
971	0.002
971	0.002
971	0.002
972	0.003
972	0.003
973	0.003
973	0.003
974	0.003
974	0.004
974	0.004
975	0.004
975	0.003
976	0.003
976	0.002
976	0.002
977	0.002
977	0.002
978	0.002
978	0.002
979	0.002
979	0.002
979	0.002
980	0.002
980	0.002
981	0.002
981	0.003
982	0.002
982	0.002
982	0.002
983	0.001
983	0.001
984	0.001
984	0.001
984	0.001
985	0.001
985	0.001
986	0
986	-0
987	-0.001
987	-0.001
987	-0.001
988	-0.002
988	-0.002
989	-0.003
989	-0.004
990	-0.005
990	-0.006
990	-0.006
991	-0.006
991	-0.007
992	-0.007
992	-0.007
992	-0.008
993	-0.008
993	-0.008
994	-0.008
994	-0.008
995	-0.008
995	-0.008
995	-0.009
996	-0.009
996	-0.01
997	-0.011
997	-0.01
997	-0.011
998	-0.011
998	-0.011
999	-0.01
999	-0.01
1000	-0.01
1000	-0.01
1000	-0.01
1001	-0.009
1001	-0.008
1002	-0.008
1002	-0.008
1003	-0.007
1003	-0.007
1003	-0.007
1004	-0.007
1004	-0.008
1005	-0.008
1005	-0.009
1005	-0.01
1006	-0.011
1006	-0.012
1007	-0.013
1007	-0.014
1008	-0.014
1008	-0.015
1008	-0.016
1009	-0.016
1009	-0.016
1010	-0.016
1010	-0.016
1010	-0.015
1011	-0.015
1011	-0.015
1012	-0.015
1012	-0.016
1013	-0.016
1013	-0.017
1013	-0.018
1014	-0.018
1014	-0.019
1015	-0.019
1015	-0.02
1016	-0.021
1016	-0.022
1016	-0.022
1017	-0.023
1017	-0.024
1018	-0.025
1018	-0.025
1018	-0.026
1019	-0.026
1019	-0.027
1020	-0.028
1020	-0.028
1021	-0.029
1021	-0.029
1021	-0.03
1022	-0.03
1022	-0.031
1023	-0.031
1023	-0.031
1023	-0.031
1024	-0.032
1024	-0.032
1025	-0.032
1025	-0.032
1026	-0.031
1026	-0.031
1026	-0.031
1027	-0.03
1027	-0.03
1028	-0.03
1028	-0.029
1028	-0.029
1029	-0.029
1029	-0.029
1030	-0.03
1030	-0.03
1031	-0.031
1031	-0.031
1031	-0.031
1032	-0.031
1032	-0.031
1033	-0.031
1033	-0.031
1033	-0.031
1034	-0.031
1034	-0.031
1035	-0.031
1035	-0.031
1036	-0.031
1036	-0.031
1036	-0.031
1037	-0.031
1037	-0.031
1038	-0.031
1038	-0.03
1039	-0.03
1039	-0.03
1039	-0.029
1040	-0.029
1040	-0.028
1041	-0.027
1041	-0.027
1041	-0.027
1042	-0.027
1042	-0.027
1043	-0.027
1043	-0.028
1044	-0.028
1044	-0.029
1044	-0.029
1045	-0.031
1045	-0.031
1046	-0.032
1046	-0.033
1046	-0.033
1047	-0.033
1047	-0.033
1048	-0.032
1048	-0.032
1049	-0.032
1049	-0.032
1049	-0.031
1050	-0.031
1050	-0.031
1051	-0.031
1051	-0.03
1051	-0.03
1052	-0.03
1052	-0.03
1053	-0.029
1053	-0.029
1053	-0.029
1054	-0.029
1054	-0.029
1055	-0.029
1055	-0.029
1056	-0.029
1056	-0.03
1056	-0.031
1057	-0.032
1057	-0.032
1058	-0.033
1058	-0.033
1058	-0.033
1059	-0.034
1059	-0.035
1060	-0.035
1060	-0.036
1061	-0.036
1061	-0.036
1061	-0.036
1062	-0.036
1062	-0.037
1063	-0.037
1063	-0.037
1063	-0.037
1064	-0.036
1064	-0.036
1065	-0.036
1065	-0.037
1066	-0.037
1066	-0.037
1066	-0.037
1067	-0.036
1067	-0.036
1068	-0.037
1068	-0.038
1068	-0.038
1069	-0.038
1069	-0.039
1070	-0.039
1070	-0.039
1071	-0.039
1071	-0.039
1071	-0.04
1072	-0.04
1072	-0.04
1073	-0.041
1073	-0.041
1073	-0.041
1074	-0.041
1074	-0.041
1075	-0.041
1075	-0.042
1076	-0.043
1076	-0.043
1076	-0.043
1077	-0.044
1077	-0.044
1078	-0.045
1078	-0.045
1078	-0.046
1079	-0.047
1079	-0.047
1080	-0.047
1080	-0.048
1080	-0.048
1081	-0.049
1081	-0.049
1082	-0.05
1082	-0.051
1083	-0.052
1083	-0.052
1083	-0.053
1084	-0.054
1084	-0.055
1085	-0.056
1085	-0.056
1085	-0.057
1086	-0.057
1086	-0.058
1087	-0.058
1087	-0.058
1088	-0.058
1088	-0.059
1088	-0.059
1089	-0.06
1089	-0.061
1090	-0.062
1090	-0.063
1090	-0.064
1091	-0.065
1091	-0.065
1092	-0.066
1092	-0.066
1092	-0.067
1093	-0.067
1093	-0.066
1094	-0.066
1094	-0.066
1095	-0.067
1095	-0.068
1095	-0.068
1096	-0.07
1096	-0.071
1097	-0.071
1097	-0.072
1097	-0.072
1098	-0.074
1098	-0.076
1099	-0.077
1099	-0.077
1100	-0.078
1100	-0.079
1100	-0.081
1101	-0.083
1101	-0.086
1102	-0.087
1102	-0.089
1102	-0.091
1103	-0.093
1103	-0.095
1104	-0.097
1104	-0.099
1104	-0.102
1105	-0.103
1105	-0.105
1106	-0.108
1106	-0.111
1107	-0.115
1107	-0.119
1107	-0.123
1108	-0.125
1108	-0.126
1109	-0.13
1109	-0.134
1109	-0.136
1110	-0.138
1110	-0.141
1111	-0.145
1111	-0.146
