Data from 17C_3.1A_35min_2sec_int_Absorbance__324__02727.txt Node

Date: Mon Jun 19 18:28:19 CEST 2023
User: Marek
Spectrometer: MAYP115816
Trigger mode: 0
Integration Time (sec): 2.500000E-1
Scans to average: 10
Electric dark correction enabled: true
Nonlinearity correction enabled: true
Boxcar width: 5
XAxis mode: Wavelengths
Number of Pixels in Spectrum: 2068
>>>>>Begin Spectral Data<<<<<
199	-0.771
199	-0.782
200	-0.68
200	-0.623
201	-0.585
201	-0.574
202	-0.556
202	-0.541
203	-0.532
203	-0.527
204	-0.514
204	-0.496
205	-0.47
205	-0.465
205	-0.464
206	-0.466
206	-0.467
207	-0.458
207	-0.461
208	-0.463
208	-0.462
209	-0.456
209	-0.459
210	-0.465
210	-0.471
211	-0.473
211	-0.474
212	-0.477
212	-0.484
213	-0.481
213	-0.481
213	-0.486
214	-0.484
214	-0.482
215	-0.481
215	-0.487
216	-0.49
216	-0.499
217	-0.495
217	-0.501
218	-0.504
218	-0.504
219	-0.508
219	-0.518
220	-0.525
220	-0.536
221	-0.534
221	-0.536
221	-0.529
222	-0.524
222	-0.525
223	-0.527
223	-0.531
224	-0.534
224	-0.534
225	-0.527
225	-0.52
226	-0.526
226	-0.528
227	-0.533
227	-0.544
228	-0.543
228	-0.546
229	-0.546
229	-0.541
229	-0.535
230	-0.538
230	-0.541
231	-0.534
231	-0.526
232	-0.521
232	-0.519
233	-0.513
233	-0.514
234	-0.512
234	-0.508
235	-0.511
235	-0.517
236	-0.516
236	-0.519
236	-0.526
237	-0.534
237	-0.534
238	-0.544
238	-0.539
239	-0.542
239	-0.551
240	-0.552
240	-0.55
241	-0.557
241	-0.556
242	-0.559
242	-0.553
243	-0.551
243	-0.55
243	-0.561
244	-0.558
244	-0.558
245	-0.572
245	-0.572
246	-0.576
246	-0.583
247	-0.584
247	-0.59
248	-0.594
248	-0.592
249	-0.592
249	-0.6
250	-0.598
250	-0.592
250	-0.59
251	-0.585
251	-0.583
252	-0.585
252	-0.574
253	-0.582
253	-0.595
254	-0.593
254	-0.593
255	-0.601
255	-0.594
256	-0.593
256	-0.606
257	-0.604
257	-0.604
258	-0.621
258	-0.615
258	-0.61
259	-0.606
259	-0.613
260	-0.614
260	-0.62
261	-0.633
261	-0.623
262	-0.621
262	-0.62
263	-0.609
263	-0.604
264	-0.605
264	-0.615
265	-0.611
265	-0.616
265	-0.619
266	-0.614
266	-0.613
267	-0.624
267	-0.632
268	-0.646
268	-0.657
269	-0.655
269	-0.648
270	-0.652
270	-0.658
271	-0.658
271	-0.665
272	-0.67
272	-0.665
272	-0.657
273	-0.657
273	-0.667
274	-0.673
274	-0.677
275	-0.679
275	-0.672
276	-0.679
276	-0.671
277	-0.675
277	-0.694
278	-0.703
278	-0.698
278	-0.693
279	-0.696
279	-0.706
280	-0.704
280	-0.705
281	-0.698
281	-0.706
282	-0.701
282	-0.7
283	-0.694
283	-0.694
284	-0.686
284	-0.674
285	-0.67
285	-0.669
285	-0.666
286	-0.673
286	-0.668
287	-0.663
287	-0.647
288	-0.638
288	-0.646
289	-0.658
289	-0.67
290	-0.66
290	-0.657
291	-0.654
291	-0.648
292	-0.649
292	-0.656
292	-0.659
293	-0.666
293	-0.655
294	-0.644
294	-0.632
295	-0.629
295	-0.626
296	-0.623
296	-0.622
297	-0.615
297	-0.599
298	-0.59
298	-0.596
298	-0.585
299	-0.578
299	-0.58
300	-0.576
300	-0.573
301	-0.566
301	-0.564
302	-0.572
302	-0.583
303	-0.574
303	-0.561
304	-0.563
304	-0.56
305	-0.562
305	-0.56
305	-0.559
306	-0.546
306	-0.54
307	-0.527
307	-0.528
308	-0.539
308	-0.537
309	-0.539
309	-0.531
310	-0.518
310	-0.516
311	-0.506
311	-0.513
311	-0.509
312	-0.505
312	-0.501
313	-0.486
313	-0.489
314	-0.487
314	-0.489
315	-0.492
315	-0.49
316	-0.487
316	-0.478
317	-0.47
317	-0.467
318	-0.458
318	-0.455
318	-0.451
319	-0.441
319	-0.437
320	-0.427
320	-0.428
321	-0.432
321	-0.432
322	-0.427
322	-0.421
323	-0.421
323	-0.416
324	-0.408
324	-0.4
324	-0.39
325	-0.38
325	-0.363
326	-0.35
326	-0.333
327	-0.317
327	-0.297
328	-0.268
328	-0.249
329	-0.226
329	-0.201
330	-0.174
330	-0.141
330	-0.114
331	-0.083
331	-0.055
332	-0.028
332	-0.004
333	0.017
333	0.042
334	0.063
334	0.081
335	0.098
335	0.114
336	0.128
336	0.141
336	0.151
337	0.162
337	0.172
338	0.181
338	0.187
339	0.195
339	0.201
340	0.206
340	0.211
341	0.215
341	0.218
342	0.223
342	0.226
342	0.229
343	0.231
343	0.235
344	0.236
344	0.237
345	0.239
345	0.24
346	0.241
346	0.241
347	0.242
347	0.243
348	0.243
348	0.244
348	0.244
349	0.244
349	0.245
350	0.245
350	0.245
351	0.245
351	0.245
352	0.245
352	0.245
353	0.246
353	0.246
354	0.245
354	0.245
354	0.245
355	0.245
355	0.245
356	0.245
356	0.245
357	0.244
357	0.243
358	0.243
358	0.243
359	0.243
359	0.243
360	0.242
360	0.242
360	0.242
361	0.242
361	0.242
362	0.242
362	0.242
363	0.242
363	0.242
364	0.242
364	0.242
365	0.242
365	0.242
366	0.242
366	0.242
366	0.242
367	0.243
367	0.243
368	0.243
368	0.242
369	0.242
369	0.242
370	0.242
370	0.242
371	0.242
371	0.242
372	0.241
372	0.241
372	0.242
373	0.242
373	0.242
374	0.242
374	0.242
375	0.242
375	0.242
376	0.242
376	0.242
377	0.242
377	0.242
378	0.241
378	0.241
378	0.241
379	0.241
379	0.241
380	0.241
380	0.241
381	0.24
381	0.24
382	0.24
382	0.24
383	0.239
383	0.239
383	0.239
384	0.239
384	0.239
385	0.239
385	0.239
386	0.239
386	0.239
387	0.239
387	0.239
388	0.239
388	0.239
389	0.239
389	0.239
389	0.239
390	0.239
390	0.239
391	0.239
391	0.239
392	0.239
392	0.239
393	0.239
393	0.238
394	0.238
394	0.238
394	0.238
395	0.238
395	0.237
396	0.237
396	0.237
397	0.237
397	0.237
398	0.237
398	0.237
399	0.237
399	0.237
400	0.237
400	0.237
400	0.237
401	0.237
401	0.236
402	0.236
402	0.236
403	0.235
403	0.235
404	0.235
404	0.235
405	0.235
405	0.235
405	0.234
406	0.234
406	0.234
407	0.234
407	0.234
408	0.234
408	0.234
409	0.234
409	0.234
410	0.234
410	0.234
411	0.235
411	0.235
411	0.235
412	0.235
412	0.234
413	0.234
413	0.234
414	0.234
414	0.234
415	0.233
415	0.233
416	0.233
416	0.233
416	0.233
417	0.233
417	0.233
418	0.233
418	0.233
419	0.233
419	0.233
420	0.233
420	0.233
421	0.233
421	0.233
421	0.233
422	0.233
422	0.233
423	0.233
423	0.232
424	0.232
424	0.231
425	0.231
425	0.231
426	0.231
426	0.23
427	0.23
427	0.23
427	0.23
428	0.23
428	0.23
429	0.23
429	0.23
430	0.23
430	0.229
431	0.229
431	0.229
432	0.229
432	0.228
432	0.228
433	0.228
433	0.228
434	0.228
434	0.228
435	0.228
435	0.228
436	0.228
436	0.228
437	0.228
437	0.228
437	0.228
438	0.228
438	0.228
439	0.228
439	0.227
440	0.227
440	0.227
441	0.227
441	0.227
442	0.227
442	0.227
442	0.227
443	0.227
443	0.226
444	0.226
444	0.226
445	0.226
445	0.226
446	0.227
446	0.227
447	0.227
447	0.227
447	0.227
448	0.227
448	0.227
449	0.227
449	0.227
450	0.227
450	0.227
451	0.227
451	0.227
452	0.227
452	0.227
452	0.227
453	0.226
453	0.226
454	0.226
454	0.226
455	0.226
455	0.226
456	0.225
456	0.225
457	0.225
457	0.225
458	0.225
458	0.225
458	0.225
459	0.225
459	0.225
460	0.225
460	0.225
461	0.225
461	0.225
462	0.225
462	0.225
463	0.225
463	0.225
463	0.225
464	0.225
464	0.225
465	0.225
465	0.225
466	0.226
466	0.226
467	0.226
467	0.226
467	0.226
468	0.225
468	0.225
469	0.226
469	0.226
470	0.226
470	0.226
471	0.226
471	0.226
472	0.227
472	0.227
472	0.227
473	0.227
473	0.228
474	0.228
474	0.228
475	0.228
475	0.228
476	0.228
476	0.228
477	0.229
477	0.229
477	0.229
478	0.229
478	0.229
479	0.23
479	0.23
480	0.23
480	0.23
481	0.231
481	0.231
482	0.232
482	0.232
482	0.232
483	0.233
483	0.233
484	0.233
484	0.233
485	0.233
485	0.233
486	0.233
486	0.234
487	0.234
487	0.235
487	0.235
488	0.236
488	0.236
489	0.237
489	0.239
490	0.24
490	0.241
491	0.242
491	0.242
492	0.243
492	0.244
492	0.245
493	0.245
493	0.246
494	0.247
494	0.248
495	0.248
495	0.249
496	0.25
496	0.251
496	0.252
497	0.253
497	0.254
498	0.255
498	0.256
499	0.257
499	0.259
500	0.26
500	0.262
501	0.263
501	0.264
501	0.265
502	0.265
502	0.267
503	0.268
503	0.269
504	0.27
504	0.271
505	0.272
505	0.273
506	0.274
506	0.275
506	0.276
507	0.277
507	0.278
508	0.279
508	0.28
509	0.281
509	0.282
510	0.284
510	0.285
511	0.286
511	0.287
511	0.289
512	0.29
512	0.292
513	0.293
513	0.294
514	0.295
514	0.297
515	0.298
515	0.299
515	0.301
516	0.302
516	0.304
517	0.305
517	0.306
518	0.307
518	0.308
519	0.309
519	0.31
520	0.312
520	0.313
520	0.315
521	0.316
521	0.317
522	0.318
522	0.32
523	0.321
523	0.322
524	0.323
524	0.324
524	0.325
525	0.326
525	0.326
526	0.327
526	0.328
527	0.329
527	0.33
528	0.331
528	0.332
529	0.333
529	0.334
529	0.335
530	0.336
530	0.337
531	0.338
531	0.338
532	0.339
532	0.34
533	0.341
533	0.341
533	0.342
534	0.342
534	0.343
535	0.343
535	0.344
536	0.344
536	0.344
537	0.344
537	0.345
538	0.345
538	0.346
538	0.346
539	0.347
539	0.348
540	0.348
540	0.348
541	0.349
541	0.349
542	0.35
542	0.35
542	0.35
543	0.35
543	0.35
544	0.35
544	0.35
545	0.35
545	0.351
546	0.351
546	0.351
547	0.351
547	0.351
547	0.351
548	0.352
548	0.352
549	0.352
549	0.353
550	0.353
550	0.354
551	0.354
551	0.355
551	0.356
552	0.357
552	0.357
553	0.358
553	0.359
554	0.359
554	0.359
555	0.359
555	0.359
556	0.359
556	0.359
556	0.359
557	0.359
557	0.359
558	0.358
558	0.358
559	0.358
559	0.359
560	0.359
560	0.358
560	0.359
561	0.359
561	0.359
562	0.358
562	0.358
563	0.357
563	0.358
564	0.358
564	0.358
564	0.358
565	0.359
565	0.359
566	0.359
566	0.359
567	0.36
567	0.36
568	0.36
568	0.359
568	0.359
569	0.359
569	0.358
570	0.357
570	0.356
571	0.356
571	0.356
572	0.355
572	0.355
573	0.355
573	0.354
573	0.354
574	0.354
574	0.354
575	0.355
575	0.356
576	0.356
576	0.355
577	0.355
577	0.355
577	0.356
578	0.356
578	0.357
579	0.357
579	0.357
580	0.356
580	0.355
581	0.354
581	0.355
581	0.355
582	0.355
582	0.355
583	0.355
583	0.355
584	0.354
584	0.353
585	0.355
585	0.355
585	0.355
586	0.355
586	0.355
587	0.355
587	0.354
588	0.354
588	0.354
589	0.354
589	0.354
590	0.353
590	0.354
590	0.354
591	0.354
591	0.354
592	0.353
592	0.353
593	0.353
593	0.353
594	0.352
594	0.352
594	0.352
595	0.352
595	0.351
596	0.351
596	0.352
597	0.353
597	0.353
598	0.353
598	0.352
598	0.352
599	0.351
599	0.35
600	0.349
600	0.349
601	0.348
601	0.347
602	0.346
602	0.345
602	0.345
603	0.345
603	0.346
604	0.346
604	0.347
605	0.347
605	0.348
606	0.347
606	0.346
606	0.346
607	0.345
607	0.345
608	0.344
608	0.342
609	0.342
609	0.342
610	0.341
610	0.341
610	0.341
611	0.342
611	0.342
612	0.343
612	0.344
613	0.344
613	0.345
614	0.344
614	0.342
614	0.342
615	0.341
615	0.34
616	0.339
616	0.338
617	0.336
617	0.335
618	0.334
618	0.333
618	0.332
619	0.332
619	0.332
620	0.332
620	0.332
621	0.331
621	0.331
622	0.33
622	0.329
622	0.328
623	0.327
623	0.327
624	0.326
624	0.325
625	0.324
625	0.323
626	0.322
626	0.321
626	0.32
627	0.319
627	0.318
628	0.316
628	0.315
629	0.313
629	0.311
630	0.308
630	0.306
630	0.304
631	0.301
631	0.298
632	0.295
632	0.292
633	0.289
633	0.285
634	0.282
634	0.278
634	0.275
635	0.271
635	0.267
636	0.263
636	0.258
637	0.254
637	0.249
638	0.244
638	0.238
638	0.233
639	0.227
639	0.22
640	0.214
640	0.208
641	0.201
641	0.195
642	0.189
642	0.183
642	0.176
643	0.169
643	0.162
644	0.155
644	0.147
645	0.139
645	0.131
646	0.124
646	0.115
646	0.107
647	0.098
647	0.09
648	0.082
648	0.073
649	0.064
649	0.055
650	0.046
650	0.037
650	0.027
651	0.015
651	0.001
652	-0.016
652	-0.033
653	-0.048
653	-0.061
653	-0.058
654	-0.035
654	-0.022
655	-0.025
655	-0.03
656	-0.036
656	-0.042
657	-0.046
657	-0.05
657	-0.057
658	-0.063
658	-0.094
659	-0.185
659	-0.292
660	-0.339
660	-0.367
661	-0.396
661	-0.429
661	-0.464
662	-0.498
662	-0.533
663	-0.574
663	-0.618
664	-0.663
664	-0.715
665	-0.768
665	-0.827
665	-0.884
666	-0.941
666	-1.003
667	-1.068
667	-1.134
668	-1.207
668	-1.28
669	-1.355
669	-1.43
669	-1.51
670	-1.586
670	-1.654
671	-1.859
671	-2.067
672	-2.267
672	-2.442
672	-2.562
673	-2.647
673	-2.722
674	-2.761
674	-2.779
675	-2.803
675	-2.938
676	-3.115
676	-3.067
676	-2.843
677	-2.638
677	-2.475
678	-2.298
678	-1.995
679	-1.728
679	-1.597
680	-1.504
680	-1.422
680	-1.353
681	-1.31
681	-1.251
682	-1.213
682	-1.176
683	-1.141
683	-1.125
684	-1.105
684	-1.086
684	-1.064
685	-1.041
685	-1.019
686	-0.994
686	-0.979
687	-0.953
687	-0.941
687	-0.922
688	-0.896
688	-0.877
689	-0.858
689	-0.846
690	-0.826
690	-0.814
691	-0.809
691	-0.813
691	-0.829
692	-0.82
692	-0.812
693	-0.808
693	-0.815
694	-0.811
694	-0.803
695	-0.808
695	-0.805
695	-0.788
696	-0.785
696	-0.763
697	-0.763
697	-0.778
698	-0.78
698	-0.769
698	-0.781
699	-0.785
699	-0.783
700	-0.776
700	-0.791
701	-0.792
701	-0.8
702	-0.801
702	-0.788
702	-0.779
703	-0.773
703	-0.763
704	-0.759
704	-0.758
705	-0.768
705	-0.76
705	-0.747
706	-0.746
706	-0.742
707	-0.747
707	-0.743
708	-0.743
708	-0.736
709	-0.74
709	-0.743
709	-0.734
710	-0.744
710	-0.753
711	-0.744
711	-0.745
712	-0.744
712	-0.757
713	-0.755
713	-0.761
713	-0.752
714	-0.749
714	-0.751
715	-0.739
715	-0.728
716	-0.736
716	-0.737
716	-0.73
717	-0.732
717	-0.734
718	-0.726
718	-0.726
719	-0.733
719	-0.735
720	-0.73
720	-0.739
720	-0.732
721	-0.722
721	-0.723
722	-0.709
722	-0.7
723	-0.697
723	-0.702
723	-0.688
724	-0.691
724	-0.694
725	-0.692
725	-0.7
726	-0.713
726	-0.718
727	-0.724
727	-0.74
727	-0.748
728	-0.751
728	-0.758
729	-0.757
729	-0.763
730	-0.77
730	-0.762
730	-0.753
731	-0.735
731	-0.744
732	-0.747
732	-0.745
733	-0.741
733	-0.744
734	-0.739
734	-0.737
734	-0.723
735	-0.724
735	-0.725
736	-0.736
736	-0.723
737	-0.714
737	-0.716
737	-0.728
738	-0.723
738	-0.721
739	-0.719
739	-0.733
740	-0.729
740	-0.727
741	-0.724
741	-0.723
741	-0.728
742	-0.727
742	-0.724
743	-0.731
743	-0.737
744	-0.734
744	-0.725
744	-0.728
745	-0.736
745	-0.728
746	-0.728
746	-0.726
747	-0.727
747	-0.717
748	-0.705
748	-0.711
748	-0.714
749	-0.711
749	-0.711
750	-0.699
750	-0.7
751	-0.704
751	-0.711
751	-0.713
752	-0.715
752	-0.724
753	-0.719
753	-0.715
754	-0.721
754	-0.715
754	-0.728
755	-0.746
755	-0.759
756	-0.747
756	-0.746
757	-0.746
757	-0.743
758	-0.745
758	-0.743
758	-0.745
759	-0.753
759	-0.738
760	-0.73
760	-0.728
761	-0.74
761	-0.736
761	-0.735
762	-0.742
762	-0.741
763	-0.75
763	-0.747
764	-0.745
764	-0.751
764	-0.756
765	-0.743
765	-0.728
766	-0.735
766	-0.742
767	-0.754
767	-0.747
768	-0.737
768	-0.748
768	-0.752
769	-0.769
769	-0.767
770	-0.772
770	-0.786
771	-0.783
771	-0.786
771	-0.788
772	-0.792
772	-0.792
773	-0.792
773	-0.788
774	-0.789
774	-0.791
775	-0.794
775	-0.788
775	-0.794
776	-0.794
776	-0.783
777	-0.791
777	-0.813
778	-0.808
778	-0.828
778	-0.814
779	-0.836
779	-0.845
780	-0.859
780	-0.859
781	-0.87
781	-0.867
781	-0.883
782	-0.884
782	-0.887
783	-0.873
783	-0.872
784	-0.852
784	-0.842
784	-0.852
785	-0.859
785	-0.844
786	-0.85
786	-0.828
787	-0.811
787	-0.814
788	-0.816
788	-0.827
788	-0.837
789	-0.836
789	-0.816
790	-0.798
790	-0.801
791	-0.799
791	-0.815
791	-0.822
792	-0.815
792	-0.791
793	-0.78
793	-0.758
794	-0.764
794	-0.757
794	-0.766
795	-0.76
795	-0.753
796	-0.737
796	-0.745
797	-0.739
797	-0.754
797	-0.761
798	-0.774
798	-0.768
799	-0.779
799	-0.763
800	-0.769
800	-0.763
801	-0.768
801	-0.755
801	-0.765
802	-0.771
802	-0.772
803	-0.771
803	-0.78
804	-0.774
804	-0.786
804	-0.773
805	-0.778
805	-0.768
806	-0.768
806	-0.753
807	-0.752
807	-0.733
807	-0.722
808	-0.713
808	-0.708
809	-0.693
809	-0.703
810	-0.701
810	-0.694
810	-0.694
811	-0.701
811	-0.69
812	-0.692
812	-0.693
813	-0.699
813	-0.695
813	-0.7
814	-0.7
814	-0.703
815	-0.707
815	-0.71
816	-0.701
816	-0.707
817	-0.714
817	-0.734
817	-0.748
818	-0.754
818	-0.756
819	-0.748
819	-0.749
820	-0.758
820	-0.755
820	-0.766
821	-0.765
821	-0.752
822	-0.721
822	-0.697
823	-0.694
823	-0.698
823	-0.697
824	-0.692
824	-0.693
825	-0.686
825	-0.665
826	-0.66
826	-0.667
826	-0.677
827	-0.672
827	-0.669
828	-0.646
828	-0.645
829	-0.636
829	-0.621
829	-0.614
830	-0.624
830	-0.619
831	-0.613
831	-0.6
832	-0.599
832	-0.589
832	-0.599
833	-0.593
833	-0.593
834	-0.593
834	-0.602
835	-0.588
835	-0.583
835	-0.58
836	-0.578
836	-0.573
837	-0.572
837	-0.561
838	-0.553
838	-0.541
839	-0.527
839	-0.513
839	-0.503
840	-0.491
840	-0.484
841	-0.474
841	-0.465
842	-0.459
842	-0.449
842	-0.442
843	-0.437
843	-0.43
844	-0.421
844	-0.416
845	-0.409
845	-0.4
845	-0.386
846	-0.375
846	-0.36
847	-0.346
847	-0.333
848	-0.32
848	-0.309
848	-0.293
849	-0.28
849	-0.268
850	-0.254
850	-0.248
851	-0.238
851	-0.226
851	-0.218
852	-0.204
852	-0.19
853	-0.18
853	-0.174
854	-0.162
854	-0.149
854	-0.137
855	-0.125
855	-0.118
856	-0.107
856	-0.098
857	-0.09
857	-0.081
857	-0.069
858	-0.057
858	-0.05
859	-0.041
859	-0.03
860	-0.02
860	-0.007
860	0.003
861	0.013
861	0.021
862	0.029
862	0.037
863	0.044
863	0.053
863	0.06
864	0.065
864	0.072
865	0.078
865	0.083
866	0.088
866	0.092
866	0.096
867	0.1
867	0.104
868	0.107
868	0.11
869	0.114
869	0.116
869	0.118
870	0.12
870	0.122
871	0.125
871	0.126
872	0.127
872	0.128
872	0.128
873	0.129
873	0.129
874	0.128
874	0.128
875	0.127
875	0.126
875	0.125
876	0.124
876	0.123
877	0.122
877	0.121
878	0.119
878	0.118
878	0.117
879	0.115
879	0.115
880	0.114
880	0.114
881	0.114
881	0.114
881	0.114
882	0.113
882	0.112
883	0.11
883	0.109
884	0.108
884	0.107
884	0.106
885	0.105
885	0.105
886	0.104
886	0.104
887	0.103
887	0.103
887	0.103
888	0.104
888	0.104
889	0.104
889	0.104
890	0.104
890	0.103
890	0.103
891	0.103
891	0.103
892	0.103
892	0.103
893	0.103
893	0.103
893	0.103
894	0.103
894	0.103
895	0.103
895	0.103
895	0.103
896	0.102
896	0.101
897	0.1
897	0.099
898	0.098
898	0.097
898	0.097
899	0.096
899	0.097
900	0.097
900	0.097
901	0.098
901	0.098
901	0.099
902	0.1
902	0.101
903	0.102
903	0.102
904	0.103
904	0.103
904	0.104
905	0.104
905	0.104
906	0.105
906	0.104
907	0.104
907	0.104
907	0.103
908	0.103
908	0.102
909	0.101
909	0.1
910	0.099
910	0.099
910	0.098
911	0.099
911	0.099
912	0.1
912	0.101
913	0.101
913	0.102
913	0.104
914	0.105
914	0.105
915	0.106
915	0.107
916	0.107
916	0.108
916	0.108
917	0.108
917	0.108
918	0.108
918	0.108
918	0.107
919	0.107
919	0.106
920	0.106
920	0.106
921	0.106
921	0.106
921	0.105
922	0.105
922	0.105
923	0.104
923	0.104
924	0.103
924	0.103
924	0.102
925	0.101
925	0.1
926	0.099
926	0.098
927	0.097
927	0.096
927	0.096
928	0.095
928	0.095
929	0.094
929	0.094
930	0.093
930	0.092
930	0.091
931	0.09
931	0.09
932	0.089
932	0.088
933	0.087
933	0.086
933	0.085
934	0.084
934	0.083
935	0.082
935	0.081
935	0.081
936	0.08
936	0.079
937	0.078
937	0.077
938	0.077
938	0.077
938	0.077
939	0.078
939	0.078
940	0.078
940	0.078
941	0.078
941	0.079
941	0.08
942	0.08
942	0.08
943	0.08
943	0.08
944	0.079
944	0.079
944	0.078
945	0.078
945	0.077
946	0.076
946	0.074
946	0.074
947	0.073
947	0.072
948	0.072
948	0.072
949	0.072
949	0.072
949	0.072
950	0.073
950	0.073
951	0.074
951	0.075
952	0.075
952	0.076
952	0.077
953	0.078
953	0.08
954	0.08
954	0.081
955	0.082
955	0.083
955	0.084
956	0.084
956	0.085
957	0.084
957	0.085
957	0.084
958	0.085
958	0.086
959	0.086
959	0.086
960	0.086
960	0.086
960	0.087
961	0.086
961	0.087
962	0.087
962	0.087
963	0.087
963	0.086
963	0.086
964	0.086
964	0.086
965	0.086
965	0.086
966	0.086
966	0.085
966	0.085
967	0.085
967	0.084
968	0.084
968	0.083
968	0.083
969	0.082
969	0.082
970	0.082
970	0.082
971	0.082
971	0.082
971	0.082
972	0.083
972	0.083
973	0.083
973	0.083
974	0.082
974	0.082
974	0.083
975	0.082
975	0.082
976	0.081
976	0.08
976	0.08
977	0.08
977	0.08
978	0.081
978	0.081
979	0.081
979	0.08
979	0.08
980	0.08
980	0.081
981	0.081
981	0.08
982	0.08
982	0.08
982	0.079
983	0.078
983	0.078
984	0.078
984	0.078
984	0.077
985	0.077
985	0.077
986	0.076
986	0.076
987	0.075
987	0.075
987	0.074
988	0.073
988	0.073
989	0.072
989	0.071
990	0.07
990	0.069
990	0.069
991	0.069
991	0.068
992	0.068
992	0.068
992	0.067
993	0.067
993	0.067
994	0.067
994	0.067
995	0.067
995	0.067
995	0.066
996	0.066
996	0.065
997	0.065
997	0.065
997	0.065
998	0.065
998	0.065
999	0.065
999	0.065
1000	0.066
1000	0.066
1000	0.066
1001	0.067
1001	0.067
1002	0.068
1002	0.068
1003	0.068
1003	0.068
1003	0.068
1004	0.068
1004	0.067
1005	0.067
1005	0.066
1005	0.065
1006	0.064
1006	0.063
1007	0.062
1007	0.061
1008	0.06
1008	0.06
1008	0.059
1009	0.059
1009	0.059
1010	0.059
1010	0.059
1010	0.059
1011	0.059
1011	0.059
1012	0.059
1012	0.059
1013	0.058
1013	0.058
1013	0.057
1014	0.056
1014	0.056
1015	0.055
1015	0.054
1016	0.054
1016	0.053
1016	0.052
1017	0.051
1017	0.05
1018	0.049
1018	0.048
1018	0.047
1019	0.046
1019	0.045
1020	0.044
1020	0.044
1021	0.043
1021	0.042
1021	0.042
1022	0.041
1022	0.041
1023	0.041
1023	0.041
1023	0.04
1024	0.041
1024	0.04
1025	0.04
1025	0.04
1026	0.041
1026	0.041
1026	0.042
1027	0.042
1027	0.042
1028	0.042
1028	0.042
1028	0.042
1029	0.042
1029	0.042
1030	0.041
1030	0.041
1031	0.041
1031	0.04
1031	0.04
1032	0.039
1032	0.039
1033	0.039
1033	0.039
1033	0.039
1034	0.039
1034	0.039
1035	0.039
1035	0.039
1036	0.038
1036	0.038
1036	0.038
1037	0.038
1037	0.038
1038	0.039
1038	0.039
1039	0.039
1039	0.039
1039	0.039
1040	0.04
1040	0.041
1041	0.041
1041	0.041
1041	0.042
1042	0.041
1042	0.041
1043	0.04
1043	0.04
1044	0.039
1044	0.038
1044	0.038
1045	0.036
1045	0.035
1046	0.034
1046	0.034
1046	0.033
1047	0.034
1047	0.033
1048	0.033
1048	0.033
1049	0.033
1049	0.033
1049	0.034
1050	0.034
1050	0.034
1051	0.034
1051	0.035
1051	0.035
1052	0.035
1052	0.035
1053	0.036
1053	0.036
1053	0.036
1054	0.036
1054	0.036
1055	0.036
1055	0.036
1056	0.035
1056	0.034
1056	0.034
1057	0.033
1057	0.033
1058	0.032
1058	0.031
1058	0.031
1059	0.03
1059	0.029
1060	0.029
1060	0.028
1061	0.028
1061	0.027
1061	0.027
1062	0.027
1062	0.026
1063	0.026
1063	0.026
1063	0.026
1064	0.026
1064	0.026
1065	0.026
1065	0.026
1066	0.026
1066	0.025
1066	0.025
1067	0.025
1067	0.025
1068	0.025
1068	0.024
1068	0.023
1069	0.023
1069	0.023
1070	0.022
1070	0.022
1071	0.022
1071	0.022
1071	0.021
1072	0.02
1072	0.02
1073	0.02
1073	0.02
1073	0.02
1074	0.02
1074	0.02
1075	0.019
1075	0.019
1076	0.018
1076	0.018
1076	0.017
1077	0.017
1077	0.016
1078	0.016
1078	0.015
1078	0.014
1079	0.013
1079	0.013
1080	0.012
1080	0.011
1080	0.01
1081	0.01
1081	0.009
1082	0.009
1082	0.008
1083	0.007
1083	0.006
1083	0.005
1084	0.004
1084	0.004
1085	0.002
1085	0.001
1085	0.001
1086	0.001
1086	-0.001
1087	-0.001
1087	-0.001
1088	-0.002
1088	-0.002
1088	-0.003
1089	-0.004
1089	-0.005
1090	-0.006
1090	-0.007
1090	-0.009
1091	-0.01
1091	-0.011
1092	-0.012
1092	-0.011
1092	-0.013
1093	-0.013
1093	-0.013
1094	-0.014
1094	-0.014
1095	-0.015
1095	-0.015
1095	-0.016
1096	-0.017
1096	-0.018
1097	-0.019
1097	-0.02
1097	-0.021
1098	-0.022
1098	-0.023
1099	-0.024
1099	-0.025
1100	-0.026
1100	-0.028
1100	-0.03
1101	-0.032
1101	-0.036
1102	-0.038
1102	-0.04
1102	-0.042
1103	-0.044
1103	-0.048
1104	-0.051
1104	-0.053
1104	-0.056
1105	-0.058
1105	-0.061
1106	-0.066
1106	-0.068
1107	-0.073
1107	-0.077
1107	-0.083
1108	-0.084
1108	-0.086
1109	-0.09
1109	-0.095
1109	-0.098
1110	-0.099
1110	-0.103
1111	-0.11
1111	-0.107
