Data from 17C_3.1A_35min_2sec_int_Absorbance__297__02700.txt Node

Date: Mon Jun 19 18:27:12 CEST 2023
User: Marek
Spectrometer: MAYP115816
Trigger mode: 0
Integration Time (sec): 2.500000E-1
Scans to average: 10
Electric dark correction enabled: true
Nonlinearity correction enabled: true
Boxcar width: 5
XAxis mode: Wavelengths
Number of Pixels in Spectrum: 2068
>>>>>Begin Spectral Data<<<<<
199	-0.757
199	-0.769
200	-0.676
200	-0.624
201	-0.584
201	-0.567
202	-0.549
202	-0.534
203	-0.528
203	-0.525
204	-0.51
204	-0.497
205	-0.473
205	-0.466
205	-0.464
206	-0.468
206	-0.472
207	-0.464
207	-0.466
208	-0.467
208	-0.464
209	-0.459
209	-0.46
210	-0.464
210	-0.469
211	-0.472
211	-0.474
212	-0.476
212	-0.484
213	-0.483
213	-0.482
213	-0.488
214	-0.485
214	-0.482
215	-0.483
215	-0.489
216	-0.49
216	-0.496
217	-0.492
217	-0.497
218	-0.5
218	-0.5
219	-0.503
219	-0.514
220	-0.519
220	-0.527
221	-0.526
221	-0.529
221	-0.523
222	-0.521
222	-0.522
223	-0.525
223	-0.53
224	-0.534
224	-0.534
225	-0.529
225	-0.525
226	-0.53
226	-0.531
227	-0.537
227	-0.545
228	-0.544
228	-0.546
229	-0.546
229	-0.54
229	-0.535
230	-0.541
230	-0.543
231	-0.538
231	-0.53
232	-0.523
232	-0.521
233	-0.515
233	-0.511
234	-0.511
234	-0.508
235	-0.51
235	-0.514
236	-0.514
236	-0.516
236	-0.523
237	-0.528
237	-0.53
238	-0.54
238	-0.539
239	-0.539
239	-0.547
240	-0.547
240	-0.545
241	-0.55
241	-0.548
242	-0.552
242	-0.548
243	-0.544
243	-0.546
243	-0.555
244	-0.555
244	-0.554
245	-0.569
245	-0.569
246	-0.573
246	-0.577
247	-0.58
247	-0.584
248	-0.59
248	-0.587
249	-0.59
249	-0.599
250	-0.598
250	-0.594
250	-0.592
251	-0.59
251	-0.591
252	-0.594
252	-0.584
253	-0.589
253	-0.601
254	-0.599
254	-0.598
255	-0.605
255	-0.598
256	-0.595
256	-0.607
257	-0.602
257	-0.601
258	-0.618
258	-0.616
258	-0.61
259	-0.606
259	-0.616
260	-0.616
260	-0.622
261	-0.635
261	-0.626
262	-0.624
262	-0.624
263	-0.613
263	-0.607
264	-0.609
264	-0.616
265	-0.61
265	-0.616
265	-0.618
266	-0.615
266	-0.612
267	-0.625
267	-0.631
268	-0.648
268	-0.656
269	-0.653
269	-0.649
270	-0.653
270	-0.659
271	-0.659
271	-0.665
272	-0.668
272	-0.66
272	-0.656
273	-0.652
273	-0.661
274	-0.666
274	-0.67
275	-0.671
275	-0.663
276	-0.669
276	-0.663
277	-0.667
277	-0.687
278	-0.699
278	-0.694
278	-0.688
279	-0.691
279	-0.701
280	-0.697
280	-0.698
281	-0.692
281	-0.699
282	-0.691
282	-0.691
283	-0.681
283	-0.682
284	-0.676
284	-0.665
285	-0.661
285	-0.66
285	-0.656
286	-0.663
286	-0.654
287	-0.654
287	-0.637
288	-0.628
288	-0.637
289	-0.653
289	-0.664
290	-0.652
290	-0.651
291	-0.648
291	-0.642
292	-0.647
292	-0.653
292	-0.658
293	-0.665
293	-0.653
294	-0.64
294	-0.628
295	-0.627
295	-0.625
296	-0.622
296	-0.619
297	-0.613
297	-0.596
298	-0.589
298	-0.597
298	-0.588
299	-0.582
299	-0.584
300	-0.578
300	-0.573
301	-0.57
301	-0.567
302	-0.575
302	-0.584
303	-0.573
303	-0.558
304	-0.558
304	-0.557
305	-0.558
305	-0.559
305	-0.555
306	-0.539
306	-0.535
307	-0.522
307	-0.522
308	-0.535
308	-0.533
309	-0.535
309	-0.526
310	-0.515
310	-0.511
311	-0.505
311	-0.513
311	-0.51
312	-0.505
312	-0.503
313	-0.488
313	-0.49
314	-0.486
314	-0.486
315	-0.488
315	-0.487
316	-0.484
316	-0.476
317	-0.468
317	-0.465
318	-0.456
318	-0.454
318	-0.451
319	-0.441
319	-0.439
320	-0.431
320	-0.431
321	-0.435
321	-0.433
322	-0.428
322	-0.421
323	-0.42
323	-0.414
324	-0.407
324	-0.399
324	-0.388
325	-0.378
325	-0.36
326	-0.347
326	-0.33
327	-0.314
327	-0.293
328	-0.268
328	-0.246
329	-0.221
329	-0.198
330	-0.171
330	-0.139
330	-0.112
331	-0.083
331	-0.055
332	-0.029
332	-0.005
333	0.019
333	0.044
334	0.065
334	0.083
335	0.103
335	0.118
336	0.132
336	0.147
336	0.158
337	0.17
337	0.18
338	0.188
338	0.194
339	0.202
339	0.208
340	0.213
340	0.218
341	0.222
341	0.226
342	0.23
342	0.233
342	0.236
343	0.238
343	0.241
344	0.242
344	0.243
345	0.245
345	0.246
346	0.247
346	0.247
347	0.248
347	0.249
348	0.25
348	0.251
348	0.251
349	0.251
349	0.252
350	0.252
350	0.252
351	0.253
351	0.253
352	0.253
352	0.253
353	0.253
353	0.253
354	0.253
354	0.253
354	0.253
355	0.252
355	0.252
356	0.252
356	0.252
357	0.252
357	0.251
358	0.251
358	0.251
359	0.251
359	0.251
360	0.25
360	0.251
360	0.25
361	0.25
361	0.25
362	0.25
362	0.25
363	0.25
363	0.25
364	0.25
364	0.25
365	0.249
365	0.249
366	0.249
366	0.249
366	0.249
367	0.25
367	0.25
368	0.25
368	0.249
369	0.249
369	0.249
370	0.249
370	0.249
371	0.249
371	0.249
372	0.249
372	0.249
372	0.249
373	0.249
373	0.249
374	0.249
374	0.249
375	0.248
375	0.249
376	0.249
376	0.249
377	0.249
377	0.248
378	0.248
378	0.248
378	0.248
379	0.248
379	0.248
380	0.248
380	0.248
381	0.248
381	0.247
382	0.247
382	0.247
383	0.247
383	0.247
383	0.246
384	0.246
384	0.246
385	0.246
385	0.246
386	0.246
386	0.246
387	0.246
387	0.246
388	0.246
388	0.246
389	0.246
389	0.246
389	0.246
390	0.246
390	0.246
391	0.246
391	0.246
392	0.245
392	0.245
393	0.245
393	0.245
394	0.245
394	0.244
394	0.244
395	0.244
395	0.244
396	0.244
396	0.244
397	0.244
397	0.244
398	0.244
398	0.244
399	0.244
399	0.244
400	0.243
400	0.243
400	0.243
401	0.243
401	0.243
402	0.243
402	0.242
403	0.242
403	0.242
404	0.242
404	0.242
405	0.242
405	0.241
405	0.241
406	0.241
406	0.241
407	0.241
407	0.241
408	0.241
408	0.241
409	0.241
409	0.241
410	0.241
410	0.241
411	0.241
411	0.241
411	0.241
412	0.241
412	0.241
413	0.241
413	0.241
414	0.241
414	0.24
415	0.24
415	0.24
416	0.24
416	0.24
416	0.239
417	0.239
417	0.239
418	0.239
418	0.239
419	0.239
419	0.239
420	0.239
420	0.239
421	0.239
421	0.239
421	0.239
422	0.239
422	0.239
423	0.239
423	0.239
424	0.238
424	0.238
425	0.238
425	0.237
426	0.237
426	0.237
427	0.237
427	0.236
427	0.236
428	0.236
428	0.236
429	0.236
429	0.236
430	0.236
430	0.236
431	0.236
431	0.236
432	0.235
432	0.235
432	0.235
433	0.235
433	0.234
434	0.234
434	0.234
435	0.234
435	0.234
436	0.234
436	0.234
437	0.234
437	0.234
437	0.234
438	0.234
438	0.234
439	0.234
439	0.234
440	0.234
440	0.234
441	0.234
441	0.233
442	0.233
442	0.233
442	0.233
443	0.233
443	0.233
444	0.233
444	0.233
445	0.233
445	0.233
446	0.233
446	0.233
447	0.233
447	0.233
447	0.233
448	0.233
448	0.233
449	0.233
449	0.233
450	0.233
450	0.233
451	0.233
451	0.233
452	0.233
452	0.233
452	0.233
453	0.233
453	0.232
454	0.232
454	0.232
455	0.232
455	0.232
456	0.232
456	0.232
457	0.232
457	0.231
458	0.231
458	0.231
458	0.232
459	0.232
459	0.231
460	0.231
460	0.231
461	0.231
461	0.231
462	0.231
462	0.231
463	0.231
463	0.231
463	0.232
464	0.231
464	0.231
465	0.232
465	0.232
466	0.232
466	0.232
467	0.232
467	0.232
467	0.232
468	0.232
468	0.232
469	0.232
469	0.232
470	0.232
470	0.232
471	0.232
471	0.232
472	0.232
472	0.233
472	0.233
473	0.233
473	0.234
474	0.234
474	0.234
475	0.234
475	0.235
476	0.235
476	0.235
477	0.235
477	0.235
477	0.236
478	0.236
478	0.236
479	0.237
479	0.237
480	0.237
480	0.237
481	0.238
481	0.238
482	0.238
482	0.238
482	0.239
483	0.239
483	0.24
484	0.239
484	0.239
485	0.239
485	0.24
486	0.24
486	0.241
487	0.241
487	0.242
487	0.243
488	0.243
488	0.243
489	0.245
489	0.246
490	0.247
490	0.248
491	0.249
491	0.249
492	0.25
492	0.251
492	0.252
493	0.253
493	0.254
494	0.255
494	0.256
495	0.256
495	0.257
496	0.258
496	0.259
496	0.26
497	0.261
497	0.262
498	0.263
498	0.264
499	0.265
499	0.267
500	0.268
500	0.27
501	0.271
501	0.272
501	0.273
502	0.274
502	0.275
503	0.276
503	0.277
504	0.278
504	0.28
505	0.281
505	0.282
506	0.283
506	0.284
506	0.285
507	0.286
507	0.287
508	0.288
508	0.29
509	0.291
509	0.292
510	0.293
510	0.295
511	0.296
511	0.297
511	0.299
512	0.3
512	0.301
513	0.303
513	0.304
514	0.305
514	0.307
515	0.308
515	0.309
515	0.31
516	0.312
516	0.313
517	0.315
517	0.316
518	0.317
518	0.318
519	0.32
519	0.321
520	0.322
520	0.324
520	0.326
521	0.327
521	0.329
522	0.33
522	0.331
523	0.333
523	0.334
524	0.335
524	0.336
524	0.337
525	0.338
525	0.339
526	0.34
526	0.341
527	0.342
527	0.342
528	0.343
528	0.344
529	0.345
529	0.346
529	0.347
530	0.349
530	0.349
531	0.35
531	0.351
532	0.351
532	0.352
533	0.353
533	0.354
533	0.354
534	0.355
534	0.355
535	0.355
535	0.356
536	0.356
536	0.356
537	0.356
537	0.357
538	0.358
538	0.358
538	0.358
539	0.359
539	0.36
540	0.361
540	0.361
541	0.362
541	0.362
542	0.363
542	0.363
542	0.363
543	0.363
543	0.363
544	0.363
544	0.363
545	0.363
545	0.363
546	0.364
546	0.364
547	0.363
547	0.363
547	0.364
548	0.364
548	0.364
549	0.365
549	0.365
550	0.365
550	0.366
551	0.366
551	0.367
551	0.368
552	0.369
552	0.369
553	0.37
553	0.371
554	0.371
554	0.371
555	0.371
555	0.371
556	0.371
556	0.371
556	0.371
557	0.371
557	0.371
558	0.37
558	0.37
559	0.371
559	0.371
560	0.371
560	0.37
560	0.371
561	0.371
561	0.37
562	0.37
562	0.37
563	0.369
563	0.369
564	0.369
564	0.369
564	0.37
565	0.37
565	0.37
566	0.371
566	0.371
567	0.371
567	0.371
568	0.371
568	0.37
568	0.37
569	0.37
569	0.369
570	0.368
570	0.367
571	0.367
571	0.367
572	0.366
572	0.366
573	0.366
573	0.365
573	0.365
574	0.365
574	0.366
575	0.366
575	0.367
576	0.367
576	0.366
577	0.366
577	0.366
577	0.367
578	0.367
578	0.367
579	0.367
579	0.368
580	0.367
580	0.365
581	0.365
581	0.365
581	0.365
582	0.365
582	0.365
583	0.365
583	0.365
584	0.364
584	0.363
585	0.365
585	0.365
585	0.365
586	0.365
586	0.365
587	0.365
587	0.364
588	0.363
588	0.363
589	0.363
589	0.363
590	0.363
590	0.363
590	0.364
591	0.364
591	0.363
592	0.363
592	0.362
593	0.362
593	0.362
594	0.361
594	0.361
594	0.361
595	0.361
595	0.36
596	0.36
596	0.361
597	0.362
597	0.361
598	0.361
598	0.361
598	0.36
599	0.36
599	0.359
600	0.358
600	0.357
601	0.356
601	0.355
602	0.354
602	0.353
602	0.353
603	0.353
603	0.354
604	0.354
604	0.354
605	0.354
605	0.355
606	0.354
606	0.353
606	0.353
607	0.352
607	0.352
608	0.351
608	0.349
609	0.349
609	0.349
610	0.348
610	0.348
610	0.348
611	0.348
611	0.349
612	0.35
612	0.35
613	0.35
613	0.351
614	0.35
614	0.348
614	0.348
615	0.347
615	0.346
616	0.345
616	0.344
617	0.342
617	0.341
618	0.34
618	0.339
618	0.338
619	0.338
619	0.338
620	0.338
620	0.337
621	0.336
621	0.336
622	0.335
622	0.334
622	0.333
623	0.332
623	0.332
624	0.331
624	0.329
625	0.328
625	0.327
626	0.326
626	0.325
626	0.324
627	0.323
627	0.322
628	0.32
628	0.318
629	0.316
629	0.314
630	0.311
630	0.309
630	0.306
631	0.304
631	0.301
632	0.297
632	0.294
633	0.291
633	0.287
634	0.284
634	0.28
634	0.277
635	0.273
635	0.269
636	0.264
636	0.26
637	0.255
637	0.25
638	0.244
638	0.239
638	0.233
639	0.226
639	0.22
640	0.213
640	0.207
641	0.201
641	0.194
642	0.188
642	0.181
642	0.174
643	0.168
643	0.16
644	0.153
644	0.145
645	0.137
645	0.129
646	0.121
646	0.113
646	0.104
647	0.096
647	0.087
648	0.079
648	0.07
649	0.06
649	0.051
650	0.043
650	0.033
650	0.024
651	0.012
651	-0.003
652	-0.019
652	-0.036
653	-0.052
653	-0.066
653	-0.062
654	-0.039
654	-0.026
655	-0.029
655	-0.035
656	-0.041
656	-0.047
657	-0.053
657	-0.057
657	-0.064
658	-0.07
658	-0.101
659	-0.193
659	-0.301
660	-0.348
660	-0.376
661	-0.404
661	-0.436
661	-0.471
662	-0.503
662	-0.538
663	-0.577
663	-0.621
664	-0.665
664	-0.718
665	-0.77
665	-0.83
665	-0.886
666	-0.943
666	-1.005
667	-1.071
667	-1.137
668	-1.209
668	-1.282
669	-1.357
669	-1.431
669	-1.509
670	-1.579
670	-1.609
671	-1.737
671	-1.995
672	-2.216
672	-2.403
672	-2.53
673	-2.62
673	-2.699
674	-2.742
674	-2.76
675	-2.785
675	-2.924
676	-3.118
676	-3.07
676	-2.847
677	-2.643
677	-2.482
678	-2.308
678	-2.015
679	-1.736
679	-1.6
680	-1.506
680	-1.425
680	-1.355
681	-1.311
681	-1.254
682	-1.215
682	-1.179
683	-1.145
683	-1.129
684	-1.11
684	-1.09
684	-1.069
685	-1.045
685	-1.024
686	-1
686	-0.984
687	-0.957
687	-0.944
687	-0.923
688	-0.899
688	-0.878
689	-0.858
689	-0.845
690	-0.827
690	-0.815
691	-0.809
691	-0.814
691	-0.831
692	-0.823
692	-0.815
693	-0.811
693	-0.818
694	-0.812
694	-0.805
695	-0.808
695	-0.806
695	-0.789
696	-0.786
696	-0.763
697	-0.762
697	-0.776
698	-0.778
698	-0.768
698	-0.782
699	-0.786
699	-0.784
700	-0.774
700	-0.789
701	-0.789
701	-0.796
702	-0.796
702	-0.786
702	-0.777
703	-0.769
703	-0.761
704	-0.756
704	-0.756
705	-0.768
705	-0.763
705	-0.751
706	-0.751
706	-0.747
707	-0.751
707	-0.745
708	-0.743
708	-0.735
709	-0.739
709	-0.742
709	-0.731
710	-0.739
710	-0.747
711	-0.74
711	-0.741
712	-0.74
712	-0.755
713	-0.756
713	-0.763
713	-0.753
714	-0.75
714	-0.752
715	-0.741
715	-0.728
716	-0.736
716	-0.739
716	-0.729
717	-0.73
717	-0.731
718	-0.722
718	-0.723
719	-0.731
719	-0.732
720	-0.726
720	-0.737
720	-0.73
721	-0.716
721	-0.72
722	-0.707
722	-0.697
723	-0.695
723	-0.699
723	-0.685
724	-0.688
724	-0.693
725	-0.692
725	-0.699
726	-0.714
726	-0.716
727	-0.721
727	-0.735
727	-0.743
728	-0.744
728	-0.75
729	-0.75
729	-0.755
730	-0.761
730	-0.754
730	-0.744
731	-0.727
731	-0.74
732	-0.743
732	-0.744
733	-0.741
733	-0.747
734	-0.74
734	-0.739
734	-0.726
735	-0.726
735	-0.727
736	-0.739
736	-0.724
737	-0.716
737	-0.717
737	-0.73
738	-0.724
738	-0.725
739	-0.723
739	-0.736
740	-0.733
740	-0.733
741	-0.727
741	-0.727
741	-0.731
742	-0.727
742	-0.725
743	-0.732
743	-0.736
744	-0.734
744	-0.725
744	-0.727
745	-0.733
745	-0.727
746	-0.729
746	-0.724
747	-0.728
747	-0.716
748	-0.707
748	-0.711
748	-0.712
749	-0.71
749	-0.712
750	-0.7
750	-0.701
751	-0.702
751	-0.712
751	-0.712
752	-0.715
752	-0.722
753	-0.718
753	-0.714
754	-0.718
754	-0.711
754	-0.726
755	-0.742
755	-0.755
756	-0.741
756	-0.74
757	-0.74
757	-0.736
758	-0.738
758	-0.735
758	-0.739
759	-0.745
759	-0.728
760	-0.72
760	-0.716
761	-0.728
761	-0.725
761	-0.724
762	-0.732
762	-0.731
763	-0.741
763	-0.738
764	-0.735
764	-0.744
764	-0.751
765	-0.741
765	-0.729
766	-0.737
766	-0.743
767	-0.757
767	-0.751
768	-0.744
768	-0.754
768	-0.761
769	-0.778
769	-0.777
770	-0.782
770	-0.795
771	-0.792
771	-0.796
771	-0.797
772	-0.802
772	-0.8
773	-0.798
773	-0.792
774	-0.789
774	-0.792
775	-0.793
775	-0.788
775	-0.798
776	-0.797
776	-0.788
777	-0.796
777	-0.815
778	-0.811
778	-0.831
778	-0.82
779	-0.842
779	-0.849
780	-0.86
780	-0.857
781	-0.868
781	-0.862
781	-0.877
782	-0.878
782	-0.881
783	-0.868
783	-0.866
784	-0.846
784	-0.837
784	-0.846
785	-0.852
785	-0.836
786	-0.843
786	-0.819
787	-0.804
787	-0.807
788	-0.81
788	-0.821
788	-0.833
789	-0.832
789	-0.816
790	-0.8
790	-0.803
791	-0.805
791	-0.823
791	-0.832
792	-0.824
792	-0.802
793	-0.792
793	-0.767
794	-0.774
794	-0.765
794	-0.773
795	-0.768
795	-0.76
796	-0.743
796	-0.749
797	-0.743
797	-0.755
797	-0.76
798	-0.772
798	-0.766
799	-0.775
799	-0.759
800	-0.765
800	-0.757
801	-0.763
801	-0.749
801	-0.758
802	-0.766
802	-0.766
803	-0.768
803	-0.777
804	-0.774
804	-0.785
804	-0.773
805	-0.779
805	-0.767
806	-0.771
806	-0.757
807	-0.753
807	-0.736
807	-0.723
808	-0.715
808	-0.711
809	-0.697
809	-0.703
810	-0.701
810	-0.694
810	-0.691
811	-0.696
811	-0.689
812	-0.688
812	-0.693
813	-0.697
813	-0.69
813	-0.697
814	-0.703
814	-0.707
815	-0.712
815	-0.713
816	-0.705
816	-0.71
817	-0.719
817	-0.737
817	-0.752
818	-0.758
818	-0.76
819	-0.75
819	-0.751
820	-0.762
820	-0.759
820	-0.77
821	-0.767
821	-0.755
822	-0.723
822	-0.698
823	-0.697
823	-0.701
823	-0.697
824	-0.692
824	-0.693
825	-0.685
825	-0.665
826	-0.661
826	-0.669
826	-0.679
827	-0.674
827	-0.672
828	-0.65
828	-0.651
829	-0.64
829	-0.625
829	-0.62
830	-0.629
830	-0.626
831	-0.615
831	-0.606
832	-0.603
832	-0.592
832	-0.6
833	-0.593
833	-0.595
834	-0.594
834	-0.602
835	-0.589
835	-0.585
835	-0.583
836	-0.58
836	-0.578
837	-0.575
837	-0.566
838	-0.558
838	-0.546
839	-0.532
839	-0.519
839	-0.509
840	-0.498
840	-0.494
841	-0.483
841	-0.474
842	-0.469
842	-0.457
842	-0.45
843	-0.444
843	-0.439
844	-0.429
844	-0.422
845	-0.414
845	-0.401
845	-0.386
846	-0.373
846	-0.358
847	-0.345
847	-0.333
848	-0.321
848	-0.309
848	-0.292
849	-0.279
849	-0.266
850	-0.253
850	-0.247
851	-0.238
851	-0.225
851	-0.216
852	-0.199
852	-0.186
853	-0.177
853	-0.171
854	-0.159
854	-0.147
854	-0.135
855	-0.123
855	-0.116
856	-0.106
856	-0.097
857	-0.09
857	-0.082
857	-0.07
858	-0.059
858	-0.051
859	-0.042
859	-0.031
860	-0.022
860	-0.008
860	0.001
861	0.01
861	0.019
862	0.026
862	0.033
863	0.04
863	0.049
863	0.056
864	0.061
864	0.068
865	0.074
865	0.079
866	0.084
866	0.088
866	0.092
867	0.096
867	0.1
868	0.103
868	0.107
869	0.11
869	0.112
869	0.114
870	0.116
870	0.118
871	0.12
871	0.122
872	0.123
872	0.123
872	0.124
873	0.124
873	0.124
874	0.124
874	0.124
875	0.123
875	0.122
875	0.121
876	0.12
876	0.119
877	0.118
877	0.116
878	0.115
878	0.114
878	0.112
879	0.111
879	0.11
880	0.11
880	0.11
881	0.11
881	0.11
881	0.11
882	0.109
882	0.108
883	0.106
883	0.105
884	0.104
884	0.103
884	0.102
885	0.101
885	0.101
886	0.101
886	0.1
887	0.1
887	0.1
887	0.1
888	0.101
888	0.1
889	0.101
889	0.101
890	0.1
890	0.1
890	0.099
891	0.099
891	0.099
892	0.1
892	0.1
893	0.099
893	0.1
893	0.1
894	0.1
894	0.1
895	0.099
895	0.099
895	0.099
896	0.098
896	0.097
897	0.096
897	0.095
898	0.094
898	0.093
898	0.093
899	0.093
899	0.093
900	0.093
900	0.093
901	0.093
901	0.094
901	0.095
902	0.096
902	0.097
903	0.097
903	0.098
904	0.098
904	0.098
904	0.099
905	0.1
905	0.1
906	0.1
906	0.1
907	0.1
907	0.1
907	0.099
908	0.099
908	0.098
909	0.098
909	0.097
910	0.096
910	0.095
910	0.095
911	0.095
911	0.096
912	0.096
912	0.097
913	0.097
913	0.098
913	0.099
914	0.1
914	0.101
915	0.102
915	0.103
916	0.103
916	0.104
916	0.104
917	0.104
917	0.104
918	0.104
918	0.104
918	0.103
919	0.103
919	0.103
920	0.102
920	0.102
921	0.102
921	0.102
921	0.101
922	0.101
922	0.101
923	0.1
923	0.1
924	0.099
924	0.099
924	0.098
925	0.097
925	0.096
926	0.095
926	0.094
927	0.093
927	0.093
927	0.092
928	0.092
928	0.091
929	0.09
929	0.09
930	0.089
930	0.088
930	0.087
931	0.086
931	0.086
932	0.085
932	0.084
933	0.083
933	0.082
933	0.081
934	0.08
934	0.079
935	0.078
935	0.078
935	0.077
936	0.076
936	0.075
937	0.074
937	0.074
938	0.074
938	0.074
938	0.074
939	0.074
939	0.074
940	0.074
940	0.075
941	0.075
941	0.076
941	0.076
942	0.077
942	0.077
943	0.077
943	0.076
944	0.076
944	0.075
944	0.075
945	0.074
945	0.073
946	0.072
946	0.071
946	0.07
947	0.069
947	0.069
948	0.069
948	0.069
949	0.069
949	0.069
949	0.069
950	0.07
950	0.07
951	0.071
951	0.072
952	0.072
952	0.074
952	0.074
953	0.075
953	0.077
954	0.077
954	0.078
955	0.079
955	0.08
955	0.081
956	0.081
956	0.082
957	0.082
957	0.082
957	0.082
958	0.082
958	0.083
959	0.083
959	0.083
960	0.083
960	0.083
960	0.083
961	0.083
961	0.083
962	0.083
962	0.083
963	0.083
963	0.083
963	0.083
964	0.083
964	0.083
965	0.083
965	0.083
966	0.082
966	0.082
966	0.082
967	0.081
967	0.08
968	0.08
968	0.079
968	0.079
969	0.079
969	0.078
970	0.078
970	0.078
971	0.078
971	0.078
971	0.079
972	0.079
972	0.079
973	0.08
973	0.079
974	0.079
974	0.079
974	0.079
975	0.079
975	0.079
976	0.078
976	0.077
976	0.077
977	0.077
977	0.077
978	0.077
978	0.077
979	0.078
979	0.077
979	0.077
980	0.077
980	0.077
981	0.077
981	0.077
982	0.077
982	0.076
982	0.076
983	0.075
983	0.075
984	0.074
984	0.074
984	0.074
985	0.074
985	0.073
986	0.073
986	0.072
987	0.072
987	0.071
987	0.071
988	0.07
988	0.069
989	0.068
989	0.067
990	0.067
990	0.066
990	0.066
991	0.065
991	0.065
992	0.065
992	0.064
992	0.064
993	0.064
993	0.064
994	0.064
994	0.064
995	0.064
995	0.063
995	0.063
996	0.062
996	0.062
997	0.061
997	0.061
997	0.061
998	0.061
998	0.061
999	0.061
999	0.061
1000	0.062
1000	0.062
1000	0.062
1001	0.063
1001	0.064
1002	0.064
1002	0.064
1003	0.064
1003	0.064
1003	0.064
1004	0.064
1004	0.064
1005	0.063
1005	0.062
1005	0.061
1006	0.06
1006	0.059
1007	0.058
1007	0.057
1008	0.057
1008	0.056
1008	0.056
1009	0.055
1009	0.055
1010	0.056
1010	0.056
1010	0.056
1011	0.056
1011	0.056
1012	0.056
1012	0.056
1013	0.055
1013	0.054
1013	0.054
1014	0.053
1014	0.052
1015	0.052
1015	0.051
1016	0.051
1016	0.05
1016	0.049
1017	0.048
1017	0.047
1018	0.046
1018	0.045
1018	0.043
1019	0.043
1019	0.042
1020	0.041
1020	0.04
1021	0.04
1021	0.039
1021	0.038
1022	0.038
1022	0.038
1023	0.038
1023	0.037
1023	0.037
1024	0.037
1024	0.037
1025	0.037
1025	0.037
1026	0.038
1026	0.038
1026	0.039
1027	0.039
1027	0.039
1028	0.039
1028	0.039
1028	0.039
1029	0.039
1029	0.039
1030	0.038
1030	0.037
1031	0.037
1031	0.037
1031	0.036
1032	0.036
1032	0.035
1033	0.035
1033	0.036
1033	0.036
1034	0.036
1034	0.036
1035	0.036
1035	0.036
1036	0.035
1036	0.035
1036	0.035
1037	0.035
1037	0.035
1038	0.035
1038	0.035
1039	0.036
1039	0.036
1039	0.037
1040	0.037
1040	0.038
1041	0.038
1041	0.038
1041	0.038
1042	0.038
1042	0.038
1043	0.037
1043	0.037
1044	0.036
1044	0.035
1044	0.034
1045	0.033
1045	0.032
1046	0.031
1046	0.031
1046	0.03
1047	0.03
1047	0.03
1048	0.03
1048	0.03
1049	0.03
1049	0.03
1049	0.031
1050	0.031
1050	0.031
1051	0.031
1051	0.031
1051	0.032
1052	0.032
1052	0.032
1053	0.032
1053	0.033
1053	0.033
1054	0.033
1054	0.033
1055	0.033
1055	0.033
1056	0.032
1056	0.032
1056	0.031
1057	0.03
1057	0.029
1058	0.029
1058	0.028
1058	0.027
1059	0.027
1059	0.026
1060	0.025
1060	0.024
1061	0.024
1061	0.024
1061	0.023
1062	0.023
1062	0.022
1063	0.022
1063	0.022
1063	0.023
1064	0.023
1064	0.023
1065	0.023
1065	0.023
1066	0.022
1066	0.023
1066	0.023
1067	0.023
1067	0.023
1068	0.022
1068	0.021
1068	0.021
1069	0.021
1069	0.02
1070	0.02
1070	0.02
1071	0.019
1071	0.019
1071	0.018
1072	0.018
1072	0.017
1073	0.017
1073	0.016
1073	0.016
1074	0.016
1074	0.016
1075	0.016
1075	0.015
1076	0.015
1076	0.015
1076	0.014
1077	0.013
1077	0.013
1078	0.012
1078	0.011
1078	0.01
1079	0.009
1079	0.009
1080	0.008
1080	0.008
1080	0.007
1081	0.006
1081	0.006
1082	0.005
1082	0.004
1083	0.003
1083	0.003
1083	0.002
1084	0
1084	-0
1085	-0.001
1085	-0.002
1085	-0.002
1086	-0.003
1086	-0.004
1087	-0.004
1087	-0.004
1088	-0.005
1088	-0.005
1088	-0.005
1089	-0.006
1089	-0.007
1090	-0.008
1090	-0.009
1090	-0.01
1091	-0.011
1091	-0.011
1092	-0.013
1092	-0.013
1092	-0.014
1093	-0.015
1093	-0.015
1094	-0.016
1094	-0.017
1095	-0.018
1095	-0.018
1095	-0.019
1096	-0.02
1096	-0.021
1097	-0.022
1097	-0.023
1097	-0.023
1098	-0.025
1098	-0.026
1099	-0.027
1099	-0.027
1100	-0.029
1100	-0.03
1100	-0.033
1101	-0.035
1101	-0.038
1102	-0.04
1102	-0.043
1102	-0.044
1103	-0.047
1103	-0.049
1104	-0.053
1104	-0.055
1104	-0.058
1105	-0.061
1105	-0.064
1106	-0.068
1106	-0.07
1107	-0.075
1107	-0.079
1107	-0.084
1108	-0.087
1108	-0.089
1109	-0.093
1109	-0.098
1109	-0.1
1110	-0.1
1110	-0.104
1111	-0.109
1111	-0.107
