Data from 17C_3.1A_35min_2sec_int_Absorbance__210__02613.txt Node

Date: Mon Jun 19 18:23:34 CEST 2023
User: Marek
Spectrometer: MAYP115816
Trigger mode: 0
Integration Time (sec): 2.500000E-1
Scans to average: 10
Electric dark correction enabled: true
Nonlinearity correction enabled: true
Boxcar width: 5
XAxis mode: Wavelengths
Number of Pixels in Spectrum: 2068
>>>>>Begin Spectral Data<<<<<
199	-0.759
199	-0.768
200	-0.671
200	-0.618
201	-0.582
201	-0.569
202	-0.553
202	-0.539
203	-0.532
203	-0.528
204	-0.511
204	-0.495
205	-0.472
205	-0.466
205	-0.463
206	-0.463
206	-0.466
207	-0.456
207	-0.458
208	-0.458
208	-0.456
209	-0.453
209	-0.454
210	-0.457
210	-0.463
211	-0.465
211	-0.467
212	-0.47
212	-0.477
213	-0.475
213	-0.476
213	-0.48
214	-0.476
214	-0.477
215	-0.478
215	-0.483
216	-0.487
216	-0.494
217	-0.489
217	-0.494
218	-0.497
218	-0.498
219	-0.501
219	-0.511
220	-0.517
220	-0.527
221	-0.525
221	-0.528
221	-0.523
222	-0.521
222	-0.52
223	-0.522
223	-0.526
224	-0.53
224	-0.529
225	-0.523
225	-0.519
226	-0.524
226	-0.524
227	-0.529
227	-0.539
228	-0.541
228	-0.542
229	-0.543
229	-0.536
229	-0.532
230	-0.536
230	-0.538
231	-0.533
231	-0.524
232	-0.517
232	-0.515
233	-0.508
233	-0.506
234	-0.505
234	-0.503
235	-0.508
235	-0.514
236	-0.51
236	-0.514
236	-0.522
237	-0.529
237	-0.528
238	-0.537
238	-0.536
239	-0.535
239	-0.542
240	-0.541
240	-0.537
241	-0.544
241	-0.542
242	-0.545
242	-0.543
243	-0.541
243	-0.541
243	-0.551
244	-0.553
244	-0.553
245	-0.566
245	-0.565
246	-0.569
246	-0.576
247	-0.577
247	-0.579
248	-0.587
248	-0.585
249	-0.588
249	-0.596
250	-0.594
250	-0.59
250	-0.59
251	-0.588
251	-0.586
252	-0.589
252	-0.58
253	-0.583
253	-0.595
254	-0.595
254	-0.592
255	-0.599
255	-0.592
256	-0.589
256	-0.599
257	-0.596
257	-0.593
258	-0.61
258	-0.606
258	-0.601
259	-0.596
259	-0.607
260	-0.608
260	-0.615
261	-0.626
261	-0.616
262	-0.613
262	-0.614
263	-0.602
263	-0.597
264	-0.597
264	-0.605
265	-0.599
265	-0.608
265	-0.61
266	-0.609
266	-0.609
267	-0.622
267	-0.629
268	-0.644
268	-0.654
269	-0.651
269	-0.645
270	-0.649
270	-0.65
271	-0.651
271	-0.654
272	-0.657
272	-0.653
272	-0.647
273	-0.647
273	-0.656
274	-0.662
274	-0.667
275	-0.669
275	-0.66
276	-0.667
276	-0.66
277	-0.665
277	-0.682
278	-0.691
278	-0.685
278	-0.678
279	-0.682
279	-0.691
280	-0.687
280	-0.689
281	-0.683
281	-0.691
282	-0.683
282	-0.682
283	-0.672
283	-0.673
284	-0.668
284	-0.656
285	-0.651
285	-0.647
285	-0.643
286	-0.649
286	-0.644
287	-0.642
287	-0.628
288	-0.621
288	-0.63
289	-0.643
289	-0.653
290	-0.646
290	-0.647
291	-0.644
291	-0.64
292	-0.642
292	-0.648
292	-0.652
293	-0.656
293	-0.645
294	-0.635
294	-0.621
295	-0.616
295	-0.612
296	-0.61
296	-0.606
297	-0.599
297	-0.584
298	-0.575
298	-0.586
298	-0.575
299	-0.568
299	-0.573
300	-0.569
300	-0.566
301	-0.562
301	-0.562
302	-0.571
302	-0.579
303	-0.567
303	-0.553
304	-0.555
304	-0.553
305	-0.556
305	-0.553
305	-0.549
306	-0.533
306	-0.527
307	-0.512
307	-0.516
308	-0.53
308	-0.525
309	-0.528
309	-0.52
310	-0.508
310	-0.506
311	-0.496
311	-0.506
311	-0.504
312	-0.501
312	-0.496
313	-0.482
313	-0.486
314	-0.483
314	-0.485
315	-0.485
315	-0.484
316	-0.482
316	-0.473
317	-0.466
317	-0.46
318	-0.45
318	-0.448
318	-0.443
319	-0.433
319	-0.429
320	-0.423
320	-0.423
321	-0.426
321	-0.423
322	-0.419
322	-0.414
323	-0.414
323	-0.408
324	-0.399
324	-0.391
324	-0.38
325	-0.37
325	-0.353
326	-0.337
326	-0.322
327	-0.304
327	-0.282
328	-0.255
328	-0.234
329	-0.211
329	-0.186
330	-0.159
330	-0.124
330	-0.096
331	-0.065
331	-0.035
332	-0.008
332	0.016
333	0.039
333	0.065
334	0.086
334	0.105
335	0.124
335	0.14
336	0.155
336	0.169
336	0.18
337	0.193
337	0.203
338	0.213
338	0.218
339	0.227
339	0.234
340	0.239
340	0.244
341	0.249
341	0.252
342	0.256
342	0.26
342	0.263
343	0.266
343	0.269
344	0.271
344	0.272
345	0.274
345	0.275
346	0.276
346	0.276
347	0.277
347	0.278
348	0.278
348	0.279
348	0.279
349	0.279
349	0.28
350	0.28
350	0.28
351	0.28
351	0.281
352	0.281
352	0.281
353	0.281
353	0.28
354	0.28
354	0.28
354	0.28
355	0.28
355	0.279
356	0.279
356	0.279
357	0.278
357	0.278
358	0.278
358	0.277
359	0.277
359	0.277
360	0.277
360	0.277
360	0.277
361	0.277
361	0.277
362	0.278
362	0.278
363	0.278
363	0.277
364	0.277
364	0.277
365	0.277
365	0.277
366	0.277
366	0.277
366	0.277
367	0.277
367	0.277
368	0.277
368	0.277
369	0.277
369	0.277
370	0.276
370	0.276
371	0.276
371	0.276
372	0.276
372	0.275
372	0.276
373	0.275
373	0.275
374	0.275
374	0.275
375	0.275
375	0.275
376	0.275
376	0.275
377	0.275
377	0.275
378	0.275
378	0.275
378	0.275
379	0.275
379	0.274
380	0.274
380	0.274
381	0.274
381	0.274
382	0.273
382	0.273
383	0.273
383	0.273
383	0.272
384	0.272
384	0.272
385	0.272
385	0.272
386	0.272
386	0.272
387	0.272
387	0.272
388	0.272
388	0.272
389	0.272
389	0.272
389	0.272
390	0.272
390	0.272
391	0.271
391	0.271
392	0.271
392	0.271
393	0.271
393	0.271
394	0.27
394	0.27
394	0.27
395	0.27
395	0.269
396	0.269
396	0.269
397	0.269
397	0.269
398	0.269
398	0.269
399	0.269
399	0.268
400	0.268
400	0.268
400	0.268
401	0.268
401	0.268
402	0.267
402	0.267
403	0.267
403	0.267
404	0.266
404	0.266
405	0.266
405	0.266
405	0.266
406	0.266
406	0.266
407	0.265
407	0.265
408	0.265
408	0.265
409	0.265
409	0.265
410	0.265
410	0.265
411	0.265
411	0.265
411	0.265
412	0.265
412	0.265
413	0.265
413	0.265
414	0.264
414	0.264
415	0.264
415	0.264
416	0.263
416	0.263
416	0.263
417	0.263
417	0.263
418	0.263
418	0.263
419	0.263
419	0.263
420	0.263
420	0.263
421	0.263
421	0.263
421	0.263
422	0.263
422	0.263
423	0.262
423	0.262
424	0.262
424	0.261
425	0.261
425	0.26
426	0.26
426	0.26
427	0.26
427	0.26
427	0.26
428	0.259
428	0.26
429	0.26
429	0.259
430	0.259
430	0.259
431	0.259
431	0.259
432	0.258
432	0.258
432	0.258
433	0.258
433	0.257
434	0.257
434	0.257
435	0.257
435	0.257
436	0.257
436	0.257
437	0.257
437	0.257
437	0.257
438	0.257
438	0.257
439	0.256
439	0.257
440	0.256
440	0.256
441	0.256
441	0.256
442	0.256
442	0.256
442	0.256
443	0.256
443	0.256
444	0.256
444	0.255
445	0.255
445	0.255
446	0.256
446	0.256
447	0.256
447	0.256
447	0.256
448	0.256
448	0.256
449	0.256
449	0.256
450	0.256
450	0.256
451	0.256
451	0.255
452	0.255
452	0.255
452	0.255
453	0.255
453	0.255
454	0.255
454	0.255
455	0.254
455	0.254
456	0.254
456	0.254
457	0.254
457	0.254
458	0.254
458	0.254
458	0.254
459	0.254
459	0.254
460	0.254
460	0.254
461	0.254
461	0.254
462	0.254
462	0.254
463	0.255
463	0.255
463	0.255
464	0.255
464	0.255
465	0.255
465	0.255
466	0.255
466	0.256
467	0.256
467	0.256
467	0.255
468	0.255
468	0.255
469	0.255
469	0.256
470	0.256
470	0.256
471	0.256
471	0.256
472	0.256
472	0.257
472	0.257
473	0.257
473	0.258
474	0.258
474	0.258
475	0.259
475	0.259
476	0.259
476	0.259
477	0.26
477	0.26
477	0.26
478	0.261
478	0.261
479	0.261
479	0.262
480	0.262
480	0.262
481	0.263
481	0.263
482	0.264
482	0.264
482	0.264
483	0.265
483	0.266
484	0.266
484	0.265
485	0.266
485	0.266
486	0.267
486	0.267
487	0.268
487	0.269
487	0.269
488	0.27
488	0.271
489	0.272
489	0.274
490	0.275
490	0.276
491	0.277
491	0.278
492	0.279
492	0.28
492	0.281
493	0.282
493	0.283
494	0.284
494	0.285
495	0.286
495	0.287
496	0.288
496	0.29
496	0.291
497	0.292
497	0.293
498	0.295
498	0.296
499	0.297
499	0.299
500	0.301
500	0.302
501	0.304
501	0.305
501	0.306
502	0.307
502	0.309
503	0.31
503	0.312
504	0.313
504	0.315
505	0.316
505	0.317
506	0.319
506	0.32
506	0.322
507	0.323
507	0.324
508	0.326
508	0.327
509	0.329
509	0.33
510	0.332
510	0.334
511	0.335
511	0.337
511	0.339
512	0.34
512	0.342
513	0.344
513	0.345
514	0.347
514	0.349
515	0.35
515	0.352
515	0.353
516	0.355
516	0.357
517	0.359
517	0.36
518	0.361
518	0.363
519	0.364
519	0.366
520	0.367
520	0.369
520	0.371
521	0.373
521	0.374
522	0.376
522	0.377
523	0.379
523	0.381
524	0.382
524	0.383
524	0.384
525	0.385
525	0.386
526	0.387
526	0.388
527	0.389
527	0.39
528	0.391
528	0.393
529	0.394
529	0.395
529	0.396
530	0.397
530	0.398
531	0.399
531	0.4
532	0.401
532	0.402
533	0.403
533	0.403
533	0.404
534	0.405
534	0.405
535	0.406
535	0.406
536	0.406
536	0.406
537	0.407
537	0.407
538	0.408
538	0.408
538	0.409
539	0.41
539	0.411
540	0.411
540	0.411
541	0.412
541	0.412
542	0.413
542	0.413
542	0.413
543	0.413
543	0.413
544	0.413
544	0.413
545	0.413
545	0.413
546	0.414
546	0.413
547	0.413
547	0.413
547	0.413
548	0.414
548	0.414
549	0.414
549	0.414
550	0.415
550	0.415
551	0.415
551	0.416
551	0.417
552	0.418
552	0.418
553	0.419
553	0.419
554	0.419
554	0.419
555	0.419
555	0.419
556	0.419
556	0.419
556	0.419
557	0.419
557	0.419
558	0.418
558	0.418
559	0.418
559	0.418
560	0.417
560	0.417
560	0.417
561	0.417
561	0.417
562	0.416
562	0.415
563	0.415
563	0.415
564	0.414
564	0.415
564	0.415
565	0.415
565	0.415
566	0.415
566	0.415
567	0.415
567	0.415
568	0.415
568	0.414
568	0.414
569	0.413
569	0.413
570	0.412
570	0.41
571	0.41
571	0.41
572	0.409
572	0.409
573	0.408
573	0.408
573	0.407
574	0.407
574	0.407
575	0.407
575	0.408
576	0.408
576	0.407
577	0.406
577	0.406
577	0.407
578	0.407
578	0.407
579	0.407
579	0.407
580	0.406
580	0.405
581	0.404
581	0.404
581	0.404
582	0.403
582	0.403
583	0.403
583	0.402
584	0.401
584	0.4
585	0.401
585	0.401
585	0.401
586	0.401
586	0.401
587	0.4
587	0.399
588	0.398
588	0.398
589	0.397
589	0.397
590	0.396
590	0.396
590	0.397
591	0.396
591	0.395
592	0.394
592	0.393
593	0.393
593	0.393
594	0.392
594	0.391
594	0.391
595	0.391
595	0.39
596	0.39
596	0.39
597	0.391
597	0.39
598	0.389
598	0.388
598	0.388
599	0.387
599	0.385
600	0.384
600	0.383
601	0.382
601	0.381
602	0.379
602	0.379
602	0.378
603	0.378
603	0.378
604	0.378
604	0.378
605	0.377
605	0.377
606	0.376
606	0.375
606	0.374
607	0.374
607	0.373
608	0.372
608	0.37
609	0.369
609	0.369
610	0.368
610	0.367
610	0.367
611	0.367
611	0.367
612	0.367
612	0.367
613	0.367
613	0.367
614	0.365
614	0.364
614	0.363
615	0.361
615	0.36
616	0.359
616	0.357
617	0.356
617	0.354
618	0.352
618	0.351
618	0.35
619	0.349
619	0.349
620	0.348
620	0.347
621	0.346
621	0.345
622	0.344
622	0.343
622	0.341
623	0.34
623	0.339
624	0.338
624	0.336
625	0.335
625	0.334
626	0.332
626	0.33
626	0.329
627	0.327
627	0.325
628	0.323
628	0.321
629	0.319
629	0.316
630	0.313
630	0.31
630	0.308
631	0.305
631	0.301
632	0.297
632	0.293
633	0.29
633	0.286
634	0.282
634	0.278
634	0.273
635	0.269
635	0.264
636	0.259
636	0.254
637	0.248
637	0.243
638	0.237
638	0.23
638	0.224
639	0.217
639	0.209
640	0.202
640	0.195
641	0.188
641	0.181
642	0.174
642	0.167
642	0.159
643	0.152
643	0.144
644	0.135
644	0.127
645	0.119
645	0.11
646	0.102
646	0.093
646	0.084
647	0.075
647	0.066
648	0.057
648	0.048
649	0.038
649	0.029
650	0.02
650	0.011
650	0.001
651	-0.011
651	-0.025
652	-0.042
652	-0.06
653	-0.075
653	-0.088
653	-0.085
654	-0.061
654	-0.046
655	-0.049
655	-0.054
656	-0.06
656	-0.066
657	-0.07
657	-0.074
657	-0.08
658	-0.086
658	-0.117
659	-0.209
659	-0.316
660	-0.362
660	-0.39
661	-0.419
661	-0.451
661	-0.486
662	-0.52
662	-0.556
663	-0.597
663	-0.641
664	-0.688
664	-0.742
665	-0.795
665	-0.856
665	-0.913
666	-0.971
666	-1.035
667	-1.1
667	-1.167
668	-1.24
668	-1.313
669	-1.388
669	-1.464
669	-1.544
670	-1.617
670	-1.658
671	-1.832
671	-2.05
672	-2.254
672	-2.432
672	-2.553
673	-2.64
673	-2.715
674	-2.749
674	-2.766
675	-2.79
675	-2.927
676	-3.109
676	-3.06
676	-2.835
677	-2.628
677	-2.462
678	-2.278
678	-1.956
679	-1.729
679	-1.607
680	-1.517
680	-1.437
680	-1.369
681	-1.327
681	-1.269
682	-1.23
682	-1.193
683	-1.158
683	-1.141
684	-1.119
684	-1.1
684	-1.077
685	-1.053
685	-1.031
686	-1.006
686	-0.99
687	-0.963
687	-0.952
687	-0.932
688	-0.908
688	-0.887
689	-0.867
689	-0.855
690	-0.837
690	-0.825
691	-0.818
691	-0.823
691	-0.839
692	-0.831
692	-0.822
693	-0.816
693	-0.824
694	-0.819
694	-0.81
695	-0.815
695	-0.813
695	-0.796
696	-0.793
696	-0.77
697	-0.769
697	-0.783
698	-0.787
698	-0.777
698	-0.791
699	-0.795
699	-0.79
700	-0.783
700	-0.797
701	-0.795
701	-0.803
702	-0.802
702	-0.79
702	-0.781
703	-0.773
703	-0.764
704	-0.759
704	-0.758
705	-0.77
705	-0.762
705	-0.75
706	-0.749
706	-0.745
707	-0.75
707	-0.744
708	-0.742
708	-0.733
709	-0.738
709	-0.74
709	-0.729
710	-0.739
710	-0.749
711	-0.741
711	-0.741
712	-0.74
712	-0.753
713	-0.754
713	-0.762
713	-0.753
714	-0.748
714	-0.748
715	-0.738
715	-0.725
716	-0.732
716	-0.735
716	-0.728
717	-0.73
717	-0.732
718	-0.723
718	-0.721
719	-0.731
719	-0.732
720	-0.728
720	-0.738
720	-0.729
721	-0.719
721	-0.719
722	-0.707
722	-0.696
723	-0.695
723	-0.701
723	-0.687
724	-0.69
724	-0.693
725	-0.694
725	-0.703
726	-0.714
726	-0.721
727	-0.726
727	-0.742
727	-0.748
728	-0.749
728	-0.756
729	-0.755
729	-0.761
730	-0.767
730	-0.76
730	-0.75
731	-0.73
731	-0.741
732	-0.747
732	-0.746
733	-0.744
733	-0.748
734	-0.741
734	-0.74
734	-0.725
735	-0.723
735	-0.724
736	-0.736
736	-0.719
737	-0.71
737	-0.713
737	-0.722
738	-0.716
738	-0.715
739	-0.713
739	-0.726
740	-0.727
740	-0.726
741	-0.722
741	-0.725
741	-0.728
742	-0.726
742	-0.726
743	-0.733
743	-0.737
744	-0.734
744	-0.725
744	-0.726
745	-0.733
745	-0.723
746	-0.719
746	-0.717
747	-0.716
747	-0.703
748	-0.692
748	-0.699
748	-0.702
749	-0.699
749	-0.698
750	-0.688
750	-0.693
751	-0.698
751	-0.707
751	-0.711
752	-0.717
752	-0.727
753	-0.721
753	-0.718
754	-0.723
754	-0.719
754	-0.733
755	-0.747
755	-0.758
756	-0.744
756	-0.74
757	-0.738
757	-0.732
758	-0.734
758	-0.732
758	-0.736
759	-0.744
759	-0.729
760	-0.722
760	-0.717
761	-0.73
761	-0.731
761	-0.729
762	-0.736
762	-0.736
763	-0.745
763	-0.74
764	-0.736
764	-0.743
764	-0.749
765	-0.74
765	-0.725
766	-0.73
766	-0.738
767	-0.753
767	-0.748
768	-0.74
768	-0.749
768	-0.752
769	-0.77
769	-0.771
770	-0.775
770	-0.788
771	-0.787
771	-0.788
771	-0.788
772	-0.79
772	-0.789
773	-0.789
773	-0.786
774	-0.785
774	-0.787
775	-0.788
775	-0.784
775	-0.789
776	-0.79
776	-0.779
777	-0.789
777	-0.809
778	-0.807
778	-0.828
778	-0.813
779	-0.833
779	-0.841
780	-0.853
780	-0.856
781	-0.869
781	-0.866
781	-0.881
782	-0.881
782	-0.883
783	-0.867
783	-0.869
784	-0.849
784	-0.84
784	-0.851
785	-0.856
785	-0.84
786	-0.845
786	-0.821
787	-0.807
787	-0.81
788	-0.813
788	-0.822
788	-0.833
789	-0.835
789	-0.816
790	-0.796
790	-0.798
791	-0.798
791	-0.816
791	-0.822
792	-0.815
792	-0.791
793	-0.78
793	-0.757
794	-0.76
794	-0.752
794	-0.761
795	-0.755
795	-0.748
796	-0.734
796	-0.741
797	-0.734
797	-0.748
797	-0.755
798	-0.768
798	-0.764
799	-0.776
799	-0.761
800	-0.77
800	-0.761
801	-0.765
801	-0.75
801	-0.76
802	-0.767
802	-0.77
803	-0.77
803	-0.777
804	-0.773
804	-0.783
804	-0.769
805	-0.777
805	-0.764
806	-0.768
806	-0.753
807	-0.75
807	-0.731
807	-0.719
808	-0.708
808	-0.7
809	-0.687
809	-0.698
810	-0.695
810	-0.688
810	-0.685
811	-0.692
811	-0.684
812	-0.685
812	-0.689
813	-0.696
813	-0.691
813	-0.694
814	-0.696
814	-0.7
815	-0.706
815	-0.709
816	-0.701
816	-0.705
817	-0.713
817	-0.729
817	-0.743
818	-0.751
818	-0.755
819	-0.747
819	-0.747
820	-0.757
820	-0.754
820	-0.766
821	-0.763
821	-0.748
822	-0.718
822	-0.693
823	-0.692
823	-0.694
823	-0.69
824	-0.687
824	-0.688
825	-0.68
825	-0.662
826	-0.657
826	-0.667
826	-0.676
827	-0.671
827	-0.668
828	-0.646
828	-0.647
829	-0.637
829	-0.623
829	-0.615
830	-0.624
830	-0.621
831	-0.613
831	-0.603
832	-0.603
832	-0.593
832	-0.603
833	-0.597
833	-0.597
834	-0.596
834	-0.604
835	-0.591
835	-0.585
835	-0.582
836	-0.578
836	-0.574
837	-0.571
837	-0.561
838	-0.553
838	-0.539
839	-0.525
839	-0.511
839	-0.501
840	-0.49
840	-0.487
841	-0.477
841	-0.468
842	-0.46
842	-0.451
842	-0.443
843	-0.439
843	-0.436
844	-0.426
844	-0.419
845	-0.412
845	-0.401
845	-0.387
846	-0.376
846	-0.363
847	-0.35
847	-0.339
848	-0.326
848	-0.313
848	-0.3
849	-0.288
849	-0.277
850	-0.262
850	-0.255
851	-0.245
851	-0.232
851	-0.224
852	-0.208
852	-0.196
853	-0.186
853	-0.181
854	-0.17
854	-0.156
854	-0.144
855	-0.133
855	-0.127
856	-0.117
856	-0.109
857	-0.102
857	-0.094
857	-0.082
858	-0.071
858	-0.063
859	-0.055
859	-0.045
860	-0.034
860	-0.02
860	-0.012
861	-0.003
861	0.005
862	0.014
862	0.021
863	0.028
863	0.036
863	0.042
864	0.046
864	0.052
865	0.058
865	0.063
866	0.067
866	0.071
866	0.075
867	0.078
867	0.082
868	0.085
868	0.088
869	0.091
869	0.093
869	0.095
870	0.097
870	0.099
871	0.101
871	0.103
872	0.104
872	0.104
872	0.105
873	0.105
873	0.106
874	0.106
874	0.105
875	0.104
875	0.103
875	0.102
876	0.101
876	0.1
877	0.099
877	0.098
878	0.097
878	0.095
878	0.094
879	0.092
879	0.092
880	0.091
880	0.091
881	0.091
881	0.091
881	0.091
882	0.09
882	0.089
883	0.088
883	0.086
884	0.086
884	0.085
884	0.084
885	0.083
885	0.083
886	0.082
886	0.081
887	0.081
887	0.081
887	0.081
888	0.082
888	0.081
889	0.082
889	0.082
890	0.082
890	0.081
890	0.081
891	0.081
891	0.081
892	0.082
892	0.082
893	0.081
893	0.081
893	0.081
894	0.081
894	0.081
895	0.081
895	0.081
895	0.081
896	0.08
896	0.079
897	0.077
897	0.076
898	0.075
898	0.075
898	0.075
899	0.074
899	0.075
900	0.075
900	0.075
901	0.076
901	0.076
901	0.077
902	0.078
902	0.079
903	0.079
903	0.08
904	0.08
904	0.081
904	0.081
905	0.082
905	0.082
906	0.082
906	0.083
907	0.082
907	0.082
907	0.082
908	0.081
908	0.08
909	0.079
909	0.079
910	0.078
910	0.077
910	0.077
911	0.077
911	0.078
912	0.079
912	0.079
913	0.08
913	0.081
913	0.082
914	0.083
914	0.084
915	0.085
915	0.085
916	0.086
916	0.086
916	0.086
917	0.087
917	0.087
918	0.086
918	0.086
918	0.086
919	0.085
919	0.085
920	0.085
920	0.085
921	0.085
921	0.085
921	0.084
922	0.084
922	0.084
923	0.083
923	0.083
924	0.083
924	0.082
924	0.081
925	0.08
925	0.079
926	0.078
926	0.077
927	0.076
927	0.076
927	0.075
928	0.074
928	0.074
929	0.073
929	0.073
930	0.072
930	0.071
930	0.07
931	0.07
931	0.069
932	0.069
932	0.068
933	0.067
933	0.066
933	0.065
934	0.064
934	0.063
935	0.062
935	0.062
935	0.061
936	0.06
936	0.059
937	0.058
937	0.058
938	0.058
938	0.058
938	0.058
939	0.058
939	0.058
940	0.058
940	0.058
941	0.059
941	0.06
941	0.061
942	0.061
942	0.061
943	0.062
943	0.062
944	0.061
944	0.061
944	0.06
945	0.06
945	0.059
946	0.057
946	0.056
946	0.055
947	0.054
947	0.054
948	0.053
948	0.053
949	0.053
949	0.053
949	0.053
950	0.054
950	0.054
951	0.055
951	0.056
952	0.057
952	0.058
952	0.059
953	0.06
953	0.061
954	0.061
954	0.062
955	0.063
955	0.064
955	0.065
956	0.066
956	0.066
957	0.066
957	0.067
957	0.067
958	0.067
958	0.068
959	0.068
959	0.068
960	0.068
960	0.068
960	0.069
961	0.068
961	0.069
962	0.069
962	0.069
963	0.069
963	0.068
963	0.068
964	0.068
964	0.068
965	0.068
965	0.068
966	0.068
966	0.068
966	0.068
967	0.067
967	0.066
968	0.066
968	0.065
968	0.065
969	0.064
969	0.064
970	0.063
970	0.063
971	0.063
971	0.063
971	0.064
972	0.064
972	0.064
973	0.064
973	0.064
974	0.064
974	0.064
974	0.064
975	0.064
975	0.064
976	0.063
976	0.062
976	0.062
977	0.062
977	0.062
978	0.062
978	0.062
979	0.062
979	0.062
979	0.062
980	0.062
980	0.062
981	0.062
981	0.062
982	0.062
982	0.061
982	0.061
983	0.06
983	0.06
984	0.059
984	0.059
984	0.059
985	0.058
985	0.058
986	0.058
986	0.057
987	0.057
987	0.056
987	0.056
988	0.055
988	0.054
989	0.053
989	0.052
990	0.052
990	0.051
990	0.051
991	0.051
991	0.05
992	0.05
992	0.05
992	0.049
993	0.049
993	0.049
994	0.049
994	0.049
995	0.049
995	0.048
995	0.048
996	0.047
996	0.046
997	0.046
997	0.046
997	0.046
998	0.046
998	0.046
999	0.046
999	0.047
1000	0.047
1000	0.047
1000	0.048
1001	0.049
1001	0.049
1002	0.049
1002	0.05
1003	0.05
1003	0.05
1003	0.05
1004	0.049
1004	0.049
1005	0.048
1005	0.047
1005	0.047
1006	0.046
1006	0.045
1007	0.044
1007	0.043
1008	0.042
1008	0.041
1008	0.041
1009	0.041
1009	0.041
1010	0.041
1010	0.041
1010	0.041
1011	0.041
1011	0.041
1012	0.041
1012	0.04
1013	0.04
1013	0.039
1013	0.038
1014	0.038
1014	0.037
1015	0.036
1015	0.036
1016	0.035
1016	0.034
1016	0.033
1017	0.032
1017	0.031
1018	0.031
1018	0.03
1018	0.029
1019	0.028
1019	0.027
1020	0.027
1020	0.026
1021	0.026
1021	0.025
1021	0.024
1022	0.024
1022	0.023
1023	0.023
1023	0.023
1023	0.022
1024	0.022
1024	0.022
1025	0.022
1025	0.022
1026	0.022
1026	0.023
1026	0.023
1027	0.023
1027	0.024
1028	0.024
1028	0.024
1028	0.024
1029	0.024
1029	0.024
1030	0.023
1030	0.023
1031	0.022
1031	0.022
1031	0.022
1032	0.021
1032	0.021
1033	0.021
1033	0.022
1033	0.022
1034	0.021
1034	0.021
1035	0.021
1035	0.021
1036	0.021
1036	0.021
1036	0.021
1037	0.021
1037	0.021
1038	0.021
1038	0.021
1039	0.022
1039	0.022
1039	0.022
1040	0.023
1040	0.023
1041	0.024
1041	0.024
1041	0.024
1042	0.024
1042	0.024
1043	0.023
1043	0.022
1044	0.022
1044	0.021
1044	0.021
1045	0.019
1045	0.019
1046	0.017
1046	0.017
1046	0.016
1047	0.016
1047	0.016
1048	0.017
1048	0.017
1049	0.017
1049	0.017
1049	0.017
1050	0.017
1050	0.018
1051	0.018
1051	0.018
1051	0.019
1052	0.019
1052	0.019
1053	0.02
1053	0.02
1053	0.02
1054	0.02
1054	0.02
1055	0.02
1055	0.02
1056	0.019
1056	0.018
1056	0.017
1057	0.016
1057	0.016
1058	0.015
1058	0.014
1058	0.014
1059	0.014
1059	0.013
1060	0.012
1060	0.011
1061	0.011
1061	0.011
1061	0.011
1062	0.01
1062	0.01
1063	0.01
1063	0.01
1063	0.01
1064	0.01
1064	0.01
1065	0.01
1065	0.01
1066	0.009
1066	0.009
1066	0.009
1067	0.009
1067	0.009
1068	0.008
1068	0.008
1068	0.007
1069	0.007
1069	0.007
1070	0.006
1070	0.006
1071	0.006
1071	0.006
1071	0.005
1072	0.005
1072	0.004
1073	0.004
1073	0.004
1073	0.003
1074	0.003
1074	0.004
1075	0.003
1075	0.003
1076	0.002
1076	0.002
1076	0.002
1077	0.001
1077	0.001
1078	0
1078	-0
1078	-0.001
1079	-0.002
1079	-0.002
1080	-0.003
1080	-0.003
1080	-0.004
1081	-0.005
1081	-0.005
1082	-0.006
1082	-0.007
1083	-0.008
1083	-0.009
1083	-0.01
1084	-0.011
1084	-0.012
1085	-0.013
1085	-0.013
1085	-0.014
1086	-0.015
1086	-0.015
1087	-0.015
1087	-0.015
1088	-0.016
1088	-0.016
1088	-0.017
1089	-0.018
1089	-0.019
1090	-0.02
1090	-0.021
1090	-0.022
1091	-0.023
1091	-0.024
1092	-0.026
1092	-0.025
1092	-0.026
1093	-0.027
1093	-0.026
1094	-0.027
1094	-0.028
1095	-0.029
1095	-0.029
1095	-0.029
1096	-0.031
1096	-0.032
1097	-0.032
1097	-0.033
1097	-0.034
1098	-0.036
1098	-0.037
1099	-0.038
1099	-0.039
1100	-0.04
1100	-0.041
1100	-0.044
1101	-0.045
1101	-0.048
1102	-0.05
1102	-0.052
1102	-0.053
1103	-0.056
1103	-0.058
1104	-0.061
1104	-0.063
1104	-0.066
1105	-0.068
1105	-0.071
1106	-0.076
1106	-0.078
1107	-0.084
1107	-0.088
1107	-0.093
1108	-0.095
1108	-0.097
1109	-0.101
1109	-0.105
1109	-0.108
1110	-0.11
1110	-0.113
1111	-0.12
1111	-0.117
