Data from 17C_3.1A_35min_2sec_int_Absorbance__553__02956.txt Node

Date: Mon Jun 19 18:37:52 CEST 2023
User: Marek
Spectrometer: MAYP115816
Trigger mode: 0
Integration Time (sec): 2.500000E-1
Scans to average: 10
Electric dark correction enabled: true
Nonlinearity correction enabled: true
Boxcar width: 5
XAxis mode: Wavelengths
Number of Pixels in Spectrum: 2068
>>>>>Begin Spectral Data<<<<<
199	-0.759
199	-0.773
200	-0.679
200	-0.626
201	-0.587
201	-0.572
202	-0.551
202	-0.536
203	-0.529
203	-0.524
204	-0.512
204	-0.499
205	-0.477
205	-0.469
205	-0.468
206	-0.471
206	-0.473
207	-0.465
207	-0.47
208	-0.472
208	-0.47
209	-0.465
209	-0.465
210	-0.468
210	-0.476
211	-0.476
211	-0.479
212	-0.482
212	-0.491
213	-0.489
213	-0.488
213	-0.496
214	-0.491
214	-0.49
215	-0.488
215	-0.493
216	-0.495
216	-0.502
217	-0.497
217	-0.503
218	-0.506
218	-0.506
219	-0.508
219	-0.518
220	-0.522
220	-0.533
221	-0.533
221	-0.536
221	-0.53
222	-0.526
222	-0.525
223	-0.528
223	-0.532
224	-0.535
224	-0.536
225	-0.531
225	-0.525
226	-0.529
226	-0.531
227	-0.536
227	-0.547
228	-0.549
228	-0.55
229	-0.551
229	-0.545
229	-0.54
230	-0.544
230	-0.546
231	-0.542
231	-0.532
232	-0.526
232	-0.525
233	-0.519
233	-0.518
234	-0.519
234	-0.517
235	-0.519
235	-0.525
236	-0.525
236	-0.528
236	-0.533
237	-0.539
237	-0.538
238	-0.546
238	-0.543
239	-0.541
239	-0.548
240	-0.549
240	-0.546
241	-0.551
241	-0.549
242	-0.554
242	-0.55
243	-0.546
243	-0.546
243	-0.555
244	-0.556
244	-0.555
245	-0.57
245	-0.571
246	-0.577
246	-0.584
247	-0.586
247	-0.59
248	-0.595
248	-0.592
249	-0.594
249	-0.602
250	-0.601
250	-0.596
250	-0.595
251	-0.591
251	-0.591
252	-0.593
252	-0.583
253	-0.589
253	-0.602
254	-0.602
254	-0.599
255	-0.608
255	-0.599
256	-0.597
256	-0.609
257	-0.604
257	-0.601
258	-0.618
258	-0.616
258	-0.612
259	-0.607
259	-0.617
260	-0.615
260	-0.621
261	-0.631
261	-0.621
262	-0.621
262	-0.621
263	-0.611
263	-0.606
264	-0.603
264	-0.611
265	-0.607
265	-0.617
265	-0.621
266	-0.621
266	-0.62
267	-0.63
267	-0.639
268	-0.654
268	-0.663
269	-0.662
269	-0.657
270	-0.662
270	-0.664
271	-0.663
271	-0.667
272	-0.672
272	-0.668
272	-0.66
273	-0.656
273	-0.664
274	-0.669
274	-0.673
275	-0.672
275	-0.665
276	-0.67
276	-0.663
277	-0.669
277	-0.687
278	-0.698
278	-0.694
278	-0.69
279	-0.695
279	-0.705
280	-0.704
280	-0.704
281	-0.699
281	-0.705
282	-0.696
282	-0.694
283	-0.684
283	-0.686
284	-0.68
284	-0.67
285	-0.665
285	-0.662
285	-0.659
286	-0.667
286	-0.66
287	-0.66
287	-0.645
288	-0.637
288	-0.646
289	-0.66
289	-0.669
290	-0.658
290	-0.657
291	-0.657
291	-0.65
292	-0.656
292	-0.661
292	-0.667
293	-0.672
293	-0.662
294	-0.65
294	-0.641
295	-0.639
295	-0.637
296	-0.633
296	-0.63
297	-0.622
297	-0.606
298	-0.598
298	-0.606
298	-0.595
299	-0.587
299	-0.587
300	-0.584
300	-0.578
301	-0.574
301	-0.576
302	-0.584
302	-0.593
303	-0.579
303	-0.564
304	-0.567
304	-0.567
305	-0.568
305	-0.566
305	-0.564
306	-0.548
306	-0.54
307	-0.526
307	-0.527
308	-0.543
308	-0.542
309	-0.541
309	-0.532
310	-0.521
310	-0.517
311	-0.509
311	-0.518
311	-0.515
312	-0.512
312	-0.511
313	-0.496
313	-0.498
314	-0.495
314	-0.499
315	-0.501
315	-0.501
316	-0.498
316	-0.49
317	-0.482
317	-0.476
318	-0.465
318	-0.461
318	-0.457
319	-0.448
319	-0.443
320	-0.436
320	-0.436
321	-0.441
321	-0.44
322	-0.434
322	-0.429
323	-0.429
323	-0.425
324	-0.419
324	-0.41
324	-0.4
325	-0.39
325	-0.374
326	-0.359
326	-0.34
327	-0.326
327	-0.307
328	-0.281
328	-0.262
329	-0.238
329	-0.216
330	-0.19
330	-0.158
330	-0.13
331	-0.103
331	-0.078
332	-0.052
332	-0.03
333	-0.009
333	0.016
334	0.035
334	0.053
335	0.07
335	0.083
336	0.096
336	0.11
336	0.121
337	0.132
337	0.141
338	0.149
338	0.155
339	0.162
339	0.168
340	0.172
340	0.176
341	0.18
341	0.183
342	0.187
342	0.19
342	0.192
343	0.194
343	0.197
344	0.198
344	0.2
345	0.202
345	0.202
346	0.203
346	0.204
347	0.205
347	0.205
348	0.206
348	0.206
348	0.207
349	0.207
349	0.207
350	0.207
350	0.208
351	0.208
351	0.208
352	0.208
352	0.208
353	0.209
353	0.208
354	0.208
354	0.208
354	0.208
355	0.208
355	0.208
356	0.208
356	0.208
357	0.207
357	0.206
358	0.206
358	0.206
359	0.205
359	0.205
360	0.205
360	0.205
360	0.205
361	0.205
361	0.205
362	0.205
362	0.205
363	0.205
363	0.205
364	0.205
364	0.205
365	0.205
365	0.205
366	0.206
366	0.206
366	0.206
367	0.206
367	0.206
368	0.206
368	0.206
369	0.206
369	0.206
370	0.206
370	0.205
371	0.205
371	0.205
372	0.205
372	0.205
372	0.205
373	0.205
373	0.205
374	0.205
374	0.205
375	0.205
375	0.205
376	0.205
376	0.205
377	0.205
377	0.205
378	0.205
378	0.205
378	0.205
379	0.205
379	0.205
380	0.205
380	0.205
381	0.205
381	0.204
382	0.204
382	0.204
383	0.204
383	0.204
383	0.204
384	0.203
384	0.203
385	0.203
385	0.204
386	0.204
386	0.204
387	0.204
387	0.204
388	0.204
388	0.204
389	0.204
389	0.204
389	0.204
390	0.204
390	0.204
391	0.204
391	0.204
392	0.204
392	0.204
393	0.204
393	0.204
394	0.203
394	0.203
394	0.203
395	0.203
395	0.203
396	0.203
396	0.202
397	0.202
397	0.202
398	0.203
398	0.203
399	0.203
399	0.203
400	0.203
400	0.203
400	0.203
401	0.202
401	0.202
402	0.202
402	0.202
403	0.202
403	0.202
404	0.202
404	0.202
405	0.202
405	0.201
405	0.201
406	0.201
406	0.201
407	0.201
407	0.201
408	0.2
408	0.2
409	0.2
409	0.2
410	0.2
410	0.201
411	0.201
411	0.201
411	0.201
412	0.201
412	0.201
413	0.201
413	0.201
414	0.201
414	0.201
415	0.2
415	0.2
416	0.2
416	0.2
416	0.2
417	0.2
417	0.2
418	0.2
418	0.2
419	0.2
419	0.2
420	0.2
420	0.2
421	0.2
421	0.2
421	0.201
422	0.201
422	0.201
423	0.2
423	0.2
424	0.2
424	0.2
425	0.199
425	0.199
426	0.199
426	0.199
427	0.198
427	0.198
427	0.198
428	0.198
428	0.198
429	0.198
429	0.198
430	0.198
430	0.198
431	0.198
431	0.198
432	0.197
432	0.197
432	0.197
433	0.197
433	0.197
434	0.197
434	0.196
435	0.196
435	0.196
436	0.196
436	0.196
437	0.196
437	0.196
437	0.196
438	0.196
438	0.196
439	0.196
439	0.197
440	0.196
440	0.196
441	0.196
441	0.196
442	0.196
442	0.196
442	0.196
443	0.196
443	0.196
444	0.196
444	0.196
445	0.196
445	0.196
446	0.196
446	0.196
447	0.196
447	0.196
447	0.196
448	0.196
448	0.196
449	0.196
449	0.196
450	0.196
450	0.196
451	0.195
451	0.195
452	0.195
452	0.195
452	0.195
453	0.195
453	0.195
454	0.195
454	0.194
455	0.194
455	0.194
456	0.194
456	0.194
457	0.194
457	0.194
458	0.194
458	0.194
458	0.194
459	0.194
459	0.194
460	0.194
460	0.193
461	0.193
461	0.193
462	0.193
462	0.194
463	0.194
463	0.194
463	0.194
464	0.194
464	0.194
465	0.194
465	0.194
466	0.194
466	0.195
467	0.195
467	0.195
467	0.194
468	0.194
468	0.194
469	0.195
469	0.195
470	0.195
470	0.195
471	0.195
471	0.195
472	0.195
472	0.195
472	0.196
473	0.196
473	0.196
474	0.196
474	0.195
475	0.196
475	0.196
476	0.196
476	0.196
477	0.196
477	0.196
477	0.195
478	0.196
478	0.196
479	0.196
479	0.196
480	0.196
480	0.196
481	0.197
481	0.197
482	0.197
482	0.198
482	0.198
483	0.198
483	0.199
484	0.199
484	0.198
485	0.198
485	0.198
486	0.198
486	0.198
487	0.199
487	0.199
487	0.199
488	0.2
488	0.2
489	0.201
489	0.202
490	0.203
490	0.203
491	0.204
491	0.205
492	0.205
492	0.206
492	0.207
493	0.207
493	0.208
494	0.208
494	0.209
495	0.209
495	0.21
496	0.211
496	0.211
496	0.212
497	0.213
497	0.214
498	0.215
498	0.216
499	0.216
499	0.217
500	0.218
500	0.219
501	0.22
501	0.22
501	0.221
502	0.221
502	0.222
503	0.223
503	0.223
504	0.224
504	0.225
505	0.226
505	0.227
506	0.228
506	0.229
506	0.23
507	0.23
507	0.231
508	0.232
508	0.233
509	0.234
509	0.235
510	0.236
510	0.237
511	0.238
511	0.239
511	0.24
512	0.241
512	0.242
513	0.243
513	0.243
514	0.244
514	0.246
515	0.246
515	0.247
515	0.247
516	0.248
516	0.25
517	0.25
517	0.251
518	0.252
518	0.253
519	0.253
519	0.254
520	0.255
520	0.256
520	0.257
521	0.258
521	0.259
522	0.26
522	0.262
523	0.263
523	0.264
524	0.265
524	0.266
524	0.266
525	0.267
525	0.267
526	0.268
526	0.269
527	0.27
527	0.27
528	0.27
528	0.271
529	0.272
529	0.273
529	0.273
530	0.275
530	0.275
531	0.276
531	0.276
532	0.277
532	0.278
533	0.279
533	0.279
533	0.28
534	0.28
534	0.28
535	0.28
535	0.28
536	0.28
536	0.28
537	0.28
537	0.28
538	0.281
538	0.281
538	0.282
539	0.282
539	0.283
540	0.283
540	0.283
541	0.284
541	0.284
542	0.285
542	0.285
542	0.285
543	0.286
543	0.286
544	0.286
544	0.286
545	0.287
545	0.287
546	0.288
546	0.288
547	0.288
547	0.288
547	0.288
548	0.288
548	0.289
549	0.289
549	0.289
550	0.29
550	0.29
551	0.29
551	0.291
551	0.292
552	0.294
552	0.294
553	0.295
553	0.296
554	0.296
554	0.296
555	0.296
555	0.296
556	0.297
556	0.296
556	0.297
557	0.296
557	0.296
558	0.296
558	0.296
559	0.296
559	0.296
560	0.296
560	0.296
560	0.296
561	0.296
561	0.296
562	0.296
562	0.296
563	0.295
563	0.295
564	0.296
564	0.296
564	0.296
565	0.297
565	0.298
566	0.298
566	0.298
567	0.298
567	0.299
568	0.299
568	0.299
568	0.299
569	0.299
569	0.298
570	0.297
570	0.296
571	0.297
571	0.296
572	0.296
572	0.296
573	0.296
573	0.295
573	0.295
574	0.295
574	0.296
575	0.296
575	0.297
576	0.297
576	0.297
577	0.297
577	0.297
577	0.298
578	0.298
578	0.299
579	0.3
579	0.301
580	0.3
580	0.299
581	0.298
581	0.299
581	0.299
582	0.299
582	0.299
583	0.3
583	0.299
584	0.298
584	0.298
585	0.299
585	0.3
585	0.3
586	0.3
586	0.3
587	0.3
587	0.3
588	0.299
588	0.3
589	0.3
589	0.3
590	0.3
590	0.301
590	0.302
591	0.302
591	0.302
592	0.302
592	0.301
593	0.301
593	0.301
594	0.301
594	0.301
594	0.301
595	0.301
595	0.301
596	0.301
596	0.303
597	0.304
597	0.304
598	0.304
598	0.304
598	0.304
599	0.304
599	0.303
600	0.302
600	0.301
601	0.301
601	0.3
602	0.299
602	0.299
602	0.298
603	0.299
603	0.3
604	0.3
604	0.301
605	0.302
605	0.303
606	0.302
606	0.302
606	0.302
607	0.302
607	0.302
608	0.301
608	0.3
609	0.3
609	0.3
610	0.3
610	0.299
610	0.3
611	0.301
611	0.302
612	0.303
612	0.304
613	0.305
613	0.305
614	0.304
614	0.303
614	0.303
615	0.302
615	0.302
616	0.301
616	0.3
617	0.299
617	0.298
618	0.297
618	0.297
618	0.297
619	0.297
619	0.298
620	0.298
620	0.297
621	0.297
621	0.297
622	0.297
622	0.297
622	0.296
623	0.296
623	0.296
624	0.296
624	0.295
625	0.294
625	0.294
626	0.293
626	0.293
626	0.292
627	0.292
627	0.291
628	0.29
628	0.289
629	0.287
629	0.286
630	0.284
630	0.282
630	0.281
631	0.279
631	0.277
632	0.274
632	0.272
633	0.27
633	0.267
634	0.265
634	0.262
634	0.26
635	0.257
635	0.253
636	0.25
636	0.246
637	0.243
637	0.239
638	0.234
638	0.23
638	0.225
639	0.22
639	0.215
640	0.21
640	0.204
641	0.199
641	0.194
642	0.188
642	0.183
642	0.178
643	0.172
643	0.166
644	0.159
644	0.152
645	0.145
645	0.139
646	0.132
646	0.124
646	0.117
647	0.109
647	0.101
648	0.094
648	0.086
649	0.077
649	0.069
650	0.061
650	0.052
650	0.043
651	0.031
651	0.018
652	0.003
652	-0.013
653	-0.028
653	-0.041
653	-0.037
654	-0.016
654	-0.006
655	-0.01
655	-0.015
656	-0.021
656	-0.028
657	-0.033
657	-0.038
657	-0.044
658	-0.051
658	-0.082
659	-0.171
659	-0.273
660	-0.318
660	-0.346
661	-0.374
661	-0.405
661	-0.438
662	-0.471
662	-0.505
663	-0.543
663	-0.585
664	-0.629
664	-0.68
665	-0.73
665	-0.787
665	-0.843
666	-0.899
666	-0.96
667	-1.024
667	-1.088
668	-1.16
668	-1.232
669	-1.305
669	-1.378
669	-1.454
670	-1.519
670	-1.547
671	-1.672
671	-1.961
672	-2.193
672	-2.386
672	-2.517
673	-2.61
673	-2.691
674	-2.734
674	-2.753
675	-2.778
675	-2.919
676	-3.117
676	-3.068
676	-2.844
677	-2.64
677	-2.477
678	-2.3
678	-2.001
679	-1.717
679	-1.58
680	-1.486
680	-1.404
680	-1.333
681	-1.29
681	-1.231
682	-1.192
682	-1.156
683	-1.121
683	-1.105
684	-1.085
684	-1.067
684	-1.045
685	-1.022
685	-1.002
686	-0.977
686	-0.962
687	-0.939
687	-0.927
687	-0.909
688	-0.883
688	-0.863
689	-0.843
689	-0.832
690	-0.813
690	-0.801
691	-0.794
691	-0.799
691	-0.814
692	-0.806
692	-0.799
693	-0.796
693	-0.804
694	-0.799
694	-0.793
695	-0.797
695	-0.795
695	-0.781
696	-0.778
696	-0.758
697	-0.759
697	-0.775
698	-0.776
698	-0.767
698	-0.782
699	-0.784
699	-0.782
700	-0.774
700	-0.789
701	-0.788
701	-0.795
702	-0.796
702	-0.784
702	-0.777
703	-0.768
703	-0.759
704	-0.756
704	-0.754
705	-0.767
705	-0.76
705	-0.748
706	-0.747
706	-0.742
707	-0.746
707	-0.742
708	-0.742
708	-0.735
709	-0.739
709	-0.742
709	-0.734
710	-0.743
710	-0.751
711	-0.744
711	-0.743
712	-0.743
712	-0.755
713	-0.754
713	-0.761
713	-0.75
714	-0.747
714	-0.747
715	-0.738
715	-0.726
716	-0.732
716	-0.735
716	-0.729
717	-0.73
717	-0.732
718	-0.722
718	-0.724
719	-0.729
719	-0.732
720	-0.727
720	-0.737
720	-0.73
721	-0.721
721	-0.721
722	-0.708
722	-0.698
723	-0.696
723	-0.699
723	-0.686
724	-0.688
724	-0.692
725	-0.689
725	-0.697
726	-0.711
726	-0.714
727	-0.719
727	-0.734
727	-0.742
728	-0.744
728	-0.751
729	-0.752
729	-0.755
730	-0.764
730	-0.756
730	-0.744
731	-0.728
731	-0.74
732	-0.745
732	-0.746
733	-0.745
733	-0.749
734	-0.743
734	-0.745
734	-0.73
735	-0.73
735	-0.73
736	-0.74
736	-0.727
737	-0.719
737	-0.719
737	-0.729
738	-0.724
738	-0.722
739	-0.718
739	-0.731
740	-0.732
740	-0.732
741	-0.729
741	-0.728
741	-0.733
742	-0.731
742	-0.731
743	-0.739
743	-0.745
744	-0.744
744	-0.736
744	-0.735
745	-0.742
745	-0.733
746	-0.731
746	-0.726
747	-0.727
747	-0.713
748	-0.7
748	-0.706
748	-0.706
749	-0.704
749	-0.704
750	-0.693
750	-0.697
751	-0.7
751	-0.71
751	-0.712
752	-0.717
752	-0.728
753	-0.723
753	-0.72
754	-0.723
754	-0.718
754	-0.735
755	-0.75
755	-0.763
756	-0.751
756	-0.748
757	-0.744
757	-0.74
758	-0.742
758	-0.738
758	-0.743
759	-0.752
759	-0.733
760	-0.727
760	-0.722
761	-0.733
761	-0.731
761	-0.734
762	-0.74
762	-0.74
763	-0.751
763	-0.746
764	-0.742
764	-0.75
764	-0.755
765	-0.745
765	-0.731
766	-0.738
766	-0.741
767	-0.755
767	-0.749
768	-0.74
768	-0.748
768	-0.752
769	-0.769
769	-0.77
770	-0.773
770	-0.787
771	-0.785
771	-0.788
771	-0.79
772	-0.793
772	-0.792
773	-0.793
773	-0.788
774	-0.786
774	-0.787
775	-0.792
775	-0.786
775	-0.793
776	-0.791
776	-0.78
777	-0.789
777	-0.81
778	-0.807
778	-0.828
778	-0.816
779	-0.838
779	-0.844
780	-0.858
780	-0.858
781	-0.873
781	-0.869
781	-0.883
782	-0.884
782	-0.886
783	-0.872
783	-0.87
784	-0.852
784	-0.841
784	-0.85
785	-0.858
785	-0.842
786	-0.847
786	-0.824
787	-0.808
787	-0.81
788	-0.814
788	-0.824
788	-0.835
789	-0.837
789	-0.819
790	-0.799
790	-0.801
791	-0.8
791	-0.817
791	-0.828
792	-0.82
792	-0.794
793	-0.783
793	-0.76
794	-0.762
794	-0.754
794	-0.762
795	-0.76
795	-0.754
796	-0.737
796	-0.743
797	-0.738
797	-0.752
797	-0.76
798	-0.773
798	-0.771
799	-0.782
799	-0.766
800	-0.772
800	-0.766
801	-0.774
801	-0.759
801	-0.769
802	-0.777
802	-0.776
803	-0.776
803	-0.784
804	-0.778
804	-0.79
804	-0.776
805	-0.778
805	-0.763
806	-0.767
806	-0.751
807	-0.748
807	-0.728
807	-0.716
808	-0.707
808	-0.701
809	-0.686
809	-0.697
810	-0.696
810	-0.692
810	-0.687
811	-0.696
811	-0.686
812	-0.688
812	-0.693
813	-0.696
813	-0.691
813	-0.696
814	-0.696
814	-0.697
815	-0.702
815	-0.705
816	-0.696
816	-0.704
817	-0.71
817	-0.726
817	-0.74
818	-0.751
818	-0.755
819	-0.751
819	-0.753
820	-0.762
820	-0.759
820	-0.769
821	-0.766
821	-0.756
822	-0.725
822	-0.701
823	-0.698
823	-0.701
823	-0.696
824	-0.689
824	-0.69
825	-0.682
825	-0.663
826	-0.659
826	-0.665
826	-0.674
827	-0.667
827	-0.661
828	-0.64
828	-0.641
829	-0.632
829	-0.619
829	-0.611
830	-0.622
830	-0.617
831	-0.607
831	-0.596
832	-0.596
832	-0.589
832	-0.597
833	-0.592
833	-0.594
834	-0.593
834	-0.602
835	-0.588
835	-0.585
835	-0.58
836	-0.579
836	-0.574
837	-0.571
837	-0.561
838	-0.551
838	-0.538
839	-0.524
839	-0.509
839	-0.501
840	-0.49
840	-0.486
841	-0.474
841	-0.467
842	-0.463
842	-0.452
842	-0.445
843	-0.438
843	-0.432
844	-0.423
844	-0.414
845	-0.405
845	-0.394
845	-0.38
846	-0.367
846	-0.349
847	-0.338
847	-0.326
848	-0.314
848	-0.303
848	-0.287
849	-0.274
849	-0.26
850	-0.247
850	-0.239
851	-0.23
851	-0.219
851	-0.208
852	-0.191
852	-0.177
853	-0.167
853	-0.16
854	-0.147
854	-0.136
854	-0.124
855	-0.112
855	-0.105
856	-0.093
856	-0.085
857	-0.079
857	-0.069
857	-0.056
858	-0.043
858	-0.036
859	-0.027
859	-0.015
860	-0.005
860	0.009
860	0.018
861	0.029
861	0.039
862	0.047
862	0.054
863	0.061
863	0.071
863	0.078
864	0.082
864	0.089
865	0.096
865	0.101
866	0.106
866	0.11
866	0.113
867	0.118
867	0.122
868	0.125
868	0.129
869	0.133
869	0.136
869	0.138
870	0.141
870	0.143
871	0.146
871	0.148
872	0.149
872	0.15
872	0.15
873	0.151
873	0.151
874	0.15
874	0.15
875	0.149
875	0.147
875	0.146
876	0.145
876	0.143
877	0.142
877	0.14
878	0.139
878	0.137
878	0.135
879	0.134
879	0.133
880	0.132
880	0.132
881	0.132
881	0.132
881	0.132
882	0.131
882	0.13
883	0.129
883	0.128
884	0.127
884	0.126
884	0.125
885	0.124
885	0.123
886	0.123
886	0.122
887	0.122
887	0.122
887	0.122
888	0.123
888	0.122
889	0.123
889	0.123
890	0.123
890	0.122
890	0.123
891	0.122
891	0.123
892	0.123
892	0.123
893	0.122
893	0.122
893	0.122
894	0.122
894	0.122
895	0.122
895	0.122
895	0.121
896	0.12
896	0.119
897	0.118
897	0.117
898	0.116
898	0.115
898	0.114
899	0.114
899	0.114
900	0.114
900	0.114
901	0.115
901	0.116
901	0.117
902	0.118
902	0.118
903	0.119
903	0.119
904	0.12
904	0.12
904	0.121
905	0.122
905	0.122
906	0.122
906	0.123
907	0.122
907	0.122
907	0.122
908	0.122
908	0.121
909	0.121
909	0.12
910	0.12
910	0.119
910	0.119
911	0.119
911	0.12
912	0.12
912	0.12
913	0.12
913	0.121
913	0.122
914	0.123
914	0.123
915	0.123
915	0.124
916	0.124
916	0.125
916	0.125
917	0.125
917	0.125
918	0.125
918	0.125
918	0.124
919	0.124
919	0.124
920	0.124
920	0.124
921	0.124
921	0.123
921	0.123
922	0.123
922	0.123
923	0.122
923	0.122
924	0.122
924	0.121
924	0.121
925	0.12
925	0.119
926	0.118
926	0.117
927	0.117
927	0.116
927	0.116
928	0.115
928	0.115
929	0.114
929	0.114
930	0.114
930	0.113
930	0.112
931	0.112
931	0.112
932	0.112
932	0.111
933	0.11
933	0.109
933	0.108
934	0.106
934	0.105
935	0.104
935	0.103
935	0.102
936	0.101
936	0.1
937	0.099
937	0.098
938	0.098
938	0.098
938	0.098
939	0.098
939	0.098
940	0.099
940	0.099
941	0.099
941	0.1
941	0.101
942	0.101
942	0.101
943	0.102
943	0.101
944	0.101
944	0.101
944	0.1
945	0.099
945	0.097
946	0.096
946	0.094
946	0.093
947	0.092
947	0.091
948	0.091
948	0.09
949	0.09
949	0.09
949	0.09
950	0.09
950	0.09
951	0.091
951	0.091
952	0.092
952	0.093
952	0.094
953	0.094
953	0.096
954	0.096
954	0.097
955	0.097
955	0.099
955	0.099
956	0.1
956	0.101
957	0.101
957	0.101
957	0.101
958	0.102
958	0.103
959	0.104
959	0.104
960	0.105
960	0.105
960	0.106
961	0.106
961	0.107
962	0.108
962	0.107
963	0.108
963	0.107
963	0.107
964	0.107
964	0.106
965	0.106
965	0.106
966	0.105
966	0.105
966	0.104
967	0.104
967	0.103
968	0.102
968	0.102
968	0.101
969	0.101
969	0.1
970	0.1
970	0.1
971	0.1
971	0.1
971	0.1
972	0.101
972	0.101
973	0.101
973	0.101
974	0.101
974	0.101
974	0.101
975	0.101
975	0.101
976	0.1
976	0.1
976	0.1
977	0.1
977	0.101
978	0.101
978	0.101
979	0.101
979	0.1
979	0.1
980	0.1
980	0.1
981	0.1
981	0.099
982	0.099
982	0.099
982	0.098
983	0.098
983	0.098
984	0.097
984	0.097
984	0.097
985	0.097
985	0.097
986	0.096
986	0.096
987	0.096
987	0.095
987	0.095
988	0.094
988	0.093
989	0.092
989	0.091
990	0.091
990	0.09
990	0.089
991	0.089
991	0.088
992	0.088
992	0.088
992	0.088
993	0.088
993	0.088
994	0.088
994	0.088
995	0.088
995	0.087
995	0.087
996	0.087
996	0.086
997	0.086
997	0.086
997	0.086
998	0.086
998	0.086
999	0.086
999	0.086
1000	0.086
1000	0.087
1000	0.087
1001	0.087
1001	0.087
1002	0.087
1002	0.087
1003	0.087
1003	0.087
1003	0.086
1004	0.086
1004	0.085
1005	0.084
1005	0.083
1005	0.082
1006	0.081
1006	0.079
1007	0.078
1007	0.077
1008	0.077
1008	0.076
1008	0.076
1009	0.075
1009	0.075
1010	0.075
1010	0.075
1010	0.076
1011	0.076
1011	0.076
1012	0.075
1012	0.075
1013	0.074
1013	0.073
1013	0.072
1014	0.072
1014	0.071
1015	0.07
1015	0.069
1016	0.068
1016	0.067
1016	0.066
1017	0.065
1017	0.065
1018	0.064
1018	0.063
1018	0.062
1019	0.062
1019	0.061
1020	0.06
1020	0.06
1021	0.059
1021	0.058
1021	0.058
1022	0.057
1022	0.056
1023	0.056
1023	0.056
1023	0.055
1024	0.055
1024	0.055
1025	0.055
1025	0.055
1026	0.055
1026	0.056
1026	0.056
1027	0.056
1027	0.057
1028	0.057
1028	0.057
1028	0.057
1029	0.057
1029	0.057
1030	0.056
1030	0.056
1031	0.055
1031	0.055
1031	0.055
1032	0.054
1032	0.054
1033	0.054
1033	0.054
1033	0.055
1034	0.055
1034	0.055
1035	0.055
1035	0.055
1036	0.055
1036	0.054
1036	0.055
1037	0.054
1037	0.055
1038	0.054
1038	0.055
1039	0.055
1039	0.056
1039	0.056
1040	0.056
1040	0.057
1041	0.058
1041	0.058
1041	0.059
1042	0.059
1042	0.059
1043	0.059
1043	0.058
1044	0.057
1044	0.057
1044	0.057
1045	0.055
1045	0.055
1046	0.054
1046	0.054
1046	0.053
1047	0.053
1047	0.054
1048	0.054
1048	0.054
1049	0.054
1049	0.054
1049	0.055
1050	0.055
1050	0.055
1051	0.055
1051	0.055
1051	0.056
1052	0.056
1052	0.056
1053	0.056
1053	0.056
1053	0.056
1054	0.056
1054	0.055
1055	0.055
1055	0.055
1056	0.054
1056	0.053
1056	0.052
1057	0.051
1057	0.051
1058	0.05
1058	0.049
1058	0.049
1059	0.048
1059	0.047
1060	0.046
1060	0.046
1061	0.045
1061	0.046
1061	0.045
1062	0.045
1062	0.045
1063	0.045
1063	0.045
1063	0.045
1064	0.045
1064	0.045
1065	0.045
1065	0.044
1066	0.044
1066	0.044
1066	0.044
1067	0.044
1067	0.043
1068	0.042
1068	0.042
1068	0.041
1069	0.041
1069	0.04
1070	0.04
1070	0.04
1071	0.039
1071	0.038
1071	0.037
1072	0.037
1072	0.037
1073	0.037
1073	0.037
1073	0.036
1074	0.036
1074	0.037
1075	0.036
1075	0.036
1076	0.035
1076	0.036
1076	0.035
1077	0.034
1077	0.034
1078	0.033
1078	0.032
1078	0.031
1079	0.03
1079	0.03
1080	0.029
1080	0.029
1080	0.028
1081	0.028
1081	0.027
1082	0.027
1082	0.026
1083	0.026
1083	0.024
1083	0.023
1084	0.022
1084	0.021
1085	0.02
1085	0.02
1085	0.019
1086	0.018
1086	0.017
1087	0.017
1087	0.017
1088	0.016
1088	0.015
1088	0.015
1089	0.014
1089	0.013
1090	0.012
1090	0.011
1090	0.009
1091	0.008
1091	0.008
1092	0.007
1092	0.007
1092	0.006
1093	0.005
1093	0.005
1094	0.005
1094	0.004
1095	0.002
1095	0.002
1095	0.001
1096	-0
1096	-0.001
1097	-0.002
1097	-0.004
1097	-0.005
1098	-0.007
1098	-0.008
1099	-0.01
1099	-0.01
1100	-0.012
1100	-0.013
1100	-0.016
1101	-0.019
1101	-0.021
1102	-0.023
1102	-0.026
1102	-0.027
1103	-0.03
1103	-0.032
1104	-0.035
1104	-0.037
1104	-0.039
1105	-0.042
1105	-0.046
1106	-0.05
1106	-0.052
1107	-0.056
1107	-0.061
1107	-0.067
1108	-0.069
1108	-0.071
1109	-0.074
1109	-0.081
1109	-0.084
1110	-0.083
1110	-0.086
1111	-0.097
1111	-0.098
