Data from 17C_3.1A_35min_2sec_int_Absorbance__430__02833.txt Node

Date: Mon Jun 19 18:32:44 CEST 2023
User: Marek
Spectrometer: MAYP115816
Trigger mode: 0
Integration Time (sec): 2.500000E-1
Scans to average: 10
Electric dark correction enabled: true
Nonlinearity correction enabled: true
Boxcar width: 5
XAxis mode: Wavelengths
Number of Pixels in Spectrum: 2068
>>>>>Begin Spectral Data<<<<<
199	-0.77
199	-0.784
200	-0.687
200	-0.632
201	-0.594
201	-0.576
202	-0.558
202	-0.545
203	-0.535
203	-0.531
204	-0.517
204	-0.501
205	-0.476
205	-0.47
205	-0.467
206	-0.47
206	-0.474
207	-0.464
207	-0.465
208	-0.466
208	-0.464
209	-0.458
209	-0.461
210	-0.464
210	-0.472
211	-0.472
211	-0.473
212	-0.474
212	-0.482
213	-0.481
213	-0.483
213	-0.489
214	-0.485
214	-0.484
215	-0.485
215	-0.489
216	-0.493
216	-0.501
217	-0.498
217	-0.505
218	-0.51
218	-0.51
219	-0.513
219	-0.523
220	-0.527
220	-0.536
221	-0.534
221	-0.538
221	-0.53
222	-0.527
222	-0.526
223	-0.526
223	-0.53
224	-0.534
224	-0.534
225	-0.53
225	-0.525
226	-0.531
226	-0.531
227	-0.537
227	-0.546
228	-0.548
228	-0.55
229	-0.55
229	-0.543
229	-0.538
230	-0.541
230	-0.543
231	-0.537
231	-0.526
232	-0.522
232	-0.519
233	-0.511
233	-0.511
234	-0.51
234	-0.506
235	-0.509
235	-0.517
236	-0.517
236	-0.521
236	-0.529
237	-0.536
237	-0.537
238	-0.546
238	-0.544
239	-0.545
239	-0.553
240	-0.553
240	-0.549
241	-0.553
241	-0.553
242	-0.558
242	-0.553
243	-0.55
243	-0.55
243	-0.559
244	-0.558
244	-0.559
245	-0.573
245	-0.572
246	-0.579
246	-0.584
247	-0.585
247	-0.588
248	-0.594
248	-0.591
249	-0.597
249	-0.607
250	-0.606
250	-0.601
250	-0.603
251	-0.598
251	-0.596
252	-0.598
252	-0.59
253	-0.595
253	-0.608
254	-0.604
254	-0.6
255	-0.607
255	-0.6
256	-0.597
256	-0.61
257	-0.608
257	-0.603
258	-0.619
258	-0.615
258	-0.609
259	-0.606
259	-0.617
260	-0.618
260	-0.623
261	-0.635
261	-0.625
262	-0.622
262	-0.626
263	-0.615
263	-0.61
264	-0.611
264	-0.618
265	-0.613
265	-0.62
265	-0.623
266	-0.618
266	-0.616
267	-0.629
267	-0.636
268	-0.652
268	-0.662
269	-0.659
269	-0.653
270	-0.658
270	-0.663
271	-0.663
271	-0.67
272	-0.674
272	-0.668
272	-0.66
273	-0.658
273	-0.666
274	-0.673
274	-0.677
275	-0.676
275	-0.668
276	-0.673
276	-0.666
277	-0.669
277	-0.688
278	-0.698
278	-0.692
278	-0.685
279	-0.69
279	-0.702
280	-0.7
280	-0.701
281	-0.695
281	-0.7
282	-0.692
282	-0.692
283	-0.683
283	-0.685
284	-0.68
284	-0.668
285	-0.664
285	-0.661
285	-0.657
286	-0.666
286	-0.661
287	-0.659
287	-0.644
288	-0.636
288	-0.645
289	-0.657
289	-0.667
290	-0.655
290	-0.653
291	-0.651
291	-0.644
292	-0.647
292	-0.655
292	-0.659
293	-0.664
293	-0.653
294	-0.645
294	-0.634
295	-0.633
295	-0.63
296	-0.63
296	-0.627
297	-0.623
297	-0.608
298	-0.601
298	-0.61
298	-0.598
299	-0.591
299	-0.592
300	-0.586
300	-0.583
301	-0.578
301	-0.577
302	-0.585
302	-0.592
303	-0.579
303	-0.564
304	-0.569
304	-0.566
305	-0.565
305	-0.565
305	-0.563
306	-0.546
306	-0.539
307	-0.527
307	-0.528
308	-0.542
308	-0.541
309	-0.543
309	-0.534
310	-0.526
310	-0.524
311	-0.514
311	-0.524
311	-0.522
312	-0.516
312	-0.515
313	-0.501
313	-0.501
314	-0.497
314	-0.499
315	-0.498
315	-0.497
316	-0.496
316	-0.486
317	-0.476
317	-0.472
318	-0.459
318	-0.455
318	-0.451
319	-0.441
319	-0.438
320	-0.431
320	-0.432
321	-0.434
321	-0.432
322	-0.43
322	-0.423
323	-0.424
323	-0.419
324	-0.412
324	-0.404
324	-0.395
325	-0.385
325	-0.368
326	-0.353
326	-0.337
327	-0.32
327	-0.303
328	-0.278
328	-0.258
329	-0.235
329	-0.211
330	-0.185
330	-0.153
330	-0.126
331	-0.097
331	-0.069
332	-0.042
332	-0.02
333	0.004
333	0.028
334	0.049
334	0.065
335	0.082
335	0.096
336	0.11
336	0.123
336	0.133
337	0.145
337	0.155
338	0.163
338	0.168
339	0.175
339	0.181
340	0.186
340	0.19
341	0.194
341	0.197
342	0.201
342	0.204
342	0.207
343	0.209
343	0.212
344	0.214
344	0.215
345	0.217
345	0.218
346	0.218
346	0.219
347	0.22
347	0.22
348	0.221
348	0.222
348	0.222
349	0.222
349	0.222
350	0.223
350	0.223
351	0.223
351	0.223
352	0.223
352	0.223
353	0.223
353	0.223
354	0.223
354	0.223
354	0.223
355	0.223
355	0.223
356	0.223
356	0.222
357	0.222
357	0.222
358	0.221
358	0.221
359	0.221
359	0.221
360	0.221
360	0.221
360	0.221
361	0.221
361	0.22
362	0.22
362	0.22
363	0.22
363	0.22
364	0.22
364	0.22
365	0.22
365	0.22
366	0.22
366	0.22
366	0.22
367	0.221
367	0.221
368	0.221
368	0.221
369	0.221
369	0.221
370	0.22
370	0.22
371	0.22
371	0.22
372	0.22
372	0.22
372	0.22
373	0.22
373	0.22
374	0.22
374	0.22
375	0.22
375	0.22
376	0.22
376	0.22
377	0.22
377	0.22
378	0.22
378	0.22
378	0.22
379	0.22
379	0.22
380	0.219
380	0.219
381	0.219
381	0.219
382	0.219
382	0.218
383	0.218
383	0.218
383	0.218
384	0.218
384	0.218
385	0.218
385	0.218
386	0.218
386	0.218
387	0.218
387	0.218
388	0.218
388	0.218
389	0.218
389	0.218
389	0.218
390	0.218
390	0.218
391	0.218
391	0.218
392	0.218
392	0.218
393	0.217
393	0.217
394	0.217
394	0.217
394	0.217
395	0.217
395	0.216
396	0.216
396	0.216
397	0.216
397	0.216
398	0.217
398	0.217
399	0.217
399	0.216
400	0.216
400	0.216
400	0.216
401	0.216
401	0.216
402	0.216
402	0.216
403	0.215
403	0.215
404	0.215
404	0.215
405	0.215
405	0.215
405	0.215
406	0.215
406	0.214
407	0.214
407	0.214
408	0.214
408	0.214
409	0.214
409	0.214
410	0.214
410	0.214
411	0.215
411	0.215
411	0.215
412	0.215
412	0.215
413	0.214
413	0.214
414	0.214
414	0.214
415	0.214
415	0.213
416	0.213
416	0.213
416	0.213
417	0.213
417	0.213
418	0.213
418	0.213
419	0.213
419	0.213
420	0.213
420	0.214
421	0.214
421	0.214
421	0.214
422	0.214
422	0.214
423	0.213
423	0.213
424	0.213
424	0.212
425	0.212
425	0.212
426	0.212
426	0.211
427	0.211
427	0.211
427	0.211
428	0.211
428	0.211
429	0.211
429	0.211
430	0.211
430	0.211
431	0.21
431	0.21
432	0.21
432	0.21
432	0.21
433	0.21
433	0.209
434	0.209
434	0.209
435	0.209
435	0.209
436	0.209
436	0.209
437	0.209
437	0.209
437	0.209
438	0.209
438	0.209
439	0.209
439	0.209
440	0.209
440	0.209
441	0.209
441	0.208
442	0.208
442	0.208
442	0.208
443	0.208
443	0.208
444	0.208
444	0.208
445	0.208
445	0.208
446	0.208
446	0.208
447	0.208
447	0.208
447	0.208
448	0.208
448	0.208
449	0.208
449	0.208
450	0.208
450	0.208
451	0.208
451	0.208
452	0.208
452	0.208
452	0.208
453	0.208
453	0.207
454	0.207
454	0.207
455	0.207
455	0.207
456	0.206
456	0.206
457	0.206
457	0.206
458	0.206
458	0.206
458	0.206
459	0.206
459	0.206
460	0.206
460	0.206
461	0.206
461	0.206
462	0.206
462	0.206
463	0.206
463	0.206
463	0.206
464	0.206
464	0.206
465	0.206
465	0.207
466	0.207
466	0.207
467	0.207
467	0.207
467	0.207
468	0.207
468	0.207
469	0.207
469	0.207
470	0.207
470	0.207
471	0.207
471	0.207
472	0.207
472	0.208
472	0.208
473	0.208
473	0.208
474	0.208
474	0.209
475	0.209
475	0.209
476	0.209
476	0.209
477	0.209
477	0.209
477	0.209
478	0.21
478	0.21
479	0.21
479	0.21
480	0.21
480	0.21
481	0.211
481	0.211
482	0.211
482	0.211
482	0.212
483	0.212
483	0.212
484	0.212
484	0.212
485	0.212
485	0.212
486	0.212
486	0.213
487	0.213
487	0.214
487	0.214
488	0.214
488	0.215
489	0.216
489	0.217
490	0.218
490	0.218
491	0.219
491	0.22
492	0.221
492	0.221
492	0.222
493	0.223
493	0.223
494	0.224
494	0.225
495	0.225
495	0.226
496	0.227
496	0.227
496	0.228
497	0.23
497	0.23
498	0.231
498	0.232
499	0.233
499	0.234
500	0.235
500	0.236
501	0.237
501	0.238
501	0.239
502	0.239
502	0.24
503	0.241
503	0.242
504	0.243
504	0.244
505	0.245
505	0.246
506	0.246
506	0.247
506	0.248
507	0.249
507	0.25
508	0.25
508	0.251
509	0.252
509	0.253
510	0.254
510	0.256
511	0.257
511	0.258
511	0.259
512	0.261
512	0.262
513	0.263
513	0.264
514	0.265
514	0.266
515	0.267
515	0.268
515	0.268
516	0.27
516	0.271
517	0.272
517	0.273
518	0.274
518	0.275
519	0.276
519	0.277
520	0.278
520	0.279
520	0.281
521	0.282
521	0.283
522	0.284
522	0.285
523	0.287
523	0.288
524	0.289
524	0.29
524	0.291
525	0.291
525	0.292
526	0.293
526	0.294
527	0.294
527	0.295
528	0.296
528	0.296
529	0.297
529	0.298
529	0.299
530	0.3
530	0.301
531	0.301
531	0.302
532	0.302
532	0.303
533	0.304
533	0.304
533	0.305
534	0.305
534	0.305
535	0.306
535	0.306
536	0.306
536	0.306
537	0.306
537	0.307
538	0.307
538	0.308
538	0.308
539	0.309
539	0.31
540	0.31
540	0.31
541	0.311
541	0.312
542	0.312
542	0.312
542	0.312
543	0.312
543	0.312
544	0.312
544	0.312
545	0.313
545	0.313
546	0.313
546	0.313
547	0.313
547	0.313
547	0.314
548	0.314
548	0.314
549	0.315
549	0.316
550	0.316
550	0.316
551	0.316
551	0.317
551	0.319
552	0.32
552	0.32
553	0.321
553	0.321
554	0.322
554	0.321
555	0.322
555	0.322
556	0.322
556	0.322
556	0.322
557	0.322
557	0.322
558	0.322
558	0.322
559	0.322
559	0.322
560	0.322
560	0.322
560	0.322
561	0.322
561	0.322
562	0.322
562	0.322
563	0.321
563	0.321
564	0.322
564	0.322
564	0.322
565	0.323
565	0.323
566	0.324
566	0.324
567	0.324
567	0.324
568	0.324
568	0.324
568	0.324
569	0.323
569	0.323
570	0.322
570	0.321
571	0.321
571	0.321
572	0.32
572	0.32
573	0.32
573	0.32
573	0.319
574	0.32
574	0.32
575	0.32
575	0.321
576	0.321
576	0.321
577	0.32
577	0.321
577	0.322
578	0.322
578	0.323
579	0.324
579	0.324
580	0.323
580	0.322
581	0.321
581	0.321
581	0.322
582	0.322
582	0.322
583	0.322
583	0.322
584	0.321
584	0.321
585	0.322
585	0.323
585	0.323
586	0.324
586	0.324
587	0.323
587	0.323
588	0.322
588	0.322
589	0.323
589	0.323
590	0.323
590	0.323
590	0.324
591	0.324
591	0.323
592	0.323
592	0.322
593	0.322
593	0.323
594	0.322
594	0.322
594	0.322
595	0.322
595	0.322
596	0.322
596	0.323
597	0.325
597	0.325
598	0.324
598	0.324
598	0.324
599	0.324
599	0.323
600	0.322
600	0.321
601	0.321
601	0.32
602	0.319
602	0.319
602	0.319
603	0.319
603	0.32
604	0.32
604	0.321
605	0.322
605	0.322
606	0.322
606	0.321
606	0.321
607	0.321
607	0.32
608	0.319
608	0.318
609	0.318
609	0.318
610	0.318
610	0.317
610	0.318
611	0.319
611	0.32
612	0.321
612	0.322
613	0.322
613	0.323
614	0.322
614	0.321
614	0.321
615	0.32
615	0.319
616	0.319
616	0.318
617	0.316
617	0.315
618	0.314
618	0.314
618	0.313
619	0.313
619	0.314
620	0.314
620	0.313
621	0.312
621	0.312
622	0.312
622	0.311
622	0.311
623	0.31
623	0.31
624	0.309
624	0.308
625	0.308
625	0.307
626	0.306
626	0.306
626	0.305
627	0.305
627	0.304
628	0.303
628	0.301
629	0.3
629	0.298
630	0.296
630	0.294
630	0.292
631	0.29
631	0.287
632	0.285
632	0.282
633	0.279
633	0.276
634	0.273
634	0.27
634	0.267
635	0.264
635	0.261
636	0.257
636	0.253
637	0.249
637	0.245
638	0.24
638	0.235
638	0.23
639	0.224
639	0.219
640	0.213
640	0.207
641	0.202
641	0.196
642	0.19
642	0.185
642	0.179
643	0.173
643	0.166
644	0.159
644	0.152
645	0.145
645	0.138
646	0.131
646	0.123
646	0.115
647	0.107
647	0.099
648	0.091
648	0.083
649	0.074
649	0.065
650	0.057
650	0.048
650	0.039
651	0.028
651	0.013
652	-0.003
652	-0.02
653	-0.034
653	-0.048
653	-0.044
654	-0.023
654	-0.012
655	-0.016
655	-0.021
656	-0.027
656	-0.034
657	-0.038
657	-0.043
657	-0.049
658	-0.056
658	-0.086
659	-0.176
659	-0.279
660	-0.325
660	-0.353
661	-0.382
661	-0.414
661	-0.449
662	-0.482
662	-0.517
663	-0.556
663	-0.599
664	-0.642
664	-0.694
665	-0.745
665	-0.803
665	-0.857
666	-0.913
666	-0.974
667	-1.038
667	-1.103
668	-1.175
668	-1.248
669	-1.321
669	-1.394
669	-1.472
670	-1.538
670	-1.563
671	-1.687
671	-1.969
672	-2.198
672	-2.39
672	-2.52
673	-2.612
673	-2.692
674	-2.735
674	-2.753
675	-2.778
675	-2.919
676	-3.116
676	-3.068
676	-2.844
677	-2.64
677	-2.477
678	-2.3
678	-2
679	-1.724
679	-1.59
680	-1.495
680	-1.413
680	-1.343
681	-1.299
681	-1.24
682	-1.203
682	-1.166
683	-1.132
683	-1.116
684	-1.097
684	-1.079
684	-1.058
685	-1.034
685	-1.011
686	-0.986
686	-0.972
687	-0.944
687	-0.933
687	-0.913
688	-0.886
688	-0.866
689	-0.845
689	-0.831
690	-0.812
690	-0.801
691	-0.795
691	-0.8
691	-0.816
692	-0.808
692	-0.801
693	-0.798
693	-0.805
694	-0.801
694	-0.795
695	-0.802
695	-0.8
695	-0.786
696	-0.781
696	-0.76
697	-0.759
697	-0.775
698	-0.778
698	-0.769
698	-0.782
699	-0.783
699	-0.781
700	-0.772
700	-0.785
701	-0.785
701	-0.793
702	-0.795
702	-0.783
702	-0.776
703	-0.767
703	-0.76
704	-0.756
704	-0.755
705	-0.767
705	-0.759
705	-0.748
706	-0.746
706	-0.74
707	-0.745
707	-0.738
708	-0.739
708	-0.732
709	-0.735
709	-0.739
709	-0.728
710	-0.739
710	-0.747
711	-0.74
711	-0.743
712	-0.743
712	-0.759
713	-0.759
713	-0.765
713	-0.754
714	-0.751
714	-0.755
715	-0.746
715	-0.733
716	-0.74
716	-0.741
716	-0.734
717	-0.734
717	-0.735
718	-0.726
718	-0.729
719	-0.736
719	-0.736
720	-0.733
720	-0.744
720	-0.738
721	-0.727
721	-0.728
722	-0.717
722	-0.706
723	-0.705
723	-0.71
723	-0.694
724	-0.697
724	-0.7
725	-0.699
725	-0.707
726	-0.719
726	-0.725
727	-0.728
727	-0.741
727	-0.748
728	-0.747
728	-0.753
729	-0.754
729	-0.758
730	-0.763
730	-0.755
730	-0.744
731	-0.726
731	-0.736
732	-0.743
732	-0.743
733	-0.74
733	-0.745
734	-0.738
734	-0.739
734	-0.728
735	-0.727
735	-0.728
736	-0.74
736	-0.724
737	-0.718
737	-0.72
737	-0.732
738	-0.727
738	-0.728
739	-0.726
739	-0.737
740	-0.735
740	-0.734
741	-0.728
741	-0.729
741	-0.732
742	-0.728
742	-0.729
743	-0.736
743	-0.739
744	-0.734
744	-0.726
744	-0.727
745	-0.734
745	-0.726
746	-0.726
746	-0.723
747	-0.727
747	-0.715
748	-0.704
748	-0.71
748	-0.712
749	-0.708
749	-0.712
750	-0.702
750	-0.705
751	-0.709
751	-0.72
751	-0.721
752	-0.724
752	-0.734
753	-0.728
753	-0.725
754	-0.731
754	-0.723
754	-0.738
755	-0.753
755	-0.764
756	-0.75
756	-0.747
757	-0.744
757	-0.739
758	-0.742
758	-0.74
758	-0.743
759	-0.748
759	-0.73
760	-0.724
760	-0.72
761	-0.73
761	-0.727
761	-0.729
762	-0.736
762	-0.737
763	-0.746
763	-0.741
764	-0.741
764	-0.749
764	-0.754
765	-0.744
765	-0.731
766	-0.739
766	-0.743
767	-0.758
767	-0.75
768	-0.74
768	-0.751
768	-0.755
769	-0.772
769	-0.775
770	-0.78
770	-0.793
771	-0.79
771	-0.794
771	-0.794
772	-0.799
772	-0.798
773	-0.797
773	-0.793
774	-0.79
774	-0.789
775	-0.792
775	-0.787
775	-0.795
776	-0.793
776	-0.782
777	-0.791
777	-0.812
778	-0.808
778	-0.83
778	-0.817
779	-0.839
779	-0.847
780	-0.861
780	-0.859
781	-0.872
781	-0.871
781	-0.885
782	-0.885
782	-0.887
783	-0.872
783	-0.872
784	-0.852
784	-0.842
784	-0.849
785	-0.856
785	-0.841
786	-0.846
786	-0.823
787	-0.808
787	-0.811
788	-0.816
788	-0.826
788	-0.838
789	-0.839
789	-0.821
790	-0.802
790	-0.805
791	-0.803
791	-0.821
791	-0.828
792	-0.821
792	-0.796
793	-0.785
793	-0.761
794	-0.764
794	-0.758
794	-0.768
795	-0.762
795	-0.756
796	-0.738
796	-0.745
797	-0.738
797	-0.752
797	-0.761
798	-0.774
798	-0.768
799	-0.778
799	-0.763
800	-0.771
800	-0.765
801	-0.77
801	-0.755
801	-0.766
802	-0.772
802	-0.772
803	-0.773
803	-0.784
804	-0.779
804	-0.79
804	-0.776
805	-0.779
805	-0.767
806	-0.771
806	-0.756
807	-0.756
807	-0.736
807	-0.724
808	-0.715
808	-0.708
809	-0.693
809	-0.702
810	-0.703
810	-0.696
810	-0.693
811	-0.7
811	-0.689
812	-0.69
812	-0.696
813	-0.699
813	-0.693
813	-0.699
814	-0.7
814	-0.705
815	-0.71
815	-0.713
816	-0.704
816	-0.71
817	-0.719
817	-0.734
817	-0.749
818	-0.757
818	-0.758
819	-0.751
819	-0.749
820	-0.759
820	-0.755
820	-0.768
821	-0.765
821	-0.753
822	-0.72
822	-0.695
823	-0.694
823	-0.699
823	-0.695
824	-0.689
824	-0.693
825	-0.685
825	-0.665
826	-0.66
826	-0.666
826	-0.677
827	-0.673
827	-0.667
828	-0.646
828	-0.648
829	-0.638
829	-0.624
829	-0.618
830	-0.627
830	-0.624
831	-0.617
831	-0.608
832	-0.608
832	-0.6
832	-0.606
833	-0.6
833	-0.601
834	-0.596
834	-0.604
835	-0.592
835	-0.586
835	-0.581
836	-0.578
836	-0.573
837	-0.57
837	-0.559
838	-0.55
838	-0.537
839	-0.524
839	-0.511
839	-0.501
840	-0.489
840	-0.487
841	-0.473
841	-0.463
842	-0.457
842	-0.447
842	-0.439
843	-0.433
843	-0.43
844	-0.421
844	-0.413
845	-0.404
845	-0.392
845	-0.378
846	-0.366
846	-0.351
847	-0.338
847	-0.328
848	-0.316
848	-0.301
848	-0.286
849	-0.275
849	-0.263
850	-0.249
850	-0.243
851	-0.233
851	-0.224
851	-0.214
852	-0.197
852	-0.185
853	-0.176
853	-0.168
854	-0.155
854	-0.144
854	-0.132
855	-0.119
855	-0.112
856	-0.1
856	-0.091
857	-0.082
857	-0.073
857	-0.061
858	-0.049
858	-0.042
859	-0.034
859	-0.021
860	-0.012
860	0.002
860	0.011
861	0.021
861	0.03
862	0.038
862	0.047
863	0.054
863	0.064
863	0.071
864	0.075
864	0.083
865	0.089
865	0.094
866	0.099
866	0.104
866	0.108
867	0.112
867	0.116
868	0.119
868	0.123
869	0.126
869	0.128
869	0.13
870	0.133
870	0.135
871	0.137
871	0.139
872	0.14
872	0.14
872	0.141
873	0.141
873	0.141
874	0.141
874	0.14
875	0.139
875	0.138
875	0.137
876	0.136
876	0.135
877	0.134
877	0.133
878	0.131
878	0.13
878	0.128
879	0.127
879	0.126
880	0.126
880	0.126
881	0.126
881	0.126
881	0.125
882	0.125
882	0.123
883	0.122
883	0.121
884	0.12
884	0.119
884	0.118
885	0.117
885	0.117
886	0.116
886	0.115
887	0.114
887	0.114
887	0.115
888	0.115
888	0.115
889	0.115
889	0.115
890	0.115
890	0.115
890	0.115
891	0.115
891	0.115
892	0.116
892	0.116
893	0.116
893	0.116
893	0.116
894	0.116
894	0.116
895	0.115
895	0.116
895	0.115
896	0.114
896	0.113
897	0.111
897	0.11
898	0.109
898	0.108
898	0.108
899	0.108
899	0.108
900	0.108
900	0.108
901	0.109
901	0.11
901	0.11
902	0.111
902	0.112
903	0.113
903	0.113
904	0.114
904	0.114
904	0.115
905	0.115
905	0.116
906	0.116
906	0.116
907	0.116
907	0.115
907	0.115
908	0.114
908	0.114
909	0.113
909	0.112
910	0.112
910	0.111
910	0.111
911	0.111
911	0.111
912	0.112
912	0.112
913	0.113
913	0.114
913	0.115
914	0.116
914	0.117
915	0.117
915	0.118
916	0.118
916	0.119
916	0.119
917	0.119
917	0.119
918	0.119
918	0.119
918	0.118
919	0.118
919	0.117
920	0.117
920	0.117
921	0.117
921	0.117
921	0.117
922	0.116
922	0.116
923	0.116
923	0.115
924	0.115
924	0.114
924	0.113
925	0.113
925	0.112
926	0.111
926	0.11
927	0.109
927	0.108
927	0.108
928	0.107
928	0.107
929	0.106
929	0.106
930	0.105
930	0.104
930	0.103
931	0.102
931	0.102
932	0.102
932	0.101
933	0.1
933	0.099
933	0.098
934	0.097
934	0.096
935	0.095
935	0.094
935	0.094
936	0.093
936	0.092
937	0.091
937	0.09
938	0.09
938	0.089
938	0.089
939	0.089
939	0.09
940	0.09
940	0.09
941	0.09
941	0.091
941	0.091
942	0.092
942	0.092
943	0.092
943	0.091
944	0.091
944	0.09
944	0.09
945	0.089
945	0.088
946	0.087
946	0.085
946	0.084
947	0.084
947	0.083
948	0.083
948	0.083
949	0.083
949	0.083
949	0.083
950	0.084
950	0.084
951	0.086
951	0.086
952	0.087
952	0.088
952	0.088
953	0.089
953	0.09
954	0.091
954	0.091
955	0.092
955	0.093
955	0.093
956	0.094
956	0.095
957	0.095
957	0.095
957	0.095
958	0.096
958	0.096
959	0.097
959	0.097
960	0.097
960	0.097
960	0.098
961	0.098
961	0.098
962	0.098
962	0.098
963	0.098
963	0.098
963	0.098
964	0.098
964	0.098
965	0.098
965	0.097
966	0.097
966	0.097
966	0.096
967	0.096
967	0.095
968	0.094
968	0.094
968	0.093
969	0.093
969	0.092
970	0.092
970	0.092
971	0.092
971	0.092
971	0.093
972	0.093
972	0.093
973	0.093
973	0.093
974	0.093
974	0.093
974	0.093
975	0.093
975	0.093
976	0.092
976	0.092
976	0.092
977	0.092
977	0.092
978	0.092
978	0.093
979	0.093
979	0.092
979	0.092
980	0.092
980	0.092
981	0.092
981	0.092
982	0.092
982	0.091
982	0.091
983	0.09
983	0.09
984	0.089
984	0.089
984	0.089
985	0.089
985	0.088
986	0.087
986	0.087
987	0.086
987	0.086
987	0.085
988	0.085
988	0.084
989	0.083
989	0.082
990	0.081
990	0.08
990	0.08
991	0.08
991	0.08
992	0.079
992	0.079
992	0.079
993	0.079
993	0.078
994	0.078
994	0.078
995	0.078
995	0.078
995	0.077
996	0.077
996	0.076
997	0.076
997	0.076
997	0.076
998	0.076
998	0.076
999	0.076
999	0.076
1000	0.077
1000	0.077
1000	0.077
1001	0.078
1001	0.078
1002	0.078
1002	0.078
1003	0.078
1003	0.079
1003	0.078
1004	0.078
1004	0.078
1005	0.077
1005	0.077
1005	0.076
1006	0.075
1006	0.073
1007	0.072
1007	0.071
1008	0.07
1008	0.07
1008	0.07
1009	0.069
1009	0.069
1010	0.069
1010	0.07
1010	0.07
1011	0.07
1011	0.07
1012	0.07
1012	0.07
1013	0.069
1013	0.068
1013	0.068
1014	0.067
1014	0.067
1015	0.066
1015	0.065
1016	0.064
1016	0.063
1016	0.062
1017	0.061
1017	0.06
1018	0.059
1018	0.058
1018	0.057
1019	0.057
1019	0.055
1020	0.055
1020	0.054
1021	0.054
1021	0.053
1021	0.052
1022	0.052
1022	0.052
1023	0.051
1023	0.051
1023	0.051
1024	0.051
1024	0.05
1025	0.05
1025	0.051
1026	0.051
1026	0.051
1026	0.051
1027	0.051
1027	0.052
1028	0.052
1028	0.052
1028	0.052
1029	0.052
1029	0.052
1030	0.051
1030	0.05
1031	0.05
1031	0.05
1031	0.05
1032	0.049
1032	0.049
1033	0.049
1033	0.049
1033	0.049
1034	0.049
1034	0.049
1035	0.049
1035	0.049
1036	0.049
1036	0.048
1036	0.048
1037	0.048
1037	0.049
1038	0.048
1038	0.049
1039	0.049
1039	0.049
1039	0.05
1040	0.05
1040	0.051
1041	0.051
1041	0.051
1041	0.052
1042	0.052
1042	0.051
1043	0.051
1043	0.05
1044	0.049
1044	0.049
1044	0.048
1045	0.046
1045	0.046
1046	0.045
1046	0.044
1046	0.043
1047	0.043
1047	0.043
1048	0.044
1048	0.044
1049	0.043
1049	0.043
1049	0.044
1050	0.044
1050	0.044
1051	0.044
1051	0.045
1051	0.045
1052	0.045
1052	0.045
1053	0.046
1053	0.046
1053	0.046
1054	0.046
1054	0.046
1055	0.046
1055	0.046
1056	0.045
1056	0.044
1056	0.044
1057	0.043
1057	0.043
1058	0.042
1058	0.042
1058	0.041
1059	0.041
1059	0.039
1060	0.038
1060	0.038
1061	0.037
1061	0.037
1061	0.037
1062	0.036
1062	0.036
1063	0.036
1063	0.035
1063	0.036
1064	0.036
1064	0.036
1065	0.036
1065	0.035
1066	0.035
1066	0.035
1066	0.035
1067	0.035
1067	0.035
1068	0.034
1068	0.034
1068	0.033
1069	0.033
1069	0.032
1070	0.032
1070	0.032
1071	0.031
1071	0.031
1071	0.031
1072	0.03
1072	0.029
1073	0.029
1073	0.029
1073	0.029
1074	0.029
1074	0.029
1075	0.029
1075	0.028
1076	0.027
1076	0.027
1076	0.027
1077	0.026
1077	0.026
1078	0.025
1078	0.024
1078	0.023
1079	0.022
1079	0.022
1080	0.021
1080	0.021
1080	0.02
1081	0.019
1081	0.019
1082	0.018
1082	0.017
1083	0.016
1083	0.015
1083	0.014
1084	0.013
1084	0.013
1085	0.012
1085	0.011
1085	0.011
1086	0.01
1086	0.009
1087	0.01
1087	0.01
1088	0.009
1088	0.008
1088	0.007
1089	0.006
1089	0.005
1090	0.004
1090	0.003
1090	0.001
1091	-0
1091	-0.001
1092	-0.003
1092	-0.003
1092	-0.004
1093	-0.005
1093	-0.005
1094	-0.006
1094	-0.007
1095	-0.008
1095	-0.009
1095	-0.009
1096	-0.01
1096	-0.011
1097	-0.011
1097	-0.013
1097	-0.013
1098	-0.015
1098	-0.017
1099	-0.018
1099	-0.018
1100	-0.02
1100	-0.021
1100	-0.023
1101	-0.027
1101	-0.029
1102	-0.03
1102	-0.033
1102	-0.034
1103	-0.036
1103	-0.039
1104	-0.042
1104	-0.044
1104	-0.046
1105	-0.049
1105	-0.051
1106	-0.056
1106	-0.058
1107	-0.063
1107	-0.068
1107	-0.073
1108	-0.074
1108	-0.076
1109	-0.081
1109	-0.086
1109	-0.089
1110	-0.09
1110	-0.093
1111	-0.101
1111	-0.098
