Data from 17C_3.1A_35min_2sec_int_Absorbance__591__02994.txt Node

Date: Mon Jun 19 18:39:27 CEST 2023
User: Marek
Spectrometer: MAYP115816
Trigger mode: 0
Integration Time (sec): 2.500000E-1
Scans to average: 10
Electric dark correction enabled: true
Nonlinearity correction enabled: true
Boxcar width: 5
XAxis mode: Wavelengths
Number of Pixels in Spectrum: 2068
>>>>>Begin Spectral Data<<<<<
199	-0.744
199	-0.753
200	-0.66
200	-0.609
201	-0.574
201	-0.56
202	-0.547
202	-0.534
203	-0.527
203	-0.522
204	-0.511
204	-0.496
205	-0.474
205	-0.468
205	-0.468
206	-0.471
206	-0.475
207	-0.465
207	-0.468
208	-0.471
208	-0.472
209	-0.465
209	-0.465
210	-0.469
210	-0.474
211	-0.473
211	-0.474
212	-0.479
212	-0.486
213	-0.483
213	-0.482
213	-0.485
214	-0.481
214	-0.482
215	-0.481
215	-0.488
216	-0.491
216	-0.498
217	-0.491
217	-0.494
218	-0.495
218	-0.495
219	-0.497
219	-0.506
220	-0.511
220	-0.521
221	-0.518
221	-0.523
221	-0.514
222	-0.509
222	-0.511
223	-0.517
223	-0.522
224	-0.527
224	-0.529
225	-0.526
225	-0.522
226	-0.528
226	-0.528
227	-0.536
227	-0.544
228	-0.546
228	-0.546
229	-0.548
229	-0.542
229	-0.535
230	-0.538
230	-0.539
231	-0.532
231	-0.524
232	-0.518
232	-0.518
233	-0.51
233	-0.507
234	-0.506
234	-0.504
235	-0.507
235	-0.513
236	-0.511
236	-0.516
236	-0.524
237	-0.53
237	-0.531
238	-0.542
238	-0.542
239	-0.539
239	-0.547
240	-0.547
240	-0.544
241	-0.551
241	-0.547
242	-0.549
242	-0.545
243	-0.541
243	-0.54
243	-0.548
244	-0.549
244	-0.547
245	-0.56
245	-0.562
246	-0.567
246	-0.575
247	-0.578
247	-0.583
248	-0.59
248	-0.59
249	-0.591
249	-0.601
250	-0.6
250	-0.597
250	-0.597
251	-0.592
251	-0.591
252	-0.594
252	-0.582
253	-0.588
253	-0.6
254	-0.599
254	-0.597
255	-0.606
255	-0.601
256	-0.597
256	-0.609
257	-0.604
257	-0.602
258	-0.62
258	-0.616
258	-0.611
259	-0.608
259	-0.617
260	-0.616
260	-0.622
261	-0.635
261	-0.627
262	-0.625
262	-0.624
263	-0.614
263	-0.609
264	-0.609
264	-0.616
265	-0.609
265	-0.616
265	-0.617
266	-0.612
266	-0.611
267	-0.624
267	-0.633
268	-0.648
268	-0.658
269	-0.657
269	-0.653
270	-0.66
270	-0.662
271	-0.663
271	-0.669
272	-0.672
272	-0.667
272	-0.661
273	-0.66
273	-0.666
274	-0.669
274	-0.674
275	-0.673
275	-0.666
276	-0.672
276	-0.665
277	-0.669
277	-0.688
278	-0.698
278	-0.691
278	-0.687
279	-0.692
279	-0.7
280	-0.697
280	-0.699
281	-0.693
281	-0.703
282	-0.695
282	-0.695
283	-0.684
283	-0.686
284	-0.68
284	-0.668
285	-0.664
285	-0.664
285	-0.659
286	-0.665
286	-0.657
287	-0.655
287	-0.638
288	-0.631
288	-0.639
289	-0.654
289	-0.665
290	-0.656
290	-0.654
291	-0.653
291	-0.646
292	-0.649
292	-0.654
292	-0.659
293	-0.664
293	-0.652
294	-0.638
294	-0.628
295	-0.627
295	-0.625
296	-0.622
296	-0.622
297	-0.616
297	-0.601
298	-0.593
298	-0.603
298	-0.593
299	-0.588
299	-0.588
300	-0.58
300	-0.575
301	-0.571
301	-0.569
302	-0.576
302	-0.586
303	-0.574
303	-0.558
304	-0.56
304	-0.559
305	-0.56
305	-0.561
305	-0.56
306	-0.543
306	-0.539
307	-0.525
307	-0.525
308	-0.536
308	-0.535
309	-0.537
309	-0.527
310	-0.516
310	-0.512
311	-0.503
311	-0.512
311	-0.508
312	-0.505
312	-0.505
313	-0.491
313	-0.494
314	-0.493
314	-0.496
315	-0.498
315	-0.497
316	-0.495
316	-0.487
317	-0.479
317	-0.473
318	-0.463
318	-0.462
318	-0.457
319	-0.449
319	-0.445
320	-0.437
320	-0.439
321	-0.444
321	-0.441
322	-0.436
322	-0.431
323	-0.431
323	-0.424
324	-0.417
324	-0.406
324	-0.395
325	-0.385
325	-0.366
326	-0.35
326	-0.335
327	-0.321
327	-0.3
328	-0.274
328	-0.255
329	-0.234
329	-0.211
330	-0.186
330	-0.156
330	-0.13
331	-0.103
331	-0.076
332	-0.05
332	-0.03
333	-0.007
333	0.017
334	0.036
334	0.052
335	0.069
335	0.083
336	0.095
336	0.108
336	0.118
337	0.128
337	0.137
338	0.145
338	0.149
339	0.158
339	0.164
340	0.168
340	0.172
341	0.176
341	0.179
342	0.182
342	0.186
342	0.189
343	0.191
343	0.194
344	0.195
344	0.196
345	0.198
345	0.199
346	0.2
346	0.201
347	0.202
347	0.202
348	0.202
348	0.203
348	0.203
349	0.203
349	0.203
350	0.204
350	0.204
351	0.204
351	0.204
352	0.204
352	0.204
353	0.204
353	0.204
354	0.204
354	0.204
354	0.204
355	0.204
355	0.203
356	0.203
356	0.203
357	0.202
357	0.202
358	0.202
358	0.202
359	0.201
359	0.201
360	0.201
360	0.201
360	0.201
361	0.201
361	0.201
362	0.202
362	0.201
363	0.201
363	0.201
364	0.201
364	0.201
365	0.201
365	0.201
366	0.201
366	0.201
366	0.202
367	0.202
367	0.202
368	0.202
368	0.201
369	0.201
369	0.201
370	0.201
370	0.201
371	0.201
371	0.201
372	0.2
372	0.2
372	0.201
373	0.201
373	0.201
374	0.201
374	0.201
375	0.201
375	0.201
376	0.201
376	0.201
377	0.201
377	0.201
378	0.201
378	0.201
378	0.201
379	0.201
379	0.201
380	0.201
380	0.2
381	0.2
381	0.2
382	0.2
382	0.2
383	0.2
383	0.2
383	0.199
384	0.199
384	0.199
385	0.199
385	0.2
386	0.2
386	0.2
387	0.2
387	0.2
388	0.2
388	0.2
389	0.2
389	0.2
389	0.2
390	0.2
390	0.2
391	0.2
391	0.2
392	0.2
392	0.2
393	0.2
393	0.2
394	0.199
394	0.199
394	0.199
395	0.199
395	0.198
396	0.198
396	0.198
397	0.198
397	0.198
398	0.199
398	0.199
399	0.199
399	0.199
400	0.198
400	0.199
400	0.199
401	0.198
401	0.198
402	0.198
402	0.198
403	0.198
403	0.197
404	0.197
404	0.197
405	0.197
405	0.197
405	0.197
406	0.197
406	0.197
407	0.197
407	0.197
408	0.197
408	0.196
409	0.196
409	0.196
410	0.196
410	0.196
411	0.197
411	0.197
411	0.197
412	0.197
412	0.197
413	0.197
413	0.197
414	0.197
414	0.197
415	0.197
415	0.196
416	0.196
416	0.196
416	0.196
417	0.196
417	0.196
418	0.196
418	0.196
419	0.196
419	0.196
420	0.196
420	0.196
421	0.196
421	0.196
421	0.196
422	0.196
422	0.196
423	0.196
423	0.196
424	0.196
424	0.195
425	0.195
425	0.195
426	0.194
426	0.194
427	0.194
427	0.194
427	0.194
428	0.194
428	0.194
429	0.194
429	0.194
430	0.194
430	0.194
431	0.194
431	0.193
432	0.193
432	0.193
432	0.193
433	0.193
433	0.193
434	0.193
434	0.192
435	0.192
435	0.192
436	0.192
436	0.192
437	0.192
437	0.193
437	0.192
438	0.192
438	0.193
439	0.193
439	0.193
440	0.193
440	0.193
441	0.192
441	0.192
442	0.192
442	0.192
442	0.192
443	0.192
443	0.192
444	0.192
444	0.191
445	0.191
445	0.191
446	0.191
446	0.191
447	0.191
447	0.191
447	0.191
448	0.192
448	0.192
449	0.191
449	0.192
450	0.192
450	0.192
451	0.192
451	0.192
452	0.192
452	0.192
452	0.191
453	0.191
453	0.191
454	0.191
454	0.19
455	0.19
455	0.19
456	0.19
456	0.19
457	0.19
457	0.19
458	0.19
458	0.19
458	0.19
459	0.19
459	0.19
460	0.19
460	0.19
461	0.19
461	0.19
462	0.19
462	0.19
463	0.19
463	0.19
463	0.19
464	0.19
464	0.19
465	0.19
465	0.191
466	0.191
466	0.191
467	0.191
467	0.191
467	0.191
468	0.19
468	0.19
469	0.191
469	0.191
470	0.191
470	0.191
471	0.191
471	0.191
472	0.192
472	0.192
472	0.192
473	0.192
473	0.192
474	0.192
474	0.192
475	0.192
475	0.192
476	0.192
476	0.192
477	0.192
477	0.192
477	0.192
478	0.192
478	0.192
479	0.192
479	0.192
480	0.192
480	0.192
481	0.192
481	0.193
482	0.193
482	0.194
482	0.194
483	0.194
483	0.195
484	0.195
484	0.194
485	0.195
485	0.195
486	0.195
486	0.195
487	0.195
487	0.195
487	0.196
488	0.196
488	0.196
489	0.197
489	0.198
490	0.199
490	0.199
491	0.2
491	0.201
492	0.201
492	0.202
492	0.203
493	0.203
493	0.203
494	0.204
494	0.205
495	0.205
495	0.206
496	0.206
496	0.207
496	0.208
497	0.209
497	0.21
498	0.21
498	0.211
499	0.212
499	0.213
500	0.214
500	0.214
501	0.215
501	0.215
501	0.216
502	0.216
502	0.217
503	0.218
503	0.218
504	0.219
504	0.22
505	0.221
505	0.222
506	0.223
506	0.223
506	0.224
507	0.225
507	0.226
508	0.227
508	0.228
509	0.229
509	0.229
510	0.23
510	0.231
511	0.232
511	0.233
511	0.234
512	0.235
512	0.236
513	0.237
513	0.238
514	0.239
514	0.24
515	0.241
515	0.241
515	0.242
516	0.243
516	0.244
517	0.245
517	0.246
518	0.247
518	0.247
519	0.248
519	0.249
520	0.25
520	0.251
520	0.252
521	0.253
521	0.254
522	0.255
522	0.256
523	0.257
523	0.258
524	0.259
524	0.26
524	0.26
525	0.261
525	0.261
526	0.262
526	0.262
527	0.263
527	0.264
528	0.264
528	0.265
529	0.266
529	0.267
529	0.267
530	0.268
530	0.269
531	0.269
531	0.27
532	0.27
532	0.271
533	0.272
533	0.272
533	0.273
534	0.273
534	0.273
535	0.273
535	0.274
536	0.274
536	0.274
537	0.274
537	0.274
538	0.274
538	0.275
538	0.275
539	0.276
539	0.276
540	0.277
540	0.277
541	0.277
541	0.278
542	0.279
542	0.279
542	0.279
543	0.279
543	0.279
544	0.279
544	0.279
545	0.28
545	0.28
546	0.281
546	0.281
547	0.281
547	0.281
547	0.281
548	0.282
548	0.282
549	0.283
549	0.283
550	0.283
550	0.284
551	0.284
551	0.285
551	0.286
552	0.287
552	0.287
553	0.288
553	0.289
554	0.289
554	0.289
555	0.29
555	0.29
556	0.29
556	0.29
556	0.29
557	0.29
557	0.29
558	0.29
558	0.29
559	0.29
559	0.29
560	0.29
560	0.289
560	0.289
561	0.29
561	0.29
562	0.289
562	0.289
563	0.289
563	0.289
564	0.289
564	0.29
564	0.29
565	0.291
565	0.291
566	0.291
566	0.292
567	0.292
567	0.292
568	0.292
568	0.292
568	0.292
569	0.292
569	0.292
570	0.291
570	0.29
571	0.29
571	0.29
572	0.29
572	0.29
573	0.289
573	0.289
573	0.289
574	0.289
574	0.289
575	0.289
575	0.29
576	0.29
576	0.29
577	0.29
577	0.29
577	0.291
578	0.292
578	0.293
579	0.294
579	0.294
580	0.294
580	0.293
581	0.292
581	0.293
581	0.293
582	0.294
582	0.294
583	0.294
583	0.293
584	0.292
584	0.292
585	0.293
585	0.293
585	0.294
586	0.294
586	0.294
587	0.294
587	0.294
588	0.293
588	0.294
589	0.294
589	0.295
590	0.295
590	0.295
590	0.296
591	0.297
591	0.296
592	0.296
592	0.295
593	0.296
593	0.296
594	0.295
594	0.295
594	0.295
595	0.296
595	0.295
596	0.295
596	0.297
597	0.298
597	0.298
598	0.298
598	0.298
598	0.298
599	0.298
599	0.297
600	0.296
600	0.296
601	0.295
601	0.294
602	0.293
602	0.293
602	0.293
603	0.294
603	0.294
604	0.295
604	0.296
605	0.297
605	0.297
606	0.297
606	0.297
606	0.297
607	0.297
607	0.297
608	0.296
608	0.295
609	0.295
609	0.295
610	0.295
610	0.295
610	0.296
611	0.296
611	0.297
612	0.298
612	0.299
613	0.3
613	0.3
614	0.299
614	0.298
614	0.298
615	0.297
615	0.297
616	0.296
616	0.295
617	0.294
617	0.293
618	0.292
618	0.292
618	0.292
619	0.292
619	0.292
620	0.293
620	0.292
621	0.292
621	0.292
622	0.292
622	0.292
622	0.291
623	0.291
623	0.292
624	0.291
624	0.29
625	0.29
625	0.29
626	0.289
626	0.289
626	0.288
627	0.288
627	0.286
628	0.285
628	0.284
629	0.283
629	0.282
630	0.28
630	0.278
630	0.277
631	0.275
631	0.273
632	0.271
632	0.269
633	0.266
633	0.264
634	0.261
634	0.259
634	0.256
635	0.253
635	0.25
636	0.247
636	0.244
637	0.24
637	0.236
638	0.232
638	0.228
638	0.223
639	0.218
639	0.213
640	0.208
640	0.203
641	0.198
641	0.193
642	0.188
642	0.183
642	0.177
643	0.171
643	0.165
644	0.159
644	0.152
645	0.145
645	0.139
646	0.132
646	0.125
646	0.117
647	0.11
647	0.103
648	0.095
648	0.087
649	0.079
649	0.071
650	0.062
650	0.054
650	0.045
651	0.034
651	0.021
652	0.005
652	-0.011
653	-0.025
653	-0.038
653	-0.035
654	-0.014
654	-0.003
655	-0.007
655	-0.013
656	-0.019
656	-0.026
657	-0.031
657	-0.036
657	-0.042
658	-0.048
658	-0.078
659	-0.165
659	-0.266
660	-0.312
660	-0.339
661	-0.368
661	-0.399
661	-0.433
662	-0.465
662	-0.5
663	-0.539
663	-0.582
664	-0.626
664	-0.677
665	-0.726
665	-0.784
665	-0.837
666	-0.894
666	-0.953
667	-1.017
667	-1.082
668	-1.153
668	-1.225
669	-1.298
669	-1.371
669	-1.448
670	-1.514
670	-1.545
671	-1.675
671	-1.963
672	-2.195
672	-2.387
672	-2.518
673	-2.611
673	-2.692
674	-2.737
674	-2.756
675	-2.782
675	-2.922
676	-3.119
676	-3.071
676	-2.848
677	-2.645
677	-2.483
678	-2.31
678	-2.019
679	-1.719
679	-1.579
680	-1.484
680	-1.401
680	-1.331
681	-1.286
681	-1.228
682	-1.189
682	-1.152
683	-1.117
683	-1.102
684	-1.082
684	-1.064
684	-1.044
685	-1.019
685	-0.999
686	-0.975
686	-0.961
687	-0.936
687	-0.926
687	-0.907
688	-0.881
688	-0.86
689	-0.841
689	-0.827
690	-0.81
690	-0.796
691	-0.789
691	-0.795
691	-0.81
692	-0.801
692	-0.794
693	-0.789
693	-0.796
694	-0.791
694	-0.784
695	-0.789
695	-0.787
695	-0.772
696	-0.768
696	-0.748
697	-0.749
697	-0.765
698	-0.768
698	-0.761
698	-0.776
699	-0.778
699	-0.775
700	-0.768
700	-0.783
701	-0.783
701	-0.79
702	-0.79
702	-0.779
702	-0.772
703	-0.763
703	-0.753
704	-0.751
704	-0.751
705	-0.763
705	-0.755
705	-0.742
706	-0.742
706	-0.737
707	-0.743
707	-0.738
708	-0.737
708	-0.731
709	-0.734
709	-0.737
709	-0.725
710	-0.734
710	-0.744
711	-0.736
711	-0.737
712	-0.736
712	-0.748
713	-0.746
713	-0.753
713	-0.744
714	-0.74
714	-0.745
715	-0.735
715	-0.722
716	-0.73
716	-0.732
716	-0.724
717	-0.727
717	-0.731
718	-0.722
718	-0.721
719	-0.728
719	-0.729
720	-0.724
720	-0.734
720	-0.725
721	-0.715
721	-0.715
722	-0.701
722	-0.692
723	-0.688
723	-0.693
723	-0.679
724	-0.682
724	-0.686
725	-0.686
725	-0.695
726	-0.707
726	-0.711
727	-0.719
727	-0.733
727	-0.742
728	-0.743
728	-0.749
729	-0.748
729	-0.754
730	-0.759
730	-0.753
730	-0.743
731	-0.731
731	-0.74
732	-0.745
732	-0.745
733	-0.745
733	-0.75
734	-0.744
734	-0.742
734	-0.729
735	-0.727
735	-0.727
736	-0.733
736	-0.721
737	-0.713
737	-0.715
737	-0.722
738	-0.717
738	-0.715
739	-0.714
739	-0.729
740	-0.729
740	-0.727
741	-0.723
741	-0.722
741	-0.724
742	-0.72
742	-0.722
743	-0.73
743	-0.735
744	-0.732
744	-0.718
744	-0.72
745	-0.728
745	-0.72
746	-0.72
746	-0.718
747	-0.721
747	-0.708
748	-0.698
748	-0.703
748	-0.707
749	-0.708
749	-0.708
750	-0.696
750	-0.698
751	-0.702
751	-0.712
751	-0.713
752	-0.719
752	-0.727
753	-0.721
753	-0.716
754	-0.72
754	-0.715
754	-0.727
755	-0.741
755	-0.751
756	-0.74
756	-0.738
757	-0.734
757	-0.729
758	-0.732
758	-0.73
758	-0.734
759	-0.741
759	-0.727
760	-0.723
760	-0.72
761	-0.728
761	-0.724
761	-0.724
762	-0.731
762	-0.731
763	-0.741
763	-0.736
764	-0.735
764	-0.741
764	-0.747
765	-0.735
765	-0.725
766	-0.734
766	-0.741
767	-0.758
767	-0.751
768	-0.743
768	-0.753
768	-0.758
769	-0.777
769	-0.778
770	-0.783
770	-0.796
771	-0.792
771	-0.793
771	-0.79
772	-0.794
772	-0.793
773	-0.791
773	-0.785
774	-0.783
774	-0.785
775	-0.787
775	-0.781
775	-0.789
776	-0.79
776	-0.781
777	-0.787
777	-0.806
778	-0.804
778	-0.823
778	-0.81
779	-0.832
779	-0.842
780	-0.855
780	-0.853
781	-0.865
781	-0.862
781	-0.878
782	-0.88
782	-0.883
783	-0.871
783	-0.869
784	-0.849
784	-0.837
784	-0.847
785	-0.853
785	-0.841
786	-0.845
786	-0.823
787	-0.807
787	-0.806
788	-0.807
788	-0.818
788	-0.828
789	-0.83
789	-0.809
790	-0.792
790	-0.792
791	-0.793
791	-0.811
791	-0.818
792	-0.812
792	-0.789
793	-0.779
793	-0.757
794	-0.762
794	-0.755
794	-0.764
795	-0.761
795	-0.752
796	-0.737
796	-0.746
797	-0.741
797	-0.754
797	-0.762
798	-0.774
798	-0.768
799	-0.778
799	-0.76
800	-0.768
800	-0.761
801	-0.767
801	-0.751
801	-0.761
802	-0.768
802	-0.766
803	-0.767
803	-0.774
804	-0.769
804	-0.783
804	-0.767
805	-0.773
805	-0.762
806	-0.765
806	-0.75
807	-0.749
807	-0.733
807	-0.722
808	-0.714
808	-0.708
809	-0.691
809	-0.7
810	-0.7
810	-0.69
810	-0.688
811	-0.694
811	-0.684
812	-0.684
812	-0.687
813	-0.691
813	-0.688
813	-0.693
814	-0.696
814	-0.696
815	-0.7
815	-0.703
816	-0.694
816	-0.699
817	-0.706
817	-0.723
817	-0.738
818	-0.745
818	-0.75
819	-0.743
819	-0.746
820	-0.758
820	-0.755
820	-0.767
821	-0.766
821	-0.753
822	-0.723
822	-0.7
823	-0.697
823	-0.7
823	-0.695
824	-0.689
824	-0.689
825	-0.681
825	-0.661
826	-0.654
826	-0.663
826	-0.672
827	-0.665
827	-0.66
828	-0.639
828	-0.64
829	-0.631
829	-0.617
829	-0.61
830	-0.621
830	-0.616
831	-0.608
831	-0.598
832	-0.595
832	-0.589
832	-0.597
833	-0.589
833	-0.589
834	-0.586
834	-0.595
835	-0.582
835	-0.579
835	-0.574
836	-0.571
836	-0.568
837	-0.567
837	-0.554
838	-0.548
838	-0.535
839	-0.522
839	-0.508
839	-0.496
840	-0.486
840	-0.482
841	-0.47
841	-0.461
842	-0.453
842	-0.445
842	-0.438
843	-0.431
843	-0.426
844	-0.419
844	-0.411
845	-0.4
845	-0.387
845	-0.375
846	-0.363
846	-0.346
847	-0.332
847	-0.32
848	-0.308
848	-0.297
848	-0.279
849	-0.269
849	-0.256
850	-0.242
850	-0.235
851	-0.225
851	-0.213
851	-0.205
852	-0.188
852	-0.175
853	-0.166
853	-0.159
854	-0.146
854	-0.134
854	-0.122
855	-0.11
855	-0.102
856	-0.093
856	-0.084
857	-0.076
857	-0.067
857	-0.054
858	-0.043
858	-0.035
859	-0.024
859	-0.014
860	-0.004
860	0.011
860	0.02
861	0.03
861	0.04
862	0.048
862	0.057
863	0.065
863	0.074
863	0.081
864	0.086
864	0.093
865	0.099
865	0.104
866	0.109
866	0.113
866	0.118
867	0.121
867	0.125
868	0.128
868	0.131
869	0.135
869	0.137
869	0.14
870	0.142
870	0.145
871	0.147
871	0.149
872	0.15
872	0.151
872	0.152
873	0.153
873	0.153
874	0.152
874	0.152
875	0.151
875	0.149
875	0.148
876	0.147
876	0.145
877	0.144
877	0.142
878	0.14
878	0.138
878	0.136
879	0.135
879	0.134
880	0.133
880	0.133
881	0.133
881	0.133
881	0.133
882	0.132
882	0.131
883	0.13
883	0.128
884	0.127
884	0.126
884	0.125
885	0.124
885	0.124
886	0.123
886	0.123
887	0.122
887	0.122
887	0.122
888	0.123
888	0.123
889	0.123
889	0.124
890	0.124
890	0.124
890	0.124
891	0.124
891	0.124
892	0.125
892	0.125
893	0.125
893	0.125
893	0.125
894	0.125
894	0.125
895	0.124
895	0.125
895	0.124
896	0.123
896	0.122
897	0.12
897	0.119
898	0.118
898	0.117
898	0.116
899	0.116
899	0.116
900	0.116
900	0.116
901	0.117
901	0.117
901	0.118
902	0.119
902	0.12
903	0.12
903	0.12
904	0.121
904	0.121
904	0.122
905	0.122
905	0.123
906	0.123
906	0.123
907	0.123
907	0.123
907	0.123
908	0.123
908	0.122
909	0.122
909	0.121
910	0.121
910	0.121
910	0.121
911	0.121
911	0.121
912	0.121
912	0.121
913	0.122
913	0.122
913	0.123
914	0.124
914	0.124
915	0.125
915	0.125
916	0.126
916	0.126
916	0.127
917	0.127
917	0.127
918	0.127
918	0.126
918	0.126
919	0.125
919	0.125
920	0.125
920	0.125
921	0.125
921	0.124
921	0.124
922	0.124
922	0.123
923	0.123
923	0.123
924	0.123
924	0.123
924	0.122
925	0.121
925	0.121
926	0.12
926	0.119
927	0.118
927	0.118
927	0.118
928	0.117
928	0.116
929	0.116
929	0.116
930	0.115
930	0.115
930	0.114
931	0.114
931	0.114
932	0.114
932	0.113
933	0.113
933	0.111
933	0.11
934	0.109
934	0.108
935	0.107
935	0.106
935	0.104
936	0.103
936	0.102
937	0.101
937	0.1
938	0.1
938	0.099
938	0.1
939	0.1
939	0.1
940	0.101
940	0.101
941	0.101
941	0.101
941	0.102
942	0.102
942	0.102
943	0.103
943	0.102
944	0.102
944	0.101
944	0.101
945	0.1
945	0.099
946	0.098
946	0.096
946	0.095
947	0.094
947	0.092
948	0.092
948	0.092
949	0.091
949	0.091
949	0.091
950	0.091
950	0.091
951	0.092
951	0.093
952	0.093
952	0.094
952	0.095
953	0.096
953	0.097
954	0.097
954	0.098
955	0.099
955	0.1
955	0.101
956	0.102
956	0.103
957	0.103
957	0.104
957	0.104
958	0.105
958	0.106
959	0.106
959	0.107
960	0.107
960	0.107
960	0.108
961	0.109
961	0.109
962	0.109
962	0.109
963	0.11
963	0.109
963	0.109
964	0.109
964	0.109
965	0.108
965	0.108
966	0.107
966	0.107
966	0.107
967	0.106
967	0.105
968	0.104
968	0.104
968	0.104
969	0.103
969	0.103
970	0.102
970	0.102
971	0.102
971	0.102
971	0.102
972	0.103
972	0.103
973	0.103
973	0.103
974	0.103
974	0.103
974	0.103
975	0.103
975	0.103
976	0.103
976	0.102
976	0.102
977	0.102
977	0.102
978	0.103
978	0.103
979	0.102
979	0.102
979	0.102
980	0.101
980	0.101
981	0.101
981	0.101
982	0.101
982	0.1
982	0.1
983	0.1
983	0.099
984	0.099
984	0.099
984	0.1
985	0.099
985	0.099
986	0.099
986	0.099
987	0.098
987	0.098
987	0.097
988	0.097
988	0.096
989	0.095
989	0.094
990	0.093
990	0.093
990	0.092
991	0.092
991	0.091
992	0.091
992	0.091
992	0.091
993	0.091
993	0.09
994	0.09
994	0.09
995	0.09
995	0.089
995	0.089
996	0.089
996	0.088
997	0.088
997	0.088
997	0.088
998	0.088
998	0.088
999	0.088
999	0.088
1000	0.089
1000	0.089
1000	0.089
1001	0.089
1001	0.089
1002	0.089
1002	0.089
1003	0.089
1003	0.088
1003	0.088
1004	0.088
1004	0.087
1005	0.086
1005	0.085
1005	0.084
1006	0.083
1006	0.081
1007	0.08
1007	0.079
1008	0.078
1008	0.078
1008	0.077
1009	0.077
1009	0.077
1010	0.077
1010	0.078
1010	0.078
1011	0.078
1011	0.078
1012	0.078
1012	0.077
1013	0.077
1013	0.076
1013	0.075
1014	0.074
1014	0.073
1015	0.072
1015	0.072
1016	0.07
1016	0.069
1016	0.068
1017	0.067
1017	0.066
1018	0.066
1018	0.065
1018	0.064
1019	0.063
1019	0.062
1020	0.061
1020	0.061
1021	0.06
1021	0.059
1021	0.059
1022	0.058
1022	0.057
1023	0.057
1023	0.057
1023	0.057
1024	0.057
1024	0.056
1025	0.057
1025	0.057
1026	0.057
1026	0.058
1026	0.058
1027	0.059
1027	0.059
1028	0.059
1028	0.059
1028	0.059
1029	0.059
1029	0.059
1030	0.058
1030	0.058
1031	0.057
1031	0.057
1031	0.056
1032	0.056
1032	0.056
1033	0.056
1033	0.056
1033	0.057
1034	0.057
1034	0.057
1035	0.057
1035	0.057
1036	0.057
1036	0.057
1036	0.057
1037	0.057
1037	0.057
1038	0.057
1038	0.057
1039	0.057
1039	0.057
1039	0.057
1040	0.058
1040	0.059
1041	0.059
1041	0.06
1041	0.06
1042	0.06
1042	0.06
1043	0.06
1043	0.06
1044	0.059
1044	0.059
1044	0.058
1045	0.058
1045	0.057
1046	0.056
1046	0.056
1046	0.055
1047	0.056
1047	0.055
1048	0.056
1048	0.056
1049	0.056
1049	0.056
1049	0.057
1050	0.057
1050	0.058
1051	0.058
1051	0.058
1051	0.059
1052	0.059
1052	0.059
1053	0.059
1053	0.059
1053	0.059
1054	0.058
1054	0.058
1055	0.058
1055	0.057
1056	0.056
1056	0.055
1056	0.054
1057	0.053
1057	0.052
1058	0.052
1058	0.051
1058	0.05
1059	0.049
1059	0.048
1060	0.048
1060	0.047
1061	0.047
1061	0.047
1061	0.047
1062	0.046
1062	0.046
1063	0.047
1063	0.046
1063	0.047
1064	0.047
1064	0.047
1065	0.047
1065	0.047
1066	0.047
1066	0.047
1066	0.046
1067	0.046
1067	0.045
1068	0.045
1068	0.044
1068	0.043
1069	0.043
1069	0.042
1070	0.042
1070	0.042
1071	0.041
1071	0.041
1071	0.04
1072	0.04
1072	0.04
1073	0.039
1073	0.039
1073	0.039
1074	0.039
1074	0.039
1075	0.039
1075	0.039
1076	0.038
1076	0.038
1076	0.037
1077	0.037
1077	0.036
1078	0.036
1078	0.035
1078	0.034
1079	0.033
1079	0.033
1080	0.032
1080	0.031
1080	0.03
1081	0.03
1081	0.03
1082	0.029
1082	0.028
1083	0.027
1083	0.026
1083	0.025
1084	0.024
1084	0.024
1085	0.022
1085	0.021
1085	0.021
1086	0.021
1086	0.02
1087	0.02
1087	0.02
1088	0.019
1088	0.018
1088	0.018
1089	0.017
1089	0.016
1090	0.014
1090	0.013
1090	0.012
1091	0.011
1091	0.01
1092	0.009
1092	0.009
1092	0.007
1093	0.007
1093	0.007
1094	0.006
1094	0.006
1095	0.005
1095	0.004
1095	0.004
1096	0.003
1096	0.002
1097	0.001
1097	-0
1097	-0.002
1098	-0.004
1098	-0.006
1099	-0.007
1099	-0.008
1100	-0.011
1100	-0.012
1100	-0.015
1101	-0.018
1101	-0.022
1102	-0.023
1102	-0.026
1102	-0.027
1103	-0.029
1103	-0.031
1104	-0.034
1104	-0.036
1104	-0.038
1105	-0.041
1105	-0.045
1106	-0.048
1106	-0.051
1107	-0.055
1107	-0.06
1107	-0.066
1108	-0.067
1108	-0.069
1109	-0.074
1109	-0.079
1109	-0.082
1110	-0.081
1110	-0.085
1111	-0.092
1111	-0.094
