Data from 17C_3.1A_35min_2sec_int_Absorbance__619__03022.txt Node

Date: Mon Jun 19 18:40:37 CEST 2023
User: Marek
Spectrometer: MAYP115816
Trigger mode: 0
Integration Time (sec): 2.500000E-1
Scans to average: 10
Electric dark correction enabled: true
Nonlinearity correction enabled: true
Boxcar width: 5
XAxis mode: Wavelengths
Number of Pixels in Spectrum: 2068
>>>>>Begin Spectral Data<<<<<
199	-0.741
199	-0.757
200	-0.656
200	-0.607
201	-0.573
201	-0.561
202	-0.546
202	-0.533
203	-0.524
203	-0.52
204	-0.505
204	-0.492
205	-0.47
205	-0.466
205	-0.462
206	-0.465
206	-0.467
207	-0.457
207	-0.458
208	-0.46
208	-0.459
209	-0.454
209	-0.455
210	-0.459
210	-0.464
211	-0.466
211	-0.468
212	-0.472
212	-0.482
213	-0.48
213	-0.481
213	-0.485
214	-0.483
214	-0.481
215	-0.48
215	-0.485
216	-0.489
216	-0.496
217	-0.489
217	-0.491
218	-0.495
218	-0.496
219	-0.501
219	-0.512
220	-0.516
220	-0.527
221	-0.528
221	-0.529
221	-0.521
222	-0.518
222	-0.52
223	-0.521
223	-0.525
224	-0.528
224	-0.528
225	-0.523
225	-0.518
226	-0.523
226	-0.524
227	-0.531
227	-0.541
228	-0.541
228	-0.544
229	-0.543
229	-0.538
229	-0.532
230	-0.538
230	-0.539
231	-0.532
231	-0.523
232	-0.517
232	-0.516
233	-0.509
233	-0.508
234	-0.508
234	-0.505
235	-0.508
235	-0.511
236	-0.511
236	-0.514
236	-0.522
237	-0.528
237	-0.527
238	-0.538
238	-0.534
239	-0.534
239	-0.541
240	-0.541
240	-0.538
241	-0.542
241	-0.541
242	-0.545
242	-0.541
243	-0.539
243	-0.537
243	-0.546
244	-0.545
244	-0.545
245	-0.559
245	-0.56
246	-0.566
246	-0.572
247	-0.574
247	-0.577
248	-0.584
248	-0.582
249	-0.585
249	-0.593
250	-0.592
250	-0.589
250	-0.587
251	-0.585
251	-0.585
252	-0.586
252	-0.578
253	-0.582
253	-0.593
254	-0.593
254	-0.591
255	-0.599
255	-0.592
256	-0.59
256	-0.602
257	-0.598
257	-0.596
258	-0.614
258	-0.61
258	-0.607
259	-0.602
259	-0.611
260	-0.61
260	-0.616
261	-0.627
261	-0.617
262	-0.616
262	-0.617
263	-0.605
263	-0.601
264	-0.601
264	-0.609
265	-0.602
265	-0.611
265	-0.615
266	-0.613
266	-0.613
267	-0.624
267	-0.632
268	-0.648
268	-0.658
269	-0.654
269	-0.649
270	-0.656
270	-0.658
271	-0.658
271	-0.662
272	-0.664
272	-0.659
272	-0.652
273	-0.649
273	-0.657
274	-0.665
274	-0.669
275	-0.668
275	-0.662
276	-0.667
276	-0.661
277	-0.665
277	-0.684
278	-0.696
278	-0.69
278	-0.685
279	-0.687
279	-0.696
280	-0.693
280	-0.694
281	-0.689
281	-0.696
282	-0.691
282	-0.691
283	-0.68
283	-0.683
284	-0.677
284	-0.666
285	-0.664
285	-0.662
285	-0.658
286	-0.664
286	-0.658
287	-0.654
287	-0.639
288	-0.633
288	-0.641
289	-0.654
289	-0.666
290	-0.655
290	-0.653
291	-0.65
291	-0.645
292	-0.649
292	-0.656
292	-0.657
293	-0.662
293	-0.651
294	-0.64
294	-0.627
295	-0.623
295	-0.621
296	-0.618
296	-0.616
297	-0.608
297	-0.589
298	-0.583
298	-0.592
298	-0.58
299	-0.574
299	-0.578
300	-0.574
300	-0.572
301	-0.569
301	-0.568
302	-0.576
302	-0.587
303	-0.574
303	-0.559
304	-0.561
304	-0.56
305	-0.561
305	-0.559
305	-0.556
306	-0.54
306	-0.535
307	-0.523
307	-0.524
308	-0.539
308	-0.537
309	-0.54
309	-0.53
310	-0.519
310	-0.514
311	-0.506
311	-0.513
311	-0.509
312	-0.504
312	-0.502
313	-0.486
313	-0.49
314	-0.486
314	-0.49
315	-0.491
315	-0.492
316	-0.49
316	-0.483
317	-0.476
317	-0.471
318	-0.462
318	-0.462
318	-0.455
319	-0.444
319	-0.438
320	-0.433
320	-0.434
321	-0.437
321	-0.437
322	-0.433
322	-0.429
323	-0.427
323	-0.419
324	-0.413
324	-0.407
324	-0.397
325	-0.385
325	-0.367
326	-0.354
326	-0.336
327	-0.321
327	-0.301
328	-0.276
328	-0.256
329	-0.233
329	-0.209
330	-0.184
330	-0.154
330	-0.127
331	-0.099
331	-0.073
332	-0.048
332	-0.027
333	-0.006
333	0.017
334	0.036
334	0.052
335	0.069
335	0.082
336	0.095
336	0.108
336	0.117
337	0.127
337	0.135
338	0.143
338	0.148
339	0.155
339	0.161
340	0.165
340	0.17
341	0.173
341	0.176
342	0.181
342	0.184
342	0.187
343	0.189
343	0.191
344	0.192
344	0.194
345	0.195
345	0.196
346	0.197
346	0.197
347	0.198
347	0.198
348	0.198
348	0.199
348	0.199
349	0.2
349	0.2
350	0.2
350	0.2
351	0.201
351	0.201
352	0.201
352	0.201
353	0.201
353	0.201
354	0.201
354	0.201
354	0.201
355	0.201
355	0.201
356	0.201
356	0.201
357	0.2
357	0.199
358	0.199
358	0.199
359	0.199
359	0.199
360	0.199
360	0.199
360	0.199
361	0.198
361	0.198
362	0.199
362	0.198
363	0.199
363	0.198
364	0.198
364	0.198
365	0.198
365	0.198
366	0.198
366	0.199
366	0.199
367	0.199
367	0.199
368	0.199
368	0.199
369	0.199
369	0.199
370	0.199
370	0.198
371	0.198
371	0.198
372	0.198
372	0.198
372	0.198
373	0.198
373	0.198
374	0.198
374	0.198
375	0.198
375	0.198
376	0.198
376	0.198
377	0.198
377	0.198
378	0.198
378	0.198
378	0.198
379	0.198
379	0.198
380	0.198
380	0.198
381	0.198
381	0.197
382	0.197
382	0.197
383	0.197
383	0.197
383	0.197
384	0.196
384	0.196
385	0.196
385	0.197
386	0.197
386	0.197
387	0.197
387	0.197
388	0.197
388	0.197
389	0.197
389	0.197
389	0.197
390	0.197
390	0.197
391	0.197
391	0.197
392	0.197
392	0.197
393	0.197
393	0.197
394	0.197
394	0.196
394	0.196
395	0.196
395	0.196
396	0.196
396	0.196
397	0.196
397	0.196
398	0.196
398	0.196
399	0.196
399	0.196
400	0.196
400	0.196
400	0.196
401	0.195
401	0.195
402	0.195
402	0.195
403	0.195
403	0.195
404	0.195
404	0.195
405	0.195
405	0.195
405	0.194
406	0.194
406	0.194
407	0.194
407	0.194
408	0.194
408	0.194
409	0.194
409	0.194
410	0.194
410	0.194
411	0.194
411	0.194
411	0.194
412	0.194
412	0.194
413	0.194
413	0.194
414	0.194
414	0.194
415	0.194
415	0.194
416	0.194
416	0.193
416	0.193
417	0.193
417	0.193
418	0.193
418	0.194
419	0.194
419	0.194
420	0.194
420	0.194
421	0.194
421	0.194
421	0.194
422	0.194
422	0.194
423	0.194
423	0.194
424	0.193
424	0.193
425	0.193
425	0.192
426	0.192
426	0.192
427	0.192
427	0.192
427	0.191
428	0.191
428	0.191
429	0.191
429	0.191
430	0.191
430	0.191
431	0.191
431	0.191
432	0.191
432	0.191
432	0.191
433	0.19
433	0.19
434	0.19
434	0.19
435	0.19
435	0.19
436	0.19
436	0.19
437	0.19
437	0.19
437	0.19
438	0.19
438	0.19
439	0.19
439	0.19
440	0.19
440	0.19
441	0.19
441	0.19
442	0.19
442	0.19
442	0.19
443	0.189
443	0.189
444	0.189
444	0.189
445	0.189
445	0.189
446	0.189
446	0.189
447	0.189
447	0.189
447	0.189
448	0.189
448	0.189
449	0.189
449	0.189
450	0.189
450	0.189
451	0.189
451	0.189
452	0.189
452	0.189
452	0.189
453	0.189
453	0.188
454	0.188
454	0.188
455	0.188
455	0.188
456	0.188
456	0.188
457	0.188
457	0.187
458	0.187
458	0.187
458	0.188
459	0.188
459	0.188
460	0.187
460	0.187
461	0.187
461	0.187
462	0.188
462	0.188
463	0.188
463	0.188
463	0.188
464	0.188
464	0.188
465	0.188
465	0.188
466	0.188
466	0.188
467	0.188
467	0.188
467	0.188
468	0.188
468	0.188
469	0.188
469	0.189
470	0.189
470	0.189
471	0.189
471	0.189
472	0.189
472	0.189
472	0.189
473	0.189
473	0.189
474	0.189
474	0.189
475	0.189
475	0.189
476	0.189
476	0.189
477	0.189
477	0.189
477	0.189
478	0.189
478	0.189
479	0.189
479	0.19
480	0.19
480	0.19
481	0.19
481	0.19
482	0.191
482	0.191
482	0.191
483	0.192
483	0.192
484	0.192
484	0.192
485	0.192
485	0.192
486	0.192
486	0.192
487	0.193
487	0.193
487	0.193
488	0.193
488	0.193
489	0.194
489	0.196
490	0.196
490	0.197
491	0.197
491	0.198
492	0.199
492	0.199
492	0.2
493	0.2
493	0.201
494	0.201
494	0.202
495	0.202
495	0.203
496	0.204
496	0.204
496	0.205
497	0.206
497	0.207
498	0.207
498	0.208
499	0.209
499	0.209
500	0.211
500	0.211
501	0.212
501	0.212
501	0.213
502	0.213
502	0.214
503	0.215
503	0.215
504	0.216
504	0.217
505	0.218
505	0.219
506	0.22
506	0.221
506	0.221
507	0.222
507	0.223
508	0.223
508	0.224
509	0.225
509	0.226
510	0.227
510	0.228
511	0.229
511	0.23
511	0.23
512	0.232
512	0.233
513	0.233
513	0.234
514	0.235
514	0.236
515	0.237
515	0.237
515	0.238
516	0.239
516	0.24
517	0.241
517	0.242
518	0.242
518	0.243
519	0.244
519	0.245
520	0.246
520	0.247
520	0.248
521	0.249
521	0.25
522	0.251
522	0.252
523	0.253
523	0.254
524	0.255
524	0.255
524	0.256
525	0.256
525	0.257
526	0.258
526	0.258
527	0.259
527	0.259
528	0.26
528	0.261
529	0.261
529	0.262
529	0.263
530	0.264
530	0.264
531	0.265
531	0.265
532	0.266
532	0.267
533	0.267
533	0.268
533	0.268
534	0.268
534	0.268
535	0.268
535	0.269
536	0.269
536	0.269
537	0.269
537	0.269
538	0.269
538	0.269
538	0.27
539	0.271
539	0.271
540	0.272
540	0.272
541	0.272
541	0.273
542	0.273
542	0.274
542	0.274
543	0.274
543	0.275
544	0.275
544	0.275
545	0.276
545	0.276
546	0.277
546	0.277
547	0.277
547	0.277
547	0.277
548	0.278
548	0.278
549	0.278
549	0.278
550	0.279
550	0.279
551	0.279
551	0.28
551	0.282
552	0.283
552	0.283
553	0.284
553	0.285
554	0.285
554	0.285
555	0.285
555	0.285
556	0.286
556	0.286
556	0.286
557	0.286
557	0.286
558	0.286
558	0.286
559	0.285
559	0.285
560	0.286
560	0.285
560	0.285
561	0.286
561	0.285
562	0.285
562	0.285
563	0.285
563	0.285
564	0.285
564	0.285
564	0.286
565	0.286
565	0.287
566	0.287
566	0.287
567	0.288
567	0.288
568	0.288
568	0.288
568	0.288
569	0.288
569	0.288
570	0.287
570	0.286
571	0.286
571	0.286
572	0.286
572	0.286
573	0.285
573	0.285
573	0.284
574	0.285
574	0.285
575	0.285
575	0.286
576	0.286
576	0.286
577	0.286
577	0.286
577	0.287
578	0.288
578	0.289
579	0.29
579	0.29
580	0.29
580	0.289
581	0.288
581	0.289
581	0.289
582	0.29
582	0.29
583	0.29
583	0.289
584	0.288
584	0.287
585	0.289
585	0.289
585	0.29
586	0.29
586	0.29
587	0.289
587	0.289
588	0.289
588	0.289
589	0.29
589	0.29
590	0.29
590	0.291
590	0.292
591	0.293
591	0.292
592	0.292
592	0.292
593	0.292
593	0.292
594	0.292
594	0.292
594	0.292
595	0.292
595	0.292
596	0.292
596	0.293
597	0.294
597	0.294
598	0.294
598	0.294
598	0.294
599	0.294
599	0.293
600	0.292
600	0.292
601	0.291
601	0.291
602	0.29
602	0.29
602	0.29
603	0.29
603	0.291
604	0.292
604	0.292
605	0.293
605	0.294
606	0.294
606	0.293
606	0.293
607	0.293
607	0.293
608	0.292
608	0.291
609	0.291
609	0.291
610	0.291
610	0.291
610	0.292
611	0.293
611	0.294
612	0.295
612	0.296
613	0.296
613	0.297
614	0.296
614	0.295
614	0.295
615	0.294
615	0.293
616	0.293
616	0.292
617	0.291
617	0.29
618	0.289
618	0.288
618	0.288
619	0.289
619	0.289
620	0.289
620	0.289
621	0.289
621	0.289
622	0.289
622	0.289
622	0.288
623	0.288
623	0.288
624	0.288
624	0.287
625	0.287
625	0.287
626	0.286
626	0.285
626	0.285
627	0.285
627	0.284
628	0.283
628	0.282
629	0.281
629	0.279
630	0.277
630	0.276
630	0.274
631	0.272
631	0.27
632	0.268
632	0.266
633	0.264
633	0.261
634	0.259
634	0.257
634	0.254
635	0.251
635	0.248
636	0.245
636	0.242
637	0.238
637	0.234
638	0.23
638	0.226
638	0.222
639	0.217
639	0.212
640	0.207
640	0.202
641	0.197
641	0.192
642	0.187
642	0.182
642	0.177
643	0.171
643	0.165
644	0.159
644	0.152
645	0.145
645	0.139
646	0.132
646	0.125
646	0.117
647	0.11
647	0.102
648	0.095
648	0.087
649	0.079
649	0.07
650	0.062
650	0.054
650	0.046
651	0.035
651	0.022
652	0.006
652	-0.01
653	-0.024
653	-0.037
653	-0.034
654	-0.013
654	-0.002
655	-0.006
655	-0.012
656	-0.018
656	-0.025
657	-0.029
657	-0.034
657	-0.041
658	-0.047
658	-0.078
659	-0.166
659	-0.267
660	-0.313
660	-0.34
661	-0.367
661	-0.398
661	-0.433
662	-0.465
662	-0.498
663	-0.537
663	-0.579
664	-0.622
664	-0.674
665	-0.724
665	-0.782
665	-0.837
666	-0.893
666	-0.953
667	-1.017
667	-1.081
668	-1.153
668	-1.225
669	-1.298
669	-1.37
669	-1.447
670	-1.515
670	-1.554
671	-1.709
671	-1.981
672	-2.207
672	-2.396
672	-2.525
673	-2.617
673	-2.697
674	-2.742
674	-2.762
675	-2.787
675	-2.926
676	-3.12
676	-3.072
676	-2.848
677	-2.645
677	-2.484
678	-2.311
678	-2.021
679	-1.717
679	-1.575
680	-1.48
680	-1.397
680	-1.326
681	-1.281
681	-1.222
682	-1.184
682	-1.148
683	-1.114
683	-1.099
684	-1.08
684	-1.061
684	-1.04
685	-1.018
685	-0.996
686	-0.972
686	-0.958
687	-0.931
687	-0.921
687	-0.902
688	-0.876
688	-0.857
689	-0.837
689	-0.823
690	-0.803
690	-0.794
691	-0.79
691	-0.795
691	-0.812
692	-0.802
692	-0.794
693	-0.791
693	-0.799
694	-0.794
694	-0.789
695	-0.796
695	-0.791
695	-0.776
696	-0.771
696	-0.75
697	-0.752
697	-0.767
698	-0.769
698	-0.758
698	-0.773
699	-0.776
699	-0.771
700	-0.763
700	-0.777
701	-0.776
701	-0.785
702	-0.784
702	-0.772
702	-0.767
703	-0.76
703	-0.751
704	-0.749
704	-0.748
705	-0.761
705	-0.751
705	-0.741
706	-0.739
706	-0.735
707	-0.74
707	-0.735
708	-0.733
708	-0.725
709	-0.73
709	-0.731
709	-0.721
710	-0.733
710	-0.742
711	-0.732
711	-0.732
712	-0.732
712	-0.743
713	-0.744
713	-0.751
713	-0.741
714	-0.738
714	-0.742
715	-0.731
715	-0.717
716	-0.725
716	-0.727
716	-0.719
717	-0.722
717	-0.722
718	-0.713
718	-0.713
719	-0.719
719	-0.719
720	-0.714
720	-0.725
720	-0.718
721	-0.707
721	-0.708
722	-0.695
722	-0.685
723	-0.685
723	-0.689
723	-0.677
724	-0.681
724	-0.686
725	-0.685
725	-0.692
726	-0.704
726	-0.709
727	-0.717
727	-0.731
727	-0.736
728	-0.737
728	-0.745
729	-0.744
729	-0.749
730	-0.755
730	-0.751
730	-0.742
731	-0.726
731	-0.736
732	-0.742
732	-0.743
733	-0.74
733	-0.744
734	-0.736
734	-0.737
734	-0.721
735	-0.718
735	-0.72
736	-0.728
736	-0.714
737	-0.705
737	-0.706
737	-0.718
738	-0.714
738	-0.714
739	-0.71
739	-0.725
740	-0.726
740	-0.724
741	-0.72
741	-0.721
741	-0.725
742	-0.721
742	-0.721
743	-0.728
743	-0.731
744	-0.73
744	-0.719
744	-0.72
745	-0.726
745	-0.72
746	-0.717
746	-0.712
747	-0.714
747	-0.702
748	-0.69
748	-0.695
748	-0.698
749	-0.696
749	-0.697
750	-0.686
750	-0.689
751	-0.694
751	-0.706
751	-0.709
752	-0.713
752	-0.723
753	-0.718
753	-0.713
754	-0.718
754	-0.712
754	-0.726
755	-0.742
755	-0.754
756	-0.739
756	-0.734
757	-0.731
757	-0.727
758	-0.73
758	-0.726
758	-0.73
759	-0.738
759	-0.72
760	-0.712
760	-0.708
761	-0.721
761	-0.72
761	-0.719
762	-0.727
762	-0.728
763	-0.739
763	-0.734
764	-0.731
764	-0.74
764	-0.748
765	-0.737
765	-0.723
766	-0.733
766	-0.741
767	-0.754
767	-0.746
768	-0.737
768	-0.748
768	-0.752
769	-0.77
769	-0.769
770	-0.776
770	-0.789
771	-0.786
771	-0.787
771	-0.788
772	-0.793
772	-0.791
773	-0.79
773	-0.787
774	-0.783
774	-0.785
775	-0.784
775	-0.777
775	-0.785
776	-0.785
776	-0.775
777	-0.783
777	-0.803
778	-0.8
778	-0.819
778	-0.807
779	-0.829
779	-0.84
780	-0.855
780	-0.854
781	-0.865
781	-0.861
781	-0.875
782	-0.875
782	-0.878
783	-0.862
783	-0.861
784	-0.84
784	-0.83
784	-0.838
785	-0.843
785	-0.829
786	-0.836
786	-0.813
787	-0.799
787	-0.801
788	-0.804
788	-0.813
788	-0.826
789	-0.827
789	-0.807
790	-0.79
790	-0.791
791	-0.79
791	-0.808
791	-0.815
792	-0.808
792	-0.787
793	-0.776
793	-0.752
794	-0.755
794	-0.749
794	-0.757
795	-0.752
795	-0.745
796	-0.729
796	-0.736
797	-0.731
797	-0.743
797	-0.751
798	-0.763
798	-0.759
799	-0.77
799	-0.754
800	-0.759
800	-0.752
801	-0.758
801	-0.742
801	-0.753
802	-0.76
802	-0.76
803	-0.761
803	-0.768
804	-0.761
804	-0.772
804	-0.76
805	-0.765
805	-0.755
806	-0.758
806	-0.741
807	-0.74
807	-0.722
807	-0.711
808	-0.703
808	-0.696
809	-0.682
809	-0.691
810	-0.691
810	-0.683
810	-0.682
811	-0.688
811	-0.679
812	-0.68
812	-0.682
813	-0.686
813	-0.684
813	-0.692
814	-0.695
814	-0.696
815	-0.701
815	-0.704
816	-0.698
816	-0.703
817	-0.71
817	-0.728
817	-0.741
818	-0.748
818	-0.75
819	-0.742
819	-0.741
820	-0.75
820	-0.747
820	-0.759
821	-0.757
821	-0.748
822	-0.716
822	-0.691
823	-0.69
823	-0.692
823	-0.689
824	-0.686
824	-0.688
825	-0.679
825	-0.659
826	-0.654
826	-0.658
826	-0.667
827	-0.663
827	-0.658
828	-0.637
828	-0.637
829	-0.628
829	-0.613
829	-0.606
830	-0.615
830	-0.609
831	-0.603
831	-0.592
832	-0.592
832	-0.584
832	-0.593
833	-0.585
833	-0.587
834	-0.583
834	-0.589
835	-0.576
835	-0.573
835	-0.568
836	-0.567
836	-0.564
837	-0.56
837	-0.549
838	-0.543
838	-0.53
839	-0.516
839	-0.505
839	-0.496
840	-0.486
840	-0.483
841	-0.47
841	-0.461
842	-0.457
842	-0.448
842	-0.44
843	-0.433
843	-0.428
844	-0.42
844	-0.411
845	-0.401
845	-0.388
845	-0.374
846	-0.361
846	-0.344
847	-0.33
847	-0.319
848	-0.306
848	-0.296
848	-0.278
849	-0.267
849	-0.254
850	-0.24
850	-0.234
851	-0.224
851	-0.214
851	-0.205
852	-0.187
852	-0.173
853	-0.163
853	-0.157
854	-0.145
854	-0.132
854	-0.121
855	-0.108
855	-0.101
856	-0.089
856	-0.08
857	-0.073
857	-0.064
857	-0.051
858	-0.039
858	-0.032
859	-0.023
859	-0.011
860	-0.001
860	0.014
860	0.024
861	0.034
861	0.043
862	0.051
862	0.059
863	0.067
863	0.077
863	0.082
864	0.088
864	0.094
865	0.1
865	0.104
866	0.109
866	0.113
866	0.117
867	0.121
867	0.124
868	0.127
868	0.131
869	0.135
869	0.138
869	0.14
870	0.143
870	0.146
871	0.148
871	0.15
872	0.151
872	0.152
872	0.153
873	0.154
873	0.154
874	0.153
874	0.152
875	0.151
875	0.15
875	0.149
876	0.147
876	0.146
877	0.144
877	0.143
878	0.141
878	0.139
878	0.137
879	0.135
879	0.134
880	0.134
880	0.134
881	0.133
881	0.133
881	0.133
882	0.133
882	0.132
883	0.131
883	0.129
884	0.128
884	0.127
884	0.127
885	0.126
885	0.126
886	0.125
886	0.125
887	0.124
887	0.124
887	0.124
888	0.125
888	0.125
889	0.125
889	0.125
890	0.125
890	0.125
890	0.125
891	0.125
891	0.126
892	0.126
892	0.126
893	0.126
893	0.126
893	0.126
894	0.126
894	0.126
895	0.125
895	0.125
895	0.124
896	0.123
896	0.122
897	0.12
897	0.119
898	0.118
898	0.117
898	0.116
899	0.116
899	0.116
900	0.116
900	0.116
901	0.117
901	0.118
901	0.119
902	0.12
902	0.12
903	0.121
903	0.121
904	0.122
904	0.122
904	0.123
905	0.124
905	0.124
906	0.124
906	0.125
907	0.125
907	0.125
907	0.125
908	0.124
908	0.124
909	0.124
909	0.123
910	0.123
910	0.123
910	0.122
911	0.122
911	0.123
912	0.123
912	0.123
913	0.123
913	0.124
913	0.124
914	0.125
914	0.125
915	0.125
915	0.126
916	0.126
916	0.126
916	0.126
917	0.127
917	0.127
918	0.126
918	0.126
918	0.125
919	0.125
919	0.125
920	0.124
920	0.124
921	0.124
921	0.123
921	0.123
922	0.123
922	0.123
923	0.123
923	0.122
924	0.122
924	0.122
924	0.121
925	0.121
925	0.12
926	0.119
926	0.119
927	0.118
927	0.117
927	0.117
928	0.117
928	0.116
929	0.116
929	0.116
930	0.115
930	0.115
930	0.115
931	0.115
931	0.115
932	0.115
932	0.114
933	0.113
933	0.112
933	0.11
934	0.109
934	0.108
935	0.107
935	0.106
935	0.105
936	0.103
936	0.102
937	0.101
937	0.101
938	0.101
938	0.1
938	0.1
939	0.1
939	0.101
940	0.101
940	0.101
941	0.102
941	0.102
941	0.103
942	0.103
942	0.103
943	0.104
943	0.104
944	0.104
944	0.103
944	0.102
945	0.102
945	0.1
946	0.099
946	0.097
946	0.096
947	0.095
947	0.094
948	0.094
948	0.093
949	0.092
949	0.093
949	0.092
950	0.093
950	0.093
951	0.094
951	0.094
952	0.094
952	0.095
952	0.095
953	0.096
953	0.097
954	0.097
954	0.098
955	0.099
955	0.1
955	0.101
956	0.101
956	0.102
957	0.102
957	0.103
957	0.103
958	0.104
958	0.105
959	0.105
959	0.106
960	0.107
960	0.107
960	0.108
961	0.109
961	0.11
962	0.11
962	0.11
963	0.111
963	0.11
963	0.11
964	0.109
964	0.109
965	0.109
965	0.108
966	0.107
966	0.107
966	0.107
967	0.106
967	0.106
968	0.105
968	0.104
968	0.104
969	0.103
969	0.103
970	0.103
970	0.103
971	0.103
971	0.103
971	0.103
972	0.103
972	0.103
973	0.103
973	0.103
974	0.103
974	0.103
974	0.104
975	0.103
975	0.103
976	0.102
976	0.102
976	0.102
977	0.102
977	0.102
978	0.102
978	0.102
979	0.102
979	0.102
979	0.102
980	0.102
980	0.102
981	0.102
981	0.102
982	0.101
982	0.101
982	0.1
983	0.1
983	0.1
984	0.1
984	0.1
984	0.1
985	0.101
985	0.1
986	0.1
986	0.099
987	0.099
987	0.099
987	0.098
988	0.098
988	0.097
989	0.096
989	0.095
990	0.095
990	0.094
990	0.093
991	0.093
991	0.093
992	0.092
992	0.092
992	0.092
993	0.092
993	0.092
994	0.092
994	0.092
995	0.091
995	0.091
995	0.091
996	0.091
996	0.09
997	0.09
997	0.09
997	0.09
998	0.09
998	0.089
999	0.09
999	0.089
1000	0.09
1000	0.089
1000	0.09
1001	0.09
1001	0.09
1002	0.09
1002	0.09
1003	0.089
1003	0.089
1003	0.088
1004	0.088
1004	0.087
1005	0.087
1005	0.085
1005	0.084
1006	0.083
1006	0.081
1007	0.08
1007	0.079
1008	0.079
1008	0.078
1008	0.078
1009	0.078
1009	0.077
1010	0.077
1010	0.078
1010	0.078
1011	0.078
1011	0.078
1012	0.078
1012	0.077
1013	0.076
1013	0.076
1013	0.075
1014	0.074
1014	0.073
1015	0.073
1015	0.072
1016	0.071
1016	0.069
1016	0.069
1017	0.068
1017	0.067
1018	0.066
1018	0.065
1018	0.064
1019	0.064
1019	0.063
1020	0.062
1020	0.061
1021	0.06
1021	0.06
1021	0.059
1022	0.058
1022	0.058
1023	0.057
1023	0.057
1023	0.057
1024	0.057
1024	0.056
1025	0.057
1025	0.057
1026	0.057
1026	0.058
1026	0.058
1027	0.059
1027	0.059
1028	0.059
1028	0.059
1028	0.059
1029	0.059
1029	0.059
1030	0.058
1030	0.058
1031	0.057
1031	0.057
1031	0.057
1032	0.057
1032	0.057
1033	0.057
1033	0.057
1033	0.057
1034	0.057
1034	0.057
1035	0.057
1035	0.057
1036	0.056
1036	0.056
1036	0.056
1037	0.056
1037	0.056
1038	0.057
1038	0.057
1039	0.057
1039	0.058
1039	0.058
1040	0.059
1040	0.059
1041	0.06
1041	0.06
1041	0.061
1042	0.061
1042	0.061
1043	0.061
1043	0.061
1044	0.06
1044	0.06
1044	0.059
1045	0.059
1045	0.058
1046	0.058
1046	0.057
1046	0.057
1047	0.057
1047	0.057
1048	0.057
1048	0.058
1049	0.058
1049	0.058
1049	0.058
1050	0.059
1050	0.059
1051	0.059
1051	0.059
1051	0.06
1052	0.06
1052	0.06
1053	0.06
1053	0.06
1053	0.06
1054	0.06
1054	0.059
1055	0.059
1055	0.058
1056	0.058
1056	0.056
1056	0.055
1057	0.054
1057	0.053
1058	0.053
1058	0.052
1058	0.052
1059	0.051
1059	0.05
1060	0.049
1060	0.048
1061	0.048
1061	0.048
1061	0.047
1062	0.047
1062	0.047
1063	0.047
1063	0.046
1063	0.047
1064	0.047
1064	0.047
1065	0.047
1065	0.047
1066	0.047
1066	0.047
1066	0.047
1067	0.047
1067	0.046
1068	0.045
1068	0.044
1068	0.043
1069	0.043
1069	0.042
1070	0.042
1070	0.041
1071	0.04
1071	0.04
1071	0.039
1072	0.039
1072	0.039
1073	0.039
1073	0.039
1073	0.039
1074	0.039
1074	0.04
1075	0.039
1075	0.039
1076	0.038
1076	0.039
1076	0.038
1077	0.037
1077	0.037
1078	0.036
1078	0.035
1078	0.035
1079	0.034
1079	0.033
1080	0.032
1080	0.032
1080	0.031
1081	0.03
1081	0.03
1082	0.029
1082	0.028
1083	0.027
1083	0.027
1083	0.026
1084	0.025
1084	0.024
1085	0.023
1085	0.023
1085	0.022
1086	0.022
1086	0.021
1087	0.021
1087	0.021
1088	0.02
1088	0.019
1088	0.018
1089	0.017
1089	0.017
1090	0.015
1090	0.015
1090	0.013
1091	0.012
1091	0.012
1092	0.011
1092	0.011
1092	0.009
1093	0.008
1093	0.008
1094	0.008
1094	0.007
1095	0.005
1095	0.005
1095	0.004
1096	0.003
1096	0.001
1097	0.001
1097	-0
1097	-0.001
1098	-0.003
1098	-0.005
1099	-0.006
1099	-0.007
1100	-0.009
1100	-0.01
1100	-0.013
1101	-0.016
1101	-0.019
1102	-0.02
1102	-0.024
1102	-0.025
1103	-0.028
1103	-0.031
1104	-0.033
1104	-0.035
1104	-0.038
1105	-0.04
1105	-0.044
1106	-0.049
1106	-0.051
1107	-0.056
1107	-0.06
1107	-0.066
1108	-0.067
1108	-0.069
1109	-0.074
1109	-0.079
1109	-0.082
1110	-0.082
1110	-0.085
1111	-0.093
1111	-0.094
