Data from 17C_3.1A_35min_2sec_int_Absorbance__417__02820.txt Node

Date: Mon Jun 19 18:32:12 CEST 2023
User: Marek
Spectrometer: MAYP115816
Trigger mode: 0
Integration Time (sec): 2.500000E-1
Scans to average: 10
Electric dark correction enabled: true
Nonlinearity correction enabled: true
Boxcar width: 5
XAxis mode: Wavelengths
Number of Pixels in Spectrum: 2068
>>>>>Begin Spectral Data<<<<<
199	-0.744
199	-0.755
200	-0.662
200	-0.612
201	-0.576
201	-0.562
202	-0.545
202	-0.533
203	-0.525
203	-0.519
204	-0.509
204	-0.495
205	-0.474
205	-0.467
205	-0.464
206	-0.468
206	-0.471
207	-0.463
207	-0.464
208	-0.465
208	-0.466
209	-0.459
209	-0.46
210	-0.465
210	-0.473
211	-0.476
211	-0.476
212	-0.48
212	-0.487
213	-0.488
213	-0.49
213	-0.494
214	-0.491
214	-0.489
215	-0.488
215	-0.494
216	-0.496
216	-0.505
217	-0.501
217	-0.505
218	-0.507
218	-0.507
219	-0.51
219	-0.52
220	-0.527
220	-0.539
221	-0.536
221	-0.539
221	-0.531
222	-0.527
222	-0.528
223	-0.529
223	-0.532
224	-0.536
224	-0.535
225	-0.529
225	-0.522
226	-0.527
226	-0.528
227	-0.533
227	-0.542
228	-0.543
228	-0.544
229	-0.545
229	-0.539
229	-0.534
230	-0.536
230	-0.54
231	-0.533
231	-0.523
232	-0.518
232	-0.52
233	-0.512
233	-0.513
234	-0.511
234	-0.507
235	-0.511
235	-0.517
236	-0.516
236	-0.521
236	-0.528
237	-0.535
237	-0.533
238	-0.543
238	-0.541
239	-0.543
239	-0.552
240	-0.551
240	-0.55
241	-0.556
241	-0.554
242	-0.558
242	-0.553
243	-0.548
243	-0.548
243	-0.557
244	-0.556
244	-0.554
245	-0.568
245	-0.568
246	-0.571
246	-0.578
247	-0.58
247	-0.584
248	-0.591
248	-0.589
249	-0.59
249	-0.6
250	-0.598
250	-0.593
250	-0.593
251	-0.588
251	-0.588
252	-0.592
252	-0.582
253	-0.587
253	-0.6
254	-0.601
254	-0.598
255	-0.607
255	-0.602
256	-0.6
256	-0.613
257	-0.608
257	-0.604
258	-0.621
258	-0.618
258	-0.612
259	-0.607
259	-0.618
260	-0.617
260	-0.621
261	-0.631
261	-0.62
262	-0.619
262	-0.622
263	-0.61
263	-0.605
264	-0.604
264	-0.612
265	-0.605
265	-0.614
265	-0.617
266	-0.615
266	-0.616
267	-0.629
267	-0.636
268	-0.653
268	-0.66
269	-0.661
269	-0.655
270	-0.659
270	-0.66
271	-0.66
271	-0.666
272	-0.669
272	-0.662
272	-0.656
273	-0.654
273	-0.663
274	-0.668
274	-0.673
275	-0.675
275	-0.669
276	-0.675
276	-0.668
277	-0.672
277	-0.693
278	-0.703
278	-0.698
278	-0.692
279	-0.696
279	-0.704
280	-0.7
280	-0.702
281	-0.695
281	-0.702
282	-0.694
282	-0.69
283	-0.68
283	-0.683
284	-0.678
284	-0.666
285	-0.663
285	-0.662
285	-0.659
286	-0.667
286	-0.661
287	-0.658
287	-0.644
288	-0.638
288	-0.647
289	-0.659
289	-0.669
290	-0.659
290	-0.657
291	-0.653
291	-0.646
292	-0.65
292	-0.656
292	-0.659
293	-0.663
293	-0.65
294	-0.638
294	-0.627
295	-0.624
295	-0.622
296	-0.62
296	-0.618
297	-0.611
297	-0.596
298	-0.589
298	-0.598
298	-0.587
299	-0.582
299	-0.584
300	-0.581
300	-0.578
301	-0.574
301	-0.574
302	-0.582
302	-0.589
303	-0.578
303	-0.564
304	-0.566
304	-0.565
305	-0.567
305	-0.566
305	-0.562
306	-0.548
306	-0.543
307	-0.53
307	-0.53
308	-0.545
308	-0.543
309	-0.544
309	-0.534
310	-0.523
310	-0.519
311	-0.511
311	-0.518
311	-0.513
312	-0.509
312	-0.508
313	-0.494
313	-0.495
314	-0.491
314	-0.494
315	-0.495
315	-0.491
316	-0.489
316	-0.479
317	-0.474
317	-0.469
318	-0.457
318	-0.455
318	-0.449
319	-0.441
319	-0.435
320	-0.427
320	-0.43
321	-0.435
321	-0.434
322	-0.429
322	-0.423
323	-0.425
323	-0.419
324	-0.411
324	-0.403
324	-0.393
325	-0.383
325	-0.366
326	-0.349
326	-0.332
327	-0.316
327	-0.297
328	-0.27
328	-0.25
329	-0.228
329	-0.205
330	-0.18
330	-0.147
330	-0.12
331	-0.091
331	-0.063
332	-0.038
332	-0.014
333	0.009
333	0.033
334	0.053
334	0.069
335	0.087
335	0.101
336	0.115
336	0.127
336	0.137
337	0.147
337	0.156
338	0.164
338	0.169
339	0.177
339	0.183
340	0.188
340	0.192
341	0.196
341	0.2
342	0.204
342	0.207
342	0.21
343	0.212
343	0.215
344	0.216
344	0.217
345	0.219
345	0.22
346	0.221
346	0.222
347	0.222
347	0.223
348	0.223
348	0.224
348	0.224
349	0.224
349	0.225
350	0.225
350	0.225
351	0.226
351	0.226
352	0.226
352	0.226
353	0.226
353	0.226
354	0.226
354	0.226
354	0.226
355	0.225
355	0.225
356	0.225
356	0.225
357	0.224
357	0.224
358	0.224
358	0.223
359	0.223
359	0.223
360	0.223
360	0.223
360	0.223
361	0.223
361	0.223
362	0.223
362	0.223
363	0.223
363	0.223
364	0.223
364	0.223
365	0.223
365	0.223
366	0.223
366	0.223
366	0.223
367	0.223
367	0.223
368	0.223
368	0.223
369	0.223
369	0.223
370	0.222
370	0.222
371	0.222
371	0.222
372	0.222
372	0.222
372	0.222
373	0.222
373	0.222
374	0.222
374	0.222
375	0.222
375	0.222
376	0.222
376	0.222
377	0.222
377	0.222
378	0.222
378	0.222
378	0.222
379	0.222
379	0.222
380	0.222
380	0.221
381	0.221
381	0.221
382	0.221
382	0.221
383	0.221
383	0.22
383	0.22
384	0.22
384	0.22
385	0.22
385	0.22
386	0.22
386	0.22
387	0.22
387	0.22
388	0.22
388	0.22
389	0.22
389	0.22
389	0.22
390	0.22
390	0.22
391	0.22
391	0.22
392	0.22
392	0.22
393	0.219
393	0.219
394	0.219
394	0.219
394	0.219
395	0.218
395	0.218
396	0.218
396	0.218
397	0.218
397	0.219
398	0.219
398	0.219
399	0.219
399	0.219
400	0.218
400	0.218
400	0.218
401	0.218
401	0.218
402	0.218
402	0.217
403	0.217
403	0.217
404	0.217
404	0.217
405	0.217
405	0.217
405	0.217
406	0.217
406	0.216
407	0.216
407	0.216
408	0.216
408	0.216
409	0.216
409	0.216
410	0.216
410	0.217
411	0.217
411	0.217
411	0.217
412	0.217
412	0.217
413	0.216
413	0.216
414	0.216
414	0.216
415	0.216
415	0.215
416	0.215
416	0.215
416	0.215
417	0.215
417	0.215
418	0.215
418	0.215
419	0.215
419	0.215
420	0.215
420	0.216
421	0.215
421	0.215
421	0.215
422	0.215
422	0.215
423	0.215
423	0.215
424	0.214
424	0.214
425	0.214
425	0.213
426	0.213
426	0.213
427	0.213
427	0.213
427	0.212
428	0.213
428	0.213
429	0.213
429	0.213
430	0.213
430	0.212
431	0.212
431	0.212
432	0.212
432	0.212
432	0.212
433	0.211
433	0.211
434	0.211
434	0.211
435	0.211
435	0.211
436	0.211
436	0.211
437	0.211
437	0.211
437	0.211
438	0.21
438	0.211
439	0.211
439	0.211
440	0.21
440	0.21
441	0.21
441	0.21
442	0.21
442	0.21
442	0.21
443	0.21
443	0.21
444	0.21
444	0.21
445	0.21
445	0.209
446	0.21
446	0.21
447	0.21
447	0.21
447	0.21
448	0.21
448	0.21
449	0.21
449	0.21
450	0.21
450	0.21
451	0.21
451	0.21
452	0.21
452	0.21
452	0.21
453	0.21
453	0.209
454	0.209
454	0.209
455	0.209
455	0.209
456	0.209
456	0.209
457	0.208
457	0.208
458	0.208
458	0.208
458	0.208
459	0.208
459	0.208
460	0.208
460	0.208
461	0.208
461	0.208
462	0.208
462	0.208
463	0.208
463	0.208
463	0.208
464	0.208
464	0.208
465	0.208
465	0.209
466	0.209
466	0.209
467	0.209
467	0.209
467	0.208
468	0.208
468	0.208
469	0.208
469	0.209
470	0.209
470	0.209
471	0.209
471	0.209
472	0.209
472	0.209
472	0.21
473	0.21
473	0.21
474	0.21
474	0.21
475	0.211
475	0.211
476	0.211
476	0.211
477	0.211
477	0.211
477	0.211
478	0.211
478	0.211
479	0.212
479	0.212
480	0.212
480	0.212
481	0.212
481	0.213
482	0.213
482	0.213
482	0.213
483	0.214
483	0.214
484	0.214
484	0.214
485	0.214
485	0.214
486	0.214
486	0.214
487	0.215
487	0.216
487	0.216
488	0.216
488	0.217
489	0.218
489	0.219
490	0.22
490	0.221
491	0.222
491	0.222
492	0.223
492	0.224
492	0.224
493	0.225
493	0.226
494	0.227
494	0.227
495	0.228
495	0.228
496	0.229
496	0.23
496	0.231
497	0.232
497	0.233
498	0.234
498	0.235
499	0.236
499	0.237
500	0.238
500	0.239
501	0.24
501	0.241
501	0.241
502	0.242
502	0.243
503	0.244
503	0.245
504	0.246
504	0.247
505	0.248
505	0.249
506	0.25
506	0.25
506	0.251
507	0.252
507	0.253
508	0.253
508	0.254
509	0.255
509	0.256
510	0.257
510	0.259
511	0.26
511	0.261
511	0.262
512	0.263
512	0.264
513	0.266
513	0.267
514	0.268
514	0.269
515	0.27
515	0.271
515	0.272
516	0.273
516	0.274
517	0.275
517	0.276
518	0.277
518	0.278
519	0.279
519	0.28
520	0.281
520	0.282
520	0.284
521	0.285
521	0.287
522	0.288
522	0.289
523	0.29
523	0.292
524	0.293
524	0.293
524	0.294
525	0.295
525	0.295
526	0.296
526	0.297
527	0.298
527	0.298
528	0.299
528	0.299
529	0.3
529	0.301
529	0.302
530	0.303
530	0.304
531	0.305
531	0.305
532	0.306
532	0.307
533	0.307
533	0.308
533	0.309
534	0.309
534	0.309
535	0.31
535	0.31
536	0.31
536	0.31
537	0.31
537	0.311
538	0.311
538	0.311
538	0.312
539	0.313
539	0.313
540	0.314
540	0.314
541	0.314
541	0.315
542	0.316
542	0.316
542	0.316
543	0.316
543	0.316
544	0.316
544	0.316
545	0.317
545	0.317
546	0.318
546	0.317
547	0.317
547	0.317
547	0.317
548	0.318
548	0.318
549	0.318
549	0.319
550	0.319
550	0.319
551	0.32
551	0.321
551	0.322
552	0.323
552	0.324
553	0.324
553	0.325
554	0.325
554	0.325
555	0.325
555	0.325
556	0.326
556	0.326
556	0.326
557	0.325
557	0.325
558	0.325
558	0.325
559	0.325
559	0.326
560	0.326
560	0.325
560	0.326
561	0.326
561	0.326
562	0.325
562	0.325
563	0.325
563	0.325
564	0.325
564	0.325
564	0.326
565	0.326
565	0.327
566	0.327
566	0.327
567	0.328
567	0.328
568	0.328
568	0.328
568	0.328
569	0.327
569	0.327
570	0.326
570	0.324
571	0.325
571	0.324
572	0.324
572	0.323
573	0.323
573	0.323
573	0.323
574	0.323
574	0.323
575	0.323
575	0.325
576	0.325
576	0.324
577	0.324
577	0.324
577	0.325
578	0.325
578	0.326
579	0.326
579	0.327
580	0.326
580	0.325
581	0.324
581	0.324
581	0.325
582	0.325
582	0.325
583	0.326
583	0.326
584	0.325
584	0.324
585	0.325
585	0.326
585	0.327
586	0.327
586	0.327
587	0.326
587	0.326
588	0.325
588	0.325
589	0.326
589	0.326
590	0.325
590	0.326
590	0.327
591	0.327
591	0.326
592	0.326
592	0.326
593	0.326
593	0.326
594	0.326
594	0.325
594	0.325
595	0.325
595	0.325
596	0.325
596	0.326
597	0.327
597	0.327
598	0.327
598	0.327
598	0.327
599	0.327
599	0.326
600	0.325
600	0.324
601	0.324
601	0.323
602	0.322
602	0.322
602	0.321
603	0.322
603	0.323
604	0.323
604	0.323
605	0.324
605	0.325
606	0.324
606	0.324
606	0.324
607	0.323
607	0.323
608	0.322
608	0.321
609	0.32
609	0.321
610	0.32
610	0.32
610	0.321
611	0.321
611	0.322
612	0.323
612	0.324
613	0.325
613	0.325
614	0.325
614	0.324
614	0.323
615	0.322
615	0.322
616	0.321
616	0.32
617	0.319
617	0.317
618	0.316
618	0.316
618	0.315
619	0.315
619	0.315
620	0.316
620	0.315
621	0.315
621	0.314
622	0.314
622	0.313
622	0.312
623	0.312
623	0.312
624	0.311
624	0.31
625	0.31
625	0.309
626	0.308
626	0.307
626	0.307
627	0.306
627	0.305
628	0.304
628	0.303
629	0.301
629	0.3
630	0.298
630	0.295
630	0.293
631	0.291
631	0.289
632	0.286
632	0.283
633	0.28
633	0.277
634	0.274
634	0.271
634	0.268
635	0.265
635	0.261
636	0.258
636	0.254
637	0.249
637	0.245
638	0.24
638	0.235
638	0.23
639	0.225
639	0.219
640	0.213
640	0.207
641	0.202
641	0.196
642	0.19
642	0.185
642	0.179
643	0.172
643	0.165
644	0.159
644	0.151
645	0.144
645	0.137
646	0.13
646	0.122
646	0.114
647	0.106
647	0.099
648	0.09
648	0.082
649	0.073
649	0.065
650	0.056
650	0.048
650	0.038
651	0.027
651	0.013
652	-0.004
652	-0.021
653	-0.036
653	-0.049
653	-0.046
654	-0.024
654	-0.012
655	-0.016
655	-0.021
656	-0.027
656	-0.034
657	-0.039
657	-0.042
657	-0.049
658	-0.056
658	-0.086
659	-0.177
659	-0.282
660	-0.328
660	-0.355
661	-0.383
661	-0.414
661	-0.448
662	-0.482
662	-0.516
663	-0.556
663	-0.598
664	-0.642
664	-0.694
665	-0.745
665	-0.804
665	-0.859
666	-0.915
666	-0.977
667	-1.041
667	-1.106
668	-1.178
668	-1.25
669	-1.323
669	-1.396
669	-1.473
670	-1.539
670	-1.565
671	-1.686
671	-1.968
672	-2.198
672	-2.39
672	-2.52
673	-2.612
673	-2.692
674	-2.732
674	-2.75
675	-2.775
675	-2.916
676	-3.113
676	-3.064
676	-2.84
677	-2.635
677	-2.47
678	-2.29
678	-1.98
679	-1.721
679	-1.59
680	-1.497
680	-1.414
680	-1.343
681	-1.298
681	-1.24
682	-1.202
682	-1.166
683	-1.132
683	-1.115
684	-1.096
684	-1.078
684	-1.057
685	-1.033
685	-1.012
686	-0.989
686	-0.973
687	-0.947
687	-0.935
687	-0.915
688	-0.89
688	-0.869
689	-0.849
689	-0.835
690	-0.818
690	-0.806
691	-0.8
691	-0.805
691	-0.822
692	-0.814
692	-0.805
693	-0.8
693	-0.808
694	-0.804
694	-0.797
695	-0.801
695	-0.799
695	-0.781
696	-0.778
696	-0.756
697	-0.757
697	-0.773
698	-0.777
698	-0.768
698	-0.783
699	-0.785
699	-0.783
700	-0.775
700	-0.792
701	-0.793
701	-0.799
702	-0.8
702	-0.787
702	-0.78
703	-0.772
703	-0.764
704	-0.76
704	-0.76
705	-0.771
705	-0.763
705	-0.749
706	-0.749
706	-0.742
707	-0.745
707	-0.739
708	-0.737
708	-0.729
709	-0.732
709	-0.732
709	-0.723
710	-0.731
710	-0.743
711	-0.735
711	-0.737
712	-0.738
712	-0.753
713	-0.752
713	-0.757
713	-0.75
714	-0.748
714	-0.75
715	-0.743
715	-0.728
716	-0.735
716	-0.736
716	-0.727
717	-0.728
717	-0.728
718	-0.719
718	-0.72
719	-0.727
719	-0.729
720	-0.724
720	-0.734
720	-0.728
721	-0.719
721	-0.72
722	-0.708
722	-0.7
723	-0.699
723	-0.703
723	-0.689
724	-0.691
724	-0.695
725	-0.692
725	-0.702
726	-0.715
726	-0.721
727	-0.727
727	-0.742
727	-0.749
728	-0.749
728	-0.756
729	-0.754
729	-0.76
730	-0.767
730	-0.757
730	-0.747
731	-0.728
731	-0.739
732	-0.745
732	-0.745
733	-0.745
733	-0.75
734	-0.746
734	-0.744
734	-0.731
735	-0.731
735	-0.732
736	-0.743
736	-0.728
737	-0.717
737	-0.719
737	-0.729
738	-0.724
738	-0.721
739	-0.719
739	-0.73
740	-0.73
740	-0.729
741	-0.727
741	-0.727
741	-0.732
742	-0.729
742	-0.726
743	-0.732
743	-0.74
744	-0.736
744	-0.726
744	-0.726
745	-0.733
745	-0.725
746	-0.724
746	-0.722
747	-0.724
747	-0.713
748	-0.703
748	-0.709
748	-0.711
749	-0.709
749	-0.711
750	-0.7
750	-0.701
751	-0.706
751	-0.716
751	-0.718
752	-0.723
752	-0.733
753	-0.725
753	-0.723
754	-0.727
754	-0.72
754	-0.735
755	-0.75
755	-0.761
756	-0.747
756	-0.744
757	-0.74
757	-0.733
758	-0.734
758	-0.73
758	-0.734
759	-0.742
759	-0.726
760	-0.718
760	-0.714
761	-0.724
761	-0.721
761	-0.722
762	-0.729
762	-0.732
763	-0.743
763	-0.741
764	-0.739
764	-0.745
764	-0.75
765	-0.74
765	-0.728
766	-0.737
766	-0.744
767	-0.76
767	-0.752
768	-0.742
768	-0.75
768	-0.756
769	-0.774
769	-0.777
770	-0.782
770	-0.796
771	-0.794
771	-0.795
771	-0.795
772	-0.798
772	-0.797
773	-0.797
773	-0.791
774	-0.788
774	-0.789
775	-0.79
775	-0.783
775	-0.79
776	-0.792
776	-0.783
777	-0.792
777	-0.813
778	-0.808
778	-0.828
778	-0.818
779	-0.839
779	-0.847
780	-0.862
780	-0.86
781	-0.873
781	-0.868
781	-0.883
782	-0.884
782	-0.888
783	-0.874
783	-0.87
784	-0.851
784	-0.842
784	-0.851
785	-0.856
785	-0.841
786	-0.847
786	-0.824
787	-0.81
787	-0.813
788	-0.815
788	-0.827
788	-0.837
789	-0.838
789	-0.819
790	-0.801
790	-0.802
791	-0.8
791	-0.817
791	-0.825
792	-0.817
792	-0.793
793	-0.781
793	-0.758
794	-0.761
794	-0.752
794	-0.761
795	-0.758
795	-0.751
796	-0.736
796	-0.742
797	-0.737
797	-0.749
797	-0.756
798	-0.768
798	-0.763
799	-0.773
799	-0.76
800	-0.764
800	-0.758
801	-0.763
801	-0.75
801	-0.758
802	-0.769
802	-0.77
803	-0.772
803	-0.782
804	-0.779
804	-0.788
804	-0.776
805	-0.782
805	-0.772
806	-0.773
806	-0.758
807	-0.755
807	-0.736
807	-0.722
808	-0.712
808	-0.705
809	-0.691
809	-0.698
810	-0.694
810	-0.685
810	-0.684
811	-0.69
811	-0.683
812	-0.688
812	-0.692
813	-0.697
813	-0.692
813	-0.697
814	-0.703
814	-0.707
815	-0.713
815	-0.716
816	-0.71
816	-0.712
817	-0.718
817	-0.738
817	-0.751
818	-0.758
818	-0.76
819	-0.75
819	-0.751
820	-0.76
820	-0.757
820	-0.768
821	-0.768
821	-0.755
822	-0.722
822	-0.698
823	-0.698
823	-0.702
823	-0.699
824	-0.69
824	-0.693
825	-0.685
825	-0.664
826	-0.658
826	-0.665
826	-0.674
827	-0.67
827	-0.666
828	-0.644
828	-0.644
829	-0.637
829	-0.62
829	-0.613
830	-0.625
830	-0.62
831	-0.611
831	-0.602
832	-0.599
832	-0.591
832	-0.599
833	-0.595
833	-0.596
834	-0.594
834	-0.6
835	-0.586
835	-0.582
835	-0.578
836	-0.575
836	-0.573
837	-0.569
837	-0.559
838	-0.55
838	-0.537
839	-0.524
839	-0.514
839	-0.503
840	-0.492
840	-0.49
841	-0.478
841	-0.467
842	-0.462
842	-0.45
842	-0.441
843	-0.436
843	-0.43
844	-0.419
844	-0.412
845	-0.403
845	-0.392
845	-0.377
846	-0.367
846	-0.352
847	-0.34
847	-0.329
848	-0.317
848	-0.306
848	-0.29
849	-0.278
849	-0.265
850	-0.25
850	-0.243
851	-0.234
851	-0.224
851	-0.215
852	-0.199
852	-0.185
853	-0.176
853	-0.169
854	-0.157
854	-0.145
854	-0.133
855	-0.121
855	-0.113
856	-0.101
856	-0.091
857	-0.085
857	-0.076
857	-0.063
858	-0.052
858	-0.043
859	-0.035
859	-0.024
860	-0.013
860	0.001
860	0.01
861	0.019
861	0.029
862	0.037
862	0.046
863	0.053
863	0.062
863	0.069
864	0.074
864	0.081
865	0.087
865	0.093
866	0.098
866	0.102
866	0.106
867	0.11
867	0.114
868	0.117
868	0.121
869	0.124
869	0.126
869	0.128
870	0.131
870	0.133
871	0.135
871	0.137
872	0.138
872	0.139
872	0.139
873	0.139
873	0.139
874	0.139
874	0.139
875	0.138
875	0.137
875	0.136
876	0.135
876	0.134
877	0.132
877	0.131
878	0.13
878	0.129
878	0.127
879	0.126
879	0.125
880	0.125
880	0.125
881	0.125
881	0.124
881	0.124
882	0.124
882	0.122
883	0.121
883	0.12
884	0.119
884	0.118
884	0.117
885	0.116
885	0.115
886	0.115
886	0.114
887	0.114
887	0.114
887	0.114
888	0.115
888	0.114
889	0.115
889	0.115
890	0.115
890	0.115
890	0.115
891	0.114
891	0.114
892	0.115
892	0.115
893	0.114
893	0.115
893	0.115
894	0.114
894	0.114
895	0.114
895	0.114
895	0.113
896	0.112
896	0.111
897	0.11
897	0.109
898	0.108
898	0.107
898	0.107
899	0.106
899	0.106
900	0.107
900	0.107
901	0.107
901	0.108
901	0.109
902	0.11
902	0.11
903	0.111
903	0.111
904	0.112
904	0.112
904	0.113
905	0.114
905	0.114
906	0.115
906	0.115
907	0.115
907	0.114
907	0.114
908	0.114
908	0.113
909	0.112
909	0.111
910	0.11
910	0.109
910	0.109
911	0.109
911	0.11
912	0.11
912	0.111
913	0.112
913	0.113
913	0.114
914	0.115
914	0.116
915	0.116
915	0.117
916	0.117
916	0.118
916	0.118
917	0.118
917	0.118
918	0.118
918	0.118
918	0.117
919	0.117
919	0.117
920	0.116
920	0.116
921	0.116
921	0.116
921	0.115
922	0.115
922	0.115
923	0.114
923	0.114
924	0.114
924	0.113
924	0.112
925	0.111
925	0.11
926	0.109
926	0.108
927	0.108
927	0.107
927	0.106
928	0.106
928	0.105
929	0.105
929	0.104
930	0.103
930	0.102
930	0.102
931	0.101
931	0.101
932	0.1
932	0.099
933	0.098
933	0.097
933	0.096
934	0.095
934	0.094
935	0.093
935	0.092
935	0.092
936	0.091
936	0.09
937	0.089
937	0.089
938	0.089
938	0.089
938	0.088
939	0.089
939	0.089
940	0.089
940	0.089
941	0.089
941	0.09
941	0.09
942	0.091
942	0.091
943	0.091
943	0.091
944	0.09
944	0.089
944	0.089
945	0.088
945	0.086
946	0.085
946	0.084
946	0.083
947	0.082
947	0.081
948	0.081
948	0.082
949	0.081
949	0.082
949	0.082
950	0.083
950	0.083
951	0.084
951	0.084
952	0.085
952	0.086
952	0.087
953	0.087
953	0.088
954	0.089
954	0.09
955	0.09
955	0.091
955	0.092
956	0.093
956	0.093
957	0.093
957	0.094
957	0.094
958	0.095
958	0.095
959	0.096
959	0.096
960	0.096
960	0.096
960	0.096
961	0.096
961	0.097
962	0.097
962	0.097
963	0.097
963	0.096
963	0.096
964	0.096
964	0.096
965	0.096
965	0.096
966	0.095
966	0.095
966	0.095
967	0.094
967	0.093
968	0.093
968	0.092
968	0.092
969	0.091
969	0.091
970	0.09
970	0.091
971	0.091
971	0.091
971	0.091
972	0.092
972	0.092
973	0.092
973	0.092
974	0.091
974	0.091
974	0.092
975	0.092
975	0.091
976	0.091
976	0.09
976	0.09
977	0.09
977	0.09
978	0.091
978	0.091
979	0.091
979	0.091
979	0.091
980	0.091
980	0.09
981	0.09
981	0.09
982	0.09
982	0.09
982	0.089
983	0.089
983	0.088
984	0.088
984	0.087
984	0.087
985	0.087
985	0.086
986	0.086
986	0.085
987	0.084
987	0.084
987	0.083
988	0.083
988	0.082
989	0.081
989	0.08
990	0.079
990	0.079
990	0.078
991	0.078
991	0.078
992	0.077
992	0.077
992	0.077
993	0.077
993	0.077
994	0.077
994	0.077
995	0.076
995	0.076
995	0.075
996	0.075
996	0.074
997	0.074
997	0.074
997	0.074
998	0.074
998	0.074
999	0.074
999	0.075
1000	0.075
1000	0.075
1000	0.076
1001	0.076
1001	0.077
1002	0.077
1002	0.077
1003	0.077
1003	0.077
1003	0.077
1004	0.077
1004	0.076
1005	0.076
1005	0.075
1005	0.074
1006	0.073
1006	0.072
1007	0.071
1007	0.07
1008	0.069
1008	0.068
1008	0.068
1009	0.068
1009	0.068
1010	0.068
1010	0.068
1010	0.068
1011	0.069
1011	0.069
1012	0.068
1012	0.068
1013	0.068
1013	0.067
1013	0.066
1014	0.066
1014	0.065
1015	0.064
1015	0.063
1016	0.062
1016	0.061
1016	0.061
1017	0.06
1017	0.059
1018	0.058
1018	0.057
1018	0.056
1019	0.055
1019	0.054
1020	0.054
1020	0.053
1021	0.053
1021	0.052
1021	0.051
1022	0.051
1022	0.05
1023	0.05
1023	0.05
1023	0.05
1024	0.05
1024	0.05
1025	0.049
1025	0.05
1026	0.05
1026	0.05
1026	0.05
1027	0.051
1027	0.051
1028	0.051
1028	0.051
1028	0.051
1029	0.051
1029	0.051
1030	0.05
1030	0.049
1031	0.049
1031	0.049
1031	0.048
1032	0.048
1032	0.048
1033	0.047
1033	0.048
1033	0.048
1034	0.047
1034	0.047
1035	0.047
1035	0.047
1036	0.047
1036	0.047
1036	0.047
1037	0.047
1037	0.047
1038	0.047
1038	0.047
1039	0.048
1039	0.048
1039	0.048
1040	0.049
1040	0.05
1041	0.05
1041	0.05
1041	0.051
1042	0.05
1042	0.05
1043	0.049
1043	0.048
1044	0.048
1044	0.047
1044	0.046
1045	0.045
1045	0.044
1046	0.043
1046	0.042
1046	0.042
1047	0.042
1047	0.042
1048	0.042
1048	0.042
1049	0.042
1049	0.042
1049	0.042
1050	0.043
1050	0.043
1051	0.043
1051	0.043
1051	0.044
1052	0.044
1052	0.045
1053	0.045
1053	0.045
1053	0.045
1054	0.045
1054	0.045
1055	0.045
1055	0.045
1056	0.044
1056	0.044
1056	0.043
1057	0.042
1057	0.041
1058	0.041
1058	0.04
1058	0.039
1059	0.038
1059	0.037
1060	0.036
1060	0.036
1061	0.036
1061	0.035
1061	0.035
1062	0.035
1062	0.035
1063	0.034
1063	0.034
1063	0.035
1064	0.035
1064	0.035
1065	0.035
1065	0.035
1066	0.034
1066	0.034
1066	0.034
1067	0.034
1067	0.034
1068	0.033
1068	0.033
1068	0.032
1069	0.032
1069	0.032
1070	0.031
1070	0.031
1071	0.031
1071	0.031
1071	0.03
1072	0.029
1072	0.029
1073	0.029
1073	0.028
1073	0.028
1074	0.028
1074	0.028
1075	0.027
1075	0.026
1076	0.025
1076	0.026
1076	0.025
1077	0.024
1077	0.024
1078	0.023
1078	0.023
1078	0.022
1079	0.021
1079	0.021
1080	0.02
1080	0.02
1080	0.019
1081	0.018
1081	0.018
1082	0.018
1082	0.017
1083	0.016
1083	0.015
1083	0.014
1084	0.013
1084	0.013
1085	0.011
1085	0.011
1085	0.01
1086	0.01
1086	0.008
1087	0.008
1087	0.008
1088	0.006
1088	0.006
1088	0.005
1089	0.004
1089	0.002
1090	0.001
1090	0
1090	-0.001
1091	-0.002
1091	-0.003
1092	-0.004
1092	-0.004
1092	-0.005
1093	-0.006
1093	-0.006
1094	-0.006
1094	-0.007
1095	-0.009
1095	-0.009
1095	-0.01
1096	-0.011
1096	-0.011
1097	-0.013
1097	-0.014
1097	-0.014
1098	-0.016
1098	-0.018
1099	-0.018
1099	-0.019
1100	-0.02
1100	-0.022
1100	-0.024
1101	-0.027
1101	-0.03
1102	-0.032
1102	-0.034
1102	-0.035
1103	-0.037
1103	-0.04
1104	-0.043
1104	-0.045
1104	-0.048
1105	-0.05
1105	-0.053
1106	-0.057
1106	-0.06
1107	-0.064
1107	-0.068
1107	-0.074
1108	-0.075
1108	-0.078
1109	-0.081
1109	-0.086
1109	-0.088
1110	-0.089
1110	-0.091
1111	-0.097
1111	-0.098
