Data from 17C_3.1A_35min_2sec_int_Absorbance__218__02621.txt Node

Date: Mon Jun 19 18:23:54 CEST 2023
User: Marek
Spectrometer: MAYP115816
Trigger mode: 0
Integration Time (sec): 2.500000E-1
Scans to average: 10
Electric dark correction enabled: true
Nonlinearity correction enabled: true
Boxcar width: 5
XAxis mode: Wavelengths
Number of Pixels in Spectrum: 2068
>>>>>Begin Spectral Data<<<<<
199	-0.746
199	-0.764
200	-0.668
200	-0.614
201	-0.576
201	-0.563
202	-0.545
202	-0.534
203	-0.527
203	-0.524
204	-0.512
204	-0.497
205	-0.472
205	-0.465
205	-0.464
206	-0.468
206	-0.47
207	-0.461
207	-0.46
208	-0.461
208	-0.459
209	-0.453
209	-0.453
210	-0.457
210	-0.464
211	-0.467
211	-0.467
212	-0.471
212	-0.481
213	-0.479
213	-0.479
213	-0.484
214	-0.482
214	-0.481
215	-0.48
215	-0.487
216	-0.489
216	-0.495
217	-0.49
217	-0.494
218	-0.499
218	-0.5
219	-0.504
219	-0.514
220	-0.52
220	-0.531
221	-0.528
221	-0.532
221	-0.524
222	-0.521
222	-0.521
223	-0.523
223	-0.526
224	-0.531
224	-0.529
225	-0.524
225	-0.517
226	-0.522
226	-0.521
227	-0.528
227	-0.538
228	-0.539
228	-0.54
229	-0.54
229	-0.534
229	-0.531
230	-0.535
230	-0.538
231	-0.531
231	-0.523
232	-0.516
232	-0.515
233	-0.509
233	-0.508
234	-0.508
234	-0.504
235	-0.506
235	-0.511
236	-0.51
236	-0.514
236	-0.521
237	-0.527
237	-0.526
238	-0.535
238	-0.534
239	-0.533
239	-0.542
240	-0.54
240	-0.537
241	-0.543
241	-0.543
242	-0.547
242	-0.544
243	-0.542
243	-0.542
243	-0.552
244	-0.551
244	-0.549
245	-0.565
245	-0.565
246	-0.571
246	-0.577
247	-0.578
247	-0.581
248	-0.587
248	-0.585
249	-0.585
249	-0.595
250	-0.593
250	-0.588
250	-0.588
251	-0.583
251	-0.583
252	-0.587
252	-0.577
253	-0.582
253	-0.592
254	-0.59
254	-0.588
255	-0.596
255	-0.589
256	-0.586
256	-0.598
257	-0.593
257	-0.59
258	-0.608
258	-0.605
258	-0.603
259	-0.6
259	-0.607
260	-0.608
260	-0.614
261	-0.627
261	-0.617
262	-0.615
262	-0.616
263	-0.604
263	-0.6
264	-0.599
264	-0.608
265	-0.605
265	-0.612
265	-0.615
266	-0.612
266	-0.611
267	-0.624
267	-0.632
268	-0.647
268	-0.656
269	-0.653
269	-0.647
270	-0.651
270	-0.656
271	-0.656
271	-0.66
272	-0.664
272	-0.657
272	-0.65
273	-0.649
273	-0.656
274	-0.662
274	-0.669
275	-0.668
275	-0.661
276	-0.668
276	-0.661
277	-0.664
277	-0.681
278	-0.693
278	-0.688
278	-0.682
279	-0.685
279	-0.695
280	-0.693
280	-0.694
281	-0.686
281	-0.693
282	-0.684
282	-0.684
283	-0.674
283	-0.677
284	-0.672
284	-0.661
285	-0.656
285	-0.654
285	-0.648
286	-0.657
286	-0.651
287	-0.651
287	-0.635
288	-0.627
288	-0.634
289	-0.648
289	-0.658
290	-0.647
290	-0.645
291	-0.643
291	-0.636
292	-0.64
292	-0.646
292	-0.652
293	-0.656
293	-0.646
294	-0.634
294	-0.622
295	-0.62
295	-0.619
296	-0.617
296	-0.615
297	-0.609
297	-0.593
298	-0.585
298	-0.594
298	-0.582
299	-0.575
299	-0.579
300	-0.573
300	-0.566
301	-0.562
301	-0.559
302	-0.567
302	-0.575
303	-0.564
303	-0.548
304	-0.551
304	-0.55
305	-0.553
305	-0.554
305	-0.551
306	-0.536
306	-0.531
307	-0.515
307	-0.519
308	-0.532
308	-0.531
309	-0.534
309	-0.523
310	-0.509
310	-0.505
311	-0.498
311	-0.507
311	-0.503
312	-0.5
312	-0.493
313	-0.479
313	-0.481
314	-0.477
314	-0.48
315	-0.481
315	-0.479
316	-0.476
316	-0.466
317	-0.459
317	-0.454
318	-0.445
318	-0.442
318	-0.436
319	-0.425
319	-0.421
320	-0.414
320	-0.413
321	-0.419
321	-0.418
322	-0.413
322	-0.408
323	-0.407
323	-0.402
324	-0.395
324	-0.386
324	-0.376
325	-0.367
325	-0.348
326	-0.332
326	-0.314
327	-0.299
327	-0.278
328	-0.253
328	-0.232
329	-0.208
329	-0.185
330	-0.156
330	-0.123
330	-0.097
331	-0.067
331	-0.038
332	-0.011
332	0.013
333	0.037
333	0.064
334	0.086
334	0.104
335	0.122
335	0.138
336	0.153
336	0.167
336	0.179
337	0.191
337	0.201
338	0.21
338	0.217
339	0.225
339	0.232
340	0.237
340	0.242
341	0.246
341	0.25
342	0.254
342	0.257
342	0.26
343	0.263
343	0.266
344	0.268
344	0.269
345	0.271
345	0.272
346	0.273
346	0.273
347	0.275
347	0.275
348	0.276
348	0.276
348	0.276
349	0.277
349	0.277
350	0.278
350	0.278
351	0.278
351	0.278
352	0.278
352	0.278
353	0.278
353	0.278
354	0.278
354	0.277
354	0.277
355	0.277
355	0.277
356	0.277
356	0.277
357	0.276
357	0.275
358	0.275
358	0.275
359	0.275
359	0.275
360	0.275
360	0.275
360	0.275
361	0.274
361	0.274
362	0.275
362	0.274
363	0.274
363	0.274
364	0.274
364	0.274
365	0.274
365	0.274
366	0.274
366	0.274
366	0.274
367	0.274
367	0.274
368	0.274
368	0.274
369	0.274
369	0.274
370	0.274
370	0.273
371	0.273
371	0.273
372	0.273
372	0.273
372	0.273
373	0.273
373	0.273
374	0.273
374	0.273
375	0.273
375	0.273
376	0.272
376	0.272
377	0.272
377	0.272
378	0.272
378	0.272
378	0.272
379	0.272
379	0.271
380	0.271
380	0.271
381	0.271
381	0.271
382	0.27
382	0.27
383	0.27
383	0.27
383	0.27
384	0.269
384	0.269
385	0.269
385	0.27
386	0.27
386	0.27
387	0.27
387	0.27
388	0.27
388	0.27
389	0.269
389	0.269
389	0.269
390	0.269
390	0.269
391	0.269
391	0.269
392	0.269
392	0.268
393	0.268
393	0.268
394	0.268
394	0.267
394	0.267
395	0.267
395	0.266
396	0.266
396	0.266
397	0.266
397	0.266
398	0.266
398	0.266
399	0.266
399	0.266
400	0.266
400	0.266
400	0.265
401	0.265
401	0.265
402	0.265
402	0.265
403	0.264
403	0.264
404	0.264
404	0.264
405	0.264
405	0.263
405	0.263
406	0.263
406	0.263
407	0.263
407	0.263
408	0.263
408	0.262
409	0.262
409	0.262
410	0.262
410	0.263
411	0.263
411	0.263
411	0.263
412	0.263
412	0.262
413	0.262
413	0.262
414	0.262
414	0.262
415	0.261
415	0.261
416	0.261
416	0.261
416	0.26
417	0.26
417	0.26
418	0.26
418	0.26
419	0.26
419	0.26
420	0.26
420	0.261
421	0.261
421	0.26
421	0.26
422	0.26
422	0.26
423	0.26
423	0.26
424	0.259
424	0.259
425	0.259
425	0.258
426	0.258
426	0.258
427	0.258
427	0.257
427	0.257
428	0.257
428	0.257
429	0.258
429	0.257
430	0.257
430	0.257
431	0.257
431	0.257
432	0.257
432	0.256
432	0.256
433	0.256
433	0.255
434	0.255
434	0.255
435	0.255
435	0.255
436	0.255
436	0.255
437	0.255
437	0.255
437	0.255
438	0.255
438	0.255
439	0.254
439	0.254
440	0.254
440	0.254
441	0.254
441	0.254
442	0.254
442	0.253
442	0.254
443	0.254
443	0.253
444	0.254
444	0.253
445	0.253
445	0.253
446	0.253
446	0.253
447	0.253
447	0.253
447	0.253
448	0.253
448	0.254
449	0.253
449	0.253
450	0.254
450	0.254
451	0.254
451	0.254
452	0.254
452	0.254
452	0.253
453	0.253
453	0.253
454	0.253
454	0.252
455	0.252
455	0.252
456	0.252
456	0.252
457	0.252
457	0.251
458	0.252
458	0.252
458	0.252
459	0.252
459	0.252
460	0.251
460	0.251
461	0.252
461	0.252
462	0.252
462	0.252
463	0.252
463	0.252
463	0.252
464	0.252
464	0.252
465	0.252
465	0.252
466	0.253
466	0.253
467	0.253
467	0.253
467	0.253
468	0.253
468	0.253
469	0.253
469	0.253
470	0.254
470	0.254
471	0.254
471	0.254
472	0.254
472	0.254
472	0.255
473	0.255
473	0.255
474	0.256
474	0.256
475	0.256
475	0.257
476	0.257
476	0.257
477	0.257
477	0.257
477	0.258
478	0.258
478	0.258
479	0.259
479	0.259
480	0.259
480	0.259
481	0.26
481	0.261
482	0.261
482	0.262
482	0.262
483	0.262
483	0.263
484	0.263
484	0.263
485	0.263
485	0.264
486	0.264
486	0.265
487	0.265
487	0.266
487	0.267
488	0.267
488	0.268
489	0.269
489	0.271
490	0.272
490	0.273
491	0.274
491	0.275
492	0.276
492	0.277
492	0.278
493	0.279
493	0.281
494	0.282
494	0.282
495	0.283
495	0.284
496	0.285
496	0.286
496	0.288
497	0.289
497	0.29
498	0.291
498	0.293
499	0.294
499	0.296
500	0.297
500	0.299
501	0.3
501	0.302
501	0.303
502	0.304
502	0.305
503	0.306
503	0.308
504	0.309
504	0.311
505	0.312
505	0.314
506	0.315
506	0.316
506	0.318
507	0.319
507	0.32
508	0.322
508	0.323
509	0.325
509	0.326
510	0.328
510	0.33
511	0.331
511	0.333
511	0.334
512	0.336
512	0.338
513	0.34
513	0.341
514	0.343
514	0.345
515	0.346
515	0.348
515	0.349
516	0.351
516	0.353
517	0.355
517	0.356
518	0.358
518	0.359
519	0.36
519	0.361
520	0.363
520	0.365
520	0.366
521	0.368
521	0.369
522	0.37
522	0.372
523	0.374
523	0.375
524	0.376
524	0.377
524	0.379
525	0.379
525	0.38
526	0.381
526	0.383
527	0.384
527	0.385
528	0.386
528	0.387
529	0.388
529	0.389
529	0.39
530	0.392
530	0.393
531	0.393
531	0.394
532	0.395
532	0.396
533	0.397
533	0.398
533	0.399
534	0.399
534	0.4
535	0.4
535	0.401
536	0.401
536	0.401
537	0.401
537	0.402
538	0.402
538	0.403
538	0.403
539	0.404
539	0.405
540	0.405
540	0.406
541	0.406
541	0.407
542	0.408
542	0.408
542	0.408
543	0.408
543	0.408
544	0.408
544	0.408
545	0.408
545	0.408
546	0.408
546	0.408
547	0.408
547	0.408
547	0.408
548	0.408
548	0.408
549	0.409
549	0.409
550	0.409
550	0.41
551	0.41
551	0.411
551	0.412
552	0.413
552	0.413
553	0.414
553	0.414
554	0.414
554	0.414
555	0.414
555	0.414
556	0.414
556	0.414
556	0.414
557	0.414
557	0.413
558	0.413
558	0.413
559	0.413
559	0.413
560	0.412
560	0.412
560	0.412
561	0.412
561	0.412
562	0.411
562	0.411
563	0.41
563	0.41
564	0.41
564	0.41
564	0.41
565	0.411
565	0.411
566	0.411
566	0.411
567	0.411
567	0.411
568	0.411
568	0.41
568	0.41
569	0.41
569	0.409
570	0.408
570	0.406
571	0.406
571	0.406
572	0.405
572	0.405
573	0.404
573	0.404
573	0.403
574	0.403
574	0.403
575	0.403
575	0.404
576	0.403
576	0.403
577	0.402
577	0.402
577	0.403
578	0.403
578	0.403
579	0.403
579	0.403
580	0.402
580	0.401
581	0.4
581	0.4
581	0.4
582	0.4
582	0.4
583	0.399
583	0.399
584	0.397
584	0.397
585	0.398
585	0.398
585	0.398
586	0.398
586	0.397
587	0.396
587	0.396
588	0.395
588	0.395
589	0.394
589	0.394
590	0.394
590	0.394
590	0.394
591	0.394
591	0.392
592	0.391
592	0.39
593	0.39
593	0.39
594	0.389
594	0.388
594	0.388
595	0.388
595	0.387
596	0.386
596	0.387
597	0.388
597	0.387
598	0.387
598	0.386
598	0.385
599	0.384
599	0.383
600	0.382
600	0.381
601	0.38
601	0.379
602	0.377
602	0.377
602	0.376
603	0.376
603	0.376
604	0.376
604	0.376
605	0.376
605	0.376
606	0.375
606	0.373
606	0.373
607	0.372
607	0.371
608	0.37
608	0.368
609	0.367
609	0.367
610	0.366
610	0.365
610	0.365
611	0.365
611	0.365
612	0.366
612	0.366
613	0.366
613	0.366
614	0.364
614	0.363
614	0.362
615	0.361
615	0.359
616	0.358
616	0.357
617	0.355
617	0.353
618	0.352
618	0.351
618	0.35
619	0.349
619	0.349
620	0.348
620	0.347
621	0.346
621	0.345
622	0.344
622	0.343
622	0.341
623	0.34
623	0.34
624	0.338
624	0.337
625	0.335
625	0.334
626	0.332
626	0.331
626	0.33
627	0.328
627	0.326
628	0.324
628	0.322
629	0.319
629	0.317
630	0.314
630	0.311
630	0.308
631	0.305
631	0.301
632	0.298
632	0.294
633	0.29
633	0.286
634	0.282
634	0.278
634	0.274
635	0.269
635	0.265
636	0.26
636	0.255
637	0.249
637	0.244
638	0.238
638	0.232
638	0.225
639	0.218
639	0.211
640	0.204
640	0.197
641	0.19
641	0.183
642	0.176
642	0.169
642	0.162
643	0.154
643	0.146
644	0.138
644	0.129
645	0.121
645	0.112
646	0.104
646	0.095
646	0.086
647	0.077
647	0.069
648	0.06
648	0.051
649	0.042
649	0.032
650	0.023
650	0.014
650	0.004
651	-0.008
651	-0.023
652	-0.04
652	-0.057
653	-0.072
653	-0.086
653	-0.082
654	-0.057
654	-0.044
655	-0.046
655	-0.051
656	-0.057
656	-0.063
657	-0.067
657	-0.071
657	-0.077
658	-0.083
658	-0.115
659	-0.208
659	-0.317
660	-0.363
660	-0.392
661	-0.421
661	-0.453
661	-0.489
662	-0.523
662	-0.559
663	-0.6
663	-0.645
664	-0.691
664	-0.745
665	-0.798
665	-0.858
665	-0.915
666	-0.974
666	-1.037
667	-1.103
667	-1.17
668	-1.243
668	-1.317
669	-1.392
669	-1.468
669	-1.549
670	-1.623
670	-1.67
671	-1.874
671	-2.076
672	-2.273
672	-2.446
672	-2.565
673	-2.65
673	-2.724
674	-2.759
674	-2.776
675	-2.799
675	-2.936
676	-3.111
676	-3.062
676	-2.837
677	-2.631
677	-2.465
678	-2.283
678	-1.967
679	-1.728
679	-1.604
680	-1.513
680	-1.433
680	-1.366
681	-1.323
681	-1.265
682	-1.226
682	-1.189
683	-1.155
683	-1.139
684	-1.118
684	-1.099
684	-1.077
685	-1.052
685	-1.03
686	-1.006
686	-0.991
687	-0.965
687	-0.953
687	-0.932
688	-0.907
688	-0.887
689	-0.867
689	-0.853
690	-0.835
690	-0.823
691	-0.816
691	-0.82
691	-0.835
692	-0.827
692	-0.819
693	-0.814
693	-0.82
694	-0.815
694	-0.807
695	-0.81
695	-0.808
695	-0.792
696	-0.788
696	-0.767
697	-0.767
697	-0.781
698	-0.783
698	-0.774
698	-0.789
699	-0.791
699	-0.789
700	-0.779
700	-0.794
701	-0.793
701	-0.799
702	-0.799
702	-0.785
702	-0.777
703	-0.769
703	-0.759
704	-0.756
704	-0.757
705	-0.768
705	-0.761
705	-0.75
706	-0.75
706	-0.747
707	-0.753
707	-0.749
708	-0.746
708	-0.739
709	-0.739
709	-0.74
709	-0.732
710	-0.739
710	-0.749
711	-0.739
711	-0.74
712	-0.74
712	-0.751
713	-0.75
713	-0.757
713	-0.751
714	-0.747
714	-0.748
715	-0.739
715	-0.724
716	-0.732
716	-0.733
716	-0.727
717	-0.73
717	-0.732
718	-0.722
718	-0.723
719	-0.73
719	-0.731
720	-0.728
720	-0.738
720	-0.732
721	-0.722
721	-0.722
722	-0.708
722	-0.698
723	-0.696
723	-0.7
723	-0.687
724	-0.689
724	-0.691
725	-0.69
725	-0.699
726	-0.711
726	-0.716
727	-0.722
727	-0.735
727	-0.743
728	-0.742
728	-0.749
729	-0.748
729	-0.753
730	-0.76
730	-0.751
730	-0.741
731	-0.725
731	-0.735
732	-0.743
732	-0.742
733	-0.74
733	-0.746
734	-0.74
734	-0.741
734	-0.728
735	-0.728
735	-0.728
736	-0.738
736	-0.725
737	-0.716
737	-0.718
737	-0.727
738	-0.722
738	-0.723
739	-0.719
739	-0.731
740	-0.729
740	-0.729
741	-0.723
741	-0.726
741	-0.73
742	-0.729
742	-0.73
743	-0.735
743	-0.737
744	-0.733
744	-0.723
744	-0.724
745	-0.731
745	-0.724
746	-0.722
746	-0.719
747	-0.718
747	-0.707
748	-0.699
748	-0.705
748	-0.708
749	-0.707
749	-0.709
750	-0.697
750	-0.699
751	-0.703
751	-0.711
751	-0.713
752	-0.718
752	-0.726
753	-0.721
753	-0.718
754	-0.723
754	-0.716
754	-0.73
755	-0.746
755	-0.756
756	-0.745
756	-0.744
757	-0.742
757	-0.738
758	-0.743
758	-0.741
758	-0.743
759	-0.751
759	-0.735
760	-0.728
760	-0.723
761	-0.731
761	-0.727
761	-0.726
762	-0.733
762	-0.732
763	-0.742
763	-0.738
764	-0.736
764	-0.744
764	-0.75
765	-0.741
765	-0.728
766	-0.736
766	-0.741
767	-0.754
767	-0.749
768	-0.738
768	-0.748
768	-0.753
769	-0.771
769	-0.771
770	-0.774
770	-0.788
771	-0.785
771	-0.789
771	-0.788
772	-0.791
772	-0.79
773	-0.792
773	-0.789
774	-0.787
774	-0.786
775	-0.791
775	-0.785
775	-0.793
776	-0.794
776	-0.784
777	-0.791
777	-0.812
778	-0.808
778	-0.826
778	-0.812
779	-0.835
779	-0.843
780	-0.858
780	-0.856
781	-0.867
781	-0.864
781	-0.881
782	-0.88
782	-0.882
783	-0.869
783	-0.87
784	-0.85
784	-0.841
784	-0.849
785	-0.858
785	-0.842
786	-0.848
786	-0.826
787	-0.812
787	-0.811
788	-0.814
788	-0.823
788	-0.834
789	-0.833
789	-0.816
790	-0.797
790	-0.8
791	-0.799
791	-0.815
791	-0.823
792	-0.817
792	-0.795
793	-0.785
793	-0.762
794	-0.766
794	-0.758
794	-0.766
795	-0.759
795	-0.752
796	-0.737
796	-0.743
797	-0.738
797	-0.748
797	-0.755
798	-0.766
798	-0.762
799	-0.771
799	-0.757
800	-0.767
800	-0.761
801	-0.767
801	-0.752
801	-0.761
802	-0.769
802	-0.77
803	-0.772
803	-0.78
804	-0.772
804	-0.784
804	-0.77
805	-0.773
805	-0.761
806	-0.767
806	-0.75
807	-0.748
807	-0.73
807	-0.719
808	-0.712
808	-0.707
809	-0.689
809	-0.699
810	-0.697
810	-0.69
810	-0.686
811	-0.693
811	-0.685
812	-0.685
812	-0.688
813	-0.691
813	-0.687
813	-0.695
814	-0.694
814	-0.7
815	-0.702
815	-0.703
816	-0.697
816	-0.703
817	-0.711
817	-0.729
817	-0.743
818	-0.751
818	-0.754
819	-0.748
819	-0.746
820	-0.76
820	-0.757
820	-0.767
821	-0.765
821	-0.753
822	-0.721
822	-0.698
823	-0.694
823	-0.697
823	-0.693
824	-0.69
824	-0.689
825	-0.682
825	-0.662
826	-0.657
826	-0.664
826	-0.674
827	-0.667
827	-0.663
828	-0.642
828	-0.643
829	-0.631
829	-0.618
829	-0.611
830	-0.622
830	-0.617
831	-0.61
831	-0.599
832	-0.6
832	-0.593
832	-0.601
833	-0.595
833	-0.598
834	-0.596
834	-0.605
835	-0.591
835	-0.585
835	-0.579
836	-0.577
836	-0.573
837	-0.57
837	-0.557
838	-0.548
838	-0.535
839	-0.519
839	-0.506
839	-0.496
840	-0.486
840	-0.485
841	-0.473
841	-0.465
842	-0.459
842	-0.45
842	-0.444
843	-0.437
843	-0.432
844	-0.422
844	-0.415
845	-0.406
845	-0.394
845	-0.379
846	-0.368
846	-0.354
847	-0.343
847	-0.333
848	-0.322
848	-0.312
848	-0.296
849	-0.286
849	-0.274
850	-0.26
850	-0.256
851	-0.245
851	-0.233
851	-0.224
852	-0.207
852	-0.194
853	-0.184
853	-0.178
854	-0.166
854	-0.154
854	-0.143
855	-0.131
855	-0.124
856	-0.114
856	-0.106
857	-0.1
857	-0.092
857	-0.08
858	-0.07
858	-0.064
859	-0.055
859	-0.045
860	-0.036
860	-0.024
860	-0.016
861	-0.006
861	0.004
862	0.012
862	0.019
863	0.027
863	0.037
863	0.042
864	0.047
864	0.053
865	0.059
865	0.064
866	0.069
866	0.072
866	0.076
867	0.08
867	0.084
868	0.086
868	0.09
869	0.093
869	0.095
869	0.097
870	0.099
870	0.102
871	0.104
871	0.106
872	0.107
872	0.107
872	0.108
873	0.108
873	0.108
874	0.108
874	0.108
875	0.107
875	0.106
875	0.105
876	0.104
876	0.103
877	0.102
877	0.1
878	0.099
878	0.098
878	0.096
879	0.095
879	0.094
880	0.094
880	0.094
881	0.094
881	0.093
881	0.093
882	0.092
882	0.092
883	0.09
883	0.089
884	0.088
884	0.086
884	0.085
885	0.084
885	0.084
886	0.084
886	0.083
887	0.083
887	0.083
887	0.083
888	0.084
888	0.084
889	0.084
889	0.084
890	0.084
890	0.084
890	0.083
891	0.083
891	0.083
892	0.083
892	0.083
893	0.083
893	0.083
893	0.083
894	0.083
894	0.083
895	0.083
895	0.083
895	0.083
896	0.081
896	0.081
897	0.079
897	0.078
898	0.077
898	0.076
898	0.076
899	0.076
899	0.076
900	0.077
900	0.077
901	0.078
901	0.078
901	0.079
902	0.08
902	0.081
903	0.082
903	0.082
904	0.083
904	0.083
904	0.084
905	0.084
905	0.085
906	0.085
906	0.085
907	0.084
907	0.084
907	0.083
908	0.083
908	0.082
909	0.081
909	0.08
910	0.08
910	0.079
910	0.079
911	0.079
911	0.08
912	0.081
912	0.081
913	0.082
913	0.083
913	0.084
914	0.085
914	0.086
915	0.087
915	0.087
916	0.088
916	0.088
916	0.089
917	0.089
917	0.089
918	0.089
918	0.088
918	0.088
919	0.088
919	0.087
920	0.087
920	0.087
921	0.087
921	0.087
921	0.086
922	0.086
922	0.086
923	0.085
923	0.085
924	0.085
924	0.084
924	0.084
925	0.083
925	0.082
926	0.081
926	0.079
927	0.078
927	0.078
927	0.077
928	0.076
928	0.076
929	0.075
929	0.074
930	0.074
930	0.073
930	0.072
931	0.072
931	0.072
932	0.071
932	0.07
933	0.069
933	0.068
933	0.067
934	0.066
934	0.065
935	0.064
935	0.063
935	0.062
936	0.061
936	0.06
937	0.059
937	0.059
938	0.059
938	0.058
938	0.058
939	0.059
939	0.059
940	0.059
940	0.06
941	0.06
941	0.061
941	0.062
942	0.062
942	0.063
943	0.063
943	0.063
944	0.063
944	0.062
944	0.062
945	0.061
945	0.06
946	0.059
946	0.057
946	0.057
947	0.056
947	0.055
948	0.055
948	0.055
949	0.055
949	0.055
949	0.055
950	0.056
950	0.056
951	0.057
951	0.057
952	0.058
952	0.059
952	0.06
953	0.061
953	0.062
954	0.062
954	0.063
955	0.064
955	0.065
955	0.066
956	0.067
956	0.067
957	0.068
957	0.068
957	0.068
958	0.069
958	0.069
959	0.07
959	0.07
960	0.07
960	0.07
960	0.071
961	0.07
961	0.07
962	0.071
962	0.071
963	0.071
963	0.07
963	0.07
964	0.07
964	0.07
965	0.07
965	0.07
966	0.07
966	0.07
966	0.069
967	0.069
967	0.068
968	0.067
968	0.067
968	0.066
969	0.066
969	0.065
970	0.065
970	0.065
971	0.065
971	0.065
971	0.066
972	0.066
972	0.066
973	0.066
973	0.066
974	0.066
974	0.066
974	0.066
975	0.066
975	0.065
976	0.065
976	0.064
976	0.064
977	0.064
977	0.064
978	0.064
978	0.064
979	0.064
979	0.064
979	0.064
980	0.064
980	0.064
981	0.064
981	0.064
982	0.063
982	0.063
982	0.062
983	0.062
983	0.061
984	0.061
984	0.061
984	0.06
985	0.06
985	0.06
986	0.059
986	0.059
987	0.058
987	0.058
987	0.058
988	0.057
988	0.056
989	0.055
989	0.054
990	0.053
990	0.053
990	0.052
991	0.052
991	0.052
992	0.051
992	0.051
992	0.051
993	0.051
993	0.051
994	0.051
994	0.051
995	0.05
995	0.05
995	0.049
996	0.049
996	0.048
997	0.048
997	0.048
997	0.048
998	0.048
998	0.048
999	0.048
999	0.049
1000	0.049
1000	0.049
1000	0.05
1001	0.05
1001	0.051
1002	0.051
1002	0.051
1003	0.051
1003	0.051
1003	0.051
1004	0.051
1004	0.051
1005	0.05
1005	0.05
1005	0.049
1006	0.048
1006	0.047
1007	0.045
1007	0.044
1008	0.043
1008	0.043
1008	0.042
1009	0.042
1009	0.042
1010	0.042
1010	0.042
1010	0.042
1011	0.042
1011	0.042
1012	0.042
1012	0.042
1013	0.042
1013	0.041
1013	0.04
1014	0.04
1014	0.039
1015	0.038
1015	0.038
1016	0.037
1016	0.036
1016	0.035
1017	0.034
1017	0.033
1018	0.033
1018	0.032
1018	0.031
1019	0.03
1019	0.029
1020	0.028
1020	0.028
1021	0.027
1021	0.026
1021	0.026
1022	0.025
1022	0.025
1023	0.025
1023	0.024
1023	0.024
1024	0.024
1024	0.024
1025	0.024
1025	0.024
1026	0.024
1026	0.025
1026	0.025
1027	0.025
1027	0.026
1028	0.026
1028	0.026
1028	0.026
1029	0.026
1029	0.025
1030	0.025
1030	0.025
1031	0.024
1031	0.024
1031	0.024
1032	0.023
1032	0.023
1033	0.023
1033	0.023
1033	0.023
1034	0.023
1034	0.023
1035	0.023
1035	0.023
1036	0.023
1036	0.023
1036	0.023
1037	0.023
1037	0.023
1038	0.023
1038	0.023
1039	0.023
1039	0.024
1039	0.024
1040	0.025
1040	0.025
1041	0.026
1041	0.026
1041	0.026
1042	0.026
1042	0.025
1043	0.025
1043	0.024
1044	0.024
1044	0.023
1044	0.022
1045	0.021
1045	0.02
1046	0.019
1046	0.019
1046	0.018
1047	0.018
1047	0.018
1048	0.018
1048	0.018
1049	0.018
1049	0.018
1049	0.019
1050	0.019
1050	0.019
1051	0.019
1051	0.02
1051	0.02
1052	0.021
1052	0.021
1053	0.021
1053	0.021
1053	0.021
1054	0.021
1054	0.021
1055	0.021
1055	0.021
1056	0.02
1056	0.019
1056	0.018
1057	0.017
1057	0.017
1058	0.017
1058	0.016
1058	0.016
1059	0.015
1059	0.014
1060	0.013
1060	0.013
1061	0.013
1061	0.013
1061	0.012
1062	0.012
1062	0.011
1063	0.011
1063	0.011
1063	0.011
1064	0.011
1064	0.011
1065	0.011
1065	0.011
1066	0.01
1066	0.011
1066	0.011
1067	0.011
1067	0.011
1068	0.01
1068	0.01
1068	0.009
1069	0.009
1069	0.008
1070	0.008
1070	0.008
1071	0.008
1071	0.007
1071	0.007
1072	0.006
1072	0.006
1073	0.005
1073	0.005
1073	0.005
1074	0.005
1074	0.006
1075	0.005
1075	0.004
1076	0.004
1076	0.004
1076	0.003
1077	0.003
1077	0.002
1078	0.001
1078	0.001
1078	-0
1079	-0.001
1079	-0.001
1080	-0.002
1080	-0.003
1080	-0.004
1081	-0.005
1081	-0.005
1082	-0.006
1082	-0.007
1083	-0.007
1083	-0.008
1083	-0.009
1084	-0.01
1084	-0.01
1085	-0.011
1085	-0.012
1085	-0.012
1086	-0.013
1086	-0.013
1087	-0.013
1087	-0.013
1088	-0.014
1088	-0.015
1088	-0.016
1089	-0.017
1089	-0.017
1090	-0.018
1090	-0.019
1090	-0.02
1091	-0.021
1091	-0.022
1092	-0.023
1092	-0.023
1092	-0.024
1093	-0.024
1093	-0.025
1094	-0.025
1094	-0.025
1095	-0.027
1095	-0.027
1095	-0.028
1096	-0.029
1096	-0.03
1097	-0.031
1097	-0.032
1097	-0.033
1098	-0.034
1098	-0.036
1099	-0.037
1099	-0.037
1100	-0.039
1100	-0.04
1100	-0.043
1101	-0.045
1101	-0.047
1102	-0.049
1102	-0.051
1102	-0.052
1103	-0.054
1103	-0.056
1104	-0.059
1104	-0.062
1104	-0.063
1105	-0.065
1105	-0.069
1106	-0.074
1106	-0.076
1107	-0.08
1107	-0.085
1107	-0.09
1108	-0.092
1108	-0.095
1109	-0.098
1109	-0.103
1109	-0.106
1110	-0.107
1110	-0.108
1111	-0.115
1111	-0.115
