Data from 17C_3.1A_35min_2sec_int_Absorbance__522__02925.txt Node

Date: Mon Jun 19 18:36:34 CEST 2023
User: Marek
Spectrometer: MAYP115816
Trigger mode: 0
Integration Time (sec): 2.500000E-1
Scans to average: 10
Electric dark correction enabled: true
Nonlinearity correction enabled: true
Boxcar width: 5
XAxis mode: Wavelengths
Number of Pixels in Spectrum: 2068
>>>>>Begin Spectral Data<<<<<
199	-0.746
199	-0.774
200	-0.675
200	-0.624
201	-0.586
201	-0.571
202	-0.556
202	-0.542
203	-0.533
203	-0.529
204	-0.517
204	-0.503
205	-0.476
205	-0.471
205	-0.469
206	-0.471
206	-0.474
207	-0.461
207	-0.465
208	-0.468
208	-0.466
209	-0.461
209	-0.461
210	-0.468
210	-0.473
211	-0.474
211	-0.476
212	-0.479
212	-0.49
213	-0.488
213	-0.488
213	-0.494
214	-0.491
214	-0.49
215	-0.486
215	-0.493
216	-0.497
216	-0.506
217	-0.503
217	-0.506
218	-0.51
218	-0.511
219	-0.515
219	-0.525
220	-0.532
220	-0.543
221	-0.541
221	-0.544
221	-0.537
222	-0.533
222	-0.534
223	-0.536
223	-0.539
224	-0.543
224	-0.543
225	-0.537
225	-0.531
226	-0.536
226	-0.534
227	-0.538
227	-0.547
228	-0.547
228	-0.548
229	-0.548
229	-0.541
229	-0.534
230	-0.539
230	-0.543
231	-0.537
231	-0.531
232	-0.526
232	-0.526
233	-0.52
233	-0.517
234	-0.516
234	-0.514
235	-0.518
235	-0.526
236	-0.524
236	-0.527
236	-0.533
237	-0.54
237	-0.541
238	-0.55
238	-0.548
239	-0.547
239	-0.555
240	-0.553
240	-0.547
241	-0.553
241	-0.55
242	-0.555
242	-0.55
243	-0.546
243	-0.547
243	-0.555
244	-0.555
244	-0.555
245	-0.572
245	-0.574
246	-0.579
246	-0.585
247	-0.586
247	-0.59
248	-0.595
248	-0.591
249	-0.595
249	-0.603
250	-0.601
250	-0.596
250	-0.596
251	-0.592
251	-0.595
252	-0.598
252	-0.588
253	-0.595
253	-0.609
254	-0.607
254	-0.603
255	-0.611
255	-0.604
256	-0.601
256	-0.613
257	-0.606
257	-0.604
258	-0.62
258	-0.615
258	-0.611
259	-0.61
259	-0.621
260	-0.621
260	-0.627
261	-0.639
261	-0.63
262	-0.63
262	-0.629
263	-0.62
263	-0.618
264	-0.616
264	-0.623
265	-0.619
265	-0.626
265	-0.629
266	-0.625
266	-0.625
267	-0.638
267	-0.648
268	-0.662
268	-0.671
269	-0.67
269	-0.664
270	-0.667
270	-0.669
271	-0.669
271	-0.674
272	-0.677
272	-0.67
272	-0.661
273	-0.659
273	-0.668
274	-0.673
274	-0.676
275	-0.678
275	-0.671
276	-0.677
276	-0.67
277	-0.675
277	-0.694
278	-0.707
278	-0.702
278	-0.693
279	-0.696
279	-0.709
280	-0.705
280	-0.705
281	-0.701
281	-0.708
282	-0.7
282	-0.7
283	-0.689
283	-0.692
284	-0.69
284	-0.68
285	-0.674
285	-0.674
285	-0.671
286	-0.676
286	-0.672
287	-0.67
287	-0.653
288	-0.646
288	-0.653
289	-0.663
289	-0.673
290	-0.663
290	-0.662
291	-0.659
291	-0.652
292	-0.655
292	-0.66
292	-0.666
293	-0.672
293	-0.66
294	-0.65
294	-0.64
295	-0.636
295	-0.633
296	-0.631
296	-0.63
297	-0.624
297	-0.608
298	-0.601
298	-0.608
298	-0.595
299	-0.587
299	-0.589
300	-0.584
300	-0.578
301	-0.574
301	-0.57
302	-0.578
302	-0.586
303	-0.572
303	-0.558
304	-0.564
304	-0.564
305	-0.566
305	-0.565
305	-0.564
306	-0.548
306	-0.543
307	-0.529
307	-0.532
308	-0.546
308	-0.544
309	-0.545
309	-0.534
310	-0.524
310	-0.522
311	-0.513
311	-0.522
311	-0.52
312	-0.514
312	-0.514
313	-0.498
313	-0.502
314	-0.5
314	-0.503
315	-0.501
315	-0.498
316	-0.495
316	-0.487
317	-0.481
317	-0.479
318	-0.467
318	-0.466
318	-0.46
319	-0.45
319	-0.447
320	-0.443
320	-0.443
321	-0.446
321	-0.445
322	-0.438
322	-0.43
323	-0.429
323	-0.423
324	-0.414
324	-0.404
324	-0.394
325	-0.386
325	-0.368
326	-0.356
326	-0.337
327	-0.322
327	-0.303
328	-0.279
328	-0.26
329	-0.239
329	-0.217
330	-0.19
330	-0.157
330	-0.132
331	-0.104
331	-0.078
332	-0.053
332	-0.031
333	-0.009
333	0.015
334	0.034
334	0.052
335	0.069
335	0.084
336	0.098
336	0.111
336	0.121
337	0.133
337	0.142
338	0.15
338	0.156
339	0.164
339	0.17
340	0.174
340	0.179
341	0.183
341	0.186
342	0.19
342	0.192
342	0.195
343	0.197
343	0.2
344	0.202
344	0.203
345	0.204
345	0.205
346	0.206
346	0.207
347	0.208
347	0.208
348	0.209
348	0.21
348	0.21
349	0.21
349	0.211
350	0.211
350	0.211
351	0.212
351	0.212
352	0.212
352	0.212
353	0.212
353	0.212
354	0.212
354	0.212
354	0.211
355	0.211
355	0.211
356	0.211
356	0.21
357	0.209
357	0.209
358	0.209
358	0.209
359	0.208
359	0.208
360	0.208
360	0.208
360	0.208
361	0.208
361	0.208
362	0.209
362	0.208
363	0.208
363	0.208
364	0.208
364	0.208
365	0.208
365	0.208
366	0.208
366	0.208
366	0.208
367	0.209
367	0.209
368	0.208
368	0.208
369	0.208
369	0.208
370	0.208
370	0.208
371	0.208
371	0.208
372	0.208
372	0.208
372	0.208
373	0.208
373	0.208
374	0.208
374	0.208
375	0.208
375	0.208
376	0.208
376	0.208
377	0.208
377	0.208
378	0.208
378	0.208
378	0.208
379	0.208
379	0.208
380	0.208
380	0.207
381	0.207
381	0.207
382	0.207
382	0.207
383	0.207
383	0.207
383	0.207
384	0.206
384	0.207
385	0.207
385	0.207
386	0.207
386	0.206
387	0.207
387	0.207
388	0.206
388	0.206
389	0.207
389	0.207
389	0.207
390	0.207
390	0.207
391	0.207
391	0.207
392	0.207
392	0.207
393	0.207
393	0.206
394	0.206
394	0.206
394	0.206
395	0.206
395	0.206
396	0.205
396	0.205
397	0.205
397	0.205
398	0.205
398	0.205
399	0.205
399	0.205
400	0.205
400	0.205
400	0.205
401	0.205
401	0.205
402	0.205
402	0.204
403	0.204
403	0.204
404	0.204
404	0.204
405	0.204
405	0.204
405	0.203
406	0.203
406	0.203
407	0.203
407	0.203
408	0.203
408	0.203
409	0.203
409	0.203
410	0.203
410	0.203
411	0.204
411	0.204
411	0.204
412	0.204
412	0.203
413	0.203
413	0.203
414	0.203
414	0.203
415	0.203
415	0.203
416	0.203
416	0.203
416	0.203
417	0.203
417	0.203
418	0.203
418	0.203
419	0.203
419	0.203
420	0.203
420	0.203
421	0.203
421	0.203
421	0.203
422	0.203
422	0.203
423	0.203
423	0.203
424	0.202
424	0.202
425	0.202
425	0.201
426	0.201
426	0.201
427	0.201
427	0.2
427	0.2
428	0.2
428	0.201
429	0.201
429	0.201
430	0.2
430	0.2
431	0.2
431	0.2
432	0.2
432	0.2
432	0.2
433	0.199
433	0.199
434	0.199
434	0.199
435	0.199
435	0.198
436	0.198
436	0.198
437	0.198
437	0.198
437	0.198
438	0.199
438	0.199
439	0.199
439	0.199
440	0.199
440	0.199
441	0.199
441	0.198
442	0.198
442	0.198
442	0.198
443	0.198
443	0.198
444	0.198
444	0.198
445	0.198
445	0.197
446	0.198
446	0.198
447	0.198
447	0.198
447	0.198
448	0.198
448	0.198
449	0.198
449	0.198
450	0.198
450	0.198
451	0.198
451	0.198
452	0.198
452	0.198
452	0.198
453	0.198
453	0.197
454	0.197
454	0.197
455	0.197
455	0.197
456	0.197
456	0.196
457	0.196
457	0.196
458	0.196
458	0.196
458	0.196
459	0.196
459	0.196
460	0.196
460	0.196
461	0.196
461	0.196
462	0.196
462	0.196
463	0.196
463	0.196
463	0.196
464	0.196
464	0.196
465	0.196
465	0.197
466	0.197
466	0.197
467	0.197
467	0.197
467	0.197
468	0.197
468	0.197
469	0.197
469	0.197
470	0.197
470	0.198
471	0.197
471	0.197
472	0.198
472	0.198
472	0.198
473	0.198
473	0.198
474	0.198
474	0.198
475	0.198
475	0.198
476	0.199
476	0.199
477	0.198
477	0.198
477	0.198
478	0.198
478	0.198
479	0.198
479	0.199
480	0.199
480	0.199
481	0.199
481	0.199
482	0.2
482	0.2
482	0.2
483	0.201
483	0.201
484	0.201
484	0.201
485	0.201
485	0.201
486	0.201
486	0.201
487	0.202
487	0.202
487	0.203
488	0.203
488	0.203
489	0.204
489	0.205
490	0.206
490	0.206
491	0.207
491	0.208
492	0.209
492	0.209
492	0.21
493	0.21
493	0.211
494	0.212
494	0.212
495	0.213
495	0.214
496	0.214
496	0.215
496	0.216
497	0.217
497	0.218
498	0.218
498	0.219
499	0.22
499	0.221
500	0.222
500	0.223
501	0.223
501	0.224
501	0.224
502	0.225
502	0.225
503	0.226
503	0.227
504	0.228
504	0.229
505	0.23
505	0.231
506	0.232
506	0.233
506	0.233
507	0.234
507	0.235
508	0.235
508	0.236
509	0.237
509	0.238
510	0.239
510	0.24
511	0.241
511	0.242
511	0.243
512	0.244
512	0.245
513	0.246
513	0.247
514	0.248
514	0.25
515	0.25
515	0.251
515	0.252
516	0.253
516	0.254
517	0.255
517	0.256
518	0.257
518	0.257
519	0.258
519	0.259
520	0.26
520	0.261
520	0.262
521	0.263
521	0.264
522	0.265
522	0.266
523	0.268
523	0.269
524	0.27
524	0.27
524	0.271
525	0.272
525	0.272
526	0.273
526	0.274
527	0.275
527	0.275
528	0.276
528	0.276
529	0.277
529	0.278
529	0.279
530	0.28
530	0.281
531	0.281
531	0.282
532	0.282
532	0.283
533	0.284
533	0.284
533	0.285
534	0.285
534	0.285
535	0.285
535	0.285
536	0.285
536	0.285
537	0.286
537	0.286
538	0.286
538	0.286
538	0.287
539	0.288
539	0.288
540	0.289
540	0.289
541	0.29
541	0.29
542	0.291
542	0.291
542	0.291
543	0.292
543	0.292
544	0.292
544	0.292
545	0.292
545	0.292
546	0.293
546	0.293
547	0.293
547	0.293
547	0.293
548	0.294
548	0.294
549	0.294
549	0.295
550	0.295
550	0.296
551	0.296
551	0.297
551	0.298
552	0.299
552	0.3
553	0.301
553	0.302
554	0.302
554	0.302
555	0.302
555	0.302
556	0.303
556	0.303
556	0.303
557	0.303
557	0.302
558	0.302
558	0.302
559	0.302
559	0.302
560	0.302
560	0.301
560	0.301
561	0.301
561	0.301
562	0.301
562	0.301
563	0.301
563	0.301
564	0.301
564	0.301
564	0.302
565	0.302
565	0.303
566	0.303
566	0.304
567	0.304
567	0.304
568	0.304
568	0.304
568	0.304
569	0.304
569	0.304
570	0.303
570	0.302
571	0.302
571	0.302
572	0.301
572	0.301
573	0.301
573	0.301
573	0.3
574	0.3
574	0.3
575	0.301
575	0.302
576	0.302
576	0.301
577	0.301
577	0.302
577	0.303
578	0.303
578	0.304
579	0.305
579	0.306
580	0.305
580	0.304
581	0.303
581	0.304
581	0.304
582	0.304
582	0.304
583	0.305
583	0.304
584	0.303
584	0.303
585	0.304
585	0.305
585	0.306
586	0.306
586	0.306
587	0.305
587	0.305
588	0.305
588	0.305
589	0.306
589	0.306
590	0.306
590	0.306
590	0.307
591	0.307
591	0.307
592	0.306
592	0.306
593	0.306
593	0.306
594	0.306
594	0.306
594	0.306
595	0.306
595	0.306
596	0.306
596	0.307
597	0.309
597	0.309
598	0.309
598	0.309
598	0.308
599	0.308
599	0.307
600	0.306
600	0.305
601	0.305
601	0.304
602	0.303
602	0.303
602	0.303
603	0.303
603	0.304
604	0.305
604	0.306
605	0.306
605	0.307
606	0.307
606	0.306
606	0.306
607	0.306
607	0.306
608	0.305
608	0.304
609	0.304
609	0.304
610	0.304
610	0.303
610	0.304
611	0.305
611	0.306
612	0.307
612	0.308
613	0.309
613	0.309
614	0.308
614	0.307
614	0.307
615	0.306
615	0.305
616	0.305
616	0.304
617	0.303
617	0.302
618	0.301
618	0.301
618	0.3
619	0.3
619	0.301
620	0.301
620	0.301
621	0.3
621	0.3
622	0.3
622	0.3
622	0.299
623	0.299
623	0.299
624	0.299
624	0.298
625	0.298
625	0.297
626	0.297
626	0.296
626	0.296
627	0.295
627	0.294
628	0.293
628	0.292
629	0.291
629	0.289
630	0.287
630	0.285
630	0.283
631	0.282
631	0.28
632	0.277
632	0.274
633	0.272
633	0.269
634	0.267
634	0.264
634	0.262
635	0.258
635	0.255
636	0.252
636	0.248
637	0.244
637	0.24
638	0.236
638	0.231
638	0.226
639	0.221
639	0.216
640	0.211
640	0.205
641	0.2
641	0.195
642	0.189
642	0.184
642	0.179
643	0.173
643	0.167
644	0.16
644	0.153
645	0.147
645	0.139
646	0.132
646	0.125
646	0.117
647	0.109
647	0.101
648	0.093
648	0.085
649	0.077
649	0.068
650	0.059
650	0.051
650	0.041
651	0.03
651	0.017
652	0.001
652	-0.016
653	-0.03
653	-0.043
653	-0.04
654	-0.019
654	-0.008
655	-0.011
655	-0.017
656	-0.023
656	-0.031
657	-0.036
657	-0.04
657	-0.047
658	-0.054
658	-0.084
659	-0.172
659	-0.276
660	-0.322
660	-0.349
661	-0.377
661	-0.408
661	-0.442
662	-0.475
662	-0.509
663	-0.548
663	-0.59
664	-0.634
664	-0.685
665	-0.735
665	-0.793
665	-0.848
666	-0.904
666	-0.966
667	-1.029
667	-1.094
668	-1.165
668	-1.237
669	-1.31
669	-1.383
669	-1.46
670	-1.527
670	-1.556
671	-1.699
671	-1.975
672	-2.203
672	-2.393
672	-2.523
673	-2.615
673	-2.695
674	-2.735
674	-2.754
675	-2.779
675	-2.919
676	-3.114
676	-3.065
676	-2.84
677	-2.635
677	-2.471
678	-2.291
678	-1.982
679	-1.711
679	-1.579
680	-1.485
680	-1.403
680	-1.333
681	-1.29
681	-1.232
682	-1.194
682	-1.158
683	-1.124
683	-1.107
684	-1.087
684	-1.069
684	-1.049
685	-1.025
685	-1.004
686	-0.98
686	-0.965
687	-0.94
687	-0.93
687	-0.91
688	-0.887
688	-0.867
689	-0.846
689	-0.832
690	-0.814
690	-0.802
691	-0.796
691	-0.802
691	-0.817
692	-0.809
692	-0.802
693	-0.798
693	-0.805
694	-0.802
694	-0.796
695	-0.803
695	-0.801
695	-0.786
696	-0.782
696	-0.761
697	-0.762
697	-0.778
698	-0.78
698	-0.771
698	-0.784
699	-0.787
699	-0.783
700	-0.776
700	-0.791
701	-0.788
701	-0.795
702	-0.794
702	-0.782
702	-0.774
703	-0.768
703	-0.759
704	-0.756
704	-0.757
705	-0.769
705	-0.763
705	-0.753
706	-0.754
706	-0.75
707	-0.753
707	-0.75
708	-0.748
708	-0.741
709	-0.743
709	-0.745
709	-0.734
710	-0.743
710	-0.752
711	-0.743
711	-0.743
712	-0.744
712	-0.756
713	-0.755
713	-0.76
713	-0.751
714	-0.747
714	-0.749
715	-0.738
715	-0.725
716	-0.73
716	-0.731
716	-0.723
717	-0.724
717	-0.728
718	-0.719
718	-0.721
719	-0.727
719	-0.73
720	-0.726
720	-0.737
720	-0.732
721	-0.722
721	-0.722
722	-0.708
722	-0.698
723	-0.698
723	-0.702
723	-0.69
724	-0.691
724	-0.695
725	-0.693
725	-0.702
726	-0.715
726	-0.722
727	-0.728
727	-0.743
727	-0.749
728	-0.75
728	-0.758
729	-0.756
729	-0.761
730	-0.768
730	-0.763
730	-0.752
731	-0.733
731	-0.744
732	-0.749
732	-0.75
733	-0.748
733	-0.752
734	-0.747
734	-0.747
734	-0.733
735	-0.731
735	-0.733
736	-0.745
736	-0.732
737	-0.724
737	-0.724
737	-0.733
738	-0.73
738	-0.729
739	-0.727
739	-0.74
740	-0.738
740	-0.737
741	-0.731
741	-0.73
741	-0.732
742	-0.73
742	-0.731
743	-0.736
743	-0.742
744	-0.738
744	-0.729
744	-0.731
745	-0.737
745	-0.73
746	-0.73
746	-0.727
747	-0.728
747	-0.715
748	-0.704
748	-0.708
748	-0.711
749	-0.708
749	-0.71
750	-0.7
750	-0.701
751	-0.706
751	-0.715
751	-0.718
752	-0.723
752	-0.734
753	-0.729
753	-0.725
754	-0.731
754	-0.725
754	-0.739
755	-0.756
755	-0.766
756	-0.754
756	-0.752
757	-0.751
757	-0.746
758	-0.748
758	-0.746
758	-0.748
759	-0.755
759	-0.738
760	-0.729
760	-0.724
761	-0.734
761	-0.729
761	-0.727
762	-0.736
762	-0.737
763	-0.745
763	-0.741
764	-0.738
764	-0.747
764	-0.753
765	-0.746
765	-0.733
766	-0.742
766	-0.749
767	-0.763
767	-0.756
768	-0.749
768	-0.759
768	-0.765
769	-0.782
769	-0.783
770	-0.788
770	-0.804
771	-0.799
771	-0.801
771	-0.802
772	-0.806
772	-0.801
773	-0.799
773	-0.796
774	-0.794
774	-0.795
775	-0.798
775	-0.791
775	-0.798
776	-0.796
776	-0.784
777	-0.792
777	-0.813
778	-0.813
778	-0.831
778	-0.817
779	-0.839
779	-0.846
780	-0.862
780	-0.862
781	-0.876
781	-0.872
781	-0.887
782	-0.887
782	-0.889
783	-0.876
783	-0.874
784	-0.854
784	-0.843
784	-0.849
785	-0.855
785	-0.839
786	-0.844
786	-0.824
787	-0.81
787	-0.809
788	-0.812
788	-0.821
788	-0.834
789	-0.834
789	-0.816
790	-0.799
790	-0.803
791	-0.804
791	-0.821
791	-0.83
792	-0.826
792	-0.802
793	-0.793
793	-0.768
794	-0.775
794	-0.769
794	-0.776
795	-0.769
795	-0.763
796	-0.746
796	-0.751
797	-0.743
797	-0.758
797	-0.763
798	-0.776
798	-0.768
799	-0.778
799	-0.764
800	-0.774
800	-0.767
801	-0.773
801	-0.757
801	-0.768
802	-0.775
802	-0.774
803	-0.775
803	-0.785
804	-0.779
804	-0.791
804	-0.775
805	-0.779
805	-0.767
806	-0.771
806	-0.754
807	-0.751
807	-0.734
807	-0.721
808	-0.711
808	-0.707
809	-0.691
809	-0.7
810	-0.696
810	-0.691
810	-0.687
811	-0.695
811	-0.686
812	-0.687
812	-0.691
813	-0.696
813	-0.691
813	-0.696
814	-0.699
814	-0.703
815	-0.706
815	-0.711
816	-0.705
816	-0.71
817	-0.719
817	-0.737
817	-0.752
818	-0.76
818	-0.763
819	-0.753
819	-0.755
820	-0.767
820	-0.762
820	-0.772
821	-0.771
821	-0.758
822	-0.725
822	-0.7
823	-0.696
823	-0.7
823	-0.697
824	-0.691
824	-0.693
825	-0.685
825	-0.665
826	-0.659
826	-0.667
826	-0.677
827	-0.672
827	-0.669
828	-0.648
828	-0.647
829	-0.638
829	-0.622
829	-0.614
830	-0.624
830	-0.619
831	-0.611
831	-0.599
832	-0.599
832	-0.592
832	-0.601
833	-0.596
833	-0.597
834	-0.595
834	-0.603
835	-0.591
835	-0.587
835	-0.582
836	-0.581
836	-0.577
837	-0.574
837	-0.561
838	-0.552
838	-0.539
839	-0.527
839	-0.514
839	-0.504
840	-0.494
840	-0.49
841	-0.479
841	-0.469
842	-0.462
842	-0.452
842	-0.446
843	-0.44
843	-0.432
844	-0.423
844	-0.413
845	-0.402
845	-0.391
845	-0.375
846	-0.365
846	-0.35
847	-0.337
847	-0.326
848	-0.312
848	-0.302
848	-0.286
849	-0.276
849	-0.261
850	-0.246
850	-0.24
851	-0.231
851	-0.219
851	-0.209
852	-0.193
852	-0.18
853	-0.171
853	-0.163
854	-0.151
854	-0.14
854	-0.129
855	-0.117
855	-0.108
856	-0.098
856	-0.088
857	-0.08
857	-0.07
857	-0.055
858	-0.044
858	-0.037
859	-0.028
859	-0.016
860	-0.007
860	0.008
860	0.018
861	0.027
861	0.036
862	0.044
862	0.051
863	0.059
863	0.069
863	0.076
864	0.081
864	0.088
865	0.094
865	0.099
866	0.104
866	0.108
866	0.112
867	0.116
867	0.121
868	0.124
868	0.128
869	0.131
869	0.134
869	0.136
870	0.139
870	0.141
871	0.144
871	0.146
872	0.147
872	0.147
872	0.148
873	0.148
873	0.148
874	0.148
874	0.147
875	0.146
875	0.145
875	0.144
876	0.142
876	0.141
877	0.14
877	0.139
878	0.137
878	0.135
878	0.133
879	0.132
879	0.131
880	0.131
880	0.131
881	0.13
881	0.131
881	0.13
882	0.13
882	0.129
883	0.128
883	0.126
884	0.125
884	0.124
884	0.123
885	0.122
885	0.122
886	0.121
886	0.121
887	0.12
887	0.12
887	0.12
888	0.121
888	0.12
889	0.121
889	0.121
890	0.12
890	0.121
890	0.12
891	0.12
891	0.12
892	0.121
892	0.121
893	0.121
893	0.121
893	0.121
894	0.121
894	0.121
895	0.121
895	0.121
895	0.12
896	0.119
896	0.118
897	0.117
897	0.116
898	0.115
898	0.114
898	0.114
899	0.114
899	0.114
900	0.114
900	0.114
901	0.114
901	0.115
901	0.116
902	0.116
902	0.117
903	0.118
903	0.118
904	0.118
904	0.119
904	0.119
905	0.12
905	0.12
906	0.121
906	0.121
907	0.121
907	0.12
907	0.12
908	0.12
908	0.119
909	0.119
909	0.118
910	0.117
910	0.117
910	0.116
911	0.116
911	0.117
912	0.117
912	0.118
913	0.118
913	0.119
913	0.12
914	0.121
914	0.121
915	0.122
915	0.123
916	0.123
916	0.124
916	0.124
917	0.124
917	0.124
918	0.124
918	0.124
918	0.123
919	0.123
919	0.123
920	0.123
920	0.122
921	0.122
921	0.122
921	0.122
922	0.121
922	0.121
923	0.121
923	0.121
924	0.121
924	0.12
924	0.12
925	0.119
925	0.118
926	0.117
926	0.117
927	0.116
927	0.115
927	0.115
928	0.114
928	0.114
929	0.113
929	0.113
930	0.112
930	0.112
930	0.111
931	0.111
931	0.11
932	0.11
932	0.109
933	0.108
933	0.107
933	0.106
934	0.104
934	0.103
935	0.102
935	0.101
935	0.1
936	0.099
936	0.097
937	0.096
937	0.096
938	0.096
938	0.096
938	0.096
939	0.096
939	0.096
940	0.096
940	0.096
941	0.097
941	0.097
941	0.098
942	0.099
942	0.099
943	0.099
943	0.098
944	0.098
944	0.097
944	0.096
945	0.096
945	0.094
946	0.093
946	0.091
946	0.091
947	0.089
947	0.088
948	0.088
948	0.088
949	0.088
949	0.088
949	0.088
950	0.088
950	0.089
951	0.09
951	0.09
952	0.09
952	0.092
952	0.092
953	0.093
953	0.094
954	0.094
954	0.095
955	0.096
955	0.097
955	0.098
956	0.099
956	0.1
957	0.1
957	0.1
957	0.1
958	0.101
958	0.102
959	0.103
959	0.103
960	0.103
960	0.103
960	0.104
961	0.105
961	0.105
962	0.106
962	0.106
963	0.106
963	0.105
963	0.105
964	0.105
964	0.105
965	0.105
965	0.104
966	0.104
966	0.103
966	0.103
967	0.102
967	0.101
968	0.1
968	0.1
968	0.099
969	0.099
969	0.098
970	0.098
970	0.097
971	0.097
971	0.098
971	0.098
972	0.098
972	0.098
973	0.098
973	0.098
974	0.098
974	0.098
974	0.099
975	0.099
975	0.098
976	0.098
976	0.098
976	0.098
977	0.098
977	0.098
978	0.099
978	0.099
979	0.099
979	0.099
979	0.098
980	0.098
980	0.098
981	0.098
981	0.098
982	0.098
982	0.097
982	0.097
983	0.096
983	0.096
984	0.096
984	0.096
984	0.096
985	0.096
985	0.095
986	0.095
986	0.094
987	0.094
987	0.093
987	0.092
988	0.092
988	0.091
989	0.09
989	0.089
990	0.089
990	0.088
990	0.087
991	0.087
991	0.087
992	0.086
992	0.086
992	0.086
993	0.086
993	0.086
994	0.086
994	0.085
995	0.085
995	0.085
995	0.085
996	0.084
996	0.084
997	0.083
997	0.083
997	0.083
998	0.083
998	0.084
999	0.084
999	0.084
1000	0.085
1000	0.085
1000	0.085
1001	0.086
1001	0.086
1002	0.086
1002	0.086
1003	0.086
1003	0.086
1003	0.085
1004	0.085
1004	0.084
1005	0.083
1005	0.083
1005	0.081
1006	0.08
1006	0.079
1007	0.078
1007	0.077
1008	0.076
1008	0.075
1008	0.075
1009	0.075
1009	0.075
1010	0.075
1010	0.075
1010	0.075
1011	0.075
1011	0.075
1012	0.075
1012	0.075
1013	0.074
1013	0.073
1013	0.072
1014	0.071
1014	0.071
1015	0.07
1015	0.069
1016	0.068
1016	0.067
1016	0.066
1017	0.065
1017	0.064
1018	0.063
1018	0.062
1018	0.062
1019	0.061
1019	0.06
1020	0.059
1020	0.058
1021	0.058
1021	0.057
1021	0.056
1022	0.056
1022	0.055
1023	0.055
1023	0.055
1023	0.054
1024	0.054
1024	0.054
1025	0.054
1025	0.054
1026	0.055
1026	0.055
1026	0.055
1027	0.055
1027	0.056
1028	0.056
1028	0.056
1028	0.056
1029	0.056
1029	0.056
1030	0.055
1030	0.054
1031	0.054
1031	0.054
1031	0.053
1032	0.053
1032	0.053
1033	0.053
1033	0.053
1033	0.054
1034	0.054
1034	0.054
1035	0.054
1035	0.054
1036	0.053
1036	0.053
1036	0.053
1037	0.053
1037	0.053
1038	0.053
1038	0.053
1039	0.053
1039	0.054
1039	0.054
1040	0.054
1040	0.055
1041	0.056
1041	0.056
1041	0.057
1042	0.056
1042	0.056
1043	0.056
1043	0.056
1044	0.055
1044	0.054
1044	0.054
1045	0.053
1045	0.052
1046	0.051
1046	0.05
1046	0.05
1047	0.05
1047	0.05
1048	0.05
1048	0.05
1049	0.05
1049	0.051
1049	0.051
1050	0.051
1050	0.052
1051	0.052
1051	0.053
1051	0.053
1052	0.054
1052	0.054
1053	0.054
1053	0.054
1053	0.054
1054	0.053
1054	0.053
1055	0.053
1055	0.053
1056	0.052
1056	0.051
1056	0.05
1057	0.049
1057	0.048
1058	0.048
1058	0.047
1058	0.047
1059	0.046
1059	0.045
1060	0.044
1060	0.043
1061	0.043
1061	0.043
1061	0.043
1062	0.043
1062	0.042
1063	0.042
1063	0.042
1063	0.043
1064	0.043
1064	0.043
1065	0.043
1065	0.043
1066	0.042
1066	0.042
1066	0.042
1067	0.042
1067	0.042
1068	0.041
1068	0.04
1068	0.039
1069	0.04
1069	0.039
1070	0.038
1070	0.038
1071	0.038
1071	0.038
1071	0.037
1072	0.036
1072	0.036
1073	0.035
1073	0.035
1073	0.034
1074	0.035
1074	0.035
1075	0.035
1075	0.034
1076	0.034
1076	0.034
1076	0.033
1077	0.033
1077	0.032
1078	0.032
1078	0.031
1078	0.03
1079	0.03
1079	0.029
1080	0.028
1080	0.027
1080	0.027
1081	0.026
1081	0.026
1082	0.025
1082	0.024
1083	0.024
1083	0.022
1083	0.021
1084	0.02
1084	0.02
1085	0.018
1085	0.018
1085	0.017
1086	0.017
1086	0.015
1087	0.015
1087	0.015
1088	0.014
1088	0.013
1088	0.012
1089	0.011
1089	0.011
1090	0.009
1090	0.009
1090	0.007
1091	0.006
1091	0.006
1092	0.005
1092	0.005
1092	0.003
1093	0.003
1093	0.003
1094	0.002
1094	0.001
1095	-0
1095	-0
1095	-0.001
1096	-0.002
1096	-0.003
1097	-0.004
1097	-0.005
1097	-0.006
1098	-0.008
1098	-0.009
1099	-0.01
1099	-0.011
1100	-0.014
1100	-0.015
1100	-0.018
1101	-0.021
1101	-0.024
1102	-0.026
1102	-0.029
1102	-0.031
1103	-0.034
1103	-0.036
1104	-0.039
1104	-0.042
1104	-0.044
1105	-0.046
1105	-0.049
1106	-0.054
1106	-0.055
1107	-0.06
1107	-0.064
1107	-0.069
1108	-0.071
1108	-0.074
1109	-0.077
1109	-0.082
1109	-0.084
1110	-0.085
1110	-0.086
1111	-0.095
1111	-0.093
