Data from 17C_3.1A_35min_2sec_int_Absorbance__579__02982.txt Node

Date: Mon Jun 19 18:38:57 CEST 2023
User: Marek
Spectrometer: MAYP115816
Trigger mode: 0
Integration Time (sec): 2.500000E-1
Scans to average: 10
Electric dark correction enabled: true
Nonlinearity correction enabled: true
Boxcar width: 5
XAxis mode: Wavelengths
Number of Pixels in Spectrum: 2068
>>>>>Begin Spectral Data<<<<<
199	-0.741
199	-0.754
200	-0.661
200	-0.61
201	-0.576
201	-0.564
202	-0.547
202	-0.534
203	-0.527
203	-0.524
204	-0.511
204	-0.497
205	-0.474
205	-0.469
205	-0.466
206	-0.468
206	-0.471
207	-0.463
207	-0.463
208	-0.464
208	-0.46
209	-0.454
209	-0.455
210	-0.458
210	-0.464
211	-0.466
211	-0.467
212	-0.47
212	-0.476
213	-0.476
213	-0.476
213	-0.483
214	-0.482
214	-0.48
215	-0.481
215	-0.485
216	-0.489
216	-0.499
217	-0.494
217	-0.501
218	-0.504
218	-0.504
219	-0.508
219	-0.518
220	-0.523
220	-0.534
221	-0.532
221	-0.535
221	-0.526
222	-0.522
222	-0.521
223	-0.525
223	-0.529
224	-0.532
224	-0.531
225	-0.527
225	-0.521
226	-0.526
226	-0.526
227	-0.533
227	-0.544
228	-0.544
228	-0.544
229	-0.546
229	-0.542
229	-0.536
230	-0.539
230	-0.542
231	-0.537
231	-0.529
232	-0.523
232	-0.521
233	-0.514
233	-0.512
234	-0.512
234	-0.507
235	-0.511
235	-0.518
236	-0.516
236	-0.52
236	-0.525
237	-0.531
237	-0.532
238	-0.542
238	-0.54
239	-0.537
239	-0.548
240	-0.546
240	-0.543
241	-0.55
241	-0.546
242	-0.55
242	-0.545
243	-0.539
243	-0.54
243	-0.551
244	-0.551
244	-0.546
245	-0.561
245	-0.56
246	-0.565
246	-0.573
247	-0.575
247	-0.581
248	-0.591
248	-0.588
249	-0.588
249	-0.597
250	-0.597
250	-0.594
250	-0.597
251	-0.591
251	-0.591
252	-0.595
252	-0.587
253	-0.59
253	-0.601
254	-0.6
254	-0.6
255	-0.607
255	-0.601
256	-0.599
256	-0.612
257	-0.61
257	-0.606
258	-0.622
258	-0.617
258	-0.614
259	-0.611
259	-0.619
260	-0.619
260	-0.625
261	-0.634
261	-0.624
262	-0.623
262	-0.624
263	-0.611
263	-0.607
264	-0.606
264	-0.613
265	-0.608
265	-0.617
265	-0.619
266	-0.617
266	-0.612
267	-0.622
267	-0.63
268	-0.646
268	-0.656
269	-0.655
269	-0.65
270	-0.655
270	-0.657
271	-0.656
271	-0.664
272	-0.669
272	-0.666
272	-0.66
273	-0.659
273	-0.667
274	-0.671
274	-0.674
275	-0.673
275	-0.665
276	-0.671
276	-0.661
277	-0.667
277	-0.684
278	-0.694
278	-0.687
278	-0.683
279	-0.688
279	-0.698
280	-0.697
280	-0.697
281	-0.692
281	-0.701
282	-0.692
282	-0.693
283	-0.683
283	-0.685
284	-0.681
284	-0.669
285	-0.665
285	-0.663
285	-0.662
286	-0.668
286	-0.663
287	-0.66
287	-0.642
288	-0.636
288	-0.644
289	-0.653
289	-0.664
290	-0.655
290	-0.654
291	-0.65
291	-0.644
292	-0.647
292	-0.654
292	-0.659
293	-0.663
293	-0.652
294	-0.643
294	-0.633
295	-0.628
295	-0.626
296	-0.624
296	-0.623
297	-0.616
297	-0.599
298	-0.591
298	-0.601
298	-0.591
299	-0.584
299	-0.587
300	-0.582
300	-0.578
301	-0.574
301	-0.574
302	-0.579
302	-0.589
303	-0.577
303	-0.561
304	-0.564
304	-0.562
305	-0.562
305	-0.564
305	-0.56
306	-0.545
306	-0.54
307	-0.527
307	-0.527
308	-0.54
308	-0.537
309	-0.539
309	-0.53
310	-0.519
310	-0.517
311	-0.509
311	-0.516
311	-0.513
312	-0.51
312	-0.509
313	-0.494
313	-0.497
314	-0.492
314	-0.492
315	-0.493
315	-0.489
316	-0.486
316	-0.475
317	-0.468
317	-0.464
318	-0.452
318	-0.451
318	-0.444
319	-0.437
319	-0.434
320	-0.428
320	-0.43
321	-0.434
321	-0.435
322	-0.43
322	-0.423
323	-0.423
323	-0.418
324	-0.412
324	-0.404
324	-0.395
325	-0.384
325	-0.366
326	-0.353
326	-0.337
327	-0.321
327	-0.304
328	-0.278
328	-0.257
329	-0.235
329	-0.213
330	-0.186
330	-0.154
330	-0.129
331	-0.1
331	-0.073
332	-0.048
332	-0.025
333	-0.005
333	0.019
334	0.038
334	0.055
335	0.072
335	0.085
336	0.099
336	0.112
336	0.122
337	0.133
337	0.141
338	0.148
338	0.153
339	0.16
339	0.165
340	0.169
340	0.173
341	0.177
341	0.18
342	0.183
342	0.186
342	0.189
343	0.191
343	0.194
344	0.196
344	0.197
345	0.199
345	0.2
346	0.2
346	0.201
347	0.202
347	0.203
348	0.203
348	0.204
348	0.204
349	0.204
349	0.204
350	0.204
350	0.205
351	0.205
351	0.205
352	0.205
352	0.205
353	0.205
353	0.206
354	0.206
354	0.206
354	0.206
355	0.205
355	0.205
356	0.205
356	0.205
357	0.204
357	0.204
358	0.204
358	0.204
359	0.203
359	0.203
360	0.203
360	0.203
360	0.203
361	0.203
361	0.203
362	0.203
362	0.203
363	0.203
363	0.203
364	0.203
364	0.203
365	0.203
365	0.202
366	0.203
366	0.203
366	0.203
367	0.203
367	0.203
368	0.203
368	0.203
369	0.203
369	0.203
370	0.203
370	0.203
371	0.202
371	0.202
372	0.202
372	0.202
372	0.202
373	0.202
373	0.202
374	0.202
374	0.202
375	0.202
375	0.202
376	0.202
376	0.202
377	0.202
377	0.202
378	0.202
378	0.202
378	0.202
379	0.202
379	0.202
380	0.202
380	0.202
381	0.202
381	0.202
382	0.202
382	0.202
383	0.201
383	0.201
383	0.201
384	0.201
384	0.201
385	0.201
385	0.201
386	0.201
386	0.201
387	0.201
387	0.201
388	0.201
388	0.201
389	0.201
389	0.201
389	0.201
390	0.202
390	0.201
391	0.201
391	0.201
392	0.201
392	0.201
393	0.201
393	0.201
394	0.201
394	0.2
394	0.2
395	0.2
395	0.2
396	0.2
396	0.2
397	0.2
397	0.2
398	0.2
398	0.2
399	0.2
399	0.2
400	0.2
400	0.2
400	0.2
401	0.199
401	0.199
402	0.199
402	0.199
403	0.199
403	0.199
404	0.199
404	0.199
405	0.199
405	0.199
405	0.199
406	0.198
406	0.198
407	0.198
407	0.198
408	0.198
408	0.198
409	0.198
409	0.198
410	0.198
410	0.198
411	0.198
411	0.198
411	0.198
412	0.198
412	0.198
413	0.198
413	0.198
414	0.198
414	0.198
415	0.198
415	0.198
416	0.198
416	0.198
416	0.198
417	0.197
417	0.197
418	0.198
418	0.198
419	0.198
419	0.198
420	0.198
420	0.198
421	0.198
421	0.198
421	0.198
422	0.198
422	0.198
423	0.197
423	0.197
424	0.197
424	0.197
425	0.196
425	0.196
426	0.196
426	0.196
427	0.195
427	0.195
427	0.195
428	0.195
428	0.195
429	0.195
429	0.195
430	0.195
430	0.195
431	0.195
431	0.195
432	0.195
432	0.194
432	0.194
433	0.194
433	0.194
434	0.194
434	0.194
435	0.194
435	0.194
436	0.194
436	0.194
437	0.194
437	0.194
437	0.194
438	0.194
438	0.194
439	0.194
439	0.194
440	0.194
440	0.194
441	0.194
441	0.194
442	0.194
442	0.193
442	0.193
443	0.193
443	0.193
444	0.193
444	0.193
445	0.193
445	0.193
446	0.193
446	0.193
447	0.193
447	0.193
447	0.193
448	0.193
448	0.193
449	0.193
449	0.193
450	0.193
450	0.193
451	0.193
451	0.193
452	0.193
452	0.193
452	0.193
453	0.193
453	0.192
454	0.192
454	0.192
455	0.192
455	0.192
456	0.192
456	0.191
457	0.191
457	0.191
458	0.191
458	0.191
458	0.191
459	0.191
459	0.191
460	0.191
460	0.191
461	0.191
461	0.191
462	0.191
462	0.191
463	0.192
463	0.192
463	0.192
464	0.192
464	0.192
465	0.192
465	0.192
466	0.192
466	0.192
467	0.192
467	0.192
467	0.192
468	0.192
468	0.192
469	0.192
469	0.192
470	0.193
470	0.193
471	0.193
471	0.193
472	0.193
472	0.193
472	0.193
473	0.194
473	0.194
474	0.193
474	0.193
475	0.193
475	0.193
476	0.193
476	0.193
477	0.193
477	0.193
477	0.193
478	0.193
478	0.193
479	0.193
479	0.193
480	0.193
480	0.194
481	0.194
481	0.194
482	0.195
482	0.195
482	0.195
483	0.196
483	0.196
484	0.196
484	0.196
485	0.196
485	0.196
486	0.196
486	0.196
487	0.197
487	0.197
487	0.197
488	0.197
488	0.198
489	0.198
489	0.2
490	0.2
490	0.201
491	0.202
491	0.202
492	0.203
492	0.203
492	0.204
493	0.204
493	0.205
494	0.206
494	0.206
495	0.207
495	0.207
496	0.208
496	0.209
496	0.209
497	0.21
497	0.211
498	0.211
498	0.212
499	0.213
499	0.214
500	0.215
500	0.216
501	0.216
501	0.217
501	0.217
502	0.218
502	0.219
503	0.22
503	0.22
504	0.221
504	0.222
505	0.223
505	0.224
506	0.225
506	0.226
506	0.226
507	0.227
507	0.228
508	0.228
508	0.229
509	0.23
509	0.231
510	0.232
510	0.233
511	0.233
511	0.235
511	0.235
512	0.237
512	0.238
513	0.239
513	0.239
514	0.24
514	0.242
515	0.243
515	0.243
515	0.244
516	0.245
516	0.246
517	0.247
517	0.248
518	0.248
518	0.249
519	0.25
519	0.25
520	0.251
520	0.252
520	0.253
521	0.254
521	0.256
522	0.257
522	0.258
523	0.259
523	0.26
524	0.261
524	0.261
524	0.262
525	0.263
525	0.263
526	0.264
526	0.264
527	0.265
527	0.265
528	0.266
528	0.267
529	0.267
529	0.268
529	0.269
530	0.27
530	0.271
531	0.272
531	0.272
532	0.272
532	0.273
533	0.274
533	0.274
533	0.275
534	0.275
534	0.275
535	0.275
535	0.275
536	0.275
536	0.276
537	0.275
537	0.276
538	0.276
538	0.276
538	0.277
539	0.277
539	0.278
540	0.278
540	0.278
541	0.279
541	0.279
542	0.28
542	0.28
542	0.28
543	0.281
543	0.281
544	0.281
544	0.281
545	0.282
545	0.283
546	0.283
546	0.283
547	0.283
547	0.283
547	0.283
548	0.284
548	0.284
549	0.284
549	0.285
550	0.285
550	0.285
551	0.286
551	0.287
551	0.288
552	0.289
552	0.29
553	0.29
553	0.291
554	0.291
554	0.291
555	0.292
555	0.292
556	0.292
556	0.292
556	0.292
557	0.292
557	0.292
558	0.292
558	0.292
559	0.292
559	0.292
560	0.292
560	0.292
560	0.292
561	0.292
561	0.292
562	0.291
562	0.291
563	0.291
563	0.291
564	0.291
564	0.291
564	0.292
565	0.292
565	0.293
566	0.293
566	0.294
567	0.294
567	0.294
568	0.294
568	0.294
568	0.294
569	0.294
569	0.294
570	0.293
570	0.292
571	0.292
571	0.292
572	0.291
572	0.291
573	0.291
573	0.291
573	0.29
574	0.291
574	0.291
575	0.291
575	0.292
576	0.292
576	0.292
577	0.292
577	0.292
577	0.293
578	0.294
578	0.294
579	0.295
579	0.296
580	0.295
580	0.295
581	0.294
581	0.294
581	0.295
582	0.295
582	0.295
583	0.296
583	0.295
584	0.294
584	0.293
585	0.295
585	0.295
585	0.296
586	0.296
586	0.296
587	0.296
587	0.295
588	0.295
588	0.295
589	0.296
589	0.296
590	0.296
590	0.297
590	0.298
591	0.298
591	0.298
592	0.298
592	0.297
593	0.297
593	0.297
594	0.297
594	0.297
594	0.297
595	0.297
595	0.297
596	0.297
596	0.298
597	0.3
597	0.3
598	0.299
598	0.3
598	0.3
599	0.299
599	0.299
600	0.298
600	0.297
601	0.297
601	0.296
602	0.295
602	0.295
602	0.295
603	0.295
603	0.296
604	0.297
604	0.298
605	0.298
605	0.299
606	0.299
606	0.298
606	0.298
607	0.298
607	0.298
608	0.297
608	0.296
609	0.296
609	0.296
610	0.296
610	0.296
610	0.297
611	0.297
611	0.298
612	0.3
612	0.301
613	0.301
613	0.302
614	0.301
614	0.3
614	0.3
615	0.299
615	0.298
616	0.298
616	0.297
617	0.296
617	0.295
618	0.294
618	0.294
618	0.294
619	0.294
619	0.294
620	0.294
620	0.294
621	0.294
621	0.294
622	0.293
622	0.293
622	0.293
623	0.292
623	0.293
624	0.292
624	0.291
625	0.291
625	0.291
626	0.29
626	0.29
626	0.289
627	0.289
627	0.288
628	0.287
628	0.286
629	0.284
629	0.283
630	0.281
630	0.279
630	0.278
631	0.276
631	0.274
632	0.272
632	0.27
633	0.267
633	0.265
634	0.262
634	0.26
634	0.257
635	0.254
635	0.251
636	0.248
636	0.244
637	0.241
637	0.237
638	0.233
638	0.228
638	0.224
639	0.219
639	0.214
640	0.209
640	0.203
641	0.198
641	0.193
642	0.188
642	0.183
642	0.178
643	0.172
643	0.166
644	0.159
644	0.153
645	0.146
645	0.139
646	0.132
646	0.125
646	0.117
647	0.11
647	0.102
648	0.095
648	0.087
649	0.079
649	0.071
650	0.063
650	0.055
650	0.045
651	0.035
651	0.021
652	0.005
652	-0.011
653	-0.025
653	-0.038
653	-0.035
654	-0.014
654	-0.003
655	-0.008
655	-0.014
656	-0.019
656	-0.026
657	-0.03
657	-0.034
657	-0.041
658	-0.048
658	-0.078
659	-0.165
659	-0.268
660	-0.312
660	-0.34
661	-0.369
661	-0.4
661	-0.434
662	-0.466
662	-0.501
663	-0.539
663	-0.582
664	-0.626
664	-0.677
665	-0.727
665	-0.785
665	-0.839
666	-0.896
666	-0.957
667	-1.02
667	-1.085
668	-1.157
668	-1.229
669	-1.302
669	-1.374
669	-1.451
670	-1.518
670	-1.55
671	-1.687
671	-1.969
672	-2.199
672	-2.39
672	-2.52
673	-2.613
673	-2.693
674	-2.737
674	-2.756
675	-2.781
675	-2.921
676	-3.117
676	-3.068
676	-2.845
677	-2.641
677	-2.478
678	-2.302
678	-2.003
679	-1.715
679	-1.577
680	-1.482
680	-1.4
680	-1.33
681	-1.285
681	-1.226
682	-1.188
682	-1.152
683	-1.118
683	-1.102
684	-1.082
684	-1.065
684	-1.045
685	-1.021
685	-0.999
686	-0.976
686	-0.963
687	-0.938
687	-0.927
687	-0.908
688	-0.883
688	-0.863
689	-0.842
689	-0.829
690	-0.81
690	-0.798
691	-0.792
691	-0.794
691	-0.81
692	-0.803
692	-0.795
693	-0.789
693	-0.797
694	-0.792
694	-0.786
695	-0.792
695	-0.792
695	-0.776
696	-0.774
696	-0.753
697	-0.752
697	-0.768
698	-0.771
698	-0.76
698	-0.776
699	-0.779
699	-0.776
700	-0.767
700	-0.782
701	-0.781
701	-0.789
702	-0.79
702	-0.78
702	-0.773
703	-0.766
703	-0.756
704	-0.751
704	-0.752
705	-0.764
705	-0.756
705	-0.744
706	-0.744
706	-0.74
707	-0.744
707	-0.738
708	-0.737
708	-0.73
709	-0.734
709	-0.737
709	-0.727
710	-0.737
710	-0.747
711	-0.739
711	-0.738
712	-0.736
712	-0.75
713	-0.75
713	-0.756
713	-0.746
714	-0.741
714	-0.742
715	-0.732
715	-0.717
716	-0.726
716	-0.73
716	-0.724
717	-0.725
717	-0.727
718	-0.719
718	-0.72
719	-0.727
719	-0.729
720	-0.725
720	-0.736
720	-0.727
721	-0.717
721	-0.718
722	-0.705
722	-0.695
723	-0.693
723	-0.698
723	-0.685
724	-0.687
724	-0.69
725	-0.689
725	-0.697
726	-0.708
726	-0.712
727	-0.716
727	-0.73
727	-0.736
728	-0.738
728	-0.744
729	-0.744
729	-0.75
730	-0.755
730	-0.749
730	-0.739
731	-0.724
731	-0.734
732	-0.74
732	-0.742
733	-0.738
733	-0.743
734	-0.738
734	-0.739
734	-0.727
735	-0.725
735	-0.727
736	-0.736
736	-0.722
737	-0.717
737	-0.718
737	-0.731
738	-0.727
738	-0.726
739	-0.724
739	-0.737
740	-0.736
740	-0.735
741	-0.732
741	-0.731
741	-0.732
742	-0.729
742	-0.729
743	-0.735
743	-0.738
744	-0.735
744	-0.724
744	-0.725
745	-0.73
745	-0.722
746	-0.723
746	-0.719
747	-0.722
747	-0.711
748	-0.698
748	-0.704
748	-0.705
749	-0.704
749	-0.705
750	-0.696
750	-0.696
751	-0.699
751	-0.709
751	-0.711
752	-0.714
752	-0.726
753	-0.72
753	-0.719
754	-0.722
754	-0.716
754	-0.731
755	-0.746
755	-0.756
756	-0.746
756	-0.742
757	-0.74
757	-0.734
758	-0.737
758	-0.732
758	-0.738
759	-0.744
759	-0.727
760	-0.721
760	-0.719
761	-0.726
761	-0.723
761	-0.722
762	-0.729
762	-0.732
763	-0.742
763	-0.738
764	-0.738
764	-0.746
764	-0.751
765	-0.742
765	-0.729
766	-0.738
766	-0.744
767	-0.758
767	-0.749
768	-0.742
768	-0.751
768	-0.756
769	-0.774
769	-0.775
770	-0.779
770	-0.792
771	-0.789
771	-0.791
771	-0.792
772	-0.797
772	-0.794
773	-0.795
773	-0.789
774	-0.787
774	-0.786
775	-0.787
775	-0.782
775	-0.789
776	-0.788
776	-0.777
777	-0.787
777	-0.808
778	-0.803
778	-0.823
778	-0.81
779	-0.832
779	-0.843
780	-0.856
780	-0.857
781	-0.869
781	-0.865
781	-0.88
782	-0.879
782	-0.882
783	-0.869
783	-0.869
784	-0.85
784	-0.837
784	-0.846
785	-0.853
785	-0.839
786	-0.845
786	-0.822
787	-0.806
787	-0.808
788	-0.81
788	-0.82
788	-0.831
789	-0.833
789	-0.815
790	-0.795
790	-0.797
791	-0.796
791	-0.81
791	-0.818
792	-0.813
792	-0.789
793	-0.778
793	-0.755
794	-0.759
794	-0.751
794	-0.761
795	-0.758
795	-0.752
796	-0.736
796	-0.745
797	-0.738
797	-0.751
797	-0.757
798	-0.767
798	-0.761
799	-0.771
799	-0.757
800	-0.762
800	-0.754
801	-0.76
801	-0.743
801	-0.753
802	-0.761
802	-0.764
803	-0.768
803	-0.776
804	-0.773
804	-0.782
804	-0.77
805	-0.776
805	-0.765
806	-0.77
806	-0.756
807	-0.753
807	-0.735
807	-0.723
808	-0.714
808	-0.706
809	-0.692
809	-0.7
810	-0.699
810	-0.691
810	-0.688
811	-0.693
811	-0.686
812	-0.689
812	-0.692
813	-0.695
813	-0.691
813	-0.698
814	-0.702
814	-0.705
815	-0.712
815	-0.714
816	-0.706
816	-0.711
817	-0.716
817	-0.733
817	-0.748
818	-0.755
818	-0.757
819	-0.746
819	-0.748
820	-0.757
820	-0.754
820	-0.767
821	-0.764
821	-0.749
822	-0.717
822	-0.692
823	-0.691
823	-0.695
823	-0.691
824	-0.687
824	-0.687
825	-0.68
825	-0.658
826	-0.652
826	-0.661
826	-0.673
827	-0.668
827	-0.664
828	-0.641
828	-0.642
829	-0.63
829	-0.616
829	-0.61
830	-0.621
830	-0.618
831	-0.609
831	-0.597
832	-0.594
832	-0.587
832	-0.595
833	-0.587
833	-0.589
834	-0.585
834	-0.592
835	-0.578
835	-0.574
835	-0.57
836	-0.567
836	-0.565
837	-0.561
837	-0.55
838	-0.545
838	-0.531
839	-0.519
839	-0.505
839	-0.497
840	-0.484
840	-0.482
841	-0.468
841	-0.458
842	-0.452
842	-0.441
842	-0.433
843	-0.426
843	-0.422
844	-0.415
844	-0.408
845	-0.401
845	-0.392
845	-0.379
846	-0.369
846	-0.353
847	-0.342
847	-0.33
848	-0.319
848	-0.306
848	-0.287
849	-0.273
849	-0.26
850	-0.243
850	-0.237
851	-0.226
851	-0.215
851	-0.205
852	-0.189
852	-0.175
853	-0.166
853	-0.16
854	-0.148
854	-0.135
854	-0.124
855	-0.111
855	-0.103
856	-0.092
856	-0.083
857	-0.075
857	-0.065
857	-0.052
858	-0.039
858	-0.033
859	-0.023
859	-0.011
860	-0.001
860	0.013
860	0.023
861	0.032
861	0.042
862	0.05
862	0.058
863	0.065
863	0.075
863	0.081
864	0.086
864	0.093
865	0.1
865	0.104
866	0.109
866	0.113
866	0.117
867	0.12
867	0.124
868	0.127
868	0.131
869	0.135
869	0.137
869	0.139
870	0.142
870	0.145
871	0.147
871	0.149
872	0.15
872	0.151
872	0.152
873	0.153
873	0.153
874	0.153
874	0.152
875	0.151
875	0.15
875	0.148
876	0.147
876	0.145
877	0.144
877	0.143
878	0.141
878	0.139
878	0.137
879	0.136
879	0.135
880	0.134
880	0.134
881	0.134
881	0.134
881	0.134
882	0.133
882	0.132
883	0.131
883	0.13
884	0.129
884	0.128
884	0.127
885	0.126
885	0.126
886	0.125
886	0.124
887	0.124
887	0.123
887	0.124
888	0.124
888	0.124
889	0.124
889	0.125
890	0.125
890	0.125
890	0.125
891	0.125
891	0.125
892	0.126
892	0.125
893	0.125
893	0.125
893	0.125
894	0.125
894	0.125
895	0.124
895	0.124
895	0.124
896	0.123
896	0.121
897	0.12
897	0.119
898	0.118
898	0.117
898	0.117
899	0.117
899	0.117
900	0.117
900	0.117
901	0.118
901	0.119
901	0.119
902	0.12
902	0.121
903	0.122
903	0.122
904	0.122
904	0.122
904	0.123
905	0.123
905	0.124
906	0.124
906	0.124
907	0.124
907	0.124
907	0.124
908	0.124
908	0.123
909	0.123
909	0.122
910	0.122
910	0.122
910	0.122
911	0.122
911	0.122
912	0.122
912	0.122
913	0.122
913	0.123
913	0.124
914	0.124
914	0.125
915	0.125
915	0.126
916	0.126
916	0.126
916	0.127
917	0.127
917	0.127
918	0.127
918	0.127
918	0.126
919	0.126
919	0.125
920	0.125
920	0.125
921	0.125
921	0.125
921	0.124
922	0.124
922	0.124
923	0.124
923	0.124
924	0.124
924	0.123
924	0.123
925	0.122
925	0.121
926	0.12
926	0.119
927	0.119
927	0.118
927	0.118
928	0.117
928	0.117
929	0.117
929	0.116
930	0.116
930	0.115
930	0.115
931	0.115
931	0.115
932	0.114
932	0.114
933	0.113
933	0.111
933	0.11
934	0.109
934	0.108
935	0.107
935	0.105
935	0.104
936	0.103
936	0.101
937	0.1
937	0.1
938	0.1
938	0.1
938	0.1
939	0.1
939	0.1
940	0.1
940	0.1
941	0.101
941	0.101
941	0.102
942	0.102
942	0.102
943	0.103
943	0.102
944	0.102
944	0.102
944	0.101
945	0.1
945	0.099
946	0.098
946	0.096
946	0.095
947	0.094
947	0.093
948	0.092
948	0.092
949	0.091
949	0.091
949	0.091
950	0.092
950	0.092
951	0.093
951	0.093
952	0.093
952	0.094
952	0.095
953	0.096
953	0.097
954	0.097
954	0.098
955	0.099
955	0.1
955	0.101
956	0.102
956	0.102
957	0.103
957	0.103
957	0.104
958	0.104
958	0.105
959	0.106
959	0.106
960	0.107
960	0.107
960	0.108
961	0.109
961	0.109
962	0.11
962	0.11
963	0.11
963	0.109
963	0.109
964	0.109
964	0.109
965	0.109
965	0.108
966	0.108
966	0.107
966	0.107
967	0.106
967	0.106
968	0.105
968	0.104
968	0.104
969	0.103
969	0.103
970	0.102
970	0.102
971	0.102
971	0.102
971	0.102
972	0.102
972	0.103
973	0.103
973	0.103
974	0.103
974	0.103
974	0.103
975	0.103
975	0.103
976	0.103
976	0.102
976	0.102
977	0.102
977	0.103
978	0.103
978	0.103
979	0.103
979	0.103
979	0.102
980	0.102
980	0.102
981	0.102
981	0.102
982	0.102
982	0.101
982	0.101
983	0.1
983	0.1
984	0.1
984	0.1
984	0.1
985	0.1
985	0.099
986	0.099
986	0.098
987	0.098
987	0.097
987	0.097
988	0.096
988	0.095
989	0.095
989	0.094
990	0.093
990	0.092
990	0.092
991	0.092
991	0.091
992	0.091
992	0.091
992	0.091
993	0.091
993	0.091
994	0.091
994	0.09
995	0.09
995	0.09
995	0.089
996	0.089
996	0.089
997	0.088
997	0.088
997	0.088
998	0.088
998	0.088
999	0.088
999	0.088
1000	0.088
1000	0.088
1000	0.088
1001	0.089
1001	0.089
1002	0.089
1002	0.089
1003	0.089
1003	0.089
1003	0.088
1004	0.088
1004	0.087
1005	0.087
1005	0.086
1005	0.085
1006	0.083
1006	0.082
1007	0.081
1007	0.08
1008	0.079
1008	0.078
1008	0.078
1009	0.078
1009	0.078
1010	0.078
1010	0.078
1010	0.078
1011	0.078
1011	0.078
1012	0.078
1012	0.077
1013	0.077
1013	0.076
1013	0.075
1014	0.074
1014	0.073
1015	0.072
1015	0.071
1016	0.07
1016	0.069
1016	0.068
1017	0.067
1017	0.067
1018	0.066
1018	0.065
1018	0.064
1019	0.064
1019	0.063
1020	0.062
1020	0.062
1021	0.061
1021	0.061
1021	0.06
1022	0.059
1022	0.059
1023	0.058
1023	0.058
1023	0.057
1024	0.057
1024	0.057
1025	0.057
1025	0.057
1026	0.057
1026	0.057
1026	0.058
1027	0.058
1027	0.059
1028	0.059
1028	0.059
1028	0.059
1029	0.059
1029	0.058
1030	0.058
1030	0.057
1031	0.057
1031	0.057
1031	0.057
1032	0.056
1032	0.056
1033	0.056
1033	0.056
1033	0.056
1034	0.056
1034	0.056
1035	0.057
1035	0.056
1036	0.056
1036	0.056
1036	0.056
1037	0.056
1037	0.056
1038	0.056
1038	0.056
1039	0.057
1039	0.057
1039	0.058
1040	0.058
1040	0.059
1041	0.06
1041	0.06
1041	0.061
1042	0.061
1042	0.061
1043	0.061
1043	0.061
1044	0.06
1044	0.059
1044	0.059
1045	0.058
1045	0.057
1046	0.056
1046	0.056
1046	0.056
1047	0.056
1047	0.056
1048	0.056
1048	0.056
1049	0.056
1049	0.057
1049	0.057
1050	0.057
1050	0.058
1051	0.058
1051	0.058
1051	0.058
1052	0.058
1052	0.058
1053	0.058
1053	0.058
1053	0.058
1054	0.058
1054	0.058
1055	0.057
1055	0.057
1056	0.056
1056	0.055
1056	0.054
1057	0.053
1057	0.053
1058	0.052
1058	0.051
1058	0.051
1059	0.05
1059	0.049
1060	0.048
1060	0.048
1061	0.047
1061	0.047
1061	0.047
1062	0.047
1062	0.046
1063	0.046
1063	0.046
1063	0.046
1064	0.047
1064	0.047
1065	0.047
1065	0.047
1066	0.046
1066	0.046
1066	0.046
1067	0.046
1067	0.045
1068	0.045
1068	0.044
1068	0.044
1069	0.043
1069	0.043
1070	0.042
1070	0.042
1071	0.041
1071	0.041
1071	0.04
1072	0.04
1072	0.039
1073	0.038
1073	0.038
1073	0.038
1074	0.038
1074	0.038
1075	0.038
1075	0.038
1076	0.037
1076	0.038
1076	0.037
1077	0.036
1077	0.036
1078	0.035
1078	0.034
1078	0.033
1079	0.033
1079	0.032
1080	0.031
1080	0.031
1080	0.03
1081	0.029
1081	0.029
1082	0.028
1082	0.027
1083	0.027
1083	0.026
1083	0.025
1084	0.024
1084	0.024
1085	0.023
1085	0.022
1085	0.022
1086	0.022
1086	0.02
1087	0.021
1087	0.02
1088	0.019
1088	0.018
1088	0.017
1089	0.015
1089	0.014
1090	0.013
1090	0.012
1090	0.011
1091	0.01
1091	0.009
1092	0.008
1092	0.009
1092	0.008
1093	0.007
1093	0.007
1094	0.006
1094	0.006
1095	0.004
1095	0.004
1095	0.003
1096	0.002
1096	0
1097	-0
1097	-0.002
1097	-0.003
1098	-0.005
1098	-0.007
1099	-0.008
1099	-0.008
1100	-0.01
1100	-0.012
1100	-0.014
1101	-0.017
1101	-0.02
1102	-0.022
1102	-0.025
1102	-0.026
1103	-0.028
1103	-0.03
1104	-0.033
1104	-0.035
1104	-0.038
1105	-0.04
1105	-0.044
1106	-0.05
1106	-0.052
1107	-0.057
1107	-0.062
1107	-0.067
1108	-0.07
1108	-0.072
1109	-0.076
1109	-0.081
1109	-0.084
1110	-0.085
1110	-0.086
1111	-0.095
1111	-0.094
