Data from 17C_3.1A_35min_2sec_int_Absorbance__521__02924.txt Node

Date: Mon Jun 19 18:36:32 CEST 2023
User: Marek
Spectrometer: MAYP115816
Trigger mode: 0
Integration Time (sec): 2.500000E-1
Scans to average: 10
Electric dark correction enabled: true
Nonlinearity correction enabled: true
Boxcar width: 5
XAxis mode: Wavelengths
Number of Pixels in Spectrum: 2068
>>>>>Begin Spectral Data<<<<<
199	-0.754
199	-0.774
200	-0.679
200	-0.624
201	-0.589
201	-0.576
202	-0.558
202	-0.543
203	-0.536
203	-0.533
204	-0.519
204	-0.506
205	-0.482
205	-0.476
205	-0.474
206	-0.476
206	-0.478
207	-0.468
207	-0.47
208	-0.471
208	-0.469
209	-0.465
209	-0.466
210	-0.468
210	-0.474
211	-0.476
211	-0.477
212	-0.48
212	-0.49
213	-0.488
213	-0.489
213	-0.493
214	-0.49
214	-0.49
215	-0.492
215	-0.497
216	-0.502
216	-0.51
217	-0.504
217	-0.508
218	-0.51
218	-0.512
219	-0.515
219	-0.525
220	-0.53
220	-0.539
221	-0.536
221	-0.536
221	-0.529
222	-0.527
222	-0.528
223	-0.532
223	-0.535
224	-0.538
224	-0.538
225	-0.532
225	-0.525
226	-0.53
226	-0.53
227	-0.536
227	-0.544
228	-0.544
228	-0.546
229	-0.545
229	-0.537
229	-0.533
230	-0.538
230	-0.542
231	-0.536
231	-0.529
232	-0.523
232	-0.52
233	-0.514
233	-0.513
234	-0.513
234	-0.512
235	-0.514
235	-0.519
236	-0.519
236	-0.522
236	-0.527
237	-0.533
237	-0.534
238	-0.541
238	-0.539
239	-0.537
239	-0.544
240	-0.544
240	-0.542
241	-0.545
241	-0.545
242	-0.551
242	-0.549
243	-0.545
243	-0.546
243	-0.555
244	-0.556
244	-0.556
245	-0.57
245	-0.569
246	-0.575
246	-0.581
247	-0.584
247	-0.587
248	-0.595
248	-0.592
249	-0.595
249	-0.604
250	-0.604
250	-0.601
250	-0.602
251	-0.599
251	-0.598
252	-0.6
252	-0.59
253	-0.593
253	-0.606
254	-0.605
254	-0.602
255	-0.607
255	-0.6
256	-0.598
256	-0.609
257	-0.607
257	-0.603
258	-0.62
258	-0.619
258	-0.615
259	-0.612
259	-0.621
260	-0.622
260	-0.627
261	-0.638
261	-0.63
262	-0.628
262	-0.628
263	-0.617
263	-0.612
264	-0.612
264	-0.621
265	-0.614
265	-0.623
265	-0.626
266	-0.623
266	-0.621
267	-0.634
267	-0.644
268	-0.66
268	-0.669
269	-0.666
269	-0.66
270	-0.666
270	-0.669
271	-0.669
271	-0.674
272	-0.678
272	-0.671
272	-0.664
273	-0.659
273	-0.668
274	-0.674
274	-0.677
275	-0.677
275	-0.67
276	-0.677
276	-0.669
277	-0.675
277	-0.693
278	-0.703
278	-0.698
278	-0.691
279	-0.694
279	-0.707
280	-0.705
280	-0.703
281	-0.697
281	-0.704
282	-0.695
282	-0.697
283	-0.687
283	-0.69
284	-0.686
284	-0.673
285	-0.666
285	-0.663
285	-0.66
286	-0.667
286	-0.661
287	-0.658
287	-0.642
288	-0.635
288	-0.645
289	-0.656
289	-0.667
290	-0.659
290	-0.658
291	-0.655
291	-0.65
292	-0.654
292	-0.661
292	-0.665
293	-0.669
293	-0.657
294	-0.649
294	-0.637
295	-0.635
295	-0.633
296	-0.631
296	-0.629
297	-0.622
297	-0.606
298	-0.599
298	-0.608
298	-0.596
299	-0.588
299	-0.59
300	-0.587
300	-0.582
301	-0.577
301	-0.577
302	-0.586
302	-0.594
303	-0.581
303	-0.565
304	-0.569
304	-0.57
305	-0.571
305	-0.569
305	-0.566
306	-0.552
306	-0.545
307	-0.531
307	-0.534
308	-0.548
308	-0.546
309	-0.548
309	-0.536
310	-0.526
310	-0.523
311	-0.514
311	-0.521
311	-0.516
312	-0.511
312	-0.509
313	-0.496
313	-0.5
314	-0.494
314	-0.496
315	-0.496
315	-0.495
316	-0.493
316	-0.485
317	-0.477
317	-0.473
318	-0.461
318	-0.458
318	-0.452
319	-0.444
319	-0.442
320	-0.434
320	-0.435
321	-0.439
321	-0.437
322	-0.434
322	-0.428
323	-0.428
323	-0.423
324	-0.415
324	-0.405
324	-0.395
325	-0.384
325	-0.367
326	-0.354
326	-0.338
327	-0.322
327	-0.302
328	-0.276
328	-0.255
329	-0.233
329	-0.211
330	-0.185
330	-0.154
330	-0.128
331	-0.099
331	-0.072
332	-0.049
332	-0.026
333	-0.004
333	0.019
334	0.039
334	0.056
335	0.072
335	0.086
336	0.1
336	0.113
336	0.123
337	0.135
337	0.144
338	0.151
338	0.156
339	0.164
339	0.17
340	0.175
340	0.179
341	0.183
341	0.186
342	0.189
342	0.192
342	0.195
343	0.197
343	0.2
344	0.201
344	0.203
345	0.204
345	0.205
346	0.206
346	0.207
347	0.208
347	0.209
348	0.209
348	0.21
348	0.21
349	0.21
349	0.21
350	0.211
350	0.211
351	0.211
351	0.211
352	0.212
352	0.212
353	0.212
353	0.212
354	0.212
354	0.212
354	0.212
355	0.211
355	0.211
356	0.211
356	0.211
357	0.21
357	0.209
358	0.209
358	0.209
359	0.209
359	0.209
360	0.209
360	0.209
360	0.208
361	0.208
361	0.208
362	0.209
362	0.209
363	0.209
363	0.209
364	0.209
364	0.208
365	0.209
365	0.208
366	0.209
366	0.209
366	0.209
367	0.209
367	0.209
368	0.209
368	0.209
369	0.209
369	0.209
370	0.209
370	0.209
371	0.209
371	0.209
372	0.208
372	0.209
372	0.209
373	0.209
373	0.208
374	0.208
374	0.208
375	0.208
375	0.209
376	0.208
376	0.208
377	0.209
377	0.208
378	0.208
378	0.208
378	0.208
379	0.208
379	0.208
380	0.208
380	0.208
381	0.208
381	0.208
382	0.208
382	0.207
383	0.207
383	0.207
383	0.207
384	0.207
384	0.207
385	0.207
385	0.207
386	0.207
386	0.207
387	0.207
387	0.207
388	0.207
388	0.207
389	0.207
389	0.207
389	0.207
390	0.207
390	0.207
391	0.207
391	0.207
392	0.207
392	0.207
393	0.207
393	0.207
394	0.206
394	0.206
394	0.206
395	0.206
395	0.206
396	0.206
396	0.206
397	0.206
397	0.206
398	0.206
398	0.206
399	0.206
399	0.206
400	0.206
400	0.206
400	0.206
401	0.206
401	0.205
402	0.205
402	0.205
403	0.205
403	0.205
404	0.204
404	0.204
405	0.204
405	0.204
405	0.204
406	0.204
406	0.204
407	0.204
407	0.204
408	0.204
408	0.204
409	0.204
409	0.204
410	0.204
410	0.204
411	0.204
411	0.204
411	0.204
412	0.204
412	0.204
413	0.204
413	0.204
414	0.204
414	0.204
415	0.203
415	0.203
416	0.203
416	0.203
416	0.203
417	0.203
417	0.203
418	0.203
418	0.203
419	0.203
419	0.203
420	0.203
420	0.203
421	0.203
421	0.203
421	0.203
422	0.203
422	0.203
423	0.203
423	0.203
424	0.203
424	0.202
425	0.202
425	0.202
426	0.201
426	0.201
427	0.201
427	0.201
427	0.201
428	0.201
428	0.201
429	0.201
429	0.2
430	0.2
430	0.2
431	0.2
431	0.2
432	0.2
432	0.2
432	0.2
433	0.2
433	0.199
434	0.199
434	0.199
435	0.199
435	0.199
436	0.199
436	0.199
437	0.199
437	0.199
437	0.199
438	0.199
438	0.199
439	0.199
439	0.199
440	0.199
440	0.199
441	0.198
441	0.198
442	0.198
442	0.198
442	0.198
443	0.198
443	0.198
444	0.198
444	0.198
445	0.198
445	0.198
446	0.198
446	0.198
447	0.198
447	0.198
447	0.198
448	0.198
448	0.198
449	0.198
449	0.198
450	0.198
450	0.198
451	0.198
451	0.198
452	0.198
452	0.198
452	0.198
453	0.197
453	0.197
454	0.197
454	0.197
455	0.196
455	0.196
456	0.196
456	0.196
457	0.196
457	0.196
458	0.196
458	0.196
458	0.197
459	0.197
459	0.197
460	0.196
460	0.196
461	0.196
461	0.196
462	0.196
462	0.196
463	0.196
463	0.197
463	0.197
464	0.197
464	0.197
465	0.197
465	0.197
466	0.197
466	0.197
467	0.197
467	0.197
467	0.197
468	0.197
468	0.197
469	0.197
469	0.197
470	0.198
470	0.198
471	0.198
471	0.198
472	0.198
472	0.198
472	0.198
473	0.198
473	0.199
474	0.198
474	0.198
475	0.198
475	0.199
476	0.199
476	0.199
477	0.199
477	0.199
477	0.198
478	0.199
478	0.199
479	0.199
479	0.199
480	0.199
480	0.199
481	0.2
481	0.2
482	0.2
482	0.2
482	0.201
483	0.201
483	0.202
484	0.201
484	0.201
485	0.201
485	0.201
486	0.201
486	0.201
487	0.202
487	0.202
487	0.203
488	0.203
488	0.203
489	0.204
489	0.205
490	0.206
490	0.207
491	0.208
491	0.208
492	0.209
492	0.209
492	0.21
493	0.211
493	0.211
494	0.212
494	0.213
495	0.213
495	0.214
496	0.214
496	0.215
496	0.216
497	0.217
497	0.218
498	0.218
498	0.219
499	0.22
499	0.221
500	0.222
500	0.223
501	0.223
501	0.224
501	0.224
502	0.225
502	0.226
503	0.227
503	0.227
504	0.228
504	0.229
505	0.23
505	0.231
506	0.232
506	0.233
506	0.234
507	0.234
507	0.235
508	0.236
508	0.237
509	0.238
509	0.239
510	0.24
510	0.241
511	0.242
511	0.243
511	0.244
512	0.245
512	0.246
513	0.247
513	0.248
514	0.249
514	0.25
515	0.251
515	0.251
515	0.252
516	0.253
516	0.254
517	0.255
517	0.256
518	0.257
518	0.258
519	0.259
519	0.259
520	0.26
520	0.262
520	0.263
521	0.264
521	0.265
522	0.266
522	0.267
523	0.268
523	0.269
524	0.27
524	0.271
524	0.272
525	0.272
525	0.273
526	0.273
526	0.274
527	0.274
527	0.275
528	0.276
528	0.277
529	0.277
529	0.278
529	0.279
530	0.28
530	0.281
531	0.281
531	0.282
532	0.283
532	0.283
533	0.284
533	0.284
533	0.285
534	0.285
534	0.285
535	0.285
535	0.286
536	0.286
536	0.286
537	0.286
537	0.286
538	0.287
538	0.287
538	0.288
539	0.288
539	0.289
540	0.289
540	0.29
541	0.29
541	0.291
542	0.291
542	0.291
542	0.292
543	0.292
543	0.292
544	0.292
544	0.292
545	0.292
545	0.293
546	0.293
546	0.293
547	0.293
547	0.293
547	0.294
548	0.294
548	0.294
549	0.295
549	0.295
550	0.296
550	0.296
551	0.297
551	0.298
551	0.299
552	0.3
552	0.3
553	0.301
553	0.302
554	0.302
554	0.302
555	0.302
555	0.302
556	0.303
556	0.303
556	0.303
557	0.303
557	0.303
558	0.302
558	0.302
559	0.302
559	0.302
560	0.302
560	0.302
560	0.302
561	0.302
561	0.301
562	0.301
562	0.301
563	0.301
563	0.301
564	0.301
564	0.301
564	0.302
565	0.303
565	0.303
566	0.304
566	0.304
567	0.304
567	0.304
568	0.305
568	0.304
568	0.305
569	0.305
569	0.304
570	0.303
570	0.302
571	0.302
571	0.302
572	0.301
572	0.301
573	0.301
573	0.301
573	0.3
574	0.301
574	0.301
575	0.301
575	0.302
576	0.303
576	0.302
577	0.302
577	0.303
577	0.304
578	0.304
578	0.305
579	0.305
579	0.306
580	0.305
580	0.304
581	0.303
581	0.304
581	0.304
582	0.304
582	0.304
583	0.305
583	0.304
584	0.304
584	0.303
585	0.304
585	0.305
585	0.306
586	0.306
586	0.306
587	0.305
587	0.305
588	0.305
588	0.305
589	0.305
589	0.306
590	0.306
590	0.306
590	0.307
591	0.307
591	0.307
592	0.307
592	0.306
593	0.306
593	0.306
594	0.306
594	0.306
594	0.306
595	0.306
595	0.306
596	0.306
596	0.308
597	0.309
597	0.309
598	0.309
598	0.309
598	0.309
599	0.308
599	0.307
600	0.307
600	0.306
601	0.306
601	0.305
602	0.304
602	0.304
602	0.303
603	0.304
603	0.305
604	0.305
604	0.306
605	0.307
605	0.307
606	0.307
606	0.307
606	0.307
607	0.306
607	0.306
608	0.305
608	0.304
609	0.304
609	0.304
610	0.304
610	0.304
610	0.305
611	0.306
611	0.306
612	0.307
612	0.308
613	0.309
613	0.309
614	0.309
614	0.308
614	0.307
615	0.306
615	0.306
616	0.305
616	0.304
617	0.303
617	0.302
618	0.301
618	0.301
618	0.301
619	0.301
619	0.301
620	0.301
620	0.301
621	0.301
621	0.3
622	0.3
622	0.3
622	0.299
623	0.299
623	0.299
624	0.299
624	0.298
625	0.298
625	0.297
626	0.297
626	0.296
626	0.295
627	0.295
627	0.294
628	0.293
628	0.292
629	0.29
629	0.289
630	0.287
630	0.285
630	0.283
631	0.282
631	0.279
632	0.277
632	0.274
633	0.272
633	0.269
634	0.267
634	0.264
634	0.261
635	0.258
635	0.255
636	0.252
636	0.248
637	0.244
637	0.24
638	0.236
638	0.231
638	0.227
639	0.221
639	0.216
640	0.211
640	0.205
641	0.2
641	0.195
642	0.189
642	0.184
642	0.178
643	0.173
643	0.166
644	0.16
644	0.153
645	0.146
645	0.14
646	0.133
646	0.125
646	0.117
647	0.11
647	0.102
648	0.094
648	0.086
649	0.077
649	0.069
650	0.06
650	0.052
650	0.042
651	0.032
651	0.018
652	0.002
652	-0.014
653	-0.029
653	-0.042
653	-0.039
654	-0.017
654	-0.006
655	-0.01
655	-0.015
656	-0.021
656	-0.028
657	-0.033
657	-0.038
657	-0.044
658	-0.05
658	-0.08
659	-0.169
659	-0.272
660	-0.318
660	-0.345
661	-0.375
661	-0.405
661	-0.439
662	-0.471
662	-0.506
663	-0.545
663	-0.588
664	-0.631
664	-0.683
665	-0.734
665	-0.791
665	-0.845
666	-0.902
666	-0.963
667	-1.026
667	-1.091
668	-1.162
668	-1.234
669	-1.307
669	-1.379
669	-1.456
670	-1.521
670	-1.545
671	-1.662
671	-1.956
672	-2.19
672	-2.384
672	-2.515
673	-2.608
673	-2.689
674	-2.731
674	-2.75
675	-2.775
675	-2.916
676	-3.115
676	-3.066
676	-2.842
677	-2.637
677	-2.473
678	-2.294
678	-1.989
679	-1.715
679	-1.58
680	-1.486
680	-1.403
680	-1.333
681	-1.289
681	-1.231
682	-1.193
682	-1.156
683	-1.123
683	-1.106
684	-1.086
684	-1.068
684	-1.049
685	-1.025
685	-1.004
686	-0.981
686	-0.967
687	-0.941
687	-0.931
687	-0.911
688	-0.886
688	-0.866
689	-0.845
689	-0.832
690	-0.813
690	-0.803
691	-0.797
691	-0.801
691	-0.818
692	-0.811
692	-0.802
693	-0.799
693	-0.807
694	-0.803
694	-0.795
695	-0.8
695	-0.797
695	-0.781
696	-0.779
696	-0.755
697	-0.756
697	-0.773
698	-0.777
698	-0.768
698	-0.782
699	-0.786
699	-0.784
700	-0.775
700	-0.789
701	-0.787
701	-0.794
702	-0.794
702	-0.78
702	-0.77
703	-0.763
703	-0.754
704	-0.751
704	-0.751
705	-0.765
705	-0.759
705	-0.747
706	-0.749
706	-0.745
707	-0.751
707	-0.747
708	-0.745
708	-0.737
709	-0.741
709	-0.743
709	-0.733
710	-0.741
710	-0.752
711	-0.742
711	-0.744
712	-0.742
712	-0.756
713	-0.755
713	-0.762
713	-0.752
714	-0.749
714	-0.749
715	-0.739
715	-0.725
716	-0.733
716	-0.734
716	-0.728
717	-0.729
717	-0.731
718	-0.722
718	-0.723
719	-0.728
719	-0.73
720	-0.726
720	-0.738
720	-0.731
721	-0.722
721	-0.719
722	-0.705
722	-0.694
723	-0.694
723	-0.699
723	-0.686
724	-0.692
724	-0.697
725	-0.694
725	-0.703
726	-0.715
726	-0.722
727	-0.728
727	-0.744
727	-0.75
728	-0.751
728	-0.757
729	-0.754
729	-0.758
730	-0.764
730	-0.755
730	-0.746
731	-0.73
731	-0.739
732	-0.745
732	-0.745
733	-0.744
733	-0.747
734	-0.743
734	-0.743
734	-0.73
735	-0.728
735	-0.728
736	-0.738
736	-0.724
737	-0.716
737	-0.717
737	-0.727
738	-0.724
738	-0.724
739	-0.722
739	-0.736
740	-0.735
740	-0.736
741	-0.731
741	-0.732
741	-0.737
742	-0.734
742	-0.734
743	-0.74
743	-0.744
744	-0.739
744	-0.729
744	-0.729
745	-0.736
745	-0.728
746	-0.727
746	-0.724
747	-0.726
747	-0.715
748	-0.703
748	-0.71
748	-0.712
749	-0.71
749	-0.711
750	-0.701
750	-0.703
751	-0.708
751	-0.715
751	-0.716
752	-0.72
752	-0.732
753	-0.723
753	-0.721
754	-0.726
754	-0.72
754	-0.732
755	-0.748
755	-0.758
756	-0.747
756	-0.744
757	-0.741
757	-0.735
758	-0.738
758	-0.736
758	-0.739
759	-0.744
759	-0.729
760	-0.723
760	-0.72
761	-0.73
761	-0.728
761	-0.728
762	-0.736
762	-0.736
763	-0.745
763	-0.742
764	-0.74
764	-0.749
764	-0.753
765	-0.744
765	-0.73
766	-0.738
766	-0.745
767	-0.758
767	-0.755
768	-0.746
768	-0.755
768	-0.761
769	-0.778
769	-0.779
770	-0.782
770	-0.796
771	-0.794
771	-0.796
771	-0.798
772	-0.801
772	-0.8
773	-0.8
773	-0.795
774	-0.793
774	-0.794
775	-0.796
775	-0.792
775	-0.798
776	-0.798
776	-0.787
777	-0.794
777	-0.815
778	-0.811
778	-0.83
778	-0.818
779	-0.84
779	-0.849
780	-0.861
780	-0.86
781	-0.872
781	-0.869
781	-0.884
782	-0.883
782	-0.887
783	-0.874
783	-0.874
784	-0.854
784	-0.842
784	-0.851
785	-0.857
785	-0.842
786	-0.847
786	-0.825
787	-0.81
787	-0.81
788	-0.812
788	-0.822
788	-0.834
789	-0.835
789	-0.818
790	-0.799
790	-0.801
791	-0.802
791	-0.821
791	-0.828
792	-0.821
792	-0.797
793	-0.786
793	-0.762
794	-0.767
794	-0.757
794	-0.767
795	-0.761
795	-0.752
796	-0.735
796	-0.742
797	-0.738
797	-0.75
797	-0.757
798	-0.769
798	-0.765
799	-0.775
799	-0.761
800	-0.767
800	-0.76
801	-0.767
801	-0.753
801	-0.761
802	-0.769
802	-0.77
803	-0.77
803	-0.778
804	-0.774
804	-0.785
804	-0.774
805	-0.78
805	-0.767
806	-0.769
806	-0.755
807	-0.755
807	-0.736
807	-0.725
808	-0.717
808	-0.712
809	-0.696
809	-0.704
810	-0.702
810	-0.694
810	-0.693
811	-0.698
811	-0.689
812	-0.69
812	-0.695
813	-0.699
813	-0.692
813	-0.698
814	-0.701
814	-0.704
815	-0.709
815	-0.711
816	-0.704
816	-0.709
817	-0.716
817	-0.732
817	-0.747
818	-0.758
818	-0.759
819	-0.75
819	-0.75
820	-0.761
820	-0.758
820	-0.771
821	-0.768
821	-0.755
822	-0.721
822	-0.697
823	-0.694
823	-0.698
823	-0.695
824	-0.692
824	-0.693
825	-0.685
825	-0.664
826	-0.658
826	-0.666
826	-0.678
827	-0.671
827	-0.668
828	-0.646
828	-0.646
829	-0.636
829	-0.62
829	-0.614
830	-0.623
830	-0.621
831	-0.611
831	-0.601
832	-0.6
832	-0.59
832	-0.598
833	-0.592
833	-0.594
834	-0.591
834	-0.598
835	-0.586
835	-0.58
835	-0.577
836	-0.573
836	-0.571
837	-0.569
837	-0.56
838	-0.553
838	-0.541
839	-0.528
839	-0.516
839	-0.506
840	-0.495
840	-0.491
841	-0.481
841	-0.473
842	-0.468
842	-0.456
842	-0.448
843	-0.439
843	-0.433
844	-0.422
844	-0.415
845	-0.406
845	-0.394
845	-0.379
846	-0.367
846	-0.351
847	-0.34
847	-0.327
848	-0.315
848	-0.305
848	-0.29
849	-0.278
849	-0.265
850	-0.252
850	-0.244
851	-0.234
851	-0.222
851	-0.212
852	-0.196
852	-0.182
853	-0.171
853	-0.164
854	-0.15
854	-0.138
854	-0.126
855	-0.112
855	-0.104
856	-0.094
856	-0.086
857	-0.079
857	-0.07
857	-0.058
858	-0.045
858	-0.039
859	-0.029
859	-0.017
860	-0.007
860	0.007
860	0.016
861	0.027
861	0.037
862	0.046
862	0.054
863	0.061
863	0.071
863	0.076
864	0.082
864	0.089
865	0.095
865	0.1
866	0.105
866	0.109
866	0.112
867	0.116
867	0.121
868	0.123
868	0.128
869	0.132
869	0.134
869	0.136
870	0.139
870	0.141
871	0.144
871	0.146
872	0.147
872	0.147
872	0.148
873	0.148
873	0.148
874	0.148
874	0.148
875	0.147
875	0.145
875	0.144
876	0.143
876	0.142
877	0.14
877	0.139
878	0.137
878	0.136
878	0.134
879	0.133
879	0.132
880	0.131
880	0.132
881	0.131
881	0.131
881	0.131
882	0.131
882	0.13
883	0.128
883	0.127
884	0.126
884	0.125
884	0.124
885	0.123
885	0.122
886	0.122
886	0.121
887	0.12
887	0.12
887	0.12
888	0.121
888	0.121
889	0.121
889	0.121
890	0.122
890	0.122
890	0.121
891	0.122
891	0.122
892	0.122
892	0.122
893	0.121
893	0.121
893	0.121
894	0.121
894	0.121
895	0.12
895	0.12
895	0.12
896	0.119
896	0.118
897	0.117
897	0.116
898	0.115
898	0.115
898	0.114
899	0.114
899	0.114
900	0.114
900	0.114
901	0.115
901	0.115
901	0.116
902	0.117
902	0.118
903	0.118
903	0.118
904	0.119
904	0.119
904	0.12
905	0.121
905	0.121
906	0.121
906	0.121
907	0.121
907	0.121
907	0.121
908	0.121
908	0.12
909	0.119
909	0.119
910	0.118
910	0.117
910	0.117
911	0.117
911	0.118
912	0.118
912	0.118
913	0.119
913	0.119
913	0.12
914	0.121
914	0.122
915	0.122
915	0.123
916	0.124
916	0.124
916	0.124
917	0.124
917	0.125
918	0.124
918	0.124
918	0.123
919	0.123
919	0.123
920	0.123
920	0.123
921	0.122
921	0.122
921	0.122
922	0.122
922	0.121
923	0.121
923	0.121
924	0.121
924	0.12
924	0.12
925	0.119
925	0.118
926	0.117
926	0.117
927	0.116
927	0.115
927	0.115
928	0.114
928	0.114
929	0.114
929	0.113
930	0.113
930	0.112
930	0.112
931	0.111
931	0.111
932	0.11
932	0.109
933	0.109
933	0.107
933	0.106
934	0.105
934	0.104
935	0.103
935	0.102
935	0.101
936	0.099
936	0.098
937	0.097
937	0.097
938	0.096
938	0.096
938	0.096
939	0.096
939	0.096
940	0.096
940	0.097
941	0.097
941	0.097
941	0.098
942	0.098
942	0.098
943	0.099
943	0.098
944	0.098
944	0.098
944	0.097
945	0.097
945	0.095
946	0.094
946	0.092
946	0.091
947	0.09
947	0.089
948	0.089
948	0.089
949	0.088
949	0.088
949	0.088
950	0.089
950	0.089
951	0.09
951	0.091
952	0.091
952	0.093
952	0.093
953	0.094
953	0.095
954	0.096
954	0.096
955	0.097
955	0.099
955	0.099
956	0.1
956	0.101
957	0.1
957	0.101
957	0.101
958	0.102
958	0.102
959	0.103
959	0.103
960	0.104
960	0.104
960	0.104
961	0.105
961	0.105
962	0.106
962	0.106
963	0.106
963	0.106
963	0.106
964	0.105
964	0.105
965	0.105
965	0.105
966	0.104
966	0.104
966	0.103
967	0.103
967	0.102
968	0.101
968	0.1
968	0.1
969	0.099
969	0.098
970	0.098
970	0.098
971	0.098
971	0.098
971	0.098
972	0.098
972	0.098
973	0.099
973	0.098
974	0.098
974	0.099
974	0.099
975	0.099
975	0.099
976	0.098
976	0.098
976	0.098
977	0.098
977	0.098
978	0.099
978	0.099
979	0.099
979	0.099
979	0.099
980	0.099
980	0.099
981	0.099
981	0.098
982	0.098
982	0.098
982	0.097
983	0.097
983	0.096
984	0.096
984	0.096
984	0.096
985	0.096
985	0.095
986	0.095
986	0.094
987	0.094
987	0.093
987	0.093
988	0.092
988	0.091
989	0.09
989	0.089
990	0.088
990	0.088
990	0.087
991	0.087
991	0.087
992	0.086
992	0.086
992	0.086
993	0.086
993	0.086
994	0.086
994	0.086
995	0.085
995	0.085
995	0.085
996	0.085
996	0.084
997	0.084
997	0.084
997	0.084
998	0.084
998	0.084
999	0.084
999	0.085
1000	0.085
1000	0.085
1000	0.085
1001	0.086
1001	0.086
1002	0.086
1002	0.086
1003	0.086
1003	0.086
1003	0.086
1004	0.085
1004	0.085
1005	0.084
1005	0.083
1005	0.082
1006	0.081
1006	0.08
1007	0.078
1007	0.077
1008	0.076
1008	0.076
1008	0.075
1009	0.075
1009	0.075
1010	0.075
1010	0.075
1010	0.075
1011	0.075
1011	0.075
1012	0.075
1012	0.075
1013	0.075
1013	0.074
1013	0.073
1014	0.072
1014	0.071
1015	0.071
1015	0.07
1016	0.069
1016	0.068
1016	0.067
1017	0.066
1017	0.065
1018	0.064
1018	0.063
1018	0.062
1019	0.061
1019	0.06
1020	0.059
1020	0.059
1021	0.058
1021	0.057
1021	0.057
1022	0.056
1022	0.056
1023	0.055
1023	0.055
1023	0.055
1024	0.054
1024	0.054
1025	0.054
1025	0.054
1026	0.055
1026	0.055
1026	0.055
1027	0.055
1027	0.056
1028	0.056
1028	0.056
1028	0.056
1029	0.056
1029	0.056
1030	0.055
1030	0.055
1031	0.054
1031	0.054
1031	0.054
1032	0.054
1032	0.053
1033	0.053
1033	0.054
1033	0.054
1034	0.054
1034	0.054
1035	0.054
1035	0.054
1036	0.054
1036	0.054
1036	0.054
1037	0.054
1037	0.054
1038	0.054
1038	0.054
1039	0.054
1039	0.054
1039	0.055
1040	0.055
1040	0.056
1041	0.057
1041	0.057
1041	0.057
1042	0.058
1042	0.057
1043	0.057
1043	0.057
1044	0.056
1044	0.055
1044	0.055
1045	0.054
1045	0.053
1046	0.052
1046	0.051
1046	0.051
1047	0.051
1047	0.051
1048	0.051
1048	0.051
1049	0.051
1049	0.051
1049	0.051
1050	0.052
1050	0.052
1051	0.052
1051	0.053
1051	0.054
1052	0.054
1052	0.054
1053	0.054
1053	0.054
1053	0.054
1054	0.054
1054	0.054
1055	0.054
1055	0.054
1056	0.053
1056	0.052
1056	0.051
1057	0.05
1057	0.049
1058	0.049
1058	0.048
1058	0.048
1059	0.047
1059	0.046
1060	0.045
1060	0.044
1061	0.044
1061	0.044
1061	0.044
1062	0.043
1062	0.043
1063	0.043
1063	0.043
1063	0.043
1064	0.043
1064	0.043
1065	0.043
1065	0.043
1066	0.043
1066	0.043
1066	0.042
1067	0.043
1067	0.042
1068	0.042
1068	0.041
1068	0.04
1069	0.04
1069	0.039
1070	0.039
1070	0.038
1071	0.038
1071	0.038
1071	0.037
1072	0.036
1072	0.036
1073	0.035
1073	0.036
1073	0.035
1074	0.035
1074	0.036
1075	0.035
1075	0.035
1076	0.035
1076	0.035
1076	0.034
1077	0.034
1077	0.033
1078	0.032
1078	0.032
1078	0.031
1079	0.03
1079	0.03
1080	0.029
1080	0.028
1080	0.027
1081	0.026
1081	0.026
1082	0.025
1082	0.024
1083	0.023
1083	0.022
1083	0.02
1084	0.02
1084	0.019
1085	0.018
1085	0.018
1085	0.017
1086	0.016
1086	0.015
1087	0.015
1087	0.015
1088	0.014
1088	0.014
1088	0.013
1089	0.011
1089	0.01
1090	0.009
1090	0.008
1090	0.007
1091	0.006
1091	0.006
1092	0.005
1092	0.004
1092	0.003
1093	0.002
1093	0.002
1094	0.002
1094	0.001
1095	0
1095	-0
1095	-0.001
1096	-0.002
1096	-0.003
1097	-0.004
1097	-0.005
1097	-0.006
1098	-0.007
1098	-0.009
1099	-0.01
1099	-0.011
1100	-0.013
1100	-0.014
1100	-0.017
1101	-0.02
1101	-0.022
1102	-0.024
1102	-0.026
1102	-0.028
1103	-0.03
1103	-0.034
1104	-0.037
1104	-0.039
1104	-0.041
1105	-0.044
1105	-0.047
1106	-0.052
1106	-0.055
1107	-0.06
1107	-0.064
1107	-0.069
1108	-0.071
1108	-0.073
1109	-0.076
1109	-0.082
1109	-0.086
1110	-0.086
1110	-0.089
1111	-0.094
1111	-0.094
