Data from 17C_3.1A_35min_2sec_int_Absorbance__726__03129.txt Node

Date: Mon Jun 19 18:45:04 CEST 2023
User: Marek
Spectrometer: MAYP115816
Trigger mode: 0
Integration Time (sec): 2.500000E-1
Scans to average: 10
Electric dark correction enabled: true
Nonlinearity correction enabled: true
Boxcar width: 5
XAxis mode: Wavelengths
Number of Pixels in Spectrum: 2068
>>>>>Begin Spectral Data<<<<<
199	-0.725
199	-0.742
200	-0.647
200	-0.598
201	-0.563
201	-0.549
202	-0.535
202	-0.523
203	-0.514
203	-0.508
204	-0.496
204	-0.483
205	-0.461
205	-0.458
205	-0.455
206	-0.458
206	-0.459
207	-0.448
207	-0.45
208	-0.452
208	-0.451
209	-0.446
209	-0.447
210	-0.449
210	-0.453
211	-0.455
211	-0.456
212	-0.461
212	-0.469
213	-0.466
213	-0.466
213	-0.472
214	-0.469
214	-0.468
215	-0.467
215	-0.473
216	-0.476
216	-0.483
217	-0.478
217	-0.483
218	-0.487
218	-0.487
219	-0.49
219	-0.5
220	-0.504
220	-0.515
221	-0.514
221	-0.518
221	-0.511
222	-0.506
222	-0.507
223	-0.509
223	-0.513
224	-0.516
224	-0.515
225	-0.511
225	-0.506
226	-0.51
226	-0.51
227	-0.515
227	-0.526
228	-0.525
228	-0.527
229	-0.526
229	-0.521
229	-0.517
230	-0.52
230	-0.52
231	-0.516
231	-0.509
232	-0.503
232	-0.502
233	-0.496
233	-0.495
234	-0.497
234	-0.495
235	-0.497
235	-0.501
236	-0.502
236	-0.505
236	-0.51
237	-0.515
237	-0.515
238	-0.526
238	-0.524
239	-0.522
239	-0.532
240	-0.531
240	-0.528
241	-0.532
241	-0.532
242	-0.537
242	-0.533
243	-0.53
243	-0.529
243	-0.538
244	-0.538
244	-0.538
245	-0.553
245	-0.554
246	-0.558
246	-0.563
247	-0.566
247	-0.569
248	-0.574
248	-0.571
249	-0.573
249	-0.581
250	-0.578
250	-0.574
250	-0.575
251	-0.574
251	-0.573
252	-0.576
252	-0.568
253	-0.575
253	-0.586
254	-0.585
254	-0.585
255	-0.592
255	-0.587
256	-0.585
256	-0.596
257	-0.593
257	-0.591
258	-0.608
258	-0.605
258	-0.6
259	-0.598
259	-0.607
260	-0.605
260	-0.608
261	-0.62
261	-0.611
262	-0.607
262	-0.607
263	-0.596
263	-0.592
264	-0.591
264	-0.599
265	-0.594
265	-0.602
265	-0.606
266	-0.601
266	-0.599
267	-0.614
267	-0.621
268	-0.635
268	-0.643
269	-0.644
269	-0.637
270	-0.643
270	-0.646
271	-0.645
271	-0.651
272	-0.655
272	-0.648
272	-0.641
273	-0.639
273	-0.649
274	-0.654
274	-0.656
275	-0.656
275	-0.648
276	-0.655
276	-0.647
277	-0.653
277	-0.672
278	-0.685
278	-0.681
278	-0.673
279	-0.677
279	-0.691
280	-0.687
280	-0.691
281	-0.685
281	-0.693
282	-0.682
282	-0.68
283	-0.671
283	-0.673
284	-0.668
284	-0.655
285	-0.651
285	-0.651
285	-0.646
286	-0.652
286	-0.646
287	-0.644
287	-0.629
288	-0.622
288	-0.63
289	-0.641
289	-0.651
290	-0.637
290	-0.636
291	-0.633
291	-0.627
292	-0.629
292	-0.638
292	-0.642
293	-0.647
293	-0.637
294	-0.626
294	-0.615
295	-0.614
295	-0.61
296	-0.608
296	-0.606
297	-0.599
297	-0.584
298	-0.577
298	-0.585
298	-0.572
299	-0.565
299	-0.57
300	-0.567
300	-0.562
301	-0.556
301	-0.557
302	-0.567
302	-0.575
303	-0.561
303	-0.545
304	-0.548
304	-0.547
305	-0.547
305	-0.545
305	-0.543
306	-0.527
306	-0.521
307	-0.508
307	-0.508
308	-0.523
308	-0.523
309	-0.526
309	-0.516
310	-0.505
310	-0.501
311	-0.493
311	-0.504
311	-0.499
312	-0.493
312	-0.493
313	-0.477
313	-0.478
314	-0.474
314	-0.479
315	-0.479
315	-0.478
316	-0.474
316	-0.466
317	-0.459
317	-0.455
318	-0.443
318	-0.443
318	-0.438
319	-0.428
319	-0.424
320	-0.418
320	-0.42
321	-0.425
321	-0.423
322	-0.419
322	-0.413
323	-0.414
323	-0.407
324	-0.402
324	-0.393
324	-0.382
325	-0.375
325	-0.357
326	-0.342
326	-0.325
327	-0.31
327	-0.292
328	-0.266
328	-0.248
329	-0.224
329	-0.202
330	-0.178
330	-0.146
330	-0.122
331	-0.095
331	-0.069
332	-0.045
332	-0.024
333	-0.003
333	0.019
334	0.037
334	0.053
335	0.069
335	0.082
336	0.095
336	0.106
336	0.116
337	0.126
337	0.133
338	0.14
338	0.145
339	0.152
339	0.157
340	0.161
340	0.164
341	0.168
341	0.171
342	0.174
342	0.176
342	0.18
343	0.182
343	0.184
344	0.186
344	0.187
345	0.189
345	0.19
346	0.191
346	0.192
347	0.192
347	0.193
348	0.193
348	0.194
348	0.194
349	0.194
349	0.194
350	0.195
350	0.195
351	0.195
351	0.195
352	0.195
352	0.195
353	0.195
353	0.195
354	0.195
354	0.195
354	0.195
355	0.194
355	0.194
356	0.194
356	0.194
357	0.193
357	0.193
358	0.193
358	0.193
359	0.192
359	0.192
360	0.192
360	0.192
360	0.192
361	0.192
361	0.192
362	0.192
362	0.192
363	0.192
363	0.192
364	0.192
364	0.192
365	0.192
365	0.192
366	0.192
366	0.192
366	0.193
367	0.193
367	0.193
368	0.193
368	0.192
369	0.192
369	0.192
370	0.192
370	0.192
371	0.192
371	0.192
372	0.191
372	0.191
372	0.192
373	0.192
373	0.192
374	0.191
374	0.191
375	0.191
375	0.191
376	0.191
376	0.192
377	0.192
377	0.192
378	0.192
378	0.192
378	0.192
379	0.192
379	0.192
380	0.191
380	0.191
381	0.191
381	0.191
382	0.191
382	0.191
383	0.191
383	0.191
383	0.191
384	0.191
384	0.191
385	0.191
385	0.191
386	0.191
386	0.191
387	0.191
387	0.191
388	0.19
388	0.19
389	0.191
389	0.191
389	0.191
390	0.191
390	0.191
391	0.191
391	0.191
392	0.191
392	0.191
393	0.191
393	0.191
394	0.191
394	0.191
394	0.191
395	0.19
395	0.19
396	0.19
396	0.19
397	0.19
397	0.19
398	0.19
398	0.19
399	0.19
399	0.19
400	0.19
400	0.19
400	0.19
401	0.19
401	0.19
402	0.189
402	0.189
403	0.189
403	0.189
404	0.189
404	0.189
405	0.189
405	0.189
405	0.189
406	0.189
406	0.189
407	0.188
407	0.188
408	0.188
408	0.188
409	0.188
409	0.188
410	0.188
410	0.188
411	0.188
411	0.188
411	0.188
412	0.189
412	0.188
413	0.188
413	0.188
414	0.188
414	0.188
415	0.188
415	0.188
416	0.187
416	0.187
416	0.187
417	0.187
417	0.187
418	0.187
418	0.187
419	0.187
419	0.187
420	0.188
420	0.188
421	0.188
421	0.188
421	0.188
422	0.188
422	0.188
423	0.188
423	0.188
424	0.188
424	0.187
425	0.187
425	0.187
426	0.187
426	0.187
427	0.186
427	0.186
427	0.186
428	0.186
428	0.186
429	0.186
429	0.186
430	0.185
430	0.185
431	0.185
431	0.185
432	0.185
432	0.185
432	0.185
433	0.185
433	0.185
434	0.185
434	0.185
435	0.185
435	0.185
436	0.185
436	0.184
437	0.184
437	0.184
437	0.184
438	0.184
438	0.184
439	0.184
439	0.184
440	0.184
440	0.184
441	0.184
441	0.184
442	0.184
442	0.184
442	0.184
443	0.184
443	0.184
444	0.184
444	0.184
445	0.183
445	0.183
446	0.184
446	0.184
447	0.184
447	0.184
447	0.184
448	0.184
448	0.184
449	0.184
449	0.184
450	0.184
450	0.184
451	0.184
451	0.184
452	0.184
452	0.184
452	0.184
453	0.184
453	0.183
454	0.183
454	0.183
455	0.183
455	0.183
456	0.182
456	0.182
457	0.182
457	0.182
458	0.182
458	0.182
458	0.182
459	0.182
459	0.182
460	0.181
460	0.181
461	0.181
461	0.181
462	0.181
462	0.182
463	0.182
463	0.182
463	0.182
464	0.182
464	0.182
465	0.182
465	0.182
466	0.182
466	0.183
467	0.183
467	0.182
467	0.182
468	0.182
468	0.182
469	0.183
469	0.183
470	0.184
470	0.184
471	0.184
471	0.184
472	0.184
472	0.184
472	0.184
473	0.184
473	0.184
474	0.184
474	0.184
475	0.184
475	0.183
476	0.184
476	0.183
477	0.183
477	0.183
477	0.183
478	0.183
478	0.183
479	0.183
479	0.183
480	0.183
480	0.184
481	0.184
481	0.184
482	0.185
482	0.185
482	0.185
483	0.186
483	0.186
484	0.186
484	0.186
485	0.186
485	0.186
486	0.186
486	0.186
487	0.186
487	0.186
487	0.187
488	0.187
488	0.187
489	0.188
489	0.189
490	0.19
490	0.19
491	0.191
491	0.191
492	0.192
492	0.192
492	0.193
493	0.193
493	0.194
494	0.195
494	0.195
495	0.195
495	0.196
496	0.196
496	0.197
496	0.198
497	0.199
497	0.199
498	0.2
498	0.201
499	0.202
499	0.202
500	0.203
500	0.204
501	0.204
501	0.205
501	0.205
502	0.205
502	0.206
503	0.207
503	0.208
504	0.208
504	0.209
505	0.21
505	0.211
506	0.212
506	0.212
506	0.213
507	0.214
507	0.214
508	0.215
508	0.216
509	0.217
509	0.218
510	0.219
510	0.22
511	0.221
511	0.222
511	0.223
512	0.224
512	0.224
513	0.225
513	0.226
514	0.226
514	0.227
515	0.228
515	0.229
515	0.229
516	0.23
516	0.231
517	0.232
517	0.233
518	0.233
518	0.234
519	0.234
519	0.235
520	0.236
520	0.237
520	0.238
521	0.239
521	0.24
522	0.241
522	0.242
523	0.243
523	0.244
524	0.245
524	0.246
524	0.246
525	0.246
525	0.247
526	0.247
526	0.248
527	0.248
527	0.249
528	0.249
528	0.25
529	0.251
529	0.252
529	0.253
530	0.254
530	0.254
531	0.255
531	0.255
532	0.256
532	0.257
533	0.257
533	0.258
533	0.258
534	0.258
534	0.258
535	0.258
535	0.259
536	0.259
536	0.258
537	0.258
537	0.258
538	0.259
538	0.259
538	0.26
539	0.26
539	0.261
540	0.261
540	0.261
541	0.262
541	0.263
542	0.263
542	0.264
542	0.264
543	0.264
543	0.264
544	0.264
544	0.264
545	0.265
545	0.265
546	0.266
546	0.266
547	0.266
547	0.266
547	0.266
548	0.267
548	0.267
549	0.267
549	0.268
550	0.268
550	0.268
551	0.269
551	0.27
551	0.271
552	0.272
552	0.272
553	0.273
553	0.274
554	0.274
554	0.274
555	0.274
555	0.274
556	0.275
556	0.275
556	0.275
557	0.275
557	0.275
558	0.275
558	0.275
559	0.274
559	0.274
560	0.274
560	0.274
560	0.274
561	0.274
561	0.274
562	0.274
562	0.273
563	0.273
563	0.273
564	0.274
564	0.274
564	0.275
565	0.276
565	0.276
566	0.276
566	0.277
567	0.277
567	0.277
568	0.278
568	0.277
568	0.277
569	0.278
569	0.277
570	0.276
570	0.275
571	0.276
571	0.276
572	0.275
572	0.275
573	0.275
573	0.274
573	0.274
574	0.274
574	0.274
575	0.274
575	0.276
576	0.276
576	0.275
577	0.276
577	0.276
577	0.277
578	0.278
578	0.279
579	0.28
579	0.28
580	0.28
580	0.279
581	0.278
581	0.279
581	0.279
582	0.279
582	0.279
583	0.28
583	0.279
584	0.278
584	0.277
585	0.277
585	0.278
585	0.278
586	0.279
586	0.279
587	0.278
587	0.278
588	0.278
588	0.278
589	0.279
589	0.28
590	0.28
590	0.28
590	0.282
591	0.282
591	0.282
592	0.282
592	0.282
593	0.282
593	0.282
594	0.282
594	0.281
594	0.281
595	0.282
595	0.282
596	0.282
596	0.283
597	0.285
597	0.284
598	0.284
598	0.285
598	0.285
599	0.284
599	0.283
600	0.283
600	0.282
601	0.282
601	0.281
602	0.28
602	0.28
602	0.28
603	0.281
603	0.282
604	0.283
604	0.284
605	0.284
605	0.285
606	0.285
606	0.284
606	0.284
607	0.284
607	0.284
608	0.284
608	0.283
609	0.283
609	0.283
610	0.283
610	0.283
610	0.284
611	0.285
611	0.286
612	0.288
612	0.288
613	0.289
613	0.289
614	0.288
614	0.287
614	0.287
615	0.286
615	0.285
616	0.285
616	0.284
617	0.283
617	0.282
618	0.281
618	0.281
618	0.281
619	0.281
619	0.282
620	0.282
620	0.282
621	0.281
621	0.281
622	0.281
622	0.281
622	0.281
623	0.281
623	0.281
624	0.281
624	0.28
625	0.279
625	0.279
626	0.279
626	0.278
626	0.278
627	0.278
627	0.277
628	0.276
628	0.275
629	0.274
629	0.272
630	0.271
630	0.269
630	0.268
631	0.266
631	0.264
632	0.262
632	0.26
633	0.258
633	0.256
634	0.254
634	0.251
634	0.249
635	0.246
635	0.243
636	0.24
636	0.237
637	0.234
637	0.23
638	0.226
638	0.222
638	0.218
639	0.214
639	0.209
640	0.204
640	0.199
641	0.195
641	0.19
642	0.185
642	0.18
642	0.175
643	0.17
643	0.164
644	0.157
644	0.151
645	0.144
645	0.138
646	0.132
646	0.125
646	0.117
647	0.11
647	0.103
648	0.095
648	0.088
649	0.08
649	0.072
650	0.065
650	0.056
650	0.047
651	0.037
651	0.023
652	0.008
652	-0.008
653	-0.021
653	-0.033
653	-0.03
654	-0.01
654	-0
655	-0.004
655	-0.01
656	-0.015
656	-0.022
657	-0.027
657	-0.031
657	-0.037
658	-0.044
658	-0.074
659	-0.16
659	-0.26
660	-0.305
660	-0.331
661	-0.359
661	-0.39
661	-0.423
662	-0.456
662	-0.491
663	-0.531
663	-0.573
664	-0.616
664	-0.668
665	-0.718
665	-0.777
665	-0.833
666	-0.889
666	-0.949
667	-1.013
667	-1.077
668	-1.148
668	-1.221
669	-1.294
669	-1.367
669	-1.445
670	-1.512
670	-1.546
671	-1.702
671	-1.977
672	-2.204
672	-2.395
672	-2.524
673	-2.616
673	-2.696
674	-2.737
674	-2.755
675	-2.78
675	-2.92
676	-3.113
676	-3.064
676	-2.839
677	-2.634
677	-2.469
678	-2.288
678	-1.975
679	-1.693
679	-1.558
680	-1.465
680	-1.383
680	-1.314
681	-1.27
681	-1.212
682	-1.174
682	-1.137
683	-1.103
683	-1.088
684	-1.069
684	-1.05
684	-1.029
685	-1.005
685	-0.983
686	-0.96
686	-0.945
687	-0.92
687	-0.91
687	-0.89
688	-0.865
688	-0.844
689	-0.825
689	-0.812
690	-0.793
690	-0.783
691	-0.777
691	-0.784
691	-0.801
692	-0.794
692	-0.784
693	-0.781
693	-0.788
694	-0.782
694	-0.777
695	-0.783
695	-0.78
695	-0.764
696	-0.76
696	-0.736
697	-0.736
697	-0.753
698	-0.756
698	-0.747
698	-0.765
699	-0.767
699	-0.762
700	-0.755
700	-0.768
701	-0.766
701	-0.774
702	-0.775
702	-0.762
702	-0.755
703	-0.747
703	-0.737
704	-0.733
704	-0.732
705	-0.742
705	-0.736
705	-0.727
706	-0.726
706	-0.723
707	-0.727
707	-0.722
708	-0.721
708	-0.716
709	-0.719
709	-0.724
709	-0.717
710	-0.727
710	-0.735
711	-0.727
711	-0.727
712	-0.726
712	-0.74
713	-0.738
713	-0.743
713	-0.733
714	-0.728
714	-0.73
715	-0.72
715	-0.706
716	-0.713
716	-0.715
716	-0.709
717	-0.708
717	-0.711
718	-0.703
718	-0.703
719	-0.708
719	-0.709
720	-0.704
720	-0.716
720	-0.711
721	-0.699
721	-0.698
722	-0.685
722	-0.674
723	-0.672
723	-0.676
723	-0.665
724	-0.667
724	-0.673
725	-0.668
725	-0.678
726	-0.69
726	-0.697
727	-0.704
727	-0.718
727	-0.727
728	-0.726
728	-0.73
729	-0.728
729	-0.732
730	-0.738
730	-0.729
730	-0.719
731	-0.699
731	-0.71
732	-0.715
732	-0.715
733	-0.715
733	-0.719
734	-0.715
734	-0.716
734	-0.704
735	-0.704
735	-0.706
736	-0.719
736	-0.704
737	-0.696
737	-0.696
737	-0.707
738	-0.704
738	-0.704
739	-0.702
739	-0.714
740	-0.712
740	-0.712
741	-0.708
741	-0.708
741	-0.712
742	-0.709
742	-0.71
743	-0.716
743	-0.721
744	-0.716
744	-0.707
744	-0.709
745	-0.713
745	-0.706
746	-0.705
746	-0.702
747	-0.705
747	-0.691
748	-0.679
748	-0.685
748	-0.688
749	-0.687
749	-0.689
750	-0.678
750	-0.679
751	-0.685
751	-0.693
751	-0.695
752	-0.7
752	-0.71
753	-0.705
753	-0.7
754	-0.705
754	-0.698
754	-0.711
755	-0.727
755	-0.736
756	-0.725
756	-0.723
757	-0.72
757	-0.715
758	-0.719
758	-0.717
758	-0.719
759	-0.727
759	-0.712
760	-0.705
760	-0.701
761	-0.712
761	-0.71
761	-0.71
762	-0.718
762	-0.715
763	-0.724
763	-0.721
764	-0.718
764	-0.727
764	-0.731
765	-0.723
765	-0.709
766	-0.714
766	-0.72
767	-0.736
767	-0.73
768	-0.722
768	-0.732
768	-0.738
769	-0.755
769	-0.756
770	-0.762
770	-0.775
771	-0.774
771	-0.777
771	-0.776
772	-0.779
772	-0.779
773	-0.777
773	-0.773
774	-0.772
774	-0.771
775	-0.773
775	-0.77
775	-0.777
776	-0.775
776	-0.766
777	-0.774
777	-0.793
778	-0.79
778	-0.81
778	-0.796
779	-0.82
779	-0.828
780	-0.84
780	-0.838
781	-0.853
781	-0.849
781	-0.866
782	-0.866
782	-0.868
783	-0.853
783	-0.855
784	-0.835
784	-0.823
784	-0.832
785	-0.839
785	-0.822
786	-0.826
786	-0.805
787	-0.791
787	-0.792
788	-0.796
788	-0.805
788	-0.818
789	-0.818
789	-0.799
790	-0.778
790	-0.781
791	-0.781
791	-0.796
791	-0.803
792	-0.797
792	-0.771
793	-0.761
793	-0.736
794	-0.741
794	-0.735
794	-0.747
795	-0.742
795	-0.735
796	-0.718
796	-0.725
797	-0.721
797	-0.736
797	-0.739
798	-0.752
798	-0.745
799	-0.754
799	-0.738
800	-0.746
800	-0.741
801	-0.747
801	-0.731
801	-0.741
802	-0.748
802	-0.749
803	-0.749
803	-0.76
804	-0.755
804	-0.765
804	-0.753
805	-0.756
805	-0.744
806	-0.745
806	-0.731
807	-0.73
807	-0.712
807	-0.699
808	-0.689
808	-0.684
809	-0.669
809	-0.675
810	-0.675
810	-0.669
810	-0.666
811	-0.672
811	-0.664
812	-0.666
812	-0.67
813	-0.675
813	-0.67
813	-0.677
814	-0.681
814	-0.686
815	-0.689
815	-0.694
816	-0.687
816	-0.69
817	-0.7
817	-0.718
817	-0.731
818	-0.738
818	-0.74
819	-0.729
819	-0.728
820	-0.739
820	-0.734
820	-0.743
821	-0.741
821	-0.727
822	-0.695
822	-0.672
823	-0.669
823	-0.672
823	-0.67
824	-0.664
824	-0.666
825	-0.658
825	-0.641
826	-0.637
826	-0.644
826	-0.654
827	-0.65
827	-0.647
828	-0.628
828	-0.628
829	-0.618
829	-0.604
829	-0.595
830	-0.602
830	-0.598
831	-0.589
831	-0.577
832	-0.576
832	-0.567
832	-0.573
833	-0.569
833	-0.571
834	-0.568
834	-0.58
835	-0.567
835	-0.562
835	-0.561
836	-0.558
836	-0.554
837	-0.551
837	-0.541
838	-0.53
838	-0.518
839	-0.505
839	-0.492
839	-0.481
840	-0.47
840	-0.466
841	-0.456
841	-0.446
842	-0.439
842	-0.43
842	-0.424
843	-0.417
843	-0.412
844	-0.4
844	-0.394
845	-0.385
845	-0.374
845	-0.359
846	-0.349
846	-0.334
847	-0.322
847	-0.31
848	-0.298
848	-0.287
848	-0.271
849	-0.26
849	-0.248
850	-0.232
850	-0.226
851	-0.215
851	-0.203
851	-0.194
852	-0.178
852	-0.164
853	-0.155
853	-0.148
854	-0.133
854	-0.121
854	-0.111
855	-0.098
855	-0.091
856	-0.079
856	-0.071
857	-0.064
857	-0.054
857	-0.041
858	-0.03
858	-0.024
859	-0.015
859	-0.003
860	0.007
860	0.021
860	0.03
861	0.04
861	0.049
862	0.057
862	0.064
863	0.072
863	0.081
863	0.088
864	0.093
864	0.099
865	0.105
865	0.11
866	0.114
866	0.118
866	0.122
867	0.126
867	0.13
868	0.132
868	0.136
869	0.14
869	0.143
869	0.145
870	0.148
870	0.15
871	0.153
871	0.155
872	0.156
872	0.157
872	0.158
873	0.158
873	0.158
874	0.158
874	0.157
875	0.156
875	0.155
875	0.153
876	0.152
876	0.15
877	0.148
877	0.147
878	0.144
878	0.143
878	0.141
879	0.139
879	0.138
880	0.137
880	0.137
881	0.136
881	0.136
881	0.136
882	0.135
882	0.135
883	0.133
883	0.132
884	0.132
884	0.131
884	0.131
885	0.13
885	0.13
886	0.13
886	0.129
887	0.129
887	0.129
887	0.129
888	0.13
888	0.129
889	0.13
889	0.13
890	0.129
890	0.129
890	0.129
891	0.129
891	0.129
892	0.129
892	0.129
893	0.129
893	0.129
893	0.129
894	0.129
894	0.129
895	0.128
895	0.128
895	0.128
896	0.126
896	0.125
897	0.124
897	0.123
898	0.122
898	0.121
898	0.12
899	0.12
899	0.12
900	0.12
900	0.12
901	0.121
901	0.122
901	0.122
902	0.123
902	0.124
903	0.125
903	0.125
904	0.126
904	0.126
904	0.127
905	0.128
905	0.129
906	0.129
906	0.129
907	0.129
907	0.129
907	0.13
908	0.129
908	0.129
909	0.129
909	0.128
910	0.128
910	0.128
910	0.128
911	0.128
911	0.128
912	0.128
912	0.128
913	0.128
913	0.129
913	0.129
914	0.13
914	0.13
915	0.13
915	0.13
916	0.13
916	0.13
916	0.13
917	0.13
917	0.13
918	0.129
918	0.129
918	0.128
919	0.128
919	0.127
920	0.127
920	0.127
921	0.127
921	0.126
921	0.126
922	0.126
922	0.125
923	0.125
923	0.125
924	0.124
924	0.124
924	0.123
925	0.123
925	0.122
926	0.121
926	0.12
927	0.12
927	0.119
927	0.119
928	0.119
928	0.118
929	0.118
929	0.118
930	0.118
930	0.118
930	0.117
931	0.117
931	0.117
932	0.117
932	0.116
933	0.116
933	0.115
933	0.113
934	0.112
934	0.111
935	0.11
935	0.109
935	0.108
936	0.107
936	0.105
937	0.105
937	0.104
938	0.104
938	0.104
938	0.104
939	0.105
939	0.105
940	0.106
940	0.106
941	0.107
941	0.107
941	0.108
942	0.108
942	0.109
943	0.109
943	0.109
944	0.109
944	0.109
944	0.108
945	0.107
945	0.106
946	0.105
946	0.103
946	0.102
947	0.1
947	0.099
948	0.098
948	0.098
949	0.097
949	0.097
949	0.097
950	0.097
950	0.097
951	0.098
951	0.099
952	0.099
952	0.1
952	0.1
953	0.1
953	0.101
954	0.101
954	0.102
955	0.103
955	0.104
955	0.105
956	0.105
956	0.106
957	0.105
957	0.105
957	0.106
958	0.107
958	0.108
959	0.108
959	0.109
960	0.11
960	0.11
960	0.111
961	0.112
961	0.112
962	0.113
962	0.113
963	0.113
963	0.113
963	0.113
964	0.112
964	0.112
965	0.112
965	0.112
966	0.112
966	0.111
966	0.111
967	0.111
967	0.11
968	0.109
968	0.109
968	0.108
969	0.108
969	0.107
970	0.107
970	0.107
971	0.107
971	0.107
971	0.107
972	0.107
972	0.107
973	0.108
973	0.107
974	0.107
974	0.107
974	0.108
975	0.107
975	0.107
976	0.107
976	0.107
976	0.107
977	0.107
977	0.107
978	0.107
978	0.107
979	0.107
979	0.106
979	0.106
980	0.106
980	0.106
981	0.106
981	0.105
982	0.105
982	0.105
982	0.105
983	0.105
983	0.105
984	0.105
984	0.105
984	0.105
985	0.106
985	0.106
986	0.106
986	0.105
987	0.105
987	0.105
987	0.105
988	0.104
988	0.104
989	0.103
989	0.102
990	0.101
990	0.1
990	0.1
991	0.099
991	0.099
992	0.098
992	0.098
992	0.098
993	0.098
993	0.097
994	0.097
994	0.097
995	0.097
995	0.097
995	0.097
996	0.096
996	0.095
997	0.095
997	0.095
997	0.095
998	0.095
998	0.095
999	0.095
999	0.095
1000	0.095
1000	0.094
1000	0.094
1001	0.095
1001	0.095
1002	0.094
1002	0.094
1003	0.094
1003	0.093
1003	0.093
1004	0.092
1004	0.091
1005	0.09
1005	0.089
1005	0.087
1006	0.086
1006	0.084
1007	0.083
1007	0.082
1008	0.081
1008	0.081
1008	0.08
1009	0.08
1009	0.08
1010	0.081
1010	0.081
1010	0.081
1011	0.081
1011	0.081
1012	0.081
1012	0.081
1013	0.08
1013	0.079
1013	0.078
1014	0.077
1014	0.076
1015	0.075
1015	0.075
1016	0.073
1016	0.073
1016	0.072
1017	0.071
1017	0.07
1018	0.07
1018	0.069
1018	0.069
1019	0.068
1019	0.067
1020	0.067
1020	0.066
1021	0.065
1021	0.065
1021	0.064
1022	0.063
1022	0.062
1023	0.062
1023	0.061
1023	0.061
1024	0.061
1024	0.061
1025	0.061
1025	0.061
1026	0.062
1026	0.062
1026	0.063
1027	0.063
1027	0.064
1028	0.064
1028	0.064
1028	0.064
1029	0.064
1029	0.064
1030	0.063
1030	0.063
1031	0.062
1031	0.062
1031	0.062
1032	0.061
1032	0.061
1033	0.061
1033	0.061
1033	0.061
1034	0.061
1034	0.061
1035	0.061
1035	0.061
1036	0.061
1036	0.061
1036	0.061
1037	0.061
1037	0.061
1038	0.061
1038	0.061
1039	0.061
1039	0.062
1039	0.062
1040	0.063
1040	0.063
1041	0.064
1041	0.064
1041	0.065
1042	0.065
1042	0.065
1043	0.065
1043	0.064
1044	0.064
1044	0.063
1044	0.063
1045	0.062
1045	0.062
1046	0.061
1046	0.061
1046	0.061
1047	0.061
1047	0.061
1048	0.062
1048	0.062
1049	0.062
1049	0.062
1049	0.063
1050	0.063
1050	0.064
1051	0.064
1051	0.064
1051	0.064
1052	0.065
1052	0.064
1053	0.064
1053	0.064
1053	0.064
1054	0.063
1054	0.063
1055	0.062
1055	0.062
1056	0.061
1056	0.06
1056	0.059
1057	0.058
1057	0.057
1058	0.056
1058	0.056
1058	0.055
1059	0.055
1059	0.053
1060	0.053
1060	0.052
1061	0.052
1061	0.052
1061	0.052
1062	0.052
1062	0.051
1063	0.051
1063	0.051
1063	0.052
1064	0.052
1064	0.053
1065	0.052
1065	0.052
1066	0.051
1066	0.051
1066	0.051
1067	0.051
1067	0.05
1068	0.049
1068	0.049
1068	0.048
1069	0.047
1069	0.047
1070	0.046
1070	0.046
1071	0.046
1071	0.046
1071	0.045
1072	0.045
1072	0.045
1073	0.044
1073	0.044
1073	0.044
1074	0.045
1074	0.045
1075	0.044
1075	0.044
1076	0.044
1076	0.044
1076	0.043
1077	0.042
1077	0.042
1078	0.041
1078	0.04
1078	0.039
1079	0.038
1079	0.038
1080	0.037
1080	0.036
1080	0.035
1081	0.034
1081	0.034
1082	0.033
1082	0.032
1083	0.032
1083	0.03
1083	0.029
1084	0.029
1084	0.028
1085	0.027
1085	0.026
1085	0.026
1086	0.025
1086	0.024
1087	0.024
1087	0.024
1088	0.023
1088	0.023
1088	0.022
1089	0.021
1089	0.02
1090	0.019
1090	0.018
1090	0.017
1091	0.016
1091	0.016
1092	0.014
1092	0.015
1092	0.013
1093	0.013
1093	0.013
1094	0.013
1094	0.012
1095	0.01
1095	0.01
1095	0.011
1096	0.009
1096	0.008
1097	0.007
1097	0.006
1097	0.006
1098	0.003
1098	0.001
1099	0.001
1099	0
1100	-0.002
1100	-0.004
1100	-0.006
1101	-0.009
1101	-0.012
1102	-0.014
1102	-0.018
1102	-0.018
1103	-0.021
1103	-0.023
1104	-0.025
1104	-0.028
1104	-0.029
1105	-0.031
1105	-0.034
1106	-0.038
1106	-0.039
1107	-0.044
1107	-0.048
1107	-0.054
1108	-0.056
1108	-0.059
1109	-0.062
1109	-0.067
1109	-0.072
1110	-0.072
1110	-0.076
1111	-0.086
1111	-0.089
