Data from 15c-2-2a_Absorbance__2041__03842.txt Node

Date: Wed Jan 24 14:11:54 CET 2024
User: Marek
Spectrometer: MAYP115816
Trigger mode: 0
Integration Time (sec): 2.000000E-1
Scans to average: 10
Electric dark correction enabled: true
Nonlinearity correction enabled: true
Boxcar width: 5
XAxis mode: Wavelengths
Number of Pixels in Spectrum: 2068
>>>>>Begin Spectral Data<<<<<
199	-1.819
199	-1.658
200	-1.498
200	-1.374
201	-1.3
201	-1.247
202	-1.175
202	-1.117
203	-1.067
203	-1.025
204	-0.996
204	-0.97
205	-0.948
205	-0.939
205	-0.937
206	-0.933
206	-0.932
207	-0.928
207	-0.925
208	-0.924
208	-0.923
209	-0.92
209	-0.92
210	-0.92
210	-0.918
211	-0.917
211	-0.916
212	-0.914
212	-0.912
213	-0.909
213	-0.907
213	-0.904
214	-0.902
214	-0.899
215	-0.898
215	-0.894
216	-0.893
216	-0.89
217	-0.888
217	-0.888
218	-0.889
218	-0.887
219	-0.886
219	-0.883
220	-0.881
220	-0.879
221	-0.879
221	-0.876
221	-0.871
222	-0.865
222	-0.858
223	-0.852
223	-0.846
224	-0.837
224	-0.829
225	-0.82
225	-0.81
226	-0.799
226	-0.787
227	-0.775
227	-0.762
228	-0.744
228	-0.726
229	-0.704
229	-0.681
229	-0.654
230	-0.623
230	-0.59
231	-0.554
231	-0.515
232	-0.474
232	-0.431
233	-0.388
233	-0.343
234	-0.298
234	-0.252
235	-0.207
235	-0.163
236	-0.121
236	-0.08
236	-0.041
237	-0.003
237	0.032
238	0.065
238	0.096
239	0.125
239	0.152
240	0.176
240	0.198
241	0.218
241	0.236
242	0.253
242	0.268
243	0.282
243	0.294
243	0.306
244	0.316
244	0.326
245	0.333
245	0.341
246	0.349
246	0.356
247	0.362
247	0.368
248	0.373
248	0.379
249	0.383
249	0.388
250	0.392
250	0.397
250	0.401
251	0.404
251	0.408
252	0.411
252	0.414
253	0.417
253	0.419
254	0.422
254	0.425
255	0.426
255	0.428
256	0.43
256	0.431
257	0.433
257	0.434
258	0.435
258	0.436
258	0.437
259	0.438
259	0.438
260	0.439
260	0.439
261	0.439
261	0.439
262	0.44
262	0.439
263	0.44
263	0.439
264	0.439
264	0.439
265	0.438
265	0.438
265	0.437
266	0.436
266	0.435
267	0.434
267	0.433
268	0.432
268	0.431
269	0.43
269	0.428
270	0.426
270	0.425
271	0.423
271	0.422
272	0.42
272	0.418
272	0.416
273	0.415
273	0.413
274	0.411
274	0.409
275	0.407
275	0.406
276	0.404
276	0.401
277	0.399
277	0.397
278	0.395
278	0.392
278	0.389
279	0.387
279	0.384
280	0.382
280	0.38
281	0.378
281	0.376
282	0.374
282	0.372
283	0.371
283	0.369
284	0.368
284	0.367
285	0.365
285	0.363
285	0.362
286	0.36
286	0.358
287	0.356
287	0.355
288	0.353
288	0.351
289	0.35
289	0.348
290	0.346
290	0.345
291	0.344
291	0.342
292	0.341
292	0.34
292	0.338
293	0.337
293	0.336
294	0.335
294	0.334
295	0.333
295	0.332
296	0.331
296	0.329
297	0.328
297	0.327
298	0.326
298	0.325
298	0.324
299	0.324
299	0.323
300	0.322
300	0.321
301	0.32
301	0.319
302	0.318
302	0.317
303	0.317
303	0.316
304	0.315
304	0.314
305	0.314
305	0.313
305	0.312
306	0.312
306	0.311
307	0.31
307	0.309
308	0.308
308	0.307
309	0.307
309	0.306
310	0.305
310	0.304
311	0.303
311	0.302
311	0.301
312	0.301
312	0.3
313	0.299
313	0.298
314	0.297
314	0.297
315	0.296
315	0.295
316	0.294
316	0.293
317	0.293
317	0.292
318	0.291
318	0.29
318	0.289
319	0.288
319	0.288
320	0.287
320	0.286
321	0.285
321	0.284
322	0.284
322	0.283
323	0.282
323	0.281
324	0.28
324	0.28
324	0.279
325	0.278
325	0.278
326	0.277
326	0.276
327	0.275
327	0.275
328	0.274
328	0.273
329	0.272
329	0.272
330	0.271
330	0.27
330	0.27
331	0.269
331	0.268
332	0.268
332	0.267
333	0.266
333	0.265
334	0.265
334	0.264
335	0.263
335	0.263
336	0.262
336	0.261
336	0.261
337	0.26
337	0.26
338	0.259
338	0.259
339	0.258
339	0.258
340	0.257
340	0.256
341	0.256
341	0.255
342	0.255
342	0.254
342	0.254
343	0.253
343	0.253
344	0.252
344	0.251
345	0.251
345	0.251
346	0.25
346	0.25
347	0.249
347	0.249
348	0.249
348	0.248
348	0.248
349	0.248
349	0.247
350	0.247
350	0.246
351	0.246
351	0.245
352	0.244
352	0.244
353	0.244
353	0.243
354	0.242
354	0.242
354	0.241
355	0.241
355	0.24
356	0.239
356	0.239
357	0.239
357	0.238
358	0.238
358	0.238
359	0.238
359	0.238
360	0.238
360	0.238
360	0.239
361	0.239
361	0.239
362	0.24
362	0.24
363	0.24
363	0.239
364	0.239
364	0.239
365	0.238
365	0.238
366	0.238
366	0.237
366	0.237
367	0.237
367	0.237
368	0.236
368	0.236
369	0.236
369	0.236
370	0.235
370	0.235
371	0.235
371	0.235
372	0.234
372	0.234
372	0.234
373	0.233
373	0.233
374	0.233
374	0.233
375	0.233
375	0.233
376	0.233
376	0.233
377	0.232
377	0.232
378	0.232
378	0.233
378	0.233
379	0.233
379	0.233
380	0.233
380	0.232
381	0.232
381	0.232
382	0.232
382	0.232
383	0.231
383	0.231
383	0.231
384	0.23
384	0.23
385	0.23
385	0.23
386	0.23
386	0.229
387	0.229
387	0.229
388	0.228
388	0.228
389	0.228
389	0.228
389	0.228
390	0.228
390	0.228
391	0.228
391	0.228
392	0.228
392	0.228
393	0.228
393	0.227
394	0.227
394	0.227
394	0.227
395	0.227
395	0.226
396	0.226
396	0.226
397	0.226
397	0.226
398	0.226
398	0.225
399	0.225
399	0.225
400	0.224
400	0.224
400	0.224
401	0.223
401	0.223
402	0.222
402	0.222
403	0.221
403	0.221
404	0.221
404	0.221
405	0.22
405	0.22
405	0.22
406	0.22
406	0.22
407	0.219
407	0.219
408	0.219
408	0.219
409	0.219
409	0.218
410	0.218
410	0.218
411	0.218
411	0.218
411	0.218
412	0.218
412	0.217
413	0.217
413	0.217
414	0.217
414	0.216
415	0.216
415	0.216
416	0.215
416	0.215
416	0.214
417	0.214
417	0.214
418	0.214
418	0.214
419	0.214
419	0.214
420	0.214
420	0.215
421	0.215
421	0.215
421	0.215
422	0.215
422	0.215
423	0.215
423	0.215
424	0.215
424	0.214
425	0.213
425	0.213
426	0.212
426	0.212
427	0.212
427	0.212
427	0.212
428	0.212
428	0.212
429	0.213
429	0.213
430	0.213
430	0.213
431	0.213
431	0.213
432	0.212
432	0.212
432	0.212
433	0.211
433	0.211
434	0.21
434	0.21
435	0.21
435	0.21
436	0.21
436	0.21
437	0.21
437	0.209
437	0.209
438	0.209
438	0.209
439	0.209
439	0.208
440	0.208
440	0.208
441	0.208
441	0.208
442	0.208
442	0.209
442	0.209
443	0.209
443	0.209
444	0.209
444	0.21
445	0.21
445	0.21
446	0.21
446	0.21
447	0.21
447	0.21
447	0.21
448	0.209
448	0.209
449	0.209
449	0.209
450	0.209
450	0.208
451	0.208
451	0.208
452	0.208
452	0.207
452	0.207
453	0.207
453	0.206
454	0.206
454	0.205
455	0.205
455	0.205
456	0.204
456	0.204
457	0.204
457	0.204
458	0.204
458	0.204
458	0.204
459	0.204
459	0.205
460	0.205
460	0.204
461	0.204
461	0.205
462	0.205
462	0.205
463	0.205
463	0.206
463	0.206
464	0.206
464	0.206
465	0.206
465	0.206
466	0.207
466	0.207
467	0.207
467	0.207
467	0.206
468	0.206
468	0.205
469	0.204
469	0.204
470	0.204
470	0.204
471	0.204
471	0.204
472	0.205
472	0.205
472	0.206
473	0.207
473	0.207
474	0.208
474	0.209
475	0.209
475	0.21
476	0.21
476	0.21
477	0.211
477	0.211
477	0.212
478	0.212
478	0.213
479	0.213
479	0.214
480	0.216
480	0.217
481	0.218
481	0.219
482	0.219
482	0.221
482	0.222
483	0.223
483	0.225
484	0.227
484	0.228
485	0.23
485	0.231
486	0.232
486	0.233
487	0.233
487	0.234
487	0.235
488	0.235
488	0.235
489	0.235
489	0.235
490	0.236
490	0.236
491	0.237
491	0.238
492	0.239
492	0.24
492	0.242
493	0.243
493	0.244
494	0.246
494	0.248
495	0.25
495	0.251
496	0.253
496	0.254
496	0.256
497	0.257
497	0.258
498	0.26
498	0.261
499	0.262
499	0.263
500	0.264
500	0.267
501	0.268
501	0.27
501	0.272
502	0.274
502	0.275
503	0.277
503	0.279
504	0.28
504	0.282
505	0.282
505	0.283
506	0.284
506	0.285
506	0.286
507	0.287
507	0.288
508	0.289
508	0.29
509	0.291
509	0.292
510	0.294
510	0.295
511	0.295
511	0.296
511	0.297
512	0.298
512	0.299
513	0.299
513	0.299
514	0.299
514	0.299
515	0.299
515	0.3
515	0.3
516	0.301
516	0.302
517	0.303
517	0.304
518	0.304
518	0.304
519	0.304
519	0.303
520	0.302
520	0.301
520	0.299
521	0.297
521	0.295
522	0.293
522	0.292
523	0.291
523	0.291
524	0.292
524	0.294
524	0.296
525	0.298
525	0.3
526	0.303
526	0.305
527	0.307
527	0.308
528	0.309
528	0.31
529	0.31
529	0.31
529	0.31
530	0.309
530	0.309
531	0.308
531	0.308
532	0.306
532	0.305
533	0.305
533	0.304
533	0.303
534	0.302
534	0.301
535	0.299
535	0.298
536	0.297
536	0.296
537	0.295
537	0.294
538	0.292
538	0.291
538	0.289
539	0.287
539	0.286
540	0.284
540	0.282
541	0.28
541	0.278
542	0.276
542	0.274
542	0.271
543	0.269
543	0.267
544	0.265
544	0.263
545	0.262
545	0.26
546	0.259
546	0.257
547	0.255
547	0.252
547	0.25
548	0.247
548	0.245
549	0.243
549	0.241
550	0.238
550	0.236
551	0.234
551	0.231
551	0.229
552	0.226
552	0.224
553	0.222
553	0.221
554	0.219
554	0.217
555	0.214
555	0.212
556	0.209
556	0.206
556	0.203
557	0.201
557	0.199
558	0.197
558	0.194
559	0.192
559	0.19
560	0.188
560	0.186
560	0.185
561	0.184
561	0.182
562	0.181
562	0.179
563	0.177
563	0.175
564	0.173
564	0.17
564	0.168
565	0.166
565	0.164
566	0.162
566	0.16
567	0.158
567	0.157
568	0.157
568	0.156
568	0.156
569	0.156
569	0.156
570	0.156
570	0.155
571	0.155
571	0.154
572	0.154
572	0.153
573	0.152
573	0.151
573	0.15
574	0.148
574	0.147
575	0.146
575	0.146
576	0.145
576	0.143
577	0.142
577	0.14
577	0.139
578	0.138
578	0.137
579	0.137
579	0.137
580	0.136
580	0.133
581	0.131
581	0.129
581	0.128
582	0.128
582	0.127
583	0.127
583	0.126
584	0.123
584	0.12
585	0.119
585	0.118
585	0.118
586	0.117
586	0.117
587	0.115
587	0.114
588	0.112
588	0.11
589	0.109
589	0.108
590	0.107
590	0.107
590	0.107
591	0.107
591	0.107
592	0.106
592	0.105
593	0.105
593	0.104
594	0.103
594	0.102
594	0.101
595	0.101
595	0.099
596	0.098
596	0.098
597	0.1
597	0.1
598	0.1
598	0.101
598	0.101
599	0.101
599	0.101
600	0.1
600	0.099
601	0.099
601	0.098
602	0.096
602	0.096
602	0.095
603	0.095
603	0.096
604	0.096
604	0.097
605	0.098
605	0.099
606	0.099
606	0.098
606	0.097
607	0.096
607	0.096
608	0.096
608	0.094
609	0.093
609	0.093
610	0.092
610	0.091
610	0.091
611	0.092
611	0.092
612	0.093
612	0.094
613	0.095
613	0.096
614	0.096
614	0.096
614	0.096
615	0.096
615	0.096
616	0.096
616	0.096
617	0.095
617	0.094
618	0.093
618	0.093
618	0.093
619	0.093
619	0.094
620	0.096
620	0.097
621	0.097
621	0.098
622	0.099
622	0.1
622	0.1
623	0.1
623	0.102
624	0.102
624	0.102
625	0.102
625	0.102
626	0.102
626	0.103
626	0.103
627	0.104
627	0.104
628	0.105
628	0.105
629	0.106
629	0.106
630	0.106
630	0.106
630	0.107
631	0.108
631	0.109
632	0.11
632	0.111
633	0.112
633	0.113
634	0.115
634	0.117
634	0.119
635	0.12
635	0.122
636	0.124
636	0.125
637	0.127
637	0.128
638	0.13
638	0.132
638	0.133
639	0.134
639	0.136
640	0.138
640	0.139
641	0.141
641	0.143
642	0.145
642	0.148
642	0.15
643	0.151
643	0.153
644	0.154
644	0.156
645	0.158
645	0.159
646	0.161
646	0.164
646	0.166
647	0.169
647	0.172
648	0.175
648	0.178
649	0.181
649	0.184
650	0.187
650	0.19
650	0.192
651	0.195
651	0.197
652	0.2
652	0.202
653	0.205
653	0.213
653	0.223
654	0.177
654	0.144
655	0.148
655	0.151
656	0.153
656	0.155
657	0.157
657	0.159
657	0.16
658	0.157
658	0.149
659	0.188
659	0.245
660	0.251
660	0.253
661	0.255
661	0.258
661	0.261
662	0.264
662	0.268
663	0.271
663	0.275
664	0.278
664	0.281
665	0.284
665	0.287
665	0.29
666	0.293
666	0.295
667	0.298
667	0.3
668	0.303
668	0.306
669	0.309
669	0.312
669	0.316
670	0.32
670	0.323
671	0.326
671	0.328
672	0.331
672	0.333
672	0.336
673	0.337
673	0.339
674	0.34
674	0.341
675	0.342
675	0.343
676	0.345
676	0.347
676	0.348
677	0.35
677	0.352
678	0.354
678	0.355
679	0.357
679	0.358
680	0.36
680	0.361
680	0.362
681	0.363
681	0.364
682	0.365
682	0.366
683	0.367
683	0.369
684	0.37
684	0.371
684	0.372
685	0.372
685	0.373
686	0.374
686	0.375
687	0.375
687	0.375
687	0.375
688	0.374
688	0.373
689	0.373
689	0.373
690	0.372
690	0.371
691	0.37
691	0.37
691	0.369
692	0.368
692	0.367
693	0.367
693	0.367
694	0.366
694	0.364
695	0.364
695	0.364
695	0.364
696	0.362
696	0.361
697	0.36
697	0.359
698	0.358
698	0.356
698	0.354
699	0.353
699	0.351
700	0.348
700	0.347
701	0.345
701	0.344
702	0.342
702	0.341
702	0.339
703	0.337
703	0.335
704	0.333
704	0.331
705	0.329
705	0.327
705	0.325
706	0.323
706	0.321
707	0.318
707	0.316
708	0.313
708	0.31
709	0.308
709	0.305
709	0.302
710	0.298
710	0.295
711	0.293
711	0.29
712	0.288
712	0.286
713	0.284
713	0.282
713	0.28
714	0.278
714	0.276
715	0.274
715	0.272
716	0.27
716	0.268
716	0.266
717	0.264
717	0.263
718	0.26
718	0.258
719	0.256
719	0.254
720	0.252
720	0.249
720	0.246
721	0.243
721	0.24
722	0.237
722	0.233
723	0.231
723	0.228
723	0.225
724	0.222
724	0.22
725	0.217
725	0.215
726	0.212
726	0.21
727	0.208
727	0.206
727	0.204
728	0.201
728	0.199
729	0.198
729	0.196
730	0.193
730	0.191
730	0.189
731	0.186
731	0.184
732	0.183
732	0.181
733	0.18
733	0.178
734	0.177
734	0.175
734	0.173
735	0.172
735	0.17
736	0.168
736	0.166
737	0.164
737	0.162
737	0.16
738	0.157
738	0.153
739	0.15
739	0.148
740	0.145
740	0.142
741	0.14
741	0.137
741	0.133
742	0.129
742	0.125
743	0.123
743	0.12
744	0.117
744	0.115
744	0.112
745	0.11
745	0.108
746	0.106
746	0.105
747	0.104
747	0.103
748	0.103
748	0.102
748	0.102
749	0.101
749	0.1
750	0.1
750	0.099
751	0.098
751	0.098
751	0.097
752	0.096
752	0.094
753	0.093
753	0.091
754	0.09
754	0.089
754	0.089
755	0.088
755	0.088
756	0.087
756	0.085
757	0.085
757	0.084
758	0.084
758	0.084
758	0.083
759	0.083
759	0.081
760	0.079
760	0.078
761	0.077
761	0.076
761	0.076
762	0.074
762	0.073
763	0.072
763	0.07
764	0.068
764	0.066
764	0.064
765	0.062
765	0.06
766	0.058
766	0.057
767	0.055
767	0.052
768	0.049
768	0.047
768	0.046
769	0.045
769	0.043
770	0.042
770	0.04
771	0.037
771	0.035
771	0.032
772	0.03
772	0.028
773	0.026
773	0.023
774	0.02
774	0.018
775	0.016
775	0.014
775	0.011
776	0.009
776	0.007
777	0.005
777	0.003
778	0
778	-0.003
778	-0.006
779	-0.008
779	-0.01
780	-0.014
780	-0.018
781	-0.022
781	-0.026
781	-0.031
782	-0.037
782	-0.044
783	-0.05
783	-0.056
784	-0.063
784	-0.072
784	-0.08
785	-0.088
785	-0.097
786	-0.103
786	-0.106
787	-0.107
787	-0.108
788	-0.111
788	-0.115
788	-0.119
789	-0.122
789	-0.123
790	-0.121
790	-0.121
791	-0.122
791	-0.124
791	-0.127
792	-0.123
792	-0.113
793	-0.107
793	-0.103
794	-0.102
794	-0.103
794	-0.106
795	-0.108
795	-0.108
796	-0.108
796	-0.11
797	-0.118
797	-0.128
797	-0.134
798	-0.139
798	-0.142
799	-0.143
799	-0.142
800	-0.142
800	-0.144
801	-0.148
801	-0.149
801	-0.149
802	-0.151
802	-0.152
803	-0.152
803	-0.152
804	-0.15
804	-0.145
804	-0.138
805	-0.133
805	-0.13
806	-0.127
806	-0.125
807	-0.124
807	-0.123
807	-0.123
808	-0.123
808	-0.124
809	-0.129
809	-0.135
810	-0.139
810	-0.143
810	-0.147
811	-0.15
811	-0.152
812	-0.148
812	-0.146
813	-0.147
813	-0.148
813	-0.149
814	-0.15
814	-0.15
815	-0.148
815	-0.145
816	-0.142
816	-0.142
817	-0.146
817	-0.149
817	-0.147
818	-0.143
818	-0.137
819	-0.131
819	-0.125
820	-0.121
820	-0.116
820	-0.11
821	-0.103
821	-0.094
822	-0.084
822	-0.076
823	-0.068
823	-0.062
823	-0.056
824	-0.05
824	-0.043
825	-0.037
825	-0.03
826	-0.024
826	-0.02
826	-0.017
827	-0.013
827	-0.01
828	-0.007
828	-0.005
829	-0.004
829	-0.002
829	-0.002
830	-0.002
830	-0.002
831	-0.001
831	0
832	0.001
832	0.002
832	0.002
833	0.003
833	0.004
834	0.005
834	0.006
835	0.007
835	0.008
835	0.008
836	0.009
836	0.01
837	0.01
837	0.01
838	0.01
838	0.01
839	0.01
839	0.01
839	0.01
840	0.01
840	0.01
841	0.01
841	0.01
842	0.011
842	0.012
842	0.013
843	0.014
843	0.015
844	0.016
844	0.017
845	0.017
845	0.018
845	0.018
846	0.019
846	0.018
847	0.018
847	0.019
848	0.02
848	0.02
848	0.021
849	0.022
849	0.022
850	0.023
850	0.023
851	0.024
851	0.024
851	0.024
852	0.024
852	0.023
853	0.022
853	0.021
854	0.02
854	0.019
854	0.019
855	0.018
855	0.017
856	0.016
856	0.016
857	0.016
857	0.016
857	0.017
858	0.018
858	0.019
859	0.021
859	0.022
860	0.024
860	0.026
860	0.028
861	0.029
861	0.03
862	0.031
862	0.031
863	0.032
863	0.032
863	0.031
864	0.03
864	0.03
865	0.029
865	0.029
866	0.028
866	0.027
866	0.027
867	0.026
867	0.026
868	0.025
868	0.025
869	0.024
869	0.023
869	0.021
870	0.02
870	0.019
871	0.018
871	0.017
872	0.016
872	0.015
872	0.014
873	0.014
873	0.014
874	0.014
874	0.014
875	0.015
875	0.016
875	0.016
876	0.017
876	0.018
877	0.018
877	0.019
878	0.019
878	0.02
878	0.02
879	0.021
879	0.021
880	0.021
880	0.021
881	0.021
881	0.021
881	0.021
882	0.021
882	0.021
883	0.022
883	0.022
884	0.022
884	0.022
884	0.022
885	0.022
885	0.022
886	0.022
886	0.023
887	0.023
887	0.023
887	0.023
888	0.023
888	0.024
889	0.024
889	0.025
890	0.026
890	0.026
890	0.027
891	0.027
891	0.028
892	0.028
892	0.028
893	0.028
893	0.028
893	0.027
894	0.027
894	0.026
895	0.025
895	0.024
895	0.022
896	0.021
896	0.02
897	0.018
897	0.017
898	0.016
898	0.015
898	0.014
899	0.013
899	0.013
900	0.012
900	0.012
901	0.012
901	0.013
901	0.013
902	0.013
902	0.013
903	0.012
903	0.012
904	0.012
904	0.011
904	0.011
905	0.011
905	0.011
906	0.011
906	0.011
907	0.011
907	0.012
907	0.013
908	0.014
908	0.015
909	0.016
909	0.017
910	0.019
910	0.02
910	0.021
911	0.021
911	0.022
912	0.022
912	0.022
913	0.022
913	0.021
913	0.02
914	0.019
914	0.018
915	0.018
915	0.017
916	0.016
916	0.016
916	0.016
917	0.016
917	0.015
918	0.015
918	0.015
918	0.015
919	0.015
919	0.014
920	0.014
920	0.014
921	0.013
921	0.012
921	0.012
922	0.011
922	0.012
923	0.012
923	0.012
924	0.012
924	0.013
924	0.013
925	0.014
925	0.014
926	0.014
926	0.014
927	0.014
927	0.014
927	0.014
928	0.014
928	0.013
929	0.013
929	0.013
930	0.013
930	0.013
930	0.012
931	0.012
931	0.011
932	0.011
932	0.011
933	0.011
933	0.01
933	0.01
934	0.01
934	0.009
935	0.009
935	0.009
935	0.008
936	0.008
936	0.008
937	0.008
937	0.008
938	0.009
938	0.009
938	0.009
939	0.009
939	0.01
940	0.011
940	0.011
941	0.012
941	0.013
941	0.013
942	0.014
942	0.014
943	0.015
943	0.015
944	0.015
944	0.016
944	0.016
945	0.017
945	0.018
946	0.018
946	0.018
946	0.019
947	0.019
947	0.02
948	0.02
948	0.02
949	0.02
949	0.021
949	0.022
950	0.022
950	0.023
951	0.024
951	0.025
952	0.025
952	0.026
952	0.027
953	0.028
953	0.028
954	0.028
954	0.028
955	0.028
955	0.027
955	0.026
956	0.026
956	0.025
957	0.024
957	0.023
957	0.021
958	0.02
958	0.019
959	0.018
959	0.017
960	0.016
960	0.014
960	0.013
961	0.011
961	0.01
962	0.009
962	0.008
963	0.007
963	0.006
963	0.005
964	0.004
964	0.003
965	0.003
965	0.003
966	0.003
966	0.004
966	0.004
967	0.004
967	0.004
968	0.004
968	0.004
968	0.004
969	0.004
969	0.004
970	0.004
970	0.004
971	0.005
971	0.005
971	0.006
972	0.006
972	0.007
973	0.008
973	0.009
974	0.009
974	0.01
974	0.011
975	0.012
975	0.012
976	0.013
976	0.013
976	0.013
977	0.013
977	0.012
978	0.012
978	0.011
979	0.01
979	0.01
979	0.009
980	0.008
980	0.006
981	0.005
981	0.005
982	0.004
982	0.003
982	0.003
983	0.003
983	0.003
984	0.003
984	0.003
984	0.004
985	0.004
985	0.005
986	0.006
986	0.006
987	0.007
987	0.007
987	0.008
988	0.009
988	0.009
989	0.009
989	0.009
990	0.009
990	0.009
990	0.01
991	0.01
991	0.011
992	0.011
992	0.011
992	0.012
993	0.012
993	0.013
994	0.013
994	0.014
995	0.014
995	0.014
995	0.013
996	0.013
996	0.012
997	0.012
997	0.011
997	0.01
998	0.01
998	0.009
999	0.009
999	0.008
1000	0.008
1000	0.008
1000	0.007
1001	0.007
1001	0.007
1002	0.007
1002	0.007
1003	0.006
1003	0.006
1003	0.006
1004	0.005
1004	0.005
1005	0.004
1005	0.003
1005	0.002
1006	0.002
1006	0.001
1007	0.001
1007	0
1008	-0
1008	-0.001
1008	-0.001
1009	-0.001
1009	-0.001
1010	-0.001
1010	-0.001
1010	-0.001
1011	-0.001
1011	-0.001
1012	-0
1012	0
1013	0
1013	0.001
1013	0.001
1014	0.002
1014	0.002
1015	0.003
1015	0.003
1016	0.004
1016	0.004
1016	0.005
1017	0.005
1017	0.006
1018	0.007
1018	0.007
1018	0.008
1019	0.008
1019	0.009
1020	0.009
1020	0.009
1021	0.009
1021	0.008
1021	0.008
1022	0.007
1022	0.007
1023	0.007
1023	0.006
1023	0.005
1024	0.004
1024	0.003
1025	0.003
1025	0.002
1026	0.002
1026	0.002
1026	0.002
1027	0.002
1027	0.003
1028	0.003
1028	0.004
1028	0.004
1029	0.005
1029	0.005
1030	0.005
1030	0.005
1031	0.005
1031	0.006
1031	0.005
1032	0.005
1032	0.005
1033	0.004
1033	0.004
1033	0.003
1034	0.002
1034	0.001
1035	-0
1035	-0.001
1036	-0.002
1036	-0.002
1036	-0.003
1037	-0.003
1037	-0.003
1038	-0.004
1038	-0.004
1039	-0.003
1039	-0.003
1039	-0.003
1040	-0.003
1040	-0.004
1041	-0.004
1041	-0.005
1041	-0.005
1042	-0.006
1042	-0.006
1043	-0.007
1043	-0.007
1044	-0.008
1044	-0.009
1044	-0.009
1045	-0.009
1045	-0.01
1046	-0.01
1046	-0.01
1046	-0.009
1047	-0.009
1047	-0.008
1048	-0.008
1048	-0.007
1049	-0.006
1049	-0.006
1049	-0.006
1050	-0.005
1050	-0.004
1051	-0.003
1051	-0.003
1051	-0.002
1052	-0.001
1052	-0
1053	0
1053	0.001
1053	0.002
1054	0.003
1054	0.004
1055	0.005
1055	0.005
1056	0.005
1056	0.005
1056	0.004
1057	0.003
1057	0.002
1058	0.002
1058	0.001
1058	0
1059	-0.001
1059	-0.002
1060	-0.003
1060	-0.004
1061	-0.004
1061	-0.004
1061	-0.004
1062	-0.005
1062	-0.006
1063	-0.006
1063	-0.007
1063	-0.006
1064	-0.006
1064	-0.006
1065	-0.005
1065	-0.006
1066	-0.005
1066	-0.004
1066	-0.003
1067	-0.002
1067	-0.001
1068	-0
1068	0.001
1068	0.001
1069	0.002
1069	0.002
1070	0.003
1070	0.004
1071	0.004
1071	0.005
1071	0.006
1072	0.007
1072	0.008
1073	0.009
1073	0.01
1073	0.011
1074	0.013
1074	0.014
1075	0.014
1075	0.015
1076	0.015
1076	0.016
1076	0.015
1077	0.016
1077	0.016
1078	0.016
1078	0.017
1078	0.017
1079	0.018
1079	0.019
1080	0.019
1080	0.02
1080	0.021
1081	0.022
1081	0.024
1082	0.024
1082	0.025
1083	0.025
1083	0.026
1083	0.028
1084	0.028
1084	0.029
1085	0.03
1085	0.031
1085	0.032
1086	0.034
1086	0.034
1087	0.035
1087	0.036
1088	0.037
1088	0.037
1088	0.039
1089	0.04
1089	0.041
1090	0.041
1090	0.043
1090	0.043
1091	0.044
1091	0.046
1092	0.048
1092	0.051
1092	0.053
1093	0.054
1093	0.057
1094	0.059
1094	0.061
1095	0.063
1095	0.067
1095	0.071
1096	0.074
1096	0.077
1097	0.08
1097	0.083
1097	0.088
1098	0.091
1098	0.095
1099	0.101
1099	0.106
1100	0.113
1100	0.117
1100	0.124
1101	0.131
1101	0.139
1102	0.149
1102	0.158
1102	0.17
1103	0.183
1103	0.196
1104	0.213
1104	0.229
1104	0.25
1105	0.27
1105	0.293
1106	0.316
1106	0.344
1107	0.377
1107	0.422
1107	0.481
1108	0.703
1108	1.439
1109	-0
1109	-0
1109	-0
1110	-0
1110	-0
1111	-0
1111	-0
