Data from 15c-2-2a_Absorbance__2245__04046.txt Node

Date: Wed Jan 24 14:18:42 CET 2024
User: Marek
Spectrometer: MAYP115816
Trigger mode: 0
Integration Time (sec): 2.000000E-1
Scans to average: 10
Electric dark correction enabled: true
Nonlinearity correction enabled: true
Boxcar width: 5
XAxis mode: Wavelengths
Number of Pixels in Spectrum: 2068
>>>>>Begin Spectral Data<<<<<
199	-1.819
199	-1.659
200	-1.499
200	-1.375
201	-1.301
201	-1.248
202	-1.176
202	-1.118
203	-1.068
203	-1.026
204	-0.997
204	-0.971
205	-0.948
205	-0.939
205	-0.937
206	-0.933
206	-0.932
207	-0.928
207	-0.924
208	-0.923
208	-0.922
209	-0.92
209	-0.92
210	-0.92
210	-0.918
211	-0.916
211	-0.916
212	-0.914
212	-0.911
213	-0.909
213	-0.907
213	-0.904
214	-0.902
214	-0.898
215	-0.897
215	-0.893
216	-0.892
216	-0.889
217	-0.888
217	-0.888
218	-0.889
218	-0.887
219	-0.886
219	-0.883
220	-0.881
220	-0.879
221	-0.879
221	-0.876
221	-0.871
222	-0.865
222	-0.858
223	-0.852
223	-0.846
224	-0.837
224	-0.828
225	-0.821
225	-0.81
226	-0.8
226	-0.787
227	-0.775
227	-0.763
228	-0.744
228	-0.726
229	-0.704
229	-0.681
229	-0.654
230	-0.623
230	-0.589
231	-0.553
231	-0.514
232	-0.474
232	-0.43
233	-0.387
233	-0.34
234	-0.295
234	-0.249
235	-0.204
235	-0.16
236	-0.118
236	-0.077
236	-0.036
237	0.002
237	0.037
238	0.07
238	0.101
239	0.13
239	0.157
240	0.182
240	0.205
241	0.225
241	0.245
242	0.261
242	0.276
243	0.291
243	0.304
243	0.316
244	0.327
244	0.336
245	0.345
245	0.353
246	0.361
246	0.368
247	0.374
247	0.381
248	0.386
248	0.392
249	0.397
249	0.401
250	0.406
250	0.41
250	0.414
251	0.418
251	0.421
252	0.424
252	0.427
253	0.43
253	0.433
254	0.435
254	0.438
255	0.44
255	0.442
256	0.444
256	0.445
257	0.447
257	0.448
258	0.449
258	0.45
258	0.451
259	0.452
259	0.452
260	0.453
260	0.454
261	0.454
261	0.454
262	0.454
262	0.454
263	0.454
263	0.454
264	0.454
264	0.454
265	0.453
265	0.452
265	0.451
266	0.451
266	0.45
267	0.449
267	0.448
268	0.446
268	0.445
269	0.444
269	0.442
270	0.44
270	0.439
271	0.437
271	0.435
272	0.434
272	0.432
272	0.43
273	0.428
273	0.426
274	0.425
274	0.423
275	0.421
275	0.42
276	0.418
276	0.416
277	0.413
277	0.411
278	0.409
278	0.406
278	0.403
279	0.4
279	0.398
280	0.396
280	0.393
281	0.391
281	0.389
282	0.387
282	0.385
283	0.384
283	0.383
284	0.381
284	0.38
285	0.378
285	0.376
285	0.375
286	0.373
286	0.371
287	0.369
287	0.368
288	0.366
288	0.364
289	0.363
289	0.361
290	0.36
290	0.358
291	0.357
291	0.356
292	0.354
292	0.353
292	0.352
293	0.35
293	0.349
294	0.348
294	0.347
295	0.346
295	0.344
296	0.343
296	0.342
297	0.341
297	0.34
298	0.339
298	0.338
298	0.337
299	0.336
299	0.335
300	0.334
300	0.333
301	0.333
301	0.332
302	0.331
302	0.33
303	0.329
303	0.329
304	0.328
304	0.327
305	0.326
305	0.325
305	0.324
306	0.323
306	0.323
307	0.322
307	0.321
308	0.32
308	0.319
309	0.318
309	0.317
310	0.317
310	0.316
311	0.315
311	0.314
311	0.313
312	0.313
312	0.312
313	0.311
313	0.31
314	0.309
314	0.308
315	0.307
315	0.306
316	0.305
316	0.305
317	0.304
317	0.303
318	0.302
318	0.301
318	0.301
319	0.3
319	0.299
320	0.298
320	0.297
321	0.296
321	0.295
322	0.295
322	0.294
323	0.293
323	0.292
324	0.291
324	0.291
324	0.29
325	0.289
325	0.288
326	0.288
326	0.287
327	0.286
327	0.285
328	0.284
328	0.284
329	0.283
329	0.282
330	0.282
330	0.281
330	0.28
331	0.28
331	0.279
332	0.278
332	0.277
333	0.276
333	0.276
334	0.275
334	0.274
335	0.273
335	0.272
336	0.272
336	0.271
336	0.27
337	0.27
337	0.269
338	0.269
338	0.268
339	0.268
339	0.267
340	0.267
340	0.266
341	0.266
341	0.265
342	0.265
342	0.264
342	0.264
343	0.263
343	0.262
344	0.262
344	0.261
345	0.261
345	0.26
346	0.26
346	0.26
347	0.259
347	0.258
348	0.258
348	0.258
348	0.258
349	0.257
349	0.257
350	0.256
350	0.256
351	0.255
351	0.255
352	0.254
352	0.254
353	0.253
353	0.253
354	0.252
354	0.251
354	0.251
355	0.25
355	0.249
356	0.249
356	0.248
357	0.247
357	0.246
358	0.246
358	0.246
359	0.246
359	0.246
360	0.247
360	0.247
360	0.247
361	0.248
361	0.248
362	0.249
362	0.249
363	0.249
363	0.249
364	0.249
364	0.248
365	0.248
365	0.248
366	0.247
366	0.247
366	0.247
367	0.246
367	0.246
368	0.246
368	0.246
369	0.245
369	0.245
370	0.244
370	0.244
371	0.244
371	0.244
372	0.243
372	0.243
372	0.243
373	0.243
373	0.243
374	0.242
374	0.242
375	0.242
375	0.242
376	0.242
376	0.242
377	0.242
377	0.242
378	0.242
378	0.241
378	0.242
379	0.242
379	0.241
380	0.241
380	0.241
381	0.241
381	0.241
382	0.241
382	0.24
383	0.24
383	0.24
383	0.24
384	0.239
384	0.239
385	0.239
385	0.238
386	0.238
386	0.238
387	0.238
387	0.238
388	0.237
388	0.237
389	0.237
389	0.237
389	0.236
390	0.237
390	0.237
391	0.237
391	0.237
392	0.237
392	0.237
393	0.237
393	0.236
394	0.236
394	0.236
394	0.236
395	0.236
395	0.235
396	0.235
396	0.234
397	0.234
397	0.234
398	0.234
398	0.234
399	0.234
399	0.233
400	0.233
400	0.233
400	0.233
401	0.232
401	0.232
402	0.231
402	0.231
403	0.23
403	0.23
404	0.23
404	0.23
405	0.23
405	0.229
405	0.229
406	0.229
406	0.229
407	0.229
407	0.228
408	0.228
408	0.228
409	0.227
409	0.227
410	0.227
410	0.227
411	0.227
411	0.226
411	0.226
412	0.226
412	0.226
413	0.225
413	0.225
414	0.225
414	0.225
415	0.224
415	0.224
416	0.223
416	0.223
416	0.223
417	0.222
417	0.222
418	0.222
418	0.222
419	0.222
419	0.222
420	0.222
420	0.223
421	0.223
421	0.223
421	0.223
422	0.223
422	0.223
423	0.223
423	0.223
424	0.223
424	0.222
425	0.221
425	0.221
426	0.22
426	0.22
427	0.22
427	0.22
427	0.22
428	0.22
428	0.221
429	0.221
429	0.221
430	0.221
430	0.221
431	0.221
431	0.221
432	0.221
432	0.22
432	0.22
433	0.219
433	0.218
434	0.218
434	0.218
435	0.218
435	0.218
436	0.218
436	0.218
437	0.217
437	0.217
437	0.217
438	0.217
438	0.217
439	0.217
439	0.216
440	0.216
440	0.216
441	0.216
441	0.216
442	0.217
442	0.217
442	0.217
443	0.217
443	0.217
444	0.218
444	0.218
445	0.218
445	0.218
446	0.218
446	0.218
447	0.218
447	0.217
447	0.217
448	0.217
448	0.217
449	0.217
449	0.217
450	0.217
450	0.216
451	0.216
451	0.216
452	0.216
452	0.215
452	0.215
453	0.215
453	0.215
454	0.214
454	0.214
455	0.213
455	0.213
456	0.213
456	0.212
457	0.212
457	0.212
458	0.212
458	0.212
458	0.212
459	0.212
459	0.213
460	0.213
460	0.212
461	0.212
461	0.212
462	0.213
462	0.213
463	0.213
463	0.214
463	0.214
464	0.215
464	0.214
465	0.215
465	0.215
466	0.215
466	0.215
467	0.215
467	0.215
467	0.215
468	0.214
468	0.213
469	0.213
469	0.213
470	0.213
470	0.212
471	0.212
471	0.212
472	0.213
472	0.213
472	0.214
473	0.215
473	0.216
474	0.216
474	0.217
475	0.217
475	0.218
476	0.219
476	0.219
477	0.22
477	0.22
477	0.22
478	0.221
478	0.221
479	0.222
479	0.223
480	0.224
480	0.226
481	0.226
481	0.227
482	0.228
482	0.23
482	0.231
483	0.233
483	0.235
484	0.237
484	0.238
485	0.239
485	0.24
486	0.241
486	0.242
487	0.243
487	0.244
487	0.244
488	0.245
488	0.244
489	0.244
489	0.244
490	0.245
490	0.246
491	0.247
491	0.248
492	0.249
492	0.25
492	0.252
493	0.253
493	0.255
494	0.257
494	0.259
495	0.261
495	0.262
496	0.264
496	0.265
496	0.267
497	0.268
497	0.27
498	0.271
498	0.272
499	0.273
499	0.274
500	0.276
500	0.278
501	0.28
501	0.282
501	0.284
502	0.286
502	0.287
503	0.289
503	0.291
504	0.292
504	0.293
505	0.295
505	0.296
506	0.296
506	0.297
506	0.298
507	0.299
507	0.3
508	0.301
508	0.302
509	0.304
509	0.305
510	0.307
510	0.308
511	0.309
511	0.309
511	0.31
512	0.311
512	0.312
513	0.313
513	0.313
514	0.313
514	0.313
515	0.313
515	0.314
515	0.314
516	0.315
516	0.316
517	0.317
517	0.318
518	0.318
518	0.319
519	0.318
519	0.317
520	0.316
520	0.315
520	0.314
521	0.311
521	0.309
522	0.307
522	0.306
523	0.305
523	0.305
524	0.306
524	0.308
524	0.309
525	0.311
525	0.314
526	0.316
526	0.318
527	0.32
527	0.321
528	0.323
528	0.324
529	0.324
529	0.323
529	0.323
530	0.323
530	0.322
531	0.321
531	0.321
532	0.32
532	0.319
533	0.318
533	0.317
533	0.316
534	0.315
534	0.314
535	0.312
535	0.311
536	0.31
536	0.309
537	0.307
537	0.306
538	0.305
538	0.303
538	0.301
539	0.3
539	0.298
540	0.296
540	0.295
541	0.292
541	0.29
542	0.288
542	0.285
542	0.283
543	0.281
543	0.279
544	0.277
544	0.275
545	0.273
545	0.271
546	0.27
546	0.268
547	0.266
547	0.263
547	0.261
548	0.258
548	0.256
549	0.253
549	0.251
550	0.249
550	0.246
551	0.243
551	0.241
551	0.238
552	0.236
552	0.234
553	0.231
553	0.23
554	0.228
554	0.226
555	0.223
555	0.22
556	0.218
556	0.215
556	0.212
557	0.21
557	0.207
558	0.205
558	0.202
559	0.199
559	0.197
560	0.195
560	0.193
560	0.191
561	0.19
561	0.189
562	0.188
562	0.186
563	0.184
563	0.181
564	0.179
564	0.177
564	0.174
565	0.172
565	0.17
566	0.168
566	0.166
567	0.164
567	0.163
568	0.162
568	0.162
568	0.161
569	0.162
569	0.162
570	0.162
570	0.161
571	0.16
571	0.16
572	0.159
572	0.158
573	0.158
573	0.157
573	0.155
574	0.153
574	0.152
575	0.151
575	0.151
576	0.15
576	0.148
577	0.147
577	0.145
577	0.144
578	0.142
578	0.142
579	0.142
579	0.142
580	0.14
580	0.138
581	0.135
581	0.134
581	0.133
582	0.132
582	0.131
583	0.131
583	0.13
584	0.127
584	0.124
585	0.122
585	0.122
585	0.121
586	0.121
586	0.12
587	0.119
587	0.117
588	0.115
588	0.113
589	0.112
589	0.111
590	0.111
590	0.11
590	0.11
591	0.111
591	0.11
592	0.109
592	0.108
593	0.108
593	0.108
594	0.107
594	0.106
594	0.105
595	0.104
595	0.103
596	0.101
596	0.102
597	0.103
597	0.103
598	0.103
598	0.104
598	0.104
599	0.105
599	0.104
600	0.103
600	0.102
601	0.102
601	0.101
602	0.1
602	0.099
602	0.099
603	0.098
603	0.099
604	0.099
604	0.1
605	0.101
605	0.102
606	0.102
606	0.101
606	0.1
607	0.1
607	0.099
608	0.099
608	0.097
609	0.097
609	0.096
610	0.095
610	0.094
610	0.094
611	0.095
611	0.095
612	0.096
612	0.097
613	0.098
613	0.099
614	0.1
614	0.099
614	0.099
615	0.099
615	0.099
616	0.099
616	0.098
617	0.098
617	0.097
618	0.096
618	0.096
618	0.096
619	0.096
619	0.097
620	0.099
620	0.1
621	0.1
621	0.101
622	0.102
622	0.103
622	0.103
623	0.104
623	0.105
624	0.106
624	0.105
625	0.105
625	0.106
626	0.106
626	0.106
626	0.107
627	0.107
627	0.108
628	0.108
628	0.108
629	0.109
629	0.109
630	0.11
630	0.11
630	0.111
631	0.112
631	0.113
632	0.113
632	0.115
633	0.116
633	0.117
634	0.119
634	0.121
634	0.123
635	0.125
635	0.126
636	0.128
636	0.13
637	0.132
637	0.133
638	0.134
638	0.136
638	0.138
639	0.139
639	0.141
640	0.142
640	0.144
641	0.146
641	0.148
642	0.15
642	0.153
642	0.155
643	0.157
643	0.158
644	0.16
644	0.162
645	0.163
645	0.165
646	0.168
646	0.17
646	0.173
647	0.176
647	0.179
648	0.182
648	0.185
649	0.188
649	0.191
650	0.194
650	0.197
650	0.2
651	0.202
651	0.205
652	0.207
652	0.21
653	0.213
653	0.221
653	0.231
654	0.183
654	0.148
655	0.153
655	0.156
656	0.158
656	0.16
657	0.162
657	0.164
657	0.165
658	0.163
658	0.154
659	0.196
659	0.255
660	0.261
660	0.263
661	0.265
661	0.268
661	0.271
662	0.275
662	0.279
663	0.282
663	0.286
664	0.289
664	0.292
665	0.295
665	0.298
665	0.302
666	0.305
666	0.307
667	0.31
667	0.312
668	0.315
668	0.318
669	0.321
669	0.325
669	0.329
670	0.333
670	0.336
671	0.339
671	0.341
672	0.344
672	0.346
672	0.349
673	0.351
673	0.352
674	0.354
674	0.355
675	0.356
675	0.357
676	0.359
676	0.361
676	0.362
677	0.364
677	0.366
678	0.368
678	0.37
679	0.371
679	0.373
680	0.375
680	0.376
680	0.377
681	0.378
681	0.379
682	0.38
682	0.38
683	0.382
683	0.384
684	0.386
684	0.387
684	0.387
685	0.388
685	0.389
686	0.39
686	0.391
687	0.391
687	0.391
687	0.391
688	0.39
688	0.389
689	0.388
689	0.388
690	0.388
690	0.387
691	0.386
691	0.385
691	0.385
692	0.384
692	0.383
693	0.382
693	0.382
694	0.381
694	0.379
695	0.379
695	0.379
695	0.378
696	0.377
696	0.376
697	0.375
697	0.374
698	0.373
698	0.371
698	0.369
699	0.368
699	0.366
700	0.363
700	0.362
701	0.36
701	0.359
702	0.357
702	0.355
702	0.353
703	0.351
703	0.349
704	0.346
704	0.344
705	0.343
705	0.34
705	0.338
706	0.336
706	0.333
707	0.331
707	0.328
708	0.326
708	0.323
709	0.321
709	0.318
709	0.314
710	0.31
710	0.307
711	0.305
711	0.302
712	0.3
712	0.298
713	0.296
713	0.294
713	0.292
714	0.289
714	0.287
715	0.285
715	0.283
716	0.281
716	0.279
716	0.277
717	0.275
717	0.273
718	0.27
718	0.268
719	0.266
719	0.264
720	0.261
720	0.258
720	0.255
721	0.252
721	0.249
722	0.246
722	0.242
723	0.239
723	0.237
723	0.234
724	0.231
724	0.228
725	0.226
725	0.223
726	0.221
726	0.218
727	0.216
727	0.214
727	0.212
728	0.209
728	0.207
729	0.205
729	0.203
730	0.2
730	0.198
730	0.196
731	0.193
731	0.191
732	0.19
732	0.188
733	0.186
733	0.185
734	0.183
734	0.181
734	0.18
735	0.179
735	0.176
736	0.174
736	0.172
737	0.17
737	0.169
737	0.166
738	0.163
738	0.159
739	0.157
739	0.154
740	0.151
740	0.148
741	0.146
741	0.142
741	0.139
742	0.134
742	0.131
743	0.128
743	0.125
744	0.122
744	0.119
744	0.117
745	0.114
745	0.112
746	0.11
746	0.109
747	0.108
747	0.107
748	0.106
748	0.106
748	0.105
749	0.104
749	0.104
750	0.103
750	0.102
751	0.101
751	0.101
751	0.1
752	0.099
752	0.097
753	0.096
753	0.095
754	0.093
754	0.092
754	0.092
755	0.091
755	0.091
756	0.09
756	0.088
757	0.088
757	0.088
758	0.087
758	0.087
758	0.086
759	0.086
759	0.084
760	0.082
760	0.08
761	0.079
761	0.079
761	0.078
762	0.076
762	0.075
763	0.074
763	0.072
764	0.07
764	0.068
764	0.066
765	0.064
765	0.062
766	0.06
766	0.058
767	0.057
767	0.054
768	0.051
768	0.049
768	0.048
769	0.047
769	0.045
770	0.043
770	0.042
771	0.039
771	0.037
771	0.034
772	0.032
772	0.03
773	0.028
773	0.025
774	0.022
774	0.02
775	0.018
775	0.015
775	0.013
776	0.011
776	0.009
777	0.007
777	0.004
778	0.001
778	-0.002
778	-0.005
779	-0.007
779	-0.009
780	-0.013
780	-0.017
781	-0.021
781	-0.025
781	-0.031
782	-0.037
782	-0.043
783	-0.049
783	-0.056
784	-0.063
784	-0.072
784	-0.08
785	-0.088
785	-0.097
786	-0.103
786	-0.107
787	-0.107
787	-0.108
788	-0.111
788	-0.115
788	-0.119
789	-0.122
789	-0.123
790	-0.121
790	-0.121
791	-0.122
791	-0.124
791	-0.127
792	-0.123
792	-0.113
793	-0.107
793	-0.103
794	-0.102
794	-0.103
794	-0.106
795	-0.108
795	-0.108
796	-0.108
796	-0.11
797	-0.118
797	-0.128
797	-0.134
798	-0.139
798	-0.142
799	-0.143
799	-0.142
800	-0.142
800	-0.144
801	-0.148
801	-0.149
801	-0.149
802	-0.151
802	-0.152
803	-0.152
803	-0.152
804	-0.15
804	-0.145
804	-0.138
805	-0.133
805	-0.13
806	-0.127
806	-0.125
807	-0.124
807	-0.123
807	-0.123
808	-0.123
808	-0.124
809	-0.129
809	-0.135
810	-0.139
810	-0.143
810	-0.147
811	-0.15
811	-0.152
812	-0.148
812	-0.146
813	-0.147
813	-0.148
813	-0.149
814	-0.15
814	-0.15
815	-0.148
815	-0.145
816	-0.142
816	-0.142
817	-0.146
817	-0.148
817	-0.147
818	-0.143
818	-0.137
819	-0.13
819	-0.124
820	-0.12
820	-0.116
820	-0.11
821	-0.102
821	-0.093
822	-0.084
822	-0.075
823	-0.067
823	-0.061
823	-0.055
824	-0.049
824	-0.042
825	-0.036
825	-0.029
826	-0.024
826	-0.02
826	-0.016
827	-0.012
827	-0.009
828	-0.007
828	-0.005
829	-0.003
829	-0.002
829	-0.002
830	-0.002
830	-0.002
831	-0.001
831	-0
832	0
832	0.001
832	0.002
833	0.003
833	0.004
834	0.005
834	0.006
835	0.007
835	0.008
835	0.009
836	0.01
836	0.01
837	0.01
837	0.011
838	0.011
838	0.011
839	0.011
839	0.011
839	0.01
840	0.01
840	0.01
841	0.01
841	0.011
842	0.011
842	0.012
842	0.013
843	0.014
843	0.015
844	0.016
844	0.017
845	0.017
845	0.018
845	0.018
846	0.018
846	0.018
847	0.018
847	0.019
848	0.019
848	0.02
848	0.021
849	0.022
849	0.022
850	0.023
850	0.023
851	0.024
851	0.024
851	0.024
852	0.024
852	0.023
853	0.022
853	0.021
854	0.02
854	0.019
854	0.018
855	0.017
855	0.016
856	0.016
856	0.016
857	0.016
857	0.016
857	0.017
858	0.018
858	0.019
859	0.021
859	0.023
860	0.025
860	0.026
860	0.028
861	0.029
861	0.031
862	0.031
862	0.032
863	0.032
863	0.032
863	0.031
864	0.031
864	0.03
865	0.03
865	0.029
866	0.028
866	0.028
866	0.027
867	0.027
867	0.026
868	0.026
868	0.025
869	0.025
869	0.024
869	0.022
870	0.021
870	0.02
871	0.019
871	0.018
872	0.017
872	0.016
872	0.015
873	0.014
873	0.014
874	0.014
874	0.015
875	0.015
875	0.016
875	0.016
876	0.017
876	0.018
877	0.018
877	0.019
878	0.019
878	0.02
878	0.02
879	0.021
879	0.021
880	0.021
880	0.021
881	0.021
881	0.021
881	0.021
882	0.021
882	0.022
883	0.022
883	0.022
884	0.022
884	0.022
884	0.022
885	0.022
885	0.023
886	0.023
886	0.023
887	0.023
887	0.023
887	0.023
888	0.023
888	0.024
889	0.024
889	0.025
890	0.026
890	0.027
890	0.027
891	0.028
891	0.028
892	0.029
892	0.029
893	0.029
893	0.028
893	0.028
894	0.028
894	0.027
895	0.025
895	0.024
895	0.023
896	0.021
896	0.02
897	0.018
897	0.017
898	0.016
898	0.015
898	0.014
899	0.013
899	0.013
900	0.012
900	0.012
901	0.012
901	0.012
901	0.012
902	0.013
902	0.012
903	0.012
903	0.012
904	0.012
904	0.011
904	0.011
905	0.01
905	0.011
906	0.011
906	0.011
907	0.011
907	0.012
907	0.013
908	0.014
908	0.015
909	0.016
909	0.017
910	0.019
910	0.02
910	0.021
911	0.021
911	0.022
912	0.022
912	0.022
913	0.022
913	0.021
913	0.021
914	0.02
914	0.019
915	0.018
915	0.017
916	0.017
916	0.016
916	0.016
917	0.016
917	0.016
918	0.016
918	0.015
918	0.015
919	0.015
919	0.015
920	0.014
920	0.014
921	0.013
921	0.013
921	0.012
922	0.012
922	0.012
923	0.012
923	0.012
924	0.013
924	0.013
924	0.013
925	0.014
925	0.014
926	0.014
926	0.015
927	0.015
927	0.015
927	0.015
928	0.014
928	0.014
929	0.014
929	0.014
930	0.013
930	0.013
930	0.013
931	0.013
931	0.012
932	0.012
932	0.012
933	0.012
933	0.011
933	0.011
934	0.011
934	0.01
935	0.01
935	0.009
935	0.009
936	0.009
936	0.009
937	0.009
937	0.009
938	0.009
938	0.009
938	0.01
939	0.01
939	0.011
940	0.011
940	0.012
941	0.012
941	0.013
941	0.014
942	0.014
942	0.014
943	0.015
943	0.015
944	0.015
944	0.015
944	0.016
945	0.017
945	0.017
946	0.018
946	0.018
946	0.018
947	0.019
947	0.02
948	0.02
948	0.02
949	0.021
949	0.021
949	0.022
950	0.023
950	0.024
951	0.025
951	0.025
952	0.026
952	0.027
952	0.028
953	0.028
953	0.029
954	0.029
954	0.028
955	0.028
955	0.028
955	0.027
956	0.027
956	0.026
957	0.024
957	0.023
957	0.022
958	0.021
958	0.02
959	0.019
959	0.018
960	0.016
960	0.015
960	0.013
961	0.012
961	0.01
962	0.009
962	0.008
963	0.007
963	0.006
963	0.005
964	0.004
964	0.004
965	0.004
965	0.003
966	0.004
966	0.004
966	0.004
967	0.004
967	0.004
968	0.004
968	0.004
968	0.004
969	0.004
969	0.004
970	0.004
970	0.004
971	0.005
971	0.005
971	0.005
972	0.006
972	0.007
973	0.007
973	0.008
974	0.009
974	0.01
974	0.01
975	0.011
975	0.012
976	0.013
976	0.013
976	0.013
977	0.013
977	0.012
978	0.012
978	0.011
979	0.01
979	0.01
979	0.009
980	0.008
980	0.006
981	0.005
981	0.004
982	0.004
982	0.003
982	0.003
983	0.003
983	0.002
984	0.002
984	0.003
984	0.003
985	0.004
985	0.005
986	0.005
986	0.006
987	0.006
987	0.007
987	0.008
988	0.008
988	0.009
989	0.009
989	0.009
990	0.009
990	0.009
990	0.01
991	0.01
991	0.011
992	0.011
992	0.011
992	0.012
993	0.012
993	0.012
994	0.013
994	0.013
995	0.013
995	0.013
995	0.013
996	0.012
996	0.012
997	0.011
997	0.011
997	0.01
998	0.01
998	0.009
999	0.009
999	0.008
1000	0.008
1000	0.007
1000	0.007
1001	0.007
1001	0.007
1002	0.006
1002	0.006
1003	0.006
1003	0.005
1003	0.005
1004	0.005
1004	0.004
1005	0.004
1005	0.003
1005	0.002
1006	0.002
1006	0.001
1007	0
1007	-0
1008	-0.001
1008	-0.001
1008	-0.002
1009	-0.002
1009	-0.002
1010	-0.002
1010	-0.002
1010	-0.002
1011	-0.002
1011	-0.002
1012	-0.001
1012	-0.001
1013	-0
1013	-0
1013	0
1014	0.001
1014	0.001
1015	0.002
1015	0.003
1016	0.003
1016	0.004
1016	0.004
1017	0.005
1017	0.005
1018	0.006
1018	0.007
1018	0.007
1019	0.008
1019	0.008
1020	0.008
1020	0.008
1021	0.008
1021	0.008
1021	0.007
1022	0.007
1022	0.007
1023	0.006
1023	0.006
1023	0.005
1024	0.004
1024	0.004
1025	0.003
1025	0.003
1026	0.002
1026	0.002
1026	0.002
1027	0.002
1027	0.002
1028	0.003
1028	0.003
1028	0.004
1029	0.004
1029	0.005
1030	0.005
1030	0.005
1031	0.005
1031	0.005
1031	0.005
1032	0.005
1032	0.005
1033	0.004
1033	0.003
1033	0.003
1034	0.002
1034	0.001
1035	0
1035	-0.001
1036	-0.002
1036	-0.002
1036	-0.003
1037	-0.003
1037	-0.003
1038	-0.004
1038	-0.004
1039	-0.004
1039	-0.003
1039	-0.003
1040	-0.003
1040	-0.003
1041	-0.004
1041	-0.004
1041	-0.005
1042	-0.005
1042	-0.006
1043	-0.006
1043	-0.007
1044	-0.008
1044	-0.008
1044	-0.009
1045	-0.009
1045	-0.01
1046	-0.01
1046	-0.01
1046	-0.01
1047	-0.009
1047	-0.009
1048	-0.008
1048	-0.008
1049	-0.007
1049	-0.007
1049	-0.006
1050	-0.006
1050	-0.005
1051	-0.004
1051	-0.004
1051	-0.003
1052	-0.002
1052	-0.001
1053	-0.001
1053	0
1053	0.001
1054	0.002
1054	0.003
1055	0.004
1055	0.004
1056	0.004
1056	0.003
1056	0.003
1057	0.002
1057	0.001
1058	0.001
1058	-0
1058	-0.001
1059	-0.002
1059	-0.003
1060	-0.004
1060	-0.005
1061	-0.005
1061	-0.005
1061	-0.005
1062	-0.005
1062	-0.006
1063	-0.006
1063	-0.007
1063	-0.006
1064	-0.006
1064	-0.006
1065	-0.006
1065	-0.006
1066	-0.005
1066	-0.005
1066	-0.004
1067	-0.003
1067	-0.002
1068	-0.001
1068	0
1068	0.001
1069	0.001
1069	0.002
1070	0.003
1070	0.003
1071	0.004
1071	0.005
1071	0.006
1072	0.007
1072	0.008
1073	0.01
1073	0.011
1073	0.012
1074	0.013
1074	0.014
1075	0.015
1075	0.015
1076	0.015
1076	0.016
1076	0.015
1077	0.015
1077	0.016
1078	0.016
1078	0.016
1078	0.017
1079	0.018
1079	0.019
1080	0.019
1080	0.021
1080	0.021
1081	0.023
1081	0.024
1082	0.025
1082	0.025
1083	0.025
1083	0.025
1083	0.026
1084	0.027
1084	0.028
1085	0.029
1085	0.03
1085	0.031
1086	0.032
1086	0.033
1087	0.034
1087	0.036
1088	0.037
1088	0.037
1088	0.039
1089	0.039
1089	0.04
1090	0.041
1090	0.043
1090	0.044
1091	0.045
1091	0.047
1092	0.048
1092	0.051
1092	0.053
1093	0.054
1093	0.056
1094	0.059
1094	0.061
1095	0.062
1095	0.065
1095	0.069
1096	0.072
1096	0.076
1097	0.08
1097	0.083
1097	0.088
1098	0.092
1098	0.096
1099	0.101
1099	0.108
1100	0.113
1100	0.119
1100	0.125
1101	0.132
1101	0.139
1102	0.149
1102	0.16
1102	0.171
1103	0.185
1103	0.199
1104	0.214
1104	0.231
1104	0.249
1105	0.27
1105	0.291
1106	0.314
1106	0.343
1107	0.373
1107	0.418
1107	0.475
1108	0.697
1108	1.427
1109	-0
1109	-0
1109	-0
1110	-0
1110	-0
1111	-0
1111	-0
