Data from 15c-2-2a_Absorbance__1099__02900.txt Node

Date: Wed Jan 24 13:40:31 CET 2024
User: Marek
Spectrometer: MAYP115816
Trigger mode: 0
Integration Time (sec): 2.000000E-1
Scans to average: 10
Electric dark correction enabled: true
Nonlinearity correction enabled: true
Boxcar width: 5
XAxis mode: Wavelengths
Number of Pixels in Spectrum: 2068
>>>>>Begin Spectral Data<<<<<
199	-1.763
199	-1.603
200	-1.444
200	-1.322
201	-1.249
201	-1.197
202	-1.127
202	-1.071
203	-1.022
203	-0.981
204	-0.953
204	-0.927
205	-0.905
205	-0.896
205	-0.894
206	-0.891
206	-0.89
207	-0.885
207	-0.883
208	-0.881
208	-0.879
209	-0.877
209	-0.878
210	-0.878
210	-0.876
211	-0.875
211	-0.875
212	-0.873
212	-0.871
213	-0.868
213	-0.866
213	-0.864
214	-0.862
214	-0.858
215	-0.857
215	-0.853
216	-0.852
216	-0.848
217	-0.847
217	-0.847
218	-0.848
218	-0.847
219	-0.845
219	-0.842
220	-0.84
220	-0.838
221	-0.839
221	-0.835
221	-0.831
222	-0.825
222	-0.818
223	-0.812
223	-0.807
224	-0.799
224	-0.791
225	-0.783
225	-0.773
226	-0.763
226	-0.752
227	-0.74
227	-0.728
228	-0.71
228	-0.693
229	-0.672
229	-0.65
229	-0.625
230	-0.596
230	-0.563
231	-0.53
231	-0.493
232	-0.455
232	-0.416
233	-0.377
233	-0.335
234	-0.295
234	-0.254
235	-0.215
235	-0.177
236	-0.142
236	-0.108
236	-0.076
237	-0.046
237	-0.018
238	0.007
238	0.031
239	0.052
239	0.072
240	0.089
240	0.104
241	0.118
241	0.131
242	0.143
242	0.153
243	0.163
243	0.171
243	0.178
244	0.185
244	0.191
245	0.197
245	0.202
246	0.207
246	0.212
247	0.216
247	0.22
248	0.223
248	0.227
249	0.23
249	0.233
250	0.236
250	0.239
250	0.242
251	0.244
251	0.246
252	0.249
252	0.251
253	0.253
253	0.255
254	0.257
254	0.258
255	0.26
255	0.261
256	0.263
256	0.264
257	0.265
257	0.266
258	0.267
258	0.267
258	0.268
259	0.268
259	0.269
260	0.269
260	0.269
261	0.269
261	0.269
262	0.269
262	0.269
263	0.269
263	0.268
264	0.268
264	0.267
265	0.267
265	0.266
265	0.266
266	0.265
266	0.264
267	0.263
267	0.262
268	0.261
268	0.259
269	0.258
269	0.256
270	0.255
270	0.253
271	0.251
271	0.25
272	0.248
272	0.246
272	0.245
273	0.243
273	0.241
274	0.239
274	0.238
275	0.236
275	0.234
276	0.233
276	0.231
277	0.229
277	0.227
278	0.225
278	0.223
278	0.221
279	0.218
279	0.216
280	0.214
280	0.212
281	0.21
281	0.208
282	0.206
282	0.205
283	0.203
283	0.202
284	0.201
284	0.199
285	0.198
285	0.196
285	0.195
286	0.193
286	0.192
287	0.19
287	0.189
288	0.188
288	0.186
289	0.185
289	0.183
290	0.182
290	0.181
291	0.18
291	0.179
292	0.178
292	0.177
292	0.176
293	0.175
293	0.174
294	0.173
294	0.172
295	0.171
295	0.171
296	0.17
296	0.169
297	0.168
297	0.168
298	0.167
298	0.166
298	0.166
299	0.165
299	0.164
300	0.164
300	0.163
301	0.163
301	0.162
302	0.161
302	0.161
303	0.161
303	0.16
304	0.16
304	0.159
305	0.159
305	0.158
305	0.158
306	0.158
306	0.157
307	0.157
307	0.156
308	0.155
308	0.155
309	0.154
309	0.154
310	0.153
310	0.153
311	0.152
311	0.152
311	0.151
312	0.151
312	0.151
313	0.15
313	0.149
314	0.149
314	0.148
315	0.148
315	0.147
316	0.147
316	0.146
317	0.146
317	0.145
318	0.145
318	0.144
318	0.144
319	0.143
319	0.143
320	0.142
320	0.142
321	0.141
321	0.141
322	0.14
322	0.14
323	0.139
323	0.139
324	0.139
324	0.138
324	0.138
325	0.137
325	0.137
326	0.136
326	0.136
327	0.135
327	0.135
328	0.134
328	0.134
329	0.134
329	0.133
330	0.133
330	0.132
330	0.132
331	0.132
331	0.131
332	0.131
332	0.13
333	0.129
333	0.129
334	0.128
334	0.128
335	0.128
335	0.127
336	0.127
336	0.126
336	0.126
337	0.126
337	0.125
338	0.125
338	0.125
339	0.124
339	0.124
340	0.124
340	0.123
341	0.123
341	0.122
342	0.122
342	0.122
342	0.122
343	0.121
343	0.121
344	0.12
344	0.12
345	0.12
345	0.119
346	0.119
346	0.119
347	0.119
347	0.118
348	0.118
348	0.118
348	0.118
349	0.117
349	0.117
350	0.117
350	0.117
351	0.116
351	0.116
352	0.115
352	0.115
353	0.114
353	0.114
354	0.113
354	0.113
354	0.113
355	0.112
355	0.112
356	0.111
356	0.111
357	0.111
357	0.111
358	0.11
358	0.11
359	0.11
359	0.111
360	0.111
360	0.111
360	0.111
361	0.112
361	0.112
362	0.112
362	0.112
363	0.112
363	0.112
364	0.112
364	0.112
365	0.112
365	0.111
366	0.111
366	0.111
366	0.111
367	0.111
367	0.11
368	0.11
368	0.11
369	0.11
369	0.11
370	0.109
370	0.109
371	0.109
371	0.109
372	0.109
372	0.109
372	0.109
373	0.109
373	0.109
374	0.109
374	0.108
375	0.108
375	0.108
376	0.108
376	0.108
377	0.108
377	0.108
378	0.108
378	0.108
378	0.108
379	0.108
379	0.108
380	0.108
380	0.108
381	0.108
381	0.108
382	0.108
382	0.108
383	0.107
383	0.107
383	0.107
384	0.107
384	0.107
385	0.107
385	0.107
386	0.107
386	0.107
387	0.107
387	0.107
388	0.106
388	0.106
389	0.106
389	0.106
389	0.106
390	0.106
390	0.106
391	0.107
391	0.107
392	0.107
392	0.107
393	0.106
393	0.106
394	0.106
394	0.106
394	0.106
395	0.106
395	0.106
396	0.105
396	0.105
397	0.105
397	0.105
398	0.105
398	0.105
399	0.105
399	0.105
400	0.104
400	0.104
400	0.104
401	0.104
401	0.104
402	0.103
402	0.103
403	0.103
403	0.103
404	0.103
404	0.103
405	0.103
405	0.102
405	0.102
406	0.102
406	0.102
407	0.102
407	0.102
408	0.102
408	0.101
409	0.101
409	0.101
410	0.101
410	0.101
411	0.101
411	0.101
411	0.101
412	0.101
412	0.101
413	0.101
413	0.101
414	0.1
414	0.1
415	0.1
415	0.1
416	0.1
416	0.099
416	0.099
417	0.099
417	0.099
418	0.099
418	0.099
419	0.099
419	0.099
420	0.099
420	0.099
421	0.1
421	0.1
421	0.1
422	0.1
422	0.1
423	0.1
423	0.1
424	0.099
424	0.099
425	0.099
425	0.098
426	0.098
426	0.098
427	0.098
427	0.098
427	0.098
428	0.098
428	0.098
429	0.099
429	0.099
430	0.099
430	0.099
431	0.099
431	0.098
432	0.098
432	0.098
432	0.098
433	0.097
433	0.097
434	0.097
434	0.097
435	0.097
435	0.097
436	0.097
436	0.097
437	0.097
437	0.096
437	0.096
438	0.096
438	0.096
439	0.096
439	0.096
440	0.096
440	0.096
441	0.096
441	0.096
442	0.096
442	0.096
442	0.096
443	0.096
443	0.096
444	0.096
444	0.097
445	0.097
445	0.097
446	0.097
446	0.097
447	0.097
447	0.097
447	0.096
448	0.096
448	0.096
449	0.096
449	0.096
450	0.096
450	0.096
451	0.096
451	0.096
452	0.095
452	0.095
452	0.095
453	0.095
453	0.094
454	0.094
454	0.093
455	0.093
455	0.093
456	0.092
456	0.092
457	0.092
457	0.092
458	0.091
458	0.092
458	0.092
459	0.092
459	0.092
460	0.092
460	0.092
461	0.092
461	0.092
462	0.092
462	0.093
463	0.093
463	0.093
463	0.094
464	0.094
464	0.093
465	0.093
465	0.093
466	0.093
466	0.093
467	0.093
467	0.093
467	0.092
468	0.092
468	0.091
469	0.091
469	0.091
470	0.091
470	0.091
471	0.091
471	0.091
472	0.091
472	0.091
472	0.092
473	0.092
473	0.093
474	0.094
474	0.094
475	0.094
475	0.094
476	0.094
476	0.095
477	0.095
477	0.095
477	0.095
478	0.095
478	0.095
479	0.096
479	0.096
480	0.097
480	0.098
481	0.098
481	0.099
482	0.099
482	0.1
482	0.101
483	0.102
483	0.103
484	0.105
484	0.105
485	0.105
485	0.106
486	0.107
486	0.107
487	0.107
487	0.107
487	0.108
488	0.108
488	0.107
489	0.107
489	0.107
490	0.108
490	0.108
491	0.108
491	0.109
492	0.11
492	0.111
492	0.112
493	0.112
493	0.114
494	0.115
494	0.116
495	0.117
495	0.117
496	0.118
496	0.119
496	0.12
497	0.12
497	0.121
498	0.121
498	0.122
499	0.122
499	0.123
500	0.124
500	0.125
501	0.126
501	0.127
501	0.128
502	0.129
502	0.13
503	0.131
503	0.132
504	0.133
504	0.133
505	0.134
505	0.134
506	0.134
506	0.135
506	0.135
507	0.135
507	0.136
508	0.136
508	0.137
509	0.138
509	0.138
510	0.139
510	0.14
511	0.14
511	0.14
511	0.141
512	0.141
512	0.141
513	0.142
513	0.142
514	0.141
514	0.141
515	0.142
515	0.142
515	0.142
516	0.142
516	0.143
517	0.144
517	0.144
518	0.145
518	0.145
519	0.145
519	0.144
520	0.144
520	0.143
520	0.142
521	0.141
521	0.139
522	0.138
522	0.137
523	0.137
523	0.137
524	0.137
524	0.138
524	0.139
525	0.141
525	0.142
526	0.143
526	0.145
527	0.146
527	0.147
528	0.147
528	0.148
529	0.148
529	0.148
529	0.148
530	0.147
530	0.147
531	0.147
531	0.147
532	0.146
532	0.145
533	0.145
533	0.144
533	0.144
534	0.143
534	0.142
535	0.142
535	0.141
536	0.14
536	0.14
537	0.139
537	0.138
538	0.137
538	0.136
538	0.135
539	0.134
539	0.133
540	0.132
540	0.131
541	0.13
541	0.129
542	0.128
542	0.126
542	0.125
543	0.124
543	0.123
544	0.122
544	0.121
545	0.12
545	0.119
546	0.119
546	0.118
547	0.117
547	0.115
547	0.114
548	0.113
548	0.111
549	0.11
549	0.109
550	0.108
550	0.106
551	0.104
551	0.103
551	0.102
552	0.101
552	0.1
553	0.099
553	0.099
554	0.098
554	0.097
555	0.095
555	0.094
556	0.092
556	0.091
556	0.09
557	0.088
557	0.087
558	0.086
558	0.084
559	0.083
559	0.082
560	0.081
560	0.08
560	0.08
561	0.079
561	0.079
562	0.078
562	0.078
563	0.077
563	0.076
564	0.074
564	0.073
564	0.072
565	0.071
565	0.07
566	0.069
566	0.068
567	0.067
567	0.067
568	0.067
568	0.067
568	0.067
569	0.068
569	0.069
570	0.069
570	0.068
571	0.069
571	0.069
572	0.069
572	0.069
573	0.068
573	0.068
573	0.066
574	0.066
574	0.065
575	0.065
575	0.065
576	0.065
576	0.064
577	0.063
577	0.062
577	0.061
578	0.061
578	0.061
579	0.062
579	0.062
580	0.062
580	0.06
581	0.058
581	0.057
581	0.056
582	0.056
582	0.056
583	0.057
583	0.056
584	0.054
584	0.051
585	0.05
585	0.051
585	0.051
586	0.051
586	0.051
587	0.05
587	0.048
588	0.047
588	0.046
589	0.045
589	0.046
590	0.045
590	0.045
590	0.046
591	0.046
591	0.046
592	0.046
592	0.045
593	0.045
593	0.045
594	0.044
594	0.043
594	0.042
595	0.042
595	0.041
596	0.04
596	0.041
597	0.043
597	0.043
598	0.044
598	0.044
598	0.045
599	0.045
599	0.045
600	0.044
600	0.044
601	0.043
601	0.043
602	0.042
602	0.041
602	0.041
603	0.041
603	0.042
604	0.043
604	0.043
605	0.044
605	0.045
606	0.045
606	0.044
606	0.043
607	0.043
607	0.042
608	0.042
608	0.041
609	0.04
609	0.04
610	0.039
610	0.038
610	0.038
611	0.039
611	0.04
612	0.041
612	0.042
613	0.043
613	0.044
614	0.044
614	0.043
614	0.044
615	0.043
615	0.043
616	0.043
616	0.043
617	0.042
617	0.041
618	0.041
618	0.04
618	0.04
619	0.041
619	0.042
620	0.043
620	0.044
621	0.044
621	0.045
622	0.045
622	0.046
622	0.046
623	0.046
623	0.047
624	0.048
624	0.047
625	0.047
625	0.047
626	0.047
626	0.047
626	0.047
627	0.048
627	0.048
628	0.048
628	0.048
629	0.048
629	0.048
630	0.048
630	0.047
630	0.048
631	0.049
631	0.049
632	0.05
632	0.05
633	0.051
633	0.052
634	0.053
634	0.055
634	0.056
635	0.058
635	0.059
636	0.06
636	0.061
637	0.062
637	0.063
638	0.064
638	0.065
638	0.066
639	0.066
639	0.067
640	0.068
640	0.07
641	0.071
641	0.072
642	0.074
642	0.076
642	0.077
643	0.078
643	0.079
644	0.08
644	0.081
645	0.081
645	0.082
646	0.083
646	0.084
646	0.086
647	0.087
647	0.089
648	0.091
648	0.093
649	0.095
649	0.097
650	0.098
650	0.1
650	0.102
651	0.103
651	0.104
652	0.106
652	0.107
653	0.109
653	0.116
653	0.122
654	0.1
654	0.083
655	0.084
655	0.085
656	0.087
656	0.088
657	0.089
657	0.09
657	0.091
658	0.089
658	0.083
659	0.103
659	0.131
660	0.137
660	0.139
661	0.14
661	0.141
661	0.143
662	0.146
662	0.148
663	0.15
663	0.152
664	0.154
664	0.156
665	0.158
665	0.16
665	0.162
666	0.164
666	0.165
667	0.166
667	0.168
668	0.169
668	0.171
669	0.173
669	0.175
669	0.178
670	0.18
670	0.182
671	0.183
671	0.185
672	0.187
672	0.188
672	0.189
673	0.191
673	0.192
674	0.192
674	0.193
675	0.193
675	0.194
676	0.195
676	0.196
676	0.196
677	0.197
677	0.199
678	0.199
678	0.2
679	0.2
679	0.201
680	0.202
680	0.203
680	0.203
681	0.204
681	0.205
682	0.205
682	0.205
683	0.206
683	0.208
684	0.209
684	0.209
684	0.209
685	0.21
685	0.211
686	0.211
686	0.211
687	0.211
687	0.212
687	0.211
688	0.211
688	0.21
689	0.21
689	0.21
690	0.209
690	0.208
691	0.208
691	0.208
691	0.207
692	0.206
692	0.206
693	0.205
693	0.206
694	0.205
694	0.204
695	0.204
695	0.205
695	0.205
696	0.204
696	0.203
697	0.203
697	0.202
698	0.201
698	0.2
698	0.199
699	0.198
699	0.197
700	0.195
700	0.194
701	0.194
701	0.193
702	0.192
702	0.191
702	0.19
703	0.189
703	0.187
704	0.186
704	0.185
705	0.184
705	0.182
705	0.181
706	0.179
706	0.178
707	0.176
707	0.174
708	0.173
708	0.171
709	0.17
709	0.168
709	0.166
710	0.163
710	0.162
711	0.16
711	0.159
712	0.157
712	0.156
713	0.155
713	0.154
713	0.153
714	0.151
714	0.15
715	0.149
715	0.148
716	0.147
716	0.146
716	0.145
717	0.145
717	0.144
718	0.143
718	0.141
719	0.141
719	0.14
720	0.138
720	0.137
720	0.135
721	0.132
721	0.13
722	0.128
722	0.125
723	0.124
723	0.122
723	0.12
724	0.118
724	0.117
725	0.115
725	0.114
726	0.113
726	0.112
727	0.11
727	0.109
727	0.108
728	0.106
728	0.105
729	0.104
729	0.103
730	0.101
730	0.1
730	0.098
731	0.097
731	0.096
732	0.095
732	0.094
733	0.093
733	0.093
734	0.092
734	0.091
734	0.09
735	0.089
735	0.088
736	0.086
736	0.085
737	0.084
737	0.083
737	0.082
738	0.08
738	0.077
739	0.075
739	0.074
740	0.072
740	0.071
741	0.069
741	0.067
741	0.064
742	0.061
742	0.059
743	0.057
743	0.055
744	0.053
744	0.051
744	0.049
745	0.047
745	0.046
746	0.045
746	0.044
747	0.043
747	0.044
748	0.044
748	0.044
748	0.044
749	0.044
749	0.044
750	0.044
750	0.044
751	0.044
751	0.044
751	0.044
752	0.043
752	0.042
753	0.041
753	0.04
754	0.039
754	0.038
754	0.038
755	0.038
755	0.038
756	0.038
756	0.037
757	0.036
757	0.037
758	0.037
758	0.037
758	0.037
759	0.037
759	0.035
760	0.034
760	0.033
761	0.033
761	0.033
761	0.033
762	0.032
762	0.031
763	0.03
763	0.029
764	0.027
764	0.025
764	0.024
765	0.023
765	0.021
766	0.02
766	0.019
767	0.018
767	0.016
768	0.014
768	0.012
768	0.012
769	0.011
769	0.01
770	0.008
770	0.007
771	0.005
771	0.003
771	0.001
772	-0.001
772	-0.002
773	-0.004
773	-0.006
774	-0.009
774	-0.011
775	-0.012
775	-0.013
775	-0.015
776	-0.017
776	-0.018
777	-0.02
777	-0.021
778	-0.023
778	-0.025
778	-0.027
779	-0.029
779	-0.03
780	-0.033
780	-0.037
781	-0.04
781	-0.044
781	-0.048
782	-0.053
782	-0.058
783	-0.063
783	-0.068
784	-0.074
784	-0.081
784	-0.088
785	-0.095
785	-0.102
786	-0.107
786	-0.109
787	-0.109
787	-0.109
788	-0.112
788	-0.116
788	-0.119
789	-0.122
789	-0.123
790	-0.122
790	-0.121
791	-0.123
791	-0.125
791	-0.128
792	-0.124
792	-0.113
793	-0.108
793	-0.104
794	-0.102
794	-0.103
794	-0.107
795	-0.109
795	-0.108
796	-0.108
796	-0.11
797	-0.118
797	-0.129
797	-0.135
798	-0.14
798	-0.142
799	-0.143
799	-0.143
800	-0.143
800	-0.145
801	-0.148
801	-0.15
801	-0.15
802	-0.151
802	-0.152
803	-0.153
803	-0.152
804	-0.151
804	-0.145
804	-0.138
805	-0.133
805	-0.131
806	-0.128
806	-0.126
807	-0.125
807	-0.124
807	-0.124
808	-0.124
808	-0.125
809	-0.13
809	-0.136
810	-0.14
810	-0.143
810	-0.147
811	-0.151
811	-0.152
812	-0.149
812	-0.147
813	-0.147
813	-0.148
813	-0.15
814	-0.151
814	-0.151
815	-0.148
815	-0.145
816	-0.143
816	-0.143
817	-0.147
817	-0.148
817	-0.146
818	-0.142
818	-0.136
819	-0.13
819	-0.124
820	-0.12
820	-0.116
820	-0.11
821	-0.103
821	-0.094
822	-0.086
822	-0.079
823	-0.072
823	-0.067
823	-0.062
824	-0.057
824	-0.051
825	-0.046
825	-0.04
826	-0.035
826	-0.032
826	-0.029
827	-0.026
827	-0.024
828	-0.021
828	-0.02
829	-0.018
829	-0.017
829	-0.017
830	-0.017
830	-0.017
831	-0.015
831	-0.015
832	-0.014
832	-0.013
832	-0.012
833	-0.011
833	-0.01
834	-0.009
834	-0.008
835	-0.007
835	-0.006
835	-0.006
836	-0.005
836	-0.005
837	-0.005
837	-0.004
838	-0.004
838	-0.005
839	-0.005
839	-0.005
839	-0.005
840	-0.006
840	-0.006
841	-0.005
841	-0.005
842	-0.004
842	-0.004
842	-0.003
843	-0.002
843	-0.001
844	-0
844	0.001
845	0.002
845	0.002
845	0.003
846	0.003
846	0.003
847	0.003
847	0.004
848	0.005
848	0.006
848	0.007
849	0.008
849	0.009
850	0.01
850	0.01
851	0.011
851	0.011
851	0.011
852	0.011
852	0.01
853	0.009
853	0.008
854	0.007
854	0.006
854	0.005
855	0.004
855	0.003
856	0.002
856	0.002
857	0.002
857	0.002
857	0.003
858	0.005
858	0.006
859	0.008
859	0.01
860	0.012
860	0.014
860	0.015
861	0.017
861	0.018
862	0.018
862	0.019
863	0.019
863	0.018
863	0.018
864	0.017
864	0.016
865	0.016
865	0.015
866	0.014
866	0.013
866	0.013
867	0.012
867	0.011
868	0.011
868	0.01
869	0.009
869	0.008
869	0.006
870	0.005
870	0.004
871	0.003
871	0.002
872	0.001
872	0
872	-0
873	-0
873	-0.001
874	-0
874	0
875	0.001
875	0.001
875	0.002
876	0.002
876	0.002
877	0.003
877	0.003
878	0.004
878	0.005
878	0.005
879	0.005
879	0.006
880	0.006
880	0.006
881	0.006
881	0.007
881	0.007
882	0.007
882	0.007
883	0.008
883	0.008
884	0.008
884	0.009
884	0.009
885	0.009
885	0.009
886	0.009
886	0.01
887	0.01
887	0.01
887	0.01
888	0.011
888	0.011
889	0.012
889	0.013
890	0.014
890	0.014
890	0.015
891	0.015
891	0.016
892	0.016
892	0.016
893	0.016
893	0.016
893	0.015
894	0.015
894	0.014
895	0.013
895	0.012
895	0.011
896	0.01
896	0.009
897	0.008
897	0.006
898	0.005
898	0.004
898	0.003
899	0.003
899	0.002
900	0.002
900	0.002
901	0.002
901	0.002
901	0.002
902	0.002
902	0.002
903	0.002
903	0.001
904	0.001
904	0
904	-0
905	-0.001
905	-0.001
906	-0.001
906	-0.001
907	-0
907	0
907	0.001
908	0.002
908	0.003
909	0.004
909	0.005
910	0.007
910	0.008
910	0.009
911	0.009
911	0.01
912	0.01
912	0.01
913	0.01
913	0.009
913	0.009
914	0.008
914	0.007
915	0.006
915	0.005
916	0.004
916	0.003
916	0.003
917	0.003
917	0.002
918	0.002
918	0.002
918	0.002
919	0.002
919	0.002
920	0.002
920	0.002
921	0.002
921	0.002
921	0.001
922	0.002
922	0.002
923	0.002
923	0.002
924	0.003
924	0.003
924	0.004
925	0.004
925	0.004
926	0.004
926	0.004
927	0.004
927	0.004
927	0.004
928	0.004
928	0.003
929	0.003
929	0.003
930	0.002
930	0.002
930	0.001
931	0.001
931	0.001
932	0
932	-0
933	-0
933	-0.001
933	-0.001
934	-0.002
934	-0.002
935	-0.003
935	-0.003
935	-0.003
936	-0.004
936	-0.004
937	-0.004
937	-0.004
938	-0.003
938	-0.003
938	-0.003
939	-0.002
939	-0.001
940	-0
940	0
941	0.001
941	0.002
941	0.003
942	0.003
942	0.004
943	0.004
943	0.005
944	0.005
944	0.006
944	0.006
945	0.007
945	0.008
946	0.008
946	0.008
946	0.009
947	0.009
947	0.01
948	0.01
948	0.01
949	0.01
949	0.01
949	0.011
950	0.011
950	0.011
951	0.012
951	0.012
952	0.013
952	0.014
952	0.014
953	0.015
953	0.015
954	0.015
954	0.015
955	0.015
955	0.015
955	0.015
956	0.014
956	0.013
957	0.012
957	0.011
957	0.01
958	0.009
958	0.008
959	0.008
959	0.006
960	0.005
960	0.004
960	0.002
961	0.001
961	-0
962	-0.002
962	-0.003
963	-0.004
963	-0.006
963	-0.007
964	-0.008
964	-0.008
965	-0.008
965	-0.008
966	-0.008
966	-0.008
966	-0.008
967	-0.007
967	-0.007
968	-0.007
968	-0.007
968	-0.006
969	-0.006
969	-0.006
970	-0.006
970	-0.006
971	-0.006
971	-0.005
971	-0.005
972	-0.004
972	-0.003
973	-0.002
973	-0.002
974	-0.001
974	0
974	0.001
975	0.002
975	0.003
976	0.004
976	0.004
976	0.004
977	0.004
977	0.003
978	0.003
978	0.002
979	0.001
979	0.001
979	-0
980	-0.001
980	-0.003
981	-0.004
981	-0.005
982	-0.005
982	-0.005
982	-0.006
983	-0.006
983	-0.006
984	-0.006
984	-0.006
984	-0.005
985	-0.004
985	-0.004
986	-0.003
986	-0.003
987	-0.002
987	-0.002
987	-0.001
988	-0.001
988	-0.001
989	-0.001
989	-0.001
990	-0.001
990	-0.001
990	-0.001
991	-0
991	0
992	0.001
992	0.001
992	0.002
993	0.002
993	0.003
994	0.003
994	0.003
995	0.004
995	0.004
995	0.004
996	0.003
996	0.003
997	0.002
997	0.002
997	0.001
998	0
998	0
999	-0
999	-0.001
1000	-0.001
1000	-0.001
1000	-0.002
1001	-0.002
1001	-0.002
1002	-0.002
1002	-0.002
1003	-0.003
1003	-0.003
1003	-0.003
1004	-0.004
1004	-0.004
1005	-0.005
1005	-0.005
1005	-0.006
1006	-0.006
1006	-0.007
1007	-0.007
1007	-0.008
1008	-0.008
1008	-0.008
1008	-0.008
1009	-0.009
1009	-0.009
1010	-0.009
1010	-0.008
1010	-0.008
1011	-0.008
1011	-0.008
1012	-0.008
1012	-0.007
1013	-0.007
1013	-0.007
1013	-0.007
1014	-0.007
1014	-0.006
1015	-0.006
1015	-0.006
1016	-0.005
1016	-0.005
1016	-0.005
1017	-0.004
1017	-0.004
1018	-0.003
1018	-0.003
1018	-0.002
1019	-0.002
1019	-0.002
1020	-0.002
1020	-0.002
1021	-0.002
1021	-0.003
1021	-0.003
1022	-0.003
1022	-0.004
1023	-0.004
1023	-0.004
1023	-0.005
1024	-0.006
1024	-0.006
1025	-0.007
1025	-0.007
1026	-0.007
1026	-0.007
1026	-0.007
1027	-0.007
1027	-0.007
1028	-0.007
1028	-0.006
1028	-0.006
1029	-0.006
1029	-0.005
1030	-0.005
1030	-0.005
1031	-0.005
1031	-0.005
1031	-0.005
1032	-0.005
1032	-0.005
1033	-0.006
1033	-0.006
1033	-0.007
1034	-0.008
1034	-0.009
1035	-0.01
1035	-0.011
1036	-0.012
1036	-0.012
1036	-0.013
1037	-0.014
1037	-0.014
1038	-0.014
1038	-0.014
1039	-0.014
1039	-0.014
1039	-0.014
1040	-0.014
1040	-0.014
1041	-0.014
1041	-0.014
1041	-0.015
1042	-0.015
1042	-0.016
1043	-0.016
1043	-0.017
1044	-0.018
1044	-0.018
1044	-0.018
1045	-0.019
1045	-0.019
1046	-0.019
1046	-0.019
1046	-0.019
1047	-0.019
1047	-0.018
1048	-0.018
1048	-0.017
1049	-0.017
1049	-0.017
1049	-0.016
1050	-0.016
1050	-0.016
1051	-0.015
1051	-0.014
1051	-0.013
1052	-0.012
1052	-0.011
1053	-0.011
1053	-0.01
1053	-0.009
1054	-0.008
1054	-0.007
1055	-0.006
1055	-0.006
1056	-0.006
1056	-0.006
1056	-0.007
1057	-0.008
1057	-0.009
1058	-0.009
1058	-0.01
1058	-0.011
1059	-0.012
1059	-0.012
1060	-0.013
1060	-0.014
1061	-0.014
1061	-0.014
1061	-0.014
1062	-0.015
1062	-0.016
1063	-0.016
1063	-0.017
1063	-0.017
1064	-0.017
1064	-0.017
1065	-0.016
1065	-0.017
1066	-0.016
1066	-0.016
1066	-0.015
1067	-0.015
1067	-0.014
1068	-0.013
1068	-0.012
1068	-0.011
1069	-0.011
1069	-0.01
1070	-0.01
1070	-0.009
1071	-0.008
1071	-0.007
1071	-0.007
1072	-0.006
1072	-0.005
1073	-0.004
1073	-0.002
1073	-0.002
1074	-0
1074	0
1075	0.001
1075	0.001
1076	0.001
1076	0.002
1076	0.001
1077	0.001
1077	0.002
1078	0.002
1078	0.002
1078	0.003
1079	0.004
1079	0.005
1080	0.005
1080	0.006
1080	0.007
1081	0.009
1081	0.01
1082	0.01
1082	0.01
1083	0.011
1083	0.011
1083	0.012
1084	0.013
1084	0.013
1085	0.014
1085	0.014
1085	0.015
1086	0.016
1086	0.016
1087	0.017
1087	0.018
1088	0.019
1088	0.019
1088	0.02
1089	0.021
1089	0.022
1090	0.023
1090	0.024
1090	0.024
1091	0.025
1091	0.027
1092	0.028
1092	0.029
1092	0.031
1093	0.031
1093	0.033
1094	0.035
1094	0.036
1095	0.038
1095	0.039
1095	0.043
1096	0.044
1096	0.047
1097	0.051
1097	0.053
1097	0.057
1098	0.06
1098	0.063
1099	0.067
1099	0.071
1100	0.077
1100	0.081
1100	0.086
1101	0.092
1101	0.097
1102	0.105
1102	0.112
1102	0.121
1103	0.13
1103	0.14
1104	0.153
1104	0.165
1104	0.179
1105	0.194
1105	0.208
1106	0.221
1106	0.24
1107	0.259
1107	0.287
1107	0.322
1108	0.445
1108	0.659
1109	1.357
1109	-0
1109	-0
1110	-0
1110	-0
1111	-0
1111	-0
