Data from 15c-2-2a_Absorbance__1163__02964.txt Node

Date: Wed Jan 24 13:42:39 CET 2024
User: Marek
Spectrometer: MAYP115816
Trigger mode: 0
Integration Time (sec): 2.000000E-1
Scans to average: 10
Electric dark correction enabled: true
Nonlinearity correction enabled: true
Boxcar width: 5
XAxis mode: Wavelengths
Number of Pixels in Spectrum: 2068
>>>>>Begin Spectral Data<<<<<
199	-1.763
199	-1.603
200	-1.444
200	-1.322
201	-1.249
201	-1.197
202	-1.127
202	-1.07
203	-1.021
203	-0.98
204	-0.951
204	-0.927
205	-0.904
205	-0.896
205	-0.893
206	-0.89
206	-0.889
207	-0.885
207	-0.882
208	-0.881
208	-0.88
209	-0.878
209	-0.878
210	-0.878
210	-0.876
211	-0.875
211	-0.875
212	-0.872
212	-0.87
213	-0.868
213	-0.867
213	-0.865
214	-0.862
214	-0.859
215	-0.858
215	-0.854
216	-0.852
216	-0.85
217	-0.848
217	-0.848
218	-0.849
218	-0.846
219	-0.844
219	-0.842
220	-0.84
220	-0.838
221	-0.838
221	-0.836
221	-0.832
222	-0.826
222	-0.819
223	-0.813
223	-0.808
224	-0.799
224	-0.791
225	-0.783
225	-0.773
226	-0.763
226	-0.751
227	-0.739
227	-0.728
228	-0.711
228	-0.693
229	-0.672
229	-0.65
229	-0.625
230	-0.595
230	-0.563
231	-0.529
231	-0.493
232	-0.455
232	-0.414
233	-0.375
233	-0.333
234	-0.293
234	-0.252
235	-0.212
235	-0.174
236	-0.139
236	-0.104
236	-0.071
237	-0.04
237	-0.012
238	0.015
238	0.038
239	0.061
239	0.081
240	0.098
240	0.114
241	0.129
241	0.142
242	0.154
242	0.164
243	0.174
243	0.182
243	0.19
244	0.197
244	0.203
245	0.209
245	0.214
246	0.219
246	0.224
247	0.228
247	0.232
248	0.236
248	0.239
249	0.243
249	0.246
250	0.249
250	0.252
250	0.255
251	0.257
251	0.26
252	0.262
252	0.264
253	0.266
253	0.268
254	0.27
254	0.272
255	0.273
255	0.275
256	0.276
256	0.277
257	0.278
257	0.279
258	0.28
258	0.281
258	0.281
259	0.282
259	0.282
260	0.282
260	0.282
261	0.282
261	0.283
262	0.282
262	0.282
263	0.282
263	0.281
264	0.281
264	0.28
265	0.28
265	0.279
265	0.278
266	0.278
266	0.277
267	0.276
267	0.274
268	0.273
268	0.272
269	0.27
269	0.269
270	0.267
270	0.266
271	0.264
271	0.263
272	0.261
272	0.259
272	0.258
273	0.256
273	0.254
274	0.252
274	0.251
275	0.249
275	0.248
276	0.246
276	0.244
277	0.242
277	0.24
278	0.238
278	0.236
278	0.233
279	0.23
279	0.228
280	0.226
280	0.224
281	0.222
281	0.22
282	0.218
282	0.216
283	0.215
283	0.214
284	0.212
284	0.211
285	0.21
285	0.208
285	0.207
286	0.205
286	0.204
287	0.203
287	0.201
288	0.2
288	0.198
289	0.197
289	0.196
290	0.194
290	0.193
291	0.192
291	0.191
292	0.19
292	0.189
292	0.188
293	0.187
293	0.186
294	0.185
294	0.184
295	0.183
295	0.182
296	0.181
296	0.181
297	0.18
297	0.179
298	0.178
298	0.178
298	0.177
299	0.176
299	0.176
300	0.175
300	0.175
301	0.174
301	0.173
302	0.173
302	0.172
303	0.172
303	0.171
304	0.17
304	0.17
305	0.17
305	0.169
305	0.169
306	0.168
306	0.168
307	0.167
307	0.167
308	0.166
308	0.166
309	0.165
309	0.164
310	0.164
310	0.163
311	0.163
311	0.162
311	0.162
312	0.161
312	0.161
313	0.16
313	0.16
314	0.159
314	0.159
315	0.158
315	0.158
316	0.157
316	0.157
317	0.156
317	0.156
318	0.155
318	0.155
318	0.154
319	0.154
319	0.153
320	0.152
320	0.152
321	0.151
321	0.151
322	0.151
322	0.15
323	0.149
323	0.149
324	0.148
324	0.148
324	0.148
325	0.147
325	0.147
326	0.146
326	0.146
327	0.145
327	0.145
328	0.144
328	0.144
329	0.143
329	0.143
330	0.142
330	0.142
330	0.141
331	0.141
331	0.14
332	0.14
332	0.139
333	0.139
333	0.138
334	0.138
334	0.137
335	0.137
335	0.136
336	0.136
336	0.136
336	0.135
337	0.135
337	0.135
338	0.134
338	0.134
339	0.133
339	0.133
340	0.133
340	0.132
341	0.132
341	0.131
342	0.131
342	0.131
342	0.13
343	0.13
343	0.13
344	0.129
344	0.129
345	0.129
345	0.128
346	0.128
346	0.128
347	0.128
347	0.127
348	0.127
348	0.127
348	0.127
349	0.126
349	0.126
350	0.126
350	0.126
351	0.125
351	0.125
352	0.124
352	0.124
353	0.124
353	0.123
354	0.123
354	0.122
354	0.122
355	0.121
355	0.121
356	0.12
356	0.12
357	0.119
357	0.119
358	0.119
358	0.119
359	0.118
359	0.119
360	0.119
360	0.119
360	0.119
361	0.12
361	0.12
362	0.12
362	0.12
363	0.12
363	0.12
364	0.12
364	0.12
365	0.12
365	0.12
366	0.12
366	0.119
366	0.119
367	0.119
367	0.119
368	0.119
368	0.118
369	0.118
369	0.118
370	0.118
370	0.118
371	0.117
371	0.117
372	0.117
372	0.117
372	0.117
373	0.117
373	0.117
374	0.117
374	0.117
375	0.117
375	0.117
376	0.116
376	0.116
377	0.116
377	0.117
378	0.117
378	0.117
378	0.117
379	0.117
379	0.117
380	0.117
380	0.117
381	0.117
381	0.116
382	0.116
382	0.116
383	0.116
383	0.116
383	0.116
384	0.116
384	0.116
385	0.115
385	0.115
386	0.115
386	0.115
387	0.115
387	0.115
388	0.115
388	0.115
389	0.114
389	0.114
389	0.114
390	0.114
390	0.114
391	0.114
391	0.115
392	0.115
392	0.115
393	0.114
393	0.114
394	0.114
394	0.114
394	0.114
395	0.114
395	0.114
396	0.113
396	0.113
397	0.113
397	0.113
398	0.113
398	0.113
399	0.113
399	0.113
400	0.113
400	0.112
400	0.112
401	0.112
401	0.112
402	0.111
402	0.111
403	0.111
403	0.111
404	0.111
404	0.111
405	0.11
405	0.11
405	0.11
406	0.11
406	0.11
407	0.11
407	0.11
408	0.109
408	0.109
409	0.109
409	0.109
410	0.109
410	0.109
411	0.109
411	0.109
411	0.109
412	0.109
412	0.109
413	0.108
413	0.108
414	0.108
414	0.108
415	0.108
415	0.108
416	0.108
416	0.107
416	0.107
417	0.107
417	0.107
418	0.107
418	0.107
419	0.107
419	0.107
420	0.107
420	0.107
421	0.107
421	0.107
421	0.107
422	0.108
422	0.108
423	0.108
423	0.107
424	0.107
424	0.107
425	0.106
425	0.106
426	0.105
426	0.105
427	0.105
427	0.105
427	0.105
428	0.106
428	0.106
429	0.106
429	0.106
430	0.106
430	0.106
431	0.106
431	0.106
432	0.106
432	0.106
432	0.105
433	0.105
433	0.105
434	0.104
434	0.104
435	0.104
435	0.104
436	0.104
436	0.104
437	0.104
437	0.104
437	0.104
438	0.103
438	0.103
439	0.103
439	0.103
440	0.103
440	0.103
441	0.103
441	0.103
442	0.103
442	0.103
442	0.104
443	0.104
443	0.104
444	0.104
444	0.104
445	0.104
445	0.105
446	0.105
446	0.104
447	0.104
447	0.104
447	0.104
448	0.104
448	0.104
449	0.104
449	0.103
450	0.103
450	0.103
451	0.103
451	0.103
452	0.103
452	0.102
452	0.102
453	0.102
453	0.102
454	0.101
454	0.101
455	0.1
455	0.1
456	0.1
456	0.099
457	0.099
457	0.099
458	0.099
458	0.099
458	0.099
459	0.099
459	0.1
460	0.1
460	0.099
461	0.099
461	0.099
462	0.1
462	0.1
463	0.1
463	0.101
463	0.101
464	0.101
464	0.101
465	0.101
465	0.101
466	0.101
466	0.101
467	0.101
467	0.101
467	0.1
468	0.099
468	0.099
469	0.098
469	0.098
470	0.098
470	0.098
471	0.099
471	0.099
472	0.099
472	0.099
472	0.1
473	0.1
473	0.101
474	0.101
474	0.101
475	0.102
475	0.102
476	0.102
476	0.102
477	0.102
477	0.103
477	0.103
478	0.103
478	0.103
479	0.104
479	0.104
480	0.105
480	0.106
481	0.106
481	0.107
482	0.108
482	0.108
482	0.109
483	0.11
483	0.112
484	0.113
484	0.114
485	0.114
485	0.115
486	0.115
486	0.116
487	0.116
487	0.116
487	0.117
488	0.116
488	0.116
489	0.116
489	0.116
490	0.116
490	0.117
491	0.117
491	0.118
492	0.119
492	0.119
492	0.12
493	0.121
493	0.122
494	0.124
494	0.125
495	0.126
495	0.126
496	0.127
496	0.128
496	0.129
497	0.13
497	0.131
498	0.131
498	0.132
499	0.132
499	0.133
500	0.134
500	0.135
501	0.136
501	0.137
501	0.138
502	0.139
502	0.14
503	0.141
503	0.142
504	0.143
504	0.143
505	0.144
505	0.144
506	0.145
506	0.145
506	0.146
507	0.146
507	0.146
508	0.147
508	0.147
509	0.148
509	0.149
510	0.15
510	0.151
511	0.151
511	0.151
511	0.151
512	0.152
512	0.153
513	0.153
513	0.153
514	0.153
514	0.153
515	0.153
515	0.153
515	0.153
516	0.154
516	0.155
517	0.155
517	0.156
518	0.156
518	0.156
519	0.156
519	0.156
520	0.155
520	0.154
520	0.154
521	0.152
521	0.151
522	0.15
522	0.149
523	0.149
523	0.149
524	0.149
524	0.15
524	0.151
525	0.153
525	0.154
526	0.156
526	0.157
527	0.158
527	0.159
528	0.159
528	0.16
529	0.16
529	0.16
529	0.16
530	0.159
530	0.159
531	0.158
531	0.158
532	0.157
532	0.156
533	0.156
533	0.155
533	0.154
534	0.154
534	0.153
535	0.152
535	0.151
536	0.151
536	0.15
537	0.149
537	0.149
538	0.148
538	0.147
538	0.146
539	0.145
539	0.144
540	0.143
540	0.142
541	0.141
541	0.139
542	0.138
542	0.137
542	0.136
543	0.134
543	0.133
544	0.132
544	0.131
545	0.13
545	0.13
546	0.129
546	0.128
547	0.127
547	0.125
547	0.124
548	0.122
548	0.121
549	0.12
549	0.118
550	0.117
550	0.116
551	0.114
551	0.112
551	0.111
552	0.11
552	0.109
553	0.108
553	0.107
554	0.106
554	0.105
555	0.103
555	0.102
556	0.1
556	0.098
556	0.097
557	0.096
557	0.095
558	0.093
558	0.092
559	0.091
559	0.09
560	0.089
560	0.087
560	0.087
561	0.086
561	0.086
562	0.085
562	0.084
563	0.083
563	0.082
564	0.08
564	0.079
564	0.078
565	0.077
565	0.076
566	0.075
566	0.074
567	0.073
567	0.072
568	0.072
568	0.072
568	0.073
569	0.073
569	0.074
570	0.074
570	0.073
571	0.074
571	0.074
572	0.074
572	0.074
573	0.073
573	0.073
573	0.071
574	0.071
574	0.07
575	0.07
575	0.07
576	0.07
576	0.069
577	0.067
577	0.066
577	0.066
578	0.065
578	0.065
579	0.066
579	0.067
580	0.066
580	0.064
581	0.062
581	0.061
581	0.06
582	0.06
582	0.06
583	0.061
583	0.06
584	0.058
584	0.055
585	0.054
585	0.055
585	0.055
586	0.055
586	0.055
587	0.053
587	0.052
588	0.051
588	0.05
589	0.049
589	0.049
590	0.049
590	0.048
590	0.049
591	0.05
591	0.05
592	0.049
592	0.048
593	0.048
593	0.048
594	0.047
594	0.046
594	0.046
595	0.046
595	0.044
596	0.044
596	0.045
597	0.046
597	0.047
598	0.047
598	0.048
598	0.048
599	0.049
599	0.048
600	0.048
600	0.047
601	0.046
601	0.046
602	0.045
602	0.044
602	0.044
603	0.044
603	0.045
604	0.046
604	0.046
605	0.047
605	0.048
606	0.048
606	0.047
606	0.046
607	0.046
607	0.045
608	0.045
608	0.044
609	0.043
609	0.043
610	0.042
610	0.041
610	0.041
611	0.042
611	0.043
612	0.044
612	0.045
613	0.046
613	0.047
614	0.047
614	0.046
614	0.047
615	0.046
615	0.046
616	0.046
616	0.045
617	0.045
617	0.044
618	0.043
618	0.043
618	0.043
619	0.043
619	0.045
620	0.046
620	0.047
621	0.047
621	0.048
622	0.048
622	0.049
622	0.049
623	0.049
623	0.05
624	0.051
624	0.05
625	0.05
625	0.05
626	0.05
626	0.05
626	0.05
627	0.051
627	0.051
628	0.051
628	0.051
629	0.052
629	0.052
630	0.051
630	0.051
630	0.052
631	0.052
631	0.053
632	0.053
632	0.054
633	0.055
633	0.055
634	0.056
634	0.058
634	0.059
635	0.061
635	0.062
636	0.063
636	0.064
637	0.065
637	0.066
638	0.067
638	0.068
638	0.069
639	0.07
639	0.071
640	0.072
640	0.073
641	0.075
641	0.076
642	0.078
642	0.079
642	0.081
643	0.082
643	0.083
644	0.084
644	0.085
645	0.085
645	0.086
646	0.087
646	0.089
646	0.09
647	0.092
647	0.094
648	0.095
648	0.097
649	0.099
649	0.101
650	0.103
650	0.105
650	0.106
651	0.108
651	0.109
652	0.11
652	0.112
653	0.114
653	0.121
653	0.128
654	0.105
654	0.087
655	0.088
655	0.089
656	0.09
656	0.092
657	0.093
657	0.094
657	0.095
658	0.093
658	0.087
659	0.108
659	0.137
660	0.144
660	0.145
661	0.147
661	0.148
661	0.15
662	0.153
662	0.155
663	0.157
663	0.16
664	0.162
664	0.163
665	0.165
665	0.167
665	0.169
666	0.171
666	0.172
667	0.174
667	0.175
668	0.177
668	0.178
669	0.18
669	0.183
669	0.186
670	0.188
670	0.19
671	0.192
671	0.193
672	0.195
672	0.196
672	0.197
673	0.199
673	0.2
674	0.201
674	0.201
675	0.201
675	0.202
676	0.203
676	0.204
676	0.204
677	0.206
677	0.207
678	0.207
678	0.208
679	0.209
679	0.21
680	0.211
680	0.212
680	0.212
681	0.213
681	0.213
682	0.214
682	0.214
683	0.215
683	0.217
684	0.218
684	0.218
684	0.218
685	0.219
685	0.22
686	0.22
686	0.22
687	0.221
687	0.221
687	0.221
688	0.22
688	0.219
689	0.219
689	0.219
690	0.219
690	0.218
691	0.217
691	0.217
691	0.216
692	0.215
692	0.215
693	0.214
693	0.215
694	0.214
694	0.213
695	0.213
695	0.214
695	0.214
696	0.213
696	0.212
697	0.211
697	0.21
698	0.21
698	0.208
698	0.207
699	0.207
699	0.205
700	0.203
700	0.203
701	0.202
701	0.202
702	0.201
702	0.2
702	0.199
703	0.197
703	0.196
704	0.194
704	0.193
705	0.192
705	0.191
705	0.189
706	0.187
706	0.186
707	0.184
707	0.182
708	0.181
708	0.179
709	0.178
709	0.176
709	0.173
710	0.171
710	0.169
711	0.168
711	0.166
712	0.165
712	0.163
713	0.162
713	0.161
713	0.16
714	0.158
714	0.157
715	0.156
715	0.155
716	0.153
716	0.153
716	0.152
717	0.151
717	0.15
718	0.149
718	0.147
719	0.147
719	0.146
720	0.144
720	0.143
720	0.141
721	0.138
721	0.136
722	0.134
722	0.131
723	0.129
723	0.128
723	0.126
724	0.124
724	0.122
725	0.12
725	0.119
726	0.118
726	0.117
727	0.115
727	0.114
727	0.113
728	0.111
728	0.11
729	0.109
729	0.108
730	0.106
730	0.105
730	0.103
731	0.102
731	0.101
732	0.1
732	0.099
733	0.098
733	0.097
734	0.096
734	0.095
734	0.094
735	0.094
735	0.092
736	0.09
736	0.089
737	0.088
737	0.087
737	0.086
738	0.083
738	0.081
739	0.079
739	0.078
740	0.076
740	0.074
741	0.073
741	0.07
741	0.068
742	0.065
742	0.062
743	0.06
743	0.058
744	0.056
744	0.054
744	0.052
745	0.051
745	0.049
746	0.048
746	0.047
747	0.047
747	0.047
748	0.047
748	0.047
748	0.047
749	0.047
749	0.047
750	0.047
750	0.047
751	0.047
751	0.047
751	0.047
752	0.046
752	0.045
753	0.043
753	0.042
754	0.042
754	0.041
754	0.041
755	0.041
755	0.041
756	0.04
756	0.039
757	0.038
757	0.039
758	0.039
758	0.039
758	0.039
759	0.038
759	0.037
760	0.036
760	0.035
761	0.035
761	0.035
761	0.035
762	0.034
762	0.033
763	0.033
763	0.031
764	0.029
764	0.028
764	0.026
765	0.025
765	0.023
766	0.022
766	0.021
767	0.02
767	0.018
768	0.016
768	0.015
768	0.014
769	0.013
769	0.012
770	0.011
770	0.009
771	0.007
771	0.005
771	0.003
772	0.002
772	-0
773	-0.002
773	-0.004
774	-0.007
774	-0.009
775	-0.01
775	-0.011
775	-0.013
776	-0.015
776	-0.016
777	-0.018
777	-0.019
778	-0.021
778	-0.023
778	-0.025
779	-0.027
779	-0.029
780	-0.032
780	-0.035
781	-0.038
781	-0.042
781	-0.046
782	-0.051
782	-0.056
783	-0.061
783	-0.066
784	-0.073
784	-0.079
784	-0.086
785	-0.093
785	-0.1
786	-0.105
786	-0.108
787	-0.107
787	-0.108
788	-0.112
788	-0.115
788	-0.119
789	-0.122
789	-0.123
790	-0.121
790	-0.121
791	-0.123
791	-0.125
791	-0.128
792	-0.124
792	-0.113
793	-0.108
793	-0.104
794	-0.102
794	-0.103
794	-0.107
795	-0.109
795	-0.108
796	-0.108
796	-0.11
797	-0.118
797	-0.129
797	-0.135
798	-0.14
798	-0.142
799	-0.143
799	-0.143
800	-0.143
800	-0.145
801	-0.148
801	-0.15
801	-0.15
802	-0.151
802	-0.152
803	-0.153
803	-0.152
804	-0.151
804	-0.145
804	-0.138
805	-0.133
805	-0.131
806	-0.128
806	-0.126
807	-0.125
807	-0.124
807	-0.124
808	-0.124
808	-0.125
809	-0.13
809	-0.136
810	-0.14
810	-0.143
810	-0.147
811	-0.151
811	-0.152
812	-0.149
812	-0.147
813	-0.147
813	-0.148
813	-0.15
814	-0.151
814	-0.151
815	-0.148
815	-0.145
816	-0.143
816	-0.143
817	-0.147
817	-0.149
817	-0.146
818	-0.142
818	-0.136
819	-0.13
819	-0.125
820	-0.121
820	-0.116
820	-0.111
821	-0.103
821	-0.095
822	-0.087
822	-0.079
823	-0.073
823	-0.067
823	-0.062
824	-0.057
824	-0.051
825	-0.045
825	-0.04
826	-0.035
826	-0.032
826	-0.029
827	-0.025
827	-0.023
828	-0.021
828	-0.019
829	-0.018
829	-0.017
829	-0.016
830	-0.016
830	-0.016
831	-0.015
831	-0.014
832	-0.013
832	-0.012
832	-0.011
833	-0.01
833	-0.009
834	-0.008
834	-0.007
835	-0.006
835	-0.006
835	-0.005
836	-0.004
836	-0.004
837	-0.004
837	-0.004
838	-0.004
838	-0.004
839	-0.004
839	-0.005
839	-0.005
840	-0.005
840	-0.005
841	-0.005
841	-0.005
842	-0.004
842	-0.003
842	-0.002
843	-0.002
843	-0.001
844	0.001
844	0.001
845	0.002
845	0.003
845	0.004
846	0.004
846	0.004
847	0.004
847	0.005
848	0.006
848	0.006
848	0.007
849	0.009
849	0.01
850	0.01
850	0.011
851	0.011
851	0.012
851	0.012
852	0.011
852	0.011
853	0.01
853	0.009
854	0.008
854	0.007
854	0.006
855	0.005
855	0.004
856	0.003
856	0.003
857	0.003
857	0.003
857	0.004
858	0.005
858	0.006
859	0.008
859	0.01
860	0.012
860	0.014
860	0.015
861	0.017
861	0.018
862	0.018
862	0.019
863	0.019
863	0.019
863	0.018
864	0.017
864	0.017
865	0.016
865	0.015
866	0.015
866	0.014
866	0.013
867	0.013
867	0.012
868	0.011
868	0.01
869	0.01
869	0.008
869	0.007
870	0.005
870	0.004
871	0.003
871	0.002
872	0.002
872	0.001
872	0
873	0
873	0
874	0
874	0.001
875	0.002
875	0.002
875	0.002
876	0.003
876	0.003
877	0.004
877	0.004
878	0.005
878	0.005
878	0.006
879	0.006
879	0.006
880	0.007
880	0.007
881	0.007
881	0.007
881	0.007
882	0.008
882	0.008
883	0.008
883	0.009
884	0.009
884	0.009
884	0.009
885	0.01
885	0.01
886	0.01
886	0.01
887	0.01
887	0.011
887	0.011
888	0.011
888	0.012
889	0.013
889	0.014
890	0.014
890	0.015
890	0.016
891	0.016
891	0.017
892	0.017
892	0.017
893	0.017
893	0.016
893	0.016
894	0.016
894	0.015
895	0.014
895	0.013
895	0.011
896	0.01
896	0.009
897	0.008
897	0.007
898	0.005
898	0.004
898	0.003
899	0.003
899	0.002
900	0.002
900	0.002
901	0.002
901	0.002
901	0.002
902	0.002
902	0.002
903	0.002
903	0.002
904	0.001
904	0.001
904	0
905	-0
905	-0
906	-0
906	-0
907	-0
907	0
907	0.001
908	0.002
908	0.003
909	0.004
909	0.006
910	0.007
910	0.008
910	0.009
911	0.009
911	0.01
912	0.01
912	0.011
913	0.01
913	0.01
913	0.009
914	0.008
914	0.007
915	0.006
915	0.005
916	0.005
916	0.004
916	0.004
917	0.003
917	0.003
918	0.003
918	0.003
918	0.003
919	0.002
919	0.002
920	0.002
920	0.002
921	0.002
921	0.002
921	0.001
922	0.002
922	0.002
923	0.002
923	0.002
924	0.003
924	0.003
924	0.004
925	0.004
925	0.005
926	0.005
926	0.005
927	0.005
927	0.004
927	0.004
928	0.004
928	0.004
929	0.003
929	0.003
930	0.002
930	0.002
930	0.002
931	0.001
931	0.001
932	0.001
932	0
933	0
933	-0
933	-0.001
934	-0.001
934	-0.002
935	-0.002
935	-0.003
935	-0.003
936	-0.003
936	-0.004
937	-0.003
937	-0.003
938	-0.003
938	-0.003
938	-0.003
939	-0.002
939	-0.001
940	-0
940	0
941	0.001
941	0.002
941	0.003
942	0.003
942	0.004
943	0.005
943	0.005
944	0.006
944	0.006
944	0.007
945	0.007
945	0.008
946	0.009
946	0.009
946	0.009
947	0.01
947	0.01
948	0.011
948	0.01
949	0.01
949	0.01
949	0.011
950	0.011
950	0.012
951	0.013
951	0.013
952	0.013
952	0.014
952	0.015
953	0.015
953	0.016
954	0.016
954	0.016
955	0.015
955	0.015
955	0.015
956	0.014
956	0.014
957	0.013
957	0.012
957	0.011
958	0.01
958	0.009
959	0.008
959	0.007
960	0.006
960	0.004
960	0.003
961	0.001
961	-0
962	-0.002
962	-0.003
963	-0.004
963	-0.005
963	-0.006
964	-0.007
964	-0.008
965	-0.008
965	-0.008
966	-0.008
966	-0.007
966	-0.007
967	-0.007
967	-0.006
968	-0.006
968	-0.006
968	-0.006
969	-0.006
969	-0.006
970	-0.006
970	-0.006
971	-0.006
971	-0.005
971	-0.005
972	-0.004
972	-0.003
973	-0.002
973	-0.002
974	-0.001
974	0.001
974	0.001
975	0.002
975	0.003
976	0.004
976	0.004
976	0.004
977	0.004
977	0.003
978	0.003
978	0.002
979	0.001
979	0.001
979	-0
980	-0.001
980	-0.003
981	-0.004
981	-0.004
982	-0.005
982	-0.005
982	-0.005
983	-0.006
983	-0.006
984	-0.006
984	-0.005
984	-0.005
985	-0.004
985	-0.003
986	-0.003
986	-0.002
987	-0.002
987	-0.001
987	-0.001
988	-0.001
988	-0
989	-0
989	-0.001
990	-0.001
990	-0.001
990	-0
991	0
991	0.001
992	0.001
992	0.001
992	0.002
993	0.002
993	0.003
994	0.003
994	0.004
995	0.004
995	0.004
995	0.004
996	0.004
996	0.003
997	0.002
997	0.002
997	0.001
998	0.001
998	0
999	-0
999	-0.001
1000	-0.001
1000	-0.002
1000	-0.002
1001	-0.002
1001	-0.002
1002	-0.002
1002	-0.002
1003	-0.002
1003	-0.002
1003	-0.002
1004	-0.003
1004	-0.003
1005	-0.004
1005	-0.004
1005	-0.005
1006	-0.006
1006	-0.006
1007	-0.007
1007	-0.007
1008	-0.008
1008	-0.008
1008	-0.008
1009	-0.008
1009	-0.008
1010	-0.008
1010	-0.008
1010	-0.008
1011	-0.008
1011	-0.007
1012	-0.007
1012	-0.007
1013	-0.007
1013	-0.006
1013	-0.006
1014	-0.006
1014	-0.006
1015	-0.006
1015	-0.005
1016	-0.005
1016	-0.005
1016	-0.004
1017	-0.004
1017	-0.003
1018	-0.003
1018	-0.003
1018	-0.002
1019	-0.001
1019	-0.001
1020	-0.001
1020	-0.001
1021	-0.002
1021	-0.002
1021	-0.003
1022	-0.003
1022	-0.003
1023	-0.003
1023	-0.004
1023	-0.005
1024	-0.005
1024	-0.006
1025	-0.006
1025	-0.006
1026	-0.007
1026	-0.006
1026	-0.007
1027	-0.006
1027	-0.006
1028	-0.006
1028	-0.006
1028	-0.005
1029	-0.005
1029	-0.004
1030	-0.004
1030	-0.004
1031	-0.004
1031	-0.004
1031	-0.004
1032	-0.005
1032	-0.005
1033	-0.005
1033	-0.006
1033	-0.007
1034	-0.008
1034	-0.009
1035	-0.01
1035	-0.01
1036	-0.011
1036	-0.012
1036	-0.012
1037	-0.012
1037	-0.013
1038	-0.013
1038	-0.013
1039	-0.013
1039	-0.013
1039	-0.013
1040	-0.013
1040	-0.013
1041	-0.013
1041	-0.014
1041	-0.015
1042	-0.015
1042	-0.016
1043	-0.017
1043	-0.017
1044	-0.018
1044	-0.018
1044	-0.018
1045	-0.019
1045	-0.019
1046	-0.019
1046	-0.019
1046	-0.019
1047	-0.019
1047	-0.018
1048	-0.018
1048	-0.017
1049	-0.017
1049	-0.017
1049	-0.016
1050	-0.015
1050	-0.015
1051	-0.014
1051	-0.014
1051	-0.013
1052	-0.012
1052	-0.011
1053	-0.011
1053	-0.009
1053	-0.009
1054	-0.008
1054	-0.007
1055	-0.006
1055	-0.006
1056	-0.006
1056	-0.007
1056	-0.007
1057	-0.008
1057	-0.008
1058	-0.009
1058	-0.01
1058	-0.011
1059	-0.012
1059	-0.013
1060	-0.014
1060	-0.014
1061	-0.014
1061	-0.015
1061	-0.015
1062	-0.015
1062	-0.016
1063	-0.016
1063	-0.016
1063	-0.017
1064	-0.017
1064	-0.016
1065	-0.016
1065	-0.017
1066	-0.016
1066	-0.016
1066	-0.015
1067	-0.014
1067	-0.013
1068	-0.012
1068	-0.012
1068	-0.011
1069	-0.01
1069	-0.01
1070	-0.009
1070	-0.008
1071	-0.008
1071	-0.007
1071	-0.006
1072	-0.005
1072	-0.004
1073	-0.003
1073	-0.001
1073	-0
1074	0
1074	0.001
1075	0.001
1075	0.002
1076	0.001
1076	0.002
1076	0.001
1077	0.001
1077	0.002
1078	0.002
1078	0.002
1078	0.003
1079	0.004
1079	0.005
1080	0.005
1080	0.006
1080	0.007
1081	0.009
1081	0.01
1082	0.011
1082	0.011
1083	0.011
1083	0.011
1083	0.012
1084	0.013
1084	0.014
1085	0.015
1085	0.015
1085	0.016
1086	0.017
1086	0.017
1087	0.018
1087	0.019
1088	0.019
1088	0.02
1088	0.021
1089	0.022
1089	0.022
1090	0.023
1090	0.024
1090	0.025
1091	0.025
1091	0.027
1092	0.028
1092	0.03
1092	0.031
1093	0.031
1093	0.034
1094	0.035
1094	0.037
1095	0.038
1095	0.04
1095	0.043
1096	0.046
1096	0.048
1097	0.051
1097	0.054
1097	0.058
1098	0.06
1098	0.063
1099	0.068
1099	0.073
1100	0.077
1100	0.081
1100	0.087
1101	0.092
1101	0.098
1102	0.105
1102	0.113
1102	0.122
1103	0.131
1103	0.141
1104	0.153
1104	0.166
1104	0.18
1105	0.194
1105	0.21
1106	0.225
1106	0.244
1107	0.263
1107	0.292
1107	0.328
1108	0.45
1108	0.67
1109	1.431
1109	-0
1109	-0
1110	-0
1110	-0
1111	-0
1111	-0
