Data from 15c-2-2a_Absorbance__2195__03996.txt Node

Date: Wed Jan 24 14:17:02 CET 2024
User: Marek
Spectrometer: MAYP115816
Trigger mode: 0
Integration Time (sec): 2.000000E-1
Scans to average: 10
Electric dark correction enabled: true
Nonlinearity correction enabled: true
Boxcar width: 5
XAxis mode: Wavelengths
Number of Pixels in Spectrum: 2068
>>>>>Begin Spectral Data<<<<<
199	-1.815
199	-1.655
200	-1.495
200	-1.372
201	-1.298
201	-1.245
202	-1.174
202	-1.116
203	-1.067
203	-1.025
204	-0.996
204	-0.97
205	-0.948
205	-0.939
205	-0.936
206	-0.932
206	-0.93
207	-0.926
207	-0.924
208	-0.922
208	-0.92
209	-0.918
209	-0.918
210	-0.917
210	-0.915
211	-0.914
211	-0.914
212	-0.913
212	-0.91
213	-0.908
213	-0.906
213	-0.904
214	-0.902
214	-0.898
215	-0.897
215	-0.893
216	-0.892
216	-0.889
217	-0.887
217	-0.887
218	-0.887
218	-0.886
219	-0.884
219	-0.881
220	-0.879
220	-0.877
221	-0.877
221	-0.874
221	-0.869
222	-0.863
222	-0.857
223	-0.85
223	-0.844
224	-0.835
224	-0.827
225	-0.819
225	-0.808
226	-0.798
226	-0.786
227	-0.773
227	-0.762
228	-0.743
228	-0.724
229	-0.703
229	-0.68
229	-0.653
230	-0.623
230	-0.589
231	-0.553
231	-0.514
232	-0.473
232	-0.43
233	-0.387
233	-0.341
234	-0.295
234	-0.25
235	-0.204
235	-0.16
236	-0.118
236	-0.076
236	-0.037
237	0.001
237	0.036
238	0.07
238	0.101
239	0.129
239	0.156
240	0.18
240	0.203
241	0.223
241	0.242
242	0.259
242	0.274
243	0.288
243	0.301
243	0.312
244	0.323
244	0.333
245	0.341
245	0.349
246	0.357
246	0.364
247	0.37
247	0.376
248	0.382
248	0.387
249	0.392
249	0.397
250	0.401
250	0.405
250	0.409
251	0.413
251	0.417
252	0.42
252	0.423
253	0.426
253	0.429
254	0.432
254	0.434
255	0.436
255	0.438
256	0.44
256	0.441
257	0.442
257	0.444
258	0.445
258	0.446
258	0.447
259	0.447
259	0.448
260	0.448
260	0.449
261	0.449
261	0.449
262	0.449
262	0.449
263	0.449
263	0.449
264	0.448
264	0.448
265	0.448
265	0.447
265	0.446
266	0.446
266	0.445
267	0.444
267	0.443
268	0.441
268	0.44
269	0.439
269	0.437
270	0.435
270	0.434
271	0.432
271	0.43
272	0.429
272	0.427
272	0.425
273	0.423
273	0.421
274	0.42
274	0.418
275	0.416
275	0.414
276	0.412
276	0.41
277	0.408
277	0.406
278	0.403
278	0.4
278	0.397
279	0.395
279	0.392
280	0.39
280	0.388
281	0.386
281	0.384
282	0.382
282	0.381
283	0.379
283	0.378
284	0.377
284	0.375
285	0.373
285	0.372
285	0.37
286	0.368
286	0.366
287	0.365
287	0.363
288	0.362
288	0.36
289	0.358
289	0.357
290	0.355
290	0.354
291	0.352
291	0.351
292	0.35
292	0.348
292	0.347
293	0.345
293	0.344
294	0.343
294	0.342
295	0.341
295	0.339
296	0.338
296	0.337
297	0.336
297	0.335
298	0.334
298	0.333
298	0.333
299	0.332
299	0.331
300	0.33
300	0.329
301	0.328
301	0.327
302	0.326
302	0.326
303	0.325
303	0.324
304	0.323
304	0.322
305	0.321
305	0.32
305	0.319
306	0.319
306	0.318
307	0.317
307	0.316
308	0.315
308	0.314
309	0.313
309	0.313
310	0.312
310	0.311
311	0.31
311	0.309
311	0.308
312	0.308
312	0.307
313	0.306
313	0.305
314	0.304
314	0.303
315	0.303
315	0.302
316	0.301
316	0.3
317	0.299
317	0.299
318	0.298
318	0.297
318	0.296
319	0.295
319	0.294
320	0.294
320	0.293
321	0.292
321	0.291
322	0.29
322	0.29
323	0.289
323	0.288
324	0.287
324	0.286
324	0.286
325	0.285
325	0.284
326	0.283
326	0.283
327	0.282
327	0.281
328	0.28
328	0.28
329	0.279
329	0.278
330	0.277
330	0.277
330	0.276
331	0.275
331	0.275
332	0.274
332	0.273
333	0.272
333	0.271
334	0.271
334	0.27
335	0.269
335	0.268
336	0.268
336	0.267
336	0.267
337	0.266
337	0.266
338	0.265
338	0.265
339	0.264
339	0.263
340	0.263
340	0.262
341	0.262
341	0.261
342	0.261
342	0.26
342	0.26
343	0.259
343	0.258
344	0.258
344	0.257
345	0.257
345	0.256
346	0.256
346	0.256
347	0.255
347	0.254
348	0.254
348	0.254
348	0.254
349	0.253
349	0.253
350	0.252
350	0.252
351	0.252
351	0.251
352	0.25
352	0.25
353	0.249
353	0.249
354	0.248
354	0.247
354	0.247
355	0.246
355	0.245
356	0.245
356	0.244
357	0.243
357	0.243
358	0.242
358	0.242
359	0.242
359	0.243
360	0.243
360	0.243
360	0.244
361	0.244
361	0.245
362	0.245
362	0.245
363	0.245
363	0.245
364	0.245
364	0.245
365	0.244
365	0.244
366	0.244
366	0.243
366	0.243
367	0.243
367	0.242
368	0.242
368	0.242
369	0.241
369	0.241
370	0.241
370	0.241
371	0.24
371	0.24
372	0.24
372	0.239
372	0.24
373	0.239
373	0.239
374	0.239
374	0.239
375	0.239
375	0.239
376	0.238
376	0.238
377	0.238
377	0.238
378	0.238
378	0.238
378	0.238
379	0.238
379	0.238
380	0.238
380	0.238
381	0.237
381	0.237
382	0.237
382	0.236
383	0.236
383	0.236
383	0.236
384	0.235
384	0.235
385	0.235
385	0.235
386	0.235
386	0.235
387	0.234
387	0.234
388	0.234
388	0.234
389	0.234
389	0.233
389	0.233
390	0.233
390	0.233
391	0.233
391	0.233
392	0.233
392	0.233
393	0.233
393	0.233
394	0.232
394	0.232
394	0.232
395	0.231
395	0.231
396	0.231
396	0.23
397	0.23
397	0.23
398	0.23
398	0.23
399	0.23
399	0.23
400	0.229
400	0.229
400	0.229
401	0.229
401	0.228
402	0.228
402	0.227
403	0.227
403	0.227
404	0.227
404	0.226
405	0.226
405	0.226
405	0.225
406	0.225
406	0.225
407	0.225
407	0.224
408	0.224
408	0.224
409	0.223
409	0.223
410	0.223
410	0.223
411	0.223
411	0.223
411	0.222
412	0.222
412	0.222
413	0.222
413	0.221
414	0.221
414	0.221
415	0.221
415	0.22
416	0.22
416	0.22
416	0.219
417	0.219
417	0.219
418	0.219
418	0.219
419	0.219
419	0.219
420	0.219
420	0.219
421	0.22
421	0.22
421	0.22
422	0.22
422	0.22
423	0.22
423	0.219
424	0.219
424	0.218
425	0.218
425	0.217
426	0.217
426	0.216
427	0.216
427	0.216
427	0.217
428	0.217
428	0.217
429	0.218
429	0.218
430	0.218
430	0.218
431	0.218
431	0.217
432	0.217
432	0.217
432	0.216
433	0.215
433	0.215
434	0.214
434	0.214
435	0.214
435	0.214
436	0.214
436	0.214
437	0.214
437	0.214
437	0.214
438	0.213
438	0.213
439	0.213
439	0.213
440	0.213
440	0.213
441	0.213
441	0.213
442	0.213
442	0.213
442	0.213
443	0.213
443	0.214
444	0.214
444	0.214
445	0.214
445	0.215
446	0.215
446	0.215
447	0.214
447	0.214
447	0.214
448	0.214
448	0.214
449	0.214
449	0.214
450	0.213
450	0.213
451	0.213
451	0.213
452	0.212
452	0.212
452	0.212
453	0.211
453	0.211
454	0.21
454	0.21
455	0.21
455	0.209
456	0.209
456	0.209
457	0.208
457	0.208
458	0.208
458	0.208
458	0.209
459	0.209
459	0.209
460	0.209
460	0.209
461	0.209
461	0.209
462	0.209
462	0.209
463	0.21
463	0.21
463	0.211
464	0.211
464	0.211
465	0.211
465	0.211
466	0.211
466	0.211
467	0.211
467	0.211
467	0.211
468	0.21
468	0.21
469	0.209
469	0.209
470	0.209
470	0.209
471	0.209
471	0.209
472	0.209
472	0.209
472	0.21
473	0.211
473	0.212
474	0.213
474	0.213
475	0.214
475	0.215
476	0.215
476	0.215
477	0.216
477	0.216
477	0.217
478	0.217
478	0.217
479	0.218
479	0.219
480	0.22
480	0.222
481	0.223
481	0.224
482	0.225
482	0.226
482	0.227
483	0.229
483	0.231
484	0.233
484	0.234
485	0.236
485	0.237
486	0.238
486	0.239
487	0.24
487	0.24
487	0.241
488	0.241
488	0.241
489	0.241
489	0.241
490	0.242
490	0.242
491	0.243
491	0.244
492	0.245
492	0.246
492	0.248
493	0.249
493	0.251
494	0.253
494	0.255
495	0.257
495	0.258
496	0.26
496	0.261
496	0.263
497	0.264
497	0.266
498	0.267
498	0.268
499	0.269
499	0.27
500	0.272
500	0.274
501	0.276
501	0.278
501	0.279
502	0.281
502	0.283
503	0.285
503	0.287
504	0.288
504	0.289
505	0.29
505	0.291
506	0.292
506	0.293
506	0.294
507	0.294
507	0.295
508	0.296
508	0.297
509	0.298
509	0.3
510	0.301
510	0.302
511	0.303
511	0.304
511	0.305
512	0.306
512	0.307
513	0.307
513	0.307
514	0.307
514	0.307
515	0.307
515	0.308
515	0.308
516	0.309
516	0.31
517	0.311
517	0.312
518	0.312
518	0.312
519	0.312
519	0.311
520	0.31
520	0.308
520	0.307
521	0.304
521	0.302
522	0.301
522	0.3
523	0.299
523	0.299
524	0.301
524	0.302
524	0.304
525	0.307
525	0.309
526	0.312
526	0.313
527	0.315
527	0.317
528	0.318
528	0.318
529	0.318
529	0.318
529	0.317
530	0.317
530	0.316
531	0.316
531	0.315
532	0.314
532	0.313
533	0.312
533	0.311
533	0.311
534	0.31
534	0.308
535	0.307
535	0.306
536	0.304
536	0.303
537	0.302
537	0.301
538	0.299
538	0.298
538	0.296
539	0.294
539	0.293
540	0.291
540	0.289
541	0.287
541	0.285
542	0.283
542	0.281
542	0.279
543	0.276
543	0.274
544	0.272
544	0.27
545	0.269
545	0.267
546	0.265
546	0.264
547	0.261
547	0.259
547	0.256
548	0.254
548	0.251
549	0.249
549	0.247
550	0.244
550	0.242
551	0.239
551	0.236
551	0.234
552	0.232
552	0.229
553	0.228
553	0.226
554	0.224
554	0.222
555	0.219
555	0.216
556	0.214
556	0.21
556	0.208
557	0.205
557	0.203
558	0.2
558	0.198
559	0.195
559	0.194
560	0.192
560	0.19
560	0.188
561	0.187
561	0.186
562	0.185
562	0.183
563	0.181
563	0.179
564	0.177
564	0.174
564	0.172
565	0.17
565	0.168
566	0.166
566	0.163
567	0.162
567	0.161
568	0.16
568	0.159
568	0.159
569	0.159
569	0.16
570	0.159
570	0.158
571	0.158
571	0.157
572	0.157
572	0.156
573	0.155
573	0.154
573	0.152
574	0.151
574	0.15
575	0.148
575	0.148
576	0.148
576	0.146
577	0.144
577	0.142
577	0.141
578	0.14
578	0.139
579	0.14
579	0.14
580	0.138
580	0.136
581	0.133
581	0.132
581	0.13
582	0.13
582	0.129
583	0.129
583	0.128
584	0.125
584	0.122
585	0.12
585	0.12
585	0.12
586	0.119
586	0.119
587	0.117
587	0.115
588	0.113
588	0.112
589	0.11
589	0.11
590	0.109
590	0.108
590	0.108
591	0.109
591	0.108
592	0.108
592	0.107
593	0.106
593	0.106
594	0.105
594	0.104
594	0.103
595	0.102
595	0.101
596	0.099
596	0.1
597	0.101
597	0.101
598	0.102
598	0.102
598	0.103
599	0.103
599	0.102
600	0.102
600	0.101
601	0.1
601	0.1
602	0.098
602	0.098
602	0.097
603	0.097
603	0.098
604	0.098
604	0.099
605	0.1
605	0.101
606	0.101
606	0.1
606	0.099
607	0.098
607	0.098
608	0.098
608	0.096
609	0.095
609	0.095
610	0.094
610	0.093
610	0.093
611	0.093
611	0.094
612	0.095
612	0.096
613	0.097
613	0.098
614	0.098
614	0.097
614	0.098
615	0.097
615	0.097
616	0.097
616	0.097
617	0.096
617	0.096
618	0.095
618	0.095
618	0.095
619	0.095
619	0.096
620	0.098
620	0.098
621	0.099
621	0.1
622	0.1
622	0.101
622	0.102
623	0.102
623	0.103
624	0.104
624	0.104
625	0.104
625	0.104
626	0.104
626	0.104
626	0.105
627	0.105
627	0.106
628	0.106
628	0.107
629	0.107
629	0.107
630	0.107
630	0.107
630	0.108
631	0.109
631	0.11
632	0.111
632	0.112
633	0.114
633	0.115
634	0.116
634	0.119
634	0.121
635	0.123
635	0.124
636	0.126
636	0.128
637	0.129
637	0.131
638	0.132
638	0.134
638	0.136
639	0.137
639	0.138
640	0.14
640	0.141
641	0.143
641	0.146
642	0.148
642	0.15
642	0.152
643	0.154
643	0.155
644	0.157
644	0.159
645	0.161
645	0.163
646	0.165
646	0.167
646	0.17
647	0.173
647	0.176
648	0.179
648	0.182
649	0.185
649	0.188
650	0.191
650	0.194
650	0.197
651	0.199
651	0.202
652	0.204
652	0.207
653	0.21
653	0.218
653	0.228
654	0.181
654	0.146
655	0.151
655	0.154
656	0.156
656	0.158
657	0.16
657	0.161
657	0.163
658	0.161
658	0.152
659	0.193
659	0.25
660	0.256
660	0.259
661	0.261
661	0.264
661	0.267
662	0.271
662	0.274
663	0.278
663	0.281
664	0.284
664	0.287
665	0.291
665	0.294
665	0.297
666	0.3
666	0.302
667	0.305
667	0.307
668	0.31
668	0.313
669	0.316
669	0.32
669	0.324
670	0.328
670	0.331
671	0.334
671	0.336
672	0.339
672	0.341
672	0.343
673	0.345
673	0.347
674	0.348
674	0.349
675	0.35
675	0.351
676	0.353
676	0.355
676	0.356
677	0.358
677	0.361
678	0.362
678	0.364
679	0.365
679	0.367
680	0.369
680	0.37
680	0.371
681	0.372
681	0.373
682	0.373
682	0.374
683	0.376
683	0.378
684	0.379
684	0.38
684	0.381
685	0.382
685	0.383
686	0.384
686	0.384
687	0.385
687	0.385
687	0.384
688	0.384
688	0.383
689	0.382
689	0.382
690	0.381
690	0.38
691	0.38
691	0.379
691	0.378
692	0.377
692	0.376
693	0.376
693	0.376
694	0.375
694	0.373
695	0.373
695	0.374
695	0.373
696	0.372
696	0.371
697	0.369
697	0.368
698	0.367
698	0.365
698	0.363
699	0.362
699	0.36
700	0.357
700	0.355
701	0.354
701	0.353
702	0.351
702	0.349
702	0.348
703	0.345
703	0.343
704	0.341
704	0.339
705	0.337
705	0.335
705	0.332
706	0.33
706	0.328
707	0.325
707	0.322
708	0.32
708	0.317
709	0.315
709	0.312
709	0.309
710	0.305
710	0.302
711	0.3
711	0.297
712	0.295
712	0.293
713	0.291
713	0.289
713	0.287
714	0.285
714	0.282
715	0.281
715	0.278
716	0.276
716	0.274
716	0.272
717	0.27
717	0.268
718	0.266
718	0.263
719	0.261
719	0.259
720	0.257
720	0.254
720	0.251
721	0.247
721	0.244
722	0.241
722	0.238
723	0.235
723	0.232
723	0.23
724	0.227
724	0.225
725	0.222
725	0.22
726	0.217
726	0.215
727	0.213
727	0.21
727	0.208
728	0.206
728	0.203
729	0.202
729	0.2
730	0.197
730	0.195
730	0.193
731	0.19
731	0.188
732	0.187
732	0.185
733	0.184
733	0.182
734	0.181
734	0.179
734	0.177
735	0.176
735	0.174
736	0.172
736	0.17
737	0.168
737	0.166
737	0.164
738	0.161
738	0.157
739	0.154
739	0.152
740	0.148
740	0.146
741	0.143
741	0.14
741	0.137
742	0.132
742	0.128
743	0.126
743	0.123
744	0.12
744	0.117
744	0.115
745	0.112
745	0.11
746	0.108
746	0.106
747	0.105
747	0.105
748	0.104
748	0.104
748	0.103
749	0.102
749	0.102
750	0.101
750	0.1
751	0.1
751	0.099
751	0.099
752	0.097
752	0.096
753	0.094
753	0.093
754	0.092
754	0.09
754	0.09
755	0.089
755	0.089
756	0.088
756	0.087
757	0.086
757	0.086
758	0.086
758	0.085
758	0.085
759	0.084
759	0.082
760	0.081
760	0.079
761	0.078
761	0.078
761	0.077
762	0.075
762	0.074
763	0.073
763	0.071
764	0.069
764	0.067
764	0.065
765	0.063
765	0.06
766	0.059
766	0.057
767	0.056
767	0.053
768	0.05
768	0.048
768	0.047
769	0.045
769	0.044
770	0.042
770	0.04
771	0.038
771	0.035
771	0.033
772	0.031
772	0.029
773	0.026
773	0.024
774	0.021
774	0.019
775	0.017
775	0.015
775	0.012
776	0.01
776	0.008
777	0.006
777	0.004
778	0.001
778	-0.002
778	-0.005
779	-0.007
779	-0.009
780	-0.013
780	-0.017
781	-0.021
781	-0.025
781	-0.03
782	-0.036
782	-0.042
783	-0.048
783	-0.055
784	-0.062
784	-0.07
784	-0.078
785	-0.087
785	-0.095
786	-0.102
786	-0.105
787	-0.106
787	-0.107
788	-0.111
788	-0.115
788	-0.118
789	-0.122
789	-0.123
790	-0.121
790	-0.121
791	-0.122
791	-0.125
791	-0.127
792	-0.123
792	-0.113
793	-0.107
793	-0.103
794	-0.102
794	-0.103
794	-0.106
795	-0.108
795	-0.108
796	-0.108
796	-0.11
797	-0.118
797	-0.128
797	-0.134
798	-0.139
798	-0.142
799	-0.143
799	-0.142
800	-0.142
800	-0.144
801	-0.148
801	-0.149
801	-0.149
802	-0.151
802	-0.152
803	-0.152
803	-0.152
804	-0.15
804	-0.145
804	-0.138
805	-0.133
805	-0.13
806	-0.127
806	-0.125
807	-0.124
807	-0.123
807	-0.123
808	-0.123
808	-0.124
809	-0.129
809	-0.135
810	-0.139
810	-0.143
810	-0.147
811	-0.15
811	-0.152
812	-0.148
812	-0.146
813	-0.147
813	-0.148
813	-0.149
814	-0.15
814	-0.15
815	-0.148
815	-0.145
816	-0.142
816	-0.142
817	-0.146
817	-0.149
817	-0.147
818	-0.143
818	-0.138
819	-0.131
819	-0.125
820	-0.121
820	-0.117
820	-0.111
821	-0.103
821	-0.094
822	-0.085
822	-0.076
823	-0.068
823	-0.062
823	-0.056
824	-0.05
824	-0.043
825	-0.037
825	-0.03
826	-0.024
826	-0.02
826	-0.016
827	-0.013
827	-0.01
828	-0.007
828	-0.005
829	-0.004
829	-0.003
829	-0.003
830	-0.003
830	-0.002
831	-0.001
831	-0
832	-0
832	0.001
832	0.002
833	0.003
833	0.004
834	0.005
834	0.006
835	0.007
835	0.008
835	0.008
836	0.009
836	0.01
837	0.01
837	0.01
838	0.01
838	0.011
839	0.011
839	0.01
839	0.01
840	0.01
840	0.01
841	0.01
841	0.011
842	0.011
842	0.012
842	0.013
843	0.013
843	0.014
844	0.015
844	0.016
845	0.017
845	0.017
845	0.018
846	0.018
846	0.018
847	0.018
847	0.018
848	0.019
848	0.019
848	0.02
849	0.021
849	0.022
850	0.023
850	0.023
851	0.023
851	0.024
851	0.024
852	0.023
852	0.023
853	0.022
853	0.021
854	0.02
854	0.019
854	0.018
855	0.017
855	0.016
856	0.015
856	0.015
857	0.015
857	0.016
857	0.017
858	0.018
858	0.019
859	0.02
859	0.022
860	0.024
860	0.026
860	0.027
861	0.029
861	0.03
862	0.03
862	0.031
863	0.031
863	0.031
863	0.031
864	0.03
864	0.029
865	0.029
865	0.029
866	0.028
866	0.027
866	0.027
867	0.027
867	0.026
868	0.026
868	0.025
869	0.024
869	0.023
869	0.022
870	0.02
870	0.019
871	0.018
871	0.017
872	0.016
872	0.015
872	0.014
873	0.014
873	0.014
874	0.014
874	0.014
875	0.015
875	0.016
875	0.016
876	0.017
876	0.017
877	0.018
877	0.019
878	0.019
878	0.02
878	0.02
879	0.021
879	0.021
880	0.021
880	0.021
881	0.021
881	0.021
881	0.021
882	0.021
882	0.021
883	0.022
883	0.022
884	0.022
884	0.022
884	0.022
885	0.022
885	0.022
886	0.022
886	0.022
887	0.022
887	0.022
887	0.022
888	0.023
888	0.023
889	0.024
889	0.025
890	0.026
890	0.026
890	0.027
891	0.028
891	0.028
892	0.028
892	0.028
893	0.028
893	0.028
893	0.028
894	0.027
894	0.026
895	0.025
895	0.024
895	0.022
896	0.021
896	0.02
897	0.018
897	0.017
898	0.016
898	0.015
898	0.013
899	0.013
899	0.012
900	0.012
900	0.012
901	0.012
901	0.012
901	0.012
902	0.012
902	0.012
903	0.012
903	0.011
904	0.011
904	0.01
904	0.01
905	0.01
905	0.01
906	0.01
906	0.011
907	0.011
907	0.012
907	0.012
908	0.013
908	0.014
909	0.016
909	0.017
910	0.018
910	0.019
910	0.02
911	0.021
911	0.021
912	0.021
912	0.021
913	0.021
913	0.021
913	0.02
914	0.02
914	0.019
915	0.018
915	0.017
916	0.017
916	0.016
916	0.016
917	0.016
917	0.016
918	0.016
918	0.015
918	0.015
919	0.015
919	0.015
920	0.015
920	0.014
921	0.014
921	0.013
921	0.012
922	0.012
922	0.012
923	0.012
923	0.013
924	0.013
924	0.013
924	0.014
925	0.014
925	0.014
926	0.015
926	0.015
927	0.015
927	0.015
927	0.014
928	0.014
928	0.014
929	0.014
929	0.013
930	0.013
930	0.013
930	0.013
931	0.012
931	0.012
932	0.012
932	0.012
933	0.011
933	0.011
933	0.011
934	0.01
934	0.01
935	0.009
935	0.009
935	0.009
936	0.009
936	0.008
937	0.008
937	0.008
938	0.009
938	0.009
938	0.009
939	0.01
939	0.01
940	0.011
940	0.011
941	0.012
941	0.012
941	0.013
942	0.014
942	0.014
943	0.014
943	0.014
944	0.015
944	0.015
944	0.016
945	0.016
945	0.017
946	0.017
946	0.017
946	0.018
947	0.019
947	0.019
948	0.02
948	0.02
949	0.02
949	0.021
949	0.022
950	0.022
950	0.023
951	0.024
951	0.025
952	0.025
952	0.026
952	0.027
953	0.028
953	0.028
954	0.028
954	0.028
955	0.028
955	0.027
955	0.027
956	0.026
956	0.026
957	0.024
957	0.023
957	0.022
958	0.021
958	0.02
959	0.019
959	0.018
960	0.017
960	0.015
960	0.013
961	0.012
961	0.011
962	0.009
962	0.008
963	0.007
963	0.006
963	0.005
964	0.004
964	0.003
965	0.003
965	0.003
966	0.003
966	0.003
966	0.004
967	0.004
967	0.004
968	0.004
968	0.004
968	0.004
969	0.004
969	0.004
970	0.004
970	0.004
971	0.004
971	0.005
971	0.005
972	0.006
972	0.007
973	0.007
973	0.008
974	0.009
974	0.01
974	0.011
975	0.011
975	0.012
976	0.013
976	0.013
976	0.013
977	0.012
977	0.012
978	0.011
978	0.011
979	0.01
979	0.009
979	0.008
980	0.007
980	0.006
981	0.005
981	0.004
982	0.003
982	0.003
982	0.003
983	0.003
983	0.002
984	0.002
984	0.003
984	0.003
985	0.004
985	0.005
986	0.005
986	0.006
987	0.006
987	0.007
987	0.008
988	0.008
988	0.009
989	0.009
989	0.009
990	0.009
990	0.009
990	0.009
991	0.01
991	0.01
992	0.01
992	0.01
992	0.011
993	0.011
993	0.011
994	0.012
994	0.012
995	0.012
995	0.012
995	0.012
996	0.012
996	0.011
997	0.011
997	0.01
997	0.01
998	0.009
998	0.009
999	0.008
999	0.007
1000	0.007
1000	0.007
1000	0.006
1001	0.006
1001	0.006
1002	0.006
1002	0.005
1003	0.005
1003	0.005
1003	0.004
1004	0.004
1004	0.004
1005	0.003
1005	0.003
1005	0.002
1006	0.002
1006	0.001
1007	0
1007	0
1008	-0
1008	-0.001
1008	-0.001
1009	-0.001
1009	-0.001
1010	-0.002
1010	-0.002
1010	-0.002
1011	-0.002
1011	-0.001
1012	-0.001
1012	-0.001
1013	-0
1013	-0
1013	0
1014	0.001
1014	0.001
1015	0.002
1015	0.002
1016	0.003
1016	0.003
1016	0.004
1017	0.005
1017	0.005
1018	0.006
1018	0.006
1018	0.007
1019	0.007
1019	0.008
1020	0.008
1020	0.008
1021	0.008
1021	0.007
1021	0.007
1022	0.007
1022	0.006
1023	0.006
1023	0.005
1023	0.005
1024	0.004
1024	0.003
1025	0.003
1025	0.002
1026	0.002
1026	0.002
1026	0.002
1027	0.002
1027	0.003
1028	0.003
1028	0.003
1028	0.004
1029	0.004
1029	0.005
1030	0.005
1030	0.005
1031	0.005
1031	0.005
1031	0.005
1032	0.005
1032	0.005
1033	0.005
1033	0.004
1033	0.003
1034	0.002
1034	0.001
1035	0
1035	-0
1036	-0.001
1036	-0.002
1036	-0.002
1037	-0.002
1037	-0.003
1038	-0.003
1038	-0.003
1039	-0.003
1039	-0.003
1039	-0.003
1040	-0.003
1040	-0.003
1041	-0.004
1041	-0.004
1041	-0.005
1042	-0.006
1042	-0.006
1043	-0.007
1043	-0.007
1044	-0.008
1044	-0.009
1044	-0.009
1045	-0.009
1045	-0.01
1046	-0.01
1046	-0.01
1046	-0.01
1047	-0.009
1047	-0.009
1048	-0.008
1048	-0.007
1049	-0.007
1049	-0.007
1049	-0.006
1050	-0.006
1050	-0.005
1051	-0.005
1051	-0.004
1051	-0.003
1052	-0.002
1052	-0.001
1053	-0.001
1053	0
1053	0.001
1054	0.002
1054	0.003
1055	0.004
1055	0.004
1056	0.004
1056	0.003
1056	0.003
1057	0.002
1057	0.001
1058	0.001
1058	-0
1058	-0.001
1059	-0.002
1059	-0.002
1060	-0.003
1060	-0.004
1061	-0.004
1061	-0.004
1061	-0.004
1062	-0.005
1062	-0.006
1063	-0.006
1063	-0.007
1063	-0.007
1064	-0.007
1064	-0.006
1065	-0.006
1065	-0.006
1066	-0.005
1066	-0.005
1066	-0.004
1067	-0.003
1067	-0.002
1068	-0
1068	0.001
1068	0.001
1069	0.001
1069	0.002
1070	0.003
1070	0.003
1071	0.004
1071	0.005
1071	0.006
1072	0.007
1072	0.008
1073	0.009
1073	0.011
1073	0.011
1074	0.013
1074	0.014
1075	0.015
1075	0.015
1076	0.015
1076	0.016
1076	0.016
1077	0.016
1077	0.016
1078	0.016
1078	0.017
1078	0.018
1079	0.018
1079	0.019
1080	0.019
1080	0.02
1080	0.021
1081	0.023
1081	0.024
1082	0.024
1082	0.024
1083	0.025
1083	0.025
1083	0.026
1084	0.026
1084	0.028
1085	0.029
1085	0.03
1085	0.031
1086	0.032
1086	0.032
1087	0.034
1087	0.035
1088	0.036
1088	0.036
1088	0.038
1089	0.039
1089	0.04
1090	0.041
1090	0.042
1090	0.043
1091	0.044
1091	0.047
1092	0.048
1092	0.051
1092	0.053
1093	0.054
1093	0.057
1094	0.059
1094	0.061
1095	0.062
1095	0.065
1095	0.07
1096	0.073
1096	0.076
1097	0.079
1097	0.083
1097	0.088
1098	0.091
1098	0.095
1099	0.099
1099	0.105
1100	0.111
1100	0.115
1100	0.122
1101	0.129
1101	0.137
1102	0.147
1102	0.157
1102	0.17
1103	0.183
1103	0.198
1104	0.214
1104	0.23
1104	0.252
1105	0.271
1105	0.294
1106	0.315
1106	0.342
1107	0.373
1107	0.417
1107	0.474
1108	0.692
1108	1.409
1109	-0
1109	-0
1109	-0
1110	-0
1110	-0
1111	-0
1111	-0
