Data from 15c-2-2a_Absorbance__1950__03751.txt Node

Date: Wed Jan 24 14:08:52 CET 2024
User: Marek
Spectrometer: MAYP115816
Trigger mode: 0
Integration Time (sec): 2.000000E-1
Scans to average: 10
Electric dark correction enabled: true
Nonlinearity correction enabled: true
Boxcar width: 5
XAxis mode: Wavelengths
Number of Pixels in Spectrum: 2068
>>>>>Begin Spectral Data<<<<<
199	-1.822
199	-1.661
200	-1.501
200	-1.377
201	-1.303
201	-1.25
202	-1.178
202	-1.12
203	-1.07
203	-1.028
204	-0.998
204	-0.973
205	-0.95
205	-0.94
205	-0.939
206	-0.935
206	-0.933
207	-0.929
207	-0.926
208	-0.925
208	-0.923
209	-0.922
209	-0.922
210	-0.921
210	-0.92
211	-0.918
211	-0.918
212	-0.915
212	-0.913
213	-0.91
213	-0.908
213	-0.906
214	-0.903
214	-0.899
215	-0.898
215	-0.894
216	-0.893
216	-0.89
217	-0.889
217	-0.89
218	-0.89
218	-0.889
219	-0.887
219	-0.884
220	-0.882
220	-0.879
221	-0.879
221	-0.876
221	-0.872
222	-0.866
222	-0.859
223	-0.852
223	-0.846
224	-0.838
224	-0.829
225	-0.821
225	-0.811
226	-0.801
226	-0.789
227	-0.777
227	-0.764
228	-0.746
228	-0.728
229	-0.706
229	-0.683
229	-0.656
230	-0.626
230	-0.592
231	-0.556
231	-0.517
232	-0.476
232	-0.434
233	-0.39
233	-0.344
234	-0.299
234	-0.254
235	-0.208
235	-0.164
236	-0.122
236	-0.081
236	-0.042
237	-0.005
237	0.03
238	0.063
238	0.094
239	0.122
239	0.148
240	0.171
240	0.193
241	0.213
241	0.232
242	0.248
242	0.263
243	0.277
243	0.29
243	0.301
244	0.312
244	0.321
245	0.33
245	0.337
246	0.345
246	0.352
247	0.358
247	0.364
248	0.369
248	0.375
249	0.38
249	0.384
250	0.388
250	0.392
250	0.397
251	0.4
251	0.404
252	0.407
252	0.41
253	0.413
253	0.415
254	0.417
254	0.42
255	0.422
255	0.424
256	0.425
256	0.427
257	0.428
257	0.429
258	0.43
258	0.431
258	0.432
259	0.433
259	0.434
260	0.434
260	0.435
261	0.435
261	0.435
262	0.435
262	0.435
263	0.436
263	0.435
264	0.435
264	0.434
265	0.434
265	0.433
265	0.433
266	0.432
266	0.431
267	0.43
267	0.429
268	0.428
268	0.426
269	0.425
269	0.424
270	0.422
270	0.42
271	0.419
271	0.417
272	0.415
272	0.413
272	0.412
273	0.41
273	0.408
274	0.406
274	0.405
275	0.403
275	0.401
276	0.399
276	0.397
277	0.395
277	0.393
278	0.39
278	0.388
278	0.385
279	0.382
279	0.38
280	0.378
280	0.375
281	0.373
281	0.371
282	0.37
282	0.368
283	0.366
283	0.365
284	0.363
284	0.362
285	0.36
285	0.359
285	0.357
286	0.355
286	0.354
287	0.352
287	0.35
288	0.349
288	0.347
289	0.346
289	0.344
290	0.343
290	0.341
291	0.34
291	0.339
292	0.337
292	0.336
292	0.335
293	0.333
293	0.332
294	0.331
294	0.33
295	0.329
295	0.328
296	0.326
296	0.325
297	0.324
297	0.323
298	0.322
298	0.321
298	0.32
299	0.32
299	0.319
300	0.318
300	0.317
301	0.316
301	0.315
302	0.315
302	0.314
303	0.313
303	0.312
304	0.312
304	0.311
305	0.31
305	0.309
305	0.309
306	0.308
306	0.307
307	0.306
307	0.305
308	0.305
308	0.304
309	0.303
309	0.302
310	0.301
310	0.3
311	0.3
311	0.299
311	0.298
312	0.297
312	0.296
313	0.296
313	0.295
314	0.294
314	0.293
315	0.292
315	0.291
316	0.291
316	0.29
317	0.289
317	0.289
318	0.288
318	0.287
318	0.286
319	0.285
319	0.285
320	0.284
320	0.283
321	0.282
321	0.281
322	0.28
322	0.28
323	0.279
323	0.278
324	0.277
324	0.276
324	0.276
325	0.275
325	0.274
326	0.274
326	0.273
327	0.272
327	0.271
328	0.271
328	0.27
329	0.269
329	0.269
330	0.268
330	0.267
330	0.267
331	0.266
331	0.265
332	0.264
332	0.264
333	0.263
333	0.262
334	0.261
334	0.261
335	0.26
335	0.259
336	0.259
336	0.258
336	0.258
337	0.257
337	0.257
338	0.256
338	0.256
339	0.255
339	0.255
340	0.254
340	0.254
341	0.253
341	0.253
342	0.252
342	0.252
342	0.251
343	0.25
343	0.25
344	0.249
344	0.249
345	0.248
345	0.248
346	0.247
346	0.247
347	0.246
347	0.246
348	0.245
348	0.245
348	0.245
349	0.244
349	0.244
350	0.243
350	0.243
351	0.243
351	0.242
352	0.242
352	0.241
353	0.241
353	0.24
354	0.24
354	0.239
354	0.238
355	0.237
355	0.237
356	0.236
356	0.235
357	0.234
357	0.234
358	0.234
358	0.234
359	0.234
359	0.234
360	0.235
360	0.235
360	0.235
361	0.236
361	0.236
362	0.237
362	0.237
363	0.237
363	0.237
364	0.237
364	0.236
365	0.236
365	0.235
366	0.235
366	0.235
366	0.234
367	0.234
367	0.234
368	0.233
368	0.233
369	0.233
369	0.232
370	0.232
370	0.232
371	0.232
371	0.231
372	0.231
372	0.231
372	0.231
373	0.23
373	0.23
374	0.23
374	0.23
375	0.23
375	0.23
376	0.23
376	0.229
377	0.229
377	0.23
378	0.229
378	0.23
378	0.23
379	0.23
379	0.23
380	0.23
380	0.229
381	0.229
381	0.229
382	0.229
382	0.228
383	0.228
383	0.228
383	0.228
384	0.227
384	0.227
385	0.227
385	0.227
386	0.227
386	0.226
387	0.226
387	0.226
388	0.226
388	0.225
389	0.225
389	0.225
389	0.225
390	0.225
390	0.225
391	0.225
391	0.225
392	0.225
392	0.225
393	0.225
393	0.225
394	0.225
394	0.225
394	0.224
395	0.224
395	0.224
396	0.223
396	0.223
397	0.223
397	0.223
398	0.223
398	0.222
399	0.222
399	0.222
400	0.221
400	0.221
400	0.221
401	0.221
401	0.22
402	0.22
402	0.219
403	0.219
403	0.219
404	0.219
404	0.219
405	0.218
405	0.218
405	0.218
406	0.217
406	0.217
407	0.217
407	0.217
408	0.217
408	0.216
409	0.216
409	0.216
410	0.216
410	0.216
411	0.216
411	0.216
411	0.215
412	0.215
412	0.215
413	0.214
413	0.214
414	0.214
414	0.214
415	0.214
415	0.213
416	0.213
416	0.212
416	0.212
417	0.212
417	0.212
418	0.211
418	0.211
419	0.211
419	0.211
420	0.212
420	0.212
421	0.212
421	0.212
421	0.212
422	0.213
422	0.213
423	0.213
423	0.212
424	0.212
424	0.211
425	0.211
425	0.21
426	0.21
426	0.209
427	0.209
427	0.209
427	0.209
428	0.209
428	0.21
429	0.21
429	0.21
430	0.21
430	0.21
431	0.21
431	0.21
432	0.21
432	0.21
432	0.209
433	0.209
433	0.208
434	0.208
434	0.207
435	0.207
435	0.207
436	0.207
436	0.207
437	0.207
437	0.207
437	0.207
438	0.206
438	0.206
439	0.206
439	0.206
440	0.206
440	0.206
441	0.206
441	0.206
442	0.206
442	0.207
442	0.207
443	0.207
443	0.207
444	0.207
444	0.207
445	0.207
445	0.208
446	0.208
446	0.207
447	0.207
447	0.207
447	0.207
448	0.207
448	0.207
449	0.207
449	0.206
450	0.206
450	0.206
451	0.206
451	0.205
452	0.205
452	0.205
452	0.205
453	0.205
453	0.204
454	0.204
454	0.203
455	0.203
455	0.203
456	0.202
456	0.202
457	0.202
457	0.201
458	0.201
458	0.201
458	0.202
459	0.202
459	0.202
460	0.202
460	0.202
461	0.202
461	0.202
462	0.202
462	0.202
463	0.203
463	0.203
463	0.204
464	0.204
464	0.204
465	0.204
465	0.204
466	0.204
466	0.204
467	0.204
467	0.204
467	0.204
468	0.203
468	0.202
469	0.202
469	0.202
470	0.201
470	0.201
471	0.201
471	0.201
472	0.202
472	0.202
472	0.203
473	0.204
473	0.205
474	0.206
474	0.206
475	0.207
475	0.207
476	0.208
476	0.208
477	0.208
477	0.209
477	0.209
478	0.209
478	0.21
479	0.21
479	0.211
480	0.213
480	0.214
481	0.215
481	0.216
482	0.217
482	0.218
482	0.219
483	0.221
483	0.223
484	0.225
484	0.227
485	0.228
485	0.229
486	0.229
486	0.23
487	0.231
487	0.232
487	0.232
488	0.232
488	0.232
489	0.232
489	0.232
490	0.232
490	0.233
491	0.234
491	0.235
492	0.236
492	0.237
492	0.239
493	0.24
493	0.241
494	0.243
494	0.245
495	0.247
495	0.248
496	0.25
496	0.251
496	0.253
497	0.254
497	0.255
498	0.256
498	0.258
499	0.259
499	0.26
500	0.261
500	0.263
501	0.265
501	0.267
501	0.268
502	0.27
502	0.272
503	0.274
503	0.275
504	0.277
504	0.278
505	0.279
505	0.28
506	0.281
506	0.282
506	0.283
507	0.283
507	0.284
508	0.285
508	0.287
509	0.288
509	0.289
510	0.291
510	0.291
511	0.292
511	0.293
511	0.294
512	0.295
512	0.295
513	0.296
513	0.296
514	0.296
514	0.296
515	0.296
515	0.296
515	0.297
516	0.297
516	0.299
517	0.3
517	0.3
518	0.301
518	0.301
519	0.301
519	0.3
520	0.299
520	0.298
520	0.296
521	0.294
521	0.292
522	0.29
522	0.289
523	0.289
523	0.289
524	0.289
524	0.291
524	0.293
525	0.295
525	0.297
526	0.299
526	0.301
527	0.303
527	0.304
528	0.305
528	0.306
529	0.306
529	0.306
529	0.305
530	0.305
530	0.304
531	0.303
531	0.303
532	0.302
532	0.301
533	0.3
533	0.3
533	0.299
534	0.298
534	0.296
535	0.295
535	0.294
536	0.294
536	0.292
537	0.291
537	0.29
538	0.288
538	0.287
538	0.285
539	0.283
539	0.282
540	0.28
540	0.279
541	0.276
541	0.274
542	0.272
542	0.27
542	0.268
543	0.266
543	0.264
544	0.262
544	0.26
545	0.258
545	0.257
546	0.256
546	0.254
547	0.252
547	0.25
547	0.247
548	0.245
548	0.243
549	0.24
549	0.238
550	0.236
550	0.233
551	0.23
551	0.228
551	0.225
552	0.223
552	0.221
553	0.219
553	0.218
554	0.216
554	0.214
555	0.211
555	0.209
556	0.206
556	0.203
556	0.201
557	0.198
557	0.196
558	0.194
558	0.191
559	0.189
559	0.187
560	0.185
560	0.183
560	0.182
561	0.181
561	0.179
562	0.178
562	0.176
563	0.174
563	0.172
564	0.17
564	0.168
564	0.165
565	0.163
565	0.162
566	0.16
566	0.157
567	0.156
567	0.155
568	0.155
568	0.154
568	0.154
569	0.155
569	0.155
570	0.155
570	0.154
571	0.154
571	0.153
572	0.153
572	0.152
573	0.151
573	0.15
573	0.148
574	0.147
574	0.146
575	0.144
575	0.144
576	0.144
576	0.142
577	0.14
577	0.139
577	0.138
578	0.136
578	0.136
579	0.136
579	0.136
580	0.134
580	0.132
581	0.13
581	0.128
581	0.127
582	0.126
582	0.126
583	0.126
583	0.125
584	0.122
584	0.119
585	0.117
585	0.117
585	0.117
586	0.116
586	0.116
587	0.114
587	0.112
588	0.11
588	0.109
589	0.108
589	0.107
590	0.106
590	0.105
590	0.106
591	0.106
591	0.106
592	0.105
592	0.104
593	0.104
593	0.104
594	0.102
594	0.101
594	0.101
595	0.1
595	0.098
596	0.097
596	0.097
597	0.099
597	0.099
598	0.099
598	0.1
598	0.1
599	0.101
599	0.1
600	0.099
600	0.098
601	0.098
601	0.097
602	0.096
602	0.095
602	0.095
603	0.094
603	0.095
604	0.096
604	0.096
605	0.097
605	0.098
606	0.098
606	0.097
606	0.097
607	0.096
607	0.096
608	0.095
608	0.094
609	0.093
609	0.092
610	0.091
610	0.09
610	0.09
611	0.091
611	0.091
612	0.092
612	0.093
613	0.094
613	0.095
614	0.095
614	0.095
614	0.095
615	0.095
615	0.094
616	0.095
616	0.094
617	0.094
617	0.093
618	0.092
618	0.092
618	0.092
619	0.092
619	0.093
620	0.095
620	0.096
621	0.097
621	0.097
622	0.098
622	0.099
622	0.099
623	0.099
623	0.101
624	0.102
624	0.101
625	0.101
625	0.101
626	0.101
626	0.101
626	0.102
627	0.102
627	0.103
628	0.103
628	0.104
629	0.104
629	0.105
630	0.104
630	0.105
630	0.106
631	0.107
631	0.108
632	0.108
632	0.109
633	0.111
633	0.112
634	0.113
634	0.115
634	0.117
635	0.119
635	0.12
636	0.122
636	0.124
637	0.125
637	0.127
638	0.128
638	0.13
638	0.132
639	0.133
639	0.134
640	0.136
640	0.137
641	0.139
641	0.141
642	0.143
642	0.146
642	0.148
643	0.149
643	0.151
644	0.153
644	0.154
645	0.156
645	0.157
646	0.159
646	0.162
646	0.164
647	0.167
647	0.17
648	0.173
648	0.176
649	0.179
649	0.182
650	0.185
650	0.188
650	0.19
651	0.193
651	0.195
652	0.197
652	0.2
653	0.203
653	0.211
653	0.22
654	0.176
654	0.142
655	0.147
655	0.149
656	0.151
656	0.154
657	0.155
657	0.157
657	0.158
658	0.156
658	0.147
659	0.187
659	0.242
660	0.248
660	0.25
661	0.253
661	0.255
661	0.258
662	0.262
662	0.265
663	0.269
663	0.272
664	0.275
664	0.278
665	0.281
665	0.284
665	0.287
666	0.29
666	0.292
667	0.295
667	0.297
668	0.3
668	0.302
669	0.305
669	0.309
669	0.313
670	0.317
670	0.32
671	0.323
671	0.325
672	0.327
672	0.329
672	0.331
673	0.333
673	0.335
674	0.336
674	0.337
675	0.338
675	0.339
676	0.341
676	0.342
676	0.344
677	0.346
677	0.348
678	0.349
678	0.35
679	0.352
679	0.353
680	0.355
680	0.357
680	0.358
681	0.358
681	0.359
682	0.36
682	0.361
683	0.362
683	0.364
684	0.366
684	0.366
684	0.367
685	0.368
685	0.369
686	0.37
686	0.371
687	0.371
687	0.371
687	0.371
688	0.37
688	0.369
689	0.369
689	0.369
690	0.368
690	0.367
691	0.366
691	0.366
691	0.365
692	0.364
692	0.363
693	0.363
693	0.362
694	0.361
694	0.359
695	0.359
695	0.36
695	0.359
696	0.358
696	0.357
697	0.356
697	0.355
698	0.353
698	0.351
698	0.35
699	0.349
699	0.347
700	0.344
700	0.342
701	0.341
701	0.34
702	0.338
702	0.337
702	0.335
703	0.333
703	0.331
704	0.329
704	0.327
705	0.325
705	0.323
705	0.321
706	0.319
706	0.317
707	0.314
707	0.312
708	0.309
708	0.307
709	0.304
709	0.302
709	0.298
710	0.295
710	0.292
711	0.29
711	0.287
712	0.285
712	0.283
713	0.281
713	0.279
713	0.277
714	0.275
714	0.273
715	0.271
715	0.269
716	0.267
716	0.265
716	0.263
717	0.261
717	0.259
718	0.257
718	0.254
719	0.252
719	0.251
720	0.248
720	0.246
720	0.243
721	0.24
721	0.237
722	0.234
722	0.23
723	0.228
723	0.225
723	0.223
724	0.22
724	0.218
725	0.215
725	0.213
726	0.211
726	0.208
727	0.206
727	0.204
727	0.202
728	0.199
728	0.197
729	0.195
729	0.193
730	0.191
730	0.188
730	0.186
731	0.184
731	0.182
732	0.181
732	0.179
733	0.177
733	0.176
734	0.174
734	0.173
734	0.171
735	0.17
735	0.168
736	0.166
736	0.164
737	0.162
737	0.161
737	0.158
738	0.156
738	0.152
739	0.15
739	0.147
740	0.144
740	0.142
741	0.139
741	0.136
741	0.133
742	0.129
742	0.125
743	0.122
743	0.119
744	0.116
744	0.114
744	0.111
745	0.108
745	0.106
746	0.104
746	0.103
747	0.102
747	0.101
748	0.101
748	0.1
748	0.1
749	0.099
749	0.099
750	0.098
750	0.097
751	0.097
751	0.096
751	0.096
752	0.095
752	0.093
753	0.091
753	0.09
754	0.089
754	0.088
754	0.087
755	0.087
755	0.087
756	0.086
756	0.084
757	0.083
757	0.083
758	0.083
758	0.082
758	0.082
759	0.081
759	0.08
760	0.078
760	0.076
761	0.075
761	0.075
761	0.074
762	0.072
762	0.071
763	0.07
763	0.068
764	0.066
764	0.064
764	0.062
765	0.06
765	0.058
766	0.056
766	0.054
767	0.053
767	0.05
768	0.048
768	0.046
768	0.044
769	0.043
769	0.042
770	0.04
770	0.039
771	0.037
771	0.034
771	0.031
772	0.029
772	0.028
773	0.025
773	0.023
774	0.02
774	0.018
775	0.016
775	0.014
775	0.011
776	0.009
776	0.007
777	0.005
777	0.003
778	-0
778	-0.003
778	-0.006
779	-0.008
779	-0.011
780	-0.014
780	-0.018
781	-0.022
781	-0.027
781	-0.032
782	-0.038
782	-0.044
783	-0.05
783	-0.056
784	-0.064
784	-0.072
784	-0.08
785	-0.088
785	-0.097
786	-0.103
786	-0.107
787	-0.107
787	-0.108
788	-0.111
788	-0.115
788	-0.119
789	-0.122
789	-0.123
790	-0.121
790	-0.121
791	-0.122
791	-0.124
791	-0.127
792	-0.123
792	-0.113
793	-0.107
793	-0.103
794	-0.102
794	-0.103
794	-0.106
795	-0.108
795	-0.108
796	-0.108
796	-0.11
797	-0.118
797	-0.128
797	-0.134
798	-0.139
798	-0.142
799	-0.143
799	-0.142
800	-0.142
800	-0.144
801	-0.148
801	-0.149
801	-0.149
802	-0.151
802	-0.152
803	-0.152
803	-0.152
804	-0.15
804	-0.145
804	-0.138
805	-0.133
805	-0.13
806	-0.127
806	-0.125
807	-0.124
807	-0.123
807	-0.123
808	-0.123
808	-0.124
809	-0.129
809	-0.135
810	-0.139
810	-0.143
810	-0.147
811	-0.15
811	-0.152
812	-0.148
812	-0.146
813	-0.147
813	-0.148
813	-0.149
814	-0.15
814	-0.15
815	-0.148
815	-0.145
816	-0.142
816	-0.142
817	-0.146
817	-0.148
817	-0.147
818	-0.143
818	-0.137
819	-0.131
819	-0.125
820	-0.121
820	-0.116
820	-0.11
821	-0.103
821	-0.094
822	-0.084
822	-0.076
823	-0.068
823	-0.062
823	-0.056
824	-0.05
824	-0.043
825	-0.037
825	-0.03
826	-0.024
826	-0.02
826	-0.017
827	-0.013
827	-0.01
828	-0.007
828	-0.006
829	-0.004
829	-0.003
829	-0.003
830	-0.003
830	-0.003
831	-0.001
831	-0.001
832	-0
832	0.001
832	0.001
833	0.002
833	0.003
834	0.004
834	0.005
835	0.006
835	0.007
835	0.008
836	0.009
836	0.009
837	0.009
837	0.01
838	0.01
838	0.01
839	0.01
839	0.01
839	0.01
840	0.01
840	0.01
841	0.01
841	0.011
842	0.011
842	0.012
842	0.013
843	0.013
843	0.014
844	0.015
844	0.016
845	0.017
845	0.017
845	0.017
846	0.017
846	0.017
847	0.017
847	0.018
848	0.018
848	0.019
848	0.02
849	0.021
849	0.021
850	0.022
850	0.022
851	0.023
851	0.024
851	0.024
852	0.023
852	0.023
853	0.022
853	0.021
854	0.02
854	0.019
854	0.018
855	0.017
855	0.016
856	0.015
856	0.015
857	0.015
857	0.016
857	0.016
858	0.017
858	0.018
859	0.02
859	0.021
860	0.023
860	0.025
860	0.026
861	0.028
861	0.029
862	0.029
862	0.03
863	0.03
863	0.03
863	0.03
864	0.029
864	0.029
865	0.029
865	0.028
866	0.028
866	0.027
866	0.027
867	0.026
867	0.026
868	0.026
868	0.025
869	0.025
869	0.023
869	0.022
870	0.021
870	0.019
871	0.018
871	0.017
872	0.016
872	0.015
872	0.015
873	0.014
873	0.014
874	0.014
874	0.014
875	0.015
875	0.015
875	0.016
876	0.017
876	0.017
877	0.018
877	0.019
878	0.019
878	0.02
878	0.021
879	0.021
879	0.021
880	0.022
880	0.022
881	0.022
881	0.022
881	0.022
882	0.022
882	0.022
883	0.022
883	0.023
884	0.023
884	0.023
884	0.023
885	0.023
885	0.023
886	0.022
886	0.023
887	0.022
887	0.023
887	0.023
888	0.023
888	0.023
889	0.024
889	0.025
890	0.026
890	0.027
890	0.027
891	0.028
891	0.028
892	0.028
892	0.028
893	0.028
893	0.028
893	0.028
894	0.028
894	0.027
895	0.025
895	0.024
895	0.023
896	0.021
896	0.02
897	0.019
897	0.018
898	0.016
898	0.015
898	0.014
899	0.013
899	0.012
900	0.012
900	0.012
901	0.011
901	0.011
901	0.011
902	0.011
902	0.011
903	0.011
903	0.011
904	0.01
904	0.01
904	0.01
905	0.01
905	0.01
906	0.01
906	0.011
907	0.011
907	0.012
907	0.012
908	0.013
908	0.014
909	0.016
909	0.017
910	0.018
910	0.019
910	0.02
911	0.021
911	0.021
912	0.021
912	0.022
913	0.021
913	0.021
913	0.02
914	0.02
914	0.019
915	0.018
915	0.017
916	0.017
916	0.016
916	0.016
917	0.016
917	0.016
918	0.016
918	0.016
918	0.015
919	0.015
919	0.015
920	0.015
920	0.014
921	0.014
921	0.013
921	0.013
922	0.013
922	0.013
923	0.013
923	0.013
924	0.014
924	0.014
924	0.015
925	0.015
925	0.015
926	0.016
926	0.016
927	0.016
927	0.016
927	0.016
928	0.015
928	0.015
929	0.015
929	0.015
930	0.014
930	0.014
930	0.014
931	0.013
931	0.013
932	0.013
932	0.012
933	0.012
933	0.011
933	0.011
934	0.01
934	0.01
935	0.009
935	0.009
935	0.009
936	0.009
936	0.009
937	0.009
937	0.009
938	0.009
938	0.01
938	0.01
939	0.01
939	0.011
940	0.012
940	0.012
941	0.013
941	0.013
941	0.014
942	0.015
942	0.015
943	0.015
943	0.016
944	0.016
944	0.017
944	0.017
945	0.018
945	0.018
946	0.019
946	0.019
946	0.019
947	0.02
947	0.02
948	0.021
948	0.021
949	0.021
949	0.021
949	0.022
950	0.023
950	0.024
951	0.025
951	0.025
952	0.026
952	0.027
952	0.027
953	0.028
953	0.029
954	0.029
954	0.028
955	0.028
955	0.028
955	0.027
956	0.027
956	0.026
957	0.025
957	0.024
957	0.023
958	0.022
958	0.021
959	0.02
959	0.019
960	0.018
960	0.016
960	0.014
961	0.013
961	0.011
962	0.01
962	0.009
963	0.007
963	0.006
963	0.005
964	0.004
964	0.004
965	0.004
965	0.004
966	0.004
966	0.004
966	0.004
967	0.004
967	0.004
968	0.004
968	0.004
968	0.004
969	0.004
969	0.004
970	0.004
970	0.004
971	0.004
971	0.005
971	0.005
972	0.006
972	0.006
973	0.007
973	0.008
974	0.009
974	0.009
974	0.01
975	0.011
975	0.012
976	0.012
976	0.013
976	0.013
977	0.013
977	0.012
978	0.012
978	0.011
979	0.011
979	0.01
979	0.009
980	0.008
980	0.007
981	0.006
981	0.005
982	0.004
982	0.004
982	0.004
983	0.003
983	0.003
984	0.003
984	0.003
984	0.004
985	0.005
985	0.005
986	0.006
986	0.006
987	0.007
987	0.007
987	0.008
988	0.009
988	0.009
989	0.009
989	0.009
990	0.009
990	0.009
990	0.01
991	0.01
991	0.01
992	0.011
992	0.011
992	0.011
993	0.012
993	0.012
994	0.013
994	0.013
995	0.013
995	0.013
995	0.013
996	0.013
996	0.012
997	0.012
997	0.011
997	0.011
998	0.01
998	0.009
999	0.009
999	0.008
1000	0.008
1000	0.007
1000	0.007
1001	0.007
1001	0.007
1002	0.006
1002	0.006
1003	0.006
1003	0.006
1003	0.005
1004	0.005
1004	0.004
1005	0.004
1005	0.003
1005	0.003
1006	0.002
1006	0.002
1007	0.001
1007	0.001
1008	0
1008	0
1008	-0
1009	-0
1009	-0
1010	-0
1010	-0
1010	-0
1011	-0
1011	0
1012	0
1012	0.001
1013	0.001
1013	0.001
1013	0.001
1014	0.001
1014	0.002
1015	0.002
1015	0.003
1016	0.003
1016	0.004
1016	0.004
1017	0.004
1017	0.005
1018	0.005
1018	0.006
1018	0.006
1019	0.007
1019	0.007
1020	0.007
1020	0.007
1021	0.007
1021	0.007
1021	0.007
1022	0.007
1022	0.006
1023	0.006
1023	0.006
1023	0.005
1024	0.004
1024	0.003
1025	0.003
1025	0.003
1026	0.002
1026	0.002
1026	0.002
1027	0.002
1027	0.003
1028	0.003
1028	0.004
1028	0.004
1029	0.004
1029	0.005
1030	0.005
1030	0.005
1031	0.005
1031	0.005
1031	0.005
1032	0.005
1032	0.005
1033	0.004
1033	0.004
1033	0.003
1034	0.002
1034	0.001
1035	0
1035	-0
1036	-0.001
1036	-0.002
1036	-0.002
1037	-0.002
1037	-0.003
1038	-0.003
1038	-0.003
1039	-0.002
1039	-0.002
1039	-0.002
1040	-0.002
1040	-0.002
1041	-0.003
1041	-0.003
1041	-0.003
1042	-0.004
1042	-0.005
1043	-0.005
1043	-0.006
1044	-0.007
1044	-0.008
1044	-0.008
1045	-0.008
1045	-0.009
1046	-0.009
1046	-0.01
1046	-0.009
1047	-0.009
1047	-0.008
1048	-0.008
1048	-0.007
1049	-0.007
1049	-0.007
1049	-0.006
1050	-0.006
1050	-0.005
1051	-0.004
1051	-0.003
1051	-0.002
1052	-0.002
1052	-0.001
1053	-0
1053	0.001
1053	0.002
1054	0.003
1054	0.004
1055	0.004
1055	0.005
1056	0.005
1056	0.004
1056	0.003
1057	0.003
1057	0.002
1058	0.001
1058	0.001
1058	-0
1059	-0.001
1059	-0.003
1060	-0.004
1060	-0.004
1061	-0.005
1061	-0.005
1061	-0.005
1062	-0.005
1062	-0.006
1063	-0.006
1063	-0.007
1063	-0.007
1064	-0.007
1064	-0.006
1065	-0.005
1065	-0.006
1066	-0.005
1066	-0.004
1066	-0.003
1067	-0.002
1067	-0.001
1068	-0
1068	0.001
1068	0.001
1069	0.002
1069	0.003
1070	0.003
1070	0.004
1071	0.004
1071	0.006
1071	0.006
1072	0.008
1072	0.009
1073	0.01
1073	0.012
1073	0.013
1074	0.014
1074	0.015
1075	0.016
1075	0.017
1076	0.017
1076	0.018
1076	0.017
1077	0.017
1077	0.017
1078	0.017
1078	0.018
1078	0.019
1079	0.019
1079	0.02
1080	0.021
1080	0.022
1080	0.023
1081	0.024
1081	0.025
1082	0.026
1082	0.026
1083	0.027
1083	0.028
1083	0.029
1084	0.029
1084	0.031
1085	0.031
1085	0.032
1085	0.033
1086	0.034
1086	0.035
1087	0.036
1087	0.037
1088	0.038
1088	0.039
1088	0.04
1089	0.04
1089	0.042
1090	0.043
1090	0.044
1090	0.045
1091	0.047
1091	0.049
1092	0.051
1092	0.053
1092	0.055
1093	0.056
1093	0.059
1094	0.061
1094	0.063
1095	0.065
1095	0.068
1095	0.072
1096	0.075
1096	0.078
1097	0.082
1097	0.085
1097	0.09
1098	0.094
1098	0.099
1099	0.105
1099	0.111
1100	0.117
1100	0.123
1100	0.13
1101	0.138
1101	0.146
1102	0.155
1102	0.167
1102	0.177
1103	0.19
1103	0.205
1104	0.222
1104	0.239
1104	0.261
1105	0.282
1105	0.304
1106	0.324
1106	0.352
1107	0.382
1107	0.429
1107	0.492
1108	0.724
1108	1.621
1109	-0
1109	-0
1109	-0
1110	-0
1110	-0
1111	-0
1111	-0
