Data from 15c-2-2a_Absorbance__982__02783.txt Node

Date: Wed Jan 24 13:36:37 CET 2024
User: Marek
Spectrometer: MAYP115816
Trigger mode: 0
Integration Time (sec): 2.000000E-1
Scans to average: 10
Electric dark correction enabled: true
Nonlinearity correction enabled: true
Boxcar width: 5
XAxis mode: Wavelengths
Number of Pixels in Spectrum: 2068
>>>>>Begin Spectral Data<<<<<
199	-1.766
199	-1.607
200	-1.449
200	-1.326
201	-1.254
201	-1.201
202	-1.131
202	-1.075
203	-1.027
203	-0.986
204	-0.958
204	-0.933
205	-0.911
205	-0.902
205	-0.9
206	-0.897
206	-0.895
207	-0.891
207	-0.888
208	-0.887
208	-0.886
209	-0.884
209	-0.884
210	-0.883
210	-0.882
211	-0.88
211	-0.88
212	-0.878
212	-0.876
213	-0.874
213	-0.871
213	-0.869
214	-0.867
214	-0.863
215	-0.863
215	-0.858
216	-0.857
216	-0.854
217	-0.853
217	-0.853
218	-0.854
218	-0.852
219	-0.851
219	-0.848
220	-0.846
220	-0.845
221	-0.846
221	-0.843
221	-0.838
222	-0.832
222	-0.825
223	-0.819
223	-0.815
224	-0.806
224	-0.798
225	-0.79
225	-0.781
226	-0.77
226	-0.759
227	-0.746
227	-0.735
228	-0.718
228	-0.701
229	-0.68
229	-0.658
229	-0.632
230	-0.603
230	-0.57
231	-0.537
231	-0.5
232	-0.463
232	-0.423
233	-0.384
233	-0.343
234	-0.302
234	-0.263
235	-0.225
235	-0.188
236	-0.154
236	-0.12
236	-0.089
237	-0.06
237	-0.033
238	-0.008
238	0.015
239	0.036
239	0.055
240	0.072
240	0.087
241	0.101
241	0.113
242	0.124
242	0.134
243	0.143
243	0.151
243	0.157
244	0.164
244	0.17
245	0.175
245	0.181
246	0.185
246	0.19
247	0.194
247	0.198
248	0.201
248	0.205
249	0.208
249	0.211
250	0.214
250	0.217
250	0.219
251	0.222
251	0.224
252	0.226
252	0.228
253	0.23
253	0.232
254	0.234
254	0.236
255	0.237
255	0.238
256	0.24
256	0.241
257	0.242
257	0.243
258	0.243
258	0.244
258	0.245
259	0.245
259	0.246
260	0.246
260	0.246
261	0.246
261	0.246
262	0.246
262	0.246
263	0.246
263	0.245
264	0.245
264	0.245
265	0.244
265	0.243
265	0.243
266	0.242
266	0.241
267	0.24
267	0.239
268	0.238
268	0.236
269	0.235
269	0.234
270	0.232
270	0.23
271	0.229
271	0.227
272	0.226
272	0.224
272	0.223
273	0.221
273	0.219
274	0.218
274	0.216
275	0.215
275	0.213
276	0.211
276	0.209
277	0.208
277	0.206
278	0.204
278	0.202
278	0.199
279	0.197
279	0.194
280	0.192
280	0.19
281	0.188
281	0.187
282	0.185
282	0.184
283	0.182
283	0.181
284	0.18
284	0.179
285	0.177
285	0.176
285	0.175
286	0.173
286	0.172
287	0.17
287	0.169
288	0.168
288	0.166
289	0.165
289	0.164
290	0.162
290	0.161
291	0.16
291	0.159
292	0.158
292	0.157
292	0.156
293	0.155
293	0.154
294	0.153
294	0.153
295	0.152
295	0.151
296	0.15
296	0.15
297	0.149
297	0.148
298	0.147
298	0.147
298	0.146
299	0.146
299	0.145
300	0.145
300	0.144
301	0.144
301	0.143
302	0.143
302	0.142
303	0.142
303	0.141
304	0.141
304	0.141
305	0.14
305	0.14
305	0.139
306	0.139
306	0.138
307	0.138
307	0.137
308	0.137
308	0.136
309	0.136
309	0.136
310	0.135
310	0.135
311	0.135
311	0.134
311	0.134
312	0.133
312	0.133
313	0.132
313	0.132
314	0.132
314	0.131
315	0.131
315	0.13
316	0.13
316	0.129
317	0.129
317	0.128
318	0.128
318	0.127
318	0.127
319	0.126
319	0.126
320	0.125
320	0.125
321	0.125
321	0.124
322	0.124
322	0.123
323	0.123
323	0.122
324	0.122
324	0.122
324	0.121
325	0.121
325	0.12
326	0.12
326	0.12
327	0.119
327	0.119
328	0.118
328	0.118
329	0.118
329	0.117
330	0.117
330	0.116
330	0.116
331	0.116
331	0.115
332	0.115
332	0.114
333	0.114
333	0.113
334	0.113
334	0.112
335	0.112
335	0.111
336	0.111
336	0.111
336	0.11
337	0.11
337	0.11
338	0.11
338	0.109
339	0.109
339	0.109
340	0.108
340	0.108
341	0.108
341	0.107
342	0.107
342	0.107
342	0.106
343	0.106
343	0.105
344	0.105
344	0.105
345	0.105
345	0.104
346	0.104
346	0.104
347	0.104
347	0.103
348	0.103
348	0.103
348	0.103
349	0.103
349	0.102
350	0.102
350	0.102
351	0.101
351	0.101
352	0.1
352	0.1
353	0.1
353	0.099
354	0.099
354	0.099
354	0.098
355	0.098
355	0.097
356	0.097
356	0.096
357	0.096
357	0.096
358	0.095
358	0.095
359	0.095
359	0.095
360	0.095
360	0.096
360	0.096
361	0.096
361	0.097
362	0.097
362	0.097
363	0.097
363	0.097
364	0.097
364	0.097
365	0.097
365	0.097
366	0.097
366	0.096
366	0.096
367	0.096
367	0.096
368	0.096
368	0.096
369	0.095
369	0.095
370	0.095
370	0.095
371	0.095
371	0.095
372	0.095
372	0.094
372	0.094
373	0.094
373	0.094
374	0.094
374	0.094
375	0.094
375	0.094
376	0.094
376	0.094
377	0.094
377	0.094
378	0.094
378	0.094
378	0.094
379	0.094
379	0.094
380	0.094
380	0.094
381	0.094
381	0.094
382	0.094
382	0.093
383	0.093
383	0.093
383	0.093
384	0.093
384	0.093
385	0.093
385	0.093
386	0.093
386	0.093
387	0.093
387	0.093
388	0.093
388	0.093
389	0.093
389	0.093
389	0.093
390	0.093
390	0.093
391	0.093
391	0.093
392	0.093
392	0.093
393	0.093
393	0.093
394	0.093
394	0.093
394	0.093
395	0.092
395	0.092
396	0.092
396	0.092
397	0.092
397	0.092
398	0.092
398	0.092
399	0.091
399	0.091
400	0.091
400	0.091
400	0.091
401	0.091
401	0.09
402	0.09
402	0.09
403	0.09
403	0.09
404	0.09
404	0.09
405	0.09
405	0.089
405	0.089
406	0.089
406	0.089
407	0.089
407	0.089
408	0.089
408	0.088
409	0.088
409	0.088
410	0.088
410	0.088
411	0.089
411	0.089
411	0.088
412	0.088
412	0.088
413	0.088
413	0.087
414	0.087
414	0.087
415	0.087
415	0.087
416	0.087
416	0.086
416	0.086
417	0.086
417	0.086
418	0.085
418	0.086
419	0.086
419	0.086
420	0.086
420	0.087
421	0.087
421	0.087
421	0.087
422	0.087
422	0.087
423	0.087
423	0.087
424	0.087
424	0.086
425	0.086
425	0.085
426	0.085
426	0.085
427	0.085
427	0.085
427	0.085
428	0.086
428	0.086
429	0.086
429	0.086
430	0.086
430	0.086
431	0.086
431	0.086
432	0.086
432	0.086
432	0.085
433	0.085
433	0.085
434	0.084
434	0.084
435	0.085
435	0.085
436	0.085
436	0.084
437	0.084
437	0.084
437	0.084
438	0.084
438	0.083
439	0.083
439	0.083
440	0.083
440	0.083
441	0.083
441	0.083
442	0.083
442	0.083
442	0.083
443	0.084
443	0.084
444	0.084
444	0.084
445	0.084
445	0.084
446	0.084
446	0.084
447	0.084
447	0.084
447	0.084
448	0.084
448	0.084
449	0.084
449	0.084
450	0.084
450	0.084
451	0.084
451	0.083
452	0.083
452	0.083
452	0.083
453	0.082
453	0.082
454	0.081
454	0.081
455	0.081
455	0.08
456	0.08
456	0.08
457	0.079
457	0.079
458	0.079
458	0.079
458	0.079
459	0.08
459	0.08
460	0.08
460	0.08
461	0.08
461	0.08
462	0.08
462	0.08
463	0.081
463	0.081
463	0.081
464	0.081
464	0.081
465	0.081
465	0.081
466	0.081
466	0.081
467	0.081
467	0.081
467	0.08
468	0.079
468	0.079
469	0.078
469	0.078
470	0.078
470	0.078
471	0.078
471	0.078
472	0.078
472	0.078
472	0.079
473	0.08
473	0.08
474	0.08
474	0.081
475	0.081
475	0.081
476	0.081
476	0.082
477	0.082
477	0.082
477	0.082
478	0.082
478	0.082
479	0.083
479	0.083
480	0.084
480	0.085
481	0.085
481	0.086
482	0.086
482	0.087
482	0.088
483	0.088
483	0.09
484	0.091
484	0.091
485	0.091
485	0.092
486	0.092
486	0.093
487	0.093
487	0.093
487	0.093
488	0.093
488	0.093
489	0.092
489	0.092
490	0.093
490	0.093
491	0.094
491	0.094
492	0.095
492	0.096
492	0.096
493	0.097
493	0.098
494	0.099
494	0.1
495	0.101
495	0.102
496	0.102
496	0.103
496	0.104
497	0.104
497	0.105
498	0.105
498	0.106
499	0.106
499	0.107
500	0.108
500	0.109
501	0.11
501	0.111
501	0.112
502	0.112
502	0.113
503	0.114
503	0.115
504	0.115
504	0.116
505	0.116
505	0.115
506	0.116
506	0.116
506	0.116
507	0.116
507	0.117
508	0.117
508	0.118
509	0.118
509	0.119
510	0.12
510	0.121
511	0.121
511	0.121
511	0.121
512	0.122
512	0.122
513	0.122
513	0.122
514	0.122
514	0.122
515	0.122
515	0.122
515	0.122
516	0.123
516	0.124
517	0.124
517	0.125
518	0.125
518	0.125
519	0.125
519	0.124
520	0.124
520	0.123
520	0.122
521	0.121
521	0.119
522	0.118
522	0.118
523	0.117
523	0.117
524	0.118
524	0.119
524	0.12
525	0.121
525	0.122
526	0.124
526	0.125
527	0.126
527	0.127
528	0.128
528	0.128
529	0.128
529	0.128
529	0.128
530	0.128
530	0.128
531	0.127
531	0.127
532	0.126
532	0.125
533	0.125
533	0.124
533	0.124
534	0.123
534	0.122
535	0.122
535	0.121
536	0.12
536	0.12
537	0.119
537	0.119
538	0.118
538	0.118
538	0.117
539	0.116
539	0.115
540	0.115
540	0.114
541	0.112
541	0.111
542	0.11
542	0.109
542	0.108
543	0.107
543	0.106
544	0.105
544	0.104
545	0.104
545	0.103
546	0.103
546	0.102
547	0.101
547	0.099
547	0.098
548	0.097
548	0.096
549	0.095
549	0.093
550	0.092
550	0.091
551	0.09
551	0.089
551	0.088
552	0.087
552	0.086
553	0.085
553	0.085
554	0.084
554	0.083
555	0.082
555	0.08
556	0.079
556	0.078
556	0.076
557	0.075
557	0.074
558	0.073
558	0.072
559	0.071
559	0.07
560	0.069
560	0.068
560	0.068
561	0.068
561	0.068
562	0.067
562	0.066
563	0.065
563	0.064
564	0.063
564	0.062
564	0.061
565	0.061
565	0.06
566	0.059
566	0.058
567	0.057
567	0.057
568	0.057
568	0.057
568	0.058
569	0.059
569	0.059
570	0.059
570	0.059
571	0.059
571	0.059
572	0.059
572	0.059
573	0.059
573	0.059
573	0.058
574	0.057
574	0.057
575	0.056
575	0.057
576	0.057
576	0.056
577	0.054
577	0.053
577	0.053
578	0.053
578	0.053
579	0.054
579	0.054
580	0.053
580	0.051
581	0.05
581	0.049
581	0.049
582	0.049
582	0.049
583	0.049
583	0.049
584	0.046
584	0.044
585	0.044
585	0.044
585	0.044
586	0.044
586	0.044
587	0.043
587	0.042
588	0.04
588	0.039
589	0.039
589	0.039
590	0.039
590	0.038
590	0.04
591	0.04
591	0.04
592	0.04
592	0.039
593	0.039
593	0.039
594	0.038
594	0.037
594	0.037
595	0.036
595	0.035
596	0.034
596	0.035
597	0.037
597	0.038
598	0.038
598	0.039
598	0.04
599	0.04
599	0.04
600	0.039
600	0.038
601	0.038
601	0.038
602	0.036
602	0.036
602	0.036
603	0.036
603	0.037
604	0.037
604	0.038
605	0.039
605	0.04
606	0.04
606	0.039
606	0.038
607	0.037
607	0.037
608	0.037
608	0.035
609	0.035
609	0.035
610	0.034
610	0.033
610	0.033
611	0.034
611	0.035
612	0.036
612	0.037
613	0.038
613	0.039
614	0.039
614	0.038
614	0.038
615	0.038
615	0.038
616	0.038
616	0.037
617	0.037
617	0.036
618	0.035
618	0.035
618	0.035
619	0.036
619	0.036
620	0.038
620	0.039
621	0.039
621	0.04
622	0.04
622	0.041
622	0.041
623	0.041
623	0.042
624	0.042
624	0.042
625	0.042
625	0.042
626	0.042
626	0.042
626	0.042
627	0.042
627	0.042
628	0.043
628	0.043
629	0.043
629	0.043
630	0.042
630	0.042
630	0.043
631	0.043
631	0.044
632	0.044
632	0.045
633	0.046
633	0.047
634	0.048
634	0.049
634	0.051
635	0.052
635	0.053
636	0.054
636	0.055
637	0.056
637	0.056
638	0.057
638	0.058
638	0.059
639	0.06
639	0.06
640	0.061
640	0.062
641	0.064
641	0.065
642	0.067
642	0.068
642	0.069
643	0.07
643	0.071
644	0.072
644	0.073
645	0.073
645	0.074
646	0.075
646	0.076
646	0.078
647	0.079
647	0.081
648	0.082
648	0.084
649	0.086
649	0.088
650	0.089
650	0.091
650	0.092
651	0.094
651	0.095
652	0.096
652	0.097
653	0.1
653	0.106
653	0.113
654	0.093
654	0.077
655	0.077
655	0.079
656	0.08
656	0.081
657	0.083
657	0.084
657	0.084
658	0.082
658	0.076
659	0.095
659	0.119
660	0.126
660	0.127
661	0.128
661	0.129
661	0.131
662	0.133
662	0.136
663	0.138
663	0.14
664	0.142
664	0.143
665	0.145
665	0.147
665	0.149
666	0.15
666	0.152
667	0.153
667	0.154
668	0.155
668	0.157
669	0.158
669	0.161
669	0.163
670	0.166
670	0.167
671	0.169
671	0.17
672	0.172
672	0.173
672	0.174
673	0.176
673	0.177
674	0.177
674	0.177
675	0.177
675	0.178
676	0.179
676	0.18
676	0.18
677	0.181
677	0.182
678	0.183
678	0.183
679	0.184
679	0.185
680	0.186
680	0.187
680	0.187
681	0.188
681	0.188
682	0.188
682	0.189
683	0.19
683	0.191
684	0.192
684	0.192
684	0.192
685	0.193
685	0.194
686	0.194
686	0.194
687	0.195
687	0.195
687	0.195
688	0.194
688	0.193
689	0.193
689	0.193
690	0.193
690	0.192
691	0.191
691	0.191
691	0.19
692	0.189
692	0.189
693	0.189
693	0.189
694	0.188
694	0.187
695	0.188
695	0.188
695	0.188
696	0.187
696	0.187
697	0.186
697	0.185
698	0.184
698	0.183
698	0.182
699	0.182
699	0.18
700	0.179
700	0.178
701	0.178
701	0.178
702	0.177
702	0.176
702	0.175
703	0.174
703	0.173
704	0.171
704	0.17
705	0.169
705	0.168
705	0.166
706	0.165
706	0.164
707	0.162
707	0.16
708	0.159
708	0.157
709	0.156
709	0.154
709	0.152
710	0.15
710	0.148
711	0.147
711	0.145
712	0.144
712	0.143
713	0.142
713	0.141
713	0.14
714	0.138
714	0.137
715	0.136
715	0.135
716	0.134
716	0.134
716	0.133
717	0.133
717	0.132
718	0.131
718	0.13
719	0.13
719	0.129
720	0.128
720	0.126
720	0.124
721	0.122
721	0.12
722	0.118
722	0.115
723	0.113
723	0.111
723	0.109
724	0.107
724	0.106
725	0.105
725	0.103
726	0.102
726	0.101
727	0.1
727	0.099
727	0.098
728	0.096
728	0.095
729	0.095
729	0.094
730	0.092
730	0.091
730	0.089
731	0.088
731	0.087
732	0.086
732	0.085
733	0.085
733	0.084
734	0.083
734	0.082
734	0.081
735	0.081
735	0.079
736	0.078
736	0.077
737	0.076
737	0.075
737	0.074
738	0.072
738	0.069
739	0.068
739	0.066
740	0.064
740	0.063
741	0.062
741	0.059
741	0.057
742	0.054
742	0.052
743	0.05
743	0.048
744	0.046
744	0.045
744	0.043
745	0.041
745	0.04
746	0.039
746	0.038
747	0.038
747	0.038
748	0.038
748	0.038
748	0.038
749	0.038
749	0.039
750	0.039
750	0.039
751	0.039
751	0.039
751	0.039
752	0.038
752	0.037
753	0.035
753	0.034
754	0.034
754	0.033
754	0.033
755	0.033
755	0.033
756	0.033
756	0.032
757	0.031
757	0.032
758	0.032
758	0.032
758	0.032
759	0.032
759	0.031
760	0.03
760	0.029
761	0.029
761	0.029
761	0.029
762	0.028
762	0.027
763	0.027
763	0.025
764	0.024
764	0.022
764	0.021
765	0.019
765	0.018
766	0.017
766	0.016
767	0.014
767	0.012
768	0.01
768	0.009
768	0.008
769	0.007
769	0.006
770	0.005
770	0.003
771	0.002
771	-0.001
771	-0.002
772	-0.004
772	-0.006
773	-0.007
773	-0.01
774	-0.012
774	-0.014
775	-0.015
775	-0.016
775	-0.018
776	-0.02
776	-0.021
777	-0.022
777	-0.024
778	-0.026
778	-0.028
778	-0.03
779	-0.031
779	-0.033
780	-0.036
780	-0.039
781	-0.042
781	-0.046
781	-0.05
782	-0.055
782	-0.06
783	-0.065
783	-0.07
784	-0.076
784	-0.083
784	-0.09
785	-0.097
785	-0.104
786	-0.109
786	-0.111
787	-0.11
787	-0.111
788	-0.114
788	-0.117
788	-0.12
789	-0.123
789	-0.123
790	-0.122
790	-0.121
791	-0.123
791	-0.125
791	-0.128
792	-0.124
792	-0.113
793	-0.108
793	-0.104
794	-0.102
794	-0.103
794	-0.107
795	-0.109
795	-0.108
796	-0.108
796	-0.11
797	-0.118
797	-0.129
797	-0.135
798	-0.139
798	-0.142
799	-0.143
799	-0.143
800	-0.143
800	-0.145
801	-0.148
801	-0.149
801	-0.15
802	-0.151
802	-0.152
803	-0.153
803	-0.152
804	-0.151
804	-0.145
804	-0.138
805	-0.133
805	-0.13
806	-0.128
806	-0.126
807	-0.125
807	-0.124
807	-0.124
808	-0.124
808	-0.125
809	-0.13
809	-0.136
810	-0.14
810	-0.143
810	-0.147
811	-0.151
811	-0.152
812	-0.149
812	-0.146
813	-0.147
813	-0.148
813	-0.15
814	-0.151
814	-0.151
815	-0.148
815	-0.145
816	-0.143
816	-0.143
817	-0.147
817	-0.149
817	-0.147
818	-0.143
818	-0.137
819	-0.131
819	-0.126
820	-0.122
820	-0.118
820	-0.113
821	-0.106
821	-0.098
822	-0.09
822	-0.082
823	-0.075
823	-0.07
823	-0.065
824	-0.059
824	-0.054
825	-0.048
825	-0.042
826	-0.037
826	-0.034
826	-0.031
827	-0.028
827	-0.025
828	-0.023
828	-0.021
829	-0.02
829	-0.018
829	-0.018
830	-0.018
830	-0.018
831	-0.016
831	-0.015
832	-0.015
832	-0.014
832	-0.013
833	-0.012
833	-0.011
834	-0.01
834	-0.009
835	-0.008
835	-0.007
835	-0.007
836	-0.006
836	-0.006
837	-0.006
837	-0.006
838	-0.006
838	-0.006
839	-0.006
839	-0.006
839	-0.006
840	-0.007
840	-0.006
841	-0.006
841	-0.006
842	-0.005
842	-0.004
842	-0.004
843	-0.003
843	-0.002
844	-0.001
844	0
845	0.001
845	0.002
845	0.002
846	0.003
846	0.003
847	0.003
847	0.003
848	0.004
848	0.005
848	0.006
849	0.007
849	0.008
850	0.009
850	0.009
851	0.01
851	0.011
851	0.011
852	0.01
852	0.01
853	0.009
853	0.007
854	0.006
854	0.005
854	0.004
855	0.003
855	0.002
856	0.001
856	0.001
857	0.001
857	0.002
857	0.003
858	0.004
858	0.005
859	0.007
859	0.009
860	0.011
860	0.013
860	0.014
861	0.016
861	0.017
862	0.017
862	0.018
863	0.018
863	0.017
863	0.017
864	0.016
864	0.015
865	0.015
865	0.014
866	0.013
866	0.012
866	0.012
867	0.011
867	0.01
868	0.01
868	0.009
869	0.008
869	0.007
869	0.005
870	0.004
870	0.003
871	0.002
871	0.001
872	-0
872	-0.001
872	-0.002
873	-0.002
873	-0.002
874	-0.002
874	-0.001
875	-0.001
875	-0
875	0
876	0.001
876	0.001
877	0.002
877	0.002
878	0.003
878	0.004
878	0.004
879	0.005
879	0.005
880	0.005
880	0.005
881	0.005
881	0.005
881	0.006
882	0.006
882	0.006
883	0.007
883	0.007
884	0.007
884	0.008
884	0.008
885	0.008
885	0.008
886	0.009
886	0.009
887	0.009
887	0.009
887	0.01
888	0.01
888	0.01
889	0.011
889	0.012
890	0.013
890	0.013
890	0.014
891	0.014
891	0.015
892	0.015
892	0.015
893	0.015
893	0.014
893	0.014
894	0.014
894	0.013
895	0.012
895	0.011
895	0.01
896	0.009
896	0.008
897	0.007
897	0.006
898	0.005
898	0.004
898	0.003
899	0.002
899	0.002
900	0.002
900	0.002
901	0.002
901	0.002
901	0.002
902	0.002
902	0.002
903	0.001
903	0.001
904	0
904	-0
904	-0.001
905	-0.001
905	-0.001
906	-0.001
906	-0.001
907	-0.001
907	-0
907	0
908	0.001
908	0.002
909	0.004
909	0.005
910	0.006
910	0.008
910	0.008
911	0.009
911	0.009
912	0.01
912	0.01
913	0.01
913	0.009
913	0.009
914	0.008
914	0.007
915	0.006
915	0.005
916	0.004
916	0.003
916	0.003
917	0.003
917	0.002
918	0.002
918	0.002
918	0.002
919	0.002
919	0.002
920	0.002
920	0.002
921	0.002
921	0.001
921	0.001
922	0.001
922	0.001
923	0.002
923	0.002
924	0.002
924	0.002
924	0.003
925	0.003
925	0.003
926	0.003
926	0.003
927	0.003
927	0.003
927	0.003
928	0.002
928	0.002
929	0.002
929	0.002
930	0.001
930	0.001
930	0
931	-0
931	-0.001
932	-0.001
932	-0.001
933	-0.002
933	-0.002
933	-0.002
934	-0.003
934	-0.003
935	-0.004
935	-0.004
935	-0.004
936	-0.005
936	-0.005
937	-0.005
937	-0.004
938	-0.004
938	-0.004
938	-0.004
939	-0.003
939	-0.002
940	-0.001
940	-0
941	0.001
941	0.002
941	0.003
942	0.003
942	0.004
943	0.004
943	0.004
944	0.005
944	0.006
944	0.006
945	0.007
945	0.007
946	0.008
946	0.008
946	0.008
947	0.009
947	0.009
948	0.01
948	0.01
949	0.01
949	0.01
949	0.01
950	0.011
950	0.011
951	0.012
951	0.012
952	0.013
952	0.013
952	0.014
953	0.014
953	0.015
954	0.015
954	0.014
955	0.014
955	0.014
955	0.013
956	0.013
956	0.012
957	0.012
957	0.011
957	0.009
958	0.008
958	0.008
959	0.007
959	0.006
960	0.004
960	0.003
960	0.001
961	-0
961	-0.002
962	-0.003
962	-0.004
963	-0.005
963	-0.007
963	-0.008
964	-0.008
964	-0.009
965	-0.009
965	-0.009
966	-0.009
966	-0.008
966	-0.008
967	-0.008
967	-0.008
968	-0.007
968	-0.007
968	-0.007
969	-0.007
969	-0.007
970	-0.006
970	-0.006
971	-0.006
971	-0.005
971	-0.005
972	-0.004
972	-0.003
973	-0.002
973	-0.002
974	-0.001
974	0
974	0.001
975	0.002
975	0.003
976	0.003
976	0.003
976	0.003
977	0.003
977	0.003
978	0.002
978	0.002
979	0.001
979	0
979	-0.001
980	-0.002
980	-0.003
981	-0.004
981	-0.005
982	-0.005
982	-0.006
982	-0.006
983	-0.006
983	-0.006
984	-0.006
984	-0.006
984	-0.005
985	-0.005
985	-0.004
986	-0.003
986	-0.003
987	-0.002
987	-0.002
987	-0.001
988	-0.001
988	-0.001
989	-0.001
989	-0.001
990	-0.001
990	-0.001
990	-0
991	-0
991	0
992	0.001
992	0.001
992	0.002
993	0.002
993	0.003
994	0.003
994	0.003
995	0.004
995	0.004
995	0.004
996	0.003
996	0.003
997	0.002
997	0.002
997	0.001
998	0
998	-0
999	-0.001
999	-0.001
1000	-0.002
1000	-0.002
1000	-0.002
1001	-0.002
1001	-0.002
1002	-0.003
1002	-0.003
1003	-0.003
1003	-0.003
1003	-0.003
1004	-0.004
1004	-0.004
1005	-0.005
1005	-0.005
1005	-0.006
1006	-0.007
1006	-0.007
1007	-0.008
1007	-0.008
1008	-0.008
1008	-0.009
1008	-0.009
1009	-0.009
1009	-0.009
1010	-0.009
1010	-0.009
1010	-0.009
1011	-0.009
1011	-0.008
1012	-0.008
1012	-0.007
1013	-0.007
1013	-0.007
1013	-0.007
1014	-0.006
1014	-0.006
1015	-0.006
1015	-0.005
1016	-0.005
1016	-0.005
1016	-0.004
1017	-0.004
1017	-0.004
1018	-0.003
1018	-0.003
1018	-0.003
1019	-0.002
1019	-0.002
1020	-0.002
1020	-0.002
1021	-0.002
1021	-0.003
1021	-0.003
1022	-0.003
1022	-0.004
1023	-0.004
1023	-0.005
1023	-0.005
1024	-0.006
1024	-0.007
1025	-0.007
1025	-0.007
1026	-0.007
1026	-0.007
1026	-0.007
1027	-0.007
1027	-0.007
1028	-0.007
1028	-0.006
1028	-0.006
1029	-0.005
1029	-0.005
1030	-0.005
1030	-0.005
1031	-0.005
1031	-0.005
1031	-0.005
1032	-0.005
1032	-0.006
1033	-0.006
1033	-0.007
1033	-0.008
1034	-0.009
1034	-0.01
1035	-0.011
1035	-0.012
1036	-0.013
1036	-0.013
1036	-0.014
1037	-0.014
1037	-0.015
1038	-0.015
1038	-0.015
1039	-0.015
1039	-0.015
1039	-0.014
1040	-0.014
1040	-0.015
1041	-0.015
1041	-0.015
1041	-0.016
1042	-0.016
1042	-0.016
1043	-0.017
1043	-0.017
1044	-0.018
1044	-0.019
1044	-0.019
1045	-0.019
1045	-0.019
1046	-0.019
1046	-0.019
1046	-0.019
1047	-0.019
1047	-0.018
1048	-0.018
1048	-0.017
1049	-0.017
1049	-0.017
1049	-0.016
1050	-0.015
1050	-0.015
1051	-0.014
1051	-0.013
1051	-0.012
1052	-0.011
1052	-0.01
1053	-0.01
1053	-0.009
1053	-0.008
1054	-0.007
1054	-0.006
1055	-0.005
1055	-0.005
1056	-0.005
1056	-0.006
1056	-0.007
1057	-0.008
1057	-0.008
1058	-0.009
1058	-0.01
1058	-0.011
1059	-0.012
1059	-0.013
1060	-0.013
1060	-0.014
1061	-0.014
1061	-0.014
1061	-0.014
1062	-0.015
1062	-0.016
1063	-0.016
1063	-0.016
1063	-0.017
1064	-0.017
1064	-0.016
1065	-0.017
1065	-0.017
1066	-0.016
1066	-0.016
1066	-0.015
1067	-0.015
1067	-0.014
1068	-0.013
1068	-0.012
1068	-0.012
1069	-0.011
1069	-0.011
1070	-0.01
1070	-0.01
1071	-0.009
1071	-0.008
1071	-0.008
1072	-0.007
1072	-0.006
1073	-0.005
1073	-0.003
1073	-0.003
1074	-0.002
1074	-0.001
1075	-0
1075	0
1076	0
1076	0.001
1076	0
1077	-0
1077	0
1078	0
1078	0.001
1078	0.002
1079	0.002
1079	0.003
1080	0.004
1080	0.005
1080	0.006
1081	0.008
1081	0.009
1082	0.01
1082	0.01
1083	0.01
1083	0.011
1083	0.012
1084	0.012
1084	0.013
1085	0.014
1085	0.014
1085	0.015
1086	0.016
1086	0.016
1087	0.017
1087	0.018
1088	0.018
1088	0.019
1088	0.02
1089	0.021
1089	0.021
1090	0.022
1090	0.023
1090	0.023
1091	0.024
1091	0.026
1092	0.027
1092	0.03
1092	0.031
1093	0.032
1093	0.034
1094	0.035
1094	0.037
1095	0.038
1095	0.04
1095	0.044
1096	0.045
1096	0.048
1097	0.05
1097	0.052
1097	0.056
1098	0.059
1098	0.062
1099	0.066
1099	0.07
1100	0.075
1100	0.079
1100	0.084
1101	0.089
1101	0.095
1102	0.103
1102	0.111
1102	0.12
1103	0.129
1103	0.14
1104	0.151
1104	0.164
1104	0.18
1105	0.195
1105	0.21
1106	0.226
1106	0.246
1107	0.264
1107	0.294
1107	0.333
1108	0.458
1108	0.682
1109	1.534
1109	-0
1109	-0
1110	-0
1110	-0
1111	-0
1111	-0
