Data from 15c-2-2a_Absorbance__1270__03071.txt Node

Date: Wed Jan 24 13:46:13 CET 2024
User: Marek
Spectrometer: MAYP115816
Trigger mode: 0
Integration Time (sec): 2.000000E-1
Scans to average: 10
Electric dark correction enabled: true
Nonlinearity correction enabled: true
Boxcar width: 5
XAxis mode: Wavelengths
Number of Pixels in Spectrum: 2068
>>>>>Begin Spectral Data<<<<<
199	-1.77
199	-1.61
200	-1.451
200	-1.328
201	-1.255
201	-1.203
202	-1.133
202	-1.077
203	-1.028
203	-0.987
204	-0.958
204	-0.933
205	-0.91
205	-0.902
205	-0.9
206	-0.896
206	-0.894
207	-0.891
207	-0.887
208	-0.886
208	-0.885
209	-0.883
209	-0.882
210	-0.883
210	-0.881
211	-0.88
211	-0.88
212	-0.878
212	-0.876
213	-0.874
213	-0.872
213	-0.87
214	-0.868
214	-0.864
215	-0.863
215	-0.859
216	-0.857
216	-0.855
217	-0.854
217	-0.854
218	-0.854
218	-0.852
219	-0.851
219	-0.848
220	-0.846
220	-0.844
221	-0.844
221	-0.841
221	-0.836
222	-0.83
222	-0.823
223	-0.817
223	-0.812
224	-0.803
224	-0.794
225	-0.787
225	-0.777
226	-0.768
226	-0.757
227	-0.744
227	-0.732
228	-0.715
228	-0.697
229	-0.676
229	-0.654
229	-0.629
230	-0.599
230	-0.566
231	-0.532
231	-0.494
232	-0.457
232	-0.416
233	-0.376
233	-0.334
234	-0.293
234	-0.251
235	-0.21
235	-0.171
236	-0.135
236	-0.1
236	-0.066
237	-0.035
237	-0.006
238	0.02
238	0.045
239	0.068
239	0.088
240	0.107
240	0.123
241	0.138
241	0.153
242	0.165
242	0.176
243	0.186
243	0.195
243	0.203
244	0.21
244	0.217
245	0.223
245	0.229
246	0.234
246	0.239
247	0.243
247	0.248
248	0.252
248	0.255
249	0.259
249	0.262
250	0.265
250	0.268
250	0.271
251	0.274
251	0.277
252	0.279
252	0.281
253	0.283
253	0.285
254	0.287
254	0.289
255	0.29
255	0.292
256	0.293
256	0.294
257	0.295
257	0.296
258	0.297
258	0.298
258	0.298
259	0.299
259	0.299
260	0.299
260	0.3
261	0.3
261	0.3
262	0.3
262	0.3
263	0.3
263	0.299
264	0.299
264	0.298
265	0.298
265	0.297
265	0.296
266	0.295
266	0.294
267	0.293
267	0.292
268	0.291
268	0.289
269	0.288
269	0.286
270	0.285
270	0.283
271	0.282
271	0.28
272	0.278
272	0.277
272	0.275
273	0.273
273	0.271
274	0.27
274	0.268
275	0.266
275	0.265
276	0.263
276	0.261
277	0.259
277	0.257
278	0.255
278	0.253
278	0.25
279	0.248
279	0.245
280	0.243
280	0.241
281	0.239
281	0.237
282	0.235
282	0.233
283	0.232
283	0.231
284	0.23
284	0.228
285	0.227
285	0.225
285	0.224
286	0.222
286	0.22
287	0.219
287	0.217
288	0.216
288	0.215
289	0.213
289	0.212
290	0.21
290	0.209
291	0.208
291	0.207
292	0.206
292	0.205
292	0.204
293	0.203
293	0.202
294	0.201
294	0.2
295	0.199
295	0.198
296	0.197
296	0.196
297	0.196
297	0.195
298	0.194
298	0.193
298	0.192
299	0.192
299	0.191
300	0.19
300	0.19
301	0.189
301	0.188
302	0.188
302	0.187
303	0.187
303	0.187
304	0.186
304	0.185
305	0.185
305	0.184
305	0.184
306	0.183
306	0.183
307	0.182
307	0.182
308	0.181
308	0.18
309	0.18
309	0.179
310	0.179
310	0.178
311	0.178
311	0.177
311	0.176
312	0.176
312	0.175
313	0.175
313	0.174
314	0.173
314	0.173
315	0.172
315	0.172
316	0.171
316	0.171
317	0.17
317	0.169
318	0.169
318	0.169
318	0.168
319	0.167
319	0.167
320	0.166
320	0.166
321	0.165
321	0.165
322	0.164
322	0.164
323	0.163
323	0.163
324	0.162
324	0.162
324	0.161
325	0.16
325	0.16
326	0.159
326	0.159
327	0.158
327	0.158
328	0.157
328	0.157
329	0.156
329	0.156
330	0.155
330	0.155
330	0.155
331	0.154
331	0.153
332	0.153
332	0.152
333	0.152
333	0.151
334	0.151
334	0.15
335	0.15
335	0.149
336	0.149
336	0.148
336	0.148
337	0.148
337	0.147
338	0.147
338	0.147
339	0.146
339	0.146
340	0.146
340	0.145
341	0.145
341	0.144
342	0.144
342	0.144
342	0.143
343	0.143
343	0.142
344	0.142
344	0.141
345	0.141
345	0.141
346	0.14
346	0.14
347	0.14
347	0.14
348	0.139
348	0.139
348	0.139
349	0.139
349	0.138
350	0.138
350	0.138
351	0.137
351	0.137
352	0.136
352	0.136
353	0.135
353	0.135
354	0.135
354	0.134
354	0.134
355	0.133
355	0.133
356	0.132
356	0.132
357	0.131
357	0.131
358	0.131
358	0.131
359	0.131
359	0.131
360	0.131
360	0.131
360	0.131
361	0.132
361	0.132
362	0.132
362	0.132
363	0.133
363	0.133
364	0.133
364	0.132
365	0.132
365	0.132
366	0.132
366	0.131
366	0.131
367	0.131
367	0.131
368	0.13
368	0.13
369	0.13
369	0.13
370	0.129
370	0.129
371	0.129
371	0.129
372	0.129
372	0.129
372	0.129
373	0.129
373	0.129
374	0.129
374	0.128
375	0.128
375	0.128
376	0.128
376	0.128
377	0.128
377	0.128
378	0.128
378	0.128
378	0.128
379	0.128
379	0.128
380	0.128
380	0.128
381	0.128
381	0.128
382	0.128
382	0.127
383	0.127
383	0.127
383	0.127
384	0.127
384	0.127
385	0.127
385	0.127
386	0.127
386	0.126
387	0.126
387	0.126
388	0.126
388	0.126
389	0.126
389	0.126
389	0.126
390	0.126
390	0.126
391	0.126
391	0.126
392	0.126
392	0.126
393	0.126
393	0.126
394	0.126
394	0.126
394	0.125
395	0.125
395	0.125
396	0.124
396	0.124
397	0.124
397	0.124
398	0.124
398	0.124
399	0.124
399	0.124
400	0.123
400	0.123
400	0.123
401	0.123
401	0.123
402	0.122
402	0.122
403	0.122
403	0.122
404	0.122
404	0.122
405	0.122
405	0.121
405	0.121
406	0.121
406	0.121
407	0.121
407	0.121
408	0.121
408	0.12
409	0.12
409	0.12
410	0.12
410	0.12
411	0.12
411	0.12
411	0.119
412	0.119
412	0.119
413	0.119
413	0.119
414	0.119
414	0.119
415	0.119
415	0.118
416	0.118
416	0.118
416	0.118
417	0.117
417	0.117
418	0.117
418	0.117
419	0.117
419	0.117
420	0.117
420	0.118
421	0.118
421	0.118
421	0.118
422	0.118
422	0.118
423	0.118
423	0.118
424	0.118
424	0.117
425	0.117
425	0.116
426	0.116
426	0.115
427	0.115
427	0.116
427	0.116
428	0.116
428	0.116
429	0.117
429	0.117
430	0.117
430	0.117
431	0.117
431	0.117
432	0.117
432	0.116
432	0.116
433	0.116
433	0.115
434	0.115
434	0.115
435	0.115
435	0.115
436	0.115
436	0.115
437	0.115
437	0.114
437	0.114
438	0.114
438	0.114
439	0.114
439	0.114
440	0.113
440	0.113
441	0.113
441	0.113
442	0.114
442	0.114
442	0.114
443	0.114
443	0.114
444	0.114
444	0.114
445	0.115
445	0.115
446	0.115
446	0.115
447	0.115
447	0.115
447	0.114
448	0.114
448	0.114
449	0.114
449	0.114
450	0.114
450	0.114
451	0.113
451	0.113
452	0.113
452	0.113
452	0.113
453	0.112
453	0.112
454	0.111
454	0.111
455	0.111
455	0.11
456	0.11
456	0.11
457	0.11
457	0.11
458	0.11
458	0.11
458	0.11
459	0.11
459	0.11
460	0.11
460	0.11
461	0.11
461	0.11
462	0.111
462	0.111
463	0.111
463	0.112
463	0.112
464	0.112
464	0.112
465	0.111
465	0.112
466	0.112
466	0.112
467	0.111
467	0.111
467	0.111
468	0.11
468	0.109
469	0.109
469	0.109
470	0.109
470	0.109
471	0.109
471	0.109
472	0.109
472	0.109
472	0.11
473	0.111
473	0.111
474	0.111
474	0.112
475	0.112
475	0.112
476	0.113
476	0.113
477	0.113
477	0.113
477	0.113
478	0.113
478	0.114
479	0.115
479	0.115
480	0.116
480	0.117
481	0.118
481	0.118
482	0.119
482	0.12
482	0.121
483	0.122
483	0.123
484	0.125
484	0.125
485	0.126
485	0.126
486	0.127
486	0.127
487	0.128
487	0.128
487	0.128
488	0.128
488	0.127
489	0.127
489	0.128
490	0.128
490	0.129
491	0.129
491	0.13
492	0.131
492	0.132
492	0.133
493	0.133
493	0.135
494	0.136
494	0.137
495	0.138
495	0.139
496	0.14
496	0.141
496	0.142
497	0.143
497	0.144
498	0.144
498	0.145
499	0.146
499	0.146
500	0.147
500	0.149
501	0.15
501	0.151
501	0.152
502	0.153
502	0.154
503	0.155
503	0.156
504	0.157
504	0.158
505	0.158
505	0.159
506	0.159
506	0.16
506	0.16
507	0.161
507	0.161
508	0.162
508	0.163
509	0.164
509	0.165
510	0.166
510	0.166
511	0.167
511	0.167
511	0.168
512	0.168
512	0.169
513	0.169
513	0.168
514	0.168
514	0.169
515	0.169
515	0.169
515	0.169
516	0.17
516	0.171
517	0.171
517	0.172
518	0.172
518	0.173
519	0.172
519	0.172
520	0.171
520	0.17
520	0.17
521	0.168
521	0.167
522	0.165
522	0.164
523	0.164
523	0.164
524	0.164
524	0.165
524	0.166
525	0.168
525	0.169
526	0.17
526	0.172
527	0.173
527	0.174
528	0.175
528	0.176
529	0.176
529	0.176
529	0.175
530	0.175
530	0.175
531	0.175
531	0.174
532	0.173
532	0.173
533	0.172
533	0.171
533	0.171
534	0.17
534	0.169
535	0.168
535	0.167
536	0.166
536	0.165
537	0.165
537	0.164
538	0.163
538	0.162
538	0.161
539	0.16
539	0.159
540	0.158
540	0.157
541	0.155
541	0.154
542	0.152
542	0.151
542	0.149
543	0.148
543	0.147
544	0.145
544	0.145
545	0.144
545	0.143
546	0.142
546	0.141
547	0.139
547	0.138
547	0.136
548	0.135
548	0.133
549	0.132
549	0.131
550	0.129
550	0.127
551	0.126
551	0.124
551	0.123
552	0.121
552	0.12
553	0.119
553	0.118
554	0.117
554	0.116
555	0.114
555	0.113
556	0.111
556	0.109
556	0.108
557	0.106
557	0.105
558	0.103
558	0.102
559	0.101
559	0.1
560	0.098
560	0.097
560	0.096
561	0.096
561	0.095
562	0.095
562	0.094
563	0.092
563	0.091
564	0.09
564	0.088
564	0.087
565	0.086
565	0.085
566	0.083
566	0.082
567	0.081
567	0.08
568	0.08
568	0.08
568	0.081
569	0.081
569	0.082
570	0.082
570	0.081
571	0.082
571	0.082
572	0.082
572	0.081
573	0.081
573	0.08
573	0.079
574	0.078
574	0.077
575	0.077
575	0.077
576	0.077
576	0.076
577	0.074
577	0.073
577	0.073
578	0.072
578	0.072
579	0.073
579	0.074
580	0.073
580	0.071
581	0.068
581	0.067
581	0.067
582	0.067
582	0.067
583	0.067
583	0.066
584	0.064
584	0.061
585	0.06
585	0.061
585	0.061
586	0.061
586	0.061
587	0.059
587	0.058
588	0.056
588	0.055
589	0.055
589	0.054
590	0.054
590	0.053
590	0.055
591	0.055
591	0.055
592	0.054
592	0.053
593	0.053
593	0.053
594	0.052
594	0.051
594	0.051
595	0.051
595	0.049
596	0.048
596	0.049
597	0.051
597	0.052
598	0.052
598	0.053
598	0.053
599	0.054
599	0.053
600	0.052
600	0.052
601	0.051
601	0.051
602	0.049
602	0.049
602	0.049
603	0.049
603	0.05
604	0.05
604	0.051
605	0.052
605	0.053
606	0.052
606	0.051
606	0.051
607	0.05
607	0.05
608	0.05
608	0.048
609	0.048
609	0.047
610	0.046
610	0.045
610	0.046
611	0.046
611	0.047
612	0.048
612	0.049
613	0.05
613	0.051
614	0.051
614	0.051
614	0.051
615	0.05
615	0.05
616	0.05
616	0.05
617	0.049
617	0.048
618	0.048
618	0.047
618	0.047
619	0.047
619	0.049
620	0.05
620	0.051
621	0.052
621	0.052
622	0.053
622	0.054
622	0.054
623	0.054
623	0.055
624	0.056
624	0.055
625	0.055
625	0.055
626	0.055
626	0.055
626	0.055
627	0.055
627	0.056
628	0.056
628	0.056
629	0.056
629	0.056
630	0.056
630	0.056
630	0.056
631	0.057
631	0.058
632	0.058
632	0.059
633	0.059
633	0.06
634	0.061
634	0.063
634	0.065
635	0.066
635	0.067
636	0.069
636	0.07
637	0.071
637	0.072
638	0.073
638	0.074
638	0.075
639	0.076
639	0.077
640	0.078
640	0.079
641	0.081
641	0.082
642	0.084
642	0.086
642	0.087
643	0.088
643	0.089
644	0.09
644	0.091
645	0.092
645	0.093
646	0.094
646	0.096
646	0.097
647	0.099
647	0.101
648	0.103
648	0.105
649	0.107
649	0.109
650	0.111
650	0.113
650	0.114
651	0.116
651	0.117
652	0.119
652	0.12
653	0.123
653	0.13
653	0.137
654	0.112
654	0.092
655	0.093
655	0.095
656	0.097
656	0.098
657	0.1
657	0.101
657	0.101
658	0.099
658	0.093
659	0.116
659	0.146
660	0.153
660	0.155
661	0.156
661	0.158
661	0.16
662	0.163
662	0.165
663	0.168
663	0.17
664	0.173
664	0.174
665	0.177
665	0.179
665	0.181
666	0.183
666	0.184
667	0.185
667	0.187
668	0.189
668	0.19
669	0.193
669	0.195
669	0.198
670	0.201
670	0.203
671	0.204
671	0.206
672	0.208
672	0.209
672	0.211
673	0.212
673	0.213
674	0.214
674	0.214
675	0.215
675	0.215
676	0.217
676	0.218
676	0.219
677	0.22
677	0.221
678	0.222
678	0.223
679	0.224
679	0.225
680	0.226
680	0.227
680	0.227
681	0.228
681	0.228
682	0.229
682	0.229
683	0.23
683	0.231
684	0.233
684	0.233
684	0.233
685	0.234
685	0.235
686	0.235
686	0.236
687	0.236
687	0.236
687	0.236
688	0.235
688	0.234
689	0.234
689	0.234
690	0.234
690	0.233
691	0.232
691	0.232
691	0.231
692	0.23
692	0.23
693	0.229
693	0.23
694	0.229
694	0.228
695	0.228
695	0.229
695	0.228
696	0.228
696	0.227
697	0.226
697	0.225
698	0.224
698	0.223
698	0.222
699	0.221
699	0.22
700	0.218
700	0.217
701	0.216
701	0.215
702	0.214
702	0.213
702	0.212
703	0.21
703	0.209
704	0.207
704	0.206
705	0.205
705	0.204
705	0.202
706	0.2
706	0.199
707	0.197
707	0.195
708	0.193
708	0.192
709	0.19
709	0.188
709	0.186
710	0.183
710	0.181
711	0.18
711	0.178
712	0.177
712	0.175
713	0.174
713	0.173
713	0.171
714	0.17
714	0.168
715	0.167
715	0.166
716	0.165
716	0.164
716	0.163
717	0.162
717	0.161
718	0.16
718	0.158
719	0.157
719	0.156
720	0.155
720	0.153
720	0.15
721	0.148
721	0.146
722	0.143
722	0.14
723	0.138
723	0.137
723	0.135
724	0.133
724	0.131
725	0.129
725	0.128
726	0.127
726	0.125
727	0.124
727	0.123
727	0.121
728	0.119
728	0.118
729	0.117
729	0.116
730	0.114
730	0.112
730	0.111
731	0.11
731	0.108
732	0.107
732	0.107
733	0.105
733	0.104
734	0.103
734	0.102
734	0.101
735	0.101
735	0.099
736	0.098
736	0.096
737	0.095
737	0.094
737	0.092
738	0.09
738	0.088
739	0.086
739	0.084
740	0.082
740	0.081
741	0.079
741	0.077
741	0.074
742	0.071
742	0.068
743	0.066
743	0.064
744	0.062
744	0.06
744	0.057
745	0.056
745	0.054
746	0.053
746	0.052
747	0.051
747	0.052
748	0.052
748	0.052
748	0.052
749	0.052
749	0.052
750	0.052
750	0.052
751	0.052
751	0.052
751	0.051
752	0.05
752	0.049
753	0.048
753	0.047
754	0.046
754	0.045
754	0.045
755	0.045
755	0.045
756	0.044
756	0.043
757	0.043
757	0.043
758	0.043
758	0.043
758	0.043
759	0.042
759	0.041
760	0.04
760	0.039
761	0.039
761	0.039
761	0.038
762	0.037
762	0.037
763	0.036
763	0.034
764	0.032
764	0.031
764	0.029
765	0.028
765	0.026
766	0.024
766	0.024
767	0.023
767	0.02
768	0.018
768	0.017
768	0.016
769	0.015
769	0.015
770	0.013
770	0.012
771	0.01
771	0.007
771	0.005
772	0.004
772	0.002
773	0
773	-0.002
774	-0.004
774	-0.006
775	-0.008
775	-0.009
775	-0.011
776	-0.013
776	-0.014
777	-0.016
777	-0.018
778	-0.02
778	-0.022
778	-0.025
779	-0.026
779	-0.028
780	-0.031
780	-0.034
781	-0.037
781	-0.041
781	-0.045
782	-0.05
782	-0.055
783	-0.06
783	-0.065
784	-0.072
784	-0.079
784	-0.085
785	-0.092
785	-0.1
786	-0.105
786	-0.108
787	-0.107
787	-0.108
788	-0.112
788	-0.116
788	-0.119
789	-0.122
789	-0.123
790	-0.121
790	-0.121
791	-0.123
791	-0.125
791	-0.128
792	-0.124
792	-0.113
793	-0.108
793	-0.104
794	-0.102
794	-0.103
794	-0.107
795	-0.109
795	-0.108
796	-0.108
796	-0.11
797	-0.118
797	-0.129
797	-0.135
798	-0.139
798	-0.142
799	-0.143
799	-0.143
800	-0.143
800	-0.145
801	-0.148
801	-0.149
801	-0.15
802	-0.151
802	-0.152
803	-0.153
803	-0.152
804	-0.151
804	-0.145
804	-0.138
805	-0.133
805	-0.13
806	-0.128
806	-0.126
807	-0.125
807	-0.124
807	-0.124
808	-0.124
808	-0.125
809	-0.13
809	-0.136
810	-0.14
810	-0.143
810	-0.147
811	-0.151
811	-0.152
812	-0.149
812	-0.146
813	-0.147
813	-0.148
813	-0.15
814	-0.151
814	-0.151
815	-0.148
815	-0.145
816	-0.143
816	-0.143
817	-0.147
817	-0.148
817	-0.146
818	-0.142
818	-0.136
819	-0.13
819	-0.124
820	-0.12
820	-0.116
820	-0.11
821	-0.103
821	-0.094
822	-0.086
822	-0.078
823	-0.072
823	-0.066
823	-0.061
824	-0.056
824	-0.05
825	-0.044
825	-0.039
826	-0.034
826	-0.031
826	-0.028
827	-0.025
827	-0.022
828	-0.02
828	-0.018
829	-0.017
829	-0.016
829	-0.016
830	-0.016
830	-0.015
831	-0.014
831	-0.013
832	-0.013
832	-0.012
832	-0.011
833	-0.01
833	-0.009
834	-0.008
834	-0.007
835	-0.006
835	-0.005
835	-0.005
836	-0.004
836	-0.004
837	-0.004
837	-0.003
838	-0.004
838	-0.004
839	-0.004
839	-0.004
839	-0.004
840	-0.004
840	-0.004
841	-0.004
841	-0.004
842	-0.003
842	-0.002
842	-0.001
843	-0
843	0
844	0.002
844	0.002
845	0.003
845	0.004
845	0.005
846	0.005
846	0.005
847	0.005
847	0.006
848	0.007
848	0.008
848	0.009
849	0.01
849	0.011
850	0.011
850	0.012
851	0.012
851	0.013
851	0.013
852	0.012
852	0.012
853	0.011
853	0.01
854	0.009
854	0.008
854	0.006
855	0.005
855	0.004
856	0.004
856	0.003
857	0.003
857	0.004
857	0.005
858	0.006
858	0.007
859	0.008
859	0.01
860	0.012
860	0.014
860	0.016
861	0.018
861	0.019
862	0.019
862	0.02
863	0.02
863	0.02
863	0.019
864	0.019
864	0.018
865	0.018
865	0.017
866	0.016
866	0.015
866	0.015
867	0.014
867	0.013
868	0.013
868	0.012
869	0.011
869	0.01
869	0.008
870	0.007
870	0.006
871	0.005
871	0.004
872	0.003
872	0.003
872	0.002
873	0.002
873	0.001
874	0.002
874	0.002
875	0.003
875	0.003
875	0.003
876	0.004
876	0.004
877	0.005
877	0.005
878	0.006
878	0.007
878	0.007
879	0.008
879	0.008
880	0.008
880	0.008
881	0.008
881	0.009
881	0.009
882	0.009
882	0.009
883	0.01
883	0.01
884	0.01
884	0.011
884	0.011
885	0.011
885	0.011
886	0.011
886	0.012
887	0.012
887	0.012
887	0.012
888	0.013
888	0.013
889	0.014
889	0.015
890	0.016
890	0.017
890	0.017
891	0.017
891	0.018
892	0.018
892	0.018
893	0.018
893	0.017
893	0.017
894	0.017
894	0.016
895	0.015
895	0.014
895	0.013
896	0.011
896	0.01
897	0.009
897	0.008
898	0.007
898	0.006
898	0.005
899	0.004
899	0.003
900	0.003
900	0.003
901	0.003
901	0.003
901	0.003
902	0.003
902	0.003
903	0.003
903	0.002
904	0.002
904	0.001
904	0.001
905	0
905	0
906	0
906	0
907	0.001
907	0.001
907	0.002
908	0.003
908	0.004
909	0.005
909	0.006
910	0.007
910	0.008
910	0.009
911	0.01
911	0.01
912	0.011
912	0.011
913	0.011
913	0.01
913	0.01
914	0.009
914	0.008
915	0.007
915	0.006
916	0.005
916	0.005
916	0.004
917	0.004
917	0.004
918	0.004
918	0.003
918	0.003
919	0.003
919	0.003
920	0.003
920	0.003
921	0.003
921	0.002
921	0.002
922	0.002
922	0.003
923	0.003
923	0.003
924	0.004
924	0.004
924	0.005
925	0.005
925	0.005
926	0.006
926	0.006
927	0.006
927	0.005
927	0.005
928	0.005
928	0.004
929	0.004
929	0.003
930	0.003
930	0.003
930	0.002
931	0.002
931	0.002
932	0.002
932	0.001
933	0.001
933	0.001
933	0
934	-0
934	-0.001
935	-0.001
935	-0.002
935	-0.002
936	-0.002
936	-0.003
937	-0.002
937	-0.002
938	-0.002
938	-0.002
938	-0.002
939	-0.001
939	-0
940	0.001
940	0.001
941	0.002
941	0.003
941	0.004
942	0.004
942	0.005
943	0.005
943	0.006
944	0.006
944	0.007
944	0.007
945	0.008
945	0.009
946	0.01
946	0.01
946	0.01
947	0.011
947	0.011
948	0.011
948	0.011
949	0.011
949	0.011
949	0.012
950	0.012
950	0.012
951	0.013
951	0.013
952	0.014
952	0.014
952	0.015
953	0.016
953	0.016
954	0.016
954	0.016
955	0.016
955	0.016
955	0.015
956	0.015
956	0.014
957	0.013
957	0.012
957	0.011
958	0.01
958	0.01
959	0.009
959	0.008
960	0.007
960	0.005
960	0.004
961	0.002
961	0.001
962	-0.001
962	-0.002
963	-0.003
963	-0.004
963	-0.005
964	-0.006
964	-0.007
965	-0.007
965	-0.007
966	-0.006
966	-0.006
966	-0.006
967	-0.005
967	-0.005
968	-0.005
968	-0.005
968	-0.005
969	-0.005
969	-0.005
970	-0.004
970	-0.004
971	-0.004
971	-0.004
971	-0.003
972	-0.003
972	-0.002
973	-0.001
973	-0.001
974	0
974	0.001
974	0.002
975	0.003
975	0.004
976	0.004
976	0.004
976	0.005
977	0.004
977	0.004
978	0.003
978	0.003
979	0.002
979	0.002
979	0.001
980	-0
980	-0.001
981	-0.002
981	-0.003
982	-0.003
982	-0.004
982	-0.004
983	-0.004
983	-0.004
984	-0.004
984	-0.004
984	-0.004
985	-0.003
985	-0.002
986	-0.002
986	-0.001
987	-0.001
987	-0.001
987	-0
988	0
988	0
989	0.001
989	0
990	0
990	0
990	0.001
991	0.001
991	0.002
992	0.002
992	0.003
992	0.003
993	0.004
993	0.004
994	0.005
994	0.005
995	0.005
995	0.006
995	0.005
996	0.005
996	0.004
997	0.003
997	0.003
997	0.002
998	0.002
998	0.001
999	0
999	-0
1000	-0.001
1000	-0.001
1000	-0.001
1001	-0.001
1001	-0.001
1002	-0.002
1002	-0.002
1003	-0.002
1003	-0.002
1003	-0.002
1004	-0.003
1004	-0.003
1005	-0.004
1005	-0.004
1005	-0.005
1006	-0.005
1006	-0.005
1007	-0.006
1007	-0.006
1008	-0.006
1008	-0.007
1008	-0.007
1009	-0.007
1009	-0.007
1010	-0.007
1010	-0.007
1010	-0.007
1011	-0.007
1011	-0.006
1012	-0.006
1012	-0.006
1013	-0.006
1013	-0.005
1013	-0.005
1014	-0.005
1014	-0.005
1015	-0.005
1015	-0.004
1016	-0.004
1016	-0.003
1016	-0.003
1017	-0.003
1017	-0.003
1018	-0.002
1018	-0.002
1018	-0.001
1019	-0.001
1019	-0.001
1020	-0
1020	-0
1021	-0.001
1021	-0.001
1021	-0.001
1022	-0.002
1022	-0.002
1023	-0.002
1023	-0.003
1023	-0.003
1024	-0.004
1024	-0.004
1025	-0.005
1025	-0.005
1026	-0.005
1026	-0.005
1026	-0.006
1027	-0.006
1027	-0.005
1028	-0.005
1028	-0.004
1028	-0.004
1029	-0.004
1029	-0.004
1030	-0.003
1030	-0.003
1031	-0.003
1031	-0.003
1031	-0.003
1032	-0.004
1032	-0.004
1033	-0.005
1033	-0.005
1033	-0.006
1034	-0.007
1034	-0.008
1035	-0.009
1035	-0.01
1036	-0.011
1036	-0.011
1036	-0.012
1037	-0.012
1037	-0.013
1038	-0.013
1038	-0.013
1039	-0.013
1039	-0.012
1039	-0.012
1040	-0.012
1040	-0.012
1041	-0.013
1041	-0.013
1041	-0.014
1042	-0.014
1042	-0.015
1043	-0.016
1043	-0.016
1044	-0.017
1044	-0.017
1044	-0.017
1045	-0.018
1045	-0.018
1046	-0.018
1046	-0.019
1046	-0.018
1047	-0.018
1047	-0.017
1048	-0.017
1048	-0.016
1049	-0.016
1049	-0.016
1049	-0.016
1050	-0.015
1050	-0.015
1051	-0.014
1051	-0.013
1051	-0.012
1052	-0.011
1052	-0.011
1053	-0.01
1053	-0.009
1053	-0.008
1054	-0.007
1054	-0.006
1055	-0.005
1055	-0.005
1056	-0.005
1056	-0.005
1056	-0.006
1057	-0.007
1057	-0.007
1058	-0.008
1058	-0.009
1058	-0.01
1059	-0.011
1059	-0.011
1060	-0.012
1060	-0.013
1061	-0.013
1061	-0.013
1061	-0.013
1062	-0.013
1062	-0.014
1063	-0.014
1063	-0.015
1063	-0.015
1064	-0.015
1064	-0.015
1065	-0.014
1065	-0.015
1066	-0.015
1066	-0.014
1066	-0.014
1067	-0.013
1067	-0.012
1068	-0.011
1068	-0.011
1068	-0.01
1069	-0.01
1069	-0.009
1070	-0.009
1070	-0.008
1071	-0.008
1071	-0.006
1071	-0.006
1072	-0.005
1072	-0.004
1073	-0.003
1073	-0.001
1073	-0
1074	0.001
1074	0.002
1075	0.002
1075	0.003
1076	0.003
1076	0.003
1076	0.002
1077	0.002
1077	0.003
1078	0.003
1078	0.003
1078	0.004
1079	0.005
1079	0.006
1080	0.007
1080	0.008
1080	0.009
1081	0.011
1081	0.012
1082	0.012
1082	0.013
1083	0.013
1083	0.014
1083	0.015
1084	0.015
1084	0.016
1085	0.017
1085	0.017
1085	0.018
1086	0.019
1086	0.019
1087	0.021
1087	0.021
1088	0.021
1088	0.022
1088	0.023
1089	0.024
1089	0.025
1090	0.025
1090	0.026
1090	0.027
1091	0.028
1091	0.029
1092	0.029
1092	0.032
1092	0.033
1093	0.033
1093	0.036
1094	0.037
1094	0.039
1095	0.04
1095	0.042
1095	0.046
1096	0.048
1096	0.051
1097	0.053
1097	0.056
1097	0.06
1098	0.062
1098	0.065
1099	0.07
1099	0.074
1100	0.079
1100	0.083
1100	0.088
1101	0.094
1101	0.101
1102	0.108
1102	0.118
1102	0.127
1103	0.136
1103	0.146
1104	0.158
1104	0.172
1104	0.187
1105	0.201
1105	0.216
1106	0.232
1106	0.25
1107	0.269
1107	0.298
1107	0.335
1108	0.461
1108	0.694
1109	1.595
1109	-0
1109	-0
1110	-0
1110	-0
1111	-0
1111	-0
