Data from 15c-2-2a_Absorbance__1775__03576.txt Node

Date: Wed Jan 24 14:03:02 CET 2024
User: Marek
Spectrometer: MAYP115816
Trigger mode: 0
Integration Time (sec): 2.000000E-1
Scans to average: 10
Electric dark correction enabled: true
Nonlinearity correction enabled: true
Boxcar width: 5
XAxis mode: Wavelengths
Number of Pixels in Spectrum: 2068
>>>>>Begin Spectral Data<<<<<
199	-1.814
199	-1.654
200	-1.494
200	-1.37
201	-1.296
201	-1.243
202	-1.172
202	-1.115
203	-1.065
203	-1.023
204	-0.994
204	-0.969
205	-0.946
205	-0.936
205	-0.935
206	-0.931
206	-0.93
207	-0.925
207	-0.922
208	-0.921
208	-0.919
209	-0.917
209	-0.917
210	-0.917
210	-0.915
211	-0.914
211	-0.913
212	-0.911
212	-0.909
213	-0.907
213	-0.905
213	-0.903
214	-0.9
214	-0.896
215	-0.895
215	-0.891
216	-0.89
216	-0.887
217	-0.885
217	-0.885
218	-0.886
218	-0.884
219	-0.883
219	-0.88
220	-0.878
220	-0.875
221	-0.876
221	-0.872
221	-0.867
222	-0.862
222	-0.855
223	-0.849
223	-0.843
224	-0.834
224	-0.826
225	-0.818
225	-0.807
226	-0.798
226	-0.786
227	-0.773
227	-0.761
228	-0.742
228	-0.724
229	-0.702
229	-0.68
229	-0.653
230	-0.622
230	-0.589
231	-0.552
231	-0.514
232	-0.474
232	-0.432
233	-0.389
233	-0.345
234	-0.3
234	-0.254
235	-0.211
235	-0.168
236	-0.127
236	-0.088
236	-0.049
237	-0.012
237	0.021
238	0.053
238	0.083
239	0.11
239	0.135
240	0.158
240	0.178
241	0.197
241	0.215
242	0.23
242	0.244
243	0.258
243	0.269
243	0.28
244	0.29
244	0.298
245	0.306
245	0.314
246	0.321
246	0.327
247	0.333
247	0.339
248	0.344
248	0.349
249	0.354
249	0.358
250	0.362
250	0.366
250	0.37
251	0.374
251	0.377
252	0.38
252	0.383
253	0.386
253	0.388
254	0.39
254	0.392
255	0.394
255	0.396
256	0.397
256	0.399
257	0.4
257	0.401
258	0.402
258	0.403
258	0.404
259	0.405
259	0.405
260	0.406
260	0.406
261	0.407
261	0.407
262	0.407
262	0.407
263	0.407
263	0.407
264	0.406
264	0.406
265	0.406
265	0.405
265	0.404
266	0.404
266	0.403
267	0.402
267	0.401
268	0.399
268	0.398
269	0.397
269	0.395
270	0.393
270	0.392
271	0.39
271	0.388
272	0.387
272	0.385
272	0.383
273	0.382
273	0.38
274	0.378
274	0.376
275	0.375
275	0.373
276	0.371
276	0.369
277	0.367
277	0.365
278	0.362
278	0.36
278	0.357
279	0.354
279	0.352
280	0.35
280	0.348
281	0.346
281	0.344
282	0.342
282	0.34
283	0.339
283	0.338
284	0.336
284	0.335
285	0.333
285	0.331
285	0.33
286	0.328
286	0.326
287	0.325
287	0.323
288	0.321
288	0.32
289	0.318
289	0.317
290	0.315
290	0.314
291	0.313
291	0.312
292	0.31
292	0.309
292	0.308
293	0.307
293	0.305
294	0.304
294	0.303
295	0.302
295	0.301
296	0.3
296	0.299
297	0.298
297	0.297
298	0.296
298	0.295
298	0.294
299	0.294
299	0.293
300	0.292
300	0.291
301	0.291
301	0.29
302	0.289
302	0.288
303	0.287
303	0.287
304	0.286
304	0.285
305	0.284
305	0.284
305	0.283
306	0.282
306	0.282
307	0.281
307	0.28
308	0.279
308	0.278
309	0.278
309	0.277
310	0.276
310	0.275
311	0.275
311	0.274
311	0.273
312	0.273
312	0.272
313	0.271
313	0.271
314	0.27
314	0.269
315	0.268
315	0.268
316	0.267
316	0.266
317	0.265
317	0.264
318	0.263
318	0.263
318	0.262
319	0.261
319	0.26
320	0.26
320	0.259
321	0.258
321	0.257
322	0.257
322	0.256
323	0.255
323	0.255
324	0.254
324	0.253
324	0.252
325	0.252
325	0.251
326	0.251
326	0.25
327	0.249
327	0.249
328	0.248
328	0.247
329	0.247
329	0.246
330	0.246
330	0.245
330	0.244
331	0.243
331	0.243
332	0.242
332	0.241
333	0.24
333	0.24
334	0.239
334	0.238
335	0.238
335	0.237
336	0.236
336	0.236
336	0.235
337	0.235
337	0.235
338	0.234
338	0.234
339	0.233
339	0.233
340	0.232
340	0.232
341	0.231
341	0.231
342	0.23
342	0.23
342	0.229
343	0.229
343	0.228
344	0.228
344	0.227
345	0.227
345	0.226
346	0.226
346	0.226
347	0.225
347	0.225
348	0.224
348	0.224
348	0.224
349	0.223
349	0.223
350	0.223
350	0.222
351	0.222
351	0.221
352	0.221
352	0.22
353	0.22
353	0.22
354	0.219
354	0.218
354	0.218
355	0.217
355	0.216
356	0.216
356	0.215
357	0.215
357	0.214
358	0.214
358	0.214
359	0.214
359	0.214
360	0.214
360	0.215
360	0.215
361	0.215
361	0.216
362	0.216
362	0.216
363	0.217
363	0.216
364	0.216
364	0.216
365	0.215
365	0.215
366	0.215
366	0.214
366	0.214
367	0.214
367	0.213
368	0.213
368	0.213
369	0.212
369	0.212
370	0.212
370	0.212
371	0.212
371	0.211
372	0.211
372	0.211
372	0.211
373	0.211
373	0.211
374	0.211
374	0.21
375	0.21
375	0.21
376	0.21
376	0.21
377	0.21
377	0.21
378	0.21
378	0.21
378	0.209
379	0.21
379	0.21
380	0.209
380	0.209
381	0.209
381	0.209
382	0.209
382	0.209
383	0.208
383	0.208
383	0.208
384	0.208
384	0.207
385	0.207
385	0.207
386	0.207
386	0.207
387	0.207
387	0.207
388	0.206
388	0.206
389	0.206
389	0.206
389	0.206
390	0.206
390	0.206
391	0.206
391	0.206
392	0.206
392	0.206
393	0.206
393	0.205
394	0.205
394	0.205
394	0.205
395	0.205
395	0.204
396	0.204
396	0.203
397	0.203
397	0.203
398	0.203
398	0.203
399	0.203
399	0.203
400	0.202
400	0.202
400	0.202
401	0.201
401	0.201
402	0.201
402	0.2
403	0.2
403	0.2
404	0.2
404	0.2
405	0.199
405	0.199
405	0.199
406	0.199
406	0.199
407	0.199
407	0.198
408	0.198
408	0.198
409	0.197
409	0.197
410	0.197
410	0.197
411	0.197
411	0.197
411	0.196
412	0.196
412	0.196
413	0.196
413	0.195
414	0.195
414	0.195
415	0.195
415	0.195
416	0.195
416	0.194
416	0.194
417	0.194
417	0.193
418	0.193
418	0.193
419	0.193
419	0.193
420	0.194
420	0.194
421	0.194
421	0.194
421	0.195
422	0.195
422	0.195
423	0.195
423	0.195
424	0.194
424	0.193
425	0.193
425	0.192
426	0.192
426	0.191
427	0.191
427	0.191
427	0.191
428	0.192
428	0.192
429	0.192
429	0.192
430	0.192
430	0.192
431	0.192
431	0.192
432	0.192
432	0.191
432	0.191
433	0.19
433	0.19
434	0.189
434	0.189
435	0.189
435	0.189
436	0.189
436	0.189
437	0.189
437	0.189
437	0.188
438	0.188
438	0.188
439	0.188
439	0.188
440	0.188
440	0.188
441	0.188
441	0.187
442	0.188
442	0.188
442	0.188
443	0.188
443	0.189
444	0.189
444	0.189
445	0.189
445	0.189
446	0.189
446	0.19
447	0.189
447	0.189
447	0.189
448	0.189
448	0.189
449	0.189
449	0.188
450	0.188
450	0.188
451	0.188
451	0.188
452	0.187
452	0.187
452	0.187
453	0.187
453	0.186
454	0.186
454	0.185
455	0.185
455	0.184
456	0.184
456	0.184
457	0.183
457	0.183
458	0.183
458	0.183
458	0.184
459	0.184
459	0.184
460	0.184
460	0.184
461	0.184
461	0.184
462	0.185
462	0.185
463	0.185
463	0.186
463	0.186
464	0.186
464	0.186
465	0.186
465	0.186
466	0.186
466	0.187
467	0.187
467	0.186
467	0.186
468	0.185
468	0.184
469	0.184
469	0.184
470	0.184
470	0.184
471	0.183
471	0.184
472	0.184
472	0.184
472	0.184
473	0.185
473	0.186
474	0.187
474	0.188
475	0.188
475	0.189
476	0.189
476	0.189
477	0.19
477	0.19
477	0.19
478	0.191
478	0.191
479	0.192
479	0.193
480	0.194
480	0.195
481	0.196
481	0.197
482	0.198
482	0.199
482	0.2
483	0.201
483	0.204
484	0.205
484	0.207
485	0.208
485	0.209
486	0.21
486	0.211
487	0.211
487	0.212
487	0.212
488	0.212
488	0.212
489	0.212
489	0.212
490	0.212
490	0.213
491	0.214
491	0.214
492	0.215
492	0.217
492	0.218
493	0.219
493	0.221
494	0.222
494	0.224
495	0.226
495	0.228
496	0.229
496	0.23
496	0.232
497	0.233
497	0.234
498	0.235
498	0.236
499	0.237
499	0.238
500	0.239
500	0.241
501	0.243
501	0.245
501	0.246
502	0.248
502	0.249
503	0.251
503	0.253
504	0.254
504	0.255
505	0.256
505	0.256
506	0.257
506	0.258
506	0.259
507	0.259
507	0.26
508	0.261
508	0.262
509	0.263
509	0.264
510	0.265
510	0.266
511	0.267
511	0.267
511	0.268
512	0.269
512	0.27
513	0.27
513	0.27
514	0.27
514	0.27
515	0.27
515	0.271
515	0.271
516	0.272
516	0.273
517	0.274
517	0.275
518	0.275
518	0.276
519	0.275
519	0.275
520	0.274
520	0.273
520	0.272
521	0.27
521	0.268
522	0.266
522	0.265
523	0.264
523	0.264
524	0.265
524	0.267
524	0.268
525	0.27
525	0.272
526	0.274
526	0.276
527	0.278
527	0.28
528	0.281
528	0.282
529	0.282
529	0.282
529	0.281
530	0.281
530	0.28
531	0.28
531	0.279
532	0.278
532	0.277
533	0.276
533	0.275
533	0.275
534	0.274
534	0.272
535	0.271
535	0.27
536	0.269
536	0.268
537	0.266
537	0.266
538	0.264
538	0.263
538	0.261
539	0.26
539	0.259
540	0.257
540	0.256
541	0.254
541	0.252
542	0.25
542	0.247
542	0.246
543	0.243
543	0.242
544	0.24
544	0.238
545	0.236
545	0.235
546	0.234
546	0.232
547	0.23
547	0.228
547	0.226
548	0.224
548	0.222
549	0.22
549	0.218
550	0.216
550	0.213
551	0.211
551	0.209
551	0.206
552	0.204
552	0.202
553	0.201
553	0.199
554	0.198
554	0.196
555	0.194
555	0.191
556	0.188
556	0.186
556	0.183
557	0.181
557	0.179
558	0.177
558	0.174
559	0.172
559	0.17
560	0.168
560	0.167
560	0.166
561	0.165
561	0.164
562	0.163
562	0.161
563	0.159
563	0.157
564	0.155
564	0.153
564	0.151
565	0.149
565	0.148
566	0.146
566	0.144
567	0.142
567	0.141
568	0.141
568	0.14
568	0.14
569	0.141
569	0.141
570	0.141
570	0.14
571	0.139
571	0.139
572	0.139
572	0.138
573	0.138
573	0.137
573	0.135
574	0.134
574	0.133
575	0.132
575	0.132
576	0.131
576	0.13
577	0.128
577	0.126
577	0.125
578	0.124
578	0.124
579	0.124
579	0.124
580	0.123
580	0.12
581	0.118
581	0.116
581	0.116
582	0.115
582	0.115
583	0.115
583	0.113
584	0.111
584	0.108
585	0.106
585	0.106
585	0.106
586	0.106
586	0.105
587	0.104
587	0.102
588	0.1
588	0.099
589	0.098
589	0.097
590	0.096
590	0.096
590	0.096
591	0.097
591	0.096
592	0.096
592	0.095
593	0.094
593	0.094
594	0.093
594	0.092
594	0.091
595	0.091
595	0.089
596	0.088
596	0.088
597	0.09
597	0.091
598	0.091
598	0.091
598	0.092
599	0.092
599	0.092
600	0.091
600	0.09
601	0.089
601	0.089
602	0.088
602	0.087
602	0.086
603	0.086
603	0.087
604	0.087
604	0.088
605	0.089
605	0.09
606	0.09
606	0.089
606	0.088
607	0.087
607	0.087
608	0.087
608	0.085
609	0.084
609	0.084
610	0.083
610	0.082
610	0.082
611	0.083
611	0.083
612	0.084
612	0.085
613	0.086
613	0.087
614	0.087
614	0.087
614	0.087
615	0.087
615	0.087
616	0.087
616	0.086
617	0.086
617	0.085
618	0.084
618	0.084
618	0.084
619	0.084
619	0.085
620	0.087
620	0.088
621	0.088
621	0.089
622	0.089
622	0.09
622	0.091
623	0.091
623	0.092
624	0.093
624	0.093
625	0.093
625	0.093
626	0.093
626	0.093
626	0.094
627	0.094
627	0.095
628	0.095
628	0.095
629	0.095
629	0.096
630	0.096
630	0.096
630	0.097
631	0.098
631	0.099
632	0.099
632	0.1
633	0.101
633	0.102
634	0.103
634	0.105
634	0.107
635	0.109
635	0.11
636	0.112
636	0.113
637	0.115
637	0.116
638	0.117
638	0.119
638	0.121
639	0.121
639	0.123
640	0.124
640	0.126
641	0.128
641	0.129
642	0.131
642	0.134
642	0.135
643	0.137
643	0.138
644	0.14
644	0.142
645	0.143
645	0.145
646	0.147
646	0.149
646	0.152
647	0.154
647	0.157
648	0.16
648	0.162
649	0.165
649	0.168
650	0.171
650	0.174
650	0.176
651	0.178
651	0.18
652	0.182
652	0.185
653	0.188
653	0.195
653	0.204
654	0.164
654	0.133
655	0.137
655	0.139
656	0.141
656	0.143
657	0.145
657	0.147
657	0.148
658	0.145
658	0.137
659	0.173
659	0.223
660	0.229
660	0.231
661	0.233
661	0.236
661	0.238
662	0.242
662	0.245
663	0.248
663	0.252
664	0.255
664	0.257
665	0.26
665	0.263
665	0.266
666	0.268
666	0.271
667	0.273
667	0.276
668	0.278
668	0.281
669	0.284
669	0.287
669	0.291
670	0.295
670	0.298
671	0.3
671	0.303
672	0.305
672	0.307
672	0.309
673	0.311
673	0.312
674	0.313
674	0.314
675	0.315
675	0.316
676	0.318
676	0.319
676	0.32
677	0.322
677	0.324
678	0.325
678	0.326
679	0.328
679	0.329
680	0.331
680	0.332
680	0.333
681	0.334
681	0.335
682	0.336
682	0.336
683	0.338
683	0.339
684	0.341
684	0.341
684	0.342
685	0.342
685	0.343
686	0.344
686	0.344
687	0.345
687	0.344
687	0.344
688	0.344
688	0.343
689	0.342
689	0.342
690	0.342
690	0.341
691	0.34
691	0.34
691	0.339
692	0.338
692	0.337
693	0.336
693	0.336
694	0.335
694	0.334
695	0.334
695	0.334
695	0.334
696	0.333
696	0.331
697	0.331
697	0.329
698	0.328
698	0.326
698	0.325
699	0.324
699	0.322
700	0.319
700	0.318
701	0.317
701	0.316
702	0.314
702	0.313
702	0.311
703	0.309
703	0.307
704	0.305
704	0.303
705	0.301
705	0.299
705	0.297
706	0.295
706	0.293
707	0.291
707	0.288
708	0.286
708	0.284
709	0.281
709	0.279
709	0.276
710	0.272
710	0.27
711	0.268
711	0.265
712	0.263
712	0.261
713	0.26
713	0.258
713	0.256
714	0.254
714	0.252
715	0.25
715	0.248
716	0.246
716	0.245
716	0.243
717	0.241
717	0.24
718	0.238
718	0.236
719	0.234
719	0.232
720	0.23
720	0.228
720	0.225
721	0.222
721	0.219
722	0.216
722	0.213
723	0.21
723	0.208
723	0.205
724	0.203
724	0.2
725	0.198
725	0.196
726	0.194
726	0.191
727	0.189
727	0.187
727	0.185
728	0.183
728	0.181
729	0.18
729	0.178
730	0.176
730	0.173
730	0.172
731	0.17
731	0.168
732	0.167
732	0.165
733	0.164
733	0.162
734	0.161
734	0.159
734	0.158
735	0.157
735	0.155
736	0.153
736	0.151
737	0.149
737	0.148
737	0.146
738	0.143
738	0.139
739	0.137
739	0.134
740	0.131
740	0.129
741	0.127
741	0.124
741	0.12
742	0.116
742	0.113
743	0.11
743	0.107
744	0.105
744	0.102
744	0.1
745	0.097
745	0.095
746	0.094
746	0.093
747	0.092
747	0.091
748	0.091
748	0.091
748	0.09
749	0.089
749	0.089
750	0.088
750	0.088
751	0.087
751	0.087
751	0.086
752	0.085
752	0.083
753	0.082
753	0.081
754	0.08
754	0.079
754	0.079
755	0.078
755	0.078
756	0.077
756	0.076
757	0.075
757	0.075
758	0.075
758	0.075
758	0.075
759	0.074
759	0.072
760	0.071
760	0.07
761	0.069
761	0.069
761	0.068
762	0.066
762	0.066
763	0.065
763	0.063
764	0.06
764	0.059
764	0.057
765	0.055
765	0.052
766	0.05
766	0.049
767	0.048
767	0.045
768	0.042
768	0.04
768	0.039
769	0.038
769	0.037
770	0.035
770	0.033
771	0.031
771	0.028
771	0.026
772	0.024
772	0.022
773	0.02
773	0.017
774	0.014
774	0.012
775	0.01
775	0.008
775	0.006
776	0.004
776	0.002
777	0
777	-0.002
778	-0.005
778	-0.007
778	-0.01
779	-0.012
779	-0.014
780	-0.018
780	-0.021
781	-0.025
781	-0.03
781	-0.035
782	-0.041
782	-0.047
783	-0.053
783	-0.059
784	-0.066
784	-0.074
784	-0.082
785	-0.091
785	-0.099
786	-0.105
786	-0.108
787	-0.108
787	-0.109
788	-0.112
788	-0.116
788	-0.119
789	-0.123
789	-0.123
790	-0.121
790	-0.121
791	-0.122
791	-0.125
791	-0.128
792	-0.123
792	-0.113
793	-0.107
793	-0.103
794	-0.102
794	-0.103
794	-0.106
795	-0.108
795	-0.108
796	-0.108
796	-0.11
797	-0.118
797	-0.128
797	-0.134
798	-0.139
798	-0.142
799	-0.143
799	-0.142
800	-0.142
800	-0.144
801	-0.148
801	-0.149
801	-0.149
802	-0.151
802	-0.152
803	-0.152
803	-0.152
804	-0.151
804	-0.145
804	-0.138
805	-0.133
805	-0.13
806	-0.127
806	-0.125
807	-0.124
807	-0.123
807	-0.123
808	-0.123
808	-0.124
809	-0.129
809	-0.135
810	-0.139
810	-0.143
810	-0.147
811	-0.15
811	-0.152
812	-0.149
812	-0.146
813	-0.147
813	-0.148
813	-0.149
814	-0.15
814	-0.15
815	-0.148
815	-0.145
816	-0.142
816	-0.142
817	-0.146
817	-0.149
817	-0.147
818	-0.143
818	-0.138
819	-0.131
819	-0.126
820	-0.122
820	-0.118
820	-0.112
821	-0.104
821	-0.096
822	-0.086
822	-0.078
823	-0.07
823	-0.064
823	-0.058
824	-0.052
824	-0.045
825	-0.038
825	-0.032
826	-0.026
826	-0.022
826	-0.018
827	-0.015
827	-0.012
828	-0.009
828	-0.008
829	-0.006
829	-0.005
829	-0.005
830	-0.005
830	-0.005
831	-0.003
831	-0.003
832	-0.002
832	-0.001
832	-0
833	0.001
833	0.001
834	0.002
834	0.003
835	0.004
835	0.005
835	0.006
836	0.006
836	0.007
837	0.007
837	0.008
838	0.008
838	0.008
839	0.008
839	0.008
839	0.007
840	0.007
840	0.007
841	0.008
841	0.008
842	0.009
842	0.01
842	0.01
843	0.011
843	0.012
844	0.013
844	0.014
845	0.015
845	0.016
845	0.016
846	0.016
846	0.016
847	0.016
847	0.017
848	0.017
848	0.018
848	0.019
849	0.02
849	0.021
850	0.021
850	0.022
851	0.022
851	0.023
851	0.023
852	0.022
852	0.022
853	0.021
853	0.02
854	0.019
854	0.018
854	0.017
855	0.016
855	0.015
856	0.014
856	0.014
857	0.014
857	0.014
857	0.015
858	0.016
858	0.017
859	0.019
859	0.021
860	0.023
860	0.024
860	0.026
861	0.027
861	0.028
862	0.029
862	0.029
863	0.029
863	0.029
863	0.028
864	0.028
864	0.027
865	0.027
865	0.026
866	0.026
866	0.025
866	0.025
867	0.024
867	0.024
868	0.023
868	0.023
869	0.022
869	0.021
869	0.019
870	0.018
870	0.017
871	0.016
871	0.015
872	0.014
872	0.013
872	0.013
873	0.012
873	0.012
874	0.012
874	0.013
875	0.013
875	0.013
875	0.014
876	0.014
876	0.015
877	0.015
877	0.016
878	0.016
878	0.017
878	0.018
879	0.018
879	0.018
880	0.018
880	0.019
881	0.019
881	0.019
881	0.019
882	0.019
882	0.019
883	0.019
883	0.019
884	0.019
884	0.02
884	0.02
885	0.02
885	0.02
886	0.02
886	0.021
887	0.021
887	0.021
887	0.021
888	0.022
888	0.022
889	0.023
889	0.024
890	0.024
890	0.025
890	0.026
891	0.026
891	0.027
892	0.027
892	0.027
893	0.027
893	0.027
893	0.026
894	0.026
894	0.025
895	0.024
895	0.023
895	0.021
896	0.02
896	0.018
897	0.017
897	0.015
898	0.014
898	0.013
898	0.012
899	0.011
899	0.011
900	0.01
900	0.01
901	0.01
901	0.01
901	0.01
902	0.011
902	0.011
903	0.011
903	0.01
904	0.01
904	0.01
904	0.009
905	0.009
905	0.009
906	0.01
906	0.01
907	0.011
907	0.011
907	0.012
908	0.013
908	0.014
909	0.015
909	0.016
910	0.018
910	0.018
910	0.019
911	0.02
911	0.02
912	0.02
912	0.02
913	0.02
913	0.02
913	0.019
914	0.018
914	0.017
915	0.017
915	0.016
916	0.015
916	0.015
916	0.015
917	0.015
917	0.014
918	0.014
918	0.014
918	0.014
919	0.014
919	0.014
920	0.013
920	0.013
921	0.012
921	0.012
921	0.011
922	0.011
922	0.011
923	0.011
923	0.011
924	0.012
924	0.012
924	0.012
925	0.012
925	0.013
926	0.013
926	0.013
927	0.013
927	0.013
927	0.013
928	0.013
928	0.013
929	0.012
929	0.012
930	0.012
930	0.012
930	0.011
931	0.011
931	0.011
932	0.011
932	0.01
933	0.01
933	0.009
933	0.009
934	0.009
934	0.008
935	0.008
935	0.007
935	0.007
936	0.007
936	0.007
937	0.007
937	0.007
938	0.007
938	0.008
938	0.008
939	0.008
939	0.009
940	0.01
940	0.01
941	0.011
941	0.011
941	0.012
942	0.012
942	0.013
943	0.013
943	0.013
944	0.013
944	0.014
944	0.014
945	0.015
945	0.015
946	0.016
946	0.016
946	0.017
947	0.018
947	0.018
948	0.019
948	0.019
949	0.019
949	0.019
949	0.02
950	0.021
950	0.022
951	0.023
951	0.023
952	0.024
952	0.025
952	0.025
953	0.026
953	0.027
954	0.027
954	0.026
955	0.026
955	0.026
955	0.025
956	0.024
956	0.023
957	0.022
957	0.021
957	0.02
958	0.018
958	0.018
959	0.017
959	0.015
960	0.014
960	0.013
960	0.011
961	0.01
961	0.009
962	0.008
962	0.006
963	0.005
963	0.004
963	0.003
964	0.003
964	0.002
965	0.002
965	0.002
966	0.002
966	0.002
966	0.002
967	0.002
967	0.003
968	0.003
968	0.003
968	0.003
969	0.003
969	0.003
970	0.003
970	0.003
971	0.004
971	0.004
971	0.005
972	0.005
972	0.006
973	0.007
973	0.008
974	0.008
974	0.009
974	0.01
975	0.011
975	0.011
976	0.012
976	0.012
976	0.012
977	0.012
977	0.011
978	0.011
978	0.01
979	0.01
979	0.009
979	0.008
980	0.007
980	0.005
981	0.004
981	0.003
982	0.002
982	0.002
982	0.002
983	0.001
983	0.001
984	0.001
984	0.001
984	0.002
985	0.003
985	0.003
986	0.004
986	0.004
987	0.005
987	0.005
987	0.006
988	0.007
988	0.007
989	0.007
989	0.007
990	0.007
990	0.008
990	0.008
991	0.008
991	0.009
992	0.009
992	0.009
992	0.009
993	0.01
993	0.01
994	0.011
994	0.011
995	0.011
995	0.011
995	0.011
996	0.011
996	0.01
997	0.01
997	0.009
997	0.009
998	0.008
998	0.008
999	0.007
999	0.007
1000	0.006
1000	0.006
1000	0.006
1001	0.006
1001	0.006
1002	0.005
1002	0.005
1003	0.005
1003	0.004
1003	0.004
1004	0.004
1004	0.003
1005	0.002
1005	0.002
1005	0.001
1006	0
1006	-0
1007	-0.001
1007	-0.001
1008	-0.002
1008	-0.002
1008	-0.002
1009	-0.003
1009	-0.003
1010	-0.003
1010	-0.003
1010	-0.003
1011	-0.003
1011	-0.003
1012	-0.002
1012	-0.002
1013	-0.002
1013	-0.001
1013	-0.001
1014	-0
1014	0
1015	0.001
1015	0.001
1016	0.002
1016	0.002
1016	0.003
1017	0.003
1017	0.004
1018	0.005
1018	0.005
1018	0.006
1019	0.006
1019	0.006
1020	0.007
1020	0.007
1021	0.006
1021	0.006
1021	0.006
1022	0.005
1022	0.005
1023	0.005
1023	0.004
1023	0.003
1024	0.002
1024	0.002
1025	0.001
1025	0.001
1026	0.001
1026	0.001
1026	0.001
1027	0.001
1027	0.001
1028	0.002
1028	0.002
1028	0.003
1029	0.003
1029	0.004
1030	0.004
1030	0.004
1031	0.004
1031	0.004
1031	0.004
1032	0.003
1032	0.003
1033	0.003
1033	0.002
1033	0.001
1034	0
1034	-0.001
1035	-0.001
1035	-0.002
1036	-0.003
1036	-0.004
1036	-0.004
1037	-0.004
1037	-0.005
1038	-0.005
1038	-0.005
1039	-0.005
1039	-0.004
1039	-0.004
1040	-0.004
1040	-0.004
1041	-0.005
1041	-0.005
1041	-0.006
1042	-0.006
1042	-0.007
1043	-0.008
1043	-0.008
1044	-0.009
1044	-0.01
1044	-0.01
1045	-0.011
1045	-0.011
1046	-0.011
1046	-0.011
1046	-0.011
1047	-0.011
1047	-0.01
1048	-0.009
1048	-0.009
1049	-0.008
1049	-0.008
1049	-0.007
1050	-0.007
1050	-0.006
1051	-0.006
1051	-0.005
1051	-0.004
1052	-0.003
1052	-0.002
1053	-0.001
1053	-0
1053	0.001
1054	0.002
1054	0.002
1055	0.004
1055	0.003
1056	0.003
1056	0.003
1056	0.002
1057	0.001
1057	0.001
1058	0
1058	-0.001
1058	-0.001
1059	-0.002
1059	-0.003
1060	-0.004
1060	-0.005
1061	-0.005
1061	-0.005
1061	-0.005
1062	-0.006
1062	-0.006
1063	-0.007
1063	-0.007
1063	-0.007
1064	-0.007
1064	-0.007
1065	-0.006
1065	-0.006
1066	-0.006
1066	-0.005
1066	-0.004
1067	-0.003
1067	-0.002
1068	-0.001
1068	-0
1068	0.001
1069	0.001
1069	0.002
1070	0.002
1070	0.003
1071	0.004
1071	0.005
1071	0.006
1072	0.007
1072	0.008
1073	0.008
1073	0.01
1073	0.011
1074	0.012
1074	0.013
1075	0.013
1075	0.013
1076	0.013
1076	0.014
1076	0.013
1077	0.013
1077	0.014
1078	0.013
1078	0.014
1078	0.015
1079	0.016
1079	0.016
1080	0.017
1080	0.018
1080	0.018
1081	0.02
1081	0.021
1082	0.022
1082	0.022
1083	0.022
1083	0.023
1083	0.024
1084	0.025
1084	0.026
1085	0.027
1085	0.028
1085	0.029
1086	0.03
1086	0.03
1087	0.032
1087	0.033
1088	0.033
1088	0.034
1088	0.036
1089	0.037
1089	0.038
1090	0.039
1090	0.04
1090	0.041
1091	0.043
1091	0.045
1092	0.047
1092	0.05
1092	0.051
1093	0.052
1093	0.054
1094	0.056
1094	0.058
1095	0.06
1095	0.062
1095	0.067
1096	0.069
1096	0.072
1097	0.076
1097	0.079
1097	0.084
1098	0.088
1098	0.091
1099	0.097
1099	0.103
1100	0.11
1100	0.115
1100	0.122
1101	0.128
1101	0.136
1102	0.145
1102	0.156
1102	0.167
1103	0.18
1103	0.193
1104	0.208
1104	0.226
1104	0.244
1105	0.263
1105	0.285
1106	0.308
1106	0.336
1107	0.365
1107	0.409
1107	0.467
1108	0.681
1108	1.319
1109	-0
1109	-0
1109	-0
1110	-0
1110	-0
1111	-0
1111	-0
