Data from 15c-2-2a_Absorbance__3378__05179.txt Node

Date: Wed Jan 24 14:56:28 CET 2024
User: Marek
Spectrometer: MAYP115816
Trigger mode: 0
Integration Time (sec): 2.000000E-1
Scans to average: 10
Electric dark correction enabled: true
Nonlinearity correction enabled: true
Boxcar width: 5
XAxis mode: Wavelengths
Number of Pixels in Spectrum: 2068
>>>>>Begin Spectral Data<<<<<
199	-1.831
199	-1.67
200	-1.51
200	-1.386
201	-1.312
201	-1.258
202	-1.187
202	-1.129
203	-1.079
203	-1.037
204	-1.008
204	-0.982
205	-0.959
205	-0.949
205	-0.947
206	-0.944
206	-0.942
207	-0.938
207	-0.936
208	-0.934
208	-0.932
209	-0.929
209	-0.93
210	-0.929
210	-0.927
211	-0.926
211	-0.926
212	-0.924
212	-0.921
213	-0.919
213	-0.917
213	-0.914
214	-0.912
214	-0.908
215	-0.907
215	-0.903
216	-0.902
216	-0.898
217	-0.897
217	-0.898
218	-0.898
218	-0.897
219	-0.895
219	-0.892
220	-0.891
220	-0.888
221	-0.888
221	-0.885
221	-0.881
222	-0.875
222	-0.868
223	-0.862
223	-0.856
224	-0.848
224	-0.839
225	-0.831
225	-0.821
226	-0.81
226	-0.798
227	-0.786
227	-0.773
228	-0.755
228	-0.736
229	-0.714
229	-0.69
229	-0.663
230	-0.633
230	-0.599
231	-0.563
231	-0.524
232	-0.483
232	-0.439
233	-0.395
233	-0.348
234	-0.302
234	-0.255
235	-0.209
235	-0.163
236	-0.12
236	-0.077
236	-0.036
237	0.003
237	0.039
238	0.073
238	0.106
239	0.136
239	0.164
240	0.189
240	0.213
241	0.234
241	0.254
242	0.271
242	0.288
243	0.303
243	0.317
243	0.329
244	0.34
244	0.351
245	0.36
245	0.368
246	0.377
246	0.384
247	0.391
247	0.397
248	0.403
248	0.409
249	0.414
249	0.419
250	0.423
250	0.428
250	0.432
251	0.436
251	0.439
252	0.443
252	0.446
253	0.449
253	0.452
254	0.455
254	0.457
255	0.46
255	0.462
256	0.464
256	0.465
257	0.467
257	0.468
258	0.47
258	0.47
258	0.471
259	0.472
259	0.472
260	0.473
260	0.473
261	0.473
261	0.474
262	0.474
262	0.473
263	0.473
263	0.473
264	0.473
264	0.473
265	0.472
265	0.472
265	0.471
266	0.47
266	0.47
267	0.469
267	0.468
268	0.466
268	0.465
269	0.463
269	0.462
270	0.46
270	0.458
271	0.456
271	0.455
272	0.453
272	0.451
272	0.449
273	0.447
273	0.446
274	0.444
274	0.442
275	0.44
275	0.438
276	0.436
276	0.434
277	0.431
277	0.429
278	0.426
278	0.424
278	0.421
279	0.418
279	0.415
280	0.413
280	0.41
281	0.408
281	0.406
282	0.404
282	0.403
283	0.401
283	0.399
284	0.398
284	0.397
285	0.395
285	0.393
285	0.392
286	0.39
286	0.388
287	0.386
287	0.384
288	0.383
288	0.381
289	0.379
289	0.377
290	0.376
290	0.374
291	0.373
291	0.371
292	0.37
292	0.368
292	0.367
293	0.366
293	0.364
294	0.363
294	0.362
295	0.361
295	0.359
296	0.358
296	0.357
297	0.356
297	0.355
298	0.354
298	0.353
298	0.352
299	0.351
299	0.35
300	0.349
300	0.348
301	0.347
301	0.346
302	0.345
302	0.344
303	0.343
303	0.342
304	0.341
304	0.34
305	0.34
305	0.339
305	0.338
306	0.337
306	0.336
307	0.335
307	0.334
308	0.333
308	0.332
309	0.331
309	0.33
310	0.329
310	0.328
311	0.328
311	0.327
311	0.326
312	0.325
312	0.324
313	0.323
313	0.322
314	0.321
314	0.32
315	0.319
315	0.318
316	0.317
316	0.317
317	0.316
317	0.315
318	0.314
318	0.313
318	0.312
319	0.312
319	0.311
320	0.31
320	0.309
321	0.308
321	0.307
322	0.306
322	0.305
323	0.304
323	0.303
324	0.302
324	0.301
324	0.301
325	0.3
325	0.299
326	0.298
326	0.298
327	0.297
327	0.296
328	0.295
328	0.295
329	0.294
329	0.293
330	0.292
330	0.291
330	0.291
331	0.29
331	0.289
332	0.288
332	0.287
333	0.286
333	0.285
334	0.285
334	0.284
335	0.283
335	0.282
336	0.281
336	0.281
336	0.28
337	0.279
337	0.279
338	0.278
338	0.278
339	0.277
339	0.276
340	0.276
340	0.275
341	0.275
341	0.274
342	0.274
342	0.273
342	0.273
343	0.272
343	0.271
344	0.271
344	0.27
345	0.27
345	0.269
346	0.269
346	0.268
347	0.268
347	0.267
348	0.267
348	0.267
348	0.266
349	0.266
349	0.265
350	0.265
350	0.264
351	0.264
351	0.263
352	0.262
352	0.262
353	0.261
353	0.26
354	0.26
354	0.259
354	0.258
355	0.258
355	0.257
356	0.256
356	0.256
357	0.255
357	0.255
358	0.254
358	0.254
359	0.255
359	0.255
360	0.255
360	0.256
360	0.256
361	0.257
361	0.257
362	0.257
362	0.257
363	0.257
363	0.257
364	0.257
364	0.256
365	0.256
365	0.255
366	0.255
366	0.254
366	0.254
367	0.254
367	0.253
368	0.253
368	0.253
369	0.252
369	0.252
370	0.252
370	0.252
371	0.251
371	0.251
372	0.251
372	0.25
372	0.25
373	0.25
373	0.25
374	0.25
374	0.249
375	0.249
375	0.249
376	0.249
376	0.249
377	0.248
377	0.248
378	0.248
378	0.248
378	0.248
379	0.248
379	0.248
380	0.248
380	0.248
381	0.248
381	0.247
382	0.247
382	0.247
383	0.246
383	0.246
383	0.246
384	0.245
384	0.245
385	0.244
385	0.244
386	0.244
386	0.244
387	0.244
387	0.244
388	0.243
388	0.243
389	0.243
389	0.243
389	0.243
390	0.243
390	0.243
391	0.243
391	0.243
392	0.243
392	0.243
393	0.242
393	0.242
394	0.242
394	0.242
394	0.242
395	0.241
395	0.241
396	0.24
396	0.24
397	0.24
397	0.24
398	0.24
398	0.24
399	0.239
399	0.239
400	0.239
400	0.238
400	0.238
401	0.238
401	0.237
402	0.237
402	0.236
403	0.236
403	0.236
404	0.236
404	0.235
405	0.235
405	0.235
405	0.235
406	0.234
406	0.234
407	0.234
407	0.234
408	0.233
408	0.233
409	0.232
409	0.232
410	0.232
410	0.232
411	0.232
411	0.231
411	0.231
412	0.231
412	0.23
413	0.23
413	0.23
414	0.23
414	0.229
415	0.229
415	0.228
416	0.228
416	0.228
416	0.227
417	0.227
417	0.227
418	0.227
418	0.227
419	0.226
419	0.227
420	0.227
420	0.228
421	0.228
421	0.228
421	0.228
422	0.228
422	0.228
423	0.228
423	0.228
424	0.227
424	0.227
425	0.226
425	0.225
426	0.225
426	0.225
427	0.224
427	0.224
427	0.224
428	0.225
428	0.225
429	0.225
429	0.225
430	0.225
430	0.225
431	0.225
431	0.225
432	0.225
432	0.225
432	0.224
433	0.224
433	0.223
434	0.222
434	0.222
435	0.222
435	0.222
436	0.222
436	0.222
437	0.221
437	0.221
437	0.221
438	0.221
438	0.221
439	0.22
439	0.22
440	0.22
440	0.22
441	0.22
441	0.22
442	0.22
442	0.221
442	0.221
443	0.221
443	0.221
444	0.222
444	0.222
445	0.222
445	0.222
446	0.222
446	0.222
447	0.222
447	0.222
447	0.221
448	0.221
448	0.221
449	0.221
449	0.221
450	0.221
450	0.22
451	0.22
451	0.22
452	0.22
452	0.219
452	0.219
453	0.219
453	0.219
454	0.218
454	0.218
455	0.218
455	0.217
456	0.217
456	0.217
457	0.217
457	0.217
458	0.217
458	0.217
458	0.217
459	0.217
459	0.217
460	0.217
460	0.217
461	0.217
461	0.217
462	0.217
462	0.217
463	0.217
463	0.217
463	0.218
464	0.218
464	0.218
465	0.218
465	0.218
466	0.218
466	0.218
467	0.218
467	0.219
467	0.218
468	0.217
468	0.217
469	0.216
469	0.216
470	0.215
470	0.215
471	0.215
471	0.216
472	0.216
472	0.216
472	0.217
473	0.218
473	0.219
474	0.22
474	0.221
475	0.221
475	0.222
476	0.222
476	0.223
477	0.223
477	0.224
477	0.224
478	0.225
478	0.225
479	0.226
479	0.227
480	0.228
480	0.229
481	0.23
481	0.231
482	0.232
482	0.234
482	0.235
483	0.237
483	0.239
484	0.241
484	0.243
485	0.244
485	0.245
486	0.246
486	0.248
487	0.248
487	0.249
487	0.249
488	0.249
488	0.249
489	0.249
489	0.249
490	0.25
490	0.251
491	0.251
491	0.252
492	0.254
492	0.255
492	0.257
493	0.258
493	0.259
494	0.261
494	0.263
495	0.265
495	0.266
496	0.268
496	0.269
496	0.271
497	0.273
497	0.274
498	0.276
498	0.277
499	0.279
499	0.28
500	0.281
500	0.283
501	0.286
501	0.287
501	0.289
502	0.291
502	0.293
503	0.294
503	0.296
504	0.298
504	0.299
505	0.3
505	0.302
506	0.303
506	0.304
506	0.305
507	0.306
507	0.307
508	0.308
508	0.309
509	0.311
509	0.312
510	0.313
510	0.314
511	0.315
511	0.315
511	0.316
512	0.317
512	0.319
513	0.319
513	0.32
514	0.319
514	0.32
515	0.32
515	0.32
515	0.321
516	0.322
516	0.323
517	0.324
517	0.324
518	0.325
518	0.325
519	0.324
519	0.323
520	0.322
520	0.321
520	0.319
521	0.317
521	0.315
522	0.313
522	0.312
523	0.311
523	0.311
524	0.312
524	0.314
524	0.316
525	0.319
525	0.321
526	0.323
526	0.325
527	0.327
527	0.329
528	0.33
528	0.331
529	0.331
529	0.33
529	0.33
530	0.329
530	0.329
531	0.328
531	0.328
532	0.327
532	0.325
533	0.325
533	0.324
533	0.323
534	0.322
534	0.321
535	0.319
535	0.318
536	0.316
536	0.315
537	0.313
537	0.312
538	0.31
538	0.308
538	0.306
539	0.305
539	0.303
540	0.302
540	0.3
541	0.298
541	0.296
542	0.294
542	0.292
542	0.29
543	0.288
543	0.285
544	0.283
544	0.281
545	0.279
545	0.277
546	0.276
546	0.274
547	0.271
547	0.268
547	0.266
548	0.263
548	0.26
549	0.257
549	0.254
550	0.252
550	0.249
551	0.246
551	0.243
551	0.24
552	0.238
552	0.236
553	0.234
553	0.232
554	0.23
554	0.228
555	0.226
555	0.223
556	0.219
556	0.216
556	0.213
557	0.211
557	0.208
558	0.205
558	0.203
559	0.2
559	0.198
560	0.196
560	0.194
560	0.193
561	0.192
561	0.191
562	0.189
562	0.188
563	0.185
563	0.183
564	0.18
564	0.178
564	0.175
565	0.173
565	0.17
566	0.168
566	0.166
567	0.164
567	0.163
568	0.162
568	0.162
568	0.162
569	0.162
569	0.162
570	0.161
570	0.16
571	0.16
571	0.159
572	0.159
572	0.158
573	0.157
573	0.156
573	0.154
574	0.152
574	0.151
575	0.15
575	0.15
576	0.149
576	0.148
577	0.146
577	0.144
577	0.143
578	0.141
578	0.141
579	0.141
579	0.141
580	0.139
580	0.137
581	0.134
581	0.133
581	0.132
582	0.131
582	0.131
583	0.131
583	0.129
584	0.127
584	0.123
585	0.122
585	0.122
585	0.121
586	0.12
586	0.12
587	0.118
587	0.116
588	0.114
588	0.112
589	0.111
589	0.11
590	0.109
590	0.108
590	0.108
591	0.108
591	0.107
592	0.106
592	0.105
593	0.105
593	0.104
594	0.103
594	0.102
594	0.102
595	0.101
595	0.1
596	0.099
596	0.099
597	0.101
597	0.101
598	0.101
598	0.101
598	0.102
599	0.102
599	0.101
600	0.101
600	0.1
601	0.099
601	0.098
602	0.097
602	0.097
602	0.096
603	0.096
603	0.097
604	0.097
604	0.098
605	0.098
605	0.099
606	0.099
606	0.098
606	0.098
607	0.097
607	0.097
608	0.097
608	0.095
609	0.095
609	0.095
610	0.094
610	0.093
610	0.094
611	0.094
611	0.094
612	0.095
612	0.096
613	0.097
613	0.098
614	0.098
614	0.098
614	0.098
615	0.098
615	0.097
616	0.097
616	0.097
617	0.096
617	0.096
618	0.095
618	0.094
618	0.094
619	0.094
619	0.095
620	0.097
620	0.098
621	0.098
621	0.099
622	0.099
622	0.1
622	0.1
623	0.1
623	0.101
624	0.101
624	0.101
625	0.101
625	0.101
626	0.101
626	0.101
626	0.102
627	0.103
627	0.103
628	0.104
628	0.105
629	0.106
629	0.107
630	0.107
630	0.107
630	0.108
631	0.109
631	0.11
632	0.111
632	0.112
633	0.113
633	0.115
634	0.116
634	0.118
634	0.12
635	0.122
635	0.124
636	0.126
636	0.128
637	0.129
637	0.131
638	0.133
638	0.134
638	0.136
639	0.138
639	0.139
640	0.141
640	0.143
641	0.145
641	0.147
642	0.149
642	0.151
642	0.153
643	0.155
643	0.157
644	0.158
644	0.16
645	0.162
645	0.163
646	0.166
646	0.168
646	0.171
647	0.174
647	0.177
648	0.18
648	0.183
649	0.186
649	0.189
650	0.192
650	0.195
650	0.198
651	0.201
651	0.204
652	0.207
652	0.21
653	0.214
653	0.222
653	0.232
654	0.184
654	0.149
655	0.155
655	0.158
656	0.16
656	0.162
657	0.164
657	0.166
657	0.167
658	0.165
658	0.156
659	0.198
659	0.258
660	0.263
660	0.265
661	0.268
661	0.271
661	0.274
662	0.278
662	0.282
663	0.286
663	0.29
664	0.293
664	0.296
665	0.3
665	0.303
665	0.306
666	0.31
666	0.312
667	0.315
667	0.318
668	0.321
668	0.324
669	0.327
669	0.33
669	0.335
670	0.339
670	0.342
671	0.345
671	0.347
672	0.35
672	0.353
672	0.354
673	0.357
673	0.358
674	0.36
674	0.361
675	0.361
675	0.363
676	0.365
676	0.367
676	0.368
677	0.37
677	0.373
678	0.374
678	0.376
679	0.378
679	0.38
680	0.381
680	0.383
680	0.384
681	0.385
681	0.386
682	0.387
682	0.388
683	0.39
683	0.392
684	0.394
684	0.395
684	0.395
685	0.396
685	0.397
686	0.398
686	0.399
687	0.399
687	0.399
687	0.399
688	0.398
688	0.397
689	0.396
689	0.396
690	0.396
690	0.395
691	0.395
691	0.394
691	0.394
692	0.393
692	0.392
693	0.392
693	0.392
694	0.391
694	0.389
695	0.389
695	0.389
695	0.388
696	0.387
696	0.386
697	0.384
697	0.383
698	0.381
698	0.379
698	0.377
699	0.376
699	0.373
700	0.371
700	0.369
701	0.367
701	0.366
702	0.364
702	0.363
702	0.361
703	0.359
703	0.357
704	0.355
704	0.353
705	0.351
705	0.348
705	0.346
706	0.343
706	0.341
707	0.338
707	0.335
708	0.332
708	0.33
709	0.327
709	0.324
709	0.321
710	0.317
710	0.315
711	0.312
711	0.31
712	0.308
712	0.306
713	0.304
713	0.302
713	0.3
714	0.298
714	0.295
715	0.294
715	0.291
716	0.289
716	0.287
716	0.284
717	0.281
717	0.279
718	0.275
718	0.272
719	0.269
719	0.267
720	0.263
720	0.26
720	0.257
721	0.253
721	0.249
722	0.246
722	0.243
723	0.24
723	0.238
723	0.235
724	0.233
724	0.231
725	0.229
725	0.226
726	0.224
726	0.222
727	0.219
727	0.217
727	0.214
728	0.211
728	0.209
729	0.207
729	0.205
730	0.202
730	0.2
730	0.197
731	0.195
731	0.192
732	0.191
732	0.188
733	0.186
733	0.184
734	0.182
734	0.179
734	0.177
735	0.175
735	0.173
736	0.17
736	0.169
737	0.167
737	0.165
737	0.163
738	0.161
738	0.158
739	0.155
739	0.153
740	0.15
740	0.148
741	0.146
741	0.143
741	0.139
742	0.134
742	0.13
743	0.127
743	0.124
744	0.12
744	0.117
744	0.114
745	0.111
745	0.109
746	0.107
746	0.105
747	0.104
747	0.104
748	0.103
748	0.103
748	0.103
749	0.102
749	0.102
750	0.102
750	0.101
751	0.1
751	0.1
751	0.099
752	0.098
752	0.096
753	0.094
753	0.093
754	0.092
754	0.091
754	0.09
755	0.089
755	0.089
756	0.088
756	0.086
757	0.085
757	0.085
758	0.084
758	0.083
758	0.083
759	0.082
759	0.08
760	0.078
760	0.077
761	0.076
761	0.075
761	0.074
762	0.072
762	0.071
763	0.07
763	0.068
764	0.065
764	0.063
764	0.061
765	0.059
765	0.057
766	0.055
766	0.054
767	0.053
767	0.051
768	0.048
768	0.046
768	0.045
769	0.044
769	0.043
770	0.041
770	0.039
771	0.037
771	0.034
771	0.031
772	0.029
772	0.027
773	0.025
773	0.022
774	0.02
774	0.018
775	0.016
775	0.014
775	0.012
776	0.009
776	0.007
777	0.005
777	0.002
778	-0.001
778	-0.005
778	-0.008
779	-0.011
779	-0.014
780	-0.018
780	-0.022
781	-0.025
781	-0.03
781	-0.035
782	-0.041
782	-0.047
783	-0.053
783	-0.059
784	-0.067
784	-0.075
784	-0.083
785	-0.092
785	-0.1
786	-0.106
786	-0.109
787	-0.109
787	-0.11
788	-0.113
788	-0.117
788	-0.12
789	-0.123
789	-0.123
790	-0.121
790	-0.121
791	-0.122
791	-0.124
791	-0.127
792	-0.123
792	-0.113
793	-0.107
793	-0.103
794	-0.101
794	-0.103
794	-0.106
795	-0.108
795	-0.107
796	-0.107
796	-0.11
797	-0.118
797	-0.128
797	-0.134
798	-0.139
798	-0.142
799	-0.142
799	-0.142
800	-0.142
800	-0.144
801	-0.147
801	-0.149
801	-0.149
802	-0.151
802	-0.152
803	-0.152
803	-0.152
804	-0.15
804	-0.145
804	-0.137
805	-0.133
805	-0.13
806	-0.127
806	-0.125
807	-0.124
807	-0.123
807	-0.123
808	-0.123
808	-0.124
809	-0.129
809	-0.135
810	-0.139
810	-0.143
810	-0.147
811	-0.15
811	-0.151
812	-0.148
812	-0.146
813	-0.146
813	-0.148
813	-0.149
814	-0.15
814	-0.15
815	-0.147
815	-0.144
816	-0.142
816	-0.142
817	-0.146
817	-0.149
817	-0.147
818	-0.144
818	-0.138
819	-0.132
819	-0.127
820	-0.123
820	-0.119
820	-0.114
821	-0.107
821	-0.098
822	-0.089
822	-0.08
823	-0.073
823	-0.066
823	-0.061
824	-0.054
824	-0.048
825	-0.041
825	-0.034
826	-0.028
826	-0.024
826	-0.02
827	-0.016
827	-0.013
828	-0.01
828	-0.008
829	-0.007
829	-0.005
829	-0.005
830	-0.005
830	-0.004
831	-0.003
831	-0.002
832	-0.002
832	-0.001
832	0
833	0.001
833	0.002
834	0.002
834	0.003
835	0.004
835	0.004
835	0.005
836	0.005
836	0.006
837	0.006
837	0.006
838	0.006
838	0.006
839	0.006
839	0.006
839	0.006
840	0.005
840	0.006
841	0.006
841	0.006
842	0.007
842	0.007
842	0.008
843	0.008
843	0.009
844	0.01
844	0.011
845	0.012
845	0.013
845	0.013
846	0.014
846	0.014
847	0.015
847	0.016
848	0.016
848	0.017
848	0.018
849	0.019
849	0.019
850	0.02
850	0.02
851	0.02
851	0.021
851	0.02
852	0.02
852	0.019
853	0.018
853	0.018
854	0.017
854	0.016
854	0.016
855	0.015
855	0.014
856	0.014
856	0.014
857	0.014
857	0.014
857	0.015
858	0.016
858	0.017
859	0.018
859	0.02
860	0.022
860	0.023
860	0.025
861	0.026
861	0.028
862	0.028
862	0.028
863	0.029
863	0.029
863	0.028
864	0.028
864	0.027
865	0.027
865	0.026
866	0.026
866	0.026
866	0.025
867	0.025
867	0.025
868	0.025
868	0.025
869	0.025
869	0.024
869	0.022
870	0.022
870	0.021
871	0.02
871	0.019
872	0.018
872	0.017
872	0.016
873	0.015
873	0.014
874	0.014
874	0.014
875	0.014
875	0.014
875	0.015
876	0.015
876	0.015
877	0.016
877	0.016
878	0.017
878	0.017
878	0.018
879	0.018
879	0.018
880	0.019
880	0.019
881	0.019
881	0.02
881	0.02
882	0.02
882	0.021
883	0.021
883	0.022
884	0.022
884	0.022
884	0.022
885	0.022
885	0.022
886	0.022
886	0.022
887	0.022
887	0.022
887	0.022
888	0.022
888	0.023
889	0.024
889	0.025
890	0.026
890	0.027
890	0.027
891	0.028
891	0.028
892	0.028
892	0.028
893	0.028
893	0.028
893	0.028
894	0.027
894	0.026
895	0.025
895	0.024
895	0.022
896	0.021
896	0.02
897	0.018
897	0.017
898	0.016
898	0.015
898	0.013
899	0.013
899	0.012
900	0.011
900	0.01
901	0.01
901	0.009
901	0.008
902	0.008
902	0.007
903	0.006
903	0.005
904	0.005
904	0.004
904	0.003
905	0.003
905	0.004
906	0.004
906	0.005
907	0.006
907	0.007
907	0.008
908	0.009
908	0.01
909	0.011
909	0.013
910	0.014
910	0.015
910	0.015
911	0.016
911	0.016
912	0.017
912	0.017
913	0.016
913	0.016
913	0.015
914	0.014
914	0.014
915	0.013
915	0.012
916	0.012
916	0.011
916	0.011
917	0.011
917	0.011
918	0.011
918	0.011
918	0.011
919	0.011
919	0.011
920	0.01
920	0.01
921	0.01
921	0.009
921	0.009
922	0.009
922	0.01
923	0.01
923	0.011
924	0.012
924	0.013
924	0.013
925	0.014
925	0.014
926	0.015
926	0.015
927	0.015
927	0.014
927	0.014
928	0.013
928	0.013
929	0.012
929	0.012
930	0.012
930	0.012
930	0.012
931	0.011
931	0.011
932	0.011
932	0.011
933	0.011
933	0.01
933	0.01
934	0.01
934	0.009
935	0.009
935	0.009
935	0.009
936	0.009
936	0.008
937	0.008
937	0.008
938	0.008
938	0.008
938	0.008
939	0.008
939	0.008
940	0.009
940	0.009
941	0.009
941	0.01
941	0.01
942	0.011
942	0.012
943	0.013
943	0.013
944	0.014
944	0.015
944	0.016
945	0.017
945	0.017
946	0.018
946	0.018
946	0.018
947	0.018
947	0.019
948	0.019
948	0.019
949	0.018
949	0.019
949	0.019
950	0.02
950	0.02
951	0.021
951	0.021
952	0.021
952	0.022
952	0.023
953	0.023
953	0.024
954	0.024
954	0.024
955	0.024
955	0.024
955	0.024
956	0.024
956	0.023
957	0.023
957	0.022
957	0.022
958	0.021
958	0.02
959	0.019
959	0.018
960	0.017
960	0.016
960	0.014
961	0.012
961	0.011
962	0.009
962	0.008
963	0.006
963	0.005
963	0.004
964	0.003
964	0.002
965	0.002
965	0.002
966	0.002
966	0.002
966	0.002
967	0.002
967	0.002
968	0.002
968	0.001
968	0.001
969	0.001
969	0
970	0
970	-0
971	-0
971	-0
971	-0
972	0
972	0
973	0.001
973	0.002
974	0.002
974	0.003
974	0.004
975	0.005
975	0.006
976	0.006
976	0.007
976	0.007
977	0.007
977	0.007
978	0.007
978	0.007
979	0.006
979	0.006
979	0.006
980	0.005
980	0.004
981	0.004
981	0.003
982	0.003
982	0.003
982	0.003
983	0.003
983	0.003
984	0.003
984	0.004
984	0.004
985	0.005
985	0.005
986	0.006
986	0.006
987	0.007
987	0.007
987	0.007
988	0.008
988	0.008
989	0.008
989	0.008
990	0.008
990	0.008
990	0.008
991	0.009
991	0.009
992	0.01
992	0.01
992	0.01
993	0.011
993	0.012
994	0.012
994	0.013
995	0.013
995	0.013
995	0.013
996	0.012
996	0.012
997	0.011
997	0.01
997	0.009
998	0.009
998	0.008
999	0.007
999	0.007
1000	0.006
1000	0.005
1000	0.005
1001	0.005
1001	0.005
1002	0.004
1002	0.004
1003	0.004
1003	0.004
1003	0.003
1004	0.003
1004	0.003
1005	0.002
1005	0.002
1005	0.001
1006	0.001
1006	0
1007	-0
1007	-0.001
1008	-0.001
1008	-0.001
1008	-0.001
1009	-0.001
1009	-0.001
1010	-0
1010	-0
1010	0
1011	0.001
1011	0.001
1012	0.001
1012	0.002
1013	0.002
1013	0.002
1013	0.002
1014	0.002
1014	0.002
1015	0.002
1015	0.003
1016	0.003
1016	0.003
1016	0.003
1017	0.004
1017	0.004
1018	0.004
1018	0.004
1018	0.005
1019	0.005
1019	0.005
1020	0.005
1020	0.005
1021	0.005
1021	0.005
1021	0.004
1022	0.004
1022	0.004
1023	0.003
1023	0.003
1023	0.002
1024	0.002
1024	0.001
1025	0
1025	-0
1026	-0.001
1026	-0.001
1026	-0.001
1027	-0.001
1027	-0.001
1028	-0.001
1028	-0.001
1028	-0.001
1029	-0.001
1029	-0
1030	-0
1030	-0
1031	-0
1031	-0
1031	-0
1032	-0
1032	0
1033	0
1033	0
1033	-0
1034	-0
1034	-0.001
1035	-0.001
1035	-0.002
1036	-0.002
1036	-0.003
1036	-0.003
1037	-0.003
1037	-0.004
1038	-0.004
1038	-0.005
1039	-0.005
1039	-0.005
1039	-0.005
1040	-0.005
1040	-0.005
1041	-0.006
1041	-0.007
1041	-0.007
1042	-0.008
1042	-0.008
1043	-0.009
1043	-0.009
1044	-0.01
1044	-0.011
1044	-0.011
1045	-0.011
1045	-0.011
1046	-0.011
1046	-0.011
1046	-0.011
1047	-0.011
1047	-0.01
1048	-0.009
1048	-0.008
1049	-0.008
1049	-0.007
1049	-0.007
1050	-0.006
1050	-0.006
1051	-0.005
1051	-0.005
1051	-0.004
1052	-0.003
1052	-0.003
1053	-0.002
1053	-0.001
1053	-0
1054	0.001
1054	0.002
1055	0.002
1055	0.003
1056	0.003
1056	0.003
1056	0.002
1057	0.001
1057	0.001
1058	-0
1058	-0.001
1058	-0.002
1059	-0.003
1059	-0.004
1060	-0.005
1060	-0.005
1061	-0.006
1061	-0.006
1061	-0.006
1062	-0.006
1062	-0.007
1063	-0.007
1063	-0.007
1063	-0.007
1064	-0.006
1064	-0.005
1065	-0.005
1065	-0.005
1066	-0.004
1066	-0.004
1066	-0.003
1067	-0.002
1067	-0.001
1068	-0
1068	0.001
1068	0.002
1069	0.002
1069	0.002
1070	0.003
1070	0.004
1071	0.005
1071	0.006
1071	0.007
1072	0.008
1072	0.01
1073	0.011
1073	0.012
1073	0.013
1074	0.015
1074	0.016
1075	0.017
1075	0.018
1076	0.018
1076	0.019
1076	0.019
1077	0.02
1077	0.02
1078	0.021
1078	0.022
1078	0.022
1079	0.023
1079	0.024
1080	0.024
1080	0.025
1080	0.026
1081	0.027
1081	0.029
1082	0.029
1082	0.03
1083	0.03
1083	0.031
1083	0.032
1084	0.033
1084	0.035
1085	0.036
1085	0.037
1085	0.038
1086	0.039
1086	0.039
1087	0.041
1087	0.042
1088	0.042
1088	0.043
1088	0.044
1089	0.044
1089	0.045
1090	0.046
1090	0.047
1090	0.047
1091	0.049
1091	0.051
1092	0.053
1092	0.056
1092	0.058
1093	0.059
1093	0.062
1094	0.065
1094	0.067
1095	0.069
1095	0.072
1095	0.076
1096	0.079
1096	0.083
1097	0.087
1097	0.09
1097	0.095
1098	0.099
1098	0.103
1099	0.109
1099	0.114
1100	0.121
1100	0.126
1100	0.133
1101	0.141
1101	0.149
1102	0.161
1102	0.172
1102	0.185
1103	0.199
1103	0.214
1104	0.231
1104	0.251
1104	0.274
1105	0.296
1105	0.318
1106	0.342
1106	0.371
1107	0.406
1107	0.458
1107	0.527
1108	0.798
1108	-0
1109	-0
1109	-0
1109	-0
1110	-0
1110	-0
1111	-0
1111	-0
