Data from 15c-2-2a_Absorbance__1731__03532.txt Node

Date: Wed Jan 24 14:01:34 CET 2024
User: Marek
Spectrometer: MAYP115816
Trigger mode: 0
Integration Time (sec): 2.000000E-1
Scans to average: 10
Electric dark correction enabled: true
Nonlinearity correction enabled: true
Boxcar width: 5
XAxis mode: Wavelengths
Number of Pixels in Spectrum: 2068
>>>>>Begin Spectral Data<<<<<
199	-1.815
199	-1.654
200	-1.494
200	-1.37
201	-1.297
201	-1.244
202	-1.172
202	-1.115
203	-1.065
203	-1.022
204	-0.993
204	-0.967
205	-0.944
205	-0.935
205	-0.933
206	-0.929
206	-0.927
207	-0.923
207	-0.921
208	-0.919
208	-0.918
209	-0.916
209	-0.917
210	-0.916
210	-0.914
211	-0.913
211	-0.913
212	-0.911
212	-0.909
213	-0.906
213	-0.904
213	-0.902
214	-0.9
214	-0.896
215	-0.895
215	-0.891
216	-0.89
216	-0.887
217	-0.885
217	-0.885
218	-0.886
218	-0.884
219	-0.883
219	-0.88
220	-0.878
220	-0.876
221	-0.876
221	-0.873
221	-0.868
222	-0.863
222	-0.857
223	-0.85
223	-0.844
224	-0.835
224	-0.827
225	-0.819
225	-0.808
226	-0.798
226	-0.786
227	-0.774
227	-0.762
228	-0.743
228	-0.725
229	-0.704
229	-0.681
229	-0.653
230	-0.623
230	-0.589
231	-0.554
231	-0.515
232	-0.474
232	-0.431
233	-0.389
233	-0.344
234	-0.299
234	-0.255
235	-0.211
235	-0.168
236	-0.127
236	-0.087
236	-0.049
237	-0.013
237	0.02
238	0.052
238	0.081
239	0.108
239	0.133
240	0.156
240	0.176
241	0.195
241	0.213
242	0.228
242	0.243
243	0.256
243	0.267
243	0.278
244	0.287
244	0.296
245	0.304
245	0.311
246	0.318
246	0.324
247	0.33
247	0.336
248	0.341
248	0.345
249	0.35
249	0.354
250	0.358
250	0.362
250	0.366
251	0.369
251	0.372
252	0.375
252	0.378
253	0.381
253	0.383
254	0.386
254	0.388
255	0.39
255	0.391
256	0.393
256	0.394
257	0.396
257	0.396
258	0.398
258	0.398
258	0.399
259	0.4
259	0.4
260	0.401
260	0.401
261	0.401
261	0.402
262	0.402
262	0.402
263	0.402
263	0.402
264	0.401
264	0.401
265	0.4
265	0.4
265	0.399
266	0.398
266	0.397
267	0.396
267	0.395
268	0.393
268	0.392
269	0.391
269	0.389
270	0.387
270	0.386
271	0.384
271	0.383
272	0.381
272	0.379
272	0.378
273	0.376
273	0.374
274	0.372
274	0.37
275	0.369
275	0.367
276	0.365
276	0.363
277	0.361
277	0.359
278	0.356
278	0.354
278	0.351
279	0.348
279	0.346
280	0.344
280	0.342
281	0.339
281	0.337
282	0.336
282	0.334
283	0.332
283	0.331
284	0.33
284	0.329
285	0.327
285	0.325
285	0.324
286	0.322
286	0.32
287	0.318
287	0.317
288	0.315
288	0.314
289	0.312
289	0.311
290	0.309
290	0.308
291	0.307
291	0.305
292	0.304
292	0.303
292	0.302
293	0.3
293	0.299
294	0.298
294	0.297
295	0.296
295	0.295
296	0.294
296	0.293
297	0.292
297	0.291
298	0.29
298	0.289
298	0.288
299	0.287
299	0.286
300	0.285
300	0.284
301	0.284
301	0.283
302	0.282
302	0.281
303	0.281
303	0.28
304	0.279
304	0.278
305	0.278
305	0.277
305	0.276
306	0.275
306	0.275
307	0.274
307	0.273
308	0.272
308	0.271
309	0.271
309	0.27
310	0.269
310	0.269
311	0.268
311	0.267
311	0.266
312	0.266
312	0.265
313	0.264
313	0.263
314	0.263
314	0.262
315	0.261
315	0.26
316	0.259
316	0.259
317	0.258
317	0.257
318	0.256
318	0.256
318	0.255
319	0.254
319	0.253
320	0.253
320	0.252
321	0.251
321	0.25
322	0.25
322	0.249
323	0.248
323	0.248
324	0.247
324	0.246
324	0.246
325	0.245
325	0.244
326	0.244
326	0.243
327	0.242
327	0.241
328	0.241
328	0.24
329	0.239
329	0.239
330	0.238
330	0.237
330	0.237
331	0.236
331	0.236
332	0.235
332	0.234
333	0.234
333	0.233
334	0.232
334	0.232
335	0.231
335	0.23
336	0.23
336	0.229
336	0.228
337	0.228
337	0.227
338	0.227
338	0.226
339	0.226
339	0.226
340	0.225
340	0.225
341	0.224
341	0.223
342	0.223
342	0.223
342	0.222
343	0.221
343	0.221
344	0.221
344	0.22
345	0.22
345	0.219
346	0.219
346	0.219
347	0.218
347	0.218
348	0.217
348	0.217
348	0.217
349	0.216
349	0.216
350	0.215
350	0.215
351	0.215
351	0.214
352	0.213
352	0.213
353	0.212
353	0.212
354	0.211
354	0.211
354	0.21
355	0.209
355	0.209
356	0.208
356	0.208
357	0.207
357	0.206
358	0.206
358	0.206
359	0.206
359	0.206
360	0.207
360	0.207
360	0.207
361	0.208
361	0.208
362	0.209
362	0.209
363	0.209
363	0.209
364	0.209
364	0.208
365	0.208
365	0.207
366	0.207
366	0.207
366	0.206
367	0.206
367	0.206
368	0.206
368	0.205
369	0.205
369	0.205
370	0.205
370	0.205
371	0.204
371	0.204
372	0.204
372	0.204
372	0.203
373	0.203
373	0.203
374	0.203
374	0.203
375	0.203
375	0.202
376	0.202
376	0.202
377	0.202
377	0.202
378	0.202
378	0.202
378	0.202
379	0.202
379	0.202
380	0.202
380	0.202
381	0.202
381	0.201
382	0.201
382	0.201
383	0.201
383	0.2
383	0.2
384	0.2
384	0.2
385	0.199
385	0.199
386	0.199
386	0.199
387	0.199
387	0.199
388	0.198
388	0.198
389	0.198
389	0.198
389	0.198
390	0.198
390	0.198
391	0.198
391	0.198
392	0.198
392	0.198
393	0.198
393	0.198
394	0.197
394	0.197
394	0.197
395	0.197
395	0.197
396	0.196
396	0.196
397	0.196
397	0.196
398	0.196
398	0.196
399	0.195
399	0.195
400	0.195
400	0.194
400	0.194
401	0.194
401	0.193
402	0.193
402	0.192
403	0.192
403	0.192
404	0.192
404	0.192
405	0.191
405	0.191
405	0.191
406	0.191
406	0.191
407	0.191
407	0.19
408	0.19
408	0.19
409	0.19
409	0.189
410	0.189
410	0.189
411	0.189
411	0.189
411	0.189
412	0.188
412	0.188
413	0.188
413	0.187
414	0.187
414	0.187
415	0.187
415	0.186
416	0.186
416	0.186
416	0.186
417	0.185
417	0.185
418	0.185
418	0.185
419	0.185
419	0.185
420	0.185
420	0.186
421	0.186
421	0.186
421	0.186
422	0.186
422	0.186
423	0.186
423	0.186
424	0.186
424	0.185
425	0.184
425	0.184
426	0.183
426	0.183
427	0.183
427	0.183
427	0.183
428	0.184
428	0.184
429	0.184
429	0.184
430	0.184
430	0.184
431	0.184
431	0.184
432	0.184
432	0.184
432	0.183
433	0.182
433	0.182
434	0.182
434	0.181
435	0.181
435	0.181
436	0.181
436	0.181
437	0.181
437	0.18
437	0.18
438	0.18
438	0.18
439	0.18
439	0.179
440	0.179
440	0.179
441	0.179
441	0.179
442	0.18
442	0.18
442	0.18
443	0.181
443	0.181
444	0.181
444	0.181
445	0.181
445	0.181
446	0.182
446	0.181
447	0.181
447	0.181
447	0.181
448	0.181
448	0.181
449	0.181
449	0.18
450	0.18
450	0.18
451	0.18
451	0.18
452	0.179
452	0.179
452	0.179
453	0.179
453	0.178
454	0.178
454	0.177
455	0.177
455	0.176
456	0.176
456	0.176
457	0.175
457	0.175
458	0.175
458	0.175
458	0.175
459	0.176
459	0.176
460	0.176
460	0.176
461	0.176
461	0.176
462	0.176
462	0.176
463	0.177
463	0.177
463	0.178
464	0.178
464	0.178
465	0.178
465	0.178
466	0.178
466	0.178
467	0.178
467	0.178
467	0.177
468	0.177
468	0.176
469	0.175
469	0.175
470	0.175
470	0.175
471	0.175
471	0.175
472	0.176
472	0.176
472	0.177
473	0.178
473	0.178
474	0.179
474	0.179
475	0.18
475	0.18
476	0.181
476	0.181
477	0.181
477	0.182
477	0.182
478	0.182
478	0.182
479	0.183
479	0.184
480	0.185
480	0.186
481	0.187
481	0.188
482	0.189
482	0.19
482	0.191
483	0.192
483	0.194
484	0.196
484	0.197
485	0.198
485	0.199
486	0.2
486	0.201
487	0.201
487	0.202
487	0.202
488	0.203
488	0.202
489	0.202
489	0.202
490	0.203
490	0.204
491	0.204
491	0.205
492	0.206
492	0.207
492	0.209
493	0.21
493	0.211
494	0.213
494	0.215
495	0.216
495	0.217
496	0.219
496	0.22
496	0.221
497	0.223
497	0.224
498	0.225
498	0.226
499	0.227
499	0.228
500	0.229
500	0.231
501	0.233
501	0.235
501	0.236
502	0.238
502	0.239
503	0.241
503	0.242
504	0.243
504	0.244
505	0.245
505	0.246
506	0.246
506	0.247
506	0.248
507	0.249
507	0.25
508	0.25
508	0.251
509	0.253
509	0.254
510	0.255
510	0.256
511	0.257
511	0.257
511	0.258
512	0.259
512	0.26
513	0.26
513	0.26
514	0.26
514	0.26
515	0.26
515	0.261
515	0.261
516	0.261
516	0.262
517	0.264
517	0.265
518	0.265
518	0.265
519	0.265
519	0.264
520	0.263
520	0.262
520	0.261
521	0.259
521	0.257
522	0.255
522	0.254
523	0.254
523	0.254
524	0.255
524	0.256
524	0.258
525	0.26
525	0.262
526	0.264
526	0.266
527	0.268
527	0.269
528	0.27
528	0.271
529	0.271
529	0.27
529	0.27
530	0.269
530	0.269
531	0.268
531	0.268
532	0.267
532	0.266
533	0.265
533	0.264
533	0.264
534	0.262
534	0.261
535	0.26
535	0.259
536	0.258
536	0.257
537	0.256
537	0.255
538	0.253
538	0.251
538	0.25
539	0.249
539	0.247
540	0.246
540	0.244
541	0.242
541	0.241
542	0.239
542	0.237
542	0.235
543	0.233
543	0.231
544	0.229
544	0.228
545	0.226
545	0.225
546	0.224
546	0.222
547	0.22
547	0.218
547	0.216
548	0.214
548	0.212
549	0.21
549	0.208
550	0.206
550	0.204
551	0.201
551	0.199
551	0.197
552	0.195
552	0.193
553	0.191
553	0.19
554	0.188
554	0.186
555	0.184
555	0.182
556	0.179
556	0.176
556	0.174
557	0.172
557	0.17
558	0.168
558	0.165
559	0.163
559	0.162
560	0.16
560	0.158
560	0.157
561	0.156
561	0.155
562	0.154
562	0.153
563	0.151
563	0.149
564	0.147
564	0.145
564	0.143
565	0.141
565	0.139
566	0.137
566	0.136
567	0.135
567	0.134
568	0.133
568	0.132
568	0.132
569	0.133
569	0.133
570	0.132
570	0.131
571	0.131
571	0.131
572	0.131
572	0.13
573	0.129
573	0.129
573	0.127
574	0.126
574	0.125
575	0.124
575	0.124
576	0.124
576	0.122
577	0.12
577	0.119
577	0.118
578	0.117
578	0.116
579	0.117
579	0.117
580	0.116
580	0.113
581	0.111
581	0.11
581	0.109
582	0.108
582	0.108
583	0.108
583	0.107
584	0.104
584	0.101
585	0.1
585	0.1
585	0.099
586	0.099
586	0.099
587	0.097
587	0.095
588	0.093
588	0.092
589	0.091
589	0.091
590	0.09
590	0.089
590	0.09
591	0.09
591	0.09
592	0.089
592	0.089
593	0.088
593	0.088
594	0.087
594	0.086
594	0.085
595	0.085
595	0.083
596	0.082
596	0.082
597	0.084
597	0.084
598	0.084
598	0.085
598	0.086
599	0.086
599	0.085
600	0.085
600	0.084
601	0.083
601	0.083
602	0.081
602	0.081
602	0.08
603	0.08
603	0.081
604	0.081
604	0.082
605	0.083
605	0.084
606	0.084
606	0.083
606	0.083
607	0.082
607	0.082
608	0.081
608	0.08
609	0.079
609	0.079
610	0.078
610	0.076
610	0.076
611	0.077
611	0.078
612	0.078
612	0.08
613	0.081
613	0.082
614	0.082
614	0.081
614	0.082
615	0.081
615	0.081
616	0.081
616	0.081
617	0.08
617	0.08
618	0.079
618	0.078
618	0.078
619	0.079
619	0.08
620	0.081
620	0.082
621	0.082
621	0.083
622	0.083
622	0.084
622	0.084
623	0.085
623	0.086
624	0.087
624	0.086
625	0.086
625	0.087
626	0.086
626	0.087
626	0.087
627	0.088
627	0.088
628	0.089
628	0.089
629	0.089
629	0.09
630	0.09
630	0.09
630	0.091
631	0.092
631	0.093
632	0.093
632	0.094
633	0.095
633	0.096
634	0.098
634	0.099
634	0.101
635	0.103
635	0.104
636	0.105
636	0.107
637	0.108
637	0.109
638	0.111
638	0.112
638	0.114
639	0.115
639	0.116
640	0.117
640	0.119
641	0.121
641	0.123
642	0.125
642	0.127
642	0.129
643	0.13
643	0.131
644	0.133
644	0.134
645	0.136
645	0.137
646	0.139
646	0.141
646	0.143
647	0.146
647	0.149
648	0.151
648	0.154
649	0.156
649	0.159
650	0.162
650	0.165
650	0.167
651	0.169
651	0.171
652	0.173
652	0.175
653	0.178
653	0.186
653	0.195
654	0.156
654	0.128
655	0.131
655	0.133
656	0.135
656	0.137
657	0.139
657	0.141
657	0.142
658	0.139
658	0.131
659	0.166
659	0.213
660	0.22
660	0.222
661	0.224
661	0.226
661	0.229
662	0.232
662	0.235
663	0.238
663	0.241
664	0.244
664	0.247
665	0.249
665	0.252
665	0.255
666	0.257
666	0.259
667	0.262
667	0.264
668	0.266
668	0.269
669	0.271
669	0.275
669	0.278
670	0.282
670	0.285
671	0.288
671	0.29
672	0.292
672	0.294
672	0.296
673	0.298
673	0.3
674	0.301
674	0.302
675	0.302
675	0.303
676	0.305
676	0.306
676	0.308
677	0.309
677	0.311
678	0.312
678	0.313
679	0.314
679	0.316
680	0.318
680	0.319
680	0.32
681	0.32
681	0.321
682	0.322
682	0.323
683	0.324
683	0.326
684	0.327
684	0.328
684	0.328
685	0.329
685	0.33
686	0.331
686	0.331
687	0.331
687	0.331
687	0.331
688	0.33
688	0.329
689	0.329
689	0.329
690	0.328
690	0.327
691	0.327
691	0.326
691	0.325
692	0.324
692	0.324
693	0.323
693	0.323
694	0.322
694	0.321
695	0.32
695	0.321
695	0.32
696	0.319
696	0.318
697	0.317
697	0.316
698	0.315
698	0.313
698	0.312
699	0.311
699	0.309
700	0.306
700	0.305
701	0.304
701	0.303
702	0.301
702	0.3
702	0.298
703	0.296
703	0.294
704	0.292
704	0.29
705	0.289
705	0.287
705	0.285
706	0.283
706	0.281
707	0.278
707	0.276
708	0.274
708	0.272
709	0.27
709	0.267
709	0.264
710	0.26
710	0.258
711	0.256
711	0.253
712	0.251
712	0.249
713	0.247
713	0.246
713	0.244
714	0.242
714	0.24
715	0.238
715	0.236
716	0.235
716	0.233
716	0.232
717	0.23
717	0.229
718	0.227
718	0.225
719	0.223
719	0.222
720	0.22
720	0.217
720	0.215
721	0.212
721	0.209
722	0.206
722	0.203
723	0.2
723	0.198
723	0.195
724	0.193
724	0.19
725	0.188
725	0.186
726	0.184
726	0.182
727	0.18
727	0.178
727	0.176
728	0.174
728	0.172
729	0.171
729	0.169
730	0.166
730	0.164
730	0.163
731	0.16
731	0.159
732	0.158
732	0.156
733	0.155
733	0.154
734	0.152
734	0.15
734	0.149
735	0.148
735	0.146
736	0.144
736	0.143
737	0.141
737	0.139
737	0.137
738	0.134
738	0.131
739	0.128
739	0.126
740	0.123
740	0.121
741	0.119
741	0.116
741	0.113
742	0.109
742	0.106
743	0.103
743	0.1
744	0.098
744	0.096
744	0.093
745	0.091
745	0.089
746	0.088
746	0.087
747	0.086
747	0.085
748	0.085
748	0.085
748	0.084
749	0.083
749	0.083
750	0.083
750	0.082
751	0.081
751	0.081
751	0.081
752	0.079
752	0.078
753	0.077
753	0.075
754	0.075
754	0.074
754	0.073
755	0.073
755	0.073
756	0.073
756	0.071
757	0.071
757	0.071
758	0.07
758	0.07
758	0.07
759	0.069
759	0.067
760	0.066
760	0.064
761	0.063
761	0.063
761	0.062
762	0.06
762	0.06
763	0.059
763	0.057
764	0.055
764	0.053
764	0.051
765	0.049
765	0.047
766	0.046
766	0.044
767	0.043
767	0.04
768	0.037
768	0.036
768	0.034
769	0.033
769	0.032
770	0.03
770	0.028
771	0.026
771	0.023
771	0.021
772	0.019
772	0.017
773	0.015
773	0.012
774	0.01
774	0.007
775	0.005
775	0.003
775	0.001
776	-0.001
776	-0.002
777	-0.004
777	-0.006
778	-0.008
778	-0.011
778	-0.014
779	-0.016
779	-0.018
780	-0.021
780	-0.025
781	-0.028
781	-0.033
781	-0.038
782	-0.044
782	-0.05
783	-0.056
783	-0.062
784	-0.07
784	-0.078
784	-0.085
785	-0.094
785	-0.102
786	-0.107
786	-0.11
787	-0.11
787	-0.11
788	-0.114
788	-0.117
788	-0.12
789	-0.123
789	-0.123
790	-0.121
790	-0.121
791	-0.122
791	-0.124
791	-0.127
792	-0.123
792	-0.113
793	-0.107
793	-0.103
794	-0.102
794	-0.103
794	-0.106
795	-0.108
795	-0.108
796	-0.108
796	-0.11
797	-0.118
797	-0.128
797	-0.134
798	-0.139
798	-0.142
799	-0.143
799	-0.142
800	-0.142
800	-0.144
801	-0.148
801	-0.149
801	-0.149
802	-0.151
802	-0.152
803	-0.152
803	-0.152
804	-0.15
804	-0.145
804	-0.138
805	-0.133
805	-0.13
806	-0.127
806	-0.125
807	-0.124
807	-0.123
807	-0.123
808	-0.123
808	-0.124
809	-0.129
809	-0.135
810	-0.139
810	-0.143
810	-0.147
811	-0.15
811	-0.152
812	-0.148
812	-0.146
813	-0.147
813	-0.148
813	-0.149
814	-0.15
814	-0.15
815	-0.148
815	-0.145
816	-0.142
816	-0.142
817	-0.146
817	-0.149
817	-0.148
818	-0.144
818	-0.139
819	-0.133
819	-0.127
820	-0.123
820	-0.12
820	-0.114
821	-0.107
821	-0.098
822	-0.089
822	-0.081
823	-0.073
823	-0.067
823	-0.061
824	-0.055
824	-0.048
825	-0.042
825	-0.035
826	-0.03
826	-0.025
826	-0.022
827	-0.018
827	-0.015
828	-0.012
828	-0.011
829	-0.009
829	-0.008
829	-0.007
830	-0.008
830	-0.007
831	-0.006
831	-0.005
832	-0.005
832	-0.004
832	-0.003
833	-0.002
833	-0.001
834	-0
834	0.001
835	0.002
835	0.002
835	0.003
836	0.004
836	0.004
837	0.005
837	0.005
838	0.005
838	0.005
839	0.005
839	0.005
839	0.005
840	0.005
840	0.005
841	0.005
841	0.005
842	0.006
842	0.007
842	0.007
843	0.008
843	0.009
844	0.01
844	0.011
845	0.012
845	0.013
845	0.013
846	0.013
846	0.013
847	0.014
847	0.014
848	0.015
848	0.015
848	0.016
849	0.017
849	0.018
850	0.018
850	0.019
851	0.019
851	0.02
851	0.02
852	0.019
852	0.019
853	0.018
853	0.017
854	0.016
854	0.015
854	0.014
855	0.013
855	0.012
856	0.011
856	0.011
857	0.012
857	0.012
857	0.013
858	0.014
858	0.015
859	0.017
859	0.019
860	0.021
860	0.022
860	0.024
861	0.025
861	0.026
862	0.027
862	0.027
863	0.028
863	0.028
863	0.027
864	0.026
864	0.026
865	0.025
865	0.025
866	0.024
866	0.023
866	0.022
867	0.022
867	0.021
868	0.02
868	0.02
869	0.019
869	0.018
869	0.016
870	0.015
870	0.014
871	0.013
871	0.012
872	0.011
872	0.01
872	0.009
873	0.009
873	0.009
874	0.009
874	0.009
875	0.01
875	0.01
875	0.011
876	0.011
876	0.012
877	0.013
877	0.013
878	0.014
878	0.014
878	0.015
879	0.015
879	0.015
880	0.016
880	0.016
881	0.016
881	0.016
881	0.016
882	0.016
882	0.016
883	0.016
883	0.016
884	0.017
884	0.017
884	0.017
885	0.017
885	0.017
886	0.017
886	0.018
887	0.018
887	0.018
887	0.018
888	0.019
888	0.019
889	0.019
889	0.02
890	0.021
890	0.022
890	0.022
891	0.022
891	0.023
892	0.023
892	0.023
893	0.023
893	0.023
893	0.022
894	0.022
894	0.021
895	0.02
895	0.019
895	0.017
896	0.016
896	0.015
897	0.013
897	0.012
898	0.011
898	0.01
898	0.009
899	0.008
899	0.008
900	0.008
900	0.008
901	0.008
901	0.009
901	0.009
902	0.009
902	0.01
903	0.009
903	0.009
904	0.009
904	0.008
904	0.008
905	0.008
905	0.008
906	0.008
906	0.009
907	0.009
907	0.01
907	0.01
908	0.011
908	0.012
909	0.014
909	0.015
910	0.016
910	0.017
910	0.018
911	0.018
911	0.018
912	0.019
912	0.019
913	0.018
913	0.018
913	0.017
914	0.016
914	0.015
915	0.014
915	0.013
916	0.012
916	0.012
916	0.011
917	0.011
917	0.011
918	0.011
918	0.011
918	0.01
919	0.01
919	0.01
920	0.01
920	0.009
921	0.009
921	0.008
921	0.008
922	0.008
922	0.008
923	0.008
923	0.008
924	0.008
924	0.009
924	0.009
925	0.009
925	0.01
926	0.01
926	0.01
927	0.01
927	0.01
927	0.01
928	0.01
928	0.009
929	0.009
929	0.009
930	0.008
930	0.008
930	0.008
931	0.007
931	0.007
932	0.007
932	0.007
933	0.007
933	0.007
933	0.006
934	0.006
934	0.006
935	0.005
935	0.005
935	0.005
936	0.005
936	0.005
937	0.005
937	0.005
938	0.005
938	0.005
938	0.005
939	0.006
939	0.007
940	0.007
940	0.008
941	0.009
941	0.009
941	0.01
942	0.011
942	0.011
943	0.011
943	0.011
944	0.012
944	0.012
944	0.012
945	0.013
945	0.014
946	0.014
946	0.014
946	0.015
947	0.016
947	0.016
948	0.017
948	0.017
949	0.017
949	0.017
949	0.018
950	0.019
950	0.02
951	0.021
951	0.021
952	0.022
952	0.022
952	0.023
953	0.024
953	0.024
954	0.024
954	0.024
955	0.023
955	0.023
955	0.022
956	0.021
956	0.021
957	0.019
957	0.018
957	0.017
958	0.016
958	0.015
959	0.014
959	0.013
960	0.011
960	0.01
960	0.008
961	0.007
961	0.006
962	0.004
962	0.003
963	0.002
963	0.001
963	0
964	-0.001
964	-0.001
965	-0.001
965	-0.001
966	-0.001
966	-0.001
966	-0.001
967	-0
967	-0
968	-0
968	-0
968	-0
969	-0
969	0
970	0
970	0.001
971	0.001
971	0.001
971	0.002
972	0.003
972	0.003
973	0.004
973	0.005
974	0.006
974	0.007
974	0.008
975	0.009
975	0.009
976	0.01
976	0.01
976	0.01
977	0.01
977	0.009
978	0.009
978	0.008
979	0.007
979	0.006
979	0.005
980	0.004
980	0.003
981	0.002
981	0.001
982	-0
982	-0
982	-0.001
983	-0.001
983	-0.001
984	-0.001
984	-0.001
984	-0
985	0.001
985	0.002
986	0.002
986	0.003
987	0.003
987	0.004
987	0.005
988	0.005
988	0.006
989	0.006
989	0.006
990	0.006
990	0.006
990	0.007
991	0.007
991	0.008
992	0.008
992	0.008
992	0.009
993	0.009
993	0.009
994	0.01
994	0.01
995	0.01
995	0.01
995	0.01
996	0.009
996	0.009
997	0.008
997	0.007
997	0.007
998	0.006
998	0.006
999	0.005
999	0.005
1000	0.004
1000	0.004
1000	0.004
1001	0.004
1001	0.003
1002	0.003
1002	0.003
1003	0.003
1003	0.002
1003	0.002
1004	0.002
1004	0.001
1005	0
1005	-0
1005	-0.001
1006	-0.002
1006	-0.002
1007	-0.003
1007	-0.004
1008	-0.004
1008	-0.005
1008	-0.005
1009	-0.005
1009	-0.005
1010	-0.005
1010	-0.005
1010	-0.005
1011	-0.005
1011	-0.005
1012	-0.004
1012	-0.004
1013	-0.003
1013	-0.003
1013	-0.002
1014	-0.002
1014	-0.002
1015	-0.001
1015	-0
1016	0
1016	0.001
1016	0.001
1017	0.002
1017	0.003
1018	0.003
1018	0.004
1018	0.004
1019	0.005
1019	0.005
1020	0.005
1020	0.005
1021	0.005
1021	0.004
1021	0.004
1022	0.004
1022	0.003
1023	0.003
1023	0.002
1023	0.002
1024	0.001
1024	0
1025	-0
1025	-0.001
1026	-0.001
1026	-0.001
1026	-0.001
1027	-0.001
1027	-0
1028	0
1028	0.001
1028	0.001
1029	0.002
1029	0.002
1030	0.002
1030	0.002
1031	0.002
1031	0.002
1031	0.002
1032	0.002
1032	0.001
1033	0.001
1033	0
1033	-0
1034	-0.001
1034	-0.002
1035	-0.003
1035	-0.004
1036	-0.005
1036	-0.006
1036	-0.006
1037	-0.007
1037	-0.007
1038	-0.007
1038	-0.007
1039	-0.007
1039	-0.007
1039	-0.007
1040	-0.007
1040	-0.007
1041	-0.008
1041	-0.008
1041	-0.009
1042	-0.009
1042	-0.01
1043	-0.01
1043	-0.011
1044	-0.011
1044	-0.012
1044	-0.012
1045	-0.012
1045	-0.012
1046	-0.013
1046	-0.013
1046	-0.013
1047	-0.012
1047	-0.012
1048	-0.011
1048	-0.01
1049	-0.01
1049	-0.01
1049	-0.009
1050	-0.008
1050	-0.007
1051	-0.006
1051	-0.005
1051	-0.004
1052	-0.003
1052	-0.003
1053	-0.002
1053	-0.001
1053	0
1054	0.001
1054	0.002
1055	0.002
1055	0.002
1056	0.002
1056	0.002
1056	0.001
1057	0
1057	-0.001
1058	-0.001
1058	-0.002
1058	-0.003
1059	-0.004
1059	-0.005
1060	-0.005
1060	-0.006
1061	-0.007
1061	-0.006
1061	-0.007
1062	-0.007
1062	-0.008
1063	-0.008
1063	-0.009
1063	-0.009
1064	-0.009
1064	-0.009
1065	-0.008
1065	-0.009
1066	-0.008
1066	-0.008
1066	-0.007
1067	-0.006
1067	-0.005
1068	-0.004
1068	-0.003
1068	-0.002
1069	-0.002
1069	-0.001
1070	0
1070	0.001
1071	0.001
1071	0.002
1071	0.003
1072	0.004
1072	0.005
1073	0.006
1073	0.007
1073	0.008
1074	0.009
1074	0.01
1075	0.011
1075	0.011
1076	0.011
1076	0.012
1076	0.011
1077	0.011
1077	0.012
1078	0.012
1078	0.013
1078	0.014
1079	0.014
1079	0.015
1080	0.016
1080	0.017
1080	0.017
1081	0.019
1081	0.02
1082	0.02
1082	0.021
1083	0.021
1083	0.021
1083	0.022
1084	0.023
1084	0.024
1085	0.025
1085	0.026
1085	0.027
1086	0.029
1086	0.029
1087	0.031
1087	0.032
1088	0.032
1088	0.033
1088	0.035
1089	0.036
1089	0.037
1090	0.038
1090	0.039
1090	0.04
1091	0.041
1091	0.044
1092	0.045
1092	0.048
1092	0.049
1093	0.05
1093	0.053
1094	0.055
1094	0.056
1095	0.058
1095	0.061
1095	0.065
1096	0.067
1096	0.071
1097	0.075
1097	0.078
1097	0.083
1098	0.086
1098	0.089
1099	0.095
1099	0.101
1100	0.107
1100	0.113
1100	0.12
1101	0.126
1101	0.134
1102	0.144
1102	0.156
1102	0.168
1103	0.182
1103	0.195
1104	0.211
1104	0.226
1104	0.246
1105	0.265
1105	0.288
1106	0.31
1106	0.336
1107	0.366
1107	0.412
1107	0.469
1108	0.685
1108	1.361
1109	-0
1109	-0
1109	-0
1110	-0
1110	-0
1111	-0
1111	-0
