Data from 15c-2-2a_Absorbance__16__01817.txt Node

Date: Wed Jan 24 13:04:25 CET 2024
User: Marek
Spectrometer: MAYP115816
Trigger mode: 0
Integration Time (sec): 2.000000E-1
Scans to average: 10
Electric dark correction enabled: true
Nonlinearity correction enabled: true
Boxcar width: 5
XAxis mode: Wavelengths
Number of Pixels in Spectrum: 2068
>>>>>Begin Spectral Data<<<<<
199	-1.912
199	-1.75
200	-1.589
200	-1.465
201	-1.391
201	-1.338
202	-1.267
202	-1.209
203	-1.159
203	-1.116
204	-1.087
204	-1.061
205	-1.038
205	-1.03
205	-1.028
206	-1.025
206	-1.023
207	-1.019
207	-1.016
208	-1.014
208	-1.012
209	-1.01
209	-1.01
210	-1.01
210	-1.008
211	-1.006
211	-1.006
212	-1.003
212	-1.001
213	-0.999
213	-0.996
213	-0.994
214	-0.992
214	-0.988
215	-0.987
215	-0.983
216	-0.982
216	-0.979
217	-0.978
217	-0.978
218	-0.979
218	-0.977
219	-0.976
219	-0.974
220	-0.972
220	-0.97
221	-0.97
221	-0.967
221	-0.962
222	-0.956
222	-0.949
223	-0.943
223	-0.937
224	-0.928
224	-0.921
225	-0.913
225	-0.904
226	-0.894
226	-0.882
227	-0.87
227	-0.858
228	-0.841
228	-0.824
229	-0.803
229	-0.782
229	-0.756
230	-0.728
230	-0.696
231	-0.663
231	-0.627
232	-0.59
232	-0.551
233	-0.512
233	-0.471
234	-0.431
234	-0.392
235	-0.353
235	-0.316
236	-0.281
236	-0.248
236	-0.217
237	-0.188
237	-0.161
238	-0.137
238	-0.114
239	-0.094
239	-0.075
240	-0.058
240	-0.043
241	-0.03
241	-0.017
242	-0.007
242	0.003
243	0.012
243	0.02
243	0.027
244	0.034
244	0.04
245	0.045
245	0.05
246	0.055
246	0.059
247	0.063
247	0.067
248	0.071
248	0.074
249	0.078
249	0.081
250	0.083
250	0.086
250	0.089
251	0.092
251	0.094
252	0.096
252	0.098
253	0.1
253	0.102
254	0.104
254	0.106
255	0.108
255	0.109
256	0.11
256	0.111
257	0.113
257	0.114
258	0.115
258	0.116
258	0.116
259	0.117
259	0.117
260	0.118
260	0.118
261	0.118
261	0.119
262	0.119
262	0.119
263	0.119
263	0.119
264	0.119
264	0.118
265	0.118
265	0.118
265	0.117
266	0.117
266	0.116
267	0.115
267	0.114
268	0.114
268	0.113
269	0.112
269	0.11
270	0.109
270	0.108
271	0.106
271	0.105
272	0.104
272	0.103
272	0.102
273	0.1
273	0.099
274	0.098
274	0.097
275	0.096
275	0.095
276	0.094
276	0.092
277	0.091
277	0.09
278	0.088
278	0.086
278	0.085
279	0.083
279	0.081
280	0.079
280	0.078
281	0.077
281	0.075
282	0.074
282	0.073
283	0.072
283	0.071
284	0.07
284	0.07
285	0.069
285	0.068
285	0.067
286	0.066
286	0.065
287	0.064
287	0.063
288	0.062
288	0.061
289	0.06
289	0.059
290	0.058
290	0.058
291	0.057
291	0.056
292	0.055
292	0.055
292	0.054
293	0.054
293	0.053
294	0.053
294	0.052
295	0.052
295	0.051
296	0.051
296	0.05
297	0.05
297	0.05
298	0.049
298	0.049
298	0.049
299	0.049
299	0.049
300	0.048
300	0.048
301	0.048
301	0.048
302	0.047
302	0.047
303	0.047
303	0.047
304	0.047
304	0.047
305	0.047
305	0.046
305	0.046
306	0.046
306	0.046
307	0.046
307	0.046
308	0.046
308	0.046
309	0.045
309	0.045
310	0.045
310	0.045
311	0.045
311	0.045
311	0.045
312	0.044
312	0.044
313	0.044
313	0.044
314	0.044
314	0.043
315	0.043
315	0.043
316	0.043
316	0.042
317	0.042
317	0.042
318	0.042
318	0.041
318	0.041
319	0.041
319	0.041
320	0.041
320	0.04
321	0.04
321	0.04
322	0.04
322	0.04
323	0.04
323	0.039
324	0.039
324	0.039
324	0.039
325	0.038
325	0.038
326	0.038
326	0.038
327	0.037
327	0.037
328	0.037
328	0.037
329	0.036
329	0.036
330	0.036
330	0.036
330	0.036
331	0.036
331	0.035
332	0.035
332	0.035
333	0.034
333	0.034
334	0.034
334	0.034
335	0.034
335	0.033
336	0.033
336	0.033
336	0.033
337	0.033
337	0.033
338	0.033
338	0.032
339	0.032
339	0.032
340	0.032
340	0.032
341	0.031
341	0.031
342	0.031
342	0.031
342	0.03
343	0.03
343	0.03
344	0.029
344	0.029
345	0.029
345	0.029
346	0.028
346	0.028
347	0.028
347	0.028
348	0.028
348	0.028
348	0.028
349	0.027
349	0.027
350	0.027
350	0.027
351	0.027
351	0.026
352	0.026
352	0.025
353	0.025
353	0.025
354	0.024
354	0.024
354	0.023
355	0.023
355	0.023
356	0.022
356	0.022
357	0.022
357	0.021
358	0.021
358	0.021
359	0.021
359	0.022
360	0.022
360	0.022
360	0.022
361	0.023
361	0.023
362	0.023
362	0.023
363	0.023
363	0.023
364	0.023
364	0.023
365	0.023
365	0.023
366	0.023
366	0.023
366	0.023
367	0.023
367	0.023
368	0.023
368	0.023
369	0.022
369	0.022
370	0.022
370	0.022
371	0.022
371	0.022
372	0.022
372	0.022
372	0.022
373	0.022
373	0.022
374	0.022
374	0.022
375	0.022
375	0.022
376	0.022
376	0.022
377	0.022
377	0.022
378	0.022
378	0.023
378	0.023
379	0.023
379	0.023
380	0.023
380	0.023
381	0.023
381	0.023
382	0.023
382	0.023
383	0.023
383	0.023
383	0.023
384	0.023
384	0.023
385	0.023
385	0.023
386	0.023
386	0.023
387	0.023
387	0.023
388	0.023
388	0.023
389	0.023
389	0.023
389	0.023
390	0.023
390	0.024
391	0.024
391	0.024
392	0.024
392	0.024
393	0.024
393	0.024
394	0.024
394	0.024
394	0.024
395	0.024
395	0.024
396	0.024
396	0.024
397	0.024
397	0.024
398	0.024
398	0.024
399	0.024
399	0.024
400	0.024
400	0.024
400	0.024
401	0.024
401	0.023
402	0.023
402	0.023
403	0.023
403	0.023
404	0.023
404	0.023
405	0.023
405	0.023
405	0.023
406	0.022
406	0.023
407	0.022
407	0.022
408	0.022
408	0.022
409	0.022
409	0.022
410	0.022
410	0.022
411	0.022
411	0.022
411	0.022
412	0.022
412	0.022
413	0.022
413	0.022
414	0.022
414	0.022
415	0.022
415	0.022
416	0.021
416	0.021
416	0.021
417	0.021
417	0.021
418	0.021
418	0.021
419	0.021
419	0.021
420	0.022
420	0.022
421	0.022
421	0.023
421	0.023
422	0.023
422	0.023
423	0.023
423	0.023
424	0.022
424	0.022
425	0.021
425	0.021
426	0.021
426	0.02
427	0.02
427	0.021
427	0.021
428	0.021
428	0.021
429	0.022
429	0.022
430	0.022
430	0.022
431	0.022
431	0.022
432	0.022
432	0.021
432	0.021
433	0.021
433	0.02
434	0.02
434	0.02
435	0.021
435	0.02
436	0.02
436	0.02
437	0.02
437	0.02
437	0.02
438	0.02
438	0.02
439	0.019
439	0.019
440	0.019
440	0.019
441	0.019
441	0.019
442	0.019
442	0.02
442	0.02
443	0.02
443	0.02
444	0.02
444	0.02
445	0.021
445	0.021
446	0.021
446	0.021
447	0.021
447	0.021
447	0.021
448	0.021
448	0.021
449	0.021
449	0.02
450	0.02
450	0.02
451	0.02
451	0.019
452	0.019
452	0.019
452	0.018
453	0.018
453	0.018
454	0.017
454	0.017
455	0.016
455	0.016
456	0.016
456	0.016
457	0.015
457	0.015
458	0.015
458	0.015
458	0.015
459	0.015
459	0.015
460	0.015
460	0.015
461	0.015
461	0.014
462	0.015
462	0.015
463	0.015
463	0.015
463	0.016
464	0.015
464	0.015
465	0.015
465	0.015
466	0.015
466	0.014
467	0.014
467	0.014
467	0.013
468	0.012
468	0.011
469	0.01
469	0.01
470	0.01
470	0.01
471	0.009
471	0.009
472	0.009
472	0.009
472	0.009
473	0.01
473	0.01
474	0.011
474	0.011
475	0.011
475	0.011
476	0.011
476	0.011
477	0.011
477	0.011
477	0.011
478	0.01
478	0.011
479	0.011
479	0.011
480	0.012
480	0.012
481	0.012
481	0.013
482	0.013
482	0.014
482	0.014
483	0.015
483	0.016
484	0.017
484	0.017
485	0.017
485	0.017
486	0.017
486	0.017
487	0.017
487	0.017
487	0.017
488	0.016
488	0.015
489	0.014
489	0.014
490	0.014
490	0.013
491	0.013
491	0.013
492	0.013
492	0.014
492	0.014
493	0.014
493	0.015
494	0.015
494	0.016
495	0.016
495	0.016
496	0.016
496	0.016
496	0.016
497	0.016
497	0.016
498	0.016
498	0.016
499	0.016
499	0.015
500	0.016
500	0.016
501	0.017
501	0.017
501	0.017
502	0.018
502	0.018
503	0.018
503	0.019
504	0.019
504	0.019
505	0.018
505	0.018
506	0.017
506	0.017
506	0.017
507	0.016
507	0.016
508	0.016
508	0.016
509	0.016
509	0.016
510	0.016
510	0.016
511	0.016
511	0.016
511	0.016
512	0.015
512	0.015
513	0.014
513	0.014
514	0.013
514	0.013
515	0.013
515	0.013
515	0.013
516	0.012
516	0.013
517	0.013
517	0.013
518	0.013
518	0.013
519	0.013
519	0.013
520	0.012
520	0.012
520	0.011
521	0.01
521	0.009
522	0.008
522	0.006
523	0.005
523	0.004
524	0.003
524	0.003
524	0.003
525	0.003
525	0.004
526	0.005
526	0.006
527	0.008
527	0.009
528	0.011
528	0.012
529	0.013
529	0.014
529	0.015
530	0.015
530	0.016
531	0.017
531	0.017
532	0.017
532	0.017
533	0.017
533	0.017
533	0.017
534	0.017
534	0.017
535	0.017
535	0.017
536	0.017
536	0.017
537	0.017
537	0.017
538	0.017
538	0.017
538	0.017
539	0.017
539	0.017
540	0.018
540	0.018
541	0.018
541	0.017
542	0.017
542	0.017
542	0.017
543	0.017
543	0.017
544	0.017
544	0.017
545	0.017
545	0.018
546	0.018
546	0.018
547	0.018
547	0.017
547	0.017
548	0.017
548	0.016
549	0.016
549	0.016
550	0.016
550	0.016
551	0.015
551	0.015
551	0.015
552	0.015
552	0.015
553	0.016
553	0.016
554	0.016
554	0.016
555	0.016
555	0.016
556	0.015
556	0.015
556	0.014
557	0.014
557	0.014
558	0.014
558	0.014
559	0.014
559	0.014
560	0.014
560	0.014
560	0.014
561	0.015
561	0.016
562	0.016
562	0.017
563	0.016
563	0.016
564	0.016
564	0.015
564	0.015
565	0.015
565	0.015
566	0.014
566	0.014
567	0.014
567	0.015
568	0.016
568	0.017
568	0.019
569	0.021
569	0.023
570	0.024
570	0.024
571	0.025
571	0.026
572	0.027
572	0.028
573	0.028
573	0.029
573	0.028
574	0.028
574	0.028
575	0.028
575	0.03
576	0.03
576	0.03
577	0.029
577	0.029
577	0.029
578	0.028
578	0.029
579	0.031
579	0.032
580	0.032
580	0.031
581	0.029
581	0.029
581	0.029
582	0.029
582	0.03
583	0.031
583	0.03
584	0.028
584	0.026
585	0.026
585	0.026
585	0.026
586	0.027
586	0.027
587	0.026
587	0.025
588	0.023
588	0.022
589	0.022
589	0.022
590	0.022
590	0.022
590	0.023
591	0.024
591	0.024
592	0.024
592	0.024
593	0.024
593	0.024
594	0.024
594	0.023
594	0.022
595	0.022
595	0.021
596	0.021
596	0.022
597	0.024
597	0.025
598	0.025
598	0.026
598	0.027
599	0.028
599	0.028
600	0.027
600	0.027
601	0.026
601	0.026
602	0.025
602	0.024
602	0.024
603	0.024
603	0.024
604	0.025
604	0.026
605	0.027
605	0.028
606	0.028
606	0.027
606	0.026
607	0.026
607	0.025
608	0.025
608	0.024
609	0.023
609	0.023
610	0.022
610	0.021
610	0.021
611	0.021
611	0.022
612	0.023
612	0.024
613	0.025
613	0.026
614	0.026
614	0.025
614	0.025
615	0.025
615	0.024
616	0.024
616	0.024
617	0.023
617	0.022
618	0.021
618	0.021
618	0.021
619	0.021
619	0.022
620	0.023
620	0.024
621	0.024
621	0.024
622	0.024
622	0.025
622	0.025
623	0.024
623	0.025
624	0.025
624	0.024
625	0.024
625	0.024
626	0.023
626	0.023
626	0.023
627	0.023
627	0.023
628	0.023
628	0.023
629	0.023
629	0.023
630	0.022
630	0.021
630	0.021
631	0.021
631	0.021
632	0.021
632	0.021
633	0.021
633	0.021
634	0.022
634	0.023
634	0.024
635	0.025
635	0.026
636	0.027
636	0.027
637	0.028
637	0.028
638	0.028
638	0.029
638	0.029
639	0.029
639	0.029
640	0.03
640	0.031
641	0.031
641	0.032
642	0.033
642	0.035
642	0.036
643	0.036
643	0.037
644	0.037
644	0.037
645	0.038
645	0.038
646	0.038
646	0.039
646	0.04
647	0.04
647	0.042
648	0.043
648	0.044
649	0.045
649	0.047
650	0.048
650	0.049
650	0.05
651	0.051
651	0.052
652	0.052
652	0.053
653	0.054
653	0.06
653	0.065
654	0.055
654	0.047
655	0.046
655	0.046
656	0.047
656	0.048
657	0.049
657	0.049
657	0.049
658	0.046
658	0.042
659	0.051
659	0.062
660	0.067
660	0.067
661	0.068
661	0.068
661	0.069
662	0.07
662	0.072
663	0.073
663	0.075
664	0.076
664	0.077
665	0.078
665	0.079
665	0.08
666	0.081
666	0.082
667	0.082
667	0.083
668	0.083
668	0.084
669	0.085
669	0.087
669	0.089
670	0.09
670	0.092
671	0.092
671	0.093
672	0.094
672	0.095
672	0.095
673	0.095
673	0.096
674	0.096
674	0.095
675	0.095
675	0.094
676	0.095
676	0.095
676	0.096
677	0.096
677	0.097
678	0.097
678	0.098
679	0.098
679	0.098
680	0.099
680	0.1
680	0.1
681	0.1
681	0.101
682	0.101
682	0.101
683	0.102
683	0.103
684	0.104
684	0.104
684	0.104
685	0.105
685	0.106
686	0.106
686	0.107
687	0.107
687	0.107
687	0.107
688	0.107
688	0.107
689	0.107
689	0.108
690	0.107
690	0.107
691	0.106
691	0.106
691	0.106
692	0.105
692	0.105
693	0.105
693	0.105
694	0.105
694	0.104
695	0.105
695	0.106
695	0.107
696	0.106
696	0.106
697	0.106
697	0.106
698	0.105
698	0.104
698	0.104
699	0.104
699	0.103
700	0.102
700	0.102
701	0.102
701	0.102
702	0.102
702	0.102
702	0.102
703	0.101
703	0.1
704	0.099
704	0.099
705	0.099
705	0.098
705	0.097
706	0.097
706	0.096
707	0.095
707	0.094
708	0.093
708	0.092
709	0.092
709	0.091
709	0.089
710	0.087
710	0.087
711	0.086
711	0.086
712	0.085
712	0.085
713	0.085
713	0.084
713	0.084
714	0.083
714	0.083
715	0.083
715	0.082
716	0.082
716	0.083
716	0.082
717	0.082
717	0.082
718	0.082
718	0.081
719	0.081
719	0.081
720	0.08
720	0.078
720	0.077
721	0.075
721	0.074
722	0.073
722	0.071
723	0.07
723	0.069
723	0.068
724	0.067
724	0.066
725	0.065
725	0.065
726	0.064
726	0.064
727	0.063
727	0.062
727	0.062
728	0.061
728	0.06
729	0.061
729	0.06
730	0.059
730	0.059
730	0.058
731	0.057
731	0.057
732	0.057
732	0.056
733	0.056
733	0.056
734	0.055
734	0.055
734	0.054
735	0.054
735	0.053
736	0.052
736	0.051
737	0.051
737	0.05
737	0.049
738	0.048
738	0.046
739	0.044
739	0.043
740	0.042
740	0.041
741	0.04
741	0.038
741	0.035
742	0.032
742	0.03
743	0.029
743	0.027
744	0.025
744	0.024
744	0.022
745	0.021
745	0.02
746	0.019
746	0.019
747	0.02
747	0.02
748	0.021
748	0.022
748	0.023
749	0.023
749	0.024
750	0.024
750	0.025
751	0.025
751	0.025
751	0.025
752	0.025
752	0.023
753	0.022
753	0.022
754	0.021
754	0.021
754	0.021
755	0.022
755	0.022
756	0.022
756	0.022
757	0.022
757	0.022
758	0.023
758	0.022
758	0.023
759	0.023
759	0.022
760	0.021
760	0.019
761	0.019
761	0.019
761	0.018
762	0.017
762	0.017
763	0.016
763	0.015
764	0.013
764	0.011
764	0.01
765	0.008
765	0.007
766	0.006
766	0.006
767	0.005
767	0.003
768	0.001
768	0
768	-0
769	-0.001
769	-0.002
770	-0.003
770	-0.005
771	-0.007
771	-0.01
771	-0.012
772	-0.015
772	-0.017
773	-0.019
773	-0.022
774	-0.025
774	-0.027
775	-0.029
775	-0.031
775	-0.033
776	-0.036
776	-0.038
777	-0.04
777	-0.043
778	-0.045
778	-0.049
778	-0.052
779	-0.054
779	-0.057
780	-0.061
780	-0.066
781	-0.071
781	-0.078
781	-0.084
782	-0.09
782	-0.097
783	-0.104
783	-0.109
784	-0.114
784	-0.118
784	-0.122
785	-0.126
785	-0.129
786	-0.129
786	-0.127
787	-0.122
787	-0.118
788	-0.117
788	-0.118
788	-0.12
789	-0.122
789	-0.123
790	-0.12
790	-0.12
791	-0.121
791	-0.123
791	-0.126
792	-0.122
792	-0.112
793	-0.106
793	-0.102
794	-0.1
794	-0.102
794	-0.105
795	-0.107
795	-0.107
796	-0.106
796	-0.109
797	-0.117
797	-0.127
797	-0.133
798	-0.138
798	-0.141
799	-0.141
799	-0.141
800	-0.141
800	-0.143
801	-0.147
801	-0.148
801	-0.148
802	-0.15
802	-0.151
803	-0.151
803	-0.151
804	-0.149
804	-0.144
804	-0.137
805	-0.132
805	-0.129
806	-0.126
806	-0.124
807	-0.123
807	-0.122
807	-0.122
808	-0.122
808	-0.123
809	-0.128
809	-0.134
810	-0.138
810	-0.142
810	-0.146
811	-0.149
811	-0.15
812	-0.147
812	-0.145
813	-0.145
813	-0.147
813	-0.148
814	-0.149
814	-0.149
815	-0.146
815	-0.143
816	-0.141
816	-0.141
817	-0.145
817	-0.148
817	-0.147
818	-0.144
818	-0.14
819	-0.134
819	-0.13
820	-0.127
820	-0.124
820	-0.119
821	-0.113
821	-0.105
822	-0.097
822	-0.088
823	-0.081
823	-0.075
823	-0.069
824	-0.063
824	-0.056
825	-0.049
825	-0.043
826	-0.037
826	-0.033
826	-0.03
827	-0.026
827	-0.023
828	-0.02
828	-0.018
829	-0.016
829	-0.015
829	-0.015
830	-0.015
830	-0.015
831	-0.013
831	-0.012
832	-0.012
832	-0.011
832	-0.01
833	-0.008
833	-0.007
834	-0.006
834	-0.005
835	-0.004
835	-0.003
835	-0.002
836	-0.002
836	-0.001
837	-0.001
837	-0.001
838	-0.002
838	-0.002
839	-0.002
839	-0.002
839	-0.002
840	-0.002
840	-0.001
841	-0.001
841	-0
842	0.001
842	0.002
842	0.003
843	0.005
843	0.006
844	0.007
844	0.008
845	0.009
845	0.01
845	0.011
846	0.011
846	0.011
847	0.012
847	0.012
848	0.013
848	0.014
848	0.015
849	0.017
849	0.018
850	0.019
850	0.019
851	0.02
851	0.021
851	0.021
852	0.021
852	0.021
853	0.02
853	0.019
854	0.018
854	0.018
854	0.017
855	0.016
855	0.015
856	0.014
856	0.014
857	0.013
857	0.014
857	0.014
858	0.015
858	0.017
859	0.018
859	0.02
860	0.022
860	0.024
860	0.026
861	0.027
861	0.029
862	0.03
862	0.03
863	0.031
863	0.03
863	0.03
864	0.029
864	0.029
865	0.028
865	0.028
866	0.027
866	0.026
866	0.025
867	0.025
867	0.025
868	0.024
868	0.024
869	0.023
869	0.022
869	0.021
870	0.02
870	0.019
871	0.018
871	0.018
872	0.017
872	0.016
872	0.015
873	0.015
873	0.015
874	0.015
874	0.015
875	0.015
875	0.015
875	0.015
876	0.015
876	0.015
877	0.015
877	0.016
878	0.016
878	0.016
878	0.017
879	0.017
879	0.017
880	0.017
880	0.017
881	0.017
881	0.018
881	0.018
882	0.018
882	0.019
883	0.019
883	0.02
884	0.02
884	0.021
884	0.021
885	0.022
885	0.022
886	0.022
886	0.023
887	0.023
887	0.023
887	0.024
888	0.024
888	0.024
889	0.025
889	0.026
890	0.026
890	0.027
890	0.027
891	0.028
891	0.028
892	0.029
892	0.029
893	0.029
893	0.029
893	0.029
894	0.029
894	0.028
895	0.027
895	0.026
895	0.025
896	0.023
896	0.022
897	0.021
897	0.019
898	0.018
898	0.017
898	0.016
899	0.015
899	0.014
900	0.014
900	0.014
901	0.014
901	0.015
901	0.015
902	0.015
902	0.015
903	0.015
903	0.015
904	0.014
904	0.013
904	0.013
905	0.012
905	0.012
906	0.011
906	0.012
907	0.012
907	0.012
907	0.013
908	0.013
908	0.014
909	0.015
909	0.017
910	0.018
910	0.019
910	0.02
911	0.021
911	0.021
912	0.021
912	0.021
913	0.021
913	0.021
913	0.02
914	0.02
914	0.019
915	0.018
915	0.017
916	0.017
916	0.016
916	0.016
917	0.016
917	0.017
918	0.017
918	0.017
918	0.017
919	0.017
919	0.017
920	0.017
920	0.017
921	0.017
921	0.017
921	0.016
922	0.016
922	0.016
923	0.016
923	0.017
924	0.017
924	0.017
924	0.017
925	0.017
925	0.017
926	0.017
926	0.016
927	0.016
927	0.015
927	0.015
928	0.014
928	0.014
929	0.013
929	0.013
930	0.012
930	0.012
930	0.012
931	0.011
931	0.011
932	0.011
932	0.01
933	0.01
933	0.01
933	0.009
934	0.009
934	0.008
935	0.008
935	0.007
935	0.007
936	0.007
936	0.007
937	0.007
937	0.007
938	0.007
938	0.008
938	0.008
939	0.009
939	0.01
940	0.01
940	0.011
941	0.012
941	0.013
941	0.014
942	0.015
942	0.015
943	0.016
943	0.017
944	0.018
944	0.019
944	0.02
945	0.021
945	0.022
946	0.023
946	0.023
946	0.023
947	0.024
947	0.024
948	0.024
948	0.024
949	0.024
949	0.024
949	0.024
950	0.024
950	0.024
951	0.024
951	0.024
952	0.024
952	0.024
952	0.024
953	0.024
953	0.024
954	0.024
954	0.024
955	0.024
955	0.023
955	0.023
956	0.023
956	0.023
957	0.022
957	0.021
957	0.021
958	0.02
958	0.02
959	0.019
959	0.018
960	0.017
960	0.016
960	0.015
961	0.013
961	0.012
962	0.011
962	0.009
963	0.008
963	0.007
963	0.006
964	0.005
964	0.005
965	0.004
965	0.004
966	0.005
966	0.005
966	0.006
967	0.006
967	0.007
968	0.007
968	0.007
968	0.007
969	0.007
969	0.007
970	0.007
970	0.007
971	0.007
971	0.008
971	0.008
972	0.009
972	0.009
973	0.01
973	0.011
974	0.012
974	0.013
974	0.014
975	0.015
975	0.016
976	0.016
976	0.016
976	0.016
977	0.016
977	0.015
978	0.014
978	0.014
979	0.013
979	0.012
979	0.011
980	0.01
980	0.009
981	0.008
981	0.007
982	0.007
982	0.007
982	0.007
983	0.007
983	0.007
984	0.007
984	0.007
984	0.008
985	0.009
985	0.009
986	0.009
986	0.01
987	0.01
987	0.01
987	0.011
988	0.011
988	0.011
989	0.011
989	0.01
990	0.01
990	0.01
990	0.011
991	0.011
991	0.012
992	0.013
992	0.013
992	0.014
993	0.015
993	0.016
994	0.016
994	0.017
995	0.017
995	0.017
995	0.017
996	0.016
996	0.015
997	0.015
997	0.014
997	0.013
998	0.012
998	0.012
999	0.011
999	0.011
1000	0.011
1000	0.01
1000	0.01
1001	0.011
1001	0.011
1002	0.01
1002	0.01
1003	0.01
1003	0.01
1003	0.01
1004	0.01
1004	0.009
1005	0.009
1005	0.008
1005	0.008
1006	0.008
1006	0.008
1007	0.007
1007	0.008
1008	0.008
1008	0.008
1008	0.008
1009	0.009
1009	0.009
1010	0.009
1010	0.01
1010	0.01
1011	0.01
1011	0.011
1012	0.011
1012	0.011
1013	0.011
1013	0.011
1013	0.011
1014	0.01
1014	0.01
1015	0.01
1015	0.01
1016	0.01
1016	0.01
1016	0.01
1017	0.01
1017	0.01
1018	0.011
1018	0.011
1018	0.011
1019	0.011
1019	0.012
1020	0.011
1020	0.011
1021	0.011
1021	0.01
1021	0.01
1022	0.009
1022	0.009
1023	0.009
1023	0.008
1023	0.008
1024	0.007
1024	0.007
1025	0.007
1025	0.006
1026	0.006
1026	0.006
1026	0.006
1027	0.006
1027	0.007
1028	0.007
1028	0.007
1028	0.008
1029	0.008
1029	0.008
1030	0.009
1030	0.009
1031	0.009
1031	0.009
1031	0.009
1032	0.009
1032	0.009
1033	0.008
1033	0.008
1033	0.007
1034	0.006
1034	0.005
1035	0.004
1035	0.003
1036	0.002
1036	0.001
1036	0.001
1037	0.001
1037	0
1038	0
1038	0
1039	0.001
1039	0.001
1039	0.001
1040	0.001
1040	0.001
1041	0.001
1041	0
1041	-0
1042	-0.001
1042	-0.001
1043	-0.002
1043	-0.002
1044	-0.003
1044	-0.003
1044	-0.003
1045	-0.004
1045	-0.004
1046	-0.004
1046	-0.004
1046	-0.004
1047	-0.003
1047	-0.003
1048	-0.002
1048	-0.001
1049	-0.001
1049	-0.001
1049	-0
1050	0.001
1050	0.001
1051	0.002
1051	0.002
1051	0.003
1052	0.004
1052	0.005
1053	0.006
1053	0.007
1053	0.008
1054	0.009
1054	0.01
1055	0.012
1055	0.012
1056	0.012
1056	0.012
1056	0.011
1057	0.01
1057	0.01
1058	0.009
1058	0.009
1058	0.008
1059	0.007
1059	0.007
1060	0.006
1060	0.006
1061	0.006
1061	0.007
1061	0.007
1062	0.007
1062	0.007
1063	0.007
1063	0.006
1063	0.006
1064	0.006
1064	0.006
1065	0.007
1065	0.006
1066	0.007
1066	0.007
1066	0.008
1067	0.009
1067	0.01
1068	0.011
1068	0.012
1068	0.012
1069	0.013
1069	0.014
1070	0.015
1070	0.015
1071	0.016
1071	0.017
1071	0.018
1072	0.019
1072	0.021
1073	0.022
1073	0.024
1073	0.025
1074	0.026
1074	0.027
1075	0.028
1075	0.028
1076	0.029
1076	0.03
1076	0.03
1077	0.03
1077	0.031
1078	0.032
1078	0.033
1078	0.034
1079	0.035
1079	0.037
1080	0.038
1080	0.039
1080	0.04
1081	0.042
1081	0.044
1082	0.045
1082	0.045
1083	0.046
1083	0.047
1083	0.048
1084	0.049
1084	0.05
1085	0.052
1085	0.054
1085	0.055
1086	0.056
1086	0.057
1087	0.059
1087	0.06
1088	0.061
1088	0.062
1088	0.065
1089	0.066
1089	0.068
1090	0.069
1090	0.072
1090	0.073
1091	0.076
1091	0.079
1092	0.082
1092	0.086
1092	0.088
1093	0.091
1093	0.095
1094	0.098
1094	0.102
1095	0.106
1095	0.11
1095	0.116
1096	0.121
1096	0.127
1097	0.133
1097	0.139
1097	0.146
1098	0.152
1098	0.159
1099	0.169
1099	0.178
1100	0.187
1100	0.197
1100	0.208
1101	0.221
1101	0.233
1102	0.249
1102	0.267
1102	0.288
1103	0.309
1103	0.334
1104	0.363
1104	0.395
1104	0.432
1105	0.472
1105	0.516
1106	0.568
1106	0.637
1107	0.723
1107	0.873
1107	1.157
1108	-0
1108	-0
1109	-0
1109	-0
1109	-0
1110	-0
1110	-0
1111	-0
1111	-0
