Data from 15c-2-2a_Absorbance__308__02109.txt Node

Date: Wed Jan 24 13:14:09 CET 2024
User: Marek
Spectrometer: MAYP115816
Trigger mode: 0
Integration Time (sec): 2.000000E-1
Scans to average: 10
Electric dark correction enabled: true
Nonlinearity correction enabled: true
Boxcar width: 5
XAxis mode: Wavelengths
Number of Pixels in Spectrum: 2068
>>>>>Begin Spectral Data<<<<<
199	-1.772
199	-1.613
200	-1.454
200	-1.332
201	-1.259
201	-1.207
202	-1.137
202	-1.081
203	-1.034
203	-0.993
204	-0.965
204	-0.941
205	-0.919
205	-0.911
205	-0.909
206	-0.906
206	-0.904
207	-0.901
207	-0.898
208	-0.896
208	-0.895
209	-0.893
209	-0.893
210	-0.893
210	-0.891
211	-0.89
211	-0.89
212	-0.888
212	-0.886
213	-0.883
213	-0.881
213	-0.878
214	-0.877
214	-0.873
215	-0.871
215	-0.867
216	-0.866
216	-0.864
217	-0.862
217	-0.862
218	-0.863
218	-0.862
219	-0.86
219	-0.857
220	-0.855
220	-0.854
221	-0.854
221	-0.852
221	-0.847
222	-0.842
222	-0.836
223	-0.829
223	-0.824
224	-0.816
224	-0.808
225	-0.8
225	-0.79
226	-0.78
226	-0.768
227	-0.756
227	-0.745
228	-0.728
228	-0.712
229	-0.691
229	-0.669
229	-0.644
230	-0.616
230	-0.585
231	-0.553
231	-0.518
232	-0.482
232	-0.443
233	-0.406
233	-0.365
234	-0.327
234	-0.289
235	-0.252
235	-0.217
236	-0.184
236	-0.152
236	-0.123
237	-0.095
237	-0.07
238	-0.048
238	-0.027
239	-0.008
239	0.009
240	0.024
240	0.038
241	0.05
241	0.061
242	0.071
242	0.08
243	0.088
243	0.095
243	0.102
244	0.108
244	0.113
245	0.118
245	0.122
246	0.127
246	0.131
247	0.134
247	0.138
248	0.141
248	0.144
249	0.147
249	0.149
250	0.152
250	0.155
250	0.157
251	0.16
251	0.161
252	0.164
252	0.165
253	0.168
253	0.169
254	0.171
254	0.173
255	0.174
255	0.175
256	0.177
256	0.178
257	0.179
257	0.18
258	0.18
258	0.181
258	0.181
259	0.182
259	0.182
260	0.182
260	0.183
261	0.183
261	0.183
262	0.183
262	0.182
263	0.182
263	0.182
264	0.182
264	0.181
265	0.181
265	0.18
265	0.179
266	0.179
266	0.178
267	0.177
267	0.176
268	0.175
268	0.174
269	0.173
269	0.171
270	0.17
270	0.169
271	0.167
271	0.166
272	0.164
272	0.163
272	0.161
273	0.16
273	0.158
274	0.157
274	0.156
275	0.154
275	0.153
276	0.151
276	0.15
277	0.148
277	0.146
278	0.145
278	0.143
278	0.14
279	0.138
279	0.136
280	0.134
280	0.132
281	0.131
281	0.129
282	0.127
282	0.126
283	0.125
283	0.123
284	0.123
284	0.122
285	0.121
285	0.119
285	0.118
286	0.117
286	0.115
287	0.114
287	0.113
288	0.112
288	0.111
289	0.11
289	0.108
290	0.107
290	0.106
291	0.105
291	0.104
292	0.104
292	0.103
292	0.102
293	0.101
293	0.1
294	0.099
294	0.099
295	0.098
295	0.098
296	0.097
296	0.096
297	0.096
297	0.095
298	0.095
298	0.094
298	0.094
299	0.094
299	0.093
300	0.093
300	0.092
301	0.092
301	0.091
302	0.091
302	0.091
303	0.091
303	0.09
304	0.09
304	0.09
305	0.089
305	0.089
305	0.089
306	0.089
306	0.088
307	0.088
307	0.088
308	0.087
308	0.087
309	0.087
309	0.086
310	0.086
310	0.086
311	0.085
311	0.085
311	0.085
312	0.084
312	0.084
313	0.084
313	0.083
314	0.083
314	0.083
315	0.083
315	0.082
316	0.082
316	0.082
317	0.081
317	0.081
318	0.081
318	0.08
318	0.08
319	0.079
319	0.079
320	0.079
320	0.078
321	0.078
321	0.078
322	0.078
322	0.077
323	0.077
323	0.077
324	0.076
324	0.076
324	0.076
325	0.076
325	0.075
326	0.075
326	0.075
327	0.074
327	0.074
328	0.074
328	0.073
329	0.073
329	0.073
330	0.072
330	0.072
330	0.072
331	0.071
331	0.071
332	0.07
332	0.07
333	0.07
333	0.069
334	0.069
334	0.069
335	0.068
335	0.068
336	0.068
336	0.068
336	0.067
337	0.067
337	0.067
338	0.067
338	0.067
339	0.066
339	0.066
340	0.066
340	0.066
341	0.065
341	0.065
342	0.065
342	0.064
342	0.064
343	0.064
343	0.063
344	0.063
344	0.063
345	0.063
345	0.062
346	0.062
346	0.062
347	0.062
347	0.062
348	0.061
348	0.061
348	0.061
349	0.061
349	0.061
350	0.061
350	0.06
351	0.06
351	0.06
352	0.059
352	0.059
353	0.059
353	0.058
354	0.058
354	0.057
354	0.057
355	0.057
355	0.056
356	0.056
356	0.056
357	0.055
357	0.055
358	0.055
358	0.055
359	0.055
359	0.055
360	0.055
360	0.055
360	0.056
361	0.056
361	0.056
362	0.057
362	0.057
363	0.057
363	0.057
364	0.057
364	0.057
365	0.057
365	0.056
366	0.056
366	0.056
366	0.056
367	0.056
367	0.056
368	0.056
368	0.055
369	0.055
369	0.055
370	0.055
370	0.055
371	0.055
371	0.055
372	0.055
372	0.055
372	0.055
373	0.055
373	0.055
374	0.055
374	0.055
375	0.055
375	0.054
376	0.054
376	0.054
377	0.054
377	0.055
378	0.055
378	0.055
378	0.055
379	0.055
379	0.055
380	0.055
380	0.055
381	0.055
381	0.055
382	0.055
382	0.054
383	0.055
383	0.054
383	0.054
384	0.054
384	0.054
385	0.054
385	0.054
386	0.054
386	0.054
387	0.054
387	0.054
388	0.054
388	0.054
389	0.054
389	0.054
389	0.054
390	0.054
390	0.054
391	0.054
391	0.055
392	0.055
392	0.054
393	0.054
393	0.054
394	0.054
394	0.054
394	0.055
395	0.054
395	0.054
396	0.054
396	0.054
397	0.054
397	0.054
398	0.054
398	0.054
399	0.054
399	0.054
400	0.054
400	0.054
400	0.054
401	0.054
401	0.053
402	0.053
402	0.053
403	0.053
403	0.053
404	0.053
404	0.053
405	0.053
405	0.052
405	0.052
406	0.052
406	0.052
407	0.052
407	0.052
408	0.052
408	0.052
409	0.052
409	0.052
410	0.052
410	0.052
411	0.052
411	0.052
411	0.052
412	0.052
412	0.051
413	0.051
413	0.051
414	0.051
414	0.051
415	0.051
415	0.051
416	0.051
416	0.051
416	0.05
417	0.05
417	0.05
418	0.05
418	0.05
419	0.05
419	0.05
420	0.051
420	0.051
421	0.051
421	0.051
421	0.051
422	0.051
422	0.051
423	0.051
423	0.051
424	0.051
424	0.05
425	0.05
425	0.05
426	0.05
426	0.049
427	0.049
427	0.05
427	0.05
428	0.05
428	0.05
429	0.051
429	0.051
430	0.051
430	0.051
431	0.05
431	0.05
432	0.05
432	0.05
432	0.05
433	0.05
433	0.049
434	0.049
434	0.049
435	0.049
435	0.049
436	0.049
436	0.049
437	0.049
437	0.049
437	0.049
438	0.049
438	0.048
439	0.048
439	0.048
440	0.048
440	0.048
441	0.048
441	0.048
442	0.048
442	0.049
442	0.049
443	0.049
443	0.049
444	0.049
444	0.049
445	0.05
445	0.05
446	0.05
446	0.05
447	0.05
447	0.05
447	0.05
448	0.05
448	0.049
449	0.049
449	0.049
450	0.049
450	0.049
451	0.049
451	0.048
452	0.048
452	0.048
452	0.048
453	0.048
453	0.047
454	0.047
454	0.046
455	0.046
455	0.046
456	0.046
456	0.045
457	0.045
457	0.045
458	0.045
458	0.045
458	0.045
459	0.045
459	0.045
460	0.045
460	0.045
461	0.045
461	0.045
462	0.045
462	0.045
463	0.046
463	0.046
463	0.046
464	0.046
464	0.046
465	0.046
465	0.046
466	0.046
466	0.046
467	0.045
467	0.045
467	0.045
468	0.044
468	0.043
469	0.043
469	0.043
470	0.043
470	0.042
471	0.043
471	0.043
472	0.043
472	0.043
472	0.043
473	0.043
473	0.044
474	0.044
474	0.044
475	0.044
475	0.044
476	0.044
476	0.044
477	0.045
477	0.045
477	0.045
478	0.045
478	0.045
479	0.045
479	0.046
480	0.046
480	0.047
481	0.047
481	0.048
482	0.048
482	0.049
482	0.049
483	0.05
483	0.051
484	0.052
484	0.052
485	0.052
485	0.053
486	0.053
486	0.053
487	0.053
487	0.053
487	0.053
488	0.053
488	0.052
489	0.052
489	0.052
490	0.052
490	0.052
491	0.052
491	0.052
492	0.053
492	0.053
492	0.054
493	0.054
493	0.055
494	0.056
494	0.057
495	0.057
495	0.058
496	0.058
496	0.059
496	0.059
497	0.06
497	0.06
498	0.06
498	0.06
499	0.06
499	0.061
500	0.061
500	0.062
501	0.063
501	0.063
501	0.064
502	0.064
502	0.065
503	0.065
503	0.066
504	0.066
504	0.066
505	0.066
505	0.066
506	0.066
506	0.066
506	0.066
507	0.066
507	0.066
508	0.066
508	0.067
509	0.067
509	0.068
510	0.068
510	0.068
511	0.068
511	0.068
511	0.068
512	0.068
512	0.068
513	0.068
513	0.068
514	0.067
514	0.067
515	0.067
515	0.067
515	0.067
516	0.067
516	0.068
517	0.069
517	0.069
518	0.069
518	0.069
519	0.069
519	0.069
520	0.068
520	0.068
520	0.067
521	0.066
521	0.064
522	0.063
522	0.062
523	0.061
523	0.061
524	0.061
524	0.061
524	0.062
525	0.063
525	0.064
526	0.065
526	0.066
527	0.068
527	0.069
528	0.07
528	0.07
529	0.07
529	0.07
529	0.07
530	0.07
530	0.07
531	0.07
531	0.07
532	0.07
532	0.069
533	0.069
533	0.069
533	0.069
534	0.068
534	0.068
535	0.067
535	0.067
536	0.066
536	0.066
537	0.066
537	0.065
538	0.065
538	0.064
538	0.064
539	0.063
539	0.063
540	0.063
540	0.062
541	0.061
541	0.061
542	0.06
542	0.059
542	0.059
543	0.058
543	0.058
544	0.057
544	0.057
545	0.057
545	0.057
546	0.057
546	0.056
547	0.055
547	0.054
547	0.053
548	0.052
548	0.052
549	0.051
549	0.05
550	0.049
550	0.049
551	0.047
551	0.047
551	0.046
552	0.046
552	0.046
553	0.045
553	0.045
554	0.045
554	0.044
555	0.043
555	0.043
556	0.042
556	0.041
556	0.04
557	0.04
557	0.039
558	0.038
558	0.037
559	0.037
559	0.036
560	0.036
560	0.035
560	0.035
561	0.035
561	0.035
562	0.035
562	0.035
563	0.034
563	0.033
564	0.032
564	0.032
564	0.031
565	0.031
565	0.03
566	0.029
566	0.029
567	0.028
567	0.028
568	0.029
568	0.03
568	0.03
569	0.032
569	0.033
570	0.033
570	0.033
571	0.034
571	0.035
572	0.035
572	0.035
573	0.035
573	0.034
573	0.033
574	0.033
574	0.033
575	0.033
575	0.034
576	0.034
576	0.033
577	0.032
577	0.031
577	0.031
578	0.031
578	0.031
579	0.032
579	0.033
580	0.033
580	0.031
581	0.029
581	0.029
581	0.029
582	0.029
582	0.03
583	0.03
583	0.03
584	0.027
584	0.025
585	0.025
585	0.026
585	0.026
586	0.026
586	0.026
587	0.025
587	0.024
588	0.023
588	0.022
589	0.022
589	0.022
590	0.022
590	0.022
590	0.023
591	0.024
591	0.024
592	0.023
592	0.023
593	0.023
593	0.023
594	0.022
594	0.021
594	0.021
595	0.021
595	0.02
596	0.019
596	0.02
597	0.022
597	0.023
598	0.023
598	0.024
598	0.025
599	0.025
599	0.025
600	0.024
600	0.024
601	0.023
601	0.023
602	0.022
602	0.022
602	0.021
603	0.021
603	0.022
604	0.023
604	0.024
605	0.025
605	0.026
606	0.025
606	0.024
606	0.024
607	0.023
607	0.023
608	0.023
608	0.022
609	0.021
609	0.021
610	0.02
610	0.019
610	0.02
611	0.021
611	0.021
612	0.022
612	0.023
613	0.024
613	0.025
614	0.025
614	0.025
614	0.025
615	0.024
615	0.024
616	0.024
616	0.023
617	0.023
617	0.022
618	0.022
618	0.022
618	0.022
619	0.022
619	0.023
620	0.025
620	0.026
621	0.026
621	0.027
622	0.027
622	0.028
622	0.028
623	0.027
623	0.028
624	0.028
624	0.028
625	0.028
625	0.028
626	0.027
626	0.027
626	0.028
627	0.028
627	0.028
628	0.029
628	0.029
629	0.029
629	0.028
630	0.028
630	0.027
630	0.028
631	0.028
631	0.029
632	0.028
632	0.029
633	0.03
633	0.03
634	0.031
634	0.033
634	0.034
635	0.035
635	0.036
636	0.037
636	0.039
637	0.039
637	0.04
638	0.041
638	0.042
638	0.043
639	0.043
639	0.044
640	0.045
640	0.046
641	0.047
641	0.048
642	0.049
642	0.051
642	0.052
643	0.052
643	0.053
644	0.054
644	0.054
645	0.054
645	0.055
646	0.056
646	0.057
646	0.058
647	0.059
647	0.06
648	0.062
648	0.063
649	0.064
649	0.066
650	0.068
650	0.069
650	0.07
651	0.071
651	0.072
652	0.073
652	0.074
653	0.076
653	0.083
653	0.088
654	0.073
654	0.062
655	0.061
655	0.062
656	0.064
656	0.065
657	0.066
657	0.066
657	0.067
658	0.064
658	0.059
659	0.073
659	0.091
660	0.097
660	0.098
661	0.099
661	0.1
661	0.102
662	0.104
662	0.105
663	0.107
663	0.109
664	0.11
664	0.111
665	0.113
665	0.115
665	0.116
666	0.117
666	0.118
667	0.119
667	0.12
668	0.121
668	0.123
669	0.124
669	0.126
669	0.128
670	0.13
670	0.132
671	0.133
671	0.134
672	0.135
672	0.136
672	0.137
673	0.138
673	0.139
674	0.139
674	0.139
675	0.139
675	0.139
676	0.14
676	0.141
676	0.141
677	0.142
677	0.143
678	0.143
678	0.144
679	0.144
679	0.145
680	0.146
680	0.146
680	0.146
681	0.147
681	0.147
682	0.148
682	0.148
683	0.149
683	0.15
684	0.151
684	0.151
684	0.151
685	0.152
685	0.152
686	0.153
686	0.153
687	0.153
687	0.153
687	0.153
688	0.153
688	0.152
689	0.152
689	0.152
690	0.152
690	0.151
691	0.15
691	0.15
691	0.15
692	0.149
692	0.148
693	0.148
693	0.149
694	0.148
694	0.147
695	0.148
695	0.149
695	0.149
696	0.148
696	0.148
697	0.147
697	0.147
698	0.146
698	0.145
698	0.144
699	0.144
699	0.143
700	0.141
700	0.141
701	0.141
701	0.14
702	0.14
702	0.139
702	0.139
703	0.137
703	0.136
704	0.135
704	0.135
705	0.134
705	0.133
705	0.132
706	0.131
706	0.13
707	0.128
707	0.127
708	0.126
708	0.124
709	0.123
709	0.122
709	0.12
710	0.118
710	0.117
711	0.116
711	0.115
712	0.114
712	0.113
713	0.112
713	0.112
713	0.111
714	0.11
714	0.109
715	0.108
715	0.107
716	0.107
716	0.106
716	0.106
717	0.105
717	0.105
718	0.104
718	0.103
719	0.102
719	0.102
720	0.1
720	0.099
720	0.097
721	0.095
721	0.093
722	0.092
722	0.09
723	0.088
723	0.087
723	0.086
724	0.084
724	0.083
725	0.082
725	0.081
726	0.08
726	0.08
727	0.078
727	0.078
727	0.077
728	0.075
728	0.074
729	0.074
729	0.073
730	0.072
730	0.07
730	0.069
731	0.068
731	0.067
732	0.067
732	0.066
733	0.065
733	0.064
734	0.064
734	0.063
734	0.062
735	0.062
735	0.061
736	0.059
736	0.059
737	0.058
737	0.057
737	0.056
738	0.055
738	0.053
739	0.051
739	0.05
740	0.048
740	0.047
741	0.046
741	0.044
741	0.042
742	0.039
742	0.037
743	0.035
743	0.033
744	0.032
744	0.03
744	0.028
745	0.026
745	0.025
746	0.024
746	0.024
747	0.024
747	0.024
748	0.025
748	0.025
748	0.026
749	0.026
749	0.027
750	0.027
750	0.027
751	0.028
751	0.028
751	0.028
752	0.027
752	0.026
753	0.024
753	0.024
754	0.023
754	0.022
754	0.022
755	0.022
755	0.023
756	0.022
756	0.021
757	0.021
757	0.022
758	0.022
758	0.022
758	0.022
759	0.022
759	0.021
760	0.02
760	0.019
761	0.019
761	0.019
761	0.019
762	0.018
762	0.017
763	0.017
763	0.015
764	0.013
764	0.012
764	0.01
765	0.009
765	0.007
766	0.006
766	0.006
767	0.005
767	0.003
768	0.002
768	0.001
768	0
769	0
769	-0.001
770	-0.002
770	-0.003
771	-0.005
771	-0.007
771	-0.009
772	-0.01
772	-0.012
773	-0.013
773	-0.016
774	-0.018
774	-0.02
775	-0.021
775	-0.023
775	-0.025
776	-0.026
776	-0.028
777	-0.03
777	-0.032
778	-0.034
778	-0.036
778	-0.039
779	-0.04
779	-0.042
780	-0.045
780	-0.048
781	-0.052
781	-0.056
781	-0.061
782	-0.066
782	-0.071
783	-0.076
783	-0.081
784	-0.088
784	-0.094
784	-0.1
785	-0.106
785	-0.113
786	-0.116
786	-0.117
787	-0.115
787	-0.115
788	-0.117
788	-0.119
788	-0.121
789	-0.124
789	-0.124
790	-0.122
790	-0.121
791	-0.123
791	-0.125
791	-0.128
792	-0.123
792	-0.113
793	-0.108
793	-0.104
794	-0.102
794	-0.103
794	-0.107
795	-0.109
795	-0.108
796	-0.108
796	-0.11
797	-0.118
797	-0.128
797	-0.135
798	-0.139
798	-0.142
799	-0.143
799	-0.143
800	-0.143
800	-0.145
801	-0.148
801	-0.149
801	-0.15
802	-0.151
802	-0.152
803	-0.153
803	-0.152
804	-0.151
804	-0.145
804	-0.138
805	-0.133
805	-0.13
806	-0.128
806	-0.126
807	-0.124
807	-0.124
807	-0.124
808	-0.124
808	-0.125
809	-0.13
809	-0.136
810	-0.14
810	-0.143
810	-0.147
811	-0.151
811	-0.152
812	-0.149
812	-0.146
813	-0.147
813	-0.148
813	-0.15
814	-0.151
814	-0.151
815	-0.148
815	-0.145
816	-0.143
816	-0.143
817	-0.146
817	-0.148
817	-0.145
818	-0.141
818	-0.135
819	-0.129
819	-0.123
820	-0.119
820	-0.115
820	-0.11
821	-0.102
821	-0.094
822	-0.087
822	-0.08
823	-0.074
823	-0.069
823	-0.064
824	-0.059
824	-0.054
825	-0.048
825	-0.043
826	-0.038
826	-0.035
826	-0.032
827	-0.029
827	-0.026
828	-0.024
828	-0.023
829	-0.021
829	-0.02
829	-0.02
830	-0.021
830	-0.02
831	-0.019
831	-0.018
832	-0.018
832	-0.017
832	-0.016
833	-0.015
833	-0.014
834	-0.014
834	-0.013
835	-0.012
835	-0.011
835	-0.011
836	-0.01
836	-0.01
837	-0.01
837	-0.01
838	-0.01
838	-0.01
839	-0.01
839	-0.01
839	-0.011
840	-0.011
840	-0.011
841	-0.01
841	-0.01
842	-0.009
842	-0.008
842	-0.007
843	-0.006
843	-0.005
844	-0.004
844	-0.003
845	-0.002
845	-0.002
845	-0.001
846	-0.001
846	-0
847	-0
847	0.001
848	0.001
848	0.002
848	0.004
849	0.005
849	0.006
850	0.006
850	0.007
851	0.008
851	0.008
851	0.008
852	0.008
852	0.007
853	0.006
853	0.005
854	0.004
854	0.003
854	0.002
855	0.001
855	-0
856	-0.001
856	-0.002
857	-0.002
857	-0.001
857	-0.001
858	0
858	0.001
859	0.003
859	0.005
860	0.007
860	0.009
860	0.01
861	0.012
861	0.013
862	0.014
862	0.015
863	0.015
863	0.015
863	0.014
864	0.014
864	0.013
865	0.012
865	0.012
866	0.011
866	0.01
866	0.01
867	0.009
867	0.008
868	0.008
868	0.007
869	0.007
869	0.006
869	0.004
870	0.003
870	0.002
871	0.001
871	0.001
872	-0
872	-0.001
872	-0.001
873	-0.002
873	-0.002
874	-0.002
874	-0.001
875	-0.001
875	-0.001
875	-0
876	0
876	0.001
877	0.001
877	0.002
878	0.002
878	0.003
878	0.004
879	0.004
879	0.004
880	0.004
880	0.005
881	0.005
881	0.005
881	0.005
882	0.005
882	0.005
883	0.006
883	0.006
884	0.006
884	0.007
884	0.007
885	0.007
885	0.007
886	0.007
886	0.008
887	0.008
887	0.008
887	0.008
888	0.009
888	0.009
889	0.01
889	0.011
890	0.012
890	0.012
890	0.013
891	0.013
891	0.014
892	0.014
892	0.014
893	0.014
893	0.014
893	0.013
894	0.013
894	0.012
895	0.011
895	0.01
895	0.009
896	0.008
896	0.007
897	0.006
897	0.005
898	0.003
898	0.003
898	0.002
899	0.001
899	0.001
900	0
900	0
901	0
901	0
901	0
902	0
902	0
903	-0
903	-0.001
904	-0.001
904	-0.002
904	-0.002
905	-0.003
905	-0.003
906	-0.003
906	-0.003
907	-0.003
907	-0.002
907	-0.001
908	-0.001
908	0
909	0.002
909	0.003
910	0.004
910	0.005
910	0.006
911	0.007
911	0.007
912	0.008
912	0.008
913	0.008
913	0.007
913	0.006
914	0.006
914	0.005
915	0.004
915	0.003
916	0.002
916	0.002
916	0.001
917	0.001
917	0.001
918	0.001
918	0.001
918	0
919	0
919	0
920	0
920	0
921	0
921	-0
921	-0
922	-0
922	0
923	0
923	0.001
924	0.001
924	0.002
924	0.002
925	0.002
925	0.003
926	0.003
926	0.003
927	0.003
927	0.002
927	0.002
928	0.001
928	0.001
929	0
929	-0
930	-0.001
930	-0.001
930	-0.001
931	-0.002
931	-0.002
932	-0.002
932	-0.002
933	-0.003
933	-0.003
933	-0.003
934	-0.003
934	-0.004
935	-0.005
935	-0.005
935	-0.005
936	-0.006
936	-0.006
937	-0.006
937	-0.005
938	-0.005
938	-0.005
938	-0.005
939	-0.004
939	-0.003
940	-0.002
940	-0.002
941	-0.001
941	-0
941	0.001
942	0.002
942	0.002
943	0.003
943	0.003
944	0.004
944	0.005
944	0.006
945	0.006
945	0.007
946	0.008
946	0.008
946	0.008
947	0.008
947	0.008
948	0.009
948	0.008
949	0.008
949	0.008
949	0.009
950	0.009
950	0.009
951	0.01
951	0.01
952	0.011
952	0.011
952	0.012
953	0.013
953	0.013
954	0.013
954	0.013
955	0.013
955	0.012
955	0.012
956	0.012
956	0.012
957	0.011
957	0.01
957	0.009
958	0.008
958	0.008
959	0.007
959	0.006
960	0.005
960	0.003
960	0.002
961	0
961	-0.001
962	-0.003
962	-0.004
963	-0.005
963	-0.006
963	-0.007
964	-0.008
964	-0.008
965	-0.009
965	-0.009
966	-0.009
966	-0.008
966	-0.008
967	-0.008
967	-0.008
968	-0.008
968	-0.008
968	-0.008
969	-0.008
969	-0.008
970	-0.007
970	-0.008
971	-0.007
971	-0.007
971	-0.007
972	-0.006
972	-0.005
973	-0.004
973	-0.004
974	-0.003
974	-0.002
974	-0.001
975	0
975	0.001
976	0.002
976	0.002
976	0.002
977	0.002
977	0.002
978	0.001
978	0.001
979	0
979	-0.001
979	-0.001
980	-0.002
980	-0.003
981	-0.004
981	-0.005
982	-0.005
982	-0.005
982	-0.005
983	-0.006
983	-0.006
984	-0.006
984	-0.005
984	-0.005
985	-0.004
985	-0.004
986	-0.003
986	-0.003
987	-0.003
987	-0.002
987	-0.002
988	-0.001
988	-0.001
989	-0.001
989	-0.001
990	-0.001
990	-0.001
990	-0.001
991	-0
991	0
992	0.001
992	0.001
992	0.002
993	0.003
993	0.003
994	0.004
994	0.004
995	0.005
995	0.005
995	0.004
996	0.004
996	0.003
997	0.002
997	0.001
997	0.001
998	-0
998	-0.001
999	-0.001
999	-0.002
1000	-0.003
1000	-0.003
1000	-0.003
1001	-0.003
1001	-0.003
1002	-0.003
1002	-0.003
1003	-0.004
1003	-0.004
1003	-0.004
1004	-0.004
1004	-0.005
1005	-0.005
1005	-0.005
1005	-0.006
1006	-0.006
1006	-0.006
1007	-0.007
1007	-0.007
1008	-0.007
1008	-0.007
1008	-0.007
1009	-0.007
1009	-0.007
1010	-0.007
1010	-0.006
1010	-0.006
1011	-0.006
1011	-0.006
1012	-0.005
1012	-0.005
1013	-0.005
1013	-0.005
1013	-0.005
1014	-0.005
1014	-0.005
1015	-0.005
1015	-0.004
1016	-0.004
1016	-0.004
1016	-0.004
1017	-0.004
1017	-0.003
1018	-0.003
1018	-0.003
1018	-0.002
1019	-0.002
1019	-0.002
1020	-0.002
1020	-0.002
1021	-0.002
1021	-0.003
1021	-0.003
1022	-0.003
1022	-0.004
1023	-0.004
1023	-0.004
1023	-0.005
1024	-0.006
1024	-0.006
1025	-0.006
1025	-0.006
1026	-0.007
1026	-0.007
1026	-0.007
1027	-0.007
1027	-0.007
1028	-0.007
1028	-0.007
1028	-0.007
1029	-0.007
1029	-0.006
1030	-0.007
1030	-0.007
1031	-0.007
1031	-0.006
1031	-0.007
1032	-0.007
1032	-0.007
1033	-0.008
1033	-0.008
1033	-0.009
1034	-0.01
1034	-0.011
1035	-0.012
1035	-0.013
1036	-0.014
1036	-0.014
1036	-0.015
1037	-0.015
1037	-0.015
1038	-0.016
1038	-0.016
1039	-0.016
1039	-0.015
1039	-0.015
1040	-0.015
1040	-0.015
1041	-0.015
1041	-0.016
1041	-0.016
1042	-0.017
1042	-0.017
1043	-0.018
1043	-0.018
1044	-0.019
1044	-0.019
1044	-0.019
1045	-0.019
1045	-0.02
1046	-0.02
1046	-0.02
1046	-0.019
1047	-0.019
1047	-0.018
1048	-0.017
1048	-0.017
1049	-0.016
1049	-0.016
1049	-0.016
1050	-0.015
1050	-0.015
1051	-0.014
1051	-0.014
1051	-0.013
1052	-0.012
1052	-0.012
1053	-0.011
1053	-0.01
1053	-0.01
1054	-0.009
1054	-0.008
1055	-0.007
1055	-0.007
1056	-0.007
1056	-0.007
1056	-0.008
1057	-0.009
1057	-0.009
1058	-0.01
1058	-0.011
1058	-0.011
1059	-0.012
1059	-0.013
1060	-0.014
1060	-0.014
1061	-0.014
1061	-0.014
1061	-0.013
1062	-0.014
1062	-0.015
1063	-0.015
1063	-0.016
1063	-0.016
1064	-0.016
1064	-0.016
1065	-0.016
1065	-0.016
1066	-0.016
1066	-0.016
1066	-0.015
1067	-0.015
1067	-0.014
1068	-0.013
1068	-0.013
1068	-0.012
1069	-0.012
1069	-0.011
1070	-0.01
1070	-0.01
1071	-0.009
1071	-0.008
1071	-0.008
1072	-0.007
1072	-0.006
1073	-0.005
1073	-0.004
1073	-0.003
1074	-0.002
1074	-0.001
1075	-0.001
1075	0
1076	0
1076	0.001
1076	0.001
1077	0.001
1077	0.002
1078	0.002
1078	0.003
1078	0.004
1079	0.005
1079	0.006
1080	0.006
1080	0.007
1080	0.008
1081	0.01
1081	0.011
1082	0.011
1082	0.012
1083	0.012
1083	0.012
1083	0.013
1084	0.014
1084	0.015
1085	0.016
1085	0.016
1085	0.017
1086	0.018
1086	0.018
1087	0.019
1087	0.02
1088	0.021
1088	0.022
1088	0.023
1089	0.023
1089	0.023
1090	0.024
1090	0.025
1090	0.026
1091	0.027
1091	0.028
1092	0.029
1092	0.031
1092	0.032
1093	0.033
1093	0.036
1094	0.038
1094	0.04
1095	0.041
1095	0.043
1095	0.047
1096	0.05
1096	0.053
1097	0.056
1097	0.059
1097	0.062
1098	0.064
1098	0.067
1099	0.072
1099	0.076
1100	0.081
1100	0.085
1100	0.09
1101	0.094
1101	0.101
1102	0.108
1102	0.117
1102	0.126
1103	0.136
1103	0.146
1104	0.158
1104	0.171
1104	0.187
1105	0.202
1105	0.218
1106	0.234
1106	0.254
1107	0.275
1107	0.307
1107	0.345
1108	0.476
1108	0.72
1109	2.048
1109	-0
1109	-0
1110	-0
1110	-0
1111	-0
1111	-0
