Data from 15c-2-2a_Absorbance__3073__04874.txt Node

Date: Wed Jan 24 14:46:18 CET 2024
User: Marek
Spectrometer: MAYP115816
Trigger mode: 0
Integration Time (sec): 2.000000E-1
Scans to average: 10
Electric dark correction enabled: true
Nonlinearity correction enabled: true
Boxcar width: 5
XAxis mode: Wavelengths
Number of Pixels in Spectrum: 2068
>>>>>Begin Spectral Data<<<<<
199	-1.825
199	-1.665
200	-1.505
200	-1.38
201	-1.306
201	-1.253
202	-1.182
202	-1.124
203	-1.074
203	-1.032
204	-1.003
204	-0.978
205	-0.954
205	-0.945
205	-0.943
206	-0.94
206	-0.938
207	-0.934
207	-0.932
208	-0.93
208	-0.929
209	-0.926
209	-0.927
210	-0.926
210	-0.924
211	-0.922
211	-0.922
212	-0.92
212	-0.918
213	-0.915
213	-0.913
213	-0.911
214	-0.908
214	-0.904
215	-0.904
215	-0.899
216	-0.898
216	-0.895
217	-0.893
217	-0.893
218	-0.893
218	-0.892
219	-0.89
219	-0.887
220	-0.885
220	-0.883
221	-0.883
221	-0.88
221	-0.875
222	-0.869
222	-0.863
223	-0.856
223	-0.85
224	-0.842
224	-0.833
225	-0.825
225	-0.814
226	-0.804
226	-0.792
227	-0.78
227	-0.767
228	-0.749
228	-0.73
229	-0.709
229	-0.686
229	-0.659
230	-0.628
230	-0.594
231	-0.558
231	-0.519
232	-0.478
232	-0.434
233	-0.39
233	-0.344
234	-0.297
234	-0.251
235	-0.205
235	-0.159
236	-0.116
236	-0.074
236	-0.033
237	0.006
237	0.042
238	0.076
238	0.108
239	0.138
239	0.166
240	0.191
240	0.214
241	0.236
241	0.255
242	0.273
242	0.289
243	0.304
243	0.318
243	0.33
244	0.341
244	0.351
245	0.36
245	0.369
246	0.377
246	0.385
247	0.391
247	0.398
248	0.404
248	0.409
249	0.414
249	0.418
250	0.423
250	0.427
250	0.431
251	0.435
251	0.438
252	0.442
252	0.445
253	0.448
253	0.451
254	0.454
254	0.456
255	0.459
255	0.461
256	0.462
256	0.464
257	0.466
257	0.467
258	0.468
258	0.469
258	0.47
259	0.471
259	0.472
260	0.472
260	0.473
261	0.473
261	0.474
262	0.474
262	0.473
263	0.473
263	0.473
264	0.473
264	0.472
265	0.472
265	0.472
265	0.471
266	0.47
266	0.469
267	0.467
267	0.466
268	0.465
268	0.464
269	0.463
269	0.461
270	0.459
270	0.457
271	0.455
271	0.454
272	0.452
272	0.45
272	0.449
273	0.447
273	0.445
274	0.443
274	0.442
275	0.44
275	0.438
276	0.436
276	0.434
277	0.431
277	0.429
278	0.426
278	0.423
278	0.42
279	0.417
279	0.415
280	0.413
280	0.41
281	0.408
281	0.406
282	0.404
282	0.402
283	0.401
283	0.399
284	0.398
284	0.397
285	0.395
285	0.393
285	0.391
286	0.39
286	0.388
287	0.386
287	0.384
288	0.382
288	0.381
289	0.379
289	0.377
290	0.376
290	0.374
291	0.373
291	0.371
292	0.37
292	0.368
292	0.367
293	0.366
293	0.364
294	0.363
294	0.362
295	0.36
295	0.359
296	0.358
296	0.357
297	0.356
297	0.355
298	0.353
298	0.352
298	0.351
299	0.35
299	0.349
300	0.348
300	0.347
301	0.346
301	0.345
302	0.344
302	0.344
303	0.343
303	0.342
304	0.341
304	0.34
305	0.339
305	0.338
305	0.338
306	0.337
306	0.336
307	0.335
307	0.334
308	0.333
308	0.332
309	0.331
309	0.33
310	0.329
310	0.328
311	0.328
311	0.327
311	0.326
312	0.325
312	0.324
313	0.323
313	0.322
314	0.321
314	0.32
315	0.319
315	0.318
316	0.317
316	0.317
317	0.316
317	0.315
318	0.314
318	0.313
318	0.312
319	0.311
319	0.31
320	0.31
320	0.309
321	0.308
321	0.307
322	0.306
322	0.305
323	0.304
323	0.303
324	0.303
324	0.302
324	0.301
325	0.3
325	0.299
326	0.299
326	0.298
327	0.297
327	0.296
328	0.296
328	0.295
329	0.294
329	0.293
330	0.292
330	0.292
330	0.291
331	0.29
331	0.289
332	0.288
332	0.287
333	0.286
333	0.286
334	0.285
334	0.284
335	0.283
335	0.283
336	0.282
336	0.282
336	0.281
337	0.28
337	0.279
338	0.279
338	0.278
339	0.278
339	0.277
340	0.277
340	0.276
341	0.275
341	0.275
342	0.274
342	0.273
342	0.273
343	0.272
343	0.272
344	0.271
344	0.27
345	0.27
345	0.269
346	0.269
346	0.269
347	0.268
347	0.268
348	0.267
348	0.267
348	0.267
349	0.266
349	0.266
350	0.265
350	0.265
351	0.264
351	0.263
352	0.263
352	0.262
353	0.262
353	0.261
354	0.261
354	0.26
354	0.259
355	0.258
355	0.258
356	0.257
356	0.256
357	0.255
357	0.255
358	0.255
358	0.255
359	0.255
359	0.255
360	0.256
360	0.256
360	0.256
361	0.257
361	0.257
362	0.258
362	0.258
363	0.258
363	0.258
364	0.257
364	0.257
365	0.256
365	0.256
366	0.256
366	0.255
366	0.255
367	0.255
367	0.254
368	0.254
368	0.253
369	0.253
369	0.253
370	0.253
370	0.253
371	0.252
371	0.252
372	0.252
372	0.251
372	0.251
373	0.251
373	0.251
374	0.251
374	0.25
375	0.25
375	0.25
376	0.25
376	0.25
377	0.25
377	0.249
378	0.25
378	0.249
378	0.249
379	0.249
379	0.249
380	0.249
380	0.249
381	0.249
381	0.248
382	0.248
382	0.248
383	0.247
383	0.247
383	0.247
384	0.246
384	0.246
385	0.245
385	0.245
386	0.245
386	0.245
387	0.245
387	0.245
388	0.244
388	0.244
389	0.244
389	0.244
389	0.244
390	0.243
390	0.243
391	0.243
391	0.244
392	0.244
392	0.243
393	0.243
393	0.243
394	0.243
394	0.243
394	0.243
395	0.242
395	0.242
396	0.241
396	0.241
397	0.241
397	0.241
398	0.241
398	0.241
399	0.241
399	0.24
400	0.24
400	0.24
400	0.239
401	0.239
401	0.238
402	0.238
402	0.237
403	0.237
403	0.237
404	0.236
404	0.236
405	0.236
405	0.236
405	0.235
406	0.235
406	0.235
407	0.235
407	0.235
408	0.234
408	0.234
409	0.234
409	0.233
410	0.233
410	0.233
411	0.233
411	0.232
411	0.232
412	0.232
412	0.231
413	0.231
413	0.231
414	0.231
414	0.23
415	0.23
415	0.23
416	0.23
416	0.229
416	0.229
417	0.228
417	0.228
418	0.228
418	0.228
419	0.228
419	0.228
420	0.228
420	0.229
421	0.229
421	0.229
421	0.229
422	0.229
422	0.229
423	0.229
423	0.229
424	0.228
424	0.228
425	0.227
425	0.226
426	0.226
426	0.225
427	0.225
427	0.225
427	0.225
428	0.225
428	0.226
429	0.226
429	0.226
430	0.226
430	0.226
431	0.226
431	0.226
432	0.226
432	0.225
432	0.225
433	0.224
433	0.224
434	0.223
434	0.223
435	0.223
435	0.223
436	0.223
436	0.223
437	0.223
437	0.222
437	0.222
438	0.222
438	0.222
439	0.222
439	0.221
440	0.221
440	0.221
441	0.221
441	0.221
442	0.222
442	0.222
442	0.222
443	0.222
443	0.222
444	0.222
444	0.223
445	0.223
445	0.223
446	0.223
446	0.223
447	0.223
447	0.222
447	0.222
448	0.222
448	0.222
449	0.222
449	0.222
450	0.221
450	0.221
451	0.221
451	0.221
452	0.22
452	0.22
452	0.22
453	0.22
453	0.22
454	0.219
454	0.219
455	0.218
455	0.218
456	0.218
456	0.218
457	0.218
457	0.218
458	0.217
458	0.217
458	0.218
459	0.218
459	0.218
460	0.218
460	0.218
461	0.218
461	0.218
462	0.218
462	0.218
463	0.218
463	0.219
463	0.219
464	0.219
464	0.219
465	0.219
465	0.219
466	0.22
466	0.22
467	0.22
467	0.22
467	0.219
468	0.219
468	0.218
469	0.218
469	0.217
470	0.217
470	0.217
471	0.217
471	0.217
472	0.217
472	0.218
472	0.218
473	0.219
473	0.22
474	0.221
474	0.222
475	0.223
475	0.223
476	0.224
476	0.224
477	0.225
477	0.225
477	0.225
478	0.226
478	0.226
479	0.227
479	0.228
480	0.229
480	0.23
481	0.232
481	0.232
482	0.233
482	0.235
482	0.236
483	0.238
483	0.24
484	0.242
484	0.244
485	0.245
485	0.247
486	0.248
486	0.249
487	0.25
487	0.25
487	0.251
488	0.251
488	0.251
489	0.251
489	0.251
490	0.251
490	0.252
491	0.253
491	0.254
492	0.255
492	0.257
492	0.258
493	0.259
493	0.261
494	0.263
494	0.265
495	0.267
495	0.268
496	0.27
496	0.272
496	0.273
497	0.275
497	0.276
498	0.278
498	0.279
499	0.281
499	0.282
500	0.283
500	0.285
501	0.288
501	0.289
501	0.291
502	0.293
502	0.295
503	0.297
503	0.299
504	0.3
504	0.302
505	0.303
505	0.304
506	0.305
506	0.306
506	0.308
507	0.308
507	0.309
508	0.31
508	0.311
509	0.313
509	0.314
510	0.315
510	0.316
511	0.317
511	0.318
511	0.319
512	0.32
512	0.321
513	0.322
513	0.322
514	0.322
514	0.322
515	0.323
515	0.323
515	0.323
516	0.324
516	0.325
517	0.326
517	0.327
518	0.327
518	0.327
519	0.327
519	0.325
520	0.324
520	0.323
520	0.321
521	0.319
521	0.317
522	0.316
522	0.314
523	0.314
523	0.314
524	0.315
524	0.318
524	0.32
525	0.322
525	0.324
526	0.327
526	0.329
527	0.331
527	0.332
528	0.333
528	0.334
529	0.334
529	0.333
529	0.333
530	0.332
530	0.331
531	0.331
531	0.33
532	0.329
532	0.328
533	0.327
533	0.326
533	0.325
534	0.324
534	0.323
535	0.321
535	0.32
536	0.319
536	0.317
537	0.316
537	0.315
538	0.313
538	0.311
538	0.309
539	0.307
539	0.306
540	0.304
540	0.302
541	0.3
541	0.298
542	0.296
542	0.294
542	0.292
543	0.29
543	0.288
544	0.286
544	0.284
545	0.282
545	0.28
546	0.278
546	0.276
547	0.274
547	0.271
547	0.268
548	0.265
548	0.262
549	0.26
549	0.257
550	0.255
550	0.252
551	0.249
551	0.246
551	0.243
552	0.241
552	0.238
553	0.237
553	0.235
554	0.233
554	0.23
555	0.228
555	0.225
556	0.222
556	0.219
556	0.216
557	0.213
557	0.21
558	0.208
558	0.205
559	0.202
559	0.2
560	0.198
560	0.196
560	0.194
561	0.194
561	0.192
562	0.191
562	0.189
563	0.187
563	0.184
564	0.182
564	0.179
564	0.177
565	0.174
565	0.172
566	0.17
566	0.167
567	0.166
567	0.164
568	0.164
568	0.163
568	0.163
569	0.163
569	0.163
570	0.163
570	0.162
571	0.161
571	0.161
572	0.16
572	0.159
573	0.158
573	0.157
573	0.155
574	0.154
574	0.153
575	0.151
575	0.151
576	0.151
576	0.149
577	0.147
577	0.145
577	0.144
578	0.143
578	0.142
579	0.142
579	0.142
580	0.14
580	0.138
581	0.136
581	0.134
581	0.133
582	0.132
582	0.132
583	0.132
583	0.13
584	0.128
584	0.125
585	0.123
585	0.123
585	0.122
586	0.122
586	0.121
587	0.119
587	0.118
588	0.115
588	0.114
589	0.112
589	0.111
590	0.11
590	0.109
590	0.109
591	0.109
591	0.108
592	0.107
592	0.106
593	0.106
593	0.106
594	0.105
594	0.104
594	0.103
595	0.102
595	0.101
596	0.1
596	0.1
597	0.101
597	0.102
598	0.102
598	0.102
598	0.103
599	0.103
599	0.102
600	0.101
600	0.1
601	0.1
601	0.099
602	0.098
602	0.098
602	0.098
603	0.098
603	0.098
604	0.099
604	0.099
605	0.1
605	0.101
606	0.101
606	0.1
606	0.099
607	0.099
607	0.098
608	0.098
608	0.097
609	0.096
609	0.096
610	0.095
610	0.094
610	0.094
611	0.095
611	0.095
612	0.096
612	0.097
613	0.098
613	0.099
614	0.099
614	0.099
614	0.099
615	0.099
615	0.098
616	0.098
616	0.098
617	0.098
617	0.097
618	0.096
618	0.096
618	0.096
619	0.096
619	0.097
620	0.099
620	0.1
621	0.1
621	0.101
622	0.101
622	0.102
622	0.102
623	0.102
623	0.102
624	0.103
624	0.102
625	0.102
625	0.102
626	0.102
626	0.103
626	0.103
627	0.104
627	0.105
628	0.106
628	0.107
629	0.108
629	0.108
630	0.109
630	0.109
630	0.11
631	0.111
631	0.112
632	0.112
632	0.114
633	0.115
633	0.116
634	0.118
634	0.12
634	0.122
635	0.124
635	0.126
636	0.128
636	0.129
637	0.131
637	0.132
638	0.134
638	0.136
638	0.138
639	0.139
639	0.141
640	0.142
640	0.144
641	0.146
641	0.148
642	0.151
642	0.153
642	0.155
643	0.157
643	0.159
644	0.16
644	0.162
645	0.164
645	0.166
646	0.168
646	0.17
646	0.173
647	0.176
647	0.179
648	0.182
648	0.185
649	0.188
649	0.191
650	0.195
650	0.198
650	0.2
651	0.203
651	0.206
652	0.209
652	0.212
653	0.216
653	0.224
653	0.233
654	0.185
654	0.15
655	0.156
655	0.158
656	0.161
656	0.163
657	0.165
657	0.166
657	0.168
658	0.165
658	0.156
659	0.199
659	0.26
660	0.265
660	0.268
661	0.27
661	0.273
661	0.277
662	0.281
662	0.285
663	0.289
663	0.293
664	0.296
664	0.299
665	0.302
665	0.305
665	0.308
666	0.312
666	0.314
667	0.317
667	0.319
668	0.322
668	0.325
669	0.328
669	0.332
669	0.336
670	0.341
670	0.344
671	0.347
671	0.35
672	0.353
672	0.355
672	0.357
673	0.359
673	0.362
674	0.363
674	0.364
675	0.365
675	0.366
676	0.368
676	0.37
676	0.372
677	0.374
677	0.376
678	0.378
678	0.379
679	0.381
679	0.382
680	0.384
680	0.386
680	0.387
681	0.388
681	0.389
682	0.39
682	0.391
683	0.392
683	0.394
684	0.396
684	0.397
684	0.398
685	0.399
685	0.4
686	0.401
686	0.401
687	0.401
687	0.401
687	0.401
688	0.4
688	0.399
689	0.399
689	0.399
690	0.399
690	0.398
691	0.397
691	0.397
691	0.396
692	0.395
692	0.394
693	0.394
693	0.394
694	0.393
694	0.391
695	0.391
695	0.392
695	0.391
696	0.39
696	0.388
697	0.387
697	0.385
698	0.384
698	0.382
698	0.38
699	0.378
699	0.376
700	0.373
700	0.371
701	0.37
701	0.368
702	0.367
702	0.365
702	0.363
703	0.361
703	0.359
704	0.357
704	0.355
705	0.353
705	0.351
705	0.348
706	0.346
706	0.343
707	0.34
707	0.338
708	0.335
708	0.332
709	0.33
709	0.327
709	0.323
710	0.32
710	0.317
711	0.315
711	0.312
712	0.31
712	0.307
713	0.305
713	0.303
713	0.301
714	0.299
714	0.296
715	0.294
715	0.292
716	0.289
716	0.287
716	0.285
717	0.282
717	0.28
718	0.276
718	0.273
719	0.271
719	0.268
720	0.265
720	0.262
720	0.258
721	0.255
721	0.252
722	0.248
722	0.245
723	0.243
723	0.24
723	0.238
724	0.235
724	0.233
725	0.231
725	0.228
726	0.226
726	0.224
727	0.221
727	0.219
727	0.217
728	0.214
728	0.211
729	0.209
729	0.207
730	0.205
730	0.202
730	0.199
731	0.197
731	0.194
732	0.193
732	0.191
733	0.188
733	0.186
734	0.184
734	0.181
734	0.179
735	0.177
735	0.175
736	0.173
736	0.171
737	0.169
737	0.168
737	0.166
738	0.163
738	0.16
739	0.158
739	0.155
740	0.152
740	0.15
741	0.148
741	0.145
741	0.141
742	0.136
742	0.132
743	0.129
743	0.126
744	0.122
744	0.12
744	0.117
745	0.114
745	0.111
746	0.109
746	0.107
747	0.106
747	0.105
748	0.105
748	0.105
748	0.104
749	0.103
749	0.103
750	0.103
750	0.102
751	0.102
751	0.101
751	0.101
752	0.099
752	0.098
753	0.097
753	0.095
754	0.094
754	0.093
754	0.092
755	0.092
755	0.091
756	0.09
756	0.088
757	0.087
757	0.087
758	0.086
758	0.085
758	0.084
759	0.084
759	0.082
760	0.08
760	0.078
761	0.077
761	0.077
761	0.076
762	0.074
762	0.073
763	0.072
763	0.07
764	0.067
764	0.065
764	0.063
765	0.061
765	0.059
766	0.057
766	0.056
767	0.055
767	0.052
768	0.05
768	0.048
768	0.047
769	0.046
769	0.045
770	0.043
770	0.041
771	0.039
771	0.036
771	0.033
772	0.031
772	0.029
773	0.027
773	0.025
774	0.022
774	0.02
775	0.018
775	0.016
775	0.014
776	0.012
776	0.01
777	0.007
777	0.005
778	0.002
778	-0.002
778	-0.005
779	-0.008
779	-0.011
780	-0.015
780	-0.019
781	-0.023
781	-0.027
781	-0.032
782	-0.038
782	-0.044
783	-0.05
783	-0.056
784	-0.063
784	-0.071
784	-0.079
785	-0.088
785	-0.096
786	-0.103
786	-0.106
787	-0.107
787	-0.108
788	-0.111
788	-0.115
788	-0.119
789	-0.122
789	-0.123
790	-0.121
790	-0.121
791	-0.122
791	-0.124
791	-0.127
792	-0.123
792	-0.113
793	-0.107
793	-0.103
794	-0.101
794	-0.103
794	-0.106
795	-0.108
795	-0.108
796	-0.107
796	-0.11
797	-0.118
797	-0.128
797	-0.134
798	-0.139
798	-0.142
799	-0.142
799	-0.142
800	-0.142
800	-0.144
801	-0.148
801	-0.149
801	-0.149
802	-0.151
802	-0.152
803	-0.152
803	-0.152
804	-0.15
804	-0.145
804	-0.138
805	-0.133
805	-0.13
806	-0.127
806	-0.125
807	-0.124
807	-0.123
807	-0.123
808	-0.123
808	-0.124
809	-0.129
809	-0.135
810	-0.139
810	-0.143
810	-0.147
811	-0.15
811	-0.151
812	-0.148
812	-0.146
813	-0.146
813	-0.148
813	-0.149
814	-0.15
814	-0.15
815	-0.147
815	-0.144
816	-0.142
816	-0.142
817	-0.146
817	-0.149
817	-0.147
818	-0.144
818	-0.138
819	-0.132
819	-0.127
820	-0.123
820	-0.119
820	-0.113
821	-0.106
821	-0.097
822	-0.088
822	-0.079
823	-0.071
823	-0.065
823	-0.059
824	-0.053
824	-0.046
825	-0.039
825	-0.032
826	-0.027
826	-0.022
826	-0.018
827	-0.014
827	-0.011
828	-0.009
828	-0.007
829	-0.005
829	-0.004
829	-0.003
830	-0.004
830	-0.003
831	-0.002
831	-0.001
832	-0.001
832	0
832	0.001
833	0.002
833	0.003
834	0.003
834	0.004
835	0.005
835	0.006
835	0.006
836	0.007
836	0.007
837	0.007
837	0.008
838	0.008
838	0.008
839	0.007
839	0.007
839	0.007
840	0.007
840	0.007
841	0.007
841	0.008
842	0.008
842	0.009
842	0.009
843	0.01
843	0.011
844	0.012
844	0.013
845	0.013
845	0.014
845	0.015
846	0.015
846	0.015
847	0.016
847	0.017
848	0.018
848	0.019
848	0.019
849	0.02
849	0.021
850	0.021
850	0.021
851	0.022
851	0.022
851	0.021
852	0.02
852	0.02
853	0.019
853	0.018
854	0.017
854	0.016
854	0.016
855	0.015
855	0.014
856	0.014
856	0.014
857	0.014
857	0.015
857	0.015
858	0.016
858	0.018
859	0.019
859	0.021
860	0.023
860	0.024
860	0.026
861	0.027
861	0.028
862	0.029
862	0.029
863	0.03
863	0.029
863	0.029
864	0.029
864	0.028
865	0.028
865	0.028
866	0.027
866	0.027
866	0.027
867	0.027
867	0.026
868	0.026
868	0.026
869	0.025
869	0.025
869	0.023
870	0.022
870	0.021
871	0.02
871	0.019
872	0.018
872	0.017
872	0.016
873	0.015
873	0.015
874	0.014
874	0.015
875	0.015
875	0.015
875	0.015
876	0.016
876	0.016
877	0.017
877	0.017
878	0.018
878	0.018
878	0.018
879	0.019
879	0.019
880	0.019
880	0.019
881	0.02
881	0.02
881	0.02
882	0.02
882	0.021
883	0.021
883	0.022
884	0.022
884	0.022
884	0.022
885	0.022
885	0.022
886	0.022
886	0.023
887	0.022
887	0.023
887	0.023
888	0.023
888	0.023
889	0.024
889	0.025
890	0.026
890	0.027
890	0.027
891	0.028
891	0.028
892	0.029
892	0.029
893	0.029
893	0.029
893	0.028
894	0.028
894	0.027
895	0.026
895	0.025
895	0.023
896	0.022
896	0.021
897	0.019
897	0.018
898	0.016
898	0.015
898	0.014
899	0.013
899	0.012
900	0.011
900	0.011
901	0.01
901	0.009
901	0.009
902	0.008
902	0.007
903	0.006
903	0.006
904	0.005
904	0.004
904	0.004
905	0.004
905	0.004
906	0.004
906	0.005
907	0.006
907	0.007
907	0.008
908	0.009
908	0.01
909	0.012
909	0.013
910	0.014
910	0.015
910	0.016
911	0.017
911	0.017
912	0.017
912	0.018
913	0.017
913	0.017
913	0.016
914	0.016
914	0.015
915	0.014
915	0.014
916	0.013
916	0.013
916	0.013
917	0.013
917	0.012
918	0.012
918	0.012
918	0.012
919	0.012
919	0.012
920	0.011
920	0.011
921	0.011
921	0.01
921	0.01
922	0.01
922	0.011
923	0.011
923	0.012
924	0.012
924	0.013
924	0.014
925	0.014
925	0.015
926	0.015
926	0.015
927	0.015
927	0.014
927	0.014
928	0.013
928	0.013
929	0.013
929	0.012
930	0.012
930	0.012
930	0.012
931	0.012
931	0.012
932	0.011
932	0.011
933	0.011
933	0.011
933	0.01
934	0.01
934	0.01
935	0.009
935	0.009
935	0.009
936	0.008
936	0.008
937	0.008
937	0.008
938	0.008
938	0.008
938	0.008
939	0.008
939	0.008
940	0.008
940	0.008
941	0.009
941	0.009
941	0.01
942	0.011
942	0.011
943	0.012
943	0.013
944	0.013
944	0.014
944	0.015
945	0.016
945	0.017
946	0.017
946	0.017
946	0.018
947	0.018
947	0.019
948	0.019
948	0.019
949	0.019
949	0.019
949	0.02
950	0.02
950	0.021
951	0.022
951	0.022
952	0.023
952	0.023
952	0.024
953	0.024
953	0.025
954	0.025
954	0.024
955	0.024
955	0.024
955	0.024
956	0.024
956	0.023
957	0.022
957	0.022
957	0.021
958	0.02
958	0.019
959	0.019
959	0.018
960	0.016
960	0.015
960	0.014
961	0.012
961	0.011
962	0.009
962	0.008
963	0.007
963	0.005
963	0.004
964	0.003
964	0.003
965	0.002
965	0.002
966	0.002
966	0.002
966	0.002
967	0.003
967	0.003
968	0.002
968	0.002
968	0.002
969	0.001
969	0.001
970	0.001
970	0.001
971	0
971	0
971	0.001
972	0.001
972	0.001
973	0.002
973	0.003
974	0.004
974	0.005
974	0.005
975	0.006
975	0.007
976	0.007
976	0.007
976	0.008
977	0.008
977	0.007
978	0.007
978	0.007
979	0.006
979	0.006
979	0.005
980	0.004
980	0.004
981	0.003
981	0.003
982	0.002
982	0.002
982	0.002
983	0.003
983	0.003
984	0.003
984	0.003
984	0.004
985	0.005
985	0.005
986	0.006
986	0.006
987	0.007
987	0.007
987	0.007
988	0.007
988	0.007
989	0.007
989	0.007
990	0.007
990	0.007
990	0.007
991	0.008
991	0.008
992	0.009
992	0.009
992	0.009
993	0.01
993	0.011
994	0.011
994	0.012
995	0.012
995	0.012
995	0.012
996	0.012
996	0.011
997	0.011
997	0.01
997	0.009
998	0.009
998	0.008
999	0.008
999	0.007
1000	0.007
1000	0.007
1000	0.006
1001	0.006
1001	0.006
1002	0.006
1002	0.006
1003	0.005
1003	0.005
1003	0.005
1004	0.004
1004	0.004
1005	0.003
1005	0.003
1005	0.003
1006	0.002
1006	0.002
1007	0.001
1007	0.001
1008	0.001
1008	0.001
1008	0.001
1009	0
1009	0.001
1010	0
1010	0.001
1010	0.001
1011	0.001
1011	0.001
1012	0.002
1012	0.002
1013	0.002
1013	0.002
1013	0.002
1014	0.002
1014	0.003
1015	0.003
1015	0.003
1016	0.003
1016	0.004
1016	0.004
1017	0.004
1017	0.004
1018	0.005
1018	0.005
1018	0.005
1019	0.006
1019	0.006
1020	0.006
1020	0.006
1021	0.006
1021	0.005
1021	0.005
1022	0.004
1022	0.004
1023	0.004
1023	0.003
1023	0.002
1024	0.002
1024	0.001
1025	0.001
1025	0
1026	-0
1026	-0
1026	-0.001
1027	-0.001
1027	-0
1028	-0
1028	-0
1028	0
1029	0
1029	0
1030	0
1030	0
1031	0
1031	0.001
1031	0.001
1032	0
1032	0
1033	0
1033	-0
1033	-0
1034	-0.001
1034	-0.001
1035	-0.002
1035	-0.002
1036	-0.003
1036	-0.004
1036	-0.004
1037	-0.004
1037	-0.005
1038	-0.005
1038	-0.005
1039	-0.005
1039	-0.005
1039	-0.006
1040	-0.006
1040	-0.006
1041	-0.007
1041	-0.007
1041	-0.008
1042	-0.008
1042	-0.009
1043	-0.01
1043	-0.01
1044	-0.011
1044	-0.011
1044	-0.011
1045	-0.012
1045	-0.012
1046	-0.012
1046	-0.012
1046	-0.012
1047	-0.012
1047	-0.01
1048	-0.01
1048	-0.009
1049	-0.008
1049	-0.008
1049	-0.008
1050	-0.007
1050	-0.007
1051	-0.006
1051	-0.005
1051	-0.004
1052	-0.003
1052	-0.003
1053	-0.002
1053	-0.001
1053	-0
1054	0.001
1054	0.002
1055	0.003
1055	0.003
1056	0.002
1056	0.002
1056	0.001
1057	0
1057	-0.001
1058	-0.001
1058	-0.002
1058	-0.003
1059	-0.004
1059	-0.005
1060	-0.006
1060	-0.007
1061	-0.007
1061	-0.007
1061	-0.007
1062	-0.007
1062	-0.008
1063	-0.008
1063	-0.008
1063	-0.008
1064	-0.007
1064	-0.007
1065	-0.006
1065	-0.006
1066	-0.005
1066	-0.005
1066	-0.004
1067	-0.003
1067	-0.002
1068	-0.001
1068	0
1068	0.001
1069	0.001
1069	0.002
1070	0.003
1070	0.003
1071	0.004
1071	0.005
1071	0.006
1072	0.007
1072	0.008
1073	0.01
1073	0.011
1073	0.013
1074	0.014
1074	0.015
1075	0.016
1075	0.017
1076	0.017
1076	0.018
1076	0.018
1077	0.019
1077	0.019
1078	0.02
1078	0.02
1078	0.021
1079	0.022
1079	0.023
1080	0.023
1080	0.024
1080	0.025
1081	0.027
1081	0.028
1082	0.029
1082	0.029
1083	0.03
1083	0.031
1083	0.032
1084	0.033
1084	0.034
1085	0.036
1085	0.036
1085	0.037
1086	0.038
1086	0.039
1087	0.04
1087	0.041
1088	0.041
1088	0.042
1088	0.043
1089	0.043
1089	0.044
1090	0.046
1090	0.047
1090	0.048
1091	0.049
1091	0.051
1092	0.053
1092	0.056
1092	0.058
1093	0.06
1093	0.063
1094	0.065
1094	0.067
1095	0.069
1095	0.072
1095	0.077
1096	0.079
1096	0.083
1097	0.087
1097	0.09
1097	0.095
1098	0.099
1098	0.102
1099	0.108
1099	0.113
1100	0.12
1100	0.125
1100	0.131
1101	0.138
1101	0.146
1102	0.156
1102	0.168
1102	0.18
1103	0.194
1103	0.208
1104	0.225
1104	0.243
1104	0.265
1105	0.288
1105	0.309
1106	0.332
1106	0.362
1107	0.395
1107	0.444
1107	0.508
1108	0.755
1108	2.034
1109	-0
1109	-0
1109	-0
1110	-0
1110	-0
1111	-0
1111	-0
