Data from 15c-2-2a_Absorbance__1653__03454.txt Node

Date: Wed Jan 24 13:58:58 CET 2024
User: Marek
Spectrometer: MAYP115816
Trigger mode: 0
Integration Time (sec): 2.000000E-1
Scans to average: 10
Electric dark correction enabled: true
Nonlinearity correction enabled: true
Boxcar width: 5
XAxis mode: Wavelengths
Number of Pixels in Spectrum: 2068
>>>>>Begin Spectral Data<<<<<
199	-1.806
199	-1.646
200	-1.486
200	-1.362
201	-1.288
201	-1.235
202	-1.164
202	-1.107
203	-1.058
203	-1.016
204	-0.987
204	-0.961
205	-0.939
205	-0.93
205	-0.928
206	-0.925
206	-0.924
207	-0.92
207	-0.917
208	-0.915
208	-0.914
209	-0.911
209	-0.912
210	-0.911
210	-0.91
211	-0.908
211	-0.908
212	-0.905
212	-0.903
213	-0.901
213	-0.899
213	-0.897
214	-0.895
214	-0.891
215	-0.89
215	-0.885
216	-0.884
216	-0.881
217	-0.88
217	-0.88
218	-0.88
218	-0.879
219	-0.877
219	-0.874
220	-0.873
220	-0.87
221	-0.871
221	-0.868
221	-0.864
222	-0.858
222	-0.852
223	-0.846
223	-0.84
224	-0.831
224	-0.824
225	-0.815
225	-0.805
226	-0.795
226	-0.782
227	-0.769
227	-0.757
228	-0.739
228	-0.72
229	-0.698
229	-0.676
229	-0.649
230	-0.62
230	-0.586
231	-0.551
231	-0.513
232	-0.474
232	-0.432
233	-0.39
233	-0.346
234	-0.302
234	-0.258
235	-0.215
235	-0.173
236	-0.133
236	-0.094
236	-0.057
237	-0.022
237	0.01
238	0.04
238	0.068
239	0.094
239	0.117
240	0.138
240	0.158
241	0.175
241	0.192
242	0.206
242	0.219
243	0.231
243	0.242
243	0.251
244	0.26
244	0.268
245	0.275
245	0.282
246	0.289
246	0.295
247	0.3
247	0.305
248	0.31
248	0.314
249	0.319
249	0.322
250	0.326
250	0.33
250	0.333
251	0.336
251	0.339
252	0.342
252	0.345
253	0.347
253	0.349
254	0.351
254	0.354
255	0.356
255	0.357
256	0.359
256	0.36
257	0.361
257	0.362
258	0.363
258	0.364
258	0.365
259	0.365
259	0.365
260	0.366
260	0.366
261	0.366
261	0.366
262	0.366
262	0.366
263	0.366
263	0.366
264	0.365
264	0.365
265	0.364
265	0.363
265	0.363
266	0.362
266	0.361
267	0.36
267	0.359
268	0.358
268	0.356
269	0.355
269	0.353
270	0.352
270	0.35
271	0.348
271	0.346
272	0.345
272	0.343
272	0.341
273	0.339
273	0.337
274	0.335
274	0.334
275	0.332
275	0.33
276	0.328
276	0.326
277	0.324
277	0.321
278	0.319
278	0.317
278	0.314
279	0.311
279	0.309
280	0.307
280	0.304
281	0.302
281	0.3
282	0.298
282	0.297
283	0.295
283	0.293
284	0.292
284	0.291
285	0.289
285	0.288
285	0.286
286	0.284
286	0.283
287	0.281
287	0.28
288	0.278
288	0.277
289	0.275
289	0.274
290	0.272
290	0.271
291	0.269
291	0.268
292	0.267
292	0.266
292	0.265
293	0.263
293	0.262
294	0.261
294	0.26
295	0.259
295	0.258
296	0.257
296	0.256
297	0.255
297	0.254
298	0.253
298	0.252
298	0.251
299	0.251
299	0.25
300	0.249
300	0.248
301	0.247
301	0.246
302	0.246
302	0.245
303	0.244
303	0.244
304	0.243
304	0.242
305	0.242
305	0.241
305	0.24
306	0.24
306	0.239
307	0.238
307	0.237
308	0.236
308	0.236
309	0.235
309	0.234
310	0.234
310	0.233
311	0.232
311	0.231
311	0.231
312	0.23
312	0.229
313	0.229
313	0.228
314	0.227
314	0.226
315	0.226
315	0.225
316	0.224
316	0.224
317	0.223
317	0.222
318	0.222
318	0.221
318	0.22
319	0.22
319	0.219
320	0.218
320	0.218
321	0.217
321	0.216
322	0.216
322	0.215
323	0.214
323	0.214
324	0.213
324	0.212
324	0.212
325	0.211
325	0.21
326	0.21
326	0.209
327	0.208
327	0.208
328	0.207
328	0.206
329	0.206
329	0.205
330	0.205
330	0.204
330	0.203
331	0.203
331	0.202
332	0.202
332	0.201
333	0.2
333	0.2
334	0.199
334	0.198
335	0.198
335	0.197
336	0.196
336	0.196
336	0.195
337	0.195
337	0.194
338	0.194
338	0.193
339	0.193
339	0.192
340	0.192
340	0.192
341	0.191
341	0.191
342	0.19
342	0.19
342	0.189
343	0.189
343	0.188
344	0.188
344	0.187
345	0.187
345	0.186
346	0.186
346	0.186
347	0.185
347	0.185
348	0.185
348	0.184
348	0.184
349	0.184
349	0.183
350	0.183
350	0.183
351	0.182
351	0.182
352	0.181
352	0.181
353	0.18
353	0.18
354	0.179
354	0.178
354	0.178
355	0.177
355	0.177
356	0.176
356	0.176
357	0.175
357	0.175
358	0.174
358	0.174
359	0.174
359	0.175
360	0.175
360	0.175
360	0.175
361	0.176
361	0.176
362	0.176
362	0.176
363	0.177
363	0.176
364	0.176
364	0.176
365	0.176
365	0.175
366	0.175
366	0.175
366	0.174
367	0.174
367	0.174
368	0.174
368	0.173
369	0.173
369	0.173
370	0.173
370	0.172
371	0.172
371	0.172
372	0.172
372	0.171
372	0.171
373	0.171
373	0.171
374	0.171
374	0.171
375	0.17
375	0.17
376	0.17
376	0.17
377	0.17
377	0.17
378	0.17
378	0.17
378	0.17
379	0.17
379	0.17
380	0.17
380	0.17
381	0.17
381	0.169
382	0.169
382	0.168
383	0.168
383	0.168
383	0.168
384	0.168
384	0.167
385	0.167
385	0.167
386	0.167
386	0.167
387	0.167
387	0.167
388	0.166
388	0.166
389	0.166
389	0.166
389	0.166
390	0.166
390	0.166
391	0.166
391	0.166
392	0.166
392	0.166
393	0.166
393	0.166
394	0.166
394	0.165
394	0.165
395	0.165
395	0.165
396	0.164
396	0.164
397	0.164
397	0.164
398	0.164
398	0.164
399	0.164
399	0.163
400	0.163
400	0.163
400	0.162
401	0.162
401	0.162
402	0.161
402	0.161
403	0.161
403	0.161
404	0.161
404	0.16
405	0.16
405	0.16
405	0.16
406	0.159
406	0.159
407	0.159
407	0.159
408	0.159
408	0.159
409	0.158
409	0.158
410	0.158
410	0.158
411	0.158
411	0.158
411	0.157
412	0.157
412	0.157
413	0.157
413	0.156
414	0.156
414	0.156
415	0.156
415	0.156
416	0.155
416	0.155
416	0.155
417	0.154
417	0.154
418	0.154
418	0.154
419	0.154
419	0.154
420	0.154
420	0.155
421	0.155
421	0.155
421	0.155
422	0.155
422	0.155
423	0.155
423	0.155
424	0.155
424	0.154
425	0.154
425	0.153
426	0.153
426	0.152
427	0.152
427	0.152
427	0.152
428	0.153
428	0.153
429	0.153
429	0.153
430	0.153
430	0.153
431	0.153
431	0.153
432	0.153
432	0.152
432	0.152
433	0.152
433	0.151
434	0.151
434	0.151
435	0.151
435	0.151
436	0.15
436	0.151
437	0.15
437	0.15
437	0.15
438	0.15
438	0.15
439	0.149
439	0.149
440	0.149
440	0.149
441	0.149
441	0.149
442	0.149
442	0.149
442	0.15
443	0.15
443	0.15
444	0.15
444	0.15
445	0.15
445	0.15
446	0.15
446	0.15
447	0.15
447	0.15
447	0.15
448	0.15
448	0.15
449	0.15
449	0.149
450	0.149
450	0.149
451	0.149
451	0.149
452	0.148
452	0.148
452	0.148
453	0.148
453	0.147
454	0.147
454	0.146
455	0.146
455	0.145
456	0.145
456	0.145
457	0.144
457	0.144
458	0.144
458	0.144
458	0.144
459	0.144
459	0.145
460	0.145
460	0.145
461	0.145
461	0.145
462	0.145
462	0.145
463	0.146
463	0.146
463	0.147
464	0.147
464	0.146
465	0.146
465	0.146
466	0.147
466	0.147
467	0.146
467	0.146
467	0.146
468	0.145
468	0.144
469	0.144
469	0.144
470	0.144
470	0.144
471	0.144
471	0.144
472	0.144
472	0.145
472	0.145
473	0.146
473	0.147
474	0.147
474	0.148
475	0.148
475	0.148
476	0.149
476	0.149
477	0.149
477	0.149
477	0.15
478	0.15
478	0.15
479	0.151
479	0.152
480	0.153
480	0.154
481	0.154
481	0.155
482	0.156
482	0.157
482	0.158
483	0.159
483	0.161
484	0.163
484	0.164
485	0.164
485	0.165
486	0.166
486	0.167
487	0.167
487	0.168
487	0.168
488	0.168
488	0.168
489	0.167
489	0.168
490	0.168
490	0.169
491	0.169
491	0.17
492	0.171
492	0.172
492	0.174
493	0.175
493	0.176
494	0.177
494	0.179
495	0.18
495	0.181
496	0.182
496	0.184
496	0.185
497	0.186
497	0.187
498	0.187
498	0.188
499	0.189
499	0.19
500	0.191
500	0.193
501	0.195
501	0.196
501	0.197
502	0.199
502	0.2
503	0.201
503	0.203
504	0.204
504	0.205
505	0.205
505	0.206
506	0.206
506	0.207
506	0.207
507	0.208
507	0.209
508	0.209
508	0.21
509	0.211
509	0.213
510	0.213
510	0.214
511	0.215
511	0.216
511	0.216
512	0.217
512	0.218
513	0.218
513	0.218
514	0.218
514	0.218
515	0.218
515	0.219
515	0.219
516	0.22
516	0.221
517	0.222
517	0.222
518	0.223
518	0.223
519	0.223
519	0.222
520	0.221
520	0.22
520	0.219
521	0.217
521	0.216
522	0.214
522	0.213
523	0.212
523	0.212
524	0.213
524	0.214
524	0.215
525	0.217
525	0.219
526	0.221
526	0.222
527	0.224
527	0.225
528	0.226
528	0.227
529	0.227
529	0.227
529	0.227
530	0.226
530	0.226
531	0.225
531	0.224
532	0.223
532	0.223
533	0.222
533	0.221
533	0.221
534	0.219
534	0.218
535	0.217
535	0.216
536	0.215
536	0.214
537	0.214
537	0.213
538	0.211
538	0.21
538	0.209
539	0.207
539	0.206
540	0.205
540	0.204
541	0.202
541	0.2
542	0.198
542	0.196
542	0.195
543	0.193
543	0.191
544	0.19
544	0.188
545	0.187
545	0.186
546	0.185
546	0.184
547	0.182
547	0.18
547	0.178
548	0.176
548	0.174
549	0.172
549	0.17
550	0.169
550	0.167
551	0.165
551	0.163
551	0.161
552	0.159
552	0.157
553	0.156
553	0.155
554	0.154
554	0.152
555	0.15
555	0.148
556	0.145
556	0.143
556	0.141
557	0.139
557	0.138
558	0.136
558	0.134
559	0.132
559	0.13
560	0.129
560	0.127
560	0.126
561	0.126
561	0.125
562	0.124
562	0.123
563	0.121
563	0.12
564	0.118
564	0.116
564	0.114
565	0.113
565	0.112
566	0.11
566	0.108
567	0.107
567	0.107
568	0.106
568	0.106
568	0.106
569	0.106
569	0.107
570	0.106
570	0.105
571	0.106
571	0.106
572	0.105
572	0.105
573	0.104
573	0.103
573	0.102
574	0.101
574	0.1
575	0.099
575	0.1
576	0.1
576	0.098
577	0.096
577	0.095
577	0.094
578	0.093
578	0.093
579	0.093
579	0.094
580	0.092
580	0.09
581	0.088
581	0.087
581	0.086
582	0.086
582	0.085
583	0.085
583	0.084
584	0.082
584	0.079
585	0.078
585	0.078
585	0.078
586	0.078
586	0.077
587	0.076
587	0.075
588	0.073
588	0.072
589	0.071
589	0.07
590	0.07
590	0.069
590	0.07
591	0.071
591	0.07
592	0.07
592	0.069
593	0.069
593	0.069
594	0.068
594	0.067
594	0.066
595	0.065
595	0.064
596	0.063
596	0.064
597	0.065
597	0.066
598	0.066
598	0.067
598	0.067
599	0.067
599	0.067
600	0.066
600	0.066
601	0.065
601	0.065
602	0.063
602	0.063
602	0.062
603	0.062
603	0.063
604	0.064
604	0.064
605	0.065
605	0.066
606	0.066
606	0.065
606	0.064
607	0.063
607	0.063
608	0.063
608	0.061
609	0.061
609	0.06
610	0.059
610	0.058
610	0.059
611	0.059
611	0.06
612	0.061
612	0.062
613	0.063
613	0.064
614	0.064
614	0.063
614	0.064
615	0.063
615	0.063
616	0.063
616	0.062
617	0.062
617	0.061
618	0.061
618	0.06
618	0.06
619	0.061
619	0.062
620	0.063
620	0.064
621	0.064
621	0.065
622	0.065
622	0.066
622	0.066
623	0.066
623	0.067
624	0.068
624	0.068
625	0.068
625	0.068
626	0.068
626	0.068
626	0.068
627	0.069
627	0.069
628	0.069
628	0.069
629	0.069
629	0.07
630	0.07
630	0.07
630	0.071
631	0.071
631	0.072
632	0.072
632	0.073
633	0.075
633	0.075
634	0.077
634	0.079
634	0.081
635	0.082
635	0.083
636	0.085
636	0.086
637	0.087
637	0.088
638	0.089
638	0.09
638	0.092
639	0.092
639	0.093
640	0.095
640	0.096
641	0.098
641	0.099
642	0.101
642	0.103
642	0.104
643	0.106
643	0.107
644	0.108
644	0.109
645	0.11
645	0.112
646	0.113
646	0.115
646	0.118
647	0.12
647	0.122
648	0.124
648	0.127
649	0.129
649	0.132
650	0.135
650	0.137
650	0.139
651	0.141
651	0.143
652	0.144
652	0.146
653	0.149
653	0.156
653	0.164
654	0.133
654	0.109
655	0.112
655	0.114
656	0.115
656	0.117
657	0.118
657	0.12
657	0.121
658	0.118
658	0.111
659	0.14
659	0.178
660	0.184
660	0.186
661	0.188
661	0.19
661	0.193
662	0.196
662	0.199
663	0.202
663	0.204
664	0.207
664	0.209
665	0.212
665	0.214
665	0.217
666	0.219
666	0.221
667	0.222
667	0.224
668	0.226
668	0.229
669	0.231
669	0.234
669	0.237
670	0.24
670	0.243
671	0.245
671	0.247
672	0.249
672	0.251
672	0.253
673	0.255
673	0.256
674	0.257
674	0.257
675	0.258
675	0.259
676	0.26
676	0.262
676	0.263
677	0.264
677	0.266
678	0.267
678	0.268
679	0.269
679	0.27
680	0.272
680	0.273
680	0.273
681	0.274
681	0.275
682	0.276
682	0.276
683	0.277
683	0.279
684	0.28
684	0.28
684	0.281
685	0.282
685	0.282
686	0.283
686	0.283
687	0.283
687	0.283
687	0.283
688	0.282
688	0.281
689	0.281
689	0.281
690	0.28
690	0.279
691	0.279
691	0.278
691	0.278
692	0.277
692	0.276
693	0.276
693	0.276
694	0.275
694	0.273
695	0.274
695	0.274
695	0.274
696	0.273
696	0.272
697	0.271
697	0.27
698	0.269
698	0.268
698	0.267
699	0.266
699	0.264
700	0.262
700	0.261
701	0.26
701	0.259
702	0.258
702	0.257
702	0.255
703	0.253
703	0.251
704	0.249
704	0.248
705	0.246
705	0.244
705	0.242
706	0.24
706	0.238
707	0.236
707	0.234
708	0.232
708	0.23
709	0.228
709	0.226
709	0.223
710	0.22
710	0.218
711	0.216
711	0.213
712	0.212
712	0.21
713	0.208
713	0.207
713	0.206
714	0.204
714	0.202
715	0.201
715	0.199
716	0.197
716	0.196
716	0.195
717	0.194
717	0.193
718	0.191
718	0.189
719	0.188
719	0.187
720	0.185
720	0.183
720	0.181
721	0.178
721	0.176
722	0.173
722	0.17
723	0.168
723	0.165
723	0.163
724	0.16
724	0.158
725	0.156
725	0.154
726	0.153
726	0.151
727	0.149
727	0.147
727	0.146
728	0.144
728	0.142
729	0.141
729	0.139
730	0.137
730	0.135
730	0.134
731	0.132
731	0.13
732	0.129
732	0.128
733	0.127
733	0.126
734	0.124
734	0.123
734	0.122
735	0.121
735	0.119
736	0.118
736	0.116
737	0.115
737	0.113
737	0.111
738	0.109
738	0.106
739	0.104
739	0.102
740	0.099
740	0.097
741	0.095
741	0.093
741	0.089
742	0.086
742	0.083
743	0.081
743	0.078
744	0.076
744	0.074
744	0.072
745	0.07
745	0.068
746	0.066
746	0.065
747	0.065
747	0.064
748	0.064
748	0.064
748	0.064
749	0.063
749	0.063
750	0.063
750	0.062
751	0.062
751	0.062
751	0.062
752	0.061
752	0.059
753	0.058
753	0.057
754	0.056
754	0.055
754	0.055
755	0.055
755	0.055
756	0.054
756	0.053
757	0.052
757	0.052
758	0.052
758	0.052
758	0.052
759	0.051
759	0.05
760	0.048
760	0.047
761	0.046
761	0.046
761	0.046
762	0.044
762	0.044
763	0.043
763	0.042
764	0.04
764	0.038
764	0.037
765	0.035
765	0.033
766	0.031
766	0.03
767	0.029
767	0.026
768	0.024
768	0.022
768	0.021
769	0.019
769	0.018
770	0.016
770	0.015
771	0.013
771	0.01
771	0.008
772	0.006
772	0.004
773	0.002
773	0
774	-0.002
774	-0.005
775	-0.006
775	-0.008
775	-0.01
776	-0.012
776	-0.014
777	-0.016
777	-0.017
778	-0.02
778	-0.022
778	-0.025
779	-0.026
779	-0.028
780	-0.031
780	-0.035
781	-0.039
781	-0.043
781	-0.048
782	-0.053
782	-0.059
783	-0.065
783	-0.071
784	-0.078
784	-0.085
784	-0.092
785	-0.1
785	-0.107
786	-0.112
786	-0.114
787	-0.113
787	-0.113
788	-0.116
788	-0.119
788	-0.121
789	-0.124
789	-0.124
790	-0.122
790	-0.121
791	-0.122
791	-0.125
791	-0.128
792	-0.123
792	-0.113
793	-0.107
793	-0.104
794	-0.102
794	-0.103
794	-0.106
795	-0.108
795	-0.108
796	-0.108
796	-0.11
797	-0.118
797	-0.128
797	-0.134
798	-0.139
798	-0.142
799	-0.143
799	-0.142
800	-0.142
800	-0.145
801	-0.148
801	-0.149
801	-0.149
802	-0.151
802	-0.152
803	-0.152
803	-0.152
804	-0.151
804	-0.145
804	-0.138
805	-0.133
805	-0.13
806	-0.127
806	-0.126
807	-0.124
807	-0.123
807	-0.123
808	-0.123
808	-0.124
809	-0.129
809	-0.136
810	-0.14
810	-0.143
810	-0.147
811	-0.15
811	-0.152
812	-0.149
812	-0.146
813	-0.147
813	-0.148
813	-0.149
814	-0.15
814	-0.15
815	-0.148
815	-0.145
816	-0.143
816	-0.143
817	-0.146
817	-0.149
817	-0.148
818	-0.144
818	-0.139
819	-0.133
819	-0.129
820	-0.125
820	-0.121
820	-0.116
821	-0.11
821	-0.101
822	-0.093
822	-0.085
823	-0.078
823	-0.072
823	-0.066
824	-0.06
824	-0.054
825	-0.048
825	-0.041
826	-0.036
826	-0.032
826	-0.028
827	-0.025
827	-0.022
828	-0.02
828	-0.018
829	-0.016
829	-0.015
829	-0.015
830	-0.015
830	-0.015
831	-0.014
831	-0.013
832	-0.013
832	-0.012
832	-0.011
833	-0.01
833	-0.009
834	-0.008
834	-0.007
835	-0.006
835	-0.005
835	-0.004
836	-0.003
836	-0.003
837	-0.003
837	-0.002
838	-0.002
838	-0.002
839	-0.002
839	-0.002
839	-0.003
840	-0.003
840	-0.003
841	-0.003
841	-0.002
842	-0.002
842	-0.001
842	-0
843	0.001
843	0.002
844	0.003
844	0.004
845	0.004
845	0.005
845	0.006
846	0.006
846	0.006
847	0.006
847	0.006
848	0.007
848	0.008
848	0.008
849	0.009
849	0.01
850	0.011
850	0.011
851	0.012
851	0.012
851	0.012
852	0.012
852	0.011
853	0.01
853	0.009
854	0.008
854	0.007
854	0.006
855	0.005
855	0.004
856	0.004
856	0.004
857	0.004
857	0.005
857	0.005
858	0.006
858	0.008
859	0.009
859	0.011
860	0.013
860	0.015
860	0.016
861	0.018
861	0.019
862	0.019
862	0.02
863	0.02
863	0.02
863	0.019
864	0.019
864	0.018
865	0.018
865	0.017
866	0.016
866	0.015
866	0.015
867	0.014
867	0.014
868	0.013
868	0.012
869	0.012
869	0.01
869	0.009
870	0.007
870	0.006
871	0.005
871	0.004
872	0.003
872	0.003
872	0.002
873	0.002
873	0.001
874	0.001
874	0.002
875	0.003
875	0.003
875	0.004
876	0.004
876	0.005
877	0.006
877	0.006
878	0.007
878	0.008
878	0.008
879	0.009
879	0.009
880	0.009
880	0.009
881	0.009
881	0.009
881	0.009
882	0.009
882	0.009
883	0.009
883	0.01
884	0.01
884	0.01
884	0.01
885	0.01
885	0.011
886	0.011
886	0.011
887	0.012
887	0.012
887	0.012
888	0.012
888	0.013
889	0.013
889	0.014
890	0.015
890	0.015
890	0.016
891	0.016
891	0.017
892	0.017
892	0.017
893	0.017
893	0.017
893	0.017
894	0.016
894	0.015
895	0.014
895	0.013
895	0.011
896	0.01
896	0.009
897	0.007
897	0.006
898	0.005
898	0.004
898	0.003
899	0.003
899	0.002
900	0.002
900	0.002
901	0.002
901	0.002
901	0.002
902	0.002
902	0.003
903	0.002
903	0.002
904	0.002
904	0.001
904	0.001
905	0.001
905	0.001
906	0.002
906	0.002
907	0.002
907	0.003
907	0.004
908	0.005
908	0.006
909	0.007
909	0.008
910	0.009
910	0.01
910	0.011
911	0.011
911	0.012
912	0.012
912	0.012
913	0.012
913	0.011
913	0.01
914	0.01
914	0.009
915	0.008
915	0.007
916	0.006
916	0.006
916	0.006
917	0.006
917	0.005
918	0.005
918	0.005
918	0.005
919	0.004
919	0.004
920	0.004
920	0.004
921	0.003
921	0.002
921	0.002
922	0.002
922	0.002
923	0.002
923	0.002
924	0.002
924	0.003
924	0.003
925	0.003
925	0.003
926	0.003
926	0.004
927	0.004
927	0.003
927	0.003
928	0.003
928	0.003
929	0.003
929	0.003
930	0.002
930	0.002
930	0.002
931	0.002
931	0.001
932	0.001
932	0.001
933	0.001
933	0
933	-0
934	-0
934	-0.001
935	-0.001
935	-0.001
935	-0.001
936	-0.001
936	-0.002
937	-0.001
937	-0.001
938	-0.001
938	-0.001
938	-0
939	0
939	0.001
940	0.002
940	0.003
941	0.003
941	0.004
941	0.004
942	0.005
942	0.005
943	0.005
943	0.006
944	0.006
944	0.006
944	0.007
945	0.007
945	0.008
946	0.008
946	0.009
946	0.009
947	0.01
947	0.01
948	0.011
948	0.011
949	0.011
949	0.012
949	0.012
950	0.013
950	0.014
951	0.015
951	0.015
952	0.016
952	0.017
952	0.018
953	0.018
953	0.019
954	0.019
954	0.019
955	0.018
955	0.018
955	0.017
956	0.017
956	0.015
957	0.014
957	0.013
957	0.012
958	0.01
958	0.01
959	0.009
959	0.008
960	0.006
960	0.005
960	0.004
961	0.002
961	0.001
962	-0
962	-0.001
963	-0.002
963	-0.004
963	-0.004
964	-0.005
964	-0.006
965	-0.006
965	-0.006
966	-0.006
966	-0.005
966	-0.005
967	-0.005
967	-0.005
968	-0.005
968	-0.005
968	-0.005
969	-0.005
969	-0.005
970	-0.004
970	-0.004
971	-0.004
971	-0.004
971	-0.003
972	-0.002
972	-0.002
973	-0.001
973	-0
974	0.001
974	0.002
974	0.002
975	0.003
975	0.004
976	0.005
976	0.005
976	0.005
977	0.004
977	0.004
978	0.003
978	0.003
979	0.002
979	0.001
979	0
980	-0.001
980	-0.002
981	-0.003
981	-0.004
982	-0.005
982	-0.005
982	-0.006
983	-0.006
983	-0.006
984	-0.006
984	-0.006
984	-0.005
985	-0.004
985	-0.004
986	-0.003
986	-0.002
987	-0.002
987	-0.001
987	-0.001
988	-0
988	-0
989	0
989	0
990	0
990	0
990	0.001
991	0.001
991	0.002
992	0.002
992	0.003
992	0.003
993	0.004
993	0.004
994	0.004
994	0.005
995	0.005
995	0.005
995	0.005
996	0.005
996	0.004
997	0.003
997	0.003
997	0.002
998	0.002
998	0.001
999	0.001
999	-0
1000	-0.001
1000	-0.001
1000	-0.001
1001	-0.001
1001	-0.002
1002	-0.002
1002	-0.002
1003	-0.002
1003	-0.003
1003	-0.003
1004	-0.003
1004	-0.004
1005	-0.004
1005	-0.005
1005	-0.006
1006	-0.006
1006	-0.007
1007	-0.008
1007	-0.008
1008	-0.009
1008	-0.009
1008	-0.01
1009	-0.01
1009	-0.01
1010	-0.01
1010	-0.01
1010	-0.009
1011	-0.009
1011	-0.009
1012	-0.009
1012	-0.008
1013	-0.008
1013	-0.007
1013	-0.007
1014	-0.007
1014	-0.006
1015	-0.006
1015	-0.005
1016	-0.005
1016	-0.004
1016	-0.004
1017	-0.003
1017	-0.003
1018	-0.002
1018	-0.002
1018	-0.001
1019	-0.001
1019	-0
1020	0
1020	0
1021	0
1021	-0
1021	-0
1022	-0.001
1022	-0.001
1023	-0.002
1023	-0.002
1023	-0.003
1024	-0.004
1024	-0.005
1025	-0.005
1025	-0.006
1026	-0.006
1026	-0.006
1026	-0.006
1027	-0.006
1027	-0.006
1028	-0.005
1028	-0.005
1028	-0.005
1029	-0.004
1029	-0.003
1030	-0.003
1030	-0.003
1031	-0.003
1031	-0.003
1031	-0.003
1032	-0.004
1032	-0.004
1033	-0.005
1033	-0.005
1033	-0.006
1034	-0.007
1034	-0.008
1035	-0.009
1035	-0.01
1036	-0.011
1036	-0.012
1036	-0.012
1037	-0.012
1037	-0.013
1038	-0.013
1038	-0.013
1039	-0.013
1039	-0.013
1039	-0.012
1040	-0.012
1040	-0.013
1041	-0.013
1041	-0.013
1041	-0.014
1042	-0.014
1042	-0.014
1043	-0.015
1043	-0.016
1044	-0.016
1044	-0.017
1044	-0.017
1045	-0.018
1045	-0.018
1046	-0.018
1046	-0.019
1046	-0.019
1047	-0.018
1047	-0.018
1048	-0.017
1048	-0.016
1049	-0.016
1049	-0.016
1049	-0.015
1050	-0.014
1050	-0.013
1051	-0.012
1051	-0.012
1051	-0.01
1052	-0.01
1052	-0.009
1053	-0.008
1053	-0.007
1053	-0.006
1054	-0.006
1054	-0.005
1055	-0.004
1055	-0.004
1056	-0.004
1056	-0.005
1056	-0.005
1057	-0.006
1057	-0.006
1058	-0.007
1058	-0.008
1058	-0.008
1059	-0.009
1059	-0.01
1060	-0.011
1060	-0.012
1061	-0.012
1061	-0.012
1061	-0.012
1062	-0.013
1062	-0.014
1063	-0.014
1063	-0.015
1063	-0.015
1064	-0.015
1064	-0.014
1065	-0.014
1065	-0.015
1066	-0.014
1066	-0.014
1066	-0.013
1067	-0.012
1067	-0.011
1068	-0.01
1068	-0.009
1068	-0.008
1069	-0.007
1069	-0.007
1070	-0.006
1070	-0.005
1071	-0.005
1071	-0.003
1071	-0.003
1072	-0.002
1072	-0.001
1073	0
1073	0.002
1073	0.002
1074	0.003
1074	0.004
1075	0.005
1075	0.005
1076	0.005
1076	0.006
1076	0.006
1077	0.006
1077	0.006
1078	0.006
1078	0.007
1078	0.007
1079	0.008
1079	0.009
1080	0.009
1080	0.01
1080	0.011
1081	0.012
1081	0.013
1082	0.013
1082	0.013
1083	0.013
1083	0.014
1083	0.015
1084	0.016
1084	0.017
1085	0.018
1085	0.019
1085	0.02
1086	0.022
1086	0.022
1087	0.024
1087	0.025
1088	0.026
1088	0.027
1088	0.028
1089	0.029
1089	0.03
1090	0.031
1090	0.032
1090	0.033
1091	0.034
1091	0.036
1092	0.037
1092	0.04
1092	0.041
1093	0.042
1093	0.045
1094	0.046
1094	0.048
1095	0.049
1095	0.051
1095	0.055
1096	0.058
1096	0.061
1097	0.065
1097	0.067
1097	0.072
1098	0.074
1098	0.079
1099	0.084
1099	0.09
1100	0.096
1100	0.101
1100	0.107
1101	0.115
1101	0.122
1102	0.132
1102	0.142
1102	0.153
1103	0.164
1103	0.176
1104	0.19
1104	0.205
1104	0.223
1105	0.242
1105	0.262
1106	0.282
1106	0.305
1107	0.332
1107	0.372
1107	0.421
1108	0.602
1108	1.029
1109	-0
1109	-0
1109	-0
1110	-0
1110	-0
1111	-0
1111	-0
