Data from 15c-2-2a_Absorbance__1669__03470.txt Node

Date: Wed Jan 24 13:59:30 CET 2024
User: Marek
Spectrometer: MAYP115816
Trigger mode: 0
Integration Time (sec): 2.000000E-1
Scans to average: 10
Electric dark correction enabled: true
Nonlinearity correction enabled: true
Boxcar width: 5
XAxis mode: Wavelengths
Number of Pixels in Spectrum: 2068
>>>>>Begin Spectral Data<<<<<
199	-1.802
199	-1.641
200	-1.481
200	-1.358
201	-1.285
201	-1.232
202	-1.161
202	-1.104
203	-1.054
203	-1.012
204	-0.984
204	-0.958
205	-0.936
205	-0.927
205	-0.925
206	-0.922
206	-0.92
207	-0.916
207	-0.914
208	-0.913
208	-0.911
209	-0.909
209	-0.91
210	-0.909
210	-0.907
211	-0.906
211	-0.906
212	-0.903
212	-0.9
213	-0.897
213	-0.895
213	-0.892
214	-0.89
214	-0.886
215	-0.886
215	-0.882
216	-0.881
216	-0.878
217	-0.876
217	-0.876
218	-0.877
218	-0.876
219	-0.875
219	-0.872
220	-0.87
220	-0.868
221	-0.868
221	-0.864
221	-0.859
222	-0.854
222	-0.847
223	-0.841
223	-0.835
224	-0.826
224	-0.818
225	-0.81
225	-0.799
226	-0.789
226	-0.777
227	-0.765
227	-0.753
228	-0.734
228	-0.716
229	-0.694
229	-0.672
229	-0.645
230	-0.615
230	-0.582
231	-0.546
231	-0.508
232	-0.468
232	-0.426
233	-0.384
233	-0.339
234	-0.295
234	-0.251
235	-0.208
235	-0.166
236	-0.127
236	-0.088
236	-0.051
237	-0.015
237	0.017
238	0.048
238	0.076
239	0.102
239	0.126
240	0.148
240	0.167
241	0.186
241	0.203
242	0.217
242	0.23
243	0.243
243	0.254
243	0.264
244	0.272
244	0.281
245	0.288
245	0.295
246	0.302
246	0.308
247	0.313
247	0.319
248	0.323
248	0.328
249	0.332
249	0.336
250	0.34
250	0.344
250	0.347
251	0.35
251	0.353
252	0.356
252	0.358
253	0.361
253	0.363
254	0.365
254	0.367
255	0.369
255	0.371
256	0.372
256	0.374
257	0.375
257	0.376
258	0.377
258	0.378
258	0.379
259	0.379
259	0.38
260	0.38
260	0.38
261	0.38
261	0.381
262	0.38
262	0.38
263	0.38
263	0.38
264	0.38
264	0.379
265	0.379
265	0.378
265	0.377
266	0.377
266	0.376
267	0.375
267	0.374
268	0.372
268	0.371
269	0.369
269	0.368
270	0.366
270	0.364
271	0.362
271	0.361
272	0.359
272	0.357
272	0.355
273	0.354
273	0.352
274	0.35
274	0.348
275	0.347
275	0.345
276	0.343
276	0.341
277	0.339
277	0.336
278	0.334
278	0.332
278	0.329
279	0.326
279	0.323
280	0.321
280	0.319
281	0.317
281	0.315
282	0.313
282	0.312
283	0.31
283	0.308
284	0.307
284	0.306
285	0.304
285	0.303
285	0.301
286	0.299
286	0.298
287	0.296
287	0.294
288	0.293
288	0.291
289	0.29
289	0.288
290	0.287
290	0.285
291	0.284
291	0.282
292	0.281
292	0.28
292	0.279
293	0.277
293	0.276
294	0.275
294	0.274
295	0.273
295	0.272
296	0.271
296	0.27
297	0.269
297	0.268
298	0.267
298	0.266
298	0.265
299	0.265
299	0.264
300	0.263
300	0.262
301	0.261
301	0.26
302	0.26
302	0.259
303	0.258
303	0.258
304	0.257
304	0.256
305	0.256
305	0.255
305	0.254
306	0.254
306	0.253
307	0.252
307	0.251
308	0.25
308	0.249
309	0.249
309	0.248
310	0.247
310	0.247
311	0.246
311	0.245
311	0.245
312	0.244
312	0.243
313	0.242
313	0.242
314	0.241
314	0.24
315	0.239
315	0.238
316	0.238
316	0.237
317	0.236
317	0.236
318	0.235
318	0.234
318	0.233
319	0.233
319	0.232
320	0.231
320	0.231
321	0.23
321	0.229
322	0.228
322	0.228
323	0.227
323	0.226
324	0.226
324	0.225
324	0.224
325	0.224
325	0.223
326	0.222
326	0.222
327	0.221
327	0.22
328	0.22
328	0.219
329	0.219
329	0.218
330	0.217
330	0.217
330	0.216
331	0.215
331	0.215
332	0.214
332	0.213
333	0.212
333	0.212
334	0.211
334	0.21
335	0.21
335	0.209
336	0.208
336	0.208
336	0.208
337	0.207
337	0.207
338	0.206
338	0.206
339	0.205
339	0.205
340	0.204
340	0.204
341	0.203
341	0.203
342	0.202
342	0.202
342	0.201
343	0.201
343	0.2
344	0.2
344	0.199
345	0.199
345	0.199
346	0.198
346	0.198
347	0.198
347	0.197
348	0.197
348	0.197
348	0.196
349	0.196
349	0.196
350	0.195
350	0.195
351	0.194
351	0.194
352	0.193
352	0.192
353	0.192
353	0.191
354	0.191
354	0.19
354	0.189
355	0.189
355	0.188
356	0.188
356	0.187
357	0.187
357	0.186
358	0.186
358	0.186
359	0.186
359	0.187
360	0.187
360	0.187
360	0.187
361	0.188
361	0.188
362	0.189
362	0.189
363	0.189
363	0.189
364	0.188
364	0.188
365	0.188
365	0.187
366	0.187
366	0.187
366	0.186
367	0.186
367	0.186
368	0.186
368	0.185
369	0.185
369	0.185
370	0.184
370	0.184
371	0.184
371	0.184
372	0.183
372	0.183
372	0.183
373	0.183
373	0.183
374	0.183
374	0.183
375	0.183
375	0.183
376	0.182
376	0.182
377	0.182
377	0.182
378	0.182
378	0.182
378	0.182
379	0.182
379	0.182
380	0.182
380	0.182
381	0.181
381	0.181
382	0.181
382	0.181
383	0.18
383	0.18
383	0.18
384	0.18
384	0.179
385	0.179
385	0.179
386	0.179
386	0.179
387	0.179
387	0.179
388	0.179
388	0.178
389	0.178
389	0.178
389	0.178
390	0.178
390	0.178
391	0.178
391	0.178
392	0.178
392	0.178
393	0.178
393	0.178
394	0.178
394	0.177
394	0.177
395	0.177
395	0.176
396	0.176
396	0.176
397	0.176
397	0.176
398	0.175
398	0.175
399	0.175
399	0.175
400	0.174
400	0.174
400	0.174
401	0.174
401	0.173
402	0.173
402	0.172
403	0.172
403	0.172
404	0.172
404	0.172
405	0.172
405	0.171
405	0.171
406	0.171
406	0.171
407	0.171
407	0.171
408	0.17
408	0.17
409	0.17
409	0.169
410	0.17
410	0.17
411	0.169
411	0.169
411	0.169
412	0.169
412	0.168
413	0.168
413	0.168
414	0.168
414	0.167
415	0.167
415	0.167
416	0.167
416	0.166
416	0.166
417	0.166
417	0.165
418	0.165
418	0.165
419	0.165
419	0.166
420	0.166
420	0.166
421	0.166
421	0.167
421	0.167
422	0.167
422	0.167
423	0.167
423	0.167
424	0.166
424	0.166
425	0.165
425	0.164
426	0.164
426	0.164
427	0.164
427	0.164
427	0.164
428	0.164
428	0.164
429	0.164
429	0.165
430	0.165
430	0.164
431	0.164
431	0.164
432	0.164
432	0.164
432	0.163
433	0.163
433	0.162
434	0.162
434	0.162
435	0.162
435	0.162
436	0.161
436	0.162
437	0.161
437	0.161
437	0.161
438	0.161
438	0.16
439	0.16
439	0.16
440	0.16
440	0.16
441	0.16
441	0.16
442	0.16
442	0.16
442	0.16
443	0.16
443	0.161
444	0.161
444	0.161
445	0.161
445	0.161
446	0.162
446	0.162
447	0.161
447	0.161
447	0.161
448	0.161
448	0.161
449	0.161
449	0.161
450	0.161
450	0.161
451	0.16
451	0.16
452	0.16
452	0.159
452	0.159
453	0.159
453	0.158
454	0.158
454	0.157
455	0.157
455	0.156
456	0.156
456	0.156
457	0.155
457	0.155
458	0.155
458	0.155
458	0.155
459	0.156
459	0.156
460	0.156
460	0.156
461	0.156
461	0.156
462	0.156
462	0.157
463	0.157
463	0.157
463	0.158
464	0.158
464	0.157
465	0.157
465	0.158
466	0.158
466	0.158
467	0.158
467	0.158
467	0.157
468	0.156
468	0.156
469	0.155
469	0.155
470	0.156
470	0.155
471	0.156
471	0.156
472	0.156
472	0.156
472	0.157
473	0.158
473	0.159
474	0.159
474	0.16
475	0.16
475	0.16
476	0.16
476	0.161
477	0.161
477	0.161
477	0.161
478	0.162
478	0.162
479	0.163
479	0.164
480	0.165
480	0.166
481	0.166
481	0.167
482	0.168
482	0.169
482	0.17
483	0.171
483	0.173
484	0.175
484	0.176
485	0.176
485	0.177
486	0.178
486	0.179
487	0.179
487	0.18
487	0.18
488	0.18
488	0.18
489	0.18
489	0.18
490	0.181
490	0.181
491	0.182
491	0.182
492	0.183
492	0.184
492	0.186
493	0.187
493	0.188
494	0.19
494	0.191
495	0.193
495	0.194
496	0.195
496	0.197
496	0.198
497	0.199
497	0.2
498	0.201
498	0.202
499	0.203
499	0.204
500	0.205
500	0.206
501	0.208
501	0.21
501	0.211
502	0.213
502	0.214
503	0.216
503	0.217
504	0.218
504	0.219
505	0.22
505	0.22
506	0.221
506	0.222
506	0.222
507	0.223
507	0.223
508	0.224
508	0.225
509	0.226
509	0.228
510	0.229
510	0.23
511	0.23
511	0.231
511	0.232
512	0.233
512	0.233
513	0.234
513	0.234
514	0.234
514	0.234
515	0.234
515	0.234
515	0.235
516	0.236
516	0.237
517	0.238
517	0.238
518	0.239
518	0.239
519	0.239
519	0.238
520	0.238
520	0.237
520	0.236
521	0.234
521	0.232
522	0.23
522	0.229
523	0.229
523	0.229
524	0.229
524	0.23
524	0.232
525	0.234
525	0.235
526	0.237
526	0.239
527	0.24
527	0.242
528	0.243
528	0.244
529	0.244
529	0.243
529	0.243
530	0.242
530	0.242
531	0.241
531	0.241
532	0.24
532	0.239
533	0.238
533	0.237
533	0.236
534	0.235
534	0.234
535	0.233
535	0.232
536	0.231
536	0.23
537	0.229
537	0.228
538	0.227
538	0.225
538	0.224
539	0.223
539	0.221
540	0.22
540	0.219
541	0.217
541	0.215
542	0.213
542	0.211
542	0.209
543	0.207
543	0.205
544	0.203
544	0.202
545	0.201
545	0.2
546	0.199
546	0.197
547	0.196
547	0.193
547	0.192
548	0.19
548	0.188
549	0.186
549	0.184
550	0.182
550	0.18
551	0.178
551	0.175
551	0.173
552	0.171
552	0.17
553	0.168
553	0.167
554	0.166
554	0.164
555	0.162
555	0.159
556	0.157
556	0.155
556	0.153
557	0.151
557	0.149
558	0.147
558	0.144
559	0.143
559	0.141
560	0.139
560	0.138
560	0.137
561	0.136
561	0.135
562	0.134
562	0.133
563	0.131
563	0.13
564	0.128
564	0.126
564	0.124
565	0.123
565	0.121
566	0.119
566	0.118
567	0.116
567	0.115
568	0.115
568	0.115
568	0.115
569	0.115
569	0.115
570	0.115
570	0.114
571	0.114
571	0.114
572	0.114
572	0.113
573	0.113
573	0.112
573	0.11
574	0.109
574	0.108
575	0.107
575	0.108
576	0.107
576	0.106
577	0.104
577	0.103
577	0.102
578	0.101
578	0.101
579	0.101
579	0.101
580	0.1
580	0.098
581	0.096
581	0.094
581	0.093
582	0.093
582	0.093
583	0.093
583	0.092
584	0.089
584	0.086
585	0.085
585	0.085
585	0.085
586	0.084
586	0.084
587	0.083
587	0.081
588	0.079
588	0.078
589	0.077
589	0.077
590	0.076
590	0.076
590	0.077
591	0.077
591	0.077
592	0.076
592	0.075
593	0.075
593	0.075
594	0.074
594	0.073
594	0.072
595	0.071
595	0.07
596	0.069
596	0.069
597	0.071
597	0.072
598	0.072
598	0.072
598	0.073
599	0.073
599	0.073
600	0.072
600	0.071
601	0.071
601	0.07
602	0.069
602	0.069
602	0.068
603	0.068
603	0.069
604	0.069
604	0.07
605	0.071
605	0.072
606	0.072
606	0.071
606	0.07
607	0.07
607	0.069
608	0.069
608	0.067
609	0.066
609	0.066
610	0.065
610	0.064
610	0.064
611	0.065
611	0.066
612	0.066
612	0.068
613	0.068
613	0.069
614	0.07
614	0.069
614	0.069
615	0.069
615	0.068
616	0.068
616	0.068
617	0.068
617	0.067
618	0.066
618	0.066
618	0.066
619	0.066
619	0.067
620	0.069
620	0.069
621	0.07
621	0.07
622	0.071
622	0.072
622	0.072
623	0.072
623	0.074
624	0.074
624	0.074
625	0.074
625	0.074
626	0.074
626	0.074
626	0.075
627	0.075
627	0.075
628	0.076
628	0.076
629	0.076
629	0.076
630	0.076
630	0.076
630	0.077
631	0.077
631	0.078
632	0.079
632	0.08
633	0.081
633	0.082
634	0.083
634	0.085
634	0.087
635	0.088
635	0.09
636	0.091
636	0.092
637	0.093
637	0.094
638	0.096
638	0.097
638	0.099
639	0.099
639	0.101
640	0.102
640	0.103
641	0.105
641	0.107
642	0.109
642	0.111
642	0.112
643	0.114
643	0.115
644	0.116
644	0.117
645	0.119
645	0.12
646	0.122
646	0.124
646	0.126
647	0.128
647	0.131
648	0.133
648	0.136
649	0.138
649	0.141
650	0.144
650	0.146
650	0.148
651	0.15
651	0.152
652	0.154
652	0.156
653	0.159
653	0.166
653	0.174
654	0.141
654	0.115
655	0.118
655	0.12
656	0.122
656	0.124
657	0.125
657	0.127
657	0.128
658	0.126
658	0.118
659	0.149
659	0.19
660	0.196
660	0.198
661	0.2
661	0.202
661	0.205
662	0.208
662	0.211
663	0.214
663	0.217
664	0.22
664	0.222
665	0.225
665	0.227
665	0.23
666	0.232
666	0.234
667	0.236
667	0.238
668	0.24
668	0.242
669	0.245
669	0.248
669	0.252
670	0.255
670	0.258
671	0.26
671	0.262
672	0.264
672	0.267
672	0.268
673	0.27
673	0.272
674	0.272
674	0.273
675	0.273
675	0.274
676	0.276
676	0.277
676	0.279
677	0.28
677	0.282
678	0.283
678	0.284
679	0.285
679	0.286
680	0.288
680	0.289
680	0.289
681	0.29
681	0.291
682	0.292
682	0.293
683	0.294
683	0.295
684	0.297
684	0.297
684	0.298
685	0.299
685	0.3
686	0.3
686	0.301
687	0.301
687	0.3
687	0.3
688	0.299
688	0.298
689	0.298
689	0.298
690	0.297
690	0.296
691	0.295
691	0.295
691	0.295
692	0.294
692	0.293
693	0.293
693	0.293
694	0.292
694	0.291
695	0.291
695	0.291
695	0.291
696	0.289
696	0.288
697	0.287
697	0.286
698	0.285
698	0.284
698	0.283
699	0.282
699	0.28
700	0.278
700	0.276
701	0.276
701	0.274
702	0.273
702	0.272
702	0.27
703	0.268
703	0.266
704	0.264
704	0.262
705	0.261
705	0.259
705	0.257
706	0.255
706	0.253
707	0.251
707	0.248
708	0.246
708	0.244
709	0.242
709	0.24
709	0.237
710	0.234
710	0.231
711	0.229
711	0.227
712	0.226
712	0.224
713	0.222
713	0.22
713	0.219
714	0.217
714	0.215
715	0.214
715	0.212
716	0.21
716	0.209
716	0.207
717	0.206
717	0.205
718	0.203
718	0.202
719	0.2
719	0.199
720	0.197
720	0.195
720	0.192
721	0.189
721	0.187
722	0.184
722	0.181
723	0.178
723	0.176
723	0.173
724	0.171
724	0.169
725	0.166
725	0.165
726	0.163
726	0.161
727	0.159
727	0.157
727	0.156
728	0.154
728	0.152
729	0.151
729	0.149
730	0.147
730	0.145
730	0.143
731	0.141
731	0.14
732	0.139
732	0.137
733	0.136
733	0.135
734	0.133
734	0.132
734	0.131
735	0.13
735	0.128
736	0.126
736	0.124
737	0.123
737	0.121
737	0.119
738	0.117
738	0.114
739	0.112
739	0.11
740	0.107
740	0.105
741	0.103
741	0.1
741	0.097
742	0.093
742	0.09
743	0.088
743	0.085
744	0.083
744	0.08
744	0.078
745	0.076
745	0.074
746	0.073
746	0.072
747	0.071
747	0.071
748	0.071
748	0.071
748	0.07
749	0.07
749	0.069
750	0.069
750	0.068
751	0.068
751	0.068
751	0.068
752	0.066
752	0.065
753	0.064
753	0.063
754	0.062
754	0.061
754	0.061
755	0.06
755	0.06
756	0.06
756	0.058
757	0.058
757	0.058
758	0.058
758	0.057
758	0.057
759	0.057
759	0.055
760	0.054
760	0.052
761	0.052
761	0.051
761	0.051
762	0.049
762	0.049
763	0.048
763	0.046
764	0.044
764	0.043
764	0.041
765	0.039
765	0.037
766	0.036
766	0.034
767	0.033
767	0.03
768	0.028
768	0.026
768	0.025
769	0.023
769	0.022
770	0.02
770	0.019
771	0.017
771	0.014
771	0.012
772	0.01
772	0.008
773	0.006
773	0.004
774	0.001
774	-0.001
775	-0.003
775	-0.005
775	-0.007
776	-0.009
776	-0.01
777	-0.012
777	-0.014
778	-0.016
778	-0.019
778	-0.022
779	-0.023
779	-0.025
780	-0.029
780	-0.032
781	-0.036
781	-0.04
781	-0.045
782	-0.051
782	-0.056
783	-0.062
783	-0.068
784	-0.075
784	-0.083
784	-0.09
785	-0.098
785	-0.106
786	-0.111
786	-0.113
787	-0.112
787	-0.112
788	-0.115
788	-0.118
788	-0.121
789	-0.123
789	-0.124
790	-0.122
790	-0.121
791	-0.122
791	-0.125
791	-0.128
792	-0.123
792	-0.113
793	-0.107
793	-0.104
794	-0.102
794	-0.103
794	-0.106
795	-0.108
795	-0.108
796	-0.108
796	-0.11
797	-0.118
797	-0.128
797	-0.134
798	-0.139
798	-0.142
799	-0.143
799	-0.142
800	-0.142
800	-0.145
801	-0.148
801	-0.149
801	-0.149
802	-0.151
802	-0.152
803	-0.152
803	-0.152
804	-0.151
804	-0.145
804	-0.138
805	-0.133
805	-0.13
806	-0.127
806	-0.126
807	-0.124
807	-0.123
807	-0.123
808	-0.123
808	-0.124
809	-0.129
809	-0.136
810	-0.14
810	-0.143
810	-0.147
811	-0.15
811	-0.152
812	-0.149
812	-0.146
813	-0.147
813	-0.148
813	-0.149
814	-0.15
814	-0.15
815	-0.148
815	-0.145
816	-0.143
816	-0.143
817	-0.146
817	-0.149
817	-0.147
818	-0.144
818	-0.138
819	-0.133
819	-0.127
820	-0.124
820	-0.12
820	-0.115
821	-0.108
821	-0.1
822	-0.091
822	-0.083
823	-0.076
823	-0.07
823	-0.064
824	-0.058
824	-0.052
825	-0.045
825	-0.039
826	-0.034
826	-0.03
826	-0.026
827	-0.023
827	-0.02
828	-0.018
828	-0.016
829	-0.014
829	-0.014
829	-0.013
830	-0.014
830	-0.013
831	-0.012
831	-0.011
832	-0.011
832	-0.01
832	-0.009
833	-0.008
833	-0.007
834	-0.006
834	-0.005
835	-0.004
835	-0.003
835	-0.002
836	-0.002
836	-0.001
837	-0.001
837	-0.001
838	-0.001
838	-0.001
839	-0
839	-0.001
839	-0.001
840	-0.001
840	-0.001
841	-0.001
841	-0
842	0
842	0.001
842	0.002
843	0.002
843	0.003
844	0.004
844	0.005
845	0.006
845	0.007
845	0.007
846	0.007
846	0.007
847	0.007
847	0.008
848	0.009
848	0.009
848	0.01
849	0.011
849	0.012
850	0.013
850	0.013
851	0.014
851	0.014
851	0.014
852	0.014
852	0.013
853	0.012
853	0.011
854	0.01
854	0.009
854	0.008
855	0.007
855	0.006
856	0.006
856	0.005
857	0.006
857	0.006
857	0.007
858	0.008
858	0.009
859	0.011
859	0.013
860	0.015
860	0.016
860	0.018
861	0.019
861	0.021
862	0.021
862	0.022
863	0.022
863	0.022
863	0.021
864	0.02
864	0.02
865	0.019
865	0.019
866	0.018
866	0.017
866	0.016
867	0.016
867	0.015
868	0.014
868	0.014
869	0.013
869	0.012
869	0.01
870	0.009
870	0.008
871	0.007
871	0.006
872	0.005
872	0.004
872	0.003
873	0.003
873	0.003
874	0.003
874	0.003
875	0.004
875	0.005
875	0.005
876	0.006
876	0.006
877	0.007
877	0.008
878	0.009
878	0.009
878	0.01
879	0.01
879	0.01
880	0.01
880	0.011
881	0.011
881	0.011
881	0.011
882	0.011
882	0.011
883	0.011
883	0.011
884	0.011
884	0.011
884	0.012
885	0.012
885	0.012
886	0.012
886	0.013
887	0.013
887	0.013
887	0.013
888	0.014
888	0.014
889	0.015
889	0.015
890	0.016
890	0.017
890	0.017
891	0.018
891	0.018
892	0.018
892	0.018
893	0.018
893	0.018
893	0.018
894	0.017
894	0.016
895	0.015
895	0.014
895	0.012
896	0.011
896	0.01
897	0.008
897	0.007
898	0.006
898	0.005
898	0.004
899	0.004
899	0.003
900	0.003
900	0.003
901	0.003
901	0.003
901	0.003
902	0.004
902	0.004
903	0.004
903	0.003
904	0.003
904	0.003
904	0.002
905	0.002
905	0.003
906	0.003
906	0.004
907	0.004
907	0.005
907	0.005
908	0.006
908	0.007
909	0.009
909	0.01
910	0.011
910	0.012
910	0.012
911	0.013
911	0.013
912	0.013
912	0.013
913	0.013
913	0.012
913	0.012
914	0.011
914	0.01
915	0.009
915	0.008
916	0.008
916	0.007
916	0.007
917	0.007
917	0.006
918	0.006
918	0.006
918	0.006
919	0.006
919	0.005
920	0.005
920	0.005
921	0.004
921	0.003
921	0.003
922	0.003
922	0.003
923	0.003
923	0.003
924	0.003
924	0.004
924	0.004
925	0.004
925	0.005
926	0.005
926	0.005
927	0.005
927	0.005
927	0.005
928	0.005
928	0.004
929	0.004
929	0.004
930	0.004
930	0.003
930	0.003
931	0.002
931	0.002
932	0.002
932	0.002
933	0.002
933	0.001
933	0.001
934	0.001
934	0.001
935	0
935	-0
935	-0
936	-0
936	-0
937	-0
937	-0
938	0
938	0
938	0.001
939	0.001
939	0.002
940	0.003
940	0.004
941	0.004
941	0.005
941	0.005
942	0.006
942	0.006
943	0.006
943	0.007
944	0.007
944	0.007
944	0.008
945	0.008
945	0.009
946	0.01
946	0.01
946	0.011
947	0.011
947	0.012
948	0.012
948	0.013
949	0.013
949	0.013
949	0.014
950	0.014
950	0.015
951	0.016
951	0.017
952	0.017
952	0.018
952	0.019
953	0.019
953	0.02
954	0.02
954	0.02
955	0.019
955	0.019
955	0.018
956	0.017
956	0.016
957	0.015
957	0.014
957	0.013
958	0.012
958	0.011
959	0.01
959	0.009
960	0.008
960	0.006
960	0.005
961	0.003
961	0.002
962	0.001
962	-0.001
963	-0.002
963	-0.003
963	-0.004
964	-0.004
964	-0.005
965	-0.005
965	-0.005
966	-0.005
966	-0.005
966	-0.005
967	-0.004
967	-0.004
968	-0.004
968	-0.004
968	-0.004
969	-0.004
969	-0.004
970	-0.004
970	-0.004
971	-0.003
971	-0.003
971	-0.002
972	-0.002
972	-0.001
973	-0
973	0.001
974	0.001
974	0.002
974	0.003
975	0.004
975	0.005
976	0.005
976	0.005
976	0.005
977	0.005
977	0.004
978	0.004
978	0.003
979	0.003
979	0.002
979	0.001
980	-0
980	-0.002
981	-0.003
981	-0.004
982	-0.004
982	-0.005
982	-0.005
983	-0.005
983	-0.005
984	-0.005
984	-0.005
984	-0.004
985	-0.003
985	-0.003
986	-0.002
986	-0.001
987	-0.001
987	-0
987	0
988	0.001
988	0.001
989	0.001
989	0.001
990	0.002
990	0.002
990	0.002
991	0.002
991	0.003
992	0.003
992	0.004
992	0.004
993	0.004
993	0.005
994	0.005
994	0.006
995	0.006
995	0.006
995	0.005
996	0.005
996	0.004
997	0.004
997	0.003
997	0.003
998	0.002
998	0.002
999	0.001
999	0
1000	0
1000	-0
1000	-0.001
1001	-0.001
1001	-0.001
1002	-0.001
1002	-0.001
1003	-0.002
1003	-0.002
1003	-0.002
1004	-0.002
1004	-0.003
1005	-0.004
1005	-0.004
1005	-0.005
1006	-0.006
1006	-0.006
1007	-0.007
1007	-0.007
1008	-0.008
1008	-0.008
1008	-0.009
1009	-0.009
1009	-0.009
1010	-0.009
1010	-0.009
1010	-0.009
1011	-0.009
1011	-0.009
1012	-0.008
1012	-0.008
1013	-0.007
1013	-0.007
1013	-0.007
1014	-0.006
1014	-0.006
1015	-0.005
1015	-0.005
1016	-0.004
1016	-0.003
1016	-0.003
1017	-0.003
1017	-0.002
1018	-0.001
1018	-0.001
1018	-0
1019	0
1019	0.001
1020	0.001
1020	0.001
1021	0.001
1021	0
1021	-0
1022	-0
1022	-0.001
1023	-0.001
1023	-0.002
1023	-0.003
1024	-0.003
1024	-0.004
1025	-0.005
1025	-0.005
1026	-0.005
1026	-0.005
1026	-0.005
1027	-0.005
1027	-0.004
1028	-0.004
1028	-0.004
1028	-0.003
1029	-0.003
1029	-0.002
1030	-0.002
1030	-0.002
1031	-0.002
1031	-0.002
1031	-0.002
1032	-0.003
1032	-0.003
1033	-0.004
1033	-0.005
1033	-0.005
1034	-0.006
1034	-0.007
1035	-0.008
1035	-0.009
1036	-0.01
1036	-0.01
1036	-0.011
1037	-0.011
1037	-0.012
1038	-0.012
1038	-0.012
1039	-0.012
1039	-0.012
1039	-0.012
1040	-0.012
1040	-0.012
1041	-0.012
1041	-0.013
1041	-0.013
1042	-0.014
1042	-0.014
1043	-0.015
1043	-0.016
1044	-0.016
1044	-0.017
1044	-0.017
1045	-0.017
1045	-0.018
1046	-0.018
1046	-0.018
1046	-0.018
1047	-0.018
1047	-0.017
1048	-0.016
1048	-0.015
1049	-0.015
1049	-0.015
1049	-0.014
1050	-0.013
1050	-0.012
1051	-0.011
1051	-0.011
1051	-0.009
1052	-0.009
1052	-0.008
1053	-0.007
1053	-0.006
1053	-0.005
1054	-0.004
1054	-0.004
1055	-0.003
1055	-0.003
1056	-0.003
1056	-0.004
1056	-0.005
1057	-0.006
1057	-0.006
1058	-0.007
1058	-0.007
1058	-0.008
1059	-0.009
1059	-0.01
1060	-0.01
1060	-0.011
1061	-0.011
1061	-0.011
1061	-0.011
1062	-0.012
1062	-0.013
1063	-0.014
1063	-0.014
1063	-0.015
1064	-0.015
1064	-0.015
1065	-0.014
1065	-0.014
1066	-0.014
1066	-0.014
1066	-0.013
1067	-0.011
1067	-0.01
1068	-0.009
1068	-0.008
1068	-0.007
1069	-0.007
1069	-0.006
1070	-0.005
1070	-0.005
1071	-0.004
1071	-0.003
1071	-0.002
1072	-0.001
1072	0
1073	0.001
1073	0.003
1073	0.004
1074	0.005
1074	0.006
1075	0.006
1075	0.006
1076	0.006
1076	0.007
1076	0.006
1077	0.006
1077	0.006
1078	0.006
1078	0.006
1078	0.007
1079	0.008
1079	0.009
1080	0.009
1080	0.01
1080	0.011
1081	0.013
1081	0.014
1082	0.014
1082	0.015
1083	0.015
1083	0.016
1083	0.017
1084	0.018
1084	0.019
1085	0.02
1085	0.021
1085	0.021
1086	0.022
1086	0.023
1087	0.024
1087	0.025
1088	0.026
1088	0.026
1088	0.028
1089	0.028
1089	0.029
1090	0.031
1090	0.033
1090	0.034
1091	0.035
1091	0.037
1092	0.038
1092	0.04
1092	0.042
1093	0.043
1093	0.045
1094	0.047
1094	0.049
1095	0.05
1095	0.052
1095	0.056
1096	0.058
1096	0.061
1097	0.064
1097	0.068
1097	0.072
1098	0.075
1098	0.079
1099	0.084
1099	0.089
1100	0.095
1100	0.1
1100	0.107
1101	0.114
1101	0.121
1102	0.13
1102	0.14
1102	0.151
1103	0.163
1103	0.174
1104	0.189
1104	0.203
1104	0.221
1105	0.239
1105	0.256
1106	0.276
1106	0.301
1107	0.327
1107	0.367
1107	0.417
1108	0.597
1108	1.028
1109	-0
1109	-0
1109	-0
1110	-0
1110	-0
1111	-0
1111	-0
