Data from 15c-2-2a_Absorbance__4__01805.txt Node

Date: Wed Jan 24 13:04:01 CET 2024
User: Marek
Spectrometer: MAYP115816
Trigger mode: 0
Integration Time (sec): 2.000000E-1
Scans to average: 10
Electric dark correction enabled: true
Nonlinearity correction enabled: true
Boxcar width: 5
XAxis mode: Wavelengths
Number of Pixels in Spectrum: 2068
>>>>>Begin Spectral Data<<<<<
199	-1.966
199	-1.803
200	-1.642
200	-1.518
201	-1.444
201	-1.391
202	-1.318
202	-1.259
203	-1.208
203	-1.165
204	-1.135
204	-1.11
205	-1.087
205	-1.078
205	-1.076
206	-1.072
206	-1.07
207	-1.066
207	-1.063
208	-1.062
208	-1.06
209	-1.058
209	-1.058
210	-1.058
210	-1.056
211	-1.054
211	-1.054
212	-1.052
212	-1.05
213	-1.047
213	-1.045
213	-1.043
214	-1.04
214	-1.036
215	-1.036
215	-1.032
216	-1.031
216	-1.028
217	-1.026
217	-1.027
218	-1.027
218	-1.026
219	-1.024
219	-1.022
220	-1.02
220	-1.017
221	-1.017
221	-1.014
221	-1.01
222	-1.004
222	-0.997
223	-0.991
223	-0.985
224	-0.977
224	-0.968
225	-0.961
225	-0.95
226	-0.94
226	-0.929
227	-0.917
227	-0.904
228	-0.887
228	-0.869
229	-0.848
229	-0.827
229	-0.801
230	-0.772
230	-0.741
231	-0.707
231	-0.67
232	-0.632
232	-0.593
233	-0.554
233	-0.513
234	-0.472
234	-0.431
235	-0.392
235	-0.354
236	-0.319
236	-0.284
236	-0.252
237	-0.221
237	-0.194
238	-0.168
238	-0.144
239	-0.123
239	-0.103
240	-0.086
240	-0.07
241	-0.055
241	-0.043
242	-0.031
242	-0.021
243	-0.011
243	-0.003
243	0.005
244	0.012
244	0.018
245	0.024
245	0.029
246	0.034
246	0.039
247	0.043
247	0.047
248	0.051
248	0.054
249	0.058
249	0.061
250	0.064
250	0.067
250	0.07
251	0.073
251	0.075
252	0.078
252	0.08
253	0.082
253	0.084
254	0.086
254	0.088
255	0.09
255	0.091
256	0.092
256	0.094
257	0.095
257	0.096
258	0.097
258	0.098
258	0.099
259	0.099
259	0.1
260	0.101
260	0.101
261	0.101
261	0.102
262	0.102
262	0.102
263	0.102
263	0.102
264	0.101
264	0.101
265	0.101
265	0.101
265	0.1
266	0.1
266	0.099
267	0.099
267	0.098
268	0.097
268	0.096
269	0.095
269	0.094
270	0.093
270	0.092
271	0.091
271	0.09
272	0.089
272	0.087
272	0.086
273	0.085
273	0.084
274	0.083
274	0.082
275	0.081
275	0.08
276	0.079
276	0.077
277	0.076
277	0.075
278	0.074
278	0.072
278	0.07
279	0.068
279	0.067
280	0.066
280	0.064
281	0.063
281	0.062
282	0.06
282	0.059
283	0.058
283	0.058
284	0.057
284	0.057
285	0.056
285	0.055
285	0.054
286	0.053
286	0.052
287	0.051
287	0.05
288	0.049
288	0.048
289	0.048
289	0.047
290	0.046
290	0.045
291	0.045
291	0.044
292	0.044
292	0.043
292	0.043
293	0.042
293	0.042
294	0.041
294	0.041
295	0.04
295	0.04
296	0.04
296	0.039
297	0.039
297	0.039
298	0.038
298	0.038
298	0.038
299	0.038
299	0.038
300	0.037
300	0.037
301	0.037
301	0.037
302	0.037
302	0.037
303	0.037
303	0.037
304	0.036
304	0.036
305	0.036
305	0.036
305	0.036
306	0.036
306	0.036
307	0.036
307	0.035
308	0.035
308	0.035
309	0.035
309	0.035
310	0.035
310	0.035
311	0.035
311	0.034
311	0.034
312	0.034
312	0.034
313	0.034
313	0.034
314	0.034
314	0.033
315	0.033
315	0.033
316	0.033
316	0.033
317	0.032
317	0.032
318	0.032
318	0.032
318	0.032
319	0.032
319	0.031
320	0.031
320	0.031
321	0.031
321	0.03
322	0.03
322	0.03
323	0.03
323	0.03
324	0.03
324	0.029
324	0.029
325	0.029
325	0.029
326	0.029
326	0.028
327	0.028
327	0.028
328	0.028
328	0.028
329	0.027
329	0.027
330	0.027
330	0.027
330	0.027
331	0.027
331	0.026
332	0.026
332	0.026
333	0.026
333	0.025
334	0.025
334	0.025
335	0.025
335	0.024
336	0.024
336	0.024
336	0.024
337	0.024
337	0.024
338	0.024
338	0.023
339	0.023
339	0.023
340	0.023
340	0.022
341	0.022
341	0.022
342	0.022
342	0.022
342	0.021
343	0.021
343	0.021
344	0.02
344	0.02
345	0.02
345	0.02
346	0.02
346	0.02
347	0.019
347	0.019
348	0.019
348	0.019
348	0.019
349	0.018
349	0.018
350	0.018
350	0.018
351	0.017
351	0.017
352	0.016
352	0.016
353	0.016
353	0.015
354	0.015
354	0.014
354	0.014
355	0.014
355	0.013
356	0.013
356	0.013
357	0.012
357	0.012
358	0.012
358	0.012
359	0.012
359	0.012
360	0.013
360	0.013
360	0.013
361	0.014
361	0.014
362	0.014
362	0.014
363	0.014
363	0.014
364	0.014
364	0.014
365	0.014
365	0.014
366	0.014
366	0.014
366	0.014
367	0.014
367	0.014
368	0.013
368	0.013
369	0.013
369	0.013
370	0.013
370	0.013
371	0.013
371	0.013
372	0.013
372	0.013
372	0.013
373	0.013
373	0.013
374	0.013
374	0.013
375	0.013
375	0.013
376	0.013
376	0.013
377	0.013
377	0.013
378	0.014
378	0.014
378	0.014
379	0.014
379	0.014
380	0.014
380	0.014
381	0.014
381	0.014
382	0.014
382	0.014
383	0.014
383	0.014
383	0.014
384	0.014
384	0.014
385	0.014
385	0.014
386	0.014
386	0.014
387	0.014
387	0.014
388	0.014
388	0.014
389	0.014
389	0.014
389	0.014
390	0.015
390	0.015
391	0.015
391	0.016
392	0.016
392	0.016
393	0.016
393	0.016
394	0.016
394	0.016
394	0.016
395	0.016
395	0.015
396	0.015
396	0.015
397	0.015
397	0.016
398	0.016
398	0.016
399	0.016
399	0.015
400	0.015
400	0.015
400	0.015
401	0.015
401	0.015
402	0.014
402	0.014
403	0.014
403	0.014
404	0.015
404	0.015
405	0.014
405	0.014
405	0.014
406	0.014
406	0.014
407	0.014
407	0.014
408	0.014
408	0.014
409	0.013
409	0.013
410	0.014
410	0.014
411	0.014
411	0.014
411	0.014
412	0.013
412	0.013
413	0.013
413	0.013
414	0.013
414	0.013
415	0.013
415	0.013
416	0.013
416	0.013
416	0.013
417	0.012
417	0.012
418	0.012
418	0.012
419	0.012
419	0.013
420	0.013
420	0.013
421	0.013
421	0.014
421	0.014
422	0.014
422	0.014
423	0.014
423	0.014
424	0.014
424	0.014
425	0.013
425	0.013
426	0.012
426	0.012
427	0.012
427	0.012
427	0.012
428	0.013
428	0.013
429	0.014
429	0.014
430	0.014
430	0.014
431	0.014
431	0.014
432	0.014
432	0.013
432	0.013
433	0.012
433	0.012
434	0.012
434	0.012
435	0.012
435	0.012
436	0.012
436	0.012
437	0.012
437	0.011
437	0.011
438	0.011
438	0.011
439	0.011
439	0.011
440	0.01
440	0.01
441	0.01
441	0.01
442	0.011
442	0.011
442	0.011
443	0.011
443	0.012
444	0.012
444	0.012
445	0.012
445	0.012
446	0.013
446	0.012
447	0.012
447	0.012
447	0.012
448	0.012
448	0.012
449	0.012
449	0.011
450	0.011
450	0.011
451	0.011
451	0.011
452	0.01
452	0.01
452	0.01
453	0.01
453	0.009
454	0.009
454	0.008
455	0.008
455	0.007
456	0.007
456	0.007
457	0.006
457	0.006
458	0.006
458	0.006
458	0.006
459	0.006
459	0.006
460	0.006
460	0.006
461	0.006
461	0.006
462	0.006
462	0.006
463	0.006
463	0.006
463	0.007
464	0.007
464	0.006
465	0.006
465	0.006
466	0.006
466	0.006
467	0.005
467	0.005
467	0.004
468	0.003
468	0.002
469	0.001
469	0
470	-0
470	-0.001
471	-0.001
471	-0.001
472	-0.001
472	-0.001
472	-0.001
473	-0
473	0
474	0.001
474	0.001
475	0.001
475	0.001
476	0.001
476	0.001
477	0.001
477	0
477	0
478	0
478	-0
479	0
479	0.001
480	0.001
480	0.001
481	0.002
481	0.002
482	0.002
482	0.003
482	0.003
483	0.004
483	0.005
484	0.006
484	0.006
485	0.006
485	0.006
486	0.007
486	0.006
487	0.006
487	0.006
487	0.006
488	0.005
488	0.004
489	0.003
489	0.002
490	0.002
490	0.002
491	0.002
491	0.001
492	0.002
492	0.002
492	0.002
493	0.002
493	0.002
494	0.003
494	0.004
495	0.004
495	0.004
496	0.004
496	0.004
496	0.004
497	0.004
497	0.004
498	0.004
498	0.003
499	0.003
499	0.003
500	0.003
500	0.003
501	0.003
501	0.004
501	0.004
502	0.004
502	0.004
503	0.005
503	0.005
504	0.005
504	0.004
505	0.004
505	0.004
506	0.004
506	0.003
506	0.003
507	0.002
507	0.002
508	0.002
508	0.002
509	0.002
509	0.002
510	0.002
510	0.002
511	0.001
511	0.001
511	0.001
512	0.001
512	0
513	-0.001
513	-0.001
514	-0.002
514	-0.002
515	-0.002
515	-0.003
515	-0.003
516	-0.004
516	-0.004
517	-0.004
517	-0.004
518	-0.003
518	-0.003
519	-0.003
519	-0.004
520	-0.004
520	-0.004
520	-0.005
521	-0.006
521	-0.008
522	-0.009
522	-0.01
523	-0.012
523	-0.013
524	-0.014
524	-0.014
524	-0.015
525	-0.014
525	-0.013
526	-0.012
526	-0.011
527	-0.009
527	-0.007
528	-0.006
528	-0.004
529	-0.003
529	-0.002
529	-0.001
530	-0
530	0.001
531	0.001
531	0.002
532	0.002
532	0.002
533	0.003
533	0.003
533	0.003
534	0.003
534	0.003
535	0.003
535	0.003
536	0.004
536	0.004
537	0.004
537	0.004
538	0.005
538	0.005
538	0.004
539	0.005
539	0.005
540	0.005
540	0.005
541	0.005
541	0.005
542	0.005
542	0.005
542	0.005
543	0.005
543	0.005
544	0.005
544	0.006
545	0.006
545	0.007
546	0.007
546	0.008
547	0.008
547	0.007
547	0.007
548	0.007
548	0.007
549	0.007
549	0.006
550	0.006
550	0.006
551	0.006
551	0.006
551	0.006
552	0.006
552	0.007
553	0.007
553	0.008
554	0.009
554	0.009
555	0.008
555	0.008
556	0.008
556	0.007
556	0.007
557	0.007
557	0.007
558	0.007
558	0.007
559	0.007
559	0.007
560	0.007
560	0.008
560	0.008
561	0.009
561	0.01
562	0.011
562	0.011
563	0.011
563	0.011
564	0.01
564	0.01
564	0.01
565	0.01
565	0.01
566	0.009
566	0.009
567	0.01
567	0.011
568	0.012
568	0.013
568	0.015
569	0.017
569	0.02
570	0.021
570	0.021
571	0.023
571	0.024
572	0.025
572	0.026
573	0.027
573	0.027
573	0.027
574	0.027
574	0.027
575	0.027
575	0.029
576	0.03
576	0.029
577	0.029
577	0.028
577	0.028
578	0.028
578	0.029
579	0.03
579	0.032
580	0.032
580	0.031
581	0.029
581	0.029
581	0.029
582	0.029
582	0.03
583	0.031
583	0.031
584	0.029
584	0.026
585	0.026
585	0.026
585	0.027
586	0.027
586	0.027
587	0.026
587	0.025
588	0.023
588	0.022
589	0.022
589	0.022
590	0.022
590	0.021
590	0.023
591	0.024
591	0.024
592	0.024
592	0.024
593	0.024
593	0.024
594	0.024
594	0.023
594	0.022
595	0.022
595	0.021
596	0.02
596	0.021
597	0.023
597	0.024
598	0.025
598	0.026
598	0.027
599	0.027
599	0.027
600	0.027
600	0.026
601	0.026
601	0.025
602	0.024
602	0.024
602	0.023
603	0.023
603	0.024
604	0.024
604	0.025
605	0.026
605	0.027
606	0.027
606	0.026
606	0.025
607	0.025
607	0.024
608	0.024
608	0.023
609	0.022
609	0.022
610	0.02
610	0.019
610	0.019
611	0.02
611	0.02
612	0.021
612	0.022
613	0.023
613	0.024
614	0.024
614	0.023
614	0.023
615	0.023
615	0.022
616	0.022
616	0.021
617	0.021
617	0.02
618	0.019
618	0.018
618	0.018
619	0.017
619	0.018
620	0.019
620	0.02
621	0.02
621	0.02
622	0.02
622	0.021
622	0.021
623	0.02
623	0.021
624	0.021
624	0.021
625	0.02
625	0.02
626	0.02
626	0.019
626	0.019
627	0.019
627	0.019
628	0.019
628	0.018
629	0.018
629	0.018
630	0.017
630	0.016
630	0.016
631	0.016
631	0.016
632	0.015
632	0.015
633	0.015
633	0.015
634	0.016
634	0.017
634	0.018
635	0.019
635	0.019
636	0.02
636	0.021
637	0.021
637	0.021
638	0.022
638	0.023
638	0.023
639	0.023
639	0.023
640	0.023
640	0.024
641	0.024
641	0.025
642	0.026
642	0.028
642	0.029
643	0.029
643	0.029
644	0.03
644	0.03
645	0.03
645	0.03
646	0.03
646	0.031
646	0.031
647	0.032
647	0.034
648	0.034
648	0.035
649	0.037
649	0.038
650	0.04
650	0.041
650	0.041
651	0.042
651	0.043
652	0.043
652	0.043
653	0.045
653	0.05
653	0.056
654	0.047
654	0.041
655	0.04
655	0.041
656	0.041
656	0.042
657	0.043
657	0.043
657	0.043
658	0.04
658	0.035
659	0.042
659	0.052
660	0.055
660	0.056
661	0.056
661	0.057
661	0.058
662	0.059
662	0.06
663	0.061
663	0.063
664	0.064
664	0.064
665	0.066
665	0.067
665	0.068
666	0.069
666	0.069
667	0.069
667	0.07
668	0.071
668	0.071
669	0.072
669	0.074
669	0.076
670	0.078
670	0.079
671	0.08
671	0.08
672	0.081
672	0.082
672	0.082
673	0.082
673	0.082
674	0.082
674	0.081
675	0.081
675	0.08
676	0.081
676	0.081
676	0.081
677	0.082
677	0.083
678	0.083
678	0.083
679	0.084
679	0.084
680	0.085
680	0.086
680	0.086
681	0.086
681	0.087
682	0.087
682	0.087
683	0.088
683	0.089
684	0.091
684	0.091
684	0.091
685	0.092
685	0.092
686	0.093
686	0.093
687	0.094
687	0.094
687	0.094
688	0.094
688	0.094
689	0.094
689	0.095
690	0.094
690	0.094
691	0.093
691	0.093
691	0.093
692	0.092
692	0.092
693	0.092
693	0.093
694	0.093
694	0.092
695	0.093
695	0.095
695	0.095
696	0.095
696	0.095
697	0.094
697	0.094
698	0.094
698	0.093
698	0.093
699	0.093
699	0.092
700	0.091
700	0.091
701	0.091
701	0.091
702	0.092
702	0.092
702	0.091
703	0.091
703	0.09
704	0.09
704	0.089
705	0.089
705	0.089
705	0.088
706	0.088
706	0.087
707	0.086
707	0.085
708	0.084
708	0.084
709	0.083
709	0.082
709	0.081
710	0.079
710	0.078
711	0.078
711	0.078
712	0.077
712	0.077
713	0.077
713	0.077
713	0.077
714	0.076
714	0.076
715	0.076
715	0.076
716	0.075
716	0.076
716	0.076
717	0.076
717	0.076
718	0.076
718	0.075
719	0.075
719	0.075
720	0.075
720	0.074
720	0.072
721	0.07
721	0.069
722	0.068
722	0.066
723	0.065
723	0.064
723	0.063
724	0.062
724	0.061
725	0.061
725	0.06
726	0.06
726	0.06
727	0.059
727	0.059
727	0.058
728	0.058
728	0.057
729	0.058
729	0.058
730	0.057
730	0.056
730	0.056
731	0.055
731	0.055
732	0.055
732	0.054
733	0.054
733	0.054
734	0.053
734	0.053
734	0.053
735	0.053
735	0.052
736	0.051
736	0.05
737	0.049
737	0.049
737	0.048
738	0.047
738	0.045
739	0.043
739	0.042
740	0.041
740	0.04
741	0.038
741	0.036
741	0.034
742	0.031
742	0.028
743	0.027
743	0.025
744	0.024
744	0.022
744	0.021
745	0.019
745	0.018
746	0.018
746	0.018
747	0.018
747	0.019
748	0.02
748	0.021
748	0.022
749	0.023
749	0.023
750	0.024
750	0.024
751	0.025
751	0.025
751	0.025
752	0.024
752	0.023
753	0.022
753	0.021
754	0.021
754	0.021
754	0.021
755	0.022
755	0.022
756	0.022
756	0.022
757	0.022
757	0.022
758	0.022
758	0.022
758	0.023
759	0.023
759	0.022
760	0.021
760	0.019
761	0.018
761	0.018
761	0.018
762	0.017
762	0.016
763	0.016
763	0.014
764	0.012
764	0.011
764	0.009
765	0.008
765	0.006
766	0.005
766	0.005
767	0.004
767	0.003
768	0.001
768	-0
768	-0.001
769	-0.002
769	-0.003
770	-0.005
770	-0.006
771	-0.009
771	-0.011
771	-0.014
772	-0.017
772	-0.019
773	-0.022
773	-0.025
774	-0.028
774	-0.03
775	-0.033
775	-0.035
775	-0.038
776	-0.04
776	-0.043
777	-0.046
777	-0.048
778	-0.051
778	-0.055
778	-0.058
779	-0.061
779	-0.064
780	-0.069
780	-0.074
781	-0.08
781	-0.086
781	-0.092
782	-0.097
782	-0.104
783	-0.109
783	-0.113
784	-0.118
784	-0.121
784	-0.124
785	-0.126
785	-0.128
786	-0.128
786	-0.126
787	-0.122
787	-0.117
788	-0.116
788	-0.118
788	-0.119
789	-0.122
789	-0.122
790	-0.12
790	-0.119
791	-0.12
791	-0.123
791	-0.126
792	-0.121
792	-0.111
793	-0.105
793	-0.102
794	-0.1
794	-0.101
794	-0.104
795	-0.106
795	-0.106
796	-0.106
796	-0.108
797	-0.116
797	-0.126
797	-0.132
798	-0.137
798	-0.14
799	-0.141
799	-0.141
800	-0.14
800	-0.143
801	-0.146
801	-0.147
801	-0.147
802	-0.149
802	-0.15
803	-0.15
803	-0.15
804	-0.149
804	-0.143
804	-0.136
805	-0.131
805	-0.128
806	-0.125
806	-0.124
807	-0.122
807	-0.121
807	-0.121
808	-0.121
808	-0.123
809	-0.127
809	-0.134
810	-0.138
810	-0.141
810	-0.145
811	-0.149
811	-0.15
812	-0.147
812	-0.144
813	-0.145
813	-0.146
813	-0.147
814	-0.148
814	-0.148
815	-0.146
815	-0.143
816	-0.141
816	-0.141
817	-0.144
817	-0.147
817	-0.147
818	-0.146
818	-0.142
819	-0.136
819	-0.133
820	-0.131
820	-0.129
820	-0.125
821	-0.119
821	-0.112
822	-0.104
822	-0.096
823	-0.088
823	-0.081
823	-0.076
824	-0.069
824	-0.061
825	-0.054
825	-0.046
826	-0.04
826	-0.036
826	-0.032
827	-0.028
827	-0.025
828	-0.022
828	-0.02
829	-0.018
829	-0.016
829	-0.016
830	-0.016
830	-0.015
831	-0.013
831	-0.012
832	-0.011
832	-0.01
832	-0.009
833	-0.008
833	-0.006
834	-0.005
834	-0.004
835	-0.002
835	-0.002
835	-0.001
836	-0
836	0
837	0
837	-0
838	-0
838	-0
839	-0
839	-0
839	-0
840	-0
840	0
841	0.001
841	0.002
842	0.003
842	0.005
842	0.006
843	0.007
843	0.008
844	0.01
844	0.011
845	0.012
845	0.012
845	0.013
846	0.013
846	0.013
847	0.014
847	0.015
848	0.015
848	0.016
848	0.017
849	0.019
849	0.02
850	0.021
850	0.022
851	0.023
851	0.024
851	0.024
852	0.024
852	0.024
853	0.024
853	0.023
854	0.022
854	0.021
854	0.02
855	0.019
855	0.018
856	0.018
856	0.018
857	0.018
857	0.018
857	0.019
858	0.019
858	0.021
859	0.022
859	0.024
860	0.026
860	0.028
860	0.03
861	0.032
861	0.033
862	0.034
862	0.035
863	0.035
863	0.035
863	0.034
864	0.033
864	0.033
865	0.032
865	0.032
866	0.031
866	0.03
866	0.03
867	0.029
867	0.029
868	0.028
868	0.028
869	0.027
869	0.026
869	0.025
870	0.024
870	0.023
871	0.022
871	0.022
872	0.021
872	0.02
872	0.02
873	0.019
873	0.019
874	0.019
874	0.019
875	0.019
875	0.019
875	0.019
876	0.019
876	0.019
877	0.019
877	0.02
878	0.02
878	0.02
878	0.021
879	0.021
879	0.021
880	0.021
880	0.021
881	0.022
881	0.022
881	0.022
882	0.022
882	0.023
883	0.023
883	0.024
884	0.024
884	0.025
884	0.025
885	0.026
885	0.026
886	0.027
886	0.027
887	0.027
887	0.027
887	0.028
888	0.028
888	0.028
889	0.029
889	0.029
890	0.03
890	0.031
890	0.031
891	0.032
891	0.032
892	0.033
892	0.033
893	0.033
893	0.033
893	0.033
894	0.033
894	0.033
895	0.032
895	0.031
895	0.029
896	0.028
896	0.027
897	0.025
897	0.024
898	0.022
898	0.021
898	0.02
899	0.019
899	0.019
900	0.018
900	0.018
901	0.019
901	0.019
901	0.019
902	0.019
902	0.019
903	0.019
903	0.019
904	0.018
904	0.017
904	0.017
905	0.016
905	0.016
906	0.016
906	0.016
907	0.015
907	0.016
907	0.016
908	0.017
908	0.018
909	0.019
909	0.02
910	0.022
910	0.023
910	0.023
911	0.024
911	0.025
912	0.025
912	0.025
913	0.025
913	0.025
913	0.024
914	0.023
914	0.023
915	0.022
915	0.021
916	0.021
916	0.02
916	0.02
917	0.021
917	0.021
918	0.021
918	0.021
918	0.021
919	0.021
919	0.022
920	0.022
920	0.022
921	0.021
921	0.021
921	0.021
922	0.02
922	0.021
923	0.02
923	0.02
924	0.02
924	0.021
924	0.02
925	0.02
925	0.02
926	0.02
926	0.02
927	0.019
927	0.019
927	0.018
928	0.018
928	0.017
929	0.017
929	0.016
930	0.016
930	0.015
930	0.015
931	0.014
931	0.014
932	0.014
932	0.014
933	0.014
933	0.013
933	0.013
934	0.012
934	0.012
935	0.011
935	0.011
935	0.011
936	0.011
936	0.011
937	0.011
937	0.011
938	0.011
938	0.011
938	0.012
939	0.013
939	0.013
940	0.014
940	0.015
941	0.016
941	0.016
941	0.017
942	0.018
942	0.019
943	0.02
943	0.021
944	0.022
944	0.023
944	0.024
945	0.025
945	0.026
946	0.027
946	0.027
946	0.027
947	0.028
947	0.028
948	0.029
948	0.028
949	0.028
949	0.028
949	0.028
950	0.028
950	0.028
951	0.028
951	0.028
952	0.028
952	0.028
952	0.028
953	0.028
953	0.028
954	0.028
954	0.027
955	0.027
955	0.027
955	0.027
956	0.027
956	0.027
957	0.026
957	0.025
957	0.024
958	0.024
958	0.023
959	0.023
959	0.022
960	0.021
960	0.019
960	0.018
961	0.017
961	0.016
962	0.014
962	0.013
963	0.012
963	0.01
963	0.009
964	0.008
964	0.008
965	0.008
965	0.008
966	0.008
966	0.008
966	0.009
967	0.009
967	0.01
968	0.01
968	0.01
968	0.01
969	0.01
969	0.011
970	0.011
970	0.011
971	0.011
971	0.011
971	0.012
972	0.013
972	0.013
973	0.014
973	0.015
974	0.016
974	0.017
974	0.017
975	0.018
975	0.019
976	0.019
976	0.019
976	0.019
977	0.019
977	0.019
978	0.018
978	0.017
979	0.016
979	0.015
979	0.014
980	0.014
980	0.013
981	0.012
981	0.011
982	0.011
982	0.01
982	0.01
983	0.01
983	0.01
984	0.01
984	0.011
984	0.011
985	0.012
985	0.012
986	0.012
986	0.013
987	0.013
987	0.013
987	0.014
988	0.014
988	0.014
989	0.014
989	0.014
990	0.014
990	0.014
990	0.015
991	0.015
991	0.016
992	0.017
992	0.017
992	0.018
993	0.019
993	0.019
994	0.02
994	0.021
995	0.021
995	0.021
995	0.02
996	0.02
996	0.019
997	0.018
997	0.018
997	0.017
998	0.016
998	0.016
999	0.015
999	0.015
1000	0.014
1000	0.014
1000	0.014
1001	0.014
1001	0.014
1002	0.014
1002	0.014
1003	0.014
1003	0.014
1003	0.014
1004	0.013
1004	0.013
1005	0.012
1005	0.012
1005	0.012
1006	0.012
1006	0.011
1007	0.011
1007	0.011
1008	0.011
1008	0.012
1008	0.012
1009	0.012
1009	0.013
1010	0.013
1010	0.013
1010	0.014
1011	0.014
1011	0.014
1012	0.015
1012	0.015
1013	0.014
1013	0.014
1013	0.014
1014	0.014
1014	0.013
1015	0.013
1015	0.013
1016	0.013
1016	0.013
1016	0.013
1017	0.014
1017	0.014
1018	0.014
1018	0.014
1018	0.015
1019	0.015
1019	0.015
1020	0.015
1020	0.015
1021	0.015
1021	0.014
1021	0.014
1022	0.013
1022	0.013
1023	0.013
1023	0.012
1023	0.012
1024	0.011
1024	0.011
1025	0.01
1025	0.01
1026	0.01
1026	0.01
1026	0.01
1027	0.01
1027	0.01
1028	0.011
1028	0.011
1028	0.011
1029	0.012
1029	0.012
1030	0.013
1030	0.013
1031	0.013
1031	0.013
1031	0.014
1032	0.013
1032	0.013
1033	0.013
1033	0.012
1033	0.011
1034	0.01
1034	0.009
1035	0.008
1035	0.008
1036	0.007
1036	0.006
1036	0.006
1037	0.005
1037	0.005
1038	0.005
1038	0.005
1039	0.005
1039	0.005
1039	0.006
1040	0.005
1040	0.005
1041	0.005
1041	0.005
1041	0.004
1042	0.004
1042	0.003
1043	0.003
1043	0.002
1044	0.002
1044	0.001
1044	0.001
1045	0.001
1045	0.001
1046	0.001
1046	0.001
1046	0.002
1047	0.002
1047	0.003
1048	0.004
1048	0.005
1049	0.005
1049	0.005
1049	0.006
1050	0.007
1050	0.007
1051	0.008
1051	0.009
1051	0.01
1052	0.011
1052	0.012
1053	0.012
1053	0.013
1053	0.014
1054	0.015
1054	0.017
1055	0.018
1055	0.018
1056	0.018
1056	0.018
1056	0.017
1057	0.017
1057	0.016
1058	0.016
1058	0.016
1058	0.015
1059	0.014
1059	0.014
1060	0.014
1060	0.014
1061	0.014
1061	0.014
1061	0.015
1062	0.015
1062	0.014
1063	0.014
1063	0.013
1063	0.014
1064	0.014
1064	0.014
1065	0.014
1065	0.014
1066	0.015
1066	0.015
1066	0.016
1067	0.017
1067	0.018
1068	0.019
1068	0.02
1068	0.021
1069	0.022
1069	0.022
1070	0.023
1070	0.024
1071	0.025
1071	0.027
1071	0.028
1072	0.029
1072	0.031
1073	0.032
1073	0.034
1073	0.035
1074	0.037
1074	0.038
1075	0.039
1075	0.04
1076	0.041
1076	0.042
1076	0.042
1077	0.043
1077	0.044
1078	0.044
1078	0.046
1078	0.047
1079	0.049
1079	0.05
1080	0.051
1080	0.052
1080	0.054
1081	0.056
1081	0.057
1082	0.058
1082	0.059
1083	0.06
1083	0.061
1083	0.062
1084	0.063
1084	0.065
1085	0.067
1085	0.069
1085	0.07
1086	0.072
1086	0.073
1087	0.076
1087	0.077
1088	0.078
1088	0.08
1088	0.083
1089	0.084
1089	0.086
1090	0.088
1090	0.091
1090	0.094
1091	0.096
1091	0.1
1092	0.104
1092	0.108
1092	0.113
1093	0.116
1093	0.121
1094	0.126
1094	0.131
1095	0.136
1095	0.141
1095	0.149
1096	0.155
1096	0.162
1097	0.171
1097	0.178
1097	0.188
1098	0.195
1098	0.204
1099	0.215
1099	0.226
1100	0.241
1100	0.253
1100	0.268
1101	0.285
1101	0.302
1102	0.327
1102	0.352
1102	0.381
1103	0.414
1103	0.45
1104	0.496
1104	0.542
1104	0.606
1105	0.681
1105	0.774
1106	0.888
1106	1.065
1107	1.432
1107	-0
1107	-0
1108	-0
1108	-0
1109	-0
1109	-0
1109	-0
1110	-0
1110	-0
1111	-0
1111	-0
