Data from 15c-2-2a_Absorbance__1591__03392.txt Node

Date: Wed Jan 24 13:56:54 CET 2024
User: Marek
Spectrometer: MAYP115816
Trigger mode: 0
Integration Time (sec): 2.000000E-1
Scans to average: 10
Electric dark correction enabled: true
Nonlinearity correction enabled: true
Boxcar width: 5
XAxis mode: Wavelengths
Number of Pixels in Spectrum: 2068
>>>>>Begin Spectral Data<<<<<
199	-1.777
199	-1.618
200	-1.459
200	-1.337
201	-1.264
201	-1.211
202	-1.14
202	-1.084
203	-1.035
203	-0.994
204	-0.965
204	-0.94
205	-0.917
205	-0.908
205	-0.906
206	-0.903
206	-0.901
207	-0.897
207	-0.895
208	-0.893
208	-0.892
209	-0.889
209	-0.89
210	-0.89
210	-0.888
211	-0.887
211	-0.887
212	-0.884
212	-0.882
213	-0.88
213	-0.877
213	-0.875
214	-0.874
214	-0.87
215	-0.869
215	-0.864
216	-0.862
216	-0.86
217	-0.859
217	-0.859
218	-0.86
218	-0.858
219	-0.857
219	-0.854
220	-0.852
220	-0.85
221	-0.85
221	-0.847
221	-0.842
222	-0.836
222	-0.83
223	-0.823
223	-0.818
224	-0.809
224	-0.801
225	-0.793
225	-0.783
226	-0.773
226	-0.761
227	-0.749
227	-0.738
228	-0.719
228	-0.702
229	-0.681
229	-0.658
229	-0.632
230	-0.602
230	-0.569
231	-0.534
231	-0.496
232	-0.457
232	-0.416
233	-0.375
233	-0.331
234	-0.288
234	-0.245
235	-0.204
235	-0.163
236	-0.125
236	-0.088
236	-0.053
237	-0.02
237	0.011
238	0.04
238	0.066
239	0.09
239	0.111
240	0.131
240	0.149
241	0.165
241	0.18
242	0.193
242	0.205
243	0.216
243	0.226
243	0.235
244	0.243
244	0.251
245	0.257
245	0.263
246	0.269
246	0.274
247	0.279
247	0.284
248	0.288
248	0.293
249	0.296
249	0.3
250	0.303
250	0.306
250	0.31
251	0.313
251	0.315
252	0.318
252	0.32
253	0.323
253	0.324
254	0.326
254	0.328
255	0.33
255	0.332
256	0.333
256	0.334
257	0.335
257	0.336
258	0.337
258	0.338
258	0.338
259	0.339
259	0.339
260	0.339
260	0.34
261	0.34
261	0.34
262	0.34
262	0.34
263	0.34
263	0.339
264	0.339
264	0.338
265	0.338
265	0.337
265	0.336
266	0.335
266	0.334
267	0.333
267	0.332
268	0.33
268	0.329
269	0.328
269	0.326
270	0.324
270	0.323
271	0.321
271	0.319
272	0.317
272	0.316
272	0.314
273	0.312
273	0.31
274	0.309
274	0.307
275	0.305
275	0.303
276	0.302
276	0.3
277	0.298
277	0.295
278	0.293
278	0.291
278	0.288
279	0.285
279	0.283
280	0.281
280	0.279
281	0.277
281	0.275
282	0.273
282	0.271
283	0.269
283	0.268
284	0.267
284	0.265
285	0.264
285	0.262
285	0.26
286	0.259
286	0.257
287	0.256
287	0.254
288	0.253
288	0.251
289	0.25
289	0.248
290	0.247
290	0.246
291	0.244
291	0.243
292	0.242
292	0.24
292	0.239
293	0.238
293	0.237
294	0.236
294	0.235
295	0.234
295	0.233
296	0.232
296	0.231
297	0.23
297	0.229
298	0.228
298	0.227
298	0.227
299	0.226
299	0.225
300	0.224
300	0.224
301	0.223
301	0.222
302	0.222
302	0.221
303	0.221
303	0.22
304	0.219
304	0.218
305	0.218
305	0.217
305	0.217
306	0.216
306	0.215
307	0.215
307	0.214
308	0.213
308	0.212
309	0.212
309	0.211
310	0.21
310	0.21
311	0.209
311	0.209
311	0.208
312	0.207
312	0.207
313	0.206
313	0.206
314	0.205
314	0.204
315	0.204
315	0.203
316	0.202
316	0.202
317	0.201
317	0.2
318	0.2
318	0.199
318	0.198
319	0.198
319	0.197
320	0.196
320	0.196
321	0.195
321	0.194
322	0.194
322	0.193
323	0.192
323	0.192
324	0.191
324	0.191
324	0.19
325	0.189
325	0.189
326	0.189
326	0.188
327	0.187
327	0.187
328	0.186
328	0.186
329	0.185
329	0.185
330	0.184
330	0.183
330	0.183
331	0.182
331	0.182
332	0.181
332	0.18
333	0.18
333	0.179
334	0.178
334	0.178
335	0.177
335	0.177
336	0.176
336	0.176
336	0.175
337	0.175
337	0.175
338	0.174
338	0.174
339	0.173
339	0.173
340	0.172
340	0.172
341	0.172
341	0.171
342	0.171
342	0.17
342	0.17
343	0.169
343	0.169
344	0.168
344	0.168
345	0.168
345	0.167
346	0.167
346	0.167
347	0.166
347	0.166
348	0.166
348	0.166
348	0.165
349	0.165
349	0.165
350	0.164
350	0.164
351	0.163
351	0.163
352	0.162
352	0.162
353	0.161
353	0.161
354	0.161
354	0.16
354	0.159
355	0.159
355	0.158
356	0.158
356	0.158
357	0.157
357	0.157
358	0.157
358	0.157
359	0.157
359	0.157
360	0.157
360	0.157
360	0.157
361	0.157
361	0.158
362	0.158
362	0.158
363	0.158
363	0.158
364	0.158
364	0.158
365	0.157
365	0.157
366	0.157
366	0.156
366	0.156
367	0.156
367	0.156
368	0.155
368	0.155
369	0.155
369	0.155
370	0.154
370	0.154
371	0.154
371	0.154
372	0.154
372	0.153
372	0.153
373	0.153
373	0.153
374	0.153
374	0.153
375	0.153
375	0.153
376	0.153
376	0.152
377	0.152
377	0.152
378	0.152
378	0.152
378	0.152
379	0.152
379	0.152
380	0.152
380	0.152
381	0.152
381	0.152
382	0.152
382	0.151
383	0.151
383	0.151
383	0.151
384	0.151
384	0.151
385	0.15
385	0.15
386	0.15
386	0.15
387	0.15
387	0.15
388	0.15
388	0.15
389	0.149
389	0.149
389	0.149
390	0.149
390	0.149
391	0.149
391	0.15
392	0.15
392	0.149
393	0.149
393	0.149
394	0.149
394	0.149
394	0.149
395	0.149
395	0.148
396	0.148
396	0.148
397	0.148
397	0.148
398	0.148
398	0.148
399	0.147
399	0.147
400	0.147
400	0.146
400	0.146
401	0.146
401	0.146
402	0.145
402	0.145
403	0.145
403	0.145
404	0.144
404	0.144
405	0.144
405	0.144
405	0.143
406	0.143
406	0.143
407	0.143
407	0.143
408	0.143
408	0.142
409	0.142
409	0.142
410	0.142
410	0.142
411	0.142
411	0.142
411	0.142
412	0.141
412	0.141
413	0.141
413	0.141
414	0.141
414	0.141
415	0.141
415	0.14
416	0.14
416	0.14
416	0.14
417	0.139
417	0.139
418	0.139
418	0.139
419	0.139
419	0.139
420	0.139
420	0.139
421	0.139
421	0.14
421	0.14
422	0.14
422	0.14
423	0.14
423	0.14
424	0.139
424	0.139
425	0.138
425	0.138
426	0.137
426	0.137
427	0.137
427	0.137
427	0.137
428	0.137
428	0.138
429	0.138
429	0.138
430	0.138
430	0.138
431	0.138
431	0.138
432	0.138
432	0.137
432	0.137
433	0.136
433	0.136
434	0.136
434	0.136
435	0.135
435	0.135
436	0.135
436	0.135
437	0.135
437	0.135
437	0.135
438	0.134
438	0.134
439	0.134
439	0.134
440	0.134
440	0.134
441	0.134
441	0.134
442	0.134
442	0.134
442	0.134
443	0.135
443	0.135
444	0.135
444	0.135
445	0.135
445	0.135
446	0.136
446	0.135
447	0.135
447	0.135
447	0.135
448	0.135
448	0.135
449	0.135
449	0.135
450	0.134
450	0.134
451	0.134
451	0.134
452	0.134
452	0.134
452	0.133
453	0.133
453	0.133
454	0.132
454	0.132
455	0.131
455	0.131
456	0.131
456	0.131
457	0.13
457	0.13
458	0.13
458	0.13
458	0.13
459	0.131
459	0.131
460	0.131
460	0.13
461	0.13
461	0.13
462	0.13
462	0.131
463	0.131
463	0.131
463	0.132
464	0.132
464	0.132
465	0.132
465	0.132
466	0.132
466	0.132
467	0.132
467	0.132
467	0.131
468	0.131
468	0.13
469	0.13
469	0.13
470	0.13
470	0.13
471	0.13
471	0.13
472	0.13
472	0.13
472	0.131
473	0.131
473	0.132
474	0.132
474	0.133
475	0.133
475	0.134
476	0.134
476	0.134
477	0.134
477	0.134
477	0.135
478	0.135
478	0.135
479	0.136
479	0.137
480	0.137
480	0.138
481	0.139
481	0.14
482	0.14
482	0.141
482	0.142
483	0.143
483	0.145
484	0.147
484	0.147
485	0.148
485	0.149
486	0.149
486	0.15
487	0.151
487	0.151
487	0.151
488	0.151
488	0.151
489	0.151
489	0.151
490	0.152
490	0.152
491	0.153
491	0.154
492	0.155
492	0.156
492	0.157
493	0.158
493	0.159
494	0.16
494	0.162
495	0.163
495	0.164
496	0.165
496	0.166
496	0.167
497	0.168
497	0.169
498	0.17
498	0.171
499	0.172
499	0.172
500	0.173
500	0.175
501	0.176
501	0.178
501	0.179
502	0.18
502	0.182
503	0.183
503	0.184
504	0.185
504	0.186
505	0.186
505	0.187
506	0.187
506	0.188
506	0.189
507	0.189
507	0.19
508	0.19
508	0.191
509	0.192
509	0.193
510	0.194
510	0.195
511	0.196
511	0.196
511	0.197
512	0.198
512	0.198
513	0.198
513	0.199
514	0.198
514	0.198
515	0.198
515	0.198
515	0.199
516	0.199
516	0.2
517	0.201
517	0.202
518	0.203
518	0.203
519	0.203
519	0.202
520	0.202
520	0.201
520	0.2
521	0.198
521	0.196
522	0.195
522	0.194
523	0.193
523	0.193
524	0.193
524	0.195
524	0.196
525	0.198
525	0.199
526	0.201
526	0.203
527	0.204
527	0.205
528	0.206
528	0.207
529	0.207
529	0.207
529	0.206
530	0.206
530	0.206
531	0.206
531	0.205
532	0.204
532	0.203
533	0.203
533	0.202
533	0.201
534	0.2
534	0.199
535	0.198
535	0.197
536	0.196
536	0.195
537	0.194
537	0.193
538	0.192
538	0.191
538	0.189
539	0.188
539	0.187
540	0.186
540	0.185
541	0.183
541	0.182
542	0.18
542	0.178
542	0.177
543	0.175
543	0.173
544	0.172
544	0.171
545	0.17
545	0.169
546	0.168
546	0.166
547	0.165
547	0.163
547	0.161
548	0.16
548	0.158
549	0.156
549	0.154
550	0.153
550	0.151
551	0.149
551	0.147
551	0.145
552	0.144
552	0.143
553	0.141
553	0.14
554	0.139
554	0.137
555	0.135
555	0.133
556	0.131
556	0.129
556	0.127
557	0.126
557	0.124
558	0.122
558	0.12
559	0.118
559	0.117
560	0.116
560	0.114
560	0.113
561	0.113
561	0.112
562	0.111
562	0.11
563	0.109
563	0.107
564	0.106
564	0.104
564	0.103
565	0.101
565	0.1
566	0.099
566	0.097
567	0.096
567	0.096
568	0.095
568	0.095
568	0.095
569	0.096
569	0.096
570	0.096
570	0.095
571	0.095
571	0.095
572	0.095
572	0.094
573	0.094
573	0.093
573	0.092
574	0.091
574	0.09
575	0.089
575	0.089
576	0.089
576	0.088
577	0.086
577	0.085
577	0.084
578	0.083
578	0.083
579	0.084
579	0.084
580	0.083
580	0.081
581	0.079
581	0.078
581	0.078
582	0.077
582	0.077
583	0.077
583	0.076
584	0.074
584	0.071
585	0.07
585	0.07
585	0.07
586	0.07
586	0.07
587	0.068
587	0.067
588	0.065
588	0.064
589	0.064
589	0.063
590	0.063
590	0.062
590	0.063
591	0.064
591	0.063
592	0.063
592	0.062
593	0.062
593	0.062
594	0.061
594	0.06
594	0.059
595	0.059
595	0.057
596	0.056
596	0.057
597	0.059
597	0.06
598	0.06
598	0.06
598	0.061
599	0.061
599	0.061
600	0.06
600	0.059
601	0.059
601	0.058
602	0.057
602	0.057
602	0.056
603	0.056
603	0.057
604	0.057
604	0.058
605	0.059
605	0.06
606	0.06
606	0.059
606	0.058
607	0.057
607	0.057
608	0.057
608	0.055
609	0.054
609	0.054
610	0.053
610	0.052
610	0.052
611	0.053
611	0.054
612	0.055
612	0.056
613	0.057
613	0.058
614	0.058
614	0.057
614	0.058
615	0.057
615	0.057
616	0.057
616	0.057
617	0.056
617	0.056
618	0.055
618	0.055
618	0.055
619	0.055
619	0.056
620	0.058
620	0.058
621	0.059
621	0.06
622	0.06
622	0.061
622	0.061
623	0.061
623	0.062
624	0.063
624	0.063
625	0.062
625	0.063
626	0.062
626	0.062
626	0.063
627	0.063
627	0.063
628	0.064
628	0.064
629	0.064
629	0.064
630	0.064
630	0.064
630	0.064
631	0.065
631	0.066
632	0.066
632	0.067
633	0.068
633	0.069
634	0.07
634	0.072
634	0.074
635	0.075
635	0.076
636	0.078
636	0.079
637	0.08
637	0.081
638	0.082
638	0.084
638	0.085
639	0.085
639	0.086
640	0.087
640	0.089
641	0.09
641	0.092
642	0.094
642	0.095
642	0.097
643	0.098
643	0.099
644	0.101
644	0.102
645	0.103
645	0.104
646	0.105
646	0.107
646	0.109
647	0.111
647	0.114
648	0.116
648	0.118
649	0.12
649	0.123
650	0.125
650	0.127
650	0.129
651	0.13
651	0.132
652	0.133
652	0.135
653	0.138
653	0.145
653	0.153
654	0.124
654	0.102
655	0.104
655	0.106
656	0.108
656	0.109
657	0.111
657	0.112
657	0.113
658	0.111
658	0.104
659	0.13
659	0.166
660	0.172
660	0.174
661	0.175
661	0.177
661	0.18
662	0.183
662	0.186
663	0.188
663	0.191
664	0.193
664	0.196
665	0.198
665	0.201
665	0.203
666	0.205
666	0.207
667	0.208
667	0.21
668	0.212
668	0.214
669	0.216
669	0.219
669	0.222
670	0.225
670	0.227
671	0.229
671	0.231
672	0.233
672	0.235
672	0.236
673	0.238
673	0.239
674	0.24
674	0.24
675	0.241
675	0.242
676	0.243
676	0.245
676	0.245
677	0.247
677	0.248
678	0.249
678	0.25
679	0.251
679	0.253
680	0.254
680	0.255
680	0.255
681	0.256
681	0.257
682	0.257
682	0.258
683	0.259
683	0.26
684	0.261
684	0.262
684	0.262
685	0.263
685	0.264
686	0.264
686	0.265
687	0.265
687	0.265
687	0.264
688	0.264
688	0.263
689	0.262
689	0.262
690	0.262
690	0.261
691	0.26
691	0.26
691	0.259
692	0.258
692	0.258
693	0.257
693	0.257
694	0.257
694	0.255
695	0.256
695	0.256
695	0.256
696	0.255
696	0.254
697	0.253
697	0.252
698	0.251
698	0.25
698	0.249
699	0.248
699	0.246
700	0.244
700	0.243
701	0.243
701	0.241
702	0.24
702	0.239
702	0.238
703	0.236
703	0.234
704	0.233
704	0.231
705	0.23
705	0.228
705	0.226
706	0.224
706	0.223
707	0.221
707	0.218
708	0.216
708	0.215
709	0.213
709	0.21
709	0.208
710	0.205
710	0.203
711	0.201
711	0.199
712	0.197
712	0.196
713	0.194
713	0.193
713	0.192
714	0.19
714	0.188
715	0.187
715	0.186
716	0.184
716	0.184
716	0.182
717	0.181
717	0.18
718	0.178
718	0.177
719	0.176
719	0.175
720	0.173
720	0.171
720	0.169
721	0.166
721	0.164
722	0.161
722	0.158
723	0.156
723	0.154
723	0.152
724	0.15
724	0.148
725	0.146
725	0.144
726	0.143
726	0.141
727	0.139
727	0.138
727	0.136
728	0.134
728	0.133
729	0.132
729	0.13
730	0.128
730	0.126
730	0.125
731	0.123
731	0.122
732	0.121
732	0.119
733	0.118
733	0.117
734	0.116
734	0.115
734	0.114
735	0.113
735	0.111
736	0.11
736	0.109
737	0.107
737	0.106
737	0.104
738	0.102
738	0.099
739	0.097
739	0.095
740	0.093
740	0.091
741	0.089
741	0.086
741	0.083
742	0.08
742	0.077
743	0.075
743	0.072
744	0.07
744	0.068
744	0.066
745	0.064
745	0.062
746	0.061
746	0.06
747	0.06
747	0.06
748	0.059
748	0.059
748	0.059
749	0.059
749	0.059
750	0.058
750	0.058
751	0.058
751	0.058
751	0.057
752	0.056
752	0.055
753	0.054
753	0.053
754	0.052
754	0.051
754	0.051
755	0.051
755	0.051
756	0.05
756	0.049
757	0.048
757	0.049
758	0.049
758	0.048
758	0.048
759	0.048
759	0.046
760	0.045
760	0.044
761	0.044
761	0.044
761	0.043
762	0.042
762	0.041
763	0.04
763	0.039
764	0.037
764	0.035
764	0.034
765	0.032
765	0.03
766	0.029
766	0.028
767	0.027
767	0.024
768	0.022
768	0.02
768	0.019
769	0.018
769	0.017
770	0.016
770	0.014
771	0.012
771	0.01
771	0.008
772	0.006
772	0.005
773	0.003
773	0
774	-0.002
774	-0.004
775	-0.006
775	-0.008
775	-0.01
776	-0.011
776	-0.013
777	-0.015
777	-0.016
778	-0.019
778	-0.021
778	-0.023
779	-0.025
779	-0.027
780	-0.03
780	-0.033
781	-0.036
781	-0.041
781	-0.045
782	-0.05
782	-0.056
783	-0.061
783	-0.066
784	-0.073
784	-0.081
784	-0.088
785	-0.095
785	-0.103
786	-0.108
786	-0.11
787	-0.11
787	-0.11
788	-0.113
788	-0.117
788	-0.12
789	-0.123
789	-0.123
790	-0.122
790	-0.121
791	-0.122
791	-0.125
791	-0.128
792	-0.123
792	-0.113
793	-0.108
793	-0.104
794	-0.102
794	-0.103
794	-0.107
795	-0.108
795	-0.108
796	-0.108
796	-0.11
797	-0.118
797	-0.128
797	-0.134
798	-0.139
798	-0.142
799	-0.143
799	-0.143
800	-0.143
800	-0.145
801	-0.148
801	-0.149
801	-0.15
802	-0.151
802	-0.152
803	-0.152
803	-0.152
804	-0.151
804	-0.145
804	-0.138
805	-0.133
805	-0.13
806	-0.128
806	-0.126
807	-0.124
807	-0.124
807	-0.124
808	-0.124
808	-0.125
809	-0.13
809	-0.136
810	-0.14
810	-0.143
810	-0.147
811	-0.151
811	-0.152
812	-0.149
812	-0.146
813	-0.147
813	-0.148
813	-0.149
814	-0.15
814	-0.15
815	-0.148
815	-0.145
816	-0.143
816	-0.143
817	-0.147
817	-0.148
817	-0.147
818	-0.143
818	-0.137
819	-0.131
819	-0.125
820	-0.121
820	-0.117
820	-0.112
821	-0.104
821	-0.096
822	-0.088
822	-0.08
823	-0.073
823	-0.068
823	-0.063
824	-0.057
824	-0.051
825	-0.045
825	-0.039
826	-0.034
826	-0.031
826	-0.027
827	-0.024
827	-0.021
828	-0.019
828	-0.017
829	-0.016
829	-0.015
829	-0.015
830	-0.015
830	-0.015
831	-0.014
831	-0.013
832	-0.013
832	-0.012
832	-0.011
833	-0.01
833	-0.009
834	-0.008
834	-0.007
835	-0.006
835	-0.005
835	-0.004
836	-0.004
836	-0.003
837	-0.003
837	-0.003
838	-0.003
838	-0.003
839	-0.003
839	-0.003
839	-0.004
840	-0.004
840	-0.004
841	-0.004
841	-0.003
842	-0.003
842	-0.002
842	-0.001
843	-0.001
843	0
844	0.001
844	0.002
845	0.003
845	0.004
845	0.004
846	0.004
846	0.004
847	0.004
847	0.005
848	0.006
848	0.007
848	0.008
849	0.009
849	0.01
850	0.01
850	0.011
851	0.012
851	0.012
851	0.012
852	0.012
852	0.011
853	0.01
853	0.009
854	0.008
854	0.007
854	0.006
855	0.005
855	0.004
856	0.003
856	0.003
857	0.003
857	0.003
857	0.004
858	0.005
858	0.007
859	0.008
859	0.01
860	0.012
860	0.014
860	0.015
861	0.017
861	0.018
862	0.018
862	0.019
863	0.019
863	0.019
863	0.018
864	0.018
864	0.017
865	0.017
865	0.016
866	0.015
866	0.015
866	0.014
867	0.014
867	0.013
868	0.012
868	0.012
869	0.011
869	0.01
869	0.008
870	0.007
870	0.005
871	0.004
871	0.004
872	0.003
872	0.002
872	0.001
873	0.001
873	0
874	0.001
874	0.001
875	0.002
875	0.002
875	0.003
876	0.003
876	0.004
877	0.005
877	0.005
878	0.006
878	0.007
878	0.007
879	0.008
879	0.008
880	0.008
880	0.009
881	0.009
881	0.009
881	0.009
882	0.009
882	0.009
883	0.009
883	0.01
884	0.01
884	0.01
884	0.01
885	0.01
885	0.01
886	0.01
886	0.011
887	0.011
887	0.011
887	0.011
888	0.012
888	0.012
889	0.013
889	0.014
890	0.015
890	0.016
890	0.016
891	0.017
891	0.017
892	0.017
892	0.017
893	0.017
893	0.016
893	0.016
894	0.016
894	0.015
895	0.014
895	0.012
895	0.011
896	0.01
896	0.009
897	0.007
897	0.006
898	0.005
898	0.004
898	0.003
899	0.002
899	0.001
900	0.001
900	0.001
901	0.001
901	0.001
901	0.001
902	0.001
902	0.001
903	0
903	0
904	0
904	-0
904	-0.001
905	-0.001
905	-0.001
906	-0.001
906	-0
907	0
907	0.001
907	0.002
908	0.002
908	0.003
909	0.005
909	0.006
910	0.007
910	0.008
910	0.009
911	0.009
911	0.01
912	0.01
912	0.01
913	0.01
913	0.01
913	0.009
914	0.009
914	0.008
915	0.007
915	0.006
916	0.005
916	0.005
916	0.005
917	0.004
917	0.004
918	0.004
918	0.004
918	0.004
919	0.004
919	0.003
920	0.003
920	0.003
921	0.003
921	0.002
921	0.002
922	0.002
922	0.002
923	0.002
923	0.002
924	0.002
924	0.003
924	0.003
925	0.003
925	0.004
926	0.004
926	0.004
927	0.004
927	0.004
927	0.004
928	0.004
928	0.003
929	0.003
929	0.003
930	0.003
930	0.002
930	0.002
931	0.001
931	0.001
932	0.001
932	0
933	0
933	-0
933	-0.001
934	-0.001
934	-0.001
935	-0.002
935	-0.002
935	-0.002
936	-0.003
936	-0.003
937	-0.002
937	-0.002
938	-0.002
938	-0.002
938	-0.001
939	-0.001
939	-0
940	0.001
940	0.001
941	0.002
941	0.002
941	0.003
942	0.004
942	0.004
943	0.005
943	0.005
944	0.005
944	0.006
944	0.006
945	0.007
945	0.007
946	0.008
946	0.008
946	0.008
947	0.009
947	0.009
948	0.01
948	0.01
949	0.01
949	0.01
949	0.011
950	0.011
950	0.012
951	0.013
951	0.013
952	0.014
952	0.015
952	0.016
953	0.017
953	0.017
954	0.017
954	0.017
955	0.017
955	0.016
955	0.016
956	0.015
956	0.014
957	0.013
957	0.012
957	0.011
958	0.01
958	0.009
959	0.008
959	0.007
960	0.006
960	0.004
960	0.003
961	0.002
961	0
962	-0.001
962	-0.002
963	-0.003
963	-0.005
963	-0.005
964	-0.006
964	-0.007
965	-0.007
965	-0.007
966	-0.007
966	-0.006
966	-0.006
967	-0.006
967	-0.006
968	-0.006
968	-0.006
968	-0.006
969	-0.006
969	-0.005
970	-0.005
970	-0.005
971	-0.005
971	-0.004
971	-0.004
972	-0.003
972	-0.003
973	-0.002
973	-0.001
974	-0
974	0.001
974	0.001
975	0.002
975	0.003
976	0.003
976	0.004
976	0.004
977	0.003
977	0.003
978	0.003
978	0.002
979	0.001
979	0.001
979	-0
980	-0.001
980	-0.003
981	-0.004
981	-0.005
982	-0.005
982	-0.006
982	-0.006
983	-0.006
983	-0.006
984	-0.006
984	-0.006
984	-0.005
985	-0.005
985	-0.004
986	-0.003
986	-0.003
987	-0.002
987	-0.002
987	-0.001
988	-0.001
988	-0
989	-0
989	-0
990	-0
990	-0
990	-0
991	0
991	0.001
992	0.001
992	0.001
992	0.002
993	0.002
993	0.003
994	0.003
994	0.004
995	0.004
995	0.004
995	0.004
996	0.004
996	0.003
997	0.002
997	0.002
997	0.001
998	0.001
998	0
999	-0.001
999	-0.001
1000	-0.002
1000	-0.002
1000	-0.002
1001	-0.003
1001	-0.003
1002	-0.003
1002	-0.003
1003	-0.004
1003	-0.004
1003	-0.004
1004	-0.004
1004	-0.005
1005	-0.005
1005	-0.006
1005	-0.006
1006	-0.007
1006	-0.007
1007	-0.008
1007	-0.008
1008	-0.009
1008	-0.009
1008	-0.01
1009	-0.01
1009	-0.01
1010	-0.01
1010	-0.01
1010	-0.01
1011	-0.01
1011	-0.01
1012	-0.009
1012	-0.009
1013	-0.009
1013	-0.008
1013	-0.008
1014	-0.008
1014	-0.007
1015	-0.007
1015	-0.006
1016	-0.006
1016	-0.005
1016	-0.005
1017	-0.005
1017	-0.004
1018	-0.003
1018	-0.003
1018	-0.003
1019	-0.002
1019	-0.002
1020	-0.002
1020	-0.002
1021	-0.002
1021	-0.002
1021	-0.003
1022	-0.003
1022	-0.003
1023	-0.004
1023	-0.004
1023	-0.005
1024	-0.006
1024	-0.006
1025	-0.006
1025	-0.007
1026	-0.007
1026	-0.007
1026	-0.007
1027	-0.007
1027	-0.006
1028	-0.006
1028	-0.005
1028	-0.005
1029	-0.005
1029	-0.004
1030	-0.004
1030	-0.004
1031	-0.004
1031	-0.004
1031	-0.004
1032	-0.005
1032	-0.005
1033	-0.005
1033	-0.006
1033	-0.007
1034	-0.008
1034	-0.009
1035	-0.009
1035	-0.01
1036	-0.011
1036	-0.012
1036	-0.012
1037	-0.012
1037	-0.013
1038	-0.013
1038	-0.013
1039	-0.013
1039	-0.013
1039	-0.013
1040	-0.013
1040	-0.014
1041	-0.014
1041	-0.015
1041	-0.015
1042	-0.016
1042	-0.016
1043	-0.017
1043	-0.017
1044	-0.018
1044	-0.019
1044	-0.019
1045	-0.019
1045	-0.02
1046	-0.02
1046	-0.02
1046	-0.02
1047	-0.02
1047	-0.019
1048	-0.018
1048	-0.018
1049	-0.017
1049	-0.017
1049	-0.016
1050	-0.016
1050	-0.015
1051	-0.014
1051	-0.014
1051	-0.013
1052	-0.012
1052	-0.011
1053	-0.01
1053	-0.01
1053	-0.009
1054	-0.008
1054	-0.007
1055	-0.007
1055	-0.006
1056	-0.006
1056	-0.007
1056	-0.008
1057	-0.009
1057	-0.009
1058	-0.01
1058	-0.01
1058	-0.011
1059	-0.012
1059	-0.013
1060	-0.014
1060	-0.015
1061	-0.015
1061	-0.015
1061	-0.015
1062	-0.015
1062	-0.016
1063	-0.016
1063	-0.017
1063	-0.017
1064	-0.017
1064	-0.016
1065	-0.016
1065	-0.016
1066	-0.016
1066	-0.016
1066	-0.014
1067	-0.014
1067	-0.012
1068	-0.011
1068	-0.01
1068	-0.01
1069	-0.009
1069	-0.009
1070	-0.008
1070	-0.007
1071	-0.007
1071	-0.006
1071	-0.005
1072	-0.004
1072	-0.003
1073	-0.002
1073	-0.001
1073	-0
1074	0.001
1074	0.002
1075	0.002
1075	0.002
1076	0.002
1076	0.003
1076	0.002
1077	0.002
1077	0.003
1078	0.003
1078	0.004
1078	0.004
1079	0.005
1079	0.006
1080	0.006
1080	0.008
1080	0.009
1081	0.01
1081	0.011
1082	0.011
1082	0.011
1083	0.012
1083	0.012
1083	0.013
1084	0.014
1084	0.015
1085	0.016
1085	0.017
1085	0.018
1086	0.019
1086	0.019
1087	0.02
1087	0.021
1088	0.022
1088	0.022
1088	0.023
1089	0.024
1089	0.024
1090	0.025
1090	0.026
1090	0.027
1091	0.028
1091	0.029
1092	0.03
1092	0.033
1092	0.034
1093	0.034
1093	0.036
1094	0.038
1094	0.039
1095	0.04
1095	0.042
1095	0.046
1096	0.049
1096	0.052
1097	0.055
1097	0.057
1097	0.062
1098	0.065
1098	0.069
1099	0.074
1099	0.078
1100	0.083
1100	0.088
1100	0.093
1101	0.098
1101	0.104
1102	0.112
1102	0.121
1102	0.13
1103	0.14
1103	0.151
1104	0.164
1104	0.177
1104	0.192
1105	0.209
1105	0.228
1106	0.244
1106	0.264
1107	0.287
1107	0.319
1107	0.361
1108	0.504
1108	0.778
1109	-0
1109	-0
1109	-0
1110	-0
1110	-0
1111	-0
1111	-0
