Data from 15c-2-2a_Absorbance__1684__03485.txt Node

Date: Wed Jan 24 14:00:00 CET 2024
User: Marek
Spectrometer: MAYP115816
Trigger mode: 0
Integration Time (sec): 2.000000E-1
Scans to average: 10
Electric dark correction enabled: true
Nonlinearity correction enabled: true
Boxcar width: 5
XAxis mode: Wavelengths
Number of Pixels in Spectrum: 2068
>>>>>Begin Spectral Data<<<<<
199	-1.812
199	-1.652
200	-1.492
200	-1.368
201	-1.295
201	-1.242
202	-1.17
202	-1.113
203	-1.064
203	-1.023
204	-0.993
204	-0.968
205	-0.946
205	-0.937
205	-0.935
206	-0.931
206	-0.93
207	-0.926
207	-0.923
208	-0.921
208	-0.92
209	-0.917
209	-0.918
210	-0.917
210	-0.915
211	-0.914
211	-0.913
212	-0.911
212	-0.909
213	-0.907
213	-0.905
213	-0.902
214	-0.9
214	-0.896
215	-0.895
215	-0.891
216	-0.89
216	-0.887
217	-0.885
217	-0.885
218	-0.885
218	-0.884
219	-0.882
219	-0.88
220	-0.878
220	-0.875
221	-0.876
221	-0.873
221	-0.868
222	-0.862
222	-0.856
223	-0.849
223	-0.843
224	-0.835
224	-0.826
225	-0.818
225	-0.808
226	-0.798
226	-0.786
227	-0.773
227	-0.761
228	-0.743
228	-0.725
229	-0.704
229	-0.681
229	-0.654
230	-0.624
230	-0.591
231	-0.555
231	-0.517
232	-0.477
232	-0.434
233	-0.392
233	-0.347
234	-0.302
234	-0.258
235	-0.214
235	-0.171
236	-0.131
236	-0.091
236	-0.054
237	-0.018
237	0.015
238	0.046
238	0.075
239	0.101
239	0.125
240	0.148
240	0.167
241	0.186
241	0.203
242	0.218
242	0.232
243	0.245
243	0.256
243	0.266
244	0.276
244	0.284
245	0.292
245	0.299
246	0.306
246	0.312
247	0.317
247	0.323
248	0.328
248	0.333
249	0.337
249	0.341
250	0.345
250	0.348
250	0.352
251	0.355
251	0.358
252	0.361
252	0.364
253	0.367
253	0.369
254	0.371
254	0.373
255	0.375
255	0.377
256	0.379
256	0.38
257	0.381
257	0.382
258	0.383
258	0.384
258	0.385
259	0.386
259	0.386
260	0.386
260	0.386
261	0.386
261	0.387
262	0.387
262	0.387
263	0.387
263	0.386
264	0.386
264	0.386
265	0.385
265	0.385
265	0.384
266	0.383
266	0.383
267	0.382
267	0.38
268	0.379
268	0.378
269	0.377
269	0.375
270	0.373
270	0.371
271	0.37
271	0.368
272	0.366
272	0.364
272	0.362
273	0.36
273	0.358
274	0.357
274	0.355
275	0.353
275	0.351
276	0.35
276	0.348
277	0.346
277	0.344
278	0.341
278	0.339
278	0.336
279	0.334
279	0.331
280	0.329
280	0.326
281	0.324
281	0.322
282	0.32
282	0.319
283	0.317
283	0.316
284	0.314
284	0.313
285	0.311
285	0.309
285	0.308
286	0.306
286	0.304
287	0.303
287	0.301
288	0.3
288	0.298
289	0.297
289	0.295
290	0.293
290	0.292
291	0.291
291	0.29
292	0.288
292	0.287
292	0.286
293	0.285
293	0.283
294	0.282
294	0.281
295	0.28
295	0.279
296	0.278
296	0.277
297	0.276
297	0.275
298	0.274
298	0.274
298	0.273
299	0.272
299	0.271
300	0.27
300	0.27
301	0.269
301	0.268
302	0.267
302	0.266
303	0.266
303	0.265
304	0.264
304	0.263
305	0.262
305	0.262
305	0.261
306	0.261
306	0.26
307	0.259
307	0.258
308	0.257
308	0.257
309	0.256
309	0.255
310	0.254
310	0.254
311	0.253
311	0.252
311	0.251
312	0.251
312	0.25
313	0.249
313	0.249
314	0.248
314	0.247
315	0.246
315	0.246
316	0.245
316	0.244
317	0.243
317	0.242
318	0.242
318	0.241
318	0.24
319	0.24
319	0.239
320	0.238
320	0.237
321	0.237
321	0.236
322	0.235
322	0.235
323	0.234
323	0.233
324	0.232
324	0.232
324	0.231
325	0.23
325	0.23
326	0.229
326	0.229
327	0.228
327	0.227
328	0.227
328	0.226
329	0.225
329	0.225
330	0.224
330	0.223
330	0.223
331	0.222
331	0.221
332	0.221
332	0.22
333	0.219
333	0.218
334	0.218
334	0.217
335	0.216
335	0.216
336	0.215
336	0.215
336	0.214
337	0.214
337	0.213
338	0.213
338	0.212
339	0.212
339	0.211
340	0.211
340	0.21
341	0.21
341	0.209
342	0.209
342	0.208
342	0.208
343	0.207
343	0.207
344	0.206
344	0.206
345	0.205
345	0.205
346	0.205
346	0.204
347	0.204
347	0.203
348	0.203
348	0.203
348	0.202
349	0.202
349	0.202
350	0.201
350	0.201
351	0.2
351	0.2
352	0.199
352	0.199
353	0.198
353	0.198
354	0.197
354	0.197
354	0.196
355	0.195
355	0.195
356	0.194
356	0.194
357	0.193
357	0.193
358	0.192
358	0.192
359	0.193
359	0.193
360	0.193
360	0.193
360	0.194
361	0.194
361	0.194
362	0.195
362	0.195
363	0.195
363	0.195
364	0.194
364	0.194
365	0.194
365	0.193
366	0.193
366	0.193
366	0.192
367	0.192
367	0.192
368	0.192
368	0.191
369	0.191
369	0.191
370	0.191
370	0.19
371	0.19
371	0.19
372	0.19
372	0.189
372	0.189
373	0.189
373	0.189
374	0.189
374	0.189
375	0.188
375	0.188
376	0.188
376	0.188
377	0.188
377	0.188
378	0.188
378	0.188
378	0.188
379	0.188
379	0.188
380	0.188
380	0.188
381	0.188
381	0.187
382	0.187
382	0.187
383	0.187
383	0.187
383	0.186
384	0.186
384	0.186
385	0.186
385	0.185
386	0.185
386	0.185
387	0.185
387	0.185
388	0.185
388	0.184
389	0.184
389	0.184
389	0.184
390	0.184
390	0.184
391	0.184
391	0.184
392	0.184
392	0.184
393	0.184
393	0.184
394	0.183
394	0.183
394	0.183
395	0.183
395	0.182
396	0.182
396	0.182
397	0.182
397	0.182
398	0.182
398	0.182
399	0.181
399	0.181
400	0.181
400	0.18
400	0.18
401	0.18
401	0.179
402	0.179
402	0.179
403	0.178
403	0.178
404	0.178
404	0.178
405	0.178
405	0.177
405	0.177
406	0.177
406	0.177
407	0.176
407	0.176
408	0.176
408	0.176
409	0.175
409	0.175
410	0.175
410	0.175
411	0.175
411	0.175
411	0.175
412	0.174
412	0.174
413	0.174
413	0.174
414	0.174
414	0.173
415	0.173
415	0.173
416	0.172
416	0.172
416	0.172
417	0.171
417	0.171
418	0.171
418	0.171
419	0.171
419	0.171
420	0.172
420	0.172
421	0.172
421	0.172
421	0.172
422	0.173
422	0.173
423	0.172
423	0.172
424	0.172
424	0.171
425	0.17
425	0.17
426	0.17
426	0.169
427	0.169
427	0.169
427	0.169
428	0.169
428	0.17
429	0.17
429	0.17
430	0.17
430	0.17
431	0.17
431	0.17
432	0.17
432	0.169
432	0.169
433	0.168
433	0.168
434	0.167
434	0.167
435	0.167
435	0.167
436	0.167
436	0.167
437	0.167
437	0.166
437	0.166
438	0.166
438	0.166
439	0.166
439	0.166
440	0.166
440	0.166
441	0.166
441	0.166
442	0.166
442	0.166
442	0.166
443	0.166
443	0.167
444	0.167
444	0.167
445	0.167
445	0.167
446	0.167
446	0.167
447	0.167
447	0.167
447	0.167
448	0.167
448	0.167
449	0.167
449	0.167
450	0.166
450	0.166
451	0.166
451	0.166
452	0.165
452	0.165
452	0.165
453	0.164
453	0.164
454	0.163
454	0.163
455	0.162
455	0.162
456	0.161
456	0.161
457	0.161
457	0.161
458	0.161
458	0.161
458	0.161
459	0.162
459	0.162
460	0.162
460	0.162
461	0.162
461	0.162
462	0.162
462	0.162
463	0.163
463	0.163
463	0.164
464	0.164
464	0.163
465	0.163
465	0.164
466	0.164
466	0.164
467	0.164
467	0.164
467	0.163
468	0.162
468	0.162
469	0.161
469	0.161
470	0.161
470	0.161
471	0.161
471	0.161
472	0.161
472	0.161
472	0.162
473	0.163
473	0.164
474	0.164
474	0.164
475	0.165
475	0.165
476	0.166
476	0.166
477	0.166
477	0.167
477	0.167
478	0.167
478	0.168
479	0.168
479	0.169
480	0.17
480	0.171
481	0.172
481	0.173
482	0.174
482	0.175
482	0.176
483	0.177
483	0.179
484	0.181
484	0.182
485	0.182
485	0.183
486	0.184
486	0.185
487	0.186
487	0.186
487	0.187
488	0.187
488	0.186
489	0.186
489	0.186
490	0.187
490	0.188
491	0.188
491	0.189
492	0.19
492	0.191
492	0.193
493	0.194
493	0.195
494	0.197
494	0.199
495	0.2
495	0.201
496	0.202
496	0.204
496	0.205
497	0.206
497	0.207
498	0.208
498	0.209
499	0.21
499	0.211
500	0.212
500	0.214
501	0.215
501	0.217
501	0.219
502	0.22
502	0.221
503	0.223
503	0.225
504	0.226
504	0.227
505	0.227
505	0.228
506	0.229
506	0.229
506	0.23
507	0.231
507	0.232
508	0.232
508	0.234
509	0.235
509	0.236
510	0.237
510	0.238
511	0.239
511	0.239
511	0.24
512	0.241
512	0.241
513	0.242
513	0.241
514	0.241
514	0.241
515	0.241
515	0.242
515	0.242
516	0.242
516	0.244
517	0.244
517	0.245
518	0.245
518	0.246
519	0.246
519	0.245
520	0.244
520	0.243
520	0.241
521	0.24
521	0.238
522	0.236
522	0.235
523	0.235
523	0.235
524	0.236
524	0.238
524	0.239
525	0.241
525	0.243
526	0.245
526	0.247
527	0.249
527	0.25
528	0.25
528	0.251
529	0.251
529	0.251
529	0.251
530	0.251
530	0.25
531	0.25
531	0.249
532	0.248
532	0.247
533	0.246
533	0.245
533	0.244
534	0.243
534	0.242
535	0.241
535	0.24
536	0.238
536	0.237
537	0.237
537	0.236
538	0.234
538	0.233
538	0.231
539	0.23
539	0.229
540	0.228
540	0.226
541	0.224
541	0.222
542	0.221
542	0.219
542	0.217
543	0.215
543	0.213
544	0.211
544	0.21
545	0.208
545	0.207
546	0.206
546	0.205
547	0.203
547	0.2
547	0.198
548	0.197
548	0.195
549	0.193
549	0.191
550	0.189
550	0.187
551	0.185
551	0.183
551	0.181
552	0.179
552	0.177
553	0.175
553	0.174
554	0.173
554	0.171
555	0.169
555	0.166
556	0.164
556	0.161
556	0.159
557	0.157
557	0.155
558	0.153
558	0.151
559	0.15
559	0.148
560	0.146
560	0.145
560	0.144
561	0.143
561	0.142
562	0.141
562	0.139
563	0.138
563	0.136
564	0.134
564	0.132
564	0.13
565	0.128
565	0.127
566	0.125
566	0.123
567	0.122
567	0.121
568	0.12
568	0.12
568	0.12
569	0.12
569	0.121
570	0.12
570	0.12
571	0.12
571	0.119
572	0.119
572	0.118
573	0.118
573	0.117
573	0.115
574	0.114
574	0.113
575	0.113
575	0.113
576	0.112
576	0.111
577	0.109
577	0.108
577	0.107
578	0.106
578	0.105
579	0.106
579	0.106
580	0.105
580	0.102
581	0.1
581	0.099
581	0.098
582	0.097
582	0.097
583	0.097
583	0.096
584	0.093
584	0.091
585	0.09
585	0.09
585	0.089
586	0.089
586	0.089
587	0.087
587	0.086
588	0.084
588	0.083
589	0.082
589	0.081
590	0.081
590	0.08
590	0.081
591	0.081
591	0.081
592	0.08
592	0.079
593	0.079
593	0.079
594	0.078
594	0.077
594	0.076
595	0.075
595	0.074
596	0.072
596	0.073
597	0.075
597	0.075
598	0.075
598	0.076
598	0.077
599	0.077
599	0.076
600	0.076
600	0.075
601	0.075
601	0.074
602	0.073
602	0.072
602	0.071
603	0.071
603	0.072
604	0.073
604	0.073
605	0.074
605	0.076
606	0.076
606	0.075
606	0.074
607	0.073
607	0.073
608	0.072
608	0.071
609	0.07
609	0.07
610	0.069
610	0.068
610	0.068
611	0.068
611	0.069
612	0.07
612	0.071
613	0.072
613	0.073
614	0.073
614	0.073
614	0.073
615	0.073
615	0.072
616	0.072
616	0.072
617	0.072
617	0.071
618	0.07
618	0.069
618	0.069
619	0.07
619	0.071
620	0.072
620	0.073
621	0.073
621	0.074
622	0.074
622	0.075
622	0.076
623	0.076
623	0.077
624	0.078
624	0.077
625	0.077
625	0.078
626	0.078
626	0.078
626	0.078
627	0.079
627	0.079
628	0.08
628	0.08
629	0.08
629	0.08
630	0.08
630	0.08
630	0.081
631	0.082
631	0.083
632	0.083
632	0.084
633	0.085
633	0.086
634	0.087
634	0.089
634	0.091
635	0.093
635	0.094
636	0.096
636	0.097
637	0.098
637	0.099
638	0.101
638	0.102
638	0.104
639	0.104
639	0.106
640	0.107
640	0.108
641	0.11
641	0.112
642	0.114
642	0.116
642	0.117
643	0.119
643	0.12
644	0.121
644	0.123
645	0.124
645	0.125
646	0.127
646	0.129
646	0.131
647	0.134
647	0.137
648	0.139
648	0.141
649	0.144
649	0.146
650	0.149
650	0.152
650	0.154
651	0.156
651	0.158
652	0.16
652	0.162
653	0.165
653	0.172
653	0.18
654	0.145
654	0.119
655	0.122
655	0.124
656	0.126
656	0.128
657	0.13
657	0.131
657	0.132
658	0.13
658	0.122
659	0.154
659	0.197
660	0.203
660	0.206
661	0.207
661	0.21
661	0.212
662	0.215
662	0.218
663	0.222
663	0.225
664	0.228
664	0.23
665	0.233
665	0.235
665	0.238
666	0.24
666	0.242
667	0.244
667	0.246
668	0.248
668	0.251
669	0.253
669	0.256
669	0.26
670	0.264
670	0.266
671	0.269
671	0.271
672	0.273
672	0.275
672	0.277
673	0.279
673	0.281
674	0.281
674	0.282
675	0.283
675	0.284
676	0.285
676	0.287
676	0.288
677	0.289
677	0.291
678	0.292
678	0.293
679	0.294
679	0.296
680	0.297
680	0.299
680	0.299
681	0.3
681	0.301
682	0.301
682	0.302
683	0.303
683	0.305
684	0.306
684	0.307
684	0.307
685	0.308
685	0.309
686	0.31
686	0.31
687	0.31
687	0.31
687	0.31
688	0.309
688	0.308
689	0.308
689	0.307
690	0.307
690	0.306
691	0.305
691	0.304
691	0.304
692	0.303
692	0.302
693	0.302
693	0.302
694	0.301
694	0.299
695	0.3
695	0.3
695	0.3
696	0.298
696	0.297
697	0.296
697	0.295
698	0.294
698	0.293
698	0.291
699	0.291
699	0.289
700	0.286
700	0.285
701	0.284
701	0.283
702	0.282
702	0.28
702	0.279
703	0.277
703	0.275
704	0.273
704	0.271
705	0.27
705	0.268
705	0.266
706	0.264
706	0.262
707	0.26
707	0.258
708	0.255
708	0.253
709	0.251
709	0.248
709	0.245
710	0.242
710	0.24
711	0.238
711	0.235
712	0.233
712	0.231
713	0.23
713	0.228
713	0.227
714	0.225
714	0.223
715	0.221
715	0.22
716	0.218
716	0.217
716	0.215
717	0.214
717	0.212
718	0.21
718	0.209
719	0.207
719	0.206
720	0.204
720	0.202
720	0.199
721	0.197
721	0.194
722	0.191
722	0.188
723	0.185
723	0.183
723	0.18
724	0.178
724	0.176
725	0.173
725	0.171
726	0.169
726	0.168
727	0.166
727	0.164
727	0.162
728	0.16
728	0.158
729	0.157
729	0.155
730	0.153
730	0.151
730	0.149
731	0.147
731	0.146
732	0.145
732	0.143
733	0.142
733	0.141
734	0.139
734	0.138
734	0.137
735	0.136
735	0.134
736	0.132
736	0.13
737	0.129
737	0.127
737	0.125
738	0.122
738	0.119
739	0.117
739	0.115
740	0.112
740	0.11
741	0.108
741	0.105
741	0.102
742	0.098
742	0.095
743	0.093
743	0.09
744	0.088
744	0.085
744	0.083
745	0.081
745	0.079
746	0.078
746	0.077
747	0.076
747	0.076
748	0.075
748	0.075
748	0.075
749	0.074
749	0.074
750	0.073
750	0.073
751	0.072
751	0.072
751	0.072
752	0.071
752	0.069
753	0.068
753	0.067
754	0.066
754	0.065
754	0.065
755	0.065
755	0.065
756	0.064
756	0.062
757	0.062
757	0.062
758	0.062
758	0.061
758	0.061
759	0.06
759	0.059
760	0.057
760	0.056
761	0.055
761	0.055
761	0.054
762	0.053
762	0.052
763	0.051
763	0.05
764	0.048
764	0.046
764	0.045
765	0.043
765	0.04
766	0.039
766	0.038
767	0.036
767	0.033
768	0.031
768	0.029
768	0.028
769	0.026
769	0.025
770	0.023
770	0.022
771	0.019
771	0.017
771	0.014
772	0.013
772	0.011
773	0.009
773	0.006
774	0.004
774	0.002
775	-0
775	-0.002
775	-0.004
776	-0.006
776	-0.008
777	-0.01
777	-0.011
778	-0.014
778	-0.017
778	-0.019
779	-0.021
779	-0.023
780	-0.026
780	-0.03
781	-0.033
781	-0.038
781	-0.042
782	-0.048
782	-0.054
783	-0.06
783	-0.065
784	-0.073
784	-0.08
784	-0.088
785	-0.096
785	-0.104
786	-0.109
786	-0.111
787	-0.111
787	-0.111
788	-0.114
788	-0.118
788	-0.12
789	-0.123
789	-0.124
790	-0.122
790	-0.121
791	-0.122
791	-0.125
791	-0.128
792	-0.123
792	-0.113
793	-0.107
793	-0.104
794	-0.102
794	-0.103
794	-0.106
795	-0.108
795	-0.108
796	-0.108
796	-0.11
797	-0.118
797	-0.128
797	-0.134
798	-0.139
798	-0.142
799	-0.143
799	-0.142
800	-0.142
800	-0.145
801	-0.148
801	-0.149
801	-0.149
802	-0.151
802	-0.152
803	-0.152
803	-0.152
804	-0.151
804	-0.145
804	-0.138
805	-0.133
805	-0.13
806	-0.127
806	-0.126
807	-0.124
807	-0.123
807	-0.123
808	-0.123
808	-0.124
809	-0.129
809	-0.135
810	-0.14
810	-0.143
810	-0.147
811	-0.15
811	-0.152
812	-0.149
812	-0.146
813	-0.147
813	-0.148
813	-0.149
814	-0.15
814	-0.15
815	-0.148
815	-0.145
816	-0.142
816	-0.142
817	-0.146
817	-0.149
817	-0.148
818	-0.145
818	-0.139
819	-0.134
819	-0.129
820	-0.125
820	-0.121
820	-0.116
821	-0.109
821	-0.101
822	-0.092
822	-0.084
823	-0.076
823	-0.07
823	-0.064
824	-0.058
824	-0.052
825	-0.045
825	-0.039
826	-0.034
826	-0.03
826	-0.026
827	-0.022
827	-0.02
828	-0.017
828	-0.015
829	-0.013
829	-0.012
829	-0.012
830	-0.012
830	-0.012
831	-0.01
831	-0.009
832	-0.009
832	-0.008
832	-0.007
833	-0.006
833	-0.005
834	-0.004
834	-0.003
835	-0.002
835	-0.001
835	-0.001
836	-0
836	0
837	0
837	0.001
838	0.001
838	0.001
839	0.001
839	0.001
839	0
840	0
840	0
841	0
841	0.001
842	0.002
842	0.002
842	0.003
843	0.004
843	0.005
844	0.006
844	0.007
845	0.008
845	0.008
845	0.009
846	0.009
846	0.009
847	0.009
847	0.01
848	0.01
848	0.011
848	0.012
849	0.013
849	0.013
850	0.014
850	0.014
851	0.015
851	0.015
851	0.015
852	0.015
852	0.014
853	0.013
853	0.012
854	0.011
854	0.01
854	0.009
855	0.008
855	0.008
856	0.007
856	0.007
857	0.007
857	0.008
857	0.009
858	0.01
858	0.011
859	0.013
859	0.014
860	0.016
860	0.018
860	0.02
861	0.021
861	0.022
862	0.023
862	0.023
863	0.024
863	0.023
863	0.023
864	0.022
864	0.022
865	0.021
865	0.02
866	0.02
866	0.019
866	0.018
867	0.018
867	0.017
868	0.016
868	0.016
869	0.015
869	0.014
869	0.012
870	0.011
870	0.01
871	0.009
871	0.008
872	0.007
872	0.006
872	0.005
873	0.005
873	0.004
874	0.004
874	0.005
875	0.006
875	0.006
875	0.007
876	0.007
876	0.008
877	0.009
877	0.009
878	0.01
878	0.011
878	0.011
879	0.011
879	0.012
880	0.012
880	0.012
881	0.012
881	0.012
881	0.012
882	0.012
882	0.012
883	0.012
883	0.012
884	0.012
884	0.012
884	0.013
885	0.013
885	0.013
886	0.013
886	0.014
887	0.014
887	0.014
887	0.015
888	0.015
888	0.015
889	0.016
889	0.016
890	0.017
890	0.018
890	0.018
891	0.019
891	0.019
892	0.019
892	0.019
893	0.019
893	0.019
893	0.019
894	0.018
894	0.017
895	0.016
895	0.015
895	0.013
896	0.012
896	0.011
897	0.01
897	0.008
898	0.007
898	0.006
898	0.005
899	0.005
899	0.005
900	0.005
900	0.004
901	0.005
901	0.005
901	0.005
902	0.005
902	0.005
903	0.005
903	0.005
904	0.005
904	0.004
904	0.004
905	0.004
905	0.004
906	0.004
906	0.005
907	0.005
907	0.006
907	0.007
908	0.008
908	0.009
909	0.01
909	0.011
910	0.012
910	0.013
910	0.014
911	0.014
911	0.014
912	0.015
912	0.015
913	0.014
913	0.014
913	0.013
914	0.012
914	0.011
915	0.01
915	0.009
916	0.008
916	0.008
916	0.008
917	0.007
917	0.007
918	0.007
918	0.007
918	0.007
919	0.006
919	0.006
920	0.006
920	0.006
921	0.005
921	0.004
921	0.004
922	0.004
922	0.004
923	0.004
923	0.004
924	0.005
924	0.005
924	0.005
925	0.006
925	0.006
926	0.006
926	0.006
927	0.006
927	0.006
927	0.006
928	0.006
928	0.005
929	0.005
929	0.005
930	0.004
930	0.004
930	0.004
931	0.003
931	0.003
932	0.003
932	0.003
933	0.002
933	0.002
933	0.002
934	0.002
934	0.001
935	0.001
935	0.001
935	0.001
936	0.001
936	0.001
937	0.001
937	0.001
938	0.001
938	0.001
938	0.002
939	0.002
939	0.003
940	0.004
940	0.005
941	0.005
941	0.006
941	0.007
942	0.007
942	0.007
943	0.008
943	0.008
944	0.008
944	0.009
944	0.009
945	0.01
945	0.01
946	0.011
946	0.011
946	0.012
947	0.012
947	0.013
948	0.013
948	0.013
949	0.014
949	0.014
949	0.015
950	0.016
950	0.016
951	0.017
951	0.018
952	0.018
952	0.019
952	0.02
953	0.021
953	0.021
954	0.021
954	0.021
955	0.02
955	0.02
955	0.019
956	0.019
956	0.018
957	0.016
957	0.015
957	0.014
958	0.013
958	0.012
959	0.011
959	0.01
960	0.009
960	0.007
960	0.006
961	0.004
961	0.003
962	0.002
962	0
963	-0.001
963	-0.002
963	-0.003
964	-0.004
964	-0.004
965	-0.004
965	-0.004
966	-0.004
966	-0.004
966	-0.004
967	-0.003
967	-0.003
968	-0.003
968	-0.003
968	-0.003
969	-0.003
969	-0.003
970	-0.003
970	-0.002
971	-0.002
971	-0.002
971	-0.001
972	-0
972	0
973	0.001
973	0.002
974	0.002
974	0.003
974	0.004
975	0.005
975	0.005
976	0.006
976	0.006
976	0.006
977	0.006
977	0.006
978	0.005
978	0.005
979	0.004
979	0.003
979	0.002
980	0.001
980	-0
981	-0.001
981	-0.002
982	-0.003
982	-0.003
982	-0.004
983	-0.004
983	-0.004
984	-0.004
984	-0.004
984	-0.003
985	-0.002
985	-0.002
986	-0.001
986	-0
987	0
987	0.001
987	0.002
988	0.002
988	0.003
989	0.003
989	0.003
990	0.003
990	0.004
990	0.004
991	0.004
991	0.005
992	0.005
992	0.005
992	0.006
993	0.006
993	0.006
994	0.007
994	0.007
995	0.007
995	0.007
995	0.007
996	0.007
996	0.006
997	0.005
997	0.005
997	0.004
998	0.004
998	0.003
999	0.002
999	0.002
1000	0.001
1000	0.001
1000	0.001
1001	0.001
1001	0.001
1002	0
1002	0
1003	-0
1003	-0
1003	-0.001
1004	-0.001
1004	-0.002
1005	-0.002
1005	-0.003
1005	-0.004
1006	-0.004
1006	-0.005
1007	-0.006
1007	-0.006
1008	-0.007
1008	-0.007
1008	-0.007
1009	-0.008
1009	-0.007
1010	-0.007
1010	-0.007
1010	-0.007
1011	-0.007
1011	-0.007
1012	-0.006
1012	-0.006
1013	-0.005
1013	-0.005
1013	-0.005
1014	-0.004
1014	-0.004
1015	-0.004
1015	-0.003
1016	-0.002
1016	-0.002
1016	-0.001
1017	-0
1017	0
1018	0.001
1018	0.001
1018	0.002
1019	0.002
1019	0.003
1020	0.003
1020	0.002
1021	0.002
1021	0.002
1021	0.001
1022	0.001
1022	0
1023	0
1023	-0
1023	-0.001
1024	-0.002
1024	-0.003
1025	-0.003
1025	-0.003
1026	-0.004
1026	-0.004
1026	-0.004
1027	-0.004
1027	-0.003
1028	-0.003
1028	-0.003
1028	-0.002
1029	-0.002
1029	-0.001
1030	-0.001
1030	-0.001
1031	-0.001
1031	-0.001
1031	-0.001
1032	-0.001
1032	-0.002
1033	-0.002
1033	-0.003
1033	-0.004
1034	-0.005
1034	-0.006
1035	-0.007
1035	-0.008
1036	-0.008
1036	-0.009
1036	-0.01
1037	-0.01
1037	-0.011
1038	-0.011
1038	-0.011
1039	-0.011
1039	-0.011
1039	-0.01
1040	-0.011
1040	-0.011
1041	-0.011
1041	-0.012
1041	-0.012
1042	-0.013
1042	-0.013
1043	-0.014
1043	-0.014
1044	-0.015
1044	-0.016
1044	-0.016
1045	-0.016
1045	-0.016
1046	-0.017
1046	-0.017
1046	-0.017
1047	-0.016
1047	-0.015
1048	-0.015
1048	-0.014
1049	-0.013
1049	-0.013
1049	-0.012
1050	-0.012
1050	-0.011
1051	-0.01
1051	-0.009
1051	-0.008
1052	-0.007
1052	-0.007
1053	-0.006
1053	-0.005
1053	-0.004
1054	-0.003
1054	-0.002
1055	-0.002
1055	-0.001
1056	-0.001
1056	-0.002
1056	-0.003
1057	-0.003
1057	-0.004
1058	-0.005
1058	-0.005
1058	-0.006
1059	-0.007
1059	-0.008
1060	-0.009
1060	-0.01
1061	-0.01
1061	-0.01
1061	-0.01
1062	-0.011
1062	-0.012
1063	-0.012
1063	-0.013
1063	-0.013
1064	-0.013
1064	-0.013
1065	-0.012
1065	-0.013
1066	-0.012
1066	-0.011
1066	-0.011
1067	-0.01
1067	-0.009
1068	-0.008
1068	-0.007
1068	-0.006
1069	-0.006
1069	-0.005
1070	-0.004
1070	-0.004
1071	-0.003
1071	-0.002
1071	-0.002
1072	-0
1072	0.001
1073	0.001
1073	0.003
1073	0.004
1074	0.005
1074	0.006
1075	0.007
1075	0.007
1076	0.007
1076	0.008
1076	0.007
1077	0.008
1077	0.008
1078	0.008
1078	0.009
1078	0.009
1079	0.01
1079	0.011
1080	0.011
1080	0.013
1080	0.013
1081	0.015
1081	0.016
1082	0.016
1082	0.017
1083	0.017
1083	0.018
1083	0.019
1084	0.02
1084	0.021
1085	0.022
1085	0.024
1085	0.024
1086	0.025
1086	0.026
1087	0.027
1087	0.029
1088	0.029
1088	0.029
1088	0.031
1089	0.031
1089	0.032
1090	0.033
1090	0.035
1090	0.036
1091	0.037
1091	0.039
1092	0.04
1092	0.043
1092	0.045
1093	0.045
1093	0.048
1094	0.05
1094	0.052
1095	0.054
1095	0.056
1095	0.06
1096	0.063
1096	0.066
1097	0.069
1097	0.073
1097	0.077
1098	0.081
1098	0.084
1099	0.09
1099	0.095
1100	0.102
1100	0.106
1100	0.112
1101	0.118
1101	0.125
1102	0.134
1102	0.144
1102	0.155
1103	0.168
1103	0.181
1104	0.195
1104	0.21
1104	0.229
1105	0.247
1105	0.269
1106	0.29
1106	0.317
1107	0.346
1107	0.387
1107	0.44
1108	0.635
1108	1.138
1109	-0
1109	-0
1109	-0
1110	-0
1110	-0
1111	-0
1111	-0
