Data from 15c-2-2a_Absorbance__44__01845.txt Node

Date: Wed Jan 24 13:05:21 CET 2024
User: Marek
Spectrometer: MAYP115816
Trigger mode: 0
Integration Time (sec): 2.000000E-1
Scans to average: 10
Electric dark correction enabled: true
Nonlinearity correction enabled: true
Boxcar width: 5
XAxis mode: Wavelengths
Number of Pixels in Spectrum: 2068
>>>>>Begin Spectral Data<<<<<
199	-1.891
199	-1.729
200	-1.57
200	-1.445
201	-1.371
201	-1.318
202	-1.246
202	-1.188
203	-1.138
203	-1.096
204	-1.067
204	-1.041
205	-1.019
205	-1.01
205	-1.008
206	-1.004
206	-1.002
207	-0.999
207	-0.996
208	-0.994
208	-0.992
209	-0.99
209	-0.99
210	-0.99
210	-0.988
211	-0.987
211	-0.987
212	-0.985
212	-0.983
213	-0.98
213	-0.979
213	-0.976
214	-0.974
214	-0.971
215	-0.97
215	-0.966
216	-0.964
216	-0.961
217	-0.96
217	-0.96
218	-0.961
218	-0.959
219	-0.958
219	-0.955
220	-0.953
220	-0.952
221	-0.952
221	-0.949
221	-0.944
222	-0.938
222	-0.932
223	-0.925
223	-0.92
224	-0.911
224	-0.903
225	-0.895
225	-0.885
226	-0.875
226	-0.864
227	-0.852
227	-0.841
228	-0.823
228	-0.805
229	-0.785
229	-0.763
229	-0.738
230	-0.71
230	-0.678
231	-0.645
231	-0.61
232	-0.573
232	-0.534
233	-0.495
233	-0.455
234	-0.416
234	-0.376
235	-0.338
235	-0.302
236	-0.268
236	-0.235
236	-0.203
237	-0.175
237	-0.148
238	-0.124
238	-0.102
239	-0.082
239	-0.064
240	-0.047
240	-0.033
241	-0.02
241	-0.007
242	0.003
242	0.013
243	0.022
243	0.03
243	0.036
244	0.043
244	0.049
245	0.054
245	0.059
246	0.064
246	0.068
247	0.072
247	0.075
248	0.079
248	0.082
249	0.085
249	0.088
250	0.091
250	0.094
250	0.097
251	0.099
251	0.102
252	0.104
252	0.106
253	0.108
253	0.11
254	0.111
254	0.113
255	0.115
255	0.116
256	0.118
256	0.119
257	0.12
257	0.121
258	0.122
258	0.122
258	0.123
259	0.124
259	0.124
260	0.125
260	0.125
261	0.125
261	0.126
262	0.126
262	0.126
263	0.126
263	0.126
264	0.126
264	0.125
265	0.125
265	0.125
265	0.124
266	0.123
266	0.123
267	0.122
267	0.121
268	0.12
268	0.119
269	0.118
269	0.117
270	0.116
270	0.114
271	0.113
271	0.112
272	0.111
272	0.11
272	0.108
273	0.107
273	0.106
274	0.104
274	0.103
275	0.102
275	0.101
276	0.1
276	0.098
277	0.097
277	0.095
278	0.094
278	0.092
278	0.09
279	0.088
279	0.086
280	0.085
280	0.083
281	0.082
281	0.08
282	0.079
282	0.078
283	0.077
283	0.076
284	0.076
284	0.075
285	0.074
285	0.073
285	0.072
286	0.07
286	0.069
287	0.068
287	0.067
288	0.066
288	0.065
289	0.064
289	0.063
290	0.062
290	0.062
291	0.061
291	0.06
292	0.06
292	0.059
292	0.059
293	0.058
293	0.057
294	0.057
294	0.056
295	0.056
295	0.055
296	0.055
296	0.054
297	0.054
297	0.054
298	0.053
298	0.053
298	0.053
299	0.053
299	0.052
300	0.052
300	0.052
301	0.052
301	0.051
302	0.051
302	0.051
303	0.051
303	0.051
304	0.05
304	0.05
305	0.05
305	0.05
305	0.05
306	0.05
306	0.05
307	0.05
307	0.049
308	0.049
308	0.049
309	0.049
309	0.048
310	0.048
310	0.048
311	0.048
311	0.048
311	0.048
312	0.047
312	0.047
313	0.047
313	0.047
314	0.047
314	0.046
315	0.046
315	0.046
316	0.046
316	0.046
317	0.045
317	0.045
318	0.045
318	0.045
318	0.044
319	0.044
319	0.044
320	0.044
320	0.044
321	0.043
321	0.043
322	0.043
322	0.043
323	0.042
323	0.042
324	0.042
324	0.042
324	0.041
325	0.041
325	0.041
326	0.04
326	0.04
327	0.04
327	0.04
328	0.039
328	0.039
329	0.039
329	0.039
330	0.039
330	0.038
330	0.038
331	0.038
331	0.038
332	0.038
332	0.037
333	0.037
333	0.037
334	0.036
334	0.036
335	0.036
335	0.036
336	0.036
336	0.035
336	0.035
337	0.035
337	0.035
338	0.035
338	0.034
339	0.034
339	0.034
340	0.034
340	0.034
341	0.033
341	0.033
342	0.033
342	0.033
342	0.032
343	0.032
343	0.032
344	0.032
344	0.031
345	0.031
345	0.031
346	0.031
346	0.031
347	0.03
347	0.03
348	0.03
348	0.03
348	0.03
349	0.03
349	0.029
350	0.029
350	0.029
351	0.029
351	0.028
352	0.028
352	0.027
353	0.027
353	0.027
354	0.026
354	0.026
354	0.026
355	0.025
355	0.025
356	0.025
356	0.024
357	0.024
357	0.024
358	0.024
358	0.024
359	0.024
359	0.024
360	0.024
360	0.024
360	0.025
361	0.025
361	0.025
362	0.026
362	0.026
363	0.026
363	0.026
364	0.026
364	0.026
365	0.025
365	0.025
366	0.025
366	0.025
366	0.025
367	0.025
367	0.025
368	0.024
368	0.024
369	0.024
369	0.024
370	0.024
370	0.024
371	0.024
371	0.024
372	0.024
372	0.024
372	0.024
373	0.024
373	0.024
374	0.024
374	0.024
375	0.024
375	0.024
376	0.024
376	0.024
377	0.024
377	0.024
378	0.024
378	0.024
378	0.024
379	0.025
379	0.025
380	0.025
380	0.025
381	0.025
381	0.025
382	0.025
382	0.024
383	0.024
383	0.025
383	0.025
384	0.025
384	0.025
385	0.025
385	0.025
386	0.025
386	0.025
387	0.025
387	0.025
388	0.025
388	0.025
389	0.025
389	0.025
389	0.025
390	0.025
390	0.025
391	0.025
391	0.026
392	0.026
392	0.026
393	0.026
393	0.026
394	0.026
394	0.026
394	0.026
395	0.026
395	0.025
396	0.025
396	0.025
397	0.026
397	0.026
398	0.026
398	0.026
399	0.026
399	0.025
400	0.025
400	0.025
400	0.025
401	0.025
401	0.025
402	0.025
402	0.025
403	0.024
403	0.024
404	0.024
404	0.024
405	0.024
405	0.024
405	0.024
406	0.024
406	0.024
407	0.024
407	0.024
408	0.024
408	0.024
409	0.024
409	0.024
410	0.024
410	0.024
411	0.024
411	0.024
411	0.024
412	0.024
412	0.023
413	0.023
413	0.023
414	0.023
414	0.023
415	0.023
415	0.023
416	0.023
416	0.023
416	0.022
417	0.022
417	0.022
418	0.022
418	0.022
419	0.022
419	0.022
420	0.023
420	0.023
421	0.023
421	0.024
421	0.024
422	0.024
422	0.024
423	0.024
423	0.024
424	0.024
424	0.023
425	0.023
425	0.022
426	0.022
426	0.022
427	0.022
427	0.022
427	0.022
428	0.023
428	0.023
429	0.023
429	0.023
430	0.023
430	0.023
431	0.023
431	0.023
432	0.023
432	0.023
432	0.023
433	0.022
433	0.022
434	0.022
434	0.022
435	0.022
435	0.022
436	0.022
436	0.022
437	0.022
437	0.021
437	0.021
438	0.021
438	0.021
439	0.021
439	0.02
440	0.02
440	0.02
441	0.02
441	0.02
442	0.021
442	0.021
442	0.021
443	0.021
443	0.021
444	0.021
444	0.022
445	0.022
445	0.022
446	0.022
446	0.022
447	0.022
447	0.022
447	0.022
448	0.022
448	0.022
449	0.022
449	0.021
450	0.021
450	0.021
451	0.021
451	0.02
452	0.02
452	0.02
452	0.02
453	0.019
453	0.019
454	0.018
454	0.018
455	0.018
455	0.018
456	0.017
456	0.017
457	0.017
457	0.017
458	0.016
458	0.016
458	0.017
459	0.017
459	0.017
460	0.017
460	0.016
461	0.016
461	0.016
462	0.017
462	0.017
463	0.017
463	0.017
463	0.017
464	0.017
464	0.017
465	0.017
465	0.016
466	0.016
466	0.016
467	0.016
467	0.015
467	0.015
468	0.014
468	0.013
469	0.012
469	0.012
470	0.012
470	0.012
471	0.011
471	0.011
472	0.011
472	0.011
472	0.012
473	0.012
473	0.013
474	0.013
474	0.013
475	0.013
475	0.014
476	0.014
476	0.013
477	0.013
477	0.013
477	0.013
478	0.013
478	0.013
479	0.014
479	0.014
480	0.015
480	0.015
481	0.015
481	0.015
482	0.016
482	0.016
482	0.017
483	0.017
483	0.018
484	0.019
484	0.019
485	0.019
485	0.02
486	0.02
486	0.02
487	0.02
487	0.02
487	0.019
488	0.019
488	0.018
489	0.017
489	0.017
490	0.017
490	0.017
491	0.017
491	0.016
492	0.016
492	0.017
492	0.017
493	0.017
493	0.018
494	0.018
494	0.019
495	0.019
495	0.019
496	0.019
496	0.02
496	0.02
497	0.02
497	0.02
498	0.02
498	0.02
499	0.02
499	0.02
500	0.02
500	0.02
501	0.021
501	0.021
501	0.021
502	0.022
502	0.022
503	0.022
503	0.022
504	0.022
504	0.022
505	0.022
505	0.022
506	0.022
506	0.021
506	0.021
507	0.021
507	0.02
508	0.02
508	0.02
509	0.021
509	0.021
510	0.021
510	0.021
511	0.021
511	0.021
511	0.021
512	0.021
512	0.02
513	0.02
513	0.019
514	0.019
514	0.019
515	0.019
515	0.019
515	0.018
516	0.018
516	0.018
517	0.018
517	0.019
518	0.019
518	0.019
519	0.019
519	0.018
520	0.018
520	0.018
520	0.017
521	0.016
521	0.015
522	0.013
522	0.012
523	0.011
523	0.01
524	0.01
524	0.009
524	0.009
525	0.01
525	0.01
526	0.012
526	0.013
527	0.015
527	0.016
528	0.017
528	0.018
529	0.019
529	0.02
529	0.02
530	0.021
530	0.021
531	0.021
531	0.022
532	0.021
532	0.022
533	0.022
533	0.022
533	0.022
534	0.022
534	0.022
535	0.021
535	0.021
536	0.021
536	0.021
537	0.021
537	0.022
538	0.021
538	0.021
538	0.021
539	0.021
539	0.021
540	0.021
540	0.021
541	0.02
541	0.02
542	0.02
542	0.02
542	0.019
543	0.019
543	0.019
544	0.019
544	0.019
545	0.019
545	0.02
546	0.02
546	0.02
547	0.02
547	0.019
547	0.019
548	0.019
548	0.019
549	0.018
549	0.018
550	0.018
550	0.017
551	0.017
551	0.016
551	0.016
552	0.016
552	0.016
553	0.016
553	0.017
554	0.017
554	0.017
555	0.016
555	0.016
556	0.015
556	0.015
556	0.014
557	0.014
557	0.014
558	0.014
558	0.013
559	0.013
559	0.013
560	0.013
560	0.013
560	0.013
561	0.014
561	0.015
562	0.015
562	0.015
563	0.015
563	0.015
564	0.014
564	0.014
564	0.013
565	0.014
565	0.014
566	0.013
566	0.013
567	0.013
567	0.014
568	0.015
568	0.016
568	0.017
569	0.019
569	0.021
570	0.021
570	0.022
571	0.023
571	0.024
572	0.025
572	0.025
573	0.026
573	0.026
573	0.025
574	0.025
574	0.025
575	0.025
575	0.027
576	0.027
576	0.027
577	0.026
577	0.025
577	0.025
578	0.025
578	0.026
579	0.027
579	0.028
580	0.028
580	0.027
581	0.025
581	0.025
581	0.025
582	0.026
582	0.026
583	0.027
583	0.027
584	0.025
584	0.022
585	0.022
585	0.023
585	0.023
586	0.023
586	0.023
587	0.022
587	0.021
588	0.02
588	0.019
589	0.019
589	0.019
590	0.019
590	0.019
590	0.02
591	0.021
591	0.021
592	0.021
592	0.021
593	0.021
593	0.021
594	0.02
594	0.02
594	0.019
595	0.019
595	0.018
596	0.017
596	0.018
597	0.02
597	0.021
598	0.022
598	0.023
598	0.024
599	0.024
599	0.024
600	0.023
600	0.023
601	0.022
601	0.022
602	0.021
602	0.021
602	0.02
603	0.02
603	0.021
604	0.021
604	0.022
605	0.023
605	0.024
606	0.024
606	0.023
606	0.023
607	0.022
607	0.022
608	0.021
608	0.02
609	0.019
609	0.019
610	0.018
610	0.017
610	0.017
611	0.018
611	0.019
612	0.019
612	0.02
613	0.021
613	0.022
614	0.022
614	0.022
614	0.022
615	0.022
615	0.021
616	0.021
616	0.02
617	0.02
617	0.019
618	0.018
618	0.018
618	0.018
619	0.018
619	0.019
620	0.02
620	0.021
621	0.021
621	0.022
622	0.022
622	0.022
622	0.022
623	0.022
623	0.022
624	0.023
624	0.022
625	0.021
625	0.021
626	0.021
626	0.021
626	0.021
627	0.021
627	0.021
628	0.021
628	0.021
629	0.021
629	0.02
630	0.02
630	0.019
630	0.019
631	0.019
631	0.019
632	0.019
632	0.019
633	0.019
633	0.019
634	0.02
634	0.021
634	0.022
635	0.023
635	0.024
636	0.025
636	0.025
637	0.026
637	0.026
638	0.027
638	0.027
638	0.028
639	0.028
639	0.028
640	0.029
640	0.03
641	0.031
641	0.032
642	0.033
642	0.034
642	0.035
643	0.036
643	0.036
644	0.037
644	0.037
645	0.037
645	0.037
646	0.038
646	0.038
646	0.039
647	0.04
647	0.042
648	0.042
648	0.044
649	0.045
649	0.046
650	0.048
650	0.049
650	0.05
651	0.051
651	0.052
652	0.052
652	0.053
653	0.054
653	0.06
653	0.065
654	0.055
654	0.047
655	0.046
655	0.047
656	0.048
656	0.048
657	0.049
657	0.05
657	0.05
658	0.047
658	0.043
659	0.052
659	0.064
660	0.068
660	0.069
661	0.069
661	0.07
661	0.071
662	0.073
662	0.074
663	0.075
663	0.077
664	0.078
664	0.079
665	0.08
665	0.081
665	0.082
666	0.083
666	0.084
667	0.084
667	0.085
668	0.086
668	0.086
669	0.087
669	0.089
669	0.091
670	0.093
670	0.094
671	0.095
671	0.095
672	0.096
672	0.097
672	0.098
673	0.098
673	0.099
674	0.098
674	0.098
675	0.097
675	0.097
676	0.098
676	0.098
676	0.099
677	0.099
677	0.1
678	0.101
678	0.101
679	0.101
679	0.102
680	0.103
680	0.103
680	0.103
681	0.103
681	0.104
682	0.104
682	0.104
683	0.105
683	0.107
684	0.107
684	0.108
684	0.108
685	0.108
685	0.109
686	0.11
686	0.11
687	0.11
687	0.11
687	0.11
688	0.11
688	0.11
689	0.11
689	0.11
690	0.11
690	0.109
691	0.109
691	0.108
691	0.108
692	0.107
692	0.107
693	0.107
693	0.107
694	0.107
694	0.106
695	0.107
695	0.109
695	0.109
696	0.108
696	0.108
697	0.108
697	0.107
698	0.107
698	0.106
698	0.106
699	0.106
699	0.104
700	0.103
700	0.103
701	0.103
701	0.103
702	0.103
702	0.103
702	0.103
703	0.102
703	0.101
704	0.1
704	0.1
705	0.1
705	0.099
705	0.098
706	0.097
706	0.096
707	0.095
707	0.094
708	0.093
708	0.092
709	0.092
709	0.091
709	0.089
710	0.087
710	0.087
711	0.087
711	0.086
712	0.086
712	0.085
713	0.085
713	0.085
713	0.084
714	0.083
714	0.083
715	0.083
715	0.082
716	0.082
716	0.082
716	0.082
717	0.082
717	0.081
718	0.081
718	0.08
719	0.08
719	0.079
720	0.078
720	0.077
720	0.075
721	0.074
721	0.072
722	0.071
722	0.069
723	0.068
723	0.067
723	0.066
724	0.065
724	0.065
725	0.064
725	0.063
726	0.063
726	0.062
727	0.062
727	0.061
727	0.06
728	0.059
728	0.059
729	0.059
729	0.058
730	0.057
730	0.057
730	0.056
731	0.055
731	0.055
732	0.054
732	0.054
733	0.053
733	0.053
734	0.052
734	0.052
734	0.051
735	0.051
735	0.05
736	0.049
736	0.049
737	0.048
737	0.048
737	0.047
738	0.046
738	0.044
739	0.042
739	0.041
740	0.04
740	0.039
741	0.037
741	0.035
741	0.033
742	0.03
742	0.028
743	0.026
743	0.024
744	0.022
744	0.021
744	0.019
745	0.018
745	0.016
746	0.016
746	0.016
747	0.016
747	0.017
748	0.018
748	0.019
748	0.019
749	0.02
749	0.021
750	0.021
750	0.021
751	0.022
751	0.022
751	0.022
752	0.021
752	0.02
753	0.019
753	0.018
754	0.018
754	0.017
754	0.017
755	0.018
755	0.018
756	0.018
756	0.018
757	0.018
757	0.018
758	0.019
758	0.019
758	0.019
759	0.019
759	0.018
760	0.017
760	0.016
761	0.016
761	0.016
761	0.015
762	0.014
762	0.014
763	0.013
763	0.012
764	0.01
764	0.008
764	0.007
765	0.005
765	0.004
766	0.003
766	0.002
767	0.002
767	-0
768	-0.002
768	-0.003
768	-0.003
769	-0.004
769	-0.005
770	-0.006
770	-0.007
771	-0.009
771	-0.011
771	-0.014
772	-0.016
772	-0.018
773	-0.02
773	-0.022
774	-0.025
774	-0.027
775	-0.029
775	-0.031
775	-0.033
776	-0.036
776	-0.038
777	-0.04
777	-0.043
778	-0.045
778	-0.048
778	-0.051
779	-0.053
779	-0.056
780	-0.06
780	-0.065
781	-0.069
781	-0.075
781	-0.082
782	-0.088
782	-0.095
783	-0.101
783	-0.106
784	-0.112
784	-0.116
784	-0.12
785	-0.124
785	-0.128
786	-0.129
786	-0.126
787	-0.122
787	-0.118
788	-0.117
788	-0.119
788	-0.12
789	-0.123
789	-0.123
790	-0.121
790	-0.12
791	-0.121
791	-0.124
791	-0.127
792	-0.122
792	-0.112
793	-0.106
793	-0.103
794	-0.101
794	-0.102
794	-0.105
795	-0.107
795	-0.107
796	-0.107
796	-0.109
797	-0.117
797	-0.127
797	-0.133
798	-0.138
798	-0.141
799	-0.142
799	-0.142
800	-0.141
800	-0.144
801	-0.147
801	-0.148
801	-0.148
802	-0.15
802	-0.151
803	-0.151
803	-0.151
804	-0.15
804	-0.144
804	-0.137
805	-0.132
805	-0.129
806	-0.126
806	-0.125
807	-0.123
807	-0.122
807	-0.122
808	-0.122
808	-0.124
809	-0.128
809	-0.135
810	-0.139
810	-0.142
810	-0.146
811	-0.15
811	-0.151
812	-0.148
812	-0.145
813	-0.146
813	-0.147
813	-0.148
814	-0.149
814	-0.149
815	-0.147
815	-0.144
816	-0.142
816	-0.142
817	-0.145
817	-0.148
817	-0.147
818	-0.144
818	-0.139
819	-0.134
819	-0.129
820	-0.127
820	-0.124
820	-0.119
821	-0.112
821	-0.105
822	-0.097
822	-0.089
823	-0.082
823	-0.076
823	-0.071
824	-0.064
824	-0.058
825	-0.051
825	-0.045
826	-0.04
826	-0.036
826	-0.032
827	-0.028
827	-0.025
828	-0.023
828	-0.021
829	-0.02
829	-0.019
829	-0.019
830	-0.019
830	-0.018
831	-0.017
831	-0.016
832	-0.016
832	-0.015
832	-0.014
833	-0.012
833	-0.011
834	-0.01
834	-0.009
835	-0.008
835	-0.007
835	-0.007
836	-0.006
836	-0.006
837	-0.006
837	-0.006
838	-0.006
838	-0.006
839	-0.006
839	-0.006
839	-0.006
840	-0.006
840	-0.006
841	-0.005
841	-0.004
842	-0.003
842	-0.002
842	-0.001
843	0
843	0.001
844	0.002
844	0.004
845	0.005
845	0.005
845	0.006
846	0.006
846	0.006
847	0.007
847	0.008
848	0.008
848	0.009
848	0.01
849	0.012
849	0.013
850	0.014
850	0.014
851	0.015
851	0.016
851	0.016
852	0.016
852	0.016
853	0.016
853	0.015
854	0.014
854	0.013
854	0.012
855	0.011
855	0.01
856	0.009
856	0.009
857	0.008
857	0.008
857	0.009
858	0.01
858	0.011
859	0.012
859	0.014
860	0.016
860	0.018
860	0.019
861	0.021
861	0.023
862	0.024
862	0.025
863	0.025
863	0.025
863	0.024
864	0.024
864	0.023
865	0.023
865	0.022
866	0.021
866	0.02
866	0.02
867	0.019
867	0.018
868	0.018
868	0.017
869	0.017
869	0.016
869	0.014
870	0.014
870	0.013
871	0.012
871	0.012
872	0.011
872	0.01
872	0.01
873	0.01
873	0.009
874	0.009
874	0.01
875	0.01
875	0.01
875	0.01
876	0.01
876	0.01
877	0.011
877	0.011
878	0.012
878	0.012
878	0.013
879	0.013
879	0.013
880	0.014
880	0.014
881	0.014
881	0.014
881	0.014
882	0.014
882	0.015
883	0.015
883	0.015
884	0.016
884	0.016
884	0.016
885	0.016
885	0.017
886	0.017
886	0.017
887	0.018
887	0.018
887	0.018
888	0.018
888	0.019
889	0.02
889	0.021
890	0.022
890	0.023
890	0.023
891	0.024
891	0.024
892	0.025
892	0.025
893	0.025
893	0.025
893	0.025
894	0.024
894	0.023
895	0.022
895	0.021
895	0.02
896	0.018
896	0.017
897	0.016
897	0.014
898	0.013
898	0.012
898	0.01
899	0.01
899	0.009
900	0.009
900	0.009
901	0.009
901	0.009
901	0.009
902	0.01
902	0.01
903	0.009
903	0.009
904	0.009
904	0.008
904	0.008
905	0.007
905	0.007
906	0.007
906	0.007
907	0.007
907	0.008
907	0.008
908	0.009
908	0.009
909	0.011
909	0.012
910	0.013
910	0.013
910	0.014
911	0.015
911	0.015
912	0.015
912	0.016
913	0.016
913	0.015
913	0.015
914	0.014
914	0.013
915	0.013
915	0.012
916	0.011
916	0.011
916	0.011
917	0.011
917	0.011
918	0.011
918	0.011
918	0.011
919	0.011
919	0.011
920	0.011
920	0.011
921	0.011
921	0.01
921	0.01
922	0.01
922	0.01
923	0.011
923	0.011
924	0.011
924	0.012
924	0.012
925	0.012
925	0.012
926	0.012
926	0.012
927	0.011
927	0.011
927	0.01
928	0.01
928	0.009
929	0.009
929	0.008
930	0.008
930	0.008
930	0.007
931	0.007
931	0.007
932	0.007
932	0.006
933	0.006
933	0.005
933	0.005
934	0.004
934	0.004
935	0.003
935	0.002
935	0.002
936	0.002
936	0.002
937	0.002
937	0.002
938	0.002
938	0.003
938	0.003
939	0.004
939	0.005
940	0.006
940	0.006
941	0.007
941	0.008
941	0.009
942	0.01
942	0.01
943	0.011
943	0.012
944	0.013
944	0.014
944	0.015
945	0.016
945	0.017
946	0.018
946	0.018
946	0.018
947	0.019
947	0.019
948	0.019
948	0.019
949	0.018
949	0.018
949	0.018
950	0.019
950	0.019
951	0.019
951	0.019
952	0.019
952	0.02
952	0.02
953	0.02
953	0.021
954	0.02
954	0.02
955	0.02
955	0.02
955	0.02
956	0.019
956	0.019
957	0.018
957	0.018
957	0.017
958	0.016
958	0.016
959	0.015
959	0.015
960	0.014
960	0.012
960	0.011
961	0.009
961	0.008
962	0.007
962	0.005
963	0.004
963	0.003
963	0.002
964	0.001
964	0.001
965	0.001
965	0.001
966	0.001
966	0.001
966	0.002
967	0.002
967	0.002
968	0.002
968	0.002
968	0.002
969	0.002
969	0.002
970	0.002
970	0.002
971	0.002
971	0.003
971	0.003
972	0.004
972	0.004
973	0.005
973	0.006
974	0.007
974	0.008
974	0.009
975	0.01
975	0.011
976	0.011
976	0.011
976	0.012
977	0.011
977	0.011
978	0.01
978	0.01
979	0.009
979	0.008
979	0.007
980	0.006
980	0.005
981	0.004
981	0.003
982	0.003
982	0.003
982	0.003
983	0.002
983	0.002
984	0.002
984	0.003
984	0.003
985	0.004
985	0.004
986	0.005
986	0.005
987	0.005
987	0.005
987	0.006
988	0.006
988	0.006
989	0.006
989	0.006
990	0.006
990	0.006
990	0.006
991	0.007
991	0.007
992	0.008
992	0.009
992	0.01
993	0.01
993	0.011
994	0.012
994	0.012
995	0.012
995	0.012
995	0.012
996	0.012
996	0.011
997	0.01
997	0.009
997	0.008
998	0.008
998	0.007
999	0.007
999	0.006
1000	0.006
1000	0.005
1000	0.005
1001	0.005
1001	0.005
1002	0.005
1002	0.005
1003	0.005
1003	0.004
1003	0.004
1004	0.004
1004	0.004
1005	0.003
1005	0.003
1005	0.003
1006	0.003
1006	0.003
1007	0.003
1007	0.003
1008	0.003
1008	0.003
1008	0.004
1009	0.004
1009	0.005
1010	0.005
1010	0.006
1010	0.006
1011	0.006
1011	0.006
1012	0.007
1012	0.007
1013	0.006
1013	0.006
1013	0.006
1014	0.006
1014	0.005
1015	0.005
1015	0.005
1016	0.005
1016	0.005
1016	0.005
1017	0.005
1017	0.005
1018	0.006
1018	0.006
1018	0.006
1019	0.007
1019	0.007
1020	0.007
1020	0.006
1021	0.006
1021	0.006
1021	0.005
1022	0.005
1022	0.005
1023	0.005
1023	0.004
1023	0.004
1024	0.003
1024	0.003
1025	0.002
1025	0.002
1026	0.002
1026	0.002
1026	0.002
1027	0.002
1027	0.002
1028	0.003
1028	0.003
1028	0.003
1029	0.003
1029	0.004
1030	0.004
1030	0.004
1031	0.004
1031	0.004
1031	0.004
1032	0.004
1032	0.004
1033	0.003
1033	0.003
1033	0.002
1034	0.001
1034	0
1035	-0.001
1035	-0.002
1036	-0.002
1036	-0.003
1036	-0.003
1037	-0.004
1037	-0.004
1038	-0.004
1038	-0.004
1039	-0.004
1039	-0.003
1039	-0.003
1040	-0.003
1040	-0.003
1041	-0.004
1041	-0.004
1041	-0.005
1042	-0.005
1042	-0.006
1043	-0.006
1043	-0.007
1044	-0.008
1044	-0.008
1044	-0.008
1045	-0.009
1045	-0.009
1046	-0.009
1046	-0.009
1046	-0.009
1047	-0.009
1047	-0.008
1048	-0.008
1048	-0.007
1049	-0.007
1049	-0.007
1049	-0.006
1050	-0.005
1050	-0.005
1051	-0.004
1051	-0.003
1051	-0.002
1052	-0.001
1052	-0
1053	0
1053	0.002
1053	0.003
1054	0.004
1054	0.005
1055	0.006
1055	0.007
1056	0.007
1056	0.007
1056	0.006
1057	0.005
1057	0.005
1058	0.005
1058	0.004
1058	0.003
1059	0.003
1059	0.002
1060	0.002
1060	0.001
1061	0.001
1061	0.002
1061	0.002
1062	0.001
1062	0
1063	0
1063	-0
1063	-0
1064	0
1064	-0
1065	0
1065	-0
1066	0
1066	0
1066	0.001
1067	0.002
1067	0.003
1068	0.004
1068	0.005
1068	0.005
1069	0.006
1069	0.007
1070	0.008
1070	0.009
1071	0.009
1071	0.011
1071	0.011
1072	0.013
1072	0.014
1073	0.015
1073	0.017
1073	0.017
1074	0.019
1074	0.02
1075	0.021
1075	0.021
1076	0.022
1076	0.022
1076	0.022
1077	0.023
1077	0.024
1078	0.024
1078	0.025
1078	0.027
1079	0.028
1079	0.029
1080	0.03
1080	0.031
1080	0.033
1081	0.034
1081	0.035
1082	0.036
1082	0.037
1083	0.037
1083	0.038
1083	0.04
1084	0.04
1084	0.042
1085	0.043
1085	0.044
1085	0.045
1086	0.047
1086	0.048
1087	0.05
1087	0.051
1088	0.052
1088	0.053
1088	0.055
1089	0.056
1089	0.057
1090	0.059
1090	0.061
1090	0.062
1091	0.064
1091	0.066
1092	0.069
1092	0.072
1092	0.074
1093	0.076
1093	0.08
1094	0.083
1094	0.086
1095	0.089
1095	0.093
1095	0.099
1096	0.102
1096	0.107
1097	0.113
1097	0.117
1097	0.124
1098	0.129
1098	0.136
1099	0.143
1099	0.152
1100	0.16
1100	0.168
1100	0.178
1101	0.189
1101	0.201
1102	0.216
1102	0.232
1102	0.25
1103	0.268
1103	0.288
1104	0.312
1104	0.339
1104	0.372
1105	0.405
1105	0.441
1106	0.478
1106	0.531
1107	0.591
1107	0.686
1107	0.829
1108	-0
1108	-0
1109	-0
1109	-0
1109	-0
1110	-0
1110	-0
1111	-0
1111	-0
