Data from 15c-2-2a_Absorbance__2650__04451.txt Node

Date: Wed Jan 24 14:32:12 CET 2024
User: Marek
Spectrometer: MAYP115816
Trigger mode: 0
Integration Time (sec): 2.000000E-1
Scans to average: 10
Electric dark correction enabled: true
Nonlinearity correction enabled: true
Boxcar width: 5
XAxis mode: Wavelengths
Number of Pixels in Spectrum: 2068
>>>>>Begin Spectral Data<<<<<
199	-1.826
199	-1.665
200	-1.505
200	-1.381
201	-1.307
201	-1.254
202	-1.183
202	-1.125
203	-1.075
203	-1.033
204	-1.004
204	-0.979
205	-0.955
205	-0.946
205	-0.944
206	-0.94
206	-0.938
207	-0.933
207	-0.931
208	-0.929
208	-0.927
209	-0.925
209	-0.926
210	-0.927
210	-0.925
211	-0.923
211	-0.923
212	-0.921
212	-0.92
213	-0.918
213	-0.916
213	-0.913
214	-0.91
214	-0.906
215	-0.904
215	-0.9
216	-0.899
216	-0.896
217	-0.894
217	-0.894
218	-0.894
218	-0.892
219	-0.891
219	-0.888
220	-0.886
220	-0.884
221	-0.884
221	-0.88
221	-0.875
222	-0.869
222	-0.862
223	-0.855
223	-0.849
224	-0.84
224	-0.832
225	-0.824
225	-0.814
226	-0.804
226	-0.793
227	-0.781
227	-0.769
228	-0.75
228	-0.732
229	-0.71
229	-0.687
229	-0.66
230	-0.629
230	-0.595
231	-0.558
231	-0.519
232	-0.478
232	-0.434
233	-0.391
233	-0.344
234	-0.298
234	-0.252
235	-0.206
235	-0.161
236	-0.119
236	-0.077
236	-0.036
237	0.002
237	0.038
238	0.072
238	0.104
239	0.134
239	0.161
240	0.186
240	0.209
241	0.23
241	0.25
242	0.267
242	0.283
243	0.298
243	0.311
243	0.323
244	0.334
244	0.345
245	0.354
245	0.362
246	0.371
246	0.378
247	0.385
247	0.391
248	0.397
248	0.403
249	0.408
249	0.413
250	0.417
250	0.422
250	0.426
251	0.43
251	0.433
252	0.437
252	0.44
253	0.443
253	0.445
254	0.448
254	0.45
255	0.452
255	0.455
256	0.456
256	0.458
257	0.46
257	0.461
258	0.462
258	0.463
258	0.464
259	0.465
259	0.466
260	0.466
260	0.467
261	0.467
261	0.467
262	0.467
262	0.467
263	0.467
263	0.467
264	0.467
264	0.466
265	0.466
265	0.465
265	0.465
266	0.464
266	0.463
267	0.462
267	0.461
268	0.459
268	0.458
269	0.457
269	0.455
270	0.453
270	0.452
271	0.45
271	0.448
272	0.447
272	0.445
272	0.443
273	0.441
273	0.44
274	0.438
274	0.436
275	0.434
275	0.432
276	0.431
276	0.428
277	0.426
277	0.423
278	0.421
278	0.418
278	0.415
279	0.412
279	0.41
280	0.408
280	0.405
281	0.403
281	0.401
282	0.399
282	0.398
283	0.396
283	0.394
284	0.393
284	0.392
285	0.39
285	0.388
285	0.387
286	0.385
286	0.383
287	0.381
287	0.38
288	0.378
288	0.376
289	0.375
289	0.373
290	0.371
290	0.37
291	0.368
291	0.367
292	0.366
292	0.364
292	0.363
293	0.362
293	0.36
294	0.359
294	0.358
295	0.357
295	0.356
296	0.354
296	0.353
297	0.352
297	0.351
298	0.35
298	0.349
298	0.348
299	0.347
299	0.346
300	0.345
300	0.344
301	0.343
301	0.342
302	0.341
302	0.34
303	0.34
303	0.339
304	0.338
304	0.337
305	0.336
305	0.335
305	0.334
306	0.334
306	0.333
307	0.332
307	0.331
308	0.33
308	0.329
309	0.328
309	0.327
310	0.326
310	0.325
311	0.325
311	0.324
311	0.323
312	0.322
312	0.321
313	0.32
313	0.32
314	0.319
314	0.318
315	0.317
315	0.316
316	0.315
316	0.314
317	0.313
317	0.312
318	0.311
318	0.311
318	0.31
319	0.309
319	0.308
320	0.307
320	0.306
321	0.305
321	0.304
322	0.304
322	0.303
323	0.302
323	0.301
324	0.3
324	0.3
324	0.299
325	0.298
325	0.297
326	0.296
326	0.296
327	0.295
327	0.294
328	0.293
328	0.292
329	0.292
329	0.291
330	0.29
330	0.289
330	0.288
331	0.287
331	0.286
332	0.286
332	0.285
333	0.284
333	0.283
334	0.283
334	0.282
335	0.281
335	0.28
336	0.28
336	0.279
336	0.278
337	0.278
337	0.277
338	0.277
338	0.276
339	0.276
339	0.275
340	0.275
340	0.274
341	0.273
341	0.273
342	0.273
342	0.272
342	0.271
343	0.271
343	0.27
344	0.27
344	0.269
345	0.269
345	0.268
346	0.268
346	0.268
347	0.267
347	0.266
348	0.266
348	0.266
348	0.265
349	0.265
349	0.264
350	0.264
350	0.263
351	0.263
351	0.262
352	0.261
352	0.261
353	0.261
353	0.26
354	0.26
354	0.259
354	0.258
355	0.257
355	0.256
356	0.256
356	0.255
357	0.254
357	0.254
358	0.253
358	0.253
359	0.253
359	0.254
360	0.254
360	0.254
360	0.255
361	0.255
361	0.256
362	0.256
362	0.256
363	0.256
363	0.256
364	0.256
364	0.255
365	0.255
365	0.255
366	0.254
366	0.254
366	0.254
367	0.253
367	0.253
368	0.253
368	0.252
369	0.252
369	0.252
370	0.251
370	0.251
371	0.251
371	0.251
372	0.25
372	0.25
372	0.25
373	0.249
373	0.249
374	0.249
374	0.249
375	0.249
375	0.248
376	0.248
376	0.248
377	0.248
377	0.248
378	0.248
378	0.248
378	0.248
379	0.248
379	0.248
380	0.248
380	0.248
381	0.248
381	0.247
382	0.247
382	0.247
383	0.246
383	0.246
383	0.246
384	0.245
384	0.245
385	0.245
385	0.244
386	0.244
386	0.244
387	0.244
387	0.244
388	0.244
388	0.243
389	0.243
389	0.243
389	0.243
390	0.243
390	0.243
391	0.243
391	0.243
392	0.243
392	0.242
393	0.242
393	0.242
394	0.242
394	0.242
394	0.242
395	0.242
395	0.241
396	0.24
396	0.24
397	0.24
397	0.24
398	0.24
398	0.24
399	0.24
399	0.239
400	0.239
400	0.239
400	0.238
401	0.238
401	0.237
402	0.237
402	0.237
403	0.236
403	0.236
404	0.236
404	0.235
405	0.235
405	0.235
405	0.235
406	0.234
406	0.234
407	0.234
407	0.234
408	0.233
408	0.233
409	0.232
409	0.232
410	0.232
410	0.232
411	0.232
411	0.232
411	0.232
412	0.231
412	0.231
413	0.231
413	0.23
414	0.23
414	0.23
415	0.23
415	0.23
416	0.229
416	0.229
416	0.228
417	0.228
417	0.227
418	0.227
418	0.227
419	0.227
419	0.227
420	0.227
420	0.228
421	0.228
421	0.228
421	0.228
422	0.228
422	0.229
423	0.229
423	0.228
424	0.228
424	0.227
425	0.227
425	0.226
426	0.226
426	0.225
427	0.225
427	0.225
427	0.225
428	0.226
428	0.226
429	0.226
429	0.226
430	0.226
430	0.226
431	0.226
431	0.226
432	0.226
432	0.225
432	0.225
433	0.224
433	0.223
434	0.223
434	0.223
435	0.223
435	0.223
436	0.223
436	0.223
437	0.222
437	0.222
437	0.222
438	0.222
438	0.221
439	0.221
439	0.221
440	0.221
440	0.221
441	0.221
441	0.221
442	0.221
442	0.221
442	0.221
443	0.222
443	0.222
444	0.222
444	0.222
445	0.222
445	0.223
446	0.223
446	0.223
447	0.222
447	0.222
447	0.222
448	0.222
448	0.222
449	0.222
449	0.222
450	0.222
450	0.221
451	0.221
451	0.221
452	0.221
452	0.22
452	0.22
453	0.22
453	0.219
454	0.219
454	0.218
455	0.218
455	0.217
456	0.217
456	0.217
457	0.217
457	0.217
458	0.216
458	0.216
458	0.217
459	0.217
459	0.217
460	0.217
460	0.217
461	0.217
461	0.217
462	0.217
462	0.217
463	0.218
463	0.218
463	0.219
464	0.219
464	0.219
465	0.219
465	0.219
466	0.219
466	0.22
467	0.22
467	0.22
467	0.219
468	0.218
468	0.218
469	0.217
469	0.217
470	0.217
470	0.216
471	0.216
471	0.217
472	0.217
472	0.217
472	0.218
473	0.219
473	0.22
474	0.221
474	0.221
475	0.222
475	0.223
476	0.223
476	0.224
477	0.224
477	0.224
477	0.225
478	0.225
478	0.226
479	0.227
479	0.228
480	0.229
480	0.23
481	0.231
481	0.232
482	0.233
482	0.235
482	0.236
483	0.238
483	0.24
484	0.242
484	0.244
485	0.245
485	0.247
486	0.248
486	0.249
487	0.25
487	0.25
487	0.251
488	0.251
488	0.251
489	0.251
489	0.251
490	0.251
490	0.252
491	0.252
491	0.253
492	0.255
492	0.256
492	0.258
493	0.259
493	0.261
494	0.263
494	0.265
495	0.267
495	0.268
496	0.27
496	0.271
496	0.273
497	0.274
497	0.276
498	0.277
498	0.278
499	0.279
499	0.281
500	0.282
500	0.284
501	0.286
501	0.288
501	0.29
502	0.292
502	0.294
503	0.296
503	0.298
504	0.299
504	0.3
505	0.301
505	0.302
506	0.303
506	0.304
506	0.305
507	0.306
507	0.307
508	0.308
508	0.309
509	0.311
509	0.312
510	0.314
510	0.315
511	0.316
511	0.317
511	0.318
512	0.319
512	0.32
513	0.321
513	0.32
514	0.32
514	0.32
515	0.321
515	0.321
515	0.322
516	0.323
516	0.324
517	0.325
517	0.326
518	0.326
518	0.326
519	0.326
519	0.325
520	0.323
520	0.322
520	0.32
521	0.318
521	0.316
522	0.314
522	0.313
523	0.313
523	0.314
524	0.315
524	0.317
524	0.319
525	0.322
525	0.324
526	0.326
526	0.328
527	0.33
527	0.331
528	0.332
528	0.333
529	0.333
529	0.332
529	0.332
530	0.331
530	0.33
531	0.33
531	0.329
532	0.328
532	0.327
533	0.326
533	0.325
533	0.324
534	0.323
534	0.321
535	0.32
535	0.319
536	0.318
536	0.317
537	0.315
537	0.314
538	0.312
538	0.31
538	0.308
539	0.307
539	0.306
540	0.304
540	0.302
541	0.3
541	0.297
542	0.295
542	0.293
542	0.29
543	0.288
543	0.286
544	0.284
544	0.282
545	0.28
545	0.278
546	0.277
546	0.275
547	0.273
547	0.27
547	0.267
548	0.265
548	0.262
549	0.26
549	0.257
550	0.254
550	0.252
551	0.249
551	0.246
551	0.243
552	0.241
552	0.239
553	0.237
553	0.235
554	0.233
554	0.23
555	0.228
555	0.225
556	0.222
556	0.219
556	0.215
557	0.213
557	0.21
558	0.208
558	0.205
559	0.202
559	0.2
560	0.198
560	0.196
560	0.194
561	0.193
561	0.192
562	0.191
562	0.189
563	0.187
563	0.185
564	0.182
564	0.18
564	0.177
565	0.175
565	0.174
566	0.171
566	0.169
567	0.167
567	0.166
568	0.165
568	0.164
568	0.164
569	0.164
569	0.164
570	0.164
570	0.163
571	0.163
571	0.162
572	0.161
572	0.161
573	0.16
573	0.159
573	0.157
574	0.155
574	0.154
575	0.153
575	0.153
576	0.152
576	0.15
577	0.148
577	0.147
577	0.145
578	0.144
578	0.143
579	0.143
579	0.143
580	0.142
580	0.139
581	0.136
581	0.135
581	0.134
582	0.133
582	0.132
583	0.132
583	0.131
584	0.128
584	0.125
585	0.123
585	0.123
585	0.122
586	0.122
586	0.121
587	0.12
587	0.118
588	0.116
588	0.114
589	0.113
589	0.112
590	0.111
590	0.11
590	0.111
591	0.111
591	0.111
592	0.11
592	0.109
593	0.109
593	0.108
594	0.107
594	0.106
594	0.105
595	0.104
595	0.103
596	0.101
596	0.102
597	0.103
597	0.103
598	0.104
598	0.104
598	0.104
599	0.105
599	0.104
600	0.103
600	0.102
601	0.102
601	0.101
602	0.1
602	0.099
602	0.099
603	0.098
603	0.099
604	0.1
604	0.1
605	0.101
605	0.102
606	0.102
606	0.102
606	0.101
607	0.1
607	0.1
608	0.099
608	0.098
609	0.097
609	0.097
610	0.095
610	0.094
610	0.094
611	0.095
611	0.096
612	0.096
612	0.097
613	0.099
613	0.1
614	0.1
614	0.099
614	0.1
615	0.099
615	0.099
616	0.099
616	0.099
617	0.099
617	0.098
618	0.097
618	0.097
618	0.097
619	0.098
619	0.099
620	0.1
620	0.101
621	0.102
621	0.102
622	0.103
622	0.104
622	0.104
623	0.105
623	0.106
624	0.107
624	0.106
625	0.106
625	0.107
626	0.107
626	0.107
626	0.107
627	0.108
627	0.109
628	0.109
628	0.11
629	0.11
629	0.111
630	0.111
630	0.111
630	0.112
631	0.113
631	0.114
632	0.115
632	0.116
633	0.117
633	0.119
634	0.12
634	0.122
634	0.125
635	0.127
635	0.128
636	0.13
636	0.132
637	0.134
637	0.135
638	0.136
638	0.138
638	0.14
639	0.141
639	0.142
640	0.144
640	0.145
641	0.147
641	0.149
642	0.152
642	0.154
642	0.156
643	0.158
643	0.16
644	0.162
644	0.164
645	0.166
645	0.168
646	0.17
646	0.173
646	0.176
647	0.179
647	0.182
648	0.185
648	0.188
649	0.191
649	0.194
650	0.198
650	0.201
650	0.204
651	0.206
651	0.209
652	0.212
652	0.214
653	0.218
653	0.226
653	0.236
654	0.187
654	0.151
655	0.156
655	0.159
656	0.161
656	0.163
657	0.165
657	0.167
657	0.168
658	0.166
658	0.157
659	0.2
659	0.261
660	0.267
660	0.269
661	0.272
661	0.274
661	0.277
662	0.281
662	0.285
663	0.289
663	0.292
664	0.296
664	0.299
665	0.302
665	0.305
665	0.309
666	0.312
666	0.315
667	0.318
667	0.32
668	0.323
668	0.326
669	0.329
669	0.333
669	0.338
670	0.342
670	0.345
671	0.348
671	0.351
672	0.353
672	0.356
672	0.358
673	0.36
673	0.362
674	0.363
674	0.364
675	0.365
675	0.366
676	0.368
676	0.37
676	0.372
677	0.374
677	0.376
678	0.378
678	0.379
679	0.381
679	0.383
680	0.385
680	0.386
680	0.387
681	0.388
681	0.389
682	0.39
682	0.391
683	0.392
683	0.394
684	0.396
684	0.397
684	0.398
685	0.399
685	0.4
686	0.4
686	0.401
687	0.402
687	0.402
687	0.401
688	0.4
688	0.399
689	0.399
689	0.399
690	0.398
690	0.397
691	0.396
691	0.396
691	0.395
692	0.394
692	0.393
693	0.392
693	0.392
694	0.391
694	0.389
695	0.389
695	0.389
695	0.389
696	0.387
696	0.386
697	0.385
697	0.384
698	0.383
698	0.381
698	0.379
699	0.378
699	0.375
700	0.373
700	0.371
701	0.369
701	0.368
702	0.366
702	0.364
702	0.362
703	0.36
703	0.358
704	0.355
704	0.353
705	0.351
705	0.349
705	0.347
706	0.344
706	0.342
707	0.339
707	0.337
708	0.334
708	0.331
709	0.329
709	0.326
709	0.322
710	0.318
710	0.315
711	0.312
711	0.31
712	0.307
712	0.305
713	0.303
713	0.301
713	0.299
714	0.296
714	0.294
715	0.292
715	0.289
716	0.287
716	0.285
716	0.283
717	0.281
717	0.279
718	0.276
718	0.273
719	0.271
719	0.269
720	0.266
720	0.264
720	0.26
721	0.257
721	0.254
722	0.25
722	0.247
723	0.244
723	0.241
723	0.238
724	0.235
724	0.232
725	0.23
725	0.227
726	0.225
726	0.222
727	0.22
727	0.217
727	0.215
728	0.212
728	0.21
729	0.208
729	0.206
730	0.203
730	0.201
730	0.198
731	0.196
731	0.194
732	0.192
732	0.191
733	0.189
733	0.187
734	0.186
734	0.184
734	0.182
735	0.181
735	0.179
736	0.177
736	0.175
737	0.173
737	0.171
737	0.168
738	0.165
738	0.162
739	0.159
739	0.156
740	0.153
740	0.15
741	0.148
741	0.144
741	0.141
742	0.136
742	0.132
743	0.129
743	0.126
744	0.124
744	0.121
744	0.118
745	0.116
745	0.114
746	0.112
746	0.11
747	0.109
747	0.108
748	0.108
748	0.107
748	0.106
749	0.105
749	0.105
750	0.104
750	0.103
751	0.102
751	0.102
751	0.102
752	0.1
752	0.098
753	0.097
753	0.096
754	0.095
754	0.094
754	0.093
755	0.092
755	0.092
756	0.091
756	0.089
757	0.088
757	0.088
758	0.088
758	0.087
758	0.086
759	0.086
759	0.084
760	0.082
760	0.08
761	0.079
761	0.079
761	0.078
762	0.077
762	0.076
763	0.074
763	0.072
764	0.07
764	0.068
764	0.066
765	0.064
765	0.062
766	0.06
766	0.059
767	0.057
767	0.055
768	0.052
768	0.05
768	0.048
769	0.047
769	0.045
770	0.043
770	0.041
771	0.039
771	0.036
771	0.033
772	0.031
772	0.029
773	0.027
773	0.025
774	0.022
774	0.019
775	0.017
775	0.015
775	0.013
776	0.011
776	0.009
777	0.007
777	0.005
778	0.002
778	-0.001
778	-0.004
779	-0.006
779	-0.008
780	-0.012
780	-0.016
781	-0.02
781	-0.024
781	-0.029
782	-0.035
782	-0.041
783	-0.047
783	-0.053
784	-0.061
784	-0.069
784	-0.077
785	-0.086
785	-0.095
786	-0.101
786	-0.105
787	-0.105
787	-0.107
788	-0.111
788	-0.115
788	-0.118
789	-0.122
789	-0.123
790	-0.121
790	-0.121
791	-0.122
791	-0.124
791	-0.127
792	-0.123
792	-0.113
793	-0.107
793	-0.103
794	-0.101
794	-0.103
794	-0.106
795	-0.108
795	-0.108
796	-0.107
796	-0.11
797	-0.118
797	-0.128
797	-0.134
798	-0.139
798	-0.142
799	-0.142
799	-0.142
800	-0.142
800	-0.144
801	-0.148
801	-0.149
801	-0.149
802	-0.151
802	-0.152
803	-0.152
803	-0.152
804	-0.15
804	-0.145
804	-0.137
805	-0.133
805	-0.13
806	-0.127
806	-0.125
807	-0.124
807	-0.123
807	-0.123
808	-0.123
808	-0.124
809	-0.129
809	-0.135
810	-0.139
810	-0.143
810	-0.147
811	-0.15
811	-0.151
812	-0.148
812	-0.146
813	-0.146
813	-0.148
813	-0.149
814	-0.15
814	-0.15
815	-0.147
815	-0.144
816	-0.142
816	-0.142
817	-0.146
817	-0.149
817	-0.148
818	-0.145
818	-0.139
819	-0.133
819	-0.128
820	-0.124
820	-0.12
820	-0.114
821	-0.107
821	-0.098
822	-0.088
822	-0.079
823	-0.071
823	-0.065
823	-0.058
824	-0.052
824	-0.045
825	-0.039
825	-0.032
826	-0.026
826	-0.022
826	-0.018
827	-0.014
827	-0.011
828	-0.009
828	-0.007
829	-0.005
829	-0.004
829	-0.003
830	-0.003
830	-0.003
831	-0.001
831	-0.001
832	-0
832	0.001
832	0.002
833	0.003
833	0.003
834	0.004
834	0.005
835	0.006
835	0.007
835	0.008
836	0.008
836	0.009
837	0.009
837	0.01
838	0.01
838	0.01
839	0.01
839	0.01
839	0.01
840	0.01
840	0.01
841	0.01
841	0.01
842	0.011
842	0.012
842	0.012
843	0.013
843	0.014
844	0.015
844	0.016
845	0.017
845	0.017
845	0.018
846	0.018
846	0.017
847	0.018
847	0.018
848	0.018
848	0.019
848	0.02
849	0.02
849	0.021
850	0.022
850	0.022
851	0.022
851	0.023
851	0.023
852	0.022
852	0.022
853	0.021
853	0.02
854	0.019
854	0.018
854	0.018
855	0.017
855	0.016
856	0.015
856	0.015
857	0.016
857	0.016
857	0.017
858	0.018
858	0.019
859	0.021
859	0.022
860	0.024
860	0.026
860	0.027
861	0.028
861	0.029
862	0.03
862	0.03
863	0.03
863	0.03
863	0.03
864	0.029
864	0.029
865	0.029
865	0.028
866	0.028
866	0.027
866	0.027
867	0.026
867	0.026
868	0.025
868	0.025
869	0.024
869	0.023
869	0.021
870	0.02
870	0.019
871	0.018
871	0.017
872	0.016
872	0.015
872	0.014
873	0.014
873	0.014
874	0.014
874	0.014
875	0.015
875	0.015
875	0.016
876	0.017
876	0.017
877	0.018
877	0.018
878	0.018
878	0.019
878	0.019
879	0.019
879	0.019
880	0.019
880	0.019
881	0.019
881	0.019
881	0.02
882	0.02
882	0.02
883	0.02
883	0.02
884	0.021
884	0.021
884	0.021
885	0.021
885	0.022
886	0.022
886	0.022
887	0.022
887	0.022
887	0.022
888	0.022
888	0.022
889	0.023
889	0.024
890	0.024
890	0.025
890	0.026
891	0.026
891	0.027
892	0.027
892	0.027
893	0.027
893	0.027
893	0.027
894	0.027
894	0.026
895	0.025
895	0.023
895	0.022
896	0.02
896	0.019
897	0.018
897	0.016
898	0.015
898	0.014
898	0.013
899	0.012
899	0.012
900	0.012
900	0.011
901	0.011
901	0.011
901	0.012
902	0.012
902	0.012
903	0.011
903	0.011
904	0.011
904	0.01
904	0.01
905	0.01
905	0.01
906	0.01
906	0.011
907	0.011
907	0.012
907	0.012
908	0.013
908	0.014
909	0.016
909	0.017
910	0.018
910	0.02
910	0.02
911	0.021
911	0.021
912	0.022
912	0.022
913	0.022
913	0.021
913	0.02
914	0.02
914	0.019
915	0.018
915	0.017
916	0.017
916	0.016
916	0.016
917	0.016
917	0.016
918	0.016
918	0.016
918	0.015
919	0.015
919	0.015
920	0.014
920	0.014
921	0.013
921	0.013
921	0.012
922	0.012
922	0.012
923	0.012
923	0.012
924	0.012
924	0.013
924	0.013
925	0.013
925	0.013
926	0.014
926	0.014
927	0.014
927	0.014
927	0.014
928	0.014
928	0.014
929	0.013
929	0.013
930	0.013
930	0.013
930	0.013
931	0.012
931	0.012
932	0.012
932	0.012
933	0.011
933	0.011
933	0.011
934	0.01
934	0.01
935	0.009
935	0.009
935	0.008
936	0.008
936	0.008
937	0.008
937	0.008
938	0.008
938	0.008
938	0.008
939	0.009
939	0.009
940	0.01
940	0.01
941	0.011
941	0.012
941	0.012
942	0.013
942	0.013
943	0.014
943	0.014
944	0.014
944	0.015
944	0.015
945	0.016
945	0.017
946	0.017
946	0.017
946	0.018
947	0.019
947	0.019
948	0.02
948	0.02
949	0.02
949	0.021
949	0.022
950	0.022
950	0.023
951	0.024
951	0.025
952	0.026
952	0.026
952	0.027
953	0.028
953	0.029
954	0.029
954	0.028
955	0.028
955	0.027
955	0.027
956	0.026
956	0.025
957	0.024
957	0.023
957	0.021
958	0.02
958	0.019
959	0.018
959	0.017
960	0.016
960	0.014
960	0.013
961	0.011
961	0.01
962	0.009
962	0.008
963	0.007
963	0.006
963	0.005
964	0.004
964	0.004
965	0.004
965	0.003
966	0.004
966	0.004
966	0.004
967	0.004
967	0.004
968	0.004
968	0.004
968	0.004
969	0.004
969	0.004
970	0.004
970	0.004
971	0.004
971	0.005
971	0.005
972	0.006
972	0.006
973	0.007
973	0.008
974	0.008
974	0.009
974	0.01
975	0.011
975	0.011
976	0.012
976	0.012
976	0.012
977	0.012
977	0.011
978	0.011
978	0.01
979	0.009
979	0.009
979	0.008
980	0.007
980	0.005
981	0.004
981	0.003
982	0.003
982	0.002
982	0.002
983	0.002
983	0.002
984	0.002
984	0.002
984	0.003
985	0.003
985	0.004
986	0.005
986	0.005
987	0.006
987	0.007
987	0.007
988	0.008
988	0.008
989	0.009
989	0.009
990	0.009
990	0.009
990	0.009
991	0.009
991	0.009
992	0.01
992	0.01
992	0.01
993	0.011
993	0.011
994	0.011
994	0.011
995	0.012
995	0.012
995	0.011
996	0.011
996	0.01
997	0.01
997	0.009
997	0.009
998	0.009
998	0.008
999	0.008
999	0.007
1000	0.007
1000	0.007
1000	0.007
1001	0.007
1001	0.007
1002	0.006
1002	0.006
1003	0.006
1003	0.006
1003	0.005
1004	0.005
1004	0.004
1005	0.004
1005	0.003
1005	0.002
1006	0.001
1006	0.001
1007	-0
1007	-0.001
1008	-0.002
1008	-0.002
1008	-0.003
1009	-0.003
1009	-0.003
1010	-0.003
1010	-0.003
1010	-0.003
1011	-0.003
1011	-0.003
1012	-0.002
1012	-0.002
1013	-0.001
1013	-0.001
1013	-0
1014	0
1014	0.001
1015	0.001
1015	0.002
1016	0.003
1016	0.004
1016	0.004
1017	0.005
1017	0.005
1018	0.006
1018	0.007
1018	0.007
1019	0.008
1019	0.008
1020	0.008
1020	0.008
1021	0.008
1021	0.008
1021	0.008
1022	0.007
1022	0.007
1023	0.007
1023	0.006
1023	0.005
1024	0.004
1024	0.003
1025	0.003
1025	0.002
1026	0.002
1026	0.002
1026	0.001
1027	0.002
1027	0.002
1028	0.002
1028	0.003
1028	0.003
1029	0.004
1029	0.004
1030	0.004
1030	0.005
1031	0.005
1031	0.005
1031	0.005
1032	0.004
1032	0.004
1033	0.004
1033	0.003
1033	0.003
1034	0.002
1034	0.001
1035	0
1035	-0
1036	-0.001
1036	-0.002
1036	-0.002
1037	-0.003
1037	-0.003
1038	-0.003
1038	-0.003
1039	-0.003
1039	-0.003
1039	-0.003
1040	-0.003
1040	-0.004
1041	-0.004
1041	-0.004
1041	-0.005
1042	-0.005
1042	-0.006
1043	-0.006
1043	-0.007
1044	-0.008
1044	-0.008
1044	-0.009
1045	-0.009
1045	-0.01
1046	-0.01
1046	-0.01
1046	-0.01
1047	-0.01
1047	-0.009
1048	-0.008
1048	-0.008
1049	-0.007
1049	-0.007
1049	-0.006
1050	-0.006
1050	-0.005
1051	-0.004
1051	-0.004
1051	-0.003
1052	-0.002
1052	-0.001
1053	-0
1053	0.001
1053	0.001
1054	0.002
1054	0.003
1055	0.004
1055	0.004
1056	0.004
1056	0.003
1056	0.002
1057	0.001
1057	0.001
1058	0
1058	-0.001
1058	-0.001
1059	-0.002
1059	-0.003
1060	-0.004
1060	-0.005
1061	-0.005
1061	-0.005
1061	-0.005
1062	-0.006
1062	-0.006
1063	-0.006
1063	-0.007
1063	-0.007
1064	-0.007
1064	-0.006
1065	-0.006
1065	-0.006
1066	-0.005
1066	-0.004
1066	-0.003
1067	-0.002
1067	-0.001
1068	0
1068	0.001
1068	0.002
1069	0.003
1069	0.004
1070	0.005
1070	0.006
1071	0.006
1071	0.008
1071	0.008
1072	0.009
1072	0.01
1073	0.011
1073	0.013
1073	0.013
1074	0.014
1074	0.016
1075	0.016
1075	0.016
1076	0.016
1076	0.017
1076	0.016
1077	0.016
1077	0.017
1078	0.017
1078	0.017
1078	0.018
1079	0.018
1079	0.019
1080	0.02
1080	0.021
1080	0.021
1081	0.023
1081	0.024
1082	0.025
1082	0.025
1083	0.026
1083	0.026
1083	0.027
1084	0.028
1084	0.03
1085	0.031
1085	0.032
1085	0.033
1086	0.033
1086	0.034
1087	0.036
1087	0.037
1088	0.038
1088	0.038
1088	0.04
1089	0.04
1089	0.042
1090	0.043
1090	0.044
1090	0.046
1091	0.047
1091	0.049
1092	0.051
1092	0.054
1092	0.055
1093	0.057
1093	0.059
1094	0.062
1094	0.063
1095	0.065
1095	0.067
1095	0.073
1096	0.075
1096	0.079
1097	0.083
1097	0.087
1097	0.092
1098	0.096
1098	0.1
1099	0.106
1099	0.112
1100	0.119
1100	0.123
1100	0.13
1101	0.137
1101	0.144
1102	0.154
1102	0.166
1102	0.178
1103	0.192
1103	0.205
1104	0.222
1104	0.238
1104	0.263
1105	0.285
1105	0.308
1106	0.332
1106	0.361
1107	0.396
1107	0.446
1107	0.511
1108	0.767
1108	2.496
1109	-0
1109	-0
1109	-0
1110	-0
1110	-0
1111	-0
1111	-0
