Data from 15c-2-2a_Absorbance__68__01869.txt Node

Date: Wed Jan 24 13:06:09 CET 2024
User: Marek
Spectrometer: MAYP115816
Trigger mode: 0
Integration Time (sec): 2.000000E-1
Scans to average: 10
Electric dark correction enabled: true
Nonlinearity correction enabled: true
Boxcar width: 5
XAxis mode: Wavelengths
Number of Pixels in Spectrum: 2068
>>>>>Begin Spectral Data<<<<<
199	-1.859
199	-1.698
200	-1.539
200	-1.416
201	-1.342
201	-1.289
202	-1.217
202	-1.16
203	-1.11
203	-1.068
204	-1.04
204	-1.015
205	-0.992
205	-0.983
205	-0.981
206	-0.978
206	-0.976
207	-0.973
207	-0.97
208	-0.968
208	-0.967
209	-0.965
209	-0.966
210	-0.966
210	-0.964
211	-0.962
211	-0.962
212	-0.96
212	-0.957
213	-0.955
213	-0.953
213	-0.95
214	-0.947
214	-0.943
215	-0.943
215	-0.939
216	-0.937
216	-0.935
217	-0.933
217	-0.934
218	-0.934
218	-0.933
219	-0.932
219	-0.93
220	-0.928
220	-0.926
221	-0.927
221	-0.923
221	-0.918
222	-0.913
222	-0.907
223	-0.901
223	-0.895
224	-0.886
224	-0.878
225	-0.87
225	-0.86
226	-0.851
226	-0.84
227	-0.828
227	-0.817
228	-0.799
228	-0.782
229	-0.762
229	-0.74
229	-0.716
230	-0.687
230	-0.656
231	-0.623
231	-0.587
232	-0.551
232	-0.512
233	-0.473
233	-0.433
234	-0.393
234	-0.355
235	-0.317
235	-0.281
236	-0.247
236	-0.215
236	-0.184
237	-0.156
237	-0.131
238	-0.107
238	-0.085
239	-0.066
239	-0.048
240	-0.032
240	-0.018
241	-0.005
241	0.007
242	0.017
242	0.026
243	0.035
243	0.042
243	0.049
244	0.055
244	0.061
245	0.066
245	0.071
246	0.075
246	0.079
247	0.083
247	0.087
248	0.09
248	0.093
249	0.096
249	0.099
250	0.102
250	0.105
250	0.108
251	0.11
251	0.112
252	0.115
252	0.117
253	0.119
253	0.121
254	0.122
254	0.124
255	0.126
255	0.127
256	0.128
256	0.129
257	0.131
257	0.132
258	0.133
258	0.133
258	0.134
259	0.134
259	0.135
260	0.135
260	0.135
261	0.136
261	0.136
262	0.136
262	0.135
263	0.136
263	0.135
264	0.135
264	0.135
265	0.134
265	0.134
265	0.133
266	0.133
266	0.132
267	0.131
267	0.131
268	0.13
268	0.129
269	0.128
269	0.126
270	0.125
270	0.124
271	0.122
271	0.121
272	0.12
272	0.118
272	0.117
273	0.116
273	0.114
274	0.113
274	0.112
275	0.111
275	0.109
276	0.108
276	0.107
277	0.105
277	0.104
278	0.102
278	0.1
278	0.098
279	0.096
279	0.094
280	0.093
280	0.091
281	0.09
281	0.088
282	0.087
282	0.086
283	0.085
283	0.084
284	0.083
284	0.082
285	0.081
285	0.08
285	0.079
286	0.078
286	0.077
287	0.076
287	0.075
288	0.074
288	0.072
289	0.071
289	0.07
290	0.07
290	0.069
291	0.068
291	0.067
292	0.067
292	0.066
292	0.065
293	0.065
293	0.064
294	0.064
294	0.063
295	0.063
295	0.062
296	0.061
296	0.061
297	0.06
297	0.06
298	0.06
298	0.059
298	0.059
299	0.059
299	0.058
300	0.058
300	0.058
301	0.058
301	0.057
302	0.057
302	0.057
303	0.057
303	0.057
304	0.056
304	0.056
305	0.056
305	0.056
305	0.056
306	0.056
306	0.055
307	0.055
307	0.055
308	0.055
308	0.054
309	0.054
309	0.054
310	0.054
310	0.054
311	0.054
311	0.053
311	0.053
312	0.053
312	0.053
313	0.052
313	0.052
314	0.052
314	0.052
315	0.051
315	0.051
316	0.051
316	0.051
317	0.051
317	0.05
318	0.05
318	0.05
318	0.05
319	0.049
319	0.049
320	0.049
320	0.048
321	0.048
321	0.048
322	0.048
322	0.048
323	0.047
323	0.047
324	0.047
324	0.046
324	0.046
325	0.046
325	0.046
326	0.046
326	0.045
327	0.045
327	0.045
328	0.044
328	0.044
329	0.044
329	0.044
330	0.043
330	0.043
330	0.043
331	0.043
331	0.043
332	0.042
332	0.042
333	0.042
333	0.041
334	0.041
334	0.041
335	0.041
335	0.041
336	0.04
336	0.04
336	0.04
337	0.04
337	0.04
338	0.04
338	0.039
339	0.039
339	0.039
340	0.039
340	0.038
341	0.038
341	0.038
342	0.038
342	0.037
342	0.037
343	0.037
343	0.036
344	0.036
344	0.036
345	0.036
345	0.036
346	0.036
346	0.036
347	0.035
347	0.035
348	0.035
348	0.035
348	0.035
349	0.034
349	0.034
350	0.034
350	0.034
351	0.033
351	0.033
352	0.032
352	0.032
353	0.032
353	0.031
354	0.031
354	0.031
354	0.03
355	0.03
355	0.03
356	0.029
356	0.029
357	0.029
357	0.029
358	0.029
358	0.029
359	0.029
359	0.029
360	0.029
360	0.029
360	0.03
361	0.03
361	0.03
362	0.03
362	0.03
363	0.03
363	0.03
364	0.03
364	0.03
365	0.03
365	0.03
366	0.03
366	0.03
366	0.03
367	0.03
367	0.03
368	0.029
368	0.029
369	0.029
369	0.029
370	0.029
370	0.029
371	0.029
371	0.029
372	0.029
372	0.029
372	0.029
373	0.029
373	0.029
374	0.029
374	0.029
375	0.029
375	0.029
376	0.029
376	0.029
377	0.029
377	0.029
378	0.029
378	0.029
378	0.029
379	0.029
379	0.029
380	0.029
380	0.029
381	0.029
381	0.029
382	0.029
382	0.029
383	0.029
383	0.029
383	0.029
384	0.029
384	0.029
385	0.029
385	0.029
386	0.029
386	0.03
387	0.03
387	0.03
388	0.029
388	0.029
389	0.029
389	0.029
389	0.029
390	0.029
390	0.03
391	0.03
391	0.03
392	0.03
392	0.03
393	0.03
393	0.03
394	0.03
394	0.03
394	0.03
395	0.03
395	0.03
396	0.03
396	0.03
397	0.03
397	0.03
398	0.03
398	0.03
399	0.03
399	0.03
400	0.029
400	0.029
400	0.029
401	0.029
401	0.029
402	0.029
402	0.029
403	0.029
403	0.029
404	0.029
404	0.029
405	0.029
405	0.029
405	0.029
406	0.028
406	0.028
407	0.028
407	0.028
408	0.028
408	0.028
409	0.028
409	0.028
410	0.028
410	0.028
411	0.028
411	0.028
411	0.028
412	0.028
412	0.028
413	0.028
413	0.028
414	0.028
414	0.028
415	0.027
415	0.027
416	0.027
416	0.027
416	0.027
417	0.027
417	0.027
418	0.026
418	0.026
419	0.027
419	0.027
420	0.027
420	0.027
421	0.027
421	0.028
421	0.028
422	0.028
422	0.028
423	0.028
423	0.028
424	0.028
424	0.027
425	0.027
425	0.026
426	0.026
426	0.026
427	0.026
427	0.026
427	0.026
428	0.027
428	0.027
429	0.027
429	0.027
430	0.027
430	0.027
431	0.027
431	0.027
432	0.027
432	0.027
432	0.027
433	0.026
433	0.026
434	0.026
434	0.026
435	0.026
435	0.026
436	0.026
436	0.026
437	0.026
437	0.026
437	0.025
438	0.025
438	0.025
439	0.025
439	0.025
440	0.024
440	0.025
441	0.025
441	0.025
442	0.025
442	0.025
442	0.025
443	0.026
443	0.026
444	0.026
444	0.026
445	0.026
445	0.027
446	0.027
446	0.027
447	0.027
447	0.026
447	0.026
448	0.026
448	0.026
449	0.026
449	0.026
450	0.026
450	0.025
451	0.025
451	0.025
452	0.025
452	0.024
452	0.024
453	0.024
453	0.024
454	0.023
454	0.023
455	0.022
455	0.022
456	0.022
456	0.022
457	0.021
457	0.021
458	0.021
458	0.021
458	0.021
459	0.022
459	0.022
460	0.022
460	0.021
461	0.021
461	0.021
462	0.021
462	0.021
463	0.022
463	0.022
463	0.022
464	0.022
464	0.022
465	0.021
465	0.022
466	0.021
466	0.021
467	0.021
467	0.021
467	0.02
468	0.019
468	0.018
469	0.018
469	0.018
470	0.017
470	0.017
471	0.017
471	0.017
472	0.017
472	0.017
472	0.017
473	0.018
473	0.018
474	0.018
474	0.019
475	0.019
475	0.019
476	0.019
476	0.019
477	0.018
477	0.018
477	0.018
478	0.018
478	0.018
479	0.018
479	0.019
480	0.019
480	0.02
481	0.02
481	0.021
482	0.021
482	0.022
482	0.022
483	0.023
483	0.024
484	0.025
484	0.025
485	0.025
485	0.025
486	0.025
486	0.025
487	0.025
487	0.025
487	0.025
488	0.025
488	0.024
489	0.023
489	0.023
490	0.023
490	0.023
491	0.023
491	0.023
492	0.023
492	0.024
492	0.024
493	0.024
493	0.025
494	0.025
494	0.026
495	0.026
495	0.026
496	0.027
496	0.027
496	0.027
497	0.027
497	0.027
498	0.027
498	0.027
499	0.027
499	0.027
500	0.027
500	0.027
501	0.028
501	0.028
501	0.029
502	0.029
502	0.029
503	0.03
503	0.03
504	0.03
504	0.03
505	0.03
505	0.03
506	0.03
506	0.03
506	0.029
507	0.029
507	0.029
508	0.029
508	0.029
509	0.029
509	0.029
510	0.03
510	0.03
511	0.03
511	0.029
511	0.029
512	0.029
512	0.029
513	0.028
513	0.028
514	0.027
514	0.027
515	0.027
515	0.027
515	0.026
516	0.026
516	0.026
517	0.027
517	0.027
518	0.027
518	0.027
519	0.027
519	0.027
520	0.026
520	0.026
520	0.025
521	0.024
521	0.023
522	0.021
522	0.02
523	0.019
523	0.019
524	0.018
524	0.018
524	0.018
525	0.018
525	0.019
526	0.021
526	0.022
527	0.023
527	0.025
528	0.026
528	0.027
529	0.028
529	0.028
529	0.029
530	0.029
530	0.03
531	0.03
531	0.03
532	0.03
532	0.03
533	0.03
533	0.03
533	0.03
534	0.03
534	0.029
535	0.029
535	0.029
536	0.029
536	0.029
537	0.029
537	0.029
538	0.029
538	0.029
538	0.028
539	0.028
539	0.028
540	0.028
540	0.028
541	0.027
541	0.027
542	0.026
542	0.026
542	0.026
543	0.026
543	0.025
544	0.025
544	0.025
545	0.025
545	0.026
546	0.026
546	0.026
547	0.025
547	0.024
547	0.024
548	0.024
548	0.023
549	0.023
549	0.022
550	0.022
550	0.021
551	0.021
551	0.021
551	0.02
552	0.02
552	0.02
553	0.02
553	0.021
554	0.021
554	0.02
555	0.02
555	0.019
556	0.019
556	0.018
556	0.018
557	0.017
557	0.017
558	0.017
558	0.016
559	0.016
559	0.016
560	0.016
560	0.016
560	0.016
561	0.017
561	0.017
562	0.017
562	0.017
563	0.017
563	0.016
564	0.016
564	0.015
564	0.015
565	0.015
565	0.014
566	0.014
566	0.013
567	0.013
567	0.014
568	0.015
568	0.016
568	0.017
569	0.018
569	0.02
570	0.021
570	0.021
571	0.022
571	0.023
572	0.024
572	0.024
573	0.025
573	0.025
573	0.024
574	0.024
574	0.024
575	0.024
575	0.025
576	0.026
576	0.025
577	0.024
577	0.024
577	0.024
578	0.024
578	0.024
579	0.026
579	0.027
580	0.026
580	0.025
581	0.023
581	0.023
581	0.023
582	0.024
582	0.024
583	0.025
583	0.024
584	0.022
584	0.02
585	0.02
585	0.021
585	0.021
586	0.021
586	0.021
587	0.02
587	0.019
588	0.018
588	0.017
589	0.017
589	0.017
590	0.017
590	0.017
590	0.018
591	0.019
591	0.019
592	0.019
592	0.018
593	0.018
593	0.018
594	0.018
594	0.017
594	0.017
595	0.017
595	0.016
596	0.015
596	0.016
597	0.018
597	0.019
598	0.02
598	0.02
598	0.021
599	0.022
599	0.021
600	0.021
600	0.02
601	0.02
601	0.019
602	0.018
602	0.018
602	0.018
603	0.018
603	0.018
604	0.019
604	0.02
605	0.021
605	0.022
606	0.022
606	0.021
606	0.02
607	0.02
607	0.02
608	0.019
608	0.018
609	0.017
609	0.017
610	0.016
610	0.015
610	0.016
611	0.016
611	0.017
612	0.018
612	0.018
613	0.019
613	0.02
614	0.02
614	0.02
614	0.02
615	0.02
615	0.019
616	0.019
616	0.019
617	0.019
617	0.018
618	0.017
618	0.017
618	0.017
619	0.017
619	0.018
620	0.019
620	0.02
621	0.02
621	0.021
622	0.021
622	0.021
622	0.021
623	0.021
623	0.021
624	0.022
624	0.021
625	0.021
625	0.021
626	0.02
626	0.02
626	0.02
627	0.02
627	0.02
628	0.021
628	0.02
629	0.02
629	0.02
630	0.019
630	0.019
630	0.019
631	0.019
631	0.019
632	0.019
632	0.019
633	0.019
633	0.02
634	0.021
634	0.022
634	0.023
635	0.024
635	0.025
636	0.026
636	0.027
637	0.027
637	0.028
638	0.028
638	0.029
638	0.029
639	0.029
639	0.03
640	0.03
640	0.031
641	0.032
641	0.033
642	0.034
642	0.036
642	0.037
643	0.037
643	0.038
644	0.038
644	0.039
645	0.039
645	0.039
646	0.04
646	0.04
646	0.041
647	0.042
647	0.044
648	0.045
648	0.046
649	0.047
649	0.049
650	0.05
650	0.051
650	0.052
651	0.053
651	0.054
652	0.054
652	0.055
653	0.057
653	0.062
653	0.067
654	0.057
654	0.048
655	0.047
655	0.048
656	0.049
656	0.05
657	0.051
657	0.051
657	0.051
658	0.049
658	0.044
659	0.054
659	0.067
660	0.072
660	0.073
661	0.073
661	0.074
661	0.075
662	0.076
662	0.078
663	0.079
663	0.08
664	0.082
664	0.082
665	0.083
665	0.085
665	0.086
666	0.087
666	0.087
667	0.088
667	0.088
668	0.089
668	0.09
669	0.091
669	0.093
669	0.095
670	0.097
670	0.098
671	0.099
671	0.1
672	0.101
672	0.101
672	0.102
673	0.103
673	0.103
674	0.103
674	0.103
675	0.102
675	0.102
676	0.103
676	0.103
676	0.103
677	0.104
677	0.105
678	0.105
678	0.105
679	0.106
679	0.106
680	0.107
680	0.107
680	0.107
681	0.108
681	0.108
682	0.109
682	0.109
683	0.11
683	0.111
684	0.112
684	0.112
684	0.112
685	0.113
685	0.113
686	0.114
686	0.114
687	0.114
687	0.115
687	0.115
688	0.114
688	0.114
689	0.114
689	0.114
690	0.113
690	0.113
691	0.112
691	0.112
691	0.112
692	0.111
692	0.111
693	0.111
693	0.111
694	0.111
694	0.11
695	0.111
695	0.113
695	0.113
696	0.112
696	0.112
697	0.111
697	0.111
698	0.11
698	0.11
698	0.109
699	0.109
699	0.107
700	0.106
700	0.106
701	0.106
701	0.106
702	0.106
702	0.106
702	0.105
703	0.104
703	0.104
704	0.103
704	0.103
705	0.102
705	0.102
705	0.101
706	0.1
706	0.099
707	0.098
707	0.097
708	0.096
708	0.095
709	0.094
709	0.093
709	0.091
710	0.09
710	0.089
711	0.088
711	0.088
712	0.087
712	0.087
713	0.086
713	0.086
713	0.085
714	0.085
714	0.084
715	0.084
715	0.083
716	0.083
716	0.083
716	0.082
717	0.082
717	0.082
718	0.081
718	0.08
719	0.08
719	0.08
720	0.079
720	0.078
720	0.076
721	0.074
721	0.073
722	0.071
722	0.07
723	0.069
723	0.068
723	0.067
724	0.065
724	0.065
725	0.064
725	0.063
726	0.063
726	0.062
727	0.061
727	0.061
727	0.06
728	0.059
728	0.058
729	0.058
729	0.058
730	0.057
730	0.056
730	0.055
731	0.054
731	0.054
732	0.053
732	0.053
733	0.052
733	0.052
734	0.051
734	0.051
734	0.05
735	0.05
735	0.049
736	0.048
736	0.048
737	0.047
737	0.047
737	0.046
738	0.044
738	0.042
739	0.041
739	0.04
740	0.038
740	0.037
741	0.036
741	0.034
741	0.032
742	0.029
742	0.027
743	0.025
743	0.023
744	0.022
744	0.02
744	0.018
745	0.017
745	0.016
746	0.015
746	0.015
747	0.015
747	0.016
748	0.016
748	0.017
748	0.018
749	0.019
749	0.019
750	0.02
750	0.02
751	0.02
751	0.021
751	0.021
752	0.02
752	0.019
753	0.018
753	0.017
754	0.016
754	0.016
754	0.016
755	0.016
755	0.017
756	0.017
756	0.016
757	0.016
757	0.017
758	0.017
758	0.017
758	0.017
759	0.017
759	0.016
760	0.016
760	0.015
761	0.014
761	0.014
761	0.014
762	0.013
762	0.012
763	0.012
763	0.01
764	0.008
764	0.007
764	0.005
765	0.004
765	0.002
766	0.001
766	0.001
767	0
767	-0.001
768	-0.003
768	-0.004
768	-0.004
769	-0.005
769	-0.005
770	-0.007
770	-0.008
771	-0.01
771	-0.012
771	-0.014
772	-0.016
772	-0.018
773	-0.02
773	-0.022
774	-0.025
774	-0.027
775	-0.028
775	-0.03
775	-0.032
776	-0.035
776	-0.037
777	-0.039
777	-0.041
778	-0.044
778	-0.046
778	-0.049
779	-0.051
779	-0.054
780	-0.057
780	-0.062
781	-0.066
781	-0.072
781	-0.078
782	-0.084
782	-0.09
783	-0.096
783	-0.102
784	-0.107
784	-0.112
784	-0.116
785	-0.121
785	-0.125
786	-0.127
786	-0.125
787	-0.121
787	-0.118
788	-0.118
788	-0.119
788	-0.121
789	-0.123
789	-0.123
790	-0.121
790	-0.12
791	-0.122
791	-0.124
791	-0.127
792	-0.123
792	-0.113
793	-0.107
793	-0.103
794	-0.101
794	-0.103
794	-0.106
795	-0.108
795	-0.107
796	-0.107
796	-0.109
797	-0.117
797	-0.128
797	-0.134
798	-0.139
798	-0.142
799	-0.142
799	-0.142
800	-0.142
800	-0.144
801	-0.147
801	-0.149
801	-0.149
802	-0.15
802	-0.151
803	-0.152
803	-0.152
804	-0.15
804	-0.144
804	-0.137
805	-0.133
805	-0.13
806	-0.127
806	-0.125
807	-0.124
807	-0.123
807	-0.123
808	-0.123
808	-0.124
809	-0.129
809	-0.135
810	-0.139
810	-0.142
810	-0.146
811	-0.15
811	-0.151
812	-0.148
812	-0.146
813	-0.146
813	-0.147
813	-0.149
814	-0.15
814	-0.15
815	-0.147
815	-0.144
816	-0.142
816	-0.142
817	-0.146
817	-0.148
817	-0.147
818	-0.143
818	-0.138
819	-0.132
819	-0.128
820	-0.124
820	-0.121
820	-0.116
821	-0.109
821	-0.102
822	-0.093
822	-0.086
823	-0.079
823	-0.074
823	-0.069
824	-0.063
824	-0.057
825	-0.05
825	-0.044
826	-0.039
826	-0.035
826	-0.032
827	-0.029
827	-0.026
828	-0.024
828	-0.022
829	-0.021
829	-0.02
829	-0.02
830	-0.02
830	-0.02
831	-0.018
831	-0.018
832	-0.017
832	-0.016
832	-0.015
833	-0.014
833	-0.013
834	-0.012
834	-0.011
835	-0.009
835	-0.009
835	-0.008
836	-0.008
836	-0.007
837	-0.007
837	-0.007
838	-0.008
838	-0.008
839	-0.008
839	-0.008
839	-0.008
840	-0.008
840	-0.008
841	-0.007
841	-0.007
842	-0.006
842	-0.005
842	-0.004
843	-0.003
843	-0.002
844	-0
844	0.001
845	0.002
845	0.002
845	0.003
846	0.004
846	0.004
847	0.004
847	0.005
848	0.006
848	0.007
848	0.008
849	0.009
849	0.01
850	0.011
850	0.011
851	0.012
851	0.013
851	0.013
852	0.013
852	0.013
853	0.012
853	0.011
854	0.01
854	0.009
854	0.008
855	0.007
855	0.006
856	0.005
856	0.005
857	0.004
857	0.004
857	0.005
858	0.006
858	0.007
859	0.009
859	0.01
860	0.012
860	0.014
860	0.016
861	0.018
861	0.019
862	0.02
862	0.021
863	0.021
863	0.021
863	0.021
864	0.02
864	0.019
865	0.019
865	0.018
866	0.018
866	0.017
866	0.016
867	0.015
867	0.015
868	0.014
868	0.014
869	0.013
869	0.012
869	0.011
870	0.01
870	0.009
871	0.008
871	0.008
872	0.007
872	0.006
872	0.006
873	0.006
873	0.006
874	0.006
874	0.006
875	0.006
875	0.006
875	0.007
876	0.007
876	0.007
877	0.008
877	0.008
878	0.009
878	0.009
878	0.01
879	0.01
879	0.01
880	0.011
880	0.011
881	0.011
881	0.011
881	0.011
882	0.011
882	0.012
883	0.012
883	0.012
884	0.013
884	0.013
884	0.013
885	0.013
885	0.014
886	0.014
886	0.014
887	0.014
887	0.015
887	0.015
888	0.015
888	0.016
889	0.016
889	0.017
890	0.018
890	0.019
890	0.02
891	0.02
891	0.021
892	0.021
892	0.021
893	0.021
893	0.021
893	0.021
894	0.021
894	0.02
895	0.019
895	0.018
895	0.016
896	0.015
896	0.014
897	0.013
897	0.011
898	0.01
898	0.009
898	0.008
899	0.007
899	0.006
900	0.006
900	0.006
901	0.006
901	0.006
901	0.006
902	0.006
902	0.007
903	0.006
903	0.006
904	0.006
904	0.005
904	0.004
905	0.004
905	0.004
906	0.004
906	0.004
907	0.004
907	0.004
907	0.005
908	0.006
908	0.007
909	0.008
909	0.009
910	0.01
910	0.011
910	0.012
911	0.013
911	0.013
912	0.014
912	0.014
913	0.013
913	0.013
913	0.012
914	0.012
914	0.011
915	0.01
915	0.009
916	0.008
916	0.008
916	0.008
917	0.008
917	0.007
918	0.007
918	0.007
918	0.007
919	0.008
919	0.008
920	0.008
920	0.008
921	0.008
921	0.007
921	0.007
922	0.007
922	0.008
923	0.008
923	0.008
924	0.008
924	0.009
924	0.009
925	0.009
925	0.009
926	0.009
926	0.009
927	0.009
927	0.008
927	0.008
928	0.007
928	0.007
929	0.006
929	0.006
930	0.005
930	0.005
930	0.005
931	0.004
931	0.004
932	0.004
932	0.003
933	0.003
933	0.003
933	0.002
934	0.002
934	0.001
935	0
935	-0
935	-0
936	-0.001
936	-0.001
937	-0.001
937	-0.001
938	-0
938	0
938	0
939	0.001
939	0.002
940	0.003
940	0.004
941	0.005
941	0.005
941	0.006
942	0.007
942	0.008
943	0.008
943	0.009
944	0.01
944	0.011
944	0.012
945	0.013
945	0.014
946	0.014
946	0.015
946	0.015
947	0.015
947	0.016
948	0.016
948	0.016
949	0.015
949	0.015
949	0.015
950	0.016
950	0.016
951	0.016
951	0.016
952	0.017
952	0.017
952	0.018
953	0.018
953	0.018
954	0.018
954	0.018
955	0.018
955	0.017
955	0.017
956	0.017
956	0.017
957	0.016
957	0.015
957	0.014
958	0.014
958	0.013
959	0.013
959	0.012
960	0.011
960	0.009
960	0.008
961	0.006
961	0.005
962	0.004
962	0.003
963	0.001
963	0
963	-0.001
964	-0.002
964	-0.002
965	-0.002
965	-0.002
966	-0.002
966	-0.002
966	-0.002
967	-0.001
967	-0.001
968	-0.001
968	-0.001
968	-0.001
969	-0.001
969	-0.001
970	-0.001
970	-0.001
971	-0.001
971	-0.001
971	-0
972	0
972	0.001
973	0.002
973	0.003
974	0.004
974	0.005
974	0.006
975	0.007
975	0.007
976	0.008
976	0.008
976	0.009
977	0.008
977	0.008
978	0.007
978	0.007
979	0.006
979	0.005
979	0.004
980	0.003
980	0.002
981	0.002
981	0.001
982	0
982	0
982	0
983	-0
983	-0
984	-0
984	-0
984	0
985	0.001
985	0.001
986	0.002
986	0.002
987	0.002
987	0.003
987	0.003
988	0.003
988	0.004
989	0.004
989	0.004
990	0.004
990	0.004
990	0.004
991	0.004
991	0.005
992	0.006
992	0.006
992	0.007
993	0.008
993	0.009
994	0.009
994	0.01
995	0.01
995	0.01
995	0.01
996	0.01
996	0.009
997	0.008
997	0.007
997	0.006
998	0.006
998	0.005
999	0.004
999	0.004
1000	0.003
1000	0.003
1000	0.003
1001	0.003
1001	0.003
1002	0.002
1002	0.002
1003	0.002
1003	0.002
1003	0.002
1004	0.001
1004	0.001
1005	0.001
1005	0
1005	0
1006	-0
1006	-0
1007	-0
1007	0
1008	0
1008	0
1008	0.001
1009	0.001
1009	0.002
1010	0.002
1010	0.002
1010	0.003
1011	0.003
1011	0.003
1012	0.003
1012	0.003
1013	0.004
1013	0.003
1013	0.003
1014	0.003
1014	0.003
1015	0.002
1015	0.002
1016	0.002
1016	0.002
1016	0.002
1017	0.002
1017	0.003
1018	0.003
1018	0.003
1018	0.004
1019	0.004
1019	0.004
1020	0.004
1020	0.004
1021	0.004
1021	0.003
1021	0.003
1022	0.002
1022	0.002
1023	0.002
1023	0.001
1023	0.001
1024	0
1024	-0
1025	-0
1025	-0
1026	-0.001
1026	-0.001
1026	-0.001
1027	-0.001
1027	-0.001
1028	-0.001
1028	-0
1028	-0
1029	0
1029	0
1030	0
1030	0.001
1031	0.001
1031	0.001
1031	0.001
1032	0.001
1032	0.001
1033	0
1033	-0.001
1033	-0.001
1034	-0.002
1034	-0.003
1035	-0.004
1035	-0.005
1036	-0.006
1036	-0.007
1036	-0.007
1037	-0.007
1037	-0.008
1038	-0.008
1038	-0.008
1039	-0.007
1039	-0.007
1039	-0.007
1040	-0.007
1040	-0.007
1041	-0.007
1041	-0.008
1041	-0.009
1042	-0.009
1042	-0.01
1043	-0.01
1043	-0.011
1044	-0.011
1044	-0.012
1044	-0.012
1045	-0.012
1045	-0.012
1046	-0.012
1046	-0.012
1046	-0.012
1047	-0.011
1047	-0.011
1048	-0.01
1048	-0.009
1049	-0.009
1049	-0.009
1049	-0.009
1050	-0.008
1050	-0.008
1051	-0.007
1051	-0.006
1051	-0.005
1052	-0.005
1052	-0.004
1053	-0.003
1053	-0.002
1053	-0.001
1054	-0
1054	0.001
1055	0.002
1055	0.002
1056	0.002
1056	0.002
1056	0.001
1057	0.001
1057	0
1058	-0
1058	-0.001
1058	-0.001
1059	-0.002
1059	-0.003
1060	-0.003
1060	-0.004
1061	-0.003
1061	-0.003
1061	-0.003
1062	-0.004
1062	-0.004
1063	-0.005
1063	-0.005
1063	-0.005
1064	-0.005
1064	-0.005
1065	-0.005
1065	-0.005
1066	-0.004
1066	-0.004
1066	-0.003
1067	-0.003
1067	-0.002
1068	-0.001
1068	0
1068	0.001
1069	0.001
1069	0.002
1070	0.002
1070	0.003
1071	0.003
1071	0.005
1071	0.005
1072	0.006
1072	0.007
1073	0.008
1073	0.01
1073	0.011
1074	0.012
1074	0.013
1075	0.014
1075	0.014
1076	0.015
1076	0.015
1076	0.015
1077	0.016
1077	0.016
1078	0.017
1078	0.018
1078	0.019
1079	0.019
1079	0.02
1080	0.021
1080	0.023
1080	0.024
1081	0.025
1081	0.027
1082	0.027
1082	0.028
1083	0.028
1083	0.029
1083	0.031
1084	0.031
1084	0.033
1085	0.034
1085	0.035
1085	0.035
1086	0.036
1086	0.037
1087	0.039
1087	0.04
1088	0.04
1088	0.041
1088	0.043
1089	0.044
1089	0.045
1090	0.047
1090	0.049
1090	0.05
1091	0.052
1091	0.054
1092	0.056
1092	0.059
1092	0.062
1093	0.063
1093	0.066
1094	0.069
1094	0.071
1095	0.074
1095	0.077
1095	0.082
1096	0.086
1096	0.09
1097	0.095
1097	0.098
1097	0.104
1098	0.109
1098	0.114
1099	0.121
1099	0.127
1100	0.135
1100	0.142
1100	0.15
1101	0.158
1101	0.168
1102	0.18
1102	0.193
1102	0.207
1103	0.223
1103	0.239
1104	0.258
1104	0.278
1104	0.303
1105	0.329
1105	0.357
1106	0.385
1106	0.422
1107	0.464
1107	0.526
1107	0.614
1108	0.999
1108	-0
1109	-0
1109	-0
1109	-0
1110	-0
1110	-0
1111	-0
1111	-0
