Data from 15c-2-2a_Absorbance__3337__05138.txt Node

Date: Wed Jan 24 14:55:06 CET 2024
User: Marek
Spectrometer: MAYP115816
Trigger mode: 0
Integration Time (sec): 2.000000E-1
Scans to average: 10
Electric dark correction enabled: true
Nonlinearity correction enabled: true
Boxcar width: 5
XAxis mode: Wavelengths
Number of Pixels in Spectrum: 2068
>>>>>Begin Spectral Data<<<<<
199	-1.828
199	-1.667
200	-1.508
200	-1.383
201	-1.31
201	-1.257
202	-1.185
202	-1.127
203	-1.077
203	-1.034
204	-1.005
204	-0.979
205	-0.957
205	-0.947
205	-0.946
206	-0.942
206	-0.94
207	-0.936
207	-0.933
208	-0.932
208	-0.93
209	-0.928
209	-0.929
210	-0.928
210	-0.926
211	-0.925
211	-0.925
212	-0.922
212	-0.92
213	-0.918
213	-0.915
213	-0.913
214	-0.911
214	-0.907
215	-0.906
215	-0.902
216	-0.9
216	-0.898
217	-0.896
217	-0.896
218	-0.897
218	-0.895
219	-0.894
219	-0.891
220	-0.89
220	-0.888
221	-0.888
221	-0.885
221	-0.88
222	-0.874
222	-0.867
223	-0.86
223	-0.854
224	-0.845
224	-0.837
225	-0.828
225	-0.818
226	-0.807
226	-0.795
227	-0.782
227	-0.77
228	-0.751
228	-0.733
229	-0.711
229	-0.689
229	-0.661
230	-0.631
230	-0.597
231	-0.561
231	-0.521
232	-0.48
232	-0.436
233	-0.392
233	-0.346
234	-0.299
234	-0.253
235	-0.207
235	-0.161
236	-0.118
236	-0.076
236	-0.035
237	0.004
237	0.04
238	0.075
238	0.107
239	0.138
239	0.166
240	0.191
240	0.214
241	0.236
241	0.256
242	0.273
242	0.29
243	0.304
243	0.318
243	0.33
244	0.341
244	0.351
245	0.36
245	0.369
246	0.377
246	0.384
247	0.391
247	0.398
248	0.404
248	0.409
249	0.415
249	0.42
250	0.424
250	0.429
250	0.433
251	0.437
251	0.441
252	0.444
252	0.447
253	0.45
253	0.453
254	0.455
254	0.458
255	0.46
255	0.462
256	0.464
256	0.465
257	0.467
257	0.468
258	0.469
258	0.47
258	0.471
259	0.472
259	0.473
260	0.473
260	0.474
261	0.474
261	0.475
262	0.475
262	0.475
263	0.475
263	0.475
264	0.474
264	0.474
265	0.473
265	0.472
265	0.472
266	0.471
266	0.47
267	0.469
267	0.468
268	0.466
268	0.465
269	0.464
269	0.462
270	0.46
270	0.459
271	0.457
271	0.455
272	0.453
272	0.451
272	0.449
273	0.448
273	0.446
274	0.444
274	0.442
275	0.44
275	0.438
276	0.437
276	0.434
277	0.432
277	0.429
278	0.427
278	0.424
278	0.421
279	0.418
279	0.415
280	0.413
280	0.411
281	0.409
281	0.407
282	0.405
282	0.404
283	0.402
283	0.401
284	0.399
284	0.398
285	0.396
285	0.394
285	0.392
286	0.39
286	0.389
287	0.387
287	0.385
288	0.383
288	0.381
289	0.38
289	0.378
290	0.376
290	0.374
291	0.373
291	0.372
292	0.37
292	0.369
292	0.368
293	0.366
293	0.365
294	0.364
294	0.363
295	0.361
295	0.36
296	0.359
296	0.358
297	0.357
297	0.356
298	0.354
298	0.353
298	0.352
299	0.351
299	0.35
300	0.349
300	0.348
301	0.347
301	0.346
302	0.345
302	0.344
303	0.344
303	0.343
304	0.342
304	0.341
305	0.34
305	0.339
305	0.338
306	0.337
306	0.336
307	0.335
307	0.334
308	0.333
308	0.332
309	0.331
309	0.33
310	0.329
310	0.329
311	0.328
311	0.327
311	0.326
312	0.325
312	0.324
313	0.324
313	0.323
314	0.322
314	0.321
315	0.32
315	0.319
316	0.318
316	0.317
317	0.316
317	0.316
318	0.315
318	0.314
318	0.313
319	0.312
319	0.311
320	0.31
320	0.309
321	0.308
321	0.307
322	0.306
322	0.306
323	0.305
323	0.304
324	0.303
324	0.302
324	0.301
325	0.3
325	0.3
326	0.299
326	0.298
327	0.297
327	0.296
328	0.296
328	0.295
329	0.294
329	0.293
330	0.292
330	0.292
330	0.291
331	0.29
331	0.289
332	0.288
332	0.287
333	0.287
333	0.286
334	0.285
334	0.284
335	0.283
335	0.283
336	0.282
336	0.281
336	0.28
337	0.28
337	0.279
338	0.279
338	0.278
339	0.278
339	0.277
340	0.276
340	0.276
341	0.275
341	0.275
342	0.274
342	0.274
342	0.273
343	0.272
343	0.272
344	0.271
344	0.271
345	0.27
345	0.27
346	0.269
346	0.269
347	0.268
347	0.268
348	0.267
348	0.267
348	0.267
349	0.266
349	0.266
350	0.265
350	0.265
351	0.264
351	0.263
352	0.263
352	0.262
353	0.262
353	0.261
354	0.26
354	0.26
354	0.259
355	0.259
355	0.258
356	0.257
356	0.257
357	0.256
357	0.255
358	0.255
358	0.255
359	0.255
359	0.255
360	0.255
360	0.256
360	0.256
361	0.256
361	0.257
362	0.257
362	0.258
363	0.258
363	0.257
364	0.257
364	0.257
365	0.256
365	0.256
366	0.256
366	0.255
366	0.255
367	0.255
367	0.254
368	0.254
368	0.253
369	0.253
369	0.253
370	0.252
370	0.252
371	0.252
371	0.252
372	0.251
372	0.251
372	0.251
373	0.251
373	0.251
374	0.25
374	0.25
375	0.25
375	0.25
376	0.249
376	0.249
377	0.249
377	0.249
378	0.249
378	0.249
378	0.249
379	0.249
379	0.249
380	0.249
380	0.249
381	0.248
381	0.248
382	0.248
382	0.247
383	0.247
383	0.247
383	0.246
384	0.246
384	0.246
385	0.245
385	0.245
386	0.245
386	0.245
387	0.245
387	0.245
388	0.244
388	0.244
389	0.244
389	0.243
389	0.243
390	0.243
390	0.243
391	0.243
391	0.243
392	0.243
392	0.243
393	0.243
393	0.242
394	0.242
394	0.242
394	0.242
395	0.242
395	0.241
396	0.241
396	0.241
397	0.241
397	0.241
398	0.241
398	0.241
399	0.24
399	0.24
400	0.24
400	0.239
400	0.239
401	0.239
401	0.238
402	0.238
402	0.237
403	0.237
403	0.237
404	0.236
404	0.236
405	0.236
405	0.235
405	0.235
406	0.235
406	0.234
407	0.234
407	0.234
408	0.233
408	0.233
409	0.233
409	0.232
410	0.232
410	0.232
411	0.232
411	0.232
411	0.232
412	0.231
412	0.231
413	0.231
413	0.23
414	0.23
414	0.23
415	0.23
415	0.229
416	0.229
416	0.229
416	0.228
417	0.228
417	0.227
418	0.227
418	0.227
419	0.227
419	0.227
420	0.228
420	0.228
421	0.228
421	0.228
421	0.228
422	0.228
422	0.228
423	0.228
423	0.228
424	0.228
424	0.227
425	0.226
425	0.226
426	0.225
426	0.225
427	0.224
427	0.225
427	0.225
428	0.225
428	0.225
429	0.226
429	0.226
430	0.226
430	0.226
431	0.226
431	0.226
432	0.226
432	0.225
432	0.225
433	0.224
433	0.224
434	0.223
434	0.223
435	0.223
435	0.223
436	0.222
436	0.222
437	0.222
437	0.222
437	0.222
438	0.221
438	0.221
439	0.221
439	0.221
440	0.221
440	0.22
441	0.221
441	0.221
442	0.221
442	0.221
442	0.221
443	0.222
443	0.222
444	0.222
444	0.222
445	0.222
445	0.223
446	0.223
446	0.222
447	0.222
447	0.222
447	0.222
448	0.222
448	0.222
449	0.222
449	0.221
450	0.221
450	0.221
451	0.22
451	0.22
452	0.22
452	0.22
452	0.219
453	0.219
453	0.219
454	0.218
454	0.218
455	0.218
455	0.218
456	0.217
456	0.217
457	0.217
457	0.217
458	0.217
458	0.217
458	0.217
459	0.217
459	0.218
460	0.217
460	0.217
461	0.217
461	0.217
462	0.217
462	0.217
463	0.217
463	0.218
463	0.218
464	0.218
464	0.219
465	0.219
465	0.219
466	0.219
466	0.22
467	0.22
467	0.22
467	0.219
468	0.218
468	0.218
469	0.217
469	0.217
470	0.216
470	0.216
471	0.216
471	0.217
472	0.217
472	0.217
472	0.218
473	0.219
473	0.22
474	0.221
474	0.221
475	0.222
475	0.222
476	0.223
476	0.223
477	0.224
477	0.224
477	0.225
478	0.225
478	0.226
479	0.226
479	0.228
480	0.229
480	0.23
481	0.231
481	0.232
482	0.233
482	0.235
482	0.236
483	0.237
483	0.24
484	0.242
484	0.243
485	0.245
485	0.246
486	0.247
486	0.248
487	0.249
487	0.249
487	0.25
488	0.25
488	0.25
489	0.25
489	0.25
490	0.25
490	0.251
491	0.252
491	0.253
492	0.254
492	0.256
492	0.257
493	0.259
493	0.26
494	0.262
494	0.264
495	0.266
495	0.268
496	0.269
496	0.271
496	0.273
497	0.274
497	0.276
498	0.277
498	0.279
499	0.28
499	0.281
500	0.283
500	0.285
501	0.287
501	0.289
501	0.291
502	0.292
502	0.294
503	0.296
503	0.298
504	0.299
504	0.301
505	0.302
505	0.303
506	0.304
506	0.305
506	0.307
507	0.307
507	0.308
508	0.309
508	0.311
509	0.312
509	0.313
510	0.315
510	0.316
511	0.316
511	0.317
511	0.318
512	0.319
512	0.32
513	0.321
513	0.321
514	0.321
514	0.321
515	0.322
515	0.322
515	0.322
516	0.323
516	0.324
517	0.325
517	0.326
518	0.327
518	0.327
519	0.326
519	0.326
520	0.325
520	0.323
520	0.322
521	0.32
521	0.318
522	0.316
522	0.315
523	0.314
523	0.314
524	0.315
524	0.317
524	0.319
525	0.321
525	0.323
526	0.325
526	0.327
527	0.329
527	0.331
528	0.332
528	0.332
529	0.332
529	0.332
529	0.331
530	0.331
530	0.33
531	0.329
531	0.329
532	0.327
532	0.326
533	0.325
533	0.325
533	0.324
534	0.323
534	0.321
535	0.32
535	0.319
536	0.318
536	0.316
537	0.315
537	0.313
538	0.312
538	0.31
538	0.308
539	0.306
539	0.304
540	0.303
540	0.301
541	0.299
541	0.297
542	0.295
542	0.293
542	0.29
543	0.289
543	0.287
544	0.284
544	0.283
545	0.281
545	0.279
546	0.277
546	0.275
547	0.273
547	0.27
547	0.267
548	0.264
548	0.261
549	0.258
549	0.256
550	0.253
550	0.25
551	0.247
551	0.244
551	0.241
552	0.239
552	0.237
553	0.235
553	0.234
554	0.232
554	0.229
555	0.227
555	0.224
556	0.221
556	0.217
556	0.215
557	0.212
557	0.209
558	0.206
558	0.203
559	0.201
559	0.199
560	0.197
560	0.195
560	0.193
561	0.192
561	0.191
562	0.189
562	0.188
563	0.186
563	0.183
564	0.181
564	0.178
564	0.175
565	0.173
565	0.171
566	0.168
566	0.166
567	0.164
567	0.163
568	0.162
568	0.162
568	0.162
569	0.162
569	0.162
570	0.162
570	0.16
571	0.16
571	0.16
572	0.159
572	0.158
573	0.158
573	0.156
573	0.154
574	0.153
574	0.152
575	0.15
575	0.15
576	0.15
576	0.148
577	0.146
577	0.144
577	0.143
578	0.142
578	0.141
579	0.141
579	0.141
580	0.14
580	0.137
581	0.134
581	0.133
581	0.132
582	0.131
582	0.131
583	0.13
583	0.129
584	0.127
584	0.123
585	0.122
585	0.122
585	0.121
586	0.121
586	0.12
587	0.119
587	0.117
588	0.115
588	0.113
589	0.111
589	0.11
590	0.109
590	0.108
590	0.109
591	0.109
591	0.108
592	0.107
592	0.106
593	0.106
593	0.105
594	0.104
594	0.103
594	0.102
595	0.102
595	0.1
596	0.099
596	0.099
597	0.101
597	0.101
598	0.101
598	0.101
598	0.102
599	0.102
599	0.101
600	0.1
600	0.1
601	0.099
601	0.098
602	0.097
602	0.097
602	0.096
603	0.096
603	0.097
604	0.097
604	0.098
605	0.099
605	0.1
606	0.1
606	0.099
606	0.098
607	0.098
607	0.097
608	0.097
608	0.096
609	0.095
609	0.095
610	0.094
610	0.093
610	0.093
611	0.094
611	0.094
612	0.095
612	0.096
613	0.097
613	0.098
614	0.098
614	0.098
614	0.098
615	0.098
615	0.097
616	0.097
616	0.097
617	0.097
617	0.096
618	0.095
618	0.094
618	0.094
619	0.095
619	0.096
620	0.097
620	0.099
621	0.099
621	0.1
622	0.1
622	0.101
622	0.101
623	0.101
623	0.102
624	0.102
624	0.102
625	0.101
625	0.102
626	0.102
626	0.102
626	0.103
627	0.103
627	0.104
628	0.105
628	0.106
629	0.106
629	0.107
630	0.107
630	0.107
630	0.108
631	0.11
631	0.111
632	0.111
632	0.112
633	0.114
633	0.115
634	0.117
634	0.119
634	0.122
635	0.123
635	0.125
636	0.127
636	0.129
637	0.13
637	0.132
638	0.134
638	0.136
638	0.137
639	0.139
639	0.14
640	0.142
640	0.144
641	0.146
641	0.148
642	0.15
642	0.152
642	0.154
643	0.156
643	0.157
644	0.159
644	0.161
645	0.163
645	0.164
646	0.166
646	0.169
646	0.172
647	0.175
647	0.178
648	0.18
648	0.183
649	0.186
649	0.19
650	0.193
650	0.196
650	0.199
651	0.202
651	0.204
652	0.207
652	0.21
653	0.214
653	0.222
653	0.233
654	0.185
654	0.15
655	0.155
655	0.158
656	0.16
656	0.162
657	0.164
657	0.166
657	0.167
658	0.164
658	0.155
659	0.197
659	0.257
660	0.263
660	0.265
661	0.268
661	0.271
661	0.274
662	0.278
662	0.282
663	0.286
663	0.29
664	0.293
664	0.296
665	0.3
665	0.303
665	0.306
666	0.309
666	0.312
667	0.315
667	0.318
668	0.321
668	0.324
669	0.327
669	0.331
669	0.335
670	0.34
670	0.343
671	0.346
671	0.349
672	0.351
672	0.354
672	0.356
673	0.358
673	0.36
674	0.361
674	0.362
675	0.363
675	0.364
676	0.366
676	0.368
676	0.37
677	0.372
677	0.374
678	0.376
678	0.377
679	0.379
679	0.381
680	0.383
680	0.384
680	0.385
681	0.386
681	0.387
682	0.388
682	0.389
683	0.39
683	0.393
684	0.394
684	0.395
684	0.396
685	0.397
685	0.398
686	0.399
686	0.399
687	0.4
687	0.4
687	0.399
688	0.398
688	0.397
689	0.397
689	0.397
690	0.396
690	0.395
691	0.394
691	0.394
691	0.393
692	0.392
692	0.392
693	0.391
693	0.391
694	0.39
694	0.389
695	0.389
695	0.389
695	0.388
696	0.387
696	0.386
697	0.385
697	0.383
698	0.382
698	0.38
698	0.378
699	0.377
699	0.374
700	0.372
700	0.37
701	0.368
701	0.366
702	0.365
702	0.363
702	0.361
703	0.359
703	0.356
704	0.354
704	0.352
705	0.351
705	0.348
705	0.346
706	0.344
706	0.341
707	0.339
707	0.336
708	0.334
708	0.331
709	0.329
709	0.326
709	0.322
710	0.318
710	0.315
711	0.313
711	0.31
712	0.308
712	0.305
713	0.303
713	0.301
713	0.299
714	0.296
714	0.294
715	0.292
715	0.29
716	0.287
716	0.286
716	0.283
717	0.28
717	0.278
718	0.275
718	0.272
719	0.269
719	0.267
720	0.264
720	0.26
720	0.257
721	0.253
721	0.25
722	0.246
722	0.243
723	0.24
723	0.238
723	0.235
724	0.233
724	0.23
725	0.228
725	0.226
726	0.224
726	0.221
727	0.219
727	0.217
727	0.214
728	0.212
728	0.209
729	0.208
729	0.205
730	0.202
730	0.2
730	0.198
731	0.195
731	0.193
732	0.191
732	0.189
733	0.187
733	0.185
734	0.183
734	0.18
734	0.178
735	0.177
735	0.174
736	0.172
736	0.17
737	0.168
737	0.167
737	0.164
738	0.162
738	0.158
739	0.156
739	0.153
740	0.15
740	0.148
741	0.146
741	0.143
741	0.139
742	0.134
742	0.13
743	0.127
743	0.124
744	0.121
744	0.118
744	0.115
745	0.113
745	0.11
746	0.108
746	0.106
747	0.105
747	0.105
748	0.104
748	0.104
748	0.103
749	0.103
749	0.102
750	0.102
750	0.101
751	0.101
751	0.1
751	0.1
752	0.098
752	0.097
753	0.095
753	0.094
754	0.093
754	0.091
754	0.091
755	0.09
755	0.09
756	0.088
756	0.087
757	0.086
757	0.085
758	0.085
758	0.084
758	0.084
759	0.083
759	0.081
760	0.079
760	0.078
761	0.077
761	0.076
761	0.075
762	0.074
762	0.073
763	0.071
763	0.069
764	0.067
764	0.065
764	0.063
765	0.061
765	0.058
766	0.057
766	0.056
767	0.054
767	0.052
768	0.049
768	0.047
768	0.046
769	0.045
769	0.044
770	0.042
770	0.04
771	0.038
771	0.035
771	0.032
772	0.03
772	0.028
773	0.025
773	0.023
774	0.02
774	0.018
775	0.016
775	0.014
775	0.012
776	0.01
776	0.007
777	0.005
777	0.003
778	-0
778	-0.004
778	-0.007
779	-0.009
779	-0.012
780	-0.016
780	-0.02
781	-0.024
781	-0.028
781	-0.033
782	-0.039
782	-0.046
783	-0.052
783	-0.058
784	-0.066
784	-0.074
784	-0.082
785	-0.091
785	-0.099
786	-0.105
786	-0.108
787	-0.109
787	-0.109
788	-0.113
788	-0.116
788	-0.12
789	-0.123
789	-0.123
790	-0.121
790	-0.121
791	-0.122
791	-0.124
791	-0.127
792	-0.123
792	-0.113
793	-0.107
793	-0.103
794	-0.101
794	-0.103
794	-0.106
795	-0.108
795	-0.108
796	-0.107
796	-0.11
797	-0.118
797	-0.128
797	-0.134
798	-0.139
798	-0.142
799	-0.142
799	-0.142
800	-0.142
800	-0.144
801	-0.148
801	-0.149
801	-0.149
802	-0.151
802	-0.152
803	-0.152
803	-0.152
804	-0.15
804	-0.145
804	-0.138
805	-0.133
805	-0.13
806	-0.127
806	-0.125
807	-0.124
807	-0.123
807	-0.123
808	-0.123
808	-0.124
809	-0.129
809	-0.135
810	-0.139
810	-0.143
810	-0.147
811	-0.15
811	-0.151
812	-0.148
812	-0.146
813	-0.146
813	-0.148
813	-0.149
814	-0.15
814	-0.15
815	-0.147
815	-0.144
816	-0.142
816	-0.142
817	-0.146
817	-0.149
817	-0.148
818	-0.144
818	-0.139
819	-0.133
819	-0.127
820	-0.124
820	-0.12
820	-0.114
821	-0.107
821	-0.099
822	-0.089
822	-0.081
823	-0.073
823	-0.067
823	-0.061
824	-0.055
824	-0.048
825	-0.041
825	-0.034
826	-0.028
826	-0.024
826	-0.02
827	-0.016
827	-0.012
828	-0.01
828	-0.008
829	-0.006
829	-0.005
829	-0.004
830	-0.004
830	-0.004
831	-0.002
831	-0.001
832	-0.001
832	0
832	0.001
833	0.002
833	0.003
834	0.004
834	0.005
835	0.005
835	0.006
835	0.006
836	0.007
836	0.007
837	0.008
837	0.008
838	0.008
838	0.008
839	0.008
839	0.008
839	0.007
840	0.007
840	0.007
841	0.007
841	0.007
842	0.008
842	0.008
842	0.009
843	0.01
843	0.01
844	0.011
844	0.012
845	0.013
845	0.013
845	0.014
846	0.015
846	0.015
847	0.016
847	0.017
848	0.018
848	0.019
848	0.02
849	0.021
849	0.021
850	0.022
850	0.022
851	0.022
851	0.022
851	0.021
852	0.02
852	0.02
853	0.018
853	0.017
854	0.016
854	0.015
854	0.015
855	0.014
855	0.013
856	0.013
856	0.013
857	0.013
857	0.014
857	0.015
858	0.016
858	0.017
859	0.019
859	0.021
860	0.023
860	0.025
860	0.026
861	0.028
861	0.029
862	0.03
862	0.03
863	0.03
863	0.03
863	0.03
864	0.029
864	0.028
865	0.028
865	0.027
866	0.027
866	0.026
866	0.026
867	0.025
867	0.025
868	0.024
868	0.024
869	0.023
869	0.022
869	0.021
870	0.02
870	0.019
871	0.018
871	0.017
872	0.015
872	0.014
872	0.014
873	0.013
873	0.013
874	0.012
874	0.013
875	0.013
875	0.014
875	0.014
876	0.015
876	0.015
877	0.016
877	0.016
878	0.017
878	0.017
878	0.018
879	0.018
879	0.018
880	0.018
880	0.019
881	0.019
881	0.019
881	0.019
882	0.02
882	0.02
883	0.021
883	0.021
884	0.021
884	0.021
884	0.021
885	0.021
885	0.021
886	0.021
886	0.022
887	0.022
887	0.022
887	0.022
888	0.022
888	0.023
889	0.023
889	0.024
890	0.025
890	0.026
890	0.026
891	0.027
891	0.027
892	0.028
892	0.028
893	0.027
893	0.027
893	0.027
894	0.027
894	0.026
895	0.025
895	0.023
895	0.022
896	0.02
896	0.019
897	0.018
897	0.016
898	0.015
898	0.014
898	0.013
899	0.012
899	0.012
900	0.011
900	0.011
901	0.01
901	0.01
901	0.009
902	0.009
902	0.008
903	0.008
903	0.007
904	0.006
904	0.005
904	0.005
905	0.005
905	0.005
906	0.005
906	0.005
907	0.006
907	0.007
907	0.008
908	0.009
908	0.011
909	0.012
909	0.014
910	0.015
910	0.016
910	0.017
911	0.018
911	0.018
912	0.018
912	0.018
913	0.018
913	0.017
913	0.016
914	0.015
914	0.014
915	0.013
915	0.013
916	0.012
916	0.012
916	0.011
917	0.011
917	0.011
918	0.011
918	0.011
918	0.011
919	0.011
919	0.01
920	0.01
920	0.01
921	0.009
921	0.008
921	0.008
922	0.008
922	0.008
923	0.009
923	0.009
924	0.01
924	0.011
924	0.011
925	0.012
925	0.012
926	0.012
926	0.012
927	0.012
927	0.012
927	0.011
928	0.011
928	0.011
929	0.011
929	0.011
930	0.011
930	0.011
930	0.011
931	0.011
931	0.011
932	0.011
932	0.011
933	0.011
933	0.01
933	0.01
934	0.01
934	0.01
935	0.009
935	0.009
935	0.008
936	0.008
936	0.008
937	0.007
937	0.007
938	0.007
938	0.007
938	0.007
939	0.007
939	0.007
940	0.008
940	0.008
941	0.008
941	0.009
941	0.01
942	0.011
942	0.012
943	0.012
943	0.013
944	0.014
944	0.014
944	0.015
945	0.016
945	0.017
946	0.017
946	0.017
946	0.018
947	0.018
947	0.018
948	0.019
948	0.019
949	0.019
949	0.019
949	0.02
950	0.021
950	0.021
951	0.022
951	0.023
952	0.023
952	0.024
952	0.024
953	0.025
953	0.025
954	0.025
954	0.024
955	0.024
955	0.024
955	0.023
956	0.023
956	0.022
957	0.021
957	0.02
957	0.019
958	0.018
958	0.017
959	0.016
959	0.015
960	0.014
960	0.012
960	0.011
961	0.009
961	0.008
962	0.007
962	0.006
963	0.004
963	0.004
963	0.003
964	0.002
964	0.002
965	0.001
965	0.001
966	0.001
966	0.001
966	0.001
967	0.002
967	0.002
968	0.001
968	0.001
968	0.001
969	0.001
969	0
970	0
970	0
971	-0
971	0
971	0
972	0.001
972	0.001
973	0.002
973	0.002
974	0.003
974	0.003
974	0.004
975	0.005
975	0.005
976	0.006
976	0.006
976	0.006
977	0.006
977	0.006
978	0.006
978	0.005
979	0.005
979	0.005
979	0.004
980	0.004
980	0.003
981	0.002
981	0.002
982	0.001
982	0.002
982	0.002
983	0.002
983	0.002
984	0.002
984	0.003
984	0.004
985	0.005
985	0.005
986	0.006
986	0.006
987	0.007
987	0.007
987	0.007
988	0.008
988	0.008
989	0.008
989	0.008
990	0.008
990	0.007
990	0.008
991	0.008
991	0.008
992	0.009
992	0.009
992	0.01
993	0.01
993	0.011
994	0.011
994	0.012
995	0.012
995	0.012
995	0.012
996	0.011
996	0.011
997	0.01
997	0.009
997	0.009
998	0.008
998	0.007
999	0.007
999	0.006
1000	0.006
1000	0.006
1000	0.005
1001	0.005
1001	0.005
1002	0.005
1002	0.005
1003	0.005
1003	0.004
1003	0.004
1004	0.004
1004	0.003
1005	0.003
1005	0.002
1005	0.001
1006	0.001
1006	0
1007	-0.001
1007	-0.001
1008	-0.002
1008	-0.002
1008	-0.002
1009	-0.002
1009	-0.002
1010	-0.002
1010	-0.002
1010	-0.002
1011	-0.002
1011	-0.001
1012	-0.001
1012	-0
1013	-0
1013	0
1013	0.001
1014	0.001
1014	0.001
1015	0.002
1015	0.002
1016	0.003
1016	0.003
1016	0.004
1017	0.005
1017	0.005
1018	0.006
1018	0.006
1018	0.007
1019	0.007
1019	0.007
1020	0.007
1020	0.007
1021	0.007
1021	0.007
1021	0.006
1022	0.006
1022	0.005
1023	0.005
1023	0.004
1023	0.003
1024	0.003
1024	0.002
1025	0.001
1025	0.001
1026	0
1026	-0
1026	-0.001
1027	-0.001
1027	-0.001
1028	-0.001
1028	-0
1028	-0
1029	0
1029	0
1030	0
1030	0
1031	0.001
1031	0.001
1031	0.001
1032	0.001
1032	0.001
1033	0.001
1033	0.001
1033	0.001
1034	0
1034	-0
1035	-0.001
1035	-0.002
1036	-0.002
1036	-0.003
1036	-0.003
1037	-0.004
1037	-0.004
1038	-0.005
1038	-0.005
1039	-0.005
1039	-0.005
1039	-0.006
1040	-0.006
1040	-0.006
1041	-0.007
1041	-0.008
1041	-0.008
1042	-0.009
1042	-0.009
1043	-0.01
1043	-0.01
1044	-0.011
1044	-0.011
1044	-0.011
1045	-0.011
1045	-0.011
1046	-0.011
1046	-0.012
1046	-0.011
1047	-0.011
1047	-0.01
1048	-0.009
1048	-0.008
1049	-0.008
1049	-0.008
1049	-0.007
1050	-0.006
1050	-0.006
1051	-0.005
1051	-0.005
1051	-0.003
1052	-0.003
1052	-0.002
1053	-0.001
1053	-0
1053	0
1054	0.001
1054	0.002
1055	0.003
1055	0.003
1056	0.003
1056	0.002
1056	0.001
1057	0.001
1057	-0
1058	-0.001
1058	-0.002
1058	-0.003
1059	-0.004
1059	-0.005
1060	-0.006
1060	-0.007
1061	-0.008
1061	-0.008
1061	-0.008
1062	-0.008
1062	-0.009
1063	-0.008
1063	-0.009
1063	-0.008
1064	-0.008
1064	-0.007
1065	-0.007
1065	-0.007
1066	-0.006
1066	-0.006
1066	-0.005
1067	-0.003
1067	-0.002
1068	-0.001
1068	-0
1068	0
1069	0.001
1069	0.001
1070	0.002
1070	0.003
1071	0.003
1071	0.005
1071	0.005
1072	0.006
1072	0.007
1073	0.008
1073	0.01
1073	0.011
1074	0.013
1074	0.014
1075	0.015
1075	0.016
1076	0.016
1076	0.017
1076	0.017
1077	0.017
1077	0.018
1078	0.018
1078	0.019
1078	0.019
1079	0.019
1079	0.02
1080	0.021
1080	0.022
1080	0.023
1081	0.025
1081	0.026
1082	0.027
1082	0.028
1083	0.028
1083	0.029
1083	0.031
1084	0.032
1084	0.033
1085	0.034
1085	0.035
1085	0.036
1086	0.036
1086	0.037
1087	0.038
1087	0.039
1088	0.039
1088	0.04
1088	0.041
1089	0.041
1089	0.042
1090	0.043
1090	0.044
1090	0.045
1091	0.046
1091	0.048
1092	0.05
1092	0.052
1092	0.055
1093	0.056
1093	0.059
1094	0.061
1094	0.064
1095	0.066
1095	0.069
1095	0.074
1096	0.077
1096	0.08
1097	0.084
1097	0.087
1097	0.092
1098	0.096
1098	0.098
1099	0.103
1099	0.109
1100	0.115
1100	0.121
1100	0.127
1101	0.135
1101	0.142
1102	0.152
1102	0.164
1102	0.176
1103	0.191
1103	0.205
1104	0.221
1104	0.238
1104	0.258
1105	0.281
1105	0.305
1106	0.329
1106	0.36
1107	0.391
1107	0.439
1107	0.5
1108	0.741
1108	1.862
1109	-0
1109	-0
1109	-0
1110	-0
1110	-0
1111	-0
1111	-0
