Data from 15c-2-2a_Absorbance__3412__05213.txt Node

Date: Wed Jan 24 14:57:36 CET 2024
User: Marek
Spectrometer: MAYP115816
Trigger mode: 0
Integration Time (sec): 2.000000E-1
Scans to average: 10
Electric dark correction enabled: true
Nonlinearity correction enabled: true
Boxcar width: 5
XAxis mode: Wavelengths
Number of Pixels in Spectrum: 2068
>>>>>Begin Spectral Data<<<<<
199	-1.83
199	-1.669
200	-1.509
200	-1.384
201	-1.311
201	-1.258
202	-1.186
202	-1.128
203	-1.078
203	-1.036
204	-1.006
204	-0.981
205	-0.958
205	-0.948
205	-0.947
206	-0.943
206	-0.941
207	-0.937
207	-0.934
208	-0.932
208	-0.93
209	-0.929
209	-0.928
210	-0.928
210	-0.926
211	-0.924
211	-0.924
212	-0.921
212	-0.919
213	-0.916
213	-0.914
213	-0.912
214	-0.91
214	-0.906
215	-0.905
215	-0.901
216	-0.9
216	-0.897
217	-0.896
217	-0.897
218	-0.897
218	-0.896
219	-0.894
219	-0.891
220	-0.889
220	-0.886
221	-0.886
221	-0.883
221	-0.879
222	-0.873
222	-0.866
223	-0.86
223	-0.854
224	-0.845
224	-0.837
225	-0.828
225	-0.817
226	-0.807
226	-0.794
227	-0.782
227	-0.769
228	-0.751
228	-0.733
229	-0.711
229	-0.688
229	-0.66
230	-0.63
230	-0.596
231	-0.56
231	-0.521
232	-0.479
232	-0.436
233	-0.392
233	-0.345
234	-0.299
234	-0.252
235	-0.206
235	-0.161
236	-0.118
236	-0.076
236	-0.035
237	0.003
237	0.04
238	0.074
238	0.106
239	0.136
239	0.163
240	0.189
240	0.212
241	0.234
241	0.254
242	0.271
242	0.288
243	0.303
243	0.316
243	0.329
244	0.34
244	0.351
245	0.36
245	0.369
246	0.377
246	0.384
247	0.391
247	0.398
248	0.404
248	0.409
249	0.415
249	0.42
250	0.424
250	0.429
250	0.433
251	0.437
251	0.44
252	0.444
252	0.447
253	0.45
253	0.453
254	0.455
254	0.457
255	0.46
255	0.462
256	0.463
256	0.465
257	0.467
257	0.468
258	0.469
258	0.471
258	0.472
259	0.473
259	0.473
260	0.473
260	0.474
261	0.474
261	0.475
262	0.475
262	0.475
263	0.475
263	0.474
264	0.474
264	0.474
265	0.473
265	0.473
265	0.472
266	0.471
266	0.47
267	0.469
267	0.468
268	0.467
268	0.465
269	0.464
269	0.462
270	0.46
270	0.459
271	0.457
271	0.455
272	0.453
272	0.451
272	0.45
273	0.448
273	0.446
274	0.444
274	0.442
275	0.441
275	0.439
276	0.437
276	0.435
277	0.432
277	0.43
278	0.427
278	0.425
278	0.422
279	0.419
279	0.416
280	0.414
280	0.411
281	0.409
281	0.407
282	0.405
282	0.403
283	0.401
283	0.4
284	0.399
284	0.397
285	0.396
285	0.394
285	0.392
286	0.39
286	0.389
287	0.387
287	0.385
288	0.383
288	0.382
289	0.38
289	0.378
290	0.376
290	0.375
291	0.373
291	0.372
292	0.37
292	0.369
292	0.367
293	0.366
293	0.365
294	0.363
294	0.362
295	0.361
295	0.36
296	0.359
296	0.357
297	0.356
297	0.355
298	0.354
298	0.353
298	0.352
299	0.351
299	0.35
300	0.349
300	0.348
301	0.347
301	0.346
302	0.345
302	0.344
303	0.343
303	0.342
304	0.342
304	0.341
305	0.34
305	0.339
305	0.338
306	0.337
306	0.336
307	0.335
307	0.334
308	0.333
308	0.332
309	0.331
309	0.33
310	0.33
310	0.329
311	0.328
311	0.327
311	0.326
312	0.325
312	0.324
313	0.323
313	0.322
314	0.321
314	0.32
315	0.319
315	0.318
316	0.318
316	0.317
317	0.316
317	0.315
318	0.314
318	0.313
318	0.312
319	0.311
319	0.31
320	0.31
320	0.309
321	0.308
321	0.307
322	0.306
322	0.305
323	0.304
323	0.303
324	0.302
324	0.301
324	0.3
325	0.3
325	0.299
326	0.298
326	0.298
327	0.297
327	0.296
328	0.295
328	0.294
329	0.294
329	0.293
330	0.292
330	0.291
330	0.291
331	0.29
331	0.289
332	0.288
332	0.287
333	0.286
333	0.286
334	0.285
334	0.284
335	0.283
335	0.283
336	0.282
336	0.281
336	0.281
337	0.28
337	0.279
338	0.279
338	0.278
339	0.278
339	0.277
340	0.276
340	0.276
341	0.275
341	0.275
342	0.274
342	0.274
342	0.273
343	0.272
343	0.272
344	0.271
344	0.271
345	0.27
345	0.269
346	0.269
346	0.269
347	0.268
347	0.267
348	0.267
348	0.267
348	0.266
349	0.266
349	0.265
350	0.265
350	0.265
351	0.264
351	0.264
352	0.263
352	0.262
353	0.262
353	0.261
354	0.26
354	0.26
354	0.259
355	0.258
355	0.258
356	0.257
356	0.256
357	0.255
357	0.255
358	0.255
358	0.255
359	0.255
359	0.255
360	0.255
360	0.256
360	0.256
361	0.256
361	0.256
362	0.257
362	0.257
363	0.257
363	0.257
364	0.257
364	0.256
365	0.256
365	0.255
366	0.255
366	0.255
366	0.254
367	0.254
367	0.254
368	0.253
368	0.253
369	0.253
369	0.253
370	0.252
370	0.252
371	0.252
371	0.252
372	0.251
372	0.251
372	0.251
373	0.25
373	0.25
374	0.25
374	0.25
375	0.249
375	0.249
376	0.249
376	0.249
377	0.249
377	0.249
378	0.249
378	0.249
378	0.249
379	0.249
379	0.249
380	0.249
380	0.248
381	0.248
381	0.248
382	0.248
382	0.247
383	0.247
383	0.247
383	0.246
384	0.246
384	0.246
385	0.245
385	0.245
386	0.245
386	0.245
387	0.245
387	0.244
388	0.244
388	0.244
389	0.243
389	0.243
389	0.243
390	0.243
390	0.243
391	0.243
391	0.243
392	0.243
392	0.243
393	0.242
393	0.242
394	0.242
394	0.242
394	0.242
395	0.242
395	0.241
396	0.241
396	0.241
397	0.24
397	0.241
398	0.241
398	0.24
399	0.24
399	0.24
400	0.239
400	0.239
400	0.239
401	0.238
401	0.238
402	0.237
402	0.237
403	0.236
403	0.236
404	0.236
404	0.236
405	0.236
405	0.235
405	0.235
406	0.235
406	0.234
407	0.234
407	0.234
408	0.234
408	0.233
409	0.233
409	0.233
410	0.232
410	0.232
411	0.232
411	0.232
411	0.232
412	0.231
412	0.231
413	0.231
413	0.23
414	0.23
414	0.23
415	0.229
415	0.229
416	0.229
416	0.228
416	0.228
417	0.228
417	0.227
418	0.227
418	0.227
419	0.227
419	0.227
420	0.228
420	0.228
421	0.228
421	0.228
421	0.228
422	0.229
422	0.228
423	0.228
423	0.228
424	0.228
424	0.227
425	0.227
425	0.226
426	0.226
426	0.225
427	0.225
427	0.225
427	0.225
428	0.225
428	0.225
429	0.225
429	0.226
430	0.226
430	0.225
431	0.225
431	0.225
432	0.225
432	0.225
432	0.224
433	0.224
433	0.223
434	0.223
434	0.223
435	0.222
435	0.222
436	0.222
436	0.222
437	0.222
437	0.222
437	0.222
438	0.221
438	0.221
439	0.221
439	0.221
440	0.221
440	0.221
441	0.22
441	0.22
442	0.221
442	0.221
442	0.221
443	0.221
443	0.221
444	0.221
444	0.222
445	0.222
445	0.222
446	0.222
446	0.222
447	0.222
447	0.222
447	0.221
448	0.221
448	0.221
449	0.221
449	0.221
450	0.221
450	0.22
451	0.22
451	0.22
452	0.22
452	0.22
452	0.219
453	0.219
453	0.219
454	0.218
454	0.218
455	0.218
455	0.218
456	0.217
456	0.217
457	0.217
457	0.217
458	0.217
458	0.217
458	0.217
459	0.217
459	0.217
460	0.217
460	0.217
461	0.217
461	0.217
462	0.217
462	0.217
463	0.217
463	0.218
463	0.218
464	0.218
464	0.218
465	0.218
465	0.219
466	0.219
466	0.219
467	0.219
467	0.219
467	0.219
468	0.218
468	0.217
469	0.216
469	0.216
470	0.216
470	0.215
471	0.215
471	0.216
472	0.216
472	0.216
472	0.217
473	0.218
473	0.219
474	0.22
474	0.22
475	0.221
475	0.222
476	0.222
476	0.223
477	0.223
477	0.224
477	0.224
478	0.225
478	0.226
479	0.226
479	0.228
480	0.229
480	0.23
481	0.231
481	0.232
482	0.233
482	0.234
482	0.235
483	0.237
483	0.239
484	0.241
484	0.243
485	0.244
485	0.245
486	0.246
486	0.247
487	0.248
487	0.249
487	0.249
488	0.25
488	0.249
489	0.249
489	0.249
490	0.25
490	0.25
491	0.251
491	0.252
492	0.254
492	0.255
492	0.256
493	0.258
493	0.259
494	0.261
494	0.263
495	0.265
495	0.267
496	0.268
496	0.27
496	0.272
497	0.273
497	0.275
498	0.276
498	0.277
499	0.279
499	0.28
500	0.282
500	0.284
501	0.286
501	0.288
501	0.29
502	0.292
502	0.294
503	0.296
503	0.298
504	0.299
504	0.3
505	0.301
505	0.302
506	0.304
506	0.305
506	0.306
507	0.307
507	0.308
508	0.309
508	0.31
509	0.311
509	0.313
510	0.314
510	0.315
511	0.316
511	0.316
511	0.317
512	0.318
512	0.319
513	0.32
513	0.32
514	0.32
514	0.32
515	0.32
515	0.321
515	0.322
516	0.322
516	0.323
517	0.324
517	0.325
518	0.325
518	0.326
519	0.325
519	0.324
520	0.323
520	0.321
520	0.319
521	0.317
521	0.315
522	0.313
522	0.312
523	0.312
523	0.312
524	0.313
524	0.315
524	0.317
525	0.32
525	0.322
526	0.324
526	0.326
527	0.329
527	0.33
528	0.331
528	0.331
529	0.331
529	0.331
529	0.33
530	0.33
530	0.329
531	0.328
531	0.328
532	0.327
532	0.325
533	0.325
533	0.324
533	0.323
534	0.322
534	0.321
535	0.319
535	0.318
536	0.317
536	0.316
537	0.314
537	0.313
538	0.311
538	0.308
538	0.306
539	0.305
539	0.303
540	0.302
540	0.3
541	0.298
541	0.296
542	0.294
542	0.292
542	0.29
543	0.288
543	0.286
544	0.284
544	0.282
545	0.28
545	0.278
546	0.277
546	0.275
547	0.272
547	0.269
547	0.266
548	0.263
548	0.261
549	0.258
549	0.255
550	0.253
550	0.25
551	0.247
551	0.244
551	0.241
552	0.239
552	0.236
553	0.235
553	0.233
554	0.231
554	0.229
555	0.226
555	0.223
556	0.22
556	0.217
556	0.214
557	0.211
557	0.208
558	0.206
558	0.203
559	0.2
559	0.198
560	0.196
560	0.194
560	0.193
561	0.192
561	0.191
562	0.189
562	0.188
563	0.185
563	0.183
564	0.18
564	0.178
564	0.175
565	0.173
565	0.171
566	0.168
566	0.166
567	0.164
567	0.163
568	0.162
568	0.162
568	0.161
569	0.162
569	0.162
570	0.161
570	0.16
571	0.16
571	0.159
572	0.158
572	0.158
573	0.157
573	0.156
573	0.154
574	0.152
574	0.151
575	0.15
575	0.15
576	0.149
576	0.148
577	0.146
577	0.144
577	0.143
578	0.141
578	0.141
579	0.141
579	0.141
580	0.139
580	0.137
581	0.135
581	0.133
581	0.132
582	0.131
582	0.131
583	0.131
583	0.129
584	0.127
584	0.124
585	0.122
585	0.122
585	0.121
586	0.12
586	0.12
587	0.118
587	0.116
588	0.114
588	0.112
589	0.111
589	0.11
590	0.109
590	0.108
590	0.108
591	0.108
591	0.107
592	0.106
592	0.105
593	0.105
593	0.104
594	0.103
594	0.102
594	0.101
595	0.101
595	0.1
596	0.099
596	0.099
597	0.1
597	0.1
598	0.101
598	0.101
598	0.101
599	0.102
599	0.101
600	0.1
600	0.099
601	0.099
601	0.098
602	0.097
602	0.097
602	0.096
603	0.096
603	0.097
604	0.097
604	0.098
605	0.098
605	0.099
606	0.099
606	0.098
606	0.098
607	0.097
607	0.097
608	0.096
608	0.095
609	0.095
609	0.095
610	0.094
610	0.093
610	0.093
611	0.094
611	0.095
612	0.095
612	0.096
613	0.097
613	0.098
614	0.098
614	0.098
614	0.098
615	0.098
615	0.097
616	0.097
616	0.097
617	0.097
617	0.096
618	0.095
618	0.094
618	0.094
619	0.094
619	0.095
620	0.097
620	0.098
621	0.098
621	0.099
622	0.099
622	0.1
622	0.1
623	0.1
623	0.101
624	0.101
624	0.101
625	0.101
625	0.101
626	0.101
626	0.101
626	0.102
627	0.103
627	0.103
628	0.104
628	0.105
629	0.106
629	0.106
630	0.107
630	0.107
630	0.108
631	0.109
631	0.11
632	0.111
632	0.112
633	0.113
633	0.114
634	0.116
634	0.118
634	0.12
635	0.122
635	0.124
636	0.126
636	0.128
637	0.129
637	0.131
638	0.133
638	0.135
638	0.137
639	0.138
639	0.14
640	0.141
640	0.143
641	0.145
641	0.147
642	0.149
642	0.152
642	0.154
643	0.155
643	0.157
644	0.159
644	0.16
645	0.162
645	0.164
646	0.166
646	0.168
646	0.171
647	0.174
647	0.177
648	0.18
648	0.183
649	0.186
649	0.189
650	0.192
650	0.195
650	0.198
651	0.201
651	0.204
652	0.207
652	0.21
653	0.214
653	0.222
653	0.232
654	0.184
654	0.149
655	0.155
655	0.158
656	0.16
656	0.162
657	0.164
657	0.166
657	0.167
658	0.165
658	0.156
659	0.198
659	0.258
660	0.263
660	0.265
661	0.268
661	0.271
661	0.274
662	0.278
662	0.282
663	0.286
663	0.29
664	0.293
664	0.297
665	0.3
665	0.303
665	0.307
666	0.31
666	0.312
667	0.315
667	0.318
668	0.321
668	0.324
669	0.327
669	0.33
669	0.335
670	0.339
670	0.342
671	0.345
671	0.347
672	0.35
672	0.352
672	0.354
673	0.356
673	0.358
674	0.36
674	0.361
675	0.361
675	0.363
676	0.365
676	0.367
676	0.368
677	0.37
677	0.373
678	0.375
678	0.376
679	0.378
679	0.38
680	0.381
680	0.383
680	0.384
681	0.385
681	0.386
682	0.387
682	0.388
683	0.389
683	0.391
684	0.393
684	0.394
684	0.395
685	0.396
685	0.397
686	0.398
686	0.398
687	0.398
687	0.398
687	0.398
688	0.397
688	0.396
689	0.396
689	0.396
690	0.396
690	0.395
691	0.394
691	0.394
691	0.393
692	0.392
692	0.392
693	0.391
693	0.391
694	0.39
694	0.388
695	0.388
695	0.388
695	0.387
696	0.386
696	0.385
697	0.384
697	0.382
698	0.381
698	0.379
698	0.377
699	0.375
699	0.373
700	0.37
700	0.369
701	0.367
701	0.366
702	0.364
702	0.363
702	0.361
703	0.359
703	0.357
704	0.354
704	0.352
705	0.35
705	0.348
705	0.345
706	0.342
706	0.34
707	0.337
707	0.334
708	0.332
708	0.329
709	0.327
709	0.324
709	0.321
710	0.318
710	0.315
711	0.313
711	0.31
712	0.308
712	0.306
713	0.304
713	0.302
713	0.3
714	0.297
714	0.295
715	0.293
715	0.29
716	0.288
716	0.286
716	0.283
717	0.28
717	0.278
718	0.274
718	0.271
719	0.268
719	0.265
720	0.262
720	0.259
720	0.255
721	0.251
721	0.248
722	0.245
722	0.242
723	0.239
723	0.237
723	0.235
724	0.233
724	0.23
725	0.228
725	0.226
726	0.224
726	0.222
727	0.219
727	0.217
727	0.214
728	0.211
728	0.209
729	0.207
729	0.205
730	0.202
730	0.2
730	0.197
731	0.195
731	0.193
732	0.19
732	0.188
733	0.186
733	0.184
734	0.181
734	0.179
734	0.176
735	0.175
735	0.173
736	0.17
736	0.168
737	0.167
737	0.165
737	0.163
738	0.16
738	0.158
739	0.155
739	0.153
740	0.15
740	0.148
741	0.145
741	0.142
741	0.138
742	0.134
742	0.13
743	0.126
743	0.123
744	0.119
744	0.116
744	0.113
745	0.111
745	0.108
746	0.106
746	0.105
747	0.104
747	0.103
748	0.103
748	0.103
748	0.103
749	0.102
749	0.102
750	0.101
750	0.1
751	0.1
751	0.1
751	0.099
752	0.098
752	0.096
753	0.094
753	0.093
754	0.092
754	0.091
754	0.09
755	0.09
755	0.089
756	0.088
756	0.086
757	0.085
757	0.085
758	0.084
758	0.083
758	0.083
759	0.082
759	0.08
760	0.078
760	0.076
761	0.075
761	0.075
761	0.074
762	0.072
762	0.071
763	0.07
763	0.068
764	0.065
764	0.063
764	0.061
765	0.059
765	0.057
766	0.055
766	0.054
767	0.053
767	0.051
768	0.048
768	0.046
768	0.045
769	0.044
769	0.043
770	0.041
770	0.039
771	0.037
771	0.034
771	0.031
772	0.029
772	0.027
773	0.025
773	0.023
774	0.02
774	0.018
775	0.016
775	0.014
775	0.012
776	0.01
776	0.008
777	0.005
777	0.002
778	-0.001
778	-0.004
778	-0.008
779	-0.011
779	-0.013
780	-0.017
780	-0.021
781	-0.025
781	-0.03
781	-0.035
782	-0.041
782	-0.047
783	-0.053
783	-0.059
784	-0.067
784	-0.075
784	-0.083
785	-0.092
785	-0.1
786	-0.106
786	-0.109
787	-0.109
787	-0.11
788	-0.113
788	-0.117
788	-0.12
789	-0.123
789	-0.123
790	-0.121
790	-0.121
791	-0.122
791	-0.124
791	-0.127
792	-0.123
792	-0.113
793	-0.107
793	-0.103
794	-0.101
794	-0.103
794	-0.106
795	-0.108
795	-0.108
796	-0.107
796	-0.11
797	-0.118
797	-0.128
797	-0.134
798	-0.139
798	-0.142
799	-0.142
799	-0.142
800	-0.142
800	-0.144
801	-0.148
801	-0.149
801	-0.149
802	-0.151
802	-0.152
803	-0.152
803	-0.152
804	-0.15
804	-0.145
804	-0.137
805	-0.133
805	-0.13
806	-0.127
806	-0.125
807	-0.124
807	-0.123
807	-0.123
808	-0.123
808	-0.124
809	-0.129
809	-0.135
810	-0.139
810	-0.143
810	-0.147
811	-0.15
811	-0.151
812	-0.148
812	-0.146
813	-0.146
813	-0.148
813	-0.149
814	-0.15
814	-0.15
815	-0.147
815	-0.144
816	-0.142
816	-0.142
817	-0.146
817	-0.149
817	-0.147
818	-0.144
818	-0.139
819	-0.133
819	-0.127
820	-0.123
820	-0.119
820	-0.114
821	-0.107
821	-0.098
822	-0.089
822	-0.081
823	-0.073
823	-0.067
823	-0.061
824	-0.054
824	-0.048
825	-0.041
825	-0.034
826	-0.028
826	-0.024
826	-0.02
827	-0.016
827	-0.013
828	-0.01
828	-0.008
829	-0.007
829	-0.005
829	-0.005
830	-0.005
830	-0.004
831	-0.003
831	-0.002
832	-0.001
832	-0.001
832	0
833	0.001
833	0.002
834	0.003
834	0.003
835	0.004
835	0.004
835	0.005
836	0.005
836	0.006
837	0.006
837	0.006
838	0.006
838	0.006
839	0.006
839	0.006
839	0.005
840	0.005
840	0.006
841	0.006
841	0.006
842	0.007
842	0.007
842	0.008
843	0.008
843	0.009
844	0.01
844	0.011
845	0.012
845	0.013
845	0.013
846	0.014
846	0.014
847	0.014
847	0.015
848	0.016
848	0.017
848	0.018
849	0.018
849	0.019
850	0.019
850	0.019
851	0.02
851	0.02
851	0.019
852	0.019
852	0.018
853	0.017
853	0.017
854	0.016
854	0.015
854	0.015
855	0.014
855	0.013
856	0.013
856	0.013
857	0.013
857	0.013
857	0.014
858	0.015
858	0.016
859	0.017
859	0.019
860	0.021
860	0.023
860	0.024
861	0.026
861	0.027
862	0.027
862	0.028
863	0.028
863	0.028
863	0.028
864	0.027
864	0.027
865	0.026
865	0.026
866	0.026
866	0.025
866	0.025
867	0.025
867	0.025
868	0.025
868	0.025
869	0.024
869	0.024
869	0.022
870	0.021
870	0.02
871	0.019
871	0.018
872	0.017
872	0.016
872	0.015
873	0.015
873	0.014
874	0.014
874	0.014
875	0.014
875	0.014
875	0.014
876	0.015
876	0.015
877	0.016
877	0.016
878	0.017
878	0.017
878	0.018
879	0.018
879	0.018
880	0.019
880	0.019
881	0.019
881	0.019
881	0.02
882	0.02
882	0.02
883	0.021
883	0.021
884	0.021
884	0.021
884	0.021
885	0.021
885	0.021
886	0.021
886	0.021
887	0.021
887	0.021
887	0.021
888	0.022
888	0.022
889	0.023
889	0.024
890	0.025
890	0.026
890	0.027
891	0.027
891	0.028
892	0.028
892	0.028
893	0.028
893	0.028
893	0.027
894	0.027
894	0.026
895	0.025
895	0.024
895	0.022
896	0.021
896	0.02
897	0.019
897	0.017
898	0.016
898	0.015
898	0.014
899	0.013
899	0.012
900	0.012
900	0.011
901	0.01
901	0.01
901	0.009
902	0.008
902	0.007
903	0.006
903	0.005
904	0.005
904	0.004
904	0.004
905	0.004
905	0.004
906	0.004
906	0.005
907	0.006
907	0.007
907	0.008
908	0.009
908	0.01
909	0.011
909	0.012
910	0.013
910	0.014
910	0.015
911	0.015
911	0.016
912	0.016
912	0.016
913	0.016
913	0.015
913	0.014
914	0.014
914	0.013
915	0.012
915	0.012
916	0.011
916	0.011
916	0.01
917	0.011
917	0.01
918	0.01
918	0.01
918	0.01
919	0.01
919	0.01
920	0.01
920	0.01
921	0.009
921	0.009
921	0.008
922	0.009
922	0.009
923	0.01
923	0.011
924	0.011
924	0.012
924	0.013
925	0.014
925	0.014
926	0.014
926	0.015
927	0.014
927	0.014
927	0.013
928	0.013
928	0.013
929	0.012
929	0.012
930	0.012
930	0.012
930	0.012
931	0.011
931	0.011
932	0.011
932	0.011
933	0.011
933	0.01
933	0.01
934	0.01
934	0.009
935	0.009
935	0.009
935	0.008
936	0.008
936	0.008
937	0.008
937	0.008
938	0.008
938	0.008
938	0.008
939	0.009
939	0.009
940	0.009
940	0.009
941	0.01
941	0.01
941	0.011
942	0.012
942	0.012
943	0.013
943	0.013
944	0.014
944	0.015
944	0.016
945	0.016
945	0.017
946	0.017
946	0.018
946	0.018
947	0.018
947	0.018
948	0.019
948	0.018
949	0.018
949	0.019
949	0.019
950	0.02
950	0.02
951	0.021
951	0.021
952	0.022
952	0.022
952	0.023
953	0.024
953	0.025
954	0.025
954	0.025
955	0.025
955	0.024
955	0.024
956	0.024
956	0.024
957	0.024
957	0.023
957	0.022
958	0.021
958	0.02
959	0.02
959	0.018
960	0.017
960	0.016
960	0.014
961	0.012
961	0.011
962	0.009
962	0.008
963	0.006
963	0.005
963	0.004
964	0.003
964	0.002
965	0.002
965	0.001
966	0.001
966	0.001
966	0.001
967	0.001
967	0.001
968	0.001
968	0.001
968	0
969	-0
969	-0.001
970	-0.001
970	-0.001
971	-0.001
971	-0.001
971	-0.001
972	-0.001
972	-0
973	0
973	0.001
974	0.002
974	0.003
974	0.003
975	0.004
975	0.005
976	0.006
976	0.006
976	0.007
977	0.007
977	0.007
978	0.007
978	0.006
979	0.006
979	0.006
979	0.006
980	0.005
980	0.005
981	0.004
981	0.004
982	0.004
982	0.004
982	0.004
983	0.004
983	0.004
984	0.004
984	0.004
984	0.005
985	0.005
985	0.006
986	0.006
986	0.007
987	0.007
987	0.007
987	0.008
988	0.008
988	0.008
989	0.008
989	0.008
990	0.008
990	0.008
990	0.008
991	0.009
991	0.009
992	0.01
992	0.01
992	0.011
993	0.012
993	0.012
994	0.013
994	0.013
995	0.013
995	0.013
995	0.013
996	0.013
996	0.012
997	0.011
997	0.01
997	0.009
998	0.009
998	0.008
999	0.007
999	0.007
1000	0.006
1000	0.006
1000	0.005
1001	0.005
1001	0.005
1002	0.005
1002	0.004
1003	0.004
1003	0.004
1003	0.004
1004	0.003
1004	0.003
1005	0.002
1005	0.002
1005	0.001
1006	0.001
1006	0
1007	-0.001
1007	-0.001
1008	-0.001
1008	-0.001
1008	-0.001
1009	-0.001
1009	-0
1010	-0
1010	0
1010	0
1011	0.001
1011	0.002
1012	0.002
1012	0.002
1013	0.002
1013	0.003
1013	0.003
1014	0.003
1014	0.003
1015	0.003
1015	0.003
1016	0.003
1016	0.004
1016	0.004
1017	0.004
1017	0.004
1018	0.005
1018	0.005
1018	0.005
1019	0.005
1019	0.005
1020	0.005
1020	0.005
1021	0.005
1021	0.005
1021	0.004
1022	0.004
1022	0.004
1023	0.004
1023	0.003
1023	0.003
1024	0.002
1024	0.001
1025	0
1025	0
1026	-0
1026	-0.001
1026	-0.001
1027	-0.001
1027	-0.001
1028	-0.001
1028	-0.001
1028	-0.001
1029	-0.001
1029	-0.001
1030	-0.001
1030	-0.001
1031	-0
1031	-0
1031	0
1032	0
1032	0
1033	0
1033	0
1033	0
1034	-0
1034	-0.001
1035	-0.001
1035	-0.002
1036	-0.002
1036	-0.003
1036	-0.003
1037	-0.004
1037	-0.004
1038	-0.004
1038	-0.005
1039	-0.005
1039	-0.005
1039	-0.005
1040	-0.005
1040	-0.006
1041	-0.006
1041	-0.007
1041	-0.008
1042	-0.008
1042	-0.009
1043	-0.01
1043	-0.01
1044	-0.011
1044	-0.011
1044	-0.011
1045	-0.011
1045	-0.012
1046	-0.012
1046	-0.012
1046	-0.011
1047	-0.011
1047	-0.01
1048	-0.009
1048	-0.009
1049	-0.008
1049	-0.008
1049	-0.007
1050	-0.007
1050	-0.006
1051	-0.005
1051	-0.004
1051	-0.003
1052	-0.003
1052	-0.002
1053	-0.001
1053	-0
1053	0
1054	0.001
1054	0.002
1055	0.003
1055	0.003
1056	0.003
1056	0.003
1056	0.002
1057	0.001
1057	0
1058	-0
1058	-0.002
1058	-0.002
1059	-0.004
1059	-0.005
1060	-0.005
1060	-0.006
1061	-0.006
1061	-0.006
1061	-0.006
1062	-0.007
1062	-0.007
1063	-0.007
1063	-0.007
1063	-0.007
1064	-0.007
1064	-0.006
1065	-0.006
1065	-0.006
1066	-0.005
1066	-0.004
1066	-0.003
1067	-0.002
1067	-0.001
1068	-0.001
1068	0
1068	0.001
1069	0.001
1069	0.002
1070	0.003
1070	0.004
1071	0.004
1071	0.005
1071	0.005
1072	0.007
1072	0.008
1073	0.009
1073	0.011
1073	0.012
1074	0.013
1074	0.015
1075	0.016
1075	0.017
1076	0.017
1076	0.018
1076	0.018
1077	0.018
1077	0.019
1078	0.019
1078	0.021
1078	0.022
1079	0.022
1079	0.023
1080	0.024
1080	0.025
1080	0.026
1081	0.028
1081	0.029
1082	0.029
1082	0.03
1083	0.031
1083	0.031
1083	0.032
1084	0.033
1084	0.035
1085	0.036
1085	0.037
1085	0.038
1086	0.039
1086	0.039
1087	0.04
1087	0.042
1088	0.041
1088	0.042
1088	0.043
1089	0.043
1089	0.044
1090	0.045
1090	0.046
1090	0.047
1091	0.048
1091	0.05
1092	0.051
1092	0.054
1092	0.056
1093	0.058
1093	0.061
1094	0.063
1094	0.065
1095	0.067
1095	0.07
1095	0.075
1096	0.078
1096	0.081
1097	0.085
1097	0.089
1097	0.093
1098	0.097
1098	0.102
1099	0.107
1099	0.113
1100	0.12
1100	0.125
1100	0.131
1101	0.139
1101	0.147
1102	0.156
1102	0.167
1102	0.178
1103	0.192
1103	0.206
1104	0.223
1104	0.241
1104	0.262
1105	0.283
1105	0.304
1106	0.326
1106	0.358
1107	0.392
1107	0.441
1107	0.505
1108	0.756
1108	1.993
1109	-0
1109	-0
1109	-0
1110	-0
1110	-0
1111	-0
1111	-0
