Data from 15c-2-2a_Absorbance__2320__04121.txt Node

Date: Wed Jan 24 14:21:12 CET 2024
User: Marek
Spectrometer: MAYP115816
Trigger mode: 0
Integration Time (sec): 2.000000E-1
Scans to average: 10
Electric dark correction enabled: true
Nonlinearity correction enabled: true
Boxcar width: 5
XAxis mode: Wavelengths
Number of Pixels in Spectrum: 2068
>>>>>Begin Spectral Data<<<<<
199	-1.819
199	-1.657
200	-1.497
200	-1.372
201	-1.299
201	-1.246
202	-1.174
202	-1.117
203	-1.066
203	-1.024
204	-0.994
204	-0.968
205	-0.946
205	-0.936
205	-0.935
206	-0.931
206	-0.929
207	-0.925
207	-0.923
208	-0.921
208	-0.919
209	-0.917
209	-0.918
210	-0.918
210	-0.915
211	-0.914
211	-0.914
212	-0.912
212	-0.909
213	-0.907
213	-0.905
213	-0.902
214	-0.9
214	-0.896
215	-0.895
215	-0.891
216	-0.89
216	-0.887
217	-0.885
217	-0.886
218	-0.886
218	-0.884
219	-0.882
219	-0.88
220	-0.878
220	-0.876
221	-0.876
221	-0.873
221	-0.868
222	-0.862
222	-0.856
223	-0.849
223	-0.843
224	-0.834
224	-0.826
225	-0.818
225	-0.807
226	-0.797
226	-0.785
227	-0.772
227	-0.759
228	-0.741
228	-0.723
229	-0.701
229	-0.678
229	-0.651
230	-0.621
230	-0.587
231	-0.551
231	-0.512
232	-0.472
232	-0.429
233	-0.385
233	-0.338
234	-0.293
234	-0.247
235	-0.202
235	-0.157
236	-0.115
236	-0.073
236	-0.034
237	0.005
237	0.04
238	0.073
238	0.105
239	0.134
239	0.161
240	0.186
240	0.208
241	0.229
241	0.248
242	0.264
242	0.28
243	0.294
243	0.307
243	0.318
244	0.329
244	0.339
245	0.348
245	0.356
246	0.364
246	0.371
247	0.378
247	0.384
248	0.39
248	0.396
249	0.401
249	0.405
250	0.409
250	0.414
250	0.418
251	0.422
251	0.425
252	0.429
252	0.431
253	0.434
253	0.437
254	0.44
254	0.442
255	0.444
255	0.446
256	0.448
256	0.449
257	0.451
257	0.452
258	0.453
258	0.454
258	0.455
259	0.456
259	0.456
260	0.457
260	0.457
261	0.458
261	0.458
262	0.458
262	0.458
263	0.458
263	0.458
264	0.457
264	0.457
265	0.457
265	0.456
265	0.456
266	0.455
266	0.454
267	0.453
267	0.452
268	0.451
268	0.45
269	0.448
269	0.446
270	0.445
270	0.443
271	0.441
271	0.439
272	0.437
272	0.436
272	0.434
273	0.432
273	0.43
274	0.429
274	0.427
275	0.425
275	0.424
276	0.422
276	0.419
277	0.417
277	0.415
278	0.412
278	0.41
278	0.407
279	0.404
279	0.401
280	0.399
280	0.397
281	0.395
281	0.393
282	0.391
282	0.389
283	0.388
283	0.386
284	0.385
284	0.384
285	0.382
285	0.38
285	0.378
286	0.377
286	0.375
287	0.373
287	0.372
288	0.37
288	0.368
289	0.367
289	0.365
290	0.363
290	0.362
291	0.36
291	0.359
292	0.358
292	0.356
292	0.355
293	0.354
293	0.352
294	0.351
294	0.35
295	0.349
295	0.348
296	0.346
296	0.345
297	0.344
297	0.343
298	0.342
298	0.341
298	0.34
299	0.339
299	0.338
300	0.337
300	0.337
301	0.336
301	0.335
302	0.334
302	0.333
303	0.332
303	0.332
304	0.331
304	0.33
305	0.329
305	0.328
305	0.327
306	0.326
306	0.326
307	0.325
307	0.324
308	0.323
308	0.322
309	0.321
309	0.32
310	0.319
310	0.319
311	0.318
311	0.317
311	0.316
312	0.315
312	0.314
313	0.314
313	0.313
314	0.312
314	0.311
315	0.31
315	0.309
316	0.308
316	0.308
317	0.307
317	0.306
318	0.305
318	0.304
318	0.303
319	0.302
319	0.301
320	0.301
320	0.3
321	0.299
321	0.298
322	0.297
322	0.296
323	0.296
323	0.295
324	0.294
324	0.293
324	0.293
325	0.292
325	0.291
326	0.29
326	0.29
327	0.289
327	0.288
328	0.287
328	0.287
329	0.286
329	0.285
330	0.284
330	0.284
330	0.283
331	0.282
331	0.282
332	0.281
332	0.28
333	0.279
333	0.278
334	0.277
334	0.277
335	0.276
335	0.275
336	0.274
336	0.274
336	0.273
337	0.273
337	0.272
338	0.272
338	0.271
339	0.271
339	0.27
340	0.269
340	0.269
341	0.268
341	0.267
342	0.267
342	0.267
342	0.266
343	0.265
343	0.265
344	0.264
344	0.264
345	0.263
345	0.263
346	0.263
346	0.262
347	0.262
347	0.261
348	0.261
348	0.26
348	0.26
349	0.26
349	0.259
350	0.259
350	0.258
351	0.258
351	0.257
352	0.257
352	0.256
353	0.255
353	0.255
354	0.254
354	0.253
354	0.253
355	0.252
355	0.251
356	0.251
356	0.25
357	0.249
357	0.249
358	0.248
358	0.249
359	0.249
359	0.249
360	0.249
360	0.25
360	0.25
361	0.251
361	0.251
362	0.252
362	0.252
363	0.252
363	0.252
364	0.252
364	0.251
365	0.251
365	0.25
366	0.25
366	0.249
366	0.249
367	0.249
367	0.248
368	0.248
368	0.248
369	0.247
369	0.247
370	0.247
370	0.247
371	0.246
371	0.246
372	0.246
372	0.245
372	0.245
373	0.245
373	0.245
374	0.245
374	0.245
375	0.244
375	0.244
376	0.244
376	0.244
377	0.244
377	0.244
378	0.244
378	0.244
378	0.244
379	0.244
379	0.244
380	0.244
380	0.244
381	0.244
381	0.243
382	0.243
382	0.243
383	0.243
383	0.242
383	0.242
384	0.242
384	0.241
385	0.241
385	0.241
386	0.241
386	0.241
387	0.241
387	0.24
388	0.24
388	0.239
389	0.239
389	0.239
389	0.239
390	0.239
390	0.239
391	0.239
391	0.239
392	0.239
392	0.239
393	0.239
393	0.239
394	0.239
394	0.238
394	0.238
395	0.238
395	0.237
396	0.237
396	0.237
397	0.236
397	0.237
398	0.237
398	0.236
399	0.236
399	0.236
400	0.235
400	0.235
400	0.235
401	0.234
401	0.234
402	0.233
402	0.233
403	0.232
403	0.232
404	0.232
404	0.232
405	0.232
405	0.231
405	0.231
406	0.231
406	0.231
407	0.23
407	0.23
408	0.23
408	0.229
409	0.229
409	0.229
410	0.229
410	0.229
411	0.229
411	0.228
411	0.228
412	0.228
412	0.228
413	0.227
413	0.227
414	0.227
414	0.227
415	0.226
415	0.226
416	0.226
416	0.225
416	0.225
417	0.225
417	0.224
418	0.224
418	0.224
419	0.224
419	0.225
420	0.225
420	0.225
421	0.225
421	0.226
421	0.225
422	0.226
422	0.226
423	0.225
423	0.225
424	0.225
424	0.224
425	0.223
425	0.223
426	0.222
426	0.222
427	0.222
427	0.222
427	0.222
428	0.222
428	0.223
429	0.223
429	0.223
430	0.223
430	0.223
431	0.223
431	0.223
432	0.222
432	0.222
432	0.221
433	0.221
433	0.22
434	0.22
434	0.22
435	0.22
435	0.22
436	0.219
436	0.219
437	0.219
437	0.219
437	0.219
438	0.219
438	0.219
439	0.219
439	0.218
440	0.218
440	0.218
441	0.218
441	0.218
442	0.218
442	0.219
442	0.219
443	0.219
443	0.219
444	0.219
444	0.22
445	0.22
445	0.22
446	0.22
446	0.22
447	0.22
447	0.22
447	0.219
448	0.219
448	0.219
449	0.219
449	0.219
450	0.219
450	0.218
451	0.218
451	0.218
452	0.218
452	0.217
452	0.217
453	0.217
453	0.216
454	0.216
454	0.215
455	0.215
455	0.215
456	0.214
456	0.214
457	0.214
457	0.214
458	0.214
458	0.214
458	0.214
459	0.214
459	0.214
460	0.214
460	0.214
461	0.214
461	0.214
462	0.214
462	0.215
463	0.215
463	0.215
463	0.216
464	0.216
464	0.216
465	0.216
465	0.216
466	0.216
466	0.216
467	0.217
467	0.216
467	0.216
468	0.215
468	0.215
469	0.214
469	0.214
470	0.214
470	0.214
471	0.214
471	0.214
472	0.215
472	0.215
472	0.216
473	0.217
473	0.218
474	0.219
474	0.219
475	0.22
475	0.221
476	0.221
476	0.221
477	0.222
477	0.222
477	0.223
478	0.223
478	0.224
479	0.224
479	0.225
480	0.226
480	0.228
481	0.229
481	0.23
482	0.231
482	0.232
482	0.233
483	0.235
483	0.237
484	0.239
484	0.241
485	0.242
485	0.243
486	0.244
486	0.245
487	0.246
487	0.247
487	0.247
488	0.248
488	0.247
489	0.247
489	0.247
490	0.248
490	0.248
491	0.249
491	0.25
492	0.251
492	0.252
492	0.254
493	0.255
493	0.257
494	0.259
494	0.261
495	0.263
495	0.265
496	0.266
496	0.268
496	0.27
497	0.271
497	0.273
498	0.274
498	0.275
499	0.276
499	0.277
500	0.279
500	0.281
501	0.283
501	0.285
501	0.286
502	0.288
502	0.29
503	0.292
503	0.293
504	0.295
504	0.296
505	0.297
505	0.298
506	0.299
506	0.3
506	0.301
507	0.302
507	0.303
508	0.304
508	0.305
509	0.306
509	0.308
510	0.309
510	0.31
511	0.311
511	0.312
511	0.312
512	0.314
512	0.315
513	0.315
513	0.315
514	0.315
514	0.315
515	0.315
515	0.316
515	0.316
516	0.317
516	0.319
517	0.32
517	0.321
518	0.321
518	0.321
519	0.321
519	0.32
520	0.319
520	0.318
520	0.316
521	0.314
521	0.312
522	0.31
522	0.309
523	0.308
523	0.308
524	0.309
524	0.311
524	0.313
525	0.315
525	0.317
526	0.32
526	0.321
527	0.323
527	0.325
528	0.326
528	0.327
529	0.327
529	0.327
529	0.326
530	0.325
530	0.325
531	0.324
531	0.324
532	0.322
532	0.321
533	0.32
533	0.319
533	0.319
534	0.317
534	0.316
535	0.315
535	0.314
536	0.313
536	0.312
537	0.31
537	0.309
538	0.308
538	0.306
538	0.304
539	0.303
539	0.301
540	0.299
540	0.297
541	0.295
541	0.293
542	0.29
542	0.288
542	0.285
543	0.283
543	0.281
544	0.279
544	0.277
545	0.275
545	0.274
546	0.272
546	0.27
547	0.268
547	0.266
547	0.263
548	0.261
548	0.258
549	0.256
549	0.254
550	0.251
550	0.249
551	0.246
551	0.243
551	0.24
552	0.238
552	0.236
553	0.234
553	0.232
554	0.23
554	0.228
555	0.225
555	0.222
556	0.219
556	0.216
556	0.214
557	0.211
557	0.209
558	0.206
558	0.203
559	0.201
559	0.199
560	0.197
560	0.194
560	0.193
561	0.192
561	0.191
562	0.189
562	0.188
563	0.186
563	0.183
564	0.181
564	0.178
564	0.176
565	0.174
565	0.172
566	0.17
566	0.168
567	0.166
567	0.165
568	0.164
568	0.163
568	0.163
569	0.163
569	0.163
570	0.163
570	0.162
571	0.161
571	0.161
572	0.16
572	0.159
573	0.158
573	0.157
573	0.156
574	0.154
574	0.153
575	0.152
575	0.152
576	0.151
576	0.149
577	0.148
577	0.146
577	0.145
578	0.143
578	0.143
579	0.143
579	0.143
580	0.141
580	0.139
581	0.136
581	0.134
581	0.133
582	0.132
582	0.132
583	0.132
583	0.13
584	0.128
584	0.125
585	0.123
585	0.123
585	0.122
586	0.122
586	0.121
587	0.12
587	0.118
588	0.116
588	0.114
589	0.113
589	0.112
590	0.112
590	0.111
590	0.111
591	0.111
591	0.111
592	0.11
592	0.109
593	0.109
593	0.109
594	0.108
594	0.106
594	0.105
595	0.105
595	0.103
596	0.102
596	0.102
597	0.104
597	0.104
598	0.104
598	0.105
598	0.105
599	0.105
599	0.105
600	0.104
600	0.103
601	0.102
601	0.102
602	0.1
602	0.1
602	0.099
603	0.099
603	0.1
604	0.1
604	0.101
605	0.102
605	0.103
606	0.103
606	0.102
606	0.101
607	0.1
607	0.1
608	0.099
608	0.098
609	0.097
609	0.097
610	0.096
610	0.095
610	0.095
611	0.095
611	0.096
612	0.097
612	0.098
613	0.099
613	0.1
614	0.1
614	0.1
614	0.1
615	0.1
615	0.099
616	0.1
616	0.099
617	0.099
617	0.098
618	0.097
618	0.097
618	0.097
619	0.097
619	0.098
620	0.1
620	0.101
621	0.101
621	0.102
622	0.103
622	0.104
622	0.104
623	0.105
623	0.106
624	0.107
624	0.107
625	0.107
625	0.107
626	0.107
626	0.107
626	0.108
627	0.108
627	0.108
628	0.109
628	0.109
629	0.11
629	0.11
630	0.11
630	0.111
630	0.112
631	0.113
631	0.114
632	0.114
632	0.116
633	0.117
633	0.118
634	0.12
634	0.122
634	0.124
635	0.126
635	0.127
636	0.129
636	0.131
637	0.133
637	0.134
638	0.135
638	0.137
638	0.139
639	0.14
639	0.141
640	0.143
640	0.145
641	0.147
641	0.149
642	0.151
642	0.154
642	0.156
643	0.157
643	0.159
644	0.161
644	0.163
645	0.165
645	0.167
646	0.169
646	0.171
646	0.174
647	0.177
647	0.181
648	0.184
648	0.186
649	0.19
649	0.193
650	0.196
650	0.199
650	0.201
651	0.204
651	0.207
652	0.209
652	0.212
653	0.215
653	0.223
653	0.233
654	0.185
654	0.15
655	0.155
655	0.157
656	0.159
656	0.161
657	0.163
657	0.165
657	0.166
658	0.164
658	0.155
659	0.197
659	0.257
660	0.263
660	0.265
661	0.268
661	0.27
661	0.274
662	0.277
662	0.281
663	0.284
663	0.288
664	0.292
664	0.295
665	0.298
665	0.301
665	0.305
666	0.308
666	0.31
667	0.313
667	0.315
668	0.318
668	0.321
669	0.324
669	0.327
669	0.332
670	0.336
670	0.339
671	0.342
671	0.345
672	0.347
672	0.35
672	0.352
673	0.354
673	0.356
674	0.357
674	0.358
675	0.359
675	0.361
676	0.362
676	0.364
676	0.366
677	0.368
677	0.37
678	0.372
678	0.373
679	0.375
679	0.376
680	0.378
680	0.38
680	0.381
681	0.382
681	0.383
682	0.384
682	0.385
683	0.386
683	0.388
684	0.39
684	0.391
684	0.391
685	0.392
685	0.393
686	0.394
686	0.395
687	0.395
687	0.395
687	0.395
688	0.394
688	0.393
689	0.392
689	0.392
690	0.391
690	0.39
691	0.389
691	0.389
691	0.388
692	0.387
692	0.386
693	0.385
693	0.385
694	0.384
694	0.383
695	0.382
695	0.383
695	0.382
696	0.381
696	0.38
697	0.379
697	0.378
698	0.377
698	0.375
698	0.373
699	0.372
699	0.369
700	0.367
700	0.365
701	0.364
701	0.362
702	0.36
702	0.359
702	0.356
703	0.354
703	0.352
704	0.35
704	0.348
705	0.346
705	0.344
705	0.341
706	0.339
706	0.337
707	0.334
707	0.331
708	0.328
708	0.326
709	0.323
709	0.32
709	0.317
710	0.313
710	0.31
711	0.308
711	0.305
712	0.303
712	0.3
713	0.299
713	0.297
713	0.294
714	0.292
714	0.29
715	0.288
715	0.285
716	0.283
716	0.281
716	0.279
717	0.277
717	0.275
718	0.272
718	0.27
719	0.268
719	0.266
720	0.263
720	0.261
720	0.258
721	0.254
721	0.251
722	0.248
722	0.244
723	0.242
723	0.239
723	0.236
724	0.233
724	0.23
725	0.228
725	0.225
726	0.223
726	0.221
727	0.218
727	0.216
727	0.213
728	0.211
728	0.208
729	0.206
729	0.204
730	0.202
730	0.199
730	0.197
731	0.194
731	0.192
732	0.191
732	0.189
733	0.187
733	0.186
734	0.184
734	0.182
734	0.18
735	0.179
735	0.177
736	0.175
736	0.173
737	0.171
737	0.17
737	0.167
738	0.164
738	0.161
739	0.158
739	0.155
740	0.152
740	0.149
741	0.147
741	0.144
741	0.14
742	0.135
742	0.132
743	0.129
743	0.126
744	0.123
744	0.12
744	0.117
745	0.115
745	0.113
746	0.111
746	0.109
747	0.108
747	0.108
748	0.107
748	0.106
748	0.106
749	0.105
749	0.104
750	0.103
750	0.103
751	0.102
751	0.102
751	0.101
752	0.1
752	0.098
753	0.097
753	0.095
754	0.094
754	0.093
754	0.093
755	0.092
755	0.092
756	0.091
756	0.089
757	0.088
757	0.088
758	0.088
758	0.087
758	0.087
759	0.086
759	0.084
760	0.082
760	0.081
761	0.08
761	0.079
761	0.078
762	0.077
762	0.076
763	0.075
763	0.073
764	0.07
764	0.068
764	0.067
765	0.064
765	0.062
766	0.06
766	0.059
767	0.057
767	0.055
768	0.052
768	0.05
768	0.048
769	0.047
769	0.046
770	0.044
770	0.042
771	0.04
771	0.037
771	0.034
772	0.032
772	0.03
773	0.028
773	0.025
774	0.023
774	0.02
775	0.018
775	0.016
775	0.014
776	0.011
776	0.009
777	0.007
777	0.005
778	0.002
778	-0.001
778	-0.004
779	-0.006
779	-0.008
780	-0.012
780	-0.016
781	-0.02
781	-0.024
781	-0.029
782	-0.035
782	-0.041
783	-0.048
783	-0.054
784	-0.062
784	-0.07
784	-0.078
785	-0.086
785	-0.095
786	-0.102
786	-0.105
787	-0.106
787	-0.107
788	-0.111
788	-0.115
788	-0.118
789	-0.122
789	-0.123
790	-0.121
790	-0.121
791	-0.122
791	-0.124
791	-0.127
792	-0.123
792	-0.113
793	-0.107
793	-0.103
794	-0.102
794	-0.103
794	-0.106
795	-0.108
795	-0.108
796	-0.108
796	-0.11
797	-0.118
797	-0.128
797	-0.134
798	-0.139
798	-0.142
799	-0.143
799	-0.142
800	-0.142
800	-0.144
801	-0.148
801	-0.149
801	-0.149
802	-0.151
802	-0.152
803	-0.152
803	-0.152
804	-0.15
804	-0.145
804	-0.138
805	-0.133
805	-0.13
806	-0.127
806	-0.125
807	-0.124
807	-0.123
807	-0.123
808	-0.123
808	-0.124
809	-0.129
809	-0.135
810	-0.139
810	-0.143
810	-0.147
811	-0.15
811	-0.152
812	-0.148
812	-0.146
813	-0.147
813	-0.148
813	-0.149
814	-0.15
814	-0.15
815	-0.148
815	-0.145
816	-0.142
816	-0.142
817	-0.146
817	-0.149
817	-0.147
818	-0.143
818	-0.137
819	-0.131
819	-0.125
820	-0.121
820	-0.117
820	-0.111
821	-0.103
821	-0.094
822	-0.085
822	-0.076
823	-0.068
823	-0.062
823	-0.056
824	-0.05
824	-0.043
825	-0.036
825	-0.03
826	-0.024
826	-0.02
826	-0.016
827	-0.013
827	-0.01
828	-0.007
828	-0.005
829	-0.004
829	-0.002
829	-0.002
830	-0.002
830	-0.002
831	-0.001
831	-0
832	0
832	0.001
832	0.002
833	0.003
833	0.004
834	0.005
834	0.006
835	0.007
835	0.008
835	0.009
836	0.01
836	0.01
837	0.01
837	0.011
838	0.011
838	0.011
839	0.011
839	0.011
839	0.011
840	0.01
840	0.01
841	0.01
841	0.011
842	0.012
842	0.012
842	0.013
843	0.014
843	0.015
844	0.016
844	0.016
845	0.017
845	0.018
845	0.018
846	0.018
846	0.018
847	0.018
847	0.019
848	0.019
848	0.02
848	0.02
849	0.021
849	0.022
850	0.023
850	0.023
851	0.024
851	0.024
851	0.024
852	0.023
852	0.023
853	0.022
853	0.021
854	0.02
854	0.019
854	0.018
855	0.017
855	0.016
856	0.016
856	0.015
857	0.016
857	0.016
857	0.017
858	0.018
858	0.019
859	0.021
859	0.022
860	0.024
860	0.026
860	0.027
861	0.029
861	0.03
862	0.03
862	0.031
863	0.031
863	0.031
863	0.03
864	0.029
864	0.029
865	0.029
865	0.028
866	0.027
866	0.027
866	0.026
867	0.026
867	0.026
868	0.025
868	0.025
869	0.024
869	0.023
869	0.021
870	0.02
870	0.019
871	0.018
871	0.017
872	0.016
872	0.015
872	0.014
873	0.013
873	0.013
874	0.013
874	0.014
875	0.014
875	0.015
875	0.016
876	0.016
876	0.017
877	0.018
877	0.018
878	0.019
878	0.019
878	0.02
879	0.02
879	0.02
880	0.021
880	0.021
881	0.021
881	0.021
881	0.021
882	0.021
882	0.021
883	0.022
883	0.022
884	0.022
884	0.022
884	0.022
885	0.022
885	0.022
886	0.022
886	0.022
887	0.022
887	0.023
887	0.023
888	0.023
888	0.023
889	0.024
889	0.025
890	0.026
890	0.027
890	0.027
891	0.028
891	0.028
892	0.028
892	0.028
893	0.028
893	0.028
893	0.028
894	0.027
894	0.026
895	0.025
895	0.024
895	0.022
896	0.021
896	0.02
897	0.018
897	0.017
898	0.016
898	0.015
898	0.014
899	0.013
899	0.013
900	0.012
900	0.012
901	0.012
901	0.012
901	0.012
902	0.012
902	0.012
903	0.012
903	0.012
904	0.011
904	0.011
904	0.011
905	0.01
905	0.01
906	0.011
906	0.011
907	0.012
907	0.012
907	0.013
908	0.014
908	0.015
909	0.016
909	0.018
910	0.019
910	0.02
910	0.021
911	0.021
911	0.022
912	0.022
912	0.022
913	0.022
913	0.021
913	0.021
914	0.02
914	0.019
915	0.018
915	0.018
916	0.017
916	0.017
916	0.017
917	0.016
917	0.016
918	0.016
918	0.016
918	0.016
919	0.016
919	0.015
920	0.015
920	0.014
921	0.014
921	0.013
921	0.012
922	0.012
922	0.012
923	0.012
923	0.012
924	0.012
924	0.013
924	0.013
925	0.013
925	0.014
926	0.014
926	0.014
927	0.015
927	0.014
927	0.014
928	0.014
928	0.014
929	0.014
929	0.014
930	0.013
930	0.013
930	0.013
931	0.013
931	0.012
932	0.012
932	0.012
933	0.011
933	0.011
933	0.011
934	0.01
934	0.01
935	0.01
935	0.009
935	0.009
936	0.009
936	0.009
937	0.009
937	0.009
938	0.009
938	0.009
938	0.01
939	0.01
939	0.011
940	0.011
940	0.012
941	0.012
941	0.013
941	0.014
942	0.015
942	0.015
943	0.015
943	0.015
944	0.015
944	0.016
944	0.016
945	0.017
945	0.018
946	0.018
946	0.018
946	0.019
947	0.019
947	0.02
948	0.02
948	0.021
949	0.021
949	0.021
949	0.022
950	0.023
950	0.024
951	0.025
951	0.025
952	0.026
952	0.027
952	0.027
953	0.028
953	0.029
954	0.029
954	0.029
955	0.028
955	0.028
955	0.027
956	0.027
956	0.026
957	0.025
957	0.023
957	0.022
958	0.021
958	0.02
959	0.019
959	0.018
960	0.017
960	0.015
960	0.014
961	0.012
961	0.011
962	0.009
962	0.008
963	0.007
963	0.006
963	0.005
964	0.004
964	0.004
965	0.003
965	0.003
966	0.004
966	0.004
966	0.004
967	0.004
967	0.004
968	0.004
968	0.004
968	0.004
969	0.004
969	0.004
970	0.004
970	0.004
971	0.004
971	0.004
971	0.005
972	0.006
972	0.006
973	0.007
973	0.008
974	0.009
974	0.01
974	0.01
975	0.011
975	0.012
976	0.013
976	0.013
976	0.013
977	0.013
977	0.012
978	0.012
978	0.011
979	0.01
979	0.01
979	0.009
980	0.008
980	0.006
981	0.005
981	0.004
982	0.004
982	0.003
982	0.003
983	0.002
983	0.002
984	0.002
984	0.003
984	0.003
985	0.004
985	0.005
986	0.005
986	0.006
987	0.006
987	0.007
987	0.008
988	0.008
988	0.008
989	0.009
989	0.009
990	0.009
990	0.009
990	0.009
991	0.01
991	0.01
992	0.01
992	0.011
992	0.011
993	0.012
993	0.012
994	0.012
994	0.012
995	0.013
995	0.013
995	0.012
996	0.012
996	0.012
997	0.011
997	0.01
997	0.01
998	0.01
998	0.009
999	0.009
999	0.008
1000	0.008
1000	0.008
1000	0.007
1001	0.007
1001	0.007
1002	0.007
1002	0.006
1003	0.006
1003	0.006
1003	0.005
1004	0.005
1004	0.004
1005	0.004
1005	0.003
1005	0.002
1006	0.002
1006	0.001
1007	0
1007	-0.001
1008	-0.001
1008	-0.002
1008	-0.002
1009	-0.002
1009	-0.003
1010	-0.003
1010	-0.003
1010	-0.003
1011	-0.003
1011	-0.002
1012	-0.002
1012	-0.001
1013	-0.001
1013	-0
1013	0
1014	0.001
1014	0.001
1015	0.001
1015	0.002
1016	0.003
1016	0.004
1016	0.004
1017	0.005
1017	0.005
1018	0.006
1018	0.006
1018	0.007
1019	0.008
1019	0.008
1020	0.008
1020	0.008
1021	0.008
1021	0.008
1021	0.008
1022	0.007
1022	0.007
1023	0.006
1023	0.006
1023	0.005
1024	0.004
1024	0.004
1025	0.003
1025	0.003
1026	0.002
1026	0.002
1026	0.002
1027	0.002
1027	0.002
1028	0.003
1028	0.003
1028	0.004
1029	0.004
1029	0.005
1030	0.005
1030	0.005
1031	0.005
1031	0.005
1031	0.005
1032	0.005
1032	0.005
1033	0.004
1033	0.003
1033	0.003
1034	0.002
1034	0.001
1035	-0
1035	-0.001
1036	-0.001
1036	-0.002
1036	-0.003
1037	-0.003
1037	-0.004
1038	-0.004
1038	-0.004
1039	-0.004
1039	-0.003
1039	-0.003
1040	-0.003
1040	-0.003
1041	-0.004
1041	-0.004
1041	-0.005
1042	-0.005
1042	-0.006
1043	-0.007
1043	-0.007
1044	-0.008
1044	-0.009
1044	-0.009
1045	-0.009
1045	-0.01
1046	-0.01
1046	-0.01
1046	-0.01
1047	-0.01
1047	-0.009
1048	-0.008
1048	-0.007
1049	-0.007
1049	-0.007
1049	-0.006
1050	-0.006
1050	-0.005
1051	-0.004
1051	-0.003
1051	-0.002
1052	-0.002
1052	-0.001
1053	-0
1053	0.001
1053	0.001
1054	0.002
1054	0.003
1055	0.004
1055	0.004
1056	0.004
1056	0.003
1056	0.003
1057	0.002
1057	0.001
1058	0.001
1058	0
1058	-0.001
1059	-0.001
1059	-0.002
1060	-0.003
1060	-0.004
1061	-0.004
1061	-0.004
1061	-0.004
1062	-0.005
1062	-0.006
1063	-0.006
1063	-0.006
1063	-0.006
1064	-0.006
1064	-0.006
1065	-0.005
1065	-0.006
1066	-0.005
1066	-0.005
1066	-0.004
1067	-0.003
1067	-0.002
1068	-0.001
1068	0
1068	0.001
1069	0.002
1069	0.002
1070	0.003
1070	0.004
1071	0.005
1071	0.006
1071	0.006
1072	0.007
1072	0.009
1073	0.01
1073	0.011
1073	0.012
1074	0.014
1074	0.015
1075	0.015
1075	0.016
1076	0.016
1076	0.017
1076	0.016
1077	0.016
1077	0.016
1078	0.016
1078	0.017
1078	0.017
1079	0.018
1079	0.018
1080	0.019
1080	0.02
1080	0.021
1081	0.022
1081	0.023
1082	0.024
1082	0.024
1083	0.025
1083	0.026
1083	0.027
1084	0.027
1084	0.029
1085	0.03
1085	0.031
1085	0.032
1086	0.033
1086	0.033
1087	0.035
1087	0.036
1088	0.036
1088	0.038
1088	0.039
1089	0.04
1089	0.041
1090	0.042
1090	0.044
1090	0.045
1091	0.047
1091	0.048
1092	0.05
1092	0.053
1092	0.055
1093	0.056
1093	0.059
1094	0.061
1094	0.063
1095	0.064
1095	0.066
1095	0.071
1096	0.074
1096	0.077
1097	0.081
1097	0.084
1097	0.089
1098	0.093
1098	0.097
1099	0.102
1099	0.108
1100	0.115
1100	0.12
1100	0.126
1101	0.133
1101	0.141
1102	0.151
1102	0.162
1102	0.173
1103	0.187
1103	0.201
1104	0.217
1104	0.234
1104	0.254
1105	0.277
1105	0.299
1106	0.321
1106	0.351
1107	0.383
1107	0.429
1107	0.49
1108	0.719
1108	1.584
1109	-0
1109	-0
1109	-0
1110	-0
1110	-0
1111	-0
1111	-0
