Data from 15c-2-2a_Absorbance__1463__03264.txt Node

Date: Wed Jan 24 13:52:39 CET 2024
User: Marek
Spectrometer: MAYP115816
Trigger mode: 0
Integration Time (sec): 2.000000E-1
Scans to average: 10
Electric dark correction enabled: true
Nonlinearity correction enabled: true
Boxcar width: 5
XAxis mode: Wavelengths
Number of Pixels in Spectrum: 2068
>>>>>Begin Spectral Data<<<<<
199	-1.778
199	-1.618
200	-1.459
200	-1.336
201	-1.263
201	-1.21
202	-1.139
202	-1.083
203	-1.034
203	-0.993
204	-0.964
204	-0.939
205	-0.916
205	-0.907
205	-0.905
206	-0.902
206	-0.901
207	-0.897
207	-0.894
208	-0.892
208	-0.89
209	-0.888
209	-0.888
210	-0.888
210	-0.887
211	-0.884
211	-0.884
212	-0.882
212	-0.88
213	-0.878
213	-0.876
213	-0.874
214	-0.872
214	-0.867
215	-0.867
215	-0.862
216	-0.861
216	-0.859
217	-0.857
217	-0.858
218	-0.858
218	-0.857
219	-0.855
219	-0.852
220	-0.851
220	-0.849
221	-0.849
221	-0.846
221	-0.841
222	-0.835
222	-0.828
223	-0.821
223	-0.816
224	-0.808
224	-0.8
225	-0.792
225	-0.783
226	-0.773
226	-0.761
227	-0.749
227	-0.737
228	-0.72
228	-0.703
229	-0.681
229	-0.658
229	-0.631
230	-0.601
230	-0.569
231	-0.534
231	-0.497
232	-0.458
232	-0.417
233	-0.376
233	-0.333
234	-0.291
234	-0.248
235	-0.208
235	-0.168
236	-0.13
236	-0.094
236	-0.06
237	-0.027
237	0.002
238	0.03
238	0.056
239	0.08
239	0.102
240	0.121
240	0.139
241	0.155
241	0.169
242	0.182
242	0.194
243	0.205
243	0.214
243	0.222
244	0.23
244	0.237
245	0.243
245	0.249
246	0.255
246	0.26
247	0.265
247	0.27
248	0.274
248	0.278
249	0.281
249	0.285
250	0.288
250	0.291
250	0.294
251	0.297
251	0.3
252	0.302
252	0.305
253	0.307
253	0.309
254	0.311
254	0.313
255	0.315
255	0.316
256	0.317
256	0.319
257	0.32
257	0.321
258	0.321
258	0.322
258	0.323
259	0.323
259	0.324
260	0.324
260	0.324
261	0.324
261	0.324
262	0.324
262	0.324
263	0.324
263	0.324
264	0.323
264	0.322
265	0.322
265	0.321
265	0.32
266	0.32
266	0.319
267	0.318
267	0.317
268	0.315
268	0.314
269	0.313
269	0.311
270	0.309
270	0.308
271	0.306
271	0.304
272	0.303
272	0.301
272	0.299
273	0.297
273	0.295
274	0.294
274	0.292
275	0.29
275	0.288
276	0.287
276	0.285
277	0.283
277	0.28
278	0.278
278	0.276
278	0.273
279	0.271
279	0.268
280	0.266
280	0.264
281	0.262
281	0.26
282	0.258
282	0.257
283	0.255
283	0.253
284	0.252
284	0.251
285	0.249
285	0.247
285	0.246
286	0.244
286	0.243
287	0.241
287	0.239
288	0.238
288	0.237
289	0.235
289	0.234
290	0.232
290	0.231
291	0.23
291	0.229
292	0.228
292	0.226
292	0.225
293	0.224
293	0.223
294	0.222
294	0.221
295	0.22
295	0.219
296	0.219
296	0.218
297	0.217
297	0.216
298	0.215
298	0.214
298	0.213
299	0.213
299	0.212
300	0.211
300	0.211
301	0.21
301	0.209
302	0.208
302	0.208
303	0.207
303	0.207
304	0.206
304	0.205
305	0.205
305	0.204
305	0.204
306	0.203
306	0.203
307	0.202
307	0.201
308	0.201
308	0.2
309	0.2
309	0.199
310	0.198
310	0.198
311	0.197
311	0.197
311	0.196
312	0.195
312	0.195
313	0.194
313	0.194
314	0.193
314	0.192
315	0.192
315	0.191
316	0.19
316	0.19
317	0.189
317	0.189
318	0.188
318	0.187
318	0.187
319	0.186
319	0.186
320	0.185
320	0.184
321	0.184
321	0.183
322	0.183
322	0.182
323	0.182
323	0.181
324	0.18
324	0.18
324	0.179
325	0.179
325	0.178
326	0.178
326	0.177
327	0.176
327	0.176
328	0.175
328	0.175
329	0.174
329	0.173
330	0.173
330	0.172
330	0.172
331	0.171
331	0.171
332	0.17
332	0.17
333	0.169
333	0.168
334	0.168
334	0.167
335	0.167
335	0.166
336	0.166
336	0.165
336	0.165
337	0.165
337	0.164
338	0.164
338	0.164
339	0.163
339	0.163
340	0.162
340	0.162
341	0.161
341	0.161
342	0.161
342	0.16
342	0.16
343	0.159
343	0.159
344	0.158
344	0.158
345	0.157
345	0.157
346	0.157
346	0.156
347	0.156
347	0.156
348	0.156
348	0.155
348	0.155
349	0.155
349	0.155
350	0.154
350	0.154
351	0.153
351	0.153
352	0.152
352	0.152
353	0.151
353	0.151
354	0.15
354	0.15
354	0.149
355	0.149
355	0.148
356	0.148
356	0.147
357	0.147
357	0.147
358	0.147
358	0.147
359	0.147
359	0.147
360	0.147
360	0.147
360	0.147
361	0.148
361	0.148
362	0.148
362	0.148
363	0.148
363	0.148
364	0.148
364	0.148
365	0.148
365	0.147
366	0.147
366	0.147
366	0.147
367	0.147
367	0.146
368	0.146
368	0.146
369	0.146
369	0.145
370	0.145
370	0.145
371	0.145
371	0.145
372	0.144
372	0.144
372	0.144
373	0.144
373	0.144
374	0.144
374	0.144
375	0.144
375	0.143
376	0.143
376	0.143
377	0.143
377	0.143
378	0.143
378	0.143
378	0.143
379	0.143
379	0.143
380	0.143
380	0.143
381	0.143
381	0.143
382	0.143
382	0.142
383	0.142
383	0.142
383	0.142
384	0.142
384	0.142
385	0.142
385	0.142
386	0.142
386	0.142
387	0.142
387	0.141
388	0.141
388	0.141
389	0.141
389	0.141
389	0.141
390	0.141
390	0.141
391	0.141
391	0.141
392	0.141
392	0.141
393	0.141
393	0.141
394	0.14
394	0.14
394	0.14
395	0.14
395	0.14
396	0.139
396	0.139
397	0.139
397	0.139
398	0.139
398	0.139
399	0.138
399	0.138
400	0.138
400	0.138
400	0.137
401	0.137
401	0.137
402	0.137
402	0.136
403	0.136
403	0.136
404	0.136
404	0.136
405	0.136
405	0.135
405	0.135
406	0.135
406	0.135
407	0.135
407	0.135
408	0.135
408	0.134
409	0.134
409	0.134
410	0.134
410	0.134
411	0.134
411	0.134
411	0.134
412	0.134
412	0.133
413	0.133
413	0.133
414	0.133
414	0.133
415	0.132
415	0.132
416	0.132
416	0.132
416	0.131
417	0.131
417	0.131
418	0.131
418	0.131
419	0.131
419	0.131
420	0.131
420	0.132
421	0.132
421	0.132
421	0.132
422	0.132
422	0.132
423	0.132
423	0.132
424	0.132
424	0.131
425	0.131
425	0.13
426	0.13
426	0.129
427	0.129
427	0.129
427	0.129
428	0.13
428	0.13
429	0.13
429	0.13
430	0.13
430	0.13
431	0.13
431	0.13
432	0.13
432	0.13
432	0.13
433	0.129
433	0.129
434	0.129
434	0.129
435	0.129
435	0.129
436	0.128
436	0.128
437	0.128
437	0.128
437	0.128
438	0.127
438	0.127
439	0.127
439	0.127
440	0.127
440	0.127
441	0.127
441	0.127
442	0.127
442	0.127
442	0.127
443	0.127
443	0.128
444	0.128
444	0.128
445	0.128
445	0.128
446	0.128
446	0.128
447	0.128
447	0.128
447	0.128
448	0.128
448	0.128
449	0.128
449	0.128
450	0.128
450	0.127
451	0.127
451	0.127
452	0.127
452	0.126
452	0.126
453	0.126
453	0.126
454	0.125
454	0.124
455	0.124
455	0.124
456	0.124
456	0.123
457	0.123
457	0.123
458	0.123
458	0.123
458	0.123
459	0.123
459	0.124
460	0.124
460	0.123
461	0.123
461	0.123
462	0.124
462	0.124
463	0.124
463	0.124
463	0.125
464	0.125
464	0.124
465	0.124
465	0.125
466	0.125
466	0.125
467	0.125
467	0.125
467	0.124
468	0.123
468	0.123
469	0.122
469	0.122
470	0.122
470	0.122
471	0.122
471	0.122
472	0.122
472	0.123
472	0.123
473	0.124
473	0.125
474	0.125
474	0.125
475	0.126
475	0.126
476	0.126
476	0.126
477	0.126
477	0.126
477	0.127
478	0.127
478	0.127
479	0.128
479	0.129
480	0.13
480	0.131
481	0.131
481	0.132
482	0.133
482	0.134
482	0.135
483	0.136
483	0.138
484	0.139
484	0.14
485	0.14
485	0.141
486	0.141
486	0.142
487	0.142
487	0.143
487	0.143
488	0.143
488	0.142
489	0.142
489	0.142
490	0.143
490	0.144
491	0.144
491	0.145
492	0.146
492	0.147
492	0.148
493	0.149
493	0.15
494	0.151
494	0.153
495	0.154
495	0.155
496	0.156
496	0.157
496	0.158
497	0.159
497	0.16
498	0.161
498	0.161
499	0.162
499	0.162
500	0.164
500	0.165
501	0.166
501	0.168
501	0.169
502	0.17
502	0.171
503	0.172
503	0.174
504	0.175
504	0.175
505	0.176
505	0.176
506	0.177
506	0.178
506	0.178
507	0.179
507	0.179
508	0.18
508	0.181
509	0.182
509	0.183
510	0.184
510	0.184
511	0.185
511	0.185
511	0.186
512	0.186
512	0.187
513	0.187
513	0.187
514	0.187
514	0.187
515	0.187
515	0.188
515	0.188
516	0.188
516	0.189
517	0.19
517	0.191
518	0.191
518	0.192
519	0.191
519	0.191
520	0.19
520	0.189
520	0.188
521	0.187
521	0.185
522	0.184
522	0.183
523	0.182
523	0.182
524	0.183
524	0.184
524	0.186
525	0.187
525	0.189
526	0.19
526	0.192
527	0.193
527	0.194
528	0.195
528	0.196
529	0.196
529	0.196
529	0.195
530	0.195
530	0.194
531	0.194
531	0.194
532	0.193
532	0.192
533	0.191
533	0.191
533	0.19
534	0.189
534	0.188
535	0.187
535	0.186
536	0.186
536	0.185
537	0.184
537	0.184
538	0.183
538	0.181
538	0.18
539	0.179
539	0.178
540	0.177
540	0.176
541	0.174
541	0.172
542	0.171
542	0.169
542	0.167
543	0.166
543	0.165
544	0.163
544	0.162
545	0.161
545	0.16
546	0.159
546	0.158
547	0.156
547	0.154
547	0.153
548	0.151
548	0.15
549	0.148
549	0.147
550	0.145
550	0.143
551	0.141
551	0.139
551	0.138
552	0.136
552	0.135
553	0.134
553	0.133
554	0.131
554	0.13
555	0.128
555	0.127
556	0.125
556	0.122
556	0.121
557	0.119
557	0.118
558	0.116
558	0.114
559	0.112
559	0.111
560	0.11
560	0.108
560	0.108
561	0.107
561	0.107
562	0.106
562	0.105
563	0.103
563	0.102
564	0.101
564	0.099
564	0.097
565	0.096
565	0.095
566	0.093
566	0.092
567	0.091
567	0.091
568	0.09
568	0.09
568	0.09
569	0.091
569	0.092
570	0.092
570	0.091
571	0.091
571	0.091
572	0.091
572	0.09
573	0.09
573	0.089
573	0.088
574	0.087
574	0.086
575	0.086
575	0.086
576	0.086
576	0.085
577	0.083
577	0.082
577	0.081
578	0.081
578	0.08
579	0.081
579	0.082
580	0.08
580	0.078
581	0.076
581	0.075
581	0.075
582	0.074
582	0.074
583	0.075
583	0.074
584	0.071
584	0.068
585	0.068
585	0.068
585	0.068
586	0.068
586	0.067
587	0.066
587	0.064
588	0.063
588	0.062
589	0.061
589	0.061
590	0.06
590	0.06
590	0.061
591	0.061
591	0.061
592	0.061
592	0.06
593	0.06
593	0.059
594	0.059
594	0.058
594	0.057
595	0.057
595	0.055
596	0.055
596	0.055
597	0.057
597	0.058
598	0.058
598	0.059
598	0.059
599	0.06
599	0.059
600	0.058
600	0.058
601	0.057
601	0.057
602	0.055
602	0.055
602	0.054
603	0.054
603	0.055
604	0.056
604	0.056
605	0.057
605	0.058
606	0.058
606	0.057
606	0.056
607	0.056
607	0.055
608	0.055
608	0.054
609	0.053
609	0.053
610	0.052
610	0.051
610	0.051
611	0.052
611	0.052
612	0.053
612	0.054
613	0.055
613	0.056
614	0.056
614	0.056
614	0.056
615	0.056
615	0.055
616	0.055
616	0.055
617	0.055
617	0.054
618	0.053
618	0.053
618	0.053
619	0.053
619	0.054
620	0.056
620	0.057
621	0.057
621	0.058
622	0.058
622	0.059
622	0.059
623	0.059
623	0.06
624	0.061
624	0.061
625	0.06
625	0.061
626	0.06
626	0.06
626	0.061
627	0.061
627	0.061
628	0.062
628	0.062
629	0.062
629	0.062
630	0.062
630	0.062
630	0.062
631	0.063
631	0.064
632	0.064
632	0.065
633	0.066
633	0.067
634	0.068
634	0.069
634	0.071
635	0.073
635	0.074
636	0.075
636	0.077
637	0.078
637	0.079
638	0.08
638	0.081
638	0.082
639	0.083
639	0.084
640	0.085
640	0.086
641	0.088
641	0.089
642	0.091
642	0.093
642	0.095
643	0.096
643	0.097
644	0.098
644	0.099
645	0.1
645	0.101
646	0.102
646	0.104
646	0.105
647	0.108
647	0.11
648	0.112
648	0.114
649	0.116
649	0.119
650	0.121
650	0.123
650	0.125
651	0.126
651	0.128
652	0.129
652	0.131
653	0.133
653	0.14
653	0.147
654	0.12
654	0.099
655	0.1
655	0.102
656	0.104
656	0.105
657	0.107
657	0.108
657	0.109
658	0.106
658	0.1
659	0.125
659	0.159
660	0.166
660	0.167
661	0.169
661	0.171
661	0.173
662	0.176
662	0.178
663	0.181
663	0.184
664	0.186
664	0.188
665	0.19
665	0.193
665	0.195
666	0.197
666	0.199
667	0.2
667	0.202
668	0.204
668	0.206
669	0.208
669	0.211
669	0.214
670	0.216
670	0.219
671	0.22
671	0.222
672	0.224
672	0.226
672	0.227
673	0.229
673	0.23
674	0.231
674	0.231
675	0.232
675	0.233
676	0.234
676	0.235
676	0.236
677	0.237
677	0.239
678	0.24
678	0.24
679	0.241
679	0.243
680	0.244
680	0.245
680	0.245
681	0.246
681	0.247
682	0.247
682	0.248
683	0.249
683	0.25
684	0.251
684	0.251
684	0.251
685	0.252
685	0.253
686	0.253
686	0.254
687	0.254
687	0.254
687	0.254
688	0.253
688	0.252
689	0.252
689	0.252
690	0.252
690	0.251
691	0.25
691	0.25
691	0.249
692	0.248
692	0.248
693	0.247
693	0.247
694	0.247
694	0.245
695	0.246
695	0.246
695	0.246
696	0.245
696	0.244
697	0.244
697	0.243
698	0.242
698	0.24
698	0.239
699	0.239
699	0.237
700	0.235
700	0.234
701	0.233
701	0.232
702	0.231
702	0.23
702	0.229
703	0.227
703	0.225
704	0.223
704	0.222
705	0.221
705	0.219
705	0.217
706	0.216
706	0.214
707	0.212
707	0.21
708	0.208
708	0.206
709	0.205
709	0.203
709	0.2
710	0.197
710	0.195
711	0.194
711	0.192
712	0.19
712	0.189
713	0.187
713	0.186
713	0.184
714	0.183
714	0.181
715	0.18
715	0.179
716	0.178
716	0.177
716	0.176
717	0.175
717	0.174
718	0.172
718	0.171
719	0.17
719	0.169
720	0.167
720	0.165
720	0.163
721	0.16
721	0.158
722	0.155
722	0.152
723	0.15
723	0.148
723	0.146
724	0.144
724	0.142
725	0.14
725	0.138
726	0.137
726	0.135
727	0.134
727	0.132
727	0.131
728	0.129
728	0.127
729	0.127
729	0.125
730	0.123
730	0.121
730	0.12
731	0.118
731	0.117
732	0.116
732	0.115
733	0.114
733	0.113
734	0.112
734	0.111
734	0.11
735	0.109
735	0.107
736	0.106
736	0.104
737	0.103
737	0.102
737	0.1
738	0.098
738	0.095
739	0.093
739	0.091
740	0.089
740	0.087
741	0.086
741	0.083
741	0.08
742	0.077
742	0.074
743	0.072
743	0.07
744	0.068
744	0.066
744	0.063
745	0.062
745	0.06
746	0.059
746	0.058
747	0.057
747	0.057
748	0.057
748	0.057
748	0.057
749	0.056
749	0.057
750	0.056
750	0.056
751	0.056
751	0.056
751	0.056
752	0.055
752	0.053
753	0.052
753	0.051
754	0.051
754	0.05
754	0.05
755	0.05
755	0.05
756	0.049
756	0.048
757	0.047
757	0.048
758	0.048
758	0.047
758	0.047
759	0.047
759	0.045
760	0.044
760	0.043
761	0.043
761	0.043
761	0.042
762	0.041
762	0.041
763	0.04
763	0.038
764	0.036
764	0.035
764	0.033
765	0.032
765	0.03
766	0.028
766	0.027
767	0.026
767	0.024
768	0.022
768	0.02
768	0.02
769	0.019
769	0.018
770	0.016
770	0.014
771	0.012
771	0.01
771	0.008
772	0.006
772	0.004
773	0.002
773	-0
774	-0.002
774	-0.005
775	-0.006
775	-0.008
775	-0.01
776	-0.011
776	-0.013
777	-0.014
777	-0.016
778	-0.018
778	-0.02
778	-0.022
779	-0.024
779	-0.026
780	-0.029
780	-0.032
781	-0.036
781	-0.04
781	-0.044
782	-0.049
782	-0.055
783	-0.06
783	-0.065
784	-0.072
784	-0.079
784	-0.086
785	-0.093
785	-0.101
786	-0.106
786	-0.108
787	-0.108
787	-0.109
788	-0.112
788	-0.116
788	-0.119
789	-0.122
789	-0.123
790	-0.122
790	-0.121
791	-0.122
791	-0.125
791	-0.128
792	-0.123
792	-0.113
793	-0.108
793	-0.104
794	-0.102
794	-0.103
794	-0.107
795	-0.108
795	-0.108
796	-0.108
796	-0.11
797	-0.118
797	-0.128
797	-0.134
798	-0.139
798	-0.142
799	-0.143
799	-0.143
800	-0.143
800	-0.145
801	-0.148
801	-0.149
801	-0.15
802	-0.151
802	-0.152
803	-0.152
803	-0.152
804	-0.151
804	-0.145
804	-0.138
805	-0.133
805	-0.13
806	-0.128
806	-0.126
807	-0.124
807	-0.124
807	-0.124
808	-0.124
808	-0.125
809	-0.13
809	-0.136
810	-0.14
810	-0.143
810	-0.147
811	-0.151
811	-0.152
812	-0.149
812	-0.146
813	-0.147
813	-0.148
813	-0.149
814	-0.15
814	-0.15
815	-0.148
815	-0.145
816	-0.143
816	-0.143
817	-0.147
817	-0.149
817	-0.147
818	-0.143
818	-0.137
819	-0.13
819	-0.125
820	-0.121
820	-0.117
820	-0.111
821	-0.104
821	-0.095
822	-0.087
822	-0.079
823	-0.073
823	-0.067
823	-0.062
824	-0.056
824	-0.05
825	-0.044
825	-0.038
826	-0.033
826	-0.03
826	-0.027
827	-0.023
827	-0.021
828	-0.019
828	-0.017
829	-0.015
829	-0.014
829	-0.014
830	-0.014
830	-0.014
831	-0.013
831	-0.012
832	-0.011
832	-0.01
832	-0.009
833	-0.008
833	-0.007
834	-0.006
834	-0.005
835	-0.004
835	-0.004
835	-0.003
836	-0.002
836	-0.002
837	-0.002
837	-0.002
838	-0.002
838	-0.002
839	-0.002
839	-0.002
839	-0.003
840	-0.003
840	-0.003
841	-0.002
841	-0.002
842	-0.001
842	-0.001
842	0
843	0.001
843	0.002
844	0.003
844	0.004
845	0.005
845	0.005
845	0.006
846	0.006
846	0.006
847	0.006
847	0.007
848	0.008
848	0.008
848	0.009
849	0.01
849	0.011
850	0.012
850	0.012
851	0.013
851	0.014
851	0.014
852	0.013
852	0.013
853	0.012
853	0.011
854	0.01
854	0.009
854	0.008
855	0.006
855	0.006
856	0.005
856	0.005
857	0.005
857	0.005
857	0.006
858	0.007
858	0.008
859	0.01
859	0.012
860	0.014
860	0.016
860	0.017
861	0.019
861	0.02
862	0.021
862	0.021
863	0.021
863	0.021
863	0.021
864	0.02
864	0.019
865	0.019
865	0.018
866	0.017
866	0.016
866	0.016
867	0.015
867	0.015
868	0.014
868	0.013
869	0.012
869	0.011
869	0.009
870	0.008
870	0.007
871	0.006
871	0.005
872	0.004
872	0.003
872	0.003
873	0.002
873	0.002
874	0.002
874	0.003
875	0.003
875	0.004
875	0.004
876	0.005
876	0.005
877	0.006
877	0.007
878	0.007
878	0.008
878	0.008
879	0.009
879	0.009
880	0.009
880	0.009
881	0.009
881	0.009
881	0.01
882	0.01
882	0.01
883	0.01
883	0.01
884	0.011
884	0.011
884	0.011
885	0.011
885	0.012
886	0.012
886	0.012
887	0.012
887	0.013
887	0.013
888	0.013
888	0.014
889	0.015
889	0.016
890	0.016
890	0.017
890	0.018
891	0.018
891	0.018
892	0.019
892	0.018
893	0.018
893	0.018
893	0.018
894	0.017
894	0.016
895	0.015
895	0.014
895	0.013
896	0.012
896	0.011
897	0.009
897	0.008
898	0.007
898	0.006
898	0.005
899	0.004
899	0.004
900	0.004
900	0.003
901	0.003
901	0.003
901	0.003
902	0.003
902	0.003
903	0.003
903	0.003
904	0.002
904	0.002
904	0.001
905	0.001
905	0.001
906	0.001
906	0.002
907	0.002
907	0.002
907	0.003
908	0.004
908	0.005
909	0.006
909	0.008
910	0.009
910	0.01
910	0.011
911	0.011
911	0.011
912	0.012
912	0.012
913	0.012
913	0.011
913	0.011
914	0.01
914	0.009
915	0.008
915	0.007
916	0.007
916	0.006
916	0.006
917	0.006
917	0.005
918	0.005
918	0.005
918	0.005
919	0.005
919	0.005
920	0.004
920	0.004
921	0.004
921	0.004
921	0.003
922	0.003
922	0.003
923	0.004
923	0.004
924	0.004
924	0.005
924	0.005
925	0.005
925	0.006
926	0.006
926	0.006
927	0.006
927	0.006
927	0.006
928	0.005
928	0.005
929	0.005
929	0.004
930	0.004
930	0.004
930	0.003
931	0.003
931	0.003
932	0.002
932	0.002
933	0.002
933	0.001
933	0.001
934	0.001
934	0
935	-0
935	-0.001
935	-0.001
936	-0.001
936	-0.001
937	-0.001
937	-0.001
938	-0.001
938	-0.001
938	-0.001
939	-0
939	0.001
940	0.001
940	0.002
941	0.003
941	0.003
941	0.004
942	0.005
942	0.005
943	0.006
943	0.006
944	0.007
944	0.007
944	0.008
945	0.008
945	0.009
946	0.01
946	0.01
946	0.01
947	0.011
947	0.011
948	0.011
948	0.012
949	0.012
949	0.012
949	0.012
950	0.013
950	0.014
951	0.015
951	0.015
952	0.015
952	0.016
952	0.017
953	0.018
953	0.018
954	0.018
954	0.018
955	0.018
955	0.017
955	0.017
956	0.017
956	0.016
957	0.015
957	0.014
957	0.012
958	0.011
958	0.01
959	0.01
959	0.009
960	0.007
960	0.006
960	0.004
961	0.003
961	0.001
962	0
962	-0.001
963	-0.002
963	-0.003
963	-0.004
964	-0.005
964	-0.006
965	-0.006
965	-0.006
966	-0.006
966	-0.005
966	-0.005
967	-0.005
967	-0.005
968	-0.004
968	-0.004
968	-0.004
969	-0.004
969	-0.004
970	-0.004
970	-0.004
971	-0.003
971	-0.003
971	-0.002
972	-0.002
972	-0.001
973	-0
973	0
974	0.001
974	0.002
974	0.003
975	0.004
975	0.005
976	0.005
976	0.005
976	0.005
977	0.005
977	0.005
978	0.004
978	0.004
979	0.003
979	0.002
979	0.001
980	0
980	-0.001
981	-0.002
981	-0.003
982	-0.004
982	-0.004
982	-0.004
983	-0.004
983	-0.005
984	-0.005
984	-0.004
984	-0.004
985	-0.003
985	-0.002
986	-0.002
986	-0.001
987	-0.001
987	-0
987	0
988	0.001
988	0.001
989	0.001
989	0.001
990	0.001
990	0.001
990	0.001
991	0.002
991	0.002
992	0.002
992	0.003
992	0.003
993	0.004
993	0.004
994	0.005
994	0.005
995	0.005
995	0.005
995	0.005
996	0.005
996	0.004
997	0.004
997	0.003
997	0.003
998	0.002
998	0.002
999	0.001
999	0
1000	0
1000	-0
1000	-0
1001	-0
1001	-0
1002	-0.001
1002	-0.001
1003	-0.001
1003	-0.002
1003	-0.002
1004	-0.002
1004	-0.003
1005	-0.003
1005	-0.004
1005	-0.005
1006	-0.005
1006	-0.006
1007	-0.006
1007	-0.007
1008	-0.007
1008	-0.007
1008	-0.007
1009	-0.008
1009	-0.008
1010	-0.008
1010	-0.007
1010	-0.008
1011	-0.008
1011	-0.007
1012	-0.007
1012	-0.006
1013	-0.006
1013	-0.006
1013	-0.005
1014	-0.005
1014	-0.005
1015	-0.005
1015	-0.004
1016	-0.004
1016	-0.003
1016	-0.003
1017	-0.002
1017	-0.002
1018	-0.001
1018	-0.001
1018	-0
1019	0
1019	0.001
1020	0.001
1020	0
1021	0
1021	-0
1021	-0
1022	-0.001
1022	-0.001
1023	-0.001
1023	-0.002
1023	-0.003
1024	-0.004
1024	-0.004
1025	-0.004
1025	-0.005
1026	-0.005
1026	-0.005
1026	-0.005
1027	-0.005
1027	-0.005
1028	-0.005
1028	-0.004
1028	-0.004
1029	-0.004
1029	-0.003
1030	-0.003
1030	-0.003
1031	-0.003
1031	-0.003
1031	-0.003
1032	-0.003
1032	-0.004
1033	-0.004
1033	-0.005
1033	-0.006
1034	-0.006
1034	-0.008
1035	-0.009
1035	-0.01
1036	-0.01
1036	-0.011
1036	-0.011
1037	-0.012
1037	-0.012
1038	-0.012
1038	-0.013
1039	-0.013
1039	-0.013
1039	-0.012
1040	-0.013
1040	-0.013
1041	-0.013
1041	-0.014
1041	-0.014
1042	-0.015
1042	-0.015
1043	-0.015
1043	-0.016
1044	-0.017
1044	-0.017
1044	-0.017
1045	-0.017
1045	-0.018
1046	-0.018
1046	-0.018
1046	-0.018
1047	-0.017
1047	-0.017
1048	-0.016
1048	-0.015
1049	-0.015
1049	-0.015
1049	-0.014
1050	-0.014
1050	-0.013
1051	-0.012
1051	-0.012
1051	-0.011
1052	-0.01
1052	-0.01
1053	-0.009
1053	-0.008
1053	-0.007
1054	-0.006
1054	-0.005
1055	-0.004
1055	-0.004
1056	-0.004
1056	-0.004
1056	-0.005
1057	-0.005
1057	-0.006
1058	-0.007
1058	-0.008
1058	-0.009
1059	-0.01
1059	-0.01
1060	-0.011
1060	-0.012
1061	-0.012
1061	-0.012
1061	-0.012
1062	-0.013
1062	-0.013
1063	-0.014
1063	-0.014
1063	-0.014
1064	-0.015
1064	-0.014
1065	-0.014
1065	-0.014
1066	-0.014
1066	-0.013
1066	-0.013
1067	-0.012
1067	-0.011
1068	-0.01
1068	-0.009
1068	-0.008
1069	-0.008
1069	-0.007
1070	-0.006
1070	-0.006
1071	-0.005
1071	-0.004
1071	-0.004
1072	-0.003
1072	-0.001
1073	-0.001
1073	0.001
1073	0.001
1074	0.002
1074	0.003
1075	0.003
1075	0.003
1076	0.004
1076	0.004
1076	0.004
1077	0.004
1077	0.004
1078	0.004
1078	0.005
1078	0.006
1079	0.006
1079	0.007
1080	0.008
1080	0.009
1080	0.01
1081	0.011
1081	0.012
1082	0.013
1082	0.013
1083	0.013
1083	0.014
1083	0.015
1084	0.016
1084	0.016
1085	0.017
1085	0.018
1085	0.019
1086	0.02
1086	0.02
1087	0.022
1087	0.023
1088	0.023
1088	0.024
1088	0.026
1089	0.026
1089	0.027
1090	0.027
1090	0.029
1090	0.029
1091	0.03
1091	0.031
1092	0.033
1092	0.035
1092	0.036
1093	0.036
1093	0.039
1094	0.041
1094	0.042
1095	0.044
1095	0.046
1095	0.05
1096	0.052
1096	0.055
1097	0.058
1097	0.061
1097	0.065
1098	0.067
1098	0.07
1099	0.075
1099	0.08
1100	0.085
1100	0.089
1100	0.094
1101	0.099
1101	0.106
1102	0.113
1102	0.122
1102	0.133
1103	0.144
1103	0.155
1104	0.167
1104	0.18
1104	0.196
1105	0.211
1105	0.229
1106	0.244
1106	0.266
1107	0.288
1107	0.32
1107	0.36
1108	0.5
1108	0.774
1109	-0
1109	-0
1109	-0
1110	-0
1110	-0
1111	-0
1111	-0
