Data from 15c-2-2a_Absorbance__732__02533.txt Node

Date: Wed Jan 24 13:28:17 CET 2024
User: Marek
Spectrometer: MAYP115816
Trigger mode: 0
Integration Time (sec): 2.000000E-1
Scans to average: 10
Electric dark correction enabled: true
Nonlinearity correction enabled: true
Boxcar width: 5
XAxis mode: Wavelengths
Number of Pixels in Spectrum: 2068
>>>>>Begin Spectral Data<<<<<
199	-1.764
199	-1.604
200	-1.447
200	-1.324
201	-1.251
201	-1.2
202	-1.13
202	-1.074
203	-1.027
203	-0.986
204	-0.957
204	-0.933
205	-0.912
205	-0.902
205	-0.9
206	-0.897
206	-0.895
207	-0.891
207	-0.888
208	-0.887
208	-0.886
209	-0.884
209	-0.884
210	-0.883
210	-0.882
211	-0.88
211	-0.881
212	-0.878
212	-0.876
213	-0.874
213	-0.872
213	-0.869
214	-0.867
214	-0.863
215	-0.862
215	-0.859
216	-0.858
216	-0.855
217	-0.854
217	-0.854
218	-0.855
218	-0.854
219	-0.852
219	-0.849
220	-0.848
220	-0.846
221	-0.846
221	-0.843
221	-0.838
222	-0.833
222	-0.826
223	-0.82
223	-0.814
224	-0.806
224	-0.798
225	-0.79
225	-0.78
226	-0.77
226	-0.758
227	-0.746
227	-0.735
228	-0.717
228	-0.701
229	-0.681
229	-0.66
229	-0.635
230	-0.606
230	-0.575
231	-0.542
231	-0.506
232	-0.469
232	-0.43
233	-0.392
233	-0.351
234	-0.312
234	-0.272
235	-0.235
235	-0.199
236	-0.165
236	-0.133
236	-0.103
237	-0.074
237	-0.048
238	-0.025
238	-0.003
239	0.017
239	0.034
240	0.05
240	0.065
241	0.077
241	0.089
242	0.099
242	0.108
243	0.117
243	0.124
243	0.13
244	0.137
244	0.143
245	0.147
245	0.152
246	0.157
246	0.161
247	0.164
247	0.168
248	0.172
248	0.175
249	0.178
249	0.181
250	0.183
250	0.186
250	0.189
251	0.191
251	0.194
252	0.196
252	0.198
253	0.2
253	0.202
254	0.203
254	0.205
255	0.206
255	0.208
256	0.209
256	0.21
257	0.211
257	0.212
258	0.212
258	0.213
258	0.214
259	0.214
259	0.214
260	0.215
260	0.215
261	0.215
261	0.215
262	0.215
262	0.215
263	0.215
263	0.214
264	0.214
264	0.214
265	0.213
265	0.212
265	0.212
266	0.211
266	0.21
267	0.209
267	0.208
268	0.207
268	0.206
269	0.205
269	0.203
270	0.201
270	0.2
271	0.198
271	0.197
272	0.196
272	0.194
272	0.192
273	0.191
273	0.189
274	0.188
274	0.186
275	0.185
275	0.183
276	0.182
276	0.18
277	0.178
277	0.176
278	0.175
278	0.173
278	0.17
279	0.168
279	0.166
280	0.164
280	0.162
281	0.16
281	0.158
282	0.157
282	0.155
283	0.154
283	0.152
284	0.151
284	0.15
285	0.149
285	0.148
285	0.146
286	0.145
286	0.144
287	0.142
287	0.141
288	0.14
288	0.138
289	0.137
289	0.136
290	0.135
290	0.134
291	0.133
291	0.132
292	0.131
292	0.13
292	0.129
293	0.128
293	0.127
294	0.126
294	0.126
295	0.125
295	0.124
296	0.124
296	0.123
297	0.122
297	0.122
298	0.121
298	0.121
298	0.12
299	0.12
299	0.119
300	0.119
300	0.118
301	0.118
301	0.117
302	0.117
302	0.117
303	0.116
303	0.116
304	0.115
304	0.115
305	0.115
305	0.114
305	0.114
306	0.114
306	0.113
307	0.113
307	0.113
308	0.112
308	0.112
309	0.111
309	0.111
310	0.111
310	0.11
311	0.11
311	0.109
311	0.109
312	0.109
312	0.108
313	0.108
313	0.108
314	0.107
314	0.107
315	0.107
315	0.106
316	0.106
316	0.105
317	0.105
317	0.105
318	0.104
318	0.104
318	0.103
319	0.103
319	0.103
320	0.102
320	0.102
321	0.101
321	0.101
322	0.101
322	0.1
323	0.1
323	0.1
324	0.099
324	0.099
324	0.099
325	0.098
325	0.098
326	0.097
326	0.097
327	0.097
327	0.096
328	0.096
328	0.095
329	0.095
329	0.094
330	0.094
330	0.094
330	0.094
331	0.093
331	0.093
332	0.092
332	0.092
333	0.092
333	0.091
334	0.091
334	0.091
335	0.09
335	0.09
336	0.09
336	0.089
336	0.089
337	0.089
337	0.089
338	0.088
338	0.088
339	0.088
339	0.088
340	0.087
340	0.087
341	0.087
341	0.086
342	0.086
342	0.086
342	0.085
343	0.085
343	0.085
344	0.084
344	0.084
345	0.084
345	0.083
346	0.083
346	0.083
347	0.083
347	0.082
348	0.082
348	0.082
348	0.082
349	0.082
349	0.082
350	0.081
350	0.081
351	0.081
351	0.08
352	0.08
352	0.079
353	0.079
353	0.078
354	0.078
354	0.078
354	0.077
355	0.077
355	0.077
356	0.076
356	0.076
357	0.076
357	0.075
358	0.075
358	0.075
359	0.075
359	0.075
360	0.076
360	0.076
360	0.076
361	0.076
361	0.077
362	0.077
362	0.077
363	0.077
363	0.077
364	0.077
364	0.077
365	0.077
365	0.076
366	0.076
366	0.076
366	0.076
367	0.076
367	0.075
368	0.075
368	0.075
369	0.075
369	0.075
370	0.075
370	0.075
371	0.075
371	0.075
372	0.074
372	0.074
372	0.075
373	0.075
373	0.075
374	0.075
374	0.074
375	0.074
375	0.074
376	0.074
376	0.074
377	0.074
377	0.074
378	0.074
378	0.074
378	0.074
379	0.075
379	0.075
380	0.075
380	0.075
381	0.075
381	0.074
382	0.074
382	0.074
383	0.074
383	0.074
383	0.074
384	0.074
384	0.074
385	0.074
385	0.074
386	0.074
386	0.074
387	0.074
387	0.074
388	0.074
388	0.073
389	0.073
389	0.073
389	0.073
390	0.073
390	0.073
391	0.074
391	0.074
392	0.074
392	0.074
393	0.074
393	0.074
394	0.074
394	0.074
394	0.074
395	0.073
395	0.073
396	0.073
396	0.073
397	0.073
397	0.073
398	0.073
398	0.073
399	0.073
399	0.072
400	0.072
400	0.072
400	0.072
401	0.072
401	0.072
402	0.071
402	0.071
403	0.071
403	0.071
404	0.071
404	0.071
405	0.071
405	0.071
405	0.071
406	0.071
406	0.071
407	0.071
407	0.071
408	0.07
408	0.07
409	0.07
409	0.07
410	0.07
410	0.07
411	0.07
411	0.07
411	0.07
412	0.07
412	0.07
413	0.069
413	0.069
414	0.069
414	0.069
415	0.069
415	0.069
416	0.069
416	0.069
416	0.068
417	0.068
417	0.068
418	0.068
418	0.068
419	0.068
419	0.068
420	0.069
420	0.069
421	0.069
421	0.069
421	0.069
422	0.069
422	0.069
423	0.069
423	0.069
424	0.069
424	0.068
425	0.068
425	0.067
426	0.067
426	0.067
427	0.067
427	0.067
427	0.067
428	0.068
428	0.068
429	0.068
429	0.068
430	0.068
430	0.068
431	0.068
431	0.068
432	0.068
432	0.068
432	0.068
433	0.067
433	0.067
434	0.067
434	0.067
435	0.067
435	0.067
436	0.067
436	0.067
437	0.066
437	0.066
437	0.066
438	0.066
438	0.066
439	0.066
439	0.065
440	0.065
440	0.065
441	0.065
441	0.065
442	0.065
442	0.066
442	0.066
443	0.066
443	0.066
444	0.066
444	0.067
445	0.067
445	0.067
446	0.067
446	0.067
447	0.067
447	0.067
447	0.067
448	0.067
448	0.067
449	0.067
449	0.066
450	0.066
450	0.066
451	0.066
451	0.066
452	0.065
452	0.065
452	0.065
453	0.065
453	0.064
454	0.064
454	0.063
455	0.063
455	0.063
456	0.062
456	0.062
457	0.062
457	0.062
458	0.062
458	0.062
458	0.062
459	0.063
459	0.063
460	0.063
460	0.063
461	0.063
461	0.063
462	0.063
462	0.063
463	0.063
463	0.064
463	0.064
464	0.064
464	0.063
465	0.063
465	0.063
466	0.063
466	0.063
467	0.063
467	0.063
467	0.062
468	0.061
468	0.061
469	0.06
469	0.06
470	0.06
470	0.06
471	0.06
471	0.06
472	0.06
472	0.06
472	0.061
473	0.061
473	0.062
474	0.062
474	0.062
475	0.063
475	0.063
476	0.063
476	0.063
477	0.063
477	0.063
477	0.063
478	0.063
478	0.063
479	0.063
479	0.064
480	0.065
480	0.066
481	0.066
481	0.067
482	0.067
482	0.068
482	0.068
483	0.069
483	0.07
484	0.071
484	0.072
485	0.072
485	0.073
486	0.073
486	0.073
487	0.073
487	0.074
487	0.074
488	0.074
488	0.073
489	0.073
489	0.073
490	0.073
490	0.073
491	0.074
491	0.074
492	0.075
492	0.075
492	0.076
493	0.077
493	0.077
494	0.078
494	0.079
495	0.08
495	0.08
496	0.081
496	0.082
496	0.082
497	0.083
497	0.083
498	0.084
498	0.084
499	0.084
499	0.084
500	0.085
500	0.086
501	0.087
501	0.088
501	0.088
502	0.089
502	0.09
503	0.09
503	0.091
504	0.091
504	0.091
505	0.092
505	0.091
506	0.092
506	0.092
506	0.092
507	0.092
507	0.092
508	0.092
508	0.093
509	0.094
509	0.094
510	0.095
510	0.095
511	0.095
511	0.095
511	0.096
512	0.096
512	0.096
513	0.096
513	0.096
514	0.096
514	0.096
515	0.096
515	0.096
515	0.096
516	0.096
516	0.097
517	0.097
517	0.098
518	0.098
518	0.098
519	0.098
519	0.097
520	0.097
520	0.096
520	0.095
521	0.094
521	0.093
522	0.091
522	0.091
523	0.09
523	0.09
524	0.09
524	0.091
524	0.092
525	0.094
525	0.095
526	0.096
526	0.097
527	0.099
527	0.099
528	0.1
528	0.101
529	0.101
529	0.1
529	0.1
530	0.1
530	0.1
531	0.1
531	0.099
532	0.099
532	0.098
533	0.098
533	0.097
533	0.097
534	0.096
534	0.096
535	0.095
535	0.095
536	0.094
536	0.094
537	0.093
537	0.093
538	0.092
538	0.091
538	0.091
539	0.09
539	0.09
540	0.089
540	0.088
541	0.087
541	0.086
542	0.086
542	0.085
542	0.084
543	0.083
543	0.083
544	0.082
544	0.081
545	0.081
545	0.08
546	0.08
546	0.079
547	0.078
547	0.077
547	0.076
548	0.075
548	0.074
549	0.073
549	0.072
550	0.071
550	0.07
551	0.069
551	0.068
551	0.067
552	0.067
552	0.066
553	0.066
553	0.065
554	0.065
554	0.064
555	0.063
555	0.062
556	0.061
556	0.06
556	0.059
557	0.058
557	0.057
558	0.056
558	0.055
559	0.054
559	0.054
560	0.053
560	0.052
560	0.052
561	0.052
561	0.052
562	0.051
562	0.051
563	0.05
563	0.049
564	0.049
564	0.048
564	0.047
565	0.046
565	0.046
566	0.045
566	0.044
567	0.043
567	0.043
568	0.043
568	0.044
568	0.044
569	0.045
569	0.046
570	0.046
570	0.046
571	0.047
571	0.047
572	0.047
572	0.047
573	0.047
573	0.047
573	0.046
574	0.045
574	0.045
575	0.044
575	0.045
576	0.046
576	0.044
577	0.043
577	0.042
577	0.042
578	0.042
578	0.042
579	0.043
579	0.044
580	0.043
580	0.041
581	0.04
581	0.039
581	0.039
582	0.039
582	0.039
583	0.04
583	0.039
584	0.037
584	0.035
585	0.034
585	0.035
585	0.035
586	0.035
586	0.035
587	0.034
587	0.033
588	0.032
588	0.031
589	0.03
589	0.031
590	0.03
590	0.03
590	0.031
591	0.032
591	0.032
592	0.031
592	0.03
593	0.03
593	0.03
594	0.03
594	0.029
594	0.028
595	0.028
595	0.027
596	0.026
596	0.027
597	0.029
597	0.03
598	0.031
598	0.031
598	0.032
599	0.032
599	0.032
600	0.031
600	0.031
601	0.031
601	0.03
602	0.029
602	0.029
602	0.028
603	0.028
603	0.029
604	0.03
604	0.03
605	0.031
605	0.032
606	0.032
606	0.031
606	0.03
607	0.03
607	0.03
608	0.029
608	0.028
609	0.027
609	0.027
610	0.026
610	0.026
610	0.026
611	0.027
611	0.027
612	0.028
612	0.029
613	0.03
613	0.031
614	0.031
614	0.031
614	0.031
615	0.031
615	0.03
616	0.031
616	0.03
617	0.03
617	0.029
618	0.029
618	0.028
618	0.029
619	0.029
619	0.03
620	0.031
620	0.032
621	0.033
621	0.033
622	0.034
622	0.034
622	0.034
623	0.034
623	0.035
624	0.036
624	0.035
625	0.035
625	0.035
626	0.035
626	0.035
626	0.035
627	0.035
627	0.035
628	0.036
628	0.036
629	0.036
629	0.036
630	0.035
630	0.035
630	0.035
631	0.035
631	0.036
632	0.036
632	0.036
633	0.037
633	0.038
634	0.039
634	0.04
634	0.042
635	0.043
635	0.044
636	0.045
636	0.046
637	0.047
637	0.048
638	0.049
638	0.05
638	0.051
639	0.051
639	0.052
640	0.053
640	0.054
641	0.055
641	0.056
642	0.057
642	0.059
642	0.06
643	0.061
643	0.062
644	0.063
644	0.063
645	0.064
645	0.064
646	0.065
646	0.066
646	0.067
647	0.069
647	0.07
648	0.071
648	0.073
649	0.074
649	0.076
650	0.078
650	0.079
650	0.081
651	0.082
651	0.083
652	0.084
652	0.085
653	0.087
653	0.094
653	0.1
654	0.082
654	0.069
655	0.069
655	0.07
656	0.071
656	0.073
657	0.074
657	0.075
657	0.075
658	0.073
658	0.067
659	0.083
659	0.105
660	0.111
660	0.112
661	0.113
661	0.114
661	0.116
662	0.118
662	0.12
663	0.122
663	0.124
664	0.125
664	0.126
665	0.128
665	0.13
665	0.131
666	0.132
666	0.134
667	0.135
667	0.136
668	0.137
668	0.138
669	0.14
669	0.142
669	0.145
670	0.147
670	0.148
671	0.15
671	0.151
672	0.152
672	0.153
672	0.154
673	0.155
673	0.156
674	0.157
674	0.157
675	0.157
675	0.157
676	0.158
676	0.159
676	0.16
677	0.161
677	0.162
678	0.162
678	0.162
679	0.163
679	0.164
680	0.165
680	0.165
680	0.166
681	0.166
681	0.167
682	0.167
682	0.167
683	0.168
683	0.17
684	0.171
684	0.171
684	0.171
685	0.171
685	0.172
686	0.172
686	0.172
687	0.173
687	0.173
687	0.173
688	0.172
688	0.171
689	0.172
689	0.172
690	0.171
690	0.17
691	0.17
691	0.169
691	0.169
692	0.168
692	0.168
693	0.168
693	0.168
694	0.168
694	0.167
695	0.168
695	0.169
695	0.168
696	0.168
696	0.167
697	0.166
697	0.166
698	0.165
698	0.164
698	0.163
699	0.162
699	0.161
700	0.159
700	0.159
701	0.159
701	0.158
702	0.158
702	0.157
702	0.156
703	0.155
703	0.154
704	0.153
704	0.152
705	0.151
705	0.15
705	0.148
706	0.147
706	0.146
707	0.144
707	0.143
708	0.142
708	0.14
709	0.139
709	0.138
709	0.135
710	0.133
710	0.132
711	0.131
711	0.13
712	0.129
712	0.128
713	0.127
713	0.126
713	0.125
714	0.124
714	0.123
715	0.122
715	0.121
716	0.12
716	0.12
716	0.119
717	0.118
717	0.118
718	0.117
718	0.116
719	0.115
719	0.115
720	0.113
720	0.112
720	0.11
721	0.108
721	0.106
722	0.104
722	0.102
723	0.1
723	0.099
723	0.097
724	0.096
724	0.094
725	0.093
725	0.092
726	0.091
726	0.09
727	0.089
727	0.088
727	0.087
728	0.086
728	0.084
729	0.084
729	0.083
730	0.082
730	0.08
730	0.079
731	0.078
731	0.077
732	0.076
732	0.076
733	0.075
733	0.074
734	0.073
734	0.072
734	0.072
735	0.071
735	0.07
736	0.069
736	0.068
737	0.067
737	0.066
737	0.065
738	0.063
738	0.06
739	0.059
739	0.058
740	0.056
740	0.055
741	0.053
741	0.051
741	0.049
742	0.046
742	0.044
743	0.042
743	0.041
744	0.039
744	0.037
744	0.035
745	0.033
745	0.032
746	0.031
746	0.031
747	0.03
747	0.031
748	0.031
748	0.031
748	0.032
749	0.032
749	0.032
750	0.033
750	0.033
751	0.033
751	0.033
751	0.033
752	0.032
752	0.031
753	0.03
753	0.029
754	0.028
754	0.028
754	0.028
755	0.028
755	0.028
756	0.028
756	0.026
757	0.026
757	0.027
758	0.027
758	0.027
758	0.027
759	0.027
759	0.026
760	0.025
760	0.024
761	0.024
761	0.024
761	0.024
762	0.023
762	0.022
763	0.022
763	0.02
764	0.018
764	0.017
764	0.016
765	0.014
765	0.012
766	0.011
766	0.011
767	0.01
767	0.008
768	0.006
768	0.005
768	0.005
769	0.004
769	0.004
770	0.002
770	0.001
771	-0.001
771	-0.003
771	-0.005
772	-0.006
772	-0.008
773	-0.01
773	-0.012
774	-0.014
774	-0.016
775	-0.017
775	-0.019
775	-0.021
776	-0.022
776	-0.024
777	-0.025
777	-0.027
778	-0.029
778	-0.031
778	-0.033
779	-0.035
779	-0.036
780	-0.039
780	-0.043
781	-0.046
781	-0.05
781	-0.054
782	-0.059
782	-0.064
783	-0.068
783	-0.073
784	-0.08
784	-0.086
784	-0.093
785	-0.099
785	-0.106
786	-0.111
786	-0.113
787	-0.112
787	-0.112
788	-0.115
788	-0.118
788	-0.121
789	-0.123
789	-0.124
790	-0.122
790	-0.121
791	-0.123
791	-0.125
791	-0.128
792	-0.124
792	-0.113
793	-0.108
793	-0.104
794	-0.102
794	-0.103
794	-0.107
795	-0.109
795	-0.108
796	-0.108
796	-0.11
797	-0.118
797	-0.129
797	-0.135
798	-0.14
798	-0.142
799	-0.143
799	-0.143
800	-0.143
800	-0.145
801	-0.148
801	-0.15
801	-0.15
802	-0.151
802	-0.152
803	-0.153
803	-0.152
804	-0.151
804	-0.145
804	-0.138
805	-0.133
805	-0.131
806	-0.128
806	-0.126
807	-0.125
807	-0.124
807	-0.124
808	-0.124
808	-0.125
809	-0.13
809	-0.136
810	-0.14
810	-0.143
810	-0.147
811	-0.151
811	-0.152
812	-0.149
812	-0.147
813	-0.147
813	-0.148
813	-0.15
814	-0.151
814	-0.151
815	-0.148
815	-0.145
816	-0.143
816	-0.143
817	-0.147
817	-0.149
817	-0.147
818	-0.143
818	-0.137
819	-0.131
819	-0.125
820	-0.122
820	-0.118
820	-0.112
821	-0.105
821	-0.097
822	-0.089
822	-0.082
823	-0.075
823	-0.07
823	-0.065
824	-0.06
824	-0.054
825	-0.049
825	-0.043
826	-0.038
826	-0.035
826	-0.032
827	-0.029
827	-0.026
828	-0.024
828	-0.023
829	-0.021
829	-0.02
829	-0.02
830	-0.02
830	-0.019
831	-0.018
831	-0.017
832	-0.017
832	-0.016
832	-0.015
833	-0.014
833	-0.013
834	-0.012
834	-0.011
835	-0.01
835	-0.009
835	-0.009
836	-0.008
836	-0.008
837	-0.008
837	-0.008
838	-0.008
838	-0.008
839	-0.008
839	-0.008
839	-0.009
840	-0.009
840	-0.009
841	-0.008
841	-0.008
842	-0.007
842	-0.006
842	-0.006
843	-0.005
843	-0.004
844	-0.003
844	-0.002
845	-0.001
845	-0
845	0
846	0.001
846	0.001
847	0.001
847	0.002
848	0.003
848	0.004
848	0.005
849	0.006
849	0.007
850	0.008
850	0.008
851	0.009
851	0.009
851	0.009
852	0.008
852	0.008
853	0.007
853	0.006
854	0.005
854	0.004
854	0.003
855	0.002
855	0.001
856	-0
856	-0
857	-0
857	0
857	0.001
858	0.002
858	0.003
859	0.005
859	0.007
860	0.009
860	0.011
860	0.013
861	0.014
861	0.016
862	0.016
862	0.017
863	0.017
863	0.017
863	0.016
864	0.015
864	0.014
865	0.014
865	0.013
866	0.012
866	0.011
866	0.011
867	0.01
867	0.009
868	0.009
868	0.008
869	0.008
869	0.006
869	0.005
870	0.004
870	0.003
871	0.002
871	0.001
872	0
872	-0
872	-0.001
873	-0.001
873	-0.001
874	-0.001
874	-0.001
875	-0
875	-0
875	0
876	0.001
876	0.001
877	0.002
877	0.002
878	0.003
878	0.003
878	0.003
879	0.004
879	0.004
880	0.004
880	0.004
881	0.005
881	0.005
881	0.005
882	0.005
882	0.006
883	0.006
883	0.006
884	0.007
884	0.007
884	0.007
885	0.007
885	0.007
886	0.008
886	0.008
887	0.008
887	0.008
887	0.009
888	0.009
888	0.01
889	0.01
889	0.011
890	0.012
890	0.013
890	0.013
891	0.014
891	0.014
892	0.014
892	0.015
893	0.014
893	0.014
893	0.014
894	0.014
894	0.013
895	0.012
895	0.011
895	0.01
896	0.009
896	0.008
897	0.007
897	0.006
898	0.004
898	0.003
898	0.002
899	0.002
899	0.001
900	0.001
900	0.001
901	0.001
901	0.001
901	0.001
902	0.001
902	0.001
903	0.001
903	0
904	-0
904	-0.001
904	-0.002
905	-0.002
905	-0.002
906	-0.002
906	-0.002
907	-0.002
907	-0.001
907	-0.001
908	0
908	0.001
909	0.003
909	0.004
910	0.005
910	0.006
910	0.007
911	0.008
911	0.008
912	0.008
912	0.009
913	0.008
913	0.008
913	0.007
914	0.006
914	0.005
915	0.004
915	0.003
916	0.002
916	0.002
916	0.002
917	0.001
917	0.001
918	0.001
918	0.001
918	0.001
919	0.001
919	0.001
920	0.001
920	0.001
921	0.001
921	0
921	0
922	0
922	0.001
923	0.001
923	0.001
924	0.002
924	0.002
924	0.003
925	0.003
925	0.003
926	0.003
926	0.003
927	0.003
927	0.003
927	0.002
928	0.002
928	0.002
929	0.001
929	0.001
930	0.001
930	0
930	-0
931	-0.001
931	-0.001
932	-0.001
932	-0.001
933	-0.002
933	-0.002
933	-0.002
934	-0.003
934	-0.003
935	-0.004
935	-0.004
935	-0.005
936	-0.005
936	-0.005
937	-0.005
937	-0.005
938	-0.005
938	-0.005
938	-0.004
939	-0.004
939	-0.003
940	-0.002
940	-0.001
941	-0.001
941	0
941	0.001
942	0.002
942	0.002
943	0.003
943	0.004
944	0.004
944	0.005
944	0.006
945	0.006
945	0.007
946	0.008
946	0.008
946	0.008
947	0.008
947	0.009
948	0.009
948	0.009
949	0.008
949	0.009
949	0.009
950	0.01
950	0.01
951	0.011
951	0.011
952	0.011
952	0.012
952	0.013
953	0.013
953	0.014
954	0.014
954	0.013
955	0.013
955	0.013
955	0.013
956	0.012
956	0.011
957	0.011
957	0.01
957	0.009
958	0.008
958	0.007
959	0.006
959	0.005
960	0.004
960	0.002
960	0.001
961	-0
961	-0.002
962	-0.003
962	-0.005
963	-0.006
963	-0.007
963	-0.008
964	-0.009
964	-0.009
965	-0.009
965	-0.009
966	-0.009
966	-0.009
966	-0.009
967	-0.008
967	-0.008
968	-0.008
968	-0.008
968	-0.008
969	-0.008
969	-0.007
970	-0.007
970	-0.007
971	-0.007
971	-0.007
971	-0.006
972	-0.006
972	-0.005
973	-0.004
973	-0.003
974	-0.002
974	-0.001
974	-0
975	0.001
975	0.002
976	0.002
976	0.003
976	0.003
977	0.003
977	0.002
978	0.002
978	0.001
979	0.001
979	-0
979	-0.001
980	-0.002
980	-0.003
981	-0.004
981	-0.005
982	-0.006
982	-0.006
982	-0.006
983	-0.006
983	-0.006
984	-0.006
984	-0.006
984	-0.006
985	-0.005
985	-0.004
986	-0.004
986	-0.003
987	-0.003
987	-0.002
987	-0.002
988	-0.001
988	-0.001
989	-0.001
989	-0.001
990	-0.001
990	-0.001
990	-0.001
991	-0.001
991	-0
992	0.001
992	0.001
992	0.002
993	0.002
993	0.003
994	0.003
994	0.004
995	0.004
995	0.004
995	0.004
996	0.004
996	0.003
997	0.002
997	0.001
997	0.001
998	0
998	-0.001
999	-0.001
999	-0.002
1000	-0.002
1000	-0.003
1000	-0.003
1001	-0.003
1001	-0.003
1002	-0.003
1002	-0.003
1003	-0.003
1003	-0.004
1003	-0.004
1004	-0.004
1004	-0.004
1005	-0.005
1005	-0.005
1005	-0.006
1006	-0.006
1006	-0.006
1007	-0.007
1007	-0.007
1008	-0.007
1008	-0.008
1008	-0.008
1009	-0.008
1009	-0.007
1010	-0.007
1010	-0.007
1010	-0.007
1011	-0.007
1011	-0.006
1012	-0.006
1012	-0.006
1013	-0.005
1013	-0.005
1013	-0.005
1014	-0.005
1014	-0.005
1015	-0.005
1015	-0.005
1016	-0.004
1016	-0.004
1016	-0.004
1017	-0.004
1017	-0.003
1018	-0.003
1018	-0.003
1018	-0.002
1019	-0.002
1019	-0.002
1020	-0.002
1020	-0.002
1021	-0.002
1021	-0.002
1021	-0.003
1022	-0.003
1022	-0.004
1023	-0.004
1023	-0.004
1023	-0.005
1024	-0.006
1024	-0.006
1025	-0.007
1025	-0.007
1026	-0.007
1026	-0.007
1026	-0.007
1027	-0.007
1027	-0.007
1028	-0.007
1028	-0.007
1028	-0.007
1029	-0.007
1029	-0.006
1030	-0.006
1030	-0.006
1031	-0.006
1031	-0.006
1031	-0.006
1032	-0.007
1032	-0.007
1033	-0.007
1033	-0.008
1033	-0.009
1034	-0.01
1034	-0.011
1035	-0.012
1035	-0.013
1036	-0.013
1036	-0.014
1036	-0.015
1037	-0.015
1037	-0.015
1038	-0.015
1038	-0.015
1039	-0.015
1039	-0.015
1039	-0.015
1040	-0.015
1040	-0.015
1041	-0.015
1041	-0.016
1041	-0.016
1042	-0.017
1042	-0.017
1043	-0.018
1043	-0.018
1044	-0.019
1044	-0.019
1044	-0.019
1045	-0.02
1045	-0.02
1046	-0.02
1046	-0.02
1046	-0.02
1047	-0.02
1047	-0.019
1048	-0.018
1048	-0.018
1049	-0.017
1049	-0.017
1049	-0.017
1050	-0.016
1050	-0.015
1051	-0.015
1051	-0.014
1051	-0.013
1052	-0.012
1052	-0.012
1053	-0.011
1053	-0.01
1053	-0.009
1054	-0.008
1054	-0.007
1055	-0.007
1055	-0.007
1056	-0.007
1056	-0.007
1056	-0.008
1057	-0.009
1057	-0.009
1058	-0.01
1058	-0.011
1058	-0.012
1059	-0.013
1059	-0.014
1060	-0.015
1060	-0.015
1061	-0.015
1061	-0.015
1061	-0.015
1062	-0.016
1062	-0.016
1063	-0.016
1063	-0.016
1063	-0.017
1064	-0.016
1064	-0.016
1065	-0.016
1065	-0.017
1066	-0.016
1066	-0.016
1066	-0.015
1067	-0.015
1067	-0.014
1068	-0.014
1068	-0.013
1068	-0.012
1069	-0.012
1069	-0.011
1070	-0.011
1070	-0.01
1071	-0.01
1071	-0.009
1071	-0.008
1072	-0.007
1072	-0.006
1073	-0.005
1073	-0.004
1073	-0.003
1074	-0.002
1074	-0.001
1075	-0.001
1075	-0
1076	-0
1076	0.001
1076	0
1077	0
1077	0.001
1078	0.001
1078	0.001
1078	0.002
1079	0.003
1079	0.004
1080	0.005
1080	0.006
1080	0.007
1081	0.008
1081	0.01
1082	0.01
1082	0.01
1083	0.011
1083	0.011
1083	0.012
1084	0.013
1084	0.013
1085	0.014
1085	0.015
1085	0.015
1086	0.016
1086	0.016
1087	0.017
1087	0.018
1088	0.018
1088	0.018
1088	0.02
1089	0.02
1089	0.021
1090	0.021
1090	0.022
1090	0.022
1091	0.023
1091	0.025
1092	0.027
1092	0.029
1092	0.03
1093	0.031
1093	0.033
1094	0.035
1094	0.037
1095	0.039
1095	0.041
1095	0.045
1096	0.046
1096	0.049
1097	0.053
1097	0.055
1097	0.058
1098	0.061
1098	0.064
1099	0.067
1099	0.071
1100	0.076
1100	0.079
1100	0.084
1101	0.089
1101	0.095
1102	0.102
1102	0.11
1102	0.119
1103	0.129
1103	0.138
1104	0.15
1104	0.163
1104	0.179
1105	0.192
1105	0.207
1106	0.221
1106	0.24
1107	0.262
1107	0.291
1107	0.326
1108	0.448
1108	0.669
1109	1.411
1109	-0
1109	-0
1110	-0
1110	-0
1111	-0
1111	-0
