Data from 15c-2-2a_Absorbance__922__02723.txt Node

Date: Wed Jan 24 13:34:37 CET 2024
User: Marek
Spectrometer: MAYP115816
Trigger mode: 0
Integration Time (sec): 2.000000E-1
Scans to average: 10
Electric dark correction enabled: true
Nonlinearity correction enabled: true
Boxcar width: 5
XAxis mode: Wavelengths
Number of Pixels in Spectrum: 2068
>>>>>Begin Spectral Data<<<<<
199	-1.766
199	-1.607
200	-1.449
200	-1.327
201	-1.255
201	-1.202
202	-1.133
202	-1.077
203	-1.028
203	-0.988
204	-0.959
204	-0.934
205	-0.912
205	-0.903
205	-0.9
206	-0.897
206	-0.895
207	-0.891
207	-0.888
208	-0.887
208	-0.885
209	-0.883
209	-0.884
210	-0.884
210	-0.883
211	-0.881
211	-0.882
212	-0.88
212	-0.878
213	-0.875
213	-0.873
213	-0.871
214	-0.869
214	-0.865
215	-0.865
215	-0.86
216	-0.86
216	-0.857
217	-0.855
217	-0.856
218	-0.857
218	-0.855
219	-0.853
219	-0.851
220	-0.849
220	-0.846
221	-0.846
221	-0.843
221	-0.838
222	-0.832
222	-0.825
223	-0.819
223	-0.814
224	-0.806
224	-0.797
225	-0.79
225	-0.78
226	-0.77
226	-0.759
227	-0.747
227	-0.736
228	-0.718
228	-0.701
229	-0.68
229	-0.658
229	-0.633
230	-0.604
230	-0.572
231	-0.539
231	-0.503
232	-0.465
232	-0.427
233	-0.388
233	-0.347
234	-0.306
234	-0.267
235	-0.228
235	-0.191
236	-0.157
236	-0.124
236	-0.093
237	-0.063
237	-0.037
238	-0.012
238	0.01
239	0.03
239	0.049
240	0.066
240	0.081
241	0.094
241	0.107
242	0.117
242	0.127
243	0.136
243	0.144
243	0.151
244	0.158
244	0.164
245	0.169
245	0.174
246	0.179
246	0.183
247	0.187
247	0.191
248	0.194
248	0.198
249	0.201
249	0.204
250	0.207
250	0.21
250	0.212
251	0.215
251	0.217
252	0.219
252	0.221
253	0.223
253	0.225
254	0.227
254	0.229
255	0.23
255	0.232
256	0.233
256	0.234
257	0.235
257	0.236
258	0.236
258	0.237
258	0.237
259	0.238
259	0.238
260	0.239
260	0.239
261	0.239
261	0.239
262	0.239
262	0.239
263	0.239
263	0.239
264	0.238
264	0.238
265	0.237
265	0.237
265	0.236
266	0.235
266	0.234
267	0.233
267	0.232
268	0.231
268	0.23
269	0.228
269	0.227
270	0.225
270	0.224
271	0.222
271	0.221
272	0.219
272	0.218
272	0.216
273	0.214
273	0.213
274	0.211
274	0.209
275	0.208
275	0.206
276	0.205
276	0.203
277	0.201
277	0.199
278	0.197
278	0.195
278	0.193
279	0.19
279	0.188
280	0.186
280	0.184
281	0.182
281	0.181
282	0.179
282	0.178
283	0.176
283	0.175
284	0.174
284	0.173
285	0.171
285	0.17
285	0.168
286	0.167
286	0.165
287	0.164
287	0.163
288	0.161
288	0.16
289	0.159
289	0.157
290	0.156
290	0.155
291	0.154
291	0.153
292	0.152
292	0.151
292	0.15
293	0.149
293	0.148
294	0.147
294	0.147
295	0.146
295	0.145
296	0.144
296	0.144
297	0.143
297	0.142
298	0.142
298	0.141
298	0.141
299	0.14
299	0.14
300	0.139
300	0.139
301	0.138
301	0.138
302	0.137
302	0.137
303	0.136
303	0.136
304	0.135
304	0.135
305	0.134
305	0.134
305	0.134
306	0.133
306	0.133
307	0.132
307	0.132
308	0.131
308	0.131
309	0.13
309	0.13
310	0.129
310	0.129
311	0.129
311	0.128
311	0.128
312	0.127
312	0.127
313	0.127
313	0.126
314	0.126
314	0.125
315	0.125
315	0.125
316	0.124
316	0.124
317	0.123
317	0.123
318	0.122
318	0.122
318	0.122
319	0.121
319	0.121
320	0.12
320	0.12
321	0.119
321	0.119
322	0.118
322	0.118
323	0.118
323	0.117
324	0.117
324	0.116
324	0.116
325	0.116
325	0.115
326	0.115
326	0.115
327	0.114
327	0.114
328	0.113
328	0.113
329	0.113
329	0.112
330	0.112
330	0.112
330	0.111
331	0.111
331	0.11
332	0.11
332	0.109
333	0.109
333	0.109
334	0.108
334	0.108
335	0.107
335	0.107
336	0.106
336	0.106
336	0.105
337	0.105
337	0.105
338	0.105
338	0.104
339	0.104
339	0.104
340	0.103
340	0.103
341	0.103
341	0.102
342	0.102
342	0.102
342	0.102
343	0.101
343	0.101
344	0.1
344	0.1
345	0.1
345	0.1
346	0.1
346	0.099
347	0.099
347	0.098
348	0.098
348	0.098
348	0.098
349	0.098
349	0.098
350	0.097
350	0.097
351	0.097
351	0.096
352	0.096
352	0.096
353	0.095
353	0.095
354	0.094
354	0.094
354	0.094
355	0.093
355	0.093
356	0.093
356	0.092
357	0.092
357	0.091
358	0.091
358	0.091
359	0.091
359	0.091
360	0.091
360	0.091
360	0.092
361	0.092
361	0.092
362	0.093
362	0.093
363	0.093
363	0.093
364	0.093
364	0.093
365	0.092
365	0.092
366	0.092
366	0.092
366	0.092
367	0.092
367	0.091
368	0.091
368	0.091
369	0.091
369	0.091
370	0.09
370	0.09
371	0.09
371	0.09
372	0.09
372	0.09
372	0.09
373	0.09
373	0.09
374	0.09
374	0.09
375	0.09
375	0.09
376	0.09
376	0.09
377	0.09
377	0.09
378	0.09
378	0.09
378	0.09
379	0.09
379	0.09
380	0.09
380	0.09
381	0.09
381	0.09
382	0.09
382	0.089
383	0.089
383	0.089
383	0.089
384	0.089
384	0.089
385	0.089
385	0.089
386	0.089
386	0.089
387	0.089
387	0.089
388	0.089
388	0.089
389	0.088
389	0.088
389	0.088
390	0.088
390	0.088
391	0.089
391	0.089
392	0.089
392	0.089
393	0.089
393	0.089
394	0.089
394	0.089
394	0.089
395	0.088
395	0.088
396	0.088
396	0.088
397	0.088
397	0.088
398	0.088
398	0.088
399	0.087
399	0.087
400	0.087
400	0.087
400	0.087
401	0.086
401	0.086
402	0.086
402	0.086
403	0.086
403	0.086
404	0.086
404	0.086
405	0.086
405	0.085
405	0.085
406	0.085
406	0.085
407	0.085
407	0.085
408	0.085
408	0.085
409	0.084
409	0.084
410	0.085
410	0.085
411	0.085
411	0.085
411	0.084
412	0.084
412	0.084
413	0.084
413	0.084
414	0.084
414	0.084
415	0.083
415	0.083
416	0.083
416	0.083
416	0.082
417	0.082
417	0.082
418	0.082
418	0.082
419	0.082
419	0.082
420	0.082
420	0.083
421	0.083
421	0.083
421	0.083
422	0.083
422	0.083
423	0.083
423	0.083
424	0.083
424	0.083
425	0.082
425	0.081
426	0.081
426	0.081
427	0.081
427	0.081
427	0.081
428	0.081
428	0.082
429	0.082
429	0.082
430	0.082
430	0.082
431	0.082
431	0.082
432	0.082
432	0.082
432	0.082
433	0.081
433	0.081
434	0.081
434	0.081
435	0.081
435	0.081
436	0.081
436	0.081
437	0.081
437	0.08
437	0.08
438	0.08
438	0.08
439	0.079
439	0.079
440	0.079
440	0.079
441	0.079
441	0.079
442	0.08
442	0.08
442	0.08
443	0.08
443	0.08
444	0.08
444	0.081
445	0.081
445	0.081
446	0.081
446	0.081
447	0.081
447	0.081
447	0.08
448	0.08
448	0.08
449	0.08
449	0.08
450	0.08
450	0.08
451	0.08
451	0.08
452	0.079
452	0.079
452	0.079
453	0.079
453	0.078
454	0.078
454	0.077
455	0.077
455	0.077
456	0.076
456	0.076
457	0.076
457	0.076
458	0.076
458	0.076
458	0.076
459	0.076
459	0.076
460	0.076
460	0.076
461	0.076
461	0.076
462	0.076
462	0.077
463	0.077
463	0.077
463	0.078
464	0.078
464	0.077
465	0.077
465	0.077
466	0.077
466	0.077
467	0.077
467	0.077
467	0.076
468	0.076
468	0.075
469	0.075
469	0.075
470	0.075
470	0.075
471	0.075
471	0.075
472	0.075
472	0.075
472	0.075
473	0.076
473	0.077
474	0.077
474	0.077
475	0.077
475	0.078
476	0.078
476	0.078
477	0.078
477	0.078
477	0.078
478	0.078
478	0.078
479	0.079
479	0.079
480	0.08
480	0.081
481	0.082
481	0.082
482	0.083
482	0.083
482	0.084
483	0.085
483	0.086
484	0.087
484	0.088
485	0.088
485	0.088
486	0.089
486	0.089
487	0.089
487	0.089
487	0.089
488	0.089
488	0.089
489	0.088
489	0.088
490	0.089
490	0.089
491	0.09
491	0.09
492	0.091
492	0.091
492	0.092
493	0.093
493	0.094
494	0.095
494	0.096
495	0.097
495	0.097
496	0.098
496	0.098
496	0.099
497	0.1
497	0.1
498	0.101
498	0.101
499	0.102
499	0.102
500	0.103
500	0.104
501	0.105
501	0.106
501	0.107
502	0.107
502	0.108
503	0.109
503	0.11
504	0.11
504	0.111
505	0.111
505	0.111
506	0.111
506	0.111
506	0.112
507	0.112
507	0.112
508	0.112
508	0.113
509	0.114
509	0.114
510	0.115
510	0.116
511	0.116
511	0.116
511	0.116
512	0.117
512	0.117
513	0.117
513	0.117
514	0.116
514	0.116
515	0.116
515	0.116
515	0.116
516	0.117
516	0.118
517	0.118
517	0.119
518	0.119
518	0.119
519	0.119
519	0.119
520	0.118
520	0.118
520	0.117
521	0.115
521	0.114
522	0.113
522	0.112
523	0.112
523	0.112
524	0.112
524	0.113
524	0.114
525	0.116
525	0.117
526	0.118
526	0.119
527	0.12
527	0.121
528	0.122
528	0.122
529	0.122
529	0.122
529	0.122
530	0.122
530	0.122
531	0.121
531	0.121
532	0.121
532	0.12
533	0.12
533	0.119
533	0.119
534	0.118
534	0.117
535	0.116
535	0.116
536	0.115
536	0.115
537	0.114
537	0.114
538	0.113
538	0.112
538	0.111
539	0.111
539	0.11
540	0.109
540	0.108
541	0.107
541	0.106
542	0.105
542	0.104
542	0.103
543	0.102
543	0.101
544	0.1
544	0.099
545	0.099
545	0.098
546	0.098
546	0.097
547	0.096
547	0.095
547	0.094
548	0.093
548	0.092
549	0.09
549	0.089
550	0.088
550	0.087
551	0.086
551	0.085
551	0.084
552	0.083
552	0.082
553	0.081
553	0.081
554	0.08
554	0.079
555	0.078
555	0.077
556	0.075
556	0.074
556	0.073
557	0.072
557	0.071
558	0.069
558	0.068
559	0.067
559	0.067
560	0.066
560	0.065
560	0.064
561	0.065
561	0.064
562	0.064
562	0.063
563	0.062
563	0.061
564	0.06
564	0.059
564	0.059
565	0.058
565	0.057
566	0.056
566	0.055
567	0.054
567	0.054
568	0.054
568	0.054
568	0.055
569	0.056
569	0.056
570	0.057
570	0.056
571	0.057
571	0.057
572	0.057
572	0.057
573	0.057
573	0.056
573	0.055
574	0.054
574	0.054
575	0.054
575	0.054
576	0.055
576	0.053
577	0.052
577	0.051
577	0.051
578	0.05
578	0.051
579	0.052
579	0.052
580	0.052
580	0.05
581	0.048
581	0.047
581	0.047
582	0.047
582	0.047
583	0.047
583	0.047
584	0.044
584	0.042
585	0.041
585	0.042
585	0.042
586	0.042
586	0.042
587	0.041
587	0.04
588	0.038
588	0.037
589	0.037
589	0.037
590	0.037
590	0.037
590	0.038
591	0.038
591	0.038
592	0.038
592	0.037
593	0.037
593	0.037
594	0.036
594	0.035
594	0.035
595	0.034
595	0.033
596	0.033
596	0.034
597	0.036
597	0.036
598	0.037
598	0.037
598	0.038
599	0.038
599	0.038
600	0.037
600	0.037
601	0.036
601	0.036
602	0.035
602	0.034
602	0.034
603	0.034
603	0.035
604	0.035
604	0.036
605	0.037
605	0.038
606	0.038
606	0.037
606	0.036
607	0.036
607	0.036
608	0.035
608	0.034
609	0.033
609	0.033
610	0.032
610	0.031
610	0.032
611	0.033
611	0.033
612	0.034
612	0.035
613	0.036
613	0.037
614	0.037
614	0.037
614	0.037
615	0.037
615	0.036
616	0.036
616	0.036
617	0.035
617	0.035
618	0.034
618	0.034
618	0.034
619	0.034
619	0.035
620	0.037
620	0.037
621	0.038
621	0.038
622	0.039
622	0.039
622	0.039
623	0.039
623	0.04
624	0.041
624	0.04
625	0.04
625	0.04
626	0.04
626	0.04
626	0.04
627	0.041
627	0.041
628	0.041
628	0.041
629	0.041
629	0.041
630	0.041
630	0.04
630	0.041
631	0.041
631	0.042
632	0.042
632	0.043
633	0.043
633	0.044
634	0.045
634	0.047
634	0.048
635	0.05
635	0.051
636	0.052
636	0.053
637	0.054
637	0.054
638	0.055
638	0.056
638	0.057
639	0.058
639	0.058
640	0.059
640	0.06
641	0.062
641	0.063
642	0.064
642	0.066
642	0.067
643	0.068
643	0.069
644	0.07
644	0.07
645	0.071
645	0.072
646	0.073
646	0.074
646	0.076
647	0.077
647	0.079
648	0.08
648	0.082
649	0.083
649	0.085
650	0.087
650	0.088
650	0.09
651	0.091
651	0.092
652	0.093
652	0.095
653	0.097
653	0.103
653	0.109
654	0.09
654	0.075
655	0.075
655	0.077
656	0.078
656	0.079
657	0.081
657	0.081
657	0.082
658	0.08
658	0.074
659	0.092
659	0.116
660	0.122
660	0.124
661	0.125
661	0.126
661	0.128
662	0.13
662	0.132
663	0.134
663	0.136
664	0.138
664	0.14
665	0.141
665	0.143
665	0.145
666	0.146
666	0.147
667	0.149
667	0.15
668	0.152
668	0.153
669	0.155
669	0.157
669	0.16
670	0.162
670	0.164
671	0.165
671	0.166
672	0.168
672	0.169
672	0.17
673	0.171
673	0.172
674	0.173
674	0.173
675	0.173
675	0.173
676	0.174
676	0.175
676	0.175
677	0.177
677	0.178
678	0.178
678	0.179
679	0.179
679	0.18
680	0.182
680	0.182
680	0.183
681	0.183
681	0.184
682	0.184
682	0.185
683	0.186
683	0.187
684	0.188
684	0.188
684	0.188
685	0.189
685	0.189
686	0.19
686	0.19
687	0.19
687	0.19
687	0.19
688	0.189
688	0.189
689	0.189
689	0.189
690	0.188
690	0.187
691	0.187
691	0.186
691	0.186
692	0.185
692	0.185
693	0.185
693	0.185
694	0.184
694	0.183
695	0.184
695	0.185
695	0.185
696	0.184
696	0.183
697	0.182
697	0.181
698	0.181
698	0.18
698	0.179
699	0.179
699	0.177
700	0.175
700	0.175
701	0.175
701	0.174
702	0.173
702	0.173
702	0.172
703	0.17
703	0.169
704	0.167
704	0.166
705	0.166
705	0.164
705	0.163
706	0.161
706	0.16
707	0.158
707	0.156
708	0.155
708	0.153
709	0.152
709	0.15
709	0.148
710	0.146
710	0.145
711	0.143
711	0.142
712	0.141
712	0.14
713	0.139
713	0.138
713	0.137
714	0.136
714	0.134
715	0.134
715	0.133
716	0.132
716	0.131
716	0.131
717	0.13
717	0.129
718	0.128
718	0.127
719	0.127
719	0.126
720	0.125
720	0.123
720	0.121
721	0.119
721	0.117
722	0.115
722	0.112
723	0.111
723	0.109
723	0.107
724	0.105
724	0.104
725	0.102
725	0.101
726	0.1
726	0.099
727	0.098
727	0.097
727	0.096
728	0.094
728	0.093
729	0.093
729	0.092
730	0.09
730	0.089
730	0.088
731	0.086
731	0.085
732	0.085
732	0.084
733	0.083
733	0.082
734	0.081
734	0.08
734	0.079
735	0.079
735	0.077
736	0.076
736	0.075
737	0.074
737	0.073
737	0.072
738	0.07
738	0.068
739	0.066
739	0.065
740	0.063
740	0.062
741	0.06
741	0.058
741	0.056
742	0.053
742	0.05
743	0.049
743	0.047
744	0.045
744	0.043
744	0.041
745	0.039
745	0.038
746	0.037
746	0.036
747	0.036
747	0.036
748	0.036
748	0.037
748	0.037
749	0.037
749	0.037
750	0.037
750	0.037
751	0.038
751	0.038
751	0.038
752	0.036
752	0.035
753	0.034
753	0.033
754	0.032
754	0.032
754	0.031
755	0.031
755	0.032
756	0.031
756	0.03
757	0.03
757	0.031
758	0.031
758	0.031
758	0.031
759	0.031
759	0.03
760	0.029
760	0.028
761	0.028
761	0.028
761	0.028
762	0.027
762	0.026
763	0.026
763	0.024
764	0.022
764	0.021
764	0.02
765	0.018
765	0.017
766	0.015
766	0.014
767	0.013
767	0.011
768	0.009
768	0.008
768	0.007
769	0.007
769	0.006
770	0.004
770	0.003
771	0.001
771	-0.001
771	-0.003
772	-0.004
772	-0.006
773	-0.008
773	-0.01
774	-0.012
774	-0.014
775	-0.015
775	-0.017
775	-0.019
776	-0.02
776	-0.022
777	-0.023
777	-0.025
778	-0.026
778	-0.029
778	-0.031
779	-0.032
779	-0.034
780	-0.037
780	-0.04
781	-0.043
781	-0.047
781	-0.051
782	-0.056
782	-0.061
783	-0.066
783	-0.071
784	-0.077
784	-0.084
784	-0.091
785	-0.098
785	-0.105
786	-0.11
786	-0.111
787	-0.111
787	-0.111
788	-0.114
788	-0.117
788	-0.12
789	-0.123
789	-0.123
790	-0.122
790	-0.121
791	-0.123
791	-0.125
791	-0.128
792	-0.124
792	-0.113
793	-0.108
793	-0.104
794	-0.102
794	-0.103
794	-0.107
795	-0.109
795	-0.108
796	-0.108
796	-0.11
797	-0.118
797	-0.129
797	-0.135
798	-0.139
798	-0.142
799	-0.143
799	-0.143
800	-0.143
800	-0.145
801	-0.148
801	-0.149
801	-0.15
802	-0.151
802	-0.152
803	-0.153
803	-0.152
804	-0.151
804	-0.145
804	-0.138
805	-0.133
805	-0.13
806	-0.128
806	-0.126
807	-0.125
807	-0.124
807	-0.124
808	-0.124
808	-0.125
809	-0.13
809	-0.136
810	-0.14
810	-0.143
810	-0.147
811	-0.151
811	-0.152
812	-0.149
812	-0.146
813	-0.147
813	-0.148
813	-0.15
814	-0.151
814	-0.151
815	-0.148
815	-0.145
816	-0.143
816	-0.143
817	-0.147
817	-0.149
817	-0.147
818	-0.143
818	-0.137
819	-0.131
819	-0.126
820	-0.122
820	-0.118
820	-0.113
821	-0.105
821	-0.097
822	-0.089
822	-0.082
823	-0.075
823	-0.07
823	-0.065
824	-0.06
824	-0.054
825	-0.048
825	-0.042
826	-0.038
826	-0.034
826	-0.031
827	-0.028
827	-0.025
828	-0.023
828	-0.022
829	-0.02
829	-0.019
829	-0.019
830	-0.019
830	-0.019
831	-0.017
831	-0.017
832	-0.016
832	-0.015
832	-0.014
833	-0.013
833	-0.012
834	-0.011
834	-0.01
835	-0.009
835	-0.008
835	-0.007
836	-0.007
836	-0.007
837	-0.007
837	-0.006
838	-0.007
838	-0.007
839	-0.007
839	-0.007
839	-0.007
840	-0.008
840	-0.007
841	-0.007
841	-0.007
842	-0.006
842	-0.005
842	-0.004
843	-0.004
843	-0.003
844	-0.002
844	-0.001
845	-0
845	0.001
845	0.001
846	0.001
846	0.001
847	0.002
847	0.002
848	0.003
848	0.004
848	0.005
849	0.006
849	0.008
850	0.008
850	0.009
851	0.01
851	0.01
851	0.01
852	0.01
852	0.009
853	0.009
853	0.007
854	0.006
854	0.005
854	0.004
855	0.003
855	0.002
856	0.001
856	0.001
857	0.001
857	0.002
857	0.002
858	0.004
858	0.005
859	0.006
859	0.008
860	0.01
860	0.012
860	0.014
861	0.015
861	0.016
862	0.017
862	0.017
863	0.017
863	0.017
863	0.016
864	0.015
864	0.015
865	0.014
865	0.013
866	0.012
866	0.012
866	0.011
867	0.01
867	0.01
868	0.009
868	0.008
869	0.008
869	0.006
869	0.005
870	0.004
870	0.002
871	0.001
871	0
872	-0
872	-0.001
872	-0.002
873	-0.002
873	-0.002
874	-0.002
874	-0.002
875	-0.001
875	-0.001
875	-0
876	0
876	0.001
877	0.001
877	0.002
878	0.002
878	0.003
878	0.004
879	0.004
879	0.004
880	0.005
880	0.005
881	0.005
881	0.005
881	0.006
882	0.006
882	0.006
883	0.006
883	0.007
884	0.007
884	0.007
884	0.007
885	0.008
885	0.008
886	0.008
886	0.009
887	0.009
887	0.009
887	0.009
888	0.01
888	0.01
889	0.011
889	0.012
890	0.013
890	0.014
890	0.014
891	0.015
891	0.015
892	0.015
892	0.015
893	0.015
893	0.015
893	0.014
894	0.014
894	0.013
895	0.012
895	0.011
895	0.01
896	0.009
896	0.008
897	0.007
897	0.006
898	0.004
898	0.004
898	0.003
899	0.002
899	0.002
900	0.002
900	0.001
901	0.001
901	0.001
901	0.001
902	0.001
902	0.001
903	0.001
903	0.001
904	0
904	-0
904	-0.001
905	-0.001
905	-0.002
906	-0.002
906	-0.001
907	-0.001
907	-0
907	0
908	0.001
908	0.002
909	0.003
909	0.004
910	0.006
910	0.007
910	0.008
911	0.008
911	0.009
912	0.009
912	0.009
913	0.009
913	0.009
913	0.008
914	0.007
914	0.006
915	0.005
915	0.004
916	0.004
916	0.003
916	0.003
917	0.002
917	0.002
918	0.002
918	0.002
918	0.002
919	0.001
919	0.001
920	0.002
920	0.002
921	0.001
921	0.001
921	0.001
922	0.001
922	0.001
923	0.001
923	0.002
924	0.002
924	0.002
924	0.003
925	0.003
925	0.003
926	0.003
926	0.003
927	0.003
927	0.003
927	0.003
928	0.003
928	0.002
929	0.002
929	0.001
930	0.001
930	0.001
930	0
931	-0.001
931	-0.001
932	-0.001
932	-0.002
933	-0.002
933	-0.002
933	-0.003
934	-0.003
934	-0.004
935	-0.004
935	-0.005
935	-0.005
936	-0.005
936	-0.005
937	-0.005
937	-0.005
938	-0.005
938	-0.004
938	-0.004
939	-0.003
939	-0.002
940	-0.002
940	-0.001
941	0
941	0.001
941	0.002
942	0.003
942	0.003
943	0.004
943	0.004
944	0.004
944	0.005
944	0.006
945	0.007
945	0.007
946	0.008
946	0.008
946	0.008
947	0.009
947	0.009
948	0.009
948	0.009
949	0.009
949	0.009
949	0.01
950	0.01
950	0.01
951	0.011
951	0.011
952	0.012
952	0.012
952	0.013
953	0.013
953	0.014
954	0.014
954	0.013
955	0.013
955	0.013
955	0.013
956	0.012
956	0.012
957	0.011
957	0.01
957	0.009
958	0.008
958	0.007
959	0.006
959	0.005
960	0.004
960	0.002
960	0.001
961	-0.001
961	-0.002
962	-0.003
962	-0.005
963	-0.006
963	-0.007
963	-0.008
964	-0.009
964	-0.009
965	-0.009
965	-0.009
966	-0.009
966	-0.009
966	-0.008
967	-0.008
967	-0.008
968	-0.008
968	-0.008
968	-0.007
969	-0.007
969	-0.007
970	-0.007
970	-0.007
971	-0.006
971	-0.006
971	-0.005
972	-0.005
972	-0.004
973	-0.003
973	-0.002
974	-0.001
974	-0
974	0.001
975	0.002
975	0.002
976	0.003
976	0.003
976	0.003
977	0.003
977	0.002
978	0.002
978	0.001
979	0.001
979	-0
979	-0.001
980	-0.002
980	-0.003
981	-0.004
981	-0.005
982	-0.006
982	-0.006
982	-0.006
983	-0.006
983	-0.007
984	-0.007
984	-0.006
984	-0.006
985	-0.005
985	-0.004
986	-0.004
986	-0.003
987	-0.003
987	-0.003
987	-0.002
988	-0.002
988	-0.002
989	-0.001
989	-0.001
990	-0.001
990	-0.001
990	-0.001
991	-0.001
991	-0
992	0
992	0.001
992	0.002
993	0.002
993	0.003
994	0.003
994	0.003
995	0.004
995	0.004
995	0.004
996	0.003
996	0.003
997	0.002
997	0.001
997	0
998	-0
998	-0.001
999	-0.002
999	-0.002
1000	-0.003
1000	-0.003
1000	-0.003
1001	-0.003
1001	-0.003
1002	-0.003
1002	-0.003
1003	-0.003
1003	-0.003
1003	-0.004
1004	-0.004
1004	-0.004
1005	-0.005
1005	-0.005
1005	-0.006
1006	-0.007
1006	-0.007
1007	-0.008
1007	-0.008
1008	-0.009
1008	-0.009
1008	-0.009
1009	-0.009
1009	-0.009
1010	-0.009
1010	-0.008
1010	-0.008
1011	-0.008
1011	-0.008
1012	-0.007
1012	-0.007
1013	-0.007
1013	-0.007
1013	-0.006
1014	-0.006
1014	-0.006
1015	-0.006
1015	-0.005
1016	-0.005
1016	-0.005
1016	-0.004
1017	-0.004
1017	-0.004
1018	-0.003
1018	-0.003
1018	-0.003
1019	-0.002
1019	-0.002
1020	-0.002
1020	-0.002
1021	-0.002
1021	-0.002
1021	-0.003
1022	-0.003
1022	-0.004
1023	-0.004
1023	-0.004
1023	-0.005
1024	-0.006
1024	-0.006
1025	-0.007
1025	-0.007
1026	-0.007
1026	-0.007
1026	-0.007
1027	-0.007
1027	-0.007
1028	-0.007
1028	-0.007
1028	-0.006
1029	-0.006
1029	-0.006
1030	-0.005
1030	-0.005
1031	-0.005
1031	-0.005
1031	-0.005
1032	-0.006
1032	-0.006
1033	-0.006
1033	-0.007
1033	-0.008
1034	-0.009
1034	-0.01
1035	-0.011
1035	-0.012
1036	-0.013
1036	-0.013
1036	-0.014
1037	-0.014
1037	-0.015
1038	-0.015
1038	-0.015
1039	-0.015
1039	-0.015
1039	-0.015
1040	-0.015
1040	-0.015
1041	-0.015
1041	-0.016
1041	-0.016
1042	-0.016
1042	-0.017
1043	-0.017
1043	-0.018
1044	-0.018
1044	-0.019
1044	-0.019
1045	-0.019
1045	-0.02
1046	-0.02
1046	-0.02
1046	-0.02
1047	-0.02
1047	-0.019
1048	-0.018
1048	-0.018
1049	-0.017
1049	-0.017
1049	-0.017
1050	-0.016
1050	-0.015
1051	-0.015
1051	-0.014
1051	-0.013
1052	-0.012
1052	-0.012
1053	-0.011
1053	-0.01
1053	-0.009
1054	-0.008
1054	-0.007
1055	-0.007
1055	-0.006
1056	-0.006
1056	-0.007
1056	-0.008
1057	-0.008
1057	-0.009
1058	-0.009
1058	-0.01
1058	-0.011
1059	-0.012
1059	-0.013
1060	-0.014
1060	-0.015
1061	-0.015
1061	-0.015
1061	-0.015
1062	-0.016
1062	-0.016
1063	-0.017
1063	-0.017
1063	-0.017
1064	-0.017
1064	-0.017
1065	-0.017
1065	-0.017
1066	-0.017
1066	-0.016
1066	-0.015
1067	-0.014
1067	-0.014
1068	-0.013
1068	-0.012
1068	-0.012
1069	-0.011
1069	-0.011
1070	-0.01
1070	-0.009
1071	-0.009
1071	-0.008
1071	-0.008
1072	-0.007
1072	-0.006
1073	-0.005
1073	-0.003
1073	-0.002
1074	-0.001
1074	-0.001
1075	-0
1075	-0
1076	-0
1076	0
1076	0
1077	0
1077	0
1078	0
1078	0.001
1078	0.002
1079	0.003
1079	0.004
1080	0.004
1080	0.005
1080	0.006
1081	0.008
1081	0.009
1082	0.009
1082	0.01
1083	0.01
1083	0.01
1083	0.011
1084	0.012
1084	0.013
1085	0.014
1085	0.014
1085	0.015
1086	0.016
1086	0.016
1087	0.017
1087	0.019
1088	0.019
1088	0.019
1088	0.02
1089	0.021
1089	0.022
1090	0.022
1090	0.023
1090	0.024
1091	0.025
1091	0.027
1092	0.028
1092	0.03
1092	0.031
1093	0.031
1093	0.033
1094	0.034
1094	0.036
1095	0.037
1095	0.039
1095	0.042
1096	0.044
1096	0.046
1097	0.049
1097	0.052
1097	0.056
1098	0.059
1098	0.062
1099	0.066
1099	0.071
1100	0.075
1100	0.079
1100	0.083
1101	0.089
1101	0.095
1102	0.101
1102	0.109
1102	0.117
1103	0.127
1103	0.137
1104	0.149
1104	0.161
1104	0.176
1105	0.191
1105	0.206
1106	0.221
1106	0.241
1107	0.261
1107	0.291
1107	0.328
1108	0.453
1108	0.681
1109	1.54
1109	-0
1109	-0
1110	-0
1110	-0
1111	-0
1111	-0
