Data from 15c-2-2a_Absorbance__17__01818.txt Node

Date: Wed Jan 24 13:04:27 CET 2024
User: Marek
Spectrometer: MAYP115816
Trigger mode: 0
Integration Time (sec): 2.000000E-1
Scans to average: 10
Electric dark correction enabled: true
Nonlinearity correction enabled: true
Boxcar width: 5
XAxis mode: Wavelengths
Number of Pixels in Spectrum: 2068
>>>>>Begin Spectral Data<<<<<
199	-1.91
199	-1.749
200	-1.589
200	-1.465
201	-1.391
201	-1.338
202	-1.266
202	-1.208
203	-1.158
203	-1.115
204	-1.086
204	-1.061
205	-1.039
205	-1.03
205	-1.027
206	-1.024
206	-1.022
207	-1.018
207	-1.016
208	-1.014
208	-1.012
209	-1.01
209	-1.01
210	-1.01
210	-1.008
211	-1.007
211	-1.006
212	-1.003
212	-1.001
213	-0.999
213	-0.997
213	-0.994
214	-0.992
214	-0.988
215	-0.987
215	-0.983
216	-0.981
216	-0.978
217	-0.977
217	-0.977
218	-0.978
218	-0.976
219	-0.975
219	-0.973
220	-0.971
220	-0.968
221	-0.969
221	-0.966
221	-0.961
222	-0.956
222	-0.949
223	-0.943
223	-0.938
224	-0.929
224	-0.921
225	-0.914
225	-0.904
226	-0.894
226	-0.882
227	-0.87
227	-0.859
228	-0.841
228	-0.824
229	-0.803
229	-0.781
229	-0.756
230	-0.727
230	-0.695
231	-0.662
231	-0.626
232	-0.588
232	-0.549
233	-0.51
233	-0.469
234	-0.43
234	-0.39
235	-0.352
235	-0.315
236	-0.281
236	-0.248
236	-0.216
237	-0.187
237	-0.16
238	-0.136
238	-0.113
239	-0.093
239	-0.074
240	-0.057
240	-0.042
241	-0.028
241	-0.016
242	-0.005
242	0.005
243	0.013
243	0.021
243	0.028
244	0.035
244	0.041
245	0.046
245	0.051
246	0.056
246	0.061
247	0.064
247	0.068
248	0.072
248	0.076
249	0.079
249	0.082
250	0.085
250	0.088
250	0.09
251	0.093
251	0.095
252	0.098
252	0.1
253	0.102
253	0.104
254	0.105
254	0.107
255	0.109
255	0.11
256	0.112
256	0.113
257	0.114
257	0.115
258	0.116
258	0.117
258	0.118
259	0.118
259	0.119
260	0.119
260	0.119
261	0.12
261	0.12
262	0.12
262	0.12
263	0.12
263	0.12
264	0.119
264	0.119
265	0.119
265	0.118
265	0.118
266	0.117
266	0.117
267	0.116
267	0.115
268	0.114
268	0.114
269	0.113
269	0.111
270	0.11
270	0.109
271	0.108
271	0.107
272	0.105
272	0.104
272	0.103
273	0.102
273	0.1
274	0.099
274	0.098
275	0.097
275	0.096
276	0.095
276	0.093
277	0.092
277	0.091
278	0.089
278	0.088
278	0.086
279	0.084
279	0.082
280	0.08
280	0.079
281	0.077
281	0.076
282	0.075
282	0.074
283	0.073
283	0.072
284	0.071
284	0.071
285	0.07
285	0.069
285	0.068
286	0.067
286	0.066
287	0.065
287	0.064
288	0.063
288	0.062
289	0.061
289	0.06
290	0.059
290	0.058
291	0.058
291	0.057
292	0.056
292	0.056
292	0.055
293	0.054
293	0.054
294	0.053
294	0.053
295	0.053
295	0.052
296	0.052
296	0.051
297	0.051
297	0.05
298	0.05
298	0.05
298	0.05
299	0.05
299	0.049
300	0.049
300	0.049
301	0.049
301	0.048
302	0.048
302	0.048
303	0.048
303	0.048
304	0.047
304	0.047
305	0.047
305	0.047
305	0.047
306	0.047
306	0.047
307	0.047
307	0.046
308	0.046
308	0.046
309	0.046
309	0.046
310	0.046
310	0.045
311	0.045
311	0.045
311	0.045
312	0.045
312	0.045
313	0.045
313	0.044
314	0.044
314	0.044
315	0.044
315	0.043
316	0.043
316	0.043
317	0.043
317	0.042
318	0.042
318	0.042
318	0.042
319	0.042
319	0.041
320	0.041
320	0.041
321	0.041
321	0.041
322	0.04
322	0.04
323	0.04
323	0.04
324	0.04
324	0.04
324	0.039
325	0.039
325	0.039
326	0.038
326	0.038
327	0.038
327	0.038
328	0.037
328	0.037
329	0.037
329	0.037
330	0.037
330	0.036
330	0.036
331	0.036
331	0.036
332	0.035
332	0.035
333	0.035
333	0.035
334	0.035
334	0.034
335	0.034
335	0.034
336	0.034
336	0.033
336	0.033
337	0.033
337	0.033
338	0.033
338	0.033
339	0.032
339	0.032
340	0.032
340	0.032
341	0.031
341	0.031
342	0.031
342	0.031
342	0.031
343	0.03
343	0.03
344	0.03
344	0.03
345	0.029
345	0.029
346	0.029
346	0.029
347	0.029
347	0.028
348	0.028
348	0.028
348	0.028
349	0.028
349	0.027
350	0.027
350	0.027
351	0.027
351	0.026
352	0.026
352	0.026
353	0.025
353	0.025
354	0.025
354	0.024
354	0.024
355	0.023
355	0.023
356	0.023
356	0.022
357	0.022
357	0.021
358	0.021
358	0.021
359	0.021
359	0.022
360	0.022
360	0.022
360	0.022
361	0.023
361	0.023
362	0.024
362	0.024
363	0.024
363	0.024
364	0.024
364	0.024
365	0.024
365	0.023
366	0.023
366	0.023
366	0.023
367	0.023
367	0.023
368	0.023
368	0.023
369	0.022
369	0.022
370	0.022
370	0.022
371	0.022
371	0.022
372	0.022
372	0.022
372	0.022
373	0.022
373	0.022
374	0.022
374	0.022
375	0.022
375	0.022
376	0.022
376	0.022
377	0.022
377	0.023
378	0.023
378	0.023
378	0.023
379	0.023
379	0.023
380	0.023
380	0.023
381	0.023
381	0.023
382	0.023
382	0.023
383	0.023
383	0.023
383	0.023
384	0.023
384	0.023
385	0.023
385	0.023
386	0.023
386	0.023
387	0.023
387	0.023
388	0.023
388	0.023
389	0.023
389	0.023
389	0.023
390	0.024
390	0.024
391	0.024
391	0.024
392	0.024
392	0.024
393	0.025
393	0.024
394	0.024
394	0.024
394	0.024
395	0.024
395	0.024
396	0.024
396	0.024
397	0.024
397	0.024
398	0.024
398	0.024
399	0.024
399	0.024
400	0.024
400	0.024
400	0.024
401	0.024
401	0.023
402	0.023
402	0.023
403	0.023
403	0.023
404	0.023
404	0.023
405	0.023
405	0.023
405	0.023
406	0.023
406	0.023
407	0.023
407	0.023
408	0.023
408	0.022
409	0.022
409	0.022
410	0.022
410	0.022
411	0.022
411	0.022
411	0.022
412	0.022
412	0.022
413	0.022
413	0.022
414	0.022
414	0.022
415	0.022
415	0.021
416	0.021
416	0.021
416	0.021
417	0.021
417	0.021
418	0.021
418	0.021
419	0.021
419	0.021
420	0.022
420	0.022
421	0.022
421	0.022
421	0.023
422	0.023
422	0.023
423	0.023
423	0.023
424	0.022
424	0.022
425	0.022
425	0.021
426	0.021
426	0.021
427	0.021
427	0.021
427	0.021
428	0.021
428	0.022
429	0.022
429	0.022
430	0.022
430	0.022
431	0.022
431	0.022
432	0.022
432	0.022
432	0.021
433	0.021
433	0.02
434	0.02
434	0.02
435	0.02
435	0.02
436	0.02
436	0.02
437	0.02
437	0.02
437	0.02
438	0.02
438	0.02
439	0.019
439	0.019
440	0.019
440	0.019
441	0.019
441	0.019
442	0.019
442	0.02
442	0.02
443	0.02
443	0.02
444	0.02
444	0.021
445	0.021
445	0.021
446	0.021
446	0.021
447	0.021
447	0.021
447	0.021
448	0.021
448	0.021
449	0.02
449	0.02
450	0.02
450	0.02
451	0.019
451	0.019
452	0.019
452	0.019
452	0.019
453	0.018
453	0.018
454	0.017
454	0.017
455	0.017
455	0.016
456	0.016
456	0.016
457	0.015
457	0.015
458	0.015
458	0.015
458	0.015
459	0.016
459	0.016
460	0.016
460	0.015
461	0.015
461	0.015
462	0.015
462	0.015
463	0.015
463	0.016
463	0.016
464	0.016
464	0.015
465	0.015
465	0.015
466	0.015
466	0.015
467	0.014
467	0.014
467	0.013
468	0.012
468	0.011
469	0.011
469	0.01
470	0.01
470	0.01
471	0.01
471	0.01
472	0.01
472	0.01
472	0.01
473	0.01
473	0.011
474	0.011
474	0.011
475	0.011
475	0.011
476	0.011
476	0.011
477	0.011
477	0.011
477	0.011
478	0.011
478	0.011
479	0.011
479	0.011
480	0.012
480	0.012
481	0.013
481	0.013
482	0.013
482	0.014
482	0.015
483	0.015
483	0.017
484	0.017
484	0.018
485	0.018
485	0.018
486	0.018
486	0.018
487	0.018
487	0.018
487	0.017
488	0.017
488	0.015
489	0.015
489	0.014
490	0.014
490	0.014
491	0.014
491	0.014
492	0.014
492	0.014
492	0.014
493	0.015
493	0.015
494	0.016
494	0.016
495	0.016
495	0.016
496	0.017
496	0.017
496	0.017
497	0.017
497	0.017
498	0.017
498	0.017
499	0.016
499	0.016
500	0.016
500	0.017
501	0.017
501	0.017
501	0.018
502	0.018
502	0.018
503	0.019
503	0.019
504	0.019
504	0.019
505	0.019
505	0.019
506	0.018
506	0.018
506	0.018
507	0.017
507	0.017
508	0.017
508	0.017
509	0.017
509	0.017
510	0.017
510	0.017
511	0.017
511	0.017
511	0.017
512	0.016
512	0.016
513	0.015
513	0.015
514	0.014
514	0.014
515	0.014
515	0.014
515	0.013
516	0.013
516	0.013
517	0.014
517	0.014
518	0.014
518	0.014
519	0.014
519	0.014
520	0.013
520	0.013
520	0.012
521	0.011
521	0.01
522	0.008
522	0.007
523	0.006
523	0.005
524	0.004
524	0.004
524	0.004
525	0.004
525	0.005
526	0.006
526	0.008
527	0.009
527	0.011
528	0.012
528	0.014
529	0.014
529	0.015
529	0.016
530	0.016
530	0.017
531	0.017
531	0.017
532	0.017
532	0.017
533	0.018
533	0.018
533	0.018
534	0.018
534	0.018
535	0.017
535	0.017
536	0.017
536	0.017
537	0.018
537	0.018
538	0.018
538	0.018
538	0.017
539	0.017
539	0.018
540	0.018
540	0.018
541	0.018
541	0.018
542	0.017
542	0.017
542	0.017
543	0.017
543	0.017
544	0.017
544	0.017
545	0.018
545	0.018
546	0.019
546	0.019
547	0.019
547	0.018
547	0.017
548	0.017
548	0.017
549	0.017
549	0.016
550	0.016
550	0.016
551	0.015
551	0.015
551	0.015
552	0.015
552	0.016
553	0.016
553	0.016
554	0.017
554	0.016
555	0.016
555	0.016
556	0.015
556	0.014
556	0.014
557	0.014
557	0.014
558	0.014
558	0.013
559	0.013
559	0.014
560	0.014
560	0.014
560	0.014
561	0.015
561	0.016
562	0.016
562	0.016
563	0.016
563	0.016
564	0.015
564	0.015
564	0.014
565	0.014
565	0.014
566	0.014
566	0.013
567	0.014
567	0.014
568	0.015
568	0.017
568	0.018
569	0.02
569	0.022
570	0.023
570	0.023
571	0.025
571	0.026
572	0.027
572	0.028
573	0.028
573	0.028
573	0.028
574	0.028
574	0.028
575	0.028
575	0.029
576	0.03
576	0.029
577	0.029
577	0.028
577	0.028
578	0.028
578	0.029
579	0.03
579	0.032
580	0.031
580	0.03
581	0.029
581	0.028
581	0.028
582	0.029
582	0.029
583	0.03
583	0.03
584	0.028
584	0.025
585	0.025
585	0.026
585	0.026
586	0.026
586	0.026
587	0.025
587	0.024
588	0.023
588	0.022
589	0.021
589	0.022
590	0.021
590	0.021
590	0.023
591	0.024
591	0.024
592	0.024
592	0.023
593	0.024
593	0.024
594	0.023
594	0.022
594	0.022
595	0.022
595	0.021
596	0.02
596	0.021
597	0.023
597	0.024
598	0.025
598	0.026
598	0.027
599	0.027
599	0.027
600	0.026
600	0.026
601	0.025
601	0.025
602	0.024
602	0.024
602	0.023
603	0.023
603	0.024
604	0.024
604	0.025
605	0.026
605	0.027
606	0.027
606	0.026
606	0.025
607	0.025
607	0.025
608	0.024
608	0.023
609	0.022
609	0.022
610	0.021
610	0.02
610	0.02
611	0.021
611	0.021
612	0.022
612	0.023
613	0.024
613	0.025
614	0.025
614	0.024
614	0.025
615	0.024
615	0.024
616	0.024
616	0.023
617	0.023
617	0.022
618	0.021
618	0.02
618	0.02
619	0.02
619	0.021
620	0.023
620	0.023
621	0.023
621	0.023
622	0.023
622	0.024
622	0.024
623	0.023
623	0.024
624	0.024
624	0.024
625	0.023
625	0.023
626	0.023
626	0.022
626	0.023
627	0.023
627	0.023
628	0.023
628	0.023
629	0.022
629	0.022
630	0.021
630	0.021
630	0.021
631	0.021
631	0.021
632	0.02
632	0.02
633	0.021
633	0.021
634	0.021
634	0.022
634	0.023
635	0.024
635	0.025
636	0.026
636	0.027
637	0.027
637	0.028
638	0.028
638	0.029
638	0.029
639	0.029
639	0.029
640	0.03
640	0.031
641	0.031
641	0.032
642	0.034
642	0.035
642	0.036
643	0.036
643	0.037
644	0.038
644	0.038
645	0.038
645	0.038
646	0.038
646	0.039
646	0.04
647	0.041
647	0.042
648	0.043
648	0.044
649	0.045
649	0.047
650	0.048
650	0.049
650	0.05
651	0.051
651	0.052
652	0.052
652	0.053
653	0.054
653	0.06
653	0.065
654	0.055
654	0.047
655	0.046
655	0.046
656	0.047
656	0.048
657	0.049
657	0.049
657	0.049
658	0.046
658	0.042
659	0.051
659	0.062
660	0.067
660	0.067
661	0.068
661	0.068
661	0.069
662	0.071
662	0.072
663	0.074
663	0.075
664	0.076
664	0.078
665	0.079
665	0.08
665	0.081
666	0.082
666	0.082
667	0.083
667	0.083
668	0.084
668	0.085
669	0.086
669	0.087
669	0.089
670	0.091
670	0.092
671	0.093
671	0.094
672	0.094
672	0.095
672	0.095
673	0.096
673	0.096
674	0.096
674	0.096
675	0.095
675	0.095
676	0.096
676	0.096
676	0.096
677	0.097
677	0.098
678	0.098
678	0.098
679	0.098
679	0.099
680	0.1
680	0.1
680	0.1
681	0.1
681	0.101
682	0.101
682	0.102
683	0.102
683	0.104
684	0.105
684	0.105
684	0.105
685	0.106
685	0.106
686	0.107
686	0.107
687	0.108
687	0.108
687	0.108
688	0.108
688	0.107
689	0.108
689	0.108
690	0.108
690	0.107
691	0.107
691	0.106
691	0.106
692	0.105
692	0.105
693	0.105
693	0.105
694	0.105
694	0.104
695	0.106
695	0.107
695	0.107
696	0.107
696	0.106
697	0.106
697	0.106
698	0.106
698	0.105
698	0.104
699	0.104
699	0.103
700	0.102
700	0.102
701	0.102
701	0.102
702	0.102
702	0.102
702	0.101
703	0.101
703	0.1
704	0.099
704	0.099
705	0.099
705	0.098
705	0.097
706	0.097
706	0.096
707	0.095
707	0.094
708	0.093
708	0.092
709	0.092
709	0.091
709	0.089
710	0.087
710	0.087
711	0.086
711	0.086
712	0.085
712	0.085
713	0.085
713	0.084
713	0.084
714	0.083
714	0.083
715	0.083
715	0.082
716	0.082
716	0.082
716	0.082
717	0.082
717	0.082
718	0.081
718	0.081
719	0.081
719	0.08
720	0.079
720	0.078
720	0.077
721	0.075
721	0.074
722	0.072
722	0.071
723	0.07
723	0.069
723	0.068
724	0.067
724	0.066
725	0.065
725	0.064
726	0.064
726	0.063
727	0.062
727	0.062
727	0.061
728	0.061
728	0.06
729	0.06
729	0.06
730	0.059
730	0.058
730	0.058
731	0.057
731	0.057
732	0.056
732	0.056
733	0.055
733	0.055
734	0.055
734	0.054
734	0.054
735	0.054
735	0.053
736	0.052
736	0.051
737	0.051
737	0.05
737	0.049
738	0.048
738	0.046
739	0.044
739	0.043
740	0.041
740	0.04
741	0.039
741	0.037
741	0.035
742	0.032
742	0.03
743	0.028
743	0.027
744	0.025
744	0.024
744	0.022
745	0.02
745	0.019
746	0.019
746	0.019
747	0.019
747	0.02
748	0.021
748	0.022
748	0.022
749	0.023
749	0.023
750	0.024
750	0.024
751	0.024
751	0.025
751	0.025
752	0.024
752	0.023
753	0.022
753	0.021
754	0.021
754	0.02
754	0.021
755	0.021
755	0.022
756	0.022
756	0.021
757	0.021
757	0.022
758	0.022
758	0.022
758	0.022
759	0.022
759	0.021
760	0.02
760	0.019
761	0.018
761	0.018
761	0.018
762	0.017
762	0.016
763	0.016
763	0.014
764	0.012
764	0.011
764	0.01
765	0.008
765	0.007
766	0.006
766	0.005
767	0.005
767	0.003
768	0.001
768	-0
768	-0.001
769	-0.001
769	-0.002
770	-0.004
770	-0.005
771	-0.008
771	-0.01
771	-0.013
772	-0.015
772	-0.017
773	-0.02
773	-0.022
774	-0.025
774	-0.027
775	-0.029
775	-0.031
775	-0.033
776	-0.036
776	-0.038
777	-0.04
777	-0.043
778	-0.045
778	-0.048
778	-0.052
779	-0.054
779	-0.056
780	-0.061
780	-0.065
781	-0.071
781	-0.077
781	-0.083
782	-0.089
782	-0.097
783	-0.103
783	-0.108
784	-0.113
784	-0.118
784	-0.121
785	-0.125
785	-0.128
786	-0.129
786	-0.127
787	-0.122
787	-0.118
788	-0.117
788	-0.118
788	-0.12
789	-0.122
789	-0.123
790	-0.12
790	-0.12
791	-0.121
791	-0.123
791	-0.126
792	-0.122
792	-0.112
793	-0.106
793	-0.102
794	-0.101
794	-0.102
794	-0.105
795	-0.107
795	-0.107
796	-0.107
796	-0.109
797	-0.117
797	-0.127
797	-0.133
798	-0.138
798	-0.141
799	-0.142
799	-0.141
800	-0.141
800	-0.143
801	-0.147
801	-0.148
801	-0.148
802	-0.15
802	-0.151
803	-0.151
803	-0.151
804	-0.149
804	-0.144
804	-0.137
805	-0.132
805	-0.129
806	-0.126
806	-0.124
807	-0.123
807	-0.122
807	-0.122
808	-0.122
808	-0.123
809	-0.128
809	-0.134
810	-0.138
810	-0.142
810	-0.146
811	-0.149
811	-0.15
812	-0.147
812	-0.145
813	-0.145
813	-0.147
813	-0.148
814	-0.149
814	-0.149
815	-0.146
815	-0.144
816	-0.141
816	-0.141
817	-0.145
817	-0.148
817	-0.147
818	-0.144
818	-0.14
819	-0.134
819	-0.13
820	-0.127
820	-0.124
820	-0.12
821	-0.113
821	-0.105
822	-0.097
822	-0.089
823	-0.081
823	-0.075
823	-0.07
824	-0.063
824	-0.056
825	-0.049
825	-0.043
826	-0.038
826	-0.034
826	-0.03
827	-0.026
827	-0.023
828	-0.021
828	-0.019
829	-0.017
829	-0.016
829	-0.015
830	-0.015
830	-0.015
831	-0.014
831	-0.012
832	-0.012
832	-0.011
832	-0.01
833	-0.009
833	-0.008
834	-0.006
834	-0.005
835	-0.004
835	-0.003
835	-0.003
836	-0.002
836	-0.002
837	-0.002
837	-0.002
838	-0.002
838	-0.002
839	-0.002
839	-0.002
839	-0.002
840	-0.002
840	-0.002
841	-0.001
841	-0.001
842	0.001
842	0.002
842	0.003
843	0.004
843	0.005
844	0.007
844	0.008
845	0.009
845	0.009
845	0.01
846	0.01
846	0.011
847	0.011
847	0.012
848	0.012
848	0.014
848	0.015
849	0.016
849	0.017
850	0.018
850	0.019
851	0.02
851	0.021
851	0.021
852	0.021
852	0.021
853	0.02
853	0.019
854	0.018
854	0.017
854	0.016
855	0.015
855	0.014
856	0.013
856	0.013
857	0.013
857	0.013
857	0.014
858	0.015
858	0.016
859	0.018
859	0.019
860	0.022
860	0.024
860	0.025
861	0.027
861	0.029
862	0.029
862	0.03
863	0.03
863	0.03
863	0.03
864	0.029
864	0.028
865	0.028
865	0.027
866	0.026
866	0.026
866	0.025
867	0.025
867	0.024
868	0.024
868	0.023
869	0.023
869	0.022
869	0.02
870	0.019
870	0.018
871	0.018
871	0.017
872	0.016
872	0.015
872	0.015
873	0.015
873	0.014
874	0.014
874	0.015
875	0.015
875	0.014
875	0.014
876	0.014
876	0.015
877	0.015
877	0.015
878	0.015
878	0.016
878	0.016
879	0.016
879	0.016
880	0.017
880	0.017
881	0.017
881	0.017
881	0.017
882	0.017
882	0.018
883	0.018
883	0.019
884	0.019
884	0.02
884	0.02
885	0.021
885	0.021
886	0.022
886	0.022
887	0.023
887	0.023
887	0.023
888	0.023
888	0.024
889	0.024
889	0.025
890	0.026
890	0.027
890	0.027
891	0.027
891	0.028
892	0.028
892	0.028
893	0.029
893	0.029
893	0.028
894	0.028
894	0.027
895	0.026
895	0.025
895	0.024
896	0.023
896	0.021
897	0.02
897	0.019
898	0.017
898	0.016
898	0.015
899	0.014
899	0.014
900	0.014
900	0.014
901	0.014
901	0.014
901	0.014
902	0.015
902	0.015
903	0.014
903	0.014
904	0.014
904	0.013
904	0.012
905	0.012
905	0.011
906	0.011
906	0.011
907	0.011
907	0.011
907	0.012
908	0.013
908	0.013
909	0.015
909	0.016
910	0.017
910	0.018
910	0.019
911	0.02
911	0.02
912	0.021
912	0.021
913	0.021
913	0.02
913	0.02
914	0.019
914	0.018
915	0.017
915	0.017
916	0.016
916	0.016
916	0.016
917	0.016
917	0.016
918	0.016
918	0.016
918	0.016
919	0.016
919	0.017
920	0.017
920	0.017
921	0.017
921	0.016
921	0.016
922	0.016
922	0.016
923	0.016
923	0.016
924	0.016
924	0.016
924	0.016
925	0.016
925	0.016
926	0.016
926	0.016
927	0.015
927	0.015
927	0.014
928	0.014
928	0.013
929	0.013
929	0.012
930	0.012
930	0.011
930	0.011
931	0.01
931	0.01
932	0.01
932	0.01
933	0.009
933	0.009
933	0.009
934	0.008
934	0.008
935	0.007
935	0.007
935	0.007
936	0.006
936	0.006
937	0.007
937	0.007
938	0.007
938	0.007
938	0.008
939	0.008
939	0.009
940	0.01
940	0.011
941	0.012
941	0.012
941	0.013
942	0.014
942	0.015
943	0.016
943	0.017
944	0.017
944	0.019
944	0.02
945	0.02
945	0.021
946	0.022
946	0.022
946	0.022
947	0.023
947	0.023
948	0.023
948	0.023
949	0.023
949	0.022
949	0.023
950	0.023
950	0.023
951	0.023
951	0.023
952	0.023
952	0.024
952	0.024
953	0.024
953	0.024
954	0.024
954	0.023
955	0.023
955	0.023
955	0.023
956	0.023
956	0.022
957	0.022
957	0.021
957	0.02
958	0.02
958	0.019
959	0.019
959	0.018
960	0.017
960	0.015
960	0.014
961	0.013
961	0.011
962	0.01
962	0.009
963	0.008
963	0.006
963	0.005
964	0.005
964	0.004
965	0.004
965	0.004
966	0.004
966	0.005
966	0.005
967	0.006
967	0.006
968	0.006
968	0.006
968	0.007
969	0.007
969	0.007
970	0.007
970	0.007
971	0.007
971	0.007
971	0.008
972	0.008
972	0.009
973	0.01
973	0.011
974	0.012
974	0.013
974	0.014
975	0.014
975	0.015
976	0.016
976	0.016
976	0.016
977	0.015
977	0.015
978	0.014
978	0.013
979	0.012
979	0.012
979	0.011
980	0.01
980	0.009
981	0.008
981	0.007
982	0.007
982	0.007
982	0.007
983	0.007
983	0.007
984	0.007
984	0.007
984	0.008
985	0.008
985	0.009
986	0.009
986	0.009
987	0.01
987	0.01
987	0.01
988	0.01
988	0.01
989	0.01
989	0.01
990	0.01
990	0.01
990	0.01
991	0.011
991	0.011
992	0.012
992	0.013
992	0.014
993	0.015
993	0.015
994	0.016
994	0.016
995	0.017
995	0.017
995	0.016
996	0.016
996	0.015
997	0.015
997	0.014
997	0.013
998	0.012
998	0.012
999	0.011
999	0.011
1000	0.01
1000	0.01
1000	0.01
1001	0.01
1001	0.01
1002	0.01
1002	0.01
1003	0.01
1003	0.009
1003	0.009
1004	0.009
1004	0.008
1005	0.008
1005	0.008
1005	0.007
1006	0.007
1006	0.007
1007	0.007
1007	0.007
1008	0.007
1008	0.007
1008	0.008
1009	0.008
1009	0.009
1010	0.009
1010	0.01
1010	0.01
1011	0.01
1011	0.01
1012	0.011
1012	0.011
1013	0.011
1013	0.01
1013	0.01
1014	0.01
1014	0.01
1015	0.009
1015	0.009
1016	0.009
1016	0.009
1016	0.009
1017	0.01
1017	0.01
1018	0.01
1018	0.01
1018	0.011
1019	0.011
1019	0.011
1020	0.011
1020	0.011
1021	0.011
1021	0.01
1021	0.01
1022	0.009
1022	0.009
1023	0.009
1023	0.008
1023	0.008
1024	0.007
1024	0.007
1025	0.006
1025	0.006
1026	0.006
1026	0.006
1026	0.006
1027	0.006
1027	0.006
1028	0.007
1028	0.007
1028	0.007
1029	0.007
1029	0.008
1030	0.008
1030	0.008
1031	0.008
1031	0.009
1031	0.008
1032	0.008
1032	0.008
1033	0.008
1033	0.007
1033	0.006
1034	0.006
1034	0.004
1035	0.004
1035	0.003
1036	0.002
1036	0.001
1036	0.001
1037	0.001
1037	0
1038	0
1038	0
1039	0
1039	0.001
1039	0.001
1040	0.001
1040	0.001
1041	0.001
1041	-0
1041	-0.001
1042	-0.001
1042	-0.002
1043	-0.002
1043	-0.003
1044	-0.003
1044	-0.004
1044	-0.004
1045	-0.004
1045	-0.004
1046	-0.004
1046	-0.004
1046	-0.004
1047	-0.003
1047	-0.003
1048	-0.002
1048	-0.002
1049	-0.001
1049	-0.001
1049	-0
1050	0
1050	0.001
1051	0.001
1051	0.002
1051	0.003
1052	0.004
1052	0.005
1053	0.006
1053	0.007
1053	0.008
1054	0.009
1054	0.01
1055	0.011
1055	0.011
1056	0.011
1056	0.011
1056	0.01
1057	0.01
1057	0.009
1058	0.009
1058	0.008
1058	0.008
1059	0.007
1059	0.007
1060	0.006
1060	0.006
1061	0.006
1061	0.007
1061	0.007
1062	0.006
1062	0.006
1063	0.006
1063	0.005
1063	0.005
1064	0.005
1064	0.006
1065	0.006
1065	0.006
1066	0.006
1066	0.006
1066	0.007
1067	0.008
1067	0.009
1068	0.01
1068	0.011
1068	0.012
1069	0.013
1069	0.013
1070	0.014
1070	0.015
1071	0.015
1071	0.017
1071	0.017
1072	0.019
1072	0.02
1073	0.021
1073	0.023
1073	0.024
1074	0.025
1074	0.026
1075	0.027
1075	0.027
1076	0.028
1076	0.029
1076	0.029
1077	0.029
1077	0.03
1078	0.031
1078	0.032
1078	0.033
1079	0.035
1079	0.036
1080	0.037
1080	0.039
1080	0.039
1081	0.041
1081	0.043
1082	0.044
1082	0.044
1083	0.045
1083	0.045
1083	0.047
1084	0.048
1084	0.049
1085	0.05
1085	0.052
1085	0.054
1086	0.055
1086	0.056
1087	0.058
1087	0.06
1088	0.061
1088	0.062
1088	0.064
1089	0.066
1089	0.067
1090	0.068
1090	0.07
1090	0.072
1091	0.074
1091	0.076
1092	0.079
1092	0.083
1092	0.085
1093	0.088
1093	0.092
1094	0.095
1094	0.099
1095	0.103
1095	0.107
1095	0.113
1096	0.119
1096	0.124
1097	0.13
1097	0.135
1097	0.144
1098	0.149
1098	0.157
1099	0.166
1099	0.175
1100	0.184
1100	0.193
1100	0.204
1101	0.216
1101	0.23
1102	0.249
1102	0.265
1102	0.286
1103	0.307
1103	0.33
1104	0.357
1104	0.388
1104	0.426
1105	0.467
1105	0.51
1106	0.558
1106	0.62
1107	0.706
1107	0.844
1107	1.102
1108	-0
1108	-0
1109	-0
1109	-0
1109	-0
1110	-0
1110	-0
1111	-0
1111	-0
