Data from 15c-2-2a_Absorbance__1596__03397.txt Node

Date: Wed Jan 24 13:57:04 CET 2024
User: Marek
Spectrometer: MAYP115816
Trigger mode: 0
Integration Time (sec): 2.000000E-1
Scans to average: 10
Electric dark correction enabled: true
Nonlinearity correction enabled: true
Boxcar width: 5
XAxis mode: Wavelengths
Number of Pixels in Spectrum: 2068
>>>>>Begin Spectral Data<<<<<
199	-1.777
199	-1.617
200	-1.459
200	-1.335
201	-1.263
201	-1.21
202	-1.138
202	-1.082
203	-1.033
203	-0.992
204	-0.964
204	-0.938
205	-0.916
205	-0.907
205	-0.905
206	-0.901
206	-0.9
207	-0.896
207	-0.894
208	-0.892
208	-0.89
209	-0.888
209	-0.889
210	-0.889
210	-0.887
211	-0.885
211	-0.885
212	-0.882
212	-0.881
213	-0.878
213	-0.876
213	-0.874
214	-0.871
214	-0.867
215	-0.866
215	-0.862
216	-0.861
216	-0.858
217	-0.857
217	-0.857
218	-0.858
218	-0.856
219	-0.855
219	-0.853
220	-0.851
220	-0.849
221	-0.849
221	-0.846
221	-0.842
222	-0.836
222	-0.829
223	-0.822
223	-0.817
224	-0.808
224	-0.8
225	-0.793
225	-0.781
226	-0.772
226	-0.76
227	-0.747
227	-0.735
228	-0.717
228	-0.699
229	-0.678
229	-0.656
229	-0.63
230	-0.6
230	-0.568
231	-0.533
231	-0.496
232	-0.457
232	-0.416
233	-0.375
233	-0.332
234	-0.289
234	-0.246
235	-0.204
235	-0.163
236	-0.125
236	-0.089
236	-0.054
237	-0.021
237	0.009
238	0.038
238	0.064
239	0.088
239	0.11
240	0.13
240	0.148
241	0.164
241	0.179
242	0.192
242	0.204
243	0.215
243	0.225
243	0.234
244	0.242
244	0.249
245	0.255
245	0.262
246	0.268
246	0.273
247	0.277
247	0.282
248	0.286
248	0.29
249	0.294
249	0.297
250	0.3
250	0.304
250	0.307
251	0.31
251	0.313
252	0.315
252	0.318
253	0.32
253	0.322
254	0.324
254	0.326
255	0.328
255	0.329
256	0.331
256	0.332
257	0.333
257	0.334
258	0.335
258	0.336
258	0.336
259	0.337
259	0.337
260	0.337
260	0.338
261	0.338
261	0.338
262	0.338
262	0.338
263	0.338
263	0.337
264	0.337
264	0.336
265	0.336
265	0.335
265	0.334
266	0.334
266	0.333
267	0.331
267	0.33
268	0.329
268	0.328
269	0.326
269	0.324
270	0.323
270	0.321
271	0.319
271	0.317
272	0.316
272	0.314
272	0.312
273	0.31
273	0.308
274	0.307
274	0.305
275	0.303
275	0.302
276	0.3
276	0.297
277	0.296
277	0.293
278	0.291
278	0.289
278	0.286
279	0.283
279	0.281
280	0.279
280	0.277
281	0.274
281	0.272
282	0.271
282	0.269
283	0.267
283	0.266
284	0.265
284	0.263
285	0.262
285	0.26
285	0.258
286	0.257
286	0.255
287	0.254
287	0.252
288	0.251
288	0.249
289	0.247
289	0.246
290	0.244
290	0.243
291	0.242
291	0.241
292	0.239
292	0.238
292	0.237
293	0.236
293	0.235
294	0.234
294	0.233
295	0.232
295	0.231
296	0.23
296	0.229
297	0.228
297	0.227
298	0.226
298	0.225
298	0.225
299	0.224
299	0.223
300	0.222
300	0.222
301	0.221
301	0.22
302	0.22
302	0.219
303	0.218
303	0.218
304	0.217
304	0.216
305	0.216
305	0.215
305	0.214
306	0.213
306	0.213
307	0.212
307	0.211
308	0.211
308	0.21
309	0.21
309	0.209
310	0.208
310	0.208
311	0.207
311	0.206
311	0.206
312	0.205
312	0.204
313	0.204
313	0.203
314	0.202
314	0.202
315	0.201
315	0.2
316	0.2
316	0.199
317	0.199
317	0.198
318	0.197
318	0.197
318	0.196
319	0.196
319	0.195
320	0.194
320	0.194
321	0.193
321	0.192
322	0.192
322	0.191
323	0.191
323	0.19
324	0.19
324	0.189
324	0.188
325	0.188
325	0.187
326	0.187
326	0.186
327	0.186
327	0.185
328	0.184
328	0.184
329	0.183
329	0.183
330	0.182
330	0.182
330	0.181
331	0.18
331	0.18
332	0.179
332	0.178
333	0.178
333	0.177
334	0.177
334	0.176
335	0.175
335	0.175
336	0.174
336	0.174
336	0.173
337	0.173
337	0.173
338	0.172
338	0.172
339	0.171
339	0.171
340	0.171
340	0.17
341	0.17
341	0.169
342	0.169
342	0.168
342	0.168
343	0.167
343	0.167
344	0.167
344	0.166
345	0.166
345	0.165
346	0.165
346	0.165
347	0.165
347	0.164
348	0.164
348	0.164
348	0.163
349	0.163
349	0.162
350	0.162
350	0.162
351	0.161
351	0.161
352	0.16
352	0.16
353	0.159
353	0.159
354	0.158
354	0.158
354	0.157
355	0.157
355	0.156
356	0.156
356	0.156
357	0.155
357	0.155
358	0.155
358	0.154
359	0.154
359	0.155
360	0.155
360	0.155
360	0.155
361	0.155
361	0.156
362	0.156
362	0.156
363	0.156
363	0.156
364	0.156
364	0.156
365	0.155
365	0.155
366	0.155
366	0.154
366	0.154
367	0.154
367	0.154
368	0.154
368	0.153
369	0.153
369	0.153
370	0.153
370	0.153
371	0.152
371	0.152
372	0.152
372	0.152
372	0.152
373	0.152
373	0.152
374	0.152
374	0.151
375	0.151
375	0.151
376	0.151
376	0.151
377	0.151
377	0.151
378	0.151
378	0.151
378	0.151
379	0.15
379	0.15
380	0.15
380	0.15
381	0.15
381	0.15
382	0.15
382	0.149
383	0.149
383	0.149
383	0.149
384	0.149
384	0.149
385	0.148
385	0.148
386	0.148
386	0.148
387	0.148
387	0.148
388	0.148
388	0.148
389	0.147
389	0.147
389	0.147
390	0.147
390	0.147
391	0.147
391	0.148
392	0.148
392	0.148
393	0.147
393	0.147
394	0.147
394	0.147
394	0.147
395	0.147
395	0.146
396	0.146
396	0.146
397	0.146
397	0.146
398	0.146
398	0.145
399	0.145
399	0.145
400	0.144
400	0.144
400	0.144
401	0.144
401	0.143
402	0.143
402	0.143
403	0.143
403	0.143
404	0.142
404	0.142
405	0.142
405	0.142
405	0.142
406	0.141
406	0.141
407	0.141
407	0.141
408	0.141
408	0.141
409	0.14
409	0.14
410	0.14
410	0.14
411	0.14
411	0.14
411	0.14
412	0.14
412	0.139
413	0.139
413	0.139
414	0.139
414	0.139
415	0.139
415	0.138
416	0.138
416	0.138
416	0.137
417	0.137
417	0.137
418	0.137
418	0.137
419	0.137
419	0.137
420	0.137
420	0.138
421	0.138
421	0.138
421	0.138
422	0.138
422	0.138
423	0.138
423	0.138
424	0.138
424	0.137
425	0.136
425	0.136
426	0.135
426	0.135
427	0.135
427	0.135
427	0.135
428	0.135
428	0.136
429	0.136
429	0.136
430	0.136
430	0.136
431	0.136
431	0.136
432	0.136
432	0.136
432	0.135
433	0.135
433	0.134
434	0.134
434	0.134
435	0.134
435	0.134
436	0.134
436	0.134
437	0.134
437	0.133
437	0.133
438	0.133
438	0.133
439	0.133
439	0.133
440	0.132
440	0.132
441	0.132
441	0.132
442	0.132
442	0.133
442	0.133
443	0.133
443	0.133
444	0.133
444	0.133
445	0.134
445	0.134
446	0.134
446	0.134
447	0.133
447	0.133
447	0.133
448	0.133
448	0.133
449	0.133
449	0.133
450	0.133
450	0.132
451	0.132
451	0.132
452	0.132
452	0.132
452	0.131
453	0.131
453	0.131
454	0.13
454	0.13
455	0.13
455	0.129
456	0.129
456	0.129
457	0.128
457	0.128
458	0.128
458	0.128
458	0.128
459	0.128
459	0.129
460	0.128
460	0.128
461	0.128
461	0.128
462	0.129
462	0.129
463	0.129
463	0.13
463	0.13
464	0.13
464	0.13
465	0.13
465	0.13
466	0.13
466	0.13
467	0.13
467	0.13
467	0.129
468	0.129
468	0.128
469	0.128
469	0.128
470	0.128
470	0.128
471	0.128
471	0.128
472	0.128
472	0.129
472	0.129
473	0.13
473	0.131
474	0.131
474	0.131
475	0.132
475	0.132
476	0.132
476	0.132
477	0.132
477	0.132
477	0.133
478	0.133
478	0.133
479	0.134
479	0.135
480	0.136
480	0.137
481	0.138
481	0.138
482	0.139
482	0.14
482	0.141
483	0.142
483	0.144
484	0.145
484	0.146
485	0.147
485	0.148
486	0.148
486	0.149
487	0.149
487	0.149
487	0.15
488	0.15
488	0.15
489	0.149
489	0.15
490	0.15
490	0.151
491	0.151
491	0.152
492	0.153
492	0.154
492	0.154
493	0.155
493	0.157
494	0.158
494	0.16
495	0.161
495	0.162
496	0.163
496	0.164
496	0.165
497	0.166
497	0.167
498	0.168
498	0.168
499	0.169
499	0.17
500	0.171
500	0.173
501	0.174
501	0.175
501	0.176
502	0.178
502	0.179
503	0.18
503	0.181
504	0.182
504	0.183
505	0.184
505	0.184
506	0.185
506	0.185
506	0.186
507	0.186
507	0.187
508	0.188
508	0.189
509	0.19
509	0.191
510	0.192
510	0.193
511	0.193
511	0.194
511	0.194
512	0.195
512	0.196
513	0.196
513	0.196
514	0.195
514	0.195
515	0.195
515	0.196
515	0.196
516	0.197
516	0.198
517	0.198
517	0.199
518	0.199
518	0.2
519	0.2
519	0.199
520	0.199
520	0.198
520	0.197
521	0.195
521	0.193
522	0.192
522	0.191
523	0.191
523	0.191
524	0.191
524	0.192
524	0.194
525	0.195
525	0.197
526	0.198
526	0.2
527	0.202
527	0.203
528	0.203
528	0.204
529	0.204
529	0.204
529	0.203
530	0.203
530	0.203
531	0.202
531	0.202
532	0.201
532	0.2
533	0.199
533	0.198
533	0.198
534	0.197
534	0.196
535	0.195
535	0.194
536	0.193
536	0.192
537	0.191
537	0.19
538	0.189
538	0.188
538	0.187
539	0.186
539	0.185
540	0.184
540	0.182
541	0.181
541	0.179
542	0.177
542	0.176
542	0.174
543	0.173
543	0.171
544	0.17
544	0.168
545	0.167
545	0.166
546	0.166
546	0.165
547	0.163
547	0.161
547	0.159
548	0.158
548	0.156
549	0.154
549	0.152
550	0.15
550	0.149
551	0.146
551	0.145
551	0.143
552	0.141
552	0.14
553	0.139
553	0.137
554	0.136
554	0.135
555	0.133
555	0.131
556	0.129
556	0.127
556	0.125
557	0.124
557	0.122
558	0.12
558	0.118
559	0.117
559	0.116
560	0.114
560	0.113
560	0.112
561	0.111
561	0.11
562	0.11
562	0.109
563	0.107
563	0.106
564	0.104
564	0.103
564	0.101
565	0.1
565	0.099
566	0.097
566	0.096
567	0.095
567	0.094
568	0.094
568	0.094
568	0.094
569	0.094
569	0.095
570	0.095
570	0.094
571	0.094
571	0.094
572	0.094
572	0.093
573	0.093
573	0.092
573	0.09
574	0.089
574	0.089
575	0.088
575	0.088
576	0.088
576	0.087
577	0.085
577	0.084
577	0.083
578	0.082
578	0.082
579	0.083
579	0.084
580	0.082
580	0.08
581	0.078
581	0.077
581	0.076
582	0.076
582	0.076
583	0.076
583	0.075
584	0.073
584	0.07
585	0.069
585	0.069
585	0.069
586	0.069
586	0.069
587	0.067
587	0.066
588	0.064
588	0.063
589	0.063
589	0.062
590	0.062
590	0.061
590	0.062
591	0.063
591	0.062
592	0.062
592	0.061
593	0.061
593	0.061
594	0.06
594	0.059
594	0.058
595	0.058
595	0.056
596	0.056
596	0.056
597	0.058
597	0.059
598	0.059
598	0.059
598	0.06
599	0.06
599	0.06
600	0.059
600	0.058
601	0.058
601	0.057
602	0.056
602	0.056
602	0.055
603	0.055
603	0.056
604	0.057
604	0.057
605	0.058
605	0.059
606	0.059
606	0.058
606	0.057
607	0.057
607	0.057
608	0.056
608	0.055
609	0.054
609	0.054
610	0.053
610	0.052
610	0.052
611	0.053
611	0.053
612	0.054
612	0.055
613	0.056
613	0.057
614	0.057
614	0.057
614	0.057
615	0.057
615	0.056
616	0.056
616	0.056
617	0.056
617	0.055
618	0.054
618	0.054
618	0.054
619	0.054
619	0.055
620	0.057
620	0.058
621	0.058
621	0.059
622	0.059
622	0.06
622	0.06
623	0.06
623	0.061
624	0.062
624	0.062
625	0.061
625	0.062
626	0.061
626	0.061
626	0.062
627	0.062
627	0.062
628	0.062
628	0.062
629	0.063
629	0.063
630	0.063
630	0.063
630	0.064
631	0.064
631	0.065
632	0.065
632	0.066
633	0.067
633	0.068
634	0.069
634	0.071
634	0.073
635	0.074
635	0.075
636	0.077
636	0.078
637	0.079
637	0.08
638	0.081
638	0.083
638	0.084
639	0.084
639	0.085
640	0.087
640	0.088
641	0.09
641	0.091
642	0.093
642	0.094
642	0.096
643	0.097
643	0.098
644	0.099
644	0.1
645	0.101
645	0.102
646	0.104
646	0.106
646	0.108
647	0.11
647	0.112
648	0.114
648	0.116
649	0.119
649	0.121
650	0.124
650	0.126
650	0.128
651	0.129
651	0.131
652	0.133
652	0.134
653	0.137
653	0.144
653	0.152
654	0.123
654	0.102
655	0.103
655	0.105
656	0.107
656	0.108
657	0.11
657	0.111
657	0.112
658	0.11
658	0.103
659	0.129
659	0.164
660	0.17
660	0.172
661	0.174
661	0.176
661	0.178
662	0.181
662	0.184
663	0.186
663	0.189
664	0.191
664	0.193
665	0.196
665	0.198
665	0.201
666	0.203
666	0.204
667	0.206
667	0.208
668	0.21
668	0.212
669	0.214
669	0.217
669	0.22
670	0.223
670	0.225
671	0.227
671	0.229
672	0.231
672	0.232
672	0.234
673	0.235
673	0.236
674	0.237
674	0.238
675	0.238
675	0.239
676	0.24
676	0.242
676	0.243
677	0.244
677	0.246
678	0.247
678	0.248
679	0.249
679	0.25
680	0.251
680	0.252
680	0.253
681	0.253
681	0.254
682	0.254
682	0.255
683	0.256
683	0.258
684	0.259
684	0.259
684	0.259
685	0.26
685	0.261
686	0.262
686	0.262
687	0.262
687	0.262
687	0.261
688	0.261
688	0.26
689	0.26
689	0.26
690	0.259
690	0.258
691	0.257
691	0.257
691	0.256
692	0.255
692	0.255
693	0.254
693	0.254
694	0.254
694	0.253
695	0.253
695	0.253
695	0.253
696	0.252
696	0.251
697	0.251
697	0.25
698	0.249
698	0.247
698	0.246
699	0.245
699	0.244
700	0.242
700	0.241
701	0.24
701	0.239
702	0.238
702	0.237
702	0.235
703	0.233
703	0.232
704	0.23
704	0.229
705	0.227
705	0.225
705	0.223
706	0.222
706	0.22
707	0.218
707	0.216
708	0.214
708	0.212
709	0.211
709	0.208
709	0.205
710	0.203
710	0.201
711	0.199
711	0.197
712	0.195
712	0.194
713	0.192
713	0.191
713	0.19
714	0.188
714	0.186
715	0.185
715	0.184
716	0.182
716	0.182
716	0.18
717	0.179
717	0.178
718	0.177
718	0.175
719	0.174
719	0.173
720	0.171
720	0.169
720	0.167
721	0.164
721	0.161
722	0.159
722	0.156
723	0.154
723	0.152
723	0.15
724	0.148
724	0.146
725	0.144
725	0.142
726	0.141
726	0.139
727	0.138
727	0.136
727	0.135
728	0.133
728	0.131
729	0.13
729	0.129
730	0.127
730	0.125
730	0.123
731	0.122
731	0.12
732	0.119
732	0.118
733	0.117
733	0.116
734	0.115
734	0.113
734	0.112
735	0.112
735	0.11
736	0.108
736	0.107
737	0.106
737	0.105
737	0.103
738	0.101
738	0.098
739	0.096
739	0.094
740	0.092
740	0.09
741	0.088
741	0.085
741	0.082
742	0.079
742	0.076
743	0.074
743	0.071
744	0.069
744	0.067
744	0.065
745	0.063
745	0.061
746	0.06
746	0.059
747	0.058
747	0.058
748	0.058
748	0.058
748	0.058
749	0.058
749	0.058
750	0.058
750	0.057
751	0.057
751	0.057
751	0.057
752	0.056
752	0.054
753	0.053
753	0.052
754	0.051
754	0.05
754	0.05
755	0.05
755	0.05
756	0.049
756	0.048
757	0.047
757	0.048
758	0.048
758	0.047
758	0.047
759	0.047
759	0.045
760	0.044
760	0.043
761	0.043
761	0.043
761	0.042
762	0.041
762	0.04
763	0.04
763	0.038
764	0.036
764	0.035
764	0.033
765	0.031
765	0.029
766	0.028
766	0.027
767	0.026
767	0.024
768	0.021
768	0.02
768	0.019
769	0.018
769	0.017
770	0.015
770	0.014
771	0.012
771	0.01
771	0.007
772	0.006
772	0.004
773	0.002
773	-0
774	-0.003
774	-0.005
775	-0.006
775	-0.008
775	-0.01
776	-0.012
776	-0.013
777	-0.015
777	-0.017
778	-0.019
778	-0.021
778	-0.023
779	-0.025
779	-0.027
780	-0.03
780	-0.033
781	-0.037
781	-0.041
781	-0.045
782	-0.05
782	-0.056
783	-0.061
783	-0.066
784	-0.073
784	-0.081
784	-0.088
785	-0.095
785	-0.103
786	-0.108
786	-0.11
787	-0.11
787	-0.11
788	-0.113
788	-0.117
788	-0.12
789	-0.123
789	-0.123
790	-0.122
790	-0.121
791	-0.123
791	-0.125
791	-0.128
792	-0.123
792	-0.113
793	-0.108
793	-0.104
794	-0.102
794	-0.103
794	-0.107
795	-0.109
795	-0.108
796	-0.108
796	-0.11
797	-0.118
797	-0.128
797	-0.134
798	-0.139
798	-0.142
799	-0.143
799	-0.143
800	-0.143
800	-0.145
801	-0.148
801	-0.149
801	-0.15
802	-0.151
802	-0.152
803	-0.153
803	-0.152
804	-0.151
804	-0.145
804	-0.138
805	-0.133
805	-0.13
806	-0.128
806	-0.126
807	-0.124
807	-0.124
807	-0.124
808	-0.124
808	-0.125
809	-0.13
809	-0.136
810	-0.14
810	-0.143
810	-0.147
811	-0.151
811	-0.152
812	-0.149
812	-0.146
813	-0.147
813	-0.148
813	-0.149
814	-0.15
814	-0.15
815	-0.148
815	-0.145
816	-0.143
816	-0.143
817	-0.147
817	-0.149
817	-0.147
818	-0.143
818	-0.137
819	-0.131
819	-0.126
820	-0.122
820	-0.118
820	-0.113
821	-0.105
821	-0.097
822	-0.089
822	-0.081
823	-0.074
823	-0.069
823	-0.064
824	-0.058
824	-0.052
825	-0.046
825	-0.04
826	-0.035
826	-0.031
826	-0.028
827	-0.025
827	-0.022
828	-0.02
828	-0.018
829	-0.017
829	-0.016
829	-0.015
830	-0.016
830	-0.015
831	-0.014
831	-0.014
832	-0.013
832	-0.012
832	-0.011
833	-0.01
833	-0.009
834	-0.009
834	-0.008
835	-0.006
835	-0.006
835	-0.005
836	-0.004
836	-0.004
837	-0.004
837	-0.003
838	-0.003
838	-0.003
839	-0.003
839	-0.004
839	-0.004
840	-0.004
840	-0.004
841	-0.004
841	-0.004
842	-0.003
842	-0.002
842	-0.002
843	-0.001
843	-0
844	0.001
844	0.002
845	0.002
845	0.003
845	0.004
846	0.004
846	0.004
847	0.004
847	0.005
848	0.005
848	0.006
848	0.007
849	0.008
849	0.009
850	0.01
850	0.01
851	0.011
851	0.012
851	0.011
852	0.011
852	0.011
853	0.01
853	0.009
854	0.008
854	0.006
854	0.005
855	0.004
855	0.003
856	0.003
856	0.003
857	0.003
857	0.003
857	0.004
858	0.005
858	0.006
859	0.008
859	0.01
860	0.012
860	0.013
860	0.015
861	0.016
861	0.017
862	0.018
862	0.019
863	0.019
863	0.019
863	0.018
864	0.018
864	0.017
865	0.017
865	0.016
866	0.015
866	0.014
866	0.014
867	0.013
867	0.013
868	0.012
868	0.011
869	0.011
869	0.01
869	0.008
870	0.006
870	0.005
871	0.004
871	0.003
872	0.002
872	0.001
872	0.001
873	0
873	0
874	0
874	0.001
875	0.002
875	0.002
875	0.003
876	0.003
876	0.004
877	0.005
877	0.005
878	0.006
878	0.007
878	0.007
879	0.008
879	0.008
880	0.008
880	0.008
881	0.009
881	0.009
881	0.009
882	0.009
882	0.009
883	0.009
883	0.009
884	0.01
884	0.01
884	0.01
885	0.01
885	0.01
886	0.01
886	0.011
887	0.011
887	0.011
887	0.011
888	0.012
888	0.012
889	0.013
889	0.014
890	0.015
890	0.015
890	0.016
891	0.016
891	0.017
892	0.017
892	0.017
893	0.016
893	0.016
893	0.016
894	0.015
894	0.014
895	0.013
895	0.012
895	0.011
896	0.009
896	0.008
897	0.007
897	0.006
898	0.004
898	0.003
898	0.002
899	0.002
899	0.001
900	0.001
900	0.001
901	0
901	0
901	0
902	0
902	0
903	0
903	-0
904	-0
904	-0.001
904	-0.001
905	-0.001
905	-0.001
906	-0.001
906	-0
907	0
907	0.001
907	0.001
908	0.002
908	0.003
909	0.005
909	0.006
910	0.007
910	0.008
910	0.009
911	0.009
911	0.01
912	0.01
912	0.01
913	0.01
913	0.01
913	0.009
914	0.008
914	0.007
915	0.006
915	0.006
916	0.005
916	0.005
916	0.004
917	0.004
917	0.004
918	0.003
918	0.003
918	0.003
919	0.003
919	0.003
920	0.003
920	0.002
921	0.002
921	0.002
921	0.001
922	0.001
922	0.001
923	0.001
923	0.002
924	0.002
924	0.002
924	0.003
925	0.003
925	0.003
926	0.004
926	0.004
927	0.004
927	0.004
927	0.004
928	0.003
928	0.003
929	0.002
929	0.002
930	0.002
930	0.002
930	0.001
931	0.001
931	0
932	0
932	-0
933	-0
933	-0.001
933	-0.001
934	-0.001
934	-0.002
935	-0.002
935	-0.003
935	-0.003
936	-0.003
936	-0.003
937	-0.002
937	-0.002
938	-0.002
938	-0.002
938	-0.001
939	-0.001
939	0
940	0.001
940	0.001
941	0.002
941	0.003
941	0.003
942	0.004
942	0.004
943	0.004
943	0.005
944	0.005
944	0.005
944	0.006
945	0.006
945	0.007
946	0.008
946	0.008
946	0.008
947	0.009
947	0.009
948	0.01
948	0.01
949	0.01
949	0.01
949	0.011
950	0.011
950	0.012
951	0.013
951	0.013
952	0.014
952	0.015
952	0.015
953	0.016
953	0.017
954	0.017
954	0.017
955	0.017
955	0.016
955	0.016
956	0.015
956	0.014
957	0.013
957	0.012
957	0.011
958	0.01
958	0.009
959	0.008
959	0.007
960	0.006
960	0.004
960	0.003
961	0.001
961	0
962	-0.001
962	-0.002
963	-0.004
963	-0.005
963	-0.006
964	-0.006
964	-0.007
965	-0.007
965	-0.007
966	-0.007
966	-0.007
966	-0.006
967	-0.006
967	-0.006
968	-0.006
968	-0.006
968	-0.006
969	-0.006
969	-0.006
970	-0.005
970	-0.005
971	-0.005
971	-0.005
971	-0.004
972	-0.004
972	-0.003
973	-0.002
973	-0.001
974	-0
974	0
974	0.001
975	0.002
975	0.003
976	0.003
976	0.004
976	0.004
977	0.003
977	0.003
978	0.002
978	0.002
979	0.001
979	0
979	-0.001
980	-0.002
980	-0.003
981	-0.004
981	-0.005
982	-0.006
982	-0.006
982	-0.006
983	-0.007
983	-0.007
984	-0.007
984	-0.006
984	-0.006
985	-0.005
985	-0.004
986	-0.004
986	-0.003
987	-0.002
987	-0.002
987	-0.001
988	-0.001
988	-0
989	-0
989	-0
990	-0
990	-0
990	-0
991	0
991	0.001
992	0.001
992	0.001
992	0.002
993	0.002
993	0.003
994	0.003
994	0.003
995	0.003
995	0.004
995	0.003
996	0.003
996	0.003
997	0.002
997	0.002
997	0.001
998	0.001
998	-0
999	-0.001
999	-0.001
1000	-0.002
1000	-0.002
1000	-0.002
1001	-0.003
1001	-0.003
1002	-0.003
1002	-0.003
1003	-0.004
1003	-0.004
1003	-0.004
1004	-0.004
1004	-0.005
1005	-0.005
1005	-0.006
1005	-0.007
1006	-0.007
1006	-0.008
1007	-0.008
1007	-0.009
1008	-0.009
1008	-0.01
1008	-0.01
1009	-0.01
1009	-0.01
1010	-0.01
1010	-0.01
1010	-0.01
1011	-0.01
1011	-0.01
1012	-0.009
1012	-0.009
1013	-0.009
1013	-0.008
1013	-0.008
1014	-0.008
1014	-0.008
1015	-0.007
1015	-0.007
1016	-0.006
1016	-0.006
1016	-0.005
1017	-0.005
1017	-0.004
1018	-0.004
1018	-0.003
1018	-0.003
1019	-0.002
1019	-0.002
1020	-0.002
1020	-0.002
1021	-0.002
1021	-0.002
1021	-0.002
1022	-0.003
1022	-0.003
1023	-0.004
1023	-0.004
1023	-0.005
1024	-0.006
1024	-0.006
1025	-0.007
1025	-0.007
1026	-0.007
1026	-0.007
1026	-0.007
1027	-0.007
1027	-0.007
1028	-0.007
1028	-0.006
1028	-0.006
1029	-0.005
1029	-0.005
1030	-0.005
1030	-0.005
1031	-0.005
1031	-0.004
1031	-0.005
1032	-0.005
1032	-0.005
1033	-0.006
1033	-0.007
1033	-0.007
1034	-0.008
1034	-0.01
1035	-0.01
1035	-0.011
1036	-0.012
1036	-0.013
1036	-0.013
1037	-0.014
1037	-0.014
1038	-0.014
1038	-0.014
1039	-0.014
1039	-0.014
1039	-0.014
1040	-0.014
1040	-0.014
1041	-0.014
1041	-0.015
1041	-0.015
1042	-0.016
1042	-0.016
1043	-0.017
1043	-0.018
1044	-0.018
1044	-0.019
1044	-0.019
1045	-0.02
1045	-0.02
1046	-0.02
1046	-0.021
1046	-0.02
1047	-0.02
1047	-0.019
1048	-0.019
1048	-0.018
1049	-0.018
1049	-0.018
1049	-0.017
1050	-0.016
1050	-0.016
1051	-0.015
1051	-0.015
1051	-0.013
1052	-0.012
1052	-0.012
1053	-0.011
1053	-0.01
1053	-0.009
1054	-0.008
1054	-0.007
1055	-0.006
1055	-0.006
1056	-0.006
1056	-0.007
1056	-0.008
1057	-0.009
1057	-0.01
1058	-0.01
1058	-0.011
1058	-0.012
1059	-0.013
1059	-0.013
1060	-0.014
1060	-0.015
1061	-0.015
1061	-0.015
1061	-0.015
1062	-0.016
1062	-0.017
1063	-0.017
1063	-0.017
1063	-0.017
1064	-0.017
1064	-0.017
1065	-0.016
1065	-0.017
1066	-0.016
1066	-0.016
1066	-0.015
1067	-0.014
1067	-0.013
1068	-0.012
1068	-0.011
1068	-0.01
1069	-0.01
1069	-0.009
1070	-0.008
1070	-0.007
1071	-0.007
1071	-0.005
1071	-0.005
1072	-0.004
1072	-0.003
1073	-0.002
1073	-0.001
1073	0
1074	0.001
1074	0.002
1075	0.002
1075	0.002
1076	0.002
1076	0.003
1076	0.002
1077	0.002
1077	0.003
1078	0.002
1078	0.003
1078	0.004
1079	0.004
1079	0.005
1080	0.006
1080	0.007
1080	0.008
1081	0.009
1081	0.01
1082	0.011
1082	0.011
1083	0.011
1083	0.012
1083	0.013
1084	0.014
1084	0.014
1085	0.015
1085	0.016
1085	0.016
1086	0.017
1086	0.018
1087	0.019
1087	0.02
1088	0.02
1088	0.02
1088	0.021
1089	0.022
1089	0.023
1090	0.023
1090	0.025
1090	0.025
1091	0.026
1091	0.028
1092	0.029
1092	0.031
1092	0.033
1093	0.034
1093	0.036
1094	0.038
1094	0.04
1095	0.041
1095	0.044
1095	0.047
1096	0.05
1096	0.053
1097	0.055
1097	0.058
1097	0.062
1098	0.065
1098	0.068
1099	0.072
1099	0.077
1100	0.081
1100	0.086
1100	0.092
1101	0.097
1101	0.104
1102	0.112
1102	0.12
1102	0.129
1103	0.138
1103	0.149
1104	0.162
1104	0.174
1104	0.189
1105	0.204
1105	0.219
1106	0.237
1106	0.256
1107	0.278
1107	0.312
1107	0.354
1108	0.492
1108	0.752
1109	-0
1109	-0
1109	-0
1110	-0
1110	-0
1111	-0
1111	-0
