Data from 15c-2-2a_Absorbance__3250__05051.txt Node

Date: Wed Jan 24 14:52:12 CET 2024
User: Marek
Spectrometer: MAYP115816
Trigger mode: 0
Integration Time (sec): 2.000000E-1
Scans to average: 10
Electric dark correction enabled: true
Nonlinearity correction enabled: true
Boxcar width: 5
XAxis mode: Wavelengths
Number of Pixels in Spectrum: 2068
>>>>>Begin Spectral Data<<<<<
199	-1.825
199	-1.664
200	-1.505
200	-1.381
201	-1.307
201	-1.253
202	-1.182
202	-1.124
203	-1.074
203	-1.031
204	-1.002
204	-0.977
205	-0.954
205	-0.945
205	-0.942
206	-0.939
206	-0.937
207	-0.933
207	-0.931
208	-0.929
208	-0.928
209	-0.925
209	-0.926
210	-0.925
210	-0.923
211	-0.922
211	-0.922
212	-0.919
212	-0.917
213	-0.915
213	-0.913
213	-0.91
214	-0.907
214	-0.903
215	-0.902
215	-0.897
216	-0.896
216	-0.893
217	-0.892
217	-0.892
218	-0.893
218	-0.891
219	-0.89
219	-0.887
220	-0.885
220	-0.883
221	-0.883
221	-0.88
221	-0.876
222	-0.869
222	-0.862
223	-0.856
223	-0.85
224	-0.841
224	-0.833
225	-0.825
225	-0.814
226	-0.803
226	-0.792
227	-0.779
227	-0.767
228	-0.748
228	-0.73
229	-0.708
229	-0.685
229	-0.657
230	-0.627
230	-0.593
231	-0.557
231	-0.517
232	-0.476
232	-0.433
233	-0.389
233	-0.343
234	-0.297
234	-0.25
235	-0.204
235	-0.159
236	-0.115
236	-0.073
236	-0.033
237	0.006
237	0.043
238	0.077
238	0.109
239	0.14
239	0.167
240	0.192
240	0.216
241	0.237
241	0.256
242	0.274
242	0.29
243	0.305
243	0.318
243	0.33
244	0.341
244	0.351
245	0.36
245	0.368
246	0.377
246	0.384
247	0.391
247	0.398
248	0.404
248	0.41
249	0.415
249	0.42
250	0.425
250	0.429
250	0.433
251	0.437
251	0.441
252	0.444
252	0.447
253	0.45
253	0.453
254	0.455
254	0.458
255	0.46
255	0.462
256	0.463
256	0.465
257	0.466
257	0.468
258	0.469
258	0.47
258	0.471
259	0.472
259	0.472
260	0.472
260	0.473
261	0.473
261	0.474
262	0.474
262	0.474
263	0.474
263	0.474
264	0.473
264	0.473
265	0.473
265	0.472
265	0.471
266	0.47
266	0.469
267	0.468
267	0.467
268	0.465
268	0.464
269	0.463
269	0.461
270	0.459
270	0.457
271	0.456
271	0.454
272	0.452
272	0.451
272	0.449
273	0.447
273	0.445
274	0.443
274	0.441
275	0.44
275	0.438
276	0.436
276	0.434
277	0.431
277	0.429
278	0.426
278	0.424
278	0.421
279	0.418
279	0.415
280	0.413
280	0.41
281	0.408
281	0.406
282	0.404
282	0.403
283	0.401
283	0.399
284	0.398
284	0.397
285	0.395
285	0.393
285	0.391
286	0.389
286	0.388
287	0.386
287	0.384
288	0.382
288	0.381
289	0.379
289	0.377
290	0.376
290	0.374
291	0.373
291	0.371
292	0.37
292	0.368
292	0.367
293	0.365
293	0.364
294	0.363
294	0.362
295	0.361
295	0.359
296	0.358
296	0.357
297	0.356
297	0.355
298	0.354
298	0.353
298	0.352
299	0.351
299	0.35
300	0.348
300	0.347
301	0.346
301	0.345
302	0.344
302	0.343
303	0.343
303	0.342
304	0.341
304	0.34
305	0.339
305	0.338
305	0.337
306	0.336
306	0.335
307	0.334
307	0.333
308	0.332
308	0.331
309	0.331
309	0.33
310	0.329
310	0.328
311	0.327
311	0.326
311	0.326
312	0.325
312	0.324
313	0.323
313	0.322
314	0.321
314	0.32
315	0.319
315	0.318
316	0.317
316	0.316
317	0.315
317	0.315
318	0.314
318	0.313
318	0.312
319	0.311
319	0.31
320	0.309
320	0.308
321	0.307
321	0.306
322	0.305
322	0.305
323	0.304
323	0.303
324	0.302
324	0.301
324	0.301
325	0.3
325	0.299
326	0.298
326	0.297
327	0.297
327	0.296
328	0.295
328	0.294
329	0.293
329	0.293
330	0.292
330	0.291
330	0.29
331	0.289
331	0.289
332	0.288
332	0.287
333	0.286
333	0.285
334	0.285
334	0.284
335	0.283
335	0.282
336	0.282
336	0.281
336	0.28
337	0.28
337	0.279
338	0.279
338	0.278
339	0.277
339	0.277
340	0.276
340	0.275
341	0.275
341	0.274
342	0.274
342	0.273
342	0.272
343	0.272
343	0.271
344	0.271
344	0.27
345	0.27
345	0.269
346	0.268
346	0.268
347	0.268
347	0.267
348	0.267
348	0.266
348	0.266
349	0.266
349	0.265
350	0.265
350	0.264
351	0.264
351	0.263
352	0.263
352	0.262
353	0.261
353	0.261
354	0.26
354	0.26
354	0.259
355	0.258
355	0.257
356	0.256
356	0.256
357	0.255
357	0.254
358	0.254
358	0.254
359	0.254
359	0.254
360	0.255
360	0.255
360	0.255
361	0.256
361	0.256
362	0.257
362	0.257
363	0.257
363	0.257
364	0.257
364	0.256
365	0.256
365	0.255
366	0.255
366	0.254
366	0.254
367	0.254
367	0.254
368	0.253
368	0.253
369	0.253
369	0.253
370	0.252
370	0.252
371	0.252
371	0.251
372	0.251
372	0.251
372	0.251
373	0.25
373	0.25
374	0.25
374	0.25
375	0.249
375	0.249
376	0.249
376	0.249
377	0.249
377	0.249
378	0.249
378	0.248
378	0.248
379	0.249
379	0.248
380	0.248
380	0.248
381	0.248
381	0.247
382	0.247
382	0.247
383	0.247
383	0.246
383	0.246
384	0.246
384	0.245
385	0.245
385	0.245
386	0.245
386	0.245
387	0.245
387	0.244
388	0.244
388	0.244
389	0.243
389	0.243
389	0.243
390	0.243
390	0.243
391	0.243
391	0.243
392	0.243
392	0.243
393	0.243
393	0.243
394	0.242
394	0.242
394	0.242
395	0.242
395	0.241
396	0.241
396	0.24
397	0.24
397	0.24
398	0.24
398	0.24
399	0.24
399	0.24
400	0.239
400	0.239
400	0.238
401	0.238
401	0.238
402	0.237
402	0.237
403	0.236
403	0.236
404	0.236
404	0.235
405	0.235
405	0.235
405	0.235
406	0.234
406	0.234
407	0.234
407	0.234
408	0.233
408	0.233
409	0.232
409	0.232
410	0.232
410	0.232
411	0.232
411	0.232
411	0.231
412	0.231
412	0.231
413	0.231
413	0.23
414	0.23
414	0.23
415	0.23
415	0.229
416	0.229
416	0.229
416	0.228
417	0.228
417	0.228
418	0.227
418	0.227
419	0.227
419	0.228
420	0.228
420	0.228
421	0.229
421	0.229
421	0.229
422	0.229
422	0.228
423	0.228
423	0.228
424	0.228
424	0.227
425	0.226
425	0.226
426	0.225
426	0.225
427	0.224
427	0.225
427	0.225
428	0.225
428	0.225
429	0.226
429	0.226
430	0.226
430	0.226
431	0.226
431	0.225
432	0.225
432	0.225
432	0.224
433	0.224
433	0.223
434	0.223
434	0.222
435	0.222
435	0.222
436	0.222
436	0.222
437	0.221
437	0.221
437	0.221
438	0.221
438	0.221
439	0.22
439	0.22
440	0.22
440	0.22
441	0.22
441	0.22
442	0.22
442	0.221
442	0.221
443	0.221
443	0.221
444	0.221
444	0.222
445	0.222
445	0.222
446	0.222
446	0.222
447	0.222
447	0.222
447	0.222
448	0.221
448	0.221
449	0.221
449	0.221
450	0.221
450	0.22
451	0.22
451	0.22
452	0.22
452	0.22
452	0.219
453	0.219
453	0.219
454	0.218
454	0.218
455	0.218
455	0.218
456	0.217
456	0.217
457	0.217
457	0.217
458	0.217
458	0.217
458	0.217
459	0.217
459	0.217
460	0.217
460	0.217
461	0.217
461	0.217
462	0.217
462	0.217
463	0.218
463	0.218
463	0.219
464	0.219
464	0.219
465	0.219
465	0.219
466	0.219
466	0.219
467	0.219
467	0.219
467	0.219
468	0.218
468	0.217
469	0.217
469	0.216
470	0.216
470	0.216
471	0.216
471	0.216
472	0.217
472	0.217
472	0.218
473	0.219
473	0.22
474	0.221
474	0.221
475	0.222
475	0.223
476	0.223
476	0.224
477	0.224
477	0.225
477	0.225
478	0.226
478	0.226
479	0.227
479	0.228
480	0.229
480	0.23
481	0.231
481	0.232
482	0.233
482	0.234
482	0.235
483	0.237
483	0.239
484	0.241
484	0.243
485	0.244
485	0.246
486	0.247
486	0.248
487	0.248
487	0.249
487	0.25
488	0.25
488	0.25
489	0.25
489	0.25
490	0.25
490	0.251
491	0.252
491	0.253
492	0.254
492	0.255
492	0.257
493	0.258
493	0.26
494	0.262
494	0.264
495	0.266
495	0.267
496	0.269
496	0.271
496	0.272
497	0.274
497	0.276
498	0.277
498	0.279
499	0.28
499	0.281
500	0.283
500	0.285
501	0.287
501	0.289
501	0.291
502	0.292
502	0.294
503	0.296
503	0.298
504	0.299
504	0.3
505	0.302
505	0.303
506	0.304
506	0.305
506	0.306
507	0.307
507	0.308
508	0.309
508	0.31
509	0.312
509	0.313
510	0.315
510	0.316
511	0.316
511	0.317
511	0.317
512	0.319
512	0.32
513	0.321
513	0.321
514	0.321
514	0.321
515	0.321
515	0.322
515	0.322
516	0.323
516	0.324
517	0.325
517	0.326
518	0.327
518	0.327
519	0.327
519	0.326
520	0.325
520	0.323
520	0.322
521	0.32
521	0.317
522	0.315
522	0.314
523	0.313
523	0.313
524	0.314
524	0.316
524	0.318
525	0.32
525	0.322
526	0.325
526	0.327
527	0.329
527	0.33
528	0.331
528	0.332
529	0.332
529	0.331
529	0.331
530	0.331
530	0.33
531	0.329
531	0.329
532	0.327
532	0.326
533	0.325
533	0.325
533	0.324
534	0.323
534	0.322
535	0.32
535	0.319
536	0.318
536	0.316
537	0.315
537	0.313
538	0.311
538	0.309
538	0.307
539	0.306
539	0.304
540	0.302
540	0.301
541	0.299
541	0.297
542	0.295
542	0.293
542	0.29
543	0.288
543	0.287
544	0.285
544	0.283
545	0.281
545	0.279
546	0.277
546	0.275
547	0.273
547	0.269
547	0.266
548	0.264
548	0.261
549	0.258
549	0.255
550	0.253
550	0.25
551	0.247
551	0.244
551	0.241
552	0.239
552	0.237
553	0.235
553	0.233
554	0.231
554	0.229
555	0.227
555	0.224
556	0.221
556	0.218
556	0.215
557	0.212
557	0.209
558	0.207
558	0.204
559	0.201
559	0.199
560	0.197
560	0.195
560	0.193
561	0.192
561	0.191
562	0.189
562	0.188
563	0.185
563	0.183
564	0.181
564	0.178
564	0.175
565	0.173
565	0.171
566	0.168
566	0.166
567	0.165
567	0.163
568	0.163
568	0.162
568	0.162
569	0.162
569	0.162
570	0.161
570	0.16
571	0.16
571	0.16
572	0.159
572	0.158
573	0.157
573	0.156
573	0.154
574	0.153
574	0.151
575	0.15
575	0.15
576	0.15
576	0.148
577	0.146
577	0.144
577	0.143
578	0.141
578	0.141
579	0.141
579	0.141
580	0.14
580	0.137
581	0.135
581	0.133
581	0.132
582	0.132
582	0.131
583	0.131
583	0.129
584	0.127
584	0.124
585	0.122
585	0.122
585	0.121
586	0.121
586	0.12
587	0.118
587	0.117
588	0.114
588	0.113
589	0.111
589	0.11
590	0.109
590	0.108
590	0.109
591	0.109
591	0.108
592	0.107
592	0.106
593	0.105
593	0.105
594	0.104
594	0.103
594	0.102
595	0.102
595	0.1
596	0.099
596	0.1
597	0.101
597	0.101
598	0.101
598	0.102
598	0.102
599	0.102
599	0.102
600	0.101
600	0.1
601	0.099
601	0.099
602	0.097
602	0.097
602	0.097
603	0.097
603	0.097
604	0.098
604	0.098
605	0.099
605	0.1
606	0.1
606	0.099
606	0.098
607	0.098
607	0.097
608	0.097
608	0.096
609	0.095
609	0.095
610	0.094
610	0.093
610	0.094
611	0.094
611	0.095
612	0.095
612	0.096
613	0.097
613	0.098
614	0.098
614	0.098
614	0.098
615	0.098
615	0.097
616	0.097
616	0.097
617	0.097
617	0.096
618	0.095
618	0.095
618	0.094
619	0.095
619	0.096
620	0.097
620	0.098
621	0.099
621	0.1
622	0.1
622	0.101
622	0.101
623	0.101
623	0.102
624	0.102
624	0.102
625	0.101
625	0.102
626	0.102
626	0.102
626	0.103
627	0.103
627	0.104
628	0.105
628	0.106
629	0.107
629	0.107
630	0.107
630	0.108
630	0.109
631	0.11
631	0.111
632	0.112
632	0.113
633	0.114
633	0.115
634	0.117
634	0.119
634	0.121
635	0.123
635	0.125
636	0.127
636	0.129
637	0.13
637	0.132
638	0.133
638	0.135
638	0.137
639	0.139
639	0.14
640	0.142
640	0.144
641	0.146
641	0.148
642	0.15
642	0.153
642	0.155
643	0.156
643	0.158
644	0.16
644	0.162
645	0.163
645	0.165
646	0.167
646	0.17
646	0.172
647	0.175
647	0.178
648	0.181
648	0.183
649	0.186
649	0.19
650	0.193
650	0.196
650	0.198
651	0.201
651	0.204
652	0.207
652	0.21
653	0.214
653	0.222
653	0.232
654	0.185
654	0.15
655	0.155
655	0.158
656	0.16
656	0.162
657	0.164
657	0.166
657	0.167
658	0.165
658	0.156
659	0.198
659	0.258
660	0.263
660	0.266
661	0.268
661	0.271
661	0.274
662	0.278
662	0.282
663	0.286
663	0.29
664	0.293
664	0.296
665	0.299
665	0.303
665	0.306
666	0.309
666	0.312
667	0.315
667	0.318
668	0.321
668	0.324
669	0.327
669	0.331
669	0.335
670	0.339
670	0.343
671	0.346
671	0.348
672	0.351
672	0.353
672	0.356
673	0.358
673	0.36
674	0.361
674	0.362
675	0.363
675	0.365
676	0.366
676	0.368
676	0.37
677	0.372
677	0.374
678	0.376
678	0.377
679	0.379
679	0.381
680	0.383
680	0.384
680	0.385
681	0.386
681	0.387
682	0.388
682	0.389
683	0.391
683	0.393
684	0.394
684	0.395
684	0.396
685	0.397
685	0.398
686	0.399
686	0.399
687	0.399
687	0.399
687	0.399
688	0.398
688	0.397
689	0.397
689	0.397
690	0.396
690	0.395
691	0.395
691	0.394
691	0.394
692	0.393
692	0.392
693	0.392
693	0.392
694	0.391
694	0.389
695	0.389
695	0.389
695	0.389
696	0.387
696	0.386
697	0.385
697	0.383
698	0.382
698	0.38
698	0.378
699	0.376
699	0.374
700	0.371
700	0.369
701	0.368
701	0.366
702	0.365
702	0.363
702	0.362
703	0.359
703	0.357
704	0.355
704	0.353
705	0.351
705	0.349
705	0.347
706	0.344
706	0.342
707	0.339
707	0.336
708	0.334
708	0.331
709	0.329
709	0.326
709	0.323
710	0.319
710	0.316
711	0.314
711	0.311
712	0.309
712	0.306
713	0.304
713	0.302
713	0.3
714	0.297
714	0.295
715	0.293
715	0.29
716	0.288
716	0.286
716	0.283
717	0.281
717	0.278
718	0.275
718	0.272
719	0.27
719	0.267
720	0.264
720	0.261
720	0.257
721	0.253
721	0.25
722	0.247
722	0.243
723	0.24
723	0.238
723	0.235
724	0.233
724	0.231
725	0.228
725	0.226
726	0.224
726	0.222
727	0.219
727	0.217
727	0.215
728	0.212
728	0.21
729	0.208
729	0.206
730	0.203
730	0.201
730	0.198
731	0.196
731	0.194
732	0.192
732	0.19
733	0.187
733	0.185
734	0.183
734	0.18
734	0.178
735	0.177
735	0.174
736	0.172
736	0.17
737	0.168
737	0.166
737	0.164
738	0.161
738	0.158
739	0.156
739	0.154
740	0.151
740	0.149
741	0.146
741	0.143
741	0.139
742	0.135
742	0.13
743	0.127
743	0.124
744	0.12
744	0.117
744	0.115
745	0.112
745	0.109
746	0.107
746	0.106
747	0.105
747	0.104
748	0.104
748	0.104
748	0.104
749	0.103
749	0.103
750	0.103
750	0.102
751	0.101
751	0.101
751	0.1
752	0.099
752	0.097
753	0.096
753	0.094
754	0.093
754	0.092
754	0.091
755	0.09
755	0.09
756	0.089
756	0.087
757	0.086
757	0.085
758	0.085
758	0.084
758	0.084
759	0.083
759	0.081
760	0.079
760	0.078
761	0.077
761	0.076
761	0.075
762	0.074
762	0.073
763	0.072
763	0.069
764	0.067
764	0.065
764	0.063
765	0.061
765	0.059
766	0.057
766	0.056
767	0.054
767	0.052
768	0.049
768	0.048
768	0.047
769	0.045
769	0.044
770	0.042
770	0.04
771	0.038
771	0.035
771	0.033
772	0.03
772	0.028
773	0.026
773	0.023
774	0.021
774	0.018
775	0.017
775	0.015
775	0.012
776	0.01
776	0.008
777	0.006
777	0.003
778	0
778	-0.003
778	-0.007
779	-0.009
779	-0.012
780	-0.016
780	-0.02
781	-0.024
781	-0.028
781	-0.033
782	-0.039
782	-0.046
783	-0.052
783	-0.058
784	-0.066
784	-0.074
784	-0.082
785	-0.091
785	-0.099
786	-0.105
786	-0.108
787	-0.109
787	-0.109
788	-0.113
788	-0.116
788	-0.119
789	-0.123
789	-0.123
790	-0.121
790	-0.121
791	-0.122
791	-0.124
791	-0.127
792	-0.123
792	-0.113
793	-0.107
793	-0.103
794	-0.101
794	-0.103
794	-0.106
795	-0.108
795	-0.108
796	-0.107
796	-0.11
797	-0.118
797	-0.128
797	-0.134
798	-0.139
798	-0.142
799	-0.142
799	-0.142
800	-0.142
800	-0.144
801	-0.148
801	-0.149
801	-0.149
802	-0.151
802	-0.152
803	-0.152
803	-0.152
804	-0.15
804	-0.145
804	-0.137
805	-0.133
805	-0.13
806	-0.127
806	-0.125
807	-0.124
807	-0.123
807	-0.123
808	-0.123
808	-0.124
809	-0.129
809	-0.135
810	-0.139
810	-0.143
810	-0.147
811	-0.15
811	-0.151
812	-0.148
812	-0.146
813	-0.146
813	-0.148
813	-0.149
814	-0.15
814	-0.15
815	-0.147
815	-0.144
816	-0.142
816	-0.142
817	-0.146
817	-0.149
817	-0.147
818	-0.143
818	-0.138
819	-0.132
819	-0.126
820	-0.122
820	-0.118
820	-0.113
821	-0.106
821	-0.097
822	-0.088
822	-0.079
823	-0.072
823	-0.066
823	-0.06
824	-0.054
824	-0.047
825	-0.04
825	-0.033
826	-0.027
826	-0.023
826	-0.019
827	-0.015
827	-0.012
828	-0.009
828	-0.007
829	-0.005
829	-0.004
829	-0.004
830	-0.004
830	-0.003
831	-0.001
831	-0
832	-0
832	0.001
832	0.002
833	0.003
833	0.003
834	0.004
834	0.005
835	0.006
835	0.006
835	0.007
836	0.007
836	0.008
837	0.008
837	0.008
838	0.008
838	0.008
839	0.008
839	0.007
839	0.007
840	0.007
840	0.007
841	0.006
841	0.007
842	0.007
842	0.008
842	0.008
843	0.009
843	0.01
844	0.011
844	0.012
845	0.013
845	0.013
845	0.015
846	0.015
846	0.015
847	0.016
847	0.017
848	0.018
848	0.019
848	0.02
849	0.021
849	0.022
850	0.022
850	0.022
851	0.022
851	0.022
851	0.021
852	0.02
852	0.02
853	0.019
853	0.018
854	0.017
854	0.016
854	0.015
855	0.014
855	0.014
856	0.013
856	0.013
857	0.014
857	0.014
857	0.015
858	0.016
858	0.017
859	0.019
859	0.021
860	0.023
860	0.025
860	0.026
861	0.028
861	0.029
862	0.029
862	0.03
863	0.03
863	0.03
863	0.03
864	0.029
864	0.028
865	0.028
865	0.028
866	0.027
866	0.026
866	0.026
867	0.026
867	0.026
868	0.025
868	0.025
869	0.024
869	0.023
869	0.022
870	0.021
870	0.02
871	0.019
871	0.018
872	0.017
872	0.015
872	0.015
873	0.014
873	0.014
874	0.013
874	0.014
875	0.014
875	0.014
875	0.015
876	0.015
876	0.016
877	0.016
877	0.017
878	0.017
878	0.017
878	0.018
879	0.018
879	0.018
880	0.019
880	0.019
881	0.019
881	0.019
881	0.02
882	0.02
882	0.02
883	0.021
883	0.021
884	0.021
884	0.021
884	0.021
885	0.021
885	0.021
886	0.021
886	0.022
887	0.022
887	0.022
887	0.022
888	0.022
888	0.023
889	0.024
889	0.024
890	0.025
890	0.026
890	0.026
891	0.027
891	0.027
892	0.027
892	0.027
893	0.027
893	0.027
893	0.027
894	0.026
894	0.026
895	0.025
895	0.023
895	0.022
896	0.021
896	0.02
897	0.018
897	0.017
898	0.016
898	0.015
898	0.014
899	0.013
899	0.012
900	0.012
900	0.011
901	0.011
901	0.01
901	0.009
902	0.009
902	0.008
903	0.007
903	0.006
904	0.006
904	0.005
904	0.004
905	0.004
905	0.004
906	0.005
906	0.005
907	0.006
907	0.007
907	0.008
908	0.009
908	0.01
909	0.012
909	0.013
910	0.015
910	0.016
910	0.017
911	0.017
911	0.018
912	0.018
912	0.018
913	0.017
913	0.017
913	0.016
914	0.015
914	0.014
915	0.013
915	0.012
916	0.011
916	0.011
916	0.011
917	0.011
917	0.011
918	0.01
918	0.01
918	0.01
919	0.01
919	0.01
920	0.01
920	0.01
921	0.009
921	0.009
921	0.008
922	0.008
922	0.009
923	0.009
923	0.01
924	0.011
924	0.011
924	0.012
925	0.012
925	0.013
926	0.013
926	0.013
927	0.012
927	0.012
927	0.012
928	0.011
928	0.011
929	0.011
929	0.01
930	0.01
930	0.01
930	0.011
931	0.011
931	0.011
932	0.011
932	0.011
933	0.011
933	0.01
933	0.01
934	0.01
934	0.01
935	0.009
935	0.009
935	0.008
936	0.008
936	0.008
937	0.007
937	0.007
938	0.007
938	0.007
938	0.007
939	0.007
939	0.007
940	0.008
940	0.008
941	0.009
941	0.009
941	0.01
942	0.011
942	0.012
943	0.013
943	0.014
944	0.014
944	0.015
944	0.016
945	0.016
945	0.017
946	0.018
946	0.018
946	0.018
947	0.018
947	0.019
948	0.019
948	0.019
949	0.019
949	0.019
949	0.02
950	0.02
950	0.021
951	0.022
951	0.022
952	0.023
952	0.023
952	0.024
953	0.024
953	0.025
954	0.025
954	0.024
955	0.024
955	0.024
955	0.024
956	0.023
956	0.023
957	0.022
957	0.021
957	0.02
958	0.019
958	0.019
959	0.018
959	0.017
960	0.015
960	0.014
960	0.012
961	0.011
961	0.009
962	0.008
962	0.007
963	0.006
963	0.004
963	0.003
964	0.003
964	0.002
965	0.002
965	0.002
966	0.002
966	0.002
966	0.002
967	0.002
967	0.002
968	0.002
968	0.001
968	0.001
969	0.001
969	0
970	0
970	-0
971	-0
971	-0
971	-0
972	0
972	0
973	0.001
973	0.001
974	0.002
974	0.003
974	0.004
975	0.005
975	0.005
976	0.006
976	0.006
976	0.007
977	0.007
977	0.007
978	0.006
978	0.006
979	0.006
979	0.006
979	0.005
980	0.004
980	0.004
981	0.003
981	0.003
982	0.002
982	0.002
982	0.002
983	0.003
983	0.003
984	0.003
984	0.004
984	0.004
985	0.005
985	0.006
986	0.006
986	0.007
987	0.007
987	0.007
987	0.008
988	0.008
988	0.008
989	0.008
989	0.008
990	0.008
990	0.008
990	0.009
991	0.009
991	0.009
992	0.01
992	0.01
992	0.011
993	0.011
993	0.012
994	0.012
994	0.013
995	0.013
995	0.013
995	0.013
996	0.012
996	0.011
997	0.011
997	0.01
997	0.009
998	0.008
998	0.008
999	0.007
999	0.007
1000	0.006
1000	0.006
1000	0.006
1001	0.006
1001	0.006
1002	0.005
1002	0.005
1003	0.005
1003	0.005
1003	0.005
1004	0.004
1004	0.004
1005	0.003
1005	0.002
1005	0.002
1006	0.001
1006	0
1007	-0
1007	-0.001
1008	-0.001
1008	-0.001
1008	-0.002
1009	-0.002
1009	-0.001
1010	-0.001
1010	-0.001
1010	-0
1011	-0
1011	0
1012	0.001
1012	0.001
1013	0.002
1013	0.002
1013	0.003
1014	0.003
1014	0.003
1015	0.003
1015	0.004
1016	0.004
1016	0.004
1016	0.005
1017	0.005
1017	0.006
1018	0.006
1018	0.007
1018	0.007
1019	0.007
1019	0.008
1020	0.008
1020	0.007
1021	0.007
1021	0.007
1021	0.006
1022	0.006
1022	0.006
1023	0.005
1023	0.005
1023	0.004
1024	0.003
1024	0.003
1025	0.002
1025	0.001
1026	0
1026	0
1026	-0
1027	-0.001
1027	-0
1028	-0
1028	-0
1028	-0
1029	-0
1029	0
1030	0
1030	0
1031	0
1031	0.001
1031	0.001
1032	0.001
1032	0.001
1033	0.001
1033	0.001
1033	0.001
1034	0
1034	-0
1035	-0.001
1035	-0.001
1036	-0.002
1036	-0.003
1036	-0.003
1037	-0.004
1037	-0.004
1038	-0.005
1038	-0.005
1039	-0.005
1039	-0.005
1039	-0.005
1040	-0.006
1040	-0.006
1041	-0.007
1041	-0.007
1041	-0.008
1042	-0.008
1042	-0.009
1043	-0.009
1043	-0.01
1044	-0.01
1044	-0.011
1044	-0.011
1045	-0.011
1045	-0.011
1046	-0.011
1046	-0.011
1046	-0.011
1047	-0.01
1047	-0.01
1048	-0.009
1048	-0.008
1049	-0.007
1049	-0.007
1049	-0.006
1050	-0.006
1050	-0.005
1051	-0.004
1051	-0.004
1051	-0.003
1052	-0.002
1052	-0.001
1053	-0.001
1053	0
1053	0.001
1054	0.002
1054	0.003
1055	0.004
1055	0.004
1056	0.004
1056	0.003
1056	0.002
1057	0.002
1057	0.001
1058	-0
1058	-0.001
1058	-0.002
1059	-0.003
1059	-0.005
1060	-0.006
1060	-0.006
1061	-0.007
1061	-0.007
1061	-0.006
1062	-0.007
1062	-0.007
1063	-0.007
1063	-0.007
1063	-0.007
1064	-0.006
1064	-0.006
1065	-0.005
1065	-0.005
1066	-0.005
1066	-0.004
1066	-0.003
1067	-0.002
1067	-0.001
1068	-0
1068	0
1068	0.001
1069	0.001
1069	0.002
1070	0.003
1070	0.003
1071	0.004
1071	0.005
1071	0.005
1072	0.007
1072	0.008
1073	0.009
1073	0.011
1073	0.012
1074	0.013
1074	0.015
1075	0.015
1075	0.016
1076	0.016
1076	0.018
1076	0.017
1077	0.017
1077	0.018
1078	0.018
1078	0.019
1078	0.02
1079	0.02
1079	0.021
1080	0.022
1080	0.023
1080	0.024
1081	0.025
1081	0.027
1082	0.028
1082	0.028
1083	0.028
1083	0.029
1083	0.031
1084	0.032
1084	0.033
1085	0.035
1085	0.036
1085	0.037
1086	0.038
1086	0.038
1087	0.04
1087	0.041
1088	0.041
1088	0.042
1088	0.043
1089	0.043
1089	0.044
1090	0.044
1090	0.046
1090	0.047
1091	0.048
1091	0.05
1092	0.052
1092	0.055
1092	0.057
1093	0.058
1093	0.061
1094	0.064
1094	0.066
1095	0.068
1095	0.071
1095	0.075
1096	0.078
1096	0.082
1097	0.086
1097	0.089
1097	0.094
1098	0.097
1098	0.102
1099	0.109
1099	0.115
1100	0.121
1100	0.126
1100	0.132
1101	0.138
1101	0.146
1102	0.156
1102	0.166
1102	0.179
1103	0.192
1103	0.205
1104	0.221
1104	0.239
1104	0.261
1105	0.284
1105	0.309
1106	0.332
1106	0.362
1107	0.398
1107	0.445
1107	0.508
1108	0.759
1108	2.091
1109	-0
1109	-0
1109	-0
1110	-0
1110	-0
1111	-0
1111	-0
