Data from 15c-2-2a_Absorbance__8__01809.txt Node

Date: Wed Jan 24 13:04:09 CET 2024
User: Marek
Spectrometer: MAYP115816
Trigger mode: 0
Integration Time (sec): 2.000000E-1
Scans to average: 10
Electric dark correction enabled: true
Nonlinearity correction enabled: true
Boxcar width: 5
XAxis mode: Wavelengths
Number of Pixels in Spectrum: 2068
>>>>>Begin Spectral Data<<<<<
199	-1.952
199	-1.789
200	-1.629
200	-1.504
201	-1.431
201	-1.377
202	-1.305
202	-1.246
203	-1.196
203	-1.153
204	-1.123
204	-1.098
205	-1.076
205	-1.066
205	-1.064
206	-1.06
206	-1.058
207	-1.054
207	-1.052
208	-1.05
208	-1.048
209	-1.046
209	-1.046
210	-1.046
210	-1.044
211	-1.043
211	-1.043
212	-1.041
212	-1.039
213	-1.036
213	-1.034
213	-1.031
214	-1.029
214	-1.026
215	-1.025
215	-1.02
216	-1.019
216	-1.016
217	-1.015
217	-1.015
218	-1.016
218	-1.014
219	-1.013
219	-1.01
220	-1.008
220	-1.006
221	-1.006
221	-1.004
221	-0.999
222	-0.993
222	-0.986
223	-0.98
223	-0.974
224	-0.965
224	-0.957
225	-0.949
225	-0.94
226	-0.93
226	-0.918
227	-0.906
227	-0.894
228	-0.877
228	-0.859
229	-0.839
229	-0.817
229	-0.792
230	-0.763
230	-0.731
231	-0.697
231	-0.661
232	-0.623
232	-0.584
233	-0.544
233	-0.503
234	-0.462
234	-0.422
235	-0.383
235	-0.345
236	-0.31
236	-0.275
236	-0.243
237	-0.212
237	-0.185
238	-0.16
238	-0.137
239	-0.115
239	-0.096
240	-0.078
240	-0.063
241	-0.049
241	-0.036
242	-0.024
242	-0.015
243	-0.005
243	0.003
243	0.011
244	0.018
244	0.024
245	0.03
245	0.035
246	0.04
246	0.045
247	0.049
247	0.053
248	0.056
248	0.06
249	0.063
249	0.066
250	0.069
250	0.073
250	0.075
251	0.078
251	0.08
252	0.083
252	0.085
253	0.087
253	0.089
254	0.091
254	0.093
255	0.095
255	0.096
256	0.098
256	0.099
257	0.1
257	0.101
258	0.102
258	0.103
258	0.104
259	0.105
259	0.105
260	0.106
260	0.106
261	0.106
261	0.107
262	0.107
262	0.107
263	0.107
263	0.107
264	0.107
264	0.106
265	0.106
265	0.106
265	0.105
266	0.105
266	0.104
267	0.104
267	0.103
268	0.102
268	0.101
269	0.1
269	0.099
270	0.098
270	0.097
271	0.095
271	0.094
272	0.093
272	0.092
272	0.091
273	0.09
273	0.089
274	0.087
274	0.086
275	0.085
275	0.084
276	0.083
276	0.082
277	0.081
277	0.079
278	0.078
278	0.076
278	0.074
279	0.073
279	0.071
280	0.07
280	0.068
281	0.067
281	0.066
282	0.065
282	0.064
283	0.063
283	0.062
284	0.061
284	0.061
285	0.06
285	0.059
285	0.058
286	0.057
286	0.056
287	0.055
287	0.054
288	0.053
288	0.052
289	0.052
289	0.051
290	0.05
290	0.049
291	0.049
291	0.048
292	0.048
292	0.047
292	0.046
293	0.046
293	0.045
294	0.045
294	0.044
295	0.044
295	0.044
296	0.043
296	0.043
297	0.043
297	0.042
298	0.042
298	0.042
298	0.042
299	0.042
299	0.041
300	0.041
300	0.041
301	0.041
301	0.041
302	0.04
302	0.04
303	0.04
303	0.04
304	0.04
304	0.04
305	0.04
305	0.04
305	0.039
306	0.039
306	0.039
307	0.039
307	0.039
308	0.039
308	0.039
309	0.038
309	0.038
310	0.038
310	0.038
311	0.038
311	0.038
311	0.038
312	0.038
312	0.038
313	0.037
313	0.037
314	0.037
314	0.037
315	0.037
315	0.036
316	0.036
316	0.036
317	0.036
317	0.036
318	0.035
318	0.035
318	0.035
319	0.035
319	0.035
320	0.034
320	0.034
321	0.034
321	0.034
322	0.034
322	0.034
323	0.034
323	0.033
324	0.033
324	0.033
324	0.033
325	0.032
325	0.032
326	0.032
326	0.032
327	0.031
327	0.031
328	0.031
328	0.031
329	0.03
329	0.03
330	0.03
330	0.03
330	0.03
331	0.03
331	0.029
332	0.029
332	0.029
333	0.029
333	0.029
334	0.028
334	0.028
335	0.028
335	0.028
336	0.027
336	0.027
336	0.027
337	0.027
337	0.027
338	0.027
338	0.026
339	0.026
339	0.026
340	0.026
340	0.026
341	0.025
341	0.025
342	0.025
342	0.025
342	0.024
343	0.024
343	0.024
344	0.024
344	0.023
345	0.023
345	0.023
346	0.023
346	0.023
347	0.022
347	0.022
348	0.022
348	0.022
348	0.022
349	0.021
349	0.021
350	0.021
350	0.021
351	0.02
351	0.02
352	0.019
352	0.019
353	0.019
353	0.018
354	0.018
354	0.018
354	0.017
355	0.017
355	0.017
356	0.016
356	0.016
357	0.016
357	0.015
358	0.015
358	0.015
359	0.015
359	0.016
360	0.016
360	0.016
360	0.016
361	0.017
361	0.017
362	0.017
362	0.018
363	0.018
363	0.018
364	0.018
364	0.018
365	0.018
365	0.017
366	0.017
366	0.017
366	0.017
367	0.017
367	0.017
368	0.017
368	0.017
369	0.016
369	0.016
370	0.016
370	0.016
371	0.016
371	0.016
372	0.016
372	0.016
372	0.016
373	0.016
373	0.016
374	0.016
374	0.016
375	0.016
375	0.016
376	0.016
376	0.016
377	0.016
377	0.016
378	0.016
378	0.017
378	0.017
379	0.017
379	0.017
380	0.017
380	0.017
381	0.017
381	0.017
382	0.017
382	0.017
383	0.017
383	0.017
383	0.017
384	0.017
384	0.017
385	0.017
385	0.017
386	0.017
386	0.017
387	0.017
387	0.017
388	0.017
388	0.017
389	0.017
389	0.017
389	0.017
390	0.018
390	0.018
391	0.018
391	0.018
392	0.018
392	0.018
393	0.019
393	0.019
394	0.019
394	0.019
394	0.019
395	0.018
395	0.018
396	0.018
396	0.018
397	0.019
397	0.019
398	0.019
398	0.019
399	0.018
399	0.018
400	0.018
400	0.018
400	0.018
401	0.018
401	0.018
402	0.017
402	0.017
403	0.017
403	0.018
404	0.018
404	0.018
405	0.017
405	0.017
405	0.017
406	0.017
406	0.017
407	0.017
407	0.017
408	0.017
408	0.016
409	0.016
409	0.016
410	0.017
410	0.017
411	0.017
411	0.017
411	0.016
412	0.016
412	0.016
413	0.016
413	0.016
414	0.016
414	0.016
415	0.016
415	0.016
416	0.016
416	0.015
416	0.015
417	0.015
417	0.015
418	0.015
418	0.015
419	0.015
419	0.016
420	0.016
420	0.016
421	0.016
421	0.017
421	0.017
422	0.017
422	0.017
423	0.017
423	0.017
424	0.017
424	0.016
425	0.016
425	0.016
426	0.015
426	0.015
427	0.015
427	0.015
427	0.016
428	0.016
428	0.016
429	0.017
429	0.017
430	0.017
430	0.017
431	0.017
431	0.016
432	0.016
432	0.016
432	0.015
433	0.015
433	0.015
434	0.014
434	0.014
435	0.014
435	0.014
436	0.014
436	0.014
437	0.014
437	0.014
437	0.014
438	0.014
438	0.014
439	0.014
439	0.013
440	0.013
440	0.013
441	0.013
441	0.013
442	0.014
442	0.014
442	0.014
443	0.014
443	0.014
444	0.015
444	0.015
445	0.015
445	0.015
446	0.016
446	0.015
447	0.015
447	0.015
447	0.015
448	0.015
448	0.015
449	0.015
449	0.014
450	0.014
450	0.014
451	0.013
451	0.013
452	0.013
452	0.013
452	0.013
453	0.012
453	0.012
454	0.011
454	0.011
455	0.01
455	0.01
456	0.01
456	0.01
457	0.009
457	0.009
458	0.009
458	0.009
458	0.009
459	0.01
459	0.01
460	0.009
460	0.009
461	0.009
461	0.009
462	0.009
462	0.009
463	0.009
463	0.009
463	0.01
464	0.009
464	0.009
465	0.009
465	0.009
466	0.009
466	0.008
467	0.008
467	0.007
467	0.007
468	0.006
468	0.004
469	0.004
469	0.003
470	0.003
470	0.003
471	0.003
471	0.002
472	0.002
472	0.002
472	0.003
473	0.004
473	0.004
474	0.004
474	0.004
475	0.004
475	0.004
476	0.004
476	0.004
477	0.004
477	0.004
477	0.003
478	0.003
478	0.003
479	0.004
479	0.004
480	0.005
480	0.005
481	0.005
481	0.006
482	0.006
482	0.007
482	0.007
483	0.008
483	0.009
484	0.01
484	0.01
485	0.01
485	0.01
486	0.01
486	0.01
487	0.01
487	0.01
487	0.009
488	0.009
488	0.008
489	0.007
489	0.006
490	0.006
490	0.006
491	0.005
491	0.005
492	0.005
492	0.005
492	0.006
493	0.006
493	0.006
494	0.006
494	0.007
495	0.007
495	0.007
496	0.007
496	0.007
496	0.007
497	0.007
497	0.007
498	0.007
498	0.007
499	0.007
499	0.006
500	0.006
500	0.007
501	0.007
501	0.007
501	0.008
502	0.008
502	0.008
503	0.009
503	0.009
504	0.009
504	0.009
505	0.008
505	0.008
506	0.007
506	0.007
506	0.007
507	0.006
507	0.006
508	0.006
508	0.006
509	0.006
509	0.006
510	0.006
510	0.006
511	0.005
511	0.005
511	0.005
512	0.005
512	0.004
513	0.004
513	0.003
514	0.002
514	0.002
515	0.002
515	0.002
515	0.002
516	0.001
516	0.001
517	0.001
517	0.001
518	0.001
518	0.002
519	0.002
519	0.001
520	0.001
520	0
520	-0
521	-0.001
521	-0.002
522	-0.004
522	-0.005
523	-0.007
523	-0.008
524	-0.009
524	-0.009
524	-0.009
525	-0.009
525	-0.008
526	-0.007
526	-0.006
527	-0.004
527	-0.002
528	-0.001
528	0.001
529	0.002
529	0.003
529	0.004
530	0.004
530	0.005
531	0.005
531	0.006
532	0.006
532	0.006
533	0.006
533	0.007
533	0.007
534	0.007
534	0.007
535	0.007
535	0.007
536	0.007
536	0.007
537	0.007
537	0.008
538	0.008
538	0.008
538	0.008
539	0.008
539	0.008
540	0.009
540	0.009
541	0.008
541	0.008
542	0.008
542	0.008
542	0.008
543	0.008
543	0.008
544	0.008
544	0.009
545	0.009
545	0.01
546	0.011
546	0.011
547	0.011
547	0.01
547	0.01
548	0.01
548	0.01
549	0.01
549	0.009
550	0.009
550	0.009
551	0.009
551	0.009
551	0.009
552	0.009
552	0.009
553	0.01
553	0.011
554	0.011
554	0.011
555	0.011
555	0.011
556	0.01
556	0.01
556	0.01
557	0.01
557	0.01
558	0.009
558	0.009
559	0.009
559	0.01
560	0.01
560	0.01
560	0.011
561	0.012
561	0.012
562	0.013
562	0.013
563	0.013
563	0.012
564	0.012
564	0.012
564	0.012
565	0.012
565	0.012
566	0.011
566	0.011
567	0.012
567	0.013
568	0.014
568	0.015
568	0.017
569	0.019
569	0.021
570	0.022
570	0.023
571	0.024
571	0.026
572	0.027
572	0.027
573	0.028
573	0.028
573	0.028
574	0.028
574	0.028
575	0.028
575	0.03
576	0.031
576	0.03
577	0.029
577	0.029
577	0.029
578	0.029
578	0.03
579	0.031
579	0.033
580	0.033
580	0.031
581	0.03
581	0.03
581	0.03
582	0.03
582	0.031
583	0.032
583	0.031
584	0.03
584	0.027
585	0.027
585	0.027
585	0.028
586	0.028
586	0.028
587	0.027
587	0.026
588	0.024
588	0.023
589	0.023
589	0.023
590	0.023
590	0.022
590	0.024
591	0.025
591	0.025
592	0.025
592	0.025
593	0.025
593	0.025
594	0.025
594	0.024
594	0.023
595	0.023
595	0.022
596	0.021
596	0.022
597	0.024
597	0.025
598	0.026
598	0.027
598	0.028
599	0.029
599	0.028
600	0.028
600	0.027
601	0.027
601	0.027
602	0.026
602	0.025
602	0.025
603	0.025
603	0.025
604	0.026
604	0.026
605	0.027
605	0.028
606	0.028
606	0.027
606	0.027
607	0.026
607	0.026
608	0.025
608	0.024
609	0.023
609	0.023
610	0.022
610	0.021
610	0.021
611	0.021
611	0.022
612	0.022
612	0.023
613	0.024
613	0.025
614	0.025
614	0.025
614	0.025
615	0.024
615	0.024
616	0.024
616	0.023
617	0.023
617	0.022
618	0.02
618	0.02
618	0.02
619	0.02
619	0.02
620	0.022
620	0.022
621	0.022
621	0.022
622	0.023
622	0.023
622	0.023
623	0.022
623	0.023
624	0.023
624	0.023
625	0.022
625	0.022
626	0.022
626	0.021
626	0.021
627	0.021
627	0.021
628	0.021
628	0.021
629	0.021
629	0.02
630	0.019
630	0.019
630	0.019
631	0.018
631	0.018
632	0.018
632	0.018
633	0.018
633	0.018
634	0.018
634	0.019
634	0.02
635	0.021
635	0.022
636	0.023
636	0.023
637	0.024
637	0.024
638	0.024
638	0.025
638	0.025
639	0.025
639	0.025
640	0.026
640	0.027
641	0.027
641	0.028
642	0.029
642	0.031
642	0.031
643	0.032
643	0.032
644	0.033
644	0.033
645	0.033
645	0.033
646	0.033
646	0.034
646	0.035
647	0.036
647	0.037
648	0.038
648	0.039
649	0.04
649	0.041
650	0.043
650	0.044
650	0.045
651	0.046
651	0.046
652	0.046
652	0.047
653	0.048
653	0.054
653	0.059
654	0.05
654	0.043
655	0.042
655	0.043
656	0.043
656	0.044
657	0.045
657	0.045
657	0.045
658	0.042
658	0.038
659	0.045
659	0.055
660	0.06
660	0.06
661	0.06
661	0.061
661	0.062
662	0.063
662	0.064
663	0.066
663	0.067
664	0.068
664	0.069
665	0.07
665	0.071
665	0.072
666	0.073
666	0.073
667	0.074
667	0.074
668	0.075
668	0.076
669	0.076
669	0.078
669	0.08
670	0.082
670	0.083
671	0.083
671	0.084
672	0.085
672	0.086
672	0.086
673	0.086
673	0.087
674	0.087
674	0.086
675	0.085
675	0.085
676	0.086
676	0.086
676	0.086
677	0.086
677	0.087
678	0.088
678	0.088
679	0.088
679	0.088
680	0.089
680	0.09
680	0.09
681	0.09
681	0.091
682	0.091
682	0.092
683	0.092
683	0.094
684	0.095
684	0.095
684	0.095
685	0.096
685	0.097
686	0.098
686	0.098
687	0.098
687	0.099
687	0.099
688	0.098
688	0.098
689	0.099
689	0.099
690	0.099
690	0.098
691	0.098
691	0.098
691	0.097
692	0.097
692	0.097
693	0.097
693	0.097
694	0.097
694	0.096
695	0.097
695	0.099
695	0.099
696	0.099
696	0.098
697	0.098
697	0.098
698	0.098
698	0.097
698	0.097
699	0.097
699	0.096
700	0.094
700	0.095
701	0.095
701	0.095
702	0.095
702	0.095
702	0.095
703	0.094
703	0.094
704	0.093
704	0.093
705	0.093
705	0.093
705	0.092
706	0.091
706	0.091
707	0.09
707	0.089
708	0.088
708	0.087
709	0.087
709	0.086
709	0.084
710	0.083
710	0.082
711	0.082
711	0.081
712	0.081
712	0.08
713	0.08
713	0.08
713	0.08
714	0.08
714	0.079
715	0.079
715	0.079
716	0.079
716	0.079
716	0.079
717	0.079
717	0.079
718	0.078
718	0.078
719	0.078
719	0.078
720	0.077
720	0.076
720	0.074
721	0.073
721	0.071
722	0.07
722	0.069
723	0.068
723	0.067
723	0.065
724	0.064
724	0.064
725	0.063
725	0.062
726	0.062
726	0.061
727	0.061
727	0.06
727	0.06
728	0.059
728	0.059
729	0.059
729	0.059
730	0.058
730	0.057
730	0.057
731	0.057
731	0.056
732	0.056
732	0.056
733	0.055
733	0.055
734	0.055
734	0.054
734	0.054
735	0.054
735	0.053
736	0.052
736	0.052
737	0.051
737	0.051
737	0.05
738	0.048
738	0.046
739	0.044
739	0.043
740	0.042
740	0.041
741	0.04
741	0.038
741	0.035
742	0.032
742	0.03
743	0.028
743	0.027
744	0.025
744	0.024
744	0.022
745	0.021
745	0.019
746	0.019
746	0.019
747	0.02
747	0.02
748	0.021
748	0.022
748	0.023
749	0.023
749	0.024
750	0.025
750	0.025
751	0.026
751	0.026
751	0.026
752	0.025
752	0.024
753	0.023
753	0.022
754	0.022
754	0.022
754	0.022
755	0.022
755	0.023
756	0.023
756	0.022
757	0.023
757	0.023
758	0.023
758	0.023
758	0.024
759	0.024
759	0.023
760	0.022
760	0.02
761	0.02
761	0.02
761	0.019
762	0.018
762	0.018
763	0.017
763	0.015
764	0.013
764	0.012
764	0.011
765	0.009
765	0.008
766	0.007
766	0.006
767	0.006
767	0.004
768	0.002
768	0.001
768	-0
769	-0.001
769	-0.002
770	-0.003
770	-0.005
771	-0.007
771	-0.01
771	-0.013
772	-0.016
772	-0.018
773	-0.02
773	-0.023
774	-0.026
774	-0.029
775	-0.031
775	-0.033
775	-0.035
776	-0.038
776	-0.041
777	-0.043
777	-0.046
778	-0.049
778	-0.052
778	-0.056
779	-0.058
779	-0.061
780	-0.066
780	-0.071
781	-0.077
781	-0.083
781	-0.089
782	-0.095
782	-0.101
783	-0.107
783	-0.112
784	-0.116
784	-0.12
784	-0.123
785	-0.126
785	-0.128
786	-0.128
786	-0.126
787	-0.122
787	-0.118
788	-0.117
788	-0.118
788	-0.119
789	-0.122
789	-0.122
790	-0.12
790	-0.119
791	-0.121
791	-0.123
791	-0.126
792	-0.121
792	-0.111
793	-0.106
793	-0.102
794	-0.1
794	-0.101
794	-0.105
795	-0.107
795	-0.106
796	-0.106
796	-0.108
797	-0.116
797	-0.126
797	-0.133
798	-0.137
798	-0.14
799	-0.141
799	-0.141
800	-0.141
800	-0.143
801	-0.146
801	-0.147
801	-0.148
802	-0.149
802	-0.15
803	-0.151
803	-0.15
804	-0.149
804	-0.143
804	-0.136
805	-0.131
805	-0.128
806	-0.126
806	-0.124
807	-0.122
807	-0.122
807	-0.122
808	-0.122
808	-0.123
809	-0.128
809	-0.134
810	-0.138
810	-0.141
810	-0.145
811	-0.149
811	-0.15
812	-0.147
812	-0.144
813	-0.145
813	-0.146
813	-0.147
814	-0.149
814	-0.148
815	-0.146
815	-0.143
816	-0.141
816	-0.141
817	-0.145
817	-0.147
817	-0.147
818	-0.145
818	-0.141
819	-0.136
819	-0.132
820	-0.13
820	-0.128
820	-0.123
821	-0.117
821	-0.11
822	-0.102
822	-0.093
823	-0.085
823	-0.079
823	-0.073
824	-0.066
824	-0.059
825	-0.052
825	-0.045
826	-0.039
826	-0.034
826	-0.03
827	-0.026
827	-0.023
828	-0.02
828	-0.018
829	-0.016
829	-0.015
829	-0.014
830	-0.015
830	-0.014
831	-0.012
831	-0.011
832	-0.01
832	-0.009
832	-0.008
833	-0.007
833	-0.006
834	-0.004
834	-0.003
835	-0.002
835	-0.001
835	-0.001
836	-0
836	0
837	0
837	0
838	0
838	0
839	0
839	0
839	0
840	0
840	0.001
841	0.002
841	0.002
842	0.004
842	0.005
842	0.006
843	0.008
843	0.009
844	0.01
844	0.011
845	0.012
845	0.013
845	0.014
846	0.014
846	0.014
847	0.014
847	0.015
848	0.016
848	0.017
848	0.018
849	0.019
849	0.02
850	0.021
850	0.022
851	0.023
851	0.024
851	0.024
852	0.024
852	0.024
853	0.024
853	0.023
854	0.022
854	0.021
854	0.02
855	0.019
855	0.018
856	0.018
856	0.017
857	0.017
857	0.018
857	0.018
858	0.019
858	0.021
859	0.022
859	0.024
860	0.026
860	0.028
860	0.03
861	0.031
861	0.033
862	0.034
862	0.034
863	0.035
863	0.034
863	0.034
864	0.033
864	0.033
865	0.032
865	0.032
866	0.031
866	0.03
866	0.03
867	0.029
867	0.029
868	0.028
868	0.028
869	0.027
869	0.026
869	0.025
870	0.024
870	0.023
871	0.022
871	0.022
872	0.021
872	0.02
872	0.019
873	0.019
873	0.019
874	0.019
874	0.019
875	0.019
875	0.019
875	0.019
876	0.019
876	0.019
877	0.019
877	0.019
878	0.02
878	0.02
878	0.02
879	0.021
879	0.021
880	0.021
880	0.021
881	0.021
881	0.022
881	0.022
882	0.022
882	0.022
883	0.023
883	0.024
884	0.024
884	0.024
884	0.025
885	0.025
885	0.026
886	0.027
886	0.027
887	0.027
887	0.027
887	0.027
888	0.028
888	0.028
889	0.029
889	0.029
890	0.03
890	0.031
890	0.031
891	0.032
891	0.032
892	0.033
892	0.033
893	0.033
893	0.033
893	0.033
894	0.033
894	0.032
895	0.031
895	0.03
895	0.029
896	0.027
896	0.026
897	0.024
897	0.023
898	0.022
898	0.02
898	0.019
899	0.019
899	0.018
900	0.018
900	0.018
901	0.018
901	0.018
901	0.019
902	0.019
902	0.019
903	0.019
903	0.019
904	0.018
904	0.017
904	0.017
905	0.016
905	0.016
906	0.015
906	0.015
907	0.015
907	0.016
907	0.016
908	0.017
908	0.018
909	0.019
909	0.02
910	0.021
910	0.022
910	0.023
911	0.024
911	0.024
912	0.025
912	0.025
913	0.025
913	0.024
913	0.024
914	0.023
914	0.022
915	0.022
915	0.021
916	0.02
916	0.02
916	0.02
917	0.02
917	0.02
918	0.021
918	0.021
918	0.021
919	0.021
919	0.021
920	0.021
920	0.021
921	0.021
921	0.021
921	0.021
922	0.02
922	0.021
923	0.021
923	0.021
924	0.021
924	0.021
924	0.021
925	0.021
925	0.02
926	0.02
926	0.02
927	0.02
927	0.019
927	0.018
928	0.018
928	0.017
929	0.017
929	0.016
930	0.016
930	0.015
930	0.015
931	0.014
931	0.014
932	0.014
932	0.013
933	0.013
933	0.013
933	0.013
934	0.012
934	0.012
935	0.011
935	0.011
935	0.011
936	0.011
936	0.01
937	0.011
937	0.011
938	0.011
938	0.011
938	0.012
939	0.012
939	0.013
940	0.014
940	0.015
941	0.015
941	0.016
941	0.017
942	0.018
942	0.019
943	0.02
943	0.021
944	0.022
944	0.023
944	0.024
945	0.025
945	0.026
946	0.027
946	0.027
946	0.027
947	0.028
947	0.028
948	0.028
948	0.028
949	0.027
949	0.027
949	0.027
950	0.027
950	0.027
951	0.028
951	0.028
952	0.027
952	0.028
952	0.028
953	0.028
953	0.028
954	0.027
954	0.027
955	0.027
955	0.027
955	0.027
956	0.027
956	0.026
957	0.026
957	0.025
957	0.024
958	0.024
958	0.023
959	0.023
959	0.022
960	0.021
960	0.02
960	0.018
961	0.017
961	0.015
962	0.014
962	0.013
963	0.011
963	0.01
963	0.009
964	0.008
964	0.008
965	0.008
965	0.007
966	0.008
966	0.008
966	0.009
967	0.009
967	0.01
968	0.01
968	0.01
968	0.01
969	0.011
969	0.011
970	0.011
970	0.011
971	0.011
971	0.012
971	0.012
972	0.013
972	0.013
973	0.014
973	0.015
974	0.016
974	0.017
974	0.017
975	0.018
975	0.019
976	0.019
976	0.019
976	0.019
977	0.019
977	0.018
978	0.017
978	0.017
979	0.016
979	0.015
979	0.014
980	0.013
980	0.012
981	0.012
981	0.011
982	0.01
982	0.01
982	0.01
983	0.01
983	0.01
984	0.01
984	0.01
984	0.011
985	0.011
985	0.012
986	0.013
986	0.013
987	0.013
987	0.013
987	0.014
988	0.014
988	0.014
989	0.014
989	0.014
990	0.014
990	0.014
990	0.015
991	0.015
991	0.016
992	0.017
992	0.017
992	0.018
993	0.019
993	0.019
994	0.02
994	0.021
995	0.021
995	0.021
995	0.021
996	0.02
996	0.019
997	0.019
997	0.018
997	0.017
998	0.016
998	0.016
999	0.015
999	0.015
1000	0.014
1000	0.014
1000	0.014
1001	0.014
1001	0.014
1002	0.014
1002	0.014
1003	0.014
1003	0.013
1003	0.013
1004	0.013
1004	0.012
1005	0.012
1005	0.012
1005	0.011
1006	0.011
1006	0.011
1007	0.011
1007	0.011
1008	0.011
1008	0.011
1008	0.012
1009	0.012
1009	0.013
1010	0.013
1010	0.014
1010	0.014
1011	0.014
1011	0.014
1012	0.014
1012	0.015
1013	0.015
1013	0.014
1013	0.014
1014	0.014
1014	0.013
1015	0.013
1015	0.013
1016	0.013
1016	0.013
1016	0.014
1017	0.014
1017	0.014
1018	0.014
1018	0.014
1018	0.015
1019	0.015
1019	0.015
1020	0.015
1020	0.015
1021	0.014
1021	0.014
1021	0.013
1022	0.013
1022	0.013
1023	0.012
1023	0.012
1023	0.011
1024	0.011
1024	0.01
1025	0.01
1025	0.01
1026	0.009
1026	0.009
1026	0.009
1027	0.009
1027	0.01
1028	0.01
1028	0.01
1028	0.011
1029	0.011
1029	0.012
1030	0.012
1030	0.012
1031	0.013
1031	0.013
1031	0.013
1032	0.013
1032	0.013
1033	0.013
1033	0.012
1033	0.011
1034	0.01
1034	0.009
1035	0.008
1035	0.007
1036	0.006
1036	0.005
1036	0.005
1037	0.005
1037	0.005
1038	0.004
1038	0.005
1039	0.005
1039	0.005
1039	0.005
1040	0.005
1040	0.005
1041	0.005
1041	0.004
1041	0.004
1042	0.003
1042	0.003
1043	0.002
1043	0.001
1044	0.001
1044	0
1044	0.001
1045	0
1045	0
1046	0
1046	0.001
1046	0.001
1047	0.001
1047	0.002
1048	0.003
1048	0.004
1049	0.004
1049	0.004
1049	0.005
1050	0.005
1050	0.006
1051	0.007
1051	0.008
1051	0.009
1052	0.01
1052	0.011
1053	0.012
1053	0.013
1053	0.014
1054	0.015
1054	0.017
1055	0.018
1055	0.018
1056	0.018
1056	0.017
1056	0.017
1057	0.016
1057	0.015
1058	0.015
1058	0.014
1058	0.014
1059	0.013
1059	0.013
1060	0.012
1060	0.012
1061	0.012
1061	0.013
1061	0.013
1062	0.013
1062	0.013
1063	0.013
1063	0.012
1063	0.012
1064	0.012
1064	0.013
1065	0.014
1065	0.013
1066	0.014
1066	0.014
1066	0.015
1067	0.016
1067	0.017
1068	0.018
1068	0.019
1068	0.02
1069	0.02
1069	0.021
1070	0.022
1070	0.023
1071	0.024
1071	0.025
1071	0.026
1072	0.027
1072	0.029
1073	0.029
1073	0.031
1073	0.032
1074	0.034
1074	0.035
1075	0.036
1075	0.037
1076	0.038
1076	0.039
1076	0.039
1077	0.04
1077	0.041
1078	0.042
1078	0.043
1078	0.045
1079	0.046
1079	0.047
1080	0.049
1080	0.05
1080	0.051
1081	0.053
1081	0.054
1082	0.055
1082	0.056
1083	0.056
1083	0.058
1083	0.059
1084	0.06
1084	0.062
1085	0.063
1085	0.065
1085	0.066
1086	0.069
1086	0.07
1087	0.072
1087	0.073
1088	0.074
1088	0.075
1088	0.078
1089	0.08
1089	0.082
1090	0.084
1090	0.087
1090	0.089
1091	0.092
1091	0.095
1092	0.099
1092	0.104
1092	0.107
1093	0.109
1093	0.114
1094	0.119
1094	0.123
1095	0.128
1095	0.133
1095	0.14
1096	0.145
1096	0.152
1097	0.159
1097	0.166
1097	0.176
1098	0.184
1098	0.192
1099	0.203
1099	0.213
1100	0.226
1100	0.237
1100	0.252
1101	0.269
1101	0.285
1102	0.306
1102	0.329
1102	0.355
1103	0.385
1103	0.418
1104	0.459
1104	0.502
1104	0.558
1105	0.618
1105	0.69
1106	0.777
1106	0.904
1107	1.1
1107	1.691
1107	-0
1108	-0
1108	-0
1109	-0
1109	-0
1109	-0
1110	-0
1110	-0
1111	-0
1111	-0
