Data from 15c-2-2a_Absorbance__2__01803.txt Node

Date: Wed Jan 24 13:03:57 CET 2024
User: Marek
Spectrometer: MAYP115816
Trigger mode: 0
Integration Time (sec): 2.000000E-1
Scans to average: 10
Electric dark correction enabled: true
Nonlinearity correction enabled: true
Boxcar width: 5
XAxis mode: Wavelengths
Number of Pixels in Spectrum: 2068
>>>>>Begin Spectral Data<<<<<
199	-0.561
199	-0.514
200	-0.435
200	-0.369
201	-0.338
201	-0.32
202	-0.301
202	-0.295
203	-0.287
203	-0.282
204	-0.268
204	-0.255
205	-0.242
205	-0.236
205	-0.239
206	-0.238
206	-0.239
207	-0.237
207	-0.238
208	-0.239
208	-0.24
209	-0.24
209	-0.246
210	-0.247
210	-0.248
211	-0.248
211	-0.251
212	-0.252
212	-0.251
213	-0.251
213	-0.25
213	-0.251
214	-0.251
214	-0.247
215	-0.248
215	-0.247
216	-0.248
216	-0.249
217	-0.247
217	-0.249
218	-0.251
218	-0.25
219	-0.247
219	-0.248
220	-0.249
220	-0.251
221	-0.255
221	-0.257
221	-0.253
222	-0.249
222	-0.247
223	-0.243
223	-0.242
224	-0.24
224	-0.232
225	-0.227
225	-0.221
226	-0.215
226	-0.206
227	-0.2
227	-0.196
228	-0.185
228	-0.176
229	-0.164
229	-0.149
229	-0.134
230	-0.119
230	-0.1
231	-0.082
231	-0.063
232	-0.046
232	-0.028
233	-0.012
233	0.004
234	0.018
234	0.03
235	0.041
235	0.051
236	0.059
236	0.067
236	0.073
237	0.079
237	0.084
238	0.087
238	0.092
239	0.095
239	0.098
240	0.101
240	0.103
241	0.104
241	0.106
242	0.108
242	0.109
243	0.111
243	0.112
243	0.112
244	0.114
244	0.115
245	0.115
245	0.116
246	0.117
246	0.119
247	0.119
247	0.121
248	0.122
248	0.123
249	0.125
249	0.126
250	0.127
250	0.128
250	0.13
251	0.131
251	0.132
252	0.134
252	0.135
253	0.136
253	0.136
254	0.137
254	0.139
255	0.139
255	0.14
256	0.141
256	0.141
257	0.142
257	0.142
258	0.143
258	0.143
258	0.143
259	0.144
259	0.144
260	0.144
260	0.144
261	0.144
261	0.144
262	0.143
262	0.143
263	0.143
263	0.142
264	0.142
264	0.141
265	0.141
265	0.14
265	0.139
266	0.139
266	0.138
267	0.137
267	0.136
268	0.134
268	0.133
269	0.132
269	0.13
270	0.129
270	0.127
271	0.126
271	0.125
272	0.123
272	0.122
272	0.12
273	0.119
273	0.117
274	0.116
274	0.114
275	0.113
275	0.111
276	0.11
276	0.108
277	0.107
277	0.105
278	0.104
278	0.102
278	0.1
279	0.098
279	0.096
280	0.094
280	0.092
281	0.09
281	0.088
282	0.087
282	0.085
283	0.084
283	0.082
284	0.081
284	0.08
285	0.079
285	0.078
285	0.077
286	0.076
286	0.074
287	0.073
287	0.072
288	0.071
288	0.07
289	0.069
289	0.068
290	0.067
290	0.066
291	0.065
291	0.064
292	0.063
292	0.063
292	0.062
293	0.061
293	0.06
294	0.06
294	0.059
295	0.059
295	0.058
296	0.058
296	0.057
297	0.057
297	0.056
298	0.056
298	0.056
298	0.055
299	0.055
299	0.055
300	0.054
300	0.054
301	0.054
301	0.054
302	0.053
302	0.053
303	0.053
303	0.053
304	0.053
304	0.053
305	0.053
305	0.053
305	0.053
306	0.053
306	0.052
307	0.052
307	0.052
308	0.052
308	0.052
309	0.052
309	0.052
310	0.051
310	0.051
311	0.051
311	0.051
311	0.051
312	0.051
312	0.051
313	0.05
313	0.05
314	0.05
314	0.05
315	0.05
315	0.05
316	0.05
316	0.049
317	0.049
317	0.049
318	0.049
318	0.049
318	0.049
319	0.049
319	0.049
320	0.049
320	0.048
321	0.048
321	0.048
322	0.048
322	0.048
323	0.048
323	0.048
324	0.048
324	0.047
324	0.047
325	0.047
325	0.047
326	0.047
326	0.047
327	0.046
327	0.046
328	0.046
328	0.046
329	0.046
329	0.046
330	0.046
330	0.046
330	0.046
331	0.046
331	0.045
332	0.045
332	0.045
333	0.045
333	0.045
334	0.044
334	0.044
335	0.044
335	0.044
336	0.044
336	0.044
336	0.043
337	0.043
337	0.043
338	0.043
338	0.043
339	0.043
339	0.043
340	0.043
340	0.043
341	0.042
341	0.042
342	0.042
342	0.042
342	0.042
343	0.042
343	0.042
344	0.042
344	0.041
345	0.041
345	0.041
346	0.041
346	0.041
347	0.041
347	0.041
348	0.04
348	0.041
348	0.041
349	0.04
349	0.04
350	0.04
350	0.041
351	0.04
351	0.04
352	0.04
352	0.04
353	0.04
353	0.04
354	0.039
354	0.039
354	0.039
355	0.039
355	0.039
356	0.039
356	0.039
357	0.038
357	0.038
358	0.038
358	0.038
359	0.038
359	0.038
360	0.038
360	0.038
360	0.038
361	0.038
361	0.038
362	0.039
362	0.039
363	0.039
363	0.039
364	0.039
364	0.039
365	0.039
365	0.039
366	0.039
366	0.039
366	0.039
367	0.039
367	0.039
368	0.039
368	0.039
369	0.039
369	0.039
370	0.039
370	0.039
371	0.039
371	0.039
372	0.039
372	0.039
372	0.04
373	0.04
373	0.04
374	0.04
374	0.04
375	0.04
375	0.04
376	0.04
376	0.04
377	0.04
377	0.04
378	0.04
378	0.04
378	0.04
379	0.04
379	0.04
380	0.04
380	0.04
381	0.04
381	0.04
382	0.04
382	0.04
383	0.04
383	0.04
383	0.04
384	0.04
384	0.04
385	0.04
385	0.04
386	0.04
386	0.04
387	0.04
387	0.04
388	0.04
388	0.041
389	0.041
389	0.041
389	0.041
390	0.041
390	0.041
391	0.041
391	0.041
392	0.041
392	0.041
393	0.041
393	0.041
394	0.041
394	0.041
394	0.041
395	0.041
395	0.041
396	0.041
396	0.041
397	0.041
397	0.041
398	0.041
398	0.041
399	0.041
399	0.041
400	0.04
400	0.04
400	0.041
401	0.041
401	0.041
402	0.041
402	0.041
403	0.041
403	0.041
404	0.041
404	0.041
405	0.041
405	0.041
405	0.041
406	0.041
406	0.041
407	0.041
407	0.041
408	0.041
408	0.041
409	0.041
409	0.042
410	0.042
410	0.042
411	0.042
411	0.042
411	0.042
412	0.042
412	0.042
413	0.042
413	0.041
414	0.042
414	0.042
415	0.041
415	0.041
416	0.041
416	0.041
416	0.041
417	0.041
417	0.041
418	0.041
418	0.041
419	0.041
419	0.041
420	0.041
420	0.041
421	0.042
421	0.042
421	0.042
422	0.042
422	0.042
423	0.042
423	0.041
424	0.041
424	0.041
425	0.041
425	0.041
426	0.041
426	0.041
427	0.041
427	0.041
427	0.041
428	0.041
428	0.042
429	0.042
429	0.042
430	0.042
430	0.042
431	0.042
431	0.042
432	0.042
432	0.041
432	0.041
433	0.041
433	0.041
434	0.042
434	0.042
435	0.042
435	0.042
436	0.042
436	0.042
437	0.042
437	0.041
437	0.041
438	0.041
438	0.041
439	0.041
439	0.041
440	0.041
440	0.041
441	0.041
441	0.041
442	0.041
442	0.041
442	0.041
443	0.041
443	0.041
444	0.041
444	0.041
445	0.042
445	0.042
446	0.042
446	0.042
447	0.042
447	0.042
447	0.042
448	0.042
448	0.042
449	0.042
449	0.041
450	0.041
450	0.041
451	0.041
451	0.041
452	0.041
452	0.041
452	0.041
453	0.041
453	0.041
454	0.041
454	0.041
455	0.04
455	0.04
456	0.04
456	0.04
457	0.04
457	0.04
458	0.04
458	0.04
458	0.04
459	0.04
459	0.04
460	0.04
460	0.04
461	0.04
461	0.041
462	0.041
462	0.041
463	0.041
463	0.041
463	0.042
464	0.041
464	0.041
465	0.041
465	0.041
466	0.041
466	0.041
467	0.04
467	0.04
467	0.04
468	0.04
468	0.039
469	0.04
469	0.04
470	0.04
470	0.04
471	0.04
471	0.04
472	0.04
472	0.04
472	0.041
473	0.041
473	0.041
474	0.041
474	0.041
475	0.041
475	0.041
476	0.041
476	0.041
477	0.041
477	0.041
477	0.041
478	0.04
478	0.041
479	0.041
479	0.041
480	0.042
480	0.042
481	0.042
481	0.042
482	0.042
482	0.043
482	0.043
483	0.043
483	0.044
484	0.044
484	0.043
485	0.043
485	0.042
486	0.042
486	0.042
487	0.042
487	0.042
487	0.042
488	0.042
488	0.042
489	0.042
489	0.043
490	0.044
490	0.045
491	0.045
491	0.045
492	0.046
492	0.046
492	0.046
493	0.047
493	0.047
494	0.048
494	0.048
495	0.048
495	0.048
496	0.048
496	0.049
496	0.049
497	0.049
497	0.049
498	0.049
498	0.049
499	0.049
499	0.049
500	0.049
500	0.05
501	0.05
501	0.05
501	0.051
502	0.051
502	0.051
503	0.051
503	0.052
504	0.052
504	0.052
505	0.052
505	0.052
506	0.052
506	0.052
506	0.052
507	0.051
507	0.052
508	0.052
508	0.052
509	0.053
509	0.053
510	0.053
510	0.054
511	0.054
511	0.054
511	0.054
512	0.055
512	0.054
513	0.054
513	0.054
514	0.054
514	0.054
515	0.055
515	0.055
515	0.055
516	0.055
516	0.056
517	0.056
517	0.057
518	0.057
518	0.057
519	0.057
519	0.057
520	0.058
520	0.058
520	0.058
521	0.058
521	0.058
522	0.057
522	0.058
523	0.058
523	0.058
524	0.058
524	0.058
524	0.058
525	0.059
525	0.059
526	0.059
526	0.059
527	0.059
527	0.059
528	0.059
528	0.059
529	0.058
529	0.058
529	0.058
530	0.057
530	0.057
531	0.057
531	0.057
532	0.057
532	0.057
533	0.057
533	0.056
533	0.056
534	0.056
534	0.056
535	0.056
535	0.056
536	0.055
536	0.055
537	0.055
537	0.055
538	0.055
538	0.055
538	0.055
539	0.055
539	0.055
540	0.056
540	0.055
541	0.055
541	0.055
542	0.055
542	0.055
542	0.055
543	0.055
543	0.055
544	0.055
544	0.055
545	0.055
545	0.056
546	0.056
546	0.056
547	0.055
547	0.055
547	0.055
548	0.055
548	0.055
549	0.055
549	0.055
550	0.055
550	0.054
551	0.054
551	0.054
551	0.054
552	0.055
552	0.054
553	0.055
553	0.055
554	0.055
554	0.054
555	0.054
555	0.054
556	0.054
556	0.054
556	0.054
557	0.054
557	0.055
558	0.055
558	0.054
559	0.054
559	0.054
560	0.054
560	0.054
560	0.054
561	0.054
561	0.055
562	0.054
562	0.054
563	0.054
563	0.053
564	0.053
564	0.053
564	0.053
565	0.054
565	0.053
566	0.053
566	0.052
567	0.052
567	0.052
568	0.052
568	0.053
568	0.053
569	0.053
569	0.053
570	0.053
570	0.053
571	0.053
571	0.053
572	0.053
572	0.053
573	0.053
573	0.053
573	0.052
574	0.052
574	0.052
575	0.052
575	0.053
576	0.053
576	0.051
577	0.05
577	0.05
577	0.05
578	0.05
578	0.051
579	0.052
579	0.053
580	0.052
580	0.05
581	0.049
581	0.049
581	0.05
582	0.05
582	0.051
583	0.051
583	0.05
584	0.048
584	0.046
585	0.047
585	0.048
585	0.048
586	0.048
586	0.048
587	0.047
587	0.046
588	0.045
588	0.045
589	0.046
589	0.046
590	0.047
590	0.047
590	0.048
591	0.049
591	0.049
592	0.049
592	0.048
593	0.048
593	0.048
594	0.047
594	0.046
594	0.046
595	0.046
595	0.045
596	0.045
596	0.047
597	0.048
597	0.049
598	0.049
598	0.049
598	0.05
599	0.05
599	0.049
600	0.049
600	0.048
601	0.048
601	0.048
602	0.047
602	0.047
602	0.047
603	0.047
603	0.048
604	0.048
604	0.049
605	0.049
605	0.05
606	0.049
606	0.048
606	0.048
607	0.047
607	0.047
608	0.047
608	0.046
609	0.045
609	0.045
610	0.045
610	0.044
610	0.045
611	0.046
611	0.046
612	0.047
612	0.048
613	0.048
613	0.049
614	0.049
614	0.048
614	0.048
615	0.048
615	0.048
616	0.048
616	0.047
617	0.047
617	0.047
618	0.046
618	0.047
618	0.047
619	0.048
619	0.049
620	0.05
620	0.05
621	0.05
621	0.051
622	0.051
622	0.051
622	0.051
623	0.051
623	0.051
624	0.051
624	0.051
625	0.05
625	0.051
626	0.05
626	0.05
626	0.051
627	0.051
627	0.051
628	0.051
628	0.051
629	0.051
629	0.051
630	0.05
630	0.05
630	0.05
631	0.051
631	0.051
632	0.051
632	0.051
633	0.052
633	0.052
634	0.053
634	0.054
634	0.055
635	0.055
635	0.056
636	0.057
636	0.057
637	0.058
637	0.058
638	0.058
638	0.059
638	0.059
639	0.059
639	0.06
640	0.06
640	0.061
641	0.062
641	0.063
642	0.064
642	0.065
642	0.066
643	0.067
643	0.067
644	0.068
644	0.068
645	0.068
645	0.068
646	0.068
646	0.069
646	0.069
647	0.069
647	0.07
648	0.071
648	0.071
649	0.073
649	0.074
650	0.075
650	0.076
650	0.076
651	0.077
651	0.077
652	0.078
652	0.079
653	0.08
653	0.085
653	0.086
654	0.07
654	0.058
655	0.056
655	0.056
656	0.057
656	0.058
657	0.058
657	0.058
657	0.058
658	0.056
658	0.053
659	0.066
659	0.084
660	0.091
660	0.092
661	0.092
661	0.093
661	0.095
662	0.096
662	0.097
663	0.099
663	0.1
664	0.101
664	0.101
665	0.102
665	0.103
665	0.104
666	0.105
666	0.105
667	0.106
667	0.107
668	0.107
668	0.108
669	0.109
669	0.11
669	0.112
670	0.113
670	0.114
671	0.114
671	0.114
672	0.115
672	0.116
672	0.116
673	0.117
673	0.117
674	0.117
674	0.117
675	0.117
675	0.117
676	0.118
676	0.118
676	0.118
677	0.118
677	0.119
678	0.119
678	0.119
679	0.119
679	0.119
680	0.12
680	0.12
680	0.12
681	0.12
681	0.121
682	0.121
682	0.121
683	0.122
683	0.123
684	0.123
684	0.123
684	0.123
685	0.124
685	0.124
686	0.124
686	0.125
687	0.125
687	0.125
687	0.125
688	0.125
688	0.125
689	0.126
689	0.126
690	0.125
690	0.125
691	0.124
691	0.124
691	0.123
692	0.123
692	0.122
693	0.123
693	0.123
694	0.122
694	0.122
695	0.123
695	0.124
695	0.124
696	0.123
696	0.123
697	0.123
697	0.122
698	0.122
698	0.121
698	0.121
699	0.121
699	0.12
700	0.119
700	0.12
701	0.12
701	0.12
702	0.12
702	0.12
702	0.119
703	0.119
703	0.118
704	0.117
704	0.117
705	0.117
705	0.116
705	0.115
706	0.114
706	0.113
707	0.112
707	0.111
708	0.11
708	0.109
709	0.109
709	0.108
709	0.106
710	0.105
710	0.105
711	0.105
711	0.104
712	0.104
712	0.104
713	0.103
713	0.103
713	0.103
714	0.102
714	0.102
715	0.103
715	0.103
716	0.103
716	0.103
716	0.103
717	0.103
717	0.103
718	0.103
718	0.103
719	0.103
719	0.103
720	0.102
720	0.101
720	0.099
721	0.098
721	0.097
722	0.096
722	0.094
723	0.093
723	0.093
723	0.091
724	0.09
724	0.09
725	0.089
725	0.089
726	0.089
726	0.088
727	0.087
727	0.087
727	0.087
728	0.086
728	0.086
729	0.086
729	0.085
730	0.085
730	0.084
730	0.084
731	0.083
731	0.083
732	0.082
732	0.082
733	0.082
733	0.082
734	0.082
734	0.082
734	0.082
735	0.082
735	0.081
736	0.081
736	0.081
737	0.08
737	0.08
737	0.079
738	0.078
738	0.076
739	0.075
739	0.075
740	0.074
740	0.073
741	0.073
741	0.071
741	0.07
742	0.068
742	0.067
743	0.066
743	0.065
744	0.064
744	0.063
744	0.062
745	0.061
745	0.06
746	0.06
746	0.06
747	0.06
747	0.06
748	0.061
748	0.061
748	0.062
749	0.062
749	0.063
750	0.063
750	0.063
751	0.063
751	0.063
751	0.063
752	0.062
752	0.061
753	0.06
753	0.06
754	0.059
754	0.059
754	0.059
755	0.059
755	0.059
756	0.059
756	0.058
757	0.058
757	0.059
758	0.06
758	0.06
758	0.06
759	0.06
759	0.06
760	0.059
760	0.059
761	0.06
761	0.061
761	0.061
762	0.061
762	0.061
763	0.061
763	0.06
764	0.059
764	0.058
764	0.058
765	0.057
765	0.057
766	0.057
766	0.057
767	0.057
767	0.056
768	0.055
768	0.056
768	0.056
769	0.056
769	0.055
770	0.054
770	0.053
771	0.052
771	0.05
771	0.049
772	0.048
772	0.047
773	0.046
773	0.045
774	0.045
774	0.044
775	0.045
775	0.045
775	0.044
776	0.045
776	0.045
777	0.046
777	0.046
778	0.046
778	0.046
778	0.045
779	0.046
779	0.045
780	0.044
780	0.044
781	0.043
781	0.043
781	0.042
782	0.042
782	0.042
783	0.043
783	0.043
784	0.043
784	0.043
784	0.044
785	0.044
785	0.044
786	0.046
786	0.046
787	0.047
787	0.048
788	0.047
788	0.047
788	0.047
789	0.046
789	0.046
790	0.045
790	0.044
791	0.042
791	0.041
791	0.04
792	0.04
792	0.039
793	0.038
793	0.038
794	0.038
794	0.038
794	0.039
795	0.04
795	0.041
796	0.041
796	0.041
797	0.04
797	0.041
797	0.041
798	0.041
798	0.041
799	0.04
799	0.039
800	0.038
800	0.036
801	0.034
801	0.034
801	0.032
802	0.031
802	0.03
803	0.03
803	0.029
804	0.03
804	0.03
804	0.031
805	0.031
805	0.032
806	0.033
806	0.034
807	0.035
807	0.036
807	0.037
808	0.038
808	0.038
809	0.038
809	0.038
810	0.038
810	0.038
810	0.037
811	0.037
811	0.037
812	0.036
812	0.035
813	0.034
813	0.033
813	0.032
814	0.032
814	0.032
815	0.032
815	0.032
816	0.031
816	0.031
817	0.031
817	0.032
817	0.033
818	0.033
818	0.034
819	0.034
819	0.034
820	0.033
820	0.033
820	0.033
821	0.033
821	0.033
822	0.034
822	0.034
823	0.034
823	0.034
823	0.034
824	0.034
824	0.035
825	0.035
825	0.036
826	0.035
826	0.034
826	0.034
827	0.034
827	0.033
828	0.032
828	0.032
829	0.031
829	0.03
829	0.029
830	0.027
830	0.027
831	0.027
831	0.027
832	0.026
832	0.026
832	0.026
833	0.026
833	0.026
834	0.026
834	0.027
835	0.027
835	0.027
835	0.027
836	0.027
836	0.026
837	0.026
837	0.026
838	0.025
838	0.025
839	0.024
839	0.024
839	0.024
840	0.023
840	0.023
841	0.023
841	0.024
842	0.024
842	0.025
842	0.026
843	0.026
843	0.027
844	0.027
844	0.028
845	0.028
845	0.028
845	0.029
846	0.028
846	0.028
847	0.027
847	0.028
848	0.028
848	0.028
848	0.029
849	0.03
849	0.03
850	0.031
850	0.031
851	0.032
851	0.032
851	0.032
852	0.032
852	0.031
853	0.031
853	0.03
854	0.028
854	0.027
854	0.026
855	0.025
855	0.024
856	0.023
856	0.022
857	0.022
857	0.022
857	0.023
858	0.023
858	0.025
859	0.026
859	0.027
860	0.029
860	0.031
860	0.033
861	0.034
861	0.035
862	0.036
862	0.036
863	0.036
863	0.036
863	0.035
864	0.035
864	0.034
865	0.033
865	0.032
866	0.031
866	0.031
866	0.03
867	0.029
867	0.029
868	0.028
868	0.028
869	0.027
869	0.026
869	0.024
870	0.023
870	0.022
871	0.021
871	0.02
872	0.019
872	0.019
872	0.018
873	0.017
873	0.017
874	0.017
874	0.017
875	0.017
875	0.016
875	0.016
876	0.016
876	0.016
877	0.017
877	0.017
878	0.017
878	0.017
878	0.018
879	0.018
879	0.018
880	0.018
880	0.018
881	0.018
881	0.019
881	0.019
882	0.019
882	0.02
883	0.02
883	0.021
884	0.021
884	0.021
884	0.022
885	0.022
885	0.023
886	0.023
886	0.023
887	0.023
887	0.023
887	0.023
888	0.023
888	0.023
889	0.024
889	0.024
890	0.025
890	0.025
890	0.026
891	0.026
891	0.027
892	0.027
892	0.027
893	0.027
893	0.027
893	0.027
894	0.027
894	0.026
895	0.025
895	0.024
895	0.023
896	0.022
896	0.02
897	0.019
897	0.017
898	0.016
898	0.015
898	0.013
899	0.013
899	0.012
900	0.012
900	0.012
901	0.012
901	0.012
901	0.013
902	0.013
902	0.013
903	0.013
903	0.012
904	0.012
904	0.011
904	0.01
905	0.01
905	0.009
906	0.009
906	0.009
907	0.008
907	0.009
907	0.009
908	0.009
908	0.01
909	0.011
909	0.013
910	0.014
910	0.015
910	0.015
911	0.016
911	0.016
912	0.017
912	0.017
913	0.017
913	0.016
913	0.016
914	0.015
914	0.014
915	0.014
915	0.013
916	0.013
916	0.013
916	0.013
917	0.013
917	0.013
918	0.013
918	0.013
918	0.013
919	0.013
919	0.013
920	0.013
920	0.013
921	0.013
921	0.012
921	0.012
922	0.012
922	0.012
923	0.012
923	0.012
924	0.012
924	0.012
924	0.011
925	0.011
925	0.011
926	0.011
926	0.011
927	0.01
927	0.01
927	0.009
928	0.009
928	0.008
929	0.008
929	0.007
930	0.007
930	0.006
930	0.006
931	0.005
931	0.005
932	0.004
932	0.004
933	0.004
933	0.003
933	0.003
934	0.002
934	0.002
935	0.001
935	0.001
935	0
936	-0
936	-0
937	-0
937	-0.001
938	-0.001
938	-0.001
938	-0.001
939	-0
939	0
940	0.001
940	0.001
941	0.002
941	0.002
941	0.003
942	0.003
942	0.004
943	0.005
943	0.006
944	0.006
944	0.007
944	0.008
945	0.009
945	0.01
946	0.011
946	0.011
946	0.012
947	0.012
947	0.013
948	0.013
948	0.013
949	0.013
949	0.013
949	0.013
950	0.013
950	0.014
951	0.014
951	0.014
952	0.014
952	0.014
952	0.014
953	0.015
953	0.015
954	0.014
954	0.014
955	0.014
955	0.014
955	0.013
956	0.013
956	0.013
957	0.012
957	0.012
957	0.011
958	0.011
958	0.01
959	0.009
959	0.009
960	0.008
960	0.006
960	0.005
961	0.004
961	0.003
962	0.001
962	-0
963	-0.001
963	-0.002
963	-0.003
964	-0.004
964	-0.005
965	-0.005
965	-0.005
966	-0.005
966	-0.004
966	-0.004
967	-0.003
967	-0.003
968	-0.003
968	-0.002
968	-0.002
969	-0.002
969	-0.002
970	-0.002
970	-0.002
971	-0.002
971	-0.001
971	-0.001
972	-0
972	0
973	0.001
973	0.002
974	0.002
974	0.003
974	0.004
975	0.005
975	0.005
976	0.006
976	0.006
976	0.005
977	0.005
977	0.004
978	0.004
978	0.003
979	0.002
979	0.001
979	0
980	-0.001
980	-0.002
981	-0.003
981	-0.003
982	-0.004
982	-0.004
982	-0.004
983	-0.004
983	-0.004
984	-0.004
984	-0.004
984	-0.003
985	-0.003
985	-0.002
986	-0.002
986	-0.001
987	-0.001
987	-0.001
987	-0
988	-0
988	0
989	-0
989	-0
990	-0
990	-0
990	0
991	0.001
991	0.001
992	0.002
992	0.003
992	0.003
993	0.004
993	0.005
994	0.005
994	0.006
995	0.006
995	0.006
995	0.006
996	0.005
996	0.004
997	0.004
997	0.003
997	0.002
998	0.001
998	0
999	-0
999	-0.001
1000	-0.001
1000	-0.002
1000	-0.002
1001	-0.002
1001	-0.002
1002	-0.002
1002	-0.002
1003	-0.002
1003	-0.002
1003	-0.003
1004	-0.003
1004	-0.004
1005	-0.004
1005	-0.004
1005	-0.005
1006	-0.005
1006	-0.005
1007	-0.006
1007	-0.006
1008	-0.006
1008	-0.006
1008	-0.006
1009	-0.005
1009	-0.005
1010	-0.005
1010	-0.004
1010	-0.004
1011	-0.004
1011	-0.004
1012	-0.003
1012	-0.004
1013	-0.004
1013	-0.004
1013	-0.004
1014	-0.004
1014	-0.005
1015	-0.005
1015	-0.005
1016	-0.005
1016	-0.005
1016	-0.005
1017	-0.005
1017	-0.005
1018	-0.005
1018	-0.005
1018	-0.004
1019	-0.004
1019	-0.004
1020	-0.004
1020	-0.005
1021	-0.005
1021	-0.006
1021	-0.007
1022	-0.007
1022	-0.008
1023	-0.008
1023	-0.009
1023	-0.009
1024	-0.01
1024	-0.011
1025	-0.011
1025	-0.011
1026	-0.012
1026	-0.012
1026	-0.012
1027	-0.012
1027	-0.012
1028	-0.012
1028	-0.011
1028	-0.011
1029	-0.011
1029	-0.011
1030	-0.01
1030	-0.01
1031	-0.01
1031	-0.01
1031	-0.01
1032	-0.011
1032	-0.011
1033	-0.012
1033	-0.012
1033	-0.013
1034	-0.014
1034	-0.015
1035	-0.016
1035	-0.017
1036	-0.018
1036	-0.019
1036	-0.02
1037	-0.02
1037	-0.021
1038	-0.021
1038	-0.022
1039	-0.022
1039	-0.022
1039	-0.022
1040	-0.022
1040	-0.022
1041	-0.023
1041	-0.023
1041	-0.024
1042	-0.025
1042	-0.025
1043	-0.026
1043	-0.027
1044	-0.028
1044	-0.028
1044	-0.028
1045	-0.029
1045	-0.029
1046	-0.03
1046	-0.03
1046	-0.03
1047	-0.03
1047	-0.029
1048	-0.029
1048	-0.028
1049	-0.028
1049	-0.028
1049	-0.028
1050	-0.028
1050	-0.028
1051	-0.027
1051	-0.027
1051	-0.026
1052	-0.026
1052	-0.026
1053	-0.025
1053	-0.025
1053	-0.024
1054	-0.024
1054	-0.023
1055	-0.022
1055	-0.022
1056	-0.022
1056	-0.023
1056	-0.024
1057	-0.025
1057	-0.026
1058	-0.026
1058	-0.028
1058	-0.029
1059	-0.03
1059	-0.031
1060	-0.032
1060	-0.033
1061	-0.033
1061	-0.033
1061	-0.033
1062	-0.034
1062	-0.035
1063	-0.035
1063	-0.036
1063	-0.037
1064	-0.037
1064	-0.037
1065	-0.037
1065	-0.038
1066	-0.038
1066	-0.038
1066	-0.038
1067	-0.038
1067	-0.038
1068	-0.037
1068	-0.037
1068	-0.036
1069	-0.036
1069	-0.036
1070	-0.036
1070	-0.036
1071	-0.036
1071	-0.035
1071	-0.035
1072	-0.035
1072	-0.035
1073	-0.035
1073	-0.034
1073	-0.034
1074	-0.034
1074	-0.034
1075	-0.034
1075	-0.034
1076	-0.035
1076	-0.035
1076	-0.036
1077	-0.036
1077	-0.037
1078	-0.037
1078	-0.037
1078	-0.037
1079	-0.037
1079	-0.037
1080	-0.037
1080	-0.037
1080	-0.037
1081	-0.036
1081	-0.035
1082	-0.036
1082	-0.036
1083	-0.037
1083	-0.038
1083	-0.038
1084	-0.038
1084	-0.038
1085	-0.038
1085	-0.039
1085	-0.04
1086	-0.04
1086	-0.041
1087	-0.041
1087	-0.042
1088	-0.043
1088	-0.044
1088	-0.044
1089	-0.045
1089	-0.046
1090	-0.048
1090	-0.048
1090	-0.05
1091	-0.051
1091	-0.051
1092	-0.052
1092	-0.052
1092	-0.053
1093	-0.055
1093	-0.055
1094	-0.056
1094	-0.057
1095	-0.059
1095	-0.06
1095	-0.061
1096	-0.063
1096	-0.064
1097	-0.065
1097	-0.067
1097	-0.068
1098	-0.07
1098	-0.072
1099	-0.073
1099	-0.075
1100	-0.076
1100	-0.079
1100	-0.08
1101	-0.083
1101	-0.085
1102	-0.087
1102	-0.088
1102	-0.09
1103	-0.091
1103	-0.094
1104	-0.095
1104	-0.097
1104	-0.098
1105	-0.1
1105	-0.102
1106	-0.105
1106	-0.107
1107	-0.112
1107	-0.115
1107	-0.119
1108	-0.12
1108	-0.122
1109	-0.125
1109	-0.129
1109	-0.132
1110	-0.135
1110	-0.137
1111	-0.143
1111	-0.139
