Data from 15c-2-2a_Absorbance__1710__03511.txt Node

Date: Wed Jan 24 14:00:52 CET 2024
User: Marek
Spectrometer: MAYP115816
Trigger mode: 0
Integration Time (sec): 2.000000E-1
Scans to average: 10
Electric dark correction enabled: true
Nonlinearity correction enabled: true
Boxcar width: 5
XAxis mode: Wavelengths
Number of Pixels in Spectrum: 2068
>>>>>Begin Spectral Data<<<<<
199	-1.811
199	-1.65
200	-1.492
200	-1.368
201	-1.294
201	-1.241
202	-1.17
202	-1.113
203	-1.063
203	-1.021
204	-0.992
204	-0.966
205	-0.944
205	-0.934
205	-0.932
206	-0.928
206	-0.927
207	-0.923
207	-0.92
208	-0.919
208	-0.917
209	-0.915
209	-0.915
210	-0.915
210	-0.913
211	-0.912
211	-0.911
212	-0.909
212	-0.906
213	-0.904
213	-0.901
213	-0.899
214	-0.897
214	-0.893
215	-0.892
215	-0.888
216	-0.887
216	-0.885
217	-0.883
217	-0.884
218	-0.884
218	-0.883
219	-0.881
219	-0.878
220	-0.876
220	-0.874
221	-0.875
221	-0.872
221	-0.866
222	-0.861
222	-0.854
223	-0.847
223	-0.842
224	-0.833
224	-0.825
225	-0.817
225	-0.807
226	-0.796
226	-0.785
227	-0.772
227	-0.761
228	-0.743
228	-0.724
229	-0.702
229	-0.68
229	-0.653
230	-0.623
230	-0.589
231	-0.554
231	-0.515
232	-0.475
232	-0.432
233	-0.389
233	-0.344
234	-0.3
234	-0.255
235	-0.212
235	-0.169
236	-0.128
236	-0.088
236	-0.051
237	-0.014
237	0.019
238	0.05
238	0.079
239	0.106
239	0.131
240	0.153
240	0.174
241	0.193
241	0.21
242	0.225
242	0.239
243	0.252
243	0.263
243	0.273
244	0.283
244	0.292
245	0.299
245	0.306
246	0.313
246	0.319
247	0.324
247	0.33
248	0.335
248	0.34
249	0.344
249	0.348
250	0.352
250	0.356
250	0.36
251	0.363
251	0.366
252	0.369
252	0.372
253	0.375
253	0.377
254	0.379
254	0.381
255	0.383
255	0.385
256	0.386
256	0.388
257	0.389
257	0.39
258	0.391
258	0.392
258	0.393
259	0.394
259	0.394
260	0.395
260	0.395
261	0.395
261	0.395
262	0.395
262	0.395
263	0.395
263	0.395
264	0.394
264	0.394
265	0.394
265	0.393
265	0.392
266	0.392
266	0.391
267	0.39
267	0.389
268	0.387
268	0.386
269	0.385
269	0.383
270	0.381
270	0.38
271	0.378
271	0.376
272	0.375
272	0.373
272	0.371
273	0.369
273	0.368
274	0.366
274	0.364
275	0.362
275	0.361
276	0.359
276	0.356
277	0.354
277	0.352
278	0.35
278	0.348
278	0.345
279	0.342
279	0.34
280	0.338
280	0.335
281	0.333
281	0.331
282	0.329
282	0.328
283	0.326
283	0.324
284	0.323
284	0.322
285	0.32
285	0.319
285	0.317
286	0.315
286	0.313
287	0.312
287	0.31
288	0.309
288	0.307
289	0.305
289	0.304
290	0.302
290	0.301
291	0.299
291	0.298
292	0.297
292	0.296
292	0.295
293	0.293
293	0.292
294	0.291
294	0.29
295	0.289
295	0.288
296	0.287
296	0.286
297	0.285
297	0.284
298	0.283
298	0.282
298	0.281
299	0.281
299	0.28
300	0.279
300	0.278
301	0.277
301	0.276
302	0.275
302	0.275
303	0.274
303	0.273
304	0.273
304	0.272
305	0.271
305	0.27
305	0.27
306	0.269
306	0.268
307	0.267
307	0.267
308	0.266
308	0.265
309	0.264
309	0.264
310	0.263
310	0.262
311	0.261
311	0.261
311	0.26
312	0.259
312	0.259
313	0.258
313	0.257
314	0.256
314	0.255
315	0.255
315	0.254
316	0.253
316	0.252
317	0.252
317	0.251
318	0.25
318	0.249
318	0.248
319	0.248
319	0.247
320	0.246
320	0.245
321	0.245
321	0.244
322	0.244
322	0.243
323	0.242
323	0.241
324	0.241
324	0.24
324	0.239
325	0.238
325	0.238
326	0.237
326	0.236
327	0.236
327	0.235
328	0.235
328	0.234
329	0.233
329	0.233
330	0.232
330	0.231
330	0.231
331	0.23
331	0.229
332	0.229
332	0.228
333	0.227
333	0.227
334	0.226
334	0.225
335	0.224
335	0.224
336	0.223
336	0.223
336	0.222
337	0.222
337	0.221
338	0.221
338	0.22
339	0.22
339	0.219
340	0.219
340	0.218
341	0.218
341	0.217
342	0.217
342	0.216
342	0.216
343	0.215
343	0.215
344	0.214
344	0.214
345	0.213
345	0.213
346	0.212
346	0.212
347	0.212
347	0.211
348	0.211
348	0.211
348	0.211
349	0.21
349	0.209
350	0.209
350	0.209
351	0.208
351	0.208
352	0.207
352	0.207
353	0.206
353	0.206
354	0.205
354	0.204
354	0.204
355	0.203
355	0.203
356	0.202
356	0.202
357	0.201
357	0.201
358	0.2
358	0.2
359	0.2
359	0.201
360	0.201
360	0.201
360	0.201
361	0.202
361	0.202
362	0.202
362	0.202
363	0.202
363	0.202
364	0.202
364	0.202
365	0.201
365	0.201
366	0.201
366	0.2
366	0.2
367	0.2
367	0.2
368	0.199
368	0.199
369	0.199
369	0.198
370	0.198
370	0.198
371	0.198
371	0.197
372	0.197
372	0.197
372	0.197
373	0.196
373	0.196
374	0.196
374	0.196
375	0.196
375	0.196
376	0.196
376	0.196
377	0.196
377	0.196
378	0.196
378	0.196
378	0.195
379	0.196
379	0.195
380	0.195
380	0.195
381	0.195
381	0.195
382	0.195
382	0.194
383	0.194
383	0.194
383	0.194
384	0.193
384	0.193
385	0.193
385	0.193
386	0.193
386	0.193
387	0.193
387	0.192
388	0.192
388	0.192
389	0.192
389	0.192
389	0.191
390	0.192
390	0.192
391	0.192
391	0.192
392	0.192
392	0.192
393	0.191
393	0.191
394	0.191
394	0.191
394	0.191
395	0.19
395	0.19
396	0.189
396	0.189
397	0.189
397	0.189
398	0.189
398	0.189
399	0.189
399	0.188
400	0.188
400	0.188
400	0.188
401	0.187
401	0.187
402	0.186
402	0.186
403	0.186
403	0.186
404	0.186
404	0.185
405	0.185
405	0.185
405	0.185
406	0.185
406	0.184
407	0.184
407	0.184
408	0.184
408	0.183
409	0.183
409	0.183
410	0.183
410	0.183
411	0.182
411	0.182
411	0.182
412	0.182
412	0.181
413	0.181
413	0.181
414	0.181
414	0.181
415	0.181
415	0.18
416	0.18
416	0.18
416	0.179
417	0.179
417	0.179
418	0.179
418	0.179
419	0.179
419	0.179
420	0.179
420	0.18
421	0.18
421	0.18
421	0.18
422	0.18
422	0.18
423	0.18
423	0.18
424	0.179
424	0.179
425	0.178
425	0.177
426	0.177
426	0.176
427	0.176
427	0.176
427	0.176
428	0.177
428	0.177
429	0.178
429	0.178
430	0.178
430	0.178
431	0.178
431	0.177
432	0.177
432	0.177
432	0.176
433	0.176
433	0.175
434	0.175
434	0.175
435	0.175
435	0.174
436	0.174
436	0.175
437	0.174
437	0.174
437	0.174
438	0.174
438	0.174
439	0.173
439	0.173
440	0.173
440	0.173
441	0.173
441	0.173
442	0.173
442	0.174
442	0.174
443	0.174
443	0.174
444	0.174
444	0.174
445	0.174
445	0.175
446	0.175
446	0.175
447	0.174
447	0.174
447	0.174
448	0.174
448	0.174
449	0.174
449	0.174
450	0.174
450	0.174
451	0.173
451	0.173
452	0.173
452	0.172
452	0.172
453	0.172
453	0.171
454	0.171
454	0.17
455	0.17
455	0.17
456	0.169
456	0.169
457	0.169
457	0.169
458	0.169
458	0.169
458	0.169
459	0.169
459	0.17
460	0.17
460	0.169
461	0.169
461	0.169
462	0.169
462	0.17
463	0.17
463	0.17
463	0.17
464	0.17
464	0.17
465	0.17
465	0.171
466	0.171
466	0.171
467	0.171
467	0.171
467	0.171
468	0.17
468	0.169
469	0.169
469	0.169
470	0.169
470	0.168
471	0.168
471	0.168
472	0.169
472	0.169
472	0.17
473	0.17
473	0.171
474	0.172
474	0.172
475	0.173
475	0.173
476	0.174
476	0.174
477	0.174
477	0.174
477	0.175
478	0.175
478	0.176
479	0.176
479	0.177
480	0.178
480	0.179
481	0.18
481	0.181
482	0.182
482	0.183
482	0.184
483	0.185
483	0.187
484	0.189
484	0.19
485	0.191
485	0.192
486	0.193
486	0.194
487	0.194
487	0.194
487	0.195
488	0.195
488	0.195
489	0.195
489	0.195
490	0.196
490	0.196
491	0.197
491	0.198
492	0.199
492	0.2
492	0.201
493	0.202
493	0.203
494	0.205
494	0.207
495	0.208
495	0.21
496	0.211
496	0.212
496	0.213
497	0.214
497	0.215
498	0.216
498	0.217
499	0.218
499	0.219
500	0.22
500	0.222
501	0.224
501	0.226
501	0.227
502	0.229
502	0.23
503	0.232
503	0.234
504	0.235
504	0.236
505	0.236
505	0.237
506	0.238
506	0.238
506	0.239
507	0.24
507	0.24
508	0.241
508	0.242
509	0.243
509	0.244
510	0.245
510	0.246
511	0.247
511	0.247
511	0.248
512	0.249
512	0.25
513	0.25
513	0.25
514	0.25
514	0.25
515	0.25
515	0.25
515	0.251
516	0.252
516	0.253
517	0.254
517	0.255
518	0.255
518	0.255
519	0.255
519	0.254
520	0.254
520	0.253
520	0.252
521	0.249
521	0.248
522	0.246
522	0.245
523	0.244
523	0.244
524	0.244
524	0.246
524	0.248
525	0.249
525	0.251
526	0.254
526	0.255
527	0.257
527	0.258
528	0.259
528	0.26
529	0.26
529	0.26
529	0.26
530	0.259
530	0.259
531	0.258
531	0.258
532	0.257
532	0.256
533	0.255
533	0.255
533	0.254
534	0.252
534	0.251
535	0.25
535	0.249
536	0.248
536	0.247
537	0.246
537	0.245
538	0.244
538	0.242
538	0.24
539	0.239
539	0.238
540	0.237
540	0.235
541	0.233
541	0.231
542	0.229
542	0.227
542	0.225
543	0.224
543	0.222
544	0.22
544	0.218
545	0.217
545	0.216
546	0.214
546	0.213
547	0.211
547	0.209
547	0.207
548	0.205
548	0.203
549	0.201
549	0.199
550	0.197
550	0.195
551	0.192
551	0.19
551	0.188
552	0.186
552	0.185
553	0.183
553	0.181
554	0.18
554	0.178
555	0.176
555	0.173
556	0.171
556	0.169
556	0.166
557	0.164
557	0.162
558	0.16
558	0.158
559	0.156
559	0.155
560	0.153
560	0.151
560	0.15
561	0.149
561	0.148
562	0.147
562	0.146
563	0.144
563	0.142
564	0.14
564	0.138
564	0.136
565	0.134
565	0.133
566	0.131
566	0.129
567	0.128
567	0.127
568	0.127
568	0.127
568	0.126
569	0.127
569	0.127
570	0.127
570	0.126
571	0.126
571	0.126
572	0.125
572	0.124
573	0.124
573	0.123
573	0.122
574	0.12
574	0.119
575	0.119
575	0.119
576	0.118
576	0.117
577	0.115
577	0.113
577	0.113
578	0.111
578	0.111
579	0.111
579	0.112
580	0.11
580	0.108
581	0.105
581	0.104
581	0.103
582	0.103
582	0.103
583	0.102
583	0.101
584	0.099
584	0.096
585	0.095
585	0.095
585	0.094
586	0.094
586	0.094
587	0.092
587	0.091
588	0.089
588	0.087
589	0.086
589	0.086
590	0.085
590	0.085
590	0.085
591	0.086
591	0.085
592	0.085
592	0.084
593	0.084
593	0.083
594	0.082
594	0.081
594	0.081
595	0.08
595	0.078
596	0.077
596	0.078
597	0.079
597	0.08
598	0.08
598	0.08
598	0.081
599	0.081
599	0.081
600	0.08
600	0.079
601	0.079
601	0.078
602	0.077
602	0.076
602	0.076
603	0.076
603	0.076
604	0.077
604	0.077
605	0.078
605	0.08
606	0.079
606	0.079
606	0.078
607	0.077
607	0.077
608	0.076
608	0.075
609	0.074
609	0.074
610	0.073
610	0.072
610	0.072
611	0.073
611	0.073
612	0.074
612	0.075
613	0.076
613	0.077
614	0.077
614	0.077
614	0.077
615	0.077
615	0.076
616	0.076
616	0.076
617	0.076
617	0.075
618	0.074
618	0.074
618	0.073
619	0.074
619	0.075
620	0.076
620	0.077
621	0.077
621	0.078
622	0.079
622	0.08
622	0.08
623	0.08
623	0.081
624	0.082
624	0.082
625	0.082
625	0.082
626	0.082
626	0.082
626	0.083
627	0.083
627	0.084
628	0.084
628	0.084
629	0.085
629	0.085
630	0.085
630	0.085
630	0.086
631	0.087
631	0.088
632	0.088
632	0.089
633	0.09
633	0.091
634	0.093
634	0.094
634	0.096
635	0.098
635	0.099
636	0.1
636	0.102
637	0.103
637	0.104
638	0.105
638	0.107
638	0.109
639	0.109
639	0.111
640	0.112
640	0.114
641	0.115
641	0.117
642	0.119
642	0.121
642	0.123
643	0.124
643	0.125
644	0.127
644	0.128
645	0.13
645	0.131
646	0.133
646	0.135
646	0.137
647	0.14
647	0.143
648	0.145
648	0.147
649	0.15
649	0.153
650	0.155
650	0.158
650	0.16
651	0.162
651	0.164
652	0.166
652	0.168
653	0.171
653	0.178
653	0.187
654	0.151
654	0.123
655	0.126
655	0.128
656	0.13
656	0.132
657	0.134
657	0.135
657	0.137
658	0.134
658	0.126
659	0.159
659	0.205
660	0.211
660	0.213
661	0.215
661	0.217
661	0.22
662	0.223
662	0.226
663	0.229
663	0.232
664	0.235
664	0.238
665	0.24
665	0.243
665	0.246
666	0.248
666	0.25
667	0.252
667	0.254
668	0.257
668	0.259
669	0.261
669	0.265
669	0.268
670	0.272
670	0.275
671	0.277
671	0.279
672	0.282
672	0.284
672	0.286
673	0.288
673	0.289
674	0.29
674	0.291
675	0.291
675	0.292
676	0.294
676	0.295
676	0.296
677	0.298
677	0.3
678	0.301
678	0.302
679	0.304
679	0.305
680	0.307
680	0.308
680	0.309
681	0.309
681	0.31
682	0.311
682	0.312
683	0.313
683	0.314
684	0.316
684	0.317
684	0.317
685	0.318
685	0.319
686	0.319
686	0.32
687	0.32
687	0.32
687	0.32
688	0.319
688	0.318
689	0.318
689	0.318
690	0.317
690	0.316
691	0.316
691	0.315
691	0.315
692	0.314
692	0.313
693	0.312
693	0.312
694	0.311
694	0.31
695	0.31
695	0.31
695	0.31
696	0.308
696	0.307
697	0.306
697	0.305
698	0.304
698	0.302
698	0.301
699	0.3
699	0.298
700	0.296
700	0.294
701	0.293
701	0.292
702	0.291
702	0.289
702	0.288
703	0.286
703	0.284
704	0.282
704	0.28
705	0.279
705	0.277
705	0.275
706	0.273
706	0.271
707	0.269
707	0.266
708	0.264
708	0.262
709	0.26
709	0.257
709	0.254
710	0.251
710	0.249
711	0.246
711	0.244
712	0.242
712	0.24
713	0.238
713	0.237
713	0.235
714	0.233
714	0.231
715	0.229
715	0.228
716	0.226
716	0.224
716	0.223
717	0.221
717	0.22
718	0.218
718	0.216
719	0.215
719	0.213
720	0.211
720	0.209
720	0.206
721	0.204
721	0.201
722	0.198
722	0.195
723	0.192
723	0.19
723	0.188
724	0.185
724	0.183
725	0.181
725	0.178
726	0.177
726	0.175
727	0.172
727	0.171
727	0.169
728	0.167
728	0.165
729	0.164
729	0.162
730	0.16
730	0.158
730	0.156
731	0.154
731	0.152
732	0.151
732	0.15
733	0.148
733	0.147
734	0.146
734	0.144
734	0.143
735	0.142
735	0.14
736	0.138
736	0.137
737	0.135
737	0.133
737	0.131
738	0.128
738	0.125
739	0.122
739	0.12
740	0.117
740	0.115
741	0.113
741	0.11
741	0.107
742	0.103
742	0.1
743	0.098
743	0.095
744	0.093
744	0.09
744	0.088
745	0.086
745	0.084
746	0.083
746	0.082
747	0.081
747	0.08
748	0.08
748	0.08
748	0.079
749	0.078
749	0.078
750	0.078
750	0.077
751	0.077
751	0.077
751	0.076
752	0.075
752	0.074
753	0.072
753	0.071
754	0.07
754	0.069
754	0.069
755	0.069
755	0.069
756	0.068
756	0.067
757	0.066
757	0.066
758	0.066
758	0.066
758	0.065
759	0.065
759	0.063
760	0.061
760	0.06
761	0.059
761	0.059
761	0.058
762	0.056
762	0.056
763	0.055
763	0.053
764	0.051
764	0.049
764	0.048
765	0.046
765	0.044
766	0.042
766	0.041
767	0.039
767	0.037
768	0.034
768	0.032
768	0.031
769	0.029
769	0.028
770	0.026
770	0.025
771	0.022
771	0.02
771	0.017
772	0.015
772	0.013
773	0.011
773	0.009
774	0.006
774	0.004
775	0.002
775	0
775	-0.002
776	-0.004
776	-0.006
777	-0.007
777	-0.009
778	-0.012
778	-0.014
778	-0.017
779	-0.019
779	-0.021
780	-0.024
780	-0.028
781	-0.032
781	-0.036
781	-0.041
782	-0.047
782	-0.053
783	-0.059
783	-0.065
784	-0.073
784	-0.081
784	-0.088
785	-0.097
785	-0.104
786	-0.11
786	-0.112
787	-0.111
787	-0.112
788	-0.115
788	-0.118
788	-0.121
789	-0.123
789	-0.124
790	-0.122
790	-0.121
791	-0.122
791	-0.125
791	-0.128
792	-0.123
792	-0.113
793	-0.107
793	-0.104
794	-0.102
794	-0.103
794	-0.106
795	-0.108
795	-0.108
796	-0.108
796	-0.11
797	-0.118
797	-0.128
797	-0.134
798	-0.139
798	-0.142
799	-0.143
799	-0.142
800	-0.142
800	-0.145
801	-0.148
801	-0.149
801	-0.149
802	-0.151
802	-0.152
803	-0.152
803	-0.152
804	-0.151
804	-0.145
804	-0.138
805	-0.133
805	-0.13
806	-0.127
806	-0.126
807	-0.124
807	-0.123
807	-0.123
808	-0.123
808	-0.124
809	-0.129
809	-0.135
810	-0.14
810	-0.143
810	-0.147
811	-0.15
811	-0.152
812	-0.149
812	-0.146
813	-0.147
813	-0.148
813	-0.149
814	-0.15
814	-0.15
815	-0.148
815	-0.145
816	-0.143
816	-0.142
817	-0.146
817	-0.149
817	-0.147
818	-0.144
818	-0.138
819	-0.132
819	-0.127
820	-0.123
820	-0.12
820	-0.114
821	-0.107
821	-0.099
822	-0.09
822	-0.081
823	-0.074
823	-0.068
823	-0.062
824	-0.056
824	-0.05
825	-0.043
825	-0.036
826	-0.031
826	-0.027
826	-0.023
827	-0.02
827	-0.017
828	-0.015
828	-0.013
829	-0.011
829	-0.01
829	-0.01
830	-0.01
830	-0.009
831	-0.008
831	-0.007
832	-0.007
832	-0.006
832	-0.005
833	-0.004
833	-0.003
834	-0.002
834	-0.001
835	0
835	0.001
835	0.001
836	0.002
836	0.002
837	0.003
837	0.003
838	0.003
838	0.003
839	0.003
839	0.003
839	0.002
840	0.002
840	0.002
841	0.003
841	0.003
842	0.004
842	0.004
842	0.005
843	0.006
843	0.007
844	0.008
844	0.009
845	0.01
845	0.011
845	0.011
846	0.011
846	0.011
847	0.011
847	0.012
848	0.012
848	0.013
848	0.014
849	0.015
849	0.016
850	0.016
850	0.016
851	0.017
851	0.017
851	0.017
852	0.017
852	0.016
853	0.015
853	0.014
854	0.013
854	0.012
854	0.011
855	0.01
855	0.01
856	0.009
856	0.009
857	0.009
857	0.01
857	0.011
858	0.012
858	0.013
859	0.015
859	0.017
860	0.019
860	0.021
860	0.022
861	0.023
861	0.025
862	0.025
862	0.026
863	0.026
863	0.026
863	0.025
864	0.024
864	0.024
865	0.023
865	0.022
866	0.022
866	0.021
866	0.02
867	0.019
867	0.019
868	0.018
868	0.017
869	0.017
869	0.016
869	0.014
870	0.013
870	0.012
871	0.011
871	0.01
872	0.009
872	0.008
872	0.007
873	0.007
873	0.006
874	0.006
874	0.007
875	0.007
875	0.008
875	0.008
876	0.009
876	0.01
877	0.01
877	0.011
878	0.012
878	0.012
878	0.013
879	0.013
879	0.013
880	0.013
880	0.013
881	0.013
881	0.013
881	0.014
882	0.013
882	0.014
883	0.014
883	0.014
884	0.014
884	0.014
884	0.015
885	0.015
885	0.015
886	0.015
886	0.016
887	0.016
887	0.016
887	0.016
888	0.017
888	0.017
889	0.017
889	0.018
890	0.019
890	0.02
890	0.02
891	0.021
891	0.021
892	0.021
892	0.021
893	0.021
893	0.021
893	0.021
894	0.02
894	0.019
895	0.018
895	0.017
895	0.016
896	0.014
896	0.013
897	0.011
897	0.01
898	0.009
898	0.008
898	0.007
899	0.006
899	0.006
900	0.006
900	0.006
901	0.006
901	0.007
901	0.007
902	0.007
902	0.007
903	0.007
903	0.007
904	0.007
904	0.006
904	0.006
905	0.006
905	0.006
906	0.006
906	0.007
907	0.007
907	0.008
907	0.008
908	0.009
908	0.01
909	0.011
909	0.013
910	0.014
910	0.015
910	0.015
911	0.016
911	0.016
912	0.016
912	0.016
913	0.016
913	0.015
913	0.015
914	0.014
914	0.013
915	0.012
915	0.011
916	0.01
916	0.01
916	0.01
917	0.009
917	0.009
918	0.009
918	0.009
918	0.009
919	0.008
919	0.008
920	0.008
920	0.008
921	0.007
921	0.007
921	0.006
922	0.006
922	0.006
923	0.006
923	0.006
924	0.007
924	0.007
924	0.007
925	0.007
925	0.008
926	0.008
926	0.008
927	0.008
927	0.008
927	0.008
928	0.007
928	0.007
929	0.007
929	0.007
930	0.006
930	0.006
930	0.006
931	0.005
931	0.005
932	0.005
932	0.005
933	0.005
933	0.004
933	0.004
934	0.004
934	0.003
935	0.003
935	0.003
935	0.003
936	0.002
936	0.002
937	0.002
937	0.003
938	0.003
938	0.003
938	0.003
939	0.004
939	0.005
940	0.006
940	0.006
941	0.007
941	0.008
941	0.008
942	0.009
942	0.009
943	0.009
943	0.009
944	0.01
944	0.01
944	0.01
945	0.011
945	0.012
946	0.012
946	0.013
946	0.013
947	0.014
947	0.014
948	0.015
948	0.015
949	0.015
949	0.016
949	0.017
950	0.017
950	0.018
951	0.019
951	0.019
952	0.02
952	0.021
952	0.022
953	0.022
953	0.023
954	0.023
954	0.023
955	0.022
955	0.022
955	0.021
956	0.02
956	0.019
957	0.018
957	0.017
957	0.016
958	0.015
958	0.014
959	0.013
959	0.011
960	0.01
960	0.009
960	0.007
961	0.006
961	0.004
962	0.003
962	0.002
963	0.001
963	-0
963	-0.001
964	-0.002
964	-0.002
965	-0.003
965	-0.003
966	-0.003
966	-0.002
966	-0.002
967	-0.002
967	-0.002
968	-0.002
968	-0.002
968	-0.002
969	-0.002
969	-0.001
970	-0.001
970	-0.001
971	-0.001
971	0
971	0.001
972	0.001
972	0.002
973	0.003
973	0.004
974	0.005
974	0.006
974	0.006
975	0.007
975	0.008
976	0.008
976	0.008
976	0.008
977	0.008
977	0.008
978	0.007
978	0.006
979	0.005
979	0.005
979	0.004
980	0.002
980	0.001
981	-0
981	-0.001
982	-0.002
982	-0.002
982	-0.003
983	-0.003
983	-0.003
984	-0.003
984	-0.003
984	-0.002
985	-0.001
985	-0
986	0
986	0.001
987	0.002
987	0.003
987	0.003
988	0.004
988	0.004
989	0.005
989	0.005
990	0.005
990	0.005
990	0.006
991	0.006
991	0.006
992	0.007
992	0.007
992	0.007
993	0.008
993	0.008
994	0.008
994	0.009
995	0.009
995	0.009
995	0.009
996	0.008
996	0.007
997	0.007
997	0.006
997	0.006
998	0.005
998	0.005
999	0.004
999	0.003
1000	0.003
1000	0.003
1000	0.003
1001	0.003
1001	0.002
1002	0.002
1002	0.002
1003	0.001
1003	0.001
1003	0.001
1004	0
1004	-0
1005	-0.001
1005	-0.002
1005	-0.002
1006	-0.003
1006	-0.004
1007	-0.004
1007	-0.005
1008	-0.005
1008	-0.006
1008	-0.006
1009	-0.006
1009	-0.006
1010	-0.007
1010	-0.007
1010	-0.007
1011	-0.006
1011	-0.006
1012	-0.006
1012	-0.005
1013	-0.005
1013	-0.004
1013	-0.004
1014	-0.004
1014	-0.003
1015	-0.003
1015	-0.002
1016	-0.001
1016	-0.001
1016	-0
1017	0
1017	0.001
1018	0.001
1018	0.002
1018	0.002
1019	0.003
1019	0.003
1020	0.003
1020	0.003
1021	0.003
1021	0.003
1021	0.003
1022	0.002
1022	0.002
1023	0.002
1023	0.001
1023	0
1024	-0.001
1024	-0.001
1025	-0.002
1025	-0.002
1026	-0.002
1026	-0.002
1026	-0.002
1027	-0.002
1027	-0.002
1028	-0.002
1028	-0.001
1028	-0.001
1029	-0.001
1029	-0
1030	-0
1030	-0
1031	-0
1031	-0
1031	-0
1032	-0
1032	-0.001
1033	-0.001
1033	-0.002
1033	-0.002
1034	-0.003
1034	-0.004
1035	-0.005
1035	-0.006
1036	-0.007
1036	-0.007
1036	-0.008
1037	-0.009
1037	-0.009
1038	-0.009
1038	-0.009
1039	-0.009
1039	-0.009
1039	-0.009
1040	-0.009
1040	-0.009
1041	-0.009
1041	-0.01
1041	-0.01
1042	-0.011
1042	-0.011
1043	-0.012
1043	-0.013
1044	-0.013
1044	-0.014
1044	-0.014
1045	-0.014
1045	-0.015
1046	-0.015
1046	-0.015
1046	-0.015
1047	-0.015
1047	-0.014
1048	-0.013
1048	-0.013
1049	-0.012
1049	-0.012
1049	-0.011
1050	-0.01
1050	-0.01
1051	-0.009
1051	-0.008
1051	-0.007
1052	-0.006
1052	-0.005
1053	-0.004
1053	-0.004
1053	-0.003
1054	-0.002
1054	-0.001
1055	-0
1055	-0
1056	-0
1056	-0.001
1056	-0.002
1057	-0.003
1057	-0.003
1058	-0.004
1058	-0.005
1058	-0.006
1059	-0.006
1059	-0.007
1060	-0.008
1060	-0.009
1061	-0.009
1061	-0.009
1061	-0.009
1062	-0.009
1062	-0.01
1063	-0.01
1063	-0.011
1063	-0.011
1064	-0.011
1064	-0.011
1065	-0.01
1065	-0.011
1066	-0.01
1066	-0.01
1066	-0.009
1067	-0.008
1067	-0.007
1068	-0.006
1068	-0.005
1068	-0.004
1069	-0.004
1069	-0.003
1070	-0.002
1070	-0.001
1071	-0.001
1071	-0
1071	0
1072	0.001
1072	0.002
1073	0.003
1073	0.004
1073	0.005
1074	0.006
1074	0.007
1075	0.008
1075	0.008
1076	0.008
1076	0.009
1076	0.008
1077	0.009
1077	0.009
1078	0.009
1078	0.01
1078	0.01
1079	0.011
1079	0.012
1080	0.012
1080	0.014
1080	0.014
1081	0.016
1081	0.017
1082	0.017
1082	0.018
1083	0.018
1083	0.019
1083	0.02
1084	0.021
1084	0.022
1085	0.023
1085	0.024
1085	0.025
1086	0.027
1086	0.027
1087	0.028
1087	0.03
1088	0.03
1088	0.03
1088	0.032
1089	0.033
1089	0.034
1090	0.034
1090	0.036
1090	0.037
1091	0.038
1091	0.04
1092	0.041
1092	0.044
1092	0.046
1093	0.046
1093	0.049
1094	0.052
1094	0.054
1095	0.055
1095	0.057
1095	0.061
1096	0.064
1096	0.067
1097	0.071
1097	0.075
1097	0.08
1098	0.083
1098	0.086
1099	0.091
1099	0.097
1100	0.102
1100	0.107
1100	0.113
1101	0.12
1101	0.128
1102	0.137
1102	0.147
1102	0.158
1103	0.17
1103	0.183
1104	0.198
1104	0.214
1104	0.234
1105	0.254
1105	0.274
1106	0.293
1106	0.319
1107	0.345
1107	0.388
1107	0.442
1108	0.638
1108	1.151
1109	-0
1109	-0
1109	-0
1110	-0
1110	-0
1111	-0
1111	-0
