Data from 15c-2-2a_Absorbance__1198__02999.txt Node

Date: Wed Jan 24 13:43:49 CET 2024
User: Marek
Spectrometer: MAYP115816
Trigger mode: 0
Integration Time (sec): 2.000000E-1
Scans to average: 10
Electric dark correction enabled: true
Nonlinearity correction enabled: true
Boxcar width: 5
XAxis mode: Wavelengths
Number of Pixels in Spectrum: 2068
>>>>>Begin Spectral Data<<<<<
199	-1.767
199	-1.608
200	-1.449
200	-1.326
201	-1.253
201	-1.2
202	-1.13
202	-1.074
203	-1.025
203	-0.984
204	-0.955
204	-0.93
205	-0.908
205	-0.899
205	-0.896
206	-0.893
206	-0.892
207	-0.888
207	-0.885
208	-0.884
208	-0.882
209	-0.881
209	-0.881
210	-0.882
210	-0.88
211	-0.879
211	-0.879
212	-0.877
212	-0.875
213	-0.872
213	-0.87
213	-0.868
214	-0.866
214	-0.862
215	-0.861
215	-0.856
216	-0.855
216	-0.853
217	-0.851
217	-0.852
218	-0.852
218	-0.851
219	-0.849
219	-0.847
220	-0.845
220	-0.842
221	-0.842
221	-0.839
221	-0.835
222	-0.829
222	-0.823
223	-0.816
223	-0.81
224	-0.802
224	-0.793
225	-0.786
225	-0.775
226	-0.765
226	-0.754
227	-0.741
227	-0.73
228	-0.712
228	-0.695
229	-0.673
229	-0.652
229	-0.626
230	-0.597
230	-0.565
231	-0.531
231	-0.494
232	-0.456
232	-0.416
233	-0.376
233	-0.333
234	-0.292
234	-0.251
235	-0.211
235	-0.173
236	-0.136
236	-0.102
236	-0.069
237	-0.037
237	-0.009
238	0.017
238	0.041
239	0.063
239	0.083
240	0.101
240	0.118
241	0.133
241	0.146
242	0.158
242	0.169
243	0.179
243	0.188
243	0.195
244	0.203
244	0.209
245	0.215
245	0.221
246	0.226
246	0.231
247	0.235
247	0.239
248	0.243
248	0.246
249	0.25
249	0.253
250	0.256
250	0.259
250	0.262
251	0.265
251	0.267
252	0.269
252	0.272
253	0.274
253	0.276
254	0.277
254	0.279
255	0.281
255	0.282
256	0.284
256	0.285
257	0.286
257	0.287
258	0.288
258	0.288
258	0.289
259	0.29
259	0.29
260	0.291
260	0.291
261	0.291
261	0.291
262	0.291
262	0.291
263	0.291
263	0.29
264	0.29
264	0.289
265	0.289
265	0.288
265	0.287
266	0.286
266	0.285
267	0.284
267	0.283
268	0.282
268	0.281
269	0.279
269	0.278
270	0.276
270	0.275
271	0.273
271	0.271
272	0.269
272	0.268
272	0.266
273	0.264
273	0.263
274	0.261
274	0.259
275	0.257
275	0.256
276	0.254
276	0.252
277	0.25
277	0.248
278	0.246
278	0.244
278	0.241
279	0.239
279	0.236
280	0.234
280	0.232
281	0.23
281	0.228
282	0.227
282	0.225
283	0.223
283	0.222
284	0.221
284	0.22
285	0.218
285	0.217
285	0.215
286	0.214
286	0.212
287	0.211
287	0.209
288	0.208
288	0.206
289	0.205
289	0.204
290	0.202
290	0.201
291	0.2
291	0.199
292	0.198
292	0.196
292	0.195
293	0.194
293	0.193
294	0.192
294	0.191
295	0.19
295	0.19
296	0.189
296	0.188
297	0.187
297	0.186
298	0.186
298	0.185
298	0.185
299	0.184
299	0.183
300	0.183
300	0.182
301	0.181
301	0.181
302	0.18
302	0.18
303	0.179
303	0.179
304	0.178
304	0.178
305	0.177
305	0.177
305	0.176
306	0.176
306	0.175
307	0.175
307	0.174
308	0.173
308	0.173
309	0.172
309	0.172
310	0.171
310	0.171
311	0.17
311	0.169
311	0.169
312	0.168
312	0.168
313	0.167
313	0.167
314	0.166
314	0.166
315	0.165
315	0.164
316	0.164
316	0.164
317	0.163
317	0.162
318	0.162
318	0.161
318	0.161
319	0.16
319	0.16
320	0.159
320	0.159
321	0.158
321	0.158
322	0.157
322	0.157
323	0.156
323	0.156
324	0.155
324	0.155
324	0.154
325	0.154
325	0.153
326	0.153
326	0.153
327	0.152
327	0.152
328	0.151
328	0.151
329	0.15
329	0.149
330	0.149
330	0.148
330	0.148
331	0.148
331	0.147
332	0.146
332	0.146
333	0.145
333	0.145
334	0.144
334	0.144
335	0.143
335	0.143
336	0.142
336	0.142
336	0.141
337	0.141
337	0.141
338	0.14
338	0.14
339	0.14
339	0.139
340	0.139
340	0.139
341	0.138
341	0.138
342	0.138
342	0.137
342	0.137
343	0.136
343	0.136
344	0.135
344	0.135
345	0.135
345	0.134
346	0.134
346	0.134
347	0.134
347	0.133
348	0.133
348	0.133
348	0.133
349	0.132
349	0.132
350	0.132
350	0.132
351	0.131
351	0.131
352	0.13
352	0.13
353	0.129
353	0.129
354	0.128
354	0.128
354	0.128
355	0.127
355	0.127
356	0.126
356	0.126
357	0.125
357	0.125
358	0.125
358	0.125
359	0.125
359	0.125
360	0.125
360	0.125
360	0.125
361	0.126
361	0.126
362	0.126
362	0.126
363	0.126
363	0.126
364	0.126
364	0.126
365	0.126
365	0.126
366	0.126
366	0.125
366	0.125
367	0.125
367	0.125
368	0.125
368	0.125
369	0.124
369	0.124
370	0.124
370	0.124
371	0.124
371	0.124
372	0.123
372	0.123
372	0.123
373	0.123
373	0.123
374	0.123
374	0.123
375	0.123
375	0.123
376	0.123
376	0.123
377	0.123
377	0.123
378	0.123
378	0.122
378	0.122
379	0.122
379	0.122
380	0.122
380	0.122
381	0.122
381	0.122
382	0.122
382	0.122
383	0.121
383	0.121
383	0.121
384	0.121
384	0.121
385	0.121
385	0.121
386	0.121
386	0.121
387	0.121
387	0.121
388	0.12
388	0.12
389	0.12
389	0.12
389	0.12
390	0.12
390	0.12
391	0.12
391	0.12
392	0.12
392	0.12
393	0.12
393	0.12
394	0.12
394	0.12
394	0.12
395	0.119
395	0.119
396	0.119
396	0.119
397	0.119
397	0.119
398	0.119
398	0.119
399	0.118
399	0.118
400	0.118
400	0.118
400	0.118
401	0.117
401	0.117
402	0.117
402	0.116
403	0.116
403	0.116
404	0.116
404	0.116
405	0.116
405	0.116
405	0.116
406	0.115
406	0.115
407	0.115
407	0.115
408	0.115
408	0.115
409	0.115
409	0.115
410	0.115
410	0.115
411	0.115
411	0.115
411	0.115
412	0.114
412	0.114
413	0.114
413	0.114
414	0.114
414	0.113
415	0.113
415	0.113
416	0.113
416	0.112
416	0.112
417	0.112
417	0.112
418	0.112
418	0.112
419	0.112
419	0.112
420	0.112
420	0.113
421	0.113
421	0.113
421	0.113
422	0.113
422	0.113
423	0.113
423	0.113
424	0.112
424	0.112
425	0.111
425	0.111
426	0.111
426	0.111
427	0.111
427	0.111
427	0.111
428	0.111
428	0.112
429	0.112
429	0.112
430	0.112
430	0.112
431	0.111
431	0.111
432	0.111
432	0.111
432	0.11
433	0.11
433	0.11
434	0.11
434	0.11
435	0.11
435	0.11
436	0.11
436	0.11
437	0.11
437	0.109
437	0.109
438	0.109
438	0.109
439	0.109
439	0.109
440	0.108
440	0.108
441	0.108
441	0.108
442	0.108
442	0.109
442	0.109
443	0.109
443	0.109
444	0.109
444	0.109
445	0.11
445	0.11
446	0.11
446	0.11
447	0.109
447	0.109
447	0.109
448	0.109
448	0.109
449	0.109
449	0.109
450	0.109
450	0.109
451	0.108
451	0.108
452	0.108
452	0.108
452	0.108
453	0.108
453	0.107
454	0.107
454	0.106
455	0.106
455	0.106
456	0.105
456	0.105
457	0.105
457	0.104
458	0.104
458	0.104
458	0.105
459	0.105
459	0.105
460	0.105
460	0.105
461	0.105
461	0.105
462	0.105
462	0.106
463	0.106
463	0.106
463	0.107
464	0.107
464	0.107
465	0.106
465	0.107
466	0.107
466	0.107
467	0.106
467	0.106
467	0.106
468	0.105
468	0.105
469	0.104
469	0.104
470	0.104
470	0.104
471	0.104
471	0.104
472	0.104
472	0.104
472	0.105
473	0.106
473	0.106
474	0.107
474	0.107
475	0.107
475	0.108
476	0.108
476	0.108
477	0.108
477	0.108
477	0.108
478	0.108
478	0.109
479	0.109
479	0.11
480	0.111
480	0.112
481	0.112
481	0.113
482	0.114
482	0.115
482	0.115
483	0.116
483	0.118
484	0.119
484	0.119
485	0.12
485	0.121
486	0.121
486	0.122
487	0.122
487	0.122
487	0.123
488	0.123
488	0.122
489	0.122
489	0.122
490	0.123
490	0.123
491	0.123
491	0.124
492	0.125
492	0.125
492	0.126
493	0.127
493	0.128
494	0.129
494	0.131
495	0.132
495	0.133
496	0.134
496	0.135
496	0.135
497	0.136
497	0.137
498	0.138
498	0.138
499	0.138
499	0.139
500	0.14
500	0.141
501	0.142
501	0.143
501	0.144
502	0.145
502	0.147
503	0.148
503	0.149
504	0.15
504	0.15
505	0.151
505	0.151
506	0.152
506	0.152
506	0.153
507	0.153
507	0.154
508	0.154
508	0.155
509	0.156
509	0.157
510	0.158
510	0.158
511	0.159
511	0.159
511	0.159
512	0.16
512	0.161
513	0.161
513	0.161
514	0.161
514	0.161
515	0.161
515	0.161
515	0.161
516	0.162
516	0.163
517	0.164
517	0.164
518	0.164
518	0.165
519	0.165
519	0.164
520	0.163
520	0.162
520	0.161
521	0.16
521	0.158
522	0.157
522	0.156
523	0.156
523	0.156
524	0.156
524	0.157
524	0.158
525	0.16
525	0.161
526	0.163
526	0.164
527	0.165
527	0.166
528	0.167
528	0.167
529	0.167
529	0.167
529	0.167
530	0.167
530	0.167
531	0.166
531	0.166
532	0.165
532	0.165
533	0.164
533	0.163
533	0.163
534	0.162
534	0.161
535	0.16
535	0.16
536	0.159
536	0.158
537	0.157
537	0.157
538	0.156
538	0.155
538	0.154
539	0.153
539	0.152
540	0.151
540	0.149
541	0.148
541	0.147
542	0.145
542	0.144
542	0.143
543	0.141
543	0.14
544	0.139
544	0.138
545	0.137
545	0.136
546	0.136
546	0.135
547	0.133
547	0.131
547	0.13
548	0.129
548	0.127
549	0.126
549	0.124
550	0.123
550	0.121
551	0.119
551	0.118
551	0.117
552	0.116
552	0.114
553	0.113
553	0.113
554	0.112
554	0.11
555	0.109
555	0.107
556	0.106
556	0.104
556	0.102
557	0.101
557	0.1
558	0.099
558	0.097
559	0.096
559	0.094
560	0.093
560	0.092
560	0.091
561	0.091
561	0.091
562	0.09
562	0.089
563	0.088
563	0.086
564	0.085
564	0.084
564	0.083
565	0.082
565	0.08
566	0.079
566	0.078
567	0.077
567	0.077
568	0.077
568	0.077
568	0.077
569	0.078
569	0.078
570	0.078
570	0.078
571	0.078
571	0.078
572	0.078
572	0.078
573	0.078
573	0.077
573	0.076
574	0.075
574	0.074
575	0.073
575	0.074
576	0.074
576	0.073
577	0.071
577	0.07
577	0.07
578	0.069
578	0.069
579	0.07
579	0.07
580	0.069
580	0.067
581	0.065
581	0.064
581	0.064
582	0.064
582	0.064
583	0.064
583	0.063
584	0.061
584	0.058
585	0.058
585	0.058
585	0.058
586	0.058
586	0.058
587	0.057
587	0.055
588	0.054
588	0.053
589	0.052
589	0.052
590	0.052
590	0.051
590	0.052
591	0.053
591	0.052
592	0.052
592	0.051
593	0.051
593	0.051
594	0.05
594	0.049
594	0.048
595	0.048
595	0.047
596	0.046
596	0.047
597	0.049
597	0.05
598	0.05
598	0.05
598	0.051
599	0.051
599	0.051
600	0.05
600	0.049
601	0.049
601	0.048
602	0.047
602	0.047
602	0.046
603	0.046
603	0.047
604	0.048
604	0.049
605	0.05
605	0.051
606	0.05
606	0.049
606	0.049
607	0.048
607	0.048
608	0.047
608	0.046
609	0.045
609	0.045
610	0.044
610	0.043
610	0.044
611	0.044
611	0.045
612	0.046
612	0.047
613	0.048
613	0.049
614	0.049
614	0.049
614	0.049
615	0.049
615	0.048
616	0.048
616	0.048
617	0.048
617	0.047
618	0.046
618	0.046
618	0.046
619	0.046
619	0.047
620	0.048
620	0.049
621	0.05
621	0.05
622	0.051
622	0.052
622	0.052
623	0.052
623	0.053
624	0.054
624	0.053
625	0.053
625	0.053
626	0.053
626	0.053
626	0.053
627	0.053
627	0.053
628	0.054
628	0.054
629	0.054
629	0.054
630	0.054
630	0.053
630	0.054
631	0.055
631	0.055
632	0.056
632	0.056
633	0.057
633	0.058
634	0.059
634	0.061
634	0.063
635	0.064
635	0.065
636	0.066
636	0.068
637	0.069
637	0.069
638	0.071
638	0.072
638	0.073
639	0.074
639	0.074
640	0.076
640	0.077
641	0.078
641	0.08
642	0.081
642	0.083
642	0.084
643	0.085
643	0.086
644	0.087
644	0.088
645	0.089
645	0.09
646	0.091
646	0.093
646	0.094
647	0.096
647	0.098
648	0.099
648	0.101
649	0.103
649	0.105
650	0.107
650	0.109
650	0.111
651	0.112
651	0.114
652	0.115
652	0.116
653	0.119
653	0.126
653	0.133
654	0.108
654	0.09
655	0.091
655	0.092
656	0.094
656	0.095
657	0.097
657	0.098
657	0.099
658	0.096
658	0.09
659	0.113
659	0.142
660	0.149
660	0.151
661	0.152
661	0.154
661	0.156
662	0.159
662	0.161
663	0.163
663	0.166
664	0.168
664	0.169
665	0.172
665	0.173
665	0.176
666	0.177
666	0.179
667	0.18
667	0.182
668	0.184
668	0.185
669	0.187
669	0.19
669	0.193
670	0.195
670	0.197
671	0.199
671	0.2
672	0.202
672	0.204
672	0.205
673	0.206
673	0.207
674	0.208
674	0.208
675	0.208
675	0.209
676	0.21
676	0.211
676	0.212
677	0.213
677	0.215
678	0.216
678	0.216
679	0.217
679	0.218
680	0.22
680	0.22
680	0.221
681	0.221
681	0.222
682	0.222
682	0.223
683	0.224
683	0.225
684	0.226
684	0.226
684	0.226
685	0.227
685	0.228
686	0.228
686	0.228
687	0.229
687	0.229
687	0.229
688	0.228
688	0.227
689	0.227
689	0.227
690	0.227
690	0.226
691	0.225
691	0.225
691	0.225
692	0.224
692	0.223
693	0.223
693	0.223
694	0.222
694	0.221
695	0.222
695	0.223
695	0.222
696	0.221
696	0.22
697	0.22
697	0.219
698	0.218
698	0.216
698	0.216
699	0.215
699	0.213
700	0.211
700	0.211
701	0.21
701	0.209
702	0.208
702	0.208
702	0.206
703	0.205
703	0.203
704	0.202
704	0.201
705	0.2
705	0.198
705	0.196
706	0.195
706	0.193
707	0.192
707	0.19
708	0.188
708	0.186
709	0.185
709	0.183
709	0.18
710	0.178
710	0.176
711	0.174
711	0.173
712	0.171
712	0.17
713	0.168
713	0.167
713	0.166
714	0.165
714	0.163
715	0.162
715	0.161
716	0.159
716	0.159
716	0.158
717	0.157
717	0.156
718	0.154
718	0.153
719	0.152
719	0.151
720	0.15
720	0.148
720	0.146
721	0.143
721	0.141
722	0.139
722	0.136
723	0.135
723	0.133
723	0.131
724	0.129
724	0.127
725	0.126
725	0.124
726	0.123
726	0.122
727	0.12
727	0.119
727	0.118
728	0.116
728	0.115
729	0.114
729	0.113
730	0.111
730	0.109
730	0.108
731	0.106
731	0.105
732	0.104
732	0.103
733	0.102
733	0.101
734	0.1
734	0.099
734	0.098
735	0.097
735	0.096
736	0.094
736	0.093
737	0.092
737	0.091
737	0.089
738	0.087
738	0.085
739	0.083
739	0.082
740	0.08
740	0.078
741	0.076
741	0.074
741	0.071
742	0.068
742	0.066
743	0.064
743	0.061
744	0.059
744	0.057
744	0.055
745	0.053
745	0.051
746	0.05
746	0.049
747	0.049
747	0.049
748	0.049
748	0.049
748	0.049
749	0.049
749	0.049
750	0.049
750	0.049
751	0.049
751	0.049
751	0.049
752	0.048
752	0.047
753	0.046
753	0.045
754	0.044
754	0.043
754	0.043
755	0.043
755	0.043
756	0.042
756	0.041
757	0.041
757	0.041
758	0.041
758	0.041
758	0.041
759	0.041
759	0.039
760	0.038
760	0.037
761	0.037
761	0.037
761	0.037
762	0.036
762	0.035
763	0.034
763	0.032
764	0.031
764	0.029
764	0.028
765	0.026
765	0.024
766	0.023
766	0.022
767	0.021
767	0.019
768	0.017
768	0.016
768	0.015
769	0.014
769	0.013
770	0.012
770	0.011
771	0.009
771	0.007
771	0.005
772	0.003
772	0.001
773	-0.001
773	-0.003
774	-0.005
774	-0.007
775	-0.009
775	-0.01
775	-0.012
776	-0.014
776	-0.015
777	-0.017
777	-0.018
778	-0.02
778	-0.023
778	-0.025
779	-0.027
779	-0.028
780	-0.032
780	-0.035
781	-0.038
781	-0.042
781	-0.046
782	-0.051
782	-0.056
783	-0.061
783	-0.066
784	-0.073
784	-0.08
784	-0.086
785	-0.093
785	-0.1
786	-0.106
786	-0.108
787	-0.108
787	-0.108
788	-0.112
788	-0.116
788	-0.119
789	-0.122
789	-0.123
790	-0.121
790	-0.121
791	-0.123
791	-0.125
791	-0.128
792	-0.124
792	-0.113
793	-0.108
793	-0.104
794	-0.102
794	-0.103
794	-0.107
795	-0.109
795	-0.108
796	-0.108
796	-0.11
797	-0.118
797	-0.129
797	-0.135
798	-0.139
798	-0.142
799	-0.143
799	-0.143
800	-0.143
800	-0.145
801	-0.148
801	-0.149
801	-0.15
802	-0.151
802	-0.152
803	-0.153
803	-0.152
804	-0.151
804	-0.145
804	-0.138
805	-0.133
805	-0.13
806	-0.128
806	-0.126
807	-0.125
807	-0.124
807	-0.124
808	-0.124
808	-0.125
809	-0.13
809	-0.136
810	-0.14
810	-0.143
810	-0.147
811	-0.151
811	-0.152
812	-0.149
812	-0.146
813	-0.147
813	-0.148
813	-0.15
814	-0.151
814	-0.151
815	-0.148
815	-0.145
816	-0.143
816	-0.143
817	-0.147
817	-0.148
817	-0.146
818	-0.142
818	-0.136
819	-0.13
819	-0.124
820	-0.12
820	-0.116
820	-0.11
821	-0.103
821	-0.094
822	-0.086
822	-0.079
823	-0.072
823	-0.067
823	-0.062
824	-0.057
824	-0.051
825	-0.045
825	-0.039
826	-0.034
826	-0.031
826	-0.028
827	-0.025
827	-0.022
828	-0.02
828	-0.019
829	-0.017
829	-0.016
829	-0.016
830	-0.016
830	-0.016
831	-0.015
831	-0.014
832	-0.013
832	-0.012
832	-0.011
833	-0.01
833	-0.009
834	-0.008
834	-0.007
835	-0.006
835	-0.005
835	-0.005
836	-0.004
836	-0.004
837	-0.004
837	-0.004
838	-0.004
838	-0.004
839	-0.004
839	-0.004
839	-0.005
840	-0.005
840	-0.005
841	-0.004
841	-0.004
842	-0.003
842	-0.003
842	-0.002
843	-0.001
843	-0
844	0.001
844	0.002
845	0.002
845	0.003
845	0.004
846	0.004
846	0.004
847	0.004
847	0.005
848	0.006
848	0.006
848	0.007
849	0.009
849	0.01
850	0.01
850	0.01
851	0.011
851	0.012
851	0.012
852	0.011
852	0.011
853	0.01
853	0.009
854	0.008
854	0.006
854	0.005
855	0.004
855	0.003
856	0.003
856	0.003
857	0.003
857	0.003
857	0.004
858	0.005
858	0.006
859	0.008
859	0.009
860	0.011
860	0.013
860	0.015
861	0.016
861	0.017
862	0.018
862	0.018
863	0.019
863	0.018
863	0.018
864	0.017
864	0.016
865	0.016
865	0.015
866	0.015
866	0.014
866	0.013
867	0.013
867	0.012
868	0.012
868	0.011
869	0.01
869	0.009
869	0.008
870	0.006
870	0.005
871	0.004
871	0.003
872	0.002
872	0.001
872	0.001
873	0.001
873	0
874	0
874	0.001
875	0.002
875	0.002
875	0.003
876	0.003
876	0.004
877	0.005
877	0.005
878	0.006
878	0.007
878	0.007
879	0.008
879	0.008
880	0.008
880	0.009
881	0.009
881	0.009
881	0.009
882	0.009
882	0.01
883	0.01
883	0.01
884	0.01
884	0.01
884	0.011
885	0.011
885	0.011
886	0.011
886	0.011
887	0.011
887	0.011
887	0.011
888	0.012
888	0.012
889	0.013
889	0.014
890	0.015
890	0.015
890	0.016
891	0.016
891	0.017
892	0.017
892	0.017
893	0.017
893	0.017
893	0.017
894	0.016
894	0.015
895	0.014
895	0.013
895	0.012
896	0.011
896	0.01
897	0.009
897	0.007
898	0.006
898	0.005
898	0.004
899	0.004
899	0.003
900	0.003
900	0.003
901	0.003
901	0.003
901	0.002
902	0.003
902	0.002
903	0.002
903	0.002
904	0.001
904	0
904	-0
905	-0
905	-0.001
906	-0.001
906	-0
907	-0
907	0
907	0.001
908	0.002
908	0.003
909	0.004
909	0.005
910	0.007
910	0.008
910	0.009
911	0.009
911	0.01
912	0.01
912	0.011
913	0.011
913	0.01
913	0.01
914	0.009
914	0.008
915	0.007
915	0.006
916	0.005
916	0.005
916	0.005
917	0.004
917	0.004
918	0.004
918	0.004
918	0.004
919	0.004
919	0.003
920	0.003
920	0.003
921	0.003
921	0.003
921	0.002
922	0.002
922	0.003
923	0.003
923	0.003
924	0.004
924	0.004
924	0.005
925	0.005
925	0.005
926	0.006
926	0.006
927	0.006
927	0.005
927	0.005
928	0.005
928	0.005
929	0.004
929	0.004
930	0.004
930	0.003
930	0.003
931	0.002
931	0.002
932	0.002
932	0.001
933	0.001
933	0.001
933	-0
934	-0.001
934	-0.001
935	-0.002
935	-0.002
935	-0.002
936	-0.003
936	-0.003
937	-0.003
937	-0.002
938	-0.002
938	-0.002
938	-0.001
939	-0.001
939	0
940	0.001
940	0.002
941	0.003
941	0.003
941	0.004
942	0.005
942	0.005
943	0.005
943	0.006
944	0.006
944	0.007
944	0.008
945	0.008
945	0.009
946	0.01
946	0.01
946	0.01
947	0.011
947	0.011
948	0.011
948	0.011
949	0.011
949	0.011
949	0.011
950	0.012
950	0.012
951	0.013
951	0.013
952	0.014
952	0.015
952	0.015
953	0.016
953	0.016
954	0.017
954	0.016
955	0.016
955	0.016
955	0.016
956	0.015
956	0.015
957	0.014
957	0.013
957	0.012
958	0.011
958	0.01
959	0.009
959	0.008
960	0.007
960	0.005
960	0.004
961	0.002
961	0.001
962	-0
962	-0.002
963	-0.003
963	-0.004
963	-0.005
964	-0.006
964	-0.007
965	-0.007
965	-0.007
966	-0.007
966	-0.007
966	-0.006
967	-0.006
967	-0.006
968	-0.006
968	-0.006
968	-0.005
969	-0.005
969	-0.005
970	-0.005
970	-0.005
971	-0.005
971	-0.005
971	-0.004
972	-0.004
972	-0.003
973	-0.002
973	-0.002
974	-0.001
974	0
974	0.001
975	0.002
975	0.003
976	0.004
976	0.004
976	0.004
977	0.004
977	0.003
978	0.003
978	0.002
979	0.002
979	0.001
979	0
980	-0.001
980	-0.002
981	-0.003
981	-0.004
982	-0.004
982	-0.005
982	-0.005
983	-0.005
983	-0.005
984	-0.005
984	-0.005
984	-0.004
985	-0.004
985	-0.003
986	-0.002
986	-0.002
987	-0.001
987	-0.001
987	-0.001
988	-0
988	-0
989	0
989	-0
990	-0
990	-0
990	-0
991	0
991	0
992	0.001
992	0.001
992	0.002
993	0.003
993	0.003
994	0.004
994	0.004
995	0.005
995	0.005
995	0.005
996	0.004
996	0.004
997	0.003
997	0.003
997	0.002
998	0.001
998	0.001
999	0
999	-0
1000	-0.001
1000	-0.001
1000	-0.001
1001	-0.001
1001	-0.002
1002	-0.002
1002	-0.002
1003	-0.002
1003	-0.002
1003	-0.003
1004	-0.003
1004	-0.004
1005	-0.004
1005	-0.004
1005	-0.005
1006	-0.005
1006	-0.006
1007	-0.006
1007	-0.007
1008	-0.007
1008	-0.007
1008	-0.007
1009	-0.007
1009	-0.007
1010	-0.007
1010	-0.007
1010	-0.007
1011	-0.007
1011	-0.007
1012	-0.007
1012	-0.006
1013	-0.006
1013	-0.006
1013	-0.006
1014	-0.006
1014	-0.006
1015	-0.006
1015	-0.005
1016	-0.005
1016	-0.004
1016	-0.004
1017	-0.004
1017	-0.003
1018	-0.003
1018	-0.002
1018	-0.002
1019	-0.002
1019	-0.001
1020	-0.001
1020	-0.002
1021	-0.002
1021	-0.002
1021	-0.003
1022	-0.003
1022	-0.003
1023	-0.004
1023	-0.004
1023	-0.004
1024	-0.005
1024	-0.005
1025	-0.006
1025	-0.006
1026	-0.006
1026	-0.006
1026	-0.006
1027	-0.006
1027	-0.006
1028	-0.006
1028	-0.005
1028	-0.005
1029	-0.005
1029	-0.004
1030	-0.004
1030	-0.004
1031	-0.004
1031	-0.004
1031	-0.004
1032	-0.005
1032	-0.005
1033	-0.005
1033	-0.006
1033	-0.007
1034	-0.008
1034	-0.009
1035	-0.009
1035	-0.01
1036	-0.011
1036	-0.012
1036	-0.012
1037	-0.013
1037	-0.013
1038	-0.013
1038	-0.013
1039	-0.013
1039	-0.013
1039	-0.012
1040	-0.013
1040	-0.013
1041	-0.013
1041	-0.014
1041	-0.014
1042	-0.015
1042	-0.015
1043	-0.016
1043	-0.016
1044	-0.017
1044	-0.017
1044	-0.017
1045	-0.018
1045	-0.018
1046	-0.018
1046	-0.019
1046	-0.018
1047	-0.018
1047	-0.018
1048	-0.017
1048	-0.017
1049	-0.016
1049	-0.016
1049	-0.016
1050	-0.015
1050	-0.014
1051	-0.014
1051	-0.013
1051	-0.012
1052	-0.011
1052	-0.011
1053	-0.01
1053	-0.009
1053	-0.009
1054	-0.008
1054	-0.007
1055	-0.006
1055	-0.006
1056	-0.006
1056	-0.006
1056	-0.007
1057	-0.008
1057	-0.009
1058	-0.009
1058	-0.01
1058	-0.011
1059	-0.012
1059	-0.013
1060	-0.014
1060	-0.014
1061	-0.015
1061	-0.014
1061	-0.014
1062	-0.015
1062	-0.015
1063	-0.015
1063	-0.016
1063	-0.016
1064	-0.016
1064	-0.016
1065	-0.015
1065	-0.016
1066	-0.015
1066	-0.015
1066	-0.014
1067	-0.013
1067	-0.012
1068	-0.012
1068	-0.011
1068	-0.01
1069	-0.009
1069	-0.009
1070	-0.008
1070	-0.008
1071	-0.007
1071	-0.006
1071	-0.006
1072	-0.005
1072	-0.004
1073	-0.003
1073	-0.002
1073	-0.001
1074	0
1074	0.001
1075	0.002
1075	0.002
1076	0.002
1076	0.003
1076	0.002
1077	0.002
1077	0.003
1078	0.003
1078	0.004
1078	0.004
1079	0.005
1079	0.006
1080	0.006
1080	0.008
1080	0.009
1081	0.01
1081	0.011
1082	0.011
1082	0.012
1083	0.012
1083	0.013
1083	0.014
1084	0.015
1084	0.016
1085	0.016
1085	0.017
1085	0.018
1086	0.019
1086	0.019
1087	0.021
1087	0.022
1088	0.021
1088	0.021
1088	0.023
1089	0.023
1089	0.024
1090	0.024
1090	0.026
1090	0.026
1091	0.027
1091	0.029
1092	0.03
1092	0.032
1092	0.034
1093	0.034
1093	0.036
1094	0.038
1094	0.039
1095	0.041
1095	0.042
1095	0.046
1096	0.048
1096	0.052
1097	0.055
1097	0.058
1097	0.062
1098	0.065
1098	0.068
1099	0.073
1099	0.077
1100	0.082
1100	0.086
1100	0.091
1101	0.096
1101	0.102
1102	0.11
1102	0.118
1102	0.127
1103	0.137
1103	0.146
1104	0.159
1104	0.171
1104	0.186
1105	0.2
1105	0.216
1106	0.23
1106	0.249
1107	0.269
1107	0.298
1107	0.337
1108	0.464
1108	0.7
1109	1.751
1109	-0
1109	-0
1110	-0
1110	-0
1111	-0
1111	-0
