Data from 15c-2-2a_Absorbance__1628__03429.txt Node

Date: Wed Jan 24 13:58:08 CET 2024
User: Marek
Spectrometer: MAYP115816
Trigger mode: 0
Integration Time (sec): 2.000000E-1
Scans to average: 10
Electric dark correction enabled: true
Nonlinearity correction enabled: true
Boxcar width: 5
XAxis mode: Wavelengths
Number of Pixels in Spectrum: 2068
>>>>>Begin Spectral Data<<<<<
199	-1.788
199	-1.628
200	-1.469
200	-1.346
201	-1.273
201	-1.221
202	-1.15
202	-1.094
203	-1.045
203	-1.003
204	-0.975
204	-0.949
205	-0.927
205	-0.918
205	-0.916
206	-0.912
206	-0.91
207	-0.906
207	-0.903
208	-0.902
208	-0.9
209	-0.898
209	-0.899
210	-0.898
210	-0.896
211	-0.895
211	-0.894
212	-0.892
212	-0.89
213	-0.888
213	-0.885
213	-0.883
214	-0.881
214	-0.876
215	-0.875
215	-0.872
216	-0.87
216	-0.868
217	-0.866
217	-0.867
218	-0.867
218	-0.865
219	-0.863
219	-0.862
220	-0.859
220	-0.858
221	-0.857
221	-0.854
221	-0.85
222	-0.844
222	-0.838
223	-0.831
223	-0.825
224	-0.817
224	-0.808
225	-0.8
225	-0.79
226	-0.781
226	-0.769
227	-0.757
227	-0.745
228	-0.727
228	-0.709
229	-0.687
229	-0.665
229	-0.639
230	-0.609
230	-0.575
231	-0.54
231	-0.501
232	-0.462
232	-0.421
233	-0.38
233	-0.336
234	-0.293
234	-0.249
235	-0.207
235	-0.166
236	-0.127
236	-0.089
236	-0.054
237	-0.02
237	0.012
238	0.04
238	0.067
239	0.092
239	0.115
240	0.136
240	0.154
241	0.171
241	0.187
242	0.201
242	0.214
243	0.225
243	0.235
243	0.244
244	0.253
244	0.261
245	0.267
245	0.273
246	0.279
246	0.284
247	0.289
247	0.294
248	0.299
248	0.303
249	0.307
249	0.31
250	0.314
250	0.318
250	0.321
251	0.324
251	0.327
252	0.33
252	0.332
253	0.335
253	0.337
254	0.339
254	0.341
255	0.343
255	0.345
256	0.346
256	0.347
257	0.348
257	0.349
258	0.35
258	0.351
258	0.351
259	0.352
259	0.352
260	0.352
260	0.352
261	0.352
261	0.353
262	0.353
262	0.352
263	0.352
263	0.352
264	0.351
264	0.351
265	0.351
265	0.35
265	0.349
266	0.349
266	0.348
267	0.347
267	0.345
268	0.344
268	0.343
269	0.341
269	0.34
270	0.338
270	0.336
271	0.334
271	0.333
272	0.331
272	0.329
272	0.328
273	0.326
273	0.324
274	0.322
274	0.32
275	0.319
275	0.317
276	0.315
276	0.313
277	0.311
277	0.308
278	0.306
278	0.304
278	0.301
279	0.299
279	0.296
280	0.294
280	0.292
281	0.289
281	0.287
282	0.286
282	0.284
283	0.282
283	0.281
284	0.279
284	0.278
285	0.276
285	0.275
285	0.273
286	0.271
286	0.27
287	0.268
287	0.267
288	0.265
288	0.263
289	0.262
289	0.26
290	0.259
290	0.257
291	0.256
291	0.255
292	0.254
292	0.252
292	0.251
293	0.25
293	0.249
294	0.248
294	0.247
295	0.246
295	0.245
296	0.243
296	0.243
297	0.242
297	0.241
298	0.24
298	0.239
298	0.238
299	0.238
299	0.237
300	0.236
300	0.235
301	0.235
301	0.234
302	0.233
302	0.232
303	0.232
303	0.231
304	0.23
304	0.23
305	0.229
305	0.228
305	0.228
306	0.227
306	0.226
307	0.226
307	0.225
308	0.224
308	0.224
309	0.223
309	0.222
310	0.222
310	0.221
311	0.22
311	0.219
311	0.219
312	0.218
312	0.217
313	0.217
313	0.216
314	0.215
314	0.215
315	0.214
315	0.213
316	0.212
316	0.212
317	0.211
317	0.211
318	0.21
318	0.209
318	0.208
319	0.208
319	0.207
320	0.206
320	0.206
321	0.205
321	0.204
322	0.204
322	0.203
323	0.202
323	0.202
324	0.201
324	0.201
324	0.2
325	0.199
325	0.199
326	0.198
326	0.198
327	0.197
327	0.196
328	0.196
328	0.195
329	0.195
329	0.194
330	0.193
330	0.193
330	0.192
331	0.192
331	0.191
332	0.19
332	0.19
333	0.189
333	0.188
334	0.188
334	0.187
335	0.186
335	0.186
336	0.185
336	0.185
336	0.184
337	0.184
337	0.184
338	0.183
338	0.183
339	0.182
339	0.182
340	0.181
340	0.181
341	0.18
341	0.18
342	0.179
342	0.179
342	0.178
343	0.178
343	0.177
344	0.177
344	0.176
345	0.176
345	0.176
346	0.175
346	0.175
347	0.175
347	0.174
348	0.174
348	0.174
348	0.174
349	0.173
349	0.173
350	0.172
350	0.172
351	0.171
351	0.171
352	0.17
352	0.17
353	0.169
353	0.169
354	0.168
354	0.168
354	0.167
355	0.167
355	0.166
356	0.166
356	0.166
357	0.165
357	0.164
358	0.164
358	0.164
359	0.164
359	0.164
360	0.165
360	0.165
360	0.165
361	0.165
361	0.165
362	0.166
362	0.166
363	0.166
363	0.166
364	0.166
364	0.166
365	0.165
365	0.165
366	0.165
366	0.164
366	0.164
367	0.164
367	0.164
368	0.163
368	0.163
369	0.163
369	0.163
370	0.162
370	0.162
371	0.162
371	0.162
372	0.162
372	0.161
372	0.162
373	0.161
373	0.161
374	0.161
374	0.161
375	0.161
375	0.161
376	0.16
376	0.161
377	0.16
377	0.16
378	0.16
378	0.16
378	0.16
379	0.16
379	0.16
380	0.16
380	0.16
381	0.16
381	0.159
382	0.159
382	0.159
383	0.159
383	0.159
383	0.158
384	0.158
384	0.158
385	0.158
385	0.158
386	0.158
386	0.158
387	0.158
387	0.157
388	0.157
388	0.157
389	0.157
389	0.157
389	0.156
390	0.156
390	0.156
391	0.156
391	0.157
392	0.157
392	0.157
393	0.156
393	0.156
394	0.156
394	0.156
394	0.156
395	0.156
395	0.155
396	0.155
396	0.155
397	0.155
397	0.155
398	0.155
398	0.154
399	0.154
399	0.154
400	0.153
400	0.153
400	0.153
401	0.153
401	0.152
402	0.152
402	0.151
403	0.151
403	0.151
404	0.151
404	0.151
405	0.151
405	0.15
405	0.15
406	0.15
406	0.15
407	0.15
407	0.15
408	0.149
408	0.149
409	0.149
409	0.149
410	0.149
410	0.149
411	0.149
411	0.149
411	0.148
412	0.148
412	0.148
413	0.148
413	0.148
414	0.148
414	0.147
415	0.147
415	0.147
416	0.147
416	0.146
416	0.146
417	0.146
417	0.145
418	0.145
418	0.145
419	0.145
419	0.145
420	0.146
420	0.146
421	0.146
421	0.146
421	0.146
422	0.146
422	0.146
423	0.146
423	0.146
424	0.146
424	0.145
425	0.145
425	0.144
426	0.144
426	0.144
427	0.144
427	0.144
427	0.144
428	0.144
428	0.144
429	0.144
429	0.145
430	0.144
430	0.144
431	0.144
431	0.144
432	0.144
432	0.144
432	0.143
433	0.143
433	0.142
434	0.142
434	0.142
435	0.142
435	0.142
436	0.142
436	0.142
437	0.141
437	0.141
437	0.141
438	0.141
438	0.141
439	0.141
439	0.14
440	0.14
440	0.14
441	0.14
441	0.14
442	0.14
442	0.141
442	0.141
443	0.141
443	0.141
444	0.141
444	0.141
445	0.142
445	0.142
446	0.142
446	0.141
447	0.141
447	0.141
447	0.141
448	0.141
448	0.141
449	0.141
449	0.14
450	0.14
450	0.14
451	0.14
451	0.14
452	0.14
452	0.139
452	0.139
453	0.139
453	0.138
454	0.138
454	0.137
455	0.137
455	0.137
456	0.136
456	0.136
457	0.136
457	0.136
458	0.136
458	0.136
458	0.136
459	0.136
459	0.137
460	0.137
460	0.136
461	0.136
461	0.136
462	0.137
462	0.137
463	0.137
463	0.137
463	0.138
464	0.138
464	0.137
465	0.137
465	0.137
466	0.138
466	0.138
467	0.137
467	0.137
467	0.137
468	0.136
468	0.136
469	0.135
469	0.135
470	0.135
470	0.135
471	0.135
471	0.135
472	0.135
472	0.136
472	0.136
473	0.137
473	0.138
474	0.138
474	0.139
475	0.139
475	0.139
476	0.14
476	0.14
477	0.14
477	0.14
477	0.141
478	0.141
478	0.141
479	0.142
479	0.142
480	0.143
480	0.144
481	0.145
481	0.146
482	0.147
482	0.148
482	0.149
483	0.15
483	0.152
484	0.153
484	0.154
485	0.155
485	0.156
486	0.156
486	0.157
487	0.157
487	0.158
487	0.158
488	0.158
488	0.157
489	0.157
489	0.157
490	0.158
490	0.158
491	0.159
491	0.16
492	0.161
492	0.162
492	0.163
493	0.164
493	0.165
494	0.167
494	0.168
495	0.169
495	0.17
496	0.171
496	0.172
496	0.173
497	0.174
497	0.175
498	0.176
498	0.177
499	0.178
499	0.179
500	0.18
500	0.182
501	0.183
501	0.185
501	0.186
502	0.188
502	0.189
503	0.19
503	0.191
504	0.192
504	0.193
505	0.194
505	0.194
506	0.195
506	0.195
506	0.196
507	0.196
507	0.197
508	0.198
508	0.199
509	0.2
509	0.201
510	0.202
510	0.203
511	0.204
511	0.204
511	0.205
512	0.206
512	0.206
513	0.206
513	0.206
514	0.206
514	0.206
515	0.206
515	0.206
515	0.207
516	0.207
516	0.208
517	0.209
517	0.21
518	0.21
518	0.21
519	0.21
519	0.209
520	0.208
520	0.207
520	0.206
521	0.205
521	0.203
522	0.201
522	0.201
523	0.2
523	0.2
524	0.201
524	0.203
524	0.204
525	0.206
525	0.208
526	0.21
526	0.211
527	0.213
527	0.214
528	0.214
528	0.215
529	0.215
529	0.215
529	0.214
530	0.214
530	0.213
531	0.213
531	0.212
532	0.211
532	0.211
533	0.21
533	0.21
533	0.209
534	0.208
534	0.207
535	0.206
535	0.205
536	0.204
536	0.203
537	0.202
537	0.201
538	0.2
538	0.198
538	0.197
539	0.196
539	0.195
540	0.194
540	0.192
541	0.191
541	0.189
542	0.187
542	0.186
542	0.184
543	0.182
543	0.181
544	0.179
544	0.178
545	0.176
545	0.175
546	0.174
546	0.173
547	0.171
547	0.169
547	0.168
548	0.166
548	0.164
549	0.162
549	0.161
550	0.159
550	0.157
551	0.155
551	0.153
551	0.151
552	0.15
552	0.148
553	0.147
553	0.146
554	0.144
554	0.143
555	0.141
555	0.139
556	0.137
556	0.135
556	0.133
557	0.131
557	0.129
558	0.127
558	0.126
559	0.124
559	0.122
560	0.121
560	0.12
560	0.118
561	0.118
561	0.117
562	0.116
562	0.115
563	0.114
563	0.112
564	0.11
564	0.108
564	0.107
565	0.106
565	0.105
566	0.103
566	0.101
567	0.1
567	0.099
568	0.099
568	0.099
568	0.099
569	0.1
569	0.1
570	0.1
570	0.099
571	0.099
571	0.099
572	0.099
572	0.098
573	0.098
573	0.097
573	0.096
574	0.095
574	0.094
575	0.093
575	0.093
576	0.093
576	0.092
577	0.09
577	0.089
577	0.088
578	0.087
578	0.087
579	0.087
579	0.088
580	0.087
580	0.085
581	0.082
581	0.081
581	0.081
582	0.08
582	0.08
583	0.08
583	0.079
584	0.077
584	0.074
585	0.073
585	0.073
585	0.073
586	0.073
586	0.073
587	0.071
587	0.07
588	0.068
588	0.067
589	0.066
589	0.066
590	0.065
590	0.065
590	0.065
591	0.066
591	0.065
592	0.065
592	0.064
593	0.064
593	0.064
594	0.063
594	0.062
594	0.061
595	0.061
595	0.059
596	0.058
596	0.059
597	0.06
597	0.061
598	0.061
598	0.062
598	0.063
599	0.063
599	0.063
600	0.062
600	0.062
601	0.061
601	0.061
602	0.059
602	0.059
602	0.058
603	0.058
603	0.059
604	0.06
604	0.06
605	0.061
605	0.062
606	0.062
606	0.061
606	0.06
607	0.059
607	0.059
608	0.059
608	0.057
609	0.056
609	0.056
610	0.055
610	0.054
610	0.055
611	0.055
611	0.056
612	0.057
612	0.058
613	0.059
613	0.06
614	0.06
614	0.059
614	0.06
615	0.059
615	0.059
616	0.059
616	0.058
617	0.058
617	0.057
618	0.056
618	0.056
618	0.056
619	0.056
619	0.057
620	0.059
620	0.06
621	0.06
621	0.061
622	0.062
622	0.062
622	0.063
623	0.063
623	0.064
624	0.065
624	0.064
625	0.064
625	0.064
626	0.064
626	0.064
626	0.064
627	0.065
627	0.065
628	0.065
628	0.065
629	0.065
629	0.065
630	0.065
630	0.065
630	0.066
631	0.067
631	0.068
632	0.068
632	0.069
633	0.07
633	0.071
634	0.072
634	0.074
634	0.076
635	0.077
635	0.078
636	0.08
636	0.081
637	0.083
637	0.083
638	0.085
638	0.086
638	0.087
639	0.088
639	0.089
640	0.09
640	0.092
641	0.093
641	0.095
642	0.096
642	0.098
642	0.1
643	0.101
643	0.102
644	0.104
644	0.105
645	0.106
645	0.107
646	0.108
646	0.11
646	0.112
647	0.114
647	0.116
648	0.118
648	0.121
649	0.123
649	0.126
650	0.128
650	0.13
650	0.132
651	0.134
651	0.136
652	0.137
652	0.139
653	0.142
653	0.149
653	0.157
654	0.127
654	0.105
655	0.107
655	0.109
656	0.11
656	0.112
657	0.114
657	0.115
657	0.116
658	0.113
658	0.107
659	0.134
659	0.17
660	0.176
660	0.178
661	0.18
661	0.182
661	0.184
662	0.187
662	0.19
663	0.193
663	0.195
664	0.198
664	0.2
665	0.203
665	0.205
665	0.207
666	0.21
666	0.211
667	0.213
667	0.215
668	0.217
668	0.219
669	0.221
669	0.224
669	0.227
670	0.23
670	0.233
671	0.235
671	0.237
672	0.239
672	0.241
672	0.242
673	0.244
673	0.245
674	0.246
674	0.246
675	0.246
675	0.247
676	0.249
676	0.25
676	0.251
677	0.252
677	0.254
678	0.255
678	0.256
679	0.257
679	0.258
680	0.26
680	0.261
680	0.262
681	0.262
681	0.263
682	0.263
682	0.264
683	0.265
683	0.266
684	0.268
684	0.268
684	0.268
685	0.269
685	0.27
686	0.27
686	0.271
687	0.271
687	0.271
687	0.27
688	0.27
688	0.269
689	0.268
689	0.268
690	0.268
690	0.267
691	0.266
691	0.266
691	0.265
692	0.264
692	0.264
693	0.263
693	0.263
694	0.263
694	0.261
695	0.262
695	0.262
695	0.262
696	0.261
696	0.26
697	0.259
697	0.258
698	0.257
698	0.256
698	0.255
699	0.254
699	0.252
700	0.25
700	0.249
701	0.249
701	0.247
702	0.246
702	0.245
702	0.244
703	0.242
703	0.24
704	0.238
704	0.237
705	0.236
705	0.234
705	0.232
706	0.23
706	0.228
707	0.226
707	0.224
708	0.222
708	0.22
709	0.218
709	0.215
709	0.213
710	0.21
710	0.208
711	0.206
711	0.204
712	0.202
712	0.201
713	0.199
713	0.198
713	0.196
714	0.195
714	0.193
715	0.192
715	0.19
716	0.189
716	0.188
716	0.187
717	0.185
717	0.184
718	0.182
718	0.181
719	0.18
719	0.178
720	0.177
720	0.175
720	0.172
721	0.17
721	0.167
722	0.165
722	0.162
723	0.16
723	0.158
723	0.155
724	0.153
724	0.151
725	0.149
725	0.147
726	0.146
726	0.144
727	0.142
727	0.141
727	0.139
728	0.137
728	0.136
729	0.135
729	0.133
730	0.131
730	0.129
730	0.127
731	0.126
731	0.124
732	0.123
732	0.122
733	0.121
733	0.12
734	0.118
734	0.117
734	0.116
735	0.115
735	0.114
736	0.112
736	0.111
737	0.109
737	0.108
737	0.106
738	0.104
738	0.101
739	0.099
739	0.097
740	0.095
740	0.093
741	0.091
741	0.089
741	0.086
742	0.082
742	0.079
743	0.077
743	0.074
744	0.072
744	0.07
744	0.068
745	0.066
745	0.064
746	0.062
746	0.062
747	0.061
747	0.061
748	0.06
748	0.061
748	0.06
749	0.06
749	0.06
750	0.059
750	0.059
751	0.059
751	0.059
751	0.059
752	0.057
752	0.056
753	0.055
753	0.054
754	0.053
754	0.052
754	0.052
755	0.052
755	0.052
756	0.051
756	0.05
757	0.049
757	0.05
758	0.049
758	0.049
758	0.049
759	0.048
759	0.047
760	0.046
760	0.044
761	0.044
761	0.044
761	0.043
762	0.042
762	0.041
763	0.041
763	0.039
764	0.037
764	0.035
764	0.034
765	0.032
765	0.03
766	0.028
766	0.027
767	0.026
767	0.024
768	0.021
768	0.02
768	0.019
769	0.018
769	0.017
770	0.015
770	0.014
771	0.012
771	0.009
771	0.007
772	0.006
772	0.004
773	0.002
773	-0
774	-0.003
774	-0.005
775	-0.007
775	-0.008
775	-0.01
776	-0.012
776	-0.014
777	-0.016
777	-0.017
778	-0.02
778	-0.022
778	-0.025
779	-0.026
779	-0.028
780	-0.031
780	-0.035
781	-0.038
781	-0.042
781	-0.047
782	-0.052
782	-0.057
783	-0.063
783	-0.068
784	-0.075
784	-0.083
784	-0.09
785	-0.097
785	-0.105
786	-0.11
786	-0.112
787	-0.112
787	-0.112
788	-0.115
788	-0.118
788	-0.121
789	-0.123
789	-0.124
790	-0.122
790	-0.121
791	-0.122
791	-0.125
791	-0.128
792	-0.123
792	-0.113
793	-0.108
793	-0.104
794	-0.102
794	-0.103
794	-0.107
795	-0.108
795	-0.108
796	-0.108
796	-0.11
797	-0.118
797	-0.128
797	-0.134
798	-0.139
798	-0.142
799	-0.143
799	-0.143
800	-0.143
800	-0.145
801	-0.148
801	-0.149
801	-0.15
802	-0.151
802	-0.152
803	-0.152
803	-0.152
804	-0.151
804	-0.145
804	-0.138
805	-0.133
805	-0.13
806	-0.127
806	-0.126
807	-0.124
807	-0.124
807	-0.123
808	-0.123
808	-0.125
809	-0.13
809	-0.136
810	-0.14
810	-0.143
810	-0.147
811	-0.151
811	-0.152
812	-0.149
812	-0.146
813	-0.147
813	-0.148
813	-0.149
814	-0.15
814	-0.15
815	-0.148
815	-0.145
816	-0.143
816	-0.143
817	-0.146
817	-0.149
817	-0.148
818	-0.144
818	-0.139
819	-0.133
819	-0.128
820	-0.125
820	-0.121
820	-0.116
821	-0.109
821	-0.101
822	-0.092
822	-0.085
823	-0.077
823	-0.072
823	-0.066
824	-0.06
824	-0.054
825	-0.048
825	-0.042
826	-0.037
826	-0.033
826	-0.029
827	-0.026
827	-0.023
828	-0.021
828	-0.019
829	-0.017
829	-0.016
829	-0.016
830	-0.016
830	-0.016
831	-0.015
831	-0.014
832	-0.013
832	-0.012
832	-0.011
833	-0.01
833	-0.009
834	-0.008
834	-0.007
835	-0.006
835	-0.005
835	-0.005
836	-0.004
836	-0.004
837	-0.004
837	-0.003
838	-0.003
838	-0.003
839	-0.003
839	-0.003
839	-0.004
840	-0.004
840	-0.004
841	-0.003
841	-0.003
842	-0.002
842	-0.002
842	-0.001
843	-0
843	0
844	0.001
844	0.002
845	0.003
845	0.003
845	0.004
846	0.004
846	0.004
847	0.004
847	0.005
848	0.005
848	0.006
848	0.007
849	0.008
849	0.009
850	0.009
850	0.01
851	0.011
851	0.011
851	0.011
852	0.01
852	0.01
853	0.009
853	0.008
854	0.007
854	0.006
854	0.005
855	0.004
855	0.003
856	0.003
856	0.002
857	0.003
857	0.003
857	0.004
858	0.005
858	0.006
859	0.007
859	0.009
860	0.011
860	0.013
860	0.014
861	0.016
861	0.017
862	0.017
862	0.018
863	0.018
863	0.018
863	0.018
864	0.017
864	0.017
865	0.016
865	0.016
866	0.015
866	0.014
866	0.014
867	0.013
867	0.013
868	0.012
868	0.011
869	0.011
869	0.009
869	0.008
870	0.006
870	0.005
871	0.004
871	0.003
872	0.002
872	0.001
872	0.001
873	0
873	0
874	0
874	0.001
875	0.002
875	0.002
875	0.003
876	0.004
876	0.004
877	0.005
877	0.006
878	0.006
878	0.007
878	0.008
879	0.008
879	0.008
880	0.009
880	0.009
881	0.009
881	0.009
881	0.009
882	0.009
882	0.009
883	0.009
883	0.01
884	0.01
884	0.01
884	0.01
885	0.01
885	0.01
886	0.01
886	0.01
887	0.01
887	0.011
887	0.011
888	0.011
888	0.012
889	0.013
889	0.013
890	0.014
890	0.015
890	0.016
891	0.016
891	0.016
892	0.017
892	0.016
893	0.016
893	0.016
893	0.016
894	0.015
894	0.014
895	0.013
895	0.012
895	0.011
896	0.009
896	0.008
897	0.007
897	0.006
898	0.004
898	0.003
898	0.002
899	0.002
899	0.001
900	0.001
900	0.001
901	0
901	0
901	0
902	0
902	0
903	0
903	-0
904	-0
904	-0.001
904	-0.001
905	-0.001
905	-0.001
906	-0.001
906	-0
907	0
907	0.001
907	0.002
908	0.003
908	0.004
909	0.005
909	0.006
910	0.007
910	0.008
910	0.009
911	0.01
911	0.01
912	0.01
912	0.01
913	0.01
913	0.01
913	0.009
914	0.008
914	0.007
915	0.007
915	0.006
916	0.005
916	0.005
916	0.004
917	0.004
917	0.004
918	0.004
918	0.004
918	0.004
919	0.003
919	0.003
920	0.003
920	0.002
921	0.002
921	0.001
921	0.001
922	0.001
922	0.001
923	0.001
923	0.001
924	0.001
924	0.002
924	0.002
925	0.003
925	0.003
926	0.003
926	0.004
927	0.004
927	0.003
927	0.003
928	0.003
928	0.003
929	0.003
929	0.002
930	0.002
930	0.002
930	0.001
931	0.001
931	0
932	0
932	-0
933	-0
933	-0.001
933	-0.001
934	-0.002
934	-0.002
935	-0.002
935	-0.003
935	-0.003
936	-0.003
936	-0.003
937	-0.002
937	-0.002
938	-0.002
938	-0.002
938	-0.001
939	-0.001
939	0
940	0.001
940	0.002
941	0.002
941	0.003
941	0.003
942	0.004
942	0.004
943	0.005
943	0.005
944	0.005
944	0.006
944	0.006
945	0.007
945	0.008
946	0.008
946	0.008
946	0.008
947	0.009
947	0.01
948	0.01
948	0.01
949	0.01
949	0.011
949	0.011
950	0.012
950	0.013
951	0.014
951	0.014
952	0.015
952	0.015
952	0.016
953	0.017
953	0.017
954	0.017
954	0.017
955	0.017
955	0.017
955	0.016
956	0.016
956	0.015
957	0.014
957	0.012
957	0.011
958	0.01
958	0.009
959	0.008
959	0.007
960	0.006
960	0.005
960	0.003
961	0.002
961	0.001
962	-0.001
962	-0.002
963	-0.003
963	-0.004
963	-0.005
964	-0.006
964	-0.007
965	-0.007
965	-0.007
966	-0.007
966	-0.006
966	-0.006
967	-0.006
967	-0.006
968	-0.006
968	-0.006
968	-0.006
969	-0.006
969	-0.006
970	-0.005
970	-0.005
971	-0.005
971	-0.005
971	-0.004
972	-0.004
972	-0.003
973	-0.002
973	-0.001
974	-0
974	0.001
974	0.001
975	0.002
975	0.003
976	0.003
976	0.003
976	0.004
977	0.003
977	0.003
978	0.002
978	0.002
979	0.001
979	0
979	-0.001
980	-0.002
980	-0.003
981	-0.004
981	-0.005
982	-0.006
982	-0.006
982	-0.006
983	-0.007
983	-0.007
984	-0.007
984	-0.006
984	-0.006
985	-0.005
985	-0.004
986	-0.004
986	-0.003
987	-0.002
987	-0.002
987	-0.001
988	-0.001
988	-0
989	-0
989	-0
990	-0
990	-0
990	0
991	0.001
991	0.001
992	0.001
992	0.002
992	0.002
993	0.003
993	0.003
994	0.004
994	0.004
995	0.004
995	0.004
995	0.004
996	0.003
996	0.003
997	0.002
997	0.002
997	0.001
998	0.001
998	0
999	-0
999	-0.001
1000	-0.001
1000	-0.002
1000	-0.002
1001	-0.002
1001	-0.002
1002	-0.003
1002	-0.003
1003	-0.003
1003	-0.004
1003	-0.004
1004	-0.004
1004	-0.005
1005	-0.005
1005	-0.006
1005	-0.006
1006	-0.007
1006	-0.008
1007	-0.008
1007	-0.009
1008	-0.009
1008	-0.009
1008	-0.01
1009	-0.01
1009	-0.01
1010	-0.01
1010	-0.01
1010	-0.01
1011	-0.01
1011	-0.01
1012	-0.009
1012	-0.009
1013	-0.009
1013	-0.008
1013	-0.008
1014	-0.008
1014	-0.008
1015	-0.007
1015	-0.007
1016	-0.006
1016	-0.006
1016	-0.005
1017	-0.005
1017	-0.004
1018	-0.003
1018	-0.003
1018	-0.002
1019	-0.002
1019	-0.001
1020	-0.001
1020	-0.001
1021	-0.001
1021	-0.002
1021	-0.002
1022	-0.003
1022	-0.003
1023	-0.003
1023	-0.004
1023	-0.005
1024	-0.005
1024	-0.006
1025	-0.007
1025	-0.007
1026	-0.007
1026	-0.007
1026	-0.007
1027	-0.007
1027	-0.007
1028	-0.007
1028	-0.006
1028	-0.006
1029	-0.005
1029	-0.005
1030	-0.005
1030	-0.005
1031	-0.004
1031	-0.004
1031	-0.004
1032	-0.005
1032	-0.005
1033	-0.005
1033	-0.006
1033	-0.007
1034	-0.008
1034	-0.009
1035	-0.009
1035	-0.01
1036	-0.011
1036	-0.012
1036	-0.012
1037	-0.013
1037	-0.013
1038	-0.013
1038	-0.014
1039	-0.013
1039	-0.013
1039	-0.013
1040	-0.013
1040	-0.014
1041	-0.014
1041	-0.014
1041	-0.015
1042	-0.015
1042	-0.015
1043	-0.016
1043	-0.017
1044	-0.017
1044	-0.018
1044	-0.018
1045	-0.019
1045	-0.019
1046	-0.019
1046	-0.019
1046	-0.019
1047	-0.019
1047	-0.018
1048	-0.018
1048	-0.017
1049	-0.017
1049	-0.016
1049	-0.016
1050	-0.015
1050	-0.015
1051	-0.014
1051	-0.013
1051	-0.012
1052	-0.012
1052	-0.011
1053	-0.01
1053	-0.009
1053	-0.009
1054	-0.008
1054	-0.007
1055	-0.007
1055	-0.006
1056	-0.006
1056	-0.007
1056	-0.008
1057	-0.008
1057	-0.009
1058	-0.009
1058	-0.01
1058	-0.01
1059	-0.011
1059	-0.012
1060	-0.013
1060	-0.014
1061	-0.014
1061	-0.014
1061	-0.014
1062	-0.014
1062	-0.015
1063	-0.016
1063	-0.016
1063	-0.016
1064	-0.016
1064	-0.016
1065	-0.016
1065	-0.016
1066	-0.016
1066	-0.015
1066	-0.015
1067	-0.013
1067	-0.012
1068	-0.011
1068	-0.011
1068	-0.01
1069	-0.009
1069	-0.009
1070	-0.008
1070	-0.007
1071	-0.006
1071	-0.005
1071	-0.005
1072	-0.004
1072	-0.003
1073	-0.002
1073	-0
1073	0.001
1074	0.002
1074	0.003
1075	0.003
1075	0.003
1076	0.003
1076	0.004
1076	0.003
1077	0.003
1077	0.003
1078	0.003
1078	0.004
1078	0.005
1079	0.006
1079	0.007
1080	0.007
1080	0.008
1080	0.009
1081	0.01
1081	0.011
1082	0.012
1082	0.012
1083	0.013
1083	0.013
1083	0.014
1084	0.014
1084	0.016
1085	0.017
1085	0.018
1085	0.018
1086	0.02
1086	0.02
1087	0.021
1087	0.022
1088	0.023
1088	0.024
1088	0.025
1089	0.025
1089	0.026
1090	0.027
1090	0.029
1090	0.029
1091	0.03
1091	0.032
1092	0.033
1092	0.035
1092	0.037
1093	0.038
1093	0.04
1094	0.042
1094	0.043
1095	0.044
1095	0.046
1095	0.05
1096	0.052
1096	0.055
1097	0.058
1097	0.06
1097	0.064
1098	0.067
1098	0.071
1099	0.077
1099	0.081
1100	0.086
1100	0.091
1100	0.098
1101	0.104
1101	0.111
1102	0.12
1102	0.129
1102	0.139
1103	0.15
1103	0.16
1104	0.174
1104	0.187
1104	0.204
1105	0.219
1105	0.237
1106	0.255
1106	0.276
1107	0.299
1107	0.335
1107	0.379
1108	0.531
1108	0.849
1109	-0
1109	-0
1109	-0
1110	-0
1110	-0
1111	-0
1111	-0
