Data from 15c-2-2a_Absorbance__303__02104.txt Node

Date: Wed Jan 24 13:13:59 CET 2024
User: Marek
Spectrometer: MAYP115816
Trigger mode: 0
Integration Time (sec): 2.000000E-1
Scans to average: 10
Electric dark correction enabled: true
Nonlinearity correction enabled: true
Boxcar width: 5
XAxis mode: Wavelengths
Number of Pixels in Spectrum: 2068
>>>>>Begin Spectral Data<<<<<
199	-1.778
199	-1.618
200	-1.46
200	-1.338
201	-1.265
201	-1.213
202	-1.142
202	-1.086
203	-1.038
203	-0.997
204	-0.969
204	-0.944
205	-0.923
205	-0.914
205	-0.912
206	-0.908
206	-0.906
207	-0.902
207	-0.9
208	-0.898
208	-0.896
209	-0.894
209	-0.894
210	-0.894
210	-0.892
211	-0.891
211	-0.891
212	-0.89
212	-0.887
213	-0.885
213	-0.883
213	-0.881
214	-0.879
214	-0.876
215	-0.875
215	-0.871
216	-0.87
216	-0.867
217	-0.865
217	-0.866
218	-0.867
218	-0.865
219	-0.863
219	-0.861
220	-0.859
220	-0.857
221	-0.857
221	-0.854
221	-0.85
222	-0.844
222	-0.838
223	-0.831
223	-0.826
224	-0.818
224	-0.81
225	-0.803
225	-0.793
226	-0.783
226	-0.772
227	-0.76
227	-0.748
228	-0.731
228	-0.714
229	-0.693
229	-0.672
229	-0.647
230	-0.618
230	-0.587
231	-0.555
231	-0.52
232	-0.484
232	-0.446
233	-0.408
233	-0.368
234	-0.329
234	-0.291
235	-0.255
235	-0.219
236	-0.187
236	-0.155
236	-0.125
237	-0.098
237	-0.072
238	-0.05
238	-0.029
239	-0.01
239	0.007
240	0.022
240	0.036
241	0.048
241	0.06
242	0.069
242	0.078
243	0.086
243	0.094
243	0.1
244	0.106
244	0.111
245	0.116
245	0.12
246	0.124
246	0.128
247	0.132
247	0.135
248	0.139
248	0.142
249	0.145
249	0.147
250	0.15
250	0.153
250	0.155
251	0.158
251	0.16
252	0.162
252	0.164
253	0.166
253	0.168
254	0.169
254	0.171
255	0.173
255	0.174
256	0.175
256	0.176
257	0.177
257	0.178
258	0.179
258	0.179
258	0.18
259	0.181
259	0.181
260	0.181
260	0.181
261	0.181
261	0.182
262	0.181
262	0.181
263	0.181
263	0.181
264	0.18
264	0.18
265	0.18
265	0.179
265	0.178
266	0.178
266	0.177
267	0.176
267	0.175
268	0.174
268	0.172
269	0.171
269	0.17
270	0.168
270	0.167
271	0.166
271	0.164
272	0.163
272	0.161
272	0.16
273	0.158
273	0.157
274	0.155
274	0.154
275	0.153
275	0.151
276	0.15
276	0.148
277	0.146
277	0.145
278	0.143
278	0.141
278	0.139
279	0.136
279	0.135
280	0.133
280	0.131
281	0.129
281	0.127
282	0.126
282	0.125
283	0.123
283	0.122
284	0.121
284	0.12
285	0.119
285	0.118
285	0.116
286	0.115
286	0.114
287	0.113
287	0.111
288	0.11
288	0.109
289	0.108
289	0.107
290	0.106
290	0.105
291	0.104
291	0.103
292	0.102
292	0.101
292	0.1
293	0.1
293	0.099
294	0.098
294	0.097
295	0.097
295	0.096
296	0.096
296	0.095
297	0.094
297	0.094
298	0.093
298	0.093
298	0.093
299	0.092
299	0.092
300	0.091
300	0.091
301	0.091
301	0.09
302	0.09
302	0.09
303	0.089
303	0.089
304	0.089
304	0.088
305	0.088
305	0.088
305	0.088
306	0.087
306	0.087
307	0.087
307	0.086
308	0.086
308	0.086
309	0.086
309	0.085
310	0.085
310	0.085
311	0.084
311	0.084
311	0.084
312	0.083
312	0.083
313	0.083
313	0.082
314	0.082
314	0.081
315	0.081
315	0.081
316	0.08
316	0.08
317	0.08
317	0.08
318	0.079
318	0.079
318	0.079
319	0.078
319	0.078
320	0.078
320	0.077
321	0.077
321	0.077
322	0.076
322	0.076
323	0.076
323	0.075
324	0.075
324	0.075
324	0.075
325	0.074
325	0.074
326	0.074
326	0.073
327	0.073
327	0.073
328	0.072
328	0.072
329	0.072
329	0.071
330	0.071
330	0.071
330	0.07
331	0.07
331	0.07
332	0.069
332	0.069
333	0.069
333	0.068
334	0.068
334	0.068
335	0.067
335	0.067
336	0.067
336	0.067
336	0.066
337	0.066
337	0.066
338	0.066
338	0.065
339	0.065
339	0.065
340	0.065
340	0.065
341	0.064
341	0.064
342	0.064
342	0.063
342	0.063
343	0.063
343	0.062
344	0.062
344	0.062
345	0.062
345	0.061
346	0.061
346	0.061
347	0.061
347	0.061
348	0.06
348	0.06
348	0.06
349	0.06
349	0.06
350	0.06
350	0.059
351	0.059
351	0.059
352	0.058
352	0.058
353	0.058
353	0.057
354	0.057
354	0.056
354	0.056
355	0.056
355	0.055
356	0.055
356	0.055
357	0.054
357	0.054
358	0.054
358	0.054
359	0.054
359	0.054
360	0.055
360	0.055
360	0.055
361	0.055
361	0.055
362	0.056
362	0.056
363	0.056
363	0.056
364	0.056
364	0.056
365	0.056
365	0.055
366	0.055
366	0.055
366	0.055
367	0.055
367	0.055
368	0.055
368	0.055
369	0.054
369	0.054
370	0.054
370	0.054
371	0.054
371	0.054
372	0.054
372	0.053
372	0.053
373	0.053
373	0.053
374	0.054
374	0.053
375	0.053
375	0.053
376	0.053
376	0.054
377	0.054
377	0.054
378	0.054
378	0.054
378	0.054
379	0.054
379	0.054
380	0.054
380	0.054
381	0.054
381	0.054
382	0.054
382	0.054
383	0.053
383	0.053
383	0.053
384	0.053
384	0.053
385	0.053
385	0.053
386	0.053
386	0.054
387	0.054
387	0.053
388	0.053
388	0.053
389	0.053
389	0.053
389	0.053
390	0.053
390	0.053
391	0.054
391	0.054
392	0.054
392	0.054
393	0.054
393	0.054
394	0.054
394	0.054
394	0.054
395	0.054
395	0.053
396	0.053
396	0.053
397	0.053
397	0.053
398	0.054
398	0.053
399	0.053
399	0.053
400	0.053
400	0.053
400	0.053
401	0.053
401	0.052
402	0.052
402	0.052
403	0.052
403	0.052
404	0.052
404	0.052
405	0.052
405	0.052
405	0.051
406	0.051
406	0.051
407	0.051
407	0.051
408	0.051
408	0.051
409	0.051
409	0.051
410	0.051
410	0.051
411	0.051
411	0.051
411	0.051
412	0.051
412	0.051
413	0.051
413	0.051
414	0.051
414	0.05
415	0.05
415	0.05
416	0.05
416	0.05
416	0.049
417	0.049
417	0.049
418	0.049
418	0.049
419	0.049
419	0.049
420	0.05
420	0.05
421	0.05
421	0.05
421	0.05
422	0.05
422	0.05
423	0.051
423	0.05
424	0.05
424	0.05
425	0.049
425	0.049
426	0.049
426	0.048
427	0.048
427	0.048
427	0.049
428	0.049
428	0.049
429	0.05
429	0.05
430	0.05
430	0.05
431	0.05
431	0.05
432	0.05
432	0.049
432	0.049
433	0.049
433	0.048
434	0.048
434	0.048
435	0.048
435	0.048
436	0.048
436	0.048
437	0.048
437	0.047
437	0.047
438	0.047
438	0.047
439	0.047
439	0.047
440	0.047
440	0.047
441	0.047
441	0.047
442	0.047
442	0.048
442	0.048
443	0.048
443	0.048
444	0.048
444	0.048
445	0.049
445	0.049
446	0.049
446	0.049
447	0.049
447	0.049
447	0.049
448	0.049
448	0.049
449	0.049
449	0.048
450	0.048
450	0.048
451	0.048
451	0.048
452	0.047
452	0.047
452	0.047
453	0.047
453	0.046
454	0.046
454	0.045
455	0.045
455	0.045
456	0.045
456	0.044
457	0.044
457	0.044
458	0.044
458	0.044
458	0.044
459	0.044
459	0.044
460	0.044
460	0.044
461	0.044
461	0.044
462	0.044
462	0.045
463	0.045
463	0.045
463	0.046
464	0.045
464	0.045
465	0.045
465	0.045
466	0.045
466	0.045
467	0.045
467	0.044
467	0.044
468	0.043
468	0.042
469	0.042
469	0.041
470	0.041
470	0.041
471	0.041
471	0.041
472	0.041
472	0.041
472	0.042
473	0.042
473	0.043
474	0.043
474	0.043
475	0.043
475	0.043
476	0.043
476	0.043
477	0.043
477	0.043
477	0.043
478	0.043
478	0.044
479	0.044
479	0.045
480	0.045
480	0.046
481	0.046
481	0.046
482	0.047
482	0.048
482	0.048
483	0.049
483	0.05
484	0.051
484	0.051
485	0.051
485	0.052
486	0.052
486	0.052
487	0.052
487	0.052
487	0.052
488	0.052
488	0.051
489	0.051
489	0.051
490	0.051
490	0.051
491	0.051
491	0.052
492	0.052
492	0.053
492	0.053
493	0.054
493	0.054
494	0.055
494	0.056
495	0.056
495	0.056
496	0.057
496	0.057
496	0.058
497	0.058
497	0.058
498	0.059
498	0.059
499	0.059
499	0.059
500	0.06
500	0.061
501	0.061
501	0.062
501	0.063
502	0.063
502	0.063
503	0.064
503	0.064
504	0.065
504	0.065
505	0.065
505	0.065
506	0.065
506	0.065
506	0.065
507	0.064
507	0.065
508	0.065
508	0.065
509	0.066
509	0.066
510	0.066
510	0.067
511	0.067
511	0.067
511	0.067
512	0.067
512	0.067
513	0.067
513	0.066
514	0.066
514	0.066
515	0.066
515	0.066
515	0.065
516	0.065
516	0.066
517	0.066
517	0.067
518	0.067
518	0.067
519	0.067
519	0.067
520	0.067
520	0.066
520	0.065
521	0.064
521	0.063
522	0.062
522	0.061
523	0.06
523	0.059
524	0.059
524	0.059
524	0.06
525	0.061
525	0.062
526	0.063
526	0.064
527	0.065
527	0.067
528	0.068
528	0.068
529	0.069
529	0.069
529	0.069
530	0.069
530	0.068
531	0.069
531	0.069
532	0.068
532	0.068
533	0.068
533	0.067
533	0.067
534	0.067
534	0.066
535	0.066
535	0.065
536	0.065
536	0.065
537	0.064
537	0.064
538	0.064
538	0.063
538	0.063
539	0.062
539	0.062
540	0.062
540	0.061
541	0.06
541	0.059
542	0.059
542	0.058
542	0.057
543	0.057
543	0.056
544	0.056
544	0.056
545	0.055
545	0.055
546	0.055
546	0.055
547	0.054
547	0.053
547	0.052
548	0.051
548	0.051
549	0.05
549	0.049
550	0.048
550	0.047
551	0.046
551	0.046
551	0.045
552	0.045
552	0.044
553	0.044
553	0.044
554	0.044
554	0.043
555	0.042
555	0.042
556	0.041
556	0.04
556	0.039
557	0.038
557	0.038
558	0.037
558	0.036
559	0.036
559	0.035
560	0.035
560	0.034
560	0.034
561	0.034
561	0.035
562	0.035
562	0.034
563	0.034
563	0.033
564	0.032
564	0.032
564	0.031
565	0.03
565	0.03
566	0.029
566	0.028
567	0.028
567	0.028
568	0.029
568	0.029
568	0.03
569	0.031
569	0.033
570	0.033
570	0.033
571	0.034
571	0.034
572	0.034
572	0.034
573	0.034
573	0.034
573	0.033
574	0.033
574	0.032
575	0.032
575	0.033
576	0.034
576	0.032
577	0.032
577	0.031
577	0.031
578	0.03
578	0.031
579	0.032
579	0.033
580	0.032
580	0.03
581	0.028
581	0.028
581	0.028
582	0.029
582	0.029
583	0.029
583	0.029
584	0.027
584	0.024
585	0.024
585	0.025
585	0.026
586	0.026
586	0.026
587	0.025
587	0.024
588	0.022
588	0.022
589	0.021
589	0.022
590	0.021
590	0.021
590	0.022
591	0.023
591	0.023
592	0.023
592	0.022
593	0.022
593	0.022
594	0.022
594	0.021
594	0.02
595	0.02
595	0.019
596	0.019
596	0.02
597	0.022
597	0.023
598	0.023
598	0.024
598	0.024
599	0.025
599	0.024
600	0.024
600	0.023
601	0.023
601	0.022
602	0.021
602	0.021
602	0.021
603	0.021
603	0.022
604	0.023
604	0.024
605	0.025
605	0.026
606	0.025
606	0.025
606	0.024
607	0.023
607	0.023
608	0.023
608	0.021
609	0.021
609	0.021
610	0.02
610	0.019
610	0.019
611	0.02
611	0.021
612	0.022
612	0.023
613	0.024
613	0.025
614	0.025
614	0.024
614	0.024
615	0.024
615	0.024
616	0.024
616	0.023
617	0.023
617	0.022
618	0.021
618	0.021
618	0.021
619	0.022
619	0.023
620	0.024
620	0.025
621	0.025
621	0.026
622	0.026
622	0.027
622	0.027
623	0.027
623	0.028
624	0.028
624	0.028
625	0.027
625	0.027
626	0.027
626	0.027
626	0.027
627	0.028
627	0.028
628	0.028
628	0.028
629	0.028
629	0.028
630	0.027
630	0.027
630	0.027
631	0.028
631	0.028
632	0.028
632	0.029
633	0.029
633	0.03
634	0.031
634	0.032
634	0.034
635	0.035
635	0.036
636	0.037
636	0.038
637	0.039
637	0.04
638	0.04
638	0.042
638	0.042
639	0.043
639	0.043
640	0.044
640	0.045
641	0.046
641	0.047
642	0.049
642	0.05
642	0.051
643	0.052
643	0.052
644	0.053
644	0.053
645	0.054
645	0.054
646	0.055
646	0.056
646	0.057
647	0.058
647	0.06
648	0.061
648	0.062
649	0.064
649	0.065
650	0.067
650	0.068
650	0.069
651	0.071
651	0.072
652	0.073
652	0.074
653	0.076
653	0.082
653	0.088
654	0.073
654	0.061
655	0.061
655	0.062
656	0.063
656	0.064
657	0.065
657	0.066
657	0.066
658	0.064
658	0.059
659	0.073
659	0.091
660	0.097
660	0.098
661	0.098
661	0.099
661	0.101
662	0.103
662	0.104
663	0.106
663	0.108
664	0.109
664	0.11
665	0.112
665	0.113
665	0.115
666	0.116
666	0.117
667	0.118
667	0.119
668	0.12
668	0.122
669	0.123
669	0.125
669	0.127
670	0.129
670	0.131
671	0.132
671	0.133
672	0.134
672	0.135
672	0.136
673	0.136
673	0.137
674	0.137
674	0.137
675	0.137
675	0.138
676	0.139
676	0.139
676	0.14
677	0.141
677	0.142
678	0.142
678	0.143
679	0.143
679	0.144
680	0.145
680	0.145
680	0.146
681	0.146
681	0.147
682	0.147
682	0.147
683	0.148
683	0.149
684	0.15
684	0.15
684	0.15
685	0.15
685	0.151
686	0.151
686	0.152
687	0.152
687	0.152
687	0.152
688	0.151
688	0.151
689	0.151
689	0.151
690	0.151
690	0.15
691	0.149
691	0.149
691	0.149
692	0.148
692	0.147
693	0.147
693	0.148
694	0.147
694	0.146
695	0.147
695	0.148
695	0.148
696	0.147
696	0.147
697	0.146
697	0.146
698	0.145
698	0.144
698	0.143
699	0.143
699	0.142
700	0.14
700	0.14
701	0.14
701	0.139
702	0.139
702	0.138
702	0.137
703	0.136
703	0.135
704	0.134
704	0.134
705	0.133
705	0.132
705	0.131
706	0.13
706	0.129
707	0.127
707	0.126
708	0.124
708	0.123
709	0.122
709	0.121
709	0.119
710	0.117
710	0.116
711	0.115
711	0.114
712	0.113
712	0.112
713	0.111
713	0.111
713	0.11
714	0.109
714	0.108
715	0.107
715	0.106
716	0.106
716	0.106
716	0.105
717	0.104
717	0.104
718	0.103
718	0.102
719	0.102
719	0.101
720	0.1
720	0.098
720	0.096
721	0.094
721	0.093
722	0.091
722	0.089
723	0.088
723	0.086
723	0.085
724	0.083
724	0.082
725	0.081
725	0.08
726	0.08
726	0.079
727	0.078
727	0.077
727	0.076
728	0.075
728	0.074
729	0.073
729	0.072
730	0.071
730	0.07
730	0.069
731	0.068
731	0.067
732	0.066
732	0.065
733	0.064
733	0.064
734	0.063
734	0.062
734	0.062
735	0.061
735	0.06
736	0.059
736	0.058
737	0.057
737	0.057
737	0.056
738	0.054
738	0.052
739	0.051
739	0.049
740	0.048
740	0.047
741	0.046
741	0.044
741	0.041
742	0.038
742	0.036
743	0.035
743	0.033
744	0.031
744	0.029
744	0.027
745	0.026
745	0.024
746	0.024
746	0.023
747	0.023
747	0.024
748	0.024
748	0.025
748	0.025
749	0.026
749	0.026
750	0.027
750	0.027
751	0.027
751	0.027
751	0.027
752	0.026
752	0.025
753	0.024
753	0.023
754	0.022
754	0.022
754	0.022
755	0.022
755	0.022
756	0.022
756	0.021
757	0.021
757	0.021
758	0.022
758	0.022
758	0.022
759	0.022
759	0.021
760	0.02
760	0.019
761	0.019
761	0.019
761	0.018
762	0.017
762	0.017
763	0.016
763	0.015
764	0.013
764	0.012
764	0.01
765	0.009
765	0.007
766	0.006
766	0.006
767	0.005
767	0.003
768	0.001
768	0
768	-0
769	-0.001
769	-0.001
770	-0.003
770	-0.004
771	-0.005
771	-0.007
771	-0.009
772	-0.011
772	-0.012
773	-0.014
773	-0.016
774	-0.018
774	-0.02
775	-0.022
775	-0.023
775	-0.025
776	-0.027
776	-0.029
777	-0.03
777	-0.032
778	-0.034
778	-0.037
778	-0.039
779	-0.04
779	-0.042
780	-0.045
780	-0.049
781	-0.052
781	-0.056
781	-0.061
782	-0.066
782	-0.071
783	-0.076
783	-0.081
784	-0.088
784	-0.094
784	-0.1
785	-0.107
785	-0.113
786	-0.117
786	-0.117
787	-0.115
787	-0.115
788	-0.117
788	-0.119
788	-0.121
789	-0.124
789	-0.124
790	-0.122
790	-0.121
791	-0.123
791	-0.125
791	-0.128
792	-0.123
792	-0.113
793	-0.108
793	-0.104
794	-0.102
794	-0.103
794	-0.107
795	-0.109
795	-0.108
796	-0.108
796	-0.11
797	-0.118
797	-0.128
797	-0.135
798	-0.139
798	-0.142
799	-0.143
799	-0.143
800	-0.143
800	-0.145
801	-0.148
801	-0.149
801	-0.15
802	-0.151
802	-0.152
803	-0.153
803	-0.152
804	-0.151
804	-0.145
804	-0.138
805	-0.133
805	-0.13
806	-0.128
806	-0.126
807	-0.124
807	-0.124
807	-0.124
808	-0.124
808	-0.125
809	-0.13
809	-0.136
810	-0.14
810	-0.143
810	-0.147
811	-0.151
811	-0.152
812	-0.149
812	-0.146
813	-0.147
813	-0.148
813	-0.149
814	-0.15
814	-0.15
815	-0.148
815	-0.145
816	-0.143
816	-0.143
817	-0.146
817	-0.148
817	-0.145
818	-0.141
818	-0.135
819	-0.129
819	-0.123
820	-0.12
820	-0.115
820	-0.11
821	-0.103
821	-0.094
822	-0.087
822	-0.08
823	-0.074
823	-0.069
823	-0.064
824	-0.059
824	-0.054
825	-0.048
825	-0.043
826	-0.038
826	-0.035
826	-0.032
827	-0.029
827	-0.027
828	-0.025
828	-0.023
829	-0.021
829	-0.021
829	-0.02
830	-0.02
830	-0.02
831	-0.019
831	-0.018
832	-0.018
832	-0.017
832	-0.016
833	-0.015
833	-0.014
834	-0.013
834	-0.012
835	-0.011
835	-0.011
835	-0.011
836	-0.01
836	-0.01
837	-0.01
837	-0.01
838	-0.01
838	-0.01
839	-0.01
839	-0.01
839	-0.01
840	-0.01
840	-0.01
841	-0.01
841	-0.01
842	-0.009
842	-0.008
842	-0.007
843	-0.006
843	-0.005
844	-0.004
844	-0.003
845	-0.003
845	-0.002
845	-0.001
846	-0.001
846	-0.001
847	-0
847	0.001
848	0.001
848	0.002
848	0.003
849	0.005
849	0.006
850	0.006
850	0.007
851	0.008
851	0.008
851	0.008
852	0.008
852	0.007
853	0.006
853	0.005
854	0.004
854	0.003
854	0.002
855	0
855	-0.001
856	-0.002
856	-0.002
857	-0.002
857	-0.002
857	-0.001
858	0
858	0.001
859	0.003
859	0.005
860	0.007
860	0.009
860	0.01
861	0.012
861	0.014
862	0.014
862	0.015
863	0.015
863	0.015
863	0.014
864	0.014
864	0.013
865	0.012
865	0.012
866	0.011
866	0.01
866	0.01
867	0.009
867	0.008
868	0.008
868	0.007
869	0.007
869	0.006
869	0.004
870	0.003
870	0.002
871	0.001
871	0
872	-0
872	-0.001
872	-0.002
873	-0.002
873	-0.002
874	-0.002
874	-0.002
875	-0.001
875	-0.001
875	-0
876	0
876	0.001
877	0.001
877	0.002
878	0.003
878	0.003
878	0.004
879	0.004
879	0.004
880	0.004
880	0.005
881	0.005
881	0.005
881	0.005
882	0.005
882	0.005
883	0.006
883	0.006
884	0.006
884	0.006
884	0.007
885	0.007
885	0.007
886	0.007
886	0.008
887	0.008
887	0.008
887	0.008
888	0.009
888	0.009
889	0.01
889	0.011
890	0.012
890	0.012
890	0.013
891	0.013
891	0.014
892	0.014
892	0.014
893	0.014
893	0.014
893	0.013
894	0.013
894	0.012
895	0.011
895	0.01
895	0.009
896	0.008
896	0.007
897	0.006
897	0.005
898	0.004
898	0.003
898	0.002
899	0.001
899	0
900	0
900	0
901	0
901	0
901	0
902	0
902	0
903	-0
903	-0
904	-0.001
904	-0.002
904	-0.002
905	-0.002
905	-0.003
906	-0.003
906	-0.002
907	-0.002
907	-0.002
907	-0.001
908	-0
908	0.001
909	0.002
909	0.003
910	0.005
910	0.005
910	0.006
911	0.007
911	0.007
912	0.008
912	0.008
913	0.008
913	0.007
913	0.006
914	0.006
914	0.005
915	0.004
915	0.003
916	0.002
916	0.002
916	0.001
917	0.001
917	0.001
918	0.001
918	0.001
918	0.001
919	0
919	0
920	0.001
920	0.001
921	0
921	0
921	-0
922	0
922	0
923	0
923	0.001
924	0.001
924	0.002
924	0.002
925	0.002
925	0.002
926	0.002
926	0.002
927	0.002
927	0.002
927	0.002
928	0.001
928	0.001
929	0
929	-0
930	-0.001
930	-0.001
930	-0.001
931	-0.002
931	-0.002
932	-0.002
932	-0.002
933	-0.002
933	-0.003
933	-0.003
934	-0.004
934	-0.004
935	-0.004
935	-0.005
935	-0.005
936	-0.006
936	-0.006
937	-0.006
937	-0.005
938	-0.005
938	-0.005
938	-0.004
939	-0.004
939	-0.003
940	-0.002
940	-0.001
941	-0
941	0
941	0.001
942	0.002
942	0.003
943	0.003
943	0.004
944	0.004
944	0.005
944	0.006
945	0.007
945	0.008
946	0.008
946	0.008
946	0.008
947	0.008
947	0.009
948	0.009
948	0.009
949	0.008
949	0.008
949	0.008
950	0.009
950	0.009
951	0.01
951	0.01
952	0.011
952	0.011
952	0.012
953	0.013
953	0.013
954	0.013
954	0.013
955	0.013
955	0.012
955	0.012
956	0.012
956	0.011
957	0.01
957	0.009
957	0.009
958	0.008
958	0.007
959	0.007
959	0.006
960	0.004
960	0.003
960	0.002
961	0
961	-0.001
962	-0.003
962	-0.004
963	-0.005
963	-0.006
963	-0.007
964	-0.008
964	-0.009
965	-0.009
965	-0.009
966	-0.009
966	-0.008
966	-0.008
967	-0.008
967	-0.007
968	-0.008
968	-0.008
968	-0.007
969	-0.007
969	-0.007
970	-0.007
970	-0.007
971	-0.007
971	-0.007
971	-0.007
972	-0.006
972	-0.005
973	-0.004
973	-0.004
974	-0.003
974	-0.002
974	-0.001
975	0
975	0.001
976	0.001
976	0.002
976	0.002
977	0.002
977	0.001
978	0.001
978	0.001
979	-0
979	-0.001
979	-0.001
980	-0.002
980	-0.003
981	-0.004
981	-0.005
982	-0.005
982	-0.005
982	-0.005
983	-0.005
983	-0.005
984	-0.006
984	-0.005
984	-0.005
985	-0.004
985	-0.003
986	-0.003
986	-0.002
987	-0.002
987	-0.002
987	-0.001
988	-0.001
988	-0.001
989	-0
989	-0.001
990	-0.001
990	-0.001
990	-0
991	0
991	0.001
992	0.001
992	0.002
992	0.002
993	0.003
993	0.004
994	0.004
994	0.005
995	0.005
995	0.005
995	0.005
996	0.004
996	0.004
997	0.003
997	0.002
997	0.001
998	0
998	-0.001
999	-0.001
999	-0.002
1000	-0.003
1000	-0.003
1000	-0.003
1001	-0.003
1001	-0.003
1002	-0.003
1002	-0.004
1003	-0.004
1003	-0.004
1003	-0.004
1004	-0.004
1004	-0.005
1005	-0.005
1005	-0.005
1005	-0.006
1006	-0.006
1006	-0.006
1007	-0.007
1007	-0.007
1008	-0.007
1008	-0.007
1008	-0.007
1009	-0.007
1009	-0.007
1010	-0.007
1010	-0.006
1010	-0.006
1011	-0.006
1011	-0.005
1012	-0.005
1012	-0.005
1013	-0.004
1013	-0.004
1013	-0.004
1014	-0.004
1014	-0.004
1015	-0.004
1015	-0.004
1016	-0.004
1016	-0.004
1016	-0.004
1017	-0.004
1017	-0.004
1018	-0.003
1018	-0.003
1018	-0.002
1019	-0.002
1019	-0.002
1020	-0.002
1020	-0.002
1021	-0.002
1021	-0.002
1021	-0.003
1022	-0.003
1022	-0.003
1023	-0.004
1023	-0.004
1023	-0.005
1024	-0.005
1024	-0.006
1025	-0.006
1025	-0.007
1026	-0.007
1026	-0.007
1026	-0.007
1027	-0.007
1027	-0.007
1028	-0.007
1028	-0.007
1028	-0.007
1029	-0.007
1029	-0.006
1030	-0.006
1030	-0.006
1031	-0.006
1031	-0.006
1031	-0.006
1032	-0.007
1032	-0.007
1033	-0.007
1033	-0.008
1033	-0.009
1034	-0.01
1034	-0.011
1035	-0.011
1035	-0.012
1036	-0.013
1036	-0.014
1036	-0.014
1037	-0.015
1037	-0.015
1038	-0.015
1038	-0.015
1039	-0.015
1039	-0.015
1039	-0.015
1040	-0.015
1040	-0.015
1041	-0.015
1041	-0.016
1041	-0.016
1042	-0.017
1042	-0.017
1043	-0.018
1043	-0.018
1044	-0.019
1044	-0.019
1044	-0.019
1045	-0.019
1045	-0.019
1046	-0.02
1046	-0.02
1046	-0.02
1047	-0.019
1047	-0.019
1048	-0.018
1048	-0.017
1049	-0.017
1049	-0.017
1049	-0.016
1050	-0.016
1050	-0.015
1051	-0.014
1051	-0.014
1051	-0.012
1052	-0.012
1052	-0.011
1053	-0.01
1053	-0.009
1053	-0.008
1054	-0.007
1054	-0.006
1055	-0.006
1055	-0.005
1056	-0.006
1056	-0.006
1056	-0.007
1057	-0.008
1057	-0.009
1058	-0.01
1058	-0.01
1058	-0.011
1059	-0.012
1059	-0.013
1060	-0.013
1060	-0.014
1061	-0.014
1061	-0.014
1061	-0.014
1062	-0.014
1062	-0.015
1063	-0.015
1063	-0.015
1063	-0.015
1064	-0.015
1064	-0.015
1065	-0.015
1065	-0.016
1066	-0.015
1066	-0.015
1066	-0.015
1067	-0.014
1067	-0.013
1068	-0.012
1068	-0.012
1068	-0.011
1069	-0.011
1069	-0.01
1070	-0.01
1070	-0.009
1071	-0.009
1071	-0.008
1071	-0.008
1072	-0.007
1072	-0.006
1073	-0.004
1073	-0.003
1073	-0.002
1074	-0.001
1074	-0
1075	0
1075	0.001
1076	0.001
1076	0.002
1076	0.001
1077	0.001
1077	0.002
1078	0.002
1078	0.003
1078	0.004
1079	0.005
1079	0.006
1080	0.007
1080	0.009
1080	0.009
1081	0.01
1081	0.011
1082	0.012
1082	0.012
1083	0.012
1083	0.013
1083	0.013
1084	0.014
1084	0.015
1085	0.016
1085	0.017
1085	0.018
1086	0.019
1086	0.019
1087	0.02
1087	0.021
1088	0.021
1088	0.022
1088	0.023
1089	0.023
1089	0.023
1090	0.023
1090	0.024
1090	0.025
1091	0.025
1091	0.027
1092	0.028
1092	0.031
1092	0.032
1093	0.032
1093	0.035
1094	0.037
1094	0.038
1095	0.04
1095	0.042
1095	0.047
1096	0.049
1096	0.052
1097	0.055
1097	0.058
1097	0.063
1098	0.065
1098	0.068
1099	0.073
1099	0.077
1100	0.082
1100	0.085
1100	0.09
1101	0.095
1101	0.101
1102	0.108
1102	0.116
1102	0.125
1103	0.135
1103	0.146
1104	0.161
1104	0.173
1104	0.189
1105	0.206
1105	0.222
1106	0.238
1106	0.258
1107	0.278
1107	0.311
1107	0.352
1108	0.484
1108	0.732
1109	2.734
1109	-0
1109	-0
1110	-0
1110	-0
1111	-0
1111	-0
