Data from 15c-2-2a_Absorbance__1230__03031.txt Node

Date: Wed Jan 24 13:44:53 CET 2024
User: Marek
Spectrometer: MAYP115816
Trigger mode: 0
Integration Time (sec): 2.000000E-1
Scans to average: 10
Electric dark correction enabled: true
Nonlinearity correction enabled: true
Boxcar width: 5
XAxis mode: Wavelengths
Number of Pixels in Spectrum: 2068
>>>>>Begin Spectral Data<<<<<
199	-1.772
199	-1.613
200	-1.453
200	-1.33
201	-1.257
201	-1.205
202	-1.134
202	-1.078
203	-1.03
203	-0.989
204	-0.959
204	-0.934
205	-0.912
205	-0.903
205	-0.9
206	-0.897
206	-0.895
207	-0.891
207	-0.888
208	-0.887
208	-0.885
209	-0.883
209	-0.884
210	-0.884
210	-0.882
211	-0.881
211	-0.881
212	-0.879
212	-0.876
213	-0.874
213	-0.872
213	-0.87
214	-0.868
214	-0.863
215	-0.862
215	-0.858
216	-0.857
216	-0.854
217	-0.853
217	-0.854
218	-0.854
218	-0.852
219	-0.85
219	-0.848
220	-0.847
220	-0.845
221	-0.845
221	-0.842
221	-0.838
222	-0.832
222	-0.826
223	-0.82
223	-0.815
224	-0.806
224	-0.797
225	-0.789
225	-0.779
226	-0.769
226	-0.757
227	-0.745
227	-0.733
228	-0.715
228	-0.698
229	-0.676
229	-0.655
229	-0.629
230	-0.6
230	-0.568
231	-0.534
231	-0.497
232	-0.459
232	-0.418
233	-0.378
233	-0.336
234	-0.294
234	-0.252
235	-0.212
235	-0.173
236	-0.136
236	-0.101
236	-0.067
237	-0.036
237	-0.007
238	0.02
238	0.044
239	0.067
239	0.087
240	0.106
240	0.123
241	0.138
241	0.152
242	0.164
242	0.175
243	0.185
243	0.194
243	0.202
244	0.209
244	0.216
245	0.222
245	0.227
246	0.233
246	0.237
247	0.242
247	0.246
248	0.25
248	0.254
249	0.258
249	0.261
250	0.264
250	0.267
250	0.27
251	0.273
251	0.276
252	0.278
252	0.28
253	0.282
253	0.284
254	0.286
254	0.288
255	0.29
255	0.291
256	0.292
256	0.293
257	0.294
257	0.295
258	0.296
258	0.297
258	0.298
259	0.298
259	0.298
260	0.299
260	0.299
261	0.299
261	0.299
262	0.299
262	0.299
263	0.299
263	0.298
264	0.298
264	0.297
265	0.297
265	0.296
265	0.295
266	0.294
266	0.293
267	0.292
267	0.291
268	0.29
268	0.289
269	0.287
269	0.286
270	0.284
270	0.282
271	0.281
271	0.279
272	0.277
272	0.276
272	0.274
273	0.272
273	0.271
274	0.269
274	0.267
275	0.266
275	0.264
276	0.262
276	0.26
277	0.258
277	0.256
278	0.254
278	0.252
278	0.249
279	0.246
279	0.244
280	0.242
280	0.24
281	0.238
281	0.236
282	0.234
282	0.233
283	0.231
283	0.23
284	0.229
284	0.228
285	0.226
285	0.225
285	0.223
286	0.222
286	0.22
287	0.219
287	0.217
288	0.216
288	0.214
289	0.213
289	0.211
290	0.21
290	0.208
291	0.207
291	0.206
292	0.205
292	0.204
292	0.203
293	0.202
293	0.201
294	0.2
294	0.199
295	0.198
295	0.197
296	0.196
296	0.195
297	0.194
297	0.194
298	0.193
298	0.192
298	0.192
299	0.191
299	0.191
300	0.19
300	0.189
301	0.189
301	0.188
302	0.187
302	0.187
303	0.186
303	0.186
304	0.185
304	0.185
305	0.184
305	0.184
305	0.183
306	0.183
306	0.182
307	0.181
307	0.181
308	0.18
308	0.18
309	0.179
309	0.179
310	0.178
310	0.178
311	0.177
311	0.176
311	0.176
312	0.175
312	0.175
313	0.174
313	0.174
314	0.173
314	0.173
315	0.172
315	0.171
316	0.171
316	0.17
317	0.17
317	0.169
318	0.169
318	0.168
318	0.167
319	0.167
319	0.166
320	0.166
320	0.165
321	0.164
321	0.164
322	0.163
322	0.163
323	0.162
323	0.162
324	0.161
324	0.161
324	0.16
325	0.16
325	0.159
326	0.159
326	0.158
327	0.158
327	0.157
328	0.157
328	0.156
329	0.156
329	0.155
330	0.155
330	0.155
330	0.154
331	0.154
331	0.153
332	0.153
332	0.152
333	0.151
333	0.151
334	0.15
334	0.15
335	0.149
335	0.149
336	0.148
336	0.148
336	0.147
337	0.147
337	0.147
338	0.146
338	0.146
339	0.146
339	0.145
340	0.145
340	0.145
341	0.144
341	0.144
342	0.144
342	0.143
342	0.143
343	0.142
343	0.142
344	0.141
344	0.141
345	0.141
345	0.141
346	0.14
346	0.14
347	0.14
347	0.139
348	0.139
348	0.139
348	0.139
349	0.138
349	0.138
350	0.138
350	0.137
351	0.137
351	0.137
352	0.136
352	0.135
353	0.135
353	0.135
354	0.134
354	0.134
354	0.133
355	0.133
355	0.132
356	0.132
356	0.131
357	0.131
357	0.13
358	0.13
358	0.13
359	0.13
359	0.13
360	0.13
360	0.13
360	0.131
361	0.131
361	0.131
362	0.132
362	0.132
363	0.132
363	0.132
364	0.132
364	0.132
365	0.132
365	0.131
366	0.131
366	0.131
366	0.131
367	0.131
367	0.13
368	0.13
368	0.13
369	0.13
369	0.13
370	0.13
370	0.129
371	0.129
371	0.129
372	0.129
372	0.129
372	0.129
373	0.129
373	0.128
374	0.128
374	0.128
375	0.128
375	0.128
376	0.128
376	0.128
377	0.128
377	0.128
378	0.128
378	0.128
378	0.128
379	0.127
379	0.127
380	0.127
380	0.127
381	0.127
381	0.127
382	0.127
382	0.127
383	0.127
383	0.127
383	0.127
384	0.127
384	0.127
385	0.126
385	0.126
386	0.126
386	0.126
387	0.126
387	0.126
388	0.126
388	0.125
389	0.125
389	0.125
389	0.125
390	0.125
390	0.125
391	0.125
391	0.125
392	0.125
392	0.125
393	0.125
393	0.125
394	0.125
394	0.125
394	0.125
395	0.125
395	0.124
396	0.124
396	0.124
397	0.124
397	0.124
398	0.124
398	0.124
399	0.124
399	0.124
400	0.123
400	0.123
400	0.123
401	0.123
401	0.122
402	0.122
402	0.122
403	0.122
403	0.122
404	0.121
404	0.121
405	0.121
405	0.121
405	0.121
406	0.12
406	0.12
407	0.12
407	0.12
408	0.12
408	0.12
409	0.119
409	0.119
410	0.119
410	0.12
411	0.12
411	0.119
411	0.119
412	0.119
412	0.119
413	0.119
413	0.119
414	0.119
414	0.119
415	0.118
415	0.118
416	0.118
416	0.117
416	0.117
417	0.117
417	0.117
418	0.117
418	0.116
419	0.116
419	0.117
420	0.117
420	0.118
421	0.117
421	0.118
421	0.118
422	0.118
422	0.118
423	0.118
423	0.118
424	0.117
424	0.117
425	0.116
425	0.116
426	0.115
426	0.115
427	0.115
427	0.115
427	0.115
428	0.116
428	0.116
429	0.116
429	0.116
430	0.116
430	0.116
431	0.116
431	0.116
432	0.116
432	0.116
432	0.115
433	0.115
433	0.115
434	0.114
434	0.114
435	0.114
435	0.114
436	0.114
436	0.114
437	0.114
437	0.114
437	0.113
438	0.113
438	0.113
439	0.113
439	0.113
440	0.113
440	0.113
441	0.113
441	0.113
442	0.113
442	0.113
442	0.113
443	0.113
443	0.114
444	0.114
444	0.114
445	0.114
445	0.114
446	0.114
446	0.114
447	0.114
447	0.114
447	0.114
448	0.114
448	0.114
449	0.114
449	0.113
450	0.113
450	0.113
451	0.113
451	0.113
452	0.113
452	0.113
452	0.113
453	0.112
453	0.112
454	0.111
454	0.111
455	0.11
455	0.11
456	0.11
456	0.109
457	0.109
457	0.109
458	0.109
458	0.109
458	0.109
459	0.11
459	0.11
460	0.11
460	0.109
461	0.109
461	0.109
462	0.11
462	0.11
463	0.11
463	0.111
463	0.111
464	0.111
464	0.111
465	0.111
465	0.111
466	0.111
466	0.111
467	0.111
467	0.111
467	0.11
468	0.11
468	0.109
469	0.109
469	0.109
470	0.109
470	0.109
471	0.109
471	0.109
472	0.109
472	0.109
472	0.11
473	0.11
473	0.111
474	0.111
474	0.111
475	0.111
475	0.112
476	0.112
476	0.112
477	0.112
477	0.112
477	0.113
478	0.113
478	0.113
479	0.114
479	0.115
480	0.115
480	0.116
481	0.117
481	0.118
482	0.118
482	0.119
482	0.12
483	0.121
483	0.123
484	0.124
484	0.124
485	0.125
485	0.126
486	0.126
486	0.127
487	0.127
487	0.128
487	0.128
488	0.128
488	0.127
489	0.127
489	0.128
490	0.128
490	0.128
491	0.129
491	0.13
492	0.13
492	0.131
492	0.132
493	0.133
493	0.134
494	0.135
494	0.137
495	0.138
495	0.139
496	0.139
496	0.14
496	0.141
497	0.142
497	0.143
498	0.143
498	0.144
499	0.145
499	0.145
500	0.146
500	0.148
501	0.149
501	0.15
501	0.151
502	0.152
502	0.153
503	0.155
503	0.156
504	0.156
504	0.157
505	0.157
505	0.158
506	0.158
506	0.159
506	0.159
507	0.16
507	0.16
508	0.161
508	0.161
509	0.162
509	0.163
510	0.164
510	0.165
511	0.166
511	0.166
511	0.166
512	0.167
512	0.168
513	0.168
513	0.168
514	0.168
514	0.168
515	0.168
515	0.168
515	0.168
516	0.169
516	0.169
517	0.17
517	0.171
518	0.171
518	0.171
519	0.171
519	0.171
520	0.17
520	0.169
520	0.168
521	0.167
521	0.166
522	0.164
522	0.163
523	0.163
523	0.163
524	0.163
524	0.164
524	0.166
525	0.167
525	0.169
526	0.17
526	0.171
527	0.173
527	0.174
528	0.174
528	0.175
529	0.175
529	0.175
529	0.175
530	0.174
530	0.174
531	0.174
531	0.173
532	0.172
532	0.172
533	0.171
533	0.17
533	0.17
534	0.169
534	0.168
535	0.167
535	0.167
536	0.166
536	0.165
537	0.164
537	0.163
538	0.162
538	0.161
538	0.16
539	0.159
539	0.158
540	0.157
540	0.156
541	0.155
541	0.153
542	0.152
542	0.151
542	0.149
543	0.148
543	0.147
544	0.145
544	0.144
545	0.143
545	0.142
546	0.142
546	0.14
547	0.139
547	0.137
547	0.136
548	0.134
548	0.133
549	0.132
549	0.13
550	0.129
550	0.127
551	0.125
551	0.123
551	0.122
552	0.121
552	0.12
553	0.119
553	0.118
554	0.116
554	0.115
555	0.114
555	0.112
556	0.11
556	0.108
556	0.107
557	0.105
557	0.104
558	0.103
558	0.101
559	0.1
559	0.099
560	0.097
560	0.096
560	0.095
561	0.095
561	0.095
562	0.094
562	0.093
563	0.091
563	0.09
564	0.089
564	0.088
564	0.086
565	0.085
565	0.084
566	0.083
566	0.082
567	0.081
567	0.08
568	0.08
568	0.08
568	0.08
569	0.081
569	0.082
570	0.081
570	0.081
571	0.081
571	0.081
572	0.081
572	0.081
573	0.08
573	0.08
573	0.078
574	0.077
574	0.077
575	0.076
575	0.077
576	0.077
576	0.075
577	0.074
577	0.073
577	0.072
578	0.072
578	0.072
579	0.073
579	0.073
580	0.072
580	0.07
581	0.068
581	0.067
581	0.067
582	0.067
582	0.067
583	0.067
583	0.066
584	0.063
584	0.061
585	0.06
585	0.06
585	0.06
586	0.06
586	0.06
587	0.059
587	0.057
588	0.056
588	0.055
589	0.054
589	0.054
590	0.054
590	0.053
590	0.054
591	0.055
591	0.054
592	0.054
592	0.053
593	0.053
593	0.053
594	0.052
594	0.051
594	0.05
595	0.05
595	0.049
596	0.048
596	0.049
597	0.051
597	0.051
598	0.052
598	0.052
598	0.053
599	0.053
599	0.053
600	0.052
600	0.051
601	0.051
601	0.05
602	0.049
602	0.049
602	0.048
603	0.048
603	0.049
604	0.05
604	0.05
605	0.051
605	0.052
606	0.052
606	0.051
606	0.05
607	0.05
607	0.05
608	0.049
608	0.048
609	0.047
609	0.047
610	0.046
610	0.045
610	0.045
611	0.046
611	0.047
612	0.048
612	0.049
613	0.05
613	0.051
614	0.051
614	0.05
614	0.05
615	0.05
615	0.05
616	0.05
616	0.049
617	0.049
617	0.048
618	0.047
618	0.047
618	0.047
619	0.047
619	0.049
620	0.05
620	0.051
621	0.051
621	0.052
622	0.052
622	0.053
622	0.053
623	0.053
623	0.054
624	0.055
624	0.055
625	0.054
625	0.055
626	0.054
626	0.054
626	0.055
627	0.055
627	0.055
628	0.056
628	0.056
629	0.056
629	0.056
630	0.056
630	0.055
630	0.056
631	0.057
631	0.057
632	0.058
632	0.058
633	0.059
633	0.06
634	0.061
634	0.063
634	0.065
635	0.066
635	0.067
636	0.069
636	0.07
637	0.071
637	0.072
638	0.073
638	0.074
638	0.075
639	0.076
639	0.077
640	0.078
640	0.079
641	0.08
641	0.082
642	0.083
642	0.085
642	0.086
643	0.087
643	0.088
644	0.089
644	0.09
645	0.091
645	0.092
646	0.093
646	0.095
646	0.097
647	0.098
647	0.101
648	0.102
648	0.104
649	0.106
649	0.109
650	0.111
650	0.112
650	0.114
651	0.116
651	0.117
652	0.118
652	0.12
653	0.123
653	0.129
653	0.136
654	0.111
654	0.092
655	0.093
655	0.095
656	0.096
656	0.098
657	0.099
657	0.1
657	0.101
658	0.099
658	0.093
659	0.116
659	0.147
660	0.153
660	0.155
661	0.156
661	0.158
661	0.16
662	0.163
662	0.165
663	0.168
663	0.17
664	0.172
664	0.174
665	0.176
665	0.178
665	0.18
666	0.182
666	0.184
667	0.185
667	0.187
668	0.189
668	0.19
669	0.192
669	0.195
669	0.198
670	0.2
670	0.203
671	0.204
671	0.206
672	0.208
672	0.209
672	0.21
673	0.212
673	0.213
674	0.213
674	0.214
675	0.214
675	0.215
676	0.216
676	0.217
676	0.218
677	0.22
677	0.221
678	0.222
678	0.222
679	0.223
679	0.225
680	0.226
680	0.227
680	0.227
681	0.228
681	0.228
682	0.229
682	0.229
683	0.23
683	0.232
684	0.233
684	0.233
684	0.233
685	0.234
685	0.234
686	0.235
686	0.235
687	0.235
687	0.235
687	0.235
688	0.234
688	0.234
689	0.234
689	0.234
690	0.233
690	0.232
691	0.231
691	0.231
691	0.231
692	0.23
692	0.229
693	0.229
693	0.229
694	0.228
694	0.227
695	0.228
695	0.228
695	0.228
696	0.227
696	0.226
697	0.225
697	0.225
698	0.224
698	0.222
698	0.221
699	0.221
699	0.219
700	0.217
700	0.216
701	0.216
701	0.215
702	0.214
702	0.213
702	0.212
703	0.21
703	0.209
704	0.207
704	0.206
705	0.205
705	0.203
705	0.201
706	0.2
706	0.198
707	0.197
707	0.195
708	0.193
708	0.191
709	0.19
709	0.188
709	0.185
710	0.183
710	0.181
711	0.18
711	0.178
712	0.176
712	0.175
713	0.174
713	0.173
713	0.171
714	0.169
714	0.168
715	0.167
715	0.165
716	0.164
716	0.163
716	0.162
717	0.161
717	0.16
718	0.159
718	0.158
719	0.157
719	0.156
720	0.154
720	0.153
720	0.15
721	0.148
721	0.146
722	0.143
722	0.141
723	0.138
723	0.137
723	0.135
724	0.133
724	0.131
725	0.129
725	0.128
726	0.126
726	0.125
727	0.124
727	0.122
727	0.121
728	0.119
728	0.118
729	0.117
729	0.116
730	0.114
730	0.112
730	0.111
731	0.109
731	0.108
732	0.107
732	0.106
733	0.105
733	0.104
734	0.103
734	0.102
734	0.101
735	0.1
735	0.099
736	0.097
736	0.096
737	0.095
737	0.093
737	0.092
738	0.09
738	0.087
739	0.085
739	0.084
740	0.082
740	0.08
741	0.079
741	0.076
741	0.073
742	0.07
742	0.068
743	0.066
743	0.063
744	0.061
744	0.059
744	0.057
745	0.055
745	0.054
746	0.052
746	0.052
747	0.051
747	0.051
748	0.051
748	0.051
748	0.051
749	0.051
749	0.051
750	0.051
750	0.051
751	0.051
751	0.051
751	0.051
752	0.049
752	0.048
753	0.047
753	0.046
754	0.045
754	0.044
754	0.044
755	0.044
755	0.044
756	0.044
756	0.042
757	0.042
757	0.042
758	0.042
758	0.042
758	0.043
759	0.042
759	0.041
760	0.04
760	0.039
761	0.038
761	0.039
761	0.038
762	0.037
762	0.036
763	0.036
763	0.034
764	0.032
764	0.031
764	0.029
765	0.028
765	0.026
766	0.024
766	0.023
767	0.022
767	0.02
768	0.018
768	0.017
768	0.016
769	0.015
769	0.014
770	0.012
770	0.011
771	0.009
771	0.007
771	0.005
772	0.003
772	0.002
773	-0
773	-0.002
774	-0.005
774	-0.007
775	-0.008
775	-0.01
775	-0.012
776	-0.013
776	-0.015
777	-0.016
777	-0.018
778	-0.02
778	-0.022
778	-0.025
779	-0.026
779	-0.028
780	-0.031
780	-0.034
781	-0.038
781	-0.042
781	-0.046
782	-0.051
782	-0.056
783	-0.061
783	-0.066
784	-0.073
784	-0.08
784	-0.087
785	-0.094
785	-0.101
786	-0.107
786	-0.109
787	-0.108
787	-0.109
788	-0.112
788	-0.116
788	-0.119
789	-0.122
789	-0.123
790	-0.122
790	-0.121
791	-0.123
791	-0.125
791	-0.128
792	-0.123
792	-0.113
793	-0.108
793	-0.104
794	-0.102
794	-0.103
794	-0.107
795	-0.109
795	-0.108
796	-0.108
796	-0.11
797	-0.118
797	-0.129
797	-0.135
798	-0.139
798	-0.142
799	-0.143
799	-0.143
800	-0.143
800	-0.145
801	-0.148
801	-0.149
801	-0.15
802	-0.151
802	-0.152
803	-0.153
803	-0.152
804	-0.151
804	-0.145
804	-0.138
805	-0.133
805	-0.13
806	-0.128
806	-0.126
807	-0.125
807	-0.124
807	-0.124
808	-0.124
808	-0.125
809	-0.13
809	-0.136
810	-0.14
810	-0.143
810	-0.147
811	-0.151
811	-0.152
812	-0.149
812	-0.146
813	-0.147
813	-0.148
813	-0.15
814	-0.151
814	-0.151
815	-0.148
815	-0.145
816	-0.143
816	-0.143
817	-0.147
817	-0.148
817	-0.146
818	-0.142
818	-0.136
819	-0.13
819	-0.124
820	-0.12
820	-0.116
820	-0.11
821	-0.103
821	-0.094
822	-0.086
822	-0.079
823	-0.072
823	-0.067
823	-0.062
824	-0.056
824	-0.05
825	-0.044
825	-0.039
826	-0.034
826	-0.031
826	-0.027
827	-0.024
827	-0.022
828	-0.02
828	-0.018
829	-0.017
829	-0.016
829	-0.015
830	-0.016
830	-0.015
831	-0.014
831	-0.013
832	-0.012
832	-0.011
832	-0.01
833	-0.009
833	-0.008
834	-0.007
834	-0.006
835	-0.005
835	-0.005
835	-0.004
836	-0.003
836	-0.003
837	-0.003
837	-0.003
838	-0.003
838	-0.003
839	-0.003
839	-0.004
839	-0.004
840	-0.004
840	-0.004
841	-0.004
841	-0.003
842	-0.003
842	-0.002
842	-0.001
843	-0.001
843	0
844	0.001
844	0.002
845	0.003
845	0.004
845	0.004
846	0.005
846	0.005
847	0.005
847	0.006
848	0.006
848	0.007
848	0.008
849	0.009
849	0.01
850	0.011
850	0.011
851	0.012
851	0.013
851	0.012
852	0.012
852	0.012
853	0.011
853	0.01
854	0.008
854	0.007
854	0.006
855	0.005
855	0.004
856	0.003
856	0.003
857	0.003
857	0.003
857	0.004
858	0.005
858	0.007
859	0.008
859	0.01
860	0.012
860	0.014
860	0.016
861	0.017
861	0.018
862	0.019
862	0.019
863	0.02
863	0.019
863	0.019
864	0.018
864	0.017
865	0.017
865	0.016
866	0.015
866	0.014
866	0.014
867	0.013
867	0.013
868	0.012
868	0.011
869	0.01
869	0.009
869	0.007
870	0.006
870	0.005
871	0.004
871	0.003
872	0.002
872	0.001
872	0.001
873	0.001
873	0.001
874	0.001
874	0.001
875	0.002
875	0.002
875	0.003
876	0.004
876	0.004
877	0.005
877	0.005
878	0.006
878	0.007
878	0.007
879	0.008
879	0.008
880	0.008
880	0.008
881	0.008
881	0.009
881	0.009
882	0.009
882	0.009
883	0.009
883	0.01
884	0.01
884	0.01
884	0.01
885	0.011
885	0.011
886	0.011
886	0.011
887	0.011
887	0.012
887	0.012
888	0.012
888	0.012
889	0.013
889	0.014
890	0.015
890	0.016
890	0.016
891	0.017
891	0.017
892	0.017
892	0.017
893	0.017
893	0.017
893	0.017
894	0.016
894	0.015
895	0.015
895	0.014
895	0.012
896	0.011
896	0.01
897	0.009
897	0.008
898	0.007
898	0.006
898	0.005
899	0.004
899	0.004
900	0.004
900	0.003
901	0.003
901	0.003
901	0.003
902	0.003
902	0.003
903	0.003
903	0.002
904	0.002
904	0.001
904	0.001
905	0
905	0
906	0
906	0.001
907	0.001
907	0.001
907	0.002
908	0.003
908	0.004
909	0.005
909	0.006
910	0.008
910	0.009
910	0.01
911	0.011
911	0.011
912	0.011
912	0.011
913	0.011
913	0.011
913	0.01
914	0.009
914	0.008
915	0.007
915	0.006
916	0.006
916	0.005
916	0.005
917	0.004
917	0.004
918	0.003
918	0.003
918	0.003
919	0.003
919	0.003
920	0.003
920	0.003
921	0.003
921	0.002
921	0.002
922	0.002
922	0.003
923	0.003
923	0.003
924	0.004
924	0.004
924	0.005
925	0.005
925	0.005
926	0.006
926	0.006
927	0.006
927	0.005
927	0.005
928	0.005
928	0.005
929	0.004
929	0.004
930	0.004
930	0.003
930	0.003
931	0.002
931	0.002
932	0.002
932	0.001
933	0.001
933	0
933	-0
934	-0.001
934	-0.001
935	-0.002
935	-0.002
935	-0.003
936	-0.003
936	-0.003
937	-0.003
937	-0.003
938	-0.002
938	-0.002
938	-0.002
939	-0.001
939	-0
940	0.001
940	0.001
941	0.002
941	0.003
941	0.004
942	0.005
942	0.005
943	0.006
943	0.006
944	0.006
944	0.007
944	0.008
945	0.008
945	0.009
946	0.01
946	0.01
946	0.01
947	0.011
947	0.011
948	0.011
948	0.011
949	0.011
949	0.011
949	0.012
950	0.012
950	0.013
951	0.013
951	0.014
952	0.014
952	0.015
952	0.015
953	0.016
953	0.016
954	0.016
954	0.016
955	0.016
955	0.016
955	0.016
956	0.015
956	0.015
957	0.014
957	0.013
957	0.011
958	0.011
958	0.01
959	0.009
959	0.008
960	0.006
960	0.005
960	0.003
961	0.002
961	0.001
962	-0.001
962	-0.002
963	-0.003
963	-0.005
963	-0.006
964	-0.006
964	-0.007
965	-0.007
965	-0.007
966	-0.007
966	-0.007
966	-0.006
967	-0.006
967	-0.006
968	-0.006
968	-0.006
968	-0.005
969	-0.005
969	-0.005
970	-0.005
970	-0.005
971	-0.005
971	-0.004
971	-0.004
972	-0.003
972	-0.002
973	-0.001
973	-0.001
974	0
974	0.001
974	0.002
975	0.003
975	0.004
976	0.004
976	0.005
976	0.005
977	0.004
977	0.004
978	0.003
978	0.003
979	0.002
979	0.001
979	0.001
980	-0
980	-0.002
981	-0.002
981	-0.003
982	-0.004
982	-0.004
982	-0.004
983	-0.004
983	-0.004
984	-0.005
984	-0.004
984	-0.004
985	-0.003
985	-0.002
986	-0.002
986	-0.001
987	-0.001
987	-0.001
987	-0
988	0
988	0
989	0.001
989	0
990	0
990	0
990	0.001
991	0.001
991	0.001
992	0.002
992	0.002
992	0.003
993	0.003
993	0.004
994	0.004
994	0.005
995	0.005
995	0.005
995	0.005
996	0.005
996	0.004
997	0.003
997	0.003
997	0.002
998	0.002
998	0.001
999	0.001
999	0
1000	-0
1000	-0.001
1000	-0.001
1001	-0.001
1001	-0.001
1002	-0.001
1002	-0.001
1003	-0.002
1003	-0.002
1003	-0.002
1004	-0.003
1004	-0.003
1005	-0.004
1005	-0.004
1005	-0.005
1006	-0.005
1006	-0.005
1007	-0.006
1007	-0.006
1008	-0.007
1008	-0.007
1008	-0.007
1009	-0.007
1009	-0.007
1010	-0.007
1010	-0.007
1010	-0.007
1011	-0.007
1011	-0.006
1012	-0.006
1012	-0.006
1013	-0.006
1013	-0.006
1013	-0.005
1014	-0.005
1014	-0.005
1015	-0.005
1015	-0.005
1016	-0.004
1016	-0.004
1016	-0.004
1017	-0.003
1017	-0.003
1018	-0.002
1018	-0.002
1018	-0.002
1019	-0.001
1019	-0.001
1020	-0.001
1020	-0.001
1021	-0.001
1021	-0.002
1021	-0.002
1022	-0.003
1022	-0.003
1023	-0.003
1023	-0.004
1023	-0.004
1024	-0.005
1024	-0.005
1025	-0.005
1025	-0.005
1026	-0.006
1026	-0.005
1026	-0.006
1027	-0.006
1027	-0.005
1028	-0.005
1028	-0.005
1028	-0.004
1029	-0.004
1029	-0.004
1030	-0.004
1030	-0.004
1031	-0.004
1031	-0.003
1031	-0.004
1032	-0.004
1032	-0.004
1033	-0.005
1033	-0.005
1033	-0.006
1034	-0.007
1034	-0.008
1035	-0.009
1035	-0.01
1036	-0.01
1036	-0.011
1036	-0.011
1037	-0.012
1037	-0.012
1038	-0.013
1038	-0.013
1039	-0.013
1039	-0.012
1039	-0.012
1040	-0.012
1040	-0.012
1041	-0.012
1041	-0.013
1041	-0.014
1042	-0.014
1042	-0.015
1043	-0.015
1043	-0.016
1044	-0.016
1044	-0.017
1044	-0.017
1045	-0.017
1045	-0.018
1046	-0.018
1046	-0.018
1046	-0.018
1047	-0.017
1047	-0.017
1048	-0.016
1048	-0.016
1049	-0.015
1049	-0.016
1049	-0.015
1050	-0.014
1050	-0.014
1051	-0.013
1051	-0.012
1051	-0.011
1052	-0.01
1052	-0.01
1053	-0.009
1053	-0.008
1053	-0.007
1054	-0.006
1054	-0.005
1055	-0.004
1055	-0.004
1056	-0.004
1056	-0.005
1056	-0.006
1057	-0.006
1057	-0.007
1058	-0.008
1058	-0.009
1058	-0.009
1059	-0.01
1059	-0.011
1060	-0.012
1060	-0.013
1061	-0.013
1061	-0.013
1061	-0.013
1062	-0.014
1062	-0.014
1063	-0.014
1063	-0.015
1063	-0.015
1064	-0.015
1064	-0.015
1065	-0.015
1065	-0.015
1066	-0.015
1066	-0.014
1066	-0.014
1067	-0.013
1067	-0.012
1068	-0.011
1068	-0.011
1068	-0.01
1069	-0.01
1069	-0.009
1070	-0.009
1070	-0.008
1071	-0.008
1071	-0.007
1071	-0.006
1072	-0.005
1072	-0.004
1073	-0.003
1073	-0.002
1073	-0.001
1074	0.001
1074	0.002
1075	0.002
1075	0.002
1076	0.002
1076	0.003
1076	0.002
1077	0.002
1077	0.003
1078	0.003
1078	0.004
1078	0.005
1079	0.005
1079	0.007
1080	0.007
1080	0.009
1080	0.009
1081	0.011
1081	0.012
1082	0.012
1082	0.012
1083	0.012
1083	0.013
1083	0.014
1084	0.014
1084	0.015
1085	0.016
1085	0.016
1085	0.017
1086	0.018
1086	0.018
1087	0.02
1087	0.021
1088	0.021
1088	0.021
1088	0.023
1089	0.023
1089	0.023
1090	0.024
1090	0.025
1090	0.026
1091	0.027
1091	0.028
1092	0.03
1092	0.032
1092	0.034
1093	0.034
1093	0.037
1094	0.039
1094	0.04
1095	0.041
1095	0.043
1095	0.047
1096	0.048
1096	0.051
1097	0.054
1097	0.056
1097	0.06
1098	0.063
1098	0.066
1099	0.07
1099	0.074
1100	0.079
1100	0.084
1100	0.089
1101	0.095
1101	0.1
1102	0.108
1102	0.117
1102	0.125
1103	0.136
1103	0.147
1104	0.16
1104	0.173
1104	0.187
1105	0.202
1105	0.219
1106	0.235
1106	0.255
1107	0.275
1107	0.307
1107	0.344
1108	0.478
1108	0.721
1109	2.063
1109	-0
1109	-0
1110	-0
1110	-0
1111	-0
1111	-0
