Data from 15c-2-2a_Absorbance__1153__02954.txt Node

Date: Wed Jan 24 13:42:19 CET 2024
User: Marek
Spectrometer: MAYP115816
Trigger mode: 0
Integration Time (sec): 2.000000E-1
Scans to average: 10
Electric dark correction enabled: true
Nonlinearity correction enabled: true
Boxcar width: 5
XAxis mode: Wavelengths
Number of Pixels in Spectrum: 2068
>>>>>Begin Spectral Data<<<<<
199	-1.767
199	-1.607
200	-1.449
200	-1.326
201	-1.254
201	-1.202
202	-1.132
202	-1.076
203	-1.027
203	-0.986
204	-0.958
204	-0.933
205	-0.911
205	-0.901
205	-0.899
206	-0.895
206	-0.894
207	-0.89
207	-0.887
208	-0.886
208	-0.884
209	-0.882
209	-0.883
210	-0.883
210	-0.881
211	-0.88
211	-0.88
212	-0.877
212	-0.875
213	-0.873
213	-0.871
213	-0.868
214	-0.866
214	-0.862
215	-0.861
215	-0.857
216	-0.855
216	-0.853
217	-0.851
217	-0.852
218	-0.852
218	-0.85
219	-0.849
219	-0.847
220	-0.845
220	-0.843
221	-0.844
221	-0.841
221	-0.836
222	-0.831
222	-0.824
223	-0.817
223	-0.812
224	-0.803
224	-0.795
225	-0.788
225	-0.778
226	-0.768
226	-0.756
227	-0.744
227	-0.733
228	-0.715
228	-0.698
229	-0.676
229	-0.655
229	-0.629
230	-0.599
230	-0.567
231	-0.533
231	-0.496
232	-0.458
232	-0.418
233	-0.379
233	-0.337
234	-0.296
234	-0.255
235	-0.216
235	-0.178
236	-0.142
236	-0.107
236	-0.074
237	-0.043
237	-0.015
238	0.011
238	0.035
239	0.057
239	0.077
240	0.095
240	0.111
241	0.126
241	0.139
242	0.15
242	0.161
243	0.171
243	0.18
243	0.187
244	0.195
244	0.201
245	0.206
245	0.212
246	0.217
246	0.222
247	0.226
247	0.23
248	0.234
248	0.238
249	0.241
249	0.244
250	0.247
250	0.25
250	0.253
251	0.255
251	0.258
252	0.26
252	0.263
253	0.265
253	0.267
254	0.268
254	0.271
255	0.272
255	0.274
256	0.275
256	0.276
257	0.277
257	0.278
258	0.279
258	0.279
258	0.28
259	0.28
259	0.281
260	0.281
260	0.281
261	0.281
261	0.281
262	0.281
262	0.281
263	0.281
263	0.281
264	0.28
264	0.28
265	0.279
265	0.279
265	0.278
266	0.277
266	0.276
267	0.275
267	0.274
268	0.272
268	0.271
269	0.27
269	0.269
270	0.267
270	0.265
271	0.263
271	0.262
272	0.26
272	0.258
272	0.257
273	0.255
273	0.253
274	0.251
274	0.25
275	0.248
275	0.246
276	0.245
276	0.243
277	0.241
277	0.239
278	0.237
278	0.235
278	0.233
279	0.23
279	0.228
280	0.226
280	0.224
281	0.222
281	0.22
282	0.218
282	0.216
283	0.215
283	0.213
284	0.212
284	0.211
285	0.21
285	0.208
285	0.207
286	0.205
286	0.204
287	0.202
287	0.201
288	0.199
288	0.198
289	0.197
289	0.196
290	0.194
290	0.193
291	0.192
291	0.191
292	0.19
292	0.189
292	0.188
293	0.186
293	0.186
294	0.184
294	0.183
295	0.183
295	0.182
296	0.181
296	0.18
297	0.179
297	0.179
298	0.178
298	0.177
298	0.177
299	0.176
299	0.175
300	0.175
300	0.174
301	0.174
301	0.173
302	0.172
302	0.172
303	0.171
303	0.171
304	0.17
304	0.17
305	0.169
305	0.169
305	0.168
306	0.168
306	0.167
307	0.167
307	0.166
308	0.165
308	0.165
309	0.164
309	0.164
310	0.163
310	0.163
311	0.163
311	0.162
311	0.161
312	0.161
312	0.161
313	0.16
313	0.16
314	0.159
314	0.158
315	0.158
315	0.157
316	0.157
316	0.156
317	0.156
317	0.155
318	0.155
318	0.154
318	0.154
319	0.153
319	0.153
320	0.152
320	0.152
321	0.151
321	0.151
322	0.15
322	0.15
323	0.149
323	0.149
324	0.148
324	0.148
324	0.147
325	0.147
325	0.146
326	0.146
326	0.146
327	0.145
327	0.144
328	0.144
328	0.144
329	0.143
329	0.143
330	0.142
330	0.142
330	0.141
331	0.141
331	0.14
332	0.14
332	0.139
333	0.139
333	0.138
334	0.138
334	0.137
335	0.137
335	0.136
336	0.136
336	0.135
336	0.135
337	0.135
337	0.134
338	0.134
338	0.134
339	0.133
339	0.133
340	0.133
340	0.132
341	0.132
341	0.131
342	0.131
342	0.131
342	0.13
343	0.13
343	0.129
344	0.129
344	0.129
345	0.129
345	0.128
346	0.128
346	0.128
347	0.128
347	0.127
348	0.127
348	0.127
348	0.127
349	0.127
349	0.126
350	0.126
350	0.125
351	0.125
351	0.124
352	0.124
352	0.124
353	0.123
353	0.122
354	0.122
354	0.122
354	0.121
355	0.121
355	0.12
356	0.12
356	0.12
357	0.12
357	0.119
358	0.119
358	0.119
359	0.119
359	0.119
360	0.119
360	0.12
360	0.12
361	0.12
361	0.12
362	0.12
362	0.12
363	0.121
363	0.12
364	0.12
364	0.12
365	0.12
365	0.12
366	0.12
366	0.119
366	0.119
367	0.119
367	0.119
368	0.119
368	0.118
369	0.118
369	0.118
370	0.118
370	0.118
371	0.117
371	0.117
372	0.117
372	0.117
372	0.117
373	0.117
373	0.117
374	0.117
374	0.117
375	0.117
375	0.116
376	0.116
376	0.117
377	0.117
377	0.117
378	0.116
378	0.116
378	0.117
379	0.117
379	0.117
380	0.117
380	0.117
381	0.116
381	0.116
382	0.116
382	0.116
383	0.116
383	0.116
383	0.115
384	0.115
384	0.115
385	0.115
385	0.115
386	0.115
386	0.115
387	0.115
387	0.115
388	0.114
388	0.114
389	0.114
389	0.114
389	0.114
390	0.114
390	0.114
391	0.114
391	0.115
392	0.115
392	0.115
393	0.114
393	0.114
394	0.114
394	0.114
394	0.114
395	0.114
395	0.114
396	0.113
396	0.113
397	0.113
397	0.113
398	0.113
398	0.113
399	0.113
399	0.113
400	0.112
400	0.112
400	0.112
401	0.112
401	0.112
402	0.111
402	0.111
403	0.111
403	0.111
404	0.111
404	0.111
405	0.11
405	0.11
405	0.11
406	0.11
406	0.11
407	0.11
407	0.11
408	0.109
408	0.109
409	0.109
409	0.109
410	0.109
410	0.109
411	0.109
411	0.109
411	0.109
412	0.109
412	0.109
413	0.108
413	0.108
414	0.108
414	0.108
415	0.108
415	0.107
416	0.107
416	0.107
416	0.107
417	0.106
417	0.106
418	0.106
418	0.106
419	0.106
419	0.106
420	0.106
420	0.107
421	0.107
421	0.107
421	0.107
422	0.107
422	0.107
423	0.107
423	0.107
424	0.107
424	0.106
425	0.106
425	0.106
426	0.105
426	0.105
427	0.105
427	0.105
427	0.105
428	0.106
428	0.106
429	0.106
429	0.106
430	0.106
430	0.106
431	0.106
431	0.106
432	0.106
432	0.106
432	0.105
433	0.105
433	0.104
434	0.104
434	0.104
435	0.104
435	0.104
436	0.104
436	0.104
437	0.104
437	0.104
437	0.104
438	0.104
438	0.103
439	0.103
439	0.103
440	0.103
440	0.103
441	0.103
441	0.103
442	0.103
442	0.103
442	0.104
443	0.104
443	0.104
444	0.104
444	0.104
445	0.104
445	0.105
446	0.105
446	0.105
447	0.104
447	0.104
447	0.104
448	0.104
448	0.104
449	0.104
449	0.104
450	0.104
450	0.103
451	0.103
451	0.103
452	0.103
452	0.103
452	0.103
453	0.102
453	0.102
454	0.101
454	0.101
455	0.101
455	0.1
456	0.1
456	0.1
457	0.1
457	0.099
458	0.099
458	0.099
458	0.1
459	0.1
459	0.1
460	0.1
460	0.1
461	0.1
461	0.1
462	0.1
462	0.1
463	0.101
463	0.101
463	0.101
464	0.101
464	0.101
465	0.101
465	0.101
466	0.101
466	0.101
467	0.101
467	0.1
467	0.1
468	0.099
468	0.099
469	0.098
469	0.098
470	0.099
470	0.099
471	0.099
471	0.099
472	0.099
472	0.099
472	0.1
473	0.1
473	0.101
474	0.101
474	0.101
475	0.102
475	0.102
476	0.102
476	0.102
477	0.102
477	0.102
477	0.103
478	0.102
478	0.103
479	0.104
479	0.104
480	0.105
480	0.106
481	0.107
481	0.107
482	0.108
482	0.109
482	0.11
483	0.111
483	0.112
484	0.113
484	0.114
485	0.114
485	0.115
486	0.115
486	0.116
487	0.116
487	0.116
487	0.116
488	0.116
488	0.116
489	0.116
489	0.116
490	0.117
490	0.117
491	0.118
491	0.118
492	0.119
492	0.12
492	0.121
493	0.121
493	0.122
494	0.124
494	0.125
495	0.126
495	0.127
496	0.128
496	0.129
496	0.129
497	0.13
497	0.131
498	0.132
498	0.132
499	0.133
499	0.133
500	0.134
500	0.135
501	0.137
501	0.138
501	0.139
502	0.14
502	0.141
503	0.142
503	0.143
504	0.143
504	0.144
505	0.144
505	0.145
506	0.145
506	0.146
506	0.146
507	0.146
507	0.146
508	0.147
508	0.148
509	0.149
509	0.15
510	0.15
510	0.151
511	0.151
511	0.152
511	0.152
512	0.153
512	0.153
513	0.153
513	0.153
514	0.153
514	0.153
515	0.153
515	0.153
515	0.153
516	0.154
516	0.155
517	0.155
517	0.156
518	0.156
518	0.156
519	0.156
519	0.156
520	0.155
520	0.155
520	0.154
521	0.153
521	0.151
522	0.15
522	0.15
523	0.149
523	0.149
524	0.15
524	0.151
524	0.152
525	0.153
525	0.155
526	0.156
526	0.157
527	0.158
527	0.159
528	0.16
528	0.16
529	0.16
529	0.16
529	0.159
530	0.159
530	0.158
531	0.158
531	0.158
532	0.157
532	0.156
533	0.156
533	0.155
533	0.154
534	0.154
534	0.153
535	0.152
535	0.151
536	0.151
536	0.15
537	0.149
537	0.149
538	0.148
538	0.147
538	0.146
539	0.145
539	0.144
540	0.143
540	0.142
541	0.141
541	0.139
542	0.138
542	0.137
542	0.135
543	0.134
543	0.133
544	0.131
544	0.13
545	0.13
545	0.129
546	0.128
546	0.127
547	0.126
547	0.124
547	0.123
548	0.122
548	0.12
549	0.119
549	0.118
550	0.116
550	0.115
551	0.113
551	0.112
551	0.111
552	0.11
552	0.109
553	0.108
553	0.107
554	0.106
554	0.104
555	0.103
555	0.102
556	0.1
556	0.098
556	0.097
557	0.096
557	0.094
558	0.093
558	0.092
559	0.091
559	0.09
560	0.088
560	0.087
560	0.086
561	0.086
561	0.086
562	0.085
562	0.084
563	0.083
563	0.082
564	0.081
564	0.079
564	0.078
565	0.077
565	0.076
566	0.075
566	0.073
567	0.073
567	0.072
568	0.072
568	0.072
568	0.073
569	0.073
569	0.074
570	0.074
570	0.073
571	0.074
571	0.074
572	0.074
572	0.074
573	0.074
573	0.073
573	0.071
574	0.071
574	0.07
575	0.07
575	0.071
576	0.071
576	0.069
577	0.068
577	0.067
577	0.066
578	0.066
578	0.066
579	0.066
579	0.067
580	0.066
580	0.064
581	0.062
581	0.061
581	0.061
582	0.061
582	0.061
583	0.061
583	0.06
584	0.058
584	0.055
585	0.054
585	0.055
585	0.055
586	0.055
586	0.055
587	0.053
587	0.052
588	0.05
588	0.049
589	0.049
589	0.049
590	0.049
590	0.048
590	0.049
591	0.05
591	0.05
592	0.049
592	0.048
593	0.048
593	0.048
594	0.047
594	0.046
594	0.046
595	0.045
595	0.044
596	0.043
596	0.044
597	0.046
597	0.047
598	0.047
598	0.048
598	0.048
599	0.049
599	0.048
600	0.048
600	0.047
601	0.047
601	0.046
602	0.045
602	0.045
602	0.044
603	0.044
603	0.045
604	0.046
604	0.046
605	0.047
605	0.048
606	0.048
606	0.047
606	0.046
607	0.046
607	0.046
608	0.045
608	0.044
609	0.043
609	0.043
610	0.042
610	0.041
610	0.041
611	0.042
611	0.043
612	0.043
612	0.044
613	0.045
613	0.046
614	0.047
614	0.046
614	0.046
615	0.046
615	0.046
616	0.046
616	0.045
617	0.045
617	0.044
618	0.043
618	0.043
618	0.043
619	0.044
619	0.045
620	0.046
620	0.047
621	0.047
621	0.048
622	0.048
622	0.049
622	0.049
623	0.049
623	0.05
624	0.051
624	0.05
625	0.05
625	0.05
626	0.05
626	0.05
626	0.05
627	0.051
627	0.051
628	0.051
628	0.051
629	0.051
629	0.051
630	0.051
630	0.051
630	0.052
631	0.052
631	0.053
632	0.053
632	0.054
633	0.055
633	0.055
634	0.056
634	0.058
634	0.06
635	0.061
635	0.062
636	0.063
636	0.065
637	0.066
637	0.067
638	0.068
638	0.069
638	0.07
639	0.071
639	0.071
640	0.073
640	0.074
641	0.075
641	0.076
642	0.078
642	0.08
642	0.081
643	0.082
643	0.083
644	0.084
644	0.085
645	0.086
645	0.087
646	0.088
646	0.089
646	0.091
647	0.092
647	0.094
648	0.096
648	0.098
649	0.1
649	0.102
650	0.104
650	0.105
650	0.107
651	0.108
651	0.11
652	0.111
652	0.112
653	0.115
653	0.121
653	0.128
654	0.105
654	0.087
655	0.088
655	0.09
656	0.091
656	0.093
657	0.094
657	0.095
657	0.096
658	0.093
658	0.087
659	0.109
659	0.138
660	0.144
660	0.146
661	0.147
661	0.149
661	0.151
662	0.153
662	0.155
663	0.158
663	0.16
664	0.162
664	0.164
665	0.166
665	0.168
665	0.17
666	0.172
666	0.173
667	0.174
667	0.176
668	0.178
668	0.179
669	0.181
669	0.183
669	0.186
670	0.189
670	0.191
671	0.192
671	0.194
672	0.195
672	0.197
672	0.198
673	0.199
673	0.201
674	0.201
674	0.202
675	0.202
675	0.203
676	0.204
676	0.205
676	0.206
677	0.207
677	0.208
678	0.209
678	0.21
679	0.21
679	0.211
680	0.213
680	0.213
680	0.214
681	0.214
681	0.215
682	0.215
682	0.215
683	0.217
683	0.218
684	0.219
684	0.219
684	0.219
685	0.22
685	0.221
686	0.222
686	0.222
687	0.222
687	0.222
687	0.222
688	0.221
688	0.22
689	0.22
689	0.22
690	0.219
690	0.219
691	0.218
691	0.217
691	0.217
692	0.216
692	0.216
693	0.216
693	0.216
694	0.215
694	0.214
695	0.214
695	0.215
695	0.215
696	0.214
696	0.213
697	0.213
697	0.212
698	0.211
698	0.21
698	0.209
699	0.208
699	0.207
700	0.205
700	0.204
701	0.204
701	0.203
702	0.202
702	0.201
702	0.2
703	0.198
703	0.197
704	0.195
704	0.194
705	0.193
705	0.191
705	0.19
706	0.188
706	0.187
707	0.185
707	0.183
708	0.181
708	0.18
709	0.178
709	0.177
709	0.174
710	0.172
710	0.17
711	0.169
711	0.167
712	0.165
712	0.164
713	0.163
713	0.162
713	0.161
714	0.159
714	0.158
715	0.156
715	0.155
716	0.154
716	0.153
716	0.152
717	0.152
717	0.151
718	0.149
718	0.148
719	0.148
719	0.147
720	0.145
720	0.144
720	0.141
721	0.139
721	0.137
722	0.135
722	0.132
723	0.13
723	0.128
723	0.126
724	0.124
724	0.122
725	0.121
725	0.119
726	0.118
726	0.117
727	0.115
727	0.114
727	0.113
728	0.112
728	0.11
729	0.11
729	0.109
730	0.107
730	0.105
730	0.104
731	0.102
731	0.101
732	0.101
732	0.1
733	0.099
733	0.098
734	0.097
734	0.096
734	0.095
735	0.094
735	0.093
736	0.091
736	0.09
737	0.089
737	0.088
737	0.086
738	0.084
738	0.081
739	0.079
739	0.078
740	0.076
740	0.074
741	0.073
741	0.07
741	0.068
742	0.065
742	0.062
743	0.061
743	0.059
744	0.057
744	0.055
744	0.053
745	0.051
745	0.049
746	0.048
746	0.047
747	0.047
747	0.047
748	0.047
748	0.047
748	0.047
749	0.047
749	0.047
750	0.047
750	0.047
751	0.047
751	0.047
751	0.047
752	0.046
752	0.044
753	0.043
753	0.042
754	0.042
754	0.041
754	0.041
755	0.041
755	0.041
756	0.04
756	0.039
757	0.039
757	0.039
758	0.039
758	0.039
758	0.039
759	0.039
759	0.038
760	0.037
760	0.035
761	0.035
761	0.035
761	0.035
762	0.034
762	0.033
763	0.032
763	0.031
764	0.029
764	0.027
764	0.026
765	0.025
765	0.023
766	0.022
766	0.021
767	0.02
767	0.018
768	0.015
768	0.014
768	0.013
769	0.013
769	0.012
770	0.01
770	0.009
771	0.007
771	0.005
771	0.003
772	0.001
772	-0
773	-0.002
773	-0.005
774	-0.007
774	-0.009
775	-0.01
775	-0.012
775	-0.014
776	-0.015
776	-0.017
777	-0.018
777	-0.02
778	-0.022
778	-0.024
778	-0.026
779	-0.027
779	-0.029
780	-0.032
780	-0.035
781	-0.039
781	-0.043
781	-0.047
782	-0.052
782	-0.057
783	-0.062
783	-0.067
784	-0.073
784	-0.08
784	-0.087
785	-0.094
785	-0.101
786	-0.107
786	-0.109
787	-0.108
787	-0.109
788	-0.112
788	-0.116
788	-0.119
789	-0.122
789	-0.123
790	-0.122
790	-0.121
791	-0.123
791	-0.125
791	-0.128
792	-0.124
792	-0.113
793	-0.108
793	-0.104
794	-0.102
794	-0.103
794	-0.107
795	-0.109
795	-0.108
796	-0.108
796	-0.11
797	-0.118
797	-0.129
797	-0.135
798	-0.139
798	-0.142
799	-0.143
799	-0.143
800	-0.143
800	-0.145
801	-0.148
801	-0.149
801	-0.15
802	-0.151
802	-0.152
803	-0.153
803	-0.152
804	-0.151
804	-0.145
804	-0.138
805	-0.133
805	-0.13
806	-0.128
806	-0.126
807	-0.125
807	-0.124
807	-0.124
808	-0.124
808	-0.125
809	-0.13
809	-0.136
810	-0.14
810	-0.143
810	-0.147
811	-0.151
811	-0.152
812	-0.149
812	-0.146
813	-0.147
813	-0.148
813	-0.15
814	-0.151
814	-0.151
815	-0.148
815	-0.145
816	-0.143
816	-0.143
817	-0.147
817	-0.149
817	-0.147
818	-0.143
818	-0.137
819	-0.13
819	-0.125
820	-0.121
820	-0.117
820	-0.111
821	-0.104
821	-0.096
822	-0.088
822	-0.08
823	-0.073
823	-0.068
823	-0.063
824	-0.058
824	-0.052
825	-0.046
825	-0.04
826	-0.036
826	-0.032
826	-0.029
827	-0.026
827	-0.023
828	-0.021
828	-0.019
829	-0.018
829	-0.017
829	-0.016
830	-0.016
830	-0.016
831	-0.015
831	-0.014
832	-0.013
832	-0.012
832	-0.011
833	-0.011
833	-0.01
834	-0.009
834	-0.008
835	-0.006
835	-0.006
835	-0.005
836	-0.005
836	-0.004
837	-0.004
837	-0.004
838	-0.004
838	-0.004
839	-0.004
839	-0.004
839	-0.005
840	-0.005
840	-0.005
841	-0.005
841	-0.004
842	-0.004
842	-0.003
842	-0.002
843	-0.001
843	-0
844	0.001
844	0.002
845	0.003
845	0.003
845	0.004
846	0.004
846	0.004
847	0.004
847	0.005
848	0.006
848	0.006
848	0.007
849	0.008
849	0.009
850	0.01
850	0.011
851	0.011
851	0.012
851	0.012
852	0.011
852	0.011
853	0.01
853	0.009
854	0.008
854	0.007
854	0.006
855	0.005
855	0.004
856	0.003
856	0.003
857	0.003
857	0.003
857	0.004
858	0.005
858	0.007
859	0.008
859	0.01
860	0.012
860	0.014
860	0.016
861	0.017
861	0.019
862	0.019
862	0.019
863	0.02
863	0.019
863	0.019
864	0.018
864	0.017
865	0.017
865	0.016
866	0.015
866	0.014
866	0.014
867	0.013
867	0.012
868	0.012
868	0.011
869	0.01
869	0.009
869	0.007
870	0.006
870	0.005
871	0.004
871	0.003
872	0.002
872	0.001
872	0.001
873	0
873	0
874	0
874	0.001
875	0.001
875	0.002
875	0.002
876	0.003
876	0.003
877	0.004
877	0.005
878	0.005
878	0.006
878	0.006
879	0.007
879	0.007
880	0.007
880	0.007
881	0.007
881	0.007
881	0.008
882	0.008
882	0.008
883	0.008
883	0.009
884	0.009
884	0.009
884	0.009
885	0.01
885	0.01
886	0.01
886	0.01
887	0.01
887	0.011
887	0.011
888	0.011
888	0.012
889	0.013
889	0.013
890	0.014
890	0.015
890	0.015
891	0.016
891	0.016
892	0.017
892	0.017
893	0.016
893	0.016
893	0.016
894	0.015
894	0.015
895	0.014
895	0.013
895	0.011
896	0.01
896	0.009
897	0.008
897	0.007
898	0.006
898	0.005
898	0.004
899	0.003
899	0.003
900	0.002
900	0.002
901	0.003
901	0.002
901	0.002
902	0.003
902	0.003
903	0.002
903	0.002
904	0.001
904	0.001
904	0
905	-0
905	-0
906	-0
906	-0
907	0
907	0.001
907	0.002
908	0.002
908	0.003
909	0.005
909	0.006
910	0.007
910	0.008
910	0.009
911	0.01
911	0.01
912	0.011
912	0.011
913	0.01
913	0.01
913	0.009
914	0.008
914	0.007
915	0.006
915	0.005
916	0.004
916	0.004
916	0.004
917	0.003
917	0.003
918	0.003
918	0.003
918	0.002
919	0.002
919	0.002
920	0.002
920	0.002
921	0.002
921	0.002
921	0.001
922	0.001
922	0.002
923	0.002
923	0.002
924	0.003
924	0.003
924	0.004
925	0.004
925	0.004
926	0.005
926	0.005
927	0.005
927	0.005
927	0.004
928	0.004
928	0.004
929	0.003
929	0.003
930	0.003
930	0.002
930	0.002
931	0.001
931	0.001
932	0.001
932	0
933	0
933	-0
933	-0
934	-0.001
934	-0.001
935	-0.002
935	-0.002
935	-0.003
936	-0.003
936	-0.003
937	-0.003
937	-0.003
938	-0.003
938	-0.003
938	-0.002
939	-0.002
939	-0.001
940	-0
940	0.001
941	0.002
941	0.002
941	0.003
942	0.004
942	0.004
943	0.005
943	0.005
944	0.006
944	0.007
944	0.007
945	0.008
945	0.009
946	0.009
946	0.009
946	0.01
947	0.01
947	0.011
948	0.011
948	0.011
949	0.011
949	0.011
949	0.011
950	0.012
950	0.012
951	0.013
951	0.013
952	0.014
952	0.014
952	0.015
953	0.016
953	0.016
954	0.016
954	0.016
955	0.016
955	0.015
955	0.015
956	0.015
956	0.014
957	0.013
957	0.012
957	0.011
958	0.01
958	0.009
959	0.008
959	0.007
960	0.006
960	0.004
960	0.003
961	0.001
961	-0
962	-0.002
962	-0.003
963	-0.004
963	-0.005
963	-0.006
964	-0.007
964	-0.007
965	-0.008
965	-0.008
966	-0.008
966	-0.007
966	-0.007
967	-0.007
967	-0.006
968	-0.006
968	-0.006
968	-0.006
969	-0.006
969	-0.006
970	-0.005
970	-0.005
971	-0.005
971	-0.005
971	-0.004
972	-0.004
972	-0.003
973	-0.002
973	-0.001
974	-0
974	0.001
974	0.001
975	0.002
975	0.003
976	0.004
976	0.004
976	0.004
977	0.004
977	0.004
978	0.003
978	0.002
979	0.002
979	0.001
979	0
980	-0.001
980	-0.002
981	-0.003
981	-0.004
982	-0.005
982	-0.005
982	-0.005
983	-0.005
983	-0.005
984	-0.005
984	-0.005
984	-0.004
985	-0.003
985	-0.003
986	-0.002
986	-0.002
987	-0.002
987	-0.001
987	-0.001
988	-0
988	-0
989	-0
989	-0
990	-0
990	-0
990	0
991	0.001
991	0.001
992	0.002
992	0.002
992	0.003
993	0.003
993	0.004
994	0.004
994	0.005
995	0.005
995	0.005
995	0.005
996	0.004
996	0.004
997	0.003
997	0.002
997	0.002
998	0.001
998	0.001
999	0
999	-0
1000	-0.001
1000	-0.001
1000	-0.001
1001	-0.001
1001	-0.001
1002	-0.002
1002	-0.002
1003	-0.002
1003	-0.002
1003	-0.003
1004	-0.003
1004	-0.003
1005	-0.004
1005	-0.005
1005	-0.005
1006	-0.006
1006	-0.006
1007	-0.007
1007	-0.007
1008	-0.007
1008	-0.008
1008	-0.008
1009	-0.008
1009	-0.008
1010	-0.008
1010	-0.007
1010	-0.007
1011	-0.007
1011	-0.007
1012	-0.007
1012	-0.006
1013	-0.006
1013	-0.006
1013	-0.006
1014	-0.006
1014	-0.006
1015	-0.005
1015	-0.005
1016	-0.004
1016	-0.004
1016	-0.004
1017	-0.003
1017	-0.003
1018	-0.002
1018	-0.002
1018	-0.002
1019	-0.001
1019	-0.001
1020	-0.001
1020	-0.001
1021	-0.001
1021	-0.002
1021	-0.002
1022	-0.002
1022	-0.003
1023	-0.003
1023	-0.004
1023	-0.004
1024	-0.005
1024	-0.005
1025	-0.006
1025	-0.006
1026	-0.006
1026	-0.006
1026	-0.006
1027	-0.006
1027	-0.006
1028	-0.006
1028	-0.005
1028	-0.005
1029	-0.005
1029	-0.004
1030	-0.004
1030	-0.004
1031	-0.004
1031	-0.004
1031	-0.004
1032	-0.004
1032	-0.004
1033	-0.005
1033	-0.006
1033	-0.006
1034	-0.007
1034	-0.008
1035	-0.009
1035	-0.01
1036	-0.011
1036	-0.011
1036	-0.012
1037	-0.012
1037	-0.013
1038	-0.013
1038	-0.013
1039	-0.013
1039	-0.013
1039	-0.013
1040	-0.013
1040	-0.013
1041	-0.014
1041	-0.014
1041	-0.015
1042	-0.015
1042	-0.016
1043	-0.016
1043	-0.017
1044	-0.017
1044	-0.018
1044	-0.018
1045	-0.018
1045	-0.019
1046	-0.019
1046	-0.019
1046	-0.018
1047	-0.018
1047	-0.018
1048	-0.017
1048	-0.016
1049	-0.016
1049	-0.016
1049	-0.015
1050	-0.015
1050	-0.014
1051	-0.014
1051	-0.013
1051	-0.012
1052	-0.011
1052	-0.01
1053	-0.009
1053	-0.009
1053	-0.008
1054	-0.007
1054	-0.006
1055	-0.005
1055	-0.005
1056	-0.005
1056	-0.006
1056	-0.006
1057	-0.007
1057	-0.008
1058	-0.008
1058	-0.009
1058	-0.01
1059	-0.011
1059	-0.012
1060	-0.013
1060	-0.013
1061	-0.014
1061	-0.013
1061	-0.013
1062	-0.014
1062	-0.015
1063	-0.015
1063	-0.016
1063	-0.016
1064	-0.016
1064	-0.015
1065	-0.015
1065	-0.016
1066	-0.015
1066	-0.015
1066	-0.014
1067	-0.013
1067	-0.012
1068	-0.011
1068	-0.011
1068	-0.01
1069	-0.01
1069	-0.01
1070	-0.009
1070	-0.008
1071	-0.008
1071	-0.007
1071	-0.006
1072	-0.005
1072	-0.004
1073	-0.003
1073	-0.001
1073	-0
1074	0.001
1074	0.002
1075	0.002
1075	0.002
1076	0.002
1076	0.003
1076	0.002
1077	0.002
1077	0.003
1078	0.003
1078	0.004
1078	0.004
1079	0.005
1079	0.006
1080	0.007
1080	0.008
1080	0.008
1081	0.01
1081	0.011
1082	0.011
1082	0.012
1083	0.012
1083	0.013
1083	0.014
1084	0.014
1084	0.015
1085	0.016
1085	0.017
1085	0.017
1086	0.019
1086	0.019
1087	0.02
1087	0.021
1088	0.021
1088	0.022
1088	0.022
1089	0.023
1089	0.023
1090	0.024
1090	0.025
1090	0.025
1091	0.026
1091	0.027
1092	0.028
1092	0.031
1092	0.032
1093	0.033
1093	0.035
1094	0.037
1094	0.039
1095	0.041
1095	0.043
1095	0.046
1096	0.048
1096	0.051
1097	0.054
1097	0.057
1097	0.061
1098	0.063
1098	0.066
1099	0.07
1099	0.074
1100	0.079
1100	0.083
1100	0.088
1101	0.093
1101	0.098
1102	0.106
1102	0.114
1102	0.122
1103	0.132
1103	0.142
1104	0.154
1104	0.167
1104	0.183
1105	0.198
1105	0.215
1106	0.23
1106	0.25
1107	0.268
1107	0.3
1107	0.339
1108	0.467
1108	0.702
1109	1.693
1109	-0
1109	-0
1110	-0
1110	-0
1111	-0
1111	-0
