Data from 15c-2-2a_Absorbance__1981__03782.txt Node

Date: Wed Jan 24 14:09:54 CET 2024
User: Marek
Spectrometer: MAYP115816
Trigger mode: 0
Integration Time (sec): 2.000000E-1
Scans to average: 10
Electric dark correction enabled: true
Nonlinearity correction enabled: true
Boxcar width: 5
XAxis mode: Wavelengths
Number of Pixels in Spectrum: 2068
>>>>>Begin Spectral Data<<<<<
199	-1.823
199	-1.662
200	-1.503
200	-1.379
201	-1.305
201	-1.252
202	-1.18
202	-1.122
203	-1.073
203	-1.03
204	-1.001
204	-0.975
205	-0.953
205	-0.943
205	-0.941
206	-0.938
206	-0.936
207	-0.931
207	-0.929
208	-0.928
208	-0.926
209	-0.924
209	-0.924
210	-0.923
210	-0.921
211	-0.919
211	-0.919
212	-0.917
212	-0.914
213	-0.912
213	-0.909
213	-0.907
214	-0.904
214	-0.901
215	-0.9
215	-0.896
216	-0.894
216	-0.892
217	-0.891
217	-0.891
218	-0.891
218	-0.89
219	-0.888
219	-0.886
220	-0.884
220	-0.882
221	-0.882
221	-0.879
221	-0.874
222	-0.868
222	-0.861
223	-0.855
223	-0.849
224	-0.84
224	-0.832
225	-0.823
225	-0.813
226	-0.803
226	-0.791
227	-0.778
227	-0.766
228	-0.748
228	-0.73
229	-0.708
229	-0.685
229	-0.658
230	-0.628
230	-0.594
231	-0.558
231	-0.519
232	-0.478
232	-0.435
233	-0.392
233	-0.346
234	-0.3
234	-0.254
235	-0.21
235	-0.166
236	-0.124
236	-0.083
236	-0.043
237	-0.005
237	0.03
238	0.063
238	0.094
239	0.123
239	0.149
240	0.173
240	0.195
241	0.216
241	0.234
242	0.25
242	0.265
243	0.28
243	0.292
243	0.303
244	0.314
244	0.323
245	0.331
245	0.339
246	0.347
246	0.354
247	0.36
247	0.366
248	0.372
248	0.377
249	0.382
249	0.386
250	0.391
250	0.395
250	0.399
251	0.402
251	0.406
252	0.409
252	0.412
253	0.415
253	0.417
254	0.42
254	0.422
255	0.424
255	0.426
256	0.428
256	0.43
257	0.431
257	0.432
258	0.433
258	0.435
258	0.435
259	0.436
259	0.437
260	0.437
260	0.438
261	0.438
261	0.438
262	0.438
262	0.438
263	0.439
263	0.438
264	0.438
264	0.437
265	0.437
265	0.436
265	0.436
266	0.435
266	0.434
267	0.433
267	0.432
268	0.431
268	0.43
269	0.428
269	0.427
270	0.425
270	0.424
271	0.422
271	0.42
272	0.419
272	0.417
272	0.415
273	0.414
273	0.412
274	0.41
274	0.409
275	0.407
275	0.405
276	0.403
276	0.401
277	0.399
277	0.396
278	0.394
278	0.391
278	0.389
279	0.386
279	0.383
280	0.381
280	0.379
281	0.377
281	0.375
282	0.373
282	0.371
283	0.369
283	0.368
284	0.367
284	0.366
285	0.364
285	0.362
285	0.361
286	0.359
286	0.357
287	0.356
287	0.354
288	0.352
288	0.351
289	0.349
289	0.347
290	0.346
290	0.344
291	0.343
291	0.342
292	0.341
292	0.339
292	0.338
293	0.337
293	0.336
294	0.334
294	0.333
295	0.332
295	0.331
296	0.33
296	0.329
297	0.328
297	0.327
298	0.326
298	0.325
298	0.324
299	0.323
299	0.322
300	0.321
300	0.32
301	0.319
301	0.318
302	0.317
302	0.317
303	0.316
303	0.315
304	0.314
304	0.313
305	0.313
305	0.312
305	0.311
306	0.311
306	0.31
307	0.309
307	0.308
308	0.307
308	0.306
309	0.306
309	0.305
310	0.304
310	0.303
311	0.303
311	0.302
311	0.301
312	0.3
312	0.299
313	0.298
313	0.298
314	0.297
314	0.296
315	0.295
315	0.294
316	0.293
316	0.293
317	0.292
317	0.291
318	0.29
318	0.289
318	0.289
319	0.288
319	0.287
320	0.286
320	0.285
321	0.284
321	0.284
322	0.283
322	0.282
323	0.281
323	0.28
324	0.28
324	0.279
324	0.278
325	0.277
325	0.277
326	0.276
326	0.275
327	0.274
327	0.274
328	0.273
328	0.272
329	0.272
329	0.271
330	0.27
330	0.27
330	0.269
331	0.269
331	0.268
332	0.267
332	0.266
333	0.265
333	0.265
334	0.264
334	0.263
335	0.262
335	0.262
336	0.261
336	0.26
336	0.26
337	0.259
337	0.259
338	0.258
338	0.258
339	0.257
339	0.257
340	0.257
340	0.256
341	0.255
341	0.255
342	0.254
342	0.254
342	0.253
343	0.253
343	0.252
344	0.251
344	0.251
345	0.251
345	0.25
346	0.25
346	0.249
347	0.249
347	0.248
348	0.248
348	0.248
348	0.248
349	0.247
349	0.247
350	0.246
350	0.246
351	0.245
351	0.245
352	0.244
352	0.243
353	0.243
353	0.242
354	0.241
354	0.241
354	0.24
355	0.239
355	0.239
356	0.238
356	0.237
357	0.236
357	0.236
358	0.236
358	0.236
359	0.236
359	0.236
360	0.237
360	0.237
360	0.237
361	0.238
361	0.239
362	0.239
362	0.239
363	0.239
363	0.239
364	0.239
364	0.239
365	0.238
365	0.238
366	0.238
366	0.237
366	0.237
367	0.236
367	0.236
368	0.236
368	0.235
369	0.235
369	0.235
370	0.234
370	0.234
371	0.234
371	0.233
372	0.233
372	0.233
372	0.233
373	0.232
373	0.232
374	0.232
374	0.232
375	0.232
375	0.232
376	0.232
376	0.232
377	0.231
377	0.231
378	0.231
378	0.231
378	0.232
379	0.232
379	0.231
380	0.231
380	0.231
381	0.231
381	0.231
382	0.231
382	0.23
383	0.23
383	0.23
383	0.23
384	0.229
384	0.229
385	0.229
385	0.229
386	0.229
386	0.229
387	0.229
387	0.228
388	0.228
388	0.228
389	0.228
389	0.227
389	0.227
390	0.227
390	0.227
391	0.227
391	0.228
392	0.227
392	0.227
393	0.227
393	0.227
394	0.227
394	0.227
394	0.226
395	0.226
395	0.226
396	0.225
396	0.225
397	0.225
397	0.225
398	0.225
398	0.224
399	0.224
399	0.224
400	0.223
400	0.223
400	0.223
401	0.223
401	0.222
402	0.222
402	0.221
403	0.221
403	0.221
404	0.221
404	0.221
405	0.22
405	0.22
405	0.22
406	0.219
406	0.219
407	0.219
407	0.219
408	0.219
408	0.218
409	0.218
409	0.218
410	0.218
410	0.218
411	0.218
411	0.218
411	0.217
412	0.217
412	0.217
413	0.216
413	0.216
414	0.216
414	0.215
415	0.215
415	0.215
416	0.214
416	0.214
416	0.214
417	0.213
417	0.213
418	0.213
418	0.213
419	0.213
419	0.213
420	0.213
420	0.214
421	0.214
421	0.214
421	0.214
422	0.215
422	0.214
423	0.214
423	0.214
424	0.214
424	0.213
425	0.212
425	0.212
426	0.211
426	0.211
427	0.211
427	0.211
427	0.211
428	0.211
428	0.212
429	0.212
429	0.212
430	0.212
430	0.212
431	0.212
431	0.212
432	0.212
432	0.211
432	0.211
433	0.21
433	0.21
434	0.209
434	0.209
435	0.209
435	0.209
436	0.209
436	0.209
437	0.209
437	0.208
437	0.208
438	0.208
438	0.208
439	0.208
439	0.208
440	0.207
440	0.207
441	0.207
441	0.207
442	0.208
442	0.208
442	0.208
443	0.208
443	0.208
444	0.209
444	0.209
445	0.209
445	0.209
446	0.209
446	0.209
447	0.209
447	0.209
447	0.209
448	0.209
448	0.208
449	0.208
449	0.208
450	0.208
450	0.208
451	0.208
451	0.207
452	0.207
452	0.207
452	0.206
453	0.206
453	0.206
454	0.205
454	0.204
455	0.204
455	0.204
456	0.203
456	0.203
457	0.203
457	0.203
458	0.203
458	0.203
458	0.203
459	0.204
459	0.204
460	0.204
460	0.204
461	0.204
461	0.204
462	0.204
462	0.204
463	0.204
463	0.205
463	0.205
464	0.205
464	0.205
465	0.205
465	0.205
466	0.206
466	0.206
467	0.206
467	0.206
467	0.205
468	0.205
468	0.204
469	0.203
469	0.203
470	0.203
470	0.203
471	0.203
471	0.203
472	0.204
472	0.204
472	0.205
473	0.206
473	0.206
474	0.207
474	0.208
475	0.208
475	0.209
476	0.209
476	0.209
477	0.21
477	0.21
477	0.211
478	0.211
478	0.211
479	0.212
479	0.213
480	0.214
480	0.216
481	0.217
481	0.217
482	0.219
482	0.22
482	0.221
483	0.222
483	0.225
484	0.227
484	0.228
485	0.229
485	0.23
486	0.231
486	0.232
487	0.233
487	0.234
487	0.234
488	0.235
488	0.234
489	0.234
489	0.234
490	0.235
490	0.235
491	0.236
491	0.237
492	0.238
492	0.239
492	0.24
493	0.241
493	0.243
494	0.245
494	0.247
495	0.248
495	0.25
496	0.251
496	0.253
496	0.254
497	0.256
497	0.257
498	0.259
498	0.26
499	0.261
499	0.262
500	0.264
500	0.265
501	0.267
501	0.269
501	0.271
502	0.273
502	0.274
503	0.276
503	0.278
504	0.279
504	0.28
505	0.281
505	0.282
506	0.283
506	0.284
506	0.285
507	0.285
507	0.286
508	0.287
508	0.288
509	0.29
509	0.291
510	0.292
510	0.293
511	0.294
511	0.294
511	0.295
512	0.297
512	0.298
513	0.298
513	0.298
514	0.298
514	0.298
515	0.298
515	0.298
515	0.299
516	0.3
516	0.301
517	0.302
517	0.302
518	0.303
518	0.303
519	0.303
519	0.302
520	0.301
520	0.3
520	0.298
521	0.296
521	0.294
522	0.292
522	0.291
523	0.291
523	0.291
524	0.292
524	0.294
524	0.296
525	0.298
525	0.3
526	0.302
526	0.304
527	0.306
527	0.307
528	0.308
528	0.309
529	0.309
529	0.308
529	0.308
530	0.307
530	0.307
531	0.306
531	0.306
532	0.304
532	0.304
533	0.303
533	0.302
533	0.301
534	0.3
534	0.299
535	0.297
535	0.296
536	0.295
536	0.294
537	0.293
537	0.292
538	0.29
538	0.288
538	0.287
539	0.286
539	0.284
540	0.283
540	0.281
541	0.279
541	0.277
542	0.274
542	0.272
542	0.27
543	0.268
543	0.266
544	0.263
544	0.262
545	0.26
545	0.259
546	0.257
546	0.256
547	0.254
547	0.251
547	0.249
548	0.247
548	0.244
549	0.242
549	0.24
550	0.238
550	0.235
551	0.232
551	0.23
551	0.227
552	0.225
552	0.223
553	0.221
553	0.22
554	0.218
554	0.216
555	0.213
555	0.211
556	0.208
556	0.205
556	0.203
557	0.2
557	0.198
558	0.195
558	0.193
559	0.191
559	0.189
560	0.187
560	0.185
560	0.183
561	0.182
561	0.181
562	0.18
562	0.178
563	0.176
563	0.174
564	0.172
564	0.17
564	0.167
565	0.165
565	0.164
566	0.161
566	0.16
567	0.158
567	0.157
568	0.156
568	0.156
568	0.156
569	0.156
569	0.156
570	0.156
570	0.154
571	0.154
571	0.154
572	0.153
572	0.152
573	0.152
573	0.151
573	0.149
574	0.147
574	0.146
575	0.145
575	0.145
576	0.145
576	0.143
577	0.141
577	0.14
577	0.139
578	0.137
578	0.136
579	0.137
579	0.137
580	0.136
580	0.133
581	0.13
581	0.129
581	0.128
582	0.127
582	0.127
583	0.127
583	0.125
584	0.123
584	0.119
585	0.118
585	0.118
585	0.117
586	0.117
586	0.117
587	0.115
587	0.113
588	0.111
588	0.11
589	0.109
589	0.108
590	0.107
590	0.106
590	0.107
591	0.107
591	0.106
592	0.106
592	0.105
593	0.105
593	0.104
594	0.103
594	0.102
594	0.101
595	0.101
595	0.099
596	0.098
596	0.098
597	0.099
597	0.1
598	0.1
598	0.1
598	0.101
599	0.101
599	0.101
600	0.1
600	0.099
601	0.098
601	0.098
602	0.097
602	0.096
602	0.095
603	0.095
603	0.096
604	0.096
604	0.097
605	0.098
605	0.099
606	0.099
606	0.098
606	0.097
607	0.096
607	0.096
608	0.096
608	0.094
609	0.093
609	0.093
610	0.092
610	0.091
610	0.091
611	0.092
611	0.092
612	0.093
612	0.094
613	0.095
613	0.096
614	0.096
614	0.096
614	0.096
615	0.096
615	0.095
616	0.095
616	0.095
617	0.095
617	0.094
618	0.093
618	0.093
618	0.093
619	0.093
619	0.094
620	0.095
620	0.096
621	0.097
621	0.098
622	0.098
622	0.099
622	0.099
623	0.1
623	0.101
624	0.102
624	0.102
625	0.102
625	0.102
626	0.102
626	0.102
626	0.103
627	0.103
627	0.104
628	0.104
628	0.105
629	0.105
629	0.105
630	0.105
630	0.105
630	0.107
631	0.108
631	0.109
632	0.109
632	0.11
633	0.111
633	0.113
634	0.114
634	0.116
634	0.118
635	0.12
635	0.121
636	0.123
636	0.125
637	0.126
637	0.128
638	0.129
638	0.131
638	0.133
639	0.134
639	0.135
640	0.137
640	0.139
641	0.141
641	0.143
642	0.145
642	0.147
642	0.149
643	0.15
643	0.152
644	0.154
644	0.155
645	0.157
645	0.159
646	0.16
646	0.163
646	0.165
647	0.168
647	0.171
648	0.174
648	0.177
649	0.18
649	0.183
650	0.186
650	0.189
650	0.192
651	0.194
651	0.197
652	0.199
652	0.201
653	0.205
653	0.213
653	0.222
654	0.177
654	0.143
655	0.148
655	0.15
656	0.152
656	0.154
657	0.156
657	0.158
657	0.159
658	0.157
658	0.148
659	0.188
659	0.244
660	0.25
660	0.252
661	0.254
661	0.257
661	0.26
662	0.263
662	0.267
663	0.27
663	0.274
664	0.277
664	0.28
665	0.283
665	0.286
665	0.289
666	0.292
666	0.295
667	0.297
667	0.3
668	0.302
668	0.305
669	0.307
669	0.311
669	0.315
670	0.319
670	0.322
671	0.325
671	0.327
672	0.329
672	0.332
672	0.334
673	0.336
673	0.338
674	0.339
674	0.34
675	0.34
675	0.341
676	0.344
676	0.345
676	0.347
677	0.348
677	0.35
678	0.352
678	0.353
679	0.354
679	0.356
680	0.358
680	0.359
680	0.36
681	0.361
681	0.362
682	0.363
682	0.364
683	0.365
683	0.367
684	0.369
684	0.37
684	0.37
685	0.371
685	0.372
686	0.373
686	0.373
687	0.373
687	0.374
687	0.374
688	0.373
688	0.372
689	0.371
689	0.372
690	0.371
690	0.37
691	0.369
691	0.369
691	0.368
692	0.367
692	0.366
693	0.365
693	0.365
694	0.364
694	0.362
695	0.362
695	0.362
695	0.362
696	0.361
696	0.36
697	0.359
697	0.358
698	0.356
698	0.355
698	0.353
699	0.352
699	0.35
700	0.347
700	0.346
701	0.344
701	0.343
702	0.341
702	0.34
702	0.338
703	0.336
703	0.334
704	0.332
704	0.33
705	0.328
705	0.326
705	0.324
706	0.321
706	0.319
707	0.317
707	0.314
708	0.311
708	0.309
709	0.307
709	0.304
709	0.3
710	0.297
710	0.294
711	0.292
711	0.29
712	0.287
712	0.285
713	0.284
713	0.282
713	0.28
714	0.278
714	0.275
715	0.273
715	0.271
716	0.269
716	0.267
716	0.265
717	0.263
717	0.261
718	0.259
718	0.257
719	0.255
719	0.253
720	0.251
720	0.248
720	0.245
721	0.242
721	0.239
722	0.236
722	0.232
723	0.23
723	0.227
723	0.224
724	0.221
724	0.219
725	0.217
725	0.214
726	0.212
726	0.21
727	0.207
727	0.205
727	0.203
728	0.201
728	0.199
729	0.197
729	0.195
730	0.193
730	0.19
730	0.188
731	0.186
731	0.184
732	0.182
732	0.181
733	0.179
733	0.177
734	0.176
734	0.174
734	0.173
735	0.171
735	0.169
736	0.167
736	0.166
737	0.164
737	0.162
737	0.16
738	0.157
738	0.154
739	0.151
739	0.148
740	0.145
740	0.143
741	0.141
741	0.137
741	0.134
742	0.13
742	0.126
743	0.123
743	0.12
744	0.117
744	0.115
744	0.112
745	0.11
745	0.107
746	0.105
746	0.104
747	0.103
747	0.102
748	0.102
748	0.101
748	0.101
749	0.1
749	0.099
750	0.099
750	0.098
751	0.098
751	0.097
751	0.097
752	0.095
752	0.094
753	0.092
753	0.091
754	0.09
754	0.089
754	0.088
755	0.088
755	0.088
756	0.087
756	0.085
757	0.084
757	0.084
758	0.084
758	0.083
758	0.083
759	0.082
759	0.081
760	0.079
760	0.077
761	0.076
761	0.076
761	0.075
762	0.074
762	0.073
763	0.072
763	0.07
764	0.067
764	0.065
764	0.063
765	0.061
765	0.059
766	0.057
766	0.056
767	0.054
767	0.052
768	0.049
768	0.047
768	0.045
769	0.044
769	0.043
770	0.041
770	0.039
771	0.037
771	0.034
771	0.032
772	0.03
772	0.028
773	0.026
773	0.023
774	0.021
774	0.018
775	0.016
775	0.014
775	0.012
776	0.01
776	0.008
777	0.006
777	0.003
778	0.001
778	-0.002
778	-0.005
779	-0.007
779	-0.01
780	-0.013
780	-0.017
781	-0.021
781	-0.025
781	-0.03
782	-0.036
782	-0.042
783	-0.048
783	-0.054
784	-0.062
784	-0.07
784	-0.078
785	-0.086
785	-0.095
786	-0.102
786	-0.105
787	-0.106
787	-0.107
788	-0.111
788	-0.115
788	-0.118
789	-0.122
789	-0.123
790	-0.121
790	-0.121
791	-0.122
791	-0.124
791	-0.127
792	-0.123
792	-0.113
793	-0.107
793	-0.103
794	-0.101
794	-0.103
794	-0.106
795	-0.108
795	-0.108
796	-0.108
796	-0.11
797	-0.118
797	-0.128
797	-0.134
798	-0.139
798	-0.142
799	-0.143
799	-0.142
800	-0.142
800	-0.144
801	-0.148
801	-0.149
801	-0.149
802	-0.151
802	-0.152
803	-0.152
803	-0.152
804	-0.15
804	-0.145
804	-0.138
805	-0.133
805	-0.13
806	-0.127
806	-0.125
807	-0.124
807	-0.123
807	-0.123
808	-0.123
808	-0.124
809	-0.129
809	-0.135
810	-0.139
810	-0.143
810	-0.147
811	-0.15
811	-0.151
812	-0.148
812	-0.146
813	-0.146
813	-0.148
813	-0.149
814	-0.15
814	-0.15
815	-0.147
815	-0.144
816	-0.142
816	-0.142
817	-0.146
817	-0.149
817	-0.147
818	-0.144
818	-0.138
819	-0.131
819	-0.126
820	-0.122
820	-0.117
820	-0.112
821	-0.104
821	-0.095
822	-0.086
822	-0.077
823	-0.069
823	-0.063
823	-0.057
824	-0.051
824	-0.044
825	-0.037
825	-0.031
826	-0.025
826	-0.021
826	-0.017
827	-0.013
827	-0.01
828	-0.008
828	-0.006
829	-0.004
829	-0.003
829	-0.003
830	-0.003
830	-0.003
831	-0.001
831	-0.001
832	-0
832	0.001
832	0.002
833	0.003
833	0.004
834	0.005
834	0.006
835	0.007
835	0.007
835	0.008
836	0.009
836	0.009
837	0.01
837	0.01
838	0.01
838	0.011
839	0.011
839	0.011
839	0.01
840	0.011
840	0.011
841	0.011
841	0.011
842	0.012
842	0.013
842	0.013
843	0.014
843	0.015
844	0.016
844	0.016
845	0.017
845	0.017
845	0.018
846	0.018
846	0.018
847	0.018
847	0.018
848	0.019
848	0.02
848	0.02
849	0.021
849	0.022
850	0.023
850	0.023
851	0.024
851	0.024
851	0.024
852	0.024
852	0.023
853	0.022
853	0.021
854	0.02
854	0.019
854	0.018
855	0.017
855	0.016
856	0.016
856	0.016
857	0.016
857	0.016
857	0.017
858	0.018
858	0.019
859	0.02
859	0.022
860	0.024
860	0.026
860	0.027
861	0.029
861	0.03
862	0.03
862	0.031
863	0.031
863	0.031
863	0.031
864	0.03
864	0.03
865	0.029
865	0.029
866	0.028
866	0.028
866	0.027
867	0.027
867	0.026
868	0.026
868	0.025
869	0.025
869	0.024
869	0.022
870	0.02
870	0.019
871	0.018
871	0.017
872	0.016
872	0.015
872	0.014
873	0.014
873	0.014
874	0.014
874	0.014
875	0.015
875	0.016
875	0.016
876	0.017
876	0.018
877	0.019
877	0.019
878	0.02
878	0.021
878	0.021
879	0.022
879	0.022
880	0.022
880	0.022
881	0.022
881	0.022
881	0.022
882	0.022
882	0.022
883	0.022
883	0.022
884	0.023
884	0.023
884	0.022
885	0.022
885	0.022
886	0.022
886	0.023
887	0.023
887	0.023
887	0.023
888	0.023
888	0.023
889	0.024
889	0.025
890	0.026
890	0.027
890	0.027
891	0.028
891	0.028
892	0.029
892	0.029
893	0.029
893	0.028
893	0.028
894	0.028
894	0.027
895	0.026
895	0.024
895	0.023
896	0.021
896	0.02
897	0.019
897	0.018
898	0.016
898	0.015
898	0.014
899	0.013
899	0.013
900	0.013
900	0.012
901	0.012
901	0.012
901	0.012
902	0.012
902	0.012
903	0.012
903	0.012
904	0.012
904	0.011
904	0.011
905	0.011
905	0.011
906	0.011
906	0.012
907	0.012
907	0.013
907	0.013
908	0.014
908	0.015
909	0.017
909	0.018
910	0.019
910	0.02
910	0.021
911	0.021
911	0.022
912	0.022
912	0.022
913	0.022
913	0.021
913	0.021
914	0.02
914	0.019
915	0.018
915	0.017
916	0.017
916	0.016
916	0.016
917	0.016
917	0.016
918	0.015
918	0.015
918	0.015
919	0.015
919	0.015
920	0.014
920	0.014
921	0.013
921	0.013
921	0.012
922	0.012
922	0.012
923	0.012
923	0.013
924	0.013
924	0.014
924	0.014
925	0.014
925	0.015
926	0.015
926	0.016
927	0.016
927	0.016
927	0.015
928	0.015
928	0.015
929	0.014
929	0.014
930	0.014
930	0.014
930	0.013
931	0.013
931	0.012
932	0.012
932	0.012
933	0.012
933	0.011
933	0.011
934	0.01
934	0.01
935	0.009
935	0.009
935	0.009
936	0.009
936	0.009
937	0.009
937	0.009
938	0.009
938	0.009
938	0.01
939	0.01
939	0.011
940	0.012
940	0.012
941	0.013
941	0.014
941	0.015
942	0.015
942	0.016
943	0.016
943	0.016
944	0.017
944	0.017
944	0.017
945	0.018
945	0.019
946	0.019
946	0.019
946	0.019
947	0.02
947	0.021
948	0.021
948	0.021
949	0.021
949	0.022
949	0.023
950	0.023
950	0.024
951	0.025
951	0.025
952	0.026
952	0.027
952	0.028
953	0.028
953	0.029
954	0.029
954	0.028
955	0.028
955	0.028
955	0.027
956	0.027
956	0.026
957	0.025
957	0.024
957	0.022
958	0.021
958	0.021
959	0.02
959	0.018
960	0.017
960	0.016
960	0.014
961	0.013
961	0.011
962	0.01
962	0.009
963	0.007
963	0.006
963	0.005
964	0.005
964	0.004
965	0.004
965	0.004
966	0.004
966	0.004
966	0.004
967	0.004
967	0.004
968	0.004
968	0.004
968	0.004
969	0.004
969	0.004
970	0.004
970	0.004
971	0.004
971	0.005
971	0.005
972	0.006
972	0.007
973	0.007
973	0.008
974	0.009
974	0.01
974	0.011
975	0.011
975	0.012
976	0.013
976	0.013
976	0.013
977	0.013
977	0.012
978	0.012
978	0.011
979	0.011
979	0.01
979	0.009
980	0.008
980	0.007
981	0.006
981	0.005
982	0.004
982	0.004
982	0.004
983	0.003
983	0.003
984	0.003
984	0.003
984	0.004
985	0.004
985	0.005
986	0.006
986	0.006
987	0.007
987	0.007
987	0.008
988	0.009
988	0.009
989	0.009
989	0.01
990	0.01
990	0.01
990	0.01
991	0.011
991	0.011
992	0.012
992	0.012
992	0.012
993	0.013
993	0.013
994	0.014
994	0.014
995	0.014
995	0.014
995	0.014
996	0.014
996	0.013
997	0.012
997	0.012
997	0.011
998	0.011
998	0.01
999	0.01
999	0.009
1000	0.008
1000	0.008
1000	0.008
1001	0.007
1001	0.007
1002	0.007
1002	0.007
1003	0.006
1003	0.006
1003	0.005
1004	0.005
1004	0.005
1005	0.004
1005	0.004
1005	0.003
1006	0.002
1006	0.002
1007	0.001
1007	0
1008	0
1008	-0
1008	-0.001
1009	-0.001
1009	-0.001
1010	-0.001
1010	-0.001
1010	-0.001
1011	-0.001
1011	-0
1012	0
1012	0
1013	0.001
1013	0.001
1013	0.001
1014	0.001
1014	0.002
1015	0.002
1015	0.003
1016	0.003
1016	0.004
1016	0.004
1017	0.005
1017	0.006
1018	0.006
1018	0.007
1018	0.007
1019	0.008
1019	0.008
1020	0.008
1020	0.008
1021	0.008
1021	0.008
1021	0.007
1022	0.007
1022	0.006
1023	0.006
1023	0.006
1023	0.005
1024	0.004
1024	0.004
1025	0.003
1025	0.003
1026	0.003
1026	0.003
1026	0.003
1027	0.003
1027	0.003
1028	0.004
1028	0.004
1028	0.005
1029	0.005
1029	0.005
1030	0.006
1030	0.006
1031	0.006
1031	0.006
1031	0.006
1032	0.005
1032	0.005
1033	0.005
1033	0.004
1033	0.004
1034	0.003
1034	0.002
1035	0.001
1035	0
1036	-0
1036	-0.001
1036	-0.001
1037	-0.002
1037	-0.002
1038	-0.002
1038	-0.003
1039	-0.002
1039	-0.002
1039	-0.002
1040	-0.002
1040	-0.002
1041	-0.002
1041	-0.003
1041	-0.003
1042	-0.004
1042	-0.004
1043	-0.005
1043	-0.006
1044	-0.006
1044	-0.007
1044	-0.007
1045	-0.008
1045	-0.008
1046	-0.009
1046	-0.009
1046	-0.009
1047	-0.008
1047	-0.008
1048	-0.007
1048	-0.007
1049	-0.006
1049	-0.006
1049	-0.005
1050	-0.005
1050	-0.004
1051	-0.004
1051	-0.003
1051	-0.002
1052	-0.001
1052	-0
1053	0
1053	0.001
1053	0.002
1054	0.002
1054	0.004
1055	0.004
1055	0.005
1056	0.005
1056	0.004
1056	0.004
1057	0.003
1057	0.002
1058	0.002
1058	0.001
1058	0
1059	-0.001
1059	-0.001
1060	-0.002
1060	-0.003
1061	-0.003
1061	-0.003
1061	-0.003
1062	-0.004
1062	-0.004
1063	-0.005
1063	-0.005
1063	-0.005
1064	-0.005
1064	-0.005
1065	-0.005
1065	-0.005
1066	-0.004
1066	-0.003
1066	-0.002
1067	-0.001
1067	-0
1068	0.001
1068	0.001
1068	0.002
1069	0.003
1069	0.003
1070	0.004
1070	0.005
1071	0.005
1071	0.006
1071	0.007
1072	0.008
1072	0.009
1073	0.01
1073	0.011
1073	0.012
1074	0.014
1074	0.015
1075	0.015
1075	0.015
1076	0.015
1076	0.016
1076	0.016
1077	0.016
1077	0.016
1078	0.016
1078	0.017
1078	0.018
1079	0.019
1079	0.02
1080	0.02
1080	0.022
1080	0.022
1081	0.024
1081	0.025
1082	0.026
1082	0.026
1083	0.026
1083	0.027
1083	0.028
1084	0.029
1084	0.03
1085	0.031
1085	0.032
1085	0.033
1086	0.034
1086	0.035
1087	0.036
1087	0.038
1088	0.039
1088	0.039
1088	0.04
1089	0.042
1089	0.043
1090	0.044
1090	0.045
1090	0.046
1091	0.047
1091	0.049
1092	0.05
1092	0.053
1092	0.055
1093	0.056
1093	0.059
1094	0.062
1094	0.064
1095	0.066
1095	0.068
1095	0.073
1096	0.076
1096	0.079
1097	0.083
1097	0.086
1097	0.091
1098	0.095
1098	0.099
1099	0.105
1099	0.11
1100	0.117
1100	0.122
1100	0.13
1101	0.137
1101	0.145
1102	0.155
1102	0.166
1102	0.177
1103	0.191
1103	0.206
1104	0.224
1104	0.241
1104	0.262
1105	0.282
1105	0.306
1106	0.328
1106	0.358
1107	0.391
1107	0.444
1107	0.505
1108	0.75
1108	1.89
1109	-0
1109	-0
1109	-0
1110	-0
1110	-0
1111	-0
1111	-0
