Data from 15c-2-2a_Absorbance__1943__03744.txt Node

Date: Wed Jan 24 14:08:38 CET 2024
User: Marek
Spectrometer: MAYP115816
Trigger mode: 0
Integration Time (sec): 2.000000E-1
Scans to average: 10
Electric dark correction enabled: true
Nonlinearity correction enabled: true
Boxcar width: 5
XAxis mode: Wavelengths
Number of Pixels in Spectrum: 2068
>>>>>Begin Spectral Data<<<<<
199	-1.816
199	-1.656
200	-1.497
200	-1.372
201	-1.299
201	-1.246
202	-1.174
202	-1.117
203	-1.068
203	-1.025
204	-0.996
204	-0.971
205	-0.948
205	-0.939
205	-0.937
206	-0.934
206	-0.932
207	-0.928
207	-0.925
208	-0.923
208	-0.922
209	-0.92
209	-0.919
210	-0.919
210	-0.916
211	-0.915
211	-0.914
212	-0.911
212	-0.909
213	-0.906
213	-0.904
213	-0.902
214	-0.9
214	-0.897
215	-0.896
215	-0.892
216	-0.891
216	-0.889
217	-0.887
217	-0.887
218	-0.888
218	-0.887
219	-0.885
219	-0.883
220	-0.88
220	-0.878
221	-0.878
221	-0.875
221	-0.869
222	-0.864
222	-0.858
223	-0.85
223	-0.844
224	-0.835
224	-0.827
225	-0.818
225	-0.808
226	-0.798
226	-0.786
227	-0.774
227	-0.762
228	-0.743
228	-0.725
229	-0.704
229	-0.681
229	-0.654
230	-0.624
230	-0.59
231	-0.554
231	-0.515
232	-0.474
232	-0.432
233	-0.389
233	-0.343
234	-0.298
234	-0.252
235	-0.207
235	-0.164
236	-0.122
236	-0.081
236	-0.042
237	-0.005
237	0.031
238	0.063
238	0.093
239	0.121
239	0.148
240	0.171
240	0.193
241	0.213
241	0.231
242	0.248
242	0.263
243	0.277
243	0.289
243	0.301
244	0.311
244	0.32
245	0.329
245	0.337
246	0.344
246	0.351
247	0.357
247	0.363
248	0.369
248	0.374
249	0.378
249	0.383
250	0.386
250	0.391
250	0.395
251	0.399
251	0.402
252	0.405
252	0.408
253	0.411
253	0.413
254	0.416
254	0.418
255	0.421
255	0.423
256	0.425
256	0.426
257	0.427
257	0.428
258	0.429
258	0.43
258	0.432
259	0.432
259	0.433
260	0.433
260	0.433
261	0.434
261	0.434
262	0.434
262	0.434
263	0.434
263	0.434
264	0.434
264	0.433
265	0.433
265	0.432
265	0.431
266	0.431
266	0.43
267	0.429
267	0.428
268	0.426
268	0.425
269	0.424
269	0.422
270	0.42
270	0.418
271	0.417
271	0.415
272	0.413
272	0.411
272	0.41
273	0.408
273	0.406
274	0.405
274	0.403
275	0.401
275	0.4
276	0.398
276	0.396
277	0.393
277	0.391
278	0.389
278	0.386
278	0.383
279	0.381
279	0.378
280	0.376
280	0.374
281	0.372
281	0.37
282	0.369
282	0.367
283	0.365
283	0.364
284	0.363
284	0.361
285	0.36
285	0.358
285	0.356
286	0.354
286	0.353
287	0.351
287	0.349
288	0.348
288	0.346
289	0.344
289	0.343
290	0.341
290	0.34
291	0.339
291	0.338
292	0.336
292	0.335
292	0.334
293	0.332
293	0.331
294	0.33
294	0.329
295	0.328
295	0.327
296	0.325
296	0.324
297	0.323
297	0.322
298	0.321
298	0.32
298	0.319
299	0.319
299	0.318
300	0.317
300	0.316
301	0.315
301	0.314
302	0.313
302	0.313
303	0.312
303	0.311
304	0.31
304	0.309
305	0.309
305	0.308
305	0.307
306	0.306
306	0.306
307	0.305
307	0.304
308	0.303
308	0.302
309	0.301
309	0.301
310	0.3
310	0.299
311	0.298
311	0.297
311	0.297
312	0.296
312	0.295
313	0.294
313	0.294
314	0.293
314	0.292
315	0.291
315	0.29
316	0.289
316	0.289
317	0.288
317	0.287
318	0.286
318	0.286
318	0.285
319	0.284
319	0.283
320	0.282
320	0.281
321	0.281
321	0.28
322	0.279
322	0.278
323	0.278
323	0.277
324	0.276
324	0.275
324	0.275
325	0.274
325	0.273
326	0.273
326	0.272
327	0.271
327	0.27
328	0.27
328	0.269
329	0.268
329	0.267
330	0.267
330	0.266
330	0.265
331	0.265
331	0.264
332	0.263
332	0.262
333	0.262
333	0.261
334	0.26
334	0.26
335	0.259
335	0.258
336	0.258
336	0.257
336	0.256
337	0.256
337	0.256
338	0.255
338	0.254
339	0.254
339	0.254
340	0.253
340	0.253
341	0.252
341	0.251
342	0.251
342	0.25
342	0.25
343	0.249
343	0.248
344	0.248
344	0.247
345	0.247
345	0.247
346	0.246
346	0.246
347	0.245
347	0.245
348	0.245
348	0.244
348	0.244
349	0.244
349	0.243
350	0.243
350	0.243
351	0.242
351	0.242
352	0.241
352	0.24
353	0.24
353	0.239
354	0.238
354	0.238
354	0.237
355	0.236
355	0.236
356	0.235
356	0.234
357	0.234
357	0.233
358	0.233
358	0.233
359	0.233
359	0.233
360	0.234
360	0.234
360	0.234
361	0.235
361	0.235
362	0.236
362	0.236
363	0.236
363	0.236
364	0.236
364	0.235
365	0.235
365	0.235
366	0.234
366	0.234
366	0.234
367	0.233
367	0.233
368	0.233
368	0.232
369	0.232
369	0.232
370	0.231
370	0.231
371	0.231
371	0.231
372	0.231
372	0.23
372	0.23
373	0.23
373	0.23
374	0.23
374	0.23
375	0.229
375	0.229
376	0.229
376	0.229
377	0.229
377	0.229
378	0.229
378	0.228
378	0.228
379	0.228
379	0.228
380	0.229
380	0.228
381	0.228
381	0.228
382	0.228
382	0.228
383	0.227
383	0.227
383	0.227
384	0.226
384	0.226
385	0.226
385	0.226
386	0.226
386	0.226
387	0.225
387	0.225
388	0.225
388	0.225
389	0.224
389	0.224
389	0.224
390	0.224
390	0.224
391	0.224
391	0.224
392	0.224
392	0.224
393	0.224
393	0.224
394	0.224
394	0.224
394	0.224
395	0.223
395	0.223
396	0.222
396	0.222
397	0.222
397	0.222
398	0.222
398	0.222
399	0.221
399	0.221
400	0.221
400	0.22
400	0.22
401	0.22
401	0.219
402	0.219
402	0.218
403	0.218
403	0.218
404	0.218
404	0.218
405	0.217
405	0.217
405	0.217
406	0.216
406	0.216
407	0.216
407	0.216
408	0.216
408	0.215
409	0.215
409	0.215
410	0.215
410	0.215
411	0.215
411	0.215
411	0.214
412	0.214
412	0.214
413	0.213
413	0.213
414	0.213
414	0.213
415	0.213
415	0.212
416	0.212
416	0.211
416	0.211
417	0.21
417	0.21
418	0.21
418	0.21
419	0.21
419	0.21
420	0.211
420	0.211
421	0.211
421	0.212
421	0.212
422	0.212
422	0.212
423	0.212
423	0.211
424	0.211
424	0.21
425	0.21
425	0.209
426	0.209
426	0.208
427	0.208
427	0.208
427	0.208
428	0.209
428	0.209
429	0.209
429	0.209
430	0.21
430	0.21
431	0.209
431	0.209
432	0.209
432	0.208
432	0.208
433	0.208
433	0.207
434	0.206
434	0.206
435	0.206
435	0.206
436	0.206
436	0.206
437	0.206
437	0.206
437	0.206
438	0.206
438	0.205
439	0.205
439	0.205
440	0.205
440	0.205
441	0.205
441	0.205
442	0.205
442	0.205
442	0.205
443	0.206
443	0.206
444	0.206
444	0.206
445	0.206
445	0.206
446	0.206
446	0.206
447	0.206
447	0.206
447	0.205
448	0.205
448	0.205
449	0.205
449	0.205
450	0.205
450	0.205
451	0.205
451	0.204
452	0.204
452	0.204
452	0.204
453	0.203
453	0.203
454	0.202
454	0.202
455	0.201
455	0.201
456	0.201
456	0.2
457	0.2
457	0.2
458	0.2
458	0.2
458	0.2
459	0.201
459	0.201
460	0.201
460	0.201
461	0.201
461	0.201
462	0.201
462	0.202
463	0.202
463	0.202
463	0.203
464	0.203
464	0.203
465	0.203
465	0.203
466	0.203
466	0.203
467	0.203
467	0.203
467	0.203
468	0.202
468	0.201
469	0.2
469	0.2
470	0.2
470	0.2
471	0.2
471	0.201
472	0.201
472	0.201
472	0.202
473	0.203
473	0.204
474	0.204
474	0.205
475	0.206
475	0.206
476	0.206
476	0.207
477	0.207
477	0.207
477	0.208
478	0.208
478	0.209
479	0.21
479	0.211
480	0.212
480	0.213
481	0.214
481	0.215
482	0.216
482	0.217
482	0.218
483	0.22
483	0.222
484	0.224
484	0.225
485	0.226
485	0.228
486	0.228
486	0.229
487	0.23
487	0.231
487	0.231
488	0.231
488	0.231
489	0.231
489	0.231
490	0.231
490	0.232
491	0.232
491	0.233
492	0.234
492	0.236
492	0.237
493	0.238
493	0.24
494	0.242
494	0.244
495	0.245
495	0.247
496	0.248
496	0.25
496	0.251
497	0.253
497	0.254
498	0.255
498	0.256
499	0.257
499	0.259
500	0.26
500	0.262
501	0.264
501	0.266
501	0.267
502	0.269
502	0.271
503	0.273
503	0.274
504	0.276
504	0.276
505	0.277
505	0.278
506	0.279
506	0.28
506	0.281
507	0.281
507	0.282
508	0.283
508	0.284
509	0.286
509	0.287
510	0.289
510	0.29
511	0.29
511	0.291
511	0.292
512	0.293
512	0.294
513	0.295
513	0.295
514	0.294
514	0.295
515	0.295
515	0.295
515	0.296
516	0.296
516	0.297
517	0.298
517	0.299
518	0.299
518	0.299
519	0.299
519	0.298
520	0.297
520	0.296
520	0.294
521	0.292
521	0.291
522	0.289
522	0.287
523	0.287
523	0.287
524	0.287
524	0.289
524	0.291
525	0.292
525	0.294
526	0.297
526	0.299
527	0.301
527	0.302
528	0.303
528	0.304
529	0.305
529	0.305
529	0.304
530	0.304
530	0.303
531	0.303
531	0.302
532	0.301
532	0.3
533	0.299
533	0.298
533	0.298
534	0.296
534	0.295
535	0.294
535	0.293
536	0.292
536	0.29
537	0.289
537	0.288
538	0.287
538	0.285
538	0.283
539	0.282
539	0.28
540	0.279
540	0.277
541	0.275
541	0.273
542	0.271
542	0.269
542	0.266
543	0.264
543	0.262
544	0.26
544	0.259
545	0.257
545	0.256
546	0.255
546	0.253
547	0.251
547	0.248
547	0.246
548	0.244
548	0.241
549	0.239
549	0.236
550	0.234
550	0.232
551	0.229
551	0.227
551	0.224
552	0.222
552	0.22
553	0.218
553	0.217
554	0.215
554	0.213
555	0.211
555	0.208
556	0.205
556	0.202
556	0.2
557	0.198
557	0.195
558	0.193
558	0.19
559	0.188
559	0.186
560	0.184
560	0.182
560	0.181
561	0.18
561	0.179
562	0.177
562	0.176
563	0.174
563	0.172
564	0.169
564	0.167
564	0.165
565	0.163
565	0.161
566	0.159
566	0.157
567	0.155
567	0.154
568	0.154
568	0.153
568	0.153
569	0.153
569	0.154
570	0.153
570	0.153
571	0.152
571	0.152
572	0.151
572	0.151
573	0.15
573	0.149
573	0.147
574	0.146
574	0.145
575	0.144
575	0.143
576	0.143
576	0.141
577	0.14
577	0.138
577	0.137
578	0.136
578	0.135
579	0.135
579	0.135
580	0.134
580	0.131
581	0.129
581	0.127
581	0.126
582	0.126
582	0.125
583	0.125
583	0.124
584	0.121
584	0.118
585	0.117
585	0.116
585	0.116
586	0.116
586	0.115
587	0.114
587	0.112
588	0.11
588	0.108
589	0.107
589	0.107
590	0.106
590	0.105
590	0.105
591	0.106
591	0.105
592	0.104
592	0.103
593	0.103
593	0.103
594	0.102
594	0.101
594	0.1
595	0.099
595	0.098
596	0.096
596	0.097
597	0.098
597	0.099
598	0.099
598	0.099
598	0.1
599	0.1
599	0.099
600	0.099
600	0.098
601	0.097
601	0.097
602	0.095
602	0.095
602	0.094
603	0.094
603	0.095
604	0.095
604	0.096
605	0.097
605	0.098
606	0.098
606	0.097
606	0.096
607	0.096
607	0.095
608	0.095
608	0.093
609	0.093
609	0.092
610	0.091
610	0.09
610	0.09
611	0.09
611	0.091
612	0.092
612	0.093
613	0.094
613	0.095
614	0.095
614	0.095
614	0.095
615	0.095
615	0.094
616	0.094
616	0.094
617	0.094
617	0.093
618	0.092
618	0.092
618	0.092
619	0.092
619	0.093
620	0.094
620	0.095
621	0.096
621	0.097
622	0.097
622	0.098
622	0.099
623	0.099
623	0.1
624	0.101
624	0.101
625	0.101
625	0.101
626	0.101
626	0.101
626	0.102
627	0.102
627	0.103
628	0.103
628	0.104
629	0.104
629	0.104
630	0.104
630	0.104
630	0.105
631	0.106
631	0.107
632	0.107
632	0.108
633	0.11
633	0.111
634	0.113
634	0.114
634	0.117
635	0.119
635	0.12
636	0.122
636	0.124
637	0.125
637	0.126
638	0.128
638	0.13
638	0.131
639	0.132
639	0.134
640	0.135
640	0.137
641	0.139
641	0.141
642	0.143
642	0.145
642	0.147
643	0.149
643	0.15
644	0.152
644	0.153
645	0.155
645	0.156
646	0.158
646	0.161
646	0.163
647	0.166
647	0.169
648	0.172
648	0.175
649	0.178
649	0.181
650	0.184
650	0.187
650	0.189
651	0.192
651	0.194
652	0.197
652	0.199
653	0.202
653	0.21
653	0.219
654	0.175
654	0.142
655	0.146
655	0.149
656	0.151
656	0.153
657	0.155
657	0.156
657	0.157
658	0.155
658	0.147
659	0.186
659	0.241
660	0.247
660	0.249
661	0.251
661	0.254
661	0.257
662	0.261
662	0.264
663	0.268
663	0.271
664	0.275
664	0.277
665	0.28
665	0.283
665	0.286
666	0.289
666	0.291
667	0.293
667	0.296
668	0.298
668	0.301
669	0.304
669	0.307
669	0.311
670	0.315
670	0.318
671	0.321
671	0.323
672	0.326
672	0.328
672	0.33
673	0.332
673	0.334
674	0.335
674	0.336
675	0.336
675	0.338
676	0.34
676	0.341
676	0.342
677	0.344
677	0.346
678	0.348
678	0.349
679	0.35
679	0.352
680	0.354
680	0.355
680	0.356
681	0.357
681	0.358
682	0.359
682	0.36
683	0.361
683	0.363
684	0.365
684	0.365
684	0.366
685	0.366
685	0.368
686	0.368
686	0.369
687	0.369
687	0.369
687	0.369
688	0.368
688	0.367
689	0.367
689	0.367
690	0.366
690	0.365
691	0.364
691	0.364
691	0.363
692	0.362
692	0.361
693	0.361
693	0.36
694	0.36
694	0.358
695	0.358
695	0.358
695	0.358
696	0.356
696	0.355
697	0.354
697	0.353
698	0.352
698	0.35
698	0.348
699	0.347
699	0.345
700	0.343
700	0.341
701	0.34
701	0.339
702	0.337
702	0.336
702	0.334
703	0.332
703	0.33
704	0.327
704	0.326
705	0.324
705	0.322
705	0.32
706	0.317
706	0.315
707	0.313
707	0.31
708	0.307
708	0.305
709	0.303
709	0.3
709	0.297
710	0.293
710	0.291
711	0.288
711	0.286
712	0.284
712	0.281
713	0.28
713	0.278
713	0.276
714	0.274
714	0.272
715	0.27
715	0.268
716	0.265
716	0.264
716	0.262
717	0.26
717	0.258
718	0.255
718	0.253
719	0.251
719	0.249
720	0.247
720	0.245
720	0.242
721	0.239
721	0.236
722	0.233
722	0.229
723	0.227
723	0.224
723	0.222
724	0.219
724	0.217
725	0.214
725	0.212
726	0.21
726	0.208
727	0.205
727	0.203
727	0.201
728	0.199
728	0.196
729	0.195
729	0.193
730	0.19
730	0.188
730	0.186
731	0.183
731	0.181
732	0.18
732	0.178
733	0.176
733	0.175
734	0.173
734	0.172
734	0.17
735	0.169
735	0.167
736	0.165
736	0.163
737	0.162
737	0.16
737	0.158
738	0.155
738	0.152
739	0.149
739	0.146
740	0.143
740	0.141
741	0.139
741	0.136
741	0.132
742	0.128
742	0.124
743	0.121
743	0.118
744	0.115
744	0.113
744	0.11
745	0.108
745	0.105
746	0.103
746	0.102
747	0.101
747	0.1
748	0.1
748	0.1
748	0.099
749	0.098
749	0.098
750	0.097
750	0.097
751	0.096
751	0.096
751	0.095
752	0.094
752	0.092
753	0.091
753	0.089
754	0.088
754	0.087
754	0.087
755	0.086
755	0.086
756	0.085
756	0.084
757	0.083
757	0.083
758	0.083
758	0.082
758	0.082
759	0.081
759	0.079
760	0.078
760	0.076
761	0.075
761	0.075
761	0.074
762	0.072
762	0.071
763	0.07
763	0.068
764	0.066
764	0.064
764	0.062
765	0.06
765	0.058
766	0.056
766	0.054
767	0.053
767	0.05
768	0.047
768	0.046
768	0.044
769	0.043
769	0.042
770	0.04
770	0.039
771	0.036
771	0.034
771	0.031
772	0.029
772	0.027
773	0.025
773	0.023
774	0.02
774	0.018
775	0.016
775	0.014
775	0.011
776	0.009
776	0.007
777	0.005
777	0.003
778	-0
778	-0.003
778	-0.006
779	-0.008
779	-0.011
780	-0.014
780	-0.018
781	-0.022
781	-0.027
781	-0.032
782	-0.037
782	-0.044
783	-0.049
783	-0.056
784	-0.063
784	-0.072
784	-0.08
785	-0.088
785	-0.097
786	-0.103
786	-0.106
787	-0.107
787	-0.108
788	-0.111
788	-0.115
788	-0.119
789	-0.122
789	-0.123
790	-0.121
790	-0.121
791	-0.122
791	-0.125
791	-0.128
792	-0.123
792	-0.113
793	-0.107
793	-0.103
794	-0.102
794	-0.103
794	-0.106
795	-0.108
795	-0.108
796	-0.108
796	-0.11
797	-0.118
797	-0.128
797	-0.134
798	-0.139
798	-0.142
799	-0.143
799	-0.142
800	-0.142
800	-0.144
801	-0.148
801	-0.149
801	-0.149
802	-0.151
802	-0.152
803	-0.152
803	-0.152
804	-0.151
804	-0.145
804	-0.138
805	-0.133
805	-0.13
806	-0.127
806	-0.125
807	-0.124
807	-0.123
807	-0.123
808	-0.123
808	-0.124
809	-0.129
809	-0.135
810	-0.139
810	-0.143
810	-0.147
811	-0.15
811	-0.152
812	-0.148
812	-0.146
813	-0.147
813	-0.148
813	-0.149
814	-0.15
814	-0.15
815	-0.148
815	-0.145
816	-0.142
816	-0.142
817	-0.146
817	-0.149
817	-0.147
818	-0.143
818	-0.137
819	-0.131
819	-0.125
820	-0.121
820	-0.116
820	-0.111
821	-0.103
821	-0.094
822	-0.085
822	-0.076
823	-0.068
823	-0.062
823	-0.056
824	-0.05
824	-0.044
825	-0.037
825	-0.03
826	-0.025
826	-0.021
826	-0.017
827	-0.013
827	-0.01
828	-0.008
828	-0.006
829	-0.004
829	-0.003
829	-0.003
830	-0.003
830	-0.003
831	-0.002
831	-0.001
832	-0
832	0
832	0.001
833	0.002
833	0.003
834	0.004
834	0.005
835	0.006
835	0.007
835	0.008
836	0.008
836	0.009
837	0.009
837	0.01
838	0.01
838	0.01
839	0.01
839	0.01
839	0.01
840	0.01
840	0.01
841	0.01
841	0.01
842	0.011
842	0.012
842	0.012
843	0.013
843	0.014
844	0.015
844	0.016
845	0.016
845	0.017
845	0.017
846	0.017
846	0.017
847	0.017
847	0.018
848	0.018
848	0.019
848	0.02
849	0.021
849	0.021
850	0.022
850	0.022
851	0.023
851	0.024
851	0.024
852	0.023
852	0.023
853	0.022
853	0.021
854	0.02
854	0.019
854	0.018
855	0.017
855	0.016
856	0.015
856	0.015
857	0.015
857	0.015
857	0.016
858	0.017
858	0.018
859	0.02
859	0.021
860	0.023
860	0.025
860	0.026
861	0.028
861	0.029
862	0.029
862	0.03
863	0.03
863	0.03
863	0.03
864	0.029
864	0.029
865	0.028
865	0.028
866	0.027
866	0.027
866	0.026
867	0.026
867	0.026
868	0.025
868	0.025
869	0.024
869	0.023
869	0.022
870	0.02
870	0.019
871	0.018
871	0.017
872	0.016
872	0.015
872	0.014
873	0.014
873	0.013
874	0.013
874	0.014
875	0.015
875	0.015
875	0.016
876	0.016
876	0.017
877	0.018
877	0.018
878	0.019
878	0.02
878	0.02
879	0.021
879	0.021
880	0.021
880	0.021
881	0.022
881	0.022
881	0.022
882	0.022
882	0.022
883	0.022
883	0.023
884	0.023
884	0.023
884	0.023
885	0.022
885	0.022
886	0.022
886	0.022
887	0.022
887	0.022
887	0.022
888	0.022
888	0.023
889	0.023
889	0.024
890	0.025
890	0.026
890	0.027
891	0.027
891	0.028
892	0.028
892	0.028
893	0.028
893	0.028
893	0.028
894	0.027
894	0.027
895	0.025
895	0.024
895	0.023
896	0.021
896	0.02
897	0.019
897	0.018
898	0.016
898	0.015
898	0.014
899	0.013
899	0.012
900	0.012
900	0.012
901	0.012
901	0.011
901	0.011
902	0.011
902	0.011
903	0.011
903	0.011
904	0.01
904	0.01
904	0.01
905	0.01
905	0.01
906	0.01
906	0.01
907	0.011
907	0.012
907	0.012
908	0.013
908	0.014
909	0.015
909	0.017
910	0.018
910	0.019
910	0.02
911	0.02
911	0.021
912	0.021
912	0.022
913	0.021
913	0.021
913	0.02
914	0.02
914	0.019
915	0.018
915	0.017
916	0.017
916	0.016
916	0.016
917	0.016
917	0.016
918	0.016
918	0.016
918	0.016
919	0.015
919	0.015
920	0.015
920	0.015
921	0.014
921	0.013
921	0.013
922	0.013
922	0.013
923	0.013
923	0.013
924	0.013
924	0.014
924	0.014
925	0.015
925	0.015
926	0.015
926	0.016
927	0.016
927	0.015
927	0.015
928	0.015
928	0.015
929	0.014
929	0.014
930	0.014
930	0.014
930	0.013
931	0.013
931	0.012
932	0.012
932	0.012
933	0.011
933	0.011
933	0.01
934	0.01
934	0.009
935	0.009
935	0.008
935	0.008
936	0.008
936	0.008
937	0.008
937	0.009
938	0.009
938	0.009
938	0.009
939	0.01
939	0.011
940	0.011
940	0.012
941	0.012
941	0.013
941	0.014
942	0.014
942	0.015
943	0.015
943	0.015
944	0.015
944	0.016
944	0.017
945	0.017
945	0.018
946	0.019
946	0.019
946	0.019
947	0.02
947	0.02
948	0.021
948	0.021
949	0.021
949	0.021
949	0.022
950	0.023
950	0.023
951	0.024
951	0.025
952	0.025
952	0.026
952	0.027
953	0.028
953	0.028
954	0.028
954	0.028
955	0.028
955	0.028
955	0.027
956	0.027
956	0.026
957	0.025
957	0.024
957	0.022
958	0.021
958	0.021
959	0.02
959	0.018
960	0.017
960	0.016
960	0.014
961	0.013
961	0.011
962	0.01
962	0.009
963	0.008
963	0.006
963	0.005
964	0.005
964	0.004
965	0.004
965	0.004
966	0.004
966	0.004
966	0.004
967	0.004
967	0.004
968	0.004
968	0.004
968	0.004
969	0.004
969	0.004
970	0.004
970	0.004
971	0.004
971	0.005
971	0.005
972	0.006
972	0.006
973	0.007
973	0.008
974	0.009
974	0.01
974	0.01
975	0.011
975	0.012
976	0.012
976	0.013
976	0.013
977	0.013
977	0.012
978	0.012
978	0.011
979	0.01
979	0.01
979	0.009
980	0.008
980	0.007
981	0.006
981	0.005
982	0.004
982	0.004
982	0.003
983	0.003
983	0.003
984	0.003
984	0.003
984	0.003
985	0.004
985	0.005
986	0.005
986	0.006
987	0.006
987	0.007
987	0.008
988	0.008
988	0.009
989	0.009
989	0.009
990	0.009
990	0.009
990	0.01
991	0.01
991	0.01
992	0.011
992	0.011
992	0.011
993	0.012
993	0.012
994	0.012
994	0.013
995	0.013
995	0.013
995	0.013
996	0.013
996	0.012
997	0.011
997	0.011
997	0.01
998	0.01
998	0.009
999	0.009
999	0.008
1000	0.008
1000	0.007
1000	0.007
1001	0.007
1001	0.007
1002	0.006
1002	0.006
1003	0.006
1003	0.006
1003	0.005
1004	0.005
1004	0.004
1005	0.004
1005	0.003
1005	0.003
1006	0.002
1006	0.002
1007	0.001
1007	0
1008	-0
1008	-0
1008	-0.001
1009	-0.001
1009	-0.001
1010	-0.001
1010	-0.001
1010	-0.001
1011	-0.001
1011	-0
1012	-0
1012	0
1013	0
1013	0.001
1013	0.001
1014	0.001
1014	0.002
1015	0.002
1015	0.003
1016	0.003
1016	0.004
1016	0.004
1017	0.004
1017	0.005
1018	0.006
1018	0.006
1018	0.007
1019	0.007
1019	0.007
1020	0.007
1020	0.007
1021	0.007
1021	0.007
1021	0.007
1022	0.007
1022	0.006
1023	0.006
1023	0.005
1023	0.005
1024	0.004
1024	0.003
1025	0.003
1025	0.002
1026	0.002
1026	0.002
1026	0.002
1027	0.002
1027	0.002
1028	0.003
1028	0.003
1028	0.004
1029	0.004
1029	0.005
1030	0.005
1030	0.005
1031	0.005
1031	0.005
1031	0.005
1032	0.005
1032	0.005
1033	0.004
1033	0.003
1033	0.003
1034	0.002
1034	0.001
1035	-0
1035	-0.001
1036	-0.001
1036	-0.002
1036	-0.003
1037	-0.003
1037	-0.003
1038	-0.004
1038	-0.004
1039	-0.003
1039	-0.003
1039	-0.003
1040	-0.003
1040	-0.003
1041	-0.003
1041	-0.004
1041	-0.004
1042	-0.005
1042	-0.005
1043	-0.006
1043	-0.007
1044	-0.008
1044	-0.008
1044	-0.008
1045	-0.009
1045	-0.01
1046	-0.01
1046	-0.01
1046	-0.01
1047	-0.01
1047	-0.009
1048	-0.008
1048	-0.007
1049	-0.007
1049	-0.007
1049	-0.006
1050	-0.006
1050	-0.005
1051	-0.004
1051	-0.004
1051	-0.003
1052	-0.002
1052	-0.002
1053	-0.001
1053	-0
1053	0
1054	0.001
1054	0.002
1055	0.003
1055	0.003
1056	0.003
1056	0.003
1056	0.002
1057	0.001
1057	0.001
1058	0
1058	-0.001
1058	-0.001
1059	-0.002
1059	-0.003
1060	-0.004
1060	-0.004
1061	-0.005
1061	-0.005
1061	-0.005
1062	-0.006
1062	-0.006
1063	-0.006
1063	-0.007
1063	-0.007
1064	-0.007
1064	-0.007
1065	-0.006
1065	-0.006
1066	-0.006
1066	-0.005
1066	-0.004
1067	-0.003
1067	-0.002
1068	-0.001
1068	-0.001
1068	0
1069	0.001
1069	0.001
1070	0.002
1070	0.003
1071	0.004
1071	0.005
1071	0.006
1072	0.007
1072	0.008
1073	0.009
1073	0.011
1073	0.012
1074	0.013
1074	0.014
1075	0.015
1075	0.015
1076	0.015
1076	0.016
1076	0.015
1077	0.015
1077	0.016
1078	0.016
1078	0.017
1078	0.017
1079	0.018
1079	0.019
1080	0.02
1080	0.02
1080	0.021
1081	0.023
1081	0.024
1082	0.024
1082	0.025
1083	0.025
1083	0.026
1083	0.027
1084	0.027
1084	0.028
1085	0.03
1085	0.031
1085	0.032
1086	0.033
1086	0.033
1087	0.035
1087	0.036
1088	0.036
1088	0.037
1088	0.039
1089	0.04
1089	0.041
1090	0.042
1090	0.043
1090	0.044
1091	0.045
1091	0.047
1092	0.049
1092	0.051
1092	0.053
1093	0.054
1093	0.056
1094	0.058
1094	0.06
1095	0.061
1095	0.064
1095	0.069
1096	0.071
1096	0.074
1097	0.078
1097	0.082
1097	0.087
1098	0.09
1098	0.095
1099	0.1
1099	0.106
1100	0.112
1100	0.118
1100	0.124
1101	0.132
1101	0.139
1102	0.149
1102	0.16
1102	0.171
1103	0.184
1103	0.198
1104	0.214
1104	0.232
1104	0.25
1105	0.271
1105	0.293
1106	0.314
1106	0.341
1107	0.37
1107	0.415
1107	0.472
1108	0.688
1108	1.364
1109	-0
1109	-0
1109	-0
1110	-0
1110	-0
1111	-0
1111	-0
