Data from 15c-2-2a_Absorbance__1156__02957.txt Node

Date: Wed Jan 24 13:42:25 CET 2024
User: Marek
Spectrometer: MAYP115816
Trigger mode: 0
Integration Time (sec): 2.000000E-1
Scans to average: 10
Electric dark correction enabled: true
Nonlinearity correction enabled: true
Boxcar width: 5
XAxis mode: Wavelengths
Number of Pixels in Spectrum: 2068
>>>>>Begin Spectral Data<<<<<
199	-1.763
199	-1.604
200	-1.445
200	-1.322
201	-1.249
201	-1.197
202	-1.127
202	-1.071
203	-1.023
203	-0.982
204	-0.954
204	-0.929
205	-0.906
205	-0.897
205	-0.896
206	-0.893
206	-0.891
207	-0.887
207	-0.884
208	-0.883
208	-0.882
209	-0.88
209	-0.88
210	-0.88
210	-0.878
211	-0.876
211	-0.876
212	-0.874
212	-0.873
213	-0.87
213	-0.868
213	-0.866
214	-0.863
214	-0.86
215	-0.859
215	-0.855
216	-0.853
216	-0.851
217	-0.85
217	-0.849
218	-0.85
218	-0.848
219	-0.846
219	-0.844
220	-0.843
220	-0.84
221	-0.841
221	-0.839
221	-0.834
222	-0.828
222	-0.822
223	-0.815
223	-0.81
224	-0.802
224	-0.794
225	-0.786
225	-0.776
226	-0.765
226	-0.753
227	-0.74
227	-0.729
228	-0.712
228	-0.694
229	-0.673
229	-0.651
229	-0.625
230	-0.595
230	-0.563
231	-0.529
231	-0.493
232	-0.455
232	-0.415
233	-0.375
233	-0.333
234	-0.292
234	-0.251
235	-0.212
235	-0.173
236	-0.138
236	-0.103
236	-0.07
237	-0.038
237	-0.01
238	0.016
238	0.04
239	0.062
239	0.082
240	0.1
240	0.116
241	0.13
241	0.144
242	0.155
242	0.166
243	0.176
243	0.184
243	0.192
244	0.199
244	0.205
245	0.211
245	0.217
246	0.222
246	0.227
247	0.231
247	0.235
248	0.239
248	0.243
249	0.246
249	0.249
250	0.252
250	0.255
250	0.258
251	0.26
251	0.262
252	0.265
252	0.267
253	0.269
253	0.271
254	0.273
254	0.275
255	0.276
255	0.278
256	0.279
256	0.28
257	0.281
257	0.282
258	0.283
258	0.284
258	0.284
259	0.285
259	0.285
260	0.285
260	0.285
261	0.286
261	0.286
262	0.285
262	0.285
263	0.285
263	0.285
264	0.284
264	0.284
265	0.283
265	0.283
265	0.282
266	0.281
266	0.28
267	0.279
267	0.278
268	0.276
268	0.275
269	0.274
269	0.272
270	0.27
270	0.269
271	0.267
271	0.266
272	0.264
272	0.262
272	0.26
273	0.259
273	0.257
274	0.255
274	0.254
275	0.252
275	0.25
276	0.249
276	0.247
277	0.245
277	0.243
278	0.241
278	0.238
278	0.236
279	0.234
279	0.231
280	0.229
280	0.227
281	0.225
281	0.223
282	0.222
282	0.22
283	0.219
283	0.217
284	0.216
284	0.215
285	0.213
285	0.212
285	0.21
286	0.209
286	0.207
287	0.206
287	0.204
288	0.203
288	0.202
289	0.2
289	0.199
290	0.197
290	0.196
291	0.195
291	0.194
292	0.193
292	0.192
292	0.191
293	0.19
293	0.189
294	0.187
294	0.187
295	0.186
295	0.185
296	0.184
296	0.183
297	0.183
297	0.182
298	0.181
298	0.181
298	0.18
299	0.179
299	0.179
300	0.178
300	0.177
301	0.177
301	0.176
302	0.175
302	0.175
303	0.175
303	0.174
304	0.173
304	0.173
305	0.172
305	0.172
305	0.171
306	0.171
306	0.17
307	0.17
307	0.169
308	0.169
308	0.168
309	0.168
309	0.167
310	0.167
310	0.166
311	0.166
311	0.165
311	0.165
312	0.164
312	0.164
313	0.163
313	0.163
314	0.162
314	0.161
315	0.161
315	0.16
316	0.16
316	0.159
317	0.159
317	0.158
318	0.158
318	0.157
318	0.157
319	0.156
319	0.156
320	0.155
320	0.155
321	0.154
321	0.154
322	0.153
322	0.153
323	0.152
323	0.152
324	0.151
324	0.151
324	0.15
325	0.15
325	0.149
326	0.149
326	0.148
327	0.148
327	0.147
328	0.147
328	0.146
329	0.146
329	0.145
330	0.145
330	0.145
330	0.144
331	0.144
331	0.143
332	0.143
332	0.142
333	0.142
333	0.141
334	0.141
334	0.14
335	0.14
335	0.139
336	0.139
336	0.138
336	0.138
337	0.137
337	0.137
338	0.137
338	0.136
339	0.136
339	0.136
340	0.135
340	0.135
341	0.134
341	0.134
342	0.134
342	0.133
342	0.133
343	0.132
343	0.132
344	0.132
344	0.131
345	0.131
345	0.131
346	0.131
346	0.131
347	0.13
347	0.13
348	0.13
348	0.129
348	0.129
349	0.129
349	0.129
350	0.128
350	0.128
351	0.127
351	0.127
352	0.126
352	0.126
353	0.126
353	0.125
354	0.125
354	0.124
354	0.124
355	0.123
355	0.123
356	0.123
356	0.122
357	0.122
357	0.122
358	0.122
358	0.122
359	0.121
359	0.122
360	0.122
360	0.122
360	0.122
361	0.122
361	0.123
362	0.123
362	0.123
363	0.123
363	0.123
364	0.123
364	0.123
365	0.123
365	0.122
366	0.122
366	0.122
366	0.121
367	0.121
367	0.121
368	0.121
368	0.121
369	0.12
369	0.12
370	0.12
370	0.12
371	0.12
371	0.12
372	0.119
372	0.119
372	0.119
373	0.119
373	0.119
374	0.119
374	0.119
375	0.119
375	0.119
376	0.119
376	0.119
377	0.119
377	0.119
378	0.119
378	0.119
378	0.119
379	0.119
379	0.119
380	0.119
380	0.119
381	0.119
381	0.118
382	0.118
382	0.118
383	0.118
383	0.118
383	0.118
384	0.118
384	0.118
385	0.118
385	0.118
386	0.118
386	0.118
387	0.117
387	0.117
388	0.117
388	0.117
389	0.117
389	0.117
389	0.117
390	0.117
390	0.117
391	0.117
391	0.117
392	0.117
392	0.117
393	0.117
393	0.117
394	0.117
394	0.117
394	0.116
395	0.116
395	0.116
396	0.116
396	0.116
397	0.116
397	0.116
398	0.116
398	0.115
399	0.115
399	0.115
400	0.115
400	0.114
400	0.114
401	0.114
401	0.114
402	0.113
402	0.113
403	0.113
403	0.113
404	0.113
404	0.113
405	0.113
405	0.113
405	0.113
406	0.112
406	0.112
407	0.112
407	0.112
408	0.112
408	0.112
409	0.111
409	0.111
410	0.111
410	0.112
411	0.112
411	0.112
411	0.111
412	0.111
412	0.111
413	0.111
413	0.11
414	0.11
414	0.11
415	0.11
415	0.11
416	0.11
416	0.109
416	0.109
417	0.109
417	0.109
418	0.109
418	0.109
419	0.109
419	0.109
420	0.109
420	0.109
421	0.109
421	0.11
421	0.11
422	0.11
422	0.11
423	0.11
423	0.11
424	0.109
424	0.109
425	0.108
425	0.108
426	0.108
426	0.107
427	0.107
427	0.107
427	0.108
428	0.108
428	0.108
429	0.109
429	0.109
430	0.109
430	0.109
431	0.109
431	0.109
432	0.108
432	0.108
432	0.108
433	0.107
433	0.107
434	0.107
434	0.107
435	0.107
435	0.107
436	0.107
436	0.106
437	0.106
437	0.106
437	0.106
438	0.105
438	0.105
439	0.105
439	0.105
440	0.105
440	0.105
441	0.105
441	0.105
442	0.106
442	0.106
442	0.106
443	0.106
443	0.106
444	0.106
444	0.107
445	0.107
445	0.107
446	0.107
446	0.107
447	0.106
447	0.106
447	0.106
448	0.106
448	0.106
449	0.106
449	0.106
450	0.106
450	0.106
451	0.105
451	0.105
452	0.105
452	0.105
452	0.105
453	0.104
453	0.104
454	0.103
454	0.103
455	0.102
455	0.102
456	0.102
456	0.102
457	0.101
457	0.101
458	0.101
458	0.101
458	0.101
459	0.102
459	0.102
460	0.102
460	0.101
461	0.101
461	0.101
462	0.102
462	0.102
463	0.102
463	0.103
463	0.103
464	0.103
464	0.103
465	0.103
465	0.103
466	0.103
466	0.103
467	0.103
467	0.103
467	0.102
468	0.102
468	0.101
469	0.101
469	0.101
470	0.101
470	0.101
471	0.101
471	0.101
472	0.101
472	0.101
472	0.101
473	0.102
473	0.103
474	0.103
474	0.103
475	0.104
475	0.104
476	0.104
476	0.104
477	0.104
477	0.105
477	0.105
478	0.105
478	0.105
479	0.106
479	0.107
480	0.107
480	0.108
481	0.109
481	0.109
482	0.11
482	0.111
482	0.111
483	0.113
483	0.114
484	0.115
484	0.116
485	0.116
485	0.117
486	0.117
486	0.118
487	0.118
487	0.119
487	0.119
488	0.119
488	0.118
489	0.118
489	0.118
490	0.119
490	0.12
491	0.12
491	0.121
492	0.122
492	0.122
492	0.123
493	0.124
493	0.125
494	0.127
494	0.128
495	0.129
495	0.129
496	0.13
496	0.131
496	0.132
497	0.133
497	0.133
498	0.134
498	0.135
499	0.135
499	0.136
500	0.137
500	0.138
501	0.14
501	0.141
501	0.142
502	0.143
502	0.144
503	0.145
503	0.146
504	0.146
504	0.147
505	0.147
505	0.148
506	0.148
506	0.148
506	0.149
507	0.149
507	0.15
508	0.15
508	0.151
509	0.152
509	0.153
510	0.154
510	0.154
511	0.155
511	0.155
511	0.155
512	0.156
512	0.157
513	0.157
513	0.157
514	0.156
514	0.156
515	0.157
515	0.157
515	0.157
516	0.158
516	0.158
517	0.159
517	0.16
518	0.16
518	0.16
519	0.16
519	0.16
520	0.159
520	0.158
520	0.157
521	0.156
521	0.155
522	0.154
522	0.153
523	0.153
523	0.153
524	0.153
524	0.155
524	0.156
525	0.157
525	0.159
526	0.16
526	0.161
527	0.162
527	0.163
528	0.163
528	0.164
529	0.164
529	0.164
529	0.163
530	0.163
530	0.162
531	0.162
531	0.162
532	0.161
532	0.16
533	0.16
533	0.159
533	0.158
534	0.157
534	0.157
535	0.156
535	0.155
536	0.155
536	0.154
537	0.153
537	0.152
538	0.151
538	0.15
538	0.149
539	0.149
539	0.148
540	0.146
540	0.145
541	0.144
541	0.143
542	0.141
542	0.14
542	0.139
543	0.137
543	0.136
544	0.135
544	0.134
545	0.134
545	0.133
546	0.132
546	0.131
547	0.13
547	0.128
547	0.127
548	0.125
548	0.124
549	0.122
549	0.121
550	0.12
550	0.118
551	0.116
551	0.115
551	0.114
552	0.113
552	0.111
553	0.111
553	0.11
554	0.109
554	0.107
555	0.106
555	0.104
556	0.103
556	0.101
556	0.1
557	0.098
557	0.097
558	0.095
558	0.094
559	0.093
559	0.092
560	0.091
560	0.09
560	0.089
561	0.089
561	0.089
562	0.088
562	0.087
563	0.086
563	0.084
564	0.083
564	0.081
564	0.08
565	0.079
565	0.078
566	0.077
566	0.076
567	0.075
567	0.074
568	0.074
568	0.074
568	0.075
569	0.076
569	0.076
570	0.076
570	0.075
571	0.076
571	0.076
572	0.075
572	0.075
573	0.075
573	0.074
573	0.073
574	0.072
574	0.072
575	0.071
575	0.072
576	0.072
576	0.071
577	0.069
577	0.068
577	0.068
578	0.067
578	0.067
579	0.068
579	0.069
580	0.068
580	0.065
581	0.063
581	0.062
581	0.062
582	0.062
582	0.062
583	0.062
583	0.061
584	0.059
584	0.056
585	0.056
585	0.056
585	0.056
586	0.056
586	0.056
587	0.055
587	0.053
588	0.052
588	0.051
589	0.05
589	0.05
590	0.05
590	0.049
590	0.05
591	0.051
591	0.051
592	0.05
592	0.049
593	0.049
593	0.049
594	0.048
594	0.047
594	0.047
595	0.046
595	0.045
596	0.044
596	0.045
597	0.047
597	0.048
598	0.048
598	0.049
598	0.049
599	0.05
599	0.049
600	0.049
600	0.048
601	0.048
601	0.047
602	0.046
602	0.046
602	0.045
603	0.045
603	0.046
604	0.047
604	0.047
605	0.048
605	0.049
606	0.049
606	0.048
606	0.047
607	0.047
607	0.047
608	0.046
608	0.045
609	0.044
609	0.044
610	0.043
610	0.042
610	0.042
611	0.043
611	0.044
612	0.045
612	0.046
613	0.047
613	0.048
614	0.048
614	0.047
614	0.048
615	0.047
615	0.047
616	0.047
616	0.047
617	0.046
617	0.045
618	0.045
618	0.045
618	0.045
619	0.045
619	0.046
620	0.048
620	0.048
621	0.049
621	0.049
622	0.05
622	0.05
622	0.051
623	0.051
623	0.052
624	0.052
624	0.052
625	0.051
625	0.052
626	0.051
626	0.051
626	0.052
627	0.052
627	0.052
628	0.053
628	0.053
629	0.053
629	0.053
630	0.052
630	0.052
630	0.053
631	0.054
631	0.054
632	0.054
632	0.055
633	0.056
633	0.057
634	0.058
634	0.06
634	0.061
635	0.063
635	0.064
636	0.065
636	0.066
637	0.067
637	0.068
638	0.069
638	0.07
638	0.071
639	0.071
639	0.072
640	0.073
640	0.075
641	0.076
641	0.077
642	0.079
642	0.081
642	0.082
643	0.083
643	0.084
644	0.085
644	0.086
645	0.087
645	0.088
646	0.089
646	0.09
646	0.092
647	0.094
647	0.096
648	0.097
648	0.099
649	0.101
649	0.103
650	0.105
650	0.107
650	0.109
651	0.11
651	0.111
652	0.113
652	0.114
653	0.117
653	0.123
653	0.13
654	0.107
654	0.088
655	0.089
655	0.091
656	0.092
656	0.094
657	0.095
657	0.096
657	0.097
658	0.094
658	0.089
659	0.11
659	0.14
660	0.146
660	0.148
661	0.149
661	0.151
661	0.153
662	0.155
662	0.157
663	0.16
663	0.162
664	0.164
664	0.166
665	0.168
665	0.17
665	0.172
666	0.174
666	0.175
667	0.177
667	0.179
668	0.18
668	0.182
669	0.184
669	0.186
669	0.189
670	0.192
670	0.194
671	0.195
671	0.197
672	0.198
672	0.2
672	0.201
673	0.202
673	0.204
674	0.204
674	0.204
675	0.205
675	0.205
676	0.207
676	0.208
676	0.208
677	0.209
677	0.211
678	0.212
678	0.212
679	0.213
679	0.214
680	0.215
680	0.216
680	0.216
681	0.217
681	0.218
682	0.218
682	0.218
683	0.219
683	0.221
684	0.222
684	0.222
684	0.222
685	0.223
685	0.224
686	0.224
686	0.225
687	0.225
687	0.225
687	0.225
688	0.224
688	0.223
689	0.223
689	0.223
690	0.222
690	0.222
691	0.221
691	0.22
691	0.22
692	0.219
692	0.218
693	0.218
693	0.219
694	0.218
694	0.217
695	0.217
695	0.218
695	0.217
696	0.216
696	0.216
697	0.215
697	0.214
698	0.213
698	0.212
698	0.211
699	0.211
699	0.209
700	0.207
700	0.207
701	0.206
701	0.205
702	0.204
702	0.203
702	0.202
703	0.201
703	0.199
704	0.198
704	0.196
705	0.195
705	0.194
705	0.192
706	0.191
706	0.189
707	0.187
707	0.186
708	0.184
708	0.182
709	0.181
709	0.179
709	0.177
710	0.174
710	0.172
711	0.171
711	0.169
712	0.168
712	0.166
713	0.165
713	0.164
713	0.163
714	0.161
714	0.16
715	0.159
715	0.157
716	0.156
716	0.156
716	0.155
717	0.154
717	0.153
718	0.152
718	0.15
719	0.15
719	0.149
720	0.147
720	0.146
720	0.143
721	0.141
721	0.139
722	0.137
722	0.134
723	0.132
723	0.13
723	0.128
724	0.126
724	0.124
725	0.122
725	0.121
726	0.12
726	0.119
727	0.117
727	0.116
727	0.115
728	0.113
728	0.112
729	0.111
729	0.11
730	0.108
730	0.106
730	0.105
731	0.104
731	0.102
732	0.102
732	0.101
733	0.1
733	0.099
734	0.098
734	0.097
734	0.096
735	0.095
735	0.094
736	0.092
736	0.091
737	0.09
737	0.089
737	0.087
738	0.085
738	0.082
739	0.081
739	0.079
740	0.077
740	0.076
741	0.074
741	0.072
741	0.069
742	0.066
742	0.063
743	0.062
743	0.06
744	0.058
744	0.056
744	0.054
745	0.052
745	0.05
746	0.049
746	0.048
747	0.048
747	0.048
748	0.048
748	0.048
748	0.048
749	0.048
749	0.048
750	0.048
750	0.048
751	0.048
751	0.048
751	0.048
752	0.047
752	0.046
753	0.045
753	0.044
754	0.043
754	0.042
754	0.042
755	0.042
755	0.042
756	0.041
756	0.04
757	0.04
757	0.04
758	0.04
758	0.04
758	0.04
759	0.04
759	0.038
760	0.037
760	0.036
761	0.036
761	0.036
761	0.036
762	0.035
762	0.034
763	0.033
763	0.032
764	0.03
764	0.028
764	0.027
765	0.025
765	0.024
766	0.022
766	0.022
767	0.02
767	0.018
768	0.016
768	0.015
768	0.014
769	0.014
769	0.013
770	0.011
770	0.01
771	0.008
771	0.006
771	0.003
772	0.002
772	0
773	-0.002
773	-0.004
774	-0.006
774	-0.008
775	-0.01
775	-0.011
775	-0.013
776	-0.014
776	-0.016
777	-0.017
777	-0.019
778	-0.021
778	-0.023
778	-0.025
779	-0.026
779	-0.028
780	-0.031
780	-0.034
781	-0.037
781	-0.041
781	-0.046
782	-0.05
782	-0.056
783	-0.06
783	-0.065
784	-0.072
784	-0.079
784	-0.086
785	-0.092
785	-0.1
786	-0.105
786	-0.107
787	-0.107
787	-0.108
788	-0.111
788	-0.115
788	-0.119
789	-0.122
789	-0.123
790	-0.121
790	-0.121
791	-0.123
791	-0.125
791	-0.128
792	-0.124
792	-0.113
793	-0.108
793	-0.104
794	-0.102
794	-0.103
794	-0.107
795	-0.109
795	-0.108
796	-0.108
796	-0.11
797	-0.118
797	-0.129
797	-0.135
798	-0.14
798	-0.142
799	-0.143
799	-0.143
800	-0.143
800	-0.145
801	-0.148
801	-0.149
801	-0.15
802	-0.151
802	-0.152
803	-0.153
803	-0.152
804	-0.151
804	-0.145
804	-0.138
805	-0.133
805	-0.131
806	-0.128
806	-0.126
807	-0.125
807	-0.124
807	-0.124
808	-0.124
808	-0.125
809	-0.13
809	-0.136
810	-0.14
810	-0.143
810	-0.147
811	-0.151
811	-0.152
812	-0.149
812	-0.147
813	-0.147
813	-0.148
813	-0.15
814	-0.151
814	-0.151
815	-0.148
815	-0.145
816	-0.143
816	-0.143
817	-0.147
817	-0.149
817	-0.147
818	-0.143
818	-0.137
819	-0.131
819	-0.125
820	-0.121
820	-0.117
820	-0.111
821	-0.104
821	-0.096
822	-0.088
822	-0.08
823	-0.073
823	-0.068
823	-0.063
824	-0.057
824	-0.052
825	-0.046
825	-0.04
826	-0.035
826	-0.032
826	-0.029
827	-0.026
827	-0.023
828	-0.021
828	-0.019
829	-0.018
829	-0.017
829	-0.016
830	-0.016
830	-0.016
831	-0.014
831	-0.014
832	-0.013
832	-0.012
832	-0.011
833	-0.01
833	-0.009
834	-0.008
834	-0.007
835	-0.006
835	-0.005
835	-0.005
836	-0.004
836	-0.004
837	-0.004
837	-0.004
838	-0.004
838	-0.004
839	-0.004
839	-0.004
839	-0.005
840	-0.005
840	-0.005
841	-0.004
841	-0.004
842	-0.003
842	-0.003
842	-0.002
843	-0.001
843	-0
844	0.001
844	0.002
845	0.003
845	0.004
845	0.004
846	0.004
846	0.004
847	0.005
847	0.005
848	0.006
848	0.007
848	0.008
849	0.009
849	0.01
850	0.01
850	0.011
851	0.012
851	0.012
851	0.012
852	0.011
852	0.011
853	0.01
853	0.009
854	0.008
854	0.007
854	0.006
855	0.005
855	0.004
856	0.003
856	0.003
857	0.003
857	0.004
857	0.005
858	0.006
858	0.007
859	0.009
859	0.01
860	0.013
860	0.014
860	0.016
861	0.018
861	0.019
862	0.019
862	0.02
863	0.02
863	0.019
863	0.019
864	0.018
864	0.017
865	0.017
865	0.016
866	0.015
866	0.014
866	0.014
867	0.013
867	0.012
868	0.012
868	0.011
869	0.01
869	0.009
869	0.007
870	0.006
870	0.005
871	0.004
871	0.003
872	0.002
872	0.001
872	0.001
873	0
873	0
874	0
874	0.001
875	0.002
875	0.002
875	0.002
876	0.003
876	0.003
877	0.004
877	0.004
878	0.005
878	0.006
878	0.006
879	0.006
879	0.007
880	0.007
880	0.007
881	0.007
881	0.007
881	0.008
882	0.008
882	0.008
883	0.008
883	0.009
884	0.009
884	0.009
884	0.01
885	0.01
885	0.01
886	0.01
886	0.011
887	0.011
887	0.011
887	0.011
888	0.012
888	0.012
889	0.013
889	0.014
890	0.014
890	0.015
890	0.016
891	0.016
891	0.016
892	0.017
892	0.016
893	0.016
893	0.016
893	0.016
894	0.015
894	0.015
895	0.014
895	0.013
895	0.011
896	0.01
896	0.009
897	0.008
897	0.007
898	0.006
898	0.005
898	0.004
899	0.003
899	0.003
900	0.003
900	0.003
901	0.003
901	0.003
901	0.003
902	0.003
902	0.003
903	0.002
903	0.002
904	0.002
904	0.001
904	0
905	-0
905	-0
906	-0
906	0
907	0
907	0.001
907	0.001
908	0.002
908	0.003
909	0.005
909	0.006
910	0.007
910	0.008
910	0.009
911	0.01
911	0.01
912	0.011
912	0.011
913	0.011
913	0.01
913	0.009
914	0.008
914	0.007
915	0.006
915	0.005
916	0.005
916	0.004
916	0.004
917	0.003
917	0.003
918	0.003
918	0.003
918	0.003
919	0.002
919	0.002
920	0.002
920	0.002
921	0.002
921	0.002
921	0.001
922	0.002
922	0.002
923	0.002
923	0.002
924	0.003
924	0.003
924	0.004
925	0.004
925	0.004
926	0.005
926	0.005
927	0.005
927	0.004
927	0.004
928	0.004
928	0.004
929	0.003
929	0.003
930	0.003
930	0.002
930	0.002
931	0.001
931	0.001
932	0.001
932	0
933	0
933	-0
933	-0.001
934	-0.001
934	-0.001
935	-0.002
935	-0.003
935	-0.003
936	-0.003
936	-0.003
937	-0.003
937	-0.003
938	-0.003
938	-0.003
938	-0.002
939	-0.002
939	-0.001
940	-0
940	0.001
941	0.001
941	0.002
941	0.003
942	0.004
942	0.004
943	0.005
943	0.005
944	0.005
944	0.006
944	0.007
945	0.008
945	0.008
946	0.009
946	0.009
946	0.009
947	0.01
947	0.01
948	0.011
948	0.011
949	0.011
949	0.011
949	0.011
950	0.012
950	0.012
951	0.013
951	0.013
952	0.014
952	0.015
952	0.015
953	0.016
953	0.016
954	0.016
954	0.016
955	0.016
955	0.015
955	0.015
956	0.015
956	0.014
957	0.013
957	0.012
957	0.011
958	0.01
958	0.009
959	0.008
959	0.007
960	0.006
960	0.004
960	0.003
961	0.001
961	-0
962	-0.002
962	-0.003
963	-0.004
963	-0.005
963	-0.006
964	-0.007
964	-0.008
965	-0.008
965	-0.008
966	-0.008
966	-0.007
966	-0.007
967	-0.007
967	-0.006
968	-0.006
968	-0.006
968	-0.006
969	-0.006
969	-0.006
970	-0.006
970	-0.005
971	-0.005
971	-0.005
971	-0.004
972	-0.003
972	-0.003
973	-0.002
973	-0.001
974	-0
974	0.001
974	0.002
975	0.003
975	0.003
976	0.004
976	0.004
976	0.004
977	0.004
977	0.003
978	0.003
978	0.003
979	0.002
979	0.001
979	0
980	-0.001
980	-0.002
981	-0.003
981	-0.004
982	-0.005
982	-0.005
982	-0.005
983	-0.005
983	-0.006
984	-0.006
984	-0.005
984	-0.005
985	-0.004
985	-0.003
986	-0.003
986	-0.002
987	-0.002
987	-0.001
987	-0.001
988	-0
988	-0
989	-0
989	-0
990	-0
990	-0
990	0
991	0.001
991	0.001
992	0.002
992	0.002
992	0.003
993	0.003
993	0.004
994	0.004
994	0.005
995	0.005
995	0.005
995	0.005
996	0.004
996	0.004
997	0.003
997	0.002
997	0.002
998	0.001
998	0
999	-0
999	-0.001
1000	-0.001
1000	-0.001
1000	-0.002
1001	-0.002
1001	-0.002
1002	-0.002
1002	-0.002
1003	-0.002
1003	-0.002
1003	-0.002
1004	-0.003
1004	-0.003
1005	-0.004
1005	-0.004
1005	-0.005
1006	-0.005
1006	-0.006
1007	-0.006
1007	-0.007
1008	-0.007
1008	-0.008
1008	-0.008
1009	-0.008
1009	-0.008
1010	-0.008
1010	-0.007
1010	-0.008
1011	-0.008
1011	-0.007
1012	-0.007
1012	-0.007
1013	-0.006
1013	-0.006
1013	-0.006
1014	-0.006
1014	-0.006
1015	-0.005
1015	-0.005
1016	-0.004
1016	-0.004
1016	-0.004
1017	-0.004
1017	-0.003
1018	-0.003
1018	-0.002
1018	-0.002
1019	-0.001
1019	-0.001
1020	-0.001
1020	-0.001
1021	-0.001
1021	-0.002
1021	-0.002
1022	-0.003
1022	-0.003
1023	-0.003
1023	-0.004
1023	-0.004
1024	-0.005
1024	-0.005
1025	-0.006
1025	-0.006
1026	-0.006
1026	-0.006
1026	-0.006
1027	-0.006
1027	-0.006
1028	-0.006
1028	-0.005
1028	-0.005
1029	-0.005
1029	-0.004
1030	-0.004
1030	-0.004
1031	-0.004
1031	-0.004
1031	-0.004
1032	-0.004
1032	-0.004
1033	-0.005
1033	-0.006
1033	-0.006
1034	-0.007
1034	-0.009
1035	-0.01
1035	-0.01
1036	-0.011
1036	-0.012
1036	-0.012
1037	-0.013
1037	-0.013
1038	-0.013
1038	-0.014
1039	-0.013
1039	-0.013
1039	-0.013
1040	-0.013
1040	-0.013
1041	-0.014
1041	-0.014
1041	-0.015
1042	-0.015
1042	-0.016
1043	-0.016
1043	-0.017
1044	-0.017
1044	-0.018
1044	-0.018
1045	-0.019
1045	-0.019
1046	-0.019
1046	-0.019
1046	-0.019
1047	-0.019
1047	-0.018
1048	-0.017
1048	-0.017
1049	-0.016
1049	-0.016
1049	-0.016
1050	-0.015
1050	-0.014
1051	-0.014
1051	-0.013
1051	-0.012
1052	-0.011
1052	-0.011
1053	-0.01
1053	-0.009
1053	-0.008
1054	-0.007
1054	-0.007
1055	-0.006
1055	-0.006
1056	-0.005
1056	-0.006
1056	-0.007
1057	-0.007
1057	-0.008
1058	-0.009
1058	-0.01
1058	-0.01
1059	-0.011
1059	-0.012
1060	-0.013
1060	-0.014
1061	-0.014
1061	-0.014
1061	-0.014
1062	-0.014
1062	-0.015
1063	-0.015
1063	-0.016
1063	-0.016
1064	-0.016
1064	-0.016
1065	-0.015
1065	-0.015
1066	-0.015
1066	-0.015
1066	-0.014
1067	-0.013
1067	-0.013
1068	-0.012
1068	-0.011
1068	-0.01
1069	-0.01
1069	-0.009
1070	-0.009
1070	-0.008
1071	-0.007
1071	-0.006
1071	-0.006
1072	-0.005
1072	-0.004
1073	-0.003
1073	-0.002
1073	-0.001
1074	-0
1074	0.001
1075	0.001
1075	0.001
1076	0.001
1076	0.002
1076	0.001
1077	0.001
1077	0.002
1078	0.002
1078	0.003
1078	0.003
1079	0.004
1079	0.005
1080	0.006
1080	0.007
1080	0.008
1081	0.009
1081	0.01
1082	0.011
1082	0.011
1083	0.011
1083	0.012
1083	0.013
1084	0.013
1084	0.014
1085	0.015
1085	0.016
1085	0.017
1086	0.018
1086	0.018
1087	0.019
1087	0.02
1088	0.02
1088	0.02
1088	0.021
1089	0.022
1089	0.022
1090	0.023
1090	0.024
1090	0.024
1091	0.025
1091	0.027
1092	0.028
1092	0.03
1092	0.032
1093	0.033
1093	0.035
1094	0.037
1094	0.038
1095	0.039
1095	0.041
1095	0.045
1096	0.047
1096	0.049
1097	0.052
1097	0.054
1097	0.057
1098	0.059
1098	0.062
1099	0.067
1099	0.071
1100	0.075
1100	0.079
1100	0.084
1101	0.089
1101	0.095
1102	0.103
1102	0.111
1102	0.121
1103	0.131
1103	0.141
1104	0.153
1104	0.166
1104	0.18
1105	0.195
1105	0.211
1106	0.226
1106	0.245
1107	0.264
1107	0.293
1107	0.33
1108	0.454
1108	0.681
1109	1.485
1109	-0
1109	-0
1110	-0
1110	-0
1111	-0
1111	-0
