Data from 15c-2-2a_Absorbance__1615__03416.txt Node

Date: Wed Jan 24 13:57:42 CET 2024
User: Marek
Spectrometer: MAYP115816
Trigger mode: 0
Integration Time (sec): 2.000000E-1
Scans to average: 10
Electric dark correction enabled: true
Nonlinearity correction enabled: true
Boxcar width: 5
XAxis mode: Wavelengths
Number of Pixels in Spectrum: 2068
>>>>>Begin Spectral Data<<<<<
199	-1.782
199	-1.622
200	-1.463
200	-1.339
201	-1.267
201	-1.214
202	-1.143
202	-1.087
203	-1.038
203	-0.997
204	-0.968
204	-0.943
205	-0.92
205	-0.911
205	-0.91
206	-0.907
206	-0.906
207	-0.901
207	-0.898
208	-0.896
208	-0.895
209	-0.893
209	-0.893
210	-0.893
210	-0.891
211	-0.889
211	-0.888
212	-0.886
212	-0.884
213	-0.882
213	-0.88
213	-0.878
214	-0.876
214	-0.872
215	-0.871
215	-0.867
216	-0.866
216	-0.864
217	-0.862
217	-0.862
218	-0.863
218	-0.862
219	-0.86
219	-0.857
220	-0.855
220	-0.853
221	-0.853
221	-0.851
221	-0.846
222	-0.84
222	-0.834
223	-0.827
223	-0.821
224	-0.813
224	-0.805
225	-0.796
225	-0.786
226	-0.776
226	-0.765
227	-0.752
227	-0.74
228	-0.722
228	-0.704
229	-0.683
229	-0.661
229	-0.634
230	-0.605
230	-0.572
231	-0.537
231	-0.499
232	-0.461
232	-0.42
233	-0.378
233	-0.334
234	-0.291
234	-0.248
235	-0.206
235	-0.165
236	-0.127
236	-0.089
236	-0.053
237	-0.02
237	0.011
238	0.039
238	0.066
239	0.09
239	0.113
240	0.133
240	0.151
241	0.168
241	0.183
242	0.196
242	0.209
243	0.22
243	0.23
243	0.239
244	0.247
244	0.255
245	0.261
245	0.268
246	0.274
246	0.279
247	0.284
247	0.289
248	0.293
248	0.297
249	0.301
249	0.304
250	0.308
250	0.311
250	0.314
251	0.317
251	0.32
252	0.322
252	0.325
253	0.327
253	0.33
254	0.331
254	0.334
255	0.335
255	0.337
256	0.338
256	0.339
257	0.341
257	0.342
258	0.343
258	0.344
258	0.345
259	0.345
259	0.346
260	0.346
260	0.346
261	0.346
261	0.346
262	0.346
262	0.346
263	0.346
263	0.345
264	0.345
264	0.344
265	0.344
265	0.343
265	0.342
266	0.341
266	0.34
267	0.339
267	0.338
268	0.336
268	0.335
269	0.334
269	0.332
270	0.33
270	0.328
271	0.326
271	0.325
272	0.323
272	0.322
272	0.32
273	0.318
273	0.316
274	0.314
274	0.313
275	0.311
275	0.309
276	0.307
276	0.305
277	0.303
277	0.301
278	0.299
278	0.296
278	0.293
279	0.291
279	0.288
280	0.286
280	0.284
281	0.282
281	0.28
282	0.278
282	0.276
283	0.275
283	0.273
284	0.272
284	0.271
285	0.269
285	0.268
285	0.266
286	0.264
286	0.262
287	0.261
287	0.259
288	0.258
288	0.256
289	0.255
289	0.253
290	0.252
290	0.25
291	0.249
291	0.248
292	0.247
292	0.245
292	0.244
293	0.243
293	0.242
294	0.241
294	0.24
295	0.239
295	0.238
296	0.237
296	0.236
297	0.235
297	0.234
298	0.233
298	0.232
298	0.232
299	0.231
299	0.23
300	0.229
300	0.228
301	0.228
301	0.227
302	0.226
302	0.225
303	0.225
303	0.224
304	0.223
304	0.223
305	0.222
305	0.221
305	0.221
306	0.22
306	0.22
307	0.219
307	0.218
308	0.218
308	0.217
309	0.216
309	0.216
310	0.215
310	0.214
311	0.214
311	0.213
311	0.212
312	0.211
312	0.211
313	0.21
313	0.209
314	0.209
314	0.208
315	0.207
315	0.207
316	0.206
316	0.205
317	0.205
317	0.204
318	0.203
318	0.203
318	0.202
319	0.202
319	0.201
320	0.2
320	0.2
321	0.199
321	0.198
322	0.198
322	0.197
323	0.196
323	0.196
324	0.195
324	0.195
324	0.194
325	0.193
325	0.193
326	0.192
326	0.192
327	0.191
327	0.19
328	0.19
328	0.189
329	0.189
329	0.188
330	0.187
330	0.187
330	0.186
331	0.186
331	0.185
332	0.185
332	0.184
333	0.183
333	0.183
334	0.182
334	0.182
335	0.181
335	0.18
336	0.18
336	0.179
336	0.179
337	0.178
337	0.178
338	0.178
338	0.177
339	0.177
339	0.176
340	0.176
340	0.175
341	0.175
341	0.174
342	0.174
342	0.174
342	0.173
343	0.173
343	0.172
344	0.172
344	0.171
345	0.171
345	0.171
346	0.17
346	0.17
347	0.17
347	0.169
348	0.169
348	0.169
348	0.168
349	0.168
349	0.167
350	0.167
350	0.167
351	0.166
351	0.166
352	0.165
352	0.165
353	0.164
353	0.164
354	0.163
354	0.163
354	0.162
355	0.162
355	0.161
356	0.161
356	0.161
357	0.16
357	0.16
358	0.16
358	0.16
359	0.16
359	0.16
360	0.16
360	0.16
360	0.16
361	0.161
361	0.161
362	0.161
362	0.161
363	0.161
363	0.161
364	0.161
364	0.161
365	0.16
365	0.16
366	0.16
366	0.159
366	0.159
367	0.159
367	0.159
368	0.159
368	0.158
369	0.158
369	0.158
370	0.157
370	0.157
371	0.157
371	0.157
372	0.157
372	0.156
372	0.156
373	0.156
373	0.156
374	0.156
374	0.156
375	0.156
375	0.156
376	0.156
376	0.156
377	0.155
377	0.155
378	0.155
378	0.155
378	0.155
379	0.155
379	0.155
380	0.155
380	0.155
381	0.155
381	0.155
382	0.155
382	0.154
383	0.154
383	0.154
383	0.154
384	0.154
384	0.154
385	0.154
385	0.154
386	0.153
386	0.153
387	0.153
387	0.153
388	0.153
388	0.152
389	0.152
389	0.152
389	0.152
390	0.152
390	0.152
391	0.152
391	0.152
392	0.152
392	0.152
393	0.152
393	0.152
394	0.152
394	0.152
394	0.151
395	0.151
395	0.151
396	0.15
396	0.15
397	0.15
397	0.15
398	0.15
398	0.15
399	0.15
399	0.149
400	0.149
400	0.149
400	0.149
401	0.148
401	0.148
402	0.148
402	0.147
403	0.147
403	0.147
404	0.147
404	0.147
405	0.147
405	0.146
405	0.146
406	0.146
406	0.146
407	0.146
407	0.146
408	0.145
408	0.145
409	0.145
409	0.145
410	0.145
410	0.145
411	0.145
411	0.145
411	0.144
412	0.144
412	0.144
413	0.144
413	0.144
414	0.143
414	0.143
415	0.143
415	0.143
416	0.142
416	0.142
416	0.142
417	0.141
417	0.141
418	0.141
418	0.141
419	0.141
419	0.141
420	0.142
420	0.142
421	0.142
421	0.142
421	0.142
422	0.142
422	0.142
423	0.142
423	0.142
424	0.142
424	0.141
425	0.14
425	0.14
426	0.139
426	0.139
427	0.139
427	0.139
427	0.139
428	0.14
428	0.14
429	0.14
429	0.14
430	0.14
430	0.14
431	0.14
431	0.14
432	0.14
432	0.14
432	0.139
433	0.139
433	0.138
434	0.138
434	0.138
435	0.138
435	0.138
436	0.138
436	0.138
437	0.138
437	0.137
437	0.137
438	0.137
438	0.137
439	0.137
439	0.136
440	0.136
440	0.136
441	0.136
441	0.136
442	0.137
442	0.137
442	0.137
443	0.137
443	0.137
444	0.137
444	0.138
445	0.138
445	0.138
446	0.138
446	0.138
447	0.138
447	0.137
447	0.137
448	0.137
448	0.137
449	0.137
449	0.137
450	0.137
450	0.136
451	0.136
451	0.136
452	0.136
452	0.136
452	0.135
453	0.135
453	0.135
454	0.134
454	0.134
455	0.133
455	0.133
456	0.133
456	0.133
457	0.132
457	0.132
458	0.132
458	0.132
458	0.132
459	0.133
459	0.133
460	0.133
460	0.132
461	0.132
461	0.133
462	0.133
462	0.133
463	0.133
463	0.134
463	0.134
464	0.134
464	0.134
465	0.134
465	0.134
466	0.134
466	0.134
467	0.134
467	0.134
467	0.133
468	0.132
468	0.132
469	0.131
469	0.131
470	0.131
470	0.131
471	0.131
471	0.131
472	0.132
472	0.132
472	0.132
473	0.133
473	0.134
474	0.134
474	0.135
475	0.135
475	0.135
476	0.136
476	0.136
477	0.136
477	0.136
477	0.137
478	0.137
478	0.137
479	0.138
479	0.139
480	0.14
480	0.141
481	0.141
481	0.142
482	0.143
482	0.144
482	0.145
483	0.146
483	0.148
484	0.149
484	0.15
485	0.15
485	0.151
486	0.152
486	0.152
487	0.153
487	0.153
487	0.153
488	0.154
488	0.153
489	0.153
489	0.153
490	0.154
490	0.154
491	0.155
491	0.156
492	0.157
492	0.158
492	0.159
493	0.16
493	0.161
494	0.163
494	0.164
495	0.165
495	0.166
496	0.167
496	0.169
496	0.17
497	0.171
497	0.172
498	0.173
498	0.173
499	0.174
499	0.175
500	0.176
500	0.177
501	0.179
501	0.18
501	0.181
502	0.182
502	0.184
503	0.185
503	0.186
504	0.187
504	0.188
505	0.189
505	0.189
506	0.19
506	0.191
506	0.191
507	0.192
507	0.192
508	0.193
508	0.194
509	0.195
509	0.196
510	0.197
510	0.198
511	0.198
511	0.199
511	0.2
512	0.201
512	0.201
513	0.201
513	0.201
514	0.201
514	0.201
515	0.201
515	0.202
515	0.202
516	0.203
516	0.204
517	0.204
517	0.205
518	0.205
518	0.205
519	0.205
519	0.204
520	0.203
520	0.202
520	0.201
521	0.2
521	0.198
522	0.197
522	0.196
523	0.196
523	0.196
524	0.197
524	0.198
524	0.2
525	0.201
525	0.203
526	0.205
526	0.206
527	0.208
527	0.208
528	0.209
528	0.21
529	0.21
529	0.21
529	0.209
530	0.209
530	0.209
531	0.208
531	0.208
532	0.207
532	0.206
533	0.205
533	0.204
533	0.204
534	0.203
534	0.202
535	0.2
535	0.2
536	0.199
536	0.197
537	0.197
537	0.196
538	0.195
538	0.193
538	0.192
539	0.191
539	0.19
540	0.189
540	0.187
541	0.186
541	0.184
542	0.182
542	0.181
542	0.179
543	0.177
543	0.176
544	0.174
544	0.173
545	0.172
545	0.171
546	0.17
546	0.169
547	0.167
547	0.165
547	0.163
548	0.162
548	0.16
549	0.158
549	0.157
550	0.155
550	0.153
551	0.151
551	0.149
551	0.147
552	0.146
552	0.144
553	0.143
553	0.142
554	0.141
554	0.139
555	0.137
555	0.135
556	0.133
556	0.131
556	0.129
557	0.128
557	0.126
558	0.124
558	0.122
559	0.121
559	0.119
560	0.118
560	0.116
560	0.115
561	0.115
561	0.114
562	0.113
562	0.112
563	0.11
563	0.109
564	0.107
564	0.106
564	0.104
565	0.103
565	0.102
566	0.1
566	0.099
567	0.098
567	0.097
568	0.096
568	0.096
568	0.097
569	0.097
569	0.097
570	0.097
570	0.096
571	0.096
571	0.097
572	0.096
572	0.096
573	0.095
573	0.094
573	0.093
574	0.092
574	0.091
575	0.091
575	0.091
576	0.091
576	0.089
577	0.088
577	0.086
577	0.086
578	0.085
578	0.085
579	0.085
579	0.086
580	0.084
580	0.082
581	0.08
581	0.079
581	0.078
582	0.078
582	0.078
583	0.078
583	0.077
584	0.075
584	0.072
585	0.071
585	0.071
585	0.071
586	0.071
586	0.071
587	0.069
587	0.068
588	0.066
588	0.065
589	0.064
589	0.064
590	0.064
590	0.063
590	0.064
591	0.064
591	0.064
592	0.064
592	0.063
593	0.063
593	0.062
594	0.062
594	0.061
594	0.06
595	0.059
595	0.058
596	0.057
596	0.058
597	0.059
597	0.06
598	0.06
598	0.061
598	0.061
599	0.062
599	0.061
600	0.061
600	0.06
601	0.059
601	0.059
602	0.058
602	0.057
602	0.057
603	0.057
603	0.057
604	0.058
604	0.059
605	0.06
605	0.061
606	0.06
606	0.059
606	0.059
607	0.058
607	0.058
608	0.057
608	0.056
609	0.055
609	0.055
610	0.054
610	0.053
610	0.053
611	0.054
611	0.054
612	0.055
612	0.056
613	0.057
613	0.058
614	0.058
614	0.058
614	0.058
615	0.058
615	0.057
616	0.057
616	0.057
617	0.057
617	0.056
618	0.055
618	0.055
618	0.055
619	0.055
619	0.056
620	0.058
620	0.059
621	0.059
621	0.06
622	0.061
622	0.061
622	0.062
623	0.062
623	0.063
624	0.064
624	0.063
625	0.063
625	0.063
626	0.063
626	0.063
626	0.063
627	0.063
627	0.064
628	0.064
628	0.064
629	0.064
629	0.064
630	0.064
630	0.064
630	0.065
631	0.065
631	0.066
632	0.067
632	0.067
633	0.068
633	0.069
634	0.071
634	0.072
634	0.074
635	0.076
635	0.077
636	0.078
636	0.079
637	0.08
637	0.081
638	0.082
638	0.084
638	0.085
639	0.086
639	0.087
640	0.088
640	0.089
641	0.091
641	0.092
642	0.094
642	0.096
642	0.098
643	0.099
643	0.1
644	0.101
644	0.102
645	0.103
645	0.104
646	0.106
646	0.108
646	0.11
647	0.112
647	0.114
648	0.116
648	0.119
649	0.121
649	0.124
650	0.126
650	0.128
650	0.13
651	0.132
651	0.133
652	0.135
652	0.137
653	0.14
653	0.147
653	0.154
654	0.125
654	0.103
655	0.105
655	0.107
656	0.108
656	0.11
657	0.112
657	0.113
657	0.114
658	0.111
658	0.105
659	0.131
659	0.167
660	0.173
660	0.175
661	0.177
661	0.179
661	0.181
662	0.184
662	0.187
663	0.189
663	0.192
664	0.195
664	0.197
665	0.199
665	0.202
665	0.204
666	0.206
666	0.208
667	0.21
667	0.212
668	0.213
668	0.215
669	0.217
669	0.22
669	0.223
670	0.226
670	0.229
671	0.231
671	0.233
672	0.234
672	0.236
672	0.238
673	0.239
673	0.241
674	0.241
674	0.242
675	0.242
675	0.243
676	0.245
676	0.246
676	0.247
677	0.248
677	0.25
678	0.251
678	0.252
679	0.253
679	0.254
680	0.256
680	0.257
680	0.257
681	0.258
681	0.259
682	0.259
682	0.26
683	0.261
683	0.262
684	0.263
684	0.264
684	0.264
685	0.265
685	0.265
686	0.266
686	0.266
687	0.266
687	0.266
687	0.266
688	0.265
688	0.264
689	0.264
689	0.264
690	0.263
690	0.263
691	0.262
691	0.261
691	0.261
692	0.26
692	0.259
693	0.259
693	0.259
694	0.258
694	0.257
695	0.257
695	0.258
695	0.257
696	0.256
696	0.255
697	0.254
697	0.254
698	0.252
698	0.251
698	0.25
699	0.249
699	0.247
700	0.245
700	0.245
701	0.244
701	0.243
702	0.242
702	0.241
702	0.239
703	0.238
703	0.236
704	0.234
704	0.233
705	0.232
705	0.23
705	0.228
706	0.226
706	0.224
707	0.222
707	0.22
708	0.218
708	0.216
709	0.214
709	0.212
709	0.209
710	0.206
710	0.204
711	0.202
711	0.2
712	0.199
712	0.197
713	0.196
713	0.195
713	0.193
714	0.191
714	0.19
715	0.189
715	0.187
716	0.186
716	0.185
716	0.184
717	0.182
717	0.181
718	0.179
718	0.178
719	0.177
719	0.175
720	0.174
720	0.172
720	0.169
721	0.166
721	0.164
722	0.162
722	0.159
723	0.157
723	0.155
723	0.152
724	0.15
724	0.148
725	0.146
725	0.145
726	0.143
726	0.141
727	0.14
727	0.138
727	0.137
728	0.135
728	0.133
729	0.132
729	0.131
730	0.129
730	0.127
730	0.125
731	0.124
731	0.122
732	0.121
732	0.12
733	0.118
733	0.117
734	0.116
734	0.115
734	0.114
735	0.113
735	0.112
736	0.11
736	0.109
737	0.108
737	0.107
737	0.105
738	0.103
738	0.1
739	0.098
739	0.096
740	0.094
740	0.092
741	0.09
741	0.087
741	0.084
742	0.081
742	0.078
743	0.075
743	0.073
744	0.071
744	0.068
744	0.066
745	0.064
745	0.062
746	0.061
746	0.06
747	0.06
747	0.059
748	0.059
748	0.059
748	0.059
749	0.058
749	0.058
750	0.058
750	0.058
751	0.058
751	0.058
751	0.057
752	0.056
752	0.055
753	0.054
753	0.053
754	0.052
754	0.051
754	0.051
755	0.051
755	0.05
756	0.05
756	0.049
757	0.048
757	0.048
758	0.048
758	0.048
758	0.048
759	0.048
759	0.046
760	0.045
760	0.044
761	0.043
761	0.043
761	0.042
762	0.041
762	0.041
763	0.04
763	0.038
764	0.036
764	0.035
764	0.033
765	0.031
765	0.029
766	0.028
766	0.027
767	0.026
767	0.024
768	0.021
768	0.02
768	0.019
769	0.018
769	0.017
770	0.015
770	0.014
771	0.012
771	0.01
771	0.008
772	0.006
772	0.004
773	0.002
773	0
774	-0.002
774	-0.005
775	-0.006
775	-0.008
775	-0.01
776	-0.012
776	-0.013
777	-0.015
777	-0.017
778	-0.019
778	-0.022
778	-0.024
779	-0.025
779	-0.027
780	-0.031
780	-0.034
781	-0.037
781	-0.041
781	-0.046
782	-0.051
782	-0.056
783	-0.061
783	-0.067
784	-0.074
784	-0.081
784	-0.088
785	-0.096
785	-0.103
786	-0.108
786	-0.111
787	-0.11
787	-0.111
788	-0.114
788	-0.117
788	-0.12
789	-0.123
789	-0.124
790	-0.122
790	-0.121
791	-0.122
791	-0.125
791	-0.128
792	-0.123
792	-0.113
793	-0.108
793	-0.104
794	-0.102
794	-0.103
794	-0.107
795	-0.108
795	-0.108
796	-0.108
796	-0.11
797	-0.118
797	-0.128
797	-0.134
798	-0.139
798	-0.142
799	-0.143
799	-0.143
800	-0.143
800	-0.145
801	-0.148
801	-0.149
801	-0.15
802	-0.151
802	-0.152
803	-0.152
803	-0.152
804	-0.151
804	-0.145
804	-0.138
805	-0.133
805	-0.13
806	-0.127
806	-0.126
807	-0.124
807	-0.124
807	-0.124
808	-0.123
808	-0.125
809	-0.13
809	-0.136
810	-0.14
810	-0.143
810	-0.147
811	-0.151
811	-0.152
812	-0.149
812	-0.146
813	-0.147
813	-0.148
813	-0.149
814	-0.15
814	-0.15
815	-0.148
815	-0.145
816	-0.143
816	-0.143
817	-0.146
817	-0.149
817	-0.147
818	-0.144
818	-0.138
819	-0.133
819	-0.127
820	-0.124
820	-0.12
820	-0.115
821	-0.108
821	-0.1
822	-0.091
822	-0.083
823	-0.076
823	-0.071
823	-0.065
824	-0.06
824	-0.053
825	-0.047
825	-0.041
826	-0.036
826	-0.032
826	-0.028
827	-0.025
827	-0.023
828	-0.02
828	-0.019
829	-0.017
829	-0.016
829	-0.016
830	-0.016
830	-0.016
831	-0.015
831	-0.014
832	-0.013
832	-0.012
832	-0.011
833	-0.01
833	-0.009
834	-0.009
834	-0.007
835	-0.006
835	-0.006
835	-0.005
836	-0.005
836	-0.004
837	-0.004
837	-0.004
838	-0.004
838	-0.004
839	-0.004
839	-0.004
839	-0.004
840	-0.004
840	-0.004
841	-0.004
841	-0.004
842	-0.003
842	-0.002
842	-0.001
843	-0.001
843	0
844	0.001
844	0.002
845	0.002
845	0.003
845	0.004
846	0.004
846	0.003
847	0.004
847	0.004
848	0.005
848	0.006
848	0.007
849	0.008
849	0.008
850	0.009
850	0.01
851	0.01
851	0.011
851	0.011
852	0.011
852	0.01
853	0.009
853	0.008
854	0.007
854	0.006
854	0.005
855	0.004
855	0.003
856	0.003
856	0.002
857	0.002
857	0.003
857	0.003
858	0.004
858	0.006
859	0.007
859	0.009
860	0.011
860	0.012
860	0.014
861	0.015
861	0.017
862	0.017
862	0.018
863	0.018
863	0.018
863	0.017
864	0.017
864	0.016
865	0.016
865	0.016
866	0.015
866	0.014
866	0.014
867	0.013
867	0.013
868	0.012
868	0.012
869	0.011
869	0.01
869	0.008
870	0.007
870	0.005
871	0.004
871	0.003
872	0.002
872	0.001
872	0.001
873	0
873	0
874	0
874	0.001
875	0.002
875	0.002
875	0.003
876	0.003
876	0.004
877	0.005
877	0.006
878	0.006
878	0.007
878	0.008
879	0.008
879	0.008
880	0.009
880	0.009
881	0.009
881	0.009
881	0.009
882	0.009
882	0.009
883	0.009
883	0.01
884	0.01
884	0.01
884	0.01
885	0.01
885	0.01
886	0.01
886	0.01
887	0.01
887	0.011
887	0.011
888	0.011
888	0.012
889	0.013
889	0.013
890	0.014
890	0.015
890	0.016
891	0.016
891	0.017
892	0.017
892	0.017
893	0.016
893	0.016
893	0.016
894	0.015
894	0.014
895	0.013
895	0.012
895	0.011
896	0.01
896	0.008
897	0.007
897	0.006
898	0.004
898	0.003
898	0.002
899	0.001
899	0.001
900	0
900	0
901	-0
901	-0
901	-0
902	-0
902	-0
903	-0
903	-0.001
904	-0.001
904	-0.001
904	-0.002
905	-0.002
905	-0.001
906	-0.001
906	-0.001
907	-0
907	0
907	0.001
908	0.002
908	0.003
909	0.004
909	0.006
910	0.007
910	0.008
910	0.009
911	0.009
911	0.01
912	0.01
912	0.01
913	0.01
913	0.009
913	0.009
914	0.008
914	0.007
915	0.006
915	0.006
916	0.005
916	0.005
916	0.005
917	0.004
917	0.004
918	0.004
918	0.004
918	0.004
919	0.003
919	0.003
920	0.003
920	0.003
921	0.002
921	0.002
921	0.001
922	0.001
922	0.001
923	0.001
923	0.001
924	0.002
924	0.002
924	0.003
925	0.003
925	0.003
926	0.004
926	0.004
927	0.004
927	0.004
927	0.003
928	0.003
928	0.003
929	0.003
929	0.002
930	0.002
930	0.002
930	0.002
931	0.001
931	0.001
932	0.001
932	0
933	-0
933	-0
933	-0.001
934	-0.001
934	-0.002
935	-0.002
935	-0.003
935	-0.003
936	-0.003
936	-0.003
937	-0.002
937	-0.002
938	-0.002
938	-0.002
938	-0.001
939	-0
939	0
940	0.001
940	0.002
941	0.002
941	0.003
941	0.003
942	0.004
942	0.004
943	0.005
943	0.005
944	0.005
944	0.006
944	0.006
945	0.007
945	0.007
946	0.008
946	0.008
946	0.008
947	0.009
947	0.009
948	0.01
948	0.01
949	0.01
949	0.01
949	0.011
950	0.012
950	0.012
951	0.013
951	0.014
952	0.014
952	0.015
952	0.016
953	0.017
953	0.017
954	0.017
954	0.017
955	0.017
955	0.016
955	0.016
956	0.015
956	0.015
957	0.013
957	0.012
957	0.011
958	0.01
958	0.01
959	0.009
959	0.008
960	0.007
960	0.005
960	0.004
961	0.002
961	0.001
962	-0
962	-0.002
963	-0.003
963	-0.004
963	-0.005
964	-0.006
964	-0.006
965	-0.007
965	-0.007
966	-0.007
966	-0.006
966	-0.006
967	-0.006
967	-0.006
968	-0.006
968	-0.006
968	-0.006
969	-0.006
969	-0.006
970	-0.005
970	-0.005
971	-0.005
971	-0.005
971	-0.005
972	-0.004
972	-0.003
973	-0.002
973	-0.002
974	-0.001
974	0
974	0.001
975	0.002
975	0.003
976	0.003
976	0.003
976	0.003
977	0.003
977	0.003
978	0.002
978	0.002
979	0.001
979	0
979	-0.001
980	-0.002
980	-0.003
981	-0.004
981	-0.005
982	-0.006
982	-0.006
982	-0.007
983	-0.007
983	-0.007
984	-0.007
984	-0.006
984	-0.006
985	-0.005
985	-0.004
986	-0.004
986	-0.003
987	-0.003
987	-0.002
987	-0.001
988	-0.001
988	-0.001
989	-0
989	-0
990	-0
990	-0
990	0
991	0
991	0.001
992	0.001
992	0.001
992	0.002
993	0.002
993	0.003
994	0.003
994	0.003
995	0.004
995	0.004
995	0.004
996	0.003
996	0.003
997	0.002
997	0.002
997	0.001
998	0
998	-0
999	-0.001
999	-0.002
1000	-0.002
1000	-0.002
1000	-0.003
1001	-0.003
1001	-0.003
1002	-0.003
1002	-0.004
1003	-0.004
1003	-0.004
1003	-0.004
1004	-0.004
1004	-0.005
1005	-0.005
1005	-0.006
1005	-0.007
1006	-0.007
1006	-0.007
1007	-0.008
1007	-0.008
1008	-0.009
1008	-0.009
1008	-0.009
1009	-0.01
1009	-0.01
1010	-0.01
1010	-0.01
1010	-0.01
1011	-0.01
1011	-0.009
1012	-0.009
1012	-0.009
1013	-0.009
1013	-0.009
1013	-0.008
1014	-0.008
1014	-0.008
1015	-0.007
1015	-0.007
1016	-0.006
1016	-0.006
1016	-0.005
1017	-0.005
1017	-0.004
1018	-0.004
1018	-0.003
1018	-0.003
1019	-0.002
1019	-0.001
1020	-0.001
1020	-0.002
1021	-0.002
1021	-0.002
1021	-0.003
1022	-0.003
1022	-0.003
1023	-0.003
1023	-0.004
1023	-0.005
1024	-0.006
1024	-0.006
1025	-0.007
1025	-0.007
1026	-0.007
1026	-0.007
1026	-0.007
1027	-0.007
1027	-0.007
1028	-0.006
1028	-0.006
1028	-0.006
1029	-0.005
1029	-0.005
1030	-0.005
1030	-0.005
1031	-0.005
1031	-0.005
1031	-0.005
1032	-0.005
1032	-0.006
1033	-0.006
1033	-0.007
1033	-0.007
1034	-0.008
1034	-0.009
1035	-0.01
1035	-0.011
1036	-0.012
1036	-0.012
1036	-0.013
1037	-0.013
1037	-0.014
1038	-0.014
1038	-0.014
1039	-0.014
1039	-0.014
1039	-0.013
1040	-0.014
1040	-0.014
1041	-0.014
1041	-0.014
1041	-0.015
1042	-0.016
1042	-0.016
1043	-0.017
1043	-0.017
1044	-0.018
1044	-0.018
1044	-0.018
1045	-0.019
1045	-0.019
1046	-0.02
1046	-0.02
1046	-0.02
1047	-0.02
1047	-0.019
1048	-0.018
1048	-0.018
1049	-0.018
1049	-0.018
1049	-0.017
1050	-0.016
1050	-0.016
1051	-0.015
1051	-0.014
1051	-0.013
1052	-0.012
1052	-0.012
1053	-0.011
1053	-0.01
1053	-0.009
1054	-0.008
1054	-0.008
1055	-0.007
1055	-0.007
1056	-0.007
1056	-0.007
1056	-0.008
1057	-0.009
1057	-0.009
1058	-0.01
1058	-0.011
1058	-0.011
1059	-0.012
1059	-0.013
1060	-0.014
1060	-0.014
1061	-0.015
1061	-0.015
1061	-0.015
1062	-0.016
1062	-0.016
1063	-0.016
1063	-0.017
1063	-0.017
1064	-0.017
1064	-0.017
1065	-0.016
1065	-0.016
1066	-0.016
1066	-0.015
1066	-0.014
1067	-0.013
1067	-0.012
1068	-0.011
1068	-0.01
1068	-0.01
1069	-0.009
1069	-0.009
1070	-0.008
1070	-0.008
1071	-0.007
1071	-0.006
1071	-0.006
1072	-0.005
1072	-0.004
1073	-0.003
1073	-0.001
1073	-0
1074	0.001
1074	0.002
1075	0.003
1075	0.003
1076	0.003
1076	0.004
1076	0.003
1077	0.003
1077	0.004
1078	0.004
1078	0.004
1078	0.005
1079	0.005
1079	0.006
1080	0.007
1080	0.008
1080	0.009
1081	0.01
1081	0.011
1082	0.012
1082	0.012
1083	0.012
1083	0.013
1083	0.014
1084	0.015
1084	0.016
1085	0.016
1085	0.017
1085	0.017
1086	0.018
1086	0.018
1087	0.019
1087	0.02
1088	0.021
1088	0.021
1088	0.022
1089	0.023
1089	0.024
1090	0.025
1090	0.026
1090	0.027
1091	0.028
1091	0.03
1092	0.031
1092	0.033
1092	0.034
1093	0.036
1093	0.038
1094	0.04
1094	0.041
1095	0.043
1095	0.045
1095	0.049
1096	0.051
1096	0.054
1097	0.058
1097	0.061
1097	0.065
1098	0.067
1098	0.071
1099	0.076
1099	0.08
1100	0.085
1100	0.09
1100	0.095
1101	0.101
1101	0.107
1102	0.115
1102	0.123
1102	0.133
1103	0.144
1103	0.155
1104	0.168
1104	0.182
1104	0.198
1105	0.212
1105	0.229
1106	0.246
1106	0.267
1107	0.29
1107	0.321
1107	0.364
1108	0.509
1108	0.795
1109	-0
1109	-0
1109	-0
1110	-0
1110	-0
1111	-0
1111	-0
