Data from 15c-2-2a_Absorbance__2484__04285.txt Node

Date: Wed Jan 24 14:26:40 CET 2024
User: Marek
Spectrometer: MAYP115816
Trigger mode: 0
Integration Time (sec): 2.000000E-1
Scans to average: 10
Electric dark correction enabled: true
Nonlinearity correction enabled: true
Boxcar width: 5
XAxis mode: Wavelengths
Number of Pixels in Spectrum: 2068
>>>>>Begin Spectral Data<<<<<
199	-1.827
199	-1.666
200	-1.506
200	-1.382
201	-1.308
201	-1.254
202	-1.183
202	-1.125
203	-1.075
203	-1.032
204	-1.003
204	-0.977
205	-0.955
205	-0.945
205	-0.943
206	-0.94
206	-0.938
207	-0.934
207	-0.932
208	-0.93
208	-0.929
209	-0.927
209	-0.927
210	-0.927
210	-0.924
211	-0.923
211	-0.923
212	-0.921
212	-0.919
213	-0.916
213	-0.914
213	-0.911
214	-0.909
214	-0.905
215	-0.904
215	-0.9
216	-0.899
216	-0.896
217	-0.894
217	-0.894
218	-0.894
218	-0.893
219	-0.891
219	-0.888
220	-0.886
220	-0.884
221	-0.884
221	-0.881
221	-0.876
222	-0.87
222	-0.863
223	-0.857
223	-0.851
224	-0.842
224	-0.834
225	-0.826
225	-0.816
226	-0.805
226	-0.793
227	-0.781
227	-0.769
228	-0.751
228	-0.732
229	-0.711
229	-0.688
229	-0.66
230	-0.63
230	-0.596
231	-0.56
231	-0.521
232	-0.48
232	-0.437
233	-0.392
233	-0.346
234	-0.299
234	-0.253
235	-0.208
235	-0.162
236	-0.12
236	-0.077
236	-0.037
237	0.002
237	0.037
238	0.071
238	0.103
239	0.132
239	0.159
240	0.185
240	0.208
241	0.229
241	0.248
242	0.265
242	0.281
243	0.296
243	0.309
243	0.321
244	0.332
244	0.342
245	0.351
245	0.359
246	0.367
246	0.375
247	0.382
247	0.388
248	0.394
248	0.4
249	0.405
249	0.409
250	0.414
250	0.418
250	0.422
251	0.426
251	0.429
252	0.433
252	0.436
253	0.439
253	0.441
254	0.444
254	0.447
255	0.449
255	0.451
256	0.452
256	0.454
257	0.456
257	0.457
258	0.458
258	0.459
258	0.46
259	0.461
259	0.461
260	0.462
260	0.462
261	0.463
261	0.463
262	0.463
262	0.463
263	0.464
263	0.463
264	0.463
264	0.463
265	0.462
265	0.462
265	0.461
266	0.46
266	0.459
267	0.458
267	0.457
268	0.456
268	0.454
269	0.453
269	0.451
270	0.449
270	0.448
271	0.446
271	0.444
272	0.443
272	0.441
272	0.439
273	0.437
273	0.436
274	0.434
274	0.432
275	0.43
275	0.429
276	0.427
276	0.424
277	0.422
277	0.419
278	0.417
278	0.415
278	0.412
279	0.409
279	0.406
280	0.404
280	0.402
281	0.4
281	0.398
282	0.396
282	0.394
283	0.393
283	0.391
284	0.39
284	0.389
285	0.387
285	0.385
285	0.383
286	0.381
286	0.38
287	0.378
287	0.376
288	0.375
288	0.373
289	0.371
289	0.37
290	0.368
290	0.367
291	0.366
291	0.364
292	0.363
292	0.362
292	0.36
293	0.359
293	0.357
294	0.356
294	0.355
295	0.354
295	0.353
296	0.351
296	0.35
297	0.349
297	0.348
298	0.347
298	0.346
298	0.345
299	0.344
299	0.343
300	0.342
300	0.341
301	0.34
301	0.339
302	0.338
302	0.337
303	0.337
303	0.336
304	0.335
304	0.334
305	0.333
305	0.332
305	0.331
306	0.331
306	0.33
307	0.329
307	0.328
308	0.327
308	0.326
309	0.325
309	0.324
310	0.324
310	0.323
311	0.322
311	0.321
311	0.32
312	0.32
312	0.319
313	0.318
313	0.317
314	0.316
314	0.315
315	0.314
315	0.313
316	0.312
316	0.311
317	0.311
317	0.31
318	0.309
318	0.308
318	0.307
319	0.306
319	0.306
320	0.305
320	0.304
321	0.303
321	0.302
322	0.301
322	0.3
323	0.3
323	0.299
324	0.298
324	0.297
324	0.296
325	0.296
325	0.295
326	0.294
326	0.293
327	0.292
327	0.292
328	0.291
328	0.29
329	0.289
329	0.288
330	0.287
330	0.287
330	0.286
331	0.285
331	0.284
332	0.284
332	0.283
333	0.282
333	0.281
334	0.28
334	0.28
335	0.279
335	0.278
336	0.278
336	0.277
336	0.276
337	0.276
337	0.275
338	0.275
338	0.274
339	0.274
339	0.273
340	0.272
340	0.272
341	0.271
341	0.271
342	0.27
342	0.27
342	0.269
343	0.268
343	0.268
344	0.267
344	0.267
345	0.266
345	0.266
346	0.265
346	0.265
347	0.265
347	0.264
348	0.264
348	0.264
348	0.263
349	0.263
349	0.262
350	0.262
350	0.262
351	0.261
351	0.26
352	0.26
352	0.259
353	0.258
353	0.258
354	0.257
354	0.256
354	0.256
355	0.255
355	0.254
356	0.253
356	0.253
357	0.252
357	0.252
358	0.251
358	0.251
359	0.252
359	0.252
360	0.252
360	0.253
360	0.253
361	0.254
361	0.254
362	0.254
362	0.254
363	0.254
363	0.254
364	0.254
364	0.253
365	0.253
365	0.253
366	0.252
366	0.252
366	0.252
367	0.251
367	0.251
368	0.251
368	0.25
369	0.25
369	0.25
370	0.249
370	0.249
371	0.249
371	0.249
372	0.248
372	0.248
372	0.248
373	0.248
373	0.248
374	0.247
374	0.247
375	0.247
375	0.247
376	0.247
376	0.247
377	0.247
377	0.247
378	0.246
378	0.246
378	0.246
379	0.246
379	0.246
380	0.246
380	0.246
381	0.246
381	0.245
382	0.245
382	0.245
383	0.244
383	0.244
383	0.244
384	0.243
384	0.243
385	0.243
385	0.243
386	0.243
386	0.243
387	0.243
387	0.242
388	0.242
388	0.242
389	0.242
389	0.242
389	0.242
390	0.242
390	0.241
391	0.241
391	0.242
392	0.242
392	0.241
393	0.241
393	0.241
394	0.241
394	0.241
394	0.24
395	0.24
395	0.24
396	0.239
396	0.239
397	0.239
397	0.239
398	0.239
398	0.239
399	0.238
399	0.238
400	0.238
400	0.237
400	0.237
401	0.237
401	0.236
402	0.235
402	0.235
403	0.235
403	0.234
404	0.234
404	0.234
405	0.234
405	0.234
405	0.233
406	0.233
406	0.233
407	0.233
407	0.233
408	0.232
408	0.232
409	0.231
409	0.231
410	0.231
410	0.231
411	0.231
411	0.23
411	0.23
412	0.23
412	0.229
413	0.229
413	0.229
414	0.229
414	0.229
415	0.228
415	0.228
416	0.228
416	0.227
416	0.227
417	0.227
417	0.226
418	0.226
418	0.226
419	0.226
419	0.226
420	0.227
420	0.227
421	0.227
421	0.227
421	0.228
422	0.228
422	0.228
423	0.227
423	0.227
424	0.227
424	0.226
425	0.226
425	0.225
426	0.224
426	0.224
427	0.223
427	0.223
427	0.224
428	0.224
428	0.224
429	0.225
429	0.225
430	0.225
430	0.225
431	0.225
431	0.225
432	0.225
432	0.224
432	0.224
433	0.223
433	0.223
434	0.222
434	0.222
435	0.222
435	0.222
436	0.222
436	0.222
437	0.222
437	0.221
437	0.221
438	0.221
438	0.221
439	0.22
439	0.22
440	0.22
440	0.22
441	0.22
441	0.22
442	0.22
442	0.22
442	0.22
443	0.221
443	0.221
444	0.221
444	0.221
445	0.221
445	0.222
446	0.222
446	0.222
447	0.222
447	0.221
447	0.221
448	0.221
448	0.221
449	0.221
449	0.221
450	0.221
450	0.22
451	0.22
451	0.22
452	0.219
452	0.219
452	0.219
453	0.219
453	0.218
454	0.218
454	0.217
455	0.217
455	0.217
456	0.216
456	0.216
457	0.215
457	0.215
458	0.215
458	0.215
458	0.215
459	0.215
459	0.216
460	0.216
460	0.215
461	0.215
461	0.216
462	0.216
462	0.216
463	0.217
463	0.217
463	0.218
464	0.218
464	0.218
465	0.218
465	0.218
466	0.218
466	0.219
467	0.219
467	0.219
467	0.218
468	0.218
468	0.217
469	0.216
469	0.216
470	0.216
470	0.216
471	0.216
471	0.216
472	0.217
472	0.217
472	0.217
473	0.218
473	0.219
474	0.22
474	0.221
475	0.222
475	0.222
476	0.223
476	0.223
477	0.223
477	0.224
477	0.224
478	0.225
478	0.225
479	0.226
479	0.227
480	0.228
480	0.229
481	0.23
481	0.231
482	0.232
482	0.233
482	0.235
483	0.236
483	0.239
484	0.241
484	0.242
485	0.244
485	0.245
486	0.246
486	0.247
487	0.248
487	0.249
487	0.249
488	0.249
488	0.249
489	0.249
489	0.249
490	0.25
490	0.25
491	0.251
491	0.252
492	0.253
492	0.255
492	0.256
493	0.257
493	0.259
494	0.261
494	0.263
495	0.265
495	0.267
496	0.268
496	0.27
496	0.272
497	0.273
497	0.275
498	0.276
498	0.277
499	0.278
499	0.28
500	0.281
500	0.283
501	0.286
501	0.287
501	0.289
502	0.291
502	0.293
503	0.295
503	0.297
504	0.298
504	0.299
505	0.301
505	0.301
506	0.302
506	0.304
506	0.305
507	0.305
507	0.306
508	0.307
508	0.308
509	0.31
509	0.311
510	0.313
510	0.314
511	0.314
511	0.315
511	0.316
512	0.317
512	0.318
513	0.319
513	0.319
514	0.318
514	0.318
515	0.318
515	0.319
515	0.319
516	0.32
516	0.321
517	0.322
517	0.323
518	0.323
518	0.323
519	0.323
519	0.322
520	0.321
520	0.32
520	0.318
521	0.316
521	0.314
522	0.312
522	0.311
523	0.311
523	0.311
524	0.312
524	0.314
524	0.316
525	0.318
525	0.32
526	0.323
526	0.325
527	0.327
527	0.328
528	0.329
528	0.33
529	0.33
529	0.33
529	0.329
530	0.329
530	0.328
531	0.328
531	0.327
532	0.326
532	0.325
533	0.324
533	0.323
533	0.322
534	0.321
534	0.319
535	0.318
535	0.317
536	0.315
536	0.314
537	0.312
537	0.311
538	0.31
538	0.308
538	0.306
539	0.304
539	0.303
540	0.301
540	0.299
541	0.297
541	0.295
542	0.293
542	0.29
542	0.288
543	0.286
543	0.284
544	0.281
544	0.279
545	0.278
545	0.276
546	0.274
546	0.272
547	0.27
547	0.268
547	0.265
548	0.263
548	0.26
549	0.258
549	0.255
550	0.253
550	0.251
551	0.248
551	0.245
551	0.242
552	0.24
552	0.238
553	0.236
553	0.234
554	0.232
554	0.23
555	0.227
555	0.224
556	0.221
556	0.218
556	0.215
557	0.212
557	0.209
558	0.207
558	0.204
559	0.202
559	0.2
560	0.198
560	0.196
560	0.194
561	0.193
561	0.192
562	0.19
562	0.188
563	0.186
563	0.184
564	0.182
564	0.179
564	0.177
565	0.174
565	0.173
566	0.17
566	0.168
567	0.167
567	0.165
568	0.164
568	0.164
568	0.164
569	0.164
569	0.164
570	0.164
570	0.162
571	0.162
571	0.162
572	0.161
572	0.16
573	0.159
573	0.158
573	0.156
574	0.155
574	0.153
575	0.152
575	0.152
576	0.151
576	0.15
577	0.148
577	0.146
577	0.145
578	0.143
578	0.143
579	0.143
579	0.143
580	0.142
580	0.139
581	0.136
581	0.135
581	0.134
582	0.133
582	0.132
583	0.132
583	0.131
584	0.128
584	0.124
585	0.123
585	0.122
585	0.122
586	0.121
586	0.121
587	0.119
587	0.118
588	0.116
588	0.114
589	0.113
589	0.112
590	0.111
590	0.11
590	0.111
591	0.111
591	0.111
592	0.11
592	0.109
593	0.109
593	0.108
594	0.107
594	0.106
594	0.105
595	0.104
595	0.103
596	0.101
596	0.102
597	0.103
597	0.104
598	0.104
598	0.104
598	0.105
599	0.105
599	0.105
600	0.104
600	0.103
601	0.103
601	0.102
602	0.101
602	0.1
602	0.099
603	0.099
603	0.1
604	0.1
604	0.101
605	0.102
605	0.103
606	0.103
606	0.102
606	0.101
607	0.1
607	0.1
608	0.099
608	0.098
609	0.097
609	0.097
610	0.096
610	0.094
610	0.094
611	0.095
611	0.096
612	0.097
612	0.098
613	0.099
613	0.1
614	0.1
614	0.1
614	0.1
615	0.1
615	0.099
616	0.099
616	0.099
617	0.099
617	0.098
618	0.098
618	0.097
618	0.097
619	0.097
619	0.098
620	0.1
620	0.101
621	0.101
621	0.102
622	0.102
622	0.103
622	0.103
623	0.104
623	0.105
624	0.106
624	0.106
625	0.106
625	0.106
626	0.107
626	0.107
626	0.108
627	0.108
627	0.109
628	0.11
628	0.11
629	0.111
629	0.111
630	0.111
630	0.111
630	0.112
631	0.113
631	0.115
632	0.115
632	0.116
633	0.118
633	0.119
634	0.121
634	0.122
634	0.125
635	0.126
635	0.128
636	0.13
636	0.131
637	0.133
637	0.134
638	0.136
638	0.137
638	0.139
639	0.14
639	0.142
640	0.144
640	0.146
641	0.148
641	0.15
642	0.152
642	0.154
642	0.156
643	0.158
643	0.16
644	0.161
644	0.163
645	0.165
645	0.167
646	0.169
646	0.172
646	0.175
647	0.178
647	0.181
648	0.184
648	0.188
649	0.191
649	0.194
650	0.197
650	0.2
650	0.203
651	0.206
651	0.208
652	0.211
652	0.213
653	0.217
653	0.225
653	0.235
654	0.186
654	0.151
655	0.156
655	0.159
656	0.161
656	0.163
657	0.165
657	0.167
657	0.168
658	0.166
658	0.157
659	0.199
659	0.26
660	0.265
660	0.268
661	0.27
661	0.273
661	0.276
662	0.279
662	0.283
663	0.287
663	0.291
664	0.294
664	0.297
665	0.301
665	0.304
665	0.307
666	0.311
666	0.313
667	0.316
667	0.319
668	0.322
668	0.325
669	0.328
669	0.332
669	0.336
670	0.34
670	0.344
671	0.347
671	0.35
672	0.352
672	0.355
672	0.357
673	0.359
673	0.361
674	0.363
674	0.363
675	0.364
675	0.365
676	0.367
676	0.369
676	0.37
677	0.372
677	0.374
678	0.376
678	0.377
679	0.379
679	0.381
680	0.383
680	0.385
680	0.386
681	0.387
681	0.388
682	0.389
682	0.39
683	0.391
683	0.393
684	0.395
684	0.396
684	0.396
685	0.397
685	0.398
686	0.399
686	0.4
687	0.4
687	0.4
687	0.399
688	0.398
688	0.397
689	0.397
689	0.397
690	0.396
690	0.395
691	0.395
691	0.394
691	0.393
692	0.392
692	0.391
693	0.391
693	0.391
694	0.39
694	0.388
695	0.387
695	0.388
695	0.387
696	0.386
696	0.384
697	0.383
697	0.382
698	0.381
698	0.379
698	0.377
699	0.376
699	0.374
700	0.371
700	0.369
701	0.368
701	0.366
702	0.365
702	0.363
702	0.361
703	0.359
703	0.356
704	0.354
704	0.352
705	0.35
705	0.348
705	0.345
706	0.343
706	0.34
707	0.338
707	0.335
708	0.332
708	0.33
709	0.327
709	0.324
709	0.32
710	0.317
710	0.314
711	0.311
711	0.309
712	0.306
712	0.304
713	0.302
713	0.3
713	0.297
714	0.295
714	0.293
715	0.291
715	0.288
716	0.286
716	0.284
716	0.282
717	0.28
717	0.278
718	0.275
718	0.273
719	0.271
719	0.269
720	0.267
720	0.264
720	0.261
721	0.257
721	0.254
722	0.251
722	0.247
723	0.244
723	0.241
723	0.238
724	0.235
724	0.232
725	0.229
725	0.227
726	0.224
726	0.221
727	0.219
727	0.217
727	0.214
728	0.212
728	0.209
729	0.207
729	0.205
730	0.203
730	0.2
730	0.198
731	0.195
731	0.193
732	0.192
732	0.19
733	0.189
733	0.187
734	0.185
734	0.183
734	0.182
735	0.18
735	0.178
736	0.176
736	0.174
737	0.172
737	0.17
737	0.168
738	0.164
738	0.161
739	0.158
739	0.155
740	0.152
740	0.149
741	0.147
741	0.144
741	0.14
742	0.135
742	0.132
743	0.129
743	0.126
744	0.123
744	0.121
744	0.118
745	0.115
745	0.113
746	0.111
746	0.11
747	0.109
747	0.108
748	0.108
748	0.107
748	0.106
749	0.105
749	0.105
750	0.104
750	0.103
751	0.102
751	0.102
751	0.101
752	0.1
752	0.098
753	0.097
753	0.095
754	0.094
754	0.093
754	0.093
755	0.092
755	0.092
756	0.091
756	0.089
757	0.089
757	0.089
758	0.088
758	0.088
758	0.087
759	0.086
759	0.084
760	0.083
760	0.081
761	0.08
761	0.08
761	0.079
762	0.077
762	0.076
763	0.075
763	0.073
764	0.071
764	0.069
764	0.067
765	0.065
765	0.063
766	0.061
766	0.06
767	0.058
767	0.055
768	0.052
768	0.05
768	0.048
769	0.047
769	0.045
770	0.043
770	0.041
771	0.039
771	0.036
771	0.033
772	0.031
772	0.029
773	0.027
773	0.024
774	0.021
774	0.019
775	0.017
775	0.015
775	0.012
776	0.01
776	0.008
777	0.006
777	0.004
778	0.002
778	-0.001
778	-0.004
779	-0.006
779	-0.008
780	-0.012
780	-0.015
781	-0.019
781	-0.024
781	-0.029
782	-0.035
782	-0.041
783	-0.048
783	-0.054
784	-0.062
784	-0.07
784	-0.079
785	-0.087
785	-0.096
786	-0.102
786	-0.106
787	-0.106
787	-0.107
788	-0.111
788	-0.115
788	-0.119
789	-0.122
789	-0.123
790	-0.121
790	-0.121
791	-0.122
791	-0.124
791	-0.127
792	-0.123
792	-0.113
793	-0.107
793	-0.103
794	-0.101
794	-0.103
794	-0.106
795	-0.108
795	-0.108
796	-0.107
796	-0.11
797	-0.118
797	-0.128
797	-0.134
798	-0.139
798	-0.142
799	-0.142
799	-0.142
800	-0.142
800	-0.144
801	-0.148
801	-0.149
801	-0.149
802	-0.151
802	-0.152
803	-0.152
803	-0.152
804	-0.15
804	-0.145
804	-0.138
805	-0.133
805	-0.13
806	-0.127
806	-0.125
807	-0.124
807	-0.123
807	-0.123
808	-0.123
808	-0.124
809	-0.129
809	-0.135
810	-0.139
810	-0.143
810	-0.147
811	-0.15
811	-0.151
812	-0.148
812	-0.146
813	-0.146
813	-0.148
813	-0.149
814	-0.15
814	-0.15
815	-0.147
815	-0.144
816	-0.142
816	-0.142
817	-0.146
817	-0.149
817	-0.148
818	-0.144
818	-0.139
819	-0.132
819	-0.127
820	-0.123
820	-0.118
820	-0.113
821	-0.105
821	-0.096
822	-0.087
822	-0.078
823	-0.07
823	-0.063
823	-0.057
824	-0.051
824	-0.045
825	-0.038
825	-0.031
826	-0.025
826	-0.021
826	-0.017
827	-0.013
827	-0.01
828	-0.008
828	-0.006
829	-0.004
829	-0.003
829	-0.003
830	-0.003
830	-0.002
831	-0.001
831	-0
832	0
832	0.001
832	0.002
833	0.003
833	0.004
834	0.005
834	0.005
835	0.007
835	0.007
835	0.008
836	0.008
836	0.009
837	0.009
837	0.01
838	0.01
838	0.01
839	0.01
839	0.01
839	0.01
840	0.01
840	0.01
841	0.01
841	0.011
842	0.011
842	0.012
842	0.013
843	0.014
843	0.015
844	0.016
844	0.017
845	0.017
845	0.018
845	0.019
846	0.019
846	0.018
847	0.018
847	0.019
848	0.019
848	0.019
848	0.02
849	0.021
849	0.022
850	0.022
850	0.022
851	0.023
851	0.023
851	0.023
852	0.023
852	0.022
853	0.022
853	0.021
854	0.02
854	0.019
854	0.018
855	0.017
855	0.016
856	0.016
856	0.016
857	0.016
857	0.016
857	0.017
858	0.018
858	0.019
859	0.021
859	0.022
860	0.024
860	0.026
860	0.027
861	0.029
861	0.03
862	0.03
862	0.03
863	0.03
863	0.03
863	0.03
864	0.029
864	0.028
865	0.028
865	0.027
866	0.027
866	0.026
866	0.026
867	0.025
867	0.025
868	0.024
868	0.024
869	0.023
869	0.022
869	0.021
870	0.019
870	0.018
871	0.017
871	0.016
872	0.015
872	0.015
872	0.014
873	0.014
873	0.013
874	0.013
874	0.014
875	0.015
875	0.015
875	0.016
876	0.016
876	0.017
877	0.017
877	0.018
878	0.018
878	0.019
878	0.019
879	0.02
879	0.02
880	0.02
880	0.02
881	0.02
881	0.02
881	0.02
882	0.02
882	0.02
883	0.02
883	0.02
884	0.02
884	0.021
884	0.021
885	0.021
885	0.021
886	0.021
886	0.022
887	0.022
887	0.022
887	0.022
888	0.022
888	0.023
889	0.023
889	0.024
890	0.025
890	0.026
890	0.026
891	0.027
891	0.027
892	0.027
892	0.028
893	0.027
893	0.027
893	0.027
894	0.026
894	0.025
895	0.024
895	0.023
895	0.021
896	0.02
896	0.019
897	0.017
897	0.016
898	0.015
898	0.014
898	0.013
899	0.013
899	0.012
900	0.012
900	0.012
901	0.013
901	0.013
901	0.013
902	0.013
902	0.013
903	0.013
903	0.013
904	0.013
904	0.012
904	0.012
905	0.011
905	0.011
906	0.012
906	0.012
907	0.012
907	0.013
907	0.014
908	0.015
908	0.016
909	0.017
909	0.018
910	0.02
910	0.02
910	0.021
911	0.021
911	0.022
912	0.022
912	0.022
913	0.022
913	0.021
913	0.02
914	0.019
914	0.018
915	0.018
915	0.017
916	0.017
916	0.016
916	0.016
917	0.016
917	0.016
918	0.015
918	0.015
918	0.015
919	0.015
919	0.014
920	0.014
920	0.014
921	0.013
921	0.012
921	0.011
922	0.011
922	0.011
923	0.011
923	0.011
924	0.012
924	0.012
924	0.012
925	0.012
925	0.013
926	0.013
926	0.013
927	0.013
927	0.013
927	0.013
928	0.013
928	0.013
929	0.013
929	0.013
930	0.013
930	0.012
930	0.012
931	0.012
931	0.012
932	0.012
932	0.011
933	0.011
933	0.011
933	0.011
934	0.01
934	0.01
935	0.009
935	0.009
935	0.009
936	0.009
936	0.009
937	0.009
937	0.009
938	0.009
938	0.009
938	0.009
939	0.01
939	0.01
940	0.011
940	0.012
941	0.013
941	0.013
941	0.014
942	0.014
942	0.015
943	0.015
943	0.015
944	0.015
944	0.015
944	0.016
945	0.016
945	0.017
946	0.017
946	0.018
946	0.018
947	0.019
947	0.019
948	0.02
948	0.02
949	0.02
949	0.021
949	0.022
950	0.022
950	0.023
951	0.024
951	0.024
952	0.025
952	0.026
952	0.027
953	0.028
953	0.028
954	0.028
954	0.028
955	0.027
955	0.027
955	0.026
956	0.026
956	0.024
957	0.023
957	0.022
957	0.02
958	0.019
958	0.018
959	0.017
959	0.016
960	0.015
960	0.013
960	0.012
961	0.011
961	0.009
962	0.008
962	0.007
963	0.006
963	0.005
963	0.004
964	0.003
964	0.003
965	0.003
965	0.002
966	0.003
966	0.003
966	0.003
967	0.004
967	0.004
968	0.004
968	0.004
968	0.004
969	0.004
969	0.004
970	0.004
970	0.004
971	0.005
971	0.005
971	0.006
972	0.006
972	0.007
973	0.008
973	0.008
974	0.009
974	0.01
974	0.01
975	0.011
975	0.012
976	0.012
976	0.012
976	0.012
977	0.012
977	0.012
978	0.011
978	0.011
979	0.01
979	0.009
979	0.008
980	0.007
980	0.006
981	0.005
981	0.004
982	0.003
982	0.003
982	0.002
983	0.002
983	0.002
984	0.002
984	0.002
984	0.003
985	0.004
985	0.004
986	0.005
986	0.005
987	0.006
987	0.006
987	0.007
988	0.007
988	0.008
989	0.008
989	0.008
990	0.008
990	0.008
990	0.009
991	0.009
991	0.009
992	0.01
992	0.01
992	0.011
993	0.011
993	0.011
994	0.012
994	0.012
995	0.012
995	0.012
995	0.012
996	0.011
996	0.011
997	0.01
997	0.01
997	0.009
998	0.009
998	0.008
999	0.008
999	0.007
1000	0.007
1000	0.006
1000	0.006
1001	0.006
1001	0.006
1002	0.006
1002	0.006
1003	0.005
1003	0.005
1003	0.005
1004	0.004
1004	0.004
1005	0.003
1005	0.002
1005	0.001
1006	0
1006	-0
1007	-0.001
1007	-0.002
1008	-0.003
1008	-0.003
1008	-0.003
1009	-0.004
1009	-0.004
1010	-0.004
1010	-0.004
1010	-0.004
1011	-0.004
1011	-0.003
1012	-0.003
1012	-0.002
1013	-0.002
1013	-0.001
1013	-0.001
1014	-0
1014	0
1015	0.001
1015	0.002
1016	0.002
1016	0.003
1016	0.004
1017	0.004
1017	0.005
1018	0.006
1018	0.007
1018	0.007
1019	0.008
1019	0.008
1020	0.008
1020	0.008
1021	0.008
1021	0.008
1021	0.008
1022	0.007
1022	0.007
1023	0.006
1023	0.005
1023	0.005
1024	0.004
1024	0.003
1025	0.002
1025	0.002
1026	0.002
1026	0.001
1026	0.001
1027	0.001
1027	0.002
1028	0.002
1028	0.003
1028	0.003
1029	0.003
1029	0.004
1030	0.004
1030	0.004
1031	0.004
1031	0.005
1031	0.005
1032	0.004
1032	0.004
1033	0.004
1033	0.003
1033	0.002
1034	0.001
1034	0
1035	-0.001
1035	-0.001
1036	-0.002
1036	-0.003
1036	-0.003
1037	-0.004
1037	-0.004
1038	-0.005
1038	-0.005
1039	-0.005
1039	-0.005
1039	-0.004
1040	-0.005
1040	-0.005
1041	-0.005
1041	-0.006
1041	-0.006
1042	-0.006
1042	-0.007
1043	-0.008
1043	-0.008
1044	-0.009
1044	-0.009
1044	-0.009
1045	-0.01
1045	-0.01
1046	-0.01
1046	-0.011
1046	-0.01
1047	-0.01
1047	-0.009
1048	-0.009
1048	-0.008
1049	-0.008
1049	-0.007
1049	-0.007
1050	-0.006
1050	-0.005
1051	-0.004
1051	-0.003
1051	-0.002
1052	-0.001
1052	-0
1053	0
1053	0.001
1053	0.002
1054	0.003
1054	0.003
1055	0.004
1055	0.004
1056	0.004
1056	0.004
1056	0.003
1057	0.002
1057	0.001
1058	0.001
1058	-0
1058	-0.001
1059	-0.002
1059	-0.003
1060	-0.003
1060	-0.004
1061	-0.005
1061	-0.005
1061	-0.005
1062	-0.005
1062	-0.006
1063	-0.007
1063	-0.007
1063	-0.008
1064	-0.007
1064	-0.007
1065	-0.007
1065	-0.007
1066	-0.006
1066	-0.006
1066	-0.005
1067	-0.004
1067	-0.003
1068	-0.001
1068	-0
1068	0.001
1069	0.001
1069	0.002
1070	0.002
1070	0.003
1071	0.004
1071	0.005
1071	0.006
1072	0.007
1072	0.008
1073	0.009
1073	0.011
1073	0.012
1074	0.013
1074	0.014
1075	0.014
1075	0.015
1076	0.015
1076	0.015
1076	0.015
1077	0.015
1077	0.015
1078	0.015
1078	0.016
1078	0.017
1079	0.017
1079	0.018
1080	0.019
1080	0.02
1080	0.02
1081	0.022
1081	0.023
1082	0.023
1082	0.023
1083	0.024
1083	0.024
1083	0.025
1084	0.026
1084	0.027
1085	0.028
1085	0.029
1085	0.031
1086	0.032
1086	0.032
1087	0.034
1087	0.035
1088	0.035
1088	0.036
1088	0.038
1089	0.039
1089	0.04
1090	0.041
1090	0.042
1090	0.044
1091	0.045
1091	0.047
1092	0.05
1092	0.053
1092	0.055
1093	0.056
1093	0.059
1094	0.062
1094	0.064
1095	0.065
1095	0.068
1095	0.072
1096	0.075
1096	0.078
1097	0.081
1097	0.085
1097	0.089
1098	0.092
1098	0.096
1099	0.103
1099	0.108
1100	0.115
1100	0.12
1100	0.127
1101	0.135
1101	0.143
1102	0.153
1102	0.165
1102	0.178
1103	0.191
1103	0.204
1104	0.222
1104	0.24
1104	0.262
1105	0.283
1105	0.305
1106	0.329
1106	0.359
1107	0.391
1107	0.439
1107	0.507
1108	0.757
1108	1.981
1109	-0
1109	-0
1109	-0
1110	-0
1110	-0
1111	-0
1111	-0
