Data from 15c-2-2a_Absorbance__283__02084.txt Node

Date: Wed Jan 24 13:13:19 CET 2024
User: Marek
Spectrometer: MAYP115816
Trigger mode: 0
Integration Time (sec): 2.000000E-1
Scans to average: 10
Electric dark correction enabled: true
Nonlinearity correction enabled: true
Boxcar width: 5
XAxis mode: Wavelengths
Number of Pixels in Spectrum: 2068
>>>>>Begin Spectral Data<<<<<
199	-1.783
199	-1.623
200	-1.465
200	-1.342
201	-1.27
201	-1.218
202	-1.148
202	-1.091
203	-1.044
203	-1.003
204	-0.975
204	-0.95
205	-0.928
205	-0.919
205	-0.917
206	-0.913
206	-0.912
207	-0.908
207	-0.905
208	-0.904
208	-0.902
209	-0.9
209	-0.901
210	-0.9
210	-0.898
211	-0.897
211	-0.896
212	-0.894
212	-0.892
213	-0.889
213	-0.887
213	-0.885
214	-0.883
214	-0.879
215	-0.878
215	-0.875
216	-0.873
216	-0.871
217	-0.869
217	-0.87
218	-0.87
218	-0.869
219	-0.867
219	-0.865
220	-0.863
220	-0.861
221	-0.862
221	-0.859
221	-0.855
222	-0.85
222	-0.844
223	-0.838
223	-0.833
224	-0.825
224	-0.816
225	-0.809
225	-0.799
226	-0.789
226	-0.778
227	-0.765
227	-0.754
228	-0.736
228	-0.719
229	-0.698
229	-0.677
229	-0.652
230	-0.624
230	-0.593
231	-0.56
231	-0.525
232	-0.488
232	-0.45
233	-0.413
233	-0.373
234	-0.334
234	-0.296
235	-0.259
235	-0.224
236	-0.191
236	-0.16
236	-0.131
237	-0.103
237	-0.078
238	-0.055
238	-0.034
239	-0.015
239	0.002
240	0.018
240	0.031
241	0.043
241	0.055
242	0.064
242	0.073
243	0.081
243	0.088
243	0.094
244	0.1
244	0.105
245	0.109
245	0.114
246	0.118
246	0.122
247	0.126
247	0.13
248	0.133
248	0.136
249	0.139
249	0.142
250	0.144
250	0.147
250	0.15
251	0.152
251	0.154
252	0.156
252	0.158
253	0.16
253	0.162
254	0.164
254	0.165
255	0.167
255	0.168
256	0.169
256	0.17
257	0.171
257	0.172
258	0.173
258	0.173
258	0.174
259	0.175
259	0.175
260	0.175
260	0.176
261	0.176
261	0.176
262	0.176
262	0.176
263	0.176
263	0.176
264	0.175
264	0.175
265	0.174
265	0.174
265	0.173
266	0.172
266	0.172
267	0.171
267	0.17
268	0.169
268	0.168
269	0.166
269	0.165
270	0.163
270	0.162
271	0.16
271	0.159
272	0.157
272	0.156
272	0.154
273	0.153
273	0.151
274	0.15
274	0.149
275	0.147
275	0.146
276	0.145
276	0.143
277	0.141
277	0.14
278	0.138
278	0.136
278	0.134
279	0.132
279	0.13
280	0.128
280	0.126
281	0.124
281	0.123
282	0.121
282	0.12
283	0.118
283	0.117
284	0.116
284	0.115
285	0.114
285	0.113
285	0.112
286	0.11
286	0.109
287	0.108
287	0.107
288	0.106
288	0.105
289	0.103
289	0.102
290	0.101
290	0.1
291	0.099
291	0.098
292	0.098
292	0.097
292	0.096
293	0.095
293	0.094
294	0.093
294	0.093
295	0.092
295	0.092
296	0.091
296	0.091
297	0.09
297	0.09
298	0.089
298	0.089
298	0.088
299	0.088
299	0.087
300	0.087
300	0.087
301	0.086
301	0.086
302	0.085
302	0.085
303	0.085
303	0.085
304	0.084
304	0.084
305	0.084
305	0.084
305	0.083
306	0.083
306	0.083
307	0.082
307	0.082
308	0.082
308	0.081
309	0.081
309	0.081
310	0.081
310	0.08
311	0.08
311	0.08
311	0.079
312	0.079
312	0.079
313	0.078
313	0.078
314	0.078
314	0.077
315	0.077
315	0.077
316	0.076
316	0.076
317	0.076
317	0.075
318	0.075
318	0.075
318	0.075
319	0.074
319	0.074
320	0.074
320	0.073
321	0.073
321	0.073
322	0.072
322	0.072
323	0.072
323	0.072
324	0.071
324	0.071
324	0.071
325	0.071
325	0.07
326	0.07
326	0.07
327	0.069
327	0.069
328	0.069
328	0.068
329	0.068
329	0.068
330	0.067
330	0.067
330	0.067
331	0.067
331	0.066
332	0.066
332	0.065
333	0.065
333	0.065
334	0.065
334	0.064
335	0.064
335	0.064
336	0.064
336	0.063
336	0.063
337	0.063
337	0.063
338	0.062
338	0.062
339	0.062
339	0.062
340	0.061
340	0.061
341	0.061
341	0.06
342	0.06
342	0.06
342	0.06
343	0.059
343	0.059
344	0.059
344	0.058
345	0.058
345	0.058
346	0.058
346	0.058
347	0.058
347	0.057
348	0.057
348	0.057
348	0.057
349	0.057
349	0.056
350	0.056
350	0.056
351	0.056
351	0.055
352	0.055
352	0.055
353	0.054
353	0.054
354	0.054
354	0.053
354	0.053
355	0.052
355	0.052
356	0.052
356	0.051
357	0.051
357	0.051
358	0.05
358	0.05
359	0.05
359	0.051
360	0.051
360	0.051
360	0.051
361	0.052
361	0.052
362	0.052
362	0.052
363	0.052
363	0.052
364	0.052
364	0.052
365	0.052
365	0.052
366	0.052
366	0.052
366	0.052
367	0.052
367	0.051
368	0.051
368	0.051
369	0.051
369	0.051
370	0.05
370	0.05
371	0.05
371	0.05
372	0.05
372	0.05
372	0.05
373	0.05
373	0.05
374	0.05
374	0.05
375	0.05
375	0.05
376	0.05
376	0.05
377	0.05
377	0.051
378	0.051
378	0.051
378	0.051
379	0.051
379	0.051
380	0.051
380	0.051
381	0.051
381	0.051
382	0.051
382	0.051
383	0.05
383	0.05
383	0.05
384	0.05
384	0.05
385	0.05
385	0.05
386	0.05
386	0.05
387	0.05
387	0.05
388	0.05
388	0.05
389	0.05
389	0.05
389	0.05
390	0.05
390	0.05
391	0.05
391	0.05
392	0.051
392	0.051
393	0.051
393	0.05
394	0.05
394	0.051
394	0.051
395	0.051
395	0.05
396	0.05
396	0.05
397	0.05
397	0.05
398	0.05
398	0.05
399	0.05
399	0.05
400	0.049
400	0.049
400	0.049
401	0.049
401	0.049
402	0.049
402	0.049
403	0.049
403	0.049
404	0.049
404	0.049
405	0.049
405	0.049
405	0.048
406	0.048
406	0.048
407	0.048
407	0.048
408	0.048
408	0.048
409	0.048
409	0.048
410	0.048
410	0.048
411	0.048
411	0.048
411	0.048
412	0.048
412	0.047
413	0.047
413	0.047
414	0.047
414	0.047
415	0.047
415	0.047
416	0.046
416	0.046
416	0.046
417	0.046
417	0.046
418	0.046
418	0.046
419	0.046
419	0.046
420	0.047
420	0.047
421	0.047
421	0.047
421	0.048
422	0.048
422	0.048
423	0.048
423	0.047
424	0.047
424	0.047
425	0.046
425	0.046
426	0.045
426	0.045
427	0.045
427	0.045
427	0.046
428	0.046
428	0.046
429	0.047
429	0.047
430	0.047
430	0.047
431	0.047
431	0.047
432	0.046
432	0.046
432	0.046
433	0.046
433	0.045
434	0.045
434	0.045
435	0.046
435	0.045
436	0.045
436	0.045
437	0.045
437	0.045
437	0.044
438	0.044
438	0.044
439	0.044
439	0.044
440	0.044
440	0.044
441	0.044
441	0.044
442	0.044
442	0.045
442	0.045
443	0.045
443	0.045
444	0.045
444	0.046
445	0.046
445	0.046
446	0.046
446	0.046
447	0.046
447	0.046
447	0.046
448	0.046
448	0.046
449	0.046
449	0.045
450	0.045
450	0.045
451	0.044
451	0.044
452	0.044
452	0.044
452	0.044
453	0.044
453	0.043
454	0.043
454	0.042
455	0.042
455	0.042
456	0.042
456	0.041
457	0.041
457	0.041
458	0.041
458	0.041
458	0.041
459	0.041
459	0.041
460	0.041
460	0.041
461	0.041
461	0.041
462	0.041
462	0.041
463	0.042
463	0.042
463	0.042
464	0.042
464	0.042
465	0.042
465	0.042
466	0.041
466	0.041
467	0.041
467	0.041
467	0.04
468	0.04
468	0.039
469	0.039
469	0.038
470	0.038
470	0.038
471	0.038
471	0.038
472	0.038
472	0.038
472	0.039
473	0.039
473	0.039
474	0.04
474	0.04
475	0.04
475	0.04
476	0.04
476	0.04
477	0.04
477	0.04
477	0.04
478	0.04
478	0.04
479	0.04
479	0.041
480	0.042
480	0.043
481	0.043
481	0.043
482	0.044
482	0.045
482	0.045
483	0.046
483	0.047
484	0.048
484	0.048
485	0.048
485	0.049
486	0.049
486	0.049
487	0.049
487	0.049
487	0.049
488	0.048
488	0.048
489	0.047
489	0.047
490	0.047
490	0.047
491	0.048
491	0.048
492	0.048
492	0.049
492	0.049
493	0.05
493	0.05
494	0.051
494	0.052
495	0.052
495	0.053
496	0.053
496	0.054
496	0.054
497	0.055
497	0.055
498	0.055
498	0.055
499	0.055
499	0.056
500	0.056
500	0.057
501	0.057
501	0.058
501	0.058
502	0.059
502	0.059
503	0.06
503	0.06
504	0.061
504	0.061
505	0.061
505	0.06
506	0.061
506	0.061
506	0.06
507	0.06
507	0.06
508	0.06
508	0.061
509	0.061
509	0.061
510	0.062
510	0.062
511	0.062
511	0.062
511	0.062
512	0.062
512	0.062
513	0.062
513	0.061
514	0.061
514	0.061
515	0.061
515	0.061
515	0.061
516	0.061
516	0.061
517	0.062
517	0.062
518	0.063
518	0.063
519	0.063
519	0.063
520	0.062
520	0.062
520	0.061
521	0.06
521	0.059
522	0.057
522	0.056
523	0.056
523	0.055
524	0.055
524	0.055
524	0.055
525	0.056
525	0.057
526	0.058
526	0.059
527	0.061
527	0.062
528	0.063
528	0.063
529	0.064
529	0.064
529	0.064
530	0.064
530	0.064
531	0.064
531	0.064
532	0.064
532	0.063
533	0.063
533	0.063
533	0.063
534	0.062
534	0.062
535	0.061
535	0.061
536	0.061
536	0.06
537	0.06
537	0.06
538	0.059
538	0.058
538	0.058
539	0.058
539	0.058
540	0.057
540	0.057
541	0.056
541	0.055
542	0.055
542	0.054
542	0.053
543	0.053
543	0.052
544	0.052
544	0.052
545	0.052
545	0.051
546	0.052
546	0.051
547	0.05
547	0.049
547	0.048
548	0.048
548	0.047
549	0.046
549	0.045
550	0.044
550	0.044
551	0.043
551	0.042
551	0.042
552	0.041
552	0.041
553	0.041
553	0.041
554	0.04
554	0.04
555	0.039
555	0.039
556	0.038
556	0.037
556	0.036
557	0.035
557	0.035
558	0.034
558	0.033
559	0.033
559	0.033
560	0.032
560	0.032
560	0.031
561	0.032
561	0.032
562	0.032
562	0.031
563	0.031
563	0.03
564	0.03
564	0.029
564	0.028
565	0.028
565	0.027
566	0.026
566	0.026
567	0.026
567	0.026
568	0.026
568	0.027
568	0.028
569	0.029
569	0.03
570	0.03
570	0.03
571	0.031
571	0.032
572	0.032
572	0.032
573	0.032
573	0.032
573	0.031
574	0.03
574	0.03
575	0.03
575	0.031
576	0.031
576	0.03
577	0.029
577	0.029
577	0.028
578	0.028
578	0.029
579	0.03
579	0.031
580	0.03
580	0.029
581	0.027
581	0.027
581	0.027
582	0.027
582	0.028
583	0.028
583	0.028
584	0.025
584	0.023
585	0.023
585	0.024
585	0.024
586	0.024
586	0.024
587	0.023
587	0.022
588	0.021
588	0.02
589	0.02
589	0.02
590	0.02
590	0.02
590	0.021
591	0.022
591	0.021
592	0.021
592	0.02
593	0.02
593	0.02
594	0.02
594	0.019
594	0.019
595	0.018
595	0.017
596	0.017
596	0.018
597	0.02
597	0.021
598	0.022
598	0.022
598	0.023
599	0.023
599	0.023
600	0.022
600	0.022
601	0.021
601	0.021
602	0.02
602	0.02
602	0.019
603	0.019
603	0.02
604	0.021
604	0.022
605	0.023
605	0.024
606	0.024
606	0.023
606	0.022
607	0.022
607	0.021
608	0.021
608	0.02
609	0.019
609	0.019
610	0.018
610	0.018
610	0.018
611	0.019
611	0.019
612	0.02
612	0.021
613	0.022
613	0.023
614	0.023
614	0.023
614	0.023
615	0.022
615	0.022
616	0.022
616	0.022
617	0.022
617	0.021
618	0.02
618	0.02
618	0.02
619	0.02
619	0.021
620	0.023
620	0.024
621	0.024
621	0.025
622	0.025
622	0.026
622	0.026
623	0.025
623	0.026
624	0.027
624	0.026
625	0.025
625	0.026
626	0.025
626	0.025
626	0.026
627	0.026
627	0.026
628	0.026
628	0.026
629	0.026
629	0.026
630	0.026
630	0.025
630	0.026
631	0.026
631	0.026
632	0.026
632	0.027
633	0.027
633	0.028
634	0.029
634	0.03
634	0.032
635	0.033
635	0.034
636	0.035
636	0.036
637	0.037
637	0.037
638	0.038
638	0.039
638	0.04
639	0.04
639	0.041
640	0.042
640	0.043
641	0.044
641	0.045
642	0.046
642	0.048
642	0.049
643	0.05
643	0.05
644	0.051
644	0.051
645	0.052
645	0.052
646	0.053
646	0.054
646	0.055
647	0.056
647	0.057
648	0.058
648	0.06
649	0.061
649	0.063
650	0.064
650	0.066
650	0.067
651	0.068
651	0.069
652	0.07
652	0.071
653	0.073
653	0.079
653	0.085
654	0.071
654	0.06
655	0.059
655	0.06
656	0.061
656	0.062
657	0.063
657	0.064
657	0.064
658	0.062
658	0.057
659	0.07
659	0.088
660	0.093
660	0.095
661	0.095
661	0.096
661	0.098
662	0.099
662	0.101
663	0.103
663	0.104
664	0.106
664	0.107
665	0.108
665	0.109
665	0.111
666	0.112
666	0.113
667	0.114
667	0.115
668	0.116
668	0.117
669	0.119
669	0.121
669	0.123
670	0.125
670	0.126
671	0.127
671	0.128
672	0.129
672	0.13
672	0.131
673	0.132
673	0.133
674	0.133
674	0.133
675	0.133
675	0.133
676	0.134
676	0.135
676	0.135
677	0.136
677	0.137
678	0.137
678	0.138
679	0.138
679	0.139
680	0.14
680	0.14
680	0.141
681	0.141
681	0.141
682	0.142
682	0.142
683	0.143
683	0.144
684	0.145
684	0.145
684	0.145
685	0.145
685	0.146
686	0.146
686	0.146
687	0.147
687	0.147
687	0.147
688	0.146
688	0.146
689	0.146
689	0.146
690	0.145
690	0.145
691	0.144
691	0.144
691	0.144
692	0.143
692	0.143
693	0.143
693	0.143
694	0.142
694	0.141
695	0.142
695	0.143
695	0.143
696	0.142
696	0.142
697	0.141
697	0.141
698	0.14
698	0.139
698	0.139
699	0.138
699	0.137
700	0.135
700	0.135
701	0.135
701	0.135
702	0.134
702	0.134
702	0.133
703	0.132
703	0.131
704	0.13
704	0.129
705	0.129
705	0.128
705	0.126
706	0.125
706	0.124
707	0.123
707	0.122
708	0.12
708	0.119
709	0.118
709	0.117
709	0.115
710	0.113
710	0.112
711	0.111
711	0.11
712	0.109
712	0.108
713	0.108
713	0.107
713	0.106
714	0.105
714	0.104
715	0.104
715	0.103
716	0.102
716	0.102
716	0.101
717	0.101
717	0.101
718	0.099
718	0.098
719	0.098
719	0.097
720	0.096
720	0.095
720	0.093
721	0.091
721	0.089
722	0.088
722	0.086
723	0.084
723	0.083
723	0.082
724	0.081
724	0.08
725	0.079
725	0.078
726	0.077
726	0.076
727	0.075
727	0.074
727	0.074
728	0.072
728	0.071
729	0.071
729	0.07
730	0.069
730	0.067
730	0.066
731	0.065
731	0.064
732	0.064
732	0.063
733	0.062
733	0.062
734	0.061
734	0.06
734	0.059
735	0.059
735	0.058
736	0.057
736	0.056
737	0.055
737	0.055
737	0.054
738	0.052
738	0.05
739	0.049
739	0.048
740	0.046
740	0.045
741	0.044
741	0.042
741	0.039
742	0.037
742	0.034
743	0.033
743	0.031
744	0.029
744	0.027
744	0.025
745	0.024
745	0.022
746	0.022
746	0.021
747	0.021
747	0.022
748	0.022
748	0.023
748	0.023
749	0.024
749	0.024
750	0.025
750	0.025
751	0.025
751	0.025
751	0.025
752	0.024
752	0.023
753	0.022
753	0.021
754	0.021
754	0.02
754	0.02
755	0.02
755	0.021
756	0.021
756	0.02
757	0.02
757	0.02
758	0.02
758	0.02
758	0.02
759	0.02
759	0.019
760	0.018
760	0.017
761	0.017
761	0.017
761	0.017
762	0.016
762	0.015
763	0.015
763	0.013
764	0.011
764	0.01
764	0.009
765	0.007
765	0.006
766	0.005
766	0.004
767	0.003
767	0.002
768	-0
768	-0.001
768	-0.001
769	-0.002
769	-0.002
770	-0.004
770	-0.005
771	-0.006
771	-0.008
771	-0.01
772	-0.012
772	-0.013
773	-0.015
773	-0.017
774	-0.019
774	-0.021
775	-0.023
775	-0.024
775	-0.026
776	-0.028
776	-0.029
777	-0.031
777	-0.033
778	-0.035
778	-0.038
778	-0.04
779	-0.041
779	-0.043
780	-0.046
780	-0.05
781	-0.053
781	-0.058
781	-0.062
782	-0.068
782	-0.073
783	-0.078
783	-0.083
784	-0.09
784	-0.096
784	-0.102
785	-0.108
785	-0.114
786	-0.118
786	-0.118
787	-0.116
787	-0.115
788	-0.117
788	-0.12
788	-0.121
789	-0.124
789	-0.124
790	-0.122
790	-0.121
791	-0.122
791	-0.125
791	-0.128
792	-0.123
792	-0.113
793	-0.108
793	-0.104
794	-0.102
794	-0.103
794	-0.107
795	-0.108
795	-0.108
796	-0.108
796	-0.11
797	-0.118
797	-0.128
797	-0.134
798	-0.139
798	-0.142
799	-0.143
799	-0.143
800	-0.143
800	-0.145
801	-0.148
801	-0.149
801	-0.15
802	-0.151
802	-0.152
803	-0.152
803	-0.152
804	-0.151
804	-0.145
804	-0.138
805	-0.133
805	-0.13
806	-0.127
806	-0.126
807	-0.124
807	-0.124
807	-0.124
808	-0.123
808	-0.125
809	-0.13
809	-0.136
810	-0.14
810	-0.143
810	-0.147
811	-0.151
811	-0.152
812	-0.149
812	-0.146
813	-0.147
813	-0.148
813	-0.149
814	-0.15
814	-0.15
815	-0.148
815	-0.145
816	-0.143
816	-0.143
817	-0.146
817	-0.148
817	-0.145
818	-0.141
818	-0.135
819	-0.129
819	-0.123
820	-0.12
820	-0.116
820	-0.11
821	-0.103
821	-0.095
822	-0.088
822	-0.081
823	-0.075
823	-0.07
823	-0.065
824	-0.06
824	-0.054
825	-0.049
825	-0.043
826	-0.039
826	-0.035
826	-0.032
827	-0.029
827	-0.027
828	-0.025
828	-0.023
829	-0.022
829	-0.021
829	-0.021
830	-0.021
830	-0.021
831	-0.019
831	-0.019
832	-0.018
832	-0.017
832	-0.017
833	-0.016
833	-0.015
834	-0.014
834	-0.013
835	-0.012
835	-0.011
835	-0.011
836	-0.01
836	-0.01
837	-0.01
837	-0.01
838	-0.01
838	-0.01
839	-0.01
839	-0.011
839	-0.011
840	-0.011
840	-0.011
841	-0.01
841	-0.01
842	-0.009
842	-0.008
842	-0.008
843	-0.007
843	-0.006
844	-0.005
844	-0.004
845	-0.003
845	-0.002
845	-0.001
846	-0.001
846	-0.001
847	-0.001
847	0
848	0.001
848	0.002
848	0.003
849	0.004
849	0.005
850	0.006
850	0.007
851	0.007
851	0.008
851	0.008
852	0.007
852	0.007
853	0.006
853	0.005
854	0.004
854	0.002
854	0.001
855	0
855	-0.001
856	-0.002
856	-0.002
857	-0.002
857	-0.002
857	-0.001
858	-0
858	0.001
859	0.003
859	0.004
860	0.007
860	0.008
860	0.01
861	0.012
861	0.013
862	0.014
862	0.015
863	0.015
863	0.015
863	0.014
864	0.013
864	0.013
865	0.012
865	0.012
866	0.011
866	0.01
866	0.009
867	0.009
867	0.008
868	0.008
868	0.007
869	0.007
869	0.006
869	0.004
870	0.003
870	0.002
871	0.001
871	0
872	-0
872	-0.001
872	-0.002
873	-0.002
873	-0.002
874	-0.002
874	-0.002
875	-0.001
875	-0.001
875	-0.001
876	0
876	0.001
877	0.001
877	0.002
878	0.002
878	0.003
878	0.003
879	0.004
879	0.004
880	0.004
880	0.004
881	0.005
881	0.005
881	0.005
882	0.005
882	0.005
883	0.006
883	0.006
884	0.006
884	0.006
884	0.006
885	0.006
885	0.007
886	0.007
886	0.007
887	0.007
887	0.007
887	0.008
888	0.008
888	0.008
889	0.009
889	0.01
890	0.011
890	0.012
890	0.012
891	0.013
891	0.013
892	0.013
892	0.013
893	0.013
893	0.013
893	0.013
894	0.013
894	0.012
895	0.011
895	0.01
895	0.009
896	0.008
896	0.007
897	0.006
897	0.005
898	0.004
898	0.003
898	0.002
899	0.001
899	0.001
900	0
900	0
901	0
901	0
901	-0
902	0
902	0
903	-0
903	-0.001
904	-0.001
904	-0.002
904	-0.002
905	-0.003
905	-0.003
906	-0.003
906	-0.003
907	-0.002
907	-0.002
907	-0.001
908	-0.001
908	0
909	0.002
909	0.003
910	0.004
910	0.005
910	0.006
911	0.007
911	0.007
912	0.008
912	0.008
913	0.008
913	0.007
913	0.006
914	0.006
914	0.005
915	0.004
915	0.003
916	0.002
916	0.001
916	0.001
917	0.001
917	0.001
918	0
918	0
918	0
919	0
919	0
920	0
920	0
921	0
921	-0
921	-0
922	-0
922	0
923	0
923	0.001
924	0.001
924	0.002
924	0.002
925	0.002
925	0.003
926	0.003
926	0.003
927	0.002
927	0.002
927	0.002
928	0.001
928	0.001
929	0
929	-0
930	-0.001
930	-0.001
930	-0.001
931	-0.002
931	-0.002
932	-0.002
932	-0.002
933	-0.003
933	-0.003
933	-0.003
934	-0.004
934	-0.004
935	-0.005
935	-0.005
935	-0.005
936	-0.006
936	-0.006
937	-0.006
937	-0.006
938	-0.005
938	-0.005
938	-0.005
939	-0.004
939	-0.003
940	-0.002
940	-0.002
941	-0.001
941	-0
941	0
942	0.001
942	0.002
943	0.002
943	0.003
944	0.004
944	0.005
944	0.005
945	0.006
945	0.007
946	0.008
946	0.008
946	0.008
947	0.008
947	0.008
948	0.009
948	0.008
949	0.008
949	0.008
949	0.008
950	0.009
950	0.009
951	0.01
951	0.01
952	0.011
952	0.011
952	0.012
953	0.012
953	0.013
954	0.013
954	0.013
955	0.013
955	0.012
955	0.012
956	0.012
956	0.011
957	0.011
957	0.01
957	0.009
958	0.008
958	0.008
959	0.007
959	0.006
960	0.005
960	0.004
960	0.002
961	0.001
961	-0.001
962	-0.002
962	-0.003
963	-0.005
963	-0.006
963	-0.007
964	-0.008
964	-0.009
965	-0.009
965	-0.009
966	-0.009
966	-0.009
966	-0.009
967	-0.008
967	-0.008
968	-0.008
968	-0.008
968	-0.008
969	-0.008
969	-0.008
970	-0.007
970	-0.007
971	-0.007
971	-0.007
971	-0.007
972	-0.006
972	-0.005
973	-0.005
973	-0.004
974	-0.003
974	-0.002
974	-0.001
975	-0
975	0.001
976	0.001
976	0.002
976	0.002
977	0.002
977	0.002
978	0.001
978	0.001
979	0
979	-0
979	-0.001
980	-0.002
980	-0.003
981	-0.004
981	-0.005
982	-0.005
982	-0.005
982	-0.006
983	-0.006
983	-0.006
984	-0.006
984	-0.006
984	-0.005
985	-0.005
985	-0.004
986	-0.004
986	-0.003
987	-0.003
987	-0.002
987	-0.002
988	-0.001
988	-0.001
989	-0.001
989	-0.001
990	-0.001
990	-0.001
990	-0
991	0
991	0.001
992	0.001
992	0.002
992	0.002
993	0.003
993	0.004
994	0.004
994	0.005
995	0.005
995	0.005
995	0.005
996	0.004
996	0.003
997	0.002
997	0.002
997	0.001
998	-0
998	-0.001
999	-0.001
999	-0.002
1000	-0.003
1000	-0.003
1000	-0.003
1001	-0.003
1001	-0.003
1002	-0.003
1002	-0.003
1003	-0.003
1003	-0.004
1003	-0.004
1004	-0.004
1004	-0.004
1005	-0.005
1005	-0.005
1005	-0.006
1006	-0.006
1006	-0.006
1007	-0.007
1007	-0.007
1008	-0.007
1008	-0.007
1008	-0.007
1009	-0.007
1009	-0.006
1010	-0.006
1010	-0.006
1010	-0.006
1011	-0.006
1011	-0.005
1012	-0.005
1012	-0.005
1013	-0.005
1013	-0.005
1013	-0.005
1014	-0.005
1014	-0.005
1015	-0.005
1015	-0.004
1016	-0.004
1016	-0.004
1016	-0.004
1017	-0.004
1017	-0.003
1018	-0.003
1018	-0.003
1018	-0.002
1019	-0.002
1019	-0.002
1020	-0.002
1020	-0.002
1021	-0.002
1021	-0.003
1021	-0.003
1022	-0.003
1022	-0.004
1023	-0.004
1023	-0.004
1023	-0.005
1024	-0.005
1024	-0.006
1025	-0.006
1025	-0.006
1026	-0.007
1026	-0.007
1026	-0.007
1027	-0.007
1027	-0.007
1028	-0.007
1028	-0.007
1028	-0.007
1029	-0.006
1029	-0.006
1030	-0.006
1030	-0.006
1031	-0.006
1031	-0.006
1031	-0.006
1032	-0.006
1032	-0.006
1033	-0.007
1033	-0.008
1033	-0.008
1034	-0.009
1034	-0.011
1035	-0.011
1035	-0.012
1036	-0.013
1036	-0.014
1036	-0.014
1037	-0.015
1037	-0.015
1038	-0.015
1038	-0.015
1039	-0.015
1039	-0.015
1039	-0.015
1040	-0.015
1040	-0.015
1041	-0.015
1041	-0.016
1041	-0.016
1042	-0.017
1042	-0.017
1043	-0.018
1043	-0.018
1044	-0.019
1044	-0.019
1044	-0.019
1045	-0.019
1045	-0.02
1046	-0.02
1046	-0.02
1046	-0.019
1047	-0.019
1047	-0.018
1048	-0.018
1048	-0.017
1049	-0.016
1049	-0.016
1049	-0.016
1050	-0.015
1050	-0.014
1051	-0.014
1051	-0.013
1051	-0.012
1052	-0.012
1052	-0.011
1053	-0.01
1053	-0.009
1053	-0.009
1054	-0.008
1054	-0.007
1055	-0.006
1055	-0.006
1056	-0.006
1056	-0.006
1056	-0.007
1057	-0.008
1057	-0.008
1058	-0.009
1058	-0.01
1058	-0.01
1059	-0.011
1059	-0.012
1060	-0.013
1060	-0.013
1061	-0.013
1061	-0.013
1061	-0.013
1062	-0.014
1062	-0.015
1063	-0.015
1063	-0.015
1063	-0.015
1064	-0.015
1064	-0.015
1065	-0.015
1065	-0.015
1066	-0.015
1066	-0.015
1066	-0.014
1067	-0.013
1067	-0.013
1068	-0.012
1068	-0.011
1068	-0.011
1069	-0.01
1069	-0.01
1070	-0.01
1070	-0.009
1071	-0.008
1071	-0.007
1071	-0.007
1072	-0.006
1072	-0.005
1073	-0.004
1073	-0.003
1073	-0.002
1074	-0.001
1074	0
1075	0.001
1075	0.001
1076	0.001
1076	0.002
1076	0.002
1077	0.002
1077	0.003
1078	0.003
1078	0.004
1078	0.005
1079	0.006
1079	0.007
1080	0.008
1080	0.009
1080	0.01
1081	0.011
1081	0.012
1082	0.013
1082	0.013
1083	0.013
1083	0.014
1083	0.015
1084	0.015
1084	0.016
1085	0.017
1085	0.019
1085	0.02
1086	0.021
1086	0.021
1087	0.022
1087	0.024
1088	0.024
1088	0.024
1088	0.025
1089	0.026
1089	0.027
1090	0.027
1090	0.028
1090	0.028
1091	0.029
1091	0.031
1092	0.032
1092	0.035
1092	0.036
1093	0.037
1093	0.04
1094	0.041
1094	0.043
1095	0.045
1095	0.047
1095	0.051
1096	0.054
1096	0.056
1097	0.059
1097	0.062
1097	0.066
1098	0.068
1098	0.072
1099	0.077
1099	0.081
1100	0.087
1100	0.091
1100	0.097
1101	0.104
1101	0.11
1102	0.117
1102	0.127
1102	0.138
1103	0.148
1103	0.159
1104	0.172
1104	0.186
1104	0.203
1105	0.219
1105	0.235
1106	0.251
1106	0.273
1107	0.295
1107	0.327
1107	0.368
1108	0.514
1108	0.8
1109	-0
1109	-0
1109	-0
1110	-0
1110	-0
1111	-0
1111	-0
