Data from 15c-2-2a_Absorbance__1405__03206.txt Node

Date: Wed Jan 24 13:50:43 CET 2024
User: Marek
Spectrometer: MAYP115816
Trigger mode: 0
Integration Time (sec): 2.000000E-1
Scans to average: 10
Electric dark correction enabled: true
Nonlinearity correction enabled: true
Boxcar width: 5
XAxis mode: Wavelengths
Number of Pixels in Spectrum: 2068
>>>>>Begin Spectral Data<<<<<
199	-1.779
199	-1.619
200	-1.46
200	-1.338
201	-1.265
201	-1.212
202	-1.141
202	-1.085
203	-1.036
203	-0.995
204	-0.966
204	-0.941
205	-0.918
205	-0.909
205	-0.907
206	-0.903
206	-0.902
207	-0.898
207	-0.895
208	-0.895
208	-0.893
209	-0.891
209	-0.891
210	-0.891
210	-0.889
211	-0.888
211	-0.887
212	-0.886
212	-0.883
213	-0.881
213	-0.879
213	-0.877
214	-0.874
214	-0.871
215	-0.87
215	-0.866
216	-0.865
216	-0.863
217	-0.861
217	-0.861
218	-0.862
218	-0.86
219	-0.859
219	-0.856
220	-0.854
220	-0.851
221	-0.852
221	-0.849
221	-0.844
222	-0.839
222	-0.832
223	-0.825
223	-0.82
224	-0.811
224	-0.803
225	-0.796
225	-0.786
226	-0.776
226	-0.764
227	-0.752
227	-0.74
228	-0.722
228	-0.705
229	-0.684
229	-0.661
229	-0.635
230	-0.606
230	-0.573
231	-0.538
231	-0.5
232	-0.462
232	-0.421
233	-0.381
233	-0.337
234	-0.295
234	-0.253
235	-0.212
235	-0.173
236	-0.136
236	-0.1
236	-0.065
237	-0.033
237	-0.003
238	0.024
238	0.05
239	0.074
239	0.095
240	0.114
240	0.131
241	0.147
241	0.161
242	0.174
242	0.185
243	0.196
243	0.205
243	0.213
244	0.221
244	0.228
245	0.234
245	0.24
246	0.246
246	0.251
247	0.255
247	0.26
248	0.264
248	0.268
249	0.271
249	0.275
250	0.278
250	0.281
250	0.284
251	0.287
251	0.29
252	0.292
252	0.294
253	0.297
253	0.298
254	0.301
254	0.303
255	0.304
255	0.306
256	0.307
256	0.308
257	0.31
257	0.31
258	0.311
258	0.312
258	0.313
259	0.313
259	0.314
260	0.314
260	0.314
261	0.314
261	0.314
262	0.314
262	0.314
263	0.314
263	0.313
264	0.313
264	0.312
265	0.312
265	0.311
265	0.31
266	0.309
266	0.308
267	0.307
267	0.306
268	0.305
268	0.304
269	0.302
269	0.301
270	0.299
270	0.297
271	0.296
271	0.294
272	0.292
272	0.291
272	0.289
273	0.287
273	0.286
274	0.284
274	0.282
275	0.28
275	0.279
276	0.277
276	0.275
277	0.273
277	0.271
278	0.268
278	0.266
278	0.263
279	0.261
279	0.259
280	0.256
280	0.254
281	0.252
281	0.251
282	0.249
282	0.247
283	0.246
283	0.244
284	0.243
284	0.242
285	0.24
285	0.239
285	0.237
286	0.235
286	0.234
287	0.232
287	0.231
288	0.229
288	0.228
289	0.226
289	0.225
290	0.223
290	0.222
291	0.221
291	0.22
292	0.219
292	0.217
292	0.216
293	0.215
293	0.214
294	0.213
294	0.212
295	0.212
295	0.211
296	0.21
296	0.209
297	0.208
297	0.207
298	0.206
298	0.206
298	0.205
299	0.204
299	0.203
300	0.203
300	0.202
301	0.201
301	0.2
302	0.2
302	0.199
303	0.199
303	0.198
304	0.198
304	0.197
305	0.197
305	0.196
305	0.195
306	0.195
306	0.194
307	0.194
307	0.193
308	0.193
308	0.192
309	0.191
309	0.191
310	0.19
310	0.19
311	0.189
311	0.188
311	0.188
312	0.187
312	0.187
313	0.186
313	0.186
314	0.185
314	0.184
315	0.184
315	0.183
316	0.182
316	0.182
317	0.181
317	0.181
318	0.18
318	0.18
318	0.179
319	0.179
319	0.178
320	0.177
320	0.177
321	0.176
321	0.176
322	0.175
322	0.175
323	0.174
323	0.174
324	0.173
324	0.173
324	0.172
325	0.171
325	0.171
326	0.17
326	0.17
327	0.169
327	0.169
328	0.168
328	0.168
329	0.167
329	0.166
330	0.166
330	0.166
330	0.165
331	0.165
331	0.164
332	0.163
332	0.163
333	0.162
333	0.162
334	0.161
334	0.16
335	0.16
335	0.159
336	0.159
336	0.158
336	0.158
337	0.158
337	0.157
338	0.157
338	0.157
339	0.156
339	0.156
340	0.156
340	0.155
341	0.155
341	0.154
342	0.154
342	0.153
342	0.153
343	0.153
343	0.152
344	0.152
344	0.151
345	0.151
345	0.151
346	0.15
346	0.15
347	0.15
347	0.149
348	0.149
348	0.149
348	0.149
349	0.148
349	0.148
350	0.148
350	0.147
351	0.147
351	0.146
352	0.146
352	0.145
353	0.145
353	0.144
354	0.144
354	0.143
354	0.143
355	0.143
355	0.142
356	0.142
356	0.141
357	0.141
357	0.14
358	0.14
358	0.14
359	0.14
359	0.14
360	0.141
360	0.141
360	0.141
361	0.141
361	0.141
362	0.142
362	0.142
363	0.142
363	0.142
364	0.142
364	0.142
365	0.141
365	0.141
366	0.141
366	0.141
366	0.14
367	0.14
367	0.14
368	0.14
368	0.14
369	0.139
369	0.139
370	0.139
370	0.139
371	0.138
371	0.138
372	0.138
372	0.138
372	0.138
373	0.138
373	0.138
374	0.138
374	0.138
375	0.138
375	0.137
376	0.137
376	0.137
377	0.137
377	0.137
378	0.137
378	0.137
378	0.137
379	0.137
379	0.137
380	0.137
380	0.137
381	0.137
381	0.137
382	0.137
382	0.137
383	0.136
383	0.136
383	0.136
384	0.136
384	0.136
385	0.135
385	0.135
386	0.135
386	0.135
387	0.135
387	0.135
388	0.135
388	0.135
389	0.135
389	0.134
389	0.134
390	0.135
390	0.135
391	0.135
391	0.135
392	0.135
392	0.135
393	0.135
393	0.134
394	0.134
394	0.134
394	0.134
395	0.134
395	0.134
396	0.133
396	0.133
397	0.133
397	0.133
398	0.133
398	0.133
399	0.133
399	0.132
400	0.132
400	0.132
400	0.132
401	0.132
401	0.131
402	0.131
402	0.131
403	0.131
403	0.131
404	0.131
404	0.13
405	0.13
405	0.13
405	0.13
406	0.13
406	0.13
407	0.129
407	0.129
408	0.129
408	0.129
409	0.128
409	0.128
410	0.128
410	0.128
411	0.128
411	0.128
411	0.128
412	0.128
412	0.127
413	0.127
413	0.127
414	0.127
414	0.127
415	0.127
415	0.127
416	0.126
416	0.126
416	0.126
417	0.126
417	0.125
418	0.125
418	0.125
419	0.125
419	0.125
420	0.126
420	0.126
421	0.126
421	0.126
421	0.126
422	0.127
422	0.127
423	0.127
423	0.126
424	0.126
424	0.125
425	0.125
425	0.125
426	0.124
426	0.124
427	0.124
427	0.124
427	0.124
428	0.125
428	0.125
429	0.125
429	0.125
430	0.125
430	0.125
431	0.125
431	0.125
432	0.125
432	0.124
432	0.124
433	0.124
433	0.123
434	0.123
434	0.123
435	0.123
435	0.123
436	0.123
436	0.123
437	0.123
437	0.122
437	0.122
438	0.122
438	0.122
439	0.122
439	0.122
440	0.121
440	0.121
441	0.121
441	0.121
442	0.121
442	0.122
442	0.122
443	0.122
443	0.122
444	0.122
444	0.123
445	0.123
445	0.123
446	0.123
446	0.123
447	0.123
447	0.123
447	0.123
448	0.122
448	0.122
449	0.122
449	0.122
450	0.122
450	0.122
451	0.121
451	0.121
452	0.121
452	0.121
452	0.121
453	0.121
453	0.12
454	0.12
454	0.119
455	0.119
455	0.118
456	0.118
456	0.118
457	0.117
457	0.117
458	0.117
458	0.117
458	0.117
459	0.118
459	0.118
460	0.118
460	0.118
461	0.118
461	0.118
462	0.118
462	0.118
463	0.119
463	0.119
463	0.12
464	0.12
464	0.119
465	0.119
465	0.12
466	0.12
466	0.12
467	0.12
467	0.119
467	0.119
468	0.118
468	0.118
469	0.117
469	0.117
470	0.117
470	0.117
471	0.117
471	0.117
472	0.117
472	0.117
472	0.118
473	0.119
473	0.119
474	0.12
474	0.12
475	0.12
475	0.121
476	0.121
476	0.121
477	0.121
477	0.122
477	0.122
478	0.122
478	0.122
479	0.123
479	0.124
480	0.125
480	0.125
481	0.126
481	0.127
482	0.128
482	0.128
482	0.129
483	0.13
483	0.132
484	0.133
484	0.134
485	0.134
485	0.135
486	0.135
486	0.136
487	0.136
487	0.137
487	0.137
488	0.137
488	0.137
489	0.137
489	0.137
490	0.137
490	0.138
491	0.139
491	0.139
492	0.14
492	0.141
492	0.142
493	0.143
493	0.144
494	0.146
494	0.147
495	0.148
495	0.149
496	0.15
496	0.151
496	0.152
497	0.153
497	0.153
498	0.154
498	0.155
499	0.155
499	0.156
500	0.157
500	0.158
501	0.16
501	0.161
501	0.162
502	0.163
502	0.164
503	0.166
503	0.167
504	0.168
504	0.168
505	0.169
505	0.17
506	0.17
506	0.171
506	0.171
507	0.172
507	0.172
508	0.173
508	0.174
509	0.174
509	0.176
510	0.177
510	0.177
511	0.178
511	0.178
511	0.178
512	0.179
512	0.18
513	0.18
513	0.18
514	0.18
514	0.18
515	0.18
515	0.18
515	0.18
516	0.181
516	0.182
517	0.183
517	0.183
518	0.183
518	0.183
519	0.183
519	0.183
520	0.182
520	0.181
520	0.18
521	0.179
521	0.177
522	0.176
522	0.175
523	0.175
523	0.175
524	0.175
524	0.176
524	0.178
525	0.18
525	0.181
526	0.183
526	0.184
527	0.186
527	0.187
528	0.188
528	0.188
529	0.188
529	0.188
529	0.188
530	0.187
530	0.187
531	0.186
531	0.186
532	0.185
532	0.184
533	0.183
533	0.183
533	0.182
534	0.181
534	0.18
535	0.179
535	0.178
536	0.178
536	0.177
537	0.176
537	0.175
538	0.174
538	0.172
538	0.171
539	0.17
539	0.169
540	0.169
540	0.167
541	0.166
541	0.164
542	0.163
542	0.162
542	0.16
543	0.159
543	0.158
544	0.156
544	0.155
545	0.154
545	0.153
546	0.152
546	0.151
547	0.15
547	0.148
547	0.146
548	0.145
548	0.143
549	0.142
549	0.14
550	0.139
550	0.137
551	0.135
551	0.133
551	0.132
552	0.13
552	0.129
553	0.128
553	0.127
554	0.126
554	0.124
555	0.123
555	0.121
556	0.119
556	0.117
556	0.116
557	0.114
557	0.113
558	0.111
558	0.109
559	0.108
559	0.107
560	0.105
560	0.104
560	0.103
561	0.103
561	0.102
562	0.101
562	0.1
563	0.099
563	0.098
564	0.096
564	0.095
564	0.093
565	0.092
565	0.091
566	0.089
566	0.088
567	0.087
567	0.087
568	0.086
568	0.086
568	0.087
569	0.087
569	0.088
570	0.088
570	0.087
571	0.087
571	0.087
572	0.087
572	0.087
573	0.086
573	0.086
573	0.084
574	0.083
574	0.083
575	0.082
575	0.083
576	0.083
576	0.081
577	0.08
577	0.078
577	0.078
578	0.077
578	0.077
579	0.078
579	0.078
580	0.077
580	0.075
581	0.073
581	0.072
581	0.072
582	0.072
582	0.072
583	0.072
583	0.071
584	0.068
584	0.065
585	0.065
585	0.065
585	0.065
586	0.065
586	0.065
587	0.063
587	0.062
588	0.06
588	0.059
589	0.059
589	0.058
590	0.058
590	0.057
590	0.058
591	0.059
591	0.059
592	0.058
592	0.057
593	0.057
593	0.057
594	0.056
594	0.055
594	0.054
595	0.054
595	0.053
596	0.052
596	0.053
597	0.054
597	0.055
598	0.055
598	0.056
598	0.057
599	0.057
599	0.057
600	0.056
600	0.055
601	0.055
601	0.054
602	0.053
602	0.053
602	0.052
603	0.052
603	0.053
604	0.053
604	0.054
605	0.055
605	0.056
606	0.056
606	0.055
606	0.054
607	0.053
607	0.053
608	0.053
608	0.052
609	0.051
609	0.051
610	0.05
610	0.049
610	0.049
611	0.05
611	0.05
612	0.051
612	0.052
613	0.053
613	0.054
614	0.054
614	0.054
614	0.054
615	0.053
615	0.053
616	0.053
616	0.053
617	0.053
617	0.052
618	0.051
618	0.051
618	0.051
619	0.051
619	0.052
620	0.054
620	0.055
621	0.055
621	0.056
622	0.056
622	0.057
622	0.057
623	0.057
623	0.058
624	0.059
624	0.058
625	0.058
625	0.058
626	0.058
626	0.058
626	0.058
627	0.059
627	0.059
628	0.059
628	0.059
629	0.059
629	0.059
630	0.059
630	0.058
630	0.059
631	0.06
631	0.061
632	0.061
632	0.062
633	0.063
633	0.064
634	0.065
634	0.067
634	0.069
635	0.07
635	0.071
636	0.073
636	0.074
637	0.075
637	0.076
638	0.077
638	0.078
638	0.079
639	0.08
639	0.081
640	0.082
640	0.084
641	0.085
641	0.087
642	0.088
642	0.09
642	0.092
643	0.093
643	0.094
644	0.095
644	0.096
645	0.097
645	0.098
646	0.099
646	0.101
646	0.102
647	0.104
647	0.106
648	0.108
648	0.11
649	0.112
649	0.115
650	0.117
650	0.119
650	0.12
651	0.122
651	0.123
652	0.125
652	0.126
653	0.129
653	0.136
653	0.143
654	0.116
654	0.096
655	0.098
655	0.099
656	0.101
656	0.102
657	0.104
657	0.105
657	0.106
658	0.103
658	0.097
659	0.121
659	0.154
660	0.16
660	0.162
661	0.164
661	0.165
661	0.168
662	0.17
662	0.173
663	0.176
663	0.178
664	0.181
664	0.183
665	0.185
665	0.187
665	0.189
666	0.192
666	0.193
667	0.195
667	0.196
668	0.198
668	0.2
669	0.202
669	0.204
669	0.207
670	0.21
670	0.212
671	0.214
671	0.216
672	0.217
672	0.219
672	0.221
673	0.222
673	0.223
674	0.224
674	0.224
675	0.225
675	0.225
676	0.227
676	0.228
676	0.229
677	0.23
677	0.231
678	0.232
678	0.233
679	0.234
679	0.235
680	0.236
680	0.237
680	0.238
681	0.238
681	0.239
682	0.24
682	0.24
683	0.241
683	0.242
684	0.244
684	0.244
684	0.244
685	0.245
685	0.246
686	0.246
686	0.247
687	0.247
687	0.247
687	0.247
688	0.246
688	0.245
689	0.245
689	0.245
690	0.244
690	0.243
691	0.242
691	0.242
691	0.242
692	0.241
692	0.24
693	0.24
693	0.24
694	0.239
694	0.238
695	0.239
695	0.239
695	0.239
696	0.238
696	0.237
697	0.237
697	0.236
698	0.235
698	0.233
698	0.232
699	0.232
699	0.23
700	0.228
700	0.227
701	0.227
701	0.226
702	0.225
702	0.224
702	0.222
703	0.221
703	0.219
704	0.217
704	0.216
705	0.215
705	0.213
705	0.211
706	0.21
706	0.208
707	0.206
707	0.204
708	0.202
708	0.201
709	0.199
709	0.197
709	0.194
710	0.192
710	0.19
711	0.188
711	0.187
712	0.185
712	0.183
713	0.182
713	0.181
713	0.179
714	0.178
714	0.176
715	0.175
715	0.174
716	0.172
716	0.172
716	0.171
717	0.17
717	0.169
718	0.167
718	0.166
719	0.165
719	0.163
720	0.162
720	0.16
720	0.157
721	0.155
721	0.153
722	0.15
722	0.147
723	0.145
723	0.143
723	0.141
724	0.139
724	0.138
725	0.136
725	0.134
726	0.133
726	0.131
727	0.13
727	0.128
727	0.127
728	0.125
728	0.124
729	0.123
729	0.121
730	0.119
730	0.118
730	0.116
731	0.115
731	0.113
732	0.113
732	0.112
733	0.11
733	0.109
734	0.108
734	0.107
734	0.106
735	0.106
735	0.104
736	0.102
736	0.101
737	0.1
737	0.099
737	0.097
738	0.095
738	0.092
739	0.09
739	0.089
740	0.086
740	0.085
741	0.083
741	0.081
741	0.078
742	0.075
742	0.072
743	0.07
743	0.067
744	0.065
744	0.063
744	0.061
745	0.059
745	0.057
746	0.056
746	0.055
747	0.055
747	0.055
748	0.055
748	0.055
748	0.055
749	0.054
749	0.054
750	0.054
750	0.054
751	0.054
751	0.054
751	0.054
752	0.053
752	0.051
753	0.05
753	0.049
754	0.049
754	0.048
754	0.047
755	0.047
755	0.047
756	0.047
756	0.045
757	0.045
757	0.045
758	0.045
758	0.045
758	0.045
759	0.045
759	0.044
760	0.043
760	0.042
761	0.041
761	0.041
761	0.041
762	0.04
762	0.039
763	0.038
763	0.036
764	0.034
764	0.033
764	0.031
765	0.03
765	0.028
766	0.026
766	0.025
767	0.024
767	0.022
768	0.02
768	0.019
768	0.018
769	0.017
769	0.016
770	0.014
770	0.013
771	0.011
771	0.009
771	0.007
772	0.005
772	0.003
773	0.001
773	-0.001
774	-0.003
774	-0.005
775	-0.007
775	-0.008
775	-0.01
776	-0.012
776	-0.014
777	-0.015
777	-0.017
778	-0.019
778	-0.021
778	-0.024
779	-0.025
779	-0.027
780	-0.03
780	-0.034
781	-0.037
781	-0.041
781	-0.045
782	-0.05
782	-0.056
783	-0.061
783	-0.066
784	-0.072
784	-0.08
784	-0.086
785	-0.093
785	-0.101
786	-0.106
786	-0.109
787	-0.109
787	-0.109
788	-0.112
788	-0.116
788	-0.119
789	-0.122
789	-0.123
790	-0.122
790	-0.121
791	-0.123
791	-0.125
791	-0.128
792	-0.123
792	-0.113
793	-0.108
793	-0.104
794	-0.102
794	-0.103
794	-0.107
795	-0.108
795	-0.108
796	-0.108
796	-0.11
797	-0.118
797	-0.128
797	-0.134
798	-0.139
798	-0.142
799	-0.143
799	-0.143
800	-0.143
800	-0.145
801	-0.148
801	-0.149
801	-0.15
802	-0.151
802	-0.152
803	-0.153
803	-0.152
804	-0.151
804	-0.145
804	-0.138
805	-0.133
805	-0.13
806	-0.128
806	-0.126
807	-0.124
807	-0.124
807	-0.124
808	-0.124
808	-0.125
809	-0.13
809	-0.136
810	-0.14
810	-0.143
810	-0.147
811	-0.151
811	-0.152
812	-0.149
812	-0.146
813	-0.147
813	-0.148
813	-0.149
814	-0.15
814	-0.15
815	-0.148
815	-0.145
816	-0.143
816	-0.143
817	-0.147
817	-0.149
817	-0.147
818	-0.143
818	-0.137
819	-0.131
819	-0.125
820	-0.121
820	-0.117
820	-0.112
821	-0.104
821	-0.096
822	-0.087
822	-0.08
823	-0.073
823	-0.067
823	-0.062
824	-0.057
824	-0.051
825	-0.045
825	-0.039
826	-0.034
826	-0.03
826	-0.027
827	-0.024
827	-0.021
828	-0.019
828	-0.018
829	-0.016
829	-0.015
829	-0.015
830	-0.015
830	-0.015
831	-0.014
831	-0.013
832	-0.012
832	-0.011
832	-0.01
833	-0.01
833	-0.009
834	-0.008
834	-0.007
835	-0.005
835	-0.005
835	-0.004
836	-0.003
836	-0.003
837	-0.002
837	-0.002
838	-0.002
838	-0.002
839	-0.002
839	-0.003
839	-0.003
840	-0.003
840	-0.003
841	-0.003
841	-0.003
842	-0.002
842	-0.001
842	-0
843	0
843	0.001
844	0.002
844	0.003
845	0.004
845	0.005
845	0.005
846	0.005
846	0.005
847	0.006
847	0.007
848	0.007
848	0.008
848	0.009
849	0.01
849	0.011
850	0.012
850	0.012
851	0.013
851	0.014
851	0.013
852	0.013
852	0.013
853	0.012
853	0.011
854	0.009
854	0.008
854	0.007
855	0.006
855	0.005
856	0.005
856	0.004
857	0.004
857	0.005
857	0.005
858	0.006
858	0.008
859	0.009
859	0.011
860	0.013
860	0.015
860	0.016
861	0.018
861	0.019
862	0.02
862	0.02
863	0.02
863	0.02
863	0.02
864	0.019
864	0.018
865	0.018
865	0.017
866	0.016
866	0.015
866	0.015
867	0.014
867	0.014
868	0.013
868	0.012
869	0.012
869	0.011
869	0.009
870	0.008
870	0.007
871	0.006
871	0.005
872	0.004
872	0.003
872	0.003
873	0.002
873	0.002
874	0.002
874	0.003
875	0.003
875	0.004
875	0.004
876	0.005
876	0.005
877	0.006
877	0.006
878	0.007
878	0.008
878	0.008
879	0.009
879	0.009
880	0.009
880	0.009
881	0.009
881	0.01
881	0.01
882	0.01
882	0.01
883	0.011
883	0.011
884	0.011
884	0.011
884	0.011
885	0.011
885	0.012
886	0.012
886	0.012
887	0.012
887	0.012
887	0.013
888	0.013
888	0.014
889	0.014
889	0.015
890	0.016
890	0.017
890	0.018
891	0.018
891	0.019
892	0.019
892	0.019
893	0.019
893	0.018
893	0.018
894	0.018
894	0.017
895	0.016
895	0.015
895	0.014
896	0.012
896	0.011
897	0.01
897	0.009
898	0.007
898	0.006
898	0.005
899	0.004
899	0.004
900	0.004
900	0.003
901	0.003
901	0.003
901	0.003
902	0.003
902	0.003
903	0.003
903	0.003
904	0.002
904	0.002
904	0.001
905	0.001
905	0.001
906	0.001
906	0.001
907	0.001
907	0.002
907	0.002
908	0.003
908	0.004
909	0.006
909	0.007
910	0.008
910	0.009
910	0.01
911	0.011
911	0.011
912	0.012
912	0.012
913	0.012
913	0.011
913	0.011
914	0.01
914	0.009
915	0.008
915	0.007
916	0.007
916	0.006
916	0.006
917	0.005
917	0.005
918	0.005
918	0.005
918	0.005
919	0.005
919	0.004
920	0.004
920	0.004
921	0.004
921	0.004
921	0.003
922	0.003
922	0.004
923	0.004
923	0.004
924	0.005
924	0.005
924	0.006
925	0.006
925	0.007
926	0.007
926	0.007
927	0.007
927	0.007
927	0.006
928	0.006
928	0.006
929	0.005
929	0.005
930	0.005
930	0.004
930	0.004
931	0.003
931	0.003
932	0.003
932	0.002
933	0.002
933	0.001
933	0.001
934	0.001
934	0
935	-0.001
935	-0.001
935	-0.001
936	-0.002
936	-0.002
937	-0.002
937	-0.002
938	-0.001
938	-0.001
938	-0.001
939	-0
939	0
940	0.001
940	0.002
941	0.003
941	0.003
941	0.004
942	0.005
942	0.005
943	0.006
943	0.006
944	0.006
944	0.007
944	0.008
945	0.008
945	0.009
946	0.01
946	0.01
946	0.01
947	0.011
947	0.011
948	0.012
948	0.012
949	0.012
949	0.012
949	0.013
950	0.013
950	0.014
951	0.015
951	0.015
952	0.016
952	0.016
952	0.017
953	0.018
953	0.018
954	0.018
954	0.018
955	0.017
955	0.017
955	0.017
956	0.016
956	0.016
957	0.015
957	0.014
957	0.012
958	0.011
958	0.011
959	0.01
959	0.009
960	0.007
960	0.006
960	0.005
961	0.003
961	0.002
962	0
962	-0.001
963	-0.002
963	-0.003
963	-0.004
964	-0.005
964	-0.006
965	-0.006
965	-0.006
966	-0.006
966	-0.006
966	-0.005
967	-0.005
967	-0.005
968	-0.005
968	-0.005
968	-0.005
969	-0.005
969	-0.005
970	-0.004
970	-0.004
971	-0.004
971	-0.004
971	-0.003
972	-0.003
972	-0.002
973	-0.001
973	-0
974	0.001
974	0.002
974	0.003
975	0.004
975	0.005
976	0.005
976	0.006
976	0.006
977	0.005
977	0.005
978	0.005
978	0.004
979	0.003
979	0.003
979	0.002
980	0.001
980	-0.001
981	-0.002
981	-0.003
982	-0.003
982	-0.004
982	-0.004
983	-0.004
983	-0.004
984	-0.005
984	-0.004
984	-0.004
985	-0.003
985	-0.002
986	-0.002
986	-0.001
987	-0.001
987	-0
987	-0
988	0
988	0.001
989	0.001
989	0.001
990	0.001
990	0.001
990	0.001
991	0.001
991	0.002
992	0.002
992	0.002
992	0.003
993	0.003
993	0.004
994	0.004
994	0.005
995	0.005
995	0.005
995	0.005
996	0.005
996	0.004
997	0.004
997	0.003
997	0.003
998	0.002
998	0.002
999	0.001
999	0.001
1000	0
1000	-0
1000	-0.001
1001	-0.001
1001	-0.001
1002	-0.001
1002	-0.002
1003	-0.002
1003	-0.002
1003	-0.002
1004	-0.003
1004	-0.003
1005	-0.004
1005	-0.004
1005	-0.005
1006	-0.005
1006	-0.006
1007	-0.006
1007	-0.007
1008	-0.007
1008	-0.007
1008	-0.007
1009	-0.007
1009	-0.007
1010	-0.007
1010	-0.007
1010	-0.007
1011	-0.007
1011	-0.007
1012	-0.007
1012	-0.006
1013	-0.006
1013	-0.006
1013	-0.005
1014	-0.005
1014	-0.005
1015	-0.005
1015	-0.004
1016	-0.004
1016	-0.003
1016	-0.003
1017	-0.003
1017	-0.002
1018	-0.002
1018	-0.001
1018	-0.001
1019	-0
1019	0
1020	0
1020	-0
1021	-0
1021	-0.001
1021	-0.001
1022	-0.001
1022	-0.002
1023	-0.002
1023	-0.003
1023	-0.003
1024	-0.004
1024	-0.004
1025	-0.005
1025	-0.005
1026	-0.005
1026	-0.005
1026	-0.005
1027	-0.005
1027	-0.005
1028	-0.005
1028	-0.005
1028	-0.004
1029	-0.004
1029	-0.003
1030	-0.003
1030	-0.003
1031	-0.003
1031	-0.003
1031	-0.003
1032	-0.003
1032	-0.004
1033	-0.004
1033	-0.005
1033	-0.005
1034	-0.006
1034	-0.008
1035	-0.008
1035	-0.009
1036	-0.01
1036	-0.011
1036	-0.011
1037	-0.011
1037	-0.012
1038	-0.012
1038	-0.012
1039	-0.012
1039	-0.012
1039	-0.012
1040	-0.012
1040	-0.012
1041	-0.012
1041	-0.013
1041	-0.013
1042	-0.014
1042	-0.014
1043	-0.015
1043	-0.015
1044	-0.016
1044	-0.017
1044	-0.017
1045	-0.017
1045	-0.017
1046	-0.018
1046	-0.018
1046	-0.017
1047	-0.017
1047	-0.016
1048	-0.016
1048	-0.015
1049	-0.015
1049	-0.015
1049	-0.015
1050	-0.014
1050	-0.013
1051	-0.013
1051	-0.012
1051	-0.011
1052	-0.01
1052	-0.009
1053	-0.008
1053	-0.008
1053	-0.007
1054	-0.006
1054	-0.005
1055	-0.004
1055	-0.004
1056	-0.004
1056	-0.005
1056	-0.005
1057	-0.006
1057	-0.007
1058	-0.007
1058	-0.008
1058	-0.009
1059	-0.01
1059	-0.011
1060	-0.011
1060	-0.012
1061	-0.012
1061	-0.012
1061	-0.012
1062	-0.013
1062	-0.014
1063	-0.014
1063	-0.015
1063	-0.015
1064	-0.015
1064	-0.014
1065	-0.014
1065	-0.014
1066	-0.014
1066	-0.013
1066	-0.013
1067	-0.012
1067	-0.011
1068	-0.01
1068	-0.009
1068	-0.009
1069	-0.008
1069	-0.008
1070	-0.007
1070	-0.007
1071	-0.006
1071	-0.005
1071	-0.005
1072	-0.004
1072	-0.003
1073	-0.002
1073	-0
1073	0.001
1074	0.002
1074	0.003
1075	0.003
1075	0.004
1076	0.004
1076	0.004
1076	0.003
1077	0.003
1077	0.003
1078	0.003
1078	0.004
1078	0.005
1079	0.006
1079	0.007
1080	0.007
1080	0.009
1080	0.01
1081	0.011
1081	0.012
1082	0.013
1082	0.013
1083	0.013
1083	0.014
1083	0.015
1084	0.016
1084	0.017
1085	0.017
1085	0.018
1085	0.019
1086	0.021
1086	0.021
1087	0.022
1087	0.023
1088	0.023
1088	0.024
1088	0.025
1089	0.025
1089	0.026
1090	0.026
1090	0.028
1090	0.028
1091	0.029
1091	0.031
1092	0.032
1092	0.034
1092	0.035
1093	0.036
1093	0.039
1094	0.04
1094	0.041
1095	0.043
1095	0.045
1095	0.048
1096	0.051
1096	0.053
1097	0.056
1097	0.059
1097	0.063
1098	0.066
1098	0.069
1099	0.074
1099	0.078
1100	0.084
1100	0.088
1100	0.093
1101	0.1
1101	0.106
1102	0.114
1102	0.123
1102	0.133
1103	0.143
1103	0.153
1104	0.167
1104	0.18
1104	0.195
1105	0.211
1105	0.228
1106	0.245
1106	0.266
1107	0.287
1107	0.319
1107	0.359
1108	0.5
1108	0.766
1109	-0
1109	-0
1109	-0
1110	-0
1110	-0
1111	-0
1111	-0
