Data from 15c-2-2a_Absorbance__1087__02888.txt Node

Date: Wed Jan 24 13:40:07 CET 2024
User: Marek
Spectrometer: MAYP115816
Trigger mode: 0
Integration Time (sec): 2.000000E-1
Scans to average: 10
Electric dark correction enabled: true
Nonlinearity correction enabled: true
Boxcar width: 5
XAxis mode: Wavelengths
Number of Pixels in Spectrum: 2068
>>>>>Begin Spectral Data<<<<<
199	-1.76
199	-1.601
200	-1.443
200	-1.32
201	-1.248
201	-1.195
202	-1.125
202	-1.069
203	-1.021
203	-0.98
204	-0.951
204	-0.926
205	-0.904
205	-0.894
205	-0.893
206	-0.89
206	-0.889
207	-0.885
207	-0.883
208	-0.882
208	-0.88
209	-0.878
209	-0.879
210	-0.879
210	-0.877
211	-0.876
211	-0.875
212	-0.873
212	-0.87
213	-0.867
213	-0.865
213	-0.863
214	-0.861
214	-0.858
215	-0.857
215	-0.853
216	-0.852
216	-0.85
217	-0.849
217	-0.85
218	-0.85
218	-0.849
219	-0.847
219	-0.844
220	-0.842
220	-0.84
221	-0.841
221	-0.838
221	-0.834
222	-0.828
222	-0.822
223	-0.816
223	-0.81
224	-0.801
224	-0.793
225	-0.785
225	-0.775
226	-0.765
226	-0.752
227	-0.74
227	-0.728
228	-0.711
228	-0.693
229	-0.672
229	-0.651
229	-0.625
230	-0.597
230	-0.565
231	-0.531
231	-0.495
232	-0.457
232	-0.417
233	-0.377
233	-0.336
234	-0.295
234	-0.254
235	-0.216
235	-0.177
236	-0.142
236	-0.107
236	-0.075
237	-0.045
237	-0.017
238	0.008
238	0.032
239	0.053
239	0.073
240	0.091
240	0.106
241	0.121
241	0.134
242	0.145
242	0.155
243	0.165
243	0.174
243	0.181
244	0.188
244	0.194
245	0.199
245	0.204
246	0.209
246	0.214
247	0.218
247	0.222
248	0.226
248	0.229
249	0.232
249	0.235
250	0.238
250	0.241
250	0.244
251	0.246
251	0.248
252	0.251
252	0.253
253	0.255
253	0.257
254	0.258
254	0.26
255	0.262
255	0.263
256	0.265
256	0.266
257	0.267
257	0.268
258	0.268
258	0.269
258	0.27
259	0.27
259	0.27
260	0.271
260	0.271
261	0.271
261	0.271
262	0.271
262	0.271
263	0.271
263	0.27
264	0.27
264	0.27
265	0.269
265	0.268
265	0.268
266	0.267
266	0.266
267	0.265
267	0.264
268	0.262
268	0.261
269	0.26
269	0.258
270	0.256
270	0.255
271	0.253
271	0.251
272	0.25
272	0.248
272	0.247
273	0.245
273	0.243
274	0.242
274	0.24
275	0.239
275	0.237
276	0.235
276	0.234
277	0.232
277	0.23
278	0.228
278	0.226
278	0.223
279	0.221
279	0.218
280	0.216
280	0.214
281	0.212
281	0.21
282	0.208
282	0.207
283	0.205
283	0.204
284	0.203
284	0.202
285	0.2
285	0.199
285	0.197
286	0.195
286	0.194
287	0.192
287	0.191
288	0.19
288	0.188
289	0.187
289	0.186
290	0.184
290	0.183
291	0.182
291	0.181
292	0.18
292	0.179
292	0.178
293	0.177
293	0.176
294	0.175
294	0.174
295	0.174
295	0.173
296	0.172
296	0.171
297	0.17
297	0.17
298	0.169
298	0.168
298	0.167
299	0.167
299	0.166
300	0.166
300	0.165
301	0.164
301	0.164
302	0.163
302	0.163
303	0.162
303	0.162
304	0.161
304	0.161
305	0.161
305	0.16
305	0.16
306	0.159
306	0.159
307	0.158
307	0.158
308	0.157
308	0.157
309	0.156
309	0.156
310	0.155
310	0.155
311	0.154
311	0.154
311	0.153
312	0.153
312	0.152
313	0.152
313	0.151
314	0.151
314	0.15
315	0.15
315	0.149
316	0.149
316	0.148
317	0.148
317	0.147
318	0.147
318	0.146
318	0.146
319	0.145
319	0.145
320	0.144
320	0.144
321	0.143
321	0.143
322	0.142
322	0.142
323	0.141
323	0.141
324	0.14
324	0.14
324	0.139
325	0.139
325	0.139
326	0.138
326	0.138
327	0.137
327	0.137
328	0.136
328	0.136
329	0.135
329	0.135
330	0.134
330	0.134
330	0.134
331	0.133
331	0.133
332	0.132
332	0.132
333	0.131
333	0.131
334	0.13
334	0.13
335	0.129
335	0.129
336	0.128
336	0.128
336	0.128
337	0.127
337	0.127
338	0.127
338	0.126
339	0.126
339	0.126
340	0.125
340	0.125
341	0.124
341	0.124
342	0.124
342	0.123
342	0.123
343	0.122
343	0.122
344	0.122
344	0.121
345	0.121
345	0.121
346	0.121
346	0.121
347	0.12
347	0.12
348	0.12
348	0.12
348	0.119
349	0.119
349	0.119
350	0.118
350	0.118
351	0.118
351	0.117
352	0.117
352	0.116
353	0.116
353	0.115
354	0.115
354	0.115
354	0.114
355	0.114
355	0.113
356	0.113
356	0.113
357	0.112
357	0.112
358	0.112
358	0.112
359	0.112
359	0.112
360	0.112
360	0.112
360	0.112
361	0.113
361	0.113
362	0.113
362	0.113
363	0.113
363	0.113
364	0.113
364	0.113
365	0.113
365	0.113
366	0.112
366	0.112
366	0.112
367	0.112
367	0.112
368	0.111
368	0.111
369	0.111
369	0.111
370	0.111
370	0.111
371	0.111
371	0.11
372	0.11
372	0.11
372	0.11
373	0.11
373	0.11
374	0.11
374	0.11
375	0.11
375	0.11
376	0.109
376	0.109
377	0.109
377	0.109
378	0.109
378	0.109
378	0.11
379	0.11
379	0.11
380	0.11
380	0.11
381	0.11
381	0.109
382	0.109
382	0.109
383	0.109
383	0.109
383	0.109
384	0.108
384	0.108
385	0.108
385	0.108
386	0.108
386	0.108
387	0.108
387	0.108
388	0.108
388	0.108
389	0.108
389	0.108
389	0.108
390	0.108
390	0.108
391	0.108
391	0.108
392	0.108
392	0.108
393	0.108
393	0.108
394	0.108
394	0.108
394	0.107
395	0.107
395	0.107
396	0.107
396	0.107
397	0.107
397	0.107
398	0.107
398	0.107
399	0.107
399	0.106
400	0.106
400	0.106
400	0.106
401	0.106
401	0.105
402	0.105
402	0.105
403	0.105
403	0.105
404	0.105
404	0.105
405	0.104
405	0.104
405	0.104
406	0.104
406	0.104
407	0.104
407	0.103
408	0.103
408	0.103
409	0.103
409	0.102
410	0.103
410	0.103
411	0.103
411	0.103
411	0.102
412	0.102
412	0.102
413	0.102
413	0.102
414	0.102
414	0.102
415	0.101
415	0.101
416	0.101
416	0.101
416	0.1
417	0.1
417	0.1
418	0.1
418	0.1
419	0.1
419	0.1
420	0.101
420	0.101
421	0.101
421	0.101
421	0.101
422	0.101
422	0.101
423	0.101
423	0.101
424	0.101
424	0.1
425	0.1
425	0.099
426	0.099
426	0.099
427	0.099
427	0.099
427	0.099
428	0.099
428	0.1
429	0.1
429	0.1
430	0.1
430	0.1
431	0.1
431	0.1
432	0.1
432	0.1
432	0.099
433	0.099
433	0.099
434	0.098
434	0.099
435	0.099
435	0.098
436	0.098
436	0.098
437	0.098
437	0.098
437	0.098
438	0.097
438	0.097
439	0.097
439	0.097
440	0.097
440	0.097
441	0.097
441	0.097
442	0.097
442	0.097
442	0.097
443	0.098
443	0.098
444	0.098
444	0.098
445	0.098
445	0.098
446	0.098
446	0.098
447	0.098
447	0.098
447	0.098
448	0.098
448	0.098
449	0.098
449	0.098
450	0.097
450	0.097
451	0.097
451	0.097
452	0.097
452	0.096
452	0.096
453	0.096
453	0.096
454	0.095
454	0.095
455	0.094
455	0.094
456	0.094
456	0.094
457	0.093
457	0.093
458	0.093
458	0.093
458	0.093
459	0.094
459	0.094
460	0.094
460	0.094
461	0.094
461	0.094
462	0.094
462	0.094
463	0.094
463	0.095
463	0.095
464	0.095
464	0.095
465	0.095
465	0.095
466	0.095
466	0.095
467	0.095
467	0.095
467	0.094
468	0.093
468	0.093
469	0.092
469	0.092
470	0.092
470	0.092
471	0.092
471	0.092
472	0.093
472	0.093
472	0.093
473	0.094
473	0.094
474	0.095
474	0.095
475	0.095
475	0.095
476	0.095
476	0.095
477	0.095
477	0.096
477	0.096
478	0.096
478	0.096
479	0.097
479	0.098
480	0.098
480	0.099
481	0.1
481	0.101
482	0.101
482	0.102
482	0.103
483	0.104
483	0.105
484	0.106
484	0.107
485	0.107
485	0.108
486	0.108
486	0.109
487	0.109
487	0.109
487	0.109
488	0.109
488	0.109
489	0.109
489	0.109
490	0.109
490	0.11
491	0.11
491	0.111
492	0.111
492	0.112
492	0.113
493	0.114
493	0.115
494	0.116
494	0.117
495	0.118
495	0.119
496	0.12
496	0.121
496	0.121
497	0.122
497	0.123
498	0.123
498	0.124
499	0.124
499	0.124
500	0.125
500	0.127
501	0.128
501	0.129
501	0.13
502	0.131
502	0.132
503	0.133
503	0.134
504	0.135
504	0.135
505	0.136
505	0.136
506	0.136
506	0.137
506	0.137
507	0.137
507	0.138
508	0.138
508	0.139
509	0.14
509	0.141
510	0.141
510	0.142
511	0.142
511	0.143
511	0.143
512	0.144
512	0.144
513	0.144
513	0.144
514	0.144
514	0.144
515	0.144
515	0.144
515	0.144
516	0.144
516	0.145
517	0.146
517	0.147
518	0.147
518	0.147
519	0.147
519	0.146
520	0.145
520	0.145
520	0.144
521	0.142
521	0.141
522	0.14
522	0.139
523	0.138
523	0.138
524	0.139
524	0.14
524	0.141
525	0.142
525	0.144
526	0.145
526	0.146
527	0.148
527	0.148
528	0.149
528	0.15
529	0.15
529	0.15
529	0.149
530	0.149
530	0.149
531	0.149
531	0.148
532	0.148
532	0.147
533	0.147
533	0.146
533	0.145
534	0.145
534	0.144
535	0.143
535	0.142
536	0.142
536	0.141
537	0.14
537	0.14
538	0.139
538	0.138
538	0.137
539	0.137
539	0.136
540	0.135
540	0.134
541	0.132
541	0.131
542	0.13
542	0.129
542	0.127
543	0.126
543	0.125
544	0.124
544	0.123
545	0.122
545	0.122
546	0.121
546	0.12
547	0.118
547	0.117
547	0.115
548	0.114
548	0.113
549	0.111
549	0.11
550	0.109
550	0.108
551	0.106
551	0.105
551	0.104
552	0.103
552	0.102
553	0.101
553	0.1
554	0.099
554	0.098
555	0.097
555	0.095
556	0.094
556	0.092
556	0.091
557	0.09
557	0.089
558	0.087
558	0.086
559	0.085
559	0.084
560	0.083
560	0.082
560	0.081
561	0.081
561	0.081
562	0.08
562	0.079
563	0.078
563	0.077
564	0.075
564	0.074
564	0.073
565	0.072
565	0.071
566	0.07
566	0.069
567	0.068
567	0.068
568	0.068
568	0.068
568	0.068
569	0.069
569	0.07
570	0.07
570	0.069
571	0.069
571	0.07
572	0.069
572	0.069
573	0.069
573	0.068
573	0.067
574	0.067
574	0.066
575	0.066
575	0.066
576	0.066
576	0.065
577	0.064
577	0.063
577	0.062
578	0.062
578	0.062
579	0.063
579	0.063
580	0.062
580	0.06
581	0.058
581	0.057
581	0.057
582	0.057
582	0.057
583	0.057
583	0.057
584	0.054
584	0.051
585	0.051
585	0.052
585	0.052
586	0.052
586	0.052
587	0.05
587	0.049
588	0.048
588	0.047
589	0.046
589	0.046
590	0.046
590	0.045
590	0.046
591	0.047
591	0.047
592	0.046
592	0.045
593	0.045
593	0.045
594	0.045
594	0.044
594	0.043
595	0.043
595	0.042
596	0.041
596	0.042
597	0.044
597	0.044
598	0.045
598	0.045
598	0.046
599	0.046
599	0.046
600	0.045
600	0.044
601	0.044
601	0.044
602	0.042
602	0.042
602	0.042
603	0.042
603	0.043
604	0.043
604	0.044
605	0.045
605	0.046
606	0.045
606	0.044
606	0.044
607	0.043
607	0.043
608	0.042
608	0.041
609	0.04
609	0.04
610	0.039
610	0.039
610	0.039
611	0.04
611	0.04
612	0.041
612	0.042
613	0.043
613	0.044
614	0.044
614	0.044
614	0.044
615	0.044
615	0.044
616	0.044
616	0.043
617	0.043
617	0.042
618	0.041
618	0.041
618	0.041
619	0.042
619	0.042
620	0.044
620	0.045
621	0.045
621	0.046
622	0.046
622	0.047
622	0.047
623	0.047
623	0.048
624	0.048
624	0.048
625	0.047
625	0.048
626	0.048
626	0.047
626	0.048
627	0.048
627	0.048
628	0.049
628	0.049
629	0.049
629	0.049
630	0.049
630	0.048
630	0.049
631	0.05
631	0.05
632	0.051
632	0.051
633	0.052
633	0.053
634	0.054
634	0.056
634	0.057
635	0.059
635	0.06
636	0.061
636	0.062
637	0.063
637	0.064
638	0.065
638	0.066
638	0.067
639	0.067
639	0.068
640	0.069
640	0.07
641	0.072
641	0.073
642	0.075
642	0.076
642	0.078
643	0.079
643	0.08
644	0.08
644	0.081
645	0.082
645	0.083
646	0.084
646	0.086
646	0.087
647	0.089
647	0.09
648	0.092
648	0.094
649	0.096
649	0.098
650	0.099
650	0.101
650	0.102
651	0.104
651	0.105
652	0.107
652	0.108
653	0.111
653	0.117
653	0.124
654	0.101
654	0.084
655	0.085
655	0.086
656	0.088
656	0.089
657	0.09
657	0.091
657	0.092
658	0.09
658	0.084
659	0.104
659	0.132
660	0.139
660	0.14
661	0.141
661	0.143
661	0.145
662	0.147
662	0.149
663	0.152
663	0.154
664	0.156
664	0.158
665	0.16
665	0.161
665	0.164
666	0.165
666	0.167
667	0.168
667	0.17
668	0.171
668	0.173
669	0.175
669	0.177
669	0.18
670	0.182
670	0.184
671	0.185
671	0.187
672	0.189
672	0.19
672	0.191
673	0.192
673	0.193
674	0.194
674	0.194
675	0.195
675	0.195
676	0.197
676	0.197
676	0.198
677	0.199
677	0.2
678	0.201
678	0.202
679	0.203
679	0.204
680	0.205
680	0.206
680	0.206
681	0.207
681	0.207
682	0.208
682	0.208
683	0.209
683	0.21
684	0.211
684	0.212
684	0.212
685	0.212
685	0.213
686	0.213
686	0.214
687	0.214
687	0.214
687	0.214
688	0.213
688	0.212
689	0.212
689	0.212
690	0.212
690	0.211
691	0.21
691	0.209
691	0.209
692	0.208
692	0.208
693	0.208
693	0.208
694	0.207
694	0.206
695	0.206
695	0.207
695	0.207
696	0.206
696	0.205
697	0.205
697	0.204
698	0.203
698	0.201
698	0.201
699	0.2
699	0.198
700	0.197
700	0.196
701	0.196
701	0.195
702	0.194
702	0.194
702	0.192
703	0.191
703	0.19
704	0.188
704	0.187
705	0.186
705	0.185
705	0.183
706	0.181
706	0.18
707	0.178
707	0.176
708	0.175
708	0.173
709	0.172
709	0.17
709	0.167
710	0.165
710	0.163
711	0.162
711	0.161
712	0.159
712	0.158
713	0.157
713	0.156
713	0.155
714	0.153
714	0.152
715	0.151
715	0.15
716	0.148
716	0.148
716	0.147
717	0.146
717	0.145
718	0.144
718	0.143
719	0.142
719	0.141
720	0.14
720	0.138
720	0.136
721	0.133
721	0.131
722	0.129
722	0.127
723	0.125
723	0.123
723	0.121
724	0.119
724	0.118
725	0.116
725	0.115
726	0.114
726	0.113
727	0.111
727	0.11
727	0.109
728	0.107
728	0.106
729	0.105
729	0.104
730	0.102
730	0.101
730	0.1
731	0.098
731	0.097
732	0.096
732	0.095
733	0.094
733	0.094
734	0.093
734	0.092
734	0.091
735	0.09
735	0.089
736	0.087
736	0.086
737	0.085
737	0.084
737	0.083
738	0.081
738	0.078
739	0.077
739	0.075
740	0.073
740	0.072
741	0.07
741	0.068
741	0.065
742	0.062
742	0.06
743	0.058
743	0.056
744	0.054
744	0.052
744	0.05
745	0.048
745	0.046
746	0.045
746	0.045
747	0.044
747	0.044
748	0.044
748	0.044
748	0.044
749	0.044
749	0.045
750	0.045
750	0.045
751	0.045
751	0.045
751	0.045
752	0.044
752	0.042
753	0.041
753	0.04
754	0.04
754	0.039
754	0.039
755	0.039
755	0.039
756	0.038
756	0.037
757	0.037
757	0.037
758	0.037
758	0.037
758	0.037
759	0.037
759	0.036
760	0.035
760	0.034
761	0.033
761	0.034
761	0.033
762	0.032
762	0.032
763	0.031
763	0.029
764	0.027
764	0.026
764	0.024
765	0.023
765	0.021
766	0.02
766	0.019
767	0.018
767	0.016
768	0.014
768	0.013
768	0.012
769	0.011
769	0.011
770	0.009
770	0.008
771	0.006
771	0.004
771	0.002
772	0
772	-0.001
773	-0.003
773	-0.005
774	-0.008
774	-0.01
775	-0.011
775	-0.013
775	-0.014
776	-0.016
776	-0.017
777	-0.019
777	-0.02
778	-0.022
778	-0.025
778	-0.027
779	-0.028
779	-0.03
780	-0.033
780	-0.036
781	-0.039
781	-0.043
781	-0.048
782	-0.053
782	-0.058
783	-0.062
783	-0.067
784	-0.074
784	-0.081
784	-0.087
785	-0.094
785	-0.101
786	-0.106
786	-0.109
787	-0.108
787	-0.109
788	-0.112
788	-0.116
788	-0.119
789	-0.122
789	-0.123
790	-0.122
790	-0.121
791	-0.123
791	-0.125
791	-0.128
792	-0.124
792	-0.113
793	-0.108
793	-0.104
794	-0.102
794	-0.103
794	-0.107
795	-0.109
795	-0.108
796	-0.108
796	-0.11
797	-0.118
797	-0.129
797	-0.135
798	-0.14
798	-0.142
799	-0.143
799	-0.143
800	-0.143
800	-0.145
801	-0.148
801	-0.15
801	-0.15
802	-0.151
802	-0.152
803	-0.153
803	-0.152
804	-0.151
804	-0.145
804	-0.138
805	-0.133
805	-0.131
806	-0.128
806	-0.126
807	-0.125
807	-0.124
807	-0.124
808	-0.124
808	-0.125
809	-0.13
809	-0.136
810	-0.14
810	-0.143
810	-0.147
811	-0.151
811	-0.152
812	-0.149
812	-0.147
813	-0.147
813	-0.148
813	-0.15
814	-0.151
814	-0.151
815	-0.148
815	-0.145
816	-0.143
816	-0.143
817	-0.147
817	-0.148
817	-0.146
818	-0.142
818	-0.136
819	-0.129
819	-0.124
820	-0.12
820	-0.115
820	-0.11
821	-0.102
821	-0.094
822	-0.086
822	-0.078
823	-0.072
823	-0.067
823	-0.062
824	-0.056
824	-0.051
825	-0.045
825	-0.039
826	-0.035
826	-0.032
826	-0.028
827	-0.025
827	-0.023
828	-0.021
828	-0.02
829	-0.018
829	-0.017
829	-0.017
830	-0.017
830	-0.017
831	-0.016
831	-0.015
832	-0.014
832	-0.013
832	-0.012
833	-0.011
833	-0.011
834	-0.01
834	-0.008
835	-0.007
835	-0.006
835	-0.006
836	-0.005
836	-0.005
837	-0.005
837	-0.005
838	-0.005
838	-0.005
839	-0.005
839	-0.005
839	-0.006
840	-0.006
840	-0.006
841	-0.005
841	-0.005
842	-0.004
842	-0.004
842	-0.003
843	-0.002
843	-0.001
844	-0
844	0.001
845	0.001
845	0.002
845	0.003
846	0.003
846	0.003
847	0.003
847	0.004
848	0.005
848	0.005
848	0.006
849	0.008
849	0.009
850	0.009
850	0.01
851	0.01
851	0.011
851	0.011
852	0.01
852	0.01
853	0.009
853	0.008
854	0.007
854	0.006
854	0.005
855	0.004
855	0.003
856	0.002
856	0.002
857	0.002
857	0.002
857	0.003
858	0.004
858	0.006
859	0.007
859	0.009
860	0.011
860	0.013
860	0.014
861	0.016
861	0.017
862	0.018
862	0.018
863	0.018
863	0.018
863	0.018
864	0.017
864	0.016
865	0.015
865	0.015
866	0.014
866	0.013
866	0.013
867	0.012
867	0.012
868	0.011
868	0.01
869	0.009
869	0.008
869	0.007
870	0.005
870	0.004
871	0.003
871	0.002
872	0.001
872	0.001
872	0
873	-0
873	-0
874	-0
874	0
875	0.001
875	0.001
875	0.002
876	0.002
876	0.003
877	0.003
877	0.004
878	0.004
878	0.005
878	0.006
879	0.006
879	0.006
880	0.007
880	0.007
881	0.007
881	0.007
881	0.008
882	0.008
882	0.008
883	0.008
883	0.008
884	0.009
884	0.009
884	0.009
885	0.009
885	0.009
886	0.01
886	0.01
887	0.01
887	0.01
887	0.01
888	0.011
888	0.011
889	0.012
889	0.013
890	0.014
890	0.015
890	0.015
891	0.016
891	0.016
892	0.016
892	0.016
893	0.016
893	0.016
893	0.016
894	0.015
894	0.014
895	0.013
895	0.012
895	0.011
896	0.01
896	0.009
897	0.007
897	0.006
898	0.005
898	0.004
898	0.003
899	0.002
899	0.002
900	0.002
900	0.002
901	0.002
901	0.002
901	0.002
902	0.002
902	0.001
903	0.001
903	0.001
904	0
904	-0
904	-0.001
905	-0.001
905	-0.001
906	-0.001
906	-0.001
907	-0.001
907	-0
907	0
908	0.001
908	0.002
909	0.003
909	0.005
910	0.006
910	0.007
910	0.008
911	0.009
911	0.009
912	0.01
912	0.01
913	0.01
913	0.009
913	0.009
914	0.008
914	0.007
915	0.006
915	0.005
916	0.004
916	0.004
916	0.003
917	0.003
917	0.003
918	0.003
918	0.003
918	0.003
919	0.003
919	0.003
920	0.003
920	0.003
921	0.002
921	0.002
921	0.002
922	0.002
922	0.002
923	0.002
923	0.003
924	0.003
924	0.004
924	0.004
925	0.004
925	0.005
926	0.005
926	0.005
927	0.005
927	0.005
927	0.004
928	0.004
928	0.004
929	0.003
929	0.003
930	0.003
930	0.002
930	0.002
931	0.001
931	0.001
932	0.001
932	0
933	-0
933	-0.001
933	-0.001
934	-0.002
934	-0.002
935	-0.003
935	-0.003
935	-0.004
936	-0.004
936	-0.004
937	-0.004
937	-0.004
938	-0.003
938	-0.003
938	-0.003
939	-0.002
939	-0.001
940	-0.001
940	0
941	0.001
941	0.002
941	0.003
942	0.003
942	0.004
943	0.004
943	0.005
944	0.005
944	0.006
944	0.007
945	0.007
945	0.008
946	0.008
946	0.009
946	0.009
947	0.01
947	0.01
948	0.01
948	0.01
949	0.01
949	0.01
949	0.011
950	0.011
950	0.011
951	0.012
951	0.012
952	0.013
952	0.014
952	0.014
953	0.015
953	0.015
954	0.015
954	0.015
955	0.015
955	0.015
955	0.015
956	0.014
956	0.014
957	0.013
957	0.012
957	0.01
958	0.01
958	0.009
959	0.008
959	0.007
960	0.006
960	0.004
960	0.003
961	0.001
961	-0
962	-0.002
962	-0.003
963	-0.004
963	-0.005
963	-0.007
964	-0.007
964	-0.008
965	-0.008
965	-0.008
966	-0.008
966	-0.008
966	-0.007
967	-0.007
967	-0.007
968	-0.007
968	-0.007
968	-0.006
969	-0.006
969	-0.006
970	-0.006
970	-0.006
971	-0.006
971	-0.006
971	-0.005
972	-0.005
972	-0.004
973	-0.003
973	-0.002
974	-0.001
974	0
974	0.001
975	0.002
975	0.003
976	0.003
976	0.004
976	0.004
977	0.004
977	0.003
978	0.003
978	0.002
979	0.001
979	0
979	-0.001
980	-0.002
980	-0.003
981	-0.004
981	-0.004
982	-0.005
982	-0.005
982	-0.006
983	-0.006
983	-0.006
984	-0.006
984	-0.006
984	-0.005
985	-0.004
985	-0.003
986	-0.003
986	-0.003
987	-0.002
987	-0.002
987	-0.001
988	-0.001
988	-0.001
989	-0.001
989	-0.001
990	-0.001
990	-0.001
990	-0.001
991	-0.001
991	-0
992	0
992	0
992	0.001
993	0.002
993	0.002
994	0.003
994	0.003
995	0.003
995	0.004
995	0.004
996	0.003
996	0.003
997	0.002
997	0.002
997	0.001
998	0.001
998	0
999	-0
999	-0.001
1000	-0.001
1000	-0.002
1000	-0.002
1001	-0.002
1001	-0.002
1002	-0.002
1002	-0.002
1003	-0.003
1003	-0.003
1003	-0.003
1004	-0.004
1004	-0.004
1005	-0.005
1005	-0.005
1005	-0.006
1006	-0.006
1006	-0.007
1007	-0.007
1007	-0.008
1008	-0.008
1008	-0.008
1008	-0.008
1009	-0.008
1009	-0.008
1010	-0.008
1010	-0.008
1010	-0.008
1011	-0.008
1011	-0.008
1012	-0.008
1012	-0.007
1013	-0.007
1013	-0.007
1013	-0.007
1014	-0.007
1014	-0.007
1015	-0.006
1015	-0.006
1016	-0.006
1016	-0.005
1016	-0.005
1017	-0.005
1017	-0.004
1018	-0.004
1018	-0.004
1018	-0.003
1019	-0.003
1019	-0.002
1020	-0.002
1020	-0.003
1021	-0.003
1021	-0.003
1021	-0.004
1022	-0.004
1022	-0.004
1023	-0.004
1023	-0.005
1023	-0.005
1024	-0.006
1024	-0.006
1025	-0.007
1025	-0.007
1026	-0.007
1026	-0.007
1026	-0.007
1027	-0.007
1027	-0.007
1028	-0.007
1028	-0.006
1028	-0.006
1029	-0.006
1029	-0.005
1030	-0.005
1030	-0.005
1031	-0.005
1031	-0.005
1031	-0.005
1032	-0.005
1032	-0.005
1033	-0.006
1033	-0.006
1033	-0.007
1034	-0.008
1034	-0.009
1035	-0.01
1035	-0.011
1036	-0.011
1036	-0.012
1036	-0.012
1037	-0.013
1037	-0.013
1038	-0.014
1038	-0.014
1039	-0.013
1039	-0.013
1039	-0.013
1040	-0.013
1040	-0.013
1041	-0.014
1041	-0.014
1041	-0.015
1042	-0.015
1042	-0.016
1043	-0.017
1043	-0.017
1044	-0.018
1044	-0.019
1044	-0.018
1045	-0.019
1045	-0.019
1046	-0.02
1046	-0.02
1046	-0.02
1047	-0.02
1047	-0.019
1048	-0.018
1048	-0.018
1049	-0.017
1049	-0.017
1049	-0.017
1050	-0.016
1050	-0.015
1051	-0.014
1051	-0.014
1051	-0.013
1052	-0.012
1052	-0.011
1053	-0.011
1053	-0.01
1053	-0.009
1054	-0.008
1054	-0.007
1055	-0.007
1055	-0.007
1056	-0.007
1056	-0.007
1056	-0.008
1057	-0.009
1057	-0.009
1058	-0.01
1058	-0.011
1058	-0.012
1059	-0.013
1059	-0.014
1060	-0.014
1060	-0.015
1061	-0.015
1061	-0.015
1061	-0.015
1062	-0.016
1062	-0.017
1063	-0.017
1063	-0.017
1063	-0.017
1064	-0.017
1064	-0.017
1065	-0.016
1065	-0.017
1066	-0.016
1066	-0.016
1066	-0.015
1067	-0.014
1067	-0.013
1068	-0.012
1068	-0.012
1068	-0.011
1069	-0.01
1069	-0.01
1070	-0.009
1070	-0.009
1071	-0.008
1071	-0.007
1071	-0.006
1072	-0.006
1072	-0.005
1073	-0.004
1073	-0.002
1073	-0.002
1074	-0
1074	0.001
1075	0.001
1075	0.002
1076	0.001
1076	0.002
1076	0.001
1077	0.001
1077	0.002
1078	0.002
1078	0.002
1078	0.003
1079	0.003
1079	0.004
1080	0.005
1080	0.006
1080	0.007
1081	0.009
1081	0.01
1082	0.01
1082	0.011
1083	0.011
1083	0.012
1083	0.012
1084	0.013
1084	0.014
1085	0.015
1085	0.015
1085	0.016
1086	0.017
1086	0.017
1087	0.018
1087	0.019
1088	0.019
1088	0.019
1088	0.02
1089	0.021
1089	0.021
1090	0.022
1090	0.022
1090	0.023
1091	0.024
1091	0.025
1092	0.027
1092	0.029
1092	0.03
1093	0.03
1093	0.033
1094	0.034
1094	0.035
1095	0.037
1095	0.039
1095	0.043
1096	0.044
1096	0.046
1097	0.049
1097	0.052
1097	0.056
1098	0.058
1098	0.061
1099	0.065
1099	0.069
1100	0.074
1100	0.077
1100	0.083
1101	0.088
1101	0.094
1102	0.101
1102	0.109
1102	0.118
1103	0.128
1103	0.139
1104	0.15
1104	0.162
1104	0.176
1105	0.19
1105	0.204
1106	0.219
1106	0.238
1107	0.256
1107	0.284
1107	0.32
1108	0.439
1108	0.648
1109	1.314
1109	-0
1109	-0
1110	-0
1110	-0
1111	-0
1111	-0
