Data from 15c-2-2a_Absorbance__3204__05005.txt Node

Date: Wed Jan 24 14:50:40 CET 2024
User: Marek
Spectrometer: MAYP115816
Trigger mode: 0
Integration Time (sec): 2.000000E-1
Scans to average: 10
Electric dark correction enabled: true
Nonlinearity correction enabled: true
Boxcar width: 5
XAxis mode: Wavelengths
Number of Pixels in Spectrum: 2068
>>>>>Begin Spectral Data<<<<<
199	-1.821
199	-1.661
200	-1.501
200	-1.377
201	-1.303
201	-1.249
202	-1.178
202	-1.12
203	-1.071
203	-1.029
204	-0.999
204	-0.974
205	-0.951
205	-0.942
205	-0.94
206	-0.937
206	-0.935
207	-0.931
207	-0.928
208	-0.927
208	-0.925
209	-0.923
209	-0.923
210	-0.923
210	-0.921
211	-0.919
211	-0.919
212	-0.917
212	-0.915
213	-0.912
213	-0.91
213	-0.908
214	-0.905
214	-0.9
215	-0.899
215	-0.895
216	-0.894
216	-0.891
217	-0.889
217	-0.89
218	-0.89
218	-0.888
219	-0.887
219	-0.884
220	-0.882
220	-0.88
221	-0.88
221	-0.877
221	-0.872
222	-0.866
222	-0.859
223	-0.853
223	-0.847
224	-0.838
224	-0.83
225	-0.822
225	-0.811
226	-0.801
226	-0.789
227	-0.776
227	-0.764
228	-0.745
228	-0.726
229	-0.704
229	-0.681
229	-0.653
230	-0.623
230	-0.589
231	-0.552
231	-0.513
232	-0.472
232	-0.429
233	-0.385
233	-0.339
234	-0.293
234	-0.246
235	-0.201
235	-0.156
236	-0.114
236	-0.072
236	-0.032
237	0.007
237	0.044
238	0.078
238	0.11
239	0.139
239	0.167
240	0.192
240	0.215
241	0.237
241	0.257
242	0.274
242	0.29
243	0.304
243	0.318
243	0.33
244	0.341
244	0.352
245	0.361
245	0.37
246	0.377
246	0.385
247	0.392
247	0.399
248	0.405
248	0.41
249	0.415
249	0.42
250	0.424
250	0.429
250	0.433
251	0.437
251	0.44
252	0.444
252	0.447
253	0.45
253	0.452
254	0.455
254	0.458
255	0.46
255	0.462
256	0.463
256	0.465
257	0.467
257	0.468
258	0.469
258	0.47
258	0.471
259	0.472
259	0.472
260	0.473
260	0.473
261	0.474
261	0.474
262	0.474
262	0.474
263	0.475
263	0.474
264	0.474
264	0.473
265	0.473
265	0.473
265	0.472
266	0.471
266	0.47
267	0.469
267	0.468
268	0.466
268	0.465
269	0.464
269	0.462
270	0.46
270	0.458
271	0.456
271	0.455
272	0.453
272	0.451
272	0.449
273	0.447
273	0.445
274	0.443
274	0.441
275	0.44
275	0.438
276	0.436
276	0.433
277	0.431
277	0.428
278	0.426
278	0.423
278	0.42
279	0.417
279	0.415
280	0.412
280	0.41
281	0.408
281	0.406
282	0.404
282	0.403
283	0.401
283	0.399
284	0.398
284	0.397
285	0.395
285	0.393
285	0.391
286	0.389
286	0.388
287	0.386
287	0.384
288	0.382
288	0.38
289	0.379
289	0.377
290	0.375
290	0.374
291	0.372
291	0.371
292	0.369
292	0.368
292	0.367
293	0.365
293	0.364
294	0.363
294	0.362
295	0.36
295	0.359
296	0.358
296	0.357
297	0.356
297	0.355
298	0.354
298	0.353
298	0.352
299	0.351
299	0.35
300	0.349
300	0.348
301	0.347
301	0.346
302	0.345
302	0.344
303	0.343
303	0.342
304	0.341
304	0.34
305	0.34
305	0.339
305	0.338
306	0.337
306	0.336
307	0.335
307	0.334
308	0.333
308	0.332
309	0.331
309	0.33
310	0.329
310	0.329
311	0.328
311	0.327
311	0.326
312	0.325
312	0.324
313	0.323
313	0.322
314	0.322
314	0.321
315	0.32
315	0.319
316	0.318
316	0.317
317	0.316
317	0.315
318	0.314
318	0.313
318	0.312
319	0.311
319	0.31
320	0.309
320	0.308
321	0.307
321	0.306
322	0.306
322	0.305
323	0.304
323	0.303
324	0.302
324	0.301
324	0.301
325	0.3
325	0.299
326	0.298
326	0.297
327	0.296
327	0.296
328	0.295
328	0.294
329	0.293
329	0.292
330	0.292
330	0.291
330	0.29
331	0.289
331	0.289
332	0.288
332	0.287
333	0.286
333	0.285
334	0.285
334	0.284
335	0.283
335	0.282
336	0.282
336	0.281
336	0.28
337	0.28
337	0.279
338	0.279
338	0.278
339	0.277
339	0.277
340	0.276
340	0.276
341	0.275
341	0.274
342	0.274
342	0.274
342	0.273
343	0.272
343	0.272
344	0.271
344	0.271
345	0.27
345	0.27
346	0.269
346	0.268
347	0.268
347	0.267
348	0.267
348	0.267
348	0.266
349	0.266
349	0.265
350	0.265
350	0.264
351	0.264
351	0.263
352	0.263
352	0.262
353	0.261
353	0.261
354	0.26
354	0.259
354	0.258
355	0.258
355	0.257
356	0.257
356	0.256
357	0.255
357	0.255
358	0.255
358	0.255
359	0.255
359	0.255
360	0.255
360	0.256
360	0.256
361	0.256
361	0.257
362	0.257
362	0.257
363	0.257
363	0.257
364	0.257
364	0.257
365	0.256
365	0.256
366	0.256
366	0.255
366	0.255
367	0.255
367	0.254
368	0.254
368	0.253
369	0.253
369	0.253
370	0.253
370	0.253
371	0.252
371	0.252
372	0.252
372	0.251
372	0.251
373	0.251
373	0.251
374	0.25
374	0.25
375	0.25
375	0.25
376	0.249
376	0.249
377	0.249
377	0.249
378	0.249
378	0.249
378	0.249
379	0.249
379	0.249
380	0.249
380	0.249
381	0.249
381	0.248
382	0.248
382	0.248
383	0.247
383	0.247
383	0.247
384	0.247
384	0.246
385	0.246
385	0.246
386	0.246
386	0.245
387	0.245
387	0.245
388	0.244
388	0.244
389	0.244
389	0.243
389	0.243
390	0.243
390	0.243
391	0.243
391	0.243
392	0.243
392	0.243
393	0.243
393	0.243
394	0.243
394	0.243
394	0.242
395	0.242
395	0.242
396	0.241
396	0.241
397	0.241
397	0.241
398	0.241
398	0.241
399	0.24
399	0.24
400	0.24
400	0.239
400	0.239
401	0.239
401	0.238
402	0.238
402	0.237
403	0.237
403	0.237
404	0.237
404	0.236
405	0.236
405	0.236
405	0.236
406	0.235
406	0.235
407	0.235
407	0.234
408	0.234
408	0.234
409	0.233
409	0.233
410	0.233
410	0.232
411	0.232
411	0.232
411	0.232
412	0.232
412	0.231
413	0.231
413	0.231
414	0.23
414	0.23
415	0.23
415	0.23
416	0.229
416	0.229
416	0.228
417	0.228
417	0.228
418	0.227
418	0.227
419	0.227
419	0.228
420	0.228
420	0.228
421	0.228
421	0.229
421	0.229
422	0.229
422	0.229
423	0.229
423	0.229
424	0.228
424	0.228
425	0.227
425	0.226
426	0.226
426	0.225
427	0.225
427	0.225
427	0.225
428	0.225
428	0.226
429	0.226
429	0.226
430	0.226
430	0.226
431	0.226
431	0.226
432	0.226
432	0.225
432	0.225
433	0.224
433	0.223
434	0.223
434	0.223
435	0.223
435	0.223
436	0.223
436	0.223
437	0.222
437	0.222
437	0.222
438	0.221
438	0.221
439	0.221
439	0.221
440	0.221
440	0.221
441	0.221
441	0.221
442	0.221
442	0.221
442	0.221
443	0.222
443	0.222
444	0.222
444	0.222
445	0.222
445	0.223
446	0.223
446	0.223
447	0.222
447	0.222
447	0.222
448	0.222
448	0.221
449	0.221
449	0.221
450	0.221
450	0.221
451	0.221
451	0.221
452	0.22
452	0.22
452	0.22
453	0.22
453	0.219
454	0.219
454	0.218
455	0.218
455	0.218
456	0.218
456	0.217
457	0.217
457	0.217
458	0.217
458	0.217
458	0.217
459	0.218
459	0.218
460	0.218
460	0.218
461	0.218
461	0.218
462	0.218
462	0.218
463	0.218
463	0.218
463	0.219
464	0.219
464	0.219
465	0.219
465	0.219
466	0.219
466	0.219
467	0.219
467	0.219
467	0.219
468	0.218
468	0.218
469	0.217
469	0.217
470	0.216
470	0.216
471	0.216
471	0.216
472	0.217
472	0.217
472	0.218
473	0.219
473	0.22
474	0.221
474	0.221
475	0.222
475	0.223
476	0.223
476	0.224
477	0.224
477	0.225
477	0.225
478	0.226
478	0.226
479	0.227
479	0.228
480	0.229
480	0.23
481	0.231
481	0.232
482	0.234
482	0.235
482	0.236
483	0.238
483	0.24
484	0.243
484	0.244
485	0.246
485	0.247
486	0.248
486	0.249
487	0.25
487	0.25
487	0.251
488	0.251
488	0.25
489	0.25
489	0.25
490	0.251
490	0.252
491	0.252
491	0.253
492	0.255
492	0.256
492	0.257
493	0.259
493	0.26
494	0.262
494	0.264
495	0.266
495	0.268
496	0.269
496	0.271
496	0.273
497	0.275
497	0.276
498	0.278
498	0.279
499	0.281
499	0.282
500	0.283
500	0.285
501	0.287
501	0.289
501	0.291
502	0.293
502	0.295
503	0.297
503	0.298
504	0.3
504	0.301
505	0.303
505	0.304
506	0.305
506	0.306
506	0.307
507	0.308
507	0.309
508	0.31
508	0.311
509	0.312
509	0.314
510	0.315
510	0.316
511	0.317
511	0.318
511	0.318
512	0.32
512	0.321
513	0.321
513	0.322
514	0.322
514	0.322
515	0.322
515	0.323
515	0.323
516	0.324
516	0.325
517	0.326
517	0.327
518	0.327
518	0.327
519	0.327
519	0.326
520	0.325
520	0.323
520	0.322
521	0.319
521	0.317
522	0.315
522	0.314
523	0.313
523	0.314
524	0.315
524	0.316
524	0.318
525	0.321
525	0.323
526	0.325
526	0.327
527	0.33
527	0.331
528	0.332
528	0.333
529	0.333
529	0.333
529	0.332
530	0.332
530	0.331
531	0.33
531	0.33
532	0.329
532	0.327
533	0.326
533	0.326
533	0.325
534	0.324
534	0.323
535	0.321
535	0.32
536	0.318
536	0.317
537	0.315
537	0.314
538	0.313
538	0.311
538	0.308
539	0.307
539	0.305
540	0.304
540	0.302
541	0.3
541	0.298
542	0.296
542	0.294
542	0.292
543	0.29
543	0.288
544	0.286
544	0.284
545	0.282
545	0.28
546	0.278
546	0.276
547	0.274
547	0.271
547	0.268
548	0.265
548	0.262
549	0.259
549	0.256
550	0.254
550	0.251
551	0.248
551	0.245
551	0.242
552	0.24
552	0.238
553	0.236
553	0.234
554	0.232
554	0.23
555	0.228
555	0.225
556	0.222
556	0.218
556	0.216
557	0.213
557	0.21
558	0.207
558	0.205
559	0.202
559	0.2
560	0.198
560	0.196
560	0.194
561	0.193
561	0.192
562	0.191
562	0.189
563	0.186
563	0.184
564	0.181
564	0.179
564	0.176
565	0.174
565	0.171
566	0.169
566	0.167
567	0.165
567	0.164
568	0.163
568	0.163
568	0.163
569	0.163
569	0.163
570	0.162
570	0.161
571	0.161
571	0.16
572	0.159
572	0.159
573	0.158
573	0.156
573	0.154
574	0.153
574	0.152
575	0.151
575	0.151
576	0.15
576	0.148
577	0.146
577	0.145
577	0.144
578	0.142
578	0.141
579	0.141
579	0.141
580	0.14
580	0.138
581	0.135
581	0.133
581	0.132
582	0.132
582	0.131
583	0.131
583	0.13
584	0.127
584	0.124
585	0.123
585	0.122
585	0.122
586	0.121
586	0.121
587	0.119
587	0.117
588	0.115
588	0.113
589	0.112
589	0.111
590	0.11
590	0.109
590	0.109
591	0.109
591	0.108
592	0.107
592	0.106
593	0.106
593	0.105
594	0.104
594	0.103
594	0.102
595	0.102
595	0.1
596	0.099
596	0.1
597	0.101
597	0.101
598	0.101
598	0.102
598	0.102
599	0.102
599	0.102
600	0.101
600	0.1
601	0.1
601	0.099
602	0.098
602	0.098
602	0.097
603	0.097
603	0.098
604	0.098
604	0.098
605	0.099
605	0.1
606	0.1
606	0.099
606	0.098
607	0.098
607	0.097
608	0.097
608	0.096
609	0.095
609	0.095
610	0.095
610	0.094
610	0.094
611	0.095
611	0.095
612	0.096
612	0.097
613	0.098
613	0.099
614	0.099
614	0.099
614	0.099
615	0.098
615	0.098
616	0.098
616	0.097
617	0.097
617	0.096
618	0.095
618	0.095
618	0.094
619	0.095
619	0.095
620	0.097
620	0.098
621	0.099
621	0.099
622	0.1
622	0.101
622	0.101
623	0.101
623	0.102
624	0.102
624	0.102
625	0.101
625	0.102
626	0.102
626	0.102
626	0.102
627	0.103
627	0.104
628	0.105
628	0.106
629	0.106
629	0.107
630	0.107
630	0.108
630	0.109
631	0.11
631	0.111
632	0.112
632	0.113
633	0.114
633	0.116
634	0.117
634	0.119
634	0.122
635	0.123
635	0.125
636	0.127
636	0.128
637	0.13
637	0.131
638	0.133
638	0.135
638	0.137
639	0.138
639	0.14
640	0.142
640	0.144
641	0.146
641	0.148
642	0.15
642	0.153
642	0.155
643	0.156
643	0.158
644	0.16
644	0.161
645	0.163
645	0.165
646	0.167
646	0.169
646	0.172
647	0.175
647	0.178
648	0.181
648	0.183
649	0.187
649	0.19
650	0.193
650	0.196
650	0.199
651	0.202
651	0.205
652	0.207
652	0.211
653	0.215
653	0.223
653	0.233
654	0.185
654	0.15
655	0.155
655	0.158
656	0.161
656	0.163
657	0.165
657	0.166
657	0.167
658	0.165
658	0.156
659	0.199
659	0.259
660	0.264
660	0.266
661	0.269
661	0.272
661	0.275
662	0.279
662	0.283
663	0.287
663	0.29
664	0.294
664	0.297
665	0.3
665	0.304
665	0.307
666	0.31
666	0.313
667	0.316
667	0.318
668	0.321
668	0.324
669	0.328
669	0.331
669	0.335
670	0.339
670	0.343
671	0.346
671	0.348
672	0.351
672	0.354
672	0.356
673	0.358
673	0.36
674	0.361
674	0.362
675	0.363
675	0.365
676	0.367
676	0.369
676	0.37
677	0.372
677	0.375
678	0.377
678	0.378
679	0.38
679	0.381
680	0.383
680	0.384
680	0.385
681	0.386
681	0.387
682	0.388
682	0.389
683	0.391
683	0.393
684	0.395
684	0.396
684	0.397
685	0.397
685	0.399
686	0.399
686	0.4
687	0.4
687	0.4
687	0.399
688	0.399
688	0.397
689	0.397
689	0.397
690	0.397
690	0.396
691	0.396
691	0.395
691	0.395
692	0.394
692	0.393
693	0.392
693	0.392
694	0.391
694	0.39
695	0.389
695	0.389
695	0.389
696	0.388
696	0.386
697	0.385
697	0.383
698	0.382
698	0.38
698	0.378
699	0.377
699	0.374
700	0.372
700	0.37
701	0.368
701	0.367
702	0.365
702	0.364
702	0.362
703	0.359
703	0.357
704	0.355
704	0.353
705	0.351
705	0.349
705	0.347
706	0.344
706	0.342
707	0.339
707	0.336
708	0.334
708	0.331
709	0.329
709	0.326
709	0.322
710	0.319
710	0.317
711	0.314
711	0.312
712	0.309
712	0.307
713	0.305
713	0.303
713	0.301
714	0.298
714	0.296
715	0.294
715	0.292
716	0.289
716	0.287
716	0.284
717	0.282
717	0.279
718	0.276
718	0.273
719	0.27
719	0.267
720	0.264
720	0.26
720	0.257
721	0.253
721	0.25
722	0.246
722	0.243
723	0.241
723	0.238
723	0.236
724	0.234
724	0.232
725	0.229
725	0.227
726	0.225
726	0.223
727	0.22
727	0.218
727	0.215
728	0.213
728	0.21
729	0.208
729	0.206
730	0.204
730	0.201
730	0.199
731	0.196
731	0.194
732	0.192
732	0.19
733	0.188
733	0.186
734	0.183
734	0.18
734	0.178
735	0.177
735	0.174
736	0.172
736	0.17
737	0.168
737	0.166
737	0.164
738	0.161
738	0.159
739	0.156
739	0.154
740	0.151
740	0.149
741	0.147
741	0.143
741	0.14
742	0.135
742	0.131
743	0.127
743	0.123
744	0.12
744	0.117
744	0.114
745	0.112
745	0.109
746	0.107
746	0.106
747	0.105
747	0.105
748	0.104
748	0.104
748	0.104
749	0.103
749	0.103
750	0.103
750	0.102
751	0.102
751	0.101
751	0.101
752	0.099
752	0.098
753	0.096
753	0.095
754	0.093
754	0.092
754	0.091
755	0.091
755	0.09
756	0.089
756	0.087
757	0.086
757	0.086
758	0.085
758	0.084
758	0.084
759	0.083
759	0.081
760	0.079
760	0.078
761	0.077
761	0.076
761	0.075
762	0.074
762	0.073
763	0.071
763	0.069
764	0.067
764	0.065
764	0.062
765	0.06
765	0.058
766	0.056
766	0.055
767	0.054
767	0.052
768	0.049
768	0.047
768	0.046
769	0.045
769	0.044
770	0.042
770	0.04
771	0.038
771	0.035
771	0.032
772	0.03
772	0.028
773	0.026
773	0.023
774	0.021
774	0.018
775	0.017
775	0.015
775	0.013
776	0.01
776	0.008
777	0.006
777	0.003
778	0
778	-0.003
778	-0.007
779	-0.01
779	-0.012
780	-0.016
780	-0.02
781	-0.024
781	-0.029
781	-0.034
782	-0.04
782	-0.046
783	-0.052
783	-0.058
784	-0.066
784	-0.074
784	-0.082
785	-0.091
785	-0.099
786	-0.105
786	-0.108
787	-0.108
787	-0.109
788	-0.112
788	-0.116
788	-0.12
789	-0.123
789	-0.123
790	-0.121
790	-0.121
791	-0.122
791	-0.124
791	-0.127
792	-0.123
792	-0.113
793	-0.107
793	-0.103
794	-0.102
794	-0.103
794	-0.106
795	-0.108
795	-0.108
796	-0.108
796	-0.11
797	-0.118
797	-0.128
797	-0.134
798	-0.139
798	-0.142
799	-0.143
799	-0.142
800	-0.142
800	-0.144
801	-0.148
801	-0.149
801	-0.149
802	-0.151
802	-0.152
803	-0.152
803	-0.152
804	-0.15
804	-0.145
804	-0.138
805	-0.133
805	-0.13
806	-0.127
806	-0.125
807	-0.124
807	-0.123
807	-0.123
808	-0.123
808	-0.124
809	-0.129
809	-0.135
810	-0.139
810	-0.143
810	-0.147
811	-0.15
811	-0.152
812	-0.148
812	-0.146
813	-0.147
813	-0.148
813	-0.149
814	-0.15
814	-0.15
815	-0.148
815	-0.145
816	-0.142
816	-0.142
817	-0.146
817	-0.149
817	-0.147
818	-0.143
818	-0.137
819	-0.131
819	-0.125
820	-0.121
820	-0.117
820	-0.112
821	-0.104
821	-0.095
822	-0.086
822	-0.078
823	-0.071
823	-0.064
823	-0.059
824	-0.052
824	-0.046
825	-0.039
825	-0.032
826	-0.027
826	-0.022
826	-0.018
827	-0.015
827	-0.012
828	-0.009
828	-0.007
829	-0.005
829	-0.004
829	-0.003
830	-0.003
830	-0.003
831	-0.001
831	-0
832	0
832	0.001
832	0.002
833	0.003
833	0.003
834	0.004
834	0.005
835	0.005
835	0.006
835	0.006
836	0.006
836	0.007
837	0.007
837	0.007
838	0.007
838	0.006
839	0.006
839	0.006
839	0.006
840	0.006
840	0.006
841	0.006
841	0.006
842	0.007
842	0.007
842	0.008
843	0.009
843	0.009
844	0.011
844	0.012
845	0.012
845	0.013
845	0.014
846	0.015
846	0.015
847	0.015
847	0.016
848	0.017
848	0.018
848	0.019
849	0.02
849	0.02
850	0.02
850	0.02
851	0.02
851	0.021
851	0.02
852	0.019
852	0.019
853	0.018
853	0.017
854	0.016
854	0.015
854	0.015
855	0.014
855	0.013
856	0.013
856	0.013
857	0.013
857	0.014
857	0.014
858	0.015
858	0.017
859	0.018
859	0.02
860	0.022
860	0.024
860	0.025
861	0.027
861	0.028
862	0.028
862	0.029
863	0.029
863	0.029
863	0.029
864	0.028
864	0.028
865	0.027
865	0.027
866	0.026
866	0.026
866	0.026
867	0.026
867	0.026
868	0.026
868	0.025
869	0.025
869	0.024
869	0.023
870	0.022
870	0.021
871	0.02
871	0.019
872	0.018
872	0.016
872	0.016
873	0.015
873	0.014
874	0.014
874	0.014
875	0.015
875	0.015
875	0.015
876	0.016
876	0.016
877	0.016
877	0.017
878	0.017
878	0.017
878	0.018
879	0.018
879	0.018
880	0.018
880	0.019
881	0.019
881	0.019
881	0.019
882	0.02
882	0.02
883	0.021
883	0.021
884	0.021
884	0.021
884	0.021
885	0.021
885	0.021
886	0.021
886	0.021
887	0.021
887	0.021
887	0.021
888	0.022
888	0.022
889	0.023
889	0.024
890	0.025
890	0.026
890	0.026
891	0.027
891	0.027
892	0.027
892	0.027
893	0.027
893	0.027
893	0.027
894	0.026
894	0.026
895	0.025
895	0.024
895	0.022
896	0.021
896	0.02
897	0.019
897	0.018
898	0.016
898	0.015
898	0.014
899	0.014
899	0.013
900	0.012
900	0.012
901	0.011
901	0.01
901	0.009
902	0.009
902	0.008
903	0.007
903	0.006
904	0.005
904	0.005
904	0.004
905	0.004
905	0.004
906	0.004
906	0.005
907	0.006
907	0.007
907	0.008
908	0.009
908	0.01
909	0.012
909	0.013
910	0.014
910	0.015
910	0.016
911	0.016
911	0.017
912	0.017
912	0.017
913	0.016
913	0.016
913	0.015
914	0.014
914	0.013
915	0.012
915	0.011
916	0.011
916	0.01
916	0.01
917	0.01
917	0.01
918	0.01
918	0.01
918	0.01
919	0.01
919	0.01
920	0.009
920	0.009
921	0.009
921	0.008
921	0.008
922	0.008
922	0.009
923	0.009
923	0.01
924	0.011
924	0.012
924	0.012
925	0.013
925	0.013
926	0.013
926	0.013
927	0.013
927	0.012
927	0.012
928	0.011
928	0.011
929	0.011
929	0.01
930	0.01
930	0.01
930	0.01
931	0.01
931	0.01
932	0.01
932	0.01
933	0.01
933	0.01
933	0.009
934	0.009
934	0.009
935	0.009
935	0.009
935	0.008
936	0.008
936	0.008
937	0.008
937	0.007
938	0.007
938	0.007
938	0.007
939	0.007
939	0.007
940	0.008
940	0.008
941	0.008
941	0.009
941	0.01
942	0.011
942	0.012
943	0.012
943	0.013
944	0.014
944	0.015
944	0.015
945	0.016
945	0.017
946	0.017
946	0.017
946	0.017
947	0.018
947	0.018
948	0.018
948	0.018
949	0.018
949	0.019
949	0.019
950	0.02
950	0.021
951	0.021
951	0.022
952	0.022
952	0.023
952	0.023
953	0.024
953	0.024
954	0.024
954	0.024
955	0.024
955	0.024
955	0.024
956	0.024
956	0.023
957	0.023
957	0.022
957	0.021
958	0.02
958	0.02
959	0.019
959	0.018
960	0.017
960	0.015
960	0.013
961	0.012
961	0.01
962	0.009
962	0.008
963	0.006
963	0.005
963	0.004
964	0.003
964	0.002
965	0.002
965	0.002
966	0.002
966	0.002
966	0.002
967	0.002
967	0.001
968	0.001
968	0.001
968	0
969	-0
969	-0
970	-0.001
970	-0.001
971	-0.001
971	-0.001
971	-0.001
972	-0.001
972	-0
973	0
973	0.001
974	0.002
974	0.002
974	0.003
975	0.004
975	0.005
976	0.006
976	0.006
976	0.007
977	0.007
977	0.007
978	0.007
978	0.007
979	0.007
979	0.006
979	0.006
980	0.005
980	0.005
981	0.004
981	0.004
982	0.004
982	0.003
982	0.003
983	0.003
983	0.003
984	0.004
984	0.004
984	0.004
985	0.005
985	0.006
986	0.006
986	0.006
987	0.007
987	0.007
987	0.007
988	0.008
988	0.008
989	0.008
989	0.008
990	0.008
990	0.008
990	0.008
991	0.009
991	0.009
992	0.01
992	0.01
992	0.011
993	0.012
993	0.012
994	0.013
994	0.014
995	0.014
995	0.014
995	0.014
996	0.013
996	0.012
997	0.012
997	0.011
997	0.01
998	0.009
998	0.008
999	0.007
999	0.007
1000	0.006
1000	0.006
1000	0.005
1001	0.005
1001	0.005
1002	0.005
1002	0.005
1003	0.005
1003	0.004
1003	0.004
1004	0.004
1004	0.003
1005	0.003
1005	0.002
1005	0.001
1006	0.001
1006	0
1007	-0
1007	-0.001
1008	-0.001
1008	-0.001
1008	-0.001
1009	-0.001
1009	-0
1010	0
1010	0.001
1010	0.001
1011	0.002
1011	0.002
1012	0.003
1012	0.003
1013	0.003
1013	0.004
1013	0.004
1014	0.004
1014	0.004
1015	0.004
1015	0.004
1016	0.005
1016	0.005
1016	0.005
1017	0.005
1017	0.006
1018	0.006
1018	0.006
1018	0.007
1019	0.007
1019	0.007
1020	0.007
1020	0.007
1021	0.006
1021	0.006
1021	0.005
1022	0.005
1022	0.004
1023	0.004
1023	0.004
1023	0.003
1024	0.002
1024	0.001
1025	0.001
1025	0
1026	-0
1026	-0
1026	-0.001
1027	-0.001
1027	-0.001
1028	-0.001
1028	-0.001
1028	-0
1029	-0
1029	-0
1030	0
1030	0
1031	0
1031	0
1031	0
1032	0
1032	0
1033	0
1033	0
1033	-0
1034	-0.001
1034	-0.001
1035	-0.002
1035	-0.002
1036	-0.003
1036	-0.003
1036	-0.004
1037	-0.004
1037	-0.005
1038	-0.005
1038	-0.006
1039	-0.006
1039	-0.006
1039	-0.006
1040	-0.006
1040	-0.007
1041	-0.007
1041	-0.008
1041	-0.008
1042	-0.009
1042	-0.009
1043	-0.01
1043	-0.01
1044	-0.011
1044	-0.011
1044	-0.011
1045	-0.011
1045	-0.011
1046	-0.011
1046	-0.011
1046	-0.01
1047	-0.01
1047	-0.009
1048	-0.008
1048	-0.007
1049	-0.007
1049	-0.007
1049	-0.006
1050	-0.005
1050	-0.005
1051	-0.004
1051	-0.004
1051	-0.003
1052	-0.002
1052	-0.001
1053	-0.001
1053	0
1053	0.001
1054	0.002
1054	0.003
1055	0.004
1055	0.004
1056	0.004
1056	0.003
1056	0.002
1057	0.002
1057	0.001
1058	0
1058	-0.001
1058	-0.002
1059	-0.003
1059	-0.004
1060	-0.004
1060	-0.005
1061	-0.005
1061	-0.006
1061	-0.005
1062	-0.006
1062	-0.006
1063	-0.006
1063	-0.006
1063	-0.006
1064	-0.006
1064	-0.005
1065	-0.005
1065	-0.005
1066	-0.004
1066	-0.004
1066	-0.003
1067	-0.002
1067	-0.002
1068	-0.001
1068	-0
1068	-0
1069	0
1069	0.001
1070	0.002
1070	0.002
1071	0.003
1071	0.004
1071	0.005
1072	0.006
1072	0.007
1073	0.009
1073	0.011
1073	0.012
1074	0.013
1074	0.014
1075	0.015
1075	0.016
1076	0.016
1076	0.017
1076	0.017
1077	0.017
1077	0.018
1078	0.018
1078	0.019
1078	0.02
1079	0.02
1079	0.021
1080	0.022
1080	0.023
1080	0.024
1081	0.026
1081	0.027
1082	0.028
1082	0.028
1083	0.029
1083	0.03
1083	0.032
1084	0.032
1084	0.034
1085	0.035
1085	0.037
1085	0.038
1086	0.039
1086	0.04
1087	0.041
1087	0.042
1088	0.042
1088	0.042
1088	0.043
1089	0.044
1089	0.044
1090	0.044
1090	0.046
1090	0.046
1091	0.048
1091	0.049
1092	0.051
1092	0.054
1092	0.056
1093	0.058
1093	0.06
1094	0.062
1094	0.064
1095	0.066
1095	0.068
1095	0.073
1096	0.075
1096	0.079
1097	0.082
1097	0.085
1097	0.089
1098	0.093
1098	0.097
1099	0.102
1099	0.107
1100	0.113
1100	0.119
1100	0.126
1101	0.133
1101	0.14
1102	0.15
1102	0.161
1102	0.173
1103	0.186
1103	0.2
1104	0.216
1104	0.235
1104	0.255
1105	0.276
1105	0.299
1106	0.322
1106	0.349
1107	0.38
1107	0.425
1107	0.487
1108	0.716
1108	1.538
1109	-0
1109	-0
1109	-0
1110	-0
1110	-0
1111	-0
1111	-0
