Data from 14c-stair-power-variation_Absorbance__27__04204.txt Node

Date: Tue Jan 16 16:13:53 CET 2024
User: Marek
Spectrometer: MAYP115816
Trigger mode: 0
Integration Time (sec): 2.000000E-1
Scans to average: 10
Electric dark correction enabled: true
Nonlinearity correction enabled: true
Boxcar width: 5
XAxis mode: Wavelengths
Number of Pixels in Spectrum: 2068
>>>>>Begin Spectral Data<<<<<
199	-2.15
199	-1.962
200	-1.827
200	-1.708
201	-1.634
201	-1.582
202	-1.507
202	-1.445
203	-1.396
203	-1.348
204	-1.322
204	-1.296
205	-1.276
205	-1.264
205	-1.261
206	-1.256
206	-1.253
207	-1.25
207	-1.25
208	-1.246
208	-1.244
209	-1.24
209	-1.238
210	-1.237
210	-1.235
211	-1.233
211	-1.233
212	-1.232
212	-1.231
213	-1.229
213	-1.229
213	-1.229
214	-1.227
214	-1.226
215	-1.225
215	-1.225
216	-1.222
216	-1.221
217	-1.218
217	-1.216
218	-1.211
218	-1.207
219	-1.203
219	-1.202
220	-1.2
220	-1.198
221	-1.194
221	-1.193
221	-1.188
222	-1.183
222	-1.178
223	-1.173
223	-1.169
224	-1.163
224	-1.154
225	-1.145
225	-1.135
226	-1.127
226	-1.117
227	-1.104
227	-1.091
228	-1.075
228	-1.059
229	-1.038
229	-1.014
229	-0.989
230	-0.96
230	-0.928
231	-0.892
231	-0.853
232	-0.813
232	-0.77
233	-0.723
233	-0.675
234	-0.627
234	-0.578
235	-0.528
235	-0.479
236	-0.431
236	-0.383
236	-0.336
237	-0.29
237	-0.246
238	-0.204
238	-0.165
239	-0.126
239	-0.09
240	-0.057
240	-0.025
241	0.004
241	0.031
242	0.056
242	0.08
243	0.101
243	0.121
243	0.14
244	0.157
244	0.173
245	0.187
245	0.201
246	0.214
246	0.226
247	0.236
247	0.247
248	0.256
248	0.265
249	0.273
249	0.281
250	0.288
250	0.295
250	0.301
251	0.307
251	0.312
252	0.317
252	0.322
253	0.327
253	0.331
254	0.335
254	0.339
255	0.342
255	0.345
256	0.348
256	0.351
257	0.353
257	0.355
258	0.357
258	0.359
258	0.361
259	0.362
259	0.363
260	0.365
260	0.366
261	0.366
261	0.367
262	0.368
262	0.368
263	0.369
263	0.369
264	0.369
264	0.369
265	0.37
265	0.369
265	0.369
266	0.369
266	0.369
267	0.369
267	0.369
268	0.368
268	0.367
269	0.366
269	0.365
270	0.364
270	0.364
271	0.363
271	0.362
272	0.361
272	0.359
272	0.358
273	0.357
273	0.356
274	0.355
274	0.354
275	0.353
275	0.353
276	0.351
276	0.35
277	0.348
277	0.347
278	0.345
278	0.343
278	0.342
279	0.339
279	0.338
280	0.336
280	0.335
281	0.334
281	0.333
282	0.332
282	0.332
283	0.331
283	0.331
284	0.33
284	0.33
285	0.329
285	0.328
285	0.327
286	0.326
286	0.326
287	0.325
287	0.324
288	0.323
288	0.322
289	0.321
289	0.32
290	0.319
290	0.318
291	0.318
291	0.317
292	0.316
292	0.315
292	0.314
293	0.313
293	0.312
294	0.312
294	0.311
295	0.31
295	0.31
296	0.309
296	0.308
297	0.307
297	0.307
298	0.306
298	0.305
298	0.305
299	0.304
299	0.304
300	0.303
300	0.302
301	0.302
301	0.301
302	0.3
302	0.3
303	0.299
303	0.299
304	0.298
304	0.297
305	0.296
305	0.296
305	0.295
306	0.294
306	0.293
307	0.293
307	0.292
308	0.291
308	0.291
309	0.29
309	0.289
310	0.288
310	0.287
311	0.287
311	0.286
311	0.285
312	0.284
312	0.283
313	0.282
313	0.281
314	0.281
314	0.28
315	0.279
315	0.278
316	0.277
316	0.276
317	0.276
317	0.275
318	0.274
318	0.273
318	0.272
319	0.271
319	0.27
320	0.269
320	0.268
321	0.267
321	0.266
322	0.265
322	0.265
323	0.264
323	0.263
324	0.262
324	0.261
324	0.26
325	0.26
325	0.259
326	0.258
326	0.257
327	0.257
327	0.256
328	0.255
328	0.254
329	0.253
329	0.252
330	0.251
330	0.251
330	0.25
331	0.249
331	0.248
332	0.247
332	0.246
333	0.246
333	0.245
334	0.244
334	0.243
335	0.243
335	0.242
336	0.241
336	0.24
336	0.239
337	0.239
337	0.238
338	0.237
338	0.236
339	0.236
339	0.235
340	0.234
340	0.234
341	0.233
341	0.232
342	0.232
342	0.231
342	0.231
343	0.23
343	0.229
344	0.229
344	0.228
345	0.227
345	0.227
346	0.226
346	0.225
347	0.225
347	0.224
348	0.223
348	0.223
348	0.222
349	0.221
349	0.221
350	0.22
350	0.219
351	0.218
351	0.217
352	0.216
352	0.215
353	0.214
353	0.213
354	0.212
354	0.211
354	0.21
355	0.209
355	0.208
356	0.207
356	0.206
357	0.205
357	0.205
358	0.204
358	0.205
359	0.205
359	0.206
360	0.207
360	0.208
360	0.208
361	0.209
361	0.21
362	0.21
362	0.21
363	0.211
363	0.21
364	0.21
364	0.209
365	0.209
365	0.208
366	0.208
366	0.208
366	0.207
367	0.207
367	0.207
368	0.206
368	0.206
369	0.205
369	0.205
370	0.205
370	0.204
371	0.204
371	0.204
372	0.203
372	0.203
372	0.202
373	0.202
373	0.202
374	0.201
374	0.201
375	0.201
375	0.201
376	0.201
376	0.201
377	0.202
377	0.202
378	0.202
378	0.203
378	0.203
379	0.203
379	0.203
380	0.203
380	0.203
381	0.203
381	0.203
382	0.202
382	0.202
383	0.201
383	0.201
383	0.201
384	0.2
384	0.2
385	0.199
385	0.199
386	0.199
386	0.199
387	0.199
387	0.199
388	0.199
388	0.199
389	0.199
389	0.198
389	0.198
390	0.199
390	0.199
391	0.199
391	0.199
392	0.199
392	0.199
393	0.199
393	0.199
394	0.199
394	0.199
394	0.199
395	0.199
395	0.199
396	0.198
396	0.198
397	0.199
397	0.199
398	0.199
398	0.199
399	0.198
399	0.198
400	0.198
400	0.198
400	0.197
401	0.196
401	0.195
402	0.194
402	0.193
403	0.193
403	0.193
404	0.193
404	0.192
405	0.192
405	0.192
405	0.191
406	0.191
406	0.191
407	0.191
407	0.191
408	0.19
408	0.19
409	0.189
409	0.189
410	0.189
410	0.189
411	0.189
411	0.189
411	0.189
412	0.188
412	0.188
413	0.188
413	0.188
414	0.187
414	0.187
415	0.187
415	0.186
416	0.186
416	0.185
416	0.185
417	0.184
417	0.184
418	0.184
418	0.185
419	0.186
419	0.186
420	0.187
420	0.188
421	0.188
421	0.189
421	0.189
422	0.189
422	0.19
423	0.19
423	0.189
424	0.188
424	0.187
425	0.186
425	0.185
426	0.185
426	0.184
427	0.184
427	0.184
427	0.185
428	0.185
428	0.186
429	0.187
429	0.188
430	0.188
430	0.188
431	0.188
431	0.187
432	0.187
432	0.186
432	0.185
433	0.184
433	0.183
434	0.182
434	0.181
435	0.181
435	0.181
436	0.181
436	0.182
437	0.182
437	0.182
437	0.182
438	0.182
438	0.182
439	0.182
439	0.181
440	0.181
440	0.181
441	0.182
441	0.182
442	0.182
442	0.183
442	0.183
443	0.184
443	0.185
444	0.185
444	0.185
445	0.186
445	0.186
446	0.186
446	0.186
447	0.186
447	0.186
447	0.185
448	0.185
448	0.185
449	0.185
449	0.184
450	0.184
450	0.184
451	0.183
451	0.183
452	0.182
452	0.182
452	0.181
453	0.181
453	0.18
454	0.179
454	0.178
455	0.178
455	0.177
456	0.177
456	0.177
457	0.177
457	0.177
458	0.177
458	0.177
458	0.178
459	0.178
459	0.178
460	0.178
460	0.177
461	0.176
461	0.176
462	0.176
462	0.176
463	0.177
463	0.177
463	0.178
464	0.178
464	0.178
465	0.178
465	0.178
466	0.179
466	0.179
467	0.179
467	0.178
467	0.177
468	0.175
468	0.173
469	0.172
469	0.171
470	0.17
470	0.17
471	0.169
471	0.169
472	0.169
472	0.169
472	0.17
473	0.171
473	0.172
474	0.173
474	0.174
475	0.175
475	0.176
476	0.176
476	0.177
477	0.177
477	0.178
477	0.178
478	0.178
478	0.179
479	0.179
479	0.18
480	0.181
480	0.182
481	0.183
481	0.184
482	0.184
482	0.186
482	0.187
483	0.189
483	0.192
484	0.196
484	0.198
485	0.2
485	0.202
486	0.203
486	0.204
487	0.204
487	0.205
487	0.205
488	0.205
488	0.203
489	0.201
489	0.199
490	0.198
490	0.198
491	0.198
491	0.198
492	0.199
492	0.199
492	0.2
493	0.201
493	0.202
494	0.204
494	0.207
495	0.209
495	0.21
496	0.211
496	0.212
496	0.213
497	0.214
497	0.214
498	0.215
498	0.216
499	0.216
499	0.216
500	0.216
500	0.217
501	0.219
501	0.221
501	0.223
502	0.225
502	0.226
503	0.228
503	0.229
504	0.23
504	0.231
505	0.231
505	0.232
506	0.232
506	0.233
506	0.233
507	0.233
507	0.234
508	0.234
508	0.234
509	0.235
509	0.236
510	0.237
510	0.237
511	0.237
511	0.238
511	0.237
512	0.237
512	0.237
513	0.237
513	0.237
514	0.236
514	0.236
515	0.235
515	0.234
515	0.233
516	0.232
516	0.232
517	0.232
517	0.233
518	0.233
518	0.232
519	0.232
519	0.23
520	0.228
520	0.226
520	0.224
521	0.222
521	0.219
522	0.216
522	0.213
523	0.211
523	0.21
524	0.21
524	0.212
524	0.213
525	0.216
525	0.218
526	0.222
526	0.225
527	0.228
527	0.231
528	0.233
528	0.235
529	0.237
529	0.238
529	0.238
530	0.238
530	0.239
531	0.239
531	0.24
532	0.239
532	0.239
533	0.239
533	0.239
533	0.239
534	0.239
534	0.238
535	0.237
535	0.237
536	0.236
536	0.236
537	0.235
537	0.235
538	0.234
538	0.233
538	0.231
539	0.23
539	0.23
540	0.229
540	0.228
541	0.226
541	0.225
542	0.223
542	0.221
542	0.22
543	0.219
543	0.217
544	0.216
544	0.214
545	0.213
545	0.212
546	0.212
546	0.211
547	0.21
547	0.208
547	0.205
548	0.203
548	0.2
549	0.198
549	0.196
550	0.195
550	0.193
551	0.19
551	0.187
551	0.186
552	0.184
552	0.183
553	0.183
553	0.182
554	0.182
554	0.18
555	0.178
555	0.176
556	0.173
556	0.17
556	0.167
557	0.164
557	0.162
558	0.16
558	0.158
559	0.156
559	0.155
560	0.154
560	0.154
560	0.154
561	0.154
561	0.154
562	0.154
562	0.152
563	0.151
563	0.149
564	0.146
564	0.143
564	0.141
565	0.139
565	0.138
566	0.137
566	0.136
567	0.136
567	0.137
568	0.138
568	0.14
568	0.141
569	0.144
569	0.146
570	0.147
570	0.147
571	0.148
571	0.149
572	0.149
572	0.149
573	0.149
573	0.149
573	0.147
574	0.146
574	0.145
575	0.145
575	0.146
576	0.147
576	0.146
577	0.144
577	0.142
577	0.141
578	0.14
578	0.141
579	0.142
579	0.144
580	0.143
580	0.141
581	0.138
581	0.136
581	0.135
582	0.136
582	0.136
583	0.137
583	0.135
584	0.132
584	0.128
585	0.126
585	0.125
585	0.125
586	0.125
586	0.125
587	0.123
587	0.121
588	0.118
588	0.116
589	0.115
589	0.114
590	0.113
590	0.113
590	0.114
591	0.115
591	0.115
592	0.115
592	0.114
593	0.114
593	0.114
594	0.113
594	0.112
594	0.111
595	0.111
595	0.109
596	0.107
596	0.107
597	0.11
597	0.111
598	0.112
598	0.114
598	0.115
599	0.115
599	0.115
600	0.114
600	0.113
601	0.112
601	0.111
602	0.109
602	0.107
602	0.106
603	0.105
603	0.105
604	0.105
604	0.106
605	0.108
605	0.109
606	0.11
606	0.109
606	0.108
607	0.108
607	0.107
608	0.107
608	0.105
609	0.103
609	0.103
610	0.101
610	0.099
610	0.098
611	0.099
611	0.1
612	0.101
612	0.102
613	0.104
613	0.106
614	0.106
614	0.105
614	0.106
615	0.105
615	0.105
616	0.105
616	0.104
617	0.104
617	0.102
618	0.101
618	0.1
618	0.099
619	0.099
619	0.1
620	0.102
620	0.103
621	0.104
621	0.105
622	0.105
622	0.106
622	0.106
623	0.107
623	0.108
624	0.109
624	0.109
625	0.109
625	0.11
626	0.11
626	0.11
626	0.11
627	0.111
627	0.111
628	0.111
628	0.112
629	0.112
629	0.112
630	0.111
630	0.111
630	0.111
631	0.111
631	0.112
632	0.111
632	0.112
633	0.112
633	0.113
634	0.114
634	0.116
634	0.118
635	0.119
635	0.12
636	0.122
636	0.124
637	0.125
637	0.126
638	0.128
638	0.129
638	0.131
639	0.131
639	0.132
640	0.134
640	0.135
641	0.137
641	0.139
642	0.141
642	0.143
642	0.145
643	0.147
643	0.148
644	0.15
644	0.152
645	0.154
645	0.157
646	0.159
646	0.162
646	0.166
647	0.17
647	0.173
648	0.175
648	0.178
649	0.182
649	0.185
650	0.188
650	0.191
650	0.194
651	0.196
651	0.199
652	0.201
652	0.203
653	0.207
653	0.216
653	0.226
654	0.184
654	0.152
655	0.156
655	0.158
656	0.16
656	0.162
657	0.163
657	0.165
657	0.166
658	0.161
658	0.152
659	0.189
659	0.239
660	0.243
660	0.244
661	0.246
661	0.248
661	0.251
662	0.254
662	0.258
663	0.262
663	0.266
664	0.269
664	0.272
665	0.275
665	0.278
665	0.281
666	0.284
666	0.286
667	0.289
667	0.291
668	0.294
668	0.296
669	0.299
669	0.302
669	0.307
670	0.312
670	0.315
671	0.318
671	0.32
672	0.323
672	0.324
672	0.326
673	0.328
673	0.329
674	0.331
674	0.331
675	0.331
675	0.332
676	0.334
676	0.336
676	0.337
677	0.34
677	0.342
678	0.344
678	0.346
679	0.347
679	0.349
680	0.351
680	0.352
680	0.353
681	0.353
681	0.354
682	0.356
682	0.357
683	0.359
683	0.362
684	0.365
684	0.366
684	0.367
685	0.368
685	0.37
686	0.371
686	0.372
687	0.372
687	0.371
687	0.371
688	0.37
688	0.369
689	0.369
689	0.37
690	0.37
690	0.37
691	0.37
691	0.37
691	0.37
692	0.37
692	0.369
693	0.37
693	0.37
694	0.37
694	0.368
695	0.369
695	0.37
695	0.37
696	0.369
696	0.368
697	0.368
697	0.366
698	0.365
698	0.362
698	0.36
699	0.358
699	0.356
700	0.352
700	0.35
701	0.349
701	0.348
702	0.346
702	0.344
702	0.343
703	0.341
703	0.339
704	0.337
704	0.336
705	0.335
705	0.333
705	0.331
706	0.329
706	0.327
707	0.325
707	0.323
708	0.321
708	0.32
709	0.319
709	0.317
709	0.313
710	0.31
710	0.308
711	0.306
711	0.304
712	0.302
712	0.301
713	0.299
713	0.297
713	0.294
714	0.291
714	0.288
715	0.286
715	0.283
716	0.28
716	0.277
716	0.274
717	0.272
717	0.269
718	0.267
718	0.264
719	0.263
719	0.261
720	0.26
720	0.258
720	0.255
721	0.252
721	0.249
722	0.247
722	0.243
723	0.241
723	0.238
723	0.235
724	0.232
724	0.229
725	0.225
725	0.222
726	0.22
726	0.218
727	0.215
727	0.214
727	0.212
728	0.21
728	0.209
729	0.209
729	0.208
730	0.207
730	0.206
730	0.205
731	0.204
731	0.203
732	0.202
732	0.2
733	0.198
733	0.196
734	0.194
734	0.191
734	0.189
735	0.188
735	0.185
736	0.182
736	0.179
737	0.177
737	0.175
737	0.173
738	0.17
738	0.167
739	0.164
739	0.162
740	0.159
740	0.158
741	0.156
741	0.154
741	0.151
742	0.147
742	0.144
743	0.141
743	0.139
744	0.137
744	0.135
744	0.133
745	0.13
745	0.127
746	0.125
746	0.124
747	0.122
747	0.121
748	0.121
748	0.119
748	0.118
749	0.116
749	0.115
750	0.114
750	0.113
751	0.112
751	0.112
751	0.112
752	0.111
752	0.11
753	0.109
753	0.108
754	0.107
754	0.107
754	0.107
755	0.107
755	0.107
756	0.106
756	0.103
757	0.102
757	0.101
758	0.101
758	0.099
758	0.098
759	0.096
759	0.093
760	0.09
760	0.086
761	0.084
761	0.082
761	0.08
762	0.078
762	0.076
763	0.075
763	0.072
764	0.069
764	0.067
764	0.065
765	0.063
765	0.061
766	0.059
766	0.059
767	0.058
767	0.055
768	0.052
768	0.05
768	0.049
769	0.048
769	0.048
770	0.047
770	0.045
771	0.043
771	0.04
771	0.038
772	0.036
772	0.034
773	0.032
773	0.029
774	0.026
774	0.023
775	0.02
775	0.016
775	0.012
776	0.008
776	0.004
777	-0
777	-0.005
778	-0.01
778	-0.016
778	-0.021
779	-0.025
779	-0.028
780	-0.033
780	-0.039
781	-0.044
781	-0.049
781	-0.054
782	-0.058
782	-0.063
783	-0.067
783	-0.07
784	-0.073
784	-0.076
784	-0.078
785	-0.08
785	-0.082
786	-0.083
786	-0.081
787	-0.077
787	-0.073
788	-0.072
788	-0.073
788	-0.074
789	-0.076
789	-0.075
790	-0.072
790	-0.071
791	-0.072
791	-0.073
791	-0.075
792	-0.07
792	-0.061
793	-0.055
793	-0.051
794	-0.05
794	-0.052
794	-0.055
795	-0.057
795	-0.057
796	-0.057
796	-0.059
797	-0.067
797	-0.076
797	-0.082
798	-0.087
798	-0.09
799	-0.091
799	-0.09
800	-0.09
800	-0.093
801	-0.096
801	-0.097
801	-0.098
802	-0.1
802	-0.101
803	-0.102
803	-0.102
804	-0.102
804	-0.097
804	-0.091
805	-0.087
805	-0.085
806	-0.083
806	-0.082
807	-0.081
807	-0.08
807	-0.079
808	-0.079
808	-0.079
809	-0.083
809	-0.088
810	-0.091
810	-0.093
810	-0.096
811	-0.098
811	-0.098
812	-0.094
812	-0.091
813	-0.092
813	-0.092
813	-0.093
814	-0.094
814	-0.094
815	-0.092
815	-0.089
816	-0.087
816	-0.088
817	-0.092
817	-0.095
817	-0.096
818	-0.095
818	-0.092
819	-0.087
819	-0.084
820	-0.086
820	-0.088
820	-0.089
821	-0.088
821	-0.085
822	-0.082
822	-0.078
823	-0.073
823	-0.07
823	-0.068
824	-0.064
824	-0.057
825	-0.048
825	-0.037
826	-0.028
826	-0.022
826	-0.015
827	-0.009
827	-0.003
828	0.002
828	0.006
829	0.011
829	0.015
829	0.018
830	0.021
830	0.024
831	0.028
831	0.032
832	0.034
832	0.037
832	0.04
833	0.042
833	0.044
834	0.046
834	0.047
835	0.049
835	0.049
835	0.05
836	0.051
836	0.052
837	0.053
837	0.053
838	0.054
838	0.054
839	0.054
839	0.054
839	0.054
840	0.054
840	0.055
841	0.055
841	0.055
842	0.055
842	0.056
842	0.056
843	0.057
843	0.057
844	0.058
844	0.059
845	0.059
845	0.06
845	0.062
846	0.062
846	0.063
847	0.065
847	0.066
848	0.067
848	0.068
848	0.07
849	0.071
849	0.071
850	0.072
850	0.072
851	0.072
851	0.073
851	0.073
852	0.073
852	0.074
853	0.074
853	0.074
854	0.075
854	0.075
854	0.076
855	0.076
855	0.077
856	0.077
856	0.077
857	0.077
857	0.077
857	0.077
858	0.077
858	0.077
859	0.076
859	0.076
860	0.076
860	0.076
860	0.075
861	0.075
861	0.074
862	0.073
862	0.072
863	0.071
863	0.071
863	0.07
864	0.07
864	0.069
865	0.069
865	0.07
866	0.07
866	0.071
866	0.072
867	0.074
867	0.075
868	0.076
868	0.078
869	0.079
869	0.08
869	0.081
870	0.081
870	0.081
871	0.081
871	0.081
872	0.08
872	0.079
872	0.078
873	0.078
873	0.076
874	0.076
874	0.076
875	0.075
875	0.075
875	0.075
876	0.076
876	0.076
877	0.076
877	0.076
878	0.075
878	0.075
878	0.075
879	0.075
879	0.074
880	0.073
880	0.073
881	0.072
881	0.072
881	0.072
882	0.072
882	0.072
883	0.072
883	0.072
884	0.073
884	0.074
884	0.074
885	0.075
885	0.076
886	0.077
886	0.077
887	0.078
887	0.078
887	0.078
888	0.078
888	0.078
889	0.078
889	0.079
890	0.079
890	0.08
890	0.08
891	0.08
891	0.081
892	0.081
892	0.082
893	0.082
893	0.083
893	0.083
894	0.084
894	0.084
895	0.084
895	0.084
895	0.084
896	0.085
896	0.085
897	0.085
897	0.086
898	0.086
898	0.086
898	0.086
899	0.086
899	0.086
900	0.087
900	0.087
901	0.087
901	0.087
901	0.087
902	0.087
902	0.088
903	0.087
903	0.087
904	0.087
904	0.087
904	0.086
905	0.086
905	0.086
906	0.085
906	0.085
907	0.085
907	0.085
907	0.084
908	0.084
908	0.084
909	0.085
909	0.085
910	0.085
910	0.085
910	0.085
911	0.085
911	0.086
912	0.086
912	0.087
913	0.087
913	0.087
913	0.088
914	0.088
914	0.088
915	0.088
915	0.088
916	0.087
916	0.086
916	0.086
917	0.085
917	0.084
918	0.084
918	0.083
918	0.083
919	0.082
919	0.082
920	0.081
920	0.081
921	0.081
921	0.08
921	0.079
922	0.079
922	0.078
923	0.077
923	0.076
924	0.076
924	0.075
924	0.074
925	0.073
925	0.073
926	0.072
926	0.072
927	0.071
927	0.071
927	0.071
928	0.071
928	0.071
929	0.072
929	0.073
930	0.074
930	0.076
930	0.077
931	0.079
931	0.08
932	0.082
932	0.084
933	0.085
933	0.087
933	0.088
934	0.089
934	0.09
935	0.09
935	0.09
935	0.09
936	0.09
936	0.09
937	0.09
937	0.09
938	0.09
938	0.09
938	0.09
939	0.091
939	0.091
940	0.092
940	0.092
941	0.093
941	0.093
941	0.093
942	0.093
942	0.093
943	0.092
943	0.091
944	0.091
944	0.09
944	0.09
945	0.09
945	0.09
946	0.09
946	0.09
946	0.089
947	0.089
947	0.088
948	0.088
948	0.087
949	0.086
949	0.086
949	0.086
950	0.085
950	0.085
951	0.084
951	0.083
952	0.083
952	0.083
952	0.082
953	0.081
953	0.081
954	0.08
954	0.079
955	0.078
955	0.078
955	0.078
956	0.078
956	0.078
957	0.078
957	0.079
957	0.079
958	0.079
958	0.079
959	0.079
959	0.078
960	0.078
960	0.077
960	0.076
961	0.075
961	0.074
962	0.073
962	0.073
963	0.073
963	0.072
963	0.072
964	0.073
964	0.073
965	0.074
965	0.075
966	0.076
966	0.077
966	0.078
967	0.079
967	0.08
968	0.08
968	0.081
968	0.081
969	0.081
969	0.081
970	0.081
970	0.081
971	0.081
971	0.081
971	0.081
972	0.082
972	0.083
973	0.083
973	0.084
974	0.085
974	0.086
974	0.087
975	0.088
975	0.089
976	0.09
976	0.091
976	0.091
977	0.092
977	0.092
978	0.092
978	0.092
979	0.092
979	0.092
979	0.092
980	0.092
980	0.091
981	0.092
981	0.092
982	0.092
982	0.093
982	0.093
983	0.094
983	0.094
984	0.095
984	0.095
984	0.095
985	0.095
985	0.095
986	0.094
986	0.094
987	0.093
987	0.092
987	0.091
988	0.09
988	0.089
989	0.088
989	0.087
990	0.087
990	0.086
990	0.086
991	0.086
991	0.086
992	0.086
992	0.086
992	0.086
993	0.086
993	0.086
994	0.085
994	0.085
995	0.084
995	0.084
995	0.084
996	0.083
996	0.083
997	0.082
997	0.083
997	0.083
998	0.084
998	0.085
999	0.086
999	0.087
1000	0.088
1000	0.088
1000	0.089
1001	0.09
1001	0.091
1002	0.091
1002	0.091
1003	0.091
1003	0.09
1003	0.089
1004	0.089
1004	0.088
1005	0.087
1005	0.086
1005	0.085
1006	0.084
1006	0.083
1007	0.083
1007	0.082
1008	0.082
1008	0.083
1008	0.083
1009	0.083
1009	0.084
1010	0.084
1010	0.085
1010	0.085
1011	0.086
1011	0.086
1012	0.086
1012	0.086
1013	0.086
1013	0.086
1013	0.085
1014	0.085
1014	0.084
1015	0.083
1015	0.083
1016	0.082
1016	0.081
1016	0.08
1017	0.079
1017	0.078
1018	0.078
1018	0.077
1018	0.077
1019	0.077
1019	0.077
1020	0.077
1020	0.078
1021	0.078
1021	0.078
1021	0.078
1022	0.079
1022	0.079
1023	0.079
1023	0.079
1023	0.078
1024	0.078
1024	0.077
1025	0.076
1025	0.076
1026	0.075
1026	0.075
1026	0.074
1027	0.073
1027	0.073
1028	0.073
1028	0.073
1028	0.073
1029	0.073
1029	0.073
1030	0.073
1030	0.073
1031	0.074
1031	0.074
1031	0.075
1032	0.075
1032	0.076
1033	0.076
1033	0.077
1033	0.077
1034	0.077
1034	0.077
1035	0.077
1035	0.077
1036	0.077
1036	0.077
1036	0.078
1037	0.078
1037	0.079
1038	0.079
1038	0.08
1039	0.08
1039	0.081
1039	0.082
1040	0.082
1040	0.083
1041	0.083
1041	0.083
1041	0.083
1042	0.082
1042	0.082
1043	0.081
1043	0.081
1044	0.08
1044	0.08
1044	0.079
1045	0.079
1045	0.078
1046	0.078
1046	0.078
1046	0.079
1047	0.079
1047	0.08
1048	0.08
1048	0.08
1049	0.08
1049	0.08
1049	0.08
1050	0.079
1050	0.079
1051	0.079
1051	0.079
1051	0.079
1052	0.079
1052	0.078
1053	0.079
1053	0.079
1053	0.079
1054	0.08
1054	0.08
1055	0.081
1055	0.082
1056	0.082
1056	0.082
1056	0.082
1057	0.082
1057	0.082
1058	0.083
1058	0.084
1058	0.084
1059	0.085
1059	0.086
1060	0.087
1060	0.088
1061	0.089
1061	0.09
1061	0.091
1062	0.092
1062	0.092
1063	0.093
1063	0.093
1063	0.094
1064	0.095
1064	0.096
1065	0.097
1065	0.098
1066	0.099
1066	0.1
1066	0.102
1067	0.104
1067	0.106
1068	0.108
1068	0.109
1068	0.11
1069	0.111
1069	0.112
1070	0.113
1070	0.114
1071	0.116
1071	0.117
1071	0.118
1072	0.119
1072	0.121
1073	0.123
1073	0.125
1073	0.126
1074	0.127
1074	0.129
1075	0.128
1075	0.129
1076	0.129
1076	0.13
1076	0.13
1077	0.131
1077	0.132
1078	0.134
1078	0.136
1078	0.138
1079	0.141
1079	0.144
1080	0.146
1080	0.149
1080	0.15
1081	0.153
1081	0.155
1082	0.157
1082	0.159
1083	0.16
1083	0.162
1083	0.166
1084	0.168
1084	0.172
1085	0.175
1085	0.179
1085	0.183
1086	0.187
1086	0.19
1087	0.195
1087	0.2
1088	0.204
1088	0.209
1088	0.215
1089	0.22
1089	0.227
1090	0.234
1090	0.242
1090	0.25
1091	0.259
1091	0.269
1092	0.279
1092	0.292
1092	0.302
1093	0.313
1093	0.328
1094	0.34
1094	0.354
1095	0.368
1095	0.385
1095	0.407
1096	0.427
1096	0.45
1097	0.479
1097	0.507
1097	0.543
1098	0.58
1098	0.624
1099	0.678
1099	0.741
1100	0.824
1100	0.922
1100	1.069
1101	1.3
1101	1.848
1102	-0
1102	-0
1102	-0
1103	-0
1103	-0
1104	-0
1104	-0
1104	-0
1105	-0
1105	-0
1106	-0
1106	-0
1107	-0
1107	-0
1107	-0
1108	-0
1108	-0
1109	-0
1109	-0
1109	-0
1110	-0
1110	-0
1111	-0
1111	-0
