Data from 14c-stair-power-variation_Absorbance__128__04305.txt Node

Date: Tue Jan 16 16:17:37 CET 2024
User: Marek
Spectrometer: MAYP115816
Trigger mode: 0
Integration Time (sec): 2.000000E-1
Scans to average: 10
Electric dark correction enabled: true
Nonlinearity correction enabled: true
Boxcar width: 5
XAxis mode: Wavelengths
Number of Pixels in Spectrum: 2068
>>>>>Begin Spectral Data<<<<<
199	-0.608
199	-0.537
200	-0.464
200	-0.392
201	-0.353
201	-0.33
202	-0.305
202	-0.296
203	-0.291
203	-0.281
204	-0.265
204	-0.246
205	-0.231
205	-0.224
205	-0.228
206	-0.227
206	-0.229
207	-0.228
207	-0.23
208	-0.229
208	-0.232
209	-0.228
209	-0.234
210	-0.236
210	-0.236
211	-0.235
211	-0.238
212	-0.241
212	-0.243
213	-0.244
213	-0.245
213	-0.249
214	-0.249
214	-0.247
215	-0.246
215	-0.25
216	-0.25
216	-0.252
217	-0.247
217	-0.246
218	-0.243
218	-0.239
219	-0.232
219	-0.234
220	-0.235
220	-0.238
221	-0.237
221	-0.237
221	-0.232
222	-0.228
222	-0.226
223	-0.221
223	-0.22
224	-0.219
224	-0.209
225	-0.199
225	-0.192
226	-0.187
226	-0.177
227	-0.166
227	-0.162
228	-0.148
228	-0.137
229	-0.12
229	-0.098
229	-0.077
230	-0.054
230	-0.026
231	0.005
231	0.037
232	0.064
232	0.098
233	0.129
233	0.162
234	0.192
234	0.221
235	0.248
235	0.273
236	0.296
236	0.318
236	0.339
237	0.359
237	0.376
238	0.392
238	0.405
239	0.42
239	0.431
240	0.442
240	0.45
241	0.457
241	0.464
242	0.47
242	0.476
243	0.481
243	0.485
243	0.488
244	0.491
244	0.494
245	0.496
245	0.499
246	0.502
246	0.505
247	0.507
247	0.509
248	0.512
248	0.514
249	0.516
249	0.518
250	0.52
250	0.522
250	0.523
251	0.524
251	0.525
252	0.527
252	0.529
253	0.529
253	0.53
254	0.531
254	0.532
255	0.533
255	0.533
256	0.534
256	0.534
257	0.535
257	0.535
258	0.534
258	0.534
258	0.534
259	0.534
259	0.533
260	0.533
260	0.533
261	0.532
261	0.532
262	0.531
262	0.53
263	0.529
263	0.528
264	0.526
264	0.525
265	0.524
265	0.522
265	0.521
266	0.519
266	0.517
267	0.515
267	0.513
268	0.511
268	0.509
269	0.507
269	0.505
270	0.503
270	0.5
271	0.497
271	0.495
272	0.492
272	0.49
272	0.488
273	0.485
273	0.482
274	0.479
274	0.476
275	0.474
275	0.471
276	0.469
276	0.466
277	0.463
277	0.46
278	0.457
278	0.455
278	0.452
279	0.448
279	0.445
280	0.441
280	0.438
281	0.435
281	0.432
282	0.429
282	0.426
283	0.423
283	0.42
284	0.418
284	0.416
285	0.414
285	0.412
285	0.409
286	0.407
286	0.405
287	0.403
287	0.4
288	0.398
288	0.396
289	0.394
289	0.392
290	0.39
290	0.388
291	0.386
291	0.384
292	0.382
292	0.38
292	0.378
293	0.377
293	0.375
294	0.373
294	0.372
295	0.37
295	0.369
296	0.367
296	0.366
297	0.365
297	0.364
298	0.362
298	0.361
298	0.36
299	0.359
299	0.358
300	0.357
300	0.356
301	0.355
301	0.354
302	0.353
302	0.352
303	0.351
303	0.35
304	0.349
304	0.348
305	0.347
305	0.346
305	0.345
306	0.344
306	0.343
307	0.343
307	0.342
308	0.341
308	0.34
309	0.339
309	0.338
310	0.337
310	0.336
311	0.336
311	0.335
311	0.334
312	0.333
312	0.332
313	0.331
313	0.33
314	0.329
314	0.328
315	0.328
315	0.327
316	0.326
316	0.324
317	0.324
317	0.323
318	0.322
318	0.321
318	0.321
319	0.32
319	0.319
320	0.318
320	0.317
321	0.317
321	0.316
322	0.315
322	0.315
323	0.314
323	0.313
324	0.312
324	0.311
324	0.311
325	0.31
325	0.309
326	0.308
326	0.308
327	0.307
327	0.306
328	0.305
328	0.304
329	0.304
329	0.303
330	0.302
330	0.302
330	0.301
331	0.3
331	0.3
332	0.299
332	0.298
333	0.297
333	0.297
334	0.296
334	0.295
335	0.295
335	0.294
336	0.293
336	0.293
336	0.292
337	0.291
337	0.291
338	0.29
338	0.289
339	0.289
339	0.289
340	0.288
340	0.287
341	0.287
341	0.286
342	0.286
342	0.285
342	0.285
343	0.284
343	0.284
344	0.284
344	0.283
345	0.283
345	0.283
346	0.282
346	0.282
347	0.281
347	0.281
348	0.281
348	0.281
348	0.28
349	0.28
349	0.28
350	0.279
350	0.279
351	0.279
351	0.279
352	0.279
352	0.278
353	0.278
353	0.278
354	0.277
354	0.277
354	0.277
355	0.276
355	0.276
356	0.275
356	0.275
357	0.274
357	0.273
358	0.273
358	0.273
359	0.273
359	0.273
360	0.273
360	0.273
360	0.273
361	0.273
361	0.273
362	0.273
362	0.273
363	0.274
363	0.274
364	0.273
364	0.273
365	0.273
365	0.272
366	0.273
366	0.272
366	0.272
367	0.272
367	0.272
368	0.272
368	0.272
369	0.271
369	0.272
370	0.271
370	0.271
371	0.271
371	0.271
372	0.271
372	0.271
372	0.27
373	0.27
373	0.27
374	0.269
374	0.269
375	0.269
375	0.269
376	0.268
376	0.268
377	0.268
377	0.268
378	0.268
378	0.268
378	0.268
379	0.268
379	0.268
380	0.268
380	0.268
381	0.268
381	0.267
382	0.267
382	0.267
383	0.267
383	0.266
383	0.266
384	0.266
384	0.265
385	0.265
385	0.265
386	0.265
386	0.265
387	0.265
387	0.264
388	0.264
388	0.264
389	0.264
389	0.264
389	0.264
390	0.263
390	0.263
391	0.263
391	0.263
392	0.263
392	0.263
393	0.263
393	0.263
394	0.262
394	0.262
394	0.262
395	0.262
395	0.262
396	0.261
396	0.261
397	0.261
397	0.261
398	0.261
398	0.261
399	0.26
399	0.26
400	0.26
400	0.259
400	0.259
401	0.259
401	0.258
402	0.258
402	0.258
403	0.258
403	0.257
404	0.257
404	0.257
405	0.257
405	0.257
405	0.257
406	0.257
406	0.257
407	0.257
407	0.257
408	0.257
408	0.257
409	0.257
409	0.257
410	0.257
410	0.257
411	0.257
411	0.256
411	0.256
412	0.256
412	0.256
413	0.256
413	0.256
414	0.255
414	0.255
415	0.255
415	0.254
416	0.254
416	0.254
416	0.254
417	0.253
417	0.254
418	0.254
418	0.254
419	0.254
419	0.255
420	0.255
420	0.255
421	0.255
421	0.255
421	0.255
422	0.255
422	0.255
423	0.255
423	0.254
424	0.254
424	0.253
425	0.253
425	0.253
426	0.253
426	0.253
427	0.253
427	0.253
427	0.254
428	0.254
428	0.254
429	0.254
429	0.254
430	0.254
430	0.254
431	0.254
431	0.253
432	0.253
432	0.253
432	0.253
433	0.252
433	0.252
434	0.252
434	0.253
435	0.252
435	0.252
436	0.252
436	0.252
437	0.252
437	0.252
437	0.252
438	0.252
438	0.252
439	0.252
439	0.252
440	0.252
440	0.252
441	0.252
441	0.252
442	0.252
442	0.253
442	0.253
443	0.253
443	0.253
444	0.254
444	0.254
445	0.254
445	0.254
446	0.254
446	0.255
447	0.255
447	0.255
447	0.255
448	0.254
448	0.254
449	0.254
449	0.254
450	0.254
450	0.255
451	0.254
451	0.254
452	0.255
452	0.255
452	0.255
453	0.255
453	0.255
454	0.254
454	0.254
455	0.255
455	0.255
456	0.255
456	0.255
457	0.255
457	0.255
458	0.255
458	0.256
458	0.256
459	0.257
459	0.257
460	0.256
460	0.257
461	0.257
461	0.257
462	0.258
462	0.258
463	0.259
463	0.26
463	0.26
464	0.26
464	0.26
465	0.26
465	0.261
466	0.261
466	0.262
467	0.262
467	0.262
467	0.261
468	0.261
468	0.261
469	0.262
469	0.263
470	0.263
470	0.264
471	0.264
471	0.264
472	0.265
472	0.265
472	0.266
473	0.267
473	0.268
474	0.268
474	0.268
475	0.269
475	0.27
476	0.271
476	0.272
477	0.273
477	0.273
477	0.274
478	0.275
478	0.276
479	0.277
479	0.278
480	0.279
480	0.28
481	0.28
481	0.281
482	0.282
482	0.283
482	0.284
483	0.286
483	0.287
484	0.288
484	0.288
485	0.289
485	0.291
486	0.292
486	0.293
487	0.294
487	0.295
487	0.296
488	0.297
488	0.298
489	0.299
489	0.302
490	0.304
490	0.306
491	0.308
491	0.31
492	0.311
492	0.313
492	0.314
493	0.316
493	0.318
494	0.321
494	0.323
495	0.324
495	0.326
496	0.327
496	0.329
496	0.331
497	0.333
497	0.334
498	0.336
498	0.337
499	0.339
499	0.341
500	0.343
500	0.346
501	0.348
501	0.35
501	0.351
502	0.354
502	0.356
503	0.358
503	0.36
504	0.361
504	0.363
505	0.365
505	0.367
506	0.369
506	0.372
506	0.374
507	0.376
507	0.378
508	0.38
508	0.382
509	0.385
509	0.386
510	0.389
510	0.39
511	0.392
511	0.394
511	0.395
512	0.397
512	0.398
513	0.399
513	0.401
514	0.402
514	0.404
515	0.406
515	0.407
515	0.407
516	0.409
516	0.41
517	0.411
517	0.411
518	0.412
518	0.412
519	0.412
519	0.413
520	0.413
520	0.414
520	0.415
521	0.415
521	0.415
522	0.415
522	0.416
523	0.417
523	0.418
524	0.418
524	0.418
524	0.418
525	0.417
525	0.417
526	0.417
526	0.417
527	0.416
527	0.416
528	0.415
528	0.414
529	0.413
529	0.412
529	0.412
530	0.411
530	0.41
531	0.409
531	0.408
532	0.406
532	0.405
533	0.404
533	0.403
533	0.401
534	0.399
534	0.397
535	0.396
535	0.394
536	0.393
536	0.391
537	0.389
537	0.387
538	0.385
538	0.382
538	0.38
539	0.379
539	0.377
540	0.375
540	0.372
541	0.369
541	0.367
542	0.365
542	0.363
542	0.36
543	0.358
543	0.355
544	0.353
544	0.35
545	0.348
545	0.345
546	0.343
546	0.339
547	0.336
547	0.333
547	0.33
548	0.328
548	0.325
549	0.322
549	0.32
550	0.317
550	0.314
551	0.311
551	0.308
551	0.306
552	0.303
552	0.301
553	0.299
553	0.296
554	0.293
554	0.29
555	0.287
555	0.284
556	0.282
556	0.279
556	0.276
557	0.274
557	0.272
558	0.269
558	0.267
559	0.264
559	0.262
560	0.26
560	0.257
560	0.256
561	0.254
561	0.252
562	0.25
562	0.247
563	0.244
563	0.241
564	0.239
564	0.236
564	0.234
565	0.232
565	0.229
566	0.226
566	0.224
567	0.222
567	0.221
568	0.219
568	0.217
568	0.215
569	0.214
569	0.212
570	0.209
570	0.206
571	0.205
571	0.204
572	0.202
572	0.2
573	0.197
573	0.195
573	0.193
574	0.191
574	0.189
575	0.188
575	0.188
576	0.187
576	0.183
577	0.18
577	0.179
577	0.178
578	0.177
578	0.177
579	0.178
579	0.178
580	0.175
580	0.171
581	0.168
581	0.168
581	0.168
582	0.168
582	0.168
583	0.168
583	0.166
584	0.162
584	0.159
585	0.159
585	0.16
585	0.16
586	0.159
586	0.158
587	0.156
587	0.154
588	0.153
588	0.152
589	0.153
589	0.153
590	0.153
590	0.153
590	0.155
591	0.155
591	0.154
592	0.153
592	0.151
593	0.151
593	0.151
594	0.149
594	0.148
594	0.147
595	0.147
595	0.145
596	0.145
596	0.146
597	0.149
597	0.148
598	0.148
598	0.148
598	0.148
599	0.147
599	0.146
600	0.145
600	0.144
601	0.144
601	0.143
602	0.141
602	0.141
602	0.14
603	0.14
603	0.142
604	0.142
604	0.142
605	0.143
605	0.143
606	0.142
606	0.141
606	0.141
607	0.141
607	0.141
608	0.14
608	0.139
609	0.138
609	0.139
610	0.138
610	0.137
610	0.138
611	0.139
611	0.14
612	0.141
612	0.142
613	0.143
613	0.144
614	0.144
614	0.143
614	0.144
615	0.144
615	0.144
616	0.144
616	0.144
617	0.144
617	0.144
618	0.144
618	0.145
618	0.146
619	0.147
619	0.149
620	0.152
620	0.152
621	0.153
621	0.154
622	0.154
622	0.155
622	0.156
623	0.156
623	0.158
624	0.159
624	0.159
625	0.159
625	0.161
626	0.161
626	0.162
626	0.164
627	0.165
627	0.166
628	0.166
628	0.167
629	0.168
629	0.168
630	0.169
630	0.169
630	0.171
631	0.172
631	0.173
632	0.173
632	0.175
633	0.176
633	0.178
634	0.179
634	0.181
634	0.183
635	0.184
635	0.185
636	0.187
636	0.188
637	0.189
637	0.191
638	0.193
638	0.195
638	0.197
639	0.198
639	0.2
640	0.202
640	0.205
641	0.207
641	0.21
642	0.212
642	0.214
642	0.216
643	0.219
643	0.221
644	0.223
644	0.225
645	0.227
645	0.23
646	0.233
646	0.236
646	0.239
647	0.242
647	0.244
648	0.247
648	0.249
649	0.253
649	0.256
650	0.259
650	0.262
650	0.265
651	0.267
651	0.27
652	0.274
652	0.277
653	0.282
653	0.291
653	0.292
654	0.229
654	0.183
655	0.186
655	0.188
656	0.19
656	0.191
657	0.193
657	0.195
657	0.196
658	0.192
658	0.186
659	0.239
659	0.313
660	0.325
660	0.328
661	0.331
661	0.335
661	0.339
662	0.344
662	0.348
663	0.352
663	0.356
664	0.359
664	0.362
665	0.366
665	0.369
665	0.372
666	0.375
666	0.378
667	0.381
667	0.385
668	0.388
668	0.391
669	0.394
669	0.398
669	0.402
670	0.406
670	0.409
671	0.412
671	0.414
672	0.417
672	0.419
672	0.422
673	0.424
673	0.427
674	0.429
674	0.431
675	0.434
675	0.436
676	0.439
676	0.441
676	0.443
677	0.445
677	0.447
678	0.448
678	0.449
679	0.45
679	0.451
680	0.453
680	0.453
680	0.454
681	0.455
681	0.457
682	0.458
682	0.46
683	0.462
683	0.463
684	0.464
684	0.464
684	0.465
685	0.466
685	0.466
686	0.466
686	0.466
687	0.465
687	0.465
687	0.464
688	0.464
688	0.463
689	0.463
689	0.463
690	0.462
690	0.461
691	0.46
691	0.459
691	0.459
692	0.457
692	0.457
693	0.457
693	0.456
694	0.455
694	0.453
695	0.454
695	0.454
695	0.452
696	0.45
696	0.448
697	0.446
697	0.444
698	0.442
698	0.439
698	0.437
699	0.435
699	0.432
700	0.429
700	0.428
701	0.426
701	0.424
702	0.422
702	0.42
702	0.417
703	0.415
703	0.412
704	0.41
704	0.408
705	0.405
705	0.401
705	0.398
706	0.394
706	0.392
707	0.389
707	0.386
708	0.384
708	0.382
709	0.38
709	0.377
709	0.374
710	0.372
710	0.371
711	0.369
711	0.367
712	0.365
712	0.362
713	0.36
713	0.357
713	0.354
714	0.35
714	0.347
715	0.345
715	0.341
716	0.338
716	0.335
716	0.331
717	0.328
717	0.326
718	0.322
718	0.32
719	0.318
719	0.316
720	0.314
720	0.312
720	0.309
721	0.306
721	0.304
722	0.301
722	0.298
723	0.295
723	0.292
723	0.289
724	0.285
724	0.282
725	0.278
725	0.275
726	0.272
726	0.27
727	0.267
727	0.265
727	0.263
728	0.26
728	0.259
729	0.258
729	0.257
730	0.255
730	0.253
730	0.252
731	0.251
731	0.25
732	0.249
732	0.247
733	0.245
733	0.244
734	0.242
734	0.24
734	0.238
735	0.237
735	0.234
736	0.231
736	0.229
737	0.227
737	0.226
737	0.223
738	0.22
738	0.217
739	0.215
739	0.213
740	0.212
740	0.211
741	0.21
741	0.209
741	0.207
742	0.205
742	0.205
743	0.205
743	0.204
744	0.203
744	0.201
744	0.2
745	0.197
745	0.195
746	0.193
746	0.191
747	0.189
747	0.186
748	0.184
748	0.182
748	0.179
749	0.176
749	0.175
750	0.173
750	0.171
751	0.169
751	0.168
751	0.167
752	0.165
752	0.163
753	0.162
753	0.161
754	0.16
754	0.158
754	0.158
755	0.156
755	0.155
756	0.153
756	0.15
757	0.149
757	0.148
758	0.147
758	0.145
758	0.143
759	0.142
759	0.139
760	0.136
760	0.135
761	0.134
761	0.134
761	0.133
762	0.131
762	0.131
763	0.13
763	0.127
764	0.126
764	0.125
764	0.124
765	0.123
765	0.121
766	0.12
766	0.119
767	0.118
767	0.115
768	0.113
768	0.113
768	0.112
769	0.111
769	0.11
770	0.108
770	0.107
771	0.105
771	0.103
771	0.102
772	0.101
772	0.101
773	0.099
773	0.098
774	0.096
774	0.095
775	0.094
775	0.092
775	0.09
776	0.088
776	0.086
777	0.085
777	0.083
778	0.08
778	0.078
778	0.076
779	0.075
779	0.074
780	0.071
780	0.069
781	0.067
781	0.065
781	0.063
782	0.061
782	0.059
783	0.057
783	0.054
784	0.051
784	0.047
784	0.044
785	0.041
785	0.038
786	0.035
786	0.032
787	0.03
787	0.027
788	0.023
788	0.02
788	0.016
789	0.013
789	0.01
790	0.006
790	0.002
791	-0.002
791	-0.007
791	-0.013
792	-0.015
792	-0.014
793	-0.018
793	-0.023
794	-0.029
794	-0.037
794	-0.046
795	-0.054
795	-0.059
796	-0.064
796	-0.069
797	-0.077
797	-0.086
797	-0.092
798	-0.097
798	-0.1
799	-0.1
799	-0.1
800	-0.1
800	-0.102
801	-0.106
801	-0.107
801	-0.108
802	-0.11
802	-0.111
803	-0.112
803	-0.112
804	-0.112
804	-0.107
804	-0.101
805	-0.097
805	-0.095
806	-0.093
806	-0.092
807	-0.091
807	-0.09
807	-0.089
808	-0.089
808	-0.089
809	-0.093
809	-0.097
810	-0.097
810	-0.094
810	-0.092
811	-0.088
811	-0.081
812	-0.072
812	-0.063
813	-0.055
813	-0.045
813	-0.035
814	-0.025
814	-0.016
815	-0.008
815	-0
816	0.007
816	0.012
817	0.016
817	0.022
817	0.026
818	0.031
818	0.035
819	0.039
819	0.042
820	0.044
820	0.046
820	0.048
821	0.051
821	0.053
822	0.054
822	0.056
823	0.057
823	0.058
823	0.059
824	0.06
824	0.061
825	0.062
825	0.063
826	0.063
826	0.063
826	0.063
827	0.063
827	0.063
828	0.064
828	0.064
829	0.064
829	0.065
829	0.066
830	0.067
830	0.068
831	0.071
831	0.072
832	0.072
832	0.073
832	0.074
833	0.075
833	0.075
834	0.075
834	0.075
835	0.075
835	0.075
835	0.074
836	0.075
836	0.075
837	0.075
837	0.076
838	0.076
838	0.076
839	0.077
839	0.077
839	0.077
840	0.077
840	0.077
841	0.077
841	0.077
842	0.076
842	0.075
842	0.074
843	0.073
843	0.073
844	0.072
844	0.072
845	0.071
845	0.071
845	0.071
846	0.071
846	0.071
847	0.071
847	0.072
848	0.072
848	0.072
848	0.072
849	0.072
849	0.072
850	0.071
850	0.071
851	0.07
851	0.07
851	0.07
852	0.069
852	0.069
853	0.068
853	0.068
854	0.069
854	0.069
854	0.069
855	0.07
855	0.07
856	0.07
856	0.07
857	0.07
857	0.07
857	0.069
858	0.069
858	0.068
859	0.067
859	0.067
860	0.066
860	0.065
860	0.064
861	0.063
861	0.062
862	0.06
862	0.059
863	0.057
863	0.057
863	0.056
864	0.055
864	0.055
865	0.055
865	0.055
866	0.055
866	0.056
866	0.057
867	0.058
867	0.06
868	0.061
868	0.062
869	0.063
869	0.063
869	0.063
870	0.063
870	0.063
871	0.062
871	0.062
872	0.061
872	0.06
872	0.059
873	0.058
873	0.056
874	0.056
874	0.055
875	0.055
875	0.054
875	0.054
876	0.054
876	0.054
877	0.054
877	0.053
878	0.053
878	0.053
878	0.052
879	0.052
879	0.051
880	0.051
880	0.05
881	0.05
881	0.05
881	0.05
882	0.05
882	0.05
883	0.05
883	0.051
884	0.052
884	0.053
884	0.053
885	0.054
885	0.055
886	0.056
886	0.057
887	0.057
887	0.057
887	0.058
888	0.058
888	0.057
889	0.057
889	0.058
890	0.058
890	0.058
890	0.058
891	0.058
891	0.058
892	0.058
892	0.058
893	0.058
893	0.058
893	0.058
894	0.058
894	0.058
895	0.057
895	0.057
895	0.057
896	0.057
896	0.058
897	0.058
897	0.058
898	0.058
898	0.058
898	0.058
899	0.058
899	0.059
900	0.059
900	0.059
901	0.059
901	0.06
901	0.06
902	0.06
902	0.061
903	0.06
903	0.06
904	0.06
904	0.06
904	0.06
905	0.059
905	0.058
906	0.058
906	0.057
907	0.056
907	0.055
907	0.055
908	0.054
908	0.054
909	0.054
909	0.053
910	0.053
910	0.054
910	0.054
911	0.054
911	0.055
912	0.055
912	0.056
913	0.056
913	0.057
913	0.057
914	0.058
914	0.058
915	0.058
915	0.058
916	0.057
916	0.057
916	0.056
917	0.056
917	0.055
918	0.055
918	0.054
918	0.054
919	0.053
919	0.052
920	0.052
920	0.052
921	0.052
921	0.051
921	0.05
922	0.049
922	0.049
923	0.048
923	0.047
924	0.046
924	0.046
924	0.045
925	0.044
925	0.043
926	0.043
926	0.042
927	0.042
927	0.041
927	0.041
928	0.041
928	0.042
929	0.042
929	0.043
930	0.044
930	0.045
930	0.046
931	0.047
931	0.049
932	0.05
932	0.051
933	0.053
933	0.054
933	0.055
934	0.055
934	0.056
935	0.055
935	0.055
935	0.055
936	0.054
936	0.054
937	0.054
937	0.053
938	0.053
938	0.052
938	0.052
939	0.052
939	0.052
940	0.052
940	0.052
941	0.052
941	0.052
941	0.052
942	0.052
942	0.051
943	0.051
943	0.05
944	0.05
944	0.05
944	0.05
945	0.05
945	0.05
946	0.049
946	0.049
946	0.048
947	0.048
947	0.048
948	0.047
948	0.047
949	0.046
949	0.046
949	0.046
950	0.046
950	0.046
951	0.046
951	0.045
952	0.045
952	0.045
952	0.045
953	0.044
953	0.044
954	0.043
954	0.042
955	0.042
955	0.041
955	0.042
956	0.042
956	0.042
957	0.042
957	0.043
957	0.043
958	0.043
958	0.044
959	0.044
959	0.044
960	0.044
960	0.043
960	0.042
961	0.041
961	0.04
962	0.04
962	0.039
963	0.039
963	0.038
963	0.038
964	0.038
964	0.038
965	0.039
965	0.04
966	0.041
966	0.042
966	0.043
967	0.043
967	0.044
968	0.045
968	0.045
968	0.045
969	0.045
969	0.045
970	0.045
970	0.045
971	0.045
971	0.045
971	0.045
972	0.046
972	0.046
973	0.047
973	0.048
974	0.049
974	0.05
974	0.051
975	0.052
975	0.053
976	0.054
976	0.055
976	0.055
977	0.056
977	0.056
978	0.055
978	0.055
979	0.055
979	0.055
979	0.055
980	0.054
980	0.054
981	0.054
981	0.053
982	0.054
982	0.054
982	0.054
983	0.055
983	0.055
984	0.055
984	0.056
984	0.056
985	0.056
985	0.056
986	0.055
986	0.054
987	0.053
987	0.052
987	0.051
988	0.05
988	0.049
989	0.049
989	0.048
990	0.047
990	0.047
990	0.047
991	0.047
991	0.047
992	0.047
992	0.047
992	0.047
993	0.047
993	0.046
994	0.046
994	0.045
995	0.044
995	0.044
995	0.044
996	0.043
996	0.043
997	0.042
997	0.042
997	0.042
998	0.043
998	0.044
999	0.045
999	0.045
1000	0.046
1000	0.046
1000	0.047
1001	0.047
1001	0.048
1002	0.048
1002	0.048
1003	0.048
1003	0.048
1003	0.047
1004	0.047
1004	0.046
1005	0.045
1005	0.044
1005	0.043
1006	0.042
1006	0.041
1007	0.041
1007	0.04
1008	0.04
1008	0.04
1008	0.039
1009	0.039
1009	0.04
1010	0.04
1010	0.04
1010	0.04
1011	0.04
1011	0.04
1012	0.041
1012	0.041
1013	0.041
1013	0.04
1013	0.04
1014	0.039
1014	0.039
1015	0.038
1015	0.037
1016	0.036
1016	0.035
1016	0.034
1017	0.033
1017	0.032
1018	0.031
1018	0.031
1018	0.03
1019	0.03
1019	0.03
1020	0.029
1020	0.029
1021	0.029
1021	0.029
1021	0.029
1022	0.03
1022	0.03
1023	0.029
1023	0.029
1023	0.028
1024	0.027
1024	0.026
1025	0.025
1025	0.024
1026	0.023
1026	0.022
1026	0.021
1027	0.021
1027	0.02
1028	0.02
1028	0.019
1028	0.019
1029	0.019
1029	0.019
1030	0.019
1030	0.019
1031	0.019
1031	0.02
1031	0.02
1032	0.02
1032	0.021
1033	0.021
1033	0.022
1033	0.022
1034	0.022
1034	0.022
1035	0.022
1035	0.022
1036	0.022
1036	0.022
1036	0.022
1037	0.022
1037	0.022
1038	0.022
1038	0.022
1039	0.022
1039	0.023
1039	0.023
1040	0.024
1040	0.024
1041	0.024
1041	0.023
1041	0.022
1042	0.021
1042	0.02
1043	0.019
1043	0.018
1044	0.016
1044	0.015
1044	0.014
1045	0.013
1045	0.012
1046	0.011
1046	0.01
1046	0.01
1047	0.01
1047	0.01
1048	0.01
1048	0.01
1049	0.009
1049	0.009
1049	0.008
1050	0.007
1050	0.006
1051	0.005
1051	0.004
1051	0.004
1052	0.003
1052	0.002
1053	0.001
1053	0.001
1053	0
1054	0
1054	0
1055	0
1055	0
1056	-0
1056	-0.001
1056	-0.001
1057	-0.002
1057	-0.002
1058	-0.002
1058	-0.002
1058	-0.003
1059	-0.003
1059	-0.004
1060	-0.004
1060	-0.004
1061	-0.005
1061	-0.005
1061	-0.005
1062	-0.006
1062	-0.006
1063	-0.006
1063	-0.007
1063	-0.007
1064	-0.007
1064	-0.007
1065	-0.007
1065	-0.007
1066	-0.007
1066	-0.007
1066	-0.007
1067	-0.006
1067	-0.006
1068	-0.005
1068	-0.005
1068	-0.005
1069	-0.005
1069	-0.005
1070	-0.005
1070	-0.005
1071	-0.005
1071	-0.005
1071	-0.006
1072	-0.006
1072	-0.007
1073	-0.007
1073	-0.007
1073	-0.008
1074	-0.008
1074	-0.009
1075	-0.011
1075	-0.012
1076	-0.014
1076	-0.015
1076	-0.017
1077	-0.018
1077	-0.02
1078	-0.021
1078	-0.022
1078	-0.022
1079	-0.023
1079	-0.023
1080	-0.023
1080	-0.023
1080	-0.023
1081	-0.023
1081	-0.023
1082	-0.023
1082	-0.024
1083	-0.025
1083	-0.026
1083	-0.026
1084	-0.027
1084	-0.028
1085	-0.028
1085	-0.028
1085	-0.029
1086	-0.029
1086	-0.03
1087	-0.03
1087	-0.03
1088	-0.03
1088	-0.031
1088	-0.031
1089	-0.032
1089	-0.033
1090	-0.034
1090	-0.034
1090	-0.035
1091	-0.036
1091	-0.037
1092	-0.038
1092	-0.038
1092	-0.04
1093	-0.041
1093	-0.041
1094	-0.042
1094	-0.044
1095	-0.046
1095	-0.047
1095	-0.048
1096	-0.049
1096	-0.051
1097	-0.051
1097	-0.053
1097	-0.054
1098	-0.057
1098	-0.059
1099	-0.06
1099	-0.062
1100	-0.064
1100	-0.065
1100	-0.068
1101	-0.07
1101	-0.074
1102	-0.076
1102	-0.078
1102	-0.08
1103	-0.082
1103	-0.085
1104	-0.086
1104	-0.089
1104	-0.09
1105	-0.092
1105	-0.094
1106	-0.097
1106	-0.099
1107	-0.104
1107	-0.107
1107	-0.111
1108	-0.111
1108	-0.112
1109	-0.114
1109	-0.119
1109	-0.123
1110	-0.123
1110	-0.128
1111	-0.131
1111	-0.124
