Data from 14c-stair-power-variation_Absorbance__66__04243.txt Node

Date: Tue Jan 16 16:15:11 CET 2024
User: Marek
Spectrometer: MAYP115816
Trigger mode: 0
Integration Time (sec): 2.000000E-1
Scans to average: 10
Electric dark correction enabled: true
Nonlinearity correction enabled: true
Boxcar width: 5
XAxis mode: Wavelengths
Number of Pixels in Spectrum: 2068
>>>>>Begin Spectral Data<<<<<
199	-2.141
199	-1.953
200	-1.819
200	-1.699
201	-1.625
201	-1.574
202	-1.498
202	-1.437
203	-1.389
203	-1.34
204	-1.314
204	-1.288
205	-1.269
205	-1.257
205	-1.254
206	-1.249
206	-1.246
207	-1.243
207	-1.243
208	-1.239
208	-1.238
209	-1.234
209	-1.232
210	-1.231
210	-1.228
211	-1.227
211	-1.226
212	-1.225
212	-1.225
213	-1.222
213	-1.221
213	-1.222
214	-1.22
214	-1.218
215	-1.218
215	-1.218
216	-1.214
216	-1.213
217	-1.21
217	-1.207
218	-1.204
218	-1.2
219	-1.195
219	-1.194
220	-1.192
220	-1.191
221	-1.187
221	-1.186
221	-1.181
222	-1.177
222	-1.172
223	-1.167
223	-1.161
224	-1.156
224	-1.147
225	-1.137
225	-1.128
226	-1.12
226	-1.11
227	-1.096
227	-1.084
228	-1.068
228	-1.052
229	-1.031
229	-1.007
229	-0.982
230	-0.954
230	-0.922
231	-0.886
231	-0.846
232	-0.806
232	-0.763
233	-0.717
233	-0.669
234	-0.62
234	-0.571
235	-0.522
235	-0.473
236	-0.424
236	-0.376
236	-0.329
237	-0.284
237	-0.24
238	-0.199
238	-0.159
239	-0.121
239	-0.085
240	-0.052
240	-0.021
241	0.008
241	0.035
242	0.06
242	0.084
243	0.105
243	0.125
243	0.144
244	0.16
244	0.176
245	0.19
245	0.204
246	0.216
246	0.229
247	0.239
247	0.25
248	0.259
248	0.268
249	0.276
249	0.284
250	0.291
250	0.298
250	0.304
251	0.31
251	0.315
252	0.32
252	0.325
253	0.329
253	0.333
254	0.337
254	0.341
255	0.344
255	0.348
256	0.351
256	0.353
257	0.356
257	0.358
258	0.36
258	0.362
258	0.364
259	0.365
259	0.366
260	0.367
260	0.368
261	0.369
261	0.37
262	0.37
262	0.371
263	0.371
263	0.372
264	0.372
264	0.372
265	0.372
265	0.372
265	0.372
266	0.372
266	0.372
267	0.371
267	0.371
268	0.37
268	0.369
269	0.368
269	0.368
270	0.367
270	0.366
271	0.365
271	0.364
272	0.363
272	0.362
272	0.361
273	0.36
273	0.359
274	0.358
274	0.357
275	0.356
275	0.355
276	0.353
276	0.352
277	0.35
277	0.349
278	0.347
278	0.345
278	0.343
279	0.341
279	0.34
280	0.339
280	0.338
281	0.336
281	0.335
282	0.334
282	0.334
283	0.333
283	0.332
284	0.332
284	0.331
285	0.331
285	0.33
285	0.329
286	0.328
286	0.326
287	0.325
287	0.324
288	0.323
288	0.323
289	0.322
289	0.32
290	0.32
290	0.319
291	0.318
291	0.317
292	0.317
292	0.316
292	0.315
293	0.314
293	0.313
294	0.313
294	0.312
295	0.311
295	0.311
296	0.31
296	0.309
297	0.308
297	0.308
298	0.307
298	0.306
298	0.305
299	0.305
299	0.304
300	0.303
300	0.303
301	0.302
301	0.301
302	0.301
302	0.3
303	0.3
303	0.299
304	0.298
304	0.298
305	0.297
305	0.296
305	0.296
306	0.295
306	0.294
307	0.293
307	0.292
308	0.291
308	0.291
309	0.29
309	0.289
310	0.288
310	0.287
311	0.286
311	0.286
311	0.285
312	0.284
312	0.283
313	0.282
313	0.282
314	0.281
314	0.28
315	0.279
315	0.278
316	0.277
316	0.276
317	0.276
317	0.275
318	0.274
318	0.273
318	0.272
319	0.271
319	0.27
320	0.269
320	0.268
321	0.267
321	0.266
322	0.265
322	0.265
323	0.264
323	0.263
324	0.262
324	0.261
324	0.261
325	0.26
325	0.259
326	0.258
326	0.258
327	0.257
327	0.256
328	0.255
328	0.254
329	0.253
329	0.252
330	0.251
330	0.251
330	0.25
331	0.249
331	0.248
332	0.247
332	0.247
333	0.246
333	0.245
334	0.245
334	0.244
335	0.243
335	0.242
336	0.241
336	0.241
336	0.24
337	0.239
337	0.238
338	0.237
338	0.237
339	0.236
339	0.235
340	0.235
340	0.234
341	0.233
341	0.233
342	0.232
342	0.231
342	0.231
343	0.23
343	0.23
344	0.229
344	0.228
345	0.228
345	0.227
346	0.226
346	0.226
347	0.225
347	0.224
348	0.224
348	0.223
348	0.223
349	0.222
349	0.221
350	0.22
350	0.219
351	0.218
351	0.217
352	0.217
352	0.216
353	0.215
353	0.214
354	0.213
354	0.211
354	0.21
355	0.209
355	0.208
356	0.207
356	0.207
357	0.206
357	0.205
358	0.205
358	0.205
359	0.206
359	0.207
360	0.207
360	0.208
360	0.209
361	0.209
361	0.21
362	0.211
362	0.211
363	0.211
363	0.211
364	0.21
364	0.21
365	0.209
365	0.209
366	0.208
366	0.208
366	0.207
367	0.207
367	0.207
368	0.207
368	0.206
369	0.206
369	0.206
370	0.205
370	0.205
371	0.205
371	0.204
372	0.204
372	0.203
372	0.203
373	0.202
373	0.202
374	0.202
374	0.202
375	0.202
375	0.201
376	0.201
376	0.202
377	0.202
377	0.202
378	0.202
378	0.203
378	0.203
379	0.203
379	0.203
380	0.203
380	0.203
381	0.203
381	0.203
382	0.203
382	0.202
383	0.202
383	0.201
383	0.201
384	0.2
384	0.2
385	0.2
385	0.2
386	0.2
386	0.2
387	0.2
387	0.199
388	0.199
388	0.199
389	0.199
389	0.199
389	0.199
390	0.199
390	0.199
391	0.199
391	0.2
392	0.2
392	0.2
393	0.2
393	0.2
394	0.2
394	0.2
394	0.199
395	0.199
395	0.199
396	0.199
396	0.199
397	0.199
397	0.199
398	0.199
398	0.199
399	0.199
399	0.199
400	0.199
400	0.198
400	0.198
401	0.197
401	0.196
402	0.195
402	0.194
403	0.194
403	0.193
404	0.193
404	0.193
405	0.193
405	0.192
405	0.192
406	0.192
406	0.192
407	0.192
407	0.192
408	0.191
408	0.191
409	0.19
409	0.19
410	0.19
410	0.19
411	0.19
411	0.19
411	0.189
412	0.189
412	0.189
413	0.189
413	0.188
414	0.188
414	0.188
415	0.187
415	0.187
416	0.186
416	0.186
416	0.186
417	0.185
417	0.185
418	0.185
418	0.186
419	0.186
419	0.187
420	0.188
420	0.189
421	0.189
421	0.19
421	0.19
422	0.19
422	0.19
423	0.191
423	0.19
424	0.189
424	0.188
425	0.187
425	0.186
426	0.185
426	0.185
427	0.185
427	0.185
427	0.185
428	0.186
428	0.187
429	0.188
429	0.188
430	0.188
430	0.188
431	0.188
431	0.188
432	0.188
432	0.187
432	0.186
433	0.185
433	0.183
434	0.183
434	0.182
435	0.182
435	0.182
436	0.182
436	0.182
437	0.182
437	0.182
437	0.182
438	0.182
438	0.182
439	0.182
439	0.182
440	0.182
440	0.182
441	0.182
441	0.182
442	0.183
442	0.183
442	0.184
443	0.184
443	0.185
444	0.185
444	0.186
445	0.186
445	0.186
446	0.187
446	0.187
447	0.186
447	0.186
447	0.186
448	0.186
448	0.186
449	0.185
449	0.185
450	0.184
450	0.184
451	0.184
451	0.183
452	0.183
452	0.182
452	0.182
453	0.181
453	0.18
454	0.179
454	0.179
455	0.178
455	0.178
456	0.178
456	0.177
457	0.177
457	0.177
458	0.177
458	0.177
458	0.178
459	0.178
459	0.178
460	0.178
460	0.177
461	0.177
461	0.177
462	0.177
462	0.177
463	0.177
463	0.178
463	0.178
464	0.179
464	0.179
465	0.179
465	0.18
466	0.18
466	0.18
467	0.18
467	0.179
467	0.178
468	0.176
468	0.175
469	0.173
469	0.172
470	0.171
470	0.17
471	0.17
471	0.17
472	0.17
472	0.17
472	0.17
473	0.172
473	0.173
474	0.174
474	0.175
475	0.176
475	0.177
476	0.177
476	0.178
477	0.178
477	0.179
477	0.179
478	0.179
478	0.18
479	0.181
479	0.181
480	0.182
480	0.183
481	0.184
481	0.184
482	0.185
482	0.186
482	0.188
483	0.19
483	0.193
484	0.196
484	0.198
485	0.2
485	0.202
486	0.203
486	0.204
487	0.205
487	0.205
487	0.205
488	0.205
488	0.203
489	0.202
489	0.2
490	0.199
490	0.199
491	0.199
491	0.199
492	0.2
492	0.2
492	0.201
493	0.202
493	0.203
494	0.205
494	0.207
495	0.209
495	0.21
496	0.211
496	0.212
496	0.213
497	0.214
497	0.215
498	0.215
498	0.216
499	0.216
499	0.216
500	0.217
500	0.218
501	0.22
501	0.222
501	0.223
502	0.225
502	0.227
503	0.228
503	0.23
504	0.231
504	0.231
505	0.232
505	0.233
506	0.233
506	0.234
506	0.234
507	0.234
507	0.235
508	0.235
508	0.236
509	0.237
509	0.238
510	0.238
510	0.239
511	0.239
511	0.239
511	0.238
512	0.239
512	0.239
513	0.239
513	0.239
514	0.238
514	0.237
515	0.236
515	0.235
515	0.234
516	0.233
516	0.234
517	0.234
517	0.234
518	0.234
518	0.234
519	0.233
519	0.232
520	0.23
520	0.228
520	0.226
521	0.224
521	0.221
522	0.218
522	0.215
523	0.213
523	0.212
524	0.212
524	0.213
524	0.215
525	0.217
525	0.22
526	0.223
526	0.227
527	0.23
527	0.233
528	0.236
528	0.238
529	0.239
529	0.24
529	0.241
530	0.241
530	0.241
531	0.241
531	0.242
532	0.241
532	0.241
533	0.241
533	0.241
533	0.241
534	0.24
534	0.239
535	0.239
535	0.238
536	0.238
536	0.237
537	0.237
537	0.236
538	0.235
538	0.234
538	0.233
539	0.232
539	0.231
540	0.23
540	0.229
541	0.227
541	0.226
542	0.224
542	0.222
542	0.221
543	0.22
543	0.219
544	0.217
544	0.215
545	0.214
545	0.214
546	0.213
546	0.213
547	0.211
547	0.209
547	0.206
548	0.204
548	0.201
549	0.199
549	0.198
550	0.196
550	0.194
551	0.191
551	0.189
551	0.187
552	0.186
552	0.185
553	0.184
553	0.183
554	0.183
554	0.181
555	0.179
555	0.176
556	0.173
556	0.17
556	0.168
557	0.165
557	0.163
558	0.161
558	0.159
559	0.157
559	0.156
560	0.156
560	0.155
560	0.155
561	0.155
561	0.155
562	0.155
562	0.154
563	0.152
563	0.15
564	0.148
564	0.145
564	0.142
565	0.14
565	0.139
566	0.137
566	0.137
567	0.137
567	0.138
568	0.139
568	0.14
568	0.142
569	0.144
569	0.146
570	0.147
570	0.147
571	0.148
571	0.149
572	0.149
572	0.149
573	0.149
573	0.149
573	0.147
574	0.146
574	0.146
575	0.145
575	0.146
576	0.147
576	0.146
577	0.144
577	0.143
577	0.142
578	0.141
578	0.141
579	0.142
579	0.144
580	0.144
580	0.141
581	0.138
581	0.136
581	0.136
582	0.136
582	0.136
583	0.137
583	0.136
584	0.133
584	0.128
585	0.126
585	0.126
585	0.126
586	0.126
586	0.126
587	0.124
587	0.121
588	0.119
588	0.117
589	0.116
589	0.115
590	0.114
590	0.113
590	0.115
591	0.116
591	0.116
592	0.116
592	0.114
593	0.114
593	0.114
594	0.113
594	0.112
594	0.111
595	0.111
595	0.109
596	0.107
596	0.108
597	0.11
597	0.112
598	0.113
598	0.114
598	0.115
599	0.116
599	0.115
600	0.115
600	0.113
601	0.113
601	0.111
602	0.109
602	0.108
602	0.106
603	0.105
603	0.106
604	0.106
604	0.107
605	0.108
605	0.11
606	0.11
606	0.109
606	0.109
607	0.108
607	0.108
608	0.107
608	0.105
609	0.104
609	0.103
610	0.102
610	0.1
610	0.099
611	0.099
611	0.1
612	0.101
612	0.103
613	0.105
613	0.106
614	0.107
614	0.106
614	0.106
615	0.106
615	0.106
616	0.105
616	0.105
617	0.104
617	0.103
618	0.101
618	0.101
618	0.1
619	0.1
619	0.101
620	0.103
620	0.105
621	0.105
621	0.106
622	0.107
622	0.108
622	0.108
623	0.108
623	0.11
624	0.111
624	0.111
625	0.111
625	0.112
626	0.112
626	0.112
626	0.113
627	0.113
627	0.113
628	0.114
628	0.114
629	0.114
629	0.114
630	0.114
630	0.113
630	0.113
631	0.113
631	0.114
632	0.114
632	0.114
633	0.114
633	0.115
634	0.116
634	0.118
634	0.12
635	0.122
635	0.123
636	0.124
636	0.126
637	0.127
637	0.129
638	0.13
638	0.132
638	0.133
639	0.134
639	0.135
640	0.136
640	0.138
641	0.14
641	0.141
642	0.144
642	0.146
642	0.148
643	0.149
643	0.151
644	0.153
644	0.155
645	0.157
645	0.159
646	0.162
646	0.165
646	0.169
647	0.172
647	0.175
648	0.178
648	0.181
649	0.184
649	0.187
650	0.191
650	0.194
650	0.196
651	0.199
651	0.201
652	0.203
652	0.205
653	0.208
653	0.218
653	0.228
654	0.185
654	0.153
655	0.157
655	0.159
656	0.161
656	0.163
657	0.164
657	0.166
657	0.167
658	0.163
658	0.153
659	0.191
659	0.241
660	0.245
660	0.246
661	0.248
661	0.25
661	0.253
662	0.257
662	0.261
663	0.264
663	0.268
664	0.271
664	0.274
665	0.277
665	0.281
665	0.283
666	0.286
666	0.288
667	0.291
667	0.293
668	0.296
668	0.299
669	0.301
669	0.305
669	0.309
670	0.313
670	0.317
671	0.32
671	0.322
672	0.324
672	0.326
672	0.328
673	0.329
673	0.33
674	0.332
674	0.333
675	0.333
675	0.334
676	0.336
676	0.338
676	0.34
677	0.342
677	0.344
678	0.346
678	0.348
679	0.349
679	0.35
680	0.352
680	0.353
680	0.354
681	0.354
681	0.355
682	0.356
682	0.358
683	0.36
683	0.363
684	0.366
684	0.367
684	0.368
685	0.369
685	0.37
686	0.372
686	0.372
687	0.372
687	0.372
687	0.371
688	0.37
688	0.368
689	0.369
689	0.369
690	0.37
690	0.369
691	0.369
691	0.369
691	0.369
692	0.369
692	0.369
693	0.369
693	0.369
694	0.369
694	0.367
695	0.367
695	0.369
695	0.369
696	0.368
696	0.367
697	0.366
697	0.365
698	0.364
698	0.361
698	0.359
699	0.358
699	0.355
700	0.351
700	0.349
701	0.348
701	0.347
702	0.345
702	0.343
702	0.341
703	0.34
703	0.338
704	0.336
704	0.334
705	0.333
705	0.332
705	0.329
706	0.328
706	0.326
707	0.324
707	0.322
708	0.32
708	0.319
709	0.317
709	0.315
709	0.312
710	0.309
710	0.307
711	0.305
711	0.303
712	0.301
712	0.299
713	0.298
713	0.296
713	0.293
714	0.29
714	0.287
715	0.285
715	0.282
716	0.278
716	0.276
716	0.273
717	0.27
717	0.268
718	0.265
718	0.263
719	0.261
719	0.26
720	0.258
720	0.256
720	0.254
721	0.251
721	0.248
722	0.245
722	0.242
723	0.239
723	0.237
723	0.234
724	0.231
724	0.227
725	0.224
725	0.221
726	0.219
726	0.217
727	0.214
727	0.213
727	0.211
728	0.209
728	0.208
729	0.207
729	0.207
730	0.206
730	0.204
730	0.203
731	0.202
731	0.201
732	0.2
732	0.199
733	0.197
733	0.195
734	0.193
734	0.19
734	0.189
735	0.187
735	0.185
736	0.182
736	0.179
737	0.177
737	0.175
737	0.173
738	0.17
738	0.166
739	0.164
739	0.161
740	0.159
740	0.157
741	0.155
741	0.153
741	0.15
742	0.146
742	0.143
743	0.141
743	0.138
744	0.136
744	0.134
744	0.132
745	0.13
745	0.127
746	0.125
746	0.123
747	0.122
747	0.121
748	0.12
748	0.119
748	0.117
749	0.116
749	0.115
750	0.114
750	0.113
751	0.112
751	0.111
751	0.111
752	0.11
752	0.109
753	0.108
753	0.107
754	0.107
754	0.106
754	0.107
755	0.107
755	0.107
756	0.106
756	0.103
757	0.102
757	0.102
758	0.101
758	0.099
758	0.098
759	0.096
759	0.093
760	0.089
760	0.086
761	0.084
761	0.083
761	0.08
762	0.078
762	0.077
763	0.076
763	0.073
764	0.07
764	0.068
764	0.066
765	0.064
765	0.062
766	0.06
766	0.06
767	0.059
767	0.056
768	0.053
768	0.051
768	0.05
769	0.049
769	0.048
770	0.047
770	0.046
771	0.044
771	0.041
771	0.038
772	0.036
772	0.035
773	0.033
773	0.03
774	0.027
774	0.023
775	0.02
775	0.017
775	0.013
776	0.009
776	0.005
777	0
777	-0.004
778	-0.01
778	-0.015
778	-0.02
779	-0.024
779	-0.028
780	-0.033
780	-0.039
781	-0.044
781	-0.049
781	-0.053
782	-0.058
782	-0.063
783	-0.067
783	-0.07
784	-0.073
784	-0.076
784	-0.078
785	-0.08
785	-0.082
786	-0.083
786	-0.081
787	-0.077
787	-0.073
788	-0.072
788	-0.073
788	-0.074
789	-0.076
789	-0.075
790	-0.072
790	-0.071
791	-0.072
791	-0.073
791	-0.076
792	-0.07
792	-0.061
793	-0.055
793	-0.052
794	-0.05
794	-0.052
794	-0.055
795	-0.057
795	-0.057
796	-0.057
796	-0.059
797	-0.067
797	-0.076
797	-0.082
798	-0.087
798	-0.09
799	-0.091
799	-0.09
800	-0.091
800	-0.093
801	-0.096
801	-0.097
801	-0.098
802	-0.1
802	-0.101
803	-0.102
803	-0.103
804	-0.102
804	-0.097
804	-0.091
805	-0.087
805	-0.085
806	-0.083
806	-0.082
807	-0.081
807	-0.08
807	-0.08
808	-0.079
808	-0.079
809	-0.083
809	-0.088
810	-0.091
810	-0.093
810	-0.096
811	-0.098
811	-0.098
812	-0.095
812	-0.092
813	-0.092
813	-0.093
813	-0.094
814	-0.094
814	-0.094
815	-0.092
815	-0.089
816	-0.087
816	-0.088
817	-0.092
817	-0.096
817	-0.096
818	-0.096
818	-0.092
819	-0.087
819	-0.085
820	-0.086
820	-0.088
820	-0.089
821	-0.088
821	-0.085
822	-0.082
822	-0.077
823	-0.072
823	-0.069
823	-0.067
824	-0.063
824	-0.056
825	-0.046
825	-0.036
826	-0.027
826	-0.021
826	-0.014
827	-0.008
827	-0.003
828	0.002
828	0.007
829	0.011
829	0.015
829	0.019
830	0.021
830	0.025
831	0.029
831	0.033
832	0.036
832	0.039
832	0.041
833	0.044
833	0.046
834	0.047
834	0.049
835	0.05
835	0.05
835	0.051
836	0.052
836	0.052
837	0.053
837	0.053
838	0.053
838	0.053
839	0.053
839	0.053
839	0.053
840	0.053
840	0.054
841	0.054
841	0.054
842	0.055
842	0.056
842	0.056
843	0.057
843	0.058
844	0.059
844	0.059
845	0.06
845	0.061
845	0.062
846	0.063
846	0.064
847	0.065
847	0.066
848	0.067
848	0.068
848	0.069
849	0.07
849	0.071
850	0.071
850	0.071
851	0.071
851	0.072
851	0.072
852	0.072
852	0.072
853	0.073
853	0.073
854	0.074
854	0.074
854	0.075
855	0.075
855	0.076
856	0.076
856	0.076
857	0.076
857	0.076
857	0.076
858	0.076
858	0.075
859	0.075
859	0.075
860	0.075
860	0.075
860	0.074
861	0.074
861	0.073
862	0.072
862	0.071
863	0.07
863	0.07
863	0.069
864	0.068
864	0.068
865	0.068
865	0.069
866	0.069
866	0.07
866	0.071
867	0.072
867	0.074
868	0.075
868	0.077
869	0.078
869	0.079
869	0.079
870	0.08
870	0.08
871	0.08
871	0.08
872	0.079
872	0.078
872	0.077
873	0.077
873	0.076
874	0.075
874	0.075
875	0.075
875	0.075
875	0.075
876	0.075
876	0.076
877	0.076
877	0.076
878	0.076
878	0.076
878	0.076
879	0.075
879	0.074
880	0.074
880	0.073
881	0.072
881	0.072
881	0.072
882	0.071
882	0.071
883	0.071
883	0.072
884	0.072
884	0.073
884	0.073
885	0.074
885	0.075
886	0.075
886	0.076
887	0.076
887	0.077
887	0.077
888	0.077
888	0.077
889	0.077
889	0.078
890	0.079
890	0.079
890	0.08
891	0.08
891	0.081
892	0.081
892	0.082
893	0.082
893	0.083
893	0.083
894	0.084
894	0.084
895	0.084
895	0.084
895	0.084
896	0.084
896	0.085
897	0.085
897	0.085
898	0.086
898	0.086
898	0.086
899	0.086
899	0.086
900	0.086
900	0.086
901	0.087
901	0.087
901	0.087
902	0.087
902	0.087
903	0.087
903	0.087
904	0.087
904	0.086
904	0.086
905	0.086
905	0.086
906	0.085
906	0.085
907	0.084
907	0.084
907	0.084
908	0.083
908	0.083
909	0.083
909	0.083
910	0.083
910	0.084
910	0.084
911	0.084
911	0.084
912	0.085
912	0.085
913	0.086
913	0.086
913	0.087
914	0.087
914	0.087
915	0.086
915	0.086
916	0.086
916	0.085
916	0.084
917	0.083
917	0.083
918	0.082
918	0.081
918	0.081
919	0.08
919	0.08
920	0.079
920	0.079
921	0.078
921	0.078
921	0.077
922	0.077
922	0.076
923	0.075
923	0.075
924	0.074
924	0.073
924	0.072
925	0.072
925	0.071
926	0.071
926	0.07
927	0.07
927	0.07
927	0.07
928	0.07
928	0.07
929	0.071
929	0.072
930	0.073
930	0.075
930	0.076
931	0.078
931	0.08
932	0.081
932	0.083
933	0.085
933	0.087
933	0.088
934	0.089
934	0.089
935	0.09
935	0.09
935	0.09
936	0.09
936	0.09
937	0.09
937	0.09
938	0.09
938	0.09
938	0.09
939	0.09
939	0.091
940	0.091
940	0.092
941	0.092
941	0.092
941	0.093
942	0.092
942	0.092
943	0.091
943	0.09
944	0.09
944	0.089
944	0.089
945	0.089
945	0.089
946	0.089
946	0.088
946	0.088
947	0.088
947	0.087
948	0.086
948	0.086
949	0.085
949	0.085
949	0.085
950	0.085
950	0.084
951	0.084
951	0.083
952	0.083
952	0.083
952	0.083
953	0.082
953	0.082
954	0.081
954	0.08
955	0.079
955	0.079
955	0.079
956	0.079
956	0.079
957	0.08
957	0.08
957	0.08
958	0.08
958	0.08
959	0.08
959	0.08
960	0.079
960	0.078
960	0.077
961	0.076
961	0.075
962	0.074
962	0.074
963	0.073
963	0.073
963	0.073
964	0.073
964	0.074
965	0.075
965	0.076
966	0.077
966	0.078
966	0.079
967	0.08
967	0.08
968	0.08
968	0.081
968	0.081
969	0.081
969	0.081
970	0.081
970	0.08
971	0.08
971	0.08
971	0.08
972	0.08
972	0.081
973	0.082
973	0.082
974	0.083
974	0.085
974	0.086
975	0.087
975	0.088
976	0.09
976	0.091
976	0.092
977	0.092
977	0.092
978	0.092
978	0.092
979	0.092
979	0.092
979	0.092
980	0.092
980	0.091
981	0.091
981	0.092
982	0.092
982	0.093
982	0.094
983	0.095
983	0.095
984	0.096
984	0.096
984	0.097
985	0.097
985	0.097
986	0.096
986	0.096
987	0.095
987	0.094
987	0.093
988	0.092
988	0.091
989	0.09
989	0.089
990	0.088
990	0.088
990	0.087
991	0.087
991	0.087
992	0.087
992	0.087
992	0.087
993	0.087
993	0.086
994	0.086
994	0.085
995	0.085
995	0.085
995	0.084
996	0.084
996	0.084
997	0.084
997	0.084
997	0.084
998	0.085
998	0.086
999	0.087
999	0.087
1000	0.088
1000	0.089
1000	0.09
1001	0.09
1001	0.091
1002	0.091
1002	0.091
1003	0.09
1003	0.09
1003	0.089
1004	0.089
1004	0.088
1005	0.087
1005	0.086
1005	0.085
1006	0.085
1006	0.084
1007	0.084
1007	0.084
1008	0.084
1008	0.084
1008	0.084
1009	0.084
1009	0.084
1010	0.085
1010	0.085
1010	0.085
1011	0.085
1011	0.085
1012	0.084
1012	0.084
1013	0.084
1013	0.084
1013	0.083
1014	0.082
1014	0.081
1015	0.081
1015	0.08
1016	0.079
1016	0.078
1016	0.077
1017	0.076
1017	0.075
1018	0.075
1018	0.075
1018	0.075
1019	0.075
1019	0.075
1020	0.075
1020	0.075
1021	0.076
1021	0.076
1021	0.076
1022	0.077
1022	0.077
1023	0.077
1023	0.077
1023	0.077
1024	0.076
1024	0.076
1025	0.075
1025	0.074
1026	0.074
1026	0.073
1026	0.073
1027	0.072
1027	0.072
1028	0.072
1028	0.072
1028	0.072
1029	0.072
1029	0.072
1030	0.072
1030	0.072
1031	0.073
1031	0.073
1031	0.074
1032	0.074
1032	0.074
1033	0.074
1033	0.075
1033	0.075
1034	0.075
1034	0.075
1035	0.074
1035	0.074
1036	0.074
1036	0.074
1036	0.075
1037	0.075
1037	0.076
1038	0.076
1038	0.076
1039	0.077
1039	0.078
1039	0.079
1040	0.079
1040	0.08
1041	0.08
1041	0.079
1041	0.079
1042	0.078
1042	0.078
1043	0.077
1043	0.077
1044	0.076
1044	0.076
1044	0.076
1045	0.076
1045	0.075
1046	0.075
1046	0.075
1046	0.076
1047	0.077
1047	0.078
1048	0.078
1048	0.079
1049	0.079
1049	0.078
1049	0.078
1050	0.078
1050	0.077
1051	0.077
1051	0.077
1051	0.077
1052	0.077
1052	0.077
1053	0.077
1053	0.077
1053	0.077
1054	0.078
1054	0.078
1055	0.079
1055	0.08
1056	0.08
1056	0.08
1056	0.08
1057	0.08
1057	0.08
1058	0.081
1058	0.081
1058	0.082
1059	0.083
1059	0.084
1060	0.085
1060	0.086
1061	0.087
1061	0.088
1061	0.09
1062	0.09
1062	0.091
1063	0.092
1063	0.092
1063	0.092
1064	0.094
1064	0.095
1065	0.096
1065	0.097
1066	0.098
1066	0.099
1066	0.101
1067	0.103
1067	0.105
1068	0.106
1068	0.108
1068	0.109
1069	0.11
1069	0.111
1070	0.112
1070	0.113
1071	0.114
1071	0.115
1071	0.116
1072	0.117
1072	0.119
1073	0.121
1073	0.122
1073	0.123
1074	0.125
1074	0.126
1075	0.126
1075	0.127
1076	0.127
1076	0.129
1076	0.129
1077	0.13
1077	0.131
1078	0.132
1078	0.134
1078	0.137
1079	0.138
1079	0.141
1080	0.143
1080	0.146
1080	0.147
1081	0.15
1081	0.152
1082	0.154
1082	0.155
1083	0.157
1083	0.159
1083	0.161
1084	0.164
1084	0.167
1085	0.17
1085	0.174
1085	0.178
1086	0.181
1086	0.184
1087	0.189
1087	0.194
1088	0.198
1088	0.203
1088	0.208
1089	0.213
1089	0.219
1090	0.226
1090	0.233
1090	0.241
1091	0.249
1091	0.259
1092	0.269
1092	0.281
1092	0.292
1093	0.304
1093	0.317
1094	0.33
1094	0.343
1095	0.357
1095	0.373
1095	0.394
1096	0.413
1096	0.435
1097	0.462
1097	0.486
1097	0.518
1098	0.552
1098	0.592
1099	0.639
1099	0.696
1100	0.766
1100	0.852
1100	0.967
1101	1.134
1101	1.413
1102	-0
1102	-0
1102	-0
1103	-0
1103	-0
1104	-0
1104	-0
1104	-0
1105	-0
1105	-0
1106	-0
1106	-0
1107	-0
1107	-0
1107	-0
1108	-0
1108	-0
1109	-0
1109	-0
1109	-0
1110	-0
1110	-0
1111	-0
1111	-0
