Data from 14c-stair-power-variation_Absorbance__36__04213.txt Node

Date: Tue Jan 16 16:14:11 CET 2024
User: Marek
Spectrometer: MAYP115816
Trigger mode: 0
Integration Time (sec): 2.000000E-1
Scans to average: 10
Electric dark correction enabled: true
Nonlinearity correction enabled: true
Boxcar width: 5
XAxis mode: Wavelengths
Number of Pixels in Spectrum: 2068
>>>>>Begin Spectral Data<<<<<
199	-2.149
199	-1.961
200	-1.826
200	-1.706
201	-1.632
201	-1.581
202	-1.505
202	-1.443
203	-1.395
203	-1.347
204	-1.319
204	-1.294
205	-1.275
205	-1.263
205	-1.26
206	-1.256
206	-1.253
207	-1.25
207	-1.249
208	-1.245
208	-1.244
209	-1.24
209	-1.238
210	-1.237
210	-1.234
211	-1.233
211	-1.232
212	-1.231
212	-1.23
213	-1.228
213	-1.228
213	-1.228
214	-1.226
214	-1.225
215	-1.224
215	-1.224
216	-1.221
216	-1.22
217	-1.217
217	-1.214
218	-1.211
218	-1.207
219	-1.202
219	-1.2
220	-1.198
220	-1.197
221	-1.193
221	-1.192
221	-1.187
222	-1.182
222	-1.177
223	-1.172
223	-1.166
224	-1.161
224	-1.153
225	-1.144
225	-1.134
226	-1.126
226	-1.116
227	-1.102
227	-1.09
228	-1.074
228	-1.058
229	-1.036
229	-1.013
229	-0.987
230	-0.958
230	-0.926
231	-0.89
231	-0.85
232	-0.81
232	-0.767
233	-0.721
233	-0.673
234	-0.625
234	-0.576
235	-0.526
235	-0.478
236	-0.429
236	-0.381
236	-0.334
237	-0.289
237	-0.245
238	-0.203
238	-0.163
239	-0.125
239	-0.09
240	-0.056
240	-0.025
241	0.005
241	0.032
242	0.057
242	0.081
243	0.103
243	0.123
243	0.141
244	0.158
244	0.174
245	0.188
245	0.202
246	0.214
246	0.227
247	0.237
247	0.247
248	0.256
248	0.265
249	0.273
249	0.281
250	0.288
250	0.295
250	0.301
251	0.307
251	0.312
252	0.318
252	0.323
253	0.327
253	0.331
254	0.335
254	0.339
255	0.342
255	0.345
256	0.348
256	0.351
257	0.353
257	0.356
258	0.357
258	0.359
258	0.361
259	0.363
259	0.364
260	0.365
260	0.366
261	0.367
261	0.367
262	0.368
262	0.368
263	0.369
263	0.37
264	0.37
264	0.37
265	0.37
265	0.37
265	0.37
266	0.37
266	0.369
267	0.369
267	0.368
268	0.368
268	0.367
269	0.366
269	0.365
270	0.364
270	0.363
271	0.362
271	0.361
272	0.361
272	0.36
272	0.359
273	0.357
273	0.356
274	0.355
274	0.354
275	0.353
275	0.352
276	0.351
276	0.35
277	0.348
277	0.347
278	0.345
278	0.343
278	0.342
279	0.339
279	0.338
280	0.337
280	0.335
281	0.334
281	0.333
282	0.333
282	0.332
283	0.331
283	0.331
284	0.33
284	0.33
285	0.33
285	0.328
285	0.328
286	0.327
286	0.326
287	0.325
287	0.324
288	0.323
288	0.322
289	0.321
289	0.32
290	0.319
290	0.319
291	0.318
291	0.317
292	0.316
292	0.315
292	0.314
293	0.313
293	0.313
294	0.312
294	0.311
295	0.31
295	0.31
296	0.309
296	0.308
297	0.307
297	0.307
298	0.306
298	0.306
298	0.305
299	0.304
299	0.304
300	0.303
300	0.302
301	0.301
301	0.301
302	0.3
302	0.3
303	0.299
303	0.298
304	0.298
304	0.297
305	0.296
305	0.296
305	0.295
306	0.294
306	0.293
307	0.293
307	0.292
308	0.291
308	0.29
309	0.289
309	0.288
310	0.288
310	0.287
311	0.286
311	0.286
311	0.285
312	0.284
312	0.283
313	0.283
313	0.282
314	0.281
314	0.28
315	0.279
315	0.278
316	0.277
316	0.276
317	0.276
317	0.275
318	0.274
318	0.273
318	0.272
319	0.271
319	0.27
320	0.269
320	0.268
321	0.267
321	0.266
322	0.266
322	0.265
323	0.264
323	0.263
324	0.262
324	0.261
324	0.26
325	0.259
325	0.259
326	0.258
326	0.257
327	0.256
327	0.255
328	0.255
328	0.254
329	0.253
329	0.252
330	0.252
330	0.251
330	0.25
331	0.249
331	0.248
332	0.247
332	0.246
333	0.246
333	0.245
334	0.244
334	0.243
335	0.242
335	0.241
336	0.241
336	0.24
336	0.239
337	0.239
337	0.238
338	0.237
338	0.236
339	0.236
339	0.235
340	0.234
340	0.233
341	0.233
341	0.232
342	0.231
342	0.231
342	0.23
343	0.229
343	0.229
344	0.228
344	0.227
345	0.227
345	0.226
346	0.225
346	0.225
347	0.224
347	0.223
348	0.223
348	0.222
348	0.221
349	0.221
349	0.22
350	0.219
350	0.218
351	0.218
351	0.217
352	0.216
352	0.215
353	0.214
353	0.213
354	0.212
354	0.211
354	0.21
355	0.209
355	0.208
356	0.207
356	0.206
357	0.205
357	0.205
358	0.204
358	0.205
359	0.205
359	0.206
360	0.207
360	0.208
360	0.208
361	0.209
361	0.209
362	0.21
362	0.21
363	0.21
363	0.21
364	0.21
364	0.209
365	0.209
365	0.208
366	0.208
366	0.207
366	0.207
367	0.207
367	0.206
368	0.206
368	0.205
369	0.205
369	0.204
370	0.204
370	0.204
371	0.203
371	0.203
372	0.202
372	0.202
372	0.202
373	0.201
373	0.201
374	0.201
374	0.201
375	0.201
375	0.201
376	0.201
376	0.201
377	0.201
377	0.202
378	0.202
378	0.202
378	0.202
379	0.202
379	0.203
380	0.203
380	0.203
381	0.203
381	0.202
382	0.202
382	0.201
383	0.201
383	0.2
383	0.2
384	0.199
384	0.199
385	0.198
385	0.199
386	0.198
386	0.199
387	0.199
387	0.198
388	0.198
388	0.198
389	0.198
389	0.198
389	0.198
390	0.198
390	0.198
391	0.198
391	0.199
392	0.199
392	0.199
393	0.199
393	0.199
394	0.199
394	0.199
394	0.198
395	0.198
395	0.198
396	0.198
396	0.198
397	0.198
397	0.198
398	0.198
398	0.198
399	0.198
399	0.198
400	0.198
400	0.197
400	0.197
401	0.196
401	0.195
402	0.194
402	0.193
403	0.193
403	0.192
404	0.192
404	0.192
405	0.191
405	0.191
405	0.191
406	0.191
406	0.191
407	0.191
407	0.191
408	0.19
408	0.19
409	0.189
409	0.189
410	0.189
410	0.189
411	0.189
411	0.189
411	0.189
412	0.189
412	0.188
413	0.188
413	0.188
414	0.187
414	0.187
415	0.187
415	0.186
416	0.186
416	0.185
416	0.185
417	0.184
417	0.184
418	0.184
418	0.185
419	0.185
419	0.186
420	0.187
420	0.188
421	0.188
421	0.189
421	0.189
422	0.19
422	0.19
423	0.19
423	0.189
424	0.188
424	0.187
425	0.186
425	0.185
426	0.185
426	0.184
427	0.184
427	0.184
427	0.184
428	0.185
428	0.186
429	0.187
429	0.187
430	0.188
430	0.187
431	0.187
431	0.187
432	0.187
432	0.186
432	0.185
433	0.184
433	0.182
434	0.181
434	0.181
435	0.181
435	0.181
436	0.181
436	0.181
437	0.181
437	0.181
437	0.181
438	0.181
438	0.181
439	0.181
439	0.181
440	0.181
440	0.181
441	0.181
441	0.181
442	0.181
442	0.182
442	0.183
443	0.183
443	0.184
444	0.184
444	0.185
445	0.185
445	0.186
446	0.186
446	0.186
447	0.186
447	0.185
447	0.185
448	0.185
448	0.185
449	0.184
449	0.184
450	0.183
450	0.183
451	0.183
451	0.182
452	0.182
452	0.181
452	0.18
453	0.18
453	0.179
454	0.178
454	0.177
455	0.177
455	0.177
456	0.176
456	0.176
457	0.176
457	0.176
458	0.176
458	0.176
458	0.176
459	0.177
459	0.178
460	0.177
460	0.176
461	0.176
461	0.176
462	0.176
462	0.176
463	0.176
463	0.177
463	0.178
464	0.178
464	0.178
465	0.178
465	0.178
466	0.178
466	0.178
467	0.178
467	0.178
467	0.177
468	0.175
468	0.173
469	0.172
469	0.17
470	0.17
470	0.169
471	0.169
471	0.169
472	0.169
472	0.169
472	0.17
473	0.171
473	0.172
474	0.173
474	0.174
475	0.175
475	0.176
476	0.176
476	0.177
477	0.177
477	0.178
477	0.178
478	0.179
478	0.179
479	0.18
479	0.181
480	0.181
480	0.182
481	0.183
481	0.184
482	0.184
482	0.186
482	0.187
483	0.189
483	0.192
484	0.195
484	0.198
485	0.199
485	0.201
486	0.202
486	0.203
487	0.204
487	0.205
487	0.205
488	0.204
488	0.203
489	0.201
489	0.199
490	0.198
490	0.198
491	0.197
491	0.198
492	0.199
492	0.199
492	0.199
493	0.2
493	0.202
494	0.204
494	0.206
495	0.208
495	0.209
496	0.21
496	0.211
496	0.212
497	0.213
497	0.214
498	0.214
498	0.215
499	0.215
499	0.215
500	0.215
500	0.217
501	0.219
501	0.22
501	0.222
502	0.224
502	0.225
503	0.227
503	0.228
504	0.229
504	0.23
505	0.231
505	0.231
506	0.232
506	0.232
506	0.233
507	0.233
507	0.233
508	0.234
508	0.234
509	0.235
509	0.236
510	0.236
510	0.237
511	0.237
511	0.237
511	0.237
512	0.237
512	0.237
513	0.237
513	0.236
514	0.236
514	0.235
515	0.234
515	0.234
515	0.233
516	0.232
516	0.232
517	0.233
517	0.233
518	0.233
518	0.232
519	0.231
519	0.23
520	0.228
520	0.225
520	0.223
521	0.221
521	0.218
522	0.215
522	0.212
523	0.21
523	0.21
524	0.21
524	0.212
524	0.214
525	0.217
525	0.22
526	0.223
526	0.226
527	0.229
527	0.232
528	0.234
528	0.236
529	0.238
529	0.238
529	0.239
530	0.239
530	0.239
531	0.24
531	0.24
532	0.239
532	0.239
533	0.239
533	0.24
533	0.24
534	0.239
534	0.238
535	0.237
535	0.237
536	0.237
536	0.236
537	0.236
537	0.235
538	0.234
538	0.233
538	0.231
539	0.23
539	0.23
540	0.229
540	0.228
541	0.226
541	0.224
542	0.223
542	0.221
542	0.219
543	0.218
543	0.217
544	0.215
544	0.214
545	0.212
545	0.212
546	0.211
546	0.211
547	0.209
547	0.207
547	0.205
548	0.202
548	0.2
549	0.198
549	0.196
550	0.194
550	0.192
551	0.19
551	0.187
551	0.185
552	0.184
552	0.183
553	0.182
553	0.182
554	0.181
554	0.18
555	0.178
555	0.175
556	0.172
556	0.169
556	0.166
557	0.164
557	0.162
558	0.16
558	0.158
559	0.156
559	0.155
560	0.155
560	0.154
560	0.154
561	0.154
561	0.154
562	0.154
562	0.153
563	0.151
563	0.149
564	0.146
564	0.143
564	0.141
565	0.139
565	0.138
566	0.137
566	0.136
567	0.136
567	0.137
568	0.138
568	0.139
568	0.141
569	0.144
569	0.146
570	0.147
570	0.147
571	0.148
571	0.148
572	0.149
572	0.149
573	0.149
573	0.149
573	0.147
574	0.146
574	0.145
575	0.145
575	0.146
576	0.147
576	0.146
577	0.144
577	0.142
577	0.141
578	0.14
578	0.14
579	0.142
579	0.144
580	0.143
580	0.141
581	0.138
581	0.136
581	0.135
582	0.136
582	0.136
583	0.136
583	0.136
584	0.132
584	0.128
585	0.126
585	0.125
585	0.125
586	0.125
586	0.125
587	0.123
587	0.121
588	0.118
588	0.116
589	0.115
589	0.114
590	0.113
590	0.113
590	0.114
591	0.115
591	0.115
592	0.115
592	0.114
593	0.114
593	0.113
594	0.113
594	0.112
594	0.111
595	0.111
595	0.109
596	0.107
596	0.107
597	0.11
597	0.111
598	0.112
598	0.113
598	0.114
599	0.115
599	0.115
600	0.114
600	0.113
601	0.112
601	0.111
602	0.108
602	0.107
602	0.106
603	0.105
603	0.105
604	0.105
604	0.106
605	0.107
605	0.109
606	0.11
606	0.109
606	0.108
607	0.107
607	0.107
608	0.106
608	0.105
609	0.104
609	0.103
610	0.101
610	0.099
610	0.098
611	0.099
611	0.1
612	0.101
612	0.102
613	0.104
613	0.106
614	0.106
614	0.105
614	0.105
615	0.105
615	0.105
616	0.105
616	0.104
617	0.103
617	0.102
618	0.101
618	0.1
618	0.099
619	0.1
619	0.101
620	0.103
620	0.104
621	0.104
621	0.105
622	0.106
622	0.107
622	0.107
623	0.107
623	0.109
624	0.11
624	0.11
625	0.11
625	0.11
626	0.11
626	0.111
626	0.111
627	0.111
627	0.112
628	0.112
628	0.112
629	0.112
629	0.112
630	0.111
630	0.111
630	0.111
631	0.111
631	0.112
632	0.111
632	0.111
633	0.112
633	0.113
634	0.114
634	0.116
634	0.118
635	0.12
635	0.121
636	0.122
636	0.124
637	0.125
637	0.127
638	0.128
638	0.13
638	0.131
639	0.132
639	0.132
640	0.134
640	0.135
641	0.137
641	0.139
642	0.141
642	0.143
642	0.145
643	0.147
643	0.148
644	0.15
644	0.152
645	0.154
645	0.157
646	0.159
646	0.163
646	0.166
647	0.17
647	0.173
648	0.176
648	0.179
649	0.182
649	0.186
650	0.189
650	0.192
650	0.195
651	0.197
651	0.199
652	0.201
652	0.204
653	0.207
653	0.217
653	0.226
654	0.184
654	0.152
655	0.156
655	0.158
656	0.16
656	0.162
657	0.163
657	0.165
657	0.166
658	0.161
658	0.152
659	0.189
659	0.239
660	0.243
660	0.245
661	0.246
661	0.248
661	0.251
662	0.255
662	0.258
663	0.262
663	0.266
664	0.269
664	0.272
665	0.275
665	0.278
665	0.281
666	0.284
666	0.286
667	0.288
667	0.291
668	0.293
668	0.296
669	0.299
669	0.302
669	0.307
670	0.311
670	0.315
671	0.318
671	0.32
672	0.322
672	0.324
672	0.326
673	0.327
673	0.329
674	0.33
674	0.331
675	0.331
675	0.332
676	0.333
676	0.336
676	0.337
677	0.339
677	0.342
678	0.344
678	0.345
679	0.347
679	0.348
680	0.35
680	0.352
680	0.352
681	0.353
681	0.354
682	0.355
682	0.357
683	0.359
683	0.362
684	0.365
684	0.366
684	0.367
685	0.368
685	0.369
686	0.371
686	0.372
687	0.372
687	0.371
687	0.371
688	0.37
688	0.368
689	0.368
689	0.369
690	0.37
690	0.369
691	0.369
691	0.369
691	0.37
692	0.37
692	0.369
693	0.369
693	0.37
694	0.369
694	0.367
695	0.368
695	0.369
695	0.369
696	0.368
696	0.367
697	0.366
697	0.365
698	0.364
698	0.361
698	0.359
699	0.358
699	0.355
700	0.352
700	0.35
701	0.349
701	0.347
702	0.345
702	0.344
702	0.342
703	0.34
703	0.339
704	0.336
704	0.335
705	0.334
705	0.332
705	0.33
706	0.328
706	0.327
707	0.325
707	0.323
708	0.321
708	0.319
709	0.318
709	0.316
709	0.313
710	0.31
710	0.308
711	0.306
711	0.304
712	0.302
712	0.3
713	0.299
713	0.297
713	0.294
714	0.291
714	0.288
715	0.285
715	0.282
716	0.279
716	0.276
716	0.273
717	0.271
717	0.268
718	0.265
718	0.263
719	0.262
719	0.26
720	0.259
720	0.257
720	0.254
721	0.251
721	0.249
722	0.246
722	0.242
723	0.24
723	0.237
723	0.234
724	0.231
724	0.228
725	0.224
725	0.221
726	0.219
726	0.217
727	0.214
727	0.213
727	0.211
728	0.209
728	0.208
729	0.208
729	0.207
730	0.206
730	0.204
730	0.203
731	0.202
731	0.202
732	0.201
732	0.199
733	0.197
733	0.195
734	0.193
734	0.191
734	0.189
735	0.187
735	0.185
736	0.182
736	0.179
737	0.176
737	0.175
737	0.173
738	0.17
738	0.166
739	0.163
739	0.161
740	0.159
740	0.157
741	0.156
741	0.154
741	0.151
742	0.147
742	0.144
743	0.142
743	0.139
744	0.137
744	0.135
744	0.133
745	0.13
745	0.127
746	0.125
746	0.123
747	0.122
747	0.121
748	0.12
748	0.119
748	0.118
749	0.116
749	0.115
750	0.114
750	0.112
751	0.112
751	0.111
751	0.111
752	0.11
752	0.109
753	0.108
753	0.107
754	0.107
754	0.106
754	0.106
755	0.106
755	0.107
756	0.106
756	0.103
757	0.102
757	0.101
758	0.101
758	0.099
758	0.098
759	0.096
759	0.093
760	0.09
760	0.086
761	0.084
761	0.082
761	0.08
762	0.078
762	0.076
763	0.075
763	0.072
764	0.069
764	0.067
764	0.065
765	0.063
765	0.061
766	0.059
766	0.059
767	0.058
767	0.055
768	0.052
768	0.05
768	0.049
769	0.048
769	0.048
770	0.046
770	0.045
771	0.043
771	0.04
771	0.037
772	0.035
772	0.034
773	0.032
773	0.029
774	0.026
774	0.023
775	0.02
775	0.017
775	0.013
776	0.009
776	0.005
777	0
777	-0.004
778	-0.009
778	-0.015
778	-0.02
779	-0.024
779	-0.028
780	-0.033
780	-0.039
781	-0.044
781	-0.049
781	-0.053
782	-0.058
782	-0.063
783	-0.067
783	-0.07
784	-0.073
784	-0.076
784	-0.078
785	-0.08
785	-0.082
786	-0.083
786	-0.081
787	-0.077
787	-0.073
788	-0.072
788	-0.073
788	-0.074
789	-0.076
789	-0.075
790	-0.072
790	-0.071
791	-0.072
791	-0.073
791	-0.075
792	-0.07
792	-0.061
793	-0.055
793	-0.051
794	-0.05
794	-0.052
794	-0.055
795	-0.057
795	-0.057
796	-0.057
796	-0.059
797	-0.067
797	-0.076
797	-0.082
798	-0.087
798	-0.09
799	-0.091
799	-0.09
800	-0.09
800	-0.093
801	-0.096
801	-0.097
801	-0.098
802	-0.1
802	-0.101
803	-0.102
803	-0.102
804	-0.102
804	-0.097
804	-0.091
805	-0.087
805	-0.085
806	-0.083
806	-0.082
807	-0.081
807	-0.08
807	-0.079
808	-0.079
808	-0.079
809	-0.083
809	-0.088
810	-0.091
810	-0.093
810	-0.096
811	-0.098
811	-0.098
812	-0.094
812	-0.091
813	-0.092
813	-0.092
813	-0.093
814	-0.094
814	-0.094
815	-0.092
815	-0.089
816	-0.087
816	-0.088
817	-0.092
817	-0.095
817	-0.096
818	-0.095
818	-0.092
819	-0.087
819	-0.084
820	-0.086
820	-0.088
820	-0.089
821	-0.088
821	-0.086
822	-0.083
822	-0.078
823	-0.074
823	-0.071
823	-0.07
824	-0.066
824	-0.058
825	-0.049
825	-0.039
826	-0.03
826	-0.023
826	-0.017
827	-0.01
827	-0.005
828	0.001
828	0.005
829	0.01
829	0.014
829	0.017
830	0.02
830	0.023
831	0.028
831	0.031
832	0.034
832	0.037
832	0.04
833	0.042
833	0.044
834	0.046
834	0.047
835	0.049
835	0.049
835	0.05
836	0.051
836	0.052
837	0.052
837	0.053
838	0.053
838	0.053
839	0.053
839	0.053
839	0.053
840	0.053
840	0.054
841	0.054
841	0.054
842	0.055
842	0.055
842	0.056
843	0.056
843	0.057
844	0.058
844	0.058
845	0.059
845	0.06
845	0.061
846	0.062
846	0.063
847	0.064
847	0.065
848	0.067
848	0.068
848	0.069
849	0.07
849	0.071
850	0.071
850	0.071
851	0.072
851	0.072
851	0.072
852	0.072
852	0.073
853	0.073
853	0.073
854	0.074
854	0.075
854	0.075
855	0.076
855	0.076
856	0.076
856	0.076
857	0.077
857	0.076
857	0.076
858	0.076
858	0.076
859	0.075
859	0.075
860	0.075
860	0.075
860	0.074
861	0.074
861	0.073
862	0.072
862	0.071
863	0.07
863	0.07
863	0.069
864	0.068
864	0.068
865	0.068
865	0.069
866	0.069
866	0.07
866	0.071
867	0.073
867	0.074
868	0.076
868	0.077
869	0.079
869	0.08
869	0.08
870	0.08
870	0.08
871	0.08
871	0.08
872	0.08
872	0.079
872	0.078
873	0.077
873	0.076
874	0.075
874	0.075
875	0.075
875	0.075
875	0.075
876	0.075
876	0.075
877	0.075
877	0.075
878	0.075
878	0.075
878	0.075
879	0.074
879	0.074
880	0.073
880	0.073
881	0.072
881	0.072
881	0.071
882	0.071
882	0.071
883	0.071
883	0.072
884	0.072
884	0.073
884	0.073
885	0.074
885	0.075
886	0.076
886	0.076
887	0.077
887	0.077
887	0.078
888	0.078
888	0.077
889	0.078
889	0.078
890	0.079
890	0.079
890	0.08
891	0.08
891	0.08
892	0.081
892	0.082
893	0.082
893	0.083
893	0.083
894	0.084
894	0.084
895	0.084
895	0.084
895	0.084
896	0.084
896	0.085
897	0.085
897	0.086
898	0.086
898	0.086
898	0.086
899	0.086
899	0.086
900	0.086
900	0.086
901	0.087
901	0.087
901	0.087
902	0.087
902	0.087
903	0.087
903	0.087
904	0.087
904	0.086
904	0.086
905	0.086
905	0.085
906	0.085
906	0.085
907	0.084
907	0.084
907	0.084
908	0.084
908	0.084
909	0.084
909	0.084
910	0.084
910	0.084
910	0.084
911	0.084
911	0.085
912	0.086
912	0.086
913	0.087
913	0.087
913	0.087
914	0.088
914	0.088
915	0.088
915	0.087
916	0.087
916	0.086
916	0.085
917	0.084
917	0.084
918	0.083
918	0.083
918	0.082
919	0.081
919	0.081
920	0.08
920	0.08
921	0.079
921	0.078
921	0.078
922	0.077
922	0.077
923	0.076
923	0.075
924	0.074
924	0.073
924	0.073
925	0.072
925	0.071
926	0.071
926	0.071
927	0.07
927	0.07
927	0.07
928	0.07
928	0.07
929	0.071
929	0.072
930	0.073
930	0.075
930	0.076
931	0.078
931	0.08
932	0.081
932	0.083
933	0.085
933	0.086
933	0.088
934	0.089
934	0.089
935	0.09
935	0.09
935	0.09
936	0.09
936	0.09
937	0.09
937	0.09
938	0.09
938	0.09
938	0.09
939	0.09
939	0.091
940	0.092
940	0.092
941	0.093
941	0.093
941	0.093
942	0.093
942	0.092
943	0.092
943	0.091
944	0.091
944	0.09
944	0.09
945	0.09
945	0.09
946	0.09
946	0.089
946	0.089
947	0.088
947	0.088
948	0.087
948	0.086
949	0.086
949	0.085
949	0.085
950	0.084
950	0.084
951	0.083
951	0.083
952	0.082
952	0.082
952	0.082
953	0.081
953	0.08
954	0.079
954	0.079
955	0.078
955	0.078
955	0.078
956	0.078
956	0.078
957	0.078
957	0.078
957	0.078
958	0.079
958	0.079
959	0.079
959	0.078
960	0.078
960	0.077
960	0.076
961	0.075
961	0.074
962	0.073
962	0.072
963	0.072
963	0.072
963	0.072
964	0.072
964	0.073
965	0.074
965	0.075
966	0.076
966	0.077
966	0.078
967	0.079
967	0.08
968	0.08
968	0.081
968	0.081
969	0.081
969	0.081
970	0.081
970	0.081
971	0.081
971	0.081
971	0.081
972	0.081
972	0.082
973	0.082
973	0.083
974	0.084
974	0.085
974	0.086
975	0.088
975	0.089
976	0.09
976	0.091
976	0.091
977	0.092
977	0.092
978	0.092
978	0.092
979	0.092
979	0.092
979	0.092
980	0.091
980	0.091
981	0.091
981	0.091
982	0.092
982	0.093
982	0.093
983	0.094
983	0.094
984	0.095
984	0.095
984	0.095
985	0.095
985	0.095
986	0.095
986	0.094
987	0.093
987	0.092
987	0.091
988	0.09
988	0.089
989	0.089
989	0.088
990	0.087
990	0.086
990	0.086
991	0.086
991	0.086
992	0.086
992	0.086
992	0.086
993	0.086
993	0.086
994	0.085
994	0.085
995	0.084
995	0.084
995	0.084
996	0.083
996	0.083
997	0.083
997	0.083
997	0.083
998	0.084
998	0.085
999	0.086
999	0.087
1000	0.088
1000	0.088
1000	0.089
1001	0.09
1001	0.09
1002	0.09
1002	0.09
1003	0.09
1003	0.09
1003	0.089
1004	0.088
1004	0.087
1005	0.086
1005	0.085
1005	0.084
1006	0.084
1006	0.083
1007	0.083
1007	0.083
1008	0.083
1008	0.083
1008	0.083
1009	0.083
1009	0.084
1010	0.084
1010	0.085
1010	0.085
1011	0.085
1011	0.086
1012	0.086
1012	0.086
1013	0.086
1013	0.085
1013	0.085
1014	0.084
1014	0.083
1015	0.083
1015	0.082
1016	0.081
1016	0.08
1016	0.079
1017	0.078
1017	0.077
1018	0.077
1018	0.076
1018	0.076
1019	0.076
1019	0.076
1020	0.076
1020	0.077
1021	0.077
1021	0.077
1021	0.078
1022	0.078
1022	0.078
1023	0.078
1023	0.078
1023	0.078
1024	0.078
1024	0.077
1025	0.076
1025	0.076
1026	0.075
1026	0.074
1026	0.074
1027	0.073
1027	0.073
1028	0.073
1028	0.073
1028	0.073
1029	0.073
1029	0.073
1030	0.073
1030	0.073
1031	0.074
1031	0.074
1031	0.074
1032	0.075
1032	0.075
1033	0.076
1033	0.076
1033	0.076
1034	0.076
1034	0.076
1035	0.076
1035	0.076
1036	0.076
1036	0.076
1036	0.076
1037	0.077
1037	0.077
1038	0.078
1038	0.079
1039	0.08
1039	0.08
1039	0.081
1040	0.082
1040	0.083
1041	0.083
1041	0.082
1041	0.082
1042	0.081
1042	0.081
1043	0.08
1043	0.08
1044	0.079
1044	0.079
1044	0.078
1045	0.078
1045	0.078
1046	0.078
1046	0.078
1046	0.078
1047	0.079
1047	0.079
1048	0.08
1048	0.08
1049	0.08
1049	0.08
1049	0.079
1050	0.079
1050	0.078
1051	0.078
1051	0.078
1051	0.078
1052	0.078
1052	0.077
1053	0.078
1053	0.078
1053	0.078
1054	0.079
1054	0.08
1055	0.081
1055	0.081
1056	0.081
1056	0.081
1056	0.081
1057	0.082
1057	0.082
1058	0.082
1058	0.083
1058	0.084
1059	0.085
1059	0.085
1060	0.086
1060	0.087
1061	0.088
1061	0.089
1061	0.091
1062	0.091
1062	0.092
1063	0.093
1063	0.093
1063	0.093
1064	0.095
1064	0.096
1065	0.097
1065	0.098
1066	0.099
1066	0.101
1066	0.103
1067	0.104
1067	0.106
1068	0.107
1068	0.109
1068	0.11
1069	0.111
1069	0.111
1070	0.112
1070	0.114
1071	0.115
1071	0.117
1071	0.118
1072	0.119
1072	0.121
1073	0.123
1073	0.125
1073	0.126
1074	0.127
1074	0.128
1075	0.128
1075	0.128
1076	0.129
1076	0.13
1076	0.13
1077	0.131
1077	0.132
1078	0.133
1078	0.135
1078	0.137
1079	0.139
1079	0.142
1080	0.144
1080	0.147
1080	0.148
1081	0.151
1081	0.153
1082	0.155
1082	0.157
1083	0.16
1083	0.162
1083	0.165
1084	0.168
1084	0.171
1085	0.175
1085	0.179
1085	0.183
1086	0.186
1086	0.189
1087	0.193
1087	0.198
1088	0.202
1088	0.206
1088	0.213
1089	0.218
1089	0.224
1090	0.231
1090	0.239
1090	0.247
1091	0.256
1091	0.267
1092	0.277
1092	0.289
1092	0.3
1093	0.311
1093	0.325
1094	0.338
1094	0.351
1095	0.366
1095	0.384
1095	0.406
1096	0.427
1096	0.45
1097	0.478
1097	0.507
1097	0.542
1098	0.579
1098	0.623
1099	0.678
1099	0.743
1100	0.825
1100	0.924
1100	1.062
1101	1.286
1101	1.806
1102	-0
1102	-0
1102	-0
1103	-0
1103	-0
1104	-0
1104	-0
1104	-0
1105	-0
1105	-0
1106	-0
1106	-0
1107	-0
1107	-0
1107	-0
1108	-0
1108	-0
1109	-0
1109	-0
1109	-0
1110	-0
1110	-0
1111	-0
1111	-0
