Data from 3.4A_17C_Absorbance__396__02308.txt Node

Date: Tue Jun 20 16:38:47 CEST 2023
User: Marek
Spectrometer: MAYP115816
Trigger mode: 0
Integration Time (sec): 2.200000E-1
Scans to average: 10
Electric dark correction enabled: true
Nonlinearity correction enabled: true
Boxcar width: 5
XAxis mode: Wavelengths
Number of Pixels in Spectrum: 2068
>>>>>Begin Spectral Data<<<<<
199	-0.802
199	-0.783
200	-0.744
200	-0.69
201	-0.664
201	-0.655
202	-0.638
202	-0.634
203	-0.634
203	-0.628
204	-0.608
204	-0.593
205	-0.569
205	-0.56
205	-0.569
206	-0.57
206	-0.566
207	-0.557
207	-0.563
208	-0.564
208	-0.568
209	-0.569
209	-0.576
210	-0.589
210	-0.596
211	-0.59
211	-0.594
212	-0.603
212	-0.612
213	-0.609
213	-0.604
213	-0.603
214	-0.61
214	-0.612
215	-0.609
215	-0.614
216	-0.622
216	-0.628
217	-0.625
217	-0.625
218	-0.632
218	-0.634
219	-0.641
219	-0.642
220	-0.645
220	-0.651
221	-0.651
221	-0.652
221	-0.645
222	-0.645
222	-0.644
223	-0.641
223	-0.642
224	-0.642
224	-0.64
225	-0.637
225	-0.639
226	-0.639
226	-0.64
227	-0.647
227	-0.656
228	-0.66
228	-0.666
229	-0.671
229	-0.67
229	-0.671
230	-0.667
230	-0.665
231	-0.662
231	-0.656
232	-0.658
232	-0.653
233	-0.654
233	-0.642
234	-0.643
234	-0.636
235	-0.638
235	-0.649
236	-0.657
236	-0.658
236	-0.659
237	-0.658
237	-0.66
238	-0.66
238	-0.663
239	-0.665
239	-0.675
240	-0.671
240	-0.667
241	-0.66
241	-0.665
242	-0.668
242	-0.677
243	-0.678
243	-0.679
243	-0.682
244	-0.679
244	-0.68
245	-0.683
245	-0.687
246	-0.697
246	-0.697
247	-0.705
247	-0.689
248	-0.688
248	-0.691
249	-0.699
249	-0.701
250	-0.7
250	-0.708
250	-0.705
251	-0.706
251	-0.704
252	-0.706
252	-0.718
253	-0.714
253	-0.725
254	-0.728
254	-0.728
255	-0.739
255	-0.738
256	-0.74
256	-0.751
257	-0.761
257	-0.757
258	-0.759
258	-0.767
258	-0.764
259	-0.757
259	-0.775
260	-0.773
260	-0.76
261	-0.772
261	-0.759
262	-0.764
262	-0.761
263	-0.752
263	-0.757
264	-0.766
264	-0.766
265	-0.759
265	-0.762
265	-0.774
266	-0.765
266	-0.765
267	-0.764
267	-0.782
268	-0.789
268	-0.783
269	-0.777
269	-0.793
270	-0.796
270	-0.796
271	-0.808
271	-0.817
272	-0.817
272	-0.82
272	-0.814
273	-0.823
273	-0.836
274	-0.828
274	-0.822
275	-0.819
275	-0.805
276	-0.808
276	-0.815
277	-0.817
277	-0.814
278	-0.817
278	-0.817
278	-0.805
279	-0.814
279	-0.829
280	-0.832
280	-0.843
281	-0.839
281	-0.833
282	-0.838
282	-0.832
283	-0.826
283	-0.84
284	-0.854
284	-0.863
285	-0.843
285	-0.848
285	-0.841
286	-0.844
286	-0.859
287	-0.857
287	-0.857
288	-0.857
288	-0.839
289	-0.837
289	-0.847
290	-0.855
290	-0.845
291	-0.848
291	-0.845
292	-0.826
292	-0.822
292	-0.827
293	-0.815
293	-0.812
294	-0.812
294	-0.796
295	-0.779
295	-0.788
296	-0.801
296	-0.794
297	-0.782
297	-0.786
298	-0.783
298	-0.8
298	-0.801
299	-0.784
299	-0.777
300	-0.774
300	-0.756
301	-0.738
301	-0.741
302	-0.754
302	-0.739
303	-0.73
303	-0.718
304	-0.703
304	-0.706
305	-0.695
305	-0.704
305	-0.72
306	-0.704
306	-0.703
307	-0.692
307	-0.704
308	-0.706
308	-0.701
309	-0.703
309	-0.699
310	-0.699
310	-0.692
311	-0.678
311	-0.697
311	-0.684
312	-0.682
312	-0.67
313	-0.662
313	-0.665
314	-0.67
314	-0.668
315	-0.665
315	-0.659
316	-0.653
316	-0.642
317	-0.635
317	-0.631
318	-0.624
318	-0.622
318	-0.612
319	-0.602
319	-0.593
320	-0.589
320	-0.588
321	-0.585
321	-0.584
322	-0.578
322	-0.571
323	-0.572
323	-0.563
324	-0.559
324	-0.546
324	-0.535
325	-0.52
325	-0.502
326	-0.492
326	-0.466
327	-0.45
327	-0.427
328	-0.394
328	-0.37
329	-0.343
329	-0.316
330	-0.289
330	-0.252
330	-0.216
331	-0.178
331	-0.144
332	-0.11
332	-0.075
333	-0.045
333	-0.009
334	0.02
334	0.048
335	0.077
335	0.099
336	0.123
336	0.145
336	0.163
337	0.182
337	0.199
338	0.214
338	0.225
339	0.241
339	0.253
340	0.262
340	0.271
341	0.278
341	0.285
342	0.292
342	0.299
342	0.304
343	0.308
343	0.314
344	0.317
344	0.32
345	0.324
345	0.326
346	0.329
346	0.331
347	0.332
347	0.334
348	0.335
348	0.337
348	0.338
349	0.338
349	0.339
350	0.34
350	0.341
351	0.341
351	0.342
352	0.342
352	0.342
353	0.343
353	0.343
354	0.343
354	0.343
354	0.343
355	0.343
355	0.343
356	0.344
356	0.344
357	0.344
357	0.344
358	0.343
358	0.343
359	0.344
359	0.343
360	0.343
360	0.344
360	0.344
361	0.344
361	0.344
362	0.344
362	0.344
363	0.344
363	0.344
364	0.344
364	0.344
365	0.344
365	0.344
366	0.344
366	0.344
366	0.343
367	0.344
367	0.343
368	0.343
368	0.343
369	0.343
369	0.343
370	0.342
370	0.342
371	0.342
371	0.342
372	0.341
372	0.341
372	0.341
373	0.34
373	0.34
374	0.34
374	0.34
375	0.339
375	0.339
376	0.339
376	0.338
377	0.338
377	0.338
378	0.337
378	0.336
378	0.336
379	0.336
379	0.336
380	0.336
380	0.336
381	0.335
381	0.335
382	0.335
382	0.334
383	0.334
383	0.334
383	0.334
384	0.334
384	0.333
385	0.333
385	0.333
386	0.332
386	0.332
387	0.332
387	0.332
388	0.331
388	0.331
389	0.331
389	0.331
389	0.331
390	0.331
390	0.331
391	0.33
391	0.33
392	0.33
392	0.329
393	0.329
393	0.329
394	0.329
394	0.328
394	0.328
395	0.327
395	0.327
396	0.327
396	0.327
397	0.326
397	0.326
398	0.325
398	0.325
399	0.325
399	0.325
400	0.324
400	0.324
400	0.324
401	0.323
401	0.323
402	0.323
402	0.322
403	0.322
403	0.322
404	0.322
404	0.321
405	0.321
405	0.321
405	0.32
406	0.32
406	0.32
407	0.32
407	0.319
408	0.319
408	0.319
409	0.319
409	0.318
410	0.318
410	0.318
411	0.318
411	0.318
411	0.317
412	0.317
412	0.317
413	0.316
413	0.316
414	0.316
414	0.316
415	0.315
415	0.315
416	0.315
416	0.315
416	0.314
417	0.314
417	0.314
418	0.314
418	0.314
419	0.314
419	0.314
420	0.314
420	0.314
421	0.313
421	0.313
421	0.313
422	0.313
422	0.314
423	0.313
423	0.313
424	0.313
424	0.312
425	0.312
425	0.312
426	0.312
426	0.312
427	0.312
427	0.312
427	0.312
428	0.312
428	0.311
429	0.311
429	0.311
430	0.31
430	0.31
431	0.31
431	0.31
432	0.309
432	0.309
432	0.308
433	0.308
433	0.308
434	0.309
434	0.309
435	0.309
435	0.309
436	0.309
436	0.309
437	0.309
437	0.309
437	0.309
438	0.309
438	0.308
439	0.308
439	0.308
440	0.308
440	0.308
441	0.307
441	0.307
442	0.307
442	0.307
442	0.307
443	0.307
443	0.307
444	0.307
444	0.307
445	0.307
445	0.307
446	0.307
446	0.307
447	0.307
447	0.307
447	0.307
448	0.307
448	0.308
449	0.307
449	0.307
450	0.308
450	0.308
451	0.308
451	0.307
452	0.308
452	0.308
452	0.308
453	0.308
453	0.308
454	0.308
454	0.308
455	0.308
455	0.308
456	0.309
456	0.309
457	0.308
457	0.308
458	0.308
458	0.308
458	0.309
459	0.309
459	0.308
460	0.308
460	0.308
461	0.308
461	0.308
462	0.309
462	0.309
463	0.31
463	0.311
463	0.311
464	0.312
464	0.312
465	0.313
465	0.313
466	0.314
466	0.314
467	0.315
467	0.315
467	0.315
468	0.315
468	0.315
469	0.315
469	0.316
470	0.316
470	0.316
471	0.317
471	0.317
472	0.317
472	0.317
472	0.318
473	0.319
473	0.32
474	0.32
474	0.321
475	0.322
475	0.323
476	0.323
476	0.324
477	0.325
477	0.326
477	0.327
478	0.327
478	0.328
479	0.329
479	0.33
480	0.33
480	0.331
481	0.332
481	0.333
482	0.334
482	0.335
482	0.336
483	0.338
483	0.34
484	0.342
484	0.342
485	0.344
485	0.346
486	0.347
486	0.348
487	0.349
487	0.351
487	0.352
488	0.353
488	0.353
489	0.355
489	0.357
490	0.358
490	0.36
491	0.361
491	0.363
492	0.365
492	0.366
492	0.367
493	0.369
493	0.371
494	0.374
494	0.376
495	0.378
495	0.379
496	0.381
496	0.383
496	0.386
497	0.388
497	0.391
498	0.393
498	0.395
499	0.397
499	0.4
500	0.403
500	0.406
501	0.408
501	0.41
501	0.412
502	0.415
502	0.417
503	0.42
503	0.423
504	0.425
504	0.427
505	0.43
505	0.433
506	0.436
506	0.438
506	0.442
507	0.445
507	0.448
508	0.451
508	0.454
509	0.457
509	0.46
510	0.463
510	0.466
511	0.468
511	0.471
511	0.474
512	0.476
512	0.478
513	0.48
513	0.482
514	0.485
514	0.487
515	0.489
515	0.491
515	0.493
516	0.495
516	0.497
517	0.5
517	0.502
518	0.504
518	0.505
519	0.507
519	0.508
520	0.51
520	0.512
520	0.514
521	0.515
521	0.516
522	0.517
522	0.519
523	0.52
523	0.522
524	0.523
524	0.524
524	0.525
525	0.526
525	0.527
526	0.528
526	0.529
527	0.529
527	0.529
528	0.529
528	0.529
529	0.529
529	0.529
529	0.529
530	0.529
530	0.529
531	0.529
531	0.528
532	0.527
532	0.527
533	0.527
533	0.526
533	0.525
534	0.524
534	0.523
535	0.522
535	0.521
536	0.521
536	0.519
537	0.519
537	0.518
538	0.516
538	0.515
538	0.513
539	0.512
539	0.51
540	0.509
540	0.506
541	0.504
541	0.502
542	0.5
542	0.498
542	0.495
543	0.493
543	0.49
544	0.487
544	0.485
545	0.483
545	0.481
546	0.479
546	0.476
547	0.473
547	0.47
547	0.468
548	0.466
548	0.463
549	0.461
549	0.458
550	0.456
550	0.453
551	0.45
551	0.448
551	0.445
552	0.442
552	0.44
553	0.438
553	0.435
554	0.433
554	0.429
555	0.426
555	0.423
556	0.42
556	0.417
556	0.415
557	0.412
557	0.409
558	0.406
558	0.403
559	0.4
559	0.397
560	0.395
560	0.392
560	0.39
561	0.388
561	0.385
562	0.383
562	0.381
563	0.378
563	0.376
564	0.374
564	0.372
564	0.37
565	0.368
565	0.366
566	0.364
566	0.362
567	0.36
567	0.359
568	0.357
568	0.354
568	0.352
569	0.349
569	0.347
570	0.344
570	0.341
571	0.34
571	0.337
572	0.335
572	0.332
573	0.33
573	0.327
573	0.325
574	0.323
574	0.322
575	0.32
575	0.32
576	0.319
576	0.316
577	0.313
577	0.312
577	0.311
578	0.31
578	0.31
579	0.309
579	0.308
580	0.305
580	0.302
581	0.299
581	0.298
581	0.297
582	0.297
582	0.296
583	0.295
583	0.293
584	0.29
584	0.287
585	0.287
585	0.287
585	0.287
586	0.286
586	0.284
587	0.282
587	0.28
588	0.278
588	0.276
589	0.275
589	0.274
590	0.272
590	0.27
590	0.27
591	0.269
591	0.267
592	0.266
592	0.264
593	0.263
593	0.262
594	0.26
594	0.259
594	0.258
595	0.257
595	0.254
596	0.253
596	0.253
597	0.254
597	0.253
598	0.251
598	0.251
598	0.25
599	0.249
599	0.248
600	0.247
600	0.247
601	0.247
601	0.246
602	0.245
602	0.244
602	0.243
603	0.243
603	0.243
604	0.242
604	0.242
605	0.241
605	0.241
606	0.239
606	0.237
606	0.236
607	0.235
607	0.234
608	0.233
608	0.231
609	0.23
609	0.23
610	0.228
610	0.226
610	0.226
611	0.225
611	0.225
612	0.224
612	0.224
613	0.223
613	0.222
614	0.221
614	0.219
614	0.218
615	0.216
615	0.214
616	0.214
616	0.212
617	0.212
617	0.21
618	0.209
618	0.208
618	0.207
619	0.206
619	0.206
620	0.206
620	0.205
621	0.204
621	0.203
622	0.201
622	0.199
622	0.197
623	0.196
623	0.195
624	0.194
624	0.193
625	0.191
625	0.19
626	0.189
626	0.188
626	0.188
627	0.187
627	0.186
628	0.186
628	0.185
629	0.183
629	0.182
630	0.18
630	0.178
630	0.177
631	0.176
631	0.174
632	0.172
632	0.169
633	0.167
633	0.165
634	0.163
634	0.161
634	0.159
635	0.157
635	0.154
636	0.151
636	0.149
637	0.146
637	0.143
638	0.14
638	0.137
638	0.134
639	0.13
639	0.125
640	0.121
640	0.117
641	0.113
641	0.109
642	0.105
642	0.101
642	0.096
643	0.091
643	0.086
644	0.081
644	0.076
645	0.071
645	0.065
646	0.06
646	0.054
646	0.048
647	0.041
647	0.034
648	0.027
648	0.02
649	0.012
649	0.006
650	-0.002
650	-0.009
650	-0.016
651	-0.026
651	-0.038
652	-0.051
652	-0.064
653	-0.076
653	-0.086
653	-0.081
654	-0.062
654	-0.056
655	-0.062
655	-0.066
656	-0.071
656	-0.077
657	-0.082
657	-0.086
657	-0.092
658	-0.099
658	-0.13
659	-0.214
659	-0.301
660	-0.34
660	-0.366
661	-0.392
661	-0.42
661	-0.451
662	-0.478
662	-0.507
663	-0.54
663	-0.577
664	-0.611
664	-0.649
665	-0.691
665	-0.737
665	-0.778
666	-0.827
666	-0.878
667	-0.93
667	-0.991
668	-1.047
668	-1.113
669	-1.179
669	-1.25
669	-1.326
670	-1.404
670	-1.509
671	-1.667
671	-2.007
672	-2.277
672	-2.45
672	-2.576
673	-2.676
673	-2.759
674	-2.827
674	-2.845
675	-2.861
675	-2.866
676	-2.865
676	-2.824
676	-2.756
677	-2.674
677	-2.575
678	-2.43
678	-2.196
679	-1.784
679	-1.595
680	-1.488
680	-1.41
680	-1.343
681	-1.295
681	-1.242
682	-1.2
682	-1.158
683	-1.116
683	-1.092
684	-1.064
684	-1.046
684	-1.024
685	-1.004
685	-0.996
686	-0.974
686	-0.962
687	-0.953
687	-0.942
687	-0.942
688	-0.926
688	-0.919
689	-0.922
689	-0.919
690	-0.906
690	-0.895
691	-0.893
691	-0.897
691	-0.898
692	-0.899
692	-0.896
693	-0.903
693	-0.915
694	-0.895
694	-0.895
695	-0.897
695	-0.891
695	-0.899
696	-0.904
696	-0.894
697	-0.888
697	-0.884
698	-0.879
698	-0.869
698	-0.882
699	-0.878
699	-0.881
700	-0.901
700	-0.896
701	-0.882
701	-0.879
702	-0.879
702	-0.878
702	-0.878
703	-0.872
703	-0.86
704	-0.868
704	-0.871
705	-0.858
705	-0.855
705	-0.849
706	-0.842
706	-0.84
707	-0.852
707	-0.854
708	-0.852
708	-0.85
709	-0.852
709	-0.848
709	-0.844
710	-0.852
710	-0.856
711	-0.856
711	-0.855
712	-0.846
712	-0.842
713	-0.848
713	-0.849
713	-0.828
714	-0.831
714	-0.835
715	-0.829
715	-0.837
716	-0.853
716	-0.862
716	-0.863
717	-0.87
717	-0.86
718	-0.854
718	-0.855
719	-0.85
719	-0.844
720	-0.838
720	-0.835
720	-0.827
721	-0.818
721	-0.821
722	-0.82
722	-0.816
723	-0.834
723	-0.845
723	-0.855
724	-0.851
724	-0.857
725	-0.851
725	-0.855
726	-0.859
726	-0.851
727	-0.852
727	-0.858
727	-0.849
728	-0.836
728	-0.831
729	-0.835
729	-0.837
730	-0.841
730	-0.833
730	-0.838
731	-0.841
731	-0.842
732	-0.844
732	-0.838
733	-0.853
733	-0.86
734	-0.867
734	-0.857
734	-0.841
735	-0.832
735	-0.827
736	-0.826
736	-0.821
737	-0.821
737	-0.812
737	-0.805
738	-0.792
738	-0.782
739	-0.785
739	-0.786
740	-0.8
740	-0.8
741	-0.809
741	-0.819
741	-0.828
742	-0.833
742	-0.849
743	-0.854
743	-0.857
744	-0.86
744	-0.866
744	-0.86
745	-0.869
745	-0.859
746	-0.853
746	-0.843
747	-0.847
747	-0.837
748	-0.84
748	-0.844
748	-0.846
749	-0.84
749	-0.847
750	-0.838
750	-0.838
751	-0.837
751	-0.835
751	-0.848
752	-0.851
752	-0.853
753	-0.855
753	-0.847
754	-0.866
754	-0.865
754	-0.873
755	-0.874
755	-0.867
756	-0.87
756	-0.853
757	-0.846
757	-0.836
758	-0.836
758	-0.835
758	-0.831
759	-0.837
759	-0.836
760	-0.834
760	-0.836
761	-0.829
761	-0.835
761	-0.835
762	-0.841
762	-0.841
763	-0.84
763	-0.845
764	-0.844
764	-0.84
764	-0.846
765	-0.845
765	-0.851
766	-0.853
766	-0.853
767	-0.869
767	-0.864
768	-0.866
768	-0.857
768	-0.852
769	-0.855
769	-0.863
770	-0.874
770	-0.88
771	-0.877
771	-0.878
771	-0.882
772	-0.887
772	-0.905
773	-0.906
773	-0.906
774	-0.905
774	-0.887
775	-0.872
775	-0.873
775	-0.875
776	-0.885
776	-0.88
777	-0.879
777	-0.863
778	-0.872
778	-0.881
778	-0.879
779	-0.888
779	-0.905
780	-0.9
780	-0.91
781	-0.899
781	-0.891
781	-0.907
782	-0.927
782	-0.928
783	-0.926
783	-0.935
784	-0.939
784	-0.933
784	-0.951
785	-0.943
785	-0.955
786	-0.958
786	-0.948
787	-0.937
787	-0.946
788	-0.94
788	-0.933
788	-0.935
789	-0.936
789	-0.927
790	-0.926
790	-0.912
791	-0.92
791	-0.917
791	-0.911
792	-0.904
792	-0.908
793	-0.911
793	-0.897
794	-0.89
794	-0.884
794	-0.891
795	-0.912
795	-0.898
796	-0.904
796	-0.902
797	-0.896
797	-0.885
797	-0.878
798	-0.898
798	-0.901
799	-0.899
799	-0.885
800	-0.879
800	-0.886
801	-0.883
801	-0.886
801	-0.883
802	-0.883
802	-0.882
803	-0.876
803	-0.87
804	-0.876
804	-0.884
804	-0.868
805	-0.847
805	-0.838
806	-0.839
806	-0.834
807	-0.835
807	-0.834
807	-0.818
808	-0.814
808	-0.808
809	-0.803
809	-0.804
810	-0.808
810	-0.806
810	-0.802
811	-0.808
811	-0.798
812	-0.792
812	-0.794
813	-0.797
813	-0.797
813	-0.791
814	-0.792
814	-0.797
815	-0.788
815	-0.785
816	-0.781
816	-0.799
817	-0.812
817	-0.817
817	-0.827
818	-0.819
818	-0.818
819	-0.827
819	-0.827
820	-0.836
820	-0.835
820	-0.833
821	-0.828
821	-0.822
822	-0.819
822	-0.807
823	-0.82
823	-0.818
823	-0.812
824	-0.81
824	-0.819
825	-0.817
825	-0.814
826	-0.809
826	-0.807
826	-0.806
827	-0.807
827	-0.795
828	-0.796
828	-0.79
829	-0.784
829	-0.77
829	-0.767
830	-0.764
830	-0.749
831	-0.742
831	-0.731
832	-0.72
832	-0.715
832	-0.708
833	-0.707
833	-0.711
834	-0.706
834	-0.7
835	-0.695
835	-0.696
835	-0.692
836	-0.688
836	-0.684
837	-0.675
837	-0.667
838	-0.656
838	-0.639
839	-0.634
839	-0.621
839	-0.611
840	-0.608
840	-0.598
841	-0.586
841	-0.581
842	-0.571
842	-0.558
842	-0.553
843	-0.55
843	-0.545
844	-0.543
844	-0.533
845	-0.518
845	-0.508
845	-0.498
846	-0.486
846	-0.475
847	-0.465
847	-0.453
848	-0.437
848	-0.421
848	-0.407
849	-0.394
849	-0.383
850	-0.374
850	-0.363
851	-0.348
851	-0.332
851	-0.323
852	-0.307
852	-0.294
853	-0.284
853	-0.274
854	-0.261
854	-0.251
854	-0.238
855	-0.227
855	-0.22
856	-0.212
856	-0.202
857	-0.194
857	-0.186
857	-0.171
858	-0.16
858	-0.153
859	-0.141
859	-0.129
860	-0.117
860	-0.102
860	-0.092
861	-0.082
861	-0.072
862	-0.065
862	-0.058
863	-0.049
863	-0.04
863	-0.034
864	-0.028
864	-0.021
865	-0.015
865	-0.008
866	-0.002
866	0.004
866	0.01
867	0.017
867	0.022
868	0.027
868	0.032
869	0.037
869	0.04
869	0.043
870	0.045
870	0.046
871	0.048
871	0.05
872	0.051
872	0.052
872	0.052
873	0.053
873	0.052
874	0.052
874	0.052
875	0.051
875	0.051
875	0.051
876	0.051
876	0.051
877	0.05
877	0.049
878	0.049
878	0.049
878	0.048
879	0.048
879	0.048
880	0.047
880	0.046
881	0.045
881	0.044
881	0.043
882	0.041
882	0.04
883	0.039
883	0.037
884	0.036
884	0.036
884	0.035
885	0.035
885	0.034
886	0.034
886	0.034
887	0.033
887	0.032
887	0.032
888	0.032
888	0.031
889	0.031
889	0.03
890	0.029
890	0.029
890	0.028
891	0.028
891	0.028
892	0.029
892	0.029
893	0.029
893	0.028
893	0.028
894	0.029
894	0.028
895	0.028
895	0.028
895	0.028
896	0.028
896	0.027
897	0.028
897	0.028
898	0.028
898	0.028
898	0.029
899	0.029
899	0.029
900	0.029
900	0.029
901	0.028
901	0.028
901	0.027
902	0.027
902	0.027
903	0.027
903	0.026
904	0.026
904	0.026
904	0.026
905	0.027
905	0.028
906	0.029
906	0.029
907	0.03
907	0.03
907	0.031
908	0.031
908	0.031
909	0.032
909	0.032
910	0.032
910	0.033
910	0.033
911	0.033
911	0.034
912	0.034
912	0.035
913	0.036
913	0.036
913	0.037
914	0.037
914	0.037
915	0.038
915	0.038
916	0.038
916	0.038
916	0.038
917	0.037
917	0.037
918	0.037
918	0.037
918	0.037
919	0.037
919	0.037
920	0.037
920	0.038
921	0.038
921	0.039
921	0.04
922	0.04
922	0.041
923	0.041
923	0.041
924	0.041
924	0.041
924	0.04
925	0.039
925	0.038
926	0.036
926	0.035
927	0.034
927	0.033
927	0.032
928	0.031
928	0.031
929	0.031
929	0.032
930	0.032
930	0.033
930	0.034
931	0.035
931	0.035
932	0.037
932	0.038
933	0.039
933	0.039
933	0.039
934	0.039
934	0.038
935	0.038
935	0.037
935	0.036
936	0.034
936	0.033
937	0.032
937	0.031
938	0.03
938	0.029
938	0.028
939	0.028
939	0.028
940	0.027
940	0.026
941	0.026
941	0.025
941	0.025
942	0.024
942	0.024
943	0.024
943	0.023
944	0.022
944	0.021
944	0.02
945	0.02
945	0.02
946	0.019
946	0.018
946	0.018
947	0.018
947	0.018
948	0.018
948	0.019
949	0.02
949	0.022
949	0.024
950	0.025
950	0.027
951	0.029
951	0.029
952	0.03
952	0.032
952	0.033
953	0.033
953	0.033
954	0.033
954	0.033
955	0.033
955	0.032
955	0.031
956	0.031
956	0.03
957	0.029
957	0.028
957	0.028
958	0.027
958	0.027
959	0.026
959	0.026
960	0.025
960	0.025
960	0.025
961	0.025
961	0.026
962	0.026
962	0.026
963	0.026
963	0.026
963	0.027
964	0.027
964	0.027
965	0.027
965	0.028
966	0.028
966	0.028
966	0.028
967	0.028
967	0.028
968	0.028
968	0.028
968	0.028
969	0.028
969	0.028
970	0.027
970	0.027
971	0.027
971	0.027
971	0.027
972	0.027
972	0.028
973	0.028
973	0.028
974	0.028
974	0.028
974	0.028
975	0.028
975	0.028
976	0.028
976	0.028
976	0.028
977	0.027
977	0.027
978	0.027
978	0.026
979	0.026
979	0.025
979	0.025
980	0.025
980	0.025
981	0.025
981	0.025
982	0.025
982	0.025
982	0.025
983	0.025
983	0.025
984	0.025
984	0.024
984	0.024
985	0.023
985	0.023
986	0.022
986	0.021
987	0.02
987	0.02
987	0.019
988	0.018
988	0.018
989	0.017
989	0.016
990	0.015
990	0.014
990	0.014
991	0.013
991	0.012
992	0.012
992	0.011
992	0.01
993	0.009
993	0.008
994	0.007
994	0.006
995	0.004
995	0.003
995	0.001
996	-0
996	-0.002
997	-0.003
997	-0.004
997	-0.005
998	-0.005
998	-0.005
999	-0.005
999	-0.005
1000	-0.004
1000	-0.004
1000	-0.003
1001	-0.002
1001	-0.001
1002	-0
1002	0
1003	0
1003	0
1003	0
1004	0
1004	-0
1005	-0
1005	-0.001
1005	-0.002
1006	-0.003
1006	-0.003
1007	-0.004
1007	-0.005
1008	-0.006
1008	-0.007
1008	-0.007
1009	-0.007
1009	-0.007
1010	-0.006
1010	-0.006
1010	-0.005
1011	-0.004
1011	-0.003
1012	-0.002
1012	-0.001
1013	0.001
1013	0.001
1013	0.002
1014	0.003
1014	0.004
1015	0.004
1015	0.005
1016	0.005
1016	0.005
1016	0.005
1017	0.005
1017	0.004
1018	0.004
1018	0.004
1018	0.004
1019	0.004
1019	0.003
1020	0.003
1020	0.002
1021	0.002
1021	0.002
1021	0.002
1022	0.001
1022	0.001
1023	0.001
1023	0.001
1023	0.001
1024	0.001
1024	0.001
1025	0.002
1025	0.002
1026	0.002
1026	0.003
1026	0.003
1027	0.003
1027	0.004
1028	0.004
1028	0.005
1028	0.005
1029	0.005
1029	0.006
1030	0.005
1030	0.005
1031	0.005
1031	0.005
1031	0.005
1032	0.005
1032	0.005
1033	0.004
1033	0.004
1033	0.004
1034	0.004
1034	0.003
1035	0.003
1035	0.003
1036	0.002
1036	0.002
1036	0.002
1037	0.002
1037	0.002
1038	0.002
1038	0.002
1039	0.002
1039	0.003
1039	0.003
1040	0.003
1040	0.004
1041	0.004
1041	0.004
1041	0.003
1042	0.002
1042	0.001
1043	0.001
1043	-0
1044	-0.001
1044	-0.002
1044	-0.003
1045	-0.004
1045	-0.004
1046	-0.005
1046	-0.005
1046	-0.005
1047	-0.006
1047	-0.006
1048	-0.005
1048	-0.005
1049	-0.005
1049	-0.005
1049	-0.005
1050	-0.006
1050	-0.006
1051	-0.007
1051	-0.008
1051	-0.008
1052	-0.009
1052	-0.01
1053	-0.011
1053	-0.011
1053	-0.012
1054	-0.013
1054	-0.013
1055	-0.013
1055	-0.013
1056	-0.013
1056	-0.013
1056	-0.013
1057	-0.014
1057	-0.014
1058	-0.014
1058	-0.014
1058	-0.014
1059	-0.015
1059	-0.015
1060	-0.016
1060	-0.016
1061	-0.017
1061	-0.017
1061	-0.017
1062	-0.017
1062	-0.017
1063	-0.017
1063	-0.018
1063	-0.018
1064	-0.017
1064	-0.017
1065	-0.016
1065	-0.017
1066	-0.017
1066	-0.017
1066	-0.017
1067	-0.018
1067	-0.018
1068	-0.019
1068	-0.019
1068	-0.02
1069	-0.021
1069	-0.022
1070	-0.022
1070	-0.023
1071	-0.023
1071	-0.024
1071	-0.024
1072	-0.025
1072	-0.024
1073	-0.025
1073	-0.025
1073	-0.026
1074	-0.026
1074	-0.026
1075	-0.027
1075	-0.027
1076	-0.028
1076	-0.029
1076	-0.03
1077	-0.031
1077	-0.032
1078	-0.033
1078	-0.033
1078	-0.034
1079	-0.035
1079	-0.035
1080	-0.036
1080	-0.036
1080	-0.038
1081	-0.039
1081	-0.039
1082	-0.04
1082	-0.041
1083	-0.043
1083	-0.044
1083	-0.045
1084	-0.047
1084	-0.048
1085	-0.049
1085	-0.05
1085	-0.051
1086	-0.052
1086	-0.053
1087	-0.054
1087	-0.054
1088	-0.055
1088	-0.056
1088	-0.057
1089	-0.058
1089	-0.059
1090	-0.059
1090	-0.06
1090	-0.062
1091	-0.063
1091	-0.062
1092	-0.063
1092	-0.063
1092	-0.063
1093	-0.064
1093	-0.064
1094	-0.064
1094	-0.065
1095	-0.066
1095	-0.066
1095	-0.067
1096	-0.068
1096	-0.069
1097	-0.071
1097	-0.073
1097	-0.074
1098	-0.077
1098	-0.08
1099	-0.081
1099	-0.083
1100	-0.086
1100	-0.088
1100	-0.092
1101	-0.096
1101	-0.099
1102	-0.101
1102	-0.104
1102	-0.106
1103	-0.108
1103	-0.112
1104	-0.115
1104	-0.118
1104	-0.12
1105	-0.122
1105	-0.125
1106	-0.13
1106	-0.132
1107	-0.137
1107	-0.141
1107	-0.146
1108	-0.147
1108	-0.149
1109	-0.152
1109	-0.156
1109	-0.159
1110	-0.161
1110	-0.163
1111	-0.173
1111	-0.169
