Data from 3.4A_17C_Absorbance__717__02629.txt Node

Date: Tue Jun 20 16:50:33 CEST 2023
User: Marek
Spectrometer: MAYP115816
Trigger mode: 0
Integration Time (sec): 2.200000E-1
Scans to average: 10
Electric dark correction enabled: true
Nonlinearity correction enabled: true
Boxcar width: 5
XAxis mode: Wavelengths
Number of Pixels in Spectrum: 2068
>>>>>Begin Spectral Data<<<<<
199	-0.814
199	-0.799
200	-0.762
200	-0.706
201	-0.677
201	-0.67
202	-0.65
202	-0.642
203	-0.641
203	-0.633
204	-0.613
204	-0.598
205	-0.574
205	-0.564
205	-0.572
206	-0.573
206	-0.567
207	-0.56
207	-0.567
208	-0.568
208	-0.574
209	-0.576
209	-0.581
210	-0.593
210	-0.601
211	-0.595
211	-0.6
212	-0.61
212	-0.62
213	-0.617
213	-0.612
213	-0.61
214	-0.616
214	-0.618
215	-0.615
215	-0.621
216	-0.629
216	-0.635
217	-0.631
217	-0.631
218	-0.637
218	-0.638
219	-0.645
219	-0.646
220	-0.65
220	-0.658
221	-0.658
221	-0.658
221	-0.65
222	-0.65
222	-0.648
223	-0.645
223	-0.648
224	-0.647
224	-0.646
225	-0.644
225	-0.642
226	-0.642
226	-0.641
227	-0.649
227	-0.659
228	-0.663
228	-0.67
229	-0.674
229	-0.672
229	-0.671
230	-0.666
230	-0.666
231	-0.662
231	-0.657
232	-0.659
232	-0.653
233	-0.651
233	-0.639
234	-0.64
234	-0.636
235	-0.641
235	-0.654
236	-0.66
236	-0.662
236	-0.662
237	-0.662
237	-0.663
238	-0.665
238	-0.668
239	-0.669
239	-0.678
240	-0.671
240	-0.668
241	-0.663
241	-0.665
242	-0.668
242	-0.676
243	-0.678
243	-0.679
243	-0.683
244	-0.679
244	-0.681
245	-0.682
245	-0.685
246	-0.696
246	-0.699
247	-0.707
247	-0.694
248	-0.692
248	-0.695
249	-0.701
249	-0.706
250	-0.703
250	-0.713
250	-0.711
251	-0.711
251	-0.708
252	-0.709
252	-0.722
253	-0.717
253	-0.729
254	-0.735
254	-0.735
255	-0.746
255	-0.745
256	-0.746
256	-0.757
257	-0.766
257	-0.762
258	-0.763
258	-0.77
258	-0.769
259	-0.762
259	-0.779
260	-0.779
260	-0.769
261	-0.781
261	-0.767
262	-0.773
262	-0.772
263	-0.763
263	-0.77
264	-0.778
264	-0.778
265	-0.769
265	-0.772
265	-0.781
266	-0.772
266	-0.772
267	-0.771
267	-0.787
268	-0.796
268	-0.79
269	-0.783
269	-0.799
270	-0.803
270	-0.802
271	-0.816
271	-0.826
272	-0.829
272	-0.832
272	-0.826
273	-0.833
273	-0.848
274	-0.84
274	-0.834
275	-0.831
275	-0.818
276	-0.821
276	-0.826
277	-0.826
277	-0.822
278	-0.828
278	-0.827
278	-0.813
279	-0.821
279	-0.834
280	-0.836
280	-0.848
281	-0.841
281	-0.833
282	-0.841
282	-0.837
283	-0.829
283	-0.845
284	-0.862
284	-0.872
285	-0.851
285	-0.858
285	-0.85
286	-0.854
286	-0.871
287	-0.867
287	-0.865
288	-0.864
288	-0.846
289	-0.841
289	-0.849
290	-0.858
290	-0.849
291	-0.852
291	-0.851
292	-0.831
292	-0.829
292	-0.834
293	-0.822
293	-0.817
294	-0.818
294	-0.803
295	-0.785
295	-0.797
296	-0.809
296	-0.803
297	-0.793
297	-0.797
298	-0.793
298	-0.81
298	-0.813
299	-0.796
299	-0.79
300	-0.787
300	-0.768
301	-0.749
301	-0.752
302	-0.761
302	-0.747
303	-0.738
303	-0.728
304	-0.712
304	-0.714
305	-0.707
305	-0.716
305	-0.73
306	-0.715
306	-0.713
307	-0.706
307	-0.717
308	-0.721
308	-0.716
309	-0.72
309	-0.717
310	-0.714
310	-0.709
311	-0.695
311	-0.711
311	-0.699
312	-0.696
312	-0.685
313	-0.675
313	-0.677
314	-0.679
314	-0.676
315	-0.674
315	-0.667
316	-0.663
316	-0.654
317	-0.647
317	-0.644
318	-0.636
318	-0.635
318	-0.623
319	-0.611
319	-0.605
320	-0.603
320	-0.602
321	-0.597
321	-0.596
322	-0.589
322	-0.579
323	-0.579
323	-0.569
324	-0.567
324	-0.558
324	-0.546
325	-0.531
325	-0.514
326	-0.505
326	-0.481
327	-0.467
327	-0.449
328	-0.42
328	-0.398
329	-0.37
329	-0.341
330	-0.314
330	-0.278
330	-0.243
331	-0.206
331	-0.173
332	-0.139
332	-0.105
333	-0.077
333	-0.042
334	-0.015
334	0.01
335	0.036
335	0.057
336	0.079
336	0.099
336	0.115
337	0.132
337	0.148
338	0.162
338	0.172
339	0.185
339	0.196
340	0.204
340	0.212
341	0.219
341	0.225
342	0.232
342	0.237
342	0.242
343	0.246
343	0.251
344	0.254
344	0.256
345	0.26
345	0.262
346	0.264
346	0.265
347	0.267
347	0.268
348	0.269
348	0.271
348	0.272
349	0.272
349	0.273
350	0.273
350	0.274
351	0.275
351	0.275
352	0.275
352	0.275
353	0.276
353	0.276
354	0.276
354	0.276
354	0.276
355	0.276
355	0.276
356	0.276
356	0.276
357	0.277
357	0.277
358	0.277
358	0.277
359	0.277
359	0.277
360	0.277
360	0.277
360	0.278
361	0.278
361	0.277
362	0.277
362	0.277
363	0.277
363	0.277
364	0.277
364	0.277
365	0.277
365	0.277
366	0.277
366	0.277
366	0.277
367	0.277
367	0.277
368	0.276
368	0.276
369	0.276
369	0.276
370	0.276
370	0.276
371	0.275
371	0.275
372	0.275
372	0.275
372	0.275
373	0.275
373	0.274
374	0.274
374	0.274
375	0.274
375	0.274
376	0.273
376	0.273
377	0.273
377	0.273
378	0.273
378	0.272
378	0.273
379	0.272
379	0.272
380	0.272
380	0.272
381	0.272
381	0.272
382	0.272
382	0.272
383	0.272
383	0.272
383	0.271
384	0.271
384	0.271
385	0.271
385	0.27
386	0.27
386	0.27
387	0.27
387	0.27
388	0.27
388	0.27
389	0.27
389	0.27
389	0.27
390	0.27
390	0.269
391	0.269
391	0.269
392	0.269
392	0.268
393	0.268
393	0.268
394	0.268
394	0.268
394	0.267
395	0.267
395	0.267
396	0.267
396	0.267
397	0.266
397	0.266
398	0.266
398	0.265
399	0.265
399	0.265
400	0.265
400	0.265
400	0.265
401	0.264
401	0.264
402	0.264
402	0.264
403	0.264
403	0.264
404	0.263
404	0.263
405	0.263
405	0.262
405	0.262
406	0.262
406	0.262
407	0.262
407	0.262
408	0.262
408	0.261
409	0.261
409	0.261
410	0.261
410	0.261
411	0.261
411	0.261
411	0.261
412	0.26
412	0.26
413	0.26
413	0.26
414	0.26
414	0.259
415	0.259
415	0.259
416	0.258
416	0.258
416	0.258
417	0.258
417	0.257
418	0.257
418	0.257
419	0.257
419	0.257
420	0.257
420	0.257
421	0.257
421	0.257
421	0.257
422	0.258
422	0.258
423	0.257
423	0.257
424	0.257
424	0.257
425	0.257
425	0.257
426	0.257
426	0.257
427	0.257
427	0.257
427	0.257
428	0.257
428	0.257
429	0.256
429	0.256
430	0.256
430	0.255
431	0.255
431	0.255
432	0.254
432	0.254
432	0.253
433	0.253
433	0.253
434	0.253
434	0.254
435	0.254
435	0.254
436	0.254
436	0.254
437	0.254
437	0.254
437	0.254
438	0.254
438	0.254
439	0.254
439	0.254
440	0.253
440	0.253
441	0.253
441	0.253
442	0.253
442	0.253
442	0.253
443	0.253
443	0.252
444	0.252
444	0.252
445	0.252
445	0.252
446	0.252
446	0.252
447	0.252
447	0.252
447	0.252
448	0.253
448	0.253
449	0.253
449	0.253
450	0.253
450	0.253
451	0.253
451	0.253
452	0.253
452	0.253
452	0.253
453	0.253
453	0.253
454	0.252
454	0.252
455	0.253
455	0.253
456	0.253
456	0.252
457	0.252
457	0.252
458	0.252
458	0.252
458	0.252
459	0.252
459	0.251
460	0.251
460	0.251
461	0.251
461	0.251
462	0.252
462	0.252
463	0.253
463	0.254
463	0.254
464	0.254
464	0.255
465	0.255
465	0.256
466	0.256
466	0.256
467	0.256
467	0.256
467	0.256
468	0.256
468	0.256
469	0.256
469	0.256
470	0.257
470	0.257
471	0.257
471	0.257
472	0.257
472	0.257
472	0.258
473	0.258
473	0.259
474	0.259
474	0.26
475	0.26
475	0.261
476	0.262
476	0.262
477	0.263
477	0.264
477	0.264
478	0.264
478	0.264
479	0.265
479	0.265
480	0.265
480	0.266
481	0.266
481	0.267
482	0.268
482	0.268
482	0.269
483	0.271
483	0.272
484	0.273
484	0.273
485	0.274
485	0.275
486	0.276
486	0.277
487	0.278
487	0.278
487	0.279
488	0.279
488	0.279
489	0.28
489	0.282
490	0.283
490	0.284
491	0.285
491	0.286
492	0.288
492	0.288
492	0.289
493	0.29
493	0.292
494	0.294
494	0.295
495	0.296
495	0.297
496	0.299
496	0.3
496	0.302
497	0.303
497	0.305
498	0.306
498	0.308
499	0.309
499	0.31
500	0.312
500	0.314
501	0.316
501	0.317
501	0.319
502	0.32
502	0.322
503	0.324
503	0.325
504	0.327
504	0.329
505	0.331
505	0.333
506	0.335
506	0.337
506	0.339
507	0.342
507	0.344
508	0.346
508	0.349
509	0.351
509	0.353
510	0.355
510	0.357
511	0.358
511	0.36
511	0.362
512	0.363
512	0.365
513	0.366
513	0.367
514	0.369
514	0.37
515	0.371
515	0.372
515	0.374
516	0.375
516	0.377
517	0.379
517	0.38
518	0.381
518	0.382
519	0.383
519	0.384
520	0.385
520	0.387
520	0.388
521	0.389
521	0.39
522	0.391
522	0.392
523	0.393
523	0.394
524	0.395
524	0.396
524	0.397
525	0.398
525	0.398
526	0.399
526	0.4
527	0.401
527	0.401
528	0.401
528	0.401
529	0.401
529	0.401
529	0.401
530	0.401
530	0.401
531	0.401
531	0.401
532	0.4
532	0.4
533	0.4
533	0.4
533	0.4
534	0.399
534	0.398
535	0.398
535	0.398
536	0.398
536	0.397
537	0.397
537	0.396
538	0.395
538	0.394
538	0.394
539	0.393
539	0.392
540	0.391
540	0.389
541	0.388
541	0.387
542	0.386
542	0.384
542	0.383
543	0.381
543	0.38
544	0.378
544	0.377
545	0.376
545	0.375
546	0.373
546	0.372
547	0.37
547	0.368
547	0.366
548	0.365
548	0.364
549	0.362
549	0.361
550	0.359
550	0.357
551	0.355
551	0.354
551	0.352
552	0.351
552	0.35
553	0.348
553	0.347
554	0.345
554	0.343
555	0.341
555	0.339
556	0.337
556	0.335
556	0.333
557	0.332
557	0.33
558	0.328
558	0.327
559	0.325
559	0.323
560	0.322
560	0.32
560	0.319
561	0.318
561	0.317
562	0.316
562	0.314
563	0.313
563	0.311
564	0.31
564	0.309
564	0.309
565	0.308
565	0.307
566	0.306
566	0.305
567	0.304
567	0.303
568	0.302
568	0.301
568	0.299
569	0.298
569	0.297
570	0.295
570	0.293
571	0.292
571	0.29
572	0.289
572	0.287
573	0.285
573	0.284
573	0.282
574	0.281
574	0.28
575	0.28
575	0.281
576	0.28
576	0.278
577	0.277
577	0.276
577	0.276
578	0.276
578	0.276
579	0.277
579	0.276
580	0.274
580	0.271
581	0.269
581	0.268
581	0.268
582	0.268
582	0.268
583	0.269
583	0.267
584	0.265
584	0.263
585	0.264
585	0.265
585	0.265
586	0.265
586	0.264
587	0.262
587	0.261
588	0.259
588	0.259
589	0.259
589	0.258
590	0.257
590	0.256
590	0.257
591	0.257
591	0.256
592	0.255
592	0.254
593	0.254
593	0.253
594	0.252
594	0.251
594	0.251
595	0.25
595	0.249
596	0.248
596	0.249
597	0.25
597	0.25
598	0.249
598	0.25
598	0.25
599	0.25
599	0.249
600	0.248
600	0.248
601	0.249
601	0.248
602	0.248
602	0.248
602	0.247
603	0.247
603	0.248
604	0.248
604	0.248
605	0.248
605	0.248
606	0.247
606	0.246
606	0.245
607	0.245
607	0.244
608	0.244
608	0.242
609	0.242
609	0.242
610	0.241
610	0.24
610	0.24
611	0.24
611	0.24
612	0.24
612	0.24
613	0.24
613	0.24
614	0.239
614	0.237
614	0.237
615	0.235
615	0.234
616	0.234
616	0.233
617	0.233
617	0.232
618	0.232
618	0.231
618	0.231
619	0.231
619	0.231
620	0.231
620	0.23
621	0.229
621	0.228
622	0.226
622	0.225
622	0.223
623	0.221
623	0.221
624	0.221
624	0.22
625	0.219
625	0.218
626	0.217
626	0.217
626	0.217
627	0.217
627	0.216
628	0.216
628	0.215
629	0.214
629	0.213
630	0.211
630	0.21
630	0.209
631	0.208
631	0.207
632	0.205
632	0.203
633	0.201
633	0.199
634	0.198
634	0.196
634	0.194
635	0.192
635	0.19
636	0.187
636	0.185
637	0.182
637	0.179
638	0.177
638	0.174
638	0.171
639	0.167
639	0.163
640	0.16
640	0.156
641	0.152
641	0.149
642	0.145
642	0.141
642	0.137
643	0.132
643	0.127
644	0.122
644	0.118
645	0.113
645	0.107
646	0.102
646	0.096
646	0.089
647	0.083
647	0.076
648	0.068
648	0.06
649	0.053
649	0.045
650	0.039
650	0.031
650	0.023
651	0.012
651	-0
652	-0.014
652	-0.029
653	-0.042
653	-0.053
653	-0.05
654	-0.031
654	-0.026
655	-0.031
655	-0.037
656	-0.044
656	-0.051
657	-0.057
657	-0.062
657	-0.07
658	-0.078
658	-0.111
659	-0.201
659	-0.296
660	-0.338
660	-0.367
661	-0.395
661	-0.426
661	-0.458
662	-0.488
662	-0.519
663	-0.554
663	-0.593
664	-0.632
664	-0.673
665	-0.72
665	-0.767
665	-0.813
666	-0.865
666	-0.921
667	-0.976
667	-1.039
668	-1.099
668	-1.167
669	-1.235
669	-1.307
669	-1.385
670	-1.464
670	-1.568
671	-1.715
671	-2.035
672	-2.293
672	-2.461
672	-2.584
673	-2.682
673	-2.763
674	-2.841
674	-2.866
675	-2.884
675	-2.889
676	-2.889
676	-2.85
676	-2.787
677	-2.712
677	-2.625
678	-2.499
678	-2.311
679	-1.956
679	-1.712
680	-1.59
680	-1.506
680	-1.431
681	-1.375
681	-1.318
682	-1.27
682	-1.224
683	-1.179
683	-1.151
684	-1.121
684	-1.099
684	-1.074
685	-1.052
685	-1.04
686	-1.017
686	-1.002
687	-0.992
687	-0.98
687	-0.978
688	-0.962
688	-0.952
689	-0.954
689	-0.95
690	-0.934
690	-0.923
691	-0.919
691	-0.922
691	-0.922
692	-0.921
692	-0.917
693	-0.922
693	-0.933
694	-0.915
694	-0.914
695	-0.916
695	-0.908
695	-0.915
696	-0.921
696	-0.913
697	-0.906
697	-0.901
698	-0.896
698	-0.889
698	-0.901
699	-0.899
699	-0.901
700	-0.921
700	-0.915
701	-0.9
701	-0.894
702	-0.893
702	-0.892
702	-0.891
703	-0.883
703	-0.871
704	-0.878
704	-0.881
705	-0.87
705	-0.869
705	-0.864
706	-0.857
706	-0.856
707	-0.867
707	-0.871
708	-0.867
708	-0.865
709	-0.867
709	-0.864
709	-0.861
710	-0.867
710	-0.871
711	-0.87
711	-0.87
712	-0.861
712	-0.859
713	-0.864
713	-0.864
713	-0.844
714	-0.845
714	-0.85
715	-0.842
715	-0.85
716	-0.865
716	-0.875
716	-0.875
717	-0.881
717	-0.874
718	-0.868
718	-0.868
719	-0.862
719	-0.853
720	-0.848
720	-0.843
720	-0.838
721	-0.827
721	-0.831
722	-0.829
722	-0.825
723	-0.843
723	-0.856
723	-0.864
724	-0.864
724	-0.869
725	-0.863
725	-0.866
726	-0.869
726	-0.86
727	-0.862
727	-0.868
727	-0.858
728	-0.846
728	-0.842
729	-0.844
729	-0.847
730	-0.852
730	-0.843
730	-0.848
731	-0.85
731	-0.85
732	-0.852
732	-0.846
733	-0.86
733	-0.868
734	-0.876
734	-0.868
734	-0.85
735	-0.84
735	-0.838
736	-0.836
736	-0.831
737	-0.831
737	-0.821
737	-0.815
738	-0.8
738	-0.786
739	-0.789
739	-0.792
740	-0.805
740	-0.806
741	-0.817
741	-0.827
741	-0.836
742	-0.844
742	-0.859
743	-0.866
743	-0.868
744	-0.872
744	-0.878
744	-0.872
745	-0.877
745	-0.867
746	-0.864
746	-0.854
747	-0.856
747	-0.846
748	-0.847
748	-0.853
748	-0.853
749	-0.846
749	-0.853
750	-0.844
750	-0.844
751	-0.841
751	-0.838
751	-0.848
752	-0.853
752	-0.856
753	-0.857
753	-0.85
754	-0.868
754	-0.868
754	-0.877
755	-0.877
755	-0.869
756	-0.872
756	-0.858
757	-0.85
757	-0.838
758	-0.839
758	-0.839
758	-0.837
759	-0.841
759	-0.839
760	-0.838
760	-0.842
761	-0.836
761	-0.841
761	-0.841
762	-0.846
762	-0.846
763	-0.846
763	-0.85
764	-0.849
764	-0.845
764	-0.851
765	-0.85
765	-0.857
766	-0.861
766	-0.863
767	-0.88
767	-0.874
768	-0.873
768	-0.865
768	-0.86
769	-0.864
769	-0.872
770	-0.881
770	-0.885
771	-0.879
771	-0.878
771	-0.883
772	-0.888
772	-0.909
773	-0.91
773	-0.91
774	-0.908
774	-0.891
775	-0.879
775	-0.878
775	-0.882
776	-0.893
776	-0.889
777	-0.887
777	-0.871
778	-0.879
778	-0.887
778	-0.887
779	-0.896
779	-0.912
780	-0.909
780	-0.919
781	-0.909
781	-0.899
781	-0.914
782	-0.935
782	-0.935
783	-0.935
783	-0.944
784	-0.944
784	-0.936
784	-0.956
785	-0.949
785	-0.961
786	-0.966
786	-0.958
787	-0.947
787	-0.954
788	-0.947
788	-0.94
788	-0.943
789	-0.943
789	-0.931
790	-0.93
790	-0.914
791	-0.92
791	-0.916
791	-0.909
792	-0.905
792	-0.909
793	-0.912
793	-0.899
794	-0.892
794	-0.886
794	-0.893
795	-0.914
795	-0.901
796	-0.907
796	-0.904
797	-0.897
797	-0.888
797	-0.882
798	-0.903
798	-0.908
799	-0.906
799	-0.892
800	-0.887
800	-0.894
801	-0.892
801	-0.895
801	-0.892
802	-0.891
802	-0.888
803	-0.883
803	-0.876
804	-0.883
804	-0.891
804	-0.873
805	-0.854
805	-0.845
806	-0.846
806	-0.84
807	-0.841
807	-0.841
807	-0.823
808	-0.819
808	-0.812
809	-0.806
809	-0.808
810	-0.811
810	-0.809
810	-0.805
811	-0.809
811	-0.801
812	-0.795
812	-0.796
813	-0.799
813	-0.799
813	-0.794
814	-0.793
814	-0.799
815	-0.788
815	-0.784
816	-0.782
816	-0.797
817	-0.81
817	-0.815
817	-0.825
818	-0.819
818	-0.815
819	-0.824
819	-0.822
820	-0.834
820	-0.835
820	-0.833
821	-0.829
821	-0.825
822	-0.825
822	-0.813
823	-0.823
823	-0.824
823	-0.821
824	-0.819
824	-0.83
825	-0.828
825	-0.825
826	-0.821
826	-0.817
826	-0.815
827	-0.814
827	-0.804
828	-0.802
828	-0.794
829	-0.786
829	-0.77
829	-0.768
830	-0.767
830	-0.752
831	-0.745
831	-0.735
832	-0.726
832	-0.721
832	-0.714
833	-0.714
833	-0.72
834	-0.714
834	-0.709
835	-0.7
835	-0.698
835	-0.692
836	-0.688
836	-0.685
837	-0.675
837	-0.667
838	-0.654
838	-0.639
839	-0.633
839	-0.619
839	-0.609
840	-0.607
840	-0.598
841	-0.586
841	-0.577
842	-0.567
842	-0.554
842	-0.55
843	-0.545
843	-0.54
844	-0.538
844	-0.528
845	-0.513
845	-0.502
845	-0.491
846	-0.479
846	-0.468
847	-0.458
847	-0.445
848	-0.429
848	-0.411
848	-0.396
849	-0.382
849	-0.371
850	-0.36
850	-0.351
851	-0.337
851	-0.32
851	-0.31
852	-0.292
852	-0.279
853	-0.269
853	-0.258
854	-0.247
854	-0.233
854	-0.22
855	-0.207
855	-0.2
856	-0.191
856	-0.181
857	-0.173
857	-0.163
857	-0.148
858	-0.134
858	-0.127
859	-0.115
859	-0.103
860	-0.091
860	-0.075
860	-0.064
861	-0.053
861	-0.043
862	-0.034
862	-0.026
863	-0.017
863	-0.006
863	0.001
864	0.008
864	0.017
865	0.025
865	0.032
866	0.038
866	0.045
866	0.052
867	0.058
867	0.064
868	0.069
868	0.075
869	0.08
869	0.084
869	0.087
870	0.09
870	0.092
871	0.094
871	0.096
872	0.097
872	0.098
872	0.098
873	0.098
873	0.098
874	0.097
874	0.096
875	0.096
875	0.095
875	0.095
876	0.094
876	0.094
877	0.093
877	0.092
878	0.091
878	0.091
878	0.091
879	0.09
879	0.09
880	0.09
880	0.09
881	0.089
881	0.088
881	0.087
882	0.086
882	0.084
883	0.083
883	0.081
884	0.081
884	0.08
884	0.079
885	0.079
885	0.079
886	0.078
886	0.078
887	0.077
887	0.076
887	0.076
888	0.076
888	0.075
889	0.074
889	0.073
890	0.072
890	0.071
890	0.07
891	0.07
891	0.07
892	0.071
892	0.071
893	0.071
893	0.071
893	0.07
894	0.071
894	0.071
895	0.07
895	0.07
895	0.07
896	0.069
896	0.069
897	0.069
897	0.069
898	0.069
898	0.069
898	0.069
899	0.069
899	0.07
900	0.07
900	0.069
901	0.069
901	0.068
901	0.068
902	0.068
902	0.068
903	0.068
903	0.067
904	0.067
904	0.067
904	0.067
905	0.067
905	0.068
906	0.069
906	0.069
907	0.07
907	0.07
907	0.07
908	0.071
908	0.071
909	0.072
909	0.072
910	0.073
910	0.073
910	0.074
911	0.074
911	0.075
912	0.075
912	0.076
913	0.076
913	0.076
913	0.077
914	0.077
914	0.077
915	0.077
915	0.077
916	0.077
916	0.077
916	0.077
917	0.077
917	0.078
918	0.077
918	0.077
918	0.077
919	0.077
919	0.077
920	0.077
920	0.078
921	0.079
921	0.079
921	0.08
922	0.08
922	0.08
923	0.081
923	0.081
924	0.081
924	0.08
924	0.079
925	0.078
925	0.077
926	0.076
926	0.075
927	0.073
927	0.073
927	0.072
928	0.071
928	0.071
929	0.072
929	0.072
930	0.073
930	0.074
930	0.074
931	0.075
931	0.076
932	0.078
932	0.079
933	0.08
933	0.08
933	0.08
934	0.079
934	0.079
935	0.078
935	0.077
935	0.076
936	0.074
936	0.073
937	0.071
937	0.071
938	0.07
938	0.069
938	0.069
939	0.068
939	0.067
940	0.066
940	0.066
941	0.065
941	0.064
941	0.064
942	0.063
942	0.062
943	0.061
943	0.06
944	0.06
944	0.058
944	0.058
945	0.057
945	0.057
946	0.056
946	0.055
946	0.055
947	0.055
947	0.055
948	0.055
948	0.056
949	0.057
949	0.058
949	0.06
950	0.061
950	0.063
951	0.064
951	0.066
952	0.066
952	0.068
952	0.068
953	0.069
953	0.069
954	0.069
954	0.069
955	0.069
955	0.068
955	0.068
956	0.067
956	0.067
957	0.065
957	0.064
957	0.063
958	0.062
958	0.062
959	0.061
959	0.06
960	0.06
960	0.06
960	0.06
961	0.059
961	0.06
962	0.06
962	0.06
963	0.06
963	0.06
963	0.06
964	0.06
964	0.061
965	0.061
965	0.061
966	0.061
966	0.061
966	0.062
967	0.062
967	0.062
968	0.061
968	0.061
968	0.061
969	0.061
969	0.061
970	0.061
970	0.06
971	0.06
971	0.06
971	0.06
972	0.06
972	0.06
973	0.06
973	0.06
974	0.06
974	0.06
974	0.06
975	0.061
975	0.061
976	0.06
976	0.061
976	0.06
977	0.06
977	0.06
978	0.059
978	0.059
979	0.059
979	0.058
979	0.058
980	0.058
980	0.058
981	0.058
981	0.058
982	0.059
982	0.059
982	0.059
983	0.059
983	0.059
984	0.058
984	0.058
984	0.058
985	0.057
985	0.057
986	0.056
986	0.055
987	0.054
987	0.053
987	0.053
988	0.052
988	0.051
989	0.05
989	0.049
990	0.049
990	0.047
990	0.047
991	0.045
991	0.045
992	0.044
992	0.043
992	0.042
993	0.041
993	0.04
994	0.039
994	0.037
995	0.036
995	0.035
995	0.033
996	0.032
996	0.03
997	0.029
997	0.028
997	0.027
998	0.027
998	0.027
999	0.027
999	0.027
1000	0.028
1000	0.028
1000	0.029
1001	0.03
1001	0.031
1002	0.031
1002	0.032
1003	0.032
1003	0.033
1003	0.033
1004	0.033
1004	0.033
1005	0.033
1005	0.032
1005	0.032
1006	0.031
1006	0.03
1007	0.03
1007	0.029
1008	0.029
1008	0.028
1008	0.028
1009	0.028
1009	0.028
1010	0.028
1010	0.029
1010	0.029
1011	0.03
1011	0.03
1012	0.031
1012	0.033
1013	0.034
1013	0.034
1013	0.035
1014	0.035
1014	0.036
1015	0.036
1015	0.037
1016	0.037
1016	0.036
1016	0.036
1017	0.035
1017	0.035
1018	0.035
1018	0.034
1018	0.034
1019	0.034
1019	0.034
1020	0.033
1020	0.033
1021	0.033
1021	0.032
1021	0.032
1022	0.032
1022	0.032
1023	0.033
1023	0.033
1023	0.033
1024	0.033
1024	0.034
1025	0.034
1025	0.034
1026	0.034
1026	0.035
1026	0.035
1027	0.035
1027	0.035
1028	0.035
1028	0.036
1028	0.036
1029	0.036
1029	0.036
1030	0.036
1030	0.035
1031	0.035
1031	0.036
1031	0.035
1032	0.035
1032	0.035
1033	0.034
1033	0.034
1033	0.033
1034	0.032
1034	0.032
1035	0.032
1035	0.031
1036	0.03
1036	0.03
1036	0.03
1037	0.03
1037	0.03
1038	0.03
1038	0.03
1039	0.03
1039	0.031
1039	0.031
1040	0.032
1040	0.032
1041	0.032
1041	0.032
1041	0.031
1042	0.03
1042	0.03
1043	0.029
1043	0.029
1044	0.028
1044	0.027
1044	0.026
1045	0.025
1045	0.024
1046	0.023
1046	0.023
1046	0.023
1047	0.022
1047	0.022
1048	0.022
1048	0.023
1049	0.023
1049	0.022
1049	0.023
1050	0.022
1050	0.022
1051	0.021
1051	0.02
1051	0.02
1052	0.019
1052	0.019
1053	0.018
1053	0.018
1053	0.017
1054	0.017
1054	0.016
1055	0.017
1055	0.017
1056	0.017
1056	0.017
1056	0.016
1057	0.016
1057	0.016
1058	0.015
1058	0.015
1058	0.015
1059	0.014
1059	0.013
1060	0.013
1060	0.012
1061	0.011
1061	0.011
1061	0.011
1062	0.01
1062	0.01
1063	0.01
1063	0.01
1063	0.01
1064	0.01
1064	0.01
1065	0.01
1065	0.011
1066	0.01
1066	0.01
1066	0.01
1067	0.009
1067	0.009
1068	0.008
1068	0.008
1068	0.007
1069	0.006
1069	0.005
1070	0.004
1070	0.004
1071	0.003
1071	0.003
1071	0.002
1072	0.002
1072	0.002
1073	0.002
1073	0.002
1073	0.001
1074	0.001
1074	0.001
1075	-0
1075	-0.001
1076	-0.002
1076	-0.002
1076	-0.003
1077	-0.004
1077	-0.005
1078	-0.005
1078	-0.006
1078	-0.007
1079	-0.007
1079	-0.008
1080	-0.009
1080	-0.009
1080	-0.011
1081	-0.012
1081	-0.013
1082	-0.014
1082	-0.015
1083	-0.016
1083	-0.017
1083	-0.018
1084	-0.02
1084	-0.021
1085	-0.022
1085	-0.023
1085	-0.024
1086	-0.025
1086	-0.027
1087	-0.028
1087	-0.028
1088	-0.03
1088	-0.031
1088	-0.032
1089	-0.033
1089	-0.033
1090	-0.034
1090	-0.035
1090	-0.037
1091	-0.038
1091	-0.038
1092	-0.039
1092	-0.039
1092	-0.04
1093	-0.041
1093	-0.041
1094	-0.042
1094	-0.042
1095	-0.044
1095	-0.044
1095	-0.045
1096	-0.046
1096	-0.048
1097	-0.049
1097	-0.051
1097	-0.053
1098	-0.055
1098	-0.058
1099	-0.059
1099	-0.061
1100	-0.063
1100	-0.066
1100	-0.07
1101	-0.073
1101	-0.075
1102	-0.078
1102	-0.081
1102	-0.083
1103	-0.086
1103	-0.09
1104	-0.094
1104	-0.097
1104	-0.099
1105	-0.1
1105	-0.104
1106	-0.109
1106	-0.111
1107	-0.117
1107	-0.122
1107	-0.128
1108	-0.129
1108	-0.13
1109	-0.134
1109	-0.138
1109	-0.145
1110	-0.148
1110	-0.151
1111	-0.164
1111	-0.158
