Data from 3.4A_17C_Absorbance__689__02601.txt Node

Date: Tue Jun 20 16:49:31 CEST 2023
User: Marek
Spectrometer: MAYP115816
Trigger mode: 0
Integration Time (sec): 2.200000E-1
Scans to average: 10
Electric dark correction enabled: true
Nonlinearity correction enabled: true
Boxcar width: 5
XAxis mode: Wavelengths
Number of Pixels in Spectrum: 2068
>>>>>Begin Spectral Data<<<<<
199	-0.807
199	-0.784
200	-0.75
200	-0.694
201	-0.664
201	-0.656
202	-0.642
202	-0.635
203	-0.634
203	-0.628
204	-0.606
204	-0.59
205	-0.568
205	-0.557
205	-0.567
206	-0.568
206	-0.563
207	-0.553
207	-0.558
208	-0.561
208	-0.563
209	-0.564
209	-0.57
210	-0.582
210	-0.59
211	-0.584
211	-0.589
212	-0.599
212	-0.606
213	-0.604
213	-0.599
213	-0.598
214	-0.607
214	-0.609
215	-0.607
215	-0.611
216	-0.62
216	-0.626
217	-0.624
217	-0.626
218	-0.634
218	-0.635
219	-0.641
219	-0.643
220	-0.646
220	-0.652
221	-0.651
221	-0.652
221	-0.644
222	-0.643
222	-0.641
223	-0.638
223	-0.639
224	-0.64
224	-0.637
225	-0.633
225	-0.636
226	-0.637
226	-0.637
227	-0.644
227	-0.655
228	-0.658
228	-0.665
229	-0.671
229	-0.669
229	-0.67
230	-0.667
230	-0.665
231	-0.661
231	-0.656
232	-0.659
232	-0.652
233	-0.652
233	-0.642
234	-0.641
234	-0.635
235	-0.64
235	-0.649
236	-0.654
236	-0.656
236	-0.657
237	-0.655
237	-0.657
238	-0.658
238	-0.659
239	-0.662
239	-0.673
240	-0.666
240	-0.664
241	-0.659
241	-0.663
242	-0.667
242	-0.675
243	-0.675
243	-0.676
243	-0.68
244	-0.676
244	-0.675
245	-0.679
245	-0.681
246	-0.691
246	-0.694
247	-0.701
247	-0.687
248	-0.687
248	-0.691
249	-0.698
249	-0.699
250	-0.699
250	-0.708
250	-0.707
251	-0.708
251	-0.704
252	-0.706
252	-0.718
253	-0.714
253	-0.724
254	-0.729
254	-0.731
255	-0.742
255	-0.741
256	-0.743
256	-0.756
257	-0.766
257	-0.761
258	-0.764
258	-0.772
258	-0.769
259	-0.762
259	-0.778
260	-0.778
260	-0.767
261	-0.778
261	-0.764
262	-0.768
262	-0.766
263	-0.755
263	-0.761
264	-0.77
264	-0.772
265	-0.764
265	-0.767
265	-0.776
266	-0.767
266	-0.766
267	-0.767
267	-0.785
268	-0.794
268	-0.787
269	-0.781
269	-0.794
270	-0.796
270	-0.795
271	-0.809
271	-0.821
272	-0.822
272	-0.824
272	-0.817
273	-0.827
273	-0.843
274	-0.834
274	-0.83
275	-0.828
275	-0.816
276	-0.817
276	-0.821
277	-0.825
277	-0.823
278	-0.829
278	-0.828
278	-0.815
279	-0.823
279	-0.836
280	-0.838
280	-0.848
281	-0.842
281	-0.834
282	-0.839
282	-0.833
283	-0.825
283	-0.84
284	-0.855
284	-0.865
285	-0.845
285	-0.851
285	-0.843
286	-0.849
286	-0.866
287	-0.862
287	-0.86
288	-0.86
288	-0.842
289	-0.84
289	-0.848
290	-0.858
290	-0.847
291	-0.85
291	-0.848
292	-0.827
292	-0.825
292	-0.83
293	-0.817
293	-0.812
294	-0.813
294	-0.8
295	-0.783
295	-0.793
296	-0.807
296	-0.801
297	-0.79
297	-0.794
298	-0.791
298	-0.809
298	-0.813
299	-0.794
299	-0.785
300	-0.781
300	-0.764
301	-0.744
301	-0.747
302	-0.757
302	-0.741
303	-0.733
303	-0.721
304	-0.704
304	-0.707
305	-0.701
305	-0.709
305	-0.723
306	-0.709
306	-0.707
307	-0.698
307	-0.709
308	-0.711
308	-0.706
309	-0.709
309	-0.704
310	-0.701
310	-0.696
311	-0.683
311	-0.701
311	-0.69
312	-0.688
312	-0.677
313	-0.668
313	-0.669
314	-0.674
314	-0.672
315	-0.669
315	-0.663
316	-0.657
316	-0.646
317	-0.638
317	-0.634
318	-0.627
318	-0.626
318	-0.615
319	-0.604
319	-0.597
320	-0.595
320	-0.593
321	-0.588
321	-0.587
322	-0.582
322	-0.575
323	-0.575
323	-0.566
324	-0.563
324	-0.552
324	-0.541
325	-0.526
325	-0.507
326	-0.499
326	-0.474
327	-0.459
327	-0.437
328	-0.407
328	-0.383
329	-0.355
329	-0.327
330	-0.301
330	-0.266
330	-0.231
331	-0.197
331	-0.165
332	-0.131
332	-0.098
333	-0.069
333	-0.036
334	-0.008
334	0.018
335	0.045
335	0.067
336	0.088
336	0.11
336	0.127
337	0.144
337	0.16
338	0.174
338	0.184
339	0.197
339	0.207
340	0.215
340	0.224
341	0.23
341	0.236
342	0.243
342	0.248
342	0.253
343	0.257
343	0.262
344	0.265
344	0.268
345	0.271
345	0.273
346	0.275
346	0.277
347	0.278
347	0.279
348	0.281
348	0.282
348	0.283
349	0.283
349	0.284
350	0.285
350	0.285
351	0.286
351	0.287
352	0.287
352	0.287
353	0.287
353	0.287
354	0.287
354	0.287
354	0.287
355	0.287
355	0.287
356	0.288
356	0.288
357	0.287
357	0.288
358	0.287
358	0.288
359	0.287
359	0.287
360	0.288
360	0.288
360	0.288
361	0.288
361	0.288
362	0.288
362	0.287
363	0.288
363	0.288
364	0.288
364	0.288
365	0.288
365	0.288
366	0.288
366	0.288
366	0.288
367	0.288
367	0.288
368	0.288
368	0.288
369	0.287
369	0.287
370	0.287
370	0.287
371	0.287
371	0.286
372	0.286
372	0.286
372	0.286
373	0.286
373	0.285
374	0.285
374	0.285
375	0.285
375	0.285
376	0.285
376	0.285
377	0.285
377	0.284
378	0.284
378	0.283
378	0.283
379	0.283
379	0.283
380	0.283
380	0.283
381	0.283
381	0.282
382	0.282
382	0.282
383	0.282
383	0.282
383	0.282
384	0.282
384	0.282
385	0.281
385	0.281
386	0.281
386	0.281
387	0.28
387	0.28
388	0.28
388	0.28
389	0.28
389	0.279
389	0.279
390	0.279
390	0.279
391	0.279
391	0.279
392	0.279
392	0.279
393	0.278
393	0.278
394	0.278
394	0.278
394	0.278
395	0.277
395	0.277
396	0.277
396	0.276
397	0.276
397	0.276
398	0.275
398	0.275
399	0.275
399	0.275
400	0.274
400	0.274
400	0.274
401	0.274
401	0.274
402	0.273
402	0.274
403	0.274
403	0.273
404	0.273
404	0.273
405	0.273
405	0.272
405	0.272
406	0.272
406	0.272
407	0.272
407	0.271
408	0.271
408	0.271
409	0.271
409	0.271
410	0.271
410	0.271
411	0.271
411	0.27
411	0.27
412	0.27
412	0.269
413	0.269
413	0.269
414	0.269
414	0.268
415	0.268
415	0.268
416	0.267
416	0.267
416	0.267
417	0.267
417	0.267
418	0.267
418	0.267
419	0.267
419	0.267
420	0.266
420	0.266
421	0.266
421	0.266
421	0.266
422	0.266
422	0.267
423	0.266
423	0.266
424	0.266
424	0.265
425	0.265
425	0.265
426	0.266
426	0.265
427	0.266
427	0.266
427	0.266
428	0.266
428	0.265
429	0.265
429	0.265
430	0.264
430	0.264
431	0.264
431	0.263
432	0.263
432	0.263
432	0.262
433	0.262
433	0.262
434	0.262
434	0.263
435	0.263
435	0.263
436	0.263
436	0.263
437	0.263
437	0.263
437	0.263
438	0.262
438	0.262
439	0.262
439	0.262
440	0.262
440	0.262
441	0.262
441	0.262
442	0.262
442	0.262
442	0.262
443	0.262
443	0.262
444	0.262
444	0.262
445	0.262
445	0.262
446	0.261
446	0.261
447	0.261
447	0.262
447	0.262
448	0.262
448	0.262
449	0.262
449	0.262
450	0.262
450	0.262
451	0.262
451	0.262
452	0.262
452	0.262
452	0.262
453	0.262
453	0.262
454	0.262
454	0.262
455	0.262
455	0.262
456	0.262
456	0.262
457	0.262
457	0.261
458	0.261
458	0.261
458	0.262
459	0.262
459	0.261
460	0.261
460	0.261
461	0.261
461	0.261
462	0.262
462	0.262
463	0.263
463	0.264
463	0.264
464	0.264
464	0.265
465	0.265
465	0.266
466	0.266
466	0.266
467	0.266
467	0.266
467	0.266
468	0.266
468	0.266
469	0.266
469	0.267
470	0.267
470	0.267
471	0.267
471	0.267
472	0.268
472	0.268
472	0.268
473	0.269
473	0.269
474	0.27
474	0.27
475	0.271
475	0.272
476	0.272
476	0.273
477	0.274
477	0.274
477	0.275
478	0.275
478	0.276
479	0.276
479	0.277
480	0.277
480	0.277
481	0.278
481	0.278
482	0.279
482	0.28
482	0.281
483	0.283
483	0.285
484	0.285
484	0.286
485	0.287
485	0.288
486	0.288
486	0.289
487	0.29
487	0.291
487	0.292
488	0.292
488	0.292
489	0.294
489	0.295
490	0.297
490	0.298
491	0.299
491	0.301
492	0.302
492	0.303
492	0.304
493	0.305
493	0.306
494	0.308
494	0.31
495	0.311
495	0.312
496	0.314
496	0.315
496	0.317
497	0.319
497	0.32
498	0.322
498	0.324
499	0.325
499	0.327
500	0.329
500	0.331
501	0.333
501	0.334
501	0.336
502	0.337
502	0.339
503	0.341
503	0.343
504	0.345
504	0.347
505	0.349
505	0.351
506	0.354
506	0.356
506	0.359
507	0.361
507	0.364
508	0.366
508	0.368
509	0.371
509	0.373
510	0.375
510	0.377
511	0.378
511	0.38
511	0.382
512	0.384
512	0.385
513	0.386
513	0.388
514	0.39
514	0.392
515	0.393
515	0.395
515	0.396
516	0.398
516	0.4
517	0.401
517	0.403
518	0.405
518	0.406
519	0.407
519	0.408
520	0.409
520	0.411
520	0.412
521	0.413
521	0.414
522	0.414
522	0.416
523	0.417
523	0.418
524	0.419
524	0.42
524	0.421
525	0.422
525	0.422
526	0.423
526	0.424
527	0.425
527	0.425
528	0.425
528	0.425
529	0.425
529	0.425
529	0.425
530	0.425
530	0.425
531	0.425
531	0.425
532	0.424
532	0.424
533	0.424
533	0.424
533	0.423
534	0.423
534	0.422
535	0.422
535	0.421
536	0.421
536	0.42
537	0.419
537	0.419
538	0.417
538	0.416
538	0.415
539	0.415
539	0.414
540	0.412
540	0.41
541	0.409
541	0.407
542	0.406
542	0.404
542	0.402
543	0.401
543	0.399
544	0.397
544	0.396
545	0.394
545	0.393
546	0.391
546	0.389
547	0.387
547	0.385
547	0.383
548	0.382
548	0.38
549	0.378
549	0.377
550	0.375
550	0.373
551	0.371
551	0.369
551	0.367
552	0.365
552	0.364
553	0.362
553	0.36
554	0.358
554	0.355
555	0.353
555	0.351
556	0.349
556	0.347
556	0.344
557	0.343
557	0.341
558	0.339
558	0.337
559	0.336
559	0.334
560	0.332
560	0.33
560	0.329
561	0.328
561	0.326
562	0.325
562	0.323
563	0.321
563	0.32
564	0.318
564	0.317
564	0.316
565	0.315
565	0.314
566	0.312
566	0.311
567	0.31
567	0.309
568	0.308
568	0.306
568	0.305
569	0.303
569	0.302
570	0.299
570	0.297
571	0.296
571	0.295
572	0.293
572	0.291
573	0.289
573	0.287
573	0.285
574	0.284
574	0.283
575	0.282
575	0.283
576	0.282
576	0.28
577	0.279
577	0.278
577	0.278
578	0.277
578	0.277
579	0.278
579	0.277
580	0.275
580	0.272
581	0.27
581	0.269
581	0.269
582	0.269
582	0.269
583	0.269
583	0.267
584	0.265
584	0.263
585	0.263
585	0.264
585	0.264
586	0.264
586	0.263
587	0.261
587	0.259
588	0.258
588	0.257
589	0.256
589	0.256
590	0.255
590	0.254
590	0.254
591	0.254
591	0.253
592	0.252
592	0.251
593	0.25
593	0.25
594	0.249
594	0.248
594	0.247
595	0.247
595	0.245
596	0.244
596	0.245
597	0.246
597	0.246
598	0.245
598	0.245
598	0.245
599	0.245
599	0.244
600	0.244
600	0.244
601	0.244
601	0.244
602	0.243
602	0.243
602	0.242
603	0.242
603	0.243
604	0.242
604	0.242
605	0.243
605	0.243
606	0.242
606	0.24
606	0.24
607	0.239
607	0.239
608	0.238
608	0.236
609	0.236
609	0.235
610	0.234
610	0.233
610	0.233
611	0.233
611	0.233
612	0.233
612	0.233
613	0.233
613	0.233
614	0.231
614	0.23
614	0.23
615	0.228
615	0.227
616	0.227
616	0.226
617	0.226
617	0.226
618	0.225
618	0.225
618	0.225
619	0.224
619	0.225
620	0.225
620	0.224
621	0.223
621	0.222
622	0.22
622	0.219
622	0.217
623	0.216
623	0.216
624	0.216
624	0.215
625	0.214
625	0.214
626	0.214
626	0.213
626	0.214
627	0.214
627	0.214
628	0.214
628	0.214
629	0.214
629	0.213
630	0.212
630	0.212
630	0.212
631	0.212
631	0.212
632	0.211
632	0.211
633	0.211
633	0.211
634	0.211
634	0.21
634	0.21
635	0.21
635	0.209
636	0.209
636	0.208
637	0.207
637	0.207
638	0.206
638	0.206
638	0.205
639	0.205
639	0.204
640	0.204
640	0.203
641	0.202
641	0.202
642	0.201
642	0.201
642	0.2
643	0.199
643	0.198
644	0.197
644	0.196
645	0.195
645	0.194
646	0.192
646	0.19
646	0.187
647	0.184
647	0.18
648	0.176
648	0.172
649	0.168
649	0.164
650	0.159
650	0.154
650	0.149
651	0.142
651	0.134
652	0.125
652	0.115
653	0.107
653	0.098
653	0.1
654	0.105
654	0.099
655	0.091
655	0.083
656	0.077
656	0.069
657	0.063
657	0.057
657	0.049
658	0.042
658	0.016
659	-0.049
659	-0.108
660	-0.139
660	-0.159
661	-0.182
661	-0.206
661	-0.229
662	-0.247
662	-0.264
663	-0.282
663	-0.302
664	-0.316
664	-0.336
665	-0.353
665	-0.369
665	-0.38
666	-0.392
666	-0.405
667	-0.415
667	-0.429
668	-0.44
668	-0.462
669	-0.477
669	-0.488
669	-0.503
670	-0.508
670	-0.518
671	-0.526
671	-0.543
672	-0.562
672	-0.581
672	-0.595
673	-0.6
673	-0.607
674	-0.622
674	-0.625
675	-0.643
675	-0.653
676	-0.662
676	-0.661
676	-0.669
677	-0.669
677	-0.686
678	-0.693
678	-0.695
679	-0.699
679	-0.705
680	-0.711
680	-0.716
680	-0.718
681	-0.732
681	-0.728
682	-0.735
682	-0.725
683	-0.716
683	-0.727
684	-0.729
684	-0.735
684	-0.735
685	-0.738
685	-0.748
686	-0.741
686	-0.744
687	-0.746
687	-0.75
687	-0.763
688	-0.756
688	-0.759
689	-0.771
689	-0.775
690	-0.768
690	-0.765
691	-0.767
691	-0.776
691	-0.782
692	-0.786
692	-0.787
693	-0.8
693	-0.815
694	-0.798
694	-0.797
695	-0.805
695	-0.802
695	-0.815
696	-0.825
696	-0.82
697	-0.818
697	-0.817
698	-0.813
698	-0.808
698	-0.826
699	-0.829
699	-0.832
700	-0.852
700	-0.847
701	-0.834
701	-0.831
702	-0.83
702	-0.83
702	-0.832
703	-0.822
703	-0.813
704	-0.821
704	-0.823
705	-0.812
705	-0.814
705	-0.809
706	-0.802
706	-0.8
707	-0.81
707	-0.816
708	-0.815
708	-0.812
709	-0.815
709	-0.814
709	-0.813
710	-0.818
710	-0.822
711	-0.822
711	-0.824
712	-0.818
712	-0.815
713	-0.82
713	-0.821
713	-0.8
714	-0.8
714	-0.803
715	-0.797
715	-0.806
716	-0.823
716	-0.833
716	-0.833
717	-0.838
717	-0.83
718	-0.824
718	-0.826
719	-0.824
719	-0.818
720	-0.813
720	-0.809
720	-0.805
721	-0.796
721	-0.799
722	-0.798
722	-0.795
723	-0.815
723	-0.828
723	-0.836
724	-0.834
724	-0.841
725	-0.835
725	-0.837
726	-0.842
726	-0.834
727	-0.837
727	-0.845
727	-0.835
728	-0.822
728	-0.818
729	-0.821
729	-0.822
730	-0.827
730	-0.817
730	-0.823
731	-0.826
731	-0.826
732	-0.828
732	-0.823
733	-0.838
733	-0.845
734	-0.854
734	-0.845
734	-0.827
735	-0.82
735	-0.816
736	-0.815
736	-0.809
737	-0.809
737	-0.799
737	-0.792
738	-0.777
738	-0.765
739	-0.768
739	-0.77
740	-0.784
740	-0.784
741	-0.794
741	-0.805
741	-0.815
742	-0.822
742	-0.836
743	-0.844
743	-0.846
744	-0.85
744	-0.857
744	-0.851
745	-0.858
745	-0.847
746	-0.843
746	-0.833
747	-0.835
747	-0.825
748	-0.826
748	-0.831
748	-0.833
749	-0.826
749	-0.832
750	-0.823
750	-0.825
751	-0.826
751	-0.823
751	-0.837
752	-0.842
752	-0.846
753	-0.848
753	-0.84
754	-0.859
754	-0.86
754	-0.869
755	-0.869
755	-0.861
756	-0.863
756	-0.847
757	-0.838
757	-0.827
758	-0.829
758	-0.829
758	-0.823
759	-0.828
759	-0.827
760	-0.825
760	-0.826
761	-0.82
761	-0.825
761	-0.826
762	-0.831
762	-0.83
763	-0.832
763	-0.836
764	-0.834
764	-0.828
764	-0.834
765	-0.834
765	-0.839
766	-0.843
766	-0.844
767	-0.858
767	-0.853
768	-0.851
768	-0.844
768	-0.841
769	-0.846
769	-0.854
770	-0.864
770	-0.87
771	-0.865
771	-0.863
771	-0.868
772	-0.87
772	-0.891
773	-0.892
773	-0.891
774	-0.89
774	-0.872
775	-0.857
775	-0.857
775	-0.861
776	-0.872
776	-0.87
777	-0.871
777	-0.853
778	-0.861
778	-0.869
778	-0.868
779	-0.877
779	-0.894
780	-0.889
780	-0.899
781	-0.889
781	-0.878
781	-0.892
782	-0.913
782	-0.914
783	-0.913
783	-0.92
784	-0.923
784	-0.917
784	-0.936
785	-0.928
785	-0.941
786	-0.948
786	-0.942
787	-0.932
787	-0.942
788	-0.935
788	-0.93
788	-0.931
789	-0.931
789	-0.922
790	-0.922
790	-0.907
791	-0.912
791	-0.906
791	-0.898
792	-0.892
792	-0.897
793	-0.9
793	-0.889
794	-0.884
794	-0.878
794	-0.886
795	-0.906
795	-0.893
796	-0.898
796	-0.896
797	-0.89
797	-0.88
797	-0.872
798	-0.893
798	-0.896
799	-0.894
799	-0.877
800	-0.872
800	-0.883
801	-0.881
801	-0.884
801	-0.882
802	-0.881
802	-0.88
803	-0.874
803	-0.867
804	-0.872
804	-0.882
804	-0.866
805	-0.846
805	-0.838
806	-0.84
806	-0.835
807	-0.836
807	-0.834
807	-0.817
808	-0.813
808	-0.806
809	-0.803
809	-0.804
810	-0.805
810	-0.802
810	-0.797
811	-0.8
811	-0.792
812	-0.786
812	-0.789
813	-0.794
813	-0.794
813	-0.787
814	-0.787
814	-0.794
815	-0.785
815	-0.781
816	-0.777
816	-0.794
817	-0.807
817	-0.81
817	-0.818
818	-0.812
818	-0.811
819	-0.821
819	-0.818
820	-0.83
820	-0.829
820	-0.828
821	-0.824
821	-0.819
822	-0.819
822	-0.808
823	-0.817
823	-0.816
823	-0.81
824	-0.809
824	-0.819
825	-0.817
825	-0.816
826	-0.812
826	-0.808
826	-0.806
827	-0.806
827	-0.798
828	-0.797
828	-0.79
829	-0.785
829	-0.77
829	-0.77
830	-0.766
830	-0.753
831	-0.745
831	-0.734
832	-0.724
832	-0.72
832	-0.713
833	-0.712
833	-0.716
834	-0.711
834	-0.703
835	-0.695
835	-0.692
835	-0.687
836	-0.683
836	-0.679
837	-0.668
837	-0.658
838	-0.647
838	-0.629
839	-0.624
839	-0.612
839	-0.602
840	-0.603
840	-0.592
841	-0.581
841	-0.575
842	-0.567
842	-0.553
842	-0.55
843	-0.547
843	-0.54
844	-0.538
844	-0.526
845	-0.509
845	-0.498
845	-0.488
846	-0.477
846	-0.465
847	-0.454
847	-0.44
848	-0.423
848	-0.406
848	-0.392
849	-0.38
849	-0.369
850	-0.36
850	-0.349
851	-0.335
851	-0.319
851	-0.308
852	-0.291
852	-0.278
853	-0.27
853	-0.259
854	-0.248
854	-0.236
854	-0.222
855	-0.209
855	-0.2
856	-0.191
856	-0.183
857	-0.176
857	-0.166
857	-0.151
858	-0.139
858	-0.13
859	-0.117
859	-0.105
860	-0.093
860	-0.078
860	-0.066
861	-0.054
861	-0.043
862	-0.035
862	-0.025
863	-0.016
863	-0.006
863	0
864	0.007
864	0.014
865	0.022
865	0.028
866	0.034
866	0.041
866	0.047
867	0.052
867	0.058
868	0.063
868	0.068
869	0.074
869	0.078
869	0.081
870	0.083
870	0.086
871	0.087
871	0.089
872	0.09
872	0.091
872	0.092
873	0.092
873	0.091
874	0.09
874	0.09
875	0.089
875	0.089
875	0.088
876	0.088
876	0.087
877	0.086
877	0.085
878	0.085
878	0.084
878	0.084
879	0.084
879	0.084
880	0.083
880	0.083
881	0.082
881	0.081
881	0.081
882	0.079
882	0.078
883	0.077
883	0.075
884	0.075
884	0.074
884	0.074
885	0.073
885	0.073
886	0.072
886	0.072
887	0.071
887	0.071
887	0.07
888	0.07
888	0.069
889	0.068
889	0.067
890	0.066
890	0.065
890	0.065
891	0.065
891	0.064
892	0.065
892	0.065
893	0.065
893	0.065
893	0.065
894	0.065
894	0.065
895	0.064
895	0.063
895	0.063
896	0.062
896	0.062
897	0.062
897	0.061
898	0.061
898	0.061
898	0.061
899	0.061
899	0.061
900	0.061
900	0.061
901	0.061
901	0.06
901	0.06
902	0.06
902	0.061
903	0.06
903	0.06
904	0.06
904	0.059
904	0.06
905	0.06
905	0.061
906	0.061
906	0.061
907	0.062
907	0.062
907	0.062
908	0.062
908	0.063
909	0.063
909	0.064
910	0.064
910	0.065
910	0.065
911	0.065
911	0.066
912	0.066
912	0.067
913	0.068
913	0.068
913	0.068
914	0.068
914	0.069
915	0.069
915	0.069
916	0.069
916	0.069
916	0.069
917	0.069
917	0.069
918	0.069
918	0.069
918	0.069
919	0.069
919	0.069
920	0.069
920	0.07
921	0.071
921	0.071
921	0.072
922	0.072
922	0.073
923	0.073
923	0.073
924	0.073
924	0.073
924	0.072
925	0.071
925	0.07
926	0.069
926	0.068
927	0.067
927	0.066
927	0.065
928	0.065
928	0.065
929	0.065
929	0.066
930	0.066
930	0.067
930	0.068
931	0.069
931	0.07
932	0.071
932	0.072
933	0.073
933	0.073
933	0.073
934	0.072
934	0.072
935	0.071
935	0.07
935	0.069
936	0.068
936	0.066
937	0.065
937	0.064
938	0.063
938	0.062
938	0.061
939	0.061
939	0.06
940	0.06
940	0.059
941	0.058
941	0.057
941	0.057
942	0.055
942	0.055
943	0.055
943	0.054
944	0.053
944	0.052
944	0.051
945	0.05
945	0.05
946	0.049
946	0.048
946	0.048
947	0.048
947	0.047
948	0.048
948	0.049
949	0.049
949	0.05
949	0.051
950	0.053
950	0.054
951	0.056
951	0.057
952	0.058
952	0.059
952	0.06
953	0.061
953	0.061
954	0.061
954	0.061
955	0.061
955	0.061
955	0.06
956	0.06
956	0.059
957	0.058
957	0.057
957	0.056
958	0.055
958	0.055
959	0.054
959	0.054
960	0.053
960	0.052
960	0.053
961	0.053
961	0.053
962	0.053
962	0.053
963	0.052
963	0.052
963	0.053
964	0.053
964	0.053
965	0.054
965	0.054
966	0.054
966	0.054
966	0.054
967	0.055
967	0.055
968	0.054
968	0.054
968	0.054
969	0.054
969	0.054
970	0.053
970	0.053
971	0.053
971	0.053
971	0.053
972	0.053
972	0.053
973	0.053
973	0.053
974	0.053
974	0.054
974	0.054
975	0.054
975	0.054
976	0.054
976	0.054
976	0.054
977	0.054
977	0.053
978	0.053
978	0.052
979	0.052
979	0.051
979	0.051
980	0.051
980	0.051
981	0.051
981	0.051
982	0.051
982	0.051
982	0.052
983	0.052
983	0.051
984	0.052
984	0.051
984	0.051
985	0.051
985	0.05
986	0.049
986	0.049
987	0.048
987	0.047
987	0.046
988	0.046
988	0.044
989	0.044
989	0.043
990	0.042
990	0.041
990	0.04
991	0.039
991	0.038
992	0.037
992	0.036
992	0.035
993	0.035
993	0.033
994	0.032
994	0.031
995	0.03
995	0.028
995	0.027
996	0.026
996	0.024
997	0.022
997	0.022
997	0.021
998	0.02
998	0.02
999	0.02
999	0.02
1000	0.021
1000	0.021
1000	0.022
1001	0.023
1001	0.023
1002	0.024
1002	0.025
1003	0.025
1003	0.025
1003	0.025
1004	0.025
1004	0.025
1005	0.025
1005	0.025
1005	0.025
1006	0.024
1006	0.024
1007	0.023
1007	0.022
1008	0.022
1008	0.021
1008	0.021
1009	0.021
1009	0.021
1010	0.021
1010	0.022
1010	0.022
1011	0.023
1011	0.023
1012	0.024
1012	0.025
1013	0.026
1013	0.027
1013	0.028
1014	0.028
1014	0.028
1015	0.029
1015	0.029
1016	0.029
1016	0.029
1016	0.028
1017	0.028
1017	0.027
1018	0.027
1018	0.027
1018	0.027
1019	0.027
1019	0.027
1020	0.026
1020	0.026
1021	0.026
1021	0.026
1021	0.025
1022	0.025
1022	0.025
1023	0.026
1023	0.026
1023	0.026
1024	0.026
1024	0.027
1025	0.027
1025	0.027
1026	0.028
1026	0.028
1026	0.028
1027	0.029
1027	0.029
1028	0.03
1028	0.03
1028	0.03
1029	0.03
1029	0.03
1030	0.03
1030	0.029
1031	0.029
1031	0.029
1031	0.029
1032	0.028
1032	0.028
1033	0.027
1033	0.027
1033	0.027
1034	0.026
1034	0.026
1035	0.026
1035	0.025
1036	0.024
1036	0.024
1036	0.024
1037	0.024
1037	0.024
1038	0.023
1038	0.024
1039	0.024
1039	0.024
1039	0.025
1040	0.025
1040	0.026
1041	0.025
1041	0.025
1041	0.025
1042	0.024
1042	0.024
1043	0.023
1043	0.022
1044	0.022
1044	0.02
1044	0.019
1045	0.018
1045	0.017
1046	0.017
1046	0.016
1046	0.016
1047	0.016
1047	0.016
1048	0.016
1048	0.016
1049	0.016
1049	0.016
1049	0.016
1050	0.016
1050	0.015
1051	0.015
1051	0.014
1051	0.014
1052	0.013
1052	0.012
1053	0.012
1053	0.011
1053	0.011
1054	0.01
1054	0.01
1055	0.011
1055	0.011
1056	0.011
1056	0.01
1056	0.01
1057	0.01
1057	0.009
1058	0.009
1058	0.008
1058	0.008
1059	0.008
1059	0.007
1060	0.006
1060	0.005
1061	0.004
1061	0.004
1061	0.004
1062	0.004
1062	0.004
1063	0.004
1063	0.004
1063	0.004
1064	0.004
1064	0.005
1065	0.005
1065	0.005
1066	0.005
1066	0.005
1066	0.004
1067	0.004
1067	0.003
1068	0.003
1068	0.002
1068	0.001
1069	0
1069	-0.001
1070	-0.001
1070	-0.002
1071	-0.003
1071	-0.003
1071	-0.004
1072	-0.004
1072	-0.004
1073	-0.004
1073	-0.004
1073	-0.005
1074	-0.005
1074	-0.005
1075	-0.006
1075	-0.007
1076	-0.008
1076	-0.008
1076	-0.009
1077	-0.01
1077	-0.011
1078	-0.012
1078	-0.012
1078	-0.013
1079	-0.013
1079	-0.013
1080	-0.015
1080	-0.015
1080	-0.017
1081	-0.018
1081	-0.018
1082	-0.019
1082	-0.02
1083	-0.021
1083	-0.023
1083	-0.024
1084	-0.026
1084	-0.027
1085	-0.028
1085	-0.029
1085	-0.03
1086	-0.031
1086	-0.032
1087	-0.033
1087	-0.034
1088	-0.036
1088	-0.036
1088	-0.037
1089	-0.038
1089	-0.039
1090	-0.039
1090	-0.04
1090	-0.042
1091	-0.043
1091	-0.043
1092	-0.043
1092	-0.044
1092	-0.044
1093	-0.046
1093	-0.046
1094	-0.047
1094	-0.048
1095	-0.049
1095	-0.049
1095	-0.05
1096	-0.052
1096	-0.054
1097	-0.055
1097	-0.057
1097	-0.058
1098	-0.06
1098	-0.063
1099	-0.064
1099	-0.066
1100	-0.069
1100	-0.072
1100	-0.075
1101	-0.078
1101	-0.082
1102	-0.084
1102	-0.087
1102	-0.09
1103	-0.093
1103	-0.096
1104	-0.1
1104	-0.103
1104	-0.104
1105	-0.106
1105	-0.108
1106	-0.112
1106	-0.114
1107	-0.119
1107	-0.124
1107	-0.129
1108	-0.13
1108	-0.132
1109	-0.136
1109	-0.14
1109	-0.145
1110	-0.148
1110	-0.155
1111	-0.166
1111	-0.163
