Data from 3.4A_17C_Absorbance__437__02349.txt Node

Date: Tue Jun 20 16:40:17 CEST 2023
User: Marek
Spectrometer: MAYP115816
Trigger mode: 0
Integration Time (sec): 2.200000E-1
Scans to average: 10
Electric dark correction enabled: true
Nonlinearity correction enabled: true
Boxcar width: 5
XAxis mode: Wavelengths
Number of Pixels in Spectrum: 2068
>>>>>Begin Spectral Data<<<<<
199	-0.804
199	-0.788
200	-0.753
200	-0.699
201	-0.672
201	-0.663
202	-0.649
202	-0.639
203	-0.637
203	-0.63
204	-0.61
204	-0.593
205	-0.57
205	-0.559
205	-0.568
206	-0.568
206	-0.564
207	-0.555
207	-0.563
208	-0.565
208	-0.569
209	-0.571
209	-0.576
210	-0.59
210	-0.598
211	-0.593
211	-0.596
212	-0.605
212	-0.612
213	-0.609
213	-0.602
213	-0.602
214	-0.609
214	-0.612
215	-0.608
215	-0.612
216	-0.62
216	-0.626
217	-0.623
217	-0.625
218	-0.631
218	-0.633
219	-0.639
219	-0.64
220	-0.644
220	-0.651
221	-0.653
221	-0.653
221	-0.644
222	-0.644
222	-0.642
223	-0.639
223	-0.642
224	-0.642
224	-0.641
225	-0.637
225	-0.639
226	-0.638
226	-0.638
227	-0.645
227	-0.655
228	-0.66
228	-0.668
229	-0.673
229	-0.67
229	-0.671
230	-0.667
230	-0.664
231	-0.661
231	-0.655
232	-0.66
232	-0.654
233	-0.654
233	-0.642
234	-0.642
234	-0.639
235	-0.643
235	-0.656
236	-0.662
236	-0.664
236	-0.663
237	-0.661
237	-0.662
238	-0.663
238	-0.666
239	-0.669
239	-0.678
240	-0.67
240	-0.662
241	-0.659
241	-0.662
242	-0.667
242	-0.676
243	-0.677
243	-0.679
243	-0.682
244	-0.678
244	-0.677
245	-0.679
245	-0.685
246	-0.694
246	-0.697
247	-0.705
247	-0.69
248	-0.689
248	-0.691
249	-0.697
249	-0.699
250	-0.699
250	-0.71
250	-0.708
251	-0.708
251	-0.704
252	-0.704
252	-0.717
253	-0.713
253	-0.723
254	-0.728
254	-0.729
255	-0.738
255	-0.735
256	-0.736
256	-0.748
257	-0.757
257	-0.755
258	-0.755
258	-0.761
258	-0.76
259	-0.752
259	-0.768
260	-0.769
260	-0.759
261	-0.771
261	-0.756
262	-0.761
262	-0.76
263	-0.75
263	-0.756
264	-0.767
264	-0.77
265	-0.762
265	-0.764
265	-0.775
266	-0.765
266	-0.767
267	-0.766
267	-0.784
268	-0.793
268	-0.787
269	-0.778
269	-0.793
270	-0.797
270	-0.796
271	-0.811
271	-0.82
272	-0.821
272	-0.824
272	-0.817
273	-0.824
273	-0.839
274	-0.83
274	-0.823
275	-0.82
275	-0.807
276	-0.809
276	-0.815
277	-0.816
277	-0.813
278	-0.818
278	-0.819
278	-0.806
279	-0.816
279	-0.83
280	-0.833
280	-0.844
281	-0.839
281	-0.832
282	-0.839
282	-0.834
283	-0.827
283	-0.842
284	-0.856
284	-0.867
285	-0.846
285	-0.852
285	-0.844
286	-0.849
286	-0.865
287	-0.861
287	-0.858
288	-0.857
288	-0.839
289	-0.838
289	-0.844
290	-0.854
290	-0.842
291	-0.846
291	-0.843
292	-0.824
292	-0.821
292	-0.826
293	-0.814
293	-0.811
294	-0.81
294	-0.797
295	-0.779
295	-0.791
296	-0.803
296	-0.797
297	-0.785
297	-0.789
298	-0.785
298	-0.803
298	-0.806
299	-0.789
299	-0.782
300	-0.779
300	-0.759
301	-0.741
301	-0.745
302	-0.754
302	-0.738
303	-0.731
303	-0.721
304	-0.704
304	-0.706
305	-0.697
305	-0.705
305	-0.722
306	-0.708
306	-0.706
307	-0.7
307	-0.712
308	-0.714
308	-0.709
309	-0.711
309	-0.707
310	-0.705
310	-0.7
311	-0.686
311	-0.703
311	-0.689
312	-0.686
312	-0.674
313	-0.666
313	-0.665
314	-0.67
314	-0.668
315	-0.664
315	-0.657
316	-0.651
316	-0.641
317	-0.633
317	-0.631
318	-0.622
318	-0.619
318	-0.611
319	-0.601
319	-0.59
320	-0.589
320	-0.587
321	-0.583
321	-0.583
322	-0.578
322	-0.571
323	-0.572
323	-0.561
324	-0.557
324	-0.546
324	-0.536
325	-0.52
325	-0.504
326	-0.495
326	-0.47
327	-0.454
327	-0.43
328	-0.399
328	-0.376
329	-0.348
329	-0.319
330	-0.291
330	-0.255
330	-0.218
331	-0.18
331	-0.145
332	-0.109
332	-0.076
333	-0.045
333	-0.012
334	0.017
334	0.046
335	0.074
335	0.097
336	0.12
336	0.142
336	0.159
337	0.177
337	0.195
338	0.209
338	0.221
339	0.236
339	0.247
340	0.256
340	0.265
341	0.273
341	0.279
342	0.286
342	0.292
342	0.297
343	0.301
343	0.306
344	0.309
344	0.312
345	0.316
345	0.318
346	0.321
346	0.323
347	0.325
347	0.326
348	0.328
348	0.33
348	0.331
349	0.332
349	0.333
350	0.333
350	0.334
351	0.335
351	0.335
352	0.335
352	0.335
353	0.336
353	0.336
354	0.336
354	0.336
354	0.336
355	0.336
355	0.336
356	0.336
356	0.336
357	0.336
357	0.336
358	0.336
358	0.336
359	0.336
359	0.336
360	0.336
360	0.336
360	0.336
361	0.336
361	0.337
362	0.337
362	0.337
363	0.337
363	0.337
364	0.337
364	0.337
365	0.337
365	0.337
366	0.337
366	0.336
366	0.336
367	0.336
367	0.336
368	0.336
368	0.335
369	0.335
369	0.335
370	0.335
370	0.335
371	0.334
371	0.334
372	0.334
372	0.334
372	0.334
373	0.333
373	0.333
374	0.333
374	0.333
375	0.332
375	0.332
376	0.332
376	0.332
377	0.331
377	0.331
378	0.33
378	0.33
378	0.33
379	0.329
379	0.329
380	0.329
380	0.329
381	0.329
381	0.329
382	0.328
382	0.328
383	0.328
383	0.328
383	0.327
384	0.327
384	0.327
385	0.327
385	0.326
386	0.326
386	0.326
387	0.326
387	0.325
388	0.325
388	0.325
389	0.325
389	0.324
389	0.324
390	0.324
390	0.324
391	0.324
391	0.323
392	0.323
392	0.323
393	0.323
393	0.323
394	0.322
394	0.322
394	0.322
395	0.321
395	0.321
396	0.32
396	0.32
397	0.32
397	0.32
398	0.319
398	0.319
399	0.318
399	0.318
400	0.318
400	0.318
400	0.318
401	0.317
401	0.317
402	0.317
402	0.316
403	0.316
403	0.316
404	0.316
404	0.315
405	0.315
405	0.315
405	0.314
406	0.314
406	0.314
407	0.314
407	0.313
408	0.313
408	0.313
409	0.313
409	0.312
410	0.312
410	0.312
411	0.312
411	0.312
411	0.312
412	0.311
412	0.311
413	0.311
413	0.311
414	0.31
414	0.31
415	0.31
415	0.309
416	0.309
416	0.309
416	0.308
417	0.308
417	0.308
418	0.308
418	0.308
419	0.308
419	0.307
420	0.307
420	0.307
421	0.307
421	0.307
421	0.307
422	0.307
422	0.307
423	0.307
423	0.307
424	0.307
424	0.306
425	0.306
425	0.306
426	0.306
426	0.306
427	0.306
427	0.306
427	0.306
428	0.306
428	0.306
429	0.306
429	0.305
430	0.305
430	0.305
431	0.304
431	0.304
432	0.304
432	0.303
432	0.303
433	0.303
433	0.303
434	0.303
434	0.303
435	0.303
435	0.303
436	0.303
436	0.303
437	0.303
437	0.303
437	0.303
438	0.303
438	0.303
439	0.302
439	0.302
440	0.302
440	0.302
441	0.302
441	0.302
442	0.302
442	0.302
442	0.302
443	0.302
443	0.301
444	0.301
444	0.301
445	0.301
445	0.301
446	0.301
446	0.301
447	0.301
447	0.301
447	0.301
448	0.301
448	0.301
449	0.302
449	0.302
450	0.302
450	0.302
451	0.302
451	0.302
452	0.302
452	0.302
452	0.302
453	0.302
453	0.302
454	0.302
454	0.302
455	0.302
455	0.303
456	0.303
456	0.303
457	0.303
457	0.302
458	0.302
458	0.302
458	0.303
459	0.303
459	0.302
460	0.302
460	0.302
461	0.302
461	0.302
462	0.303
462	0.304
463	0.304
463	0.305
463	0.306
464	0.306
464	0.306
465	0.307
465	0.307
466	0.308
466	0.308
467	0.308
467	0.308
467	0.308
468	0.308
468	0.308
469	0.309
469	0.31
470	0.31
470	0.31
471	0.31
471	0.31
472	0.31
472	0.311
472	0.312
473	0.312
473	0.313
474	0.313
474	0.314
475	0.315
475	0.316
476	0.316
476	0.317
477	0.318
477	0.319
477	0.32
478	0.321
478	0.322
479	0.322
479	0.323
480	0.324
480	0.325
481	0.326
481	0.327
482	0.328
482	0.329
482	0.33
483	0.332
483	0.333
484	0.334
484	0.335
485	0.336
485	0.338
486	0.339
486	0.34
487	0.342
487	0.343
487	0.344
488	0.345
488	0.346
489	0.347
489	0.349
490	0.35
490	0.352
491	0.353
491	0.355
492	0.356
492	0.357
492	0.359
493	0.36
493	0.362
494	0.365
494	0.367
495	0.369
495	0.371
496	0.372
496	0.375
496	0.377
497	0.379
497	0.381
498	0.383
498	0.385
499	0.387
499	0.389
500	0.392
500	0.395
501	0.398
501	0.4
501	0.402
502	0.404
502	0.406
503	0.409
503	0.411
504	0.413
504	0.416
505	0.418
505	0.421
506	0.424
506	0.427
506	0.43
507	0.433
507	0.436
508	0.439
508	0.442
509	0.445
509	0.448
510	0.451
510	0.453
511	0.456
511	0.458
511	0.46
512	0.462
512	0.464
513	0.466
513	0.469
514	0.471
514	0.473
515	0.475
515	0.477
515	0.479
516	0.481
516	0.484
517	0.486
517	0.488
518	0.49
518	0.491
519	0.493
519	0.494
520	0.496
520	0.498
520	0.499
521	0.5
521	0.502
522	0.503
522	0.504
523	0.506
523	0.507
524	0.508
524	0.509
524	0.51
525	0.511
525	0.512
526	0.513
526	0.514
527	0.514
527	0.515
528	0.515
528	0.515
529	0.515
529	0.515
529	0.515
530	0.515
530	0.514
531	0.514
531	0.513
532	0.513
532	0.512
533	0.512
533	0.511
533	0.511
534	0.51
534	0.509
535	0.508
535	0.507
536	0.506
536	0.505
537	0.505
537	0.504
538	0.502
538	0.501
538	0.499
539	0.498
539	0.497
540	0.495
540	0.493
541	0.491
541	0.489
542	0.487
542	0.485
542	0.482
543	0.48
543	0.477
544	0.475
544	0.473
545	0.47
545	0.468
546	0.466
546	0.463
547	0.461
547	0.458
547	0.456
548	0.454
548	0.451
549	0.449
549	0.447
550	0.445
550	0.442
551	0.439
551	0.437
551	0.434
552	0.432
552	0.43
553	0.427
553	0.425
554	0.422
554	0.419
555	0.416
555	0.413
556	0.41
556	0.407
556	0.405
557	0.402
557	0.4
558	0.397
558	0.394
559	0.392
559	0.389
560	0.386
560	0.383
560	0.381
561	0.379
561	0.377
562	0.375
562	0.373
563	0.371
563	0.369
564	0.367
564	0.365
564	0.363
565	0.362
565	0.36
566	0.358
566	0.356
567	0.355
567	0.353
568	0.351
568	0.348
568	0.346
569	0.344
569	0.342
570	0.34
570	0.337
571	0.335
571	0.333
572	0.331
572	0.328
573	0.326
573	0.324
573	0.321
574	0.32
574	0.318
575	0.317
575	0.317
576	0.315
576	0.313
577	0.311
577	0.309
577	0.309
578	0.308
578	0.307
579	0.307
579	0.306
580	0.304
580	0.3
581	0.298
581	0.296
581	0.296
582	0.295
582	0.295
583	0.294
583	0.292
584	0.289
584	0.287
585	0.287
585	0.287
585	0.286
586	0.285
586	0.284
587	0.281
587	0.279
588	0.278
588	0.276
589	0.275
589	0.274
590	0.273
590	0.271
590	0.271
591	0.27
591	0.269
592	0.267
592	0.265
593	0.264
593	0.263
594	0.262
594	0.26
594	0.259
595	0.259
595	0.256
596	0.255
596	0.255
597	0.256
597	0.255
598	0.254
598	0.254
598	0.253
599	0.253
599	0.251
600	0.25
600	0.25
601	0.25
601	0.249
602	0.248
602	0.247
602	0.246
603	0.246
603	0.246
604	0.245
604	0.245
605	0.245
605	0.245
606	0.243
606	0.241
606	0.24
607	0.239
607	0.239
608	0.237
608	0.235
609	0.235
609	0.234
610	0.233
610	0.231
610	0.231
611	0.231
611	0.23
612	0.23
612	0.229
613	0.228
613	0.228
614	0.226
614	0.224
614	0.223
615	0.221
615	0.22
616	0.219
616	0.218
617	0.217
617	0.216
618	0.215
618	0.214
618	0.213
619	0.213
619	0.213
620	0.213
620	0.212
621	0.21
621	0.209
622	0.207
622	0.206
622	0.204
623	0.202
623	0.202
624	0.201
624	0.199
625	0.198
625	0.197
626	0.196
626	0.195
626	0.195
627	0.194
627	0.194
628	0.193
628	0.192
629	0.19
629	0.189
630	0.187
630	0.186
630	0.185
631	0.183
631	0.181
632	0.179
632	0.177
633	0.175
633	0.172
634	0.171
634	0.168
634	0.167
635	0.164
635	0.162
636	0.159
636	0.157
637	0.154
637	0.151
638	0.148
638	0.145
638	0.141
639	0.138
639	0.133
640	0.129
640	0.125
641	0.121
641	0.117
642	0.113
642	0.109
642	0.104
643	0.099
643	0.094
644	0.089
644	0.084
645	0.078
645	0.073
646	0.068
646	0.061
646	0.055
647	0.048
647	0.041
648	0.034
648	0.026
649	0.019
649	0.012
650	0.005
650	-0.002
650	-0.009
651	-0.019
651	-0.031
652	-0.044
652	-0.058
653	-0.071
653	-0.081
653	-0.076
654	-0.057
654	-0.051
655	-0.057
655	-0.062
656	-0.068
656	-0.074
657	-0.079
657	-0.082
657	-0.088
658	-0.095
658	-0.127
659	-0.212
659	-0.301
660	-0.34
660	-0.366
661	-0.392
661	-0.421
661	-0.451
662	-0.479
662	-0.508
663	-0.542
663	-0.577
664	-0.612
664	-0.65
665	-0.694
665	-0.739
665	-0.781
666	-0.83
666	-0.883
667	-0.935
667	-0.996
668	-1.053
668	-1.12
669	-1.186
669	-1.257
669	-1.333
670	-1.41
670	-1.512
671	-1.651
671	-1.94
672	-2.241
672	-2.425
672	-2.557
673	-2.661
673	-2.746
674	-2.826
674	-2.845
675	-2.862
675	-2.867
676	-2.868
676	-2.838
676	-2.773
677	-2.694
677	-2.602
678	-2.468
678	-2.26
679	-1.827
679	-1.622
680	-1.51
680	-1.43
680	-1.361
681	-1.311
681	-1.257
682	-1.214
682	-1.17
683	-1.128
683	-1.103
684	-1.075
684	-1.055
684	-1.033
685	-1.013
685	-1.002
686	-0.979
686	-0.965
687	-0.955
687	-0.944
687	-0.945
688	-0.931
688	-0.922
689	-0.926
689	-0.925
690	-0.912
690	-0.903
691	-0.9
691	-0.903
691	-0.903
692	-0.903
692	-0.9
693	-0.907
693	-0.916
694	-0.897
694	-0.895
695	-0.898
695	-0.889
695	-0.897
696	-0.903
696	-0.895
697	-0.89
697	-0.888
698	-0.883
698	-0.876
698	-0.887
699	-0.885
699	-0.886
700	-0.907
700	-0.902
701	-0.889
701	-0.883
702	-0.883
702	-0.88
702	-0.88
703	-0.872
703	-0.861
704	-0.87
704	-0.873
705	-0.862
705	-0.861
705	-0.854
706	-0.847
706	-0.843
707	-0.854
707	-0.859
708	-0.856
708	-0.854
709	-0.854
709	-0.851
709	-0.847
710	-0.853
710	-0.856
711	-0.857
711	-0.857
712	-0.849
712	-0.845
713	-0.849
713	-0.85
713	-0.83
714	-0.833
714	-0.837
715	-0.829
715	-0.837
716	-0.853
716	-0.864
716	-0.866
717	-0.872
717	-0.864
718	-0.859
718	-0.859
719	-0.854
719	-0.848
720	-0.845
720	-0.84
720	-0.836
721	-0.825
721	-0.827
722	-0.825
722	-0.821
723	-0.84
723	-0.854
723	-0.863
724	-0.86
724	-0.863
725	-0.859
725	-0.86
726	-0.865
726	-0.857
727	-0.858
727	-0.865
727	-0.854
728	-0.84
728	-0.835
729	-0.837
729	-0.84
730	-0.843
730	-0.835
730	-0.84
731	-0.842
731	-0.844
732	-0.847
732	-0.84
733	-0.855
733	-0.863
734	-0.871
734	-0.863
734	-0.847
735	-0.837
735	-0.832
736	-0.83
736	-0.823
737	-0.823
737	-0.814
737	-0.807
738	-0.791
738	-0.78
739	-0.781
739	-0.781
740	-0.797
740	-0.796
741	-0.807
741	-0.817
741	-0.826
742	-0.832
742	-0.847
743	-0.856
743	-0.858
744	-0.862
744	-0.87
744	-0.863
745	-0.873
745	-0.861
746	-0.856
746	-0.847
747	-0.849
747	-0.839
748	-0.84
748	-0.844
748	-0.845
749	-0.838
749	-0.844
750	-0.834
750	-0.835
751	-0.836
751	-0.832
751	-0.844
752	-0.849
752	-0.852
753	-0.854
753	-0.847
754	-0.865
754	-0.866
754	-0.874
755	-0.874
755	-0.866
756	-0.868
756	-0.854
757	-0.848
757	-0.836
758	-0.839
758	-0.84
758	-0.834
759	-0.839
759	-0.838
760	-0.836
760	-0.839
761	-0.833
761	-0.837
761	-0.836
762	-0.842
762	-0.842
763	-0.841
763	-0.848
764	-0.848
764	-0.843
764	-0.849
765	-0.847
765	-0.853
766	-0.856
766	-0.859
767	-0.873
767	-0.868
768	-0.868
768	-0.859
768	-0.852
769	-0.855
769	-0.864
770	-0.873
770	-0.879
771	-0.877
771	-0.875
771	-0.881
772	-0.885
772	-0.904
773	-0.905
773	-0.906
774	-0.906
774	-0.888
775	-0.876
775	-0.876
775	-0.878
776	-0.888
776	-0.883
777	-0.881
777	-0.864
778	-0.873
778	-0.883
778	-0.882
779	-0.891
779	-0.909
780	-0.903
780	-0.913
781	-0.902
781	-0.891
781	-0.905
782	-0.926
782	-0.927
783	-0.924
783	-0.932
784	-0.934
784	-0.926
784	-0.947
785	-0.94
785	-0.952
786	-0.957
786	-0.95
787	-0.94
787	-0.948
788	-0.941
788	-0.935
788	-0.935
789	-0.933
789	-0.921
790	-0.921
790	-0.906
791	-0.914
791	-0.909
791	-0.902
792	-0.896
792	-0.901
793	-0.904
793	-0.894
794	-0.889
794	-0.882
794	-0.889
795	-0.908
795	-0.893
796	-0.9
796	-0.896
797	-0.889
797	-0.879
797	-0.872
798	-0.893
798	-0.897
799	-0.898
799	-0.884
800	-0.88
800	-0.889
801	-0.887
801	-0.891
801	-0.887
802	-0.887
802	-0.886
803	-0.881
803	-0.873
804	-0.879
804	-0.886
804	-0.87
805	-0.852
805	-0.842
806	-0.844
806	-0.843
807	-0.842
807	-0.841
807	-0.822
808	-0.818
808	-0.81
809	-0.806
809	-0.806
810	-0.809
810	-0.806
810	-0.802
811	-0.806
811	-0.799
812	-0.794
812	-0.797
813	-0.801
813	-0.801
813	-0.795
814	-0.795
814	-0.8
815	-0.791
815	-0.786
816	-0.78
816	-0.796
817	-0.809
817	-0.813
817	-0.823
818	-0.816
818	-0.813
819	-0.825
819	-0.823
820	-0.835
820	-0.836
820	-0.835
821	-0.83
821	-0.824
822	-0.825
822	-0.813
823	-0.825
823	-0.825
823	-0.817
824	-0.816
824	-0.825
825	-0.824
825	-0.82
826	-0.816
826	-0.811
826	-0.809
827	-0.809
827	-0.801
828	-0.8
828	-0.795
829	-0.788
829	-0.772
829	-0.769
830	-0.767
830	-0.752
831	-0.747
831	-0.736
832	-0.727
832	-0.72
832	-0.714
833	-0.711
833	-0.717
834	-0.713
834	-0.708
835	-0.701
835	-0.702
835	-0.696
836	-0.692
836	-0.686
837	-0.677
837	-0.668
838	-0.655
838	-0.638
839	-0.632
839	-0.618
839	-0.608
840	-0.606
840	-0.595
841	-0.585
841	-0.578
842	-0.568
842	-0.556
842	-0.554
843	-0.551
843	-0.547
844	-0.544
844	-0.532
845	-0.518
845	-0.509
845	-0.497
846	-0.486
846	-0.474
847	-0.465
847	-0.452
848	-0.438
848	-0.421
848	-0.408
849	-0.394
849	-0.381
850	-0.372
850	-0.362
851	-0.348
851	-0.332
851	-0.321
852	-0.304
852	-0.29
853	-0.281
853	-0.27
854	-0.26
854	-0.249
854	-0.235
855	-0.223
855	-0.215
856	-0.207
856	-0.199
857	-0.192
857	-0.183
857	-0.17
858	-0.158
858	-0.149
859	-0.138
859	-0.127
860	-0.116
860	-0.101
860	-0.09
861	-0.079
861	-0.069
862	-0.06
862	-0.052
863	-0.044
863	-0.034
863	-0.029
864	-0.023
864	-0.016
865	-0.009
865	-0.003
866	0.002
866	0.008
866	0.014
867	0.02
867	0.026
868	0.031
868	0.037
869	0.042
869	0.045
869	0.048
870	0.05
870	0.052
871	0.054
871	0.055
872	0.057
872	0.058
872	0.059
873	0.059
873	0.059
874	0.058
874	0.058
875	0.058
875	0.057
875	0.057
876	0.057
876	0.057
877	0.056
877	0.056
878	0.055
878	0.055
878	0.055
879	0.054
879	0.054
880	0.054
880	0.053
881	0.051
881	0.05
881	0.049
882	0.048
882	0.046
883	0.045
883	0.044
884	0.043
884	0.042
884	0.041
885	0.041
885	0.041
886	0.04
886	0.04
887	0.039
887	0.038
887	0.038
888	0.038
888	0.037
889	0.036
889	0.036
890	0.035
890	0.034
890	0.034
891	0.034
891	0.034
892	0.034
892	0.034
893	0.034
893	0.034
893	0.034
894	0.034
894	0.034
895	0.034
895	0.034
895	0.034
896	0.034
896	0.034
897	0.034
897	0.035
898	0.035
898	0.035
898	0.035
899	0.035
899	0.035
900	0.035
900	0.035
901	0.034
901	0.033
901	0.033
902	0.033
902	0.033
903	0.032
903	0.032
904	0.031
904	0.031
904	0.032
905	0.032
905	0.033
906	0.034
906	0.035
907	0.035
907	0.035
907	0.036
908	0.037
908	0.037
909	0.038
909	0.038
910	0.038
910	0.039
910	0.039
911	0.039
911	0.04
912	0.041
912	0.041
913	0.042
913	0.042
913	0.043
914	0.043
914	0.044
915	0.044
915	0.044
916	0.044
916	0.044
916	0.044
917	0.043
917	0.043
918	0.043
918	0.043
918	0.043
919	0.042
919	0.043
920	0.043
920	0.044
921	0.044
921	0.045
921	0.046
922	0.046
922	0.047
923	0.047
923	0.047
924	0.047
924	0.046
924	0.046
925	0.044
925	0.043
926	0.042
926	0.04
927	0.039
927	0.038
927	0.037
928	0.036
928	0.036
929	0.036
929	0.037
930	0.037
930	0.038
930	0.038
931	0.039
931	0.04
932	0.042
932	0.043
933	0.044
933	0.044
933	0.044
934	0.043
934	0.043
935	0.043
935	0.042
935	0.041
936	0.04
936	0.038
937	0.037
937	0.036
938	0.036
938	0.035
938	0.034
939	0.033
939	0.033
940	0.032
940	0.031
941	0.031
941	0.03
941	0.03
942	0.029
942	0.028
943	0.028
943	0.027
944	0.027
944	0.025
944	0.025
945	0.025
945	0.024
946	0.023
946	0.023
946	0.023
947	0.022
947	0.022
948	0.023
948	0.023
949	0.024
949	0.026
949	0.027
950	0.029
950	0.031
951	0.032
951	0.033
952	0.034
952	0.036
952	0.036
953	0.037
953	0.037
954	0.037
954	0.037
955	0.037
955	0.036
955	0.036
956	0.035
956	0.035
957	0.034
957	0.033
957	0.032
958	0.031
958	0.031
959	0.03
959	0.03
960	0.029
960	0.029
960	0.029
961	0.029
961	0.03
962	0.03
962	0.031
963	0.031
963	0.031
963	0.032
964	0.032
964	0.032
965	0.033
965	0.033
966	0.032
966	0.033
966	0.033
967	0.033
967	0.033
968	0.033
968	0.032
968	0.032
969	0.032
969	0.032
970	0.032
970	0.032
971	0.032
971	0.032
971	0.032
972	0.033
972	0.033
973	0.033
973	0.033
974	0.032
974	0.033
974	0.033
975	0.033
975	0.033
976	0.033
976	0.033
976	0.032
977	0.032
977	0.032
978	0.031
978	0.031
979	0.03
979	0.03
979	0.03
980	0.03
980	0.029
981	0.029
981	0.029
982	0.03
982	0.03
982	0.03
983	0.03
983	0.029
984	0.029
984	0.029
984	0.028
985	0.028
985	0.027
986	0.026
986	0.025
987	0.024
987	0.024
987	0.023
988	0.022
988	0.022
989	0.021
989	0.02
990	0.02
990	0.019
990	0.018
991	0.017
991	0.017
992	0.016
992	0.015
992	0.014
993	0.014
993	0.013
994	0.012
994	0.01
995	0.009
995	0.008
995	0.006
996	0.005
996	0.004
997	0.002
997	0.002
997	0.001
998	0
998	0.001
999	0.001
999	0.001
1000	0.001
1000	0.002
1000	0.002
1001	0.003
1001	0.004
1002	0.004
1002	0.005
1003	0.005
1003	0.005
1003	0.005
1004	0.005
1004	0.005
1005	0.005
1005	0.004
1005	0.003
1006	0.002
1006	0.002
1007	0.001
1007	-0
1008	-0.001
1008	-0.002
1008	-0.002
1009	-0.002
1009	-0.002
1010	-0.002
1010	-0.001
1010	-0.001
1011	0
1011	0.001
1012	0.002
1012	0.003
1013	0.005
1013	0.006
1013	0.007
1014	0.008
1014	0.008
1015	0.009
1015	0.009
1016	0.01
1016	0.01
1016	0.009
1017	0.009
1017	0.008
1018	0.009
1018	0.008
1018	0.008
1019	0.008
1019	0.007
1020	0.007
1020	0.006
1021	0.006
1021	0.006
1021	0.006
1022	0.005
1022	0.005
1023	0.005
1023	0.005
1023	0.006
1024	0.006
1024	0.006
1025	0.006
1025	0.007
1026	0.007
1026	0.008
1026	0.008
1027	0.008
1027	0.008
1028	0.009
1028	0.009
1028	0.009
1029	0.009
1029	0.01
1030	0.009
1030	0.009
1031	0.009
1031	0.01
1031	0.01
1032	0.01
1032	0.01
1033	0.009
1033	0.009
1033	0.009
1034	0.008
1034	0.008
1035	0.008
1035	0.007
1036	0.006
1036	0.006
1036	0.006
1037	0.005
1037	0.006
1038	0.006
1038	0.006
1039	0.006
1039	0.006
1039	0.007
1040	0.007
1040	0.008
1041	0.007
1041	0.007
1041	0.007
1042	0.006
1042	0.006
1043	0.005
1043	0.004
1044	0.004
1044	0.002
1044	0.001
1045	0.001
1045	0
1046	-0.001
1046	-0.001
1046	-0.002
1047	-0.002
1047	-0.002
1048	-0.001
1048	-0.001
1049	-0.001
1049	-0.001
1049	-0.002
1050	-0.002
1050	-0.002
1051	-0.003
1051	-0.004
1051	-0.004
1052	-0.005
1052	-0.006
1053	-0.007
1053	-0.007
1053	-0.008
1054	-0.009
1054	-0.009
1055	-0.009
1055	-0.009
1056	-0.009
1056	-0.009
1056	-0.01
1057	-0.01
1057	-0.01
1058	-0.011
1058	-0.011
1058	-0.011
1059	-0.011
1059	-0.012
1060	-0.013
1060	-0.013
1061	-0.014
1061	-0.014
1061	-0.014
1062	-0.014
1062	-0.014
1063	-0.014
1063	-0.014
1063	-0.014
1064	-0.014
1064	-0.013
1065	-0.013
1065	-0.013
1066	-0.013
1066	-0.014
1066	-0.014
1067	-0.014
1067	-0.015
1068	-0.016
1068	-0.016
1068	-0.017
1069	-0.018
1069	-0.019
1070	-0.019
1070	-0.02
1071	-0.021
1071	-0.021
1071	-0.022
1072	-0.022
1072	-0.021
1073	-0.022
1073	-0.022
1073	-0.022
1074	-0.022
1074	-0.022
1075	-0.023
1075	-0.023
1076	-0.024
1076	-0.024
1076	-0.025
1077	-0.027
1077	-0.027
1078	-0.028
1078	-0.029
1078	-0.03
1079	-0.03
1079	-0.031
1080	-0.032
1080	-0.033
1080	-0.035
1081	-0.035
1081	-0.036
1082	-0.037
1082	-0.038
1083	-0.04
1083	-0.041
1083	-0.042
1084	-0.043
1084	-0.044
1085	-0.045
1085	-0.046
1085	-0.047
1086	-0.048
1086	-0.049
1087	-0.05
1087	-0.051
1088	-0.052
1088	-0.053
1088	-0.054
1089	-0.055
1089	-0.055
1090	-0.056
1090	-0.057
1090	-0.058
1091	-0.059
1091	-0.058
1092	-0.059
1092	-0.059
1092	-0.059
1093	-0.06
1093	-0.06
1094	-0.061
1094	-0.062
1095	-0.064
1095	-0.064
1095	-0.065
1096	-0.067
1096	-0.069
1097	-0.069
1097	-0.072
1097	-0.074
1098	-0.077
1098	-0.079
1099	-0.08
1099	-0.081
1100	-0.083
1100	-0.086
1100	-0.089
1101	-0.093
1101	-0.095
1102	-0.097
1102	-0.099
1102	-0.101
1103	-0.104
1103	-0.107
1104	-0.111
1104	-0.114
1104	-0.116
1105	-0.117
1105	-0.12
1106	-0.125
1106	-0.128
1107	-0.134
1107	-0.139
1107	-0.143
1108	-0.144
1108	-0.145
1109	-0.149
1109	-0.154
1109	-0.159
1110	-0.161
1110	-0.164
1111	-0.175
1111	-0.17
