Data from 3.4A_17C_Absorbance__324__02236.txt Node

Date: Tue Jun 20 16:36:08 CEST 2023
User: Marek
Spectrometer: MAYP115816
Trigger mode: 0
Integration Time (sec): 2.200000E-1
Scans to average: 10
Electric dark correction enabled: true
Nonlinearity correction enabled: true
Boxcar width: 5
XAxis mode: Wavelengths
Number of Pixels in Spectrum: 2068
>>>>>Begin Spectral Data<<<<<
199	-0.795
199	-0.782
200	-0.747
200	-0.689
201	-0.66
201	-0.648
202	-0.633
202	-0.626
203	-0.627
203	-0.621
204	-0.6
204	-0.583
205	-0.56
205	-0.55
205	-0.559
206	-0.561
206	-0.558
207	-0.55
207	-0.557
208	-0.558
208	-0.563
209	-0.565
209	-0.571
210	-0.584
210	-0.591
211	-0.586
211	-0.589
212	-0.599
212	-0.608
213	-0.606
213	-0.599
213	-0.596
214	-0.604
214	-0.608
215	-0.602
215	-0.609
216	-0.619
216	-0.626
217	-0.623
217	-0.623
218	-0.629
218	-0.631
219	-0.638
219	-0.639
220	-0.644
220	-0.651
221	-0.65
221	-0.65
221	-0.64
222	-0.64
222	-0.639
223	-0.636
223	-0.639
224	-0.64
224	-0.638
225	-0.633
225	-0.634
226	-0.635
226	-0.637
227	-0.644
227	-0.654
228	-0.658
228	-0.666
229	-0.671
229	-0.668
229	-0.667
230	-0.663
230	-0.662
231	-0.657
231	-0.65
232	-0.653
232	-0.646
233	-0.646
233	-0.634
234	-0.635
234	-0.632
235	-0.639
235	-0.65
236	-0.656
236	-0.657
236	-0.658
237	-0.657
237	-0.658
238	-0.66
238	-0.661
239	-0.663
239	-0.673
240	-0.666
240	-0.662
241	-0.658
241	-0.661
242	-0.664
242	-0.671
243	-0.673
243	-0.674
243	-0.678
244	-0.674
244	-0.673
245	-0.676
245	-0.68
246	-0.689
246	-0.693
247	-0.701
247	-0.686
248	-0.683
248	-0.686
249	-0.692
249	-0.694
250	-0.694
250	-0.702
250	-0.699
251	-0.701
251	-0.697
252	-0.699
252	-0.712
253	-0.708
253	-0.721
254	-0.724
254	-0.725
255	-0.737
255	-0.734
256	-0.736
256	-0.749
257	-0.759
257	-0.755
258	-0.757
258	-0.765
258	-0.762
259	-0.756
259	-0.774
260	-0.772
260	-0.761
261	-0.773
261	-0.759
262	-0.764
262	-0.765
263	-0.756
263	-0.761
264	-0.77
264	-0.772
265	-0.763
265	-0.764
265	-0.775
266	-0.767
266	-0.767
267	-0.766
267	-0.78
268	-0.787
268	-0.781
269	-0.773
269	-0.788
270	-0.791
270	-0.791
271	-0.804
271	-0.813
272	-0.813
272	-0.818
272	-0.813
273	-0.822
273	-0.837
274	-0.83
274	-0.824
275	-0.823
275	-0.811
276	-0.813
276	-0.817
277	-0.819
277	-0.815
278	-0.82
278	-0.818
278	-0.805
279	-0.813
279	-0.827
280	-0.827
280	-0.838
281	-0.834
281	-0.827
282	-0.834
282	-0.829
283	-0.82
283	-0.837
284	-0.851
284	-0.861
285	-0.841
285	-0.849
285	-0.84
286	-0.844
286	-0.862
287	-0.857
287	-0.856
288	-0.857
288	-0.838
289	-0.837
289	-0.845
290	-0.853
290	-0.841
291	-0.844
291	-0.843
292	-0.823
292	-0.819
292	-0.823
293	-0.81
293	-0.806
294	-0.807
294	-0.792
295	-0.775
295	-0.787
296	-0.799
296	-0.793
297	-0.782
297	-0.788
298	-0.783
298	-0.801
298	-0.804
299	-0.785
299	-0.779
300	-0.775
300	-0.756
301	-0.737
301	-0.738
302	-0.747
302	-0.732
303	-0.726
303	-0.712
304	-0.696
304	-0.698
305	-0.691
305	-0.7
305	-0.715
306	-0.699
306	-0.698
307	-0.691
307	-0.705
308	-0.707
308	-0.703
309	-0.706
309	-0.702
310	-0.699
310	-0.693
311	-0.678
311	-0.698
311	-0.686
312	-0.683
312	-0.67
313	-0.663
313	-0.664
314	-0.668
314	-0.664
315	-0.663
315	-0.657
316	-0.652
316	-0.641
317	-0.633
317	-0.628
318	-0.618
318	-0.615
318	-0.605
319	-0.594
319	-0.587
320	-0.584
320	-0.583
321	-0.577
321	-0.575
322	-0.569
322	-0.564
323	-0.567
323	-0.557
324	-0.554
324	-0.543
324	-0.532
325	-0.515
325	-0.497
326	-0.489
326	-0.465
327	-0.451
327	-0.429
328	-0.396
328	-0.371
329	-0.342
329	-0.313
330	-0.286
330	-0.249
330	-0.214
331	-0.175
331	-0.14
332	-0.105
332	-0.07
333	-0.038
333	-0.003
334	0.026
334	0.055
335	0.085
335	0.108
336	0.133
336	0.155
336	0.174
337	0.193
337	0.212
338	0.227
338	0.238
339	0.254
339	0.266
340	0.274
340	0.283
341	0.291
341	0.298
342	0.305
342	0.312
342	0.317
343	0.321
343	0.327
344	0.331
344	0.334
345	0.338
345	0.341
346	0.343
346	0.345
347	0.347
347	0.349
348	0.35
348	0.352
348	0.353
349	0.354
349	0.355
350	0.356
350	0.357
351	0.357
351	0.358
352	0.358
352	0.358
353	0.359
353	0.359
354	0.359
354	0.359
354	0.359
355	0.359
355	0.359
356	0.359
356	0.359
357	0.36
357	0.36
358	0.36
358	0.36
359	0.36
359	0.36
360	0.36
360	0.36
360	0.36
361	0.36
361	0.36
362	0.359
362	0.359
363	0.359
363	0.359
364	0.359
364	0.359
365	0.359
365	0.359
366	0.359
366	0.359
366	0.359
367	0.359
367	0.358
368	0.358
368	0.358
369	0.358
369	0.358
370	0.357
370	0.357
371	0.357
371	0.356
372	0.356
372	0.356
372	0.356
373	0.355
373	0.355
374	0.355
374	0.354
375	0.354
375	0.354
376	0.354
376	0.353
377	0.353
377	0.352
378	0.352
378	0.352
378	0.351
379	0.351
379	0.351
380	0.35
380	0.35
381	0.35
381	0.35
382	0.349
382	0.349
383	0.349
383	0.349
383	0.349
384	0.348
384	0.348
385	0.347
385	0.347
386	0.347
386	0.347
387	0.347
387	0.346
388	0.346
388	0.345
389	0.345
389	0.345
389	0.345
390	0.345
390	0.345
391	0.344
391	0.344
392	0.343
392	0.343
393	0.343
393	0.343
394	0.343
394	0.342
394	0.342
395	0.342
395	0.341
396	0.341
396	0.34
397	0.34
397	0.339
398	0.339
398	0.339
399	0.338
399	0.338
400	0.338
400	0.337
400	0.337
401	0.337
401	0.336
402	0.336
402	0.336
403	0.336
403	0.335
404	0.335
404	0.334
405	0.334
405	0.333
405	0.333
406	0.333
406	0.333
407	0.333
407	0.332
408	0.332
408	0.332
409	0.332
409	0.331
410	0.331
410	0.331
411	0.331
411	0.331
411	0.33
412	0.33
412	0.33
413	0.329
413	0.329
414	0.329
414	0.329
415	0.328
415	0.328
416	0.328
416	0.327
416	0.327
417	0.327
417	0.327
418	0.326
418	0.326
419	0.326
419	0.326
420	0.326
420	0.326
421	0.326
421	0.326
421	0.326
422	0.326
422	0.326
423	0.325
423	0.325
424	0.325
424	0.325
425	0.325
425	0.324
426	0.324
426	0.324
427	0.324
427	0.324
427	0.324
428	0.324
428	0.324
429	0.323
429	0.323
430	0.323
430	0.322
431	0.322
431	0.322
432	0.322
432	0.321
432	0.321
433	0.321
433	0.321
434	0.321
434	0.321
435	0.321
435	0.321
436	0.321
436	0.321
437	0.321
437	0.321
437	0.321
438	0.321
438	0.32
439	0.32
439	0.32
440	0.32
440	0.32
441	0.32
441	0.32
442	0.319
442	0.319
442	0.319
443	0.319
443	0.319
444	0.319
444	0.319
445	0.319
445	0.319
446	0.319
446	0.319
447	0.32
447	0.32
447	0.32
448	0.32
448	0.32
449	0.32
449	0.32
450	0.32
450	0.32
451	0.32
451	0.32
452	0.32
452	0.32
452	0.32
453	0.32
453	0.32
454	0.32
454	0.321
455	0.321
455	0.321
456	0.321
456	0.321
457	0.321
457	0.321
458	0.321
458	0.321
458	0.322
459	0.322
459	0.321
460	0.321
460	0.321
461	0.321
461	0.322
462	0.322
462	0.323
463	0.323
463	0.324
463	0.324
464	0.325
464	0.325
465	0.326
465	0.326
466	0.327
466	0.327
467	0.328
467	0.328
467	0.328
468	0.328
468	0.328
469	0.329
469	0.329
470	0.33
470	0.33
471	0.33
471	0.33
472	0.33
472	0.331
472	0.332
473	0.333
473	0.334
474	0.335
474	0.335
475	0.337
475	0.338
476	0.339
476	0.34
477	0.341
477	0.342
477	0.343
478	0.343
478	0.344
479	0.345
479	0.346
480	0.346
480	0.347
481	0.348
481	0.349
482	0.35
482	0.351
482	0.353
483	0.355
483	0.357
484	0.358
484	0.359
485	0.361
485	0.363
486	0.364
486	0.365
487	0.367
487	0.368
487	0.369
488	0.37
488	0.371
489	0.373
489	0.375
490	0.377
490	0.378
491	0.38
491	0.382
492	0.384
492	0.385
492	0.387
493	0.389
493	0.391
494	0.394
494	0.396
495	0.398
495	0.4
496	0.402
496	0.405
496	0.407
497	0.409
497	0.412
498	0.414
498	0.417
499	0.419
499	0.422
500	0.425
500	0.428
501	0.431
501	0.433
501	0.435
502	0.437
502	0.44
503	0.443
503	0.445
504	0.448
504	0.451
505	0.453
505	0.457
506	0.46
506	0.463
506	0.467
507	0.47
507	0.474
508	0.477
508	0.481
509	0.484
509	0.487
510	0.49
510	0.493
511	0.496
511	0.499
511	0.502
512	0.505
512	0.507
513	0.509
513	0.511
514	0.514
514	0.516
515	0.519
515	0.521
515	0.523
516	0.525
516	0.528
517	0.53
517	0.532
518	0.534
518	0.536
519	0.537
519	0.539
520	0.541
520	0.543
520	0.545
521	0.546
521	0.547
522	0.549
522	0.55
523	0.552
523	0.554
524	0.555
524	0.556
524	0.557
525	0.558
525	0.559
526	0.56
526	0.561
527	0.562
527	0.562
528	0.562
528	0.562
529	0.562
529	0.562
529	0.562
530	0.562
530	0.562
531	0.561
531	0.56
532	0.559
532	0.559
533	0.558
533	0.557
533	0.557
534	0.556
534	0.555
535	0.554
535	0.553
536	0.552
536	0.551
537	0.549
537	0.548
538	0.547
538	0.545
538	0.543
539	0.541
539	0.54
540	0.537
540	0.535
541	0.533
541	0.53
542	0.528
542	0.526
542	0.523
543	0.52
543	0.517
544	0.514
544	0.512
545	0.51
545	0.507
546	0.505
546	0.502
547	0.498
547	0.495
547	0.492
548	0.49
548	0.487
549	0.485
549	0.482
550	0.479
550	0.476
551	0.472
551	0.469
551	0.467
552	0.464
552	0.461
553	0.458
553	0.455
554	0.452
554	0.448
555	0.445
555	0.442
556	0.438
556	0.435
556	0.432
557	0.429
557	0.426
558	0.423
558	0.419
559	0.416
559	0.413
560	0.41
560	0.407
560	0.404
561	0.402
561	0.399
562	0.396
562	0.393
563	0.39
563	0.388
564	0.386
564	0.383
564	0.381
565	0.379
565	0.377
566	0.374
566	0.372
567	0.37
567	0.368
568	0.366
568	0.363
568	0.36
569	0.358
569	0.355
570	0.352
570	0.348
571	0.346
571	0.344
572	0.341
572	0.338
573	0.336
573	0.333
573	0.33
574	0.328
574	0.326
575	0.324
575	0.324
576	0.322
576	0.319
577	0.316
577	0.315
577	0.313
578	0.312
578	0.311
579	0.311
579	0.31
580	0.307
580	0.303
581	0.3
581	0.298
581	0.297
582	0.296
582	0.296
583	0.294
583	0.292
584	0.289
584	0.286
585	0.285
585	0.285
585	0.284
586	0.283
586	0.281
587	0.278
587	0.276
588	0.274
588	0.272
589	0.271
589	0.269
590	0.267
590	0.265
590	0.265
591	0.264
591	0.262
592	0.26
592	0.258
593	0.256
593	0.255
594	0.253
594	0.252
594	0.25
595	0.249
595	0.247
596	0.245
596	0.245
597	0.245
597	0.244
598	0.243
598	0.242
598	0.241
599	0.24
599	0.239
600	0.238
600	0.237
601	0.237
601	0.236
602	0.234
602	0.233
602	0.232
603	0.232
603	0.231
604	0.23
604	0.23
605	0.229
605	0.229
606	0.227
606	0.225
606	0.224
607	0.222
607	0.221
608	0.22
608	0.218
609	0.217
609	0.216
610	0.215
610	0.213
610	0.212
611	0.212
611	0.211
612	0.21
612	0.21
613	0.209
613	0.208
614	0.206
614	0.204
614	0.203
615	0.201
615	0.199
616	0.198
616	0.197
617	0.196
617	0.195
618	0.194
618	0.192
618	0.192
619	0.191
619	0.19
620	0.191
620	0.189
621	0.188
621	0.186
622	0.185
622	0.183
622	0.181
623	0.179
623	0.178
624	0.178
624	0.176
625	0.174
625	0.174
626	0.172
626	0.171
626	0.171
627	0.17
627	0.169
628	0.169
628	0.167
629	0.166
629	0.165
630	0.163
630	0.161
630	0.16
631	0.159
631	0.157
632	0.155
632	0.152
633	0.15
633	0.148
634	0.146
634	0.144
634	0.142
635	0.139
635	0.137
636	0.134
636	0.131
637	0.129
637	0.126
638	0.123
638	0.12
638	0.117
639	0.113
639	0.109
640	0.105
640	0.1
641	0.096
641	0.092
642	0.088
642	0.084
642	0.08
643	0.075
643	0.07
644	0.065
644	0.06
645	0.055
645	0.05
646	0.045
646	0.038
646	0.032
647	0.026
647	0.019
648	0.012
648	0.005
649	-0.003
649	-0.01
650	-0.016
650	-0.023
650	-0.031
651	-0.039
651	-0.051
652	-0.063
652	-0.076
653	-0.088
653	-0.097
653	-0.092
654	-0.073
654	-0.067
655	-0.071
655	-0.076
656	-0.081
656	-0.086
657	-0.09
657	-0.094
657	-0.1
658	-0.106
658	-0.136
659	-0.217
659	-0.301
660	-0.339
660	-0.363
661	-0.388
661	-0.415
661	-0.444
662	-0.47
662	-0.497
663	-0.527
663	-0.561
664	-0.593
664	-0.63
665	-0.671
665	-0.714
665	-0.754
666	-0.801
666	-0.85
667	-0.9
667	-0.958
668	-1.014
668	-1.079
669	-1.142
669	-1.211
669	-1.285
670	-1.362
670	-1.464
671	-1.608
671	-1.91
672	-2.226
672	-2.416
672	-2.55
673	-2.655
673	-2.741
674	-2.802
674	-2.818
675	-2.834
675	-2.839
676	-2.839
676	-2.809
676	-2.738
677	-2.651
677	-2.545
678	-2.386
678	-2.116
679	-1.715
679	-1.542
680	-1.439
680	-1.364
680	-1.298
681	-1.252
681	-1.202
682	-1.16
682	-1.12
683	-1.079
683	-1.057
684	-1.031
684	-1.014
684	-0.994
685	-0.976
685	-0.968
686	-0.948
686	-0.936
687	-0.929
687	-0.919
687	-0.92
688	-0.905
688	-0.9
689	-0.904
689	-0.9
690	-0.886
690	-0.877
691	-0.874
691	-0.879
691	-0.879
692	-0.881
692	-0.877
693	-0.885
693	-0.895
694	-0.875
694	-0.876
695	-0.88
695	-0.875
695	-0.883
696	-0.891
696	-0.884
697	-0.879
697	-0.876
698	-0.87
698	-0.863
698	-0.876
699	-0.875
699	-0.876
700	-0.895
700	-0.889
701	-0.876
701	-0.871
702	-0.871
702	-0.869
702	-0.87
703	-0.861
703	-0.85
704	-0.857
704	-0.86
705	-0.848
705	-0.849
705	-0.843
706	-0.835
706	-0.831
707	-0.842
707	-0.846
708	-0.845
708	-0.841
709	-0.842
709	-0.841
709	-0.837
710	-0.843
710	-0.847
711	-0.847
711	-0.85
712	-0.841
712	-0.838
713	-0.842
713	-0.844
713	-0.823
714	-0.824
714	-0.827
715	-0.819
715	-0.827
716	-0.842
716	-0.85
716	-0.85
717	-0.855
717	-0.848
718	-0.841
718	-0.843
719	-0.838
719	-0.832
720	-0.826
720	-0.823
720	-0.818
721	-0.811
721	-0.816
722	-0.814
722	-0.809
723	-0.829
723	-0.842
723	-0.851
724	-0.849
724	-0.855
725	-0.848
725	-0.852
726	-0.853
726	-0.846
727	-0.848
727	-0.855
727	-0.845
728	-0.83
728	-0.825
729	-0.83
729	-0.833
730	-0.836
730	-0.827
730	-0.834
731	-0.835
731	-0.835
732	-0.838
732	-0.834
733	-0.85
733	-0.859
734	-0.866
734	-0.858
734	-0.843
735	-0.834
735	-0.829
736	-0.828
736	-0.823
737	-0.82
737	-0.81
737	-0.802
738	-0.787
738	-0.774
739	-0.777
739	-0.777
740	-0.791
740	-0.792
741	-0.805
741	-0.815
741	-0.826
742	-0.834
742	-0.85
743	-0.855
743	-0.86
744	-0.862
744	-0.87
744	-0.863
745	-0.87
745	-0.858
746	-0.852
746	-0.842
747	-0.844
747	-0.833
748	-0.834
748	-0.838
748	-0.84
749	-0.832
749	-0.839
750	-0.83
750	-0.83
751	-0.83
751	-0.827
751	-0.838
752	-0.841
752	-0.845
753	-0.847
753	-0.841
754	-0.86
754	-0.861
754	-0.87
755	-0.87
755	-0.861
756	-0.865
756	-0.85
757	-0.844
757	-0.833
758	-0.833
758	-0.831
758	-0.827
759	-0.831
759	-0.83
760	-0.829
760	-0.834
761	-0.827
761	-0.832
761	-0.832
762	-0.837
762	-0.837
763	-0.837
763	-0.839
764	-0.838
764	-0.833
764	-0.839
765	-0.838
765	-0.845
766	-0.848
766	-0.851
767	-0.866
767	-0.861
768	-0.86
768	-0.854
768	-0.848
769	-0.853
769	-0.861
770	-0.869
770	-0.874
771	-0.871
771	-0.871
771	-0.876
772	-0.881
772	-0.902
773	-0.904
773	-0.905
774	-0.903
774	-0.884
775	-0.87
775	-0.87
775	-0.873
776	-0.882
776	-0.878
777	-0.878
777	-0.86
778	-0.868
778	-0.878
778	-0.878
779	-0.887
779	-0.904
780	-0.9
780	-0.909
781	-0.899
781	-0.887
781	-0.902
782	-0.923
782	-0.924
783	-0.921
783	-0.929
784	-0.934
784	-0.926
784	-0.946
785	-0.939
785	-0.952
786	-0.958
786	-0.949
787	-0.94
787	-0.947
788	-0.94
788	-0.933
788	-0.934
789	-0.934
789	-0.92
790	-0.919
790	-0.901
791	-0.907
791	-0.903
791	-0.896
792	-0.89
792	-0.894
793	-0.898
793	-0.885
794	-0.879
794	-0.874
794	-0.881
795	-0.903
795	-0.891
796	-0.894
796	-0.891
797	-0.885
797	-0.875
797	-0.869
798	-0.889
798	-0.893
799	-0.891
799	-0.878
800	-0.874
800	-0.882
801	-0.881
801	-0.885
801	-0.882
802	-0.882
802	-0.883
803	-0.879
803	-0.871
804	-0.878
804	-0.886
804	-0.868
805	-0.848
805	-0.84
806	-0.842
806	-0.838
807	-0.839
807	-0.838
807	-0.82
808	-0.816
808	-0.809
809	-0.803
809	-0.804
810	-0.808
810	-0.805
810	-0.799
811	-0.803
811	-0.794
812	-0.786
812	-0.787
813	-0.792
813	-0.794
813	-0.79
814	-0.792
814	-0.796
815	-0.786
815	-0.783
816	-0.778
816	-0.796
817	-0.809
817	-0.812
817	-0.82
818	-0.813
818	-0.811
819	-0.821
819	-0.82
820	-0.832
820	-0.831
820	-0.83
821	-0.824
821	-0.82
822	-0.82
822	-0.809
823	-0.822
823	-0.821
823	-0.815
824	-0.813
824	-0.822
825	-0.822
825	-0.82
826	-0.816
826	-0.81
826	-0.81
827	-0.81
827	-0.798
828	-0.797
828	-0.791
829	-0.785
829	-0.77
829	-0.768
830	-0.767
830	-0.753
831	-0.747
831	-0.735
832	-0.726
832	-0.721
832	-0.714
833	-0.713
833	-0.718
834	-0.712
834	-0.707
835	-0.698
835	-0.697
835	-0.693
836	-0.69
836	-0.686
837	-0.675
837	-0.666
838	-0.651
838	-0.634
839	-0.63
839	-0.615
839	-0.604
840	-0.602
840	-0.593
841	-0.582
841	-0.576
842	-0.569
842	-0.556
842	-0.555
843	-0.552
843	-0.547
844	-0.547
844	-0.537
845	-0.524
845	-0.514
845	-0.502
846	-0.49
846	-0.479
847	-0.469
847	-0.456
848	-0.441
848	-0.425
848	-0.411
849	-0.397
849	-0.385
850	-0.376
850	-0.365
851	-0.351
851	-0.335
851	-0.325
852	-0.31
852	-0.297
853	-0.288
853	-0.278
854	-0.268
854	-0.257
854	-0.244
855	-0.233
855	-0.226
856	-0.218
856	-0.209
857	-0.201
857	-0.192
857	-0.178
858	-0.166
858	-0.158
859	-0.148
859	-0.136
860	-0.125
860	-0.11
860	-0.1
861	-0.091
861	-0.081
862	-0.073
862	-0.065
863	-0.057
863	-0.048
863	-0.041
864	-0.035
864	-0.029
865	-0.022
865	-0.016
866	-0.01
866	-0.005
866	0.001
867	0.006
867	0.012
868	0.016
868	0.021
869	0.026
869	0.029
869	0.031
870	0.033
870	0.035
871	0.037
871	0.038
872	0.04
872	0.041
872	0.042
873	0.042
873	0.042
874	0.041
874	0.041
875	0.041
875	0.041
875	0.041
876	0.041
876	0.04
877	0.04
877	0.039
878	0.039
878	0.039
878	0.038
879	0.038
879	0.037
880	0.037
880	0.036
881	0.035
881	0.034
881	0.033
882	0.031
882	0.03
883	0.028
883	0.027
884	0.026
884	0.026
884	0.025
885	0.025
885	0.025
886	0.025
886	0.024
887	0.024
887	0.024
887	0.023
888	0.023
888	0.023
889	0.022
889	0.021
890	0.02
890	0.02
890	0.019
891	0.019
891	0.019
892	0.019
892	0.02
893	0.019
893	0.019
893	0.019
894	0.019
894	0.02
895	0.02
895	0.019
895	0.019
896	0.019
896	0.019
897	0.019
897	0.019
898	0.019
898	0.019
898	0.019
899	0.019
899	0.019
900	0.019
900	0.019
901	0.019
901	0.018
901	0.018
902	0.018
902	0.018
903	0.018
903	0.018
904	0.017
904	0.017
904	0.018
905	0.018
905	0.019
906	0.02
906	0.021
907	0.021
907	0.021
907	0.022
908	0.022
908	0.023
909	0.023
909	0.023
910	0.023
910	0.023
910	0.024
911	0.024
911	0.024
912	0.025
912	0.026
913	0.027
913	0.027
913	0.027
914	0.028
914	0.028
915	0.029
915	0.029
916	0.029
916	0.029
916	0.029
917	0.029
917	0.029
918	0.029
918	0.028
918	0.028
919	0.028
919	0.028
920	0.029
920	0.03
921	0.03
921	0.031
921	0.032
922	0.032
922	0.033
923	0.033
923	0.033
924	0.033
924	0.033
924	0.032
925	0.031
925	0.03
926	0.029
926	0.028
927	0.027
927	0.025
927	0.025
928	0.024
928	0.024
929	0.024
929	0.024
930	0.025
930	0.025
930	0.026
931	0.027
931	0.028
932	0.029
932	0.03
933	0.031
933	0.032
933	0.032
934	0.031
934	0.031
935	0.03
935	0.029
935	0.028
936	0.027
936	0.026
937	0.024
937	0.023
938	0.023
938	0.022
938	0.021
939	0.02
939	0.02
940	0.019
940	0.019
941	0.018
941	0.017
941	0.017
942	0.016
942	0.016
943	0.016
943	0.015
944	0.014
944	0.013
944	0.013
945	0.012
945	0.012
946	0.012
946	0.011
946	0.011
947	0.011
947	0.011
948	0.011
948	0.012
949	0.013
949	0.014
949	0.016
950	0.017
950	0.019
951	0.021
951	0.021
952	0.022
952	0.024
952	0.025
953	0.025
953	0.026
954	0.025
954	0.025
955	0.025
955	0.024
955	0.024
956	0.023
956	0.023
957	0.022
957	0.021
957	0.02
958	0.019
958	0.019
959	0.018
959	0.018
960	0.018
960	0.018
960	0.018
961	0.018
961	0.018
962	0.018
962	0.019
963	0.019
963	0.019
963	0.019
964	0.02
964	0.02
965	0.02
965	0.02
966	0.021
966	0.021
966	0.021
967	0.021
967	0.021
968	0.021
968	0.021
968	0.021
969	0.021
969	0.02
970	0.02
970	0.02
971	0.02
971	0.02
971	0.02
972	0.021
972	0.021
973	0.021
973	0.021
974	0.021
974	0.021
974	0.022
975	0.022
975	0.022
976	0.022
976	0.022
976	0.022
977	0.021
977	0.021
978	0.02
978	0.019
979	0.019
979	0.018
979	0.018
980	0.018
980	0.018
981	0.018
981	0.018
982	0.018
982	0.018
982	0.019
983	0.019
983	0.018
984	0.019
984	0.018
984	0.018
985	0.017
985	0.017
986	0.016
986	0.015
987	0.014
987	0.014
987	0.013
988	0.012
988	0.011
989	0.011
989	0.01
990	0.009
990	0.008
990	0.008
991	0.007
991	0.006
992	0.006
992	0.005
992	0.004
993	0.004
993	0.003
994	0.002
994	0
995	-0.001
995	-0.003
995	-0.004
996	-0.005
996	-0.007
997	-0.008
997	-0.009
997	-0.01
998	-0.01
998	-0.01
999	-0.01
999	-0.01
1000	-0.009
1000	-0.009
1000	-0.008
1001	-0.007
1001	-0.007
1002	-0.006
1002	-0.006
1003	-0.006
1003	-0.006
1003	-0.006
1004	-0.006
1004	-0.006
1005	-0.006
1005	-0.007
1005	-0.008
1006	-0.009
1006	-0.01
1007	-0.01
1007	-0.011
1008	-0.012
1008	-0.013
1008	-0.013
1009	-0.013
1009	-0.013
1010	-0.012
1010	-0.012
1010	-0.011
1011	-0.01
1011	-0.01
1012	-0.008
1012	-0.007
1013	-0.006
1013	-0.005
1013	-0.004
1014	-0.003
1014	-0.003
1015	-0.002
1015	-0.002
1016	-0.001
1016	-0.001
1016	-0.002
1017	-0.002
1017	-0.002
1018	-0.002
1018	-0.002
1018	-0.002
1019	-0.003
1019	-0.003
1020	-0.003
1020	-0.004
1021	-0.004
1021	-0.004
1021	-0.005
1022	-0.005
1022	-0.005
1023	-0.005
1023	-0.005
1023	-0.005
1024	-0.005
1024	-0.004
1025	-0.004
1025	-0.003
1026	-0.003
1026	-0.003
1026	-0.003
1027	-0.003
1027	-0.002
1028	-0.001
1028	-0.001
1028	-0.001
1029	-0.001
1029	-0
1030	-0.001
1030	-0.001
1031	-0.001
1031	-0
1031	-0
1032	-0
1032	-0
1033	-0.001
1033	-0.001
1033	-0.001
1034	-0.002
1034	-0.002
1035	-0.002
1035	-0.003
1036	-0.004
1036	-0.004
1036	-0.004
1037	-0.004
1037	-0.004
1038	-0.004
1038	-0.003
1039	-0.003
1039	-0.003
1039	-0.002
1040	-0.002
1040	-0.001
1041	-0.001
1041	-0.001
1041	-0.002
1042	-0.003
1042	-0.003
1043	-0.004
1043	-0.005
1044	-0.006
1044	-0.007
1044	-0.008
1045	-0.009
1045	-0.009
1046	-0.01
1046	-0.01
1046	-0.01
1047	-0.011
1047	-0.01
1048	-0.01
1048	-0.01
1049	-0.01
1049	-0.01
1049	-0.01
1050	-0.011
1050	-0.011
1051	-0.012
1051	-0.013
1051	-0.013
1052	-0.014
1052	-0.015
1053	-0.015
1053	-0.016
1053	-0.017
1054	-0.017
1054	-0.018
1055	-0.018
1055	-0.018
1056	-0.018
1056	-0.018
1056	-0.018
1057	-0.019
1057	-0.019
1058	-0.019
1058	-0.019
1058	-0.019
1059	-0.019
1059	-0.02
1060	-0.021
1060	-0.021
1061	-0.022
1061	-0.021
1061	-0.021
1062	-0.022
1062	-0.022
1063	-0.022
1063	-0.022
1063	-0.022
1064	-0.021
1064	-0.021
1065	-0.02
1065	-0.02
1066	-0.021
1066	-0.021
1066	-0.021
1067	-0.022
1067	-0.022
1068	-0.023
1068	-0.024
1068	-0.025
1069	-0.025
1069	-0.026
1070	-0.027
1070	-0.027
1071	-0.028
1071	-0.028
1071	-0.029
1072	-0.029
1072	-0.029
1073	-0.029
1073	-0.029
1073	-0.03
1074	-0.03
1074	-0.03
1075	-0.031
1075	-0.031
1076	-0.033
1076	-0.033
1076	-0.034
1077	-0.035
1077	-0.035
1078	-0.036
1078	-0.037
1078	-0.037
1079	-0.038
1079	-0.038
1080	-0.04
1080	-0.04
1080	-0.042
1081	-0.043
1081	-0.044
1082	-0.044
1082	-0.046
1083	-0.047
1083	-0.048
1083	-0.049
1084	-0.051
1084	-0.051
1085	-0.052
1085	-0.053
1085	-0.054
1086	-0.054
1086	-0.056
1087	-0.056
1087	-0.057
1088	-0.058
1088	-0.059
1088	-0.06
1089	-0.061
1089	-0.062
1090	-0.063
1090	-0.063
1090	-0.065
1091	-0.066
1091	-0.067
1092	-0.067
1092	-0.066
1092	-0.067
1093	-0.068
1093	-0.068
1094	-0.068
1094	-0.069
1095	-0.071
1095	-0.071
1095	-0.071
1096	-0.073
1096	-0.074
1097	-0.076
1097	-0.078
1097	-0.079
1098	-0.081
1098	-0.084
1099	-0.085
1099	-0.087
1100	-0.09
1100	-0.092
1100	-0.095
1101	-0.099
1101	-0.102
1102	-0.104
1102	-0.106
1102	-0.108
1103	-0.11
1103	-0.113
1104	-0.116
1104	-0.119
1104	-0.122
1105	-0.124
1105	-0.127
1106	-0.132
1106	-0.134
1107	-0.14
1107	-0.146
1107	-0.151
1108	-0.153
1108	-0.154
1109	-0.158
1109	-0.163
1109	-0.167
1110	-0.169
1110	-0.173
1111	-0.185
1111	-0.18
