Data from 3.4A_17C_Absorbance__244__02156.txt Node

Date: Tue Jun 20 16:33:12 CEST 2023
User: Marek
Spectrometer: MAYP115816
Trigger mode: 0
Integration Time (sec): 2.200000E-1
Scans to average: 10
Electric dark correction enabled: true
Nonlinearity correction enabled: true
Boxcar width: 5
XAxis mode: Wavelengths
Number of Pixels in Spectrum: 2068
>>>>>Begin Spectral Data<<<<<
199	-0.798
199	-0.786
200	-0.747
200	-0.692
201	-0.665
201	-0.657
202	-0.641
202	-0.634
203	-0.634
203	-0.625
204	-0.605
204	-0.589
205	-0.564
205	-0.555
205	-0.565
206	-0.567
206	-0.561
207	-0.552
207	-0.558
208	-0.559
208	-0.563
209	-0.565
209	-0.573
210	-0.586
210	-0.594
211	-0.587
211	-0.592
212	-0.601
212	-0.609
213	-0.605
213	-0.602
213	-0.6
214	-0.607
214	-0.608
215	-0.605
215	-0.609
216	-0.618
216	-0.623
217	-0.621
217	-0.622
218	-0.63
218	-0.631
219	-0.638
219	-0.639
220	-0.642
220	-0.649
221	-0.649
221	-0.65
221	-0.641
222	-0.641
222	-0.638
223	-0.634
223	-0.638
224	-0.638
224	-0.638
225	-0.636
225	-0.638
226	-0.639
226	-0.639
227	-0.647
227	-0.656
228	-0.661
228	-0.67
229	-0.674
229	-0.673
229	-0.671
230	-0.665
230	-0.661
231	-0.657
231	-0.651
232	-0.655
232	-0.649
233	-0.647
233	-0.635
234	-0.634
234	-0.628
235	-0.633
235	-0.645
236	-0.652
236	-0.655
236	-0.656
237	-0.653
237	-0.655
238	-0.656
238	-0.659
239	-0.662
239	-0.671
240	-0.664
240	-0.661
241	-0.656
241	-0.657
242	-0.661
242	-0.669
243	-0.668
243	-0.67
243	-0.673
244	-0.67
244	-0.673
245	-0.675
245	-0.679
246	-0.69
246	-0.692
247	-0.7
247	-0.686
248	-0.686
248	-0.688
249	-0.693
249	-0.697
250	-0.696
250	-0.705
250	-0.701
251	-0.701
251	-0.698
252	-0.698
252	-0.71
253	-0.705
253	-0.717
254	-0.722
254	-0.721
255	-0.73
255	-0.729
256	-0.733
256	-0.745
257	-0.755
257	-0.751
258	-0.753
258	-0.762
258	-0.762
259	-0.755
259	-0.774
260	-0.773
260	-0.761
261	-0.77
261	-0.755
262	-0.761
262	-0.761
263	-0.751
263	-0.755
264	-0.762
264	-0.763
265	-0.753
265	-0.756
265	-0.766
266	-0.758
266	-0.76
267	-0.758
267	-0.775
268	-0.782
268	-0.776
269	-0.769
269	-0.784
270	-0.789
270	-0.79
271	-0.803
271	-0.812
272	-0.813
272	-0.817
272	-0.81
273	-0.822
273	-0.837
274	-0.829
274	-0.823
275	-0.82
275	-0.806
276	-0.81
276	-0.816
277	-0.816
277	-0.813
278	-0.817
278	-0.816
278	-0.804
279	-0.812
279	-0.827
280	-0.829
280	-0.842
281	-0.835
281	-0.828
282	-0.835
282	-0.831
283	-0.824
283	-0.837
284	-0.849
284	-0.859
285	-0.839
285	-0.846
285	-0.837
286	-0.845
286	-0.861
287	-0.855
287	-0.854
288	-0.854
288	-0.837
289	-0.838
289	-0.845
290	-0.854
290	-0.84
291	-0.843
291	-0.841
292	-0.82
292	-0.819
292	-0.823
293	-0.811
293	-0.806
294	-0.805
294	-0.791
295	-0.772
295	-0.786
296	-0.798
296	-0.79
297	-0.778
297	-0.783
298	-0.78
298	-0.797
298	-0.801
299	-0.782
299	-0.775
300	-0.771
300	-0.752
301	-0.733
301	-0.737
302	-0.749
302	-0.733
303	-0.726
303	-0.712
304	-0.697
304	-0.701
305	-0.692
305	-0.701
305	-0.717
306	-0.701
306	-0.7
307	-0.69
307	-0.701
308	-0.704
308	-0.701
309	-0.702
309	-0.698
310	-0.696
310	-0.691
311	-0.677
311	-0.697
311	-0.684
312	-0.684
312	-0.674
313	-0.667
313	-0.667
314	-0.67
314	-0.669
315	-0.665
315	-0.658
316	-0.652
316	-0.641
317	-0.632
317	-0.627
318	-0.618
318	-0.615
318	-0.605
319	-0.596
319	-0.586
320	-0.585
320	-0.582
321	-0.577
321	-0.577
322	-0.571
322	-0.563
323	-0.564
323	-0.554
324	-0.552
324	-0.539
324	-0.529
325	-0.515
325	-0.498
326	-0.491
326	-0.465
327	-0.449
327	-0.426
328	-0.392
328	-0.367
329	-0.338
329	-0.309
330	-0.281
330	-0.243
330	-0.205
331	-0.166
331	-0.131
332	-0.094
332	-0.058
333	-0.027
333	0.009
334	0.041
334	0.067
335	0.097
335	0.12
336	0.144
336	0.168
336	0.187
337	0.206
337	0.225
338	0.241
338	0.253
339	0.269
339	0.283
340	0.292
340	0.302
341	0.31
341	0.316
342	0.324
342	0.331
342	0.336
343	0.34
343	0.346
344	0.35
344	0.353
345	0.357
345	0.359
346	0.362
346	0.364
347	0.366
347	0.368
348	0.369
348	0.371
348	0.372
349	0.373
349	0.374
350	0.375
350	0.376
351	0.376
351	0.376
352	0.377
352	0.377
353	0.377
353	0.378
354	0.378
354	0.378
354	0.378
355	0.378
355	0.377
356	0.378
356	0.378
357	0.378
357	0.378
358	0.378
358	0.378
359	0.378
359	0.378
360	0.378
360	0.378
360	0.379
361	0.378
361	0.378
362	0.378
362	0.378
363	0.378
363	0.378
364	0.378
364	0.378
365	0.378
365	0.378
366	0.378
366	0.378
366	0.378
367	0.378
367	0.378
368	0.377
368	0.377
369	0.376
369	0.376
370	0.376
370	0.375
371	0.375
371	0.375
372	0.374
372	0.374
372	0.374
373	0.374
373	0.373
374	0.373
374	0.373
375	0.372
375	0.372
376	0.371
376	0.371
377	0.371
377	0.37
378	0.369
378	0.369
378	0.369
379	0.368
379	0.368
380	0.368
380	0.368
381	0.367
381	0.367
382	0.367
382	0.366
383	0.366
383	0.366
383	0.365
384	0.365
384	0.365
385	0.364
385	0.364
386	0.364
386	0.363
387	0.363
387	0.363
388	0.362
388	0.362
389	0.362
389	0.362
389	0.361
390	0.361
390	0.361
391	0.361
391	0.36
392	0.36
392	0.36
393	0.359
393	0.359
394	0.359
394	0.358
394	0.358
395	0.357
395	0.357
396	0.356
396	0.356
397	0.356
397	0.355
398	0.355
398	0.354
399	0.354
399	0.354
400	0.353
400	0.353
400	0.353
401	0.352
401	0.352
402	0.351
402	0.351
403	0.351
403	0.351
404	0.35
404	0.35
405	0.349
405	0.349
405	0.348
406	0.348
406	0.348
407	0.348
407	0.347
408	0.347
408	0.346
409	0.346
409	0.346
410	0.346
410	0.346
411	0.346
411	0.346
411	0.345
412	0.345
412	0.344
413	0.344
413	0.344
414	0.344
414	0.343
415	0.343
415	0.342
416	0.342
416	0.342
416	0.341
417	0.341
417	0.341
418	0.341
418	0.341
419	0.341
419	0.341
420	0.34
420	0.34
421	0.34
421	0.34
421	0.34
422	0.34
422	0.34
423	0.34
423	0.34
424	0.339
424	0.339
425	0.339
425	0.339
426	0.339
426	0.339
427	0.339
427	0.339
427	0.339
428	0.338
428	0.338
429	0.338
429	0.337
430	0.337
430	0.337
431	0.336
431	0.336
432	0.336
432	0.335
432	0.335
433	0.335
433	0.335
434	0.335
434	0.335
435	0.335
435	0.336
436	0.335
436	0.335
437	0.335
437	0.335
437	0.335
438	0.335
438	0.335
439	0.335
439	0.334
440	0.334
440	0.334
441	0.334
441	0.334
442	0.334
442	0.334
442	0.334
443	0.334
443	0.334
444	0.334
444	0.334
445	0.334
445	0.334
446	0.334
446	0.334
447	0.334
447	0.334
447	0.334
448	0.335
448	0.335
449	0.335
449	0.335
450	0.335
450	0.335
451	0.335
451	0.335
452	0.335
452	0.335
452	0.335
453	0.335
453	0.335
454	0.335
454	0.336
455	0.336
455	0.336
456	0.337
456	0.337
457	0.337
457	0.337
458	0.337
458	0.337
458	0.337
459	0.337
459	0.337
460	0.336
460	0.336
461	0.337
461	0.337
462	0.338
462	0.338
463	0.339
463	0.34
463	0.34
464	0.341
464	0.341
465	0.342
465	0.343
466	0.343
466	0.344
467	0.344
467	0.344
467	0.345
468	0.345
468	0.345
469	0.346
469	0.346
470	0.347
470	0.347
471	0.347
471	0.348
472	0.348
472	0.349
472	0.35
473	0.351
473	0.352
474	0.353
474	0.354
475	0.355
475	0.356
476	0.357
476	0.358
477	0.359
477	0.36
477	0.361
478	0.362
478	0.363
479	0.364
479	0.365
480	0.366
480	0.367
481	0.368
481	0.369
482	0.371
482	0.372
482	0.373
483	0.375
483	0.378
484	0.379
484	0.38
485	0.382
485	0.384
486	0.386
486	0.387
487	0.389
487	0.39
487	0.392
488	0.393
488	0.395
489	0.397
489	0.399
490	0.401
490	0.403
491	0.405
491	0.407
492	0.409
492	0.411
492	0.412
493	0.414
493	0.417
494	0.42
494	0.423
495	0.425
495	0.427
496	0.43
496	0.432
496	0.435
497	0.438
497	0.441
498	0.443
498	0.446
499	0.448
499	0.451
500	0.455
500	0.458
501	0.461
501	0.464
501	0.467
502	0.47
502	0.473
503	0.476
503	0.479
504	0.482
504	0.485
505	0.488
505	0.491
506	0.495
506	0.498
506	0.502
507	0.505
507	0.509
508	0.513
508	0.517
509	0.52
509	0.524
510	0.527
510	0.531
511	0.534
511	0.538
511	0.54
512	0.544
512	0.546
513	0.548
513	0.551
514	0.554
514	0.557
515	0.559
515	0.561
515	0.563
516	0.566
516	0.569
517	0.572
517	0.574
518	0.576
518	0.578
519	0.58
519	0.582
520	0.584
520	0.587
520	0.589
521	0.589
521	0.591
522	0.592
522	0.594
523	0.596
523	0.598
524	0.599
524	0.6
524	0.601
525	0.602
525	0.603
526	0.605
526	0.605
527	0.606
527	0.606
528	0.606
528	0.606
529	0.606
529	0.607
529	0.606
530	0.606
530	0.605
531	0.604
531	0.603
532	0.602
532	0.601
533	0.601
533	0.6
533	0.599
534	0.597
534	0.596
535	0.595
535	0.594
536	0.592
536	0.59
537	0.589
537	0.587
538	0.585
538	0.583
538	0.58
539	0.578
539	0.576
540	0.574
540	0.571
541	0.568
541	0.566
542	0.563
542	0.56
542	0.557
543	0.553
543	0.55
544	0.547
544	0.544
545	0.541
545	0.538
546	0.534
546	0.53
547	0.527
547	0.523
547	0.52
548	0.517
548	0.514
549	0.511
549	0.508
550	0.504
550	0.5
551	0.496
551	0.493
551	0.489
552	0.485
552	0.482
553	0.479
553	0.475
554	0.471
554	0.467
555	0.463
555	0.459
556	0.455
556	0.451
556	0.447
557	0.444
557	0.44
558	0.436
558	0.432
559	0.428
559	0.424
560	0.419
560	0.415
560	0.412
561	0.409
561	0.406
562	0.403
562	0.399
563	0.396
563	0.393
564	0.39
564	0.387
564	0.384
565	0.382
565	0.379
566	0.376
566	0.372
567	0.37
567	0.367
568	0.363
568	0.36
568	0.357
569	0.354
569	0.351
570	0.347
570	0.343
571	0.34
571	0.337
572	0.334
572	0.331
573	0.328
573	0.324
573	0.321
574	0.319
574	0.317
575	0.314
575	0.313
576	0.311
576	0.307
577	0.304
577	0.302
577	0.3
578	0.299
578	0.297
579	0.296
579	0.294
580	0.291
580	0.286
581	0.283
581	0.281
581	0.28
582	0.278
582	0.277
583	0.275
583	0.273
584	0.269
584	0.265
585	0.265
585	0.264
585	0.262
586	0.26
586	0.258
587	0.255
587	0.253
588	0.25
588	0.248
589	0.246
589	0.244
590	0.242
590	0.24
590	0.239
591	0.238
591	0.235
592	0.233
592	0.231
593	0.229
593	0.228
594	0.226
594	0.224
594	0.222
595	0.22
595	0.217
596	0.215
596	0.214
597	0.214
597	0.213
598	0.211
598	0.21
598	0.209
599	0.208
599	0.207
600	0.205
600	0.205
601	0.204
601	0.203
602	0.201
602	0.2
602	0.199
603	0.198
603	0.198
604	0.197
604	0.196
605	0.195
605	0.195
606	0.193
606	0.191
606	0.189
607	0.188
607	0.187
608	0.185
608	0.183
609	0.181
609	0.181
610	0.179
610	0.177
610	0.176
611	0.175
611	0.174
612	0.173
612	0.173
613	0.172
613	0.171
614	0.169
614	0.167
614	0.165
615	0.163
615	0.162
616	0.161
616	0.159
617	0.158
617	0.157
618	0.155
618	0.154
618	0.153
619	0.153
619	0.152
620	0.152
620	0.151
621	0.149
621	0.148
622	0.146
622	0.145
622	0.143
623	0.141
623	0.141
624	0.14
624	0.138
625	0.137
625	0.136
626	0.135
626	0.134
626	0.134
627	0.133
627	0.132
628	0.132
628	0.131
629	0.129
629	0.128
630	0.126
630	0.125
630	0.124
631	0.123
631	0.121
632	0.119
632	0.117
633	0.115
633	0.113
634	0.112
634	0.11
634	0.108
635	0.106
635	0.104
636	0.102
636	0.1
637	0.097
637	0.095
638	0.092
638	0.09
638	0.087
639	0.083
639	0.08
640	0.076
640	0.073
641	0.069
641	0.065
642	0.062
642	0.058
642	0.054
643	0.05
643	0.046
644	0.041
644	0.037
645	0.032
645	0.028
646	0.024
646	0.018
646	0.013
647	0.007
647	0.001
648	-0.005
648	-0.012
649	-0.018
649	-0.024
650	-0.03
650	-0.036
650	-0.043
651	-0.051
651	-0.061
652	-0.072
652	-0.084
653	-0.095
653	-0.103
653	-0.098
654	-0.08
654	-0.076
655	-0.08
655	-0.083
656	-0.088
656	-0.093
657	-0.096
657	-0.1
657	-0.105
658	-0.11
658	-0.137
659	-0.212
659	-0.287
660	-0.32
660	-0.342
661	-0.365
661	-0.391
661	-0.417
662	-0.439
662	-0.463
663	-0.489
663	-0.52
664	-0.548
664	-0.58
665	-0.616
665	-0.653
665	-0.688
666	-0.728
666	-0.773
667	-0.817
667	-0.87
668	-0.921
668	-0.981
669	-1.041
669	-1.106
669	-1.176
670	-1.249
670	-1.352
671	-1.519
671	-1.849
672	-2.197
672	-2.397
672	-2.537
673	-2.645
673	-2.734
674	-2.779
674	-2.793
675	-2.808
675	-2.813
676	-2.813
676	-2.783
676	-2.706
677	-2.61
677	-2.49
678	-2.302
678	-1.939
679	-1.557
679	-1.404
680	-1.313
680	-1.245
680	-1.187
681	-1.149
681	-1.105
682	-1.07
682	-1.034
683	-0.999
683	-0.982
684	-0.961
684	-0.948
684	-0.932
685	-0.917
685	-0.914
686	-0.895
686	-0.886
687	-0.882
687	-0.876
687	-0.879
688	-0.867
688	-0.862
689	-0.868
689	-0.867
690	-0.856
690	-0.847
691	-0.846
691	-0.85
691	-0.852
692	-0.853
692	-0.85
693	-0.858
693	-0.871
694	-0.852
694	-0.852
695	-0.857
695	-0.852
695	-0.861
696	-0.869
696	-0.863
697	-0.858
697	-0.855
698	-0.851
698	-0.844
698	-0.86
699	-0.86
699	-0.859
700	-0.88
700	-0.876
701	-0.863
701	-0.857
702	-0.859
702	-0.86
702	-0.862
703	-0.852
703	-0.839
704	-0.847
704	-0.852
705	-0.841
705	-0.841
705	-0.836
706	-0.83
706	-0.824
707	-0.834
707	-0.837
708	-0.836
708	-0.835
709	-0.836
709	-0.833
709	-0.828
710	-0.835
710	-0.837
711	-0.835
711	-0.837
712	-0.828
712	-0.827
713	-0.834
713	-0.835
713	-0.814
714	-0.817
714	-0.821
715	-0.813
715	-0.822
716	-0.84
716	-0.849
716	-0.851
717	-0.856
717	-0.847
718	-0.841
718	-0.843
719	-0.839
719	-0.831
720	-0.826
720	-0.823
720	-0.815
721	-0.806
721	-0.811
722	-0.807
722	-0.804
723	-0.822
723	-0.833
723	-0.84
724	-0.839
724	-0.845
725	-0.839
725	-0.844
726	-0.848
726	-0.837
727	-0.841
727	-0.848
727	-0.839
728	-0.826
728	-0.824
729	-0.828
729	-0.83
730	-0.834
730	-0.824
730	-0.83
731	-0.833
731	-0.832
732	-0.835
732	-0.831
733	-0.846
733	-0.85
734	-0.858
734	-0.851
734	-0.833
735	-0.825
735	-0.82
736	-0.818
736	-0.815
737	-0.815
737	-0.804
737	-0.797
738	-0.783
738	-0.77
739	-0.773
739	-0.775
740	-0.788
740	-0.789
741	-0.801
741	-0.809
741	-0.818
742	-0.825
742	-0.842
743	-0.85
743	-0.854
744	-0.857
744	-0.865
744	-0.858
745	-0.867
745	-0.856
746	-0.851
746	-0.842
747	-0.845
747	-0.834
748	-0.836
748	-0.84
748	-0.839
749	-0.832
749	-0.841
750	-0.831
750	-0.832
751	-0.833
751	-0.831
751	-0.842
752	-0.846
752	-0.848
753	-0.848
753	-0.842
754	-0.86
754	-0.86
754	-0.869
755	-0.869
755	-0.861
756	-0.863
756	-0.849
757	-0.841
757	-0.829
758	-0.832
758	-0.831
758	-0.83
759	-0.833
759	-0.832
760	-0.831
760	-0.832
761	-0.826
761	-0.831
761	-0.832
762	-0.838
762	-0.839
763	-0.839
763	-0.84
764	-0.839
764	-0.834
764	-0.839
765	-0.838
765	-0.845
766	-0.847
766	-0.848
767	-0.864
767	-0.858
768	-0.858
768	-0.851
768	-0.846
769	-0.851
769	-0.86
770	-0.87
770	-0.875
771	-0.871
771	-0.871
771	-0.875
772	-0.88
772	-0.9
773	-0.901
773	-0.9
774	-0.898
774	-0.878
775	-0.865
775	-0.864
775	-0.867
776	-0.877
776	-0.872
777	-0.871
777	-0.854
778	-0.862
778	-0.872
778	-0.872
779	-0.881
779	-0.897
780	-0.892
780	-0.902
781	-0.891
781	-0.881
781	-0.896
782	-0.916
782	-0.919
783	-0.918
783	-0.926
784	-0.93
784	-0.924
784	-0.944
785	-0.937
785	-0.951
786	-0.953
786	-0.947
787	-0.938
787	-0.945
788	-0.937
788	-0.931
788	-0.931
789	-0.93
789	-0.919
790	-0.917
790	-0.9
791	-0.91
791	-0.904
791	-0.898
792	-0.891
792	-0.896
793	-0.898
793	-0.888
794	-0.882
794	-0.876
794	-0.885
795	-0.906
795	-0.891
796	-0.896
796	-0.892
797	-0.886
797	-0.877
797	-0.869
798	-0.889
798	-0.894
799	-0.893
799	-0.877
800	-0.873
800	-0.882
801	-0.88
801	-0.883
801	-0.879
802	-0.878
802	-0.877
803	-0.872
803	-0.864
804	-0.87
804	-0.879
804	-0.862
805	-0.845
805	-0.837
806	-0.838
806	-0.833
807	-0.836
807	-0.835
807	-0.82
808	-0.816
808	-0.807
809	-0.803
809	-0.803
810	-0.806
810	-0.802
810	-0.798
811	-0.802
811	-0.793
812	-0.787
812	-0.788
813	-0.792
813	-0.793
813	-0.787
814	-0.786
814	-0.791
815	-0.782
815	-0.78
816	-0.775
816	-0.792
817	-0.804
817	-0.807
817	-0.816
818	-0.809
818	-0.808
819	-0.818
819	-0.815
820	-0.828
820	-0.827
820	-0.827
821	-0.822
821	-0.819
822	-0.819
822	-0.808
823	-0.822
823	-0.821
823	-0.816
824	-0.815
824	-0.825
825	-0.824
825	-0.821
826	-0.816
826	-0.81
826	-0.808
827	-0.809
827	-0.799
828	-0.799
828	-0.793
829	-0.785
829	-0.77
829	-0.768
830	-0.768
830	-0.755
831	-0.749
831	-0.739
832	-0.729
832	-0.722
832	-0.716
833	-0.714
833	-0.719
834	-0.715
834	-0.708
835	-0.699
835	-0.699
835	-0.693
836	-0.687
836	-0.684
837	-0.674
837	-0.664
838	-0.651
838	-0.633
839	-0.629
839	-0.617
839	-0.608
840	-0.605
840	-0.595
841	-0.586
841	-0.578
842	-0.57
842	-0.557
842	-0.555
843	-0.553
843	-0.547
844	-0.545
844	-0.535
845	-0.522
845	-0.514
845	-0.503
846	-0.492
846	-0.483
847	-0.473
847	-0.46
848	-0.446
848	-0.428
848	-0.414
849	-0.402
849	-0.389
850	-0.379
850	-0.369
851	-0.355
851	-0.337
851	-0.328
852	-0.311
852	-0.298
853	-0.291
853	-0.28
854	-0.269
854	-0.259
854	-0.247
855	-0.236
855	-0.229
856	-0.223
856	-0.215
857	-0.209
857	-0.201
857	-0.187
858	-0.177
858	-0.169
859	-0.158
859	-0.146
860	-0.136
860	-0.122
860	-0.111
861	-0.101
861	-0.091
862	-0.083
862	-0.076
863	-0.067
863	-0.059
863	-0.053
864	-0.047
864	-0.04
865	-0.034
865	-0.028
866	-0.023
866	-0.018
866	-0.013
867	-0.007
867	-0.002
868	0.001
868	0.006
869	0.011
869	0.015
869	0.017
870	0.019
870	0.021
871	0.023
871	0.024
872	0.025
872	0.026
872	0.028
873	0.028
873	0.028
874	0.027
874	0.027
875	0.027
875	0.027
875	0.026
876	0.026
876	0.026
877	0.025
877	0.025
878	0.024
878	0.024
878	0.024
879	0.024
879	0.023
880	0.023
880	0.022
881	0.021
881	0.02
881	0.019
882	0.018
882	0.017
883	0.015
883	0.014
884	0.014
884	0.013
884	0.013
885	0.013
885	0.012
886	0.012
886	0.012
887	0.011
887	0.011
887	0.011
888	0.011
888	0.01
889	0.009
889	0.009
890	0.008
890	0.008
890	0.007
891	0.007
891	0.007
892	0.007
892	0.008
893	0.008
893	0.008
893	0.007
894	0.007
894	0.007
895	0.007
895	0.006
895	0.006
896	0.006
896	0.006
897	0.006
897	0.006
898	0.006
898	0.006
898	0.007
899	0.007
899	0.007
900	0.007
900	0.006
901	0.006
901	0.006
901	0.005
902	0.005
902	0.005
903	0.005
903	0.005
904	0.005
904	0.005
904	0.005
905	0.006
905	0.007
906	0.008
906	0.008
907	0.009
907	0.009
907	0.009
908	0.01
908	0.01
909	0.01
909	0.011
910	0.011
910	0.011
910	0.011
911	0.011
911	0.012
912	0.013
912	0.014
913	0.014
913	0.015
913	0.015
914	0.016
914	0.016
915	0.016
915	0.017
916	0.017
916	0.017
916	0.017
917	0.016
917	0.016
918	0.016
918	0.016
918	0.016
919	0.016
919	0.016
920	0.016
920	0.017
921	0.018
921	0.019
921	0.019
922	0.02
922	0.02
923	0.021
923	0.021
924	0.021
924	0.02
924	0.02
925	0.019
925	0.018
926	0.017
926	0.016
927	0.015
927	0.014
927	0.013
928	0.012
928	0.012
929	0.013
929	0.013
930	0.013
930	0.014
930	0.014
931	0.015
931	0.016
932	0.018
932	0.019
933	0.02
933	0.02
933	0.02
934	0.02
934	0.019
935	0.019
935	0.018
935	0.017
936	0.015
936	0.014
937	0.013
937	0.012
938	0.011
938	0.01
938	0.01
939	0.009
939	0.008
940	0.008
940	0.007
941	0.006
941	0.005
941	0.005
942	0.004
942	0.004
943	0.004
943	0.003
944	0.002
944	0.001
944	0.001
945	0.001
945	0.001
946	0
946	-0.001
946	-0.001
947	-0
947	-0.001
948	-0
948	0.001
949	0.001
949	0.003
949	0.004
950	0.006
950	0.007
951	0.009
951	0.01
952	0.01
952	0.011
952	0.012
953	0.013
953	0.014
954	0.013
954	0.014
955	0.014
955	0.013
955	0.013
956	0.013
956	0.013
957	0.012
957	0.011
957	0.01
958	0.009
958	0.009
959	0.008
959	0.008
960	0.008
960	0.007
960	0.008
961	0.008
961	0.008
962	0.008
962	0.009
963	0.009
963	0.009
963	0.01
964	0.01
964	0.011
965	0.011
965	0.011
966	0.011
966	0.011
966	0.012
967	0.012
967	0.012
968	0.011
968	0.011
968	0.011
969	0.01
969	0.01
970	0.01
970	0.01
971	0.01
971	0.01
971	0.01
972	0.011
972	0.011
973	0.011
973	0.011
974	0.012
974	0.012
974	0.012
975	0.013
975	0.013
976	0.012
976	0.012
976	0.012
977	0.012
977	0.011
978	0.011
978	0.01
979	0.01
979	0.009
979	0.009
980	0.009
980	0.009
981	0.009
981	0.009
982	0.009
982	0.009
982	0.009
983	0.009
983	0.009
984	0.009
984	0.008
984	0.008
985	0.008
985	0.007
986	0.006
986	0.006
987	0.005
987	0.004
987	0.004
988	0.003
988	0.002
989	0.001
989	0
990	-0
990	-0.001
990	-0.002
991	-0.002
991	-0.003
992	-0.003
992	-0.004
992	-0.005
993	-0.005
993	-0.006
994	-0.007
994	-0.008
995	-0.01
995	-0.011
995	-0.012
996	-0.014
996	-0.015
997	-0.016
997	-0.017
997	-0.018
998	-0.018
998	-0.018
999	-0.018
999	-0.018
1000	-0.018
1000	-0.017
1000	-0.017
1001	-0.016
1001	-0.015
1002	-0.015
1002	-0.015
1003	-0.014
1003	-0.015
1003	-0.015
1004	-0.015
1004	-0.016
1005	-0.016
1005	-0.017
1005	-0.017
1006	-0.018
1006	-0.019
1007	-0.02
1007	-0.021
1008	-0.022
1008	-0.022
1008	-0.023
1009	-0.023
1009	-0.023
1010	-0.022
1010	-0.022
1010	-0.021
1011	-0.02
1011	-0.019
1012	-0.018
1012	-0.017
1013	-0.015
1013	-0.014
1013	-0.013
1014	-0.012
1014	-0.012
1015	-0.011
1015	-0.01
1016	-0.01
1016	-0.01
1016	-0.01
1017	-0.01
1017	-0.011
1018	-0.011
1018	-0.011
1018	-0.011
1019	-0.011
1019	-0.012
1020	-0.012
1020	-0.013
1021	-0.013
1021	-0.013
1021	-0.014
1022	-0.014
1022	-0.014
1023	-0.014
1023	-0.014
1023	-0.013
1024	-0.013
1024	-0.013
1025	-0.013
1025	-0.012
1026	-0.012
1026	-0.011
1026	-0.012
1027	-0.012
1027	-0.011
1028	-0.011
1028	-0.01
1028	-0.01
1029	-0.01
1029	-0.009
1030	-0.009
1030	-0.009
1031	-0.01
1031	-0.009
1031	-0.008
1032	-0.008
1032	-0.008
1033	-0.009
1033	-0.009
1033	-0.009
1034	-0.009
1034	-0.01
1035	-0.01
1035	-0.01
1036	-0.011
1036	-0.012
1036	-0.012
1037	-0.012
1037	-0.011
1038	-0.011
1038	-0.011
1039	-0.011
1039	-0.01
1039	-0.01
1040	-0.009
1040	-0.009
1041	-0.009
1041	-0.009
1041	-0.01
1042	-0.011
1042	-0.011
1043	-0.012
1043	-0.013
1044	-0.014
1044	-0.015
1044	-0.016
1045	-0.017
1045	-0.018
1046	-0.018
1046	-0.019
1046	-0.019
1047	-0.019
1047	-0.019
1048	-0.019
1048	-0.019
1049	-0.018
1049	-0.018
1049	-0.018
1050	-0.019
1050	-0.019
1051	-0.02
1051	-0.021
1051	-0.021
1052	-0.021
1052	-0.022
1053	-0.023
1053	-0.024
1053	-0.024
1054	-0.025
1054	-0.025
1055	-0.025
1055	-0.025
1056	-0.025
1056	-0.025
1056	-0.026
1057	-0.026
1057	-0.026
1058	-0.026
1058	-0.026
1058	-0.026
1059	-0.027
1059	-0.027
1060	-0.028
1060	-0.028
1061	-0.029
1061	-0.028
1061	-0.028
1062	-0.028
1062	-0.028
1063	-0.028
1063	-0.028
1063	-0.028
1064	-0.027
1064	-0.027
1065	-0.026
1065	-0.027
1066	-0.027
1066	-0.028
1066	-0.028
1067	-0.028
1067	-0.029
1068	-0.029
1068	-0.03
1068	-0.031
1069	-0.032
1069	-0.033
1070	-0.033
1070	-0.034
1071	-0.034
1071	-0.034
1071	-0.034
1072	-0.035
1072	-0.035
1073	-0.035
1073	-0.035
1073	-0.036
1074	-0.036
1074	-0.036
1075	-0.037
1075	-0.038
1076	-0.039
1076	-0.039
1076	-0.04
1077	-0.041
1077	-0.042
1078	-0.043
1078	-0.044
1078	-0.044
1079	-0.045
1079	-0.045
1080	-0.047
1080	-0.047
1080	-0.049
1081	-0.05
1081	-0.051
1082	-0.052
1082	-0.053
1083	-0.054
1083	-0.056
1083	-0.057
1084	-0.058
1084	-0.059
1085	-0.06
1085	-0.061
1085	-0.061
1086	-0.061
1086	-0.063
1087	-0.063
1087	-0.064
1088	-0.065
1088	-0.065
1088	-0.066
1089	-0.068
1089	-0.068
1090	-0.069
1090	-0.07
1090	-0.072
1091	-0.072
1091	-0.072
1092	-0.073
1092	-0.073
1092	-0.074
1093	-0.075
1093	-0.075
1094	-0.075
1094	-0.076
1095	-0.077
1095	-0.077
1095	-0.078
1096	-0.08
1096	-0.082
1097	-0.082
1097	-0.084
1097	-0.086
1098	-0.088
1098	-0.09
1099	-0.091
1099	-0.093
1100	-0.095
1100	-0.098
1100	-0.101
1101	-0.104
1101	-0.107
1102	-0.109
1102	-0.111
1102	-0.113
1103	-0.115
1103	-0.119
1104	-0.121
1104	-0.125
1104	-0.127
1105	-0.128
1105	-0.131
1106	-0.136
1106	-0.138
1107	-0.144
1107	-0.149
1107	-0.154
1108	-0.155
1108	-0.156
1109	-0.159
1109	-0.164
1109	-0.169
1110	-0.171
1110	-0.173
1111	-0.184
1111	-0.175
