Data from 3.4A_17C_Absorbance__375__02287.txt Node

Date: Tue Jun 20 16:38:00 CEST 2023
User: Marek
Spectrometer: MAYP115816
Trigger mode: 0
Integration Time (sec): 2.200000E-1
Scans to average: 10
Electric dark correction enabled: true
Nonlinearity correction enabled: true
Boxcar width: 5
XAxis mode: Wavelengths
Number of Pixels in Spectrum: 2068
>>>>>Begin Spectral Data<<<<<
199	-0.814
199	-0.788
200	-0.751
200	-0.696
201	-0.668
201	-0.658
202	-0.642
202	-0.634
203	-0.633
203	-0.626
204	-0.605
204	-0.59
205	-0.567
205	-0.559
205	-0.567
206	-0.569
206	-0.566
207	-0.558
207	-0.566
208	-0.565
208	-0.568
209	-0.569
209	-0.574
210	-0.587
210	-0.592
211	-0.588
211	-0.59
212	-0.599
212	-0.604
213	-0.6
213	-0.597
213	-0.596
214	-0.604
214	-0.606
215	-0.602
215	-0.607
216	-0.614
216	-0.621
217	-0.618
217	-0.62
218	-0.628
218	-0.63
219	-0.638
219	-0.64
220	-0.643
220	-0.649
221	-0.65
221	-0.65
221	-0.641
222	-0.642
222	-0.64
223	-0.636
223	-0.639
224	-0.639
224	-0.636
225	-0.634
225	-0.637
226	-0.639
226	-0.639
227	-0.647
227	-0.658
228	-0.663
228	-0.671
229	-0.675
229	-0.673
229	-0.674
230	-0.67
230	-0.668
231	-0.663
231	-0.657
232	-0.659
232	-0.651
233	-0.649
233	-0.637
234	-0.637
234	-0.632
235	-0.634
235	-0.645
236	-0.653
236	-0.656
236	-0.657
237	-0.655
237	-0.657
238	-0.658
238	-0.66
239	-0.662
239	-0.673
240	-0.667
240	-0.663
241	-0.656
241	-0.66
242	-0.664
242	-0.673
243	-0.673
243	-0.676
243	-0.682
244	-0.679
244	-0.678
245	-0.681
245	-0.686
246	-0.698
246	-0.699
247	-0.706
247	-0.691
248	-0.69
248	-0.694
249	-0.699
249	-0.7
250	-0.7
250	-0.708
250	-0.704
251	-0.704
251	-0.701
252	-0.703
252	-0.715
253	-0.709
253	-0.72
254	-0.724
254	-0.725
255	-0.736
255	-0.734
256	-0.736
256	-0.748
257	-0.756
257	-0.754
258	-0.757
258	-0.765
258	-0.763
259	-0.756
259	-0.775
260	-0.772
260	-0.761
261	-0.772
261	-0.759
262	-0.764
262	-0.763
263	-0.753
263	-0.757
264	-0.767
264	-0.767
265	-0.757
265	-0.761
265	-0.771
266	-0.762
266	-0.762
267	-0.762
267	-0.777
268	-0.787
268	-0.783
269	-0.775
269	-0.791
270	-0.796
270	-0.796
271	-0.809
271	-0.819
272	-0.82
272	-0.822
272	-0.815
273	-0.822
273	-0.837
274	-0.828
274	-0.822
275	-0.82
275	-0.807
276	-0.812
276	-0.817
277	-0.819
277	-0.816
278	-0.82
278	-0.821
278	-0.808
279	-0.818
279	-0.831
280	-0.833
280	-0.844
281	-0.836
281	-0.83
282	-0.835
282	-0.83
283	-0.824
283	-0.839
284	-0.854
284	-0.862
285	-0.842
285	-0.848
285	-0.838
286	-0.846
286	-0.862
287	-0.858
287	-0.858
288	-0.858
288	-0.838
289	-0.835
289	-0.844
290	-0.853
290	-0.842
291	-0.846
291	-0.841
292	-0.821
292	-0.818
292	-0.821
293	-0.809
293	-0.804
294	-0.804
294	-0.789
295	-0.773
295	-0.785
296	-0.796
296	-0.793
297	-0.782
297	-0.786
298	-0.783
298	-0.801
298	-0.807
299	-0.788
299	-0.781
300	-0.778
300	-0.759
301	-0.741
301	-0.742
302	-0.751
302	-0.737
303	-0.73
303	-0.716
304	-0.699
304	-0.701
305	-0.692
305	-0.7
305	-0.715
306	-0.699
306	-0.7
307	-0.694
307	-0.706
308	-0.706
308	-0.703
309	-0.706
309	-0.702
310	-0.702
310	-0.696
311	-0.681
311	-0.7
311	-0.686
312	-0.682
312	-0.669
313	-0.662
313	-0.664
314	-0.668
314	-0.666
315	-0.663
315	-0.658
316	-0.655
316	-0.644
317	-0.637
317	-0.633
318	-0.626
318	-0.623
318	-0.611
319	-0.6
319	-0.592
320	-0.589
320	-0.588
321	-0.582
321	-0.582
322	-0.576
322	-0.569
323	-0.57
323	-0.562
324	-0.562
324	-0.551
324	-0.54
325	-0.525
325	-0.506
326	-0.497
326	-0.472
327	-0.454
327	-0.432
328	-0.4
328	-0.375
329	-0.345
329	-0.316
330	-0.288
330	-0.25
330	-0.214
331	-0.175
331	-0.14
332	-0.105
332	-0.071
333	-0.039
333	-0.005
334	0.025
334	0.052
335	0.081
335	0.104
336	0.127
336	0.149
336	0.167
337	0.185
337	0.204
338	0.218
338	0.23
339	0.245
339	0.256
340	0.264
340	0.273
341	0.282
341	0.288
342	0.295
342	0.302
342	0.307
343	0.312
343	0.317
344	0.32
344	0.324
345	0.327
345	0.33
346	0.332
346	0.334
347	0.336
347	0.338
348	0.339
348	0.341
348	0.342
349	0.343
349	0.344
350	0.345
350	0.346
351	0.347
351	0.347
352	0.347
352	0.348
353	0.348
353	0.349
354	0.349
354	0.349
354	0.349
355	0.348
355	0.348
356	0.348
356	0.348
357	0.348
357	0.348
358	0.348
358	0.348
359	0.348
359	0.348
360	0.349
360	0.349
360	0.349
361	0.349
361	0.349
362	0.349
362	0.349
363	0.349
363	0.349
364	0.349
364	0.349
365	0.349
365	0.349
366	0.349
366	0.348
366	0.349
367	0.349
367	0.348
368	0.348
368	0.348
369	0.347
369	0.347
370	0.347
370	0.347
371	0.346
371	0.346
372	0.346
372	0.346
372	0.346
373	0.345
373	0.345
374	0.345
374	0.345
375	0.344
375	0.344
376	0.344
376	0.343
377	0.343
377	0.343
378	0.342
378	0.342
378	0.342
379	0.341
379	0.341
380	0.341
380	0.341
381	0.34
381	0.34
382	0.34
382	0.339
383	0.339
383	0.339
383	0.338
384	0.338
384	0.338
385	0.337
385	0.337
386	0.337
386	0.336
387	0.336
387	0.336
388	0.336
388	0.336
389	0.336
389	0.336
389	0.335
390	0.335
390	0.335
391	0.335
391	0.334
392	0.334
392	0.334
393	0.333
393	0.333
394	0.333
394	0.332
394	0.332
395	0.332
395	0.331
396	0.331
396	0.331
397	0.33
397	0.33
398	0.329
398	0.329
399	0.329
399	0.329
400	0.328
400	0.328
400	0.328
401	0.328
401	0.327
402	0.327
402	0.327
403	0.327
403	0.326
404	0.326
404	0.325
405	0.325
405	0.325
405	0.324
406	0.324
406	0.324
407	0.324
407	0.323
408	0.323
408	0.322
409	0.322
409	0.322
410	0.322
410	0.322
411	0.322
411	0.321
411	0.321
412	0.321
412	0.321
413	0.32
413	0.32
414	0.32
414	0.32
415	0.32
415	0.319
416	0.319
416	0.319
416	0.318
417	0.318
417	0.318
418	0.318
418	0.318
419	0.318
419	0.318
420	0.318
420	0.318
421	0.317
421	0.317
421	0.317
422	0.317
422	0.317
423	0.317
423	0.317
424	0.316
424	0.316
425	0.316
425	0.316
426	0.316
426	0.316
427	0.316
427	0.316
427	0.316
428	0.316
428	0.316
429	0.315
429	0.315
430	0.314
430	0.314
431	0.314
431	0.313
432	0.313
432	0.313
432	0.312
433	0.312
433	0.312
434	0.312
434	0.313
435	0.313
435	0.312
436	0.312
436	0.313
437	0.313
437	0.312
437	0.312
438	0.312
438	0.312
439	0.312
439	0.312
440	0.312
440	0.312
441	0.312
441	0.311
442	0.311
442	0.311
442	0.311
443	0.311
443	0.311
444	0.311
444	0.311
445	0.311
445	0.311
446	0.311
446	0.311
447	0.311
447	0.311
447	0.311
448	0.311
448	0.311
449	0.311
449	0.311
450	0.311
450	0.311
451	0.311
451	0.311
452	0.311
452	0.311
452	0.311
453	0.311
453	0.311
454	0.311
454	0.312
455	0.312
455	0.312
456	0.312
456	0.312
457	0.312
457	0.312
458	0.312
458	0.312
458	0.312
459	0.312
459	0.312
460	0.311
460	0.311
461	0.311
461	0.312
462	0.313
462	0.313
463	0.314
463	0.315
463	0.315
464	0.316
464	0.316
465	0.317
465	0.317
466	0.318
466	0.318
467	0.319
467	0.319
467	0.319
468	0.319
468	0.319
469	0.319
469	0.32
470	0.321
470	0.321
471	0.321
471	0.321
472	0.321
472	0.322
472	0.322
473	0.323
473	0.324
474	0.325
474	0.326
475	0.326
475	0.327
476	0.328
476	0.329
477	0.33
477	0.331
477	0.332
478	0.333
478	0.334
479	0.334
479	0.335
480	0.336
480	0.336
481	0.337
481	0.338
482	0.339
482	0.34
482	0.341
483	0.343
483	0.345
484	0.346
484	0.347
485	0.349
485	0.35
486	0.352
486	0.353
487	0.355
487	0.356
487	0.357
488	0.358
488	0.359
489	0.361
489	0.363
490	0.364
490	0.366
491	0.368
491	0.369
492	0.371
492	0.372
492	0.374
493	0.375
493	0.377
494	0.379
494	0.382
495	0.384
495	0.385
496	0.387
496	0.39
496	0.392
497	0.394
497	0.397
498	0.399
498	0.401
499	0.403
499	0.406
500	0.409
500	0.412
501	0.414
501	0.417
501	0.419
502	0.421
502	0.424
503	0.426
503	0.429
504	0.431
504	0.434
505	0.436
505	0.439
506	0.442
506	0.445
506	0.448
507	0.451
507	0.454
508	0.458
508	0.461
509	0.465
509	0.468
510	0.471
510	0.474
511	0.476
511	0.479
511	0.482
512	0.484
512	0.487
513	0.488
513	0.491
514	0.493
514	0.496
515	0.498
515	0.5
515	0.502
516	0.504
516	0.507
517	0.509
517	0.511
518	0.513
518	0.515
519	0.516
519	0.517
520	0.519
520	0.521
520	0.522
521	0.523
521	0.525
522	0.526
522	0.528
523	0.529
523	0.531
524	0.532
524	0.533
524	0.534
525	0.535
525	0.536
526	0.538
526	0.538
527	0.539
527	0.539
528	0.539
528	0.539
529	0.539
529	0.54
529	0.54
530	0.539
530	0.539
531	0.538
531	0.538
532	0.537
532	0.537
533	0.536
533	0.535
533	0.534
534	0.533
534	0.532
535	0.531
535	0.531
536	0.53
536	0.529
537	0.528
537	0.526
538	0.525
538	0.523
538	0.522
539	0.521
539	0.519
540	0.517
540	0.515
541	0.513
541	0.511
542	0.509
542	0.507
542	0.504
543	0.501
543	0.499
544	0.496
544	0.493
545	0.491
545	0.489
546	0.486
546	0.483
547	0.48
547	0.477
547	0.475
548	0.473
548	0.47
549	0.468
549	0.466
550	0.463
550	0.461
551	0.457
551	0.455
551	0.452
552	0.449
552	0.447
553	0.444
553	0.441
554	0.438
554	0.435
555	0.432
555	0.429
556	0.426
556	0.423
556	0.42
557	0.417
557	0.414
558	0.411
558	0.409
559	0.406
559	0.403
560	0.4
560	0.397
560	0.395
561	0.393
561	0.39
562	0.388
562	0.385
563	0.383
563	0.38
564	0.378
564	0.376
564	0.374
565	0.372
565	0.37
566	0.368
566	0.366
567	0.364
567	0.362
568	0.36
568	0.357
568	0.355
569	0.353
569	0.35
570	0.348
570	0.344
571	0.343
571	0.34
572	0.338
572	0.335
573	0.333
573	0.33
573	0.328
574	0.326
574	0.324
575	0.323
575	0.322
576	0.321
576	0.318
577	0.316
577	0.314
577	0.313
578	0.312
578	0.311
579	0.311
579	0.31
580	0.307
580	0.304
581	0.301
581	0.299
581	0.299
582	0.298
582	0.297
583	0.296
583	0.294
584	0.291
584	0.288
585	0.288
585	0.288
585	0.287
586	0.286
586	0.284
587	0.282
587	0.28
588	0.278
588	0.276
589	0.275
589	0.274
590	0.272
590	0.27
590	0.27
591	0.269
591	0.267
592	0.265
592	0.263
593	0.263
593	0.261
594	0.259
594	0.258
594	0.257
595	0.256
595	0.253
596	0.251
596	0.251
597	0.252
597	0.251
598	0.25
598	0.249
598	0.249
599	0.248
599	0.247
600	0.246
600	0.245
601	0.245
601	0.245
602	0.243
602	0.242
602	0.241
603	0.241
603	0.241
604	0.24
604	0.239
605	0.239
605	0.239
606	0.237
606	0.235
606	0.234
607	0.233
607	0.232
608	0.231
608	0.229
609	0.227
609	0.227
610	0.225
610	0.224
610	0.223
611	0.223
611	0.222
612	0.222
612	0.221
613	0.22
613	0.22
614	0.218
614	0.216
614	0.215
615	0.213
615	0.211
616	0.211
616	0.209
617	0.208
617	0.207
618	0.206
618	0.205
618	0.204
619	0.203
619	0.203
620	0.203
620	0.202
621	0.201
621	0.2
622	0.198
622	0.196
622	0.194
623	0.192
623	0.192
624	0.191
624	0.189
625	0.188
625	0.187
626	0.186
626	0.185
626	0.184
627	0.184
627	0.183
628	0.182
628	0.181
629	0.18
629	0.178
630	0.176
630	0.175
630	0.173
631	0.172
631	0.17
632	0.168
632	0.166
633	0.164
633	0.161
634	0.159
634	0.157
634	0.155
635	0.153
635	0.15
636	0.148
636	0.145
637	0.142
637	0.139
638	0.136
638	0.133
638	0.13
639	0.126
639	0.122
640	0.118
640	0.114
641	0.109
641	0.105
642	0.101
642	0.097
642	0.092
643	0.087
643	0.082
644	0.077
644	0.072
645	0.066
645	0.061
646	0.056
646	0.05
646	0.044
647	0.037
647	0.03
648	0.024
648	0.016
649	0.009
649	0.002
650	-0.005
650	-0.012
650	-0.02
651	-0.029
651	-0.041
652	-0.053
652	-0.067
653	-0.079
653	-0.09
653	-0.084
654	-0.065
654	-0.059
655	-0.064
655	-0.069
656	-0.074
656	-0.079
657	-0.084
657	-0.087
657	-0.093
658	-0.1
658	-0.131
659	-0.215
659	-0.302
660	-0.341
660	-0.366
661	-0.392
661	-0.421
661	-0.45
662	-0.476
662	-0.503
663	-0.535
663	-0.571
664	-0.605
664	-0.642
665	-0.684
665	-0.728
665	-0.77
666	-0.817
666	-0.869
667	-0.921
667	-0.98
668	-1.036
668	-1.102
669	-1.167
669	-1.238
669	-1.313
670	-1.39
670	-1.494
671	-1.649
671	-1.937
672	-2.24
672	-2.424
672	-2.557
673	-2.66
673	-2.745
674	-2.816
674	-2.834
675	-2.85
675	-2.855
676	-2.855
676	-2.824
676	-2.756
677	-2.674
677	-2.576
678	-2.43
678	-2.197
679	-1.777
679	-1.588
680	-1.481
680	-1.404
680	-1.336
681	-1.288
681	-1.235
682	-1.194
682	-1.151
683	-1.108
683	-1.086
684	-1.057
684	-1.039
684	-1.017
685	-0.998
685	-0.989
686	-0.966
686	-0.953
687	-0.944
687	-0.933
687	-0.934
688	-0.917
688	-0.911
689	-0.914
689	-0.912
690	-0.899
690	-0.886
691	-0.884
691	-0.888
691	-0.889
692	-0.889
692	-0.886
693	-0.895
693	-0.906
694	-0.887
694	-0.886
695	-0.889
695	-0.884
695	-0.892
696	-0.897
696	-0.89
697	-0.883
697	-0.879
698	-0.873
698	-0.866
698	-0.879
699	-0.877
699	-0.878
700	-0.899
700	-0.893
701	-0.882
701	-0.876
702	-0.877
702	-0.875
702	-0.877
703	-0.869
703	-0.858
704	-0.867
704	-0.871
705	-0.858
705	-0.856
705	-0.85
706	-0.842
706	-0.84
707	-0.852
707	-0.855
708	-0.851
708	-0.849
709	-0.849
709	-0.845
709	-0.841
710	-0.85
710	-0.852
711	-0.853
711	-0.853
712	-0.845
712	-0.842
713	-0.849
713	-0.849
713	-0.829
714	-0.831
714	-0.835
715	-0.825
715	-0.834
716	-0.85
716	-0.859
716	-0.859
717	-0.865
717	-0.854
718	-0.847
718	-0.849
719	-0.845
719	-0.838
720	-0.834
720	-0.83
720	-0.823
721	-0.814
721	-0.818
722	-0.816
722	-0.815
723	-0.834
723	-0.848
723	-0.856
724	-0.854
724	-0.858
725	-0.852
725	-0.857
726	-0.859
726	-0.849
727	-0.851
727	-0.857
727	-0.848
728	-0.833
728	-0.828
729	-0.831
729	-0.834
730	-0.839
730	-0.83
730	-0.836
731	-0.84
731	-0.84
732	-0.841
732	-0.835
733	-0.851
733	-0.858
734	-0.868
734	-0.858
734	-0.841
735	-0.832
735	-0.827
736	-0.825
736	-0.821
737	-0.819
737	-0.809
737	-0.801
738	-0.787
738	-0.774
739	-0.777
739	-0.778
740	-0.791
740	-0.792
741	-0.804
741	-0.812
741	-0.824
742	-0.831
742	-0.846
743	-0.854
743	-0.856
744	-0.859
744	-0.869
744	-0.862
745	-0.871
745	-0.859
746	-0.855
746	-0.846
747	-0.848
747	-0.838
748	-0.838
748	-0.842
748	-0.844
749	-0.835
749	-0.842
750	-0.832
750	-0.832
751	-0.832
751	-0.828
751	-0.841
752	-0.845
752	-0.849
753	-0.852
753	-0.844
754	-0.863
754	-0.862
754	-0.871
755	-0.872
755	-0.866
756	-0.869
756	-0.855
757	-0.847
757	-0.834
758	-0.835
758	-0.836
758	-0.833
759	-0.838
759	-0.836
760	-0.835
760	-0.837
761	-0.83
761	-0.834
761	-0.835
762	-0.842
762	-0.843
763	-0.84
763	-0.843
764	-0.843
764	-0.84
764	-0.844
765	-0.841
765	-0.848
766	-0.852
766	-0.852
767	-0.868
767	-0.864
768	-0.863
768	-0.855
768	-0.849
769	-0.852
769	-0.859
770	-0.869
770	-0.872
771	-0.868
771	-0.867
771	-0.872
772	-0.874
772	-0.895
773	-0.896
773	-0.895
774	-0.894
774	-0.878
775	-0.867
775	-0.867
775	-0.871
776	-0.883
776	-0.879
777	-0.881
777	-0.865
778	-0.874
778	-0.883
778	-0.883
779	-0.889
779	-0.904
780	-0.902
780	-0.91
781	-0.901
781	-0.89
781	-0.903
782	-0.923
782	-0.924
783	-0.923
783	-0.931
784	-0.936
784	-0.929
784	-0.949
785	-0.942
785	-0.953
786	-0.957
786	-0.95
787	-0.939
787	-0.948
788	-0.942
788	-0.935
788	-0.935
789	-0.936
789	-0.923
790	-0.922
790	-0.906
791	-0.912
791	-0.908
791	-0.901
792	-0.894
792	-0.898
793	-0.901
793	-0.889
794	-0.88
794	-0.875
794	-0.883
795	-0.903
795	-0.891
796	-0.895
796	-0.891
797	-0.884
797	-0.873
797	-0.866
798	-0.888
798	-0.894
799	-0.893
799	-0.878
800	-0.874
800	-0.881
801	-0.879
801	-0.882
801	-0.879
802	-0.878
802	-0.877
803	-0.872
803	-0.864
804	-0.87
804	-0.878
804	-0.861
805	-0.843
805	-0.834
806	-0.837
806	-0.833
807	-0.836
807	-0.837
807	-0.82
808	-0.815
808	-0.808
809	-0.803
809	-0.805
810	-0.808
810	-0.806
810	-0.801
811	-0.805
811	-0.797
812	-0.79
812	-0.792
813	-0.796
813	-0.798
813	-0.795
814	-0.794
814	-0.799
815	-0.789
815	-0.787
816	-0.783
816	-0.801
817	-0.812
817	-0.817
817	-0.826
818	-0.819
818	-0.815
819	-0.825
819	-0.824
820	-0.834
820	-0.832
820	-0.831
821	-0.825
821	-0.821
822	-0.82
822	-0.808
823	-0.82
823	-0.819
823	-0.815
824	-0.812
824	-0.823
825	-0.823
825	-0.82
826	-0.815
826	-0.811
826	-0.809
827	-0.809
827	-0.799
828	-0.799
828	-0.793
829	-0.786
829	-0.77
829	-0.766
830	-0.765
830	-0.752
831	-0.745
831	-0.734
832	-0.723
832	-0.719
832	-0.712
833	-0.712
833	-0.718
834	-0.714
834	-0.71
835	-0.702
835	-0.702
835	-0.697
836	-0.694
836	-0.692
837	-0.681
837	-0.672
838	-0.658
838	-0.641
839	-0.636
839	-0.624
839	-0.613
840	-0.61
840	-0.598
841	-0.586
841	-0.58
842	-0.571
842	-0.558
842	-0.555
843	-0.55
843	-0.546
844	-0.542
844	-0.531
845	-0.517
845	-0.509
845	-0.498
846	-0.486
846	-0.476
847	-0.467
847	-0.454
848	-0.44
848	-0.423
848	-0.409
849	-0.396
849	-0.384
850	-0.373
850	-0.363
851	-0.348
851	-0.332
851	-0.322
852	-0.307
852	-0.293
853	-0.284
853	-0.274
854	-0.262
854	-0.251
854	-0.239
855	-0.227
855	-0.22
856	-0.212
856	-0.203
857	-0.195
857	-0.187
857	-0.173
858	-0.162
858	-0.155
859	-0.144
859	-0.132
860	-0.12
860	-0.105
860	-0.094
861	-0.084
861	-0.074
862	-0.066
862	-0.058
863	-0.05
863	-0.04
863	-0.034
864	-0.029
864	-0.023
865	-0.016
865	-0.01
866	-0.004
866	0.002
866	0.008
867	0.013
867	0.019
868	0.023
868	0.028
869	0.034
869	0.037
869	0.039
870	0.041
870	0.043
871	0.045
871	0.046
872	0.048
872	0.049
872	0.05
873	0.05
873	0.05
874	0.049
874	0.049
875	0.049
875	0.049
875	0.049
876	0.048
876	0.048
877	0.048
877	0.047
878	0.046
878	0.046
878	0.046
879	0.046
879	0.045
880	0.045
880	0.044
881	0.043
881	0.042
881	0.041
882	0.039
882	0.038
883	0.037
883	0.035
884	0.034
884	0.034
884	0.033
885	0.033
885	0.032
886	0.032
886	0.032
887	0.031
887	0.03
887	0.03
888	0.03
888	0.029
889	0.029
889	0.028
890	0.027
890	0.026
890	0.025
891	0.026
891	0.025
892	0.026
892	0.026
893	0.026
893	0.026
893	0.025
894	0.026
894	0.026
895	0.026
895	0.026
895	0.025
896	0.026
896	0.026
897	0.026
897	0.027
898	0.027
898	0.027
898	0.027
899	0.028
899	0.028
900	0.028
900	0.028
901	0.027
901	0.027
901	0.026
902	0.026
902	0.025
903	0.025
903	0.025
904	0.024
904	0.024
904	0.025
905	0.025
905	0.026
906	0.027
906	0.027
907	0.028
907	0.028
907	0.028
908	0.029
908	0.029
909	0.03
909	0.03
910	0.03
910	0.031
910	0.031
911	0.031
911	0.031
912	0.032
912	0.033
913	0.034
913	0.034
913	0.035
914	0.035
914	0.036
915	0.036
915	0.036
916	0.036
916	0.036
916	0.036
917	0.036
917	0.036
918	0.035
918	0.035
918	0.035
919	0.035
919	0.035
920	0.035
920	0.036
921	0.037
921	0.037
921	0.038
922	0.038
922	0.039
923	0.039
923	0.039
924	0.039
924	0.039
924	0.038
925	0.037
925	0.035
926	0.034
926	0.033
927	0.032
927	0.031
927	0.03
928	0.029
928	0.029
929	0.029
929	0.029
930	0.03
930	0.03
930	0.031
931	0.032
931	0.033
932	0.034
932	0.035
933	0.036
933	0.036
933	0.036
934	0.036
934	0.035
935	0.035
935	0.034
935	0.033
936	0.032
936	0.03
937	0.029
937	0.028
938	0.028
938	0.027
938	0.027
939	0.026
939	0.025
940	0.025
940	0.024
941	0.023
941	0.023
941	0.023
942	0.022
942	0.021
943	0.021
943	0.02
944	0.02
944	0.019
944	0.018
945	0.018
945	0.018
946	0.017
946	0.016
946	0.016
947	0.016
947	0.016
948	0.017
948	0.017
949	0.018
949	0.02
949	0.021
950	0.023
950	0.025
951	0.026
951	0.028
952	0.028
952	0.03
952	0.03
953	0.031
953	0.031
954	0.031
954	0.031
955	0.031
955	0.03
955	0.029
956	0.029
956	0.028
957	0.027
957	0.026
957	0.025
958	0.024
958	0.024
959	0.023
959	0.023
960	0.023
960	0.022
960	0.023
961	0.023
961	0.023
962	0.023
962	0.024
963	0.024
963	0.024
963	0.025
964	0.025
964	0.025
965	0.026
965	0.026
966	0.026
966	0.026
966	0.026
967	0.027
967	0.026
968	0.026
968	0.026
968	0.026
969	0.026
969	0.026
970	0.025
970	0.025
971	0.025
971	0.025
971	0.026
972	0.026
972	0.026
973	0.026
973	0.026
974	0.026
974	0.026
974	0.027
975	0.027
975	0.027
976	0.026
976	0.026
976	0.026
977	0.026
977	0.026
978	0.025
978	0.025
979	0.024
979	0.024
979	0.024
980	0.024
980	0.023
981	0.023
981	0.023
982	0.023
982	0.023
982	0.024
983	0.023
983	0.023
984	0.023
984	0.023
984	0.022
985	0.022
985	0.021
986	0.02
986	0.019
987	0.019
987	0.018
987	0.017
988	0.017
988	0.016
989	0.015
989	0.014
990	0.014
990	0.012
990	0.012
991	0.011
991	0.01
992	0.01
992	0.009
992	0.008
993	0.008
993	0.007
994	0.006
994	0.005
995	0.003
995	0.002
995	0
996	-0.001
996	-0.003
997	-0.004
997	-0.005
997	-0.005
998	-0.006
998	-0.006
999	-0.006
999	-0.006
1000	-0.005
1000	-0.005
1000	-0.004
1001	-0.003
1001	-0.002
1002	-0.001
1002	-0.001
1003	-0
1003	-0.001
1003	-0
1004	-0.001
1004	-0.001
1005	-0.001
1005	-0.002
1005	-0.003
1006	-0.004
1006	-0.004
1007	-0.005
1007	-0.006
1008	-0.007
1008	-0.007
1008	-0.007
1009	-0.008
1009	-0.007
1010	-0.007
1010	-0.006
1010	-0.006
1011	-0.005
1011	-0.004
1012	-0.003
1012	-0.002
1013	-0.001
1013	0
1013	0.001
1014	0.001
1014	0.002
1015	0.003
1015	0.003
1016	0.003
1016	0.003
1016	0.003
1017	0.003
1017	0.003
1018	0.003
1018	0.002
1018	0.002
1019	0.002
1019	0.001
1020	0.001
1020	0
1021	0
1021	-0
1021	-0
1022	-0
1022	-0.001
1023	-0
1023	0
1023	0
1024	0
1024	0.001
1025	0.001
1025	0.001
1026	0.002
1026	0.002
1026	0.002
1027	0.002
1027	0.003
1028	0.003
1028	0.004
1028	0.004
1029	0.004
1029	0.004
1030	0.004
1030	0.004
1031	0.004
1031	0.004
1031	0.004
1032	0.004
1032	0.004
1033	0.003
1033	0.003
1033	0.003
1034	0.002
1034	0.002
1035	0.002
1035	0.001
1036	0
1036	0
1036	-0
1037	-0
1037	0
1038	0
1038	0.001
1039	0.001
1039	0.002
1039	0.002
1040	0.002
1040	0.003
1041	0.003
1041	0.003
1041	0.002
1042	0.001
1042	0.001
1043	-0
1043	-0.001
1044	-0.001
1044	-0.003
1044	-0.003
1045	-0.004
1045	-0.005
1046	-0.006
1046	-0.006
1046	-0.007
1047	-0.007
1047	-0.007
1048	-0.006
1048	-0.006
1049	-0.006
1049	-0.007
1049	-0.006
1050	-0.007
1050	-0.008
1051	-0.008
1051	-0.009
1051	-0.01
1052	-0.011
1052	-0.011
1053	-0.012
1053	-0.012
1053	-0.013
1054	-0.014
1054	-0.014
1055	-0.014
1055	-0.014
1056	-0.014
1056	-0.014
1056	-0.014
1057	-0.014
1057	-0.015
1058	-0.015
1058	-0.015
1058	-0.015
1059	-0.015
1059	-0.016
1060	-0.017
1060	-0.017
1061	-0.017
1061	-0.018
1061	-0.018
1062	-0.018
1062	-0.018
1063	-0.018
1063	-0.018
1063	-0.018
1064	-0.018
1064	-0.017
1065	-0.017
1065	-0.017
1066	-0.017
1066	-0.018
1066	-0.018
1067	-0.019
1067	-0.02
1068	-0.02
1068	-0.021
1068	-0.022
1069	-0.023
1069	-0.024
1070	-0.024
1070	-0.025
1071	-0.025
1071	-0.025
1071	-0.026
1072	-0.026
1072	-0.025
1073	-0.025
1073	-0.025
1073	-0.026
1074	-0.026
1074	-0.026
1075	-0.027
1075	-0.028
1076	-0.029
1076	-0.029
1076	-0.03
1077	-0.031
1077	-0.032
1078	-0.033
1078	-0.033
1078	-0.034
1079	-0.035
1079	-0.035
1080	-0.036
1080	-0.037
1080	-0.038
1081	-0.039
1081	-0.04
1082	-0.041
1082	-0.043
1083	-0.044
1083	-0.046
1083	-0.047
1084	-0.049
1084	-0.049
1085	-0.051
1085	-0.052
1085	-0.052
1086	-0.053
1086	-0.054
1087	-0.055
1087	-0.055
1088	-0.056
1088	-0.056
1088	-0.057
1089	-0.058
1089	-0.058
1090	-0.059
1090	-0.059
1090	-0.061
1091	-0.062
1091	-0.062
1092	-0.063
1092	-0.062
1092	-0.064
1093	-0.064
1093	-0.064
1094	-0.064
1094	-0.065
1095	-0.067
1095	-0.067
1095	-0.067
1096	-0.068
1096	-0.071
1097	-0.073
1097	-0.075
1097	-0.077
1098	-0.079
1098	-0.082
1099	-0.083
1099	-0.084
1100	-0.087
1100	-0.09
1100	-0.093
1101	-0.095
1101	-0.098
1102	-0.099
1102	-0.101
1102	-0.103
1103	-0.105
1103	-0.109
1104	-0.112
1104	-0.116
1104	-0.118
1105	-0.12
1105	-0.124
1106	-0.129
1106	-0.132
1107	-0.139
1107	-0.144
1107	-0.149
1108	-0.151
1108	-0.152
1109	-0.155
1109	-0.159
1109	-0.165
1110	-0.165
1110	-0.168
1111	-0.178
1111	-0.173
