Data from 3.4A_17C_Absorbance__731__02643.txt Node

Date: Tue Jun 20 16:51:04 CEST 2023
User: Marek
Spectrometer: MAYP115816
Trigger mode: 0
Integration Time (sec): 2.200000E-1
Scans to average: 10
Electric dark correction enabled: true
Nonlinearity correction enabled: true
Boxcar width: 5
XAxis mode: Wavelengths
Number of Pixels in Spectrum: 2068
>>>>>Begin Spectral Data<<<<<
199	-0.797
199	-0.782
200	-0.745
200	-0.691
201	-0.663
201	-0.654
202	-0.64
202	-0.634
203	-0.634
203	-0.626
204	-0.607
204	-0.59
205	-0.565
205	-0.557
205	-0.565
206	-0.566
206	-0.563
207	-0.555
207	-0.561
208	-0.561
208	-0.566
209	-0.567
209	-0.574
210	-0.588
210	-0.596
211	-0.59
211	-0.595
212	-0.603
212	-0.611
213	-0.608
213	-0.603
213	-0.602
214	-0.61
214	-0.611
215	-0.606
215	-0.61
216	-0.62
216	-0.624
217	-0.622
217	-0.622
218	-0.629
218	-0.631
219	-0.635
219	-0.636
220	-0.64
220	-0.648
221	-0.65
221	-0.651
221	-0.641
222	-0.641
222	-0.641
223	-0.637
223	-0.641
224	-0.643
224	-0.64
225	-0.638
225	-0.64
226	-0.64
226	-0.639
227	-0.648
227	-0.659
228	-0.66
228	-0.669
229	-0.672
229	-0.669
229	-0.67
230	-0.666
230	-0.663
231	-0.66
231	-0.655
232	-0.657
232	-0.65
233	-0.651
233	-0.642
234	-0.643
234	-0.638
235	-0.642
235	-0.651
236	-0.658
236	-0.659
236	-0.659
237	-0.658
237	-0.657
238	-0.659
238	-0.66
239	-0.66
239	-0.671
240	-0.664
240	-0.661
241	-0.657
241	-0.66
242	-0.664
242	-0.673
243	-0.675
243	-0.675
243	-0.68
244	-0.677
244	-0.679
245	-0.683
245	-0.686
246	-0.695
246	-0.699
247	-0.706
247	-0.692
248	-0.692
248	-0.694
249	-0.699
249	-0.701
250	-0.698
250	-0.707
250	-0.706
251	-0.707
251	-0.702
252	-0.703
252	-0.716
253	-0.712
253	-0.725
254	-0.73
254	-0.731
255	-0.741
255	-0.74
256	-0.742
256	-0.755
257	-0.765
257	-0.762
258	-0.764
258	-0.771
258	-0.766
259	-0.759
259	-0.775
260	-0.774
260	-0.761
261	-0.772
261	-0.756
262	-0.761
262	-0.761
263	-0.75
263	-0.754
264	-0.766
264	-0.768
265	-0.761
265	-0.764
265	-0.775
266	-0.769
266	-0.769
267	-0.768
267	-0.783
268	-0.791
268	-0.784
269	-0.776
269	-0.789
270	-0.792
270	-0.79
271	-0.804
271	-0.812
272	-0.814
272	-0.817
272	-0.809
273	-0.82
273	-0.836
274	-0.829
274	-0.823
275	-0.822
275	-0.809
276	-0.812
276	-0.817
277	-0.82
277	-0.819
278	-0.827
278	-0.827
278	-0.814
279	-0.822
279	-0.836
280	-0.837
280	-0.85
281	-0.844
281	-0.836
282	-0.839
282	-0.835
283	-0.827
283	-0.841
284	-0.855
284	-0.865
285	-0.845
285	-0.854
285	-0.846
286	-0.852
286	-0.87
287	-0.868
287	-0.865
288	-0.864
288	-0.845
289	-0.845
289	-0.853
290	-0.861
290	-0.848
291	-0.851
291	-0.848
292	-0.828
292	-0.824
292	-0.83
293	-0.82
293	-0.817
294	-0.816
294	-0.803
295	-0.787
295	-0.798
296	-0.809
296	-0.805
297	-0.793
297	-0.798
298	-0.793
298	-0.809
298	-0.812
299	-0.792
299	-0.785
300	-0.781
300	-0.764
301	-0.746
301	-0.747
302	-0.758
302	-0.743
303	-0.734
303	-0.723
304	-0.704
304	-0.709
305	-0.702
305	-0.712
305	-0.725
306	-0.711
306	-0.709
307	-0.701
307	-0.712
308	-0.716
308	-0.711
309	-0.714
309	-0.71
310	-0.706
310	-0.699
311	-0.687
311	-0.705
311	-0.692
312	-0.689
312	-0.678
313	-0.67
313	-0.672
314	-0.679
314	-0.675
315	-0.672
315	-0.665
316	-0.659
316	-0.648
317	-0.641
317	-0.638
318	-0.628
318	-0.626
318	-0.613
319	-0.601
319	-0.594
320	-0.593
320	-0.592
321	-0.589
321	-0.589
322	-0.581
322	-0.574
323	-0.574
323	-0.565
324	-0.565
324	-0.554
324	-0.544
325	-0.527
325	-0.509
326	-0.499
326	-0.474
327	-0.459
327	-0.438
328	-0.407
328	-0.383
329	-0.355
329	-0.328
330	-0.303
330	-0.27
330	-0.235
331	-0.2
331	-0.167
332	-0.135
332	-0.103
333	-0.074
333	-0.042
334	-0.014
334	0.012
335	0.039
335	0.06
336	0.082
336	0.101
336	0.117
337	0.133
337	0.149
338	0.162
338	0.171
339	0.184
339	0.193
340	0.201
340	0.209
341	0.216
341	0.221
342	0.228
342	0.233
342	0.238
343	0.242
343	0.247
344	0.249
344	0.252
345	0.255
345	0.257
346	0.259
346	0.261
347	0.262
347	0.264
348	0.265
348	0.266
348	0.267
349	0.268
349	0.269
350	0.269
350	0.27
351	0.27
351	0.271
352	0.271
352	0.271
353	0.272
353	0.271
354	0.272
354	0.272
354	0.272
355	0.272
355	0.272
356	0.272
356	0.271
357	0.272
357	0.273
358	0.272
358	0.273
359	0.273
359	0.273
360	0.272
360	0.273
360	0.273
361	0.273
361	0.273
362	0.272
362	0.272
363	0.272
363	0.272
364	0.272
364	0.272
365	0.272
365	0.272
366	0.272
366	0.272
366	0.272
367	0.272
367	0.272
368	0.272
368	0.272
369	0.271
369	0.271
370	0.271
370	0.271
371	0.271
371	0.271
372	0.27
372	0.27
372	0.27
373	0.27
373	0.27
374	0.27
374	0.27
375	0.27
375	0.27
376	0.269
376	0.269
377	0.269
377	0.269
378	0.269
378	0.268
378	0.268
379	0.268
379	0.268
380	0.268
380	0.268
381	0.268
381	0.267
382	0.267
382	0.267
383	0.267
383	0.267
383	0.267
384	0.267
384	0.267
385	0.266
385	0.266
386	0.266
386	0.266
387	0.266
387	0.266
388	0.266
388	0.265
389	0.265
389	0.265
389	0.265
390	0.265
390	0.265
391	0.265
391	0.265
392	0.265
392	0.265
393	0.265
393	0.265
394	0.264
394	0.264
394	0.264
395	0.264
395	0.263
396	0.263
396	0.263
397	0.262
397	0.262
398	0.262
398	0.262
399	0.261
399	0.261
400	0.261
400	0.261
400	0.261
401	0.26
401	0.26
402	0.26
402	0.26
403	0.26
403	0.26
404	0.26
404	0.259
405	0.259
405	0.259
405	0.259
406	0.259
406	0.258
407	0.258
407	0.258
408	0.257
408	0.257
409	0.257
409	0.257
410	0.257
410	0.257
411	0.257
411	0.257
411	0.256
412	0.256
412	0.256
413	0.256
413	0.256
414	0.255
414	0.255
415	0.255
415	0.255
416	0.254
416	0.254
416	0.254
417	0.254
417	0.254
418	0.254
418	0.254
419	0.254
419	0.254
420	0.254
420	0.254
421	0.254
421	0.254
421	0.254
422	0.254
422	0.254
423	0.254
423	0.253
424	0.253
424	0.253
425	0.253
425	0.253
426	0.253
426	0.253
427	0.253
427	0.253
427	0.253
428	0.253
428	0.253
429	0.252
429	0.252
430	0.252
430	0.251
431	0.251
431	0.251
432	0.25
432	0.25
432	0.25
433	0.25
433	0.25
434	0.25
434	0.25
435	0.25
435	0.25
436	0.25
436	0.25
437	0.25
437	0.25
437	0.25
438	0.25
438	0.25
439	0.25
439	0.25
440	0.25
440	0.249
441	0.249
441	0.249
442	0.249
442	0.249
442	0.249
443	0.249
443	0.249
444	0.249
444	0.249
445	0.249
445	0.249
446	0.249
446	0.249
447	0.249
447	0.249
447	0.249
448	0.249
448	0.249
449	0.249
449	0.249
450	0.249
450	0.249
451	0.249
451	0.249
452	0.249
452	0.249
452	0.249
453	0.249
453	0.249
454	0.249
454	0.248
455	0.249
455	0.249
456	0.249
456	0.248
457	0.248
457	0.248
458	0.248
458	0.248
458	0.249
459	0.248
459	0.248
460	0.248
460	0.247
461	0.248
461	0.248
462	0.249
462	0.249
463	0.25
463	0.25
463	0.251
464	0.251
464	0.251
465	0.252
465	0.252
466	0.252
466	0.252
467	0.253
467	0.252
467	0.252
468	0.252
468	0.252
469	0.252
469	0.252
470	0.253
470	0.253
471	0.253
471	0.253
472	0.253
472	0.253
472	0.254
473	0.254
473	0.255
474	0.255
474	0.256
475	0.256
475	0.257
476	0.257
476	0.258
477	0.259
477	0.259
477	0.259
478	0.26
478	0.26
479	0.261
479	0.261
480	0.261
480	0.261
481	0.262
481	0.262
482	0.263
482	0.263
482	0.264
483	0.266
483	0.267
484	0.268
484	0.269
485	0.27
485	0.271
486	0.271
486	0.272
487	0.273
487	0.274
487	0.274
488	0.275
488	0.275
489	0.276
489	0.277
490	0.278
490	0.279
491	0.28
491	0.282
492	0.283
492	0.283
492	0.284
493	0.285
493	0.286
494	0.288
494	0.29
495	0.291
495	0.292
496	0.293
496	0.294
496	0.296
497	0.298
497	0.299
498	0.3
498	0.302
499	0.303
499	0.304
500	0.306
500	0.308
501	0.31
501	0.311
501	0.312
502	0.314
502	0.315
503	0.317
503	0.319
504	0.32
504	0.322
505	0.324
505	0.326
506	0.328
506	0.33
506	0.332
507	0.334
507	0.337
508	0.339
508	0.341
509	0.343
509	0.345
510	0.347
510	0.348
511	0.35
511	0.352
511	0.353
512	0.355
512	0.356
513	0.357
513	0.358
514	0.36
514	0.362
515	0.363
515	0.364
515	0.365
516	0.367
516	0.368
517	0.37
517	0.372
518	0.373
518	0.374
519	0.375
519	0.376
520	0.377
520	0.379
520	0.38
521	0.381
521	0.382
522	0.383
522	0.384
523	0.385
523	0.386
524	0.387
524	0.388
524	0.389
525	0.39
525	0.391
526	0.391
526	0.392
527	0.393
527	0.393
528	0.393
528	0.393
529	0.393
529	0.393
529	0.393
530	0.393
530	0.393
531	0.393
531	0.393
532	0.393
532	0.393
533	0.393
533	0.392
533	0.393
534	0.392
534	0.392
535	0.391
535	0.391
536	0.39
536	0.39
537	0.389
537	0.389
538	0.388
538	0.387
538	0.386
539	0.386
539	0.385
540	0.384
540	0.382
541	0.381
541	0.38
542	0.379
542	0.377
542	0.376
543	0.375
543	0.373
544	0.372
544	0.37
545	0.369
545	0.368
546	0.367
546	0.365
547	0.364
547	0.362
547	0.36
548	0.359
548	0.358
549	0.357
549	0.355
550	0.354
550	0.352
551	0.35
551	0.349
551	0.347
552	0.346
552	0.344
553	0.343
553	0.342
554	0.34
554	0.337
555	0.335
555	0.334
556	0.332
556	0.33
556	0.329
557	0.327
557	0.326
558	0.324
558	0.322
559	0.321
559	0.319
560	0.318
560	0.316
560	0.315
561	0.314
561	0.313
562	0.312
562	0.31
563	0.309
563	0.308
564	0.307
564	0.306
564	0.306
565	0.305
565	0.304
566	0.303
566	0.302
567	0.301
567	0.301
568	0.299
568	0.298
568	0.297
569	0.295
569	0.294
570	0.292
570	0.29
571	0.289
571	0.288
572	0.286
572	0.285
573	0.283
573	0.281
573	0.28
574	0.279
574	0.278
575	0.278
575	0.278
576	0.278
576	0.276
577	0.275
577	0.274
577	0.274
578	0.274
578	0.275
579	0.275
579	0.275
580	0.273
580	0.27
581	0.268
581	0.267
581	0.267
582	0.267
582	0.267
583	0.267
583	0.266
584	0.264
584	0.262
585	0.263
585	0.264
585	0.264
586	0.264
586	0.263
587	0.261
587	0.26
588	0.259
588	0.258
589	0.258
589	0.257
590	0.256
590	0.255
590	0.256
591	0.256
591	0.255
592	0.254
592	0.253
593	0.253
593	0.252
594	0.252
594	0.251
594	0.25
595	0.25
595	0.249
596	0.248
596	0.249
597	0.251
597	0.25
598	0.25
598	0.25
598	0.25
599	0.25
599	0.25
600	0.249
600	0.249
601	0.249
601	0.249
602	0.248
602	0.248
602	0.247
603	0.248
603	0.248
604	0.248
604	0.248
605	0.249
605	0.249
606	0.248
606	0.247
606	0.246
607	0.246
607	0.246
608	0.245
608	0.244
609	0.243
609	0.243
610	0.242
610	0.241
610	0.241
611	0.241
611	0.241
612	0.242
612	0.242
613	0.242
613	0.241
614	0.24
614	0.239
614	0.238
615	0.237
615	0.236
616	0.236
616	0.235
617	0.235
617	0.235
618	0.234
618	0.234
618	0.234
619	0.234
619	0.234
620	0.235
620	0.234
621	0.233
621	0.232
622	0.231
622	0.23
622	0.228
623	0.227
623	0.227
624	0.227
624	0.226
625	0.226
625	0.226
626	0.225
626	0.225
626	0.226
627	0.226
627	0.226
628	0.227
628	0.226
629	0.226
629	0.226
630	0.225
630	0.224
630	0.225
631	0.225
631	0.224
632	0.224
632	0.224
633	0.223
633	0.223
634	0.223
634	0.223
634	0.223
635	0.222
635	0.222
636	0.221
636	0.221
637	0.22
637	0.22
638	0.219
638	0.219
638	0.218
639	0.218
639	0.217
640	0.217
640	0.216
641	0.216
641	0.215
642	0.215
642	0.215
642	0.214
643	0.213
643	0.212
644	0.211
644	0.21
645	0.209
645	0.208
646	0.207
646	0.204
646	0.201
647	0.198
647	0.195
648	0.191
648	0.187
649	0.182
649	0.178
650	0.173
650	0.168
650	0.161
651	0.155
651	0.147
652	0.138
652	0.128
653	0.119
653	0.11
653	0.111
654	0.117
654	0.112
655	0.104
655	0.098
656	0.091
656	0.083
657	0.077
657	0.071
657	0.063
658	0.057
658	0.031
659	-0.034
659	-0.096
660	-0.128
660	-0.15
661	-0.173
661	-0.199
661	-0.223
662	-0.241
662	-0.259
663	-0.278
663	-0.299
664	-0.313
664	-0.335
665	-0.352
665	-0.369
665	-0.382
666	-0.394
666	-0.406
667	-0.415
667	-0.429
668	-0.44
668	-0.464
669	-0.48
669	-0.489
669	-0.504
670	-0.509
670	-0.52
671	-0.528
671	-0.543
672	-0.562
672	-0.58
672	-0.593
673	-0.596
673	-0.599
674	-0.614
674	-0.615
675	-0.631
675	-0.639
676	-0.646
676	-0.644
676	-0.655
677	-0.656
677	-0.674
678	-0.683
678	-0.686
679	-0.691
679	-0.698
680	-0.705
680	-0.711
680	-0.715
681	-0.729
681	-0.725
682	-0.731
682	-0.724
683	-0.713
683	-0.724
684	-0.725
684	-0.733
684	-0.734
685	-0.736
685	-0.748
686	-0.741
686	-0.743
687	-0.745
687	-0.747
687	-0.761
688	-0.755
688	-0.759
689	-0.771
689	-0.775
690	-0.77
690	-0.766
691	-0.77
691	-0.779
691	-0.786
692	-0.79
692	-0.792
693	-0.804
693	-0.817
694	-0.801
694	-0.804
695	-0.809
695	-0.807
695	-0.816
696	-0.824
696	-0.817
697	-0.814
697	-0.812
698	-0.81
698	-0.804
698	-0.821
699	-0.819
699	-0.823
700	-0.843
700	-0.839
701	-0.829
701	-0.826
702	-0.828
702	-0.828
702	-0.83
703	-0.823
703	-0.811
704	-0.82
704	-0.825
705	-0.816
705	-0.816
705	-0.813
706	-0.806
706	-0.804
707	-0.815
707	-0.817
708	-0.815
708	-0.814
709	-0.817
709	-0.813
709	-0.81
710	-0.819
710	-0.821
711	-0.821
711	-0.82
712	-0.814
712	-0.812
713	-0.817
713	-0.818
713	-0.796
714	-0.798
714	-0.801
715	-0.794
715	-0.803
716	-0.821
716	-0.829
716	-0.829
717	-0.837
717	-0.83
718	-0.825
718	-0.829
719	-0.828
719	-0.821
720	-0.816
720	-0.813
720	-0.807
721	-0.799
721	-0.804
722	-0.8
722	-0.796
723	-0.815
723	-0.827
723	-0.833
724	-0.832
724	-0.837
725	-0.829
725	-0.833
726	-0.837
726	-0.829
727	-0.831
727	-0.838
727	-0.827
728	-0.817
728	-0.813
729	-0.814
729	-0.816
730	-0.822
730	-0.812
730	-0.819
731	-0.823
731	-0.823
732	-0.825
732	-0.823
733	-0.837
733	-0.843
734	-0.853
734	-0.846
734	-0.828
735	-0.819
735	-0.813
736	-0.811
736	-0.807
737	-0.807
737	-0.795
737	-0.787
738	-0.774
738	-0.76
739	-0.763
739	-0.766
740	-0.78
740	-0.783
741	-0.796
741	-0.805
741	-0.815
742	-0.822
742	-0.837
743	-0.843
743	-0.847
744	-0.851
744	-0.858
744	-0.85
745	-0.856
745	-0.843
746	-0.839
746	-0.83
747	-0.834
747	-0.824
748	-0.827
748	-0.832
748	-0.831
749	-0.824
749	-0.832
750	-0.824
750	-0.824
751	-0.824
751	-0.82
751	-0.83
752	-0.835
752	-0.837
753	-0.838
753	-0.83
754	-0.851
754	-0.851
754	-0.859
755	-0.861
755	-0.853
756	-0.857
756	-0.844
757	-0.835
757	-0.825
758	-0.826
758	-0.825
758	-0.821
759	-0.827
759	-0.826
760	-0.822
760	-0.824
761	-0.817
761	-0.823
761	-0.824
762	-0.831
762	-0.833
763	-0.834
763	-0.837
764	-0.832
764	-0.828
764	-0.834
765	-0.832
765	-0.84
766	-0.841
766	-0.842
767	-0.857
767	-0.851
768	-0.849
768	-0.839
768	-0.835
769	-0.839
769	-0.847
770	-0.857
770	-0.862
771	-0.859
771	-0.859
771	-0.864
772	-0.867
772	-0.888
773	-0.891
773	-0.892
774	-0.892
774	-0.875
775	-0.864
775	-0.862
775	-0.865
776	-0.874
776	-0.87
777	-0.871
777	-0.853
778	-0.863
778	-0.872
778	-0.872
779	-0.879
779	-0.893
780	-0.889
780	-0.898
781	-0.889
781	-0.878
781	-0.892
782	-0.911
782	-0.911
783	-0.909
783	-0.916
784	-0.92
784	-0.914
784	-0.934
785	-0.927
785	-0.94
786	-0.945
786	-0.94
787	-0.931
787	-0.94
788	-0.933
788	-0.929
788	-0.932
789	-0.932
789	-0.922
790	-0.921
790	-0.904
791	-0.912
791	-0.906
791	-0.901
792	-0.897
792	-0.902
793	-0.904
793	-0.892
794	-0.885
794	-0.878
794	-0.886
795	-0.907
795	-0.894
796	-0.901
796	-0.896
797	-0.888
797	-0.879
797	-0.872
798	-0.889
798	-0.893
799	-0.895
799	-0.878
800	-0.873
800	-0.88
801	-0.878
801	-0.882
801	-0.88
802	-0.878
802	-0.876
803	-0.871
803	-0.864
804	-0.869
804	-0.879
804	-0.862
805	-0.843
805	-0.832
806	-0.833
806	-0.828
807	-0.83
807	-0.83
807	-0.813
808	-0.81
808	-0.804
809	-0.798
809	-0.801
810	-0.803
810	-0.8
810	-0.795
811	-0.798
811	-0.79
812	-0.784
812	-0.787
813	-0.791
813	-0.791
813	-0.785
814	-0.784
814	-0.79
815	-0.781
815	-0.778
816	-0.775
816	-0.793
817	-0.805
817	-0.809
817	-0.817
818	-0.81
818	-0.808
819	-0.817
819	-0.815
820	-0.827
820	-0.827
820	-0.825
821	-0.819
821	-0.814
822	-0.813
822	-0.802
823	-0.815
823	-0.816
823	-0.812
824	-0.812
824	-0.823
825	-0.821
825	-0.818
826	-0.813
826	-0.81
826	-0.809
827	-0.809
827	-0.797
828	-0.796
828	-0.788
829	-0.781
829	-0.765
829	-0.763
830	-0.763
830	-0.749
831	-0.741
831	-0.73
832	-0.719
832	-0.713
832	-0.707
833	-0.708
833	-0.713
834	-0.709
834	-0.703
835	-0.694
835	-0.694
835	-0.69
836	-0.685
836	-0.683
837	-0.673
837	-0.664
838	-0.65
838	-0.632
839	-0.626
839	-0.613
839	-0.603
840	-0.599
840	-0.588
841	-0.579
841	-0.57
842	-0.561
842	-0.55
842	-0.546
843	-0.543
843	-0.537
844	-0.533
844	-0.522
845	-0.51
845	-0.5
845	-0.489
846	-0.478
846	-0.467
847	-0.454
847	-0.442
848	-0.426
848	-0.409
848	-0.394
849	-0.38
849	-0.366
850	-0.357
850	-0.344
851	-0.33
851	-0.312
851	-0.302
852	-0.285
852	-0.271
853	-0.262
853	-0.251
854	-0.24
854	-0.228
854	-0.214
855	-0.202
855	-0.194
856	-0.186
856	-0.176
857	-0.167
857	-0.158
857	-0.143
858	-0.131
858	-0.122
859	-0.11
859	-0.098
860	-0.086
860	-0.069
860	-0.058
861	-0.047
861	-0.036
862	-0.027
862	-0.019
863	-0.009
863	0.001
863	0.009
864	0.016
864	0.024
865	0.032
865	0.038
866	0.045
866	0.052
866	0.059
867	0.065
867	0.071
868	0.076
868	0.082
869	0.087
869	0.091
869	0.094
870	0.096
870	0.099
871	0.101
871	0.102
872	0.103
872	0.105
872	0.105
873	0.105
873	0.105
874	0.104
874	0.103
875	0.103
875	0.102
875	0.102
876	0.101
876	0.101
877	0.1
877	0.099
878	0.099
878	0.099
878	0.098
879	0.098
879	0.098
880	0.098
880	0.097
881	0.096
881	0.096
881	0.095
882	0.093
882	0.092
883	0.09
883	0.088
884	0.087
884	0.087
884	0.086
885	0.086
885	0.086
886	0.085
886	0.085
887	0.084
887	0.084
887	0.083
888	0.083
888	0.081
889	0.08
889	0.079
890	0.078
890	0.077
890	0.076
891	0.076
891	0.076
892	0.077
892	0.076
893	0.076
893	0.076
893	0.076
894	0.077
894	0.076
895	0.076
895	0.076
895	0.075
896	0.075
896	0.075
897	0.075
897	0.074
898	0.074
898	0.074
898	0.074
899	0.075
899	0.075
900	0.075
900	0.074
901	0.074
901	0.073
901	0.073
902	0.073
902	0.073
903	0.073
903	0.072
904	0.072
904	0.072
904	0.072
905	0.072
905	0.073
906	0.074
906	0.074
907	0.074
907	0.074
907	0.075
908	0.075
908	0.076
909	0.076
909	0.077
910	0.077
910	0.078
910	0.078
911	0.078
911	0.079
912	0.08
912	0.08
913	0.081
913	0.081
913	0.081
914	0.082
914	0.082
915	0.082
915	0.082
916	0.082
916	0.082
916	0.082
917	0.082
917	0.082
918	0.082
918	0.081
918	0.081
919	0.081
919	0.081
920	0.082
920	0.082
921	0.083
921	0.084
921	0.084
922	0.084
922	0.085
923	0.085
923	0.085
924	0.085
924	0.084
924	0.084
925	0.082
925	0.081
926	0.08
926	0.078
927	0.077
927	0.076
927	0.076
928	0.075
928	0.075
929	0.076
929	0.077
930	0.077
930	0.078
930	0.079
931	0.08
931	0.081
932	0.082
932	0.083
933	0.084
933	0.084
933	0.084
934	0.083
934	0.083
935	0.082
935	0.081
935	0.08
936	0.078
936	0.077
937	0.075
937	0.074
938	0.073
938	0.072
938	0.072
939	0.071
939	0.07
940	0.07
940	0.069
941	0.068
941	0.067
941	0.067
942	0.066
942	0.066
943	0.065
943	0.064
944	0.064
944	0.062
944	0.061
945	0.061
945	0.06
946	0.059
946	0.058
946	0.058
947	0.058
947	0.057
948	0.057
948	0.058
949	0.059
949	0.06
949	0.062
950	0.063
950	0.065
951	0.067
951	0.068
952	0.069
952	0.07
952	0.071
953	0.072
953	0.072
954	0.072
954	0.072
955	0.072
955	0.072
955	0.071
956	0.07
956	0.07
957	0.068
957	0.067
957	0.066
958	0.065
958	0.064
959	0.064
959	0.063
960	0.062
960	0.061
960	0.062
961	0.062
961	0.062
962	0.062
962	0.062
963	0.062
963	0.062
963	0.062
964	0.062
964	0.063
965	0.063
965	0.063
966	0.063
966	0.063
966	0.064
967	0.064
967	0.064
968	0.064
968	0.064
968	0.064
969	0.064
969	0.064
970	0.064
970	0.063
971	0.063
971	0.063
971	0.062
972	0.063
972	0.063
973	0.063
973	0.062
974	0.062
974	0.063
974	0.063
975	0.063
975	0.063
976	0.063
976	0.063
976	0.063
977	0.063
977	0.063
978	0.062
978	0.062
979	0.061
979	0.061
979	0.061
980	0.061
980	0.061
981	0.061
981	0.061
982	0.061
982	0.061
982	0.061
983	0.061
983	0.061
984	0.061
984	0.061
984	0.06
985	0.06
985	0.059
986	0.058
986	0.057
987	0.056
987	0.056
987	0.055
988	0.054
988	0.053
989	0.053
989	0.052
990	0.051
990	0.05
990	0.049
991	0.048
991	0.047
992	0.047
992	0.045
992	0.045
993	0.044
993	0.043
994	0.042
994	0.04
995	0.039
995	0.038
995	0.036
996	0.035
996	0.034
997	0.032
997	0.031
997	0.031
998	0.031
998	0.031
999	0.031
999	0.031
1000	0.031
1000	0.032
1000	0.032
1001	0.033
1001	0.034
1002	0.035
1002	0.035
1003	0.036
1003	0.036
1003	0.036
1004	0.037
1004	0.037
1005	0.037
1005	0.036
1005	0.036
1006	0.035
1006	0.034
1007	0.033
1007	0.033
1008	0.032
1008	0.031
1008	0.031
1009	0.031
1009	0.031
1010	0.031
1010	0.032
1010	0.032
1011	0.033
1011	0.034
1012	0.034
1012	0.035
1013	0.036
1013	0.037
1013	0.037
1014	0.038
1014	0.038
1015	0.039
1015	0.039
1016	0.039
1016	0.039
1016	0.038
1017	0.038
1017	0.037
1018	0.038
1018	0.037
1018	0.037
1019	0.037
1019	0.037
1020	0.036
1020	0.036
1021	0.036
1021	0.036
1021	0.036
1022	0.035
1022	0.035
1023	0.036
1023	0.036
1023	0.036
1024	0.036
1024	0.036
1025	0.037
1025	0.037
1026	0.038
1026	0.038
1026	0.038
1027	0.038
1027	0.038
1028	0.039
1028	0.039
1028	0.04
1029	0.04
1029	0.04
1030	0.039
1030	0.039
1031	0.039
1031	0.039
1031	0.039
1032	0.039
1032	0.038
1033	0.037
1033	0.037
1033	0.037
1034	0.036
1034	0.036
1035	0.035
1035	0.035
1036	0.034
1036	0.034
1036	0.033
1037	0.033
1037	0.033
1038	0.033
1038	0.033
1039	0.033
1039	0.034
1039	0.034
1040	0.034
1040	0.035
1041	0.035
1041	0.035
1041	0.034
1042	0.033
1042	0.033
1043	0.032
1043	0.031
1044	0.03
1044	0.029
1044	0.028
1045	0.027
1045	0.027
1046	0.026
1046	0.025
1046	0.025
1047	0.025
1047	0.025
1048	0.025
1048	0.025
1049	0.025
1049	0.025
1049	0.025
1050	0.025
1050	0.024
1051	0.024
1051	0.023
1051	0.023
1052	0.022
1052	0.021
1053	0.02
1053	0.02
1053	0.02
1054	0.019
1054	0.019
1055	0.019
1055	0.02
1056	0.019
1056	0.019
1056	0.019
1057	0.019
1057	0.019
1058	0.018
1058	0.017
1058	0.017
1059	0.016
1059	0.015
1060	0.015
1060	0.015
1061	0.014
1061	0.014
1061	0.013
1062	0.013
1062	0.013
1063	0.013
1063	0.013
1063	0.013
1064	0.013
1064	0.014
1065	0.014
1065	0.014
1066	0.014
1066	0.014
1066	0.013
1067	0.013
1067	0.012
1068	0.011
1068	0.011
1068	0.01
1069	0.01
1069	0.008
1070	0.008
1070	0.007
1071	0.007
1071	0.007
1071	0.006
1072	0.005
1072	0.006
1073	0.005
1073	0.005
1073	0.004
1074	0.004
1074	0.004
1075	0.003
1075	0.002
1076	0.001
1076	0.001
1076	-0
1077	-0.001
1077	-0.002
1078	-0.002
1078	-0.003
1078	-0.004
1079	-0.004
1079	-0.005
1080	-0.006
1080	-0.006
1080	-0.008
1081	-0.009
1081	-0.01
1082	-0.01
1082	-0.012
1083	-0.013
1083	-0.014
1083	-0.015
1084	-0.017
1084	-0.018
1085	-0.019
1085	-0.02
1085	-0.021
1086	-0.021
1086	-0.023
1087	-0.024
1087	-0.024
1088	-0.026
1088	-0.027
1088	-0.027
1089	-0.029
1089	-0.03
1090	-0.031
1090	-0.031
1090	-0.034
1091	-0.035
1091	-0.035
1092	-0.036
1092	-0.036
1092	-0.038
1093	-0.039
1093	-0.039
1094	-0.04
1094	-0.04
1095	-0.042
1095	-0.042
1095	-0.042
1096	-0.044
1096	-0.046
1097	-0.047
1097	-0.049
1097	-0.051
1098	-0.053
1098	-0.055
1099	-0.057
1099	-0.059
1100	-0.061
1100	-0.064
1100	-0.067
1101	-0.071
1101	-0.073
1102	-0.075
1102	-0.078
1102	-0.08
1103	-0.083
1103	-0.086
1104	-0.09
1104	-0.094
1104	-0.096
1105	-0.098
1105	-0.101
1106	-0.108
1106	-0.11
1107	-0.115
1107	-0.12
1107	-0.125
1108	-0.127
1108	-0.128
1109	-0.132
1109	-0.136
1109	-0.141
1110	-0.143
1110	-0.145
1111	-0.158
1111	-0.151
