Data from 3.4A_17C_Absorbance__869__02781.txt Node

Date: Tue Jun 20 16:56:07 CEST 2023
User: Marek
Spectrometer: MAYP115816
Trigger mode: 0
Integration Time (sec): 2.200000E-1
Scans to average: 10
Electric dark correction enabled: true
Nonlinearity correction enabled: true
Boxcar width: 5
XAxis mode: Wavelengths
Number of Pixels in Spectrum: 2068
>>>>>Begin Spectral Data<<<<<
199	-0.806
199	-0.791
200	-0.754
200	-0.695
201	-0.666
201	-0.658
202	-0.644
202	-0.638
203	-0.637
203	-0.632
204	-0.611
204	-0.595
205	-0.572
205	-0.564
205	-0.575
206	-0.577
206	-0.573
207	-0.565
207	-0.57
208	-0.571
208	-0.575
209	-0.577
209	-0.582
210	-0.596
210	-0.602
211	-0.595
211	-0.599
212	-0.609
212	-0.616
213	-0.614
213	-0.61
213	-0.606
214	-0.614
214	-0.617
215	-0.612
215	-0.617
216	-0.627
216	-0.632
217	-0.63
217	-0.629
218	-0.635
218	-0.637
219	-0.644
219	-0.643
220	-0.646
220	-0.655
221	-0.654
221	-0.654
221	-0.646
222	-0.644
222	-0.643
223	-0.64
223	-0.643
224	-0.644
224	-0.644
225	-0.641
225	-0.64
226	-0.641
226	-0.64
227	-0.647
227	-0.657
228	-0.663
228	-0.672
229	-0.676
229	-0.674
229	-0.674
230	-0.669
230	-0.668
231	-0.664
231	-0.66
232	-0.663
232	-0.658
233	-0.656
233	-0.645
234	-0.646
234	-0.64
235	-0.644
235	-0.657
236	-0.662
236	-0.664
236	-0.664
237	-0.663
237	-0.663
238	-0.664
238	-0.663
239	-0.664
239	-0.674
240	-0.667
240	-0.663
241	-0.66
241	-0.663
242	-0.667
242	-0.676
243	-0.678
243	-0.681
243	-0.688
244	-0.684
244	-0.686
245	-0.689
245	-0.693
246	-0.702
246	-0.707
247	-0.715
247	-0.699
248	-0.698
248	-0.7
249	-0.706
249	-0.709
250	-0.707
250	-0.715
250	-0.714
251	-0.713
251	-0.708
252	-0.709
252	-0.721
253	-0.716
253	-0.726
254	-0.73
254	-0.73
255	-0.741
255	-0.741
256	-0.74
256	-0.754
257	-0.764
257	-0.762
258	-0.765
258	-0.773
258	-0.772
259	-0.765
259	-0.784
260	-0.784
260	-0.773
261	-0.786
261	-0.773
262	-0.78
262	-0.778
263	-0.768
263	-0.773
264	-0.781
264	-0.782
265	-0.771
265	-0.772
265	-0.782
266	-0.774
266	-0.773
267	-0.771
267	-0.787
268	-0.795
268	-0.791
269	-0.784
269	-0.799
270	-0.804
270	-0.804
271	-0.817
271	-0.826
272	-0.825
272	-0.827
272	-0.821
273	-0.831
273	-0.846
274	-0.838
274	-0.833
275	-0.83
275	-0.818
276	-0.821
276	-0.828
277	-0.831
277	-0.828
278	-0.833
278	-0.831
278	-0.819
279	-0.829
279	-0.842
280	-0.846
280	-0.857
281	-0.852
281	-0.843
282	-0.85
282	-0.845
283	-0.838
283	-0.854
284	-0.867
284	-0.878
285	-0.857
285	-0.864
285	-0.855
286	-0.86
286	-0.874
287	-0.871
287	-0.868
288	-0.868
288	-0.849
289	-0.848
289	-0.855
290	-0.864
290	-0.851
291	-0.855
291	-0.852
292	-0.834
292	-0.832
292	-0.839
293	-0.826
293	-0.823
294	-0.822
294	-0.807
295	-0.791
295	-0.805
296	-0.816
296	-0.811
297	-0.8
297	-0.803
298	-0.798
298	-0.816
298	-0.819
299	-0.8
299	-0.794
300	-0.789
300	-0.769
301	-0.75
301	-0.752
302	-0.761
302	-0.746
303	-0.739
303	-0.726
304	-0.71
304	-0.714
305	-0.706
305	-0.715
305	-0.732
306	-0.718
306	-0.718
307	-0.711
307	-0.722
308	-0.725
308	-0.722
309	-0.725
309	-0.72
310	-0.716
310	-0.71
311	-0.696
311	-0.714
311	-0.702
312	-0.699
312	-0.689
313	-0.679
313	-0.679
314	-0.683
314	-0.682
315	-0.68
315	-0.675
316	-0.67
316	-0.659
317	-0.651
317	-0.648
318	-0.64
318	-0.639
318	-0.629
319	-0.618
319	-0.61
320	-0.607
320	-0.603
321	-0.598
321	-0.597
322	-0.592
322	-0.584
323	-0.585
323	-0.576
324	-0.575
324	-0.565
324	-0.553
325	-0.539
325	-0.523
326	-0.514
326	-0.491
327	-0.477
327	-0.456
328	-0.424
328	-0.4
329	-0.374
329	-0.346
330	-0.32
330	-0.286
330	-0.253
331	-0.218
331	-0.186
332	-0.153
332	-0.122
333	-0.094
333	-0.063
334	-0.035
334	-0.01
335	0.014
335	0.035
336	0.056
336	0.074
336	0.089
337	0.105
337	0.121
338	0.133
338	0.143
339	0.154
339	0.164
340	0.171
340	0.178
341	0.185
341	0.19
342	0.196
342	0.202
342	0.205
343	0.208
343	0.213
344	0.215
344	0.218
345	0.221
345	0.223
346	0.225
346	0.226
347	0.228
347	0.229
348	0.231
348	0.232
348	0.233
349	0.233
349	0.234
350	0.235
350	0.235
351	0.236
351	0.236
352	0.236
352	0.236
353	0.237
353	0.237
354	0.237
354	0.237
354	0.237
355	0.237
355	0.237
356	0.237
356	0.237
357	0.238
357	0.238
358	0.237
358	0.237
359	0.237
359	0.238
360	0.238
360	0.238
360	0.238
361	0.238
361	0.238
362	0.238
362	0.238
363	0.238
363	0.238
364	0.238
364	0.238
365	0.238
365	0.238
366	0.238
366	0.238
366	0.238
367	0.238
367	0.238
368	0.238
368	0.237
369	0.237
369	0.237
370	0.237
370	0.237
371	0.237
371	0.237
372	0.237
372	0.236
372	0.237
373	0.237
373	0.236
374	0.237
374	0.237
375	0.236
375	0.236
376	0.236
376	0.236
377	0.236
377	0.236
378	0.236
378	0.236
378	0.235
379	0.235
379	0.235
380	0.235
380	0.235
381	0.235
381	0.235
382	0.235
382	0.235
383	0.235
383	0.235
383	0.235
384	0.235
384	0.235
385	0.235
385	0.235
386	0.235
386	0.235
387	0.234
387	0.234
388	0.234
388	0.234
389	0.234
389	0.234
389	0.234
390	0.234
390	0.234
391	0.234
391	0.234
392	0.234
392	0.234
393	0.234
393	0.234
394	0.234
394	0.233
394	0.233
395	0.233
395	0.233
396	0.233
396	0.232
397	0.232
397	0.232
398	0.232
398	0.231
399	0.231
399	0.231
400	0.231
400	0.231
400	0.23
401	0.23
401	0.23
402	0.23
402	0.23
403	0.23
403	0.23
404	0.23
404	0.229
405	0.229
405	0.229
405	0.229
406	0.229
406	0.229
407	0.229
407	0.229
408	0.229
408	0.228
409	0.228
409	0.228
410	0.228
410	0.228
411	0.228
411	0.228
411	0.228
412	0.228
412	0.227
413	0.227
413	0.227
414	0.227
414	0.227
415	0.227
415	0.226
416	0.226
416	0.226
416	0.226
417	0.226
417	0.225
418	0.225
418	0.225
419	0.225
419	0.225
420	0.225
420	0.225
421	0.225
421	0.225
421	0.225
422	0.225
422	0.225
423	0.225
423	0.225
424	0.225
424	0.225
425	0.225
425	0.225
426	0.225
426	0.225
427	0.225
427	0.225
427	0.225
428	0.225
428	0.225
429	0.225
429	0.224
430	0.224
430	0.224
431	0.223
431	0.223
432	0.223
432	0.222
432	0.222
433	0.222
433	0.222
434	0.222
434	0.222
435	0.222
435	0.222
436	0.222
436	0.222
437	0.222
437	0.222
437	0.222
438	0.222
438	0.222
439	0.222
439	0.222
440	0.222
440	0.221
441	0.221
441	0.221
442	0.221
442	0.221
442	0.221
443	0.221
443	0.22
444	0.22
444	0.22
445	0.22
445	0.22
446	0.22
446	0.22
447	0.22
447	0.221
447	0.221
448	0.221
448	0.221
449	0.221
449	0.221
450	0.221
450	0.221
451	0.221
451	0.221
452	0.221
452	0.22
452	0.221
453	0.221
453	0.22
454	0.22
454	0.22
455	0.22
455	0.22
456	0.22
456	0.22
457	0.22
457	0.219
458	0.219
458	0.219
458	0.219
459	0.219
459	0.219
460	0.218
460	0.218
461	0.218
461	0.218
462	0.219
462	0.219
463	0.22
463	0.221
463	0.221
464	0.221
464	0.221
465	0.222
465	0.222
466	0.222
466	0.222
467	0.222
467	0.222
467	0.221
468	0.221
468	0.221
469	0.221
469	0.221
470	0.222
470	0.222
471	0.222
471	0.221
472	0.221
472	0.222
472	0.222
473	0.223
473	0.223
474	0.223
474	0.224
475	0.224
475	0.225
476	0.225
476	0.225
477	0.226
477	0.226
477	0.226
478	0.226
478	0.226
479	0.227
479	0.227
480	0.227
480	0.227
481	0.227
481	0.227
482	0.228
482	0.228
482	0.229
483	0.23
483	0.232
484	0.232
484	0.232
485	0.233
485	0.233
486	0.234
486	0.234
487	0.235
487	0.235
487	0.236
488	0.236
488	0.236
489	0.236
489	0.237
490	0.238
490	0.238
491	0.239
491	0.24
492	0.241
492	0.242
492	0.242
493	0.243
493	0.244
494	0.245
494	0.246
495	0.247
495	0.248
496	0.248
496	0.249
496	0.25
497	0.252
497	0.253
498	0.253
498	0.254
499	0.255
499	0.256
500	0.258
500	0.259
501	0.26
501	0.261
501	0.262
502	0.263
502	0.264
503	0.266
503	0.267
504	0.268
504	0.27
505	0.271
505	0.272
506	0.274
506	0.276
506	0.277
507	0.279
507	0.281
508	0.283
508	0.284
509	0.286
509	0.287
510	0.289
510	0.29
511	0.291
511	0.292
511	0.293
512	0.295
512	0.295
513	0.296
513	0.298
514	0.299
514	0.3
515	0.301
515	0.302
515	0.303
516	0.304
516	0.305
517	0.306
517	0.307
518	0.308
518	0.309
519	0.31
519	0.311
520	0.312
520	0.313
520	0.314
521	0.315
521	0.316
522	0.317
522	0.318
523	0.319
523	0.321
524	0.321
524	0.322
524	0.323
525	0.324
525	0.325
526	0.326
526	0.326
527	0.327
527	0.327
528	0.328
528	0.328
529	0.328
529	0.329
529	0.329
530	0.329
530	0.329
531	0.33
531	0.33
532	0.33
532	0.33
533	0.33
533	0.33
533	0.33
534	0.33
534	0.33
535	0.331
535	0.331
536	0.331
536	0.331
537	0.331
537	0.332
538	0.332
538	0.331
538	0.331
539	0.331
539	0.331
540	0.33
540	0.329
541	0.329
541	0.328
542	0.328
542	0.327
542	0.326
543	0.326
543	0.325
544	0.325
544	0.325
545	0.324
545	0.324
546	0.323
546	0.323
547	0.321
547	0.32
547	0.32
548	0.32
548	0.319
549	0.318
549	0.318
550	0.317
550	0.316
551	0.315
551	0.315
551	0.314
552	0.313
552	0.313
553	0.312
553	0.311
554	0.31
554	0.308
555	0.307
555	0.306
556	0.305
556	0.304
556	0.303
557	0.303
557	0.302
558	0.301
558	0.3
559	0.299
559	0.299
560	0.298
560	0.297
560	0.297
561	0.297
561	0.297
562	0.296
562	0.295
563	0.294
563	0.294
564	0.294
564	0.293
564	0.293
565	0.293
565	0.293
566	0.292
566	0.292
567	0.292
567	0.292
568	0.291
568	0.29
568	0.289
569	0.288
569	0.287
570	0.286
570	0.284
571	0.284
571	0.283
572	0.281
572	0.28
573	0.279
573	0.277
573	0.276
574	0.275
574	0.275
575	0.275
575	0.276
576	0.276
576	0.275
577	0.274
577	0.273
577	0.274
578	0.274
578	0.274
579	0.275
579	0.275
580	0.273
580	0.271
581	0.269
581	0.269
581	0.269
582	0.269
582	0.269
583	0.27
583	0.269
584	0.266
584	0.265
585	0.266
585	0.267
585	0.267
586	0.267
586	0.266
587	0.265
587	0.264
588	0.263
588	0.262
589	0.262
589	0.262
590	0.262
590	0.261
590	0.262
591	0.262
591	0.262
592	0.261
592	0.26
593	0.26
593	0.26
594	0.259
594	0.259
594	0.258
595	0.258
595	0.257
596	0.256
596	0.257
597	0.259
597	0.259
598	0.259
598	0.259
598	0.259
599	0.259
599	0.259
600	0.258
600	0.258
601	0.259
601	0.259
602	0.258
602	0.258
602	0.257
603	0.258
603	0.258
604	0.258
604	0.258
605	0.259
605	0.259
606	0.259
606	0.257
606	0.257
607	0.257
607	0.257
608	0.256
608	0.255
609	0.254
609	0.254
610	0.253
610	0.252
610	0.253
611	0.253
611	0.253
612	0.253
612	0.253
613	0.253
613	0.253
614	0.252
614	0.251
614	0.25
615	0.249
615	0.249
616	0.248
616	0.248
617	0.248
617	0.247
618	0.247
618	0.246
618	0.246
619	0.246
619	0.246
620	0.247
620	0.246
621	0.245
621	0.244
622	0.242
622	0.241
622	0.239
623	0.238
623	0.238
624	0.238
624	0.237
625	0.236
625	0.236
626	0.235
626	0.234
626	0.234
627	0.234
627	0.234
628	0.233
628	0.233
629	0.231
629	0.23
630	0.228
630	0.227
630	0.226
631	0.225
631	0.223
632	0.221
632	0.22
633	0.218
633	0.215
634	0.214
634	0.212
634	0.21
635	0.208
635	0.206
636	0.204
636	0.201
637	0.198
637	0.195
638	0.192
638	0.19
638	0.187
639	0.183
639	0.179
640	0.175
640	0.171
641	0.167
641	0.163
642	0.159
642	0.155
642	0.151
643	0.146
643	0.14
644	0.135
644	0.13
645	0.124
645	0.119
646	0.113
646	0.106
646	0.099
647	0.092
647	0.084
648	0.077
648	0.069
649	0.06
649	0.053
650	0.046
650	0.038
650	0.029
651	0.019
651	0.006
652	-0.009
652	-0.025
653	-0.039
653	-0.052
653	-0.048
654	-0.028
654	-0.022
655	-0.028
655	-0.034
656	-0.042
656	-0.05
657	-0.055
657	-0.061
657	-0.068
658	-0.076
658	-0.11
659	-0.202
659	-0.301
660	-0.344
660	-0.373
661	-0.402
661	-0.434
661	-0.467
662	-0.497
662	-0.531
663	-0.567
663	-0.608
664	-0.648
664	-0.691
665	-0.739
665	-0.788
665	-0.835
666	-0.887
666	-0.944
667	-1.001
667	-1.066
668	-1.126
668	-1.196
669	-1.265
669	-1.338
669	-1.415
670	-1.495
670	-1.597
671	-1.727
671	-1.972
672	-2.257
672	-2.435
672	-2.564
673	-2.666
673	-2.749
674	-2.828
674	-2.854
675	-2.872
675	-2.877
676	-2.877
676	-2.851
676	-2.788
677	-2.713
677	-2.627
678	-2.502
678	-2.315
679	-1.967
679	-1.739
680	-1.618
680	-1.534
680	-1.459
681	-1.403
681	-1.344
682	-1.297
682	-1.25
683	-1.204
683	-1.176
684	-1.144
684	-1.123
684	-1.097
685	-1.073
685	-1.061
686	-1.036
686	-1.02
687	-1.008
687	-0.994
687	-0.992
688	-0.974
688	-0.964
689	-0.965
689	-0.961
690	-0.947
690	-0.933
691	-0.93
691	-0.932
691	-0.931
692	-0.932
692	-0.928
693	-0.933
693	-0.942
694	-0.921
694	-0.918
695	-0.922
695	-0.916
695	-0.922
696	-0.928
696	-0.921
697	-0.914
697	-0.909
698	-0.904
698	-0.897
698	-0.91
699	-0.908
699	-0.908
700	-0.928
700	-0.921
701	-0.905
701	-0.898
702	-0.898
702	-0.897
702	-0.897
703	-0.887
703	-0.875
704	-0.882
704	-0.885
705	-0.873
705	-0.873
705	-0.868
706	-0.861
706	-0.856
707	-0.867
707	-0.872
708	-0.87
708	-0.869
709	-0.869
709	-0.865
709	-0.861
710	-0.868
710	-0.872
711	-0.871
711	-0.872
712	-0.863
712	-0.858
713	-0.861
713	-0.862
713	-0.842
714	-0.844
714	-0.848
715	-0.839
715	-0.847
716	-0.862
716	-0.871
716	-0.871
717	-0.878
717	-0.871
718	-0.864
718	-0.863
719	-0.858
719	-0.851
720	-0.846
720	-0.842
720	-0.838
721	-0.828
721	-0.832
722	-0.83
722	-0.826
723	-0.845
723	-0.858
723	-0.868
724	-0.868
724	-0.873
725	-0.866
725	-0.869
726	-0.871
726	-0.864
727	-0.864
727	-0.872
727	-0.861
728	-0.849
728	-0.844
729	-0.845
729	-0.848
730	-0.854
730	-0.846
730	-0.851
731	-0.853
731	-0.854
732	-0.855
732	-0.851
733	-0.867
733	-0.873
734	-0.882
734	-0.873
734	-0.854
735	-0.842
735	-0.838
736	-0.838
736	-0.831
737	-0.83
737	-0.82
737	-0.812
738	-0.799
738	-0.787
739	-0.789
739	-0.792
740	-0.807
740	-0.808
741	-0.817
741	-0.829
741	-0.838
742	-0.844
742	-0.858
743	-0.865
743	-0.867
744	-0.87
744	-0.876
744	-0.869
745	-0.876
745	-0.867
746	-0.861
746	-0.853
747	-0.855
747	-0.846
748	-0.846
748	-0.852
748	-0.853
749	-0.845
749	-0.853
750	-0.844
750	-0.843
751	-0.843
751	-0.838
751	-0.849
752	-0.852
752	-0.855
753	-0.854
753	-0.847
754	-0.867
754	-0.867
754	-0.875
755	-0.874
755	-0.867
756	-0.871
756	-0.858
757	-0.85
757	-0.84
758	-0.842
758	-0.842
758	-0.837
759	-0.84
759	-0.84
760	-0.84
760	-0.842
761	-0.836
761	-0.84
761	-0.842
762	-0.848
762	-0.848
763	-0.849
763	-0.852
764	-0.851
764	-0.846
764	-0.851
765	-0.85
765	-0.855
766	-0.859
766	-0.861
767	-0.876
767	-0.872
768	-0.871
768	-0.862
768	-0.857
769	-0.862
769	-0.871
770	-0.881
770	-0.884
771	-0.879
771	-0.878
771	-0.883
772	-0.888
772	-0.908
773	-0.91
773	-0.91
774	-0.908
774	-0.89
775	-0.879
775	-0.879
775	-0.884
776	-0.894
776	-0.89
777	-0.89
777	-0.873
778	-0.883
778	-0.892
778	-0.892
779	-0.9
779	-0.914
780	-0.91
780	-0.92
781	-0.91
781	-0.9
781	-0.913
782	-0.933
782	-0.935
783	-0.936
783	-0.943
784	-0.947
784	-0.941
784	-0.959
785	-0.951
785	-0.961
786	-0.965
786	-0.958
787	-0.947
787	-0.956
788	-0.946
788	-0.941
788	-0.942
789	-0.941
789	-0.929
790	-0.928
790	-0.914
791	-0.919
791	-0.916
791	-0.908
792	-0.902
792	-0.906
793	-0.909
793	-0.898
794	-0.891
794	-0.886
794	-0.894
795	-0.913
795	-0.9
796	-0.904
796	-0.902
797	-0.894
797	-0.884
797	-0.877
798	-0.896
798	-0.899
799	-0.898
799	-0.884
800	-0.88
800	-0.888
801	-0.886
801	-0.891
801	-0.888
802	-0.887
802	-0.885
803	-0.881
803	-0.874
804	-0.879
804	-0.887
804	-0.87
805	-0.85
805	-0.839
806	-0.84
806	-0.838
807	-0.84
807	-0.838
807	-0.82
808	-0.817
808	-0.81
809	-0.805
809	-0.806
810	-0.81
810	-0.807
810	-0.803
811	-0.806
811	-0.796
812	-0.791
812	-0.794
813	-0.797
813	-0.797
813	-0.793
814	-0.792
814	-0.798
815	-0.79
815	-0.784
816	-0.778
816	-0.796
817	-0.808
817	-0.812
817	-0.822
818	-0.816
818	-0.813
819	-0.823
819	-0.822
820	-0.834
820	-0.833
820	-0.833
821	-0.827
821	-0.823
822	-0.822
822	-0.81
823	-0.822
823	-0.821
823	-0.818
824	-0.814
824	-0.825
825	-0.825
825	-0.822
826	-0.818
826	-0.813
826	-0.812
827	-0.813
827	-0.801
828	-0.801
828	-0.794
829	-0.787
829	-0.773
829	-0.77
830	-0.767
830	-0.751
831	-0.745
831	-0.734
832	-0.724
832	-0.719
832	-0.711
833	-0.71
833	-0.715
834	-0.708
834	-0.703
835	-0.695
835	-0.694
835	-0.689
836	-0.685
836	-0.681
837	-0.669
837	-0.659
838	-0.645
838	-0.628
839	-0.623
839	-0.61
839	-0.6
840	-0.6
840	-0.587
841	-0.577
841	-0.57
842	-0.563
842	-0.551
842	-0.549
843	-0.545
843	-0.541
844	-0.537
844	-0.527
845	-0.512
845	-0.504
845	-0.492
846	-0.481
846	-0.469
847	-0.456
847	-0.443
848	-0.427
848	-0.409
848	-0.393
849	-0.379
849	-0.366
850	-0.353
850	-0.341
851	-0.327
851	-0.309
851	-0.3
852	-0.283
852	-0.269
853	-0.259
853	-0.248
854	-0.235
854	-0.223
854	-0.21
855	-0.198
855	-0.187
856	-0.178
856	-0.168
857	-0.159
857	-0.15
857	-0.135
858	-0.122
858	-0.113
859	-0.101
859	-0.087
860	-0.074
860	-0.058
860	-0.047
861	-0.034
861	-0.023
862	-0.013
862	-0.004
863	0.006
863	0.017
863	0.024
864	0.031
864	0.039
865	0.047
865	0.054
866	0.062
866	0.069
866	0.075
867	0.082
867	0.089
868	0.094
868	0.1
869	0.106
869	0.111
869	0.114
870	0.117
870	0.119
871	0.122
871	0.123
872	0.124
872	0.125
872	0.126
873	0.126
873	0.125
874	0.124
874	0.123
875	0.123
875	0.122
875	0.121
876	0.12
876	0.119
877	0.118
877	0.117
878	0.116
878	0.115
878	0.115
879	0.114
879	0.114
880	0.114
880	0.113
881	0.113
881	0.112
881	0.111
882	0.11
882	0.109
883	0.108
883	0.106
884	0.105
884	0.104
884	0.104
885	0.104
885	0.104
886	0.104
886	0.104
887	0.103
887	0.103
887	0.102
888	0.102
888	0.101
889	0.1
889	0.099
890	0.097
890	0.097
890	0.096
891	0.096
891	0.096
892	0.097
892	0.097
893	0.097
893	0.097
893	0.097
894	0.097
894	0.097
895	0.097
895	0.097
895	0.096
896	0.096
896	0.095
897	0.095
897	0.095
898	0.095
898	0.095
898	0.095
899	0.095
899	0.095
900	0.095
900	0.095
901	0.095
901	0.094
901	0.094
902	0.094
902	0.095
903	0.095
903	0.094
904	0.094
904	0.094
904	0.094
905	0.094
905	0.094
906	0.095
906	0.095
907	0.095
907	0.095
907	0.095
908	0.095
908	0.095
909	0.096
909	0.096
910	0.097
910	0.097
910	0.097
911	0.098
911	0.099
912	0.1
912	0.101
913	0.101
913	0.101
913	0.102
914	0.102
914	0.102
915	0.102
915	0.102
916	0.102
916	0.102
916	0.102
917	0.102
917	0.101
918	0.101
918	0.101
918	0.101
919	0.101
919	0.101
920	0.101
920	0.101
921	0.102
921	0.102
921	0.103
922	0.103
922	0.103
923	0.104
923	0.104
924	0.104
924	0.103
924	0.103
925	0.102
925	0.1
926	0.1
926	0.099
927	0.098
927	0.097
927	0.097
928	0.097
928	0.098
929	0.098
929	0.099
930	0.1
930	0.101
930	0.102
931	0.102
931	0.103
932	0.104
932	0.105
933	0.105
933	0.105
933	0.105
934	0.104
934	0.103
935	0.103
935	0.102
935	0.1
936	0.099
936	0.097
937	0.095
937	0.094
938	0.094
938	0.092
938	0.092
939	0.091
939	0.09
940	0.089
940	0.088
941	0.087
941	0.087
941	0.087
942	0.086
942	0.086
943	0.085
943	0.084
944	0.084
944	0.082
944	0.082
945	0.081
945	0.08
946	0.079
946	0.077
946	0.077
947	0.076
947	0.075
948	0.076
948	0.076
949	0.077
949	0.078
949	0.079
950	0.08
950	0.081
951	0.083
951	0.084
952	0.086
952	0.087
952	0.088
953	0.089
953	0.09
954	0.09
954	0.09
955	0.09
955	0.09
955	0.089
956	0.089
956	0.088
957	0.087
957	0.086
957	0.085
958	0.084
958	0.083
959	0.082
959	0.082
960	0.081
960	0.081
960	0.081
961	0.081
961	0.081
962	0.081
962	0.081
963	0.081
963	0.081
963	0.082
964	0.082
964	0.082
965	0.083
965	0.083
966	0.083
966	0.083
966	0.084
967	0.084
967	0.084
968	0.084
968	0.084
968	0.084
969	0.084
969	0.084
970	0.083
970	0.083
971	0.082
971	0.082
971	0.081
972	0.082
972	0.081
973	0.081
973	0.081
974	0.08
974	0.081
974	0.081
975	0.081
975	0.081
976	0.081
976	0.082
976	0.082
977	0.082
977	0.082
978	0.081
978	0.081
979	0.081
979	0.08
979	0.08
980	0.08
980	0.079
981	0.079
981	0.079
982	0.079
982	0.079
982	0.079
983	0.079
983	0.079
984	0.079
984	0.078
984	0.078
985	0.078
985	0.077
986	0.076
986	0.075
987	0.074
987	0.073
987	0.073
988	0.072
988	0.071
989	0.071
989	0.07
990	0.069
990	0.068
990	0.067
991	0.066
991	0.066
992	0.065
992	0.064
992	0.064
993	0.063
993	0.062
994	0.061
994	0.06
995	0.059
995	0.058
995	0.056
996	0.055
996	0.054
997	0.053
997	0.052
997	0.051
998	0.05
998	0.05
999	0.05
999	0.05
1000	0.05
1000	0.05
1000	0.051
1001	0.052
1001	0.053
1002	0.053
1002	0.054
1003	0.054
1003	0.054
1003	0.055
1004	0.055
1004	0.055
1005	0.055
1005	0.054
1005	0.054
1006	0.053
1006	0.053
1007	0.052
1007	0.051
1008	0.051
1008	0.05
1008	0.05
1009	0.05
1009	0.05
1010	0.05
1010	0.051
1010	0.052
1011	0.052
1011	0.052
1012	0.053
1012	0.054
1013	0.055
1013	0.055
1013	0.055
1014	0.055
1014	0.056
1015	0.056
1015	0.055
1016	0.055
1016	0.055
1016	0.055
1017	0.054
1017	0.054
1018	0.054
1018	0.053
1018	0.053
1019	0.052
1019	0.052
1020	0.052
1020	0.051
1021	0.051
1021	0.05
1021	0.05
1022	0.05
1022	0.05
1023	0.05
1023	0.05
1023	0.05
1024	0.05
1024	0.05
1025	0.05
1025	0.05
1026	0.05
1026	0.051
1026	0.05
1027	0.051
1027	0.051
1028	0.052
1028	0.052
1028	0.053
1029	0.052
1029	0.053
1030	0.052
1030	0.052
1031	0.052
1031	0.053
1031	0.053
1032	0.053
1032	0.053
1033	0.052
1033	0.052
1033	0.052
1034	0.051
1034	0.051
1035	0.05
1035	0.049
1036	0.048
1036	0.048
1036	0.048
1037	0.047
1037	0.047
1038	0.047
1038	0.047
1039	0.047
1039	0.048
1039	0.048
1040	0.049
1040	0.049
1041	0.049
1041	0.049
1041	0.049
1042	0.048
1042	0.047
1043	0.046
1043	0.046
1044	0.045
1044	0.044
1044	0.043
1045	0.042
1045	0.041
1046	0.04
1046	0.04
1046	0.04
1047	0.039
1047	0.04
1048	0.04
1048	0.04
1049	0.04
1049	0.04
1049	0.04
1050	0.04
1050	0.04
1051	0.039
1051	0.039
1051	0.039
1052	0.038
1052	0.038
1053	0.037
1053	0.037
1053	0.037
1054	0.036
1054	0.036
1055	0.036
1055	0.037
1056	0.036
1056	0.036
1056	0.035
1057	0.034
1057	0.034
1058	0.034
1058	0.033
1058	0.033
1059	0.033
1059	0.032
1060	0.031
1060	0.03
1061	0.03
1061	0.03
1061	0.03
1062	0.029
1062	0.029
1063	0.029
1063	0.029
1063	0.029
1064	0.029
1064	0.029
1065	0.029
1065	0.029
1066	0.029
1066	0.029
1066	0.029
1067	0.028
1067	0.027
1068	0.026
1068	0.025
1068	0.024
1069	0.023
1069	0.022
1070	0.021
1070	0.02
1071	0.019
1071	0.019
1071	0.018
1072	0.017
1072	0.018
1073	0.017
1073	0.017
1073	0.016
1074	0.016
1074	0.016
1075	0.016
1075	0.015
1076	0.014
1076	0.014
1076	0.013
1077	0.012
1077	0.011
1078	0.011
1078	0.01
1078	0.01
1079	0.009
1079	0.008
1080	0.007
1080	0.007
1080	0.006
1081	0.005
1081	0.005
1082	0.004
1082	0.003
1083	0.002
1083	0.001
1083	0
1084	-0.001
1084	-0.001
1085	-0.003
1085	-0.003
1085	-0.004
1086	-0.005
1086	-0.006
1087	-0.007
1087	-0.008
1088	-0.01
1088	-0.011
1088	-0.012
1089	-0.014
1089	-0.015
1090	-0.016
1090	-0.017
1090	-0.02
1091	-0.022
1091	-0.023
1092	-0.024
1092	-0.024
1092	-0.025
1093	-0.026
1093	-0.026
1094	-0.027
1094	-0.028
1095	-0.03
1095	-0.03
1095	-0.03
1096	-0.031
1096	-0.033
1097	-0.034
1097	-0.036
1097	-0.038
1098	-0.041
1098	-0.043
1099	-0.045
1099	-0.047
1100	-0.05
1100	-0.052
1100	-0.056
1101	-0.06
1101	-0.063
1102	-0.066
1102	-0.069
1102	-0.071
1103	-0.074
1103	-0.078
1104	-0.082
1104	-0.085
1104	-0.087
1105	-0.09
1105	-0.093
1106	-0.099
1106	-0.101
1107	-0.108
1107	-0.112
1107	-0.117
1108	-0.119
1108	-0.12
1109	-0.124
1109	-0.129
1109	-0.134
1110	-0.135
1110	-0.137
1111	-0.148
1111	-0.144
