Data from 3.4A_17C_Absorbance__655__02567.txt Node

Date: Tue Jun 20 16:48:16 CEST 2023
User: Marek
Spectrometer: MAYP115816
Trigger mode: 0
Integration Time (sec): 2.200000E-1
Scans to average: 10
Electric dark correction enabled: true
Nonlinearity correction enabled: true
Boxcar width: 5
XAxis mode: Wavelengths
Number of Pixels in Spectrum: 2068
>>>>>Begin Spectral Data<<<<<
199	-0.806
199	-0.787
200	-0.752
200	-0.695
201	-0.668
201	-0.66
202	-0.643
202	-0.637
203	-0.635
203	-0.629
204	-0.609
204	-0.593
205	-0.57
205	-0.558
205	-0.568
206	-0.569
206	-0.565
207	-0.557
207	-0.562
208	-0.564
208	-0.568
209	-0.569
209	-0.575
210	-0.588
210	-0.597
211	-0.591
211	-0.594
212	-0.603
212	-0.611
213	-0.608
213	-0.603
213	-0.6
214	-0.606
214	-0.609
215	-0.605
215	-0.611
216	-0.62
216	-0.627
217	-0.624
217	-0.626
218	-0.633
218	-0.634
219	-0.641
219	-0.644
220	-0.647
220	-0.655
221	-0.654
221	-0.654
221	-0.643
222	-0.644
222	-0.64
223	-0.636
223	-0.64
224	-0.641
224	-0.637
225	-0.634
225	-0.636
226	-0.636
226	-0.636
227	-0.644
227	-0.654
228	-0.659
228	-0.668
229	-0.671
229	-0.671
229	-0.672
230	-0.668
230	-0.666
231	-0.662
231	-0.656
232	-0.66
232	-0.652
233	-0.654
233	-0.642
234	-0.643
234	-0.635
235	-0.639
235	-0.651
236	-0.658
236	-0.661
236	-0.662
237	-0.66
237	-0.661
238	-0.66
238	-0.663
239	-0.665
239	-0.676
240	-0.67
240	-0.665
241	-0.661
241	-0.664
242	-0.667
242	-0.676
243	-0.678
243	-0.681
243	-0.684
244	-0.682
244	-0.684
245	-0.686
245	-0.69
246	-0.699
246	-0.701
247	-0.709
247	-0.696
248	-0.694
248	-0.696
249	-0.701
249	-0.703
250	-0.7
250	-0.708
250	-0.705
251	-0.705
251	-0.701
252	-0.701
252	-0.712
253	-0.707
253	-0.719
254	-0.726
254	-0.726
255	-0.736
255	-0.735
256	-0.739
256	-0.752
257	-0.761
257	-0.758
258	-0.759
258	-0.767
258	-0.765
259	-0.758
259	-0.775
260	-0.775
260	-0.765
261	-0.775
261	-0.76
262	-0.766
262	-0.767
263	-0.759
263	-0.764
264	-0.774
264	-0.775
265	-0.767
265	-0.769
265	-0.777
266	-0.768
266	-0.769
267	-0.767
267	-0.783
268	-0.79
268	-0.783
269	-0.775
269	-0.791
270	-0.793
270	-0.793
271	-0.807
271	-0.818
272	-0.82
272	-0.823
272	-0.817
273	-0.829
273	-0.845
274	-0.836
274	-0.83
275	-0.828
275	-0.817
276	-0.82
276	-0.827
277	-0.829
277	-0.825
278	-0.829
278	-0.828
278	-0.815
279	-0.822
279	-0.835
280	-0.837
280	-0.848
281	-0.842
281	-0.832
282	-0.838
282	-0.834
283	-0.827
283	-0.841
284	-0.855
284	-0.866
285	-0.846
285	-0.852
285	-0.843
286	-0.85
286	-0.867
287	-0.864
287	-0.863
288	-0.861
288	-0.843
289	-0.842
289	-0.85
290	-0.859
290	-0.847
291	-0.851
291	-0.848
292	-0.829
292	-0.826
292	-0.83
293	-0.819
293	-0.816
294	-0.817
294	-0.803
295	-0.786
295	-0.799
296	-0.811
296	-0.804
297	-0.79
297	-0.794
298	-0.789
298	-0.807
298	-0.808
299	-0.79
299	-0.783
300	-0.779
300	-0.76
301	-0.742
301	-0.746
302	-0.759
302	-0.744
303	-0.738
303	-0.724
304	-0.708
304	-0.71
305	-0.703
305	-0.711
305	-0.724
306	-0.709
306	-0.706
307	-0.697
307	-0.71
308	-0.712
308	-0.707
309	-0.711
309	-0.706
310	-0.702
310	-0.697
311	-0.684
311	-0.703
311	-0.691
312	-0.69
312	-0.678
313	-0.67
313	-0.671
314	-0.676
314	-0.675
315	-0.671
315	-0.665
316	-0.659
316	-0.649
317	-0.642
317	-0.637
318	-0.629
318	-0.625
318	-0.616
319	-0.604
319	-0.595
320	-0.595
320	-0.594
321	-0.591
321	-0.589
322	-0.581
322	-0.575
323	-0.575
323	-0.566
324	-0.563
324	-0.552
324	-0.541
325	-0.525
325	-0.507
326	-0.496
326	-0.471
327	-0.457
327	-0.434
328	-0.402
328	-0.378
329	-0.35
329	-0.323
330	-0.296
330	-0.261
330	-0.226
331	-0.189
331	-0.158
332	-0.124
332	-0.092
333	-0.063
333	-0.031
334	-0.002
334	0.024
335	0.051
335	0.072
336	0.094
336	0.115
336	0.132
337	0.149
337	0.166
338	0.18
338	0.19
339	0.203
339	0.214
340	0.222
340	0.23
341	0.237
341	0.243
342	0.249
342	0.255
342	0.259
343	0.263
343	0.268
344	0.27
344	0.273
345	0.276
345	0.279
346	0.281
346	0.283
347	0.284
347	0.286
348	0.287
348	0.289
348	0.29
349	0.29
349	0.291
350	0.292
350	0.292
351	0.293
351	0.293
352	0.293
352	0.293
353	0.294
353	0.294
354	0.294
354	0.294
354	0.294
355	0.295
355	0.295
356	0.295
356	0.295
357	0.295
357	0.295
358	0.295
358	0.295
359	0.295
359	0.295
360	0.295
360	0.295
360	0.295
361	0.295
361	0.295
362	0.295
362	0.295
363	0.295
363	0.295
364	0.295
364	0.295
365	0.295
365	0.295
366	0.295
366	0.295
366	0.295
367	0.295
367	0.295
368	0.294
368	0.294
369	0.294
369	0.294
370	0.294
370	0.294
371	0.293
371	0.293
372	0.293
372	0.293
372	0.293
373	0.292
373	0.292
374	0.292
374	0.292
375	0.292
375	0.292
376	0.291
376	0.291
377	0.291
377	0.291
378	0.291
378	0.29
378	0.29
379	0.29
379	0.289
380	0.289
380	0.289
381	0.289
381	0.289
382	0.289
382	0.288
383	0.288
383	0.288
383	0.288
384	0.288
384	0.288
385	0.287
385	0.287
386	0.287
386	0.287
387	0.287
387	0.286
388	0.286
388	0.286
389	0.286
389	0.286
389	0.285
390	0.285
390	0.285
391	0.285
391	0.285
392	0.285
392	0.285
393	0.285
393	0.285
394	0.285
394	0.284
394	0.284
395	0.284
395	0.283
396	0.283
396	0.283
397	0.282
397	0.282
398	0.282
398	0.281
399	0.281
399	0.281
400	0.281
400	0.281
400	0.28
401	0.28
401	0.28
402	0.279
402	0.279
403	0.279
403	0.279
404	0.279
404	0.279
405	0.278
405	0.278
405	0.278
406	0.277
406	0.277
407	0.277
407	0.277
408	0.276
408	0.276
409	0.276
409	0.276
410	0.276
410	0.276
411	0.276
411	0.276
411	0.275
412	0.275
412	0.275
413	0.275
413	0.275
414	0.275
414	0.274
415	0.274
415	0.274
416	0.274
416	0.273
416	0.273
417	0.273
417	0.273
418	0.273
418	0.273
419	0.273
419	0.273
420	0.272
420	0.273
421	0.272
421	0.272
421	0.272
422	0.272
422	0.273
423	0.272
423	0.272
424	0.272
424	0.271
425	0.271
425	0.271
426	0.271
426	0.271
427	0.271
427	0.271
427	0.271
428	0.271
428	0.271
429	0.271
429	0.271
430	0.27
430	0.27
431	0.27
431	0.269
432	0.269
432	0.268
432	0.268
433	0.268
433	0.268
434	0.268
434	0.268
435	0.268
435	0.268
436	0.268
436	0.269
437	0.268
437	0.268
437	0.268
438	0.268
438	0.268
439	0.268
439	0.268
440	0.268
440	0.268
441	0.268
441	0.267
442	0.267
442	0.267
442	0.267
443	0.267
443	0.267
444	0.267
444	0.267
445	0.266
445	0.266
446	0.266
446	0.266
447	0.266
447	0.267
447	0.267
448	0.267
448	0.267
449	0.267
449	0.267
450	0.267
450	0.267
451	0.267
451	0.267
452	0.267
452	0.267
452	0.267
453	0.267
453	0.267
454	0.267
454	0.267
455	0.267
455	0.268
456	0.268
456	0.267
457	0.267
457	0.267
458	0.267
458	0.267
458	0.267
459	0.267
459	0.266
460	0.266
460	0.266
461	0.266
461	0.267
462	0.267
462	0.268
463	0.269
463	0.269
463	0.27
464	0.27
464	0.271
465	0.271
465	0.271
466	0.272
466	0.272
467	0.272
467	0.272
467	0.272
468	0.272
468	0.271
469	0.272
469	0.272
470	0.273
470	0.273
471	0.273
471	0.273
472	0.273
472	0.274
472	0.274
473	0.275
473	0.275
474	0.276
474	0.276
475	0.277
475	0.278
476	0.278
476	0.279
477	0.28
477	0.28
477	0.281
478	0.281
478	0.282
479	0.282
479	0.283
480	0.283
480	0.283
481	0.284
481	0.284
482	0.285
482	0.286
482	0.287
483	0.289
483	0.291
484	0.292
484	0.292
485	0.294
485	0.295
486	0.296
486	0.297
487	0.298
487	0.298
487	0.299
488	0.3
488	0.3
489	0.301
489	0.303
490	0.304
490	0.305
491	0.306
491	0.308
492	0.309
492	0.31
492	0.311
493	0.312
493	0.313
494	0.316
494	0.317
495	0.319
495	0.32
496	0.321
496	0.323
496	0.325
497	0.326
497	0.328
498	0.33
498	0.332
499	0.333
499	0.335
500	0.337
500	0.339
501	0.341
501	0.343
501	0.344
502	0.346
502	0.348
503	0.35
503	0.352
504	0.354
504	0.356
505	0.359
505	0.361
506	0.363
506	0.366
506	0.368
507	0.37
507	0.373
508	0.376
508	0.378
509	0.381
509	0.383
510	0.385
510	0.387
511	0.389
511	0.391
511	0.392
512	0.394
512	0.396
513	0.397
513	0.399
514	0.4
514	0.403
515	0.404
515	0.405
515	0.407
516	0.409
516	0.411
517	0.412
517	0.414
518	0.416
518	0.417
519	0.418
519	0.419
520	0.42
520	0.421
520	0.423
521	0.423
521	0.424
522	0.425
522	0.427
523	0.428
523	0.429
524	0.43
524	0.431
524	0.432
525	0.433
525	0.434
526	0.435
526	0.435
527	0.436
527	0.436
528	0.436
528	0.436
529	0.436
529	0.437
529	0.436
530	0.436
530	0.436
531	0.436
531	0.435
532	0.435
532	0.435
533	0.434
533	0.434
533	0.433
534	0.432
534	0.432
535	0.432
535	0.431
536	0.431
536	0.43
537	0.43
537	0.429
538	0.428
538	0.427
538	0.426
539	0.425
539	0.424
540	0.423
540	0.421
541	0.419
541	0.418
542	0.416
542	0.415
542	0.413
543	0.411
543	0.41
544	0.407
544	0.406
545	0.404
545	0.403
546	0.401
546	0.399
547	0.397
547	0.394
547	0.393
548	0.391
548	0.389
549	0.387
549	0.386
550	0.384
550	0.382
551	0.38
551	0.378
551	0.376
552	0.374
552	0.373
553	0.371
553	0.369
554	0.367
554	0.364
555	0.361
555	0.359
556	0.357
556	0.355
556	0.353
557	0.351
557	0.349
558	0.347
558	0.345
559	0.343
559	0.341
560	0.339
560	0.337
560	0.336
561	0.335
561	0.333
562	0.331
562	0.33
563	0.328
563	0.326
564	0.325
564	0.323
564	0.322
565	0.321
565	0.32
566	0.318
566	0.317
567	0.316
567	0.315
568	0.314
568	0.312
568	0.31
569	0.309
569	0.307
570	0.305
570	0.303
571	0.302
571	0.3
572	0.298
572	0.296
573	0.294
573	0.292
573	0.29
574	0.289
574	0.288
575	0.287
575	0.288
576	0.287
576	0.285
577	0.283
577	0.283
577	0.282
578	0.282
578	0.282
579	0.282
579	0.282
580	0.28
580	0.277
581	0.274
581	0.274
581	0.274
582	0.273
582	0.273
583	0.273
583	0.272
584	0.269
584	0.267
585	0.267
585	0.268
585	0.268
586	0.267
586	0.266
587	0.264
587	0.263
588	0.261
588	0.26
589	0.26
589	0.259
590	0.258
590	0.257
590	0.258
591	0.257
591	0.256
592	0.255
592	0.253
593	0.253
593	0.252
594	0.251
594	0.25
594	0.25
595	0.249
595	0.247
596	0.246
596	0.247
597	0.248
597	0.248
598	0.247
598	0.247
598	0.247
599	0.247
599	0.246
600	0.246
600	0.245
601	0.246
601	0.245
602	0.244
602	0.244
602	0.243
603	0.243
603	0.244
604	0.244
604	0.243
605	0.244
605	0.244
606	0.243
606	0.241
606	0.241
607	0.24
607	0.24
608	0.239
608	0.238
609	0.237
609	0.237
610	0.236
610	0.235
610	0.235
611	0.235
611	0.234
612	0.234
612	0.234
613	0.234
613	0.234
614	0.232
614	0.231
614	0.23
615	0.229
615	0.228
616	0.227
616	0.226
617	0.226
617	0.225
618	0.224
618	0.224
618	0.223
619	0.223
619	0.223
620	0.223
620	0.222
621	0.221
621	0.219
622	0.218
622	0.216
622	0.214
623	0.213
623	0.213
624	0.212
624	0.211
625	0.21
625	0.209
626	0.208
626	0.207
626	0.208
627	0.208
627	0.207
628	0.207
628	0.206
629	0.205
629	0.204
630	0.202
630	0.201
630	0.2
631	0.199
631	0.197
632	0.195
632	0.193
633	0.192
633	0.19
634	0.188
634	0.186
634	0.185
635	0.182
635	0.18
636	0.178
636	0.176
637	0.173
637	0.17
638	0.168
638	0.165
638	0.162
639	0.158
639	0.154
640	0.151
640	0.147
641	0.143
641	0.139
642	0.135
642	0.132
642	0.128
643	0.123
643	0.118
644	0.114
644	0.109
645	0.104
645	0.099
646	0.094
646	0.088
646	0.081
647	0.075
647	0.068
648	0.061
648	0.053
649	0.045
649	0.038
650	0.031
650	0.024
650	0.016
651	0.007
651	-0.005
652	-0.019
652	-0.033
653	-0.046
653	-0.058
653	-0.053
654	-0.034
654	-0.029
655	-0.034
655	-0.04
656	-0.047
656	-0.054
657	-0.059
657	-0.064
657	-0.071
658	-0.078
658	-0.11
659	-0.198
659	-0.29
660	-0.331
660	-0.359
661	-0.387
661	-0.417
661	-0.448
662	-0.477
662	-0.508
663	-0.542
663	-0.58
664	-0.617
664	-0.658
665	-0.703
665	-0.749
665	-0.793
666	-0.843
666	-0.897
667	-0.951
667	-1.013
668	-1.072
668	-1.14
669	-1.207
669	-1.278
669	-1.354
670	-1.433
670	-1.535
671	-1.678
671	-1.98
672	-2.262
672	-2.439
672	-2.568
673	-2.669
673	-2.753
674	-2.832
674	-2.857
675	-2.875
675	-2.88
676	-2.88
676	-2.848
676	-2.784
677	-2.708
677	-2.62
678	-2.492
678	-2.3
679	-1.931
679	-1.685
680	-1.561
680	-1.478
680	-1.405
681	-1.35
681	-1.293
682	-1.247
682	-1.202
683	-1.158
683	-1.132
684	-1.101
684	-1.081
684	-1.057
685	-1.035
685	-1.024
686	-1.001
686	-0.987
687	-0.978
687	-0.965
687	-0.963
688	-0.946
688	-0.938
689	-0.94
689	-0.936
690	-0.922
690	-0.911
691	-0.908
691	-0.911
691	-0.91
692	-0.91
692	-0.908
693	-0.914
693	-0.924
694	-0.904
694	-0.903
695	-0.904
695	-0.897
695	-0.904
696	-0.91
696	-0.902
697	-0.895
697	-0.889
698	-0.885
698	-0.877
698	-0.891
699	-0.89
699	-0.892
700	-0.912
700	-0.906
701	-0.892
701	-0.889
702	-0.889
702	-0.887
702	-0.887
703	-0.879
703	-0.868
704	-0.874
704	-0.878
705	-0.866
705	-0.866
705	-0.862
706	-0.855
706	-0.85
707	-0.861
707	-0.865
708	-0.862
708	-0.858
709	-0.86
709	-0.856
709	-0.851
710	-0.859
710	-0.861
711	-0.858
711	-0.86
712	-0.851
712	-0.847
713	-0.854
713	-0.855
713	-0.834
714	-0.837
714	-0.84
715	-0.831
715	-0.841
716	-0.857
716	-0.865
716	-0.865
717	-0.873
717	-0.863
718	-0.857
718	-0.858
719	-0.853
719	-0.847
720	-0.84
720	-0.833
720	-0.83
721	-0.821
721	-0.827
722	-0.824
722	-0.822
723	-0.838
723	-0.849
723	-0.858
724	-0.856
724	-0.862
725	-0.858
725	-0.86
726	-0.863
726	-0.854
727	-0.854
727	-0.86
727	-0.851
728	-0.839
728	-0.835
729	-0.837
729	-0.839
730	-0.844
730	-0.834
730	-0.841
731	-0.843
731	-0.844
732	-0.847
732	-0.84
733	-0.856
733	-0.862
734	-0.871
734	-0.864
734	-0.846
735	-0.836
735	-0.83
736	-0.829
736	-0.824
737	-0.824
737	-0.815
737	-0.806
738	-0.792
738	-0.78
739	-0.782
739	-0.782
740	-0.796
740	-0.796
741	-0.807
741	-0.817
741	-0.827
742	-0.835
742	-0.849
743	-0.856
743	-0.858
744	-0.862
744	-0.871
744	-0.866
745	-0.874
745	-0.862
746	-0.857
746	-0.847
747	-0.849
747	-0.84
748	-0.841
748	-0.846
748	-0.847
749	-0.84
749	-0.845
750	-0.836
750	-0.836
751	-0.837
751	-0.834
751	-0.844
752	-0.846
752	-0.85
753	-0.851
753	-0.844
754	-0.863
754	-0.864
754	-0.872
755	-0.872
755	-0.865
756	-0.868
756	-0.854
757	-0.849
757	-0.837
758	-0.838
758	-0.837
758	-0.833
759	-0.838
759	-0.837
760	-0.836
760	-0.837
761	-0.833
761	-0.838
761	-0.838
762	-0.845
762	-0.844
763	-0.845
763	-0.848
764	-0.847
764	-0.843
764	-0.848
765	-0.847
765	-0.852
766	-0.856
766	-0.858
767	-0.873
767	-0.867
768	-0.866
768	-0.859
768	-0.853
769	-0.857
769	-0.865
770	-0.875
770	-0.88
771	-0.873
771	-0.872
771	-0.876
772	-0.88
772	-0.901
773	-0.901
773	-0.901
774	-0.899
774	-0.882
775	-0.868
775	-0.868
775	-0.874
776	-0.887
776	-0.883
777	-0.885
777	-0.866
778	-0.877
778	-0.885
778	-0.886
779	-0.895
779	-0.911
780	-0.907
780	-0.914
781	-0.902
781	-0.893
781	-0.906
782	-0.928
782	-0.93
783	-0.93
783	-0.938
784	-0.941
784	-0.933
784	-0.951
785	-0.943
785	-0.955
786	-0.959
786	-0.952
787	-0.941
787	-0.949
788	-0.941
788	-0.935
788	-0.935
789	-0.936
789	-0.926
790	-0.926
790	-0.912
791	-0.92
791	-0.914
791	-0.908
792	-0.901
792	-0.906
793	-0.909
793	-0.896
794	-0.889
794	-0.881
794	-0.889
795	-0.907
795	-0.892
796	-0.897
796	-0.892
797	-0.887
797	-0.876
797	-0.869
798	-0.889
798	-0.894
799	-0.894
799	-0.878
800	-0.875
800	-0.883
801	-0.882
801	-0.887
801	-0.882
802	-0.883
802	-0.883
803	-0.88
803	-0.874
804	-0.881
804	-0.89
804	-0.873
805	-0.854
805	-0.845
806	-0.845
806	-0.84
807	-0.841
807	-0.84
807	-0.821
808	-0.816
808	-0.808
809	-0.801
809	-0.802
810	-0.806
810	-0.803
810	-0.799
811	-0.804
811	-0.795
812	-0.789
812	-0.792
813	-0.795
813	-0.795
813	-0.791
814	-0.79
814	-0.794
815	-0.786
815	-0.781
816	-0.776
816	-0.792
817	-0.803
817	-0.806
817	-0.817
818	-0.81
818	-0.808
819	-0.819
819	-0.817
820	-0.829
820	-0.83
820	-0.828
821	-0.824
821	-0.819
822	-0.818
822	-0.806
823	-0.818
823	-0.817
823	-0.811
824	-0.81
824	-0.821
825	-0.819
825	-0.817
826	-0.813
826	-0.809
826	-0.808
827	-0.808
827	-0.797
828	-0.797
828	-0.792
829	-0.785
829	-0.769
829	-0.766
830	-0.765
830	-0.751
831	-0.745
831	-0.735
832	-0.727
832	-0.722
832	-0.714
833	-0.712
833	-0.717
834	-0.713
834	-0.709
835	-0.699
835	-0.696
835	-0.691
836	-0.686
836	-0.681
837	-0.671
837	-0.663
838	-0.65
838	-0.634
839	-0.628
839	-0.615
839	-0.605
840	-0.604
840	-0.594
841	-0.584
841	-0.578
842	-0.57
842	-0.558
842	-0.555
843	-0.549
843	-0.543
844	-0.54
844	-0.529
845	-0.514
845	-0.505
845	-0.494
846	-0.48
846	-0.468
847	-0.457
847	-0.443
848	-0.429
848	-0.411
848	-0.396
849	-0.384
849	-0.371
850	-0.36
850	-0.349
851	-0.336
851	-0.32
851	-0.309
852	-0.293
852	-0.28
853	-0.271
853	-0.26
854	-0.248
854	-0.237
854	-0.224
855	-0.211
855	-0.202
856	-0.194
856	-0.185
857	-0.178
857	-0.169
857	-0.155
858	-0.143
858	-0.136
859	-0.124
859	-0.111
860	-0.1
860	-0.085
860	-0.073
861	-0.062
861	-0.051
862	-0.042
862	-0.033
863	-0.024
863	-0.013
863	-0.006
864	0
864	0.008
865	0.015
865	0.022
866	0.029
866	0.034
866	0.041
867	0.047
867	0.053
868	0.058
868	0.063
869	0.069
869	0.072
869	0.075
870	0.077
870	0.079
871	0.081
871	0.082
872	0.084
872	0.084
872	0.085
873	0.085
873	0.085
874	0.084
874	0.083
875	0.083
875	0.082
875	0.082
876	0.082
876	0.081
877	0.08
877	0.08
878	0.079
878	0.078
878	0.078
879	0.078
879	0.078
880	0.078
880	0.077
881	0.076
881	0.075
881	0.074
882	0.073
882	0.072
883	0.07
883	0.069
884	0.068
884	0.067
884	0.067
885	0.067
885	0.067
886	0.066
886	0.066
887	0.065
887	0.064
887	0.064
888	0.064
888	0.063
889	0.062
889	0.06
890	0.06
890	0.059
890	0.058
891	0.059
891	0.058
892	0.059
892	0.059
893	0.059
893	0.059
893	0.059
894	0.059
894	0.059
895	0.058
895	0.058
895	0.058
896	0.058
896	0.058
897	0.058
897	0.058
898	0.058
898	0.058
898	0.058
899	0.058
899	0.058
900	0.058
900	0.058
901	0.057
901	0.057
901	0.056
902	0.056
902	0.056
903	0.056
903	0.056
904	0.056
904	0.056
904	0.056
905	0.057
905	0.057
906	0.058
906	0.058
907	0.059
907	0.059
907	0.059
908	0.059
908	0.06
909	0.06
909	0.06
910	0.061
910	0.061
910	0.061
911	0.062
911	0.062
912	0.063
912	0.063
913	0.064
913	0.064
913	0.065
914	0.065
914	0.065
915	0.065
915	0.066
916	0.066
916	0.066
916	0.065
917	0.065
917	0.065
918	0.065
918	0.065
918	0.065
919	0.065
919	0.065
920	0.066
920	0.066
921	0.067
921	0.068
921	0.068
922	0.069
922	0.069
923	0.07
923	0.07
924	0.07
924	0.069
924	0.068
925	0.067
925	0.066
926	0.065
926	0.064
927	0.063
927	0.062
927	0.061
928	0.061
928	0.061
929	0.062
929	0.062
930	0.063
930	0.063
930	0.064
931	0.065
931	0.066
932	0.067
932	0.068
933	0.069
933	0.069
933	0.069
934	0.068
934	0.068
935	0.068
935	0.067
935	0.065
936	0.064
936	0.063
937	0.061
937	0.06
938	0.059
938	0.058
938	0.057
939	0.056
939	0.055
940	0.055
940	0.054
941	0.053
941	0.053
941	0.052
942	0.052
942	0.051
943	0.051
943	0.05
944	0.049
944	0.048
944	0.048
945	0.047
945	0.047
946	0.046
946	0.046
946	0.045
947	0.045
947	0.045
948	0.046
948	0.047
949	0.047
949	0.048
949	0.05
950	0.051
950	0.053
951	0.054
951	0.055
952	0.056
952	0.057
952	0.058
953	0.059
953	0.06
954	0.059
954	0.059
955	0.059
955	0.059
955	0.058
956	0.058
956	0.057
957	0.056
957	0.055
957	0.054
958	0.053
958	0.053
959	0.052
959	0.051
960	0.051
960	0.05
960	0.05
961	0.05
961	0.051
962	0.051
962	0.051
963	0.051
963	0.051
963	0.051
964	0.051
964	0.052
965	0.052
965	0.052
966	0.052
966	0.052
966	0.052
967	0.053
967	0.053
968	0.052
968	0.052
968	0.052
969	0.052
969	0.052
970	0.052
970	0.051
971	0.051
971	0.051
971	0.051
972	0.051
972	0.051
973	0.051
973	0.051
974	0.051
974	0.051
974	0.052
975	0.052
975	0.052
976	0.052
976	0.052
976	0.052
977	0.052
977	0.051
978	0.051
978	0.05
979	0.05
979	0.049
979	0.049
980	0.049
980	0.049
981	0.049
981	0.049
982	0.05
982	0.05
982	0.05
983	0.05
983	0.049
984	0.049
984	0.049
984	0.048
985	0.048
985	0.048
986	0.047
986	0.046
987	0.045
987	0.044
987	0.044
988	0.043
988	0.042
989	0.041
989	0.04
990	0.04
990	0.038
990	0.038
991	0.037
991	0.036
992	0.035
992	0.034
992	0.034
993	0.033
993	0.032
994	0.03
994	0.029
995	0.028
995	0.026
995	0.024
996	0.023
996	0.022
997	0.02
997	0.019
997	0.018
998	0.018
998	0.018
999	0.018
999	0.018
1000	0.019
1000	0.019
1000	0.02
1001	0.021
1001	0.022
1002	0.022
1002	0.023
1003	0.023
1003	0.023
1003	0.023
1004	0.023
1004	0.023
1005	0.023
1005	0.023
1005	0.022
1006	0.021
1006	0.021
1007	0.02
1007	0.019
1008	0.019
1008	0.018
1008	0.018
1009	0.018
1009	0.018
1010	0.018
1010	0.019
1010	0.02
1011	0.02
1011	0.021
1012	0.022
1012	0.023
1013	0.024
1013	0.024
1013	0.025
1014	0.025
1014	0.026
1015	0.026
1015	0.026
1016	0.027
1016	0.026
1016	0.026
1017	0.026
1017	0.026
1018	0.026
1018	0.026
1018	0.026
1019	0.025
1019	0.025
1020	0.025
1020	0.024
1021	0.024
1021	0.024
1021	0.024
1022	0.023
1022	0.023
1023	0.024
1023	0.024
1023	0.024
1024	0.024
1024	0.024
1025	0.025
1025	0.025
1026	0.026
1026	0.026
1026	0.026
1027	0.026
1027	0.027
1028	0.027
1028	0.028
1028	0.028
1029	0.028
1029	0.028
1030	0.027
1030	0.027
1031	0.027
1031	0.027
1031	0.027
1032	0.027
1032	0.027
1033	0.026
1033	0.026
1033	0.026
1034	0.025
1034	0.025
1035	0.024
1035	0.023
1036	0.023
1036	0.022
1036	0.022
1037	0.022
1037	0.022
1038	0.022
1038	0.022
1039	0.023
1039	0.023
1039	0.024
1040	0.024
1040	0.025
1041	0.024
1041	0.024
1041	0.024
1042	0.023
1042	0.022
1043	0.021
1043	0.021
1044	0.02
1044	0.019
1044	0.018
1045	0.017
1045	0.016
1046	0.015
1046	0.015
1046	0.015
1047	0.014
1047	0.014
1048	0.015
1048	0.015
1049	0.015
1049	0.014
1049	0.015
1050	0.014
1050	0.014
1051	0.013
1051	0.013
1051	0.013
1052	0.012
1052	0.011
1053	0.011
1053	0.01
1053	0.01
1054	0.009
1054	0.009
1055	0.009
1055	0.009
1056	0.009
1056	0.008
1056	0.008
1057	0.008
1057	0.008
1058	0.007
1058	0.007
1058	0.007
1059	0.006
1059	0.005
1060	0.005
1060	0.004
1061	0.004
1061	0.004
1061	0.004
1062	0.003
1062	0.003
1063	0.003
1063	0.003
1063	0.003
1064	0.003
1064	0.004
1065	0.004
1065	0.003
1066	0.003
1066	0.003
1066	0.003
1067	0.002
1067	0.002
1068	0.001
1068	0
1068	-0
1069	-0.001
1069	-0.002
1070	-0.003
1070	-0.004
1071	-0.004
1071	-0.005
1071	-0.006
1072	-0.006
1072	-0.006
1073	-0.006
1073	-0.006
1073	-0.007
1074	-0.006
1074	-0.007
1075	-0.007
1075	-0.008
1076	-0.009
1076	-0.009
1076	-0.01
1077	-0.011
1077	-0.012
1078	-0.013
1078	-0.013
1078	-0.014
1079	-0.015
1079	-0.015
1080	-0.016
1080	-0.017
1080	-0.018
1081	-0.019
1081	-0.02
1082	-0.02
1082	-0.021
1083	-0.023
1083	-0.024
1083	-0.025
1084	-0.027
1084	-0.028
1085	-0.029
1085	-0.03
1085	-0.031
1086	-0.032
1086	-0.034
1087	-0.035
1087	-0.035
1088	-0.036
1088	-0.037
1088	-0.038
1089	-0.039
1089	-0.04
1090	-0.041
1090	-0.041
1090	-0.043
1091	-0.044
1091	-0.044
1092	-0.045
1092	-0.045
1092	-0.046
1093	-0.047
1093	-0.047
1094	-0.048
1094	-0.049
1095	-0.05
1095	-0.05
1095	-0.05
1096	-0.052
1096	-0.054
1097	-0.055
1097	-0.058
1097	-0.059
1098	-0.062
1098	-0.064
1099	-0.066
1099	-0.068
1100	-0.071
1100	-0.074
1100	-0.077
1101	-0.08
1101	-0.083
1102	-0.085
1102	-0.088
1102	-0.089
1103	-0.092
1103	-0.095
1104	-0.098
1104	-0.101
1104	-0.103
1105	-0.105
1105	-0.107
1106	-0.112
1106	-0.115
1107	-0.121
1107	-0.126
1107	-0.131
1108	-0.133
1108	-0.134
1109	-0.138
1109	-0.143
1109	-0.148
1110	-0.151
1110	-0.155
1111	-0.165
1111	-0.156
