Data from 3.4A_17C_Absorbance__766__02678.txt Node

Date: Tue Jun 20 16:52:21 CEST 2023
User: Marek
Spectrometer: MAYP115816
Trigger mode: 0
Integration Time (sec): 2.200000E-1
Scans to average: 10
Electric dark correction enabled: true
Nonlinearity correction enabled: true
Boxcar width: 5
XAxis mode: Wavelengths
Number of Pixels in Spectrum: 2068
>>>>>Begin Spectral Data<<<<<
199	-0.788
199	-0.776
200	-0.744
200	-0.685
201	-0.66
201	-0.654
202	-0.638
202	-0.633
203	-0.633
203	-0.625
204	-0.608
204	-0.592
205	-0.569
205	-0.559
205	-0.571
206	-0.572
206	-0.568
207	-0.56
207	-0.566
208	-0.566
208	-0.573
209	-0.573
209	-0.579
210	-0.593
210	-0.599
211	-0.592
211	-0.596
212	-0.603
212	-0.612
213	-0.608
213	-0.605
213	-0.601
214	-0.611
214	-0.613
215	-0.61
215	-0.615
216	-0.624
216	-0.629
217	-0.627
217	-0.627
218	-0.632
218	-0.633
219	-0.641
219	-0.641
220	-0.645
220	-0.652
221	-0.653
221	-0.655
221	-0.645
222	-0.645
222	-0.644
223	-0.641
223	-0.644
224	-0.643
224	-0.64
225	-0.636
225	-0.635
226	-0.634
226	-0.633
227	-0.641
227	-0.652
228	-0.655
228	-0.664
229	-0.669
229	-0.668
229	-0.669
230	-0.664
230	-0.662
231	-0.659
231	-0.655
232	-0.657
232	-0.65
233	-0.651
233	-0.639
234	-0.64
234	-0.634
235	-0.638
235	-0.649
236	-0.656
236	-0.657
236	-0.658
237	-0.657
237	-0.657
238	-0.657
238	-0.658
239	-0.659
239	-0.668
240	-0.662
240	-0.661
241	-0.657
241	-0.662
242	-0.664
242	-0.674
243	-0.675
243	-0.677
243	-0.683
244	-0.679
244	-0.682
245	-0.684
245	-0.688
246	-0.697
246	-0.7
247	-0.708
247	-0.694
248	-0.693
248	-0.695
249	-0.7
249	-0.703
250	-0.701
250	-0.709
250	-0.706
251	-0.707
251	-0.703
252	-0.704
252	-0.716
253	-0.713
253	-0.724
254	-0.729
254	-0.73
255	-0.741
255	-0.739
256	-0.742
256	-0.754
257	-0.762
257	-0.759
258	-0.762
258	-0.768
258	-0.766
259	-0.76
259	-0.779
260	-0.777
260	-0.767
261	-0.778
261	-0.764
262	-0.771
262	-0.77
263	-0.76
263	-0.765
264	-0.775
264	-0.776
265	-0.765
265	-0.77
265	-0.782
266	-0.773
266	-0.774
267	-0.773
267	-0.789
268	-0.797
268	-0.791
269	-0.783
269	-0.797
270	-0.802
270	-0.8
271	-0.813
271	-0.822
272	-0.823
272	-0.828
272	-0.822
273	-0.83
273	-0.845
274	-0.839
274	-0.835
275	-0.83
275	-0.819
276	-0.821
276	-0.826
277	-0.827
277	-0.824
278	-0.828
278	-0.83
278	-0.817
279	-0.826
279	-0.839
280	-0.842
280	-0.853
281	-0.847
281	-0.84
282	-0.846
282	-0.838
283	-0.83
283	-0.843
284	-0.857
284	-0.867
285	-0.846
285	-0.854
285	-0.845
286	-0.85
286	-0.866
287	-0.862
287	-0.863
288	-0.863
288	-0.845
289	-0.844
289	-0.852
290	-0.861
290	-0.849
291	-0.852
291	-0.848
292	-0.829
292	-0.828
292	-0.831
293	-0.819
293	-0.815
294	-0.814
294	-0.8
295	-0.783
295	-0.796
296	-0.808
296	-0.803
297	-0.79
297	-0.795
298	-0.791
298	-0.81
298	-0.814
299	-0.795
299	-0.787
300	-0.784
300	-0.764
301	-0.745
301	-0.751
302	-0.762
302	-0.747
303	-0.74
303	-0.728
304	-0.712
304	-0.713
305	-0.708
305	-0.715
305	-0.73
306	-0.715
306	-0.712
307	-0.703
307	-0.715
308	-0.718
308	-0.714
309	-0.714
309	-0.711
310	-0.705
310	-0.7
311	-0.686
311	-0.704
311	-0.691
312	-0.689
312	-0.676
313	-0.668
313	-0.671
314	-0.677
314	-0.675
315	-0.675
315	-0.669
316	-0.663
316	-0.652
317	-0.645
317	-0.644
318	-0.636
318	-0.633
318	-0.62
319	-0.61
319	-0.601
320	-0.598
320	-0.597
321	-0.593
321	-0.594
322	-0.59
322	-0.581
323	-0.582
323	-0.575
324	-0.574
324	-0.563
324	-0.553
325	-0.539
325	-0.522
326	-0.512
326	-0.486
327	-0.472
327	-0.45
328	-0.419
328	-0.395
329	-0.365
329	-0.338
330	-0.311
330	-0.275
330	-0.24
331	-0.205
331	-0.174
332	-0.141
332	-0.111
333	-0.082
333	-0.05
334	-0.023
334	0.001
335	0.027
335	0.047
336	0.068
336	0.088
336	0.102
337	0.119
337	0.136
338	0.148
338	0.157
339	0.17
339	0.179
340	0.186
340	0.194
341	0.2
341	0.206
342	0.212
342	0.218
342	0.222
343	0.226
343	0.231
344	0.233
344	0.236
345	0.238
345	0.241
346	0.243
346	0.244
347	0.246
347	0.247
348	0.248
348	0.25
348	0.251
349	0.252
349	0.253
350	0.253
350	0.254
351	0.254
351	0.255
352	0.255
352	0.255
353	0.255
353	0.255
354	0.255
354	0.255
354	0.255
355	0.255
355	0.255
356	0.255
356	0.255
357	0.256
357	0.257
358	0.256
358	0.257
359	0.257
359	0.257
360	0.257
360	0.257
360	0.257
361	0.257
361	0.257
362	0.257
362	0.257
363	0.257
363	0.257
364	0.257
364	0.257
365	0.257
365	0.257
366	0.257
366	0.257
366	0.257
367	0.257
367	0.257
368	0.257
368	0.257
369	0.257
369	0.256
370	0.256
370	0.256
371	0.256
371	0.256
372	0.256
372	0.256
372	0.256
373	0.256
373	0.255
374	0.255
374	0.256
375	0.255
375	0.255
376	0.255
376	0.255
377	0.255
377	0.255
378	0.255
378	0.254
378	0.254
379	0.254
379	0.254
380	0.254
380	0.254
381	0.254
381	0.254
382	0.253
382	0.253
383	0.253
383	0.253
383	0.253
384	0.253
384	0.253
385	0.253
385	0.253
386	0.253
386	0.253
387	0.253
387	0.252
388	0.252
388	0.252
389	0.252
389	0.252
389	0.252
390	0.252
390	0.252
391	0.252
391	0.252
392	0.252
392	0.252
393	0.252
393	0.252
394	0.251
394	0.251
394	0.251
395	0.251
395	0.25
396	0.25
396	0.25
397	0.249
397	0.249
398	0.249
398	0.249
399	0.249
399	0.249
400	0.248
400	0.248
400	0.248
401	0.248
401	0.247
402	0.247
402	0.247
403	0.247
403	0.247
404	0.247
404	0.247
405	0.247
405	0.247
405	0.246
406	0.246
406	0.246
407	0.247
407	0.246
408	0.246
408	0.245
409	0.245
409	0.245
410	0.245
410	0.245
411	0.245
411	0.245
411	0.245
412	0.245
412	0.245
413	0.244
413	0.244
414	0.244
414	0.244
415	0.244
415	0.243
416	0.243
416	0.243
416	0.242
417	0.242
417	0.242
418	0.242
418	0.242
419	0.242
419	0.242
420	0.242
420	0.242
421	0.242
421	0.242
421	0.242
422	0.243
422	0.243
423	0.242
423	0.242
424	0.242
424	0.242
425	0.242
425	0.242
426	0.242
426	0.242
427	0.242
427	0.242
427	0.242
428	0.242
428	0.242
429	0.241
429	0.241
430	0.24
430	0.24
431	0.24
431	0.239
432	0.239
432	0.239
432	0.238
433	0.238
433	0.238
434	0.238
434	0.239
435	0.239
435	0.239
436	0.239
436	0.239
437	0.238
437	0.238
437	0.238
438	0.238
438	0.238
439	0.238
439	0.238
440	0.238
440	0.238
441	0.238
441	0.238
442	0.238
442	0.238
442	0.238
443	0.237
443	0.237
444	0.237
444	0.237
445	0.237
445	0.237
446	0.237
446	0.237
447	0.237
447	0.237
447	0.237
448	0.237
448	0.237
449	0.237
449	0.237
450	0.237
450	0.237
451	0.237
451	0.237
452	0.237
452	0.237
452	0.237
453	0.237
453	0.237
454	0.236
454	0.236
455	0.236
455	0.236
456	0.236
456	0.236
457	0.236
457	0.236
458	0.236
458	0.236
458	0.236
459	0.235
459	0.235
460	0.235
460	0.234
461	0.234
461	0.235
462	0.235
462	0.236
463	0.236
463	0.237
463	0.237
464	0.237
464	0.238
465	0.238
465	0.238
466	0.239
466	0.239
467	0.239
467	0.239
467	0.238
468	0.238
468	0.238
469	0.238
469	0.238
470	0.239
470	0.239
471	0.239
471	0.238
472	0.238
472	0.238
472	0.239
473	0.239
473	0.24
474	0.24
474	0.24
475	0.241
475	0.241
476	0.241
476	0.242
477	0.242
477	0.242
477	0.243
478	0.243
478	0.243
479	0.243
479	0.244
480	0.244
480	0.244
481	0.244
481	0.245
482	0.245
482	0.246
482	0.247
483	0.248
483	0.249
484	0.25
484	0.25
485	0.251
485	0.251
486	0.252
486	0.252
487	0.253
487	0.254
487	0.254
488	0.254
488	0.254
489	0.255
489	0.256
490	0.257
490	0.258
491	0.259
491	0.26
492	0.26
492	0.261
492	0.261
493	0.262
493	0.263
494	0.265
494	0.266
495	0.266
495	0.267
496	0.268
496	0.269
496	0.271
497	0.272
497	0.273
498	0.274
498	0.275
499	0.276
499	0.277
500	0.279
500	0.281
501	0.282
501	0.283
501	0.284
502	0.285
502	0.287
503	0.288
503	0.29
504	0.291
504	0.293
505	0.294
505	0.296
506	0.298
506	0.3
506	0.302
507	0.303
507	0.305
508	0.307
508	0.309
509	0.311
509	0.312
510	0.314
510	0.315
511	0.316
511	0.318
511	0.319
512	0.321
512	0.322
513	0.323
513	0.324
514	0.326
514	0.327
515	0.328
515	0.329
515	0.33
516	0.332
516	0.333
517	0.334
517	0.335
518	0.336
518	0.337
519	0.338
519	0.339
520	0.341
520	0.343
520	0.344
521	0.344
521	0.346
522	0.346
522	0.348
523	0.349
523	0.351
524	0.352
524	0.353
524	0.354
525	0.355
525	0.356
526	0.357
526	0.358
527	0.359
527	0.359
528	0.36
528	0.361
529	0.361
529	0.361
529	0.361
530	0.362
530	0.362
531	0.362
531	0.363
532	0.363
532	0.363
533	0.364
533	0.364
533	0.364
534	0.364
534	0.364
535	0.364
535	0.365
536	0.365
536	0.365
537	0.365
537	0.366
538	0.365
538	0.365
538	0.365
539	0.365
539	0.365
540	0.364
540	0.363
541	0.363
541	0.362
542	0.362
542	0.361
542	0.361
543	0.36
543	0.359
544	0.359
544	0.358
545	0.358
545	0.358
546	0.357
546	0.356
547	0.355
547	0.354
547	0.353
548	0.353
548	0.352
549	0.351
549	0.35
550	0.35
550	0.349
551	0.347
551	0.347
551	0.346
552	0.345
552	0.344
553	0.343
553	0.342
554	0.341
554	0.339
555	0.338
555	0.336
556	0.335
556	0.334
556	0.333
557	0.332
557	0.331
558	0.33
558	0.329
559	0.328
559	0.327
560	0.326
560	0.325
560	0.324
561	0.324
561	0.324
562	0.323
562	0.321
563	0.321
563	0.32
564	0.319
564	0.319
564	0.318
565	0.318
565	0.318
566	0.317
566	0.316
567	0.316
567	0.315
568	0.314
568	0.313
568	0.312
569	0.311
569	0.31
570	0.308
570	0.306
571	0.306
571	0.304
572	0.303
572	0.302
573	0.3
573	0.299
573	0.297
574	0.297
574	0.296
575	0.296
575	0.297
576	0.296
576	0.295
577	0.293
577	0.293
577	0.293
578	0.293
578	0.293
579	0.294
579	0.293
580	0.291
580	0.288
581	0.286
581	0.286
581	0.286
582	0.286
582	0.286
583	0.286
583	0.285
584	0.283
584	0.281
585	0.282
585	0.283
585	0.284
586	0.283
586	0.283
587	0.281
587	0.279
588	0.278
588	0.278
589	0.277
589	0.277
590	0.276
590	0.275
590	0.276
591	0.276
591	0.275
592	0.274
592	0.273
593	0.273
593	0.273
594	0.272
594	0.271
594	0.271
595	0.27
595	0.269
596	0.268
596	0.269
597	0.271
597	0.271
598	0.27
598	0.27
598	0.27
599	0.271
599	0.27
600	0.27
600	0.27
601	0.27
601	0.27
602	0.269
602	0.269
602	0.268
603	0.268
603	0.269
604	0.269
604	0.269
605	0.27
605	0.27
606	0.269
606	0.268
606	0.267
607	0.267
607	0.267
608	0.266
608	0.264
609	0.264
609	0.264
610	0.263
610	0.262
610	0.262
611	0.262
611	0.262
612	0.262
612	0.262
613	0.262
613	0.262
614	0.261
614	0.26
614	0.259
615	0.258
615	0.257
616	0.257
616	0.256
617	0.256
617	0.255
618	0.254
618	0.254
618	0.254
619	0.253
619	0.254
620	0.254
620	0.253
621	0.252
621	0.251
622	0.249
622	0.248
622	0.246
623	0.244
623	0.244
624	0.244
624	0.243
625	0.242
625	0.241
626	0.24
626	0.239
626	0.239
627	0.239
627	0.239
628	0.238
628	0.237
629	0.236
629	0.235
630	0.233
630	0.231
630	0.23
631	0.229
631	0.228
632	0.226
632	0.224
633	0.221
633	0.219
634	0.217
634	0.215
634	0.213
635	0.211
635	0.208
636	0.206
636	0.203
637	0.199
637	0.196
638	0.193
638	0.19
638	0.187
639	0.183
639	0.178
640	0.175
640	0.17
641	0.166
641	0.162
642	0.158
642	0.154
642	0.149
643	0.144
643	0.139
644	0.133
644	0.128
645	0.122
645	0.116
646	0.11
646	0.103
646	0.096
647	0.089
647	0.081
648	0.074
648	0.065
649	0.057
649	0.05
650	0.042
650	0.034
650	0.026
651	0.015
651	0.002
652	-0.013
652	-0.029
653	-0.044
653	-0.056
653	-0.051
654	-0.03
654	-0.024
655	-0.03
655	-0.036
656	-0.044
656	-0.052
657	-0.058
657	-0.063
657	-0.071
658	-0.079
658	-0.114
659	-0.209
659	-0.307
660	-0.351
660	-0.38
661	-0.41
661	-0.441
661	-0.476
662	-0.506
662	-0.539
663	-0.577
663	-0.619
664	-0.659
664	-0.703
665	-0.753
665	-0.803
665	-0.851
666	-0.905
666	-0.963
667	-1.022
667	-1.088
668	-1.149
668	-1.22
669	-1.29
669	-1.365
669	-1.445
670	-1.528
670	-1.638
671	-1.803
671	-2.14
672	-2.355
672	-2.505
672	-2.618
673	-2.71
673	-2.786
674	-2.86
674	-2.881
675	-2.897
675	-2.902
676	-2.898
676	-2.846
676	-2.782
677	-2.706
677	-2.618
678	-2.49
678	-2.296
679	-1.923
679	-1.726
680	-1.613
680	-1.531
680	-1.457
681	-1.403
681	-1.345
682	-1.299
682	-1.253
683	-1.206
683	-1.178
684	-1.145
684	-1.123
684	-1.098
685	-1.074
685	-1.061
686	-1.036
686	-1.019
687	-1.007
687	-0.994
687	-0.992
688	-0.975
688	-0.967
689	-0.968
689	-0.964
690	-0.95
690	-0.937
691	-0.935
691	-0.938
691	-0.936
692	-0.934
692	-0.93
693	-0.934
693	-0.943
694	-0.923
694	-0.921
695	-0.921
695	-0.915
695	-0.921
696	-0.928
696	-0.921
697	-0.915
697	-0.911
698	-0.906
698	-0.897
698	-0.911
699	-0.908
699	-0.908
700	-0.927
700	-0.92
701	-0.906
701	-0.899
702	-0.898
702	-0.894
702	-0.895
703	-0.885
703	-0.872
704	-0.879
704	-0.883
705	-0.871
705	-0.87
705	-0.866
706	-0.858
706	-0.855
707	-0.866
707	-0.869
708	-0.865
708	-0.862
709	-0.864
709	-0.859
709	-0.856
710	-0.863
710	-0.865
711	-0.864
711	-0.865
712	-0.856
712	-0.853
713	-0.859
713	-0.859
713	-0.838
714	-0.839
714	-0.842
715	-0.834
715	-0.843
716	-0.86
716	-0.869
716	-0.869
717	-0.876
717	-0.867
718	-0.861
718	-0.862
719	-0.857
719	-0.85
720	-0.846
720	-0.841
720	-0.834
721	-0.824
721	-0.828
722	-0.825
722	-0.823
723	-0.841
723	-0.854
723	-0.863
724	-0.861
724	-0.864
725	-0.858
725	-0.861
726	-0.865
726	-0.855
727	-0.859
727	-0.866
727	-0.856
728	-0.843
728	-0.841
729	-0.842
729	-0.846
730	-0.852
730	-0.842
730	-0.847
731	-0.849
731	-0.849
732	-0.85
732	-0.845
733	-0.859
733	-0.866
734	-0.874
734	-0.866
734	-0.847
735	-0.838
735	-0.835
736	-0.834
736	-0.829
737	-0.828
737	-0.818
737	-0.812
738	-0.796
738	-0.784
739	-0.786
739	-0.787
740	-0.799
740	-0.799
741	-0.811
741	-0.818
741	-0.829
742	-0.835
742	-0.85
743	-0.857
743	-0.86
744	-0.863
744	-0.872
744	-0.867
745	-0.875
745	-0.864
746	-0.859
746	-0.849
747	-0.853
747	-0.843
748	-0.845
748	-0.85
748	-0.851
749	-0.842
749	-0.849
750	-0.839
750	-0.84
751	-0.841
751	-0.838
751	-0.85
752	-0.852
752	-0.855
753	-0.855
753	-0.846
754	-0.867
754	-0.866
754	-0.875
755	-0.873
755	-0.866
756	-0.868
756	-0.854
757	-0.847
757	-0.836
758	-0.839
758	-0.838
758	-0.832
759	-0.837
759	-0.836
760	-0.834
760	-0.836
761	-0.831
761	-0.836
761	-0.835
762	-0.841
762	-0.841
763	-0.841
763	-0.846
764	-0.845
764	-0.843
764	-0.849
765	-0.847
765	-0.853
766	-0.856
766	-0.859
767	-0.875
767	-0.871
768	-0.871
768	-0.863
768	-0.857
769	-0.858
769	-0.867
770	-0.877
770	-0.882
771	-0.877
771	-0.877
771	-0.881
772	-0.886
772	-0.907
773	-0.908
773	-0.909
774	-0.908
774	-0.889
775	-0.878
775	-0.877
775	-0.882
776	-0.893
776	-0.89
777	-0.889
777	-0.871
778	-0.88
778	-0.888
778	-0.89
779	-0.898
779	-0.913
780	-0.91
780	-0.918
781	-0.908
781	-0.895
781	-0.909
782	-0.931
782	-0.932
783	-0.932
783	-0.937
784	-0.942
784	-0.935
784	-0.955
785	-0.946
785	-0.958
786	-0.964
786	-0.956
787	-0.944
787	-0.952
788	-0.944
788	-0.937
788	-0.938
789	-0.937
789	-0.924
790	-0.925
790	-0.909
791	-0.917
791	-0.912
791	-0.906
792	-0.901
792	-0.906
793	-0.909
793	-0.898
794	-0.892
794	-0.887
794	-0.893
795	-0.911
795	-0.896
796	-0.903
796	-0.9
797	-0.892
797	-0.882
797	-0.875
798	-0.893
798	-0.896
799	-0.896
799	-0.882
800	-0.878
800	-0.887
801	-0.884
801	-0.886
801	-0.883
802	-0.884
802	-0.882
803	-0.879
803	-0.87
804	-0.875
804	-0.883
804	-0.865
805	-0.845
805	-0.836
806	-0.837
806	-0.833
807	-0.833
807	-0.834
807	-0.817
808	-0.813
808	-0.807
809	-0.801
809	-0.803
810	-0.807
810	-0.804
810	-0.8
811	-0.803
811	-0.794
812	-0.787
812	-0.789
813	-0.794
813	-0.795
813	-0.79
814	-0.788
814	-0.794
815	-0.785
815	-0.781
816	-0.777
816	-0.793
817	-0.806
817	-0.81
817	-0.818
818	-0.811
818	-0.809
819	-0.819
819	-0.818
820	-0.828
820	-0.828
820	-0.826
821	-0.822
821	-0.819
822	-0.816
822	-0.806
823	-0.819
823	-0.819
823	-0.813
824	-0.81
824	-0.823
825	-0.821
825	-0.819
826	-0.814
826	-0.808
826	-0.808
827	-0.809
827	-0.797
828	-0.796
828	-0.791
829	-0.784
829	-0.767
829	-0.766
830	-0.765
830	-0.751
831	-0.745
831	-0.733
832	-0.724
832	-0.719
832	-0.711
833	-0.709
833	-0.717
834	-0.711
834	-0.706
835	-0.697
835	-0.697
835	-0.692
836	-0.686
836	-0.682
837	-0.671
837	-0.663
838	-0.649
838	-0.631
839	-0.624
839	-0.61
839	-0.601
840	-0.599
840	-0.588
841	-0.577
841	-0.57
842	-0.561
842	-0.547
842	-0.544
843	-0.542
843	-0.537
844	-0.533
844	-0.519
845	-0.506
845	-0.496
845	-0.487
846	-0.475
846	-0.463
847	-0.452
847	-0.438
848	-0.421
848	-0.405
848	-0.391
849	-0.377
849	-0.364
850	-0.351
850	-0.339
851	-0.324
851	-0.308
851	-0.299
852	-0.282
852	-0.268
853	-0.258
853	-0.247
854	-0.235
854	-0.223
854	-0.21
855	-0.198
855	-0.19
856	-0.181
856	-0.171
857	-0.163
857	-0.154
857	-0.138
858	-0.126
858	-0.117
859	-0.105
859	-0.093
860	-0.08
860	-0.063
860	-0.05
861	-0.039
861	-0.027
862	-0.018
862	-0.008
863	0.001
863	0.012
863	0.02
864	0.026
864	0.034
865	0.042
865	0.049
866	0.056
866	0.063
866	0.069
867	0.075
867	0.082
868	0.087
868	0.093
869	0.099
869	0.103
869	0.105
870	0.108
870	0.11
871	0.112
871	0.114
872	0.115
872	0.116
872	0.117
873	0.117
873	0.116
874	0.116
874	0.115
875	0.114
875	0.114
875	0.113
876	0.113
876	0.112
877	0.111
877	0.11
878	0.11
878	0.109
878	0.109
879	0.109
879	0.108
880	0.108
880	0.108
881	0.107
881	0.106
881	0.105
882	0.104
882	0.103
883	0.101
883	0.1
884	0.098
884	0.098
884	0.097
885	0.097
885	0.097
886	0.096
886	0.096
887	0.095
887	0.095
887	0.094
888	0.094
888	0.093
889	0.092
889	0.091
890	0.089
890	0.089
890	0.088
891	0.088
891	0.088
892	0.088
892	0.088
893	0.088
893	0.088
893	0.088
894	0.089
894	0.089
895	0.088
895	0.088
895	0.087
896	0.087
896	0.087
897	0.087
897	0.087
898	0.087
898	0.087
898	0.087
899	0.087
899	0.087
900	0.087
900	0.087
901	0.086
901	0.086
901	0.086
902	0.085
902	0.086
903	0.086
903	0.085
904	0.085
904	0.085
904	0.085
905	0.086
905	0.086
906	0.087
906	0.087
907	0.088
907	0.088
907	0.088
908	0.088
908	0.089
909	0.089
909	0.09
910	0.09
910	0.091
910	0.091
911	0.092
911	0.093
912	0.093
912	0.094
913	0.095
913	0.094
913	0.095
914	0.095
914	0.095
915	0.095
915	0.095
916	0.094
916	0.094
916	0.094
917	0.094
917	0.094
918	0.094
918	0.094
918	0.093
919	0.093
919	0.093
920	0.094
920	0.094
921	0.095
921	0.096
921	0.096
922	0.096
922	0.097
923	0.097
923	0.097
924	0.096
924	0.096
924	0.095
925	0.094
925	0.093
926	0.091
926	0.09
927	0.089
927	0.088
927	0.088
928	0.087
928	0.088
929	0.088
929	0.089
930	0.09
930	0.09
930	0.091
931	0.093
931	0.094
932	0.095
932	0.096
933	0.097
933	0.097
933	0.097
934	0.096
934	0.095
935	0.095
935	0.094
935	0.092
936	0.091
936	0.089
937	0.087
937	0.086
938	0.085
938	0.084
938	0.083
939	0.082
939	0.082
940	0.081
940	0.08
941	0.079
941	0.078
941	0.078
942	0.077
942	0.076
943	0.075
943	0.074
944	0.073
944	0.072
944	0.071
945	0.071
945	0.07
946	0.07
946	0.069
946	0.068
947	0.068
947	0.068
948	0.068
948	0.069
949	0.069
949	0.071
949	0.072
950	0.074
950	0.075
951	0.077
951	0.078
952	0.079
952	0.08
952	0.081
953	0.082
953	0.083
954	0.083
954	0.082
955	0.082
955	0.082
955	0.082
956	0.081
956	0.08
957	0.079
957	0.077
957	0.076
958	0.075
958	0.074
959	0.074
959	0.072
960	0.072
960	0.071
960	0.071
961	0.071
961	0.071
962	0.072
962	0.072
963	0.072
963	0.072
963	0.072
964	0.072
964	0.073
965	0.073
965	0.073
966	0.073
966	0.073
966	0.074
967	0.074
967	0.074
968	0.074
968	0.074
968	0.074
969	0.074
969	0.073
970	0.073
970	0.073
971	0.072
971	0.072
971	0.072
972	0.072
972	0.072
973	0.072
973	0.071
974	0.071
974	0.072
974	0.072
975	0.072
975	0.072
976	0.072
976	0.073
976	0.073
977	0.073
977	0.072
978	0.072
978	0.072
979	0.071
979	0.071
979	0.071
980	0.071
980	0.071
981	0.071
981	0.071
982	0.071
982	0.071
982	0.071
983	0.071
983	0.071
984	0.07
984	0.07
984	0.07
985	0.07
985	0.069
986	0.068
986	0.068
987	0.067
987	0.066
987	0.065
988	0.065
988	0.064
989	0.063
989	0.062
990	0.061
990	0.06
990	0.06
991	0.059
991	0.058
992	0.057
992	0.057
992	0.056
993	0.055
993	0.054
994	0.053
994	0.052
995	0.05
995	0.049
995	0.048
996	0.046
996	0.045
997	0.043
997	0.043
997	0.042
998	0.042
998	0.042
999	0.042
999	0.042
1000	0.043
1000	0.043
1000	0.044
1001	0.045
1001	0.046
1002	0.046
1002	0.047
1003	0.047
1003	0.047
1003	0.047
1004	0.047
1004	0.047
1005	0.047
1005	0.047
1005	0.046
1006	0.045
1006	0.045
1007	0.044
1007	0.044
1008	0.043
1008	0.042
1008	0.043
1009	0.042
1009	0.043
1010	0.043
1010	0.044
1010	0.044
1011	0.045
1011	0.045
1012	0.046
1012	0.047
1013	0.048
1013	0.049
1013	0.05
1014	0.05
1014	0.051
1015	0.051
1015	0.051
1016	0.051
1016	0.051
1016	0.051
1017	0.05
1017	0.049
1018	0.049
1018	0.049
1018	0.048
1019	0.048
1019	0.047
1020	0.047
1020	0.047
1021	0.047
1021	0.046
1021	0.046
1022	0.046
1022	0.046
1023	0.046
1023	0.046
1023	0.046
1024	0.047
1024	0.047
1025	0.047
1025	0.047
1026	0.048
1026	0.048
1026	0.048
1027	0.048
1027	0.048
1028	0.048
1028	0.049
1028	0.049
1029	0.049
1029	0.049
1030	0.049
1030	0.048
1031	0.048
1031	0.049
1031	0.049
1032	0.049
1032	0.048
1033	0.048
1033	0.047
1033	0.047
1034	0.047
1034	0.046
1035	0.046
1035	0.046
1036	0.045
1036	0.044
1036	0.044
1037	0.044
1037	0.044
1038	0.044
1038	0.044
1039	0.044
1039	0.044
1039	0.045
1040	0.045
1040	0.045
1041	0.045
1041	0.045
1041	0.044
1042	0.043
1042	0.043
1043	0.042
1043	0.041
1044	0.04
1044	0.039
1044	0.038
1045	0.037
1045	0.036
1046	0.036
1046	0.035
1046	0.035
1047	0.035
1047	0.034
1048	0.035
1048	0.035
1049	0.035
1049	0.035
1049	0.035
1050	0.034
1050	0.034
1051	0.033
1051	0.033
1051	0.033
1052	0.032
1052	0.031
1053	0.031
1053	0.031
1053	0.03
1054	0.03
1054	0.029
1055	0.03
1055	0.03
1056	0.03
1056	0.029
1056	0.029
1057	0.028
1057	0.028
1058	0.028
1058	0.028
1058	0.028
1059	0.027
1059	0.026
1060	0.026
1060	0.025
1061	0.024
1061	0.024
1061	0.024
1062	0.024
1062	0.023
1063	0.023
1063	0.022
1063	0.022
1064	0.023
1064	0.023
1065	0.023
1065	0.023
1066	0.023
1066	0.023
1066	0.022
1067	0.022
1067	0.021
1068	0.021
1068	0.02
1068	0.019
1069	0.018
1069	0.017
1070	0.017
1070	0.016
1071	0.015
1071	0.015
1071	0.014
1072	0.014
1072	0.014
1073	0.014
1073	0.013
1073	0.013
1074	0.013
1074	0.013
1075	0.012
1075	0.012
1076	0.01
1076	0.01
1076	0.009
1077	0.008
1077	0.007
1078	0.006
1078	0.006
1078	0.005
1079	0.004
1079	0.004
1080	0.003
1080	0.002
1080	0.001
1081	0
1081	-0
1082	-0.001
1082	-0.002
1083	-0.003
1083	-0.004
1083	-0.006
1084	-0.007
1084	-0.008
1085	-0.009
1085	-0.01
1085	-0.011
1086	-0.013
1086	-0.014
1087	-0.015
1087	-0.016
1088	-0.017
1088	-0.018
1088	-0.019
1089	-0.021
1089	-0.022
1090	-0.022
1090	-0.023
1090	-0.025
1091	-0.027
1091	-0.027
1092	-0.028
1092	-0.029
1092	-0.03
1093	-0.031
1093	-0.031
1094	-0.032
1094	-0.034
1095	-0.035
1095	-0.035
1095	-0.036
1096	-0.038
1096	-0.039
1097	-0.04
1097	-0.042
1097	-0.043
1098	-0.045
1098	-0.047
1099	-0.049
1099	-0.051
1100	-0.053
1100	-0.056
1100	-0.06
1101	-0.063
1101	-0.066
1102	-0.068
1102	-0.071
1102	-0.072
1103	-0.075
1103	-0.079
1104	-0.083
1104	-0.086
1104	-0.088
1105	-0.091
1105	-0.094
1106	-0.1
1106	-0.103
1107	-0.11
1107	-0.116
1107	-0.121
1108	-0.123
1108	-0.124
1109	-0.129
1109	-0.134
1109	-0.138
1110	-0.14
1110	-0.143
1111	-0.154
1111	-0.143
