Data from 3.4A_17C_Absorbance__485__02397.txt Node

Date: Tue Jun 20 16:42:02 CEST 2023
User: Marek
Spectrometer: MAYP115816
Trigger mode: 0
Integration Time (sec): 2.200000E-1
Scans to average: 10
Electric dark correction enabled: true
Nonlinearity correction enabled: true
Boxcar width: 5
XAxis mode: Wavelengths
Number of Pixels in Spectrum: 2068
>>>>>Begin Spectral Data<<<<<
199	-0.798
199	-0.788
200	-0.752
200	-0.694
201	-0.667
201	-0.657
202	-0.641
202	-0.634
203	-0.634
203	-0.628
204	-0.608
204	-0.593
205	-0.568
205	-0.559
205	-0.57
206	-0.57
206	-0.566
207	-0.558
207	-0.564
208	-0.566
208	-0.571
209	-0.574
209	-0.58
210	-0.592
210	-0.599
211	-0.592
211	-0.597
212	-0.607
212	-0.615
213	-0.611
213	-0.604
213	-0.603
214	-0.609
214	-0.61
215	-0.607
215	-0.613
216	-0.622
216	-0.627
217	-0.625
217	-0.626
218	-0.634
218	-0.637
219	-0.642
219	-0.642
220	-0.646
220	-0.653
221	-0.653
221	-0.654
221	-0.646
222	-0.645
222	-0.645
223	-0.641
223	-0.643
224	-0.645
224	-0.644
225	-0.643
225	-0.644
226	-0.643
226	-0.642
227	-0.648
227	-0.658
228	-0.66
228	-0.669
229	-0.673
229	-0.669
229	-0.668
230	-0.664
230	-0.661
231	-0.659
231	-0.655
232	-0.657
232	-0.652
233	-0.652
233	-0.639
234	-0.638
234	-0.634
235	-0.64
235	-0.651
236	-0.658
236	-0.659
236	-0.659
237	-0.658
237	-0.659
238	-0.66
238	-0.663
239	-0.667
239	-0.677
240	-0.668
240	-0.665
241	-0.66
241	-0.663
242	-0.665
242	-0.674
243	-0.673
243	-0.675
243	-0.679
244	-0.675
244	-0.678
245	-0.682
245	-0.684
246	-0.693
246	-0.696
247	-0.705
247	-0.689
248	-0.689
248	-0.691
249	-0.698
249	-0.699
250	-0.697
250	-0.707
250	-0.704
251	-0.705
251	-0.703
252	-0.704
252	-0.719
253	-0.715
253	-0.726
254	-0.73
254	-0.731
255	-0.74
255	-0.739
256	-0.741
256	-0.752
257	-0.762
257	-0.758
258	-0.757
258	-0.765
258	-0.762
259	-0.756
259	-0.773
260	-0.774
260	-0.761
261	-0.773
261	-0.76
262	-0.766
262	-0.765
263	-0.756
263	-0.762
264	-0.772
264	-0.772
265	-0.764
265	-0.765
265	-0.775
266	-0.765
266	-0.766
267	-0.763
267	-0.777
268	-0.786
268	-0.78
269	-0.772
269	-0.787
270	-0.791
270	-0.792
271	-0.807
271	-0.818
272	-0.818
272	-0.823
272	-0.819
273	-0.827
273	-0.842
274	-0.833
274	-0.828
275	-0.825
275	-0.812
276	-0.814
276	-0.82
277	-0.823
277	-0.82
278	-0.824
278	-0.824
278	-0.812
279	-0.821
279	-0.833
280	-0.835
280	-0.846
281	-0.84
281	-0.832
282	-0.837
282	-0.832
283	-0.826
283	-0.84
284	-0.853
284	-0.862
285	-0.842
285	-0.847
285	-0.837
286	-0.843
286	-0.86
287	-0.857
287	-0.856
288	-0.854
288	-0.835
289	-0.837
289	-0.845
290	-0.854
290	-0.844
291	-0.848
291	-0.846
292	-0.825
292	-0.821
292	-0.826
293	-0.815
293	-0.811
294	-0.809
294	-0.796
295	-0.778
295	-0.79
296	-0.802
296	-0.797
297	-0.787
297	-0.789
298	-0.785
298	-0.802
298	-0.807
299	-0.789
299	-0.781
300	-0.778
300	-0.759
301	-0.741
301	-0.742
302	-0.751
302	-0.737
303	-0.73
303	-0.718
304	-0.7
304	-0.702
305	-0.696
305	-0.704
305	-0.72
306	-0.704
306	-0.703
307	-0.695
307	-0.708
308	-0.711
308	-0.706
309	-0.707
309	-0.703
310	-0.701
310	-0.696
311	-0.681
311	-0.698
311	-0.688
312	-0.686
312	-0.673
313	-0.664
313	-0.666
314	-0.672
314	-0.67
315	-0.666
315	-0.66
316	-0.655
316	-0.645
317	-0.636
317	-0.632
318	-0.624
318	-0.621
318	-0.609
319	-0.599
319	-0.591
320	-0.588
320	-0.586
321	-0.581
321	-0.581
322	-0.574
322	-0.568
323	-0.568
323	-0.56
324	-0.558
324	-0.546
324	-0.536
325	-0.521
325	-0.502
326	-0.494
326	-0.469
327	-0.455
327	-0.431
328	-0.4
328	-0.376
329	-0.349
329	-0.32
330	-0.293
330	-0.257
330	-0.223
331	-0.184
331	-0.15
332	-0.114
332	-0.081
333	-0.05
333	-0.015
334	0.014
334	0.04
335	0.068
335	0.091
336	0.115
336	0.136
336	0.154
337	0.172
337	0.19
338	0.204
338	0.216
339	0.23
339	0.241
340	0.25
340	0.259
341	0.266
341	0.271
342	0.278
342	0.284
342	0.289
343	0.293
343	0.298
344	0.3
344	0.304
345	0.307
345	0.309
346	0.312
346	0.314
347	0.315
347	0.317
348	0.318
348	0.32
348	0.321
349	0.322
349	0.323
350	0.324
350	0.325
351	0.326
351	0.326
352	0.326
352	0.327
353	0.327
353	0.327
354	0.327
354	0.327
354	0.327
355	0.327
355	0.327
356	0.327
356	0.327
357	0.327
357	0.327
358	0.327
358	0.327
359	0.327
359	0.327
360	0.327
360	0.327
360	0.327
361	0.328
361	0.327
362	0.327
362	0.327
363	0.328
363	0.328
364	0.328
364	0.327
365	0.327
365	0.327
366	0.327
366	0.327
366	0.327
367	0.327
367	0.327
368	0.327
368	0.326
369	0.326
369	0.326
370	0.326
370	0.326
371	0.326
371	0.325
372	0.325
372	0.325
372	0.325
373	0.324
373	0.324
374	0.324
374	0.324
375	0.323
375	0.323
376	0.323
376	0.323
377	0.323
377	0.322
378	0.322
378	0.322
378	0.321
379	0.321
379	0.321
380	0.321
380	0.321
381	0.32
381	0.32
382	0.319
382	0.319
383	0.319
383	0.319
383	0.318
384	0.318
384	0.318
385	0.318
385	0.317
386	0.317
386	0.317
387	0.317
387	0.317
388	0.316
388	0.316
389	0.316
389	0.316
389	0.315
390	0.315
390	0.315
391	0.315
391	0.315
392	0.314
392	0.314
393	0.314
393	0.314
394	0.314
394	0.313
394	0.313
395	0.313
395	0.312
396	0.312
396	0.312
397	0.312
397	0.312
398	0.311
398	0.311
399	0.311
399	0.31
400	0.31
400	0.31
400	0.31
401	0.309
401	0.309
402	0.308
402	0.308
403	0.308
403	0.308
404	0.308
404	0.307
405	0.307
405	0.307
405	0.306
406	0.306
406	0.306
407	0.306
407	0.306
408	0.305
408	0.305
409	0.305
409	0.305
410	0.305
410	0.305
411	0.305
411	0.304
411	0.304
412	0.304
412	0.303
413	0.303
413	0.303
414	0.302
414	0.302
415	0.302
415	0.301
416	0.301
416	0.301
416	0.301
417	0.3
417	0.3
418	0.3
418	0.3
419	0.3
419	0.3
420	0.3
420	0.3
421	0.3
421	0.3
421	0.3
422	0.3
422	0.3
423	0.3
423	0.299
424	0.299
424	0.299
425	0.299
425	0.299
426	0.299
426	0.299
427	0.299
427	0.299
427	0.299
428	0.299
428	0.298
429	0.298
429	0.298
430	0.297
430	0.297
431	0.296
431	0.296
432	0.296
432	0.295
432	0.295
433	0.295
433	0.295
434	0.295
434	0.295
435	0.295
435	0.295
436	0.295
436	0.295
437	0.295
437	0.295
437	0.295
438	0.295
438	0.295
439	0.295
439	0.295
440	0.295
440	0.295
441	0.295
441	0.294
442	0.294
442	0.294
442	0.294
443	0.294
443	0.294
444	0.294
444	0.294
445	0.294
445	0.294
446	0.294
446	0.294
447	0.294
447	0.294
447	0.294
448	0.294
448	0.294
449	0.294
449	0.294
450	0.294
450	0.294
451	0.294
451	0.294
452	0.294
452	0.294
452	0.294
453	0.294
453	0.294
454	0.294
454	0.294
455	0.295
455	0.295
456	0.295
456	0.295
457	0.294
457	0.295
458	0.294
458	0.294
458	0.295
459	0.295
459	0.294
460	0.294
460	0.294
461	0.294
461	0.295
462	0.295
462	0.296
463	0.296
463	0.297
463	0.298
464	0.298
464	0.298
465	0.299
465	0.299
466	0.3
466	0.3
467	0.301
467	0.3
467	0.3
468	0.3
468	0.3
469	0.301
469	0.301
470	0.302
470	0.302
471	0.302
471	0.302
472	0.302
472	0.303
472	0.303
473	0.304
473	0.305
474	0.305
474	0.306
475	0.307
475	0.308
476	0.308
476	0.309
477	0.31
477	0.311
477	0.312
478	0.313
478	0.313
479	0.314
479	0.314
480	0.315
480	0.315
481	0.316
481	0.317
482	0.318
482	0.319
482	0.32
483	0.322
483	0.324
484	0.325
484	0.326
485	0.327
485	0.328
486	0.329
486	0.331
487	0.332
487	0.333
487	0.334
488	0.335
488	0.335
489	0.337
489	0.338
490	0.34
490	0.341
491	0.343
491	0.344
492	0.346
492	0.347
492	0.348
493	0.349
493	0.351
494	0.353
494	0.355
495	0.357
495	0.359
496	0.36
496	0.362
496	0.364
497	0.367
497	0.369
498	0.371
498	0.373
499	0.375
499	0.377
500	0.379
500	0.382
501	0.385
501	0.387
501	0.389
502	0.391
502	0.393
503	0.396
503	0.398
504	0.4
504	0.402
505	0.405
505	0.408
506	0.41
506	0.413
506	0.416
507	0.418
507	0.421
508	0.425
508	0.428
509	0.43
509	0.433
510	0.436
510	0.438
511	0.44
511	0.443
511	0.445
512	0.447
512	0.449
513	0.451
513	0.453
514	0.455
514	0.458
515	0.46
515	0.461
515	0.463
516	0.465
516	0.467
517	0.469
517	0.471
518	0.473
518	0.474
519	0.476
519	0.476
520	0.478
520	0.48
520	0.481
521	0.482
521	0.484
522	0.485
522	0.486
523	0.488
523	0.489
524	0.49
524	0.491
524	0.492
525	0.493
525	0.494
526	0.495
526	0.495
527	0.496
527	0.497
528	0.496
528	0.496
529	0.496
529	0.497
529	0.496
530	0.497
530	0.496
531	0.496
531	0.495
532	0.494
532	0.494
533	0.493
533	0.493
533	0.492
534	0.491
534	0.491
535	0.49
535	0.489
536	0.489
536	0.488
537	0.487
537	0.486
538	0.485
538	0.484
538	0.483
539	0.481
539	0.48
540	0.478
540	0.476
541	0.474
541	0.472
542	0.47
542	0.468
542	0.466
543	0.464
543	0.461
544	0.459
544	0.457
545	0.455
545	0.453
546	0.452
546	0.449
547	0.446
547	0.444
547	0.442
548	0.44
548	0.438
549	0.436
549	0.434
550	0.432
550	0.429
551	0.426
551	0.423
551	0.421
552	0.418
552	0.416
553	0.414
553	0.412
554	0.409
554	0.406
555	0.403
555	0.401
556	0.398
556	0.396
556	0.393
557	0.391
557	0.389
558	0.386
558	0.383
559	0.381
559	0.378
560	0.375
560	0.373
560	0.371
561	0.369
561	0.368
562	0.365
562	0.363
563	0.361
563	0.359
564	0.357
564	0.356
564	0.354
565	0.353
565	0.351
566	0.349
566	0.348
567	0.346
567	0.344
568	0.343
568	0.34
568	0.338
569	0.337
569	0.334
570	0.332
570	0.329
571	0.328
571	0.326
572	0.323
572	0.321
573	0.319
573	0.317
573	0.314
574	0.313
574	0.312
575	0.311
575	0.311
576	0.31
576	0.307
577	0.305
577	0.304
577	0.304
578	0.303
578	0.303
579	0.303
579	0.302
580	0.299
580	0.296
581	0.293
581	0.292
581	0.292
582	0.291
582	0.291
583	0.29
583	0.289
584	0.286
584	0.283
585	0.283
585	0.284
585	0.283
586	0.282
586	0.281
587	0.279
587	0.277
588	0.275
588	0.274
589	0.273
589	0.272
590	0.271
590	0.27
590	0.27
591	0.269
591	0.267
592	0.266
592	0.264
593	0.264
593	0.263
594	0.261
594	0.26
594	0.259
595	0.258
595	0.256
596	0.255
596	0.255
597	0.256
597	0.255
598	0.254
598	0.253
598	0.253
599	0.253
599	0.252
600	0.251
600	0.251
601	0.251
601	0.25
602	0.249
602	0.248
602	0.247
603	0.247
603	0.247
604	0.247
604	0.247
605	0.247
605	0.246
606	0.245
606	0.243
606	0.242
607	0.241
607	0.241
608	0.24
608	0.238
609	0.237
609	0.237
610	0.236
610	0.235
610	0.234
611	0.234
611	0.234
612	0.233
612	0.233
613	0.232
613	0.231
614	0.23
614	0.228
614	0.227
615	0.225
615	0.224
616	0.223
616	0.222
617	0.221
617	0.22
618	0.219
618	0.219
618	0.218
619	0.217
619	0.217
620	0.217
620	0.216
621	0.215
621	0.214
622	0.212
622	0.21
622	0.208
623	0.206
623	0.206
624	0.205
624	0.204
625	0.203
625	0.202
626	0.201
626	0.2
626	0.2
627	0.199
627	0.198
628	0.198
628	0.197
629	0.195
629	0.194
630	0.192
630	0.191
630	0.189
631	0.188
631	0.187
632	0.184
632	0.182
633	0.18
633	0.178
634	0.176
634	0.174
634	0.173
635	0.17
635	0.168
636	0.165
636	0.163
637	0.16
637	0.157
638	0.154
638	0.151
638	0.148
639	0.144
639	0.14
640	0.136
640	0.132
641	0.128
641	0.124
642	0.119
642	0.115
642	0.111
643	0.106
643	0.101
644	0.096
644	0.091
645	0.086
645	0.081
646	0.075
646	0.069
646	0.063
647	0.056
647	0.049
648	0.042
648	0.034
649	0.027
649	0.019
650	0.013
650	0.005
650	-0.002
651	-0.012
651	-0.023
652	-0.037
652	-0.051
653	-0.063
653	-0.074
653	-0.069
654	-0.049
654	-0.044
655	-0.049
655	-0.054
656	-0.061
656	-0.067
657	-0.072
657	-0.077
657	-0.083
658	-0.091
658	-0.122
659	-0.209
659	-0.299
660	-0.34
660	-0.367
661	-0.393
661	-0.422
661	-0.452
662	-0.479
662	-0.508
663	-0.541
663	-0.578
664	-0.614
664	-0.653
665	-0.698
665	-0.743
665	-0.787
666	-0.836
666	-0.888
667	-0.942
667	-1.004
668	-1.061
668	-1.128
669	-1.194
669	-1.265
669	-1.341
670	-1.419
670	-1.52
671	-1.656
671	-1.929
672	-2.235
672	-2.421
672	-2.554
673	-2.658
673	-2.744
674	-2.823
674	-2.843
675	-2.86
675	-2.865
676	-2.866
676	-2.838
676	-2.773
677	-2.694
677	-2.602
678	-2.468
678	-2.26
679	-1.834
679	-1.636
680	-1.525
680	-1.445
680	-1.375
681	-1.323
681	-1.269
682	-1.226
682	-1.181
683	-1.138
683	-1.113
684	-1.083
684	-1.063
684	-1.039
685	-1.019
685	-1.009
686	-0.986
686	-0.971
687	-0.96
687	-0.949
687	-0.949
688	-0.932
688	-0.924
689	-0.926
689	-0.923
690	-0.909
690	-0.899
691	-0.896
691	-0.9
691	-0.9
692	-0.901
692	-0.898
693	-0.905
693	-0.916
694	-0.896
694	-0.896
695	-0.9
695	-0.893
695	-0.902
696	-0.91
696	-0.902
697	-0.896
697	-0.892
698	-0.887
698	-0.88
698	-0.893
699	-0.89
699	-0.892
700	-0.911
700	-0.904
701	-0.89
701	-0.882
702	-0.884
702	-0.883
702	-0.881
703	-0.873
703	-0.863
704	-0.87
704	-0.873
705	-0.86
705	-0.86
705	-0.854
706	-0.848
706	-0.843
707	-0.855
707	-0.86
708	-0.856
708	-0.852
709	-0.853
709	-0.849
709	-0.844
710	-0.852
710	-0.855
711	-0.853
711	-0.854
712	-0.844
712	-0.84
713	-0.847
713	-0.849
713	-0.829
714	-0.832
714	-0.837
715	-0.828
715	-0.837
716	-0.853
716	-0.862
716	-0.862
717	-0.869
717	-0.86
718	-0.853
718	-0.855
719	-0.85
719	-0.842
720	-0.838
720	-0.835
720	-0.829
721	-0.819
721	-0.824
722	-0.821
722	-0.817
723	-0.835
723	-0.846
723	-0.855
724	-0.855
724	-0.86
725	-0.853
725	-0.857
726	-0.862
726	-0.853
727	-0.856
727	-0.863
727	-0.854
728	-0.841
728	-0.838
729	-0.839
729	-0.84
730	-0.844
730	-0.835
730	-0.84
731	-0.844
731	-0.845
732	-0.846
732	-0.839
733	-0.852
733	-0.858
734	-0.867
734	-0.859
734	-0.84
735	-0.83
735	-0.825
736	-0.824
736	-0.819
737	-0.82
737	-0.81
737	-0.804
738	-0.792
738	-0.78
739	-0.783
739	-0.785
740	-0.799
740	-0.8
741	-0.81
741	-0.819
741	-0.827
742	-0.835
742	-0.85
743	-0.854
743	-0.857
744	-0.86
744	-0.869
744	-0.862
745	-0.87
745	-0.858
746	-0.854
746	-0.845
747	-0.847
747	-0.837
748	-0.841
748	-0.844
748	-0.845
749	-0.837
749	-0.842
750	-0.833
750	-0.833
751	-0.832
751	-0.829
751	-0.841
752	-0.847
752	-0.85
753	-0.852
753	-0.846
754	-0.865
754	-0.865
754	-0.873
755	-0.875
755	-0.868
756	-0.871
756	-0.857
757	-0.847
757	-0.836
758	-0.834
758	-0.833
758	-0.829
759	-0.835
759	-0.834
760	-0.831
760	-0.833
761	-0.828
761	-0.831
761	-0.832
762	-0.838
762	-0.839
763	-0.839
763	-0.842
764	-0.842
764	-0.838
764	-0.845
765	-0.844
765	-0.851
766	-0.855
766	-0.856
767	-0.871
767	-0.866
768	-0.865
768	-0.858
768	-0.852
769	-0.855
769	-0.861
770	-0.872
770	-0.876
771	-0.871
771	-0.871
771	-0.876
772	-0.881
772	-0.902
773	-0.902
773	-0.901
774	-0.9
774	-0.883
775	-0.871
775	-0.871
775	-0.875
776	-0.886
776	-0.882
777	-0.882
777	-0.865
778	-0.876
778	-0.886
778	-0.884
779	-0.893
779	-0.908
780	-0.905
780	-0.914
781	-0.903
781	-0.894
781	-0.909
782	-0.93
782	-0.931
783	-0.93
783	-0.938
784	-0.941
784	-0.935
784	-0.954
785	-0.946
785	-0.957
786	-0.961
786	-0.952
787	-0.94
787	-0.948
788	-0.941
788	-0.935
788	-0.937
789	-0.936
789	-0.926
790	-0.925
790	-0.911
791	-0.917
791	-0.912
791	-0.907
792	-0.9
792	-0.902
793	-0.905
793	-0.893
794	-0.885
794	-0.877
794	-0.886
795	-0.905
795	-0.892
796	-0.899
796	-0.896
797	-0.888
797	-0.879
797	-0.871
798	-0.891
798	-0.895
799	-0.895
799	-0.879
800	-0.875
800	-0.883
801	-0.88
801	-0.884
801	-0.883
802	-0.883
802	-0.882
803	-0.878
803	-0.869
804	-0.876
804	-0.885
804	-0.869
805	-0.848
805	-0.838
806	-0.839
806	-0.835
807	-0.836
807	-0.836
807	-0.818
808	-0.815
808	-0.808
809	-0.801
809	-0.801
810	-0.806
810	-0.804
810	-0.8
811	-0.804
811	-0.794
812	-0.787
812	-0.79
813	-0.796
813	-0.798
813	-0.794
814	-0.793
814	-0.798
815	-0.788
815	-0.786
816	-0.782
816	-0.801
817	-0.813
817	-0.817
817	-0.824
818	-0.816
818	-0.815
819	-0.825
819	-0.824
820	-0.836
820	-0.833
820	-0.832
821	-0.825
821	-0.821
822	-0.82
822	-0.807
823	-0.818
823	-0.817
823	-0.811
824	-0.809
824	-0.819
825	-0.818
825	-0.815
826	-0.812
826	-0.808
826	-0.808
827	-0.81
827	-0.8
828	-0.799
828	-0.793
829	-0.786
829	-0.77
829	-0.766
830	-0.765
830	-0.751
831	-0.743
831	-0.731
832	-0.72
832	-0.716
832	-0.709
833	-0.709
833	-0.717
834	-0.713
834	-0.708
835	-0.7
835	-0.7
835	-0.695
836	-0.692
836	-0.688
837	-0.678
837	-0.669
838	-0.657
838	-0.638
839	-0.634
839	-0.621
839	-0.61
840	-0.608
840	-0.597
841	-0.586
841	-0.579
842	-0.571
842	-0.558
842	-0.555
843	-0.552
843	-0.548
844	-0.544
844	-0.533
845	-0.519
845	-0.51
845	-0.498
846	-0.485
846	-0.474
847	-0.462
847	-0.45
848	-0.434
848	-0.417
848	-0.404
849	-0.392
849	-0.379
850	-0.369
850	-0.357
851	-0.343
851	-0.326
851	-0.318
852	-0.301
852	-0.287
853	-0.278
853	-0.266
854	-0.256
854	-0.244
854	-0.232
855	-0.221
855	-0.212
856	-0.204
856	-0.195
857	-0.187
857	-0.179
857	-0.164
858	-0.153
858	-0.145
859	-0.134
859	-0.121
860	-0.11
860	-0.096
860	-0.085
861	-0.074
861	-0.064
862	-0.055
862	-0.047
863	-0.038
863	-0.028
863	-0.022
864	-0.016
864	-0.008
865	-0.001
865	0.005
866	0.01
866	0.016
866	0.022
867	0.028
867	0.034
868	0.038
868	0.043
869	0.049
869	0.052
869	0.054
870	0.057
870	0.059
871	0.061
871	0.062
872	0.063
872	0.064
872	0.066
873	0.066
873	0.065
874	0.065
874	0.064
875	0.064
875	0.063
875	0.063
876	0.063
876	0.062
877	0.061
877	0.061
878	0.06
878	0.06
878	0.06
879	0.059
879	0.059
880	0.059
880	0.058
881	0.057
881	0.056
881	0.055
882	0.054
882	0.052
883	0.051
883	0.049
884	0.049
884	0.048
884	0.047
885	0.047
885	0.047
886	0.046
886	0.046
887	0.046
887	0.045
887	0.045
888	0.044
888	0.044
889	0.043
889	0.042
890	0.041
890	0.04
890	0.04
891	0.04
891	0.04
892	0.04
892	0.04
893	0.04
893	0.041
893	0.04
894	0.041
894	0.04
895	0.04
895	0.04
895	0.04
896	0.04
896	0.039
897	0.04
897	0.039
898	0.039
898	0.039
898	0.039
899	0.039
899	0.04
900	0.04
900	0.039
901	0.039
901	0.038
901	0.038
902	0.037
902	0.038
903	0.037
903	0.037
904	0.037
904	0.037
904	0.037
905	0.038
905	0.039
906	0.04
906	0.04
907	0.041
907	0.041
907	0.042
908	0.042
908	0.042
909	0.043
909	0.043
910	0.043
910	0.043
910	0.043
911	0.044
911	0.044
912	0.045
912	0.045
913	0.046
913	0.046
913	0.047
914	0.047
914	0.047
915	0.047
915	0.047
916	0.047
916	0.047
916	0.047
917	0.047
917	0.047
918	0.047
918	0.047
918	0.047
919	0.047
919	0.047
920	0.047
920	0.048
921	0.049
921	0.049
921	0.05
922	0.051
922	0.051
923	0.051
923	0.052
924	0.051
924	0.051
924	0.051
925	0.049
925	0.048
926	0.047
926	0.046
927	0.045
927	0.044
927	0.043
928	0.043
928	0.043
929	0.043
929	0.044
930	0.044
930	0.045
930	0.046
931	0.047
931	0.048
932	0.049
932	0.05
933	0.051
933	0.051
933	0.051
934	0.051
934	0.05
935	0.05
935	0.049
935	0.047
936	0.046
936	0.045
937	0.043
937	0.042
938	0.041
938	0.04
938	0.04
939	0.039
939	0.038
940	0.038
940	0.037
941	0.036
941	0.036
941	0.035
942	0.034
942	0.034
943	0.034
943	0.033
944	0.032
944	0.031
944	0.03
945	0.03
945	0.03
946	0.029
946	0.028
946	0.028
947	0.028
947	0.028
948	0.028
948	0.029
949	0.03
949	0.031
949	0.033
950	0.034
950	0.036
951	0.037
951	0.039
952	0.039
952	0.041
952	0.042
953	0.042
953	0.043
954	0.043
954	0.043
955	0.043
955	0.042
955	0.042
956	0.041
956	0.041
957	0.04
957	0.039
957	0.038
958	0.037
958	0.037
959	0.036
959	0.036
960	0.035
960	0.035
960	0.035
961	0.035
961	0.036
962	0.036
962	0.036
963	0.036
963	0.036
963	0.036
964	0.036
964	0.036
965	0.037
965	0.037
966	0.037
966	0.037
966	0.038
967	0.038
967	0.038
968	0.038
968	0.038
968	0.038
969	0.038
969	0.037
970	0.037
970	0.037
971	0.037
971	0.036
971	0.036
972	0.037
972	0.037
973	0.037
973	0.037
974	0.037
974	0.038
974	0.038
975	0.038
975	0.038
976	0.038
976	0.038
976	0.038
977	0.037
977	0.037
978	0.036
978	0.036
979	0.035
979	0.035
979	0.035
980	0.035
980	0.034
981	0.034
981	0.034
982	0.035
982	0.035
982	0.035
983	0.035
983	0.034
984	0.034
984	0.034
984	0.034
985	0.033
985	0.033
986	0.032
986	0.031
987	0.031
987	0.03
987	0.029
988	0.029
988	0.028
989	0.027
989	0.026
990	0.025
990	0.024
990	0.023
991	0.022
991	0.021
992	0.021
992	0.02
992	0.019
993	0.018
993	0.017
994	0.015
994	0.014
995	0.013
995	0.011
995	0.01
996	0.009
996	0.007
997	0.006
997	0.005
997	0.004
998	0.004
998	0.004
999	0.004
999	0.004
1000	0.004
1000	0.005
1000	0.005
1001	0.006
1001	0.007
1002	0.007
1002	0.008
1003	0.008
1003	0.008
1003	0.008
1004	0.008
1004	0.007
1005	0.007
1005	0.007
1005	0.006
1006	0.005
1006	0.005
1007	0.004
1007	0.003
1008	0.003
1008	0.002
1008	0.002
1009	0.002
1009	0.002
1010	0.003
1010	0.003
1010	0.004
1011	0.004
1011	0.005
1012	0.006
1012	0.007
1013	0.009
1013	0.009
1013	0.01
1014	0.011
1014	0.012
1015	0.012
1015	0.013
1016	0.013
1016	0.013
1016	0.012
1017	0.012
1017	0.012
1018	0.012
1018	0.012
1018	0.012
1019	0.011
1019	0.011
1020	0.011
1020	0.011
1021	0.011
1021	0.01
1021	0.01
1022	0.01
1022	0.01
1023	0.01
1023	0.01
1023	0.01
1024	0.01
1024	0.011
1025	0.011
1025	0.012
1026	0.012
1026	0.013
1026	0.012
1027	0.013
1027	0.013
1028	0.014
1028	0.014
1028	0.014
1029	0.014
1029	0.014
1030	0.014
1030	0.014
1031	0.014
1031	0.014
1031	0.014
1032	0.014
1032	0.014
1033	0.013
1033	0.013
1033	0.013
1034	0.012
1034	0.012
1035	0.012
1035	0.011
1036	0.01
1036	0.01
1036	0.01
1037	0.01
1037	0.01
1038	0.01
1038	0.01
1039	0.011
1039	0.011
1039	0.012
1040	0.012
1040	0.013
1041	0.013
1041	0.012
1041	0.012
1042	0.011
1042	0.01
1043	0.009
1043	0.008
1044	0.008
1044	0.006
1044	0.006
1045	0.004
1045	0.004
1046	0.003
1046	0.002
1046	0.002
1047	0.002
1047	0.002
1048	0.002
1048	0.002
1049	0.003
1049	0.002
1049	0.002
1050	0.002
1050	0.001
1051	0
1051	-0
1051	-0
1052	-0.001
1052	-0.002
1053	-0.003
1053	-0.003
1053	-0.003
1054	-0.004
1054	-0.004
1055	-0.004
1055	-0.004
1056	-0.004
1056	-0.005
1056	-0.005
1057	-0.005
1057	-0.005
1058	-0.006
1058	-0.006
1058	-0.006
1059	-0.007
1059	-0.008
1060	-0.009
1060	-0.009
1061	-0.009
1061	-0.01
1061	-0.009
1062	-0.01
1062	-0.01
1063	-0.01
1063	-0.01
1063	-0.01
1064	-0.009
1064	-0.009
1065	-0.009
1065	-0.009
1066	-0.009
1066	-0.009
1066	-0.009
1067	-0.01
1067	-0.01
1068	-0.011
1068	-0.011
1068	-0.012
1069	-0.013
1069	-0.014
1070	-0.015
1070	-0.016
1071	-0.016
1071	-0.016
1071	-0.017
1072	-0.017
1072	-0.017
1073	-0.017
1073	-0.018
1073	-0.018
1074	-0.018
1074	-0.018
1075	-0.019
1075	-0.019
1076	-0.021
1076	-0.021
1076	-0.022
1077	-0.023
1077	-0.024
1078	-0.024
1078	-0.025
1078	-0.025
1079	-0.026
1079	-0.026
1080	-0.027
1080	-0.028
1080	-0.029
1081	-0.03
1081	-0.031
1082	-0.032
1082	-0.033
1083	-0.034
1083	-0.036
1083	-0.037
1084	-0.038
1084	-0.039
1085	-0.04
1085	-0.041
1085	-0.042
1086	-0.043
1086	-0.044
1087	-0.045
1087	-0.046
1088	-0.047
1088	-0.048
1088	-0.048
1089	-0.05
1089	-0.051
1090	-0.052
1090	-0.053
1090	-0.054
1091	-0.055
1091	-0.055
1092	-0.056
1092	-0.056
1092	-0.057
1093	-0.058
1093	-0.058
1094	-0.059
1094	-0.059
1095	-0.061
1095	-0.061
1095	-0.062
1096	-0.064
1096	-0.066
1097	-0.067
1097	-0.068
1097	-0.07
1098	-0.072
1098	-0.075
1099	-0.077
1099	-0.078
1100	-0.08
1100	-0.083
1100	-0.086
1101	-0.088
1101	-0.091
1102	-0.093
1102	-0.096
1102	-0.098
1103	-0.101
1103	-0.104
1104	-0.107
1104	-0.11
1104	-0.112
1105	-0.114
1105	-0.117
1106	-0.123
1106	-0.125
1107	-0.131
1107	-0.136
1107	-0.14
1108	-0.142
1108	-0.143
1109	-0.148
1109	-0.153
1109	-0.158
1110	-0.16
1110	-0.163
1111	-0.175
1111	-0.166
