Data from 3.4A_17C_Absorbance__258__02170.txt Node

Date: Tue Jun 20 16:33:43 CEST 2023
User: Marek
Spectrometer: MAYP115816
Trigger mode: 0
Integration Time (sec): 2.200000E-1
Scans to average: 10
Electric dark correction enabled: true
Nonlinearity correction enabled: true
Boxcar width: 5
XAxis mode: Wavelengths
Number of Pixels in Spectrum: 2068
>>>>>Begin Spectral Data<<<<<
199	-0.805
199	-0.79
200	-0.749
200	-0.694
201	-0.666
201	-0.656
202	-0.638
202	-0.632
203	-0.63
203	-0.623
204	-0.601
204	-0.585
205	-0.561
205	-0.553
205	-0.563
206	-0.564
206	-0.561
207	-0.553
207	-0.558
208	-0.559
208	-0.564
209	-0.566
209	-0.571
210	-0.583
210	-0.59
211	-0.584
211	-0.588
212	-0.596
212	-0.603
213	-0.6
213	-0.595
213	-0.592
214	-0.598
214	-0.601
215	-0.598
215	-0.602
216	-0.608
216	-0.613
217	-0.611
217	-0.614
218	-0.622
218	-0.626
219	-0.632
219	-0.635
220	-0.639
220	-0.647
221	-0.649
221	-0.652
221	-0.644
222	-0.644
222	-0.643
223	-0.639
223	-0.64
224	-0.642
224	-0.641
225	-0.638
225	-0.639
226	-0.64
226	-0.638
227	-0.647
227	-0.656
228	-0.659
228	-0.668
229	-0.674
229	-0.671
229	-0.671
230	-0.666
230	-0.663
231	-0.659
231	-0.653
232	-0.655
232	-0.649
233	-0.649
233	-0.636
234	-0.636
234	-0.632
235	-0.635
235	-0.648
236	-0.655
236	-0.657
236	-0.657
237	-0.657
237	-0.658
238	-0.659
238	-0.662
239	-0.664
239	-0.674
240	-0.669
240	-0.664
241	-0.659
241	-0.661
242	-0.665
242	-0.673
243	-0.672
243	-0.673
243	-0.679
244	-0.674
244	-0.674
245	-0.676
245	-0.679
246	-0.69
246	-0.693
247	-0.7
247	-0.684
248	-0.686
248	-0.688
249	-0.692
249	-0.695
250	-0.694
250	-0.702
250	-0.701
251	-0.7
251	-0.696
252	-0.697
252	-0.71
253	-0.705
253	-0.717
254	-0.722
254	-0.723
255	-0.733
255	-0.732
256	-0.733
256	-0.743
257	-0.754
257	-0.751
258	-0.753
258	-0.761
258	-0.757
259	-0.749
259	-0.766
260	-0.765
260	-0.755
261	-0.766
261	-0.754
262	-0.758
262	-0.756
263	-0.745
263	-0.75
264	-0.761
264	-0.763
265	-0.754
265	-0.759
265	-0.768
266	-0.759
266	-0.76
267	-0.758
267	-0.776
268	-0.784
268	-0.779
269	-0.771
269	-0.786
270	-0.789
270	-0.787
271	-0.802
271	-0.811
272	-0.812
272	-0.816
272	-0.81
273	-0.82
273	-0.834
274	-0.827
274	-0.821
275	-0.818
275	-0.807
276	-0.811
276	-0.816
277	-0.818
277	-0.815
278	-0.819
278	-0.819
278	-0.806
279	-0.814
279	-0.828
280	-0.829
280	-0.839
281	-0.831
281	-0.825
282	-0.832
282	-0.824
283	-0.817
283	-0.831
284	-0.845
284	-0.856
285	-0.836
285	-0.842
285	-0.835
286	-0.84
286	-0.857
287	-0.853
287	-0.853
288	-0.851
288	-0.832
289	-0.832
289	-0.841
290	-0.849
290	-0.839
291	-0.842
291	-0.842
292	-0.821
292	-0.818
292	-0.821
293	-0.811
293	-0.807
294	-0.805
294	-0.789
295	-0.771
295	-0.784
296	-0.795
296	-0.787
297	-0.777
297	-0.784
298	-0.782
298	-0.798
298	-0.803
299	-0.784
299	-0.777
300	-0.773
300	-0.754
301	-0.733
301	-0.736
302	-0.745
302	-0.727
303	-0.719
303	-0.707
304	-0.691
304	-0.695
305	-0.686
305	-0.695
305	-0.711
306	-0.697
306	-0.697
307	-0.69
307	-0.703
308	-0.705
308	-0.701
309	-0.704
309	-0.7
310	-0.699
310	-0.694
311	-0.679
311	-0.698
311	-0.686
312	-0.682
312	-0.669
313	-0.66
313	-0.66
314	-0.665
314	-0.662
315	-0.659
315	-0.651
316	-0.644
316	-0.633
317	-0.625
317	-0.622
318	-0.614
318	-0.611
318	-0.599
319	-0.587
319	-0.58
320	-0.577
320	-0.577
321	-0.573
321	-0.573
322	-0.567
322	-0.559
323	-0.56
323	-0.551
324	-0.551
324	-0.538
324	-0.525
325	-0.511
325	-0.493
326	-0.484
326	-0.459
327	-0.444
327	-0.422
328	-0.39
328	-0.367
329	-0.338
329	-0.31
330	-0.283
330	-0.245
330	-0.208
331	-0.17
331	-0.135
332	-0.097
332	-0.061
333	-0.028
333	0.008
334	0.039
334	0.068
335	0.098
335	0.12
336	0.145
336	0.169
336	0.187
337	0.207
337	0.225
338	0.24
338	0.251
339	0.267
339	0.279
340	0.288
340	0.298
341	0.305
341	0.312
342	0.32
342	0.327
342	0.333
343	0.337
343	0.344
344	0.347
344	0.35
345	0.354
345	0.357
346	0.359
346	0.362
347	0.363
347	0.365
348	0.367
348	0.369
348	0.37
349	0.37
349	0.371
350	0.372
350	0.373
351	0.374
351	0.375
352	0.375
352	0.375
353	0.376
353	0.375
354	0.376
354	0.376
354	0.376
355	0.376
355	0.376
356	0.376
356	0.376
357	0.376
357	0.376
358	0.376
358	0.376
359	0.376
359	0.376
360	0.376
360	0.376
360	0.376
361	0.376
361	0.376
362	0.376
362	0.375
363	0.375
363	0.375
364	0.375
364	0.375
365	0.375
365	0.375
366	0.375
366	0.375
366	0.375
367	0.375
367	0.374
368	0.374
368	0.374
369	0.374
369	0.373
370	0.373
370	0.373
371	0.372
371	0.372
372	0.372
372	0.371
372	0.371
373	0.371
373	0.371
374	0.37
374	0.37
375	0.37
375	0.369
376	0.369
376	0.369
377	0.369
377	0.368
378	0.368
378	0.368
378	0.367
379	0.367
379	0.366
380	0.366
380	0.366
381	0.366
381	0.365
382	0.365
382	0.364
383	0.364
383	0.364
383	0.363
384	0.363
384	0.362
385	0.362
385	0.362
386	0.361
386	0.361
387	0.361
387	0.36
388	0.36
388	0.36
389	0.359
389	0.359
389	0.359
390	0.359
390	0.358
391	0.358
391	0.358
392	0.358
392	0.357
393	0.357
393	0.357
394	0.356
394	0.356
394	0.355
395	0.355
395	0.354
396	0.354
396	0.354
397	0.353
397	0.353
398	0.353
398	0.352
399	0.352
399	0.352
400	0.352
400	0.351
400	0.351
401	0.351
401	0.35
402	0.35
402	0.349
403	0.349
403	0.349
404	0.348
404	0.348
405	0.347
405	0.347
405	0.347
406	0.347
406	0.346
407	0.346
407	0.346
408	0.345
408	0.345
409	0.345
409	0.345
410	0.345
410	0.344
411	0.344
411	0.344
411	0.344
412	0.343
412	0.343
413	0.342
413	0.342
414	0.342
414	0.342
415	0.341
415	0.341
416	0.34
416	0.34
416	0.34
417	0.339
417	0.339
418	0.339
418	0.339
419	0.339
419	0.339
420	0.339
420	0.338
421	0.338
421	0.338
421	0.338
422	0.338
422	0.338
423	0.338
423	0.338
424	0.337
424	0.337
425	0.337
425	0.337
426	0.337
426	0.337
427	0.337
427	0.337
427	0.337
428	0.337
428	0.336
429	0.336
429	0.335
430	0.335
430	0.335
431	0.335
431	0.334
432	0.334
432	0.334
432	0.333
433	0.333
433	0.333
434	0.333
434	0.334
435	0.333
435	0.333
436	0.333
436	0.333
437	0.333
437	0.333
437	0.333
438	0.333
438	0.333
439	0.333
439	0.333
440	0.332
440	0.332
441	0.332
441	0.332
442	0.332
442	0.332
442	0.332
443	0.332
443	0.332
444	0.332
444	0.332
445	0.332
445	0.332
446	0.332
446	0.332
447	0.332
447	0.332
447	0.333
448	0.332
448	0.333
449	0.333
449	0.333
450	0.333
450	0.333
451	0.333
451	0.333
452	0.333
452	0.333
452	0.333
453	0.333
453	0.333
454	0.333
454	0.334
455	0.334
455	0.335
456	0.335
456	0.335
457	0.335
457	0.335
458	0.335
458	0.335
458	0.335
459	0.335
459	0.335
460	0.334
460	0.334
461	0.335
461	0.335
462	0.336
462	0.336
463	0.337
463	0.338
463	0.338
464	0.339
464	0.339
465	0.34
465	0.341
466	0.341
466	0.342
467	0.342
467	0.342
467	0.343
468	0.343
468	0.343
469	0.344
469	0.344
470	0.345
470	0.345
471	0.345
471	0.345
472	0.346
472	0.347
472	0.348
473	0.349
473	0.35
474	0.35
474	0.351
475	0.352
475	0.353
476	0.354
476	0.355
477	0.357
477	0.358
477	0.359
478	0.36
478	0.36
479	0.361
479	0.363
480	0.363
480	0.364
481	0.365
481	0.366
482	0.368
482	0.369
482	0.37
483	0.372
483	0.374
484	0.376
484	0.377
485	0.379
485	0.381
486	0.382
486	0.384
487	0.385
487	0.387
487	0.389
488	0.39
488	0.391
489	0.393
489	0.395
490	0.397
490	0.399
491	0.401
491	0.403
492	0.405
492	0.407
492	0.409
493	0.41
493	0.413
494	0.416
494	0.418
495	0.42
495	0.423
496	0.425
496	0.427
496	0.43
497	0.433
497	0.436
498	0.438
498	0.441
499	0.443
499	0.446
500	0.449
500	0.453
501	0.456
501	0.459
501	0.461
502	0.464
502	0.467
503	0.471
503	0.473
504	0.476
504	0.48
505	0.483
505	0.486
506	0.489
506	0.493
506	0.496
507	0.5
507	0.503
508	0.507
508	0.511
509	0.515
509	0.518
510	0.522
510	0.525
511	0.528
511	0.531
511	0.534
512	0.537
512	0.539
513	0.542
513	0.544
514	0.547
514	0.55
515	0.552
515	0.555
515	0.557
516	0.559
516	0.562
517	0.565
517	0.567
518	0.57
518	0.572
519	0.573
519	0.575
520	0.577
520	0.579
520	0.581
521	0.582
521	0.584
522	0.585
522	0.587
523	0.589
523	0.59
524	0.591
524	0.592
524	0.593
525	0.595
525	0.595
526	0.596
526	0.597
527	0.598
527	0.598
528	0.598
528	0.598
529	0.598
529	0.598
529	0.598
530	0.598
530	0.597
531	0.597
531	0.596
532	0.595
532	0.594
533	0.594
533	0.592
533	0.592
534	0.59
534	0.589
535	0.588
535	0.587
536	0.586
536	0.584
537	0.582
537	0.581
538	0.579
538	0.577
538	0.575
539	0.573
539	0.571
540	0.568
540	0.565
541	0.562
541	0.56
542	0.557
542	0.554
542	0.551
543	0.548
543	0.544
544	0.541
544	0.539
545	0.536
545	0.533
546	0.53
546	0.526
547	0.522
547	0.519
547	0.516
548	0.513
548	0.51
549	0.506
549	0.503
550	0.5
550	0.497
551	0.493
551	0.489
551	0.486
552	0.482
552	0.479
553	0.476
553	0.472
554	0.469
554	0.465
555	0.461
555	0.457
556	0.453
556	0.449
556	0.446
557	0.443
557	0.439
558	0.435
558	0.431
559	0.428
559	0.424
560	0.42
560	0.416
560	0.413
561	0.41
561	0.407
562	0.404
562	0.401
563	0.397
563	0.394
564	0.391
564	0.389
564	0.386
565	0.384
565	0.381
566	0.378
566	0.376
567	0.373
567	0.37
568	0.367
568	0.363
568	0.36
569	0.357
569	0.354
570	0.35
570	0.347
571	0.344
571	0.341
572	0.338
572	0.335
573	0.332
573	0.329
573	0.325
574	0.323
574	0.321
575	0.319
575	0.318
576	0.315
576	0.312
577	0.309
577	0.307
577	0.306
578	0.304
578	0.303
579	0.302
579	0.3
580	0.297
580	0.293
581	0.289
581	0.287
581	0.286
582	0.284
582	0.283
583	0.282
583	0.279
584	0.275
584	0.272
585	0.271
585	0.27
585	0.269
586	0.267
586	0.265
587	0.262
587	0.26
588	0.257
588	0.255
589	0.254
589	0.252
590	0.25
590	0.248
590	0.247
591	0.245
591	0.243
592	0.241
592	0.239
593	0.237
593	0.236
594	0.234
594	0.232
594	0.23
595	0.229
595	0.226
596	0.224
596	0.223
597	0.223
597	0.222
598	0.22
598	0.219
598	0.218
599	0.217
599	0.216
600	0.214
600	0.213
601	0.213
601	0.212
602	0.21
602	0.209
602	0.208
603	0.207
603	0.207
604	0.206
604	0.205
605	0.204
605	0.204
606	0.202
606	0.2
606	0.198
607	0.197
607	0.196
608	0.195
608	0.192
609	0.191
609	0.19
610	0.189
610	0.187
610	0.186
611	0.185
611	0.184
612	0.183
612	0.183
613	0.182
613	0.181
614	0.179
614	0.177
614	0.175
615	0.173
615	0.172
616	0.171
616	0.169
617	0.168
617	0.167
618	0.166
618	0.164
618	0.163
619	0.162
619	0.162
620	0.162
620	0.161
621	0.159
621	0.158
622	0.156
622	0.154
622	0.152
623	0.15
623	0.149
624	0.149
624	0.147
625	0.146
625	0.145
626	0.143
626	0.142
626	0.142
627	0.142
627	0.141
628	0.14
628	0.139
629	0.138
629	0.137
630	0.135
630	0.133
630	0.132
631	0.131
631	0.129
632	0.127
632	0.126
633	0.123
633	0.121
634	0.12
634	0.118
634	0.116
635	0.114
635	0.111
636	0.109
636	0.107
637	0.104
637	0.101
638	0.099
638	0.096
638	0.093
639	0.09
639	0.086
640	0.082
640	0.078
641	0.075
641	0.071
642	0.067
642	0.063
642	0.059
643	0.055
643	0.05
644	0.045
644	0.041
645	0.036
645	0.032
646	0.027
646	0.022
646	0.016
647	0.01
647	0.004
648	-0.002
648	-0.009
649	-0.016
649	-0.022
650	-0.028
650	-0.034
650	-0.041
651	-0.049
651	-0.06
652	-0.071
652	-0.083
653	-0.093
653	-0.102
653	-0.096
654	-0.078
654	-0.074
655	-0.079
655	-0.082
656	-0.087
656	-0.092
657	-0.096
657	-0.1
657	-0.105
658	-0.11
658	-0.138
659	-0.215
659	-0.291
660	-0.325
660	-0.348
661	-0.371
661	-0.397
661	-0.424
662	-0.447
662	-0.472
663	-0.5
663	-0.533
664	-0.561
664	-0.595
665	-0.633
665	-0.67
665	-0.706
666	-0.747
666	-0.794
667	-0.839
667	-0.893
668	-0.944
668	-1.005
669	-1.066
669	-1.132
669	-1.204
670	-1.279
670	-1.385
671	-1.56
671	-1.895
672	-2.219
672	-2.412
672	-2.548
673	-2.654
673	-2.74
674	-2.788
674	-2.802
675	-2.818
675	-2.823
676	-2.822
676	-2.788
676	-2.712
677	-2.618
677	-2.501
678	-2.319
678	-1.979
679	-1.597
679	-1.439
680	-1.344
680	-1.276
680	-1.216
681	-1.175
681	-1.13
682	-1.095
682	-1.058
683	-1.021
683	-1.003
684	-0.98
684	-0.967
684	-0.948
685	-0.931
685	-0.926
686	-0.908
686	-0.897
687	-0.892
687	-0.884
687	-0.888
688	-0.874
688	-0.869
689	-0.874
689	-0.873
690	-0.863
690	-0.854
691	-0.853
691	-0.858
691	-0.859
692	-0.861
692	-0.858
693	-0.867
693	-0.879
694	-0.861
694	-0.862
695	-0.866
695	-0.86
695	-0.87
696	-0.877
696	-0.871
697	-0.866
697	-0.864
698	-0.86
698	-0.853
698	-0.866
699	-0.867
699	-0.867
700	-0.889
700	-0.883
701	-0.869
701	-0.863
702	-0.864
702	-0.861
702	-0.861
703	-0.854
703	-0.842
704	-0.849
704	-0.853
705	-0.841
705	-0.839
705	-0.836
706	-0.83
706	-0.826
707	-0.839
707	-0.842
708	-0.839
708	-0.837
709	-0.84
709	-0.837
709	-0.833
710	-0.841
710	-0.844
711	-0.843
711	-0.845
712	-0.837
712	-0.835
713	-0.839
713	-0.84
713	-0.819
714	-0.822
714	-0.824
715	-0.816
715	-0.826
716	-0.841
716	-0.85
716	-0.85
717	-0.856
717	-0.849
718	-0.843
718	-0.844
719	-0.84
719	-0.833
720	-0.827
720	-0.82
720	-0.815
721	-0.807
721	-0.811
722	-0.809
722	-0.803
723	-0.821
723	-0.833
723	-0.841
724	-0.84
724	-0.846
725	-0.841
725	-0.845
726	-0.849
726	-0.84
727	-0.841
727	-0.849
727	-0.839
728	-0.827
728	-0.822
729	-0.824
729	-0.828
730	-0.834
730	-0.825
730	-0.831
731	-0.835
731	-0.836
732	-0.839
732	-0.836
733	-0.851
733	-0.858
734	-0.866
734	-0.857
734	-0.838
735	-0.828
735	-0.822
736	-0.822
736	-0.816
737	-0.815
737	-0.804
737	-0.796
738	-0.784
738	-0.773
739	-0.774
739	-0.776
740	-0.789
740	-0.788
741	-0.798
741	-0.809
741	-0.818
742	-0.827
742	-0.843
743	-0.848
743	-0.851
744	-0.856
744	-0.865
744	-0.859
745	-0.867
745	-0.857
746	-0.85
746	-0.841
747	-0.843
747	-0.833
748	-0.835
748	-0.84
748	-0.839
749	-0.831
749	-0.839
750	-0.83
750	-0.83
751	-0.832
751	-0.829
751	-0.839
752	-0.842
752	-0.845
753	-0.845
753	-0.839
754	-0.859
754	-0.858
754	-0.866
755	-0.867
755	-0.859
756	-0.861
756	-0.848
757	-0.841
757	-0.83
758	-0.831
758	-0.83
758	-0.825
759	-0.83
759	-0.829
760	-0.827
760	-0.829
761	-0.822
761	-0.826
761	-0.826
762	-0.833
762	-0.834
763	-0.834
763	-0.838
764	-0.837
764	-0.834
764	-0.838
765	-0.838
765	-0.848
766	-0.851
766	-0.853
767	-0.867
767	-0.862
768	-0.861
768	-0.853
768	-0.847
769	-0.849
769	-0.856
770	-0.866
770	-0.868
771	-0.865
771	-0.865
771	-0.872
772	-0.876
772	-0.897
773	-0.898
773	-0.897
774	-0.897
774	-0.88
775	-0.867
775	-0.868
775	-0.87
776	-0.881
776	-0.876
777	-0.877
777	-0.859
778	-0.869
778	-0.879
778	-0.88
779	-0.888
779	-0.903
780	-0.898
780	-0.907
781	-0.895
781	-0.884
781	-0.897
782	-0.919
782	-0.92
783	-0.919
783	-0.926
784	-0.93
784	-0.923
784	-0.941
785	-0.935
785	-0.947
786	-0.951
786	-0.944
787	-0.932
787	-0.941
788	-0.934
788	-0.927
788	-0.928
789	-0.928
789	-0.918
790	-0.918
790	-0.902
791	-0.909
791	-0.907
791	-0.9
792	-0.895
792	-0.899
793	-0.903
793	-0.891
794	-0.886
794	-0.879
794	-0.888
795	-0.908
795	-0.894
796	-0.898
796	-0.894
797	-0.885
797	-0.875
797	-0.867
798	-0.888
798	-0.892
799	-0.892
799	-0.876
800	-0.871
800	-0.88
801	-0.879
801	-0.884
801	-0.882
802	-0.882
802	-0.883
803	-0.878
803	-0.87
804	-0.877
804	-0.883
804	-0.867
805	-0.846
805	-0.836
806	-0.837
806	-0.833
807	-0.833
807	-0.831
807	-0.813
808	-0.808
808	-0.8
809	-0.796
809	-0.798
810	-0.802
810	-0.8
810	-0.796
811	-0.802
811	-0.794
812	-0.788
812	-0.79
813	-0.794
813	-0.796
813	-0.792
814	-0.792
814	-0.797
815	-0.788
815	-0.784
816	-0.779
816	-0.796
817	-0.809
817	-0.813
817	-0.823
818	-0.816
818	-0.813
819	-0.823
819	-0.822
820	-0.833
820	-0.832
820	-0.831
821	-0.827
821	-0.822
822	-0.821
822	-0.808
823	-0.82
823	-0.818
823	-0.813
824	-0.81
824	-0.821
825	-0.82
825	-0.817
826	-0.812
826	-0.807
826	-0.807
827	-0.806
827	-0.796
828	-0.796
828	-0.791
829	-0.784
829	-0.769
829	-0.766
830	-0.764
830	-0.75
831	-0.743
831	-0.732
832	-0.724
832	-0.72
832	-0.714
833	-0.713
833	-0.719
834	-0.714
834	-0.71
835	-0.703
835	-0.704
835	-0.699
836	-0.696
836	-0.694
837	-0.684
837	-0.673
838	-0.659
838	-0.643
839	-0.638
839	-0.625
839	-0.615
840	-0.611
840	-0.601
841	-0.59
841	-0.581
842	-0.572
842	-0.56
842	-0.559
843	-0.555
843	-0.549
844	-0.547
844	-0.535
845	-0.521
845	-0.512
845	-0.502
846	-0.49
846	-0.479
847	-0.469
847	-0.457
848	-0.442
848	-0.424
848	-0.41
849	-0.399
849	-0.388
850	-0.377
850	-0.368
851	-0.356
851	-0.339
851	-0.33
852	-0.314
852	-0.3
853	-0.292
853	-0.281
854	-0.269
854	-0.257
854	-0.246
855	-0.233
855	-0.225
856	-0.218
856	-0.209
857	-0.202
857	-0.194
857	-0.18
858	-0.17
858	-0.163
859	-0.153
859	-0.141
860	-0.131
860	-0.117
860	-0.107
861	-0.098
861	-0.088
862	-0.08
862	-0.073
863	-0.065
863	-0.056
863	-0.05
864	-0.045
864	-0.038
865	-0.032
865	-0.026
866	-0.021
866	-0.015
866	-0.01
867	-0.005
867	0
868	0.005
868	0.01
869	0.015
869	0.018
869	0.021
870	0.023
870	0.025
871	0.027
871	0.028
872	0.029
872	0.03
872	0.031
873	0.032
873	0.031
874	0.031
874	0.03
875	0.03
875	0.03
875	0.03
876	0.03
876	0.029
877	0.029
877	0.028
878	0.027
878	0.027
878	0.027
879	0.027
879	0.026
880	0.026
880	0.025
881	0.024
881	0.023
881	0.023
882	0.021
882	0.02
883	0.018
883	0.017
884	0.016
884	0.016
884	0.015
885	0.015
885	0.015
886	0.015
886	0.014
887	0.014
887	0.014
887	0.014
888	0.014
888	0.013
889	0.012
889	0.011
890	0.011
890	0.01
890	0.01
891	0.01
891	0.01
892	0.01
892	0.01
893	0.011
893	0.01
893	0.01
894	0.01
894	0.01
895	0.01
895	0.01
895	0.01
896	0.01
896	0.009
897	0.009
897	0.009
898	0.009
898	0.009
898	0.009
899	0.009
899	0.009
900	0.009
900	0.009
901	0.008
901	0.008
901	0.008
902	0.008
902	0.008
903	0.008
903	0.008
904	0.008
904	0.007
904	0.008
905	0.008
905	0.009
906	0.01
906	0.011
907	0.012
907	0.012
907	0.012
908	0.013
908	0.013
909	0.013
909	0.014
910	0.014
910	0.014
910	0.014
911	0.014
911	0.015
912	0.016
912	0.016
913	0.017
913	0.017
913	0.018
914	0.018
914	0.019
915	0.019
915	0.019
916	0.019
916	0.019
916	0.019
917	0.019
917	0.019
918	0.019
918	0.019
918	0.018
919	0.018
919	0.019
920	0.019
920	0.02
921	0.021
921	0.022
921	0.022
922	0.023
922	0.024
923	0.024
923	0.024
924	0.024
924	0.024
924	0.023
925	0.022
925	0.021
926	0.02
926	0.019
927	0.018
927	0.017
927	0.016
928	0.016
928	0.016
929	0.016
929	0.016
930	0.017
930	0.017
930	0.018
931	0.019
931	0.02
932	0.021
932	0.022
933	0.023
933	0.024
933	0.024
934	0.023
934	0.023
935	0.023
935	0.022
935	0.021
936	0.019
936	0.018
937	0.016
937	0.015
938	0.015
938	0.014
938	0.013
939	0.013
939	0.012
940	0.011
940	0.01
941	0.009
941	0.009
941	0.008
942	0.007
942	0.007
943	0.007
943	0.006
944	0.006
944	0.005
944	0.004
945	0.004
945	0.004
946	0.003
946	0.003
946	0.002
947	0.002
947	0.002
948	0.003
948	0.004
949	0.004
949	0.006
949	0.008
950	0.009
950	0.011
951	0.012
951	0.013
952	0.014
952	0.015
952	0.016
953	0.016
953	0.017
954	0.017
954	0.017
955	0.017
955	0.016
955	0.016
956	0.015
956	0.015
957	0.014
957	0.013
957	0.012
958	0.012
958	0.011
959	0.011
959	0.01
960	0.01
960	0.01
960	0.01
961	0.01
961	0.011
962	0.011
962	0.011
963	0.011
963	0.011
963	0.011
964	0.012
964	0.012
965	0.012
965	0.012
966	0.012
966	0.013
966	0.013
967	0.013
967	0.013
968	0.013
968	0.013
968	0.013
969	0.013
969	0.013
970	0.012
970	0.012
971	0.012
971	0.012
971	0.012
972	0.012
972	0.013
973	0.013
973	0.013
974	0.013
974	0.013
974	0.014
975	0.014
975	0.014
976	0.014
976	0.014
976	0.014
977	0.014
977	0.013
978	0.013
978	0.012
979	0.012
979	0.011
979	0.011
980	0.011
980	0.011
981	0.011
981	0.011
982	0.011
982	0.011
982	0.011
983	0.012
983	0.012
984	0.011
984	0.011
984	0.011
985	0.01
985	0.01
986	0.009
986	0.008
987	0.007
987	0.007
987	0.006
988	0.005
988	0.004
989	0.004
989	0.003
990	0.002
990	0.001
990	0.001
991	-0
991	-0.001
992	-0.001
992	-0.002
992	-0.003
993	-0.003
993	-0.004
994	-0.005
994	-0.007
995	-0.008
995	-0.009
995	-0.011
996	-0.012
996	-0.013
997	-0.014
997	-0.015
997	-0.016
998	-0.016
998	-0.016
999	-0.016
999	-0.016
1000	-0.016
1000	-0.015
1000	-0.015
1001	-0.014
1001	-0.013
1002	-0.013
1002	-0.013
1003	-0.013
1003	-0.013
1003	-0.013
1004	-0.014
1004	-0.014
1005	-0.014
1005	-0.015
1005	-0.016
1006	-0.016
1006	-0.017
1007	-0.018
1007	-0.019
1008	-0.019
1008	-0.02
1008	-0.02
1009	-0.02
1009	-0.02
1010	-0.02
1010	-0.019
1010	-0.018
1011	-0.018
1011	-0.017
1012	-0.016
1012	-0.014
1013	-0.013
1013	-0.012
1013	-0.011
1014	-0.011
1014	-0.01
1015	-0.009
1015	-0.009
1016	-0.008
1016	-0.009
1016	-0.009
1017	-0.009
1017	-0.009
1018	-0.009
1018	-0.009
1018	-0.009
1019	-0.009
1019	-0.01
1020	-0.01
1020	-0.011
1021	-0.011
1021	-0.011
1021	-0.011
1022	-0.012
1022	-0.012
1023	-0.011
1023	-0.011
1023	-0.011
1024	-0.011
1024	-0.011
1025	-0.01
1025	-0.01
1026	-0.01
1026	-0.009
1026	-0.009
1027	-0.009
1027	-0.008
1028	-0.008
1028	-0.007
1028	-0.006
1029	-0.006
1029	-0.006
1030	-0.006
1030	-0.006
1031	-0.006
1031	-0.006
1031	-0.006
1032	-0.006
1032	-0.006
1033	-0.006
1033	-0.006
1033	-0.007
1034	-0.007
1034	-0.007
1035	-0.007
1035	-0.008
1036	-0.008
1036	-0.009
1036	-0.009
1037	-0.009
1037	-0.009
1038	-0.009
1038	-0.008
1039	-0.008
1039	-0.008
1039	-0.007
1040	-0.007
1040	-0.007
1041	-0.007
1041	-0.007
1041	-0.007
1042	-0.008
1042	-0.009
1043	-0.01
1043	-0.01
1044	-0.011
1044	-0.013
1044	-0.013
1045	-0.014
1045	-0.015
1046	-0.016
1046	-0.016
1046	-0.016
1047	-0.017
1047	-0.017
1048	-0.016
1048	-0.016
1049	-0.016
1049	-0.016
1049	-0.016
1050	-0.016
1050	-0.017
1051	-0.018
1051	-0.018
1051	-0.019
1052	-0.019
1052	-0.02
1053	-0.021
1053	-0.021
1053	-0.021
1054	-0.022
1054	-0.023
1055	-0.022
1055	-0.022
1056	-0.023
1056	-0.023
1056	-0.023
1057	-0.023
1057	-0.024
1058	-0.024
1058	-0.025
1058	-0.025
1059	-0.025
1059	-0.026
1060	-0.026
1060	-0.027
1061	-0.027
1061	-0.027
1061	-0.027
1062	-0.027
1062	-0.027
1063	-0.027
1063	-0.027
1063	-0.027
1064	-0.026
1064	-0.026
1065	-0.026
1065	-0.026
1066	-0.026
1066	-0.026
1066	-0.026
1067	-0.027
1067	-0.027
1068	-0.028
1068	-0.029
1068	-0.029
1069	-0.03
1069	-0.031
1070	-0.032
1070	-0.032
1071	-0.033
1071	-0.033
1071	-0.034
1072	-0.034
1072	-0.034
1073	-0.034
1073	-0.035
1073	-0.035
1074	-0.035
1074	-0.036
1075	-0.036
1075	-0.036
1076	-0.037
1076	-0.038
1076	-0.039
1077	-0.04
1077	-0.04
1078	-0.041
1078	-0.042
1078	-0.043
1079	-0.043
1079	-0.043
1080	-0.045
1080	-0.045
1080	-0.047
1081	-0.048
1081	-0.049
1082	-0.05
1082	-0.051
1083	-0.052
1083	-0.053
1083	-0.055
1084	-0.056
1084	-0.057
1085	-0.058
1085	-0.058
1085	-0.059
1086	-0.06
1086	-0.061
1087	-0.062
1087	-0.063
1088	-0.064
1088	-0.064
1088	-0.065
1089	-0.066
1089	-0.066
1090	-0.067
1090	-0.068
1090	-0.069
1091	-0.07
1091	-0.071
1092	-0.071
1092	-0.071
1092	-0.072
1093	-0.073
1093	-0.073
1094	-0.074
1094	-0.075
1095	-0.076
1095	-0.077
1095	-0.077
1096	-0.078
1096	-0.081
1097	-0.081
1097	-0.083
1097	-0.085
1098	-0.086
1098	-0.089
1099	-0.091
1099	-0.091
1100	-0.094
1100	-0.097
1100	-0.1
1101	-0.103
1101	-0.106
1102	-0.108
1102	-0.111
1102	-0.113
1103	-0.114
1103	-0.117
1104	-0.12
1104	-0.124
1104	-0.126
1105	-0.127
1105	-0.13
1106	-0.136
1106	-0.138
1107	-0.143
1107	-0.148
1107	-0.153
1108	-0.155
1108	-0.157
1109	-0.159
1109	-0.163
1109	-0.168
1110	-0.169
1110	-0.169
1111	-0.179
1111	-0.177
