Data from 3.4A_17C_Absorbance__389__02301.txt Node

Date: Tue Jun 20 16:38:31 CEST 2023
User: Marek
Spectrometer: MAYP115816
Trigger mode: 0
Integration Time (sec): 2.200000E-1
Scans to average: 10
Electric dark correction enabled: true
Nonlinearity correction enabled: true
Boxcar width: 5
XAxis mode: Wavelengths
Number of Pixels in Spectrum: 2068
>>>>>Begin Spectral Data<<<<<
199	-0.797
199	-0.779
200	-0.742
200	-0.686
201	-0.66
201	-0.652
202	-0.637
202	-0.63
203	-0.629
203	-0.622
204	-0.6
204	-0.583
205	-0.561
205	-0.551
205	-0.559
206	-0.56
206	-0.555
207	-0.548
207	-0.555
208	-0.557
208	-0.562
209	-0.564
209	-0.57
210	-0.585
210	-0.591
211	-0.586
211	-0.592
212	-0.6
212	-0.607
213	-0.604
213	-0.6
213	-0.599
214	-0.605
214	-0.609
215	-0.605
215	-0.612
216	-0.621
216	-0.625
217	-0.624
217	-0.623
218	-0.63
218	-0.63
219	-0.634
219	-0.636
220	-0.639
220	-0.645
221	-0.646
221	-0.646
221	-0.637
222	-0.637
222	-0.636
223	-0.633
223	-0.637
224	-0.639
224	-0.638
225	-0.636
225	-0.637
226	-0.636
226	-0.636
227	-0.645
227	-0.653
228	-0.655
228	-0.662
229	-0.666
229	-0.664
229	-0.665
230	-0.661
230	-0.659
231	-0.656
231	-0.651
232	-0.653
232	-0.649
233	-0.651
233	-0.64
234	-0.64
234	-0.634
235	-0.638
235	-0.647
236	-0.654
236	-0.655
236	-0.655
237	-0.654
237	-0.654
238	-0.655
238	-0.655
239	-0.656
239	-0.667
240	-0.66
240	-0.656
241	-0.653
241	-0.656
242	-0.659
242	-0.668
243	-0.669
243	-0.672
243	-0.68
244	-0.676
244	-0.677
245	-0.68
245	-0.684
246	-0.693
246	-0.696
247	-0.705
247	-0.691
248	-0.69
248	-0.69
249	-0.696
249	-0.699
250	-0.698
250	-0.707
250	-0.705
251	-0.704
251	-0.699
252	-0.701
252	-0.711
253	-0.707
253	-0.719
254	-0.723
254	-0.724
255	-0.735
255	-0.733
256	-0.736
256	-0.749
257	-0.759
257	-0.756
258	-0.758
258	-0.765
258	-0.764
259	-0.757
259	-0.773
260	-0.773
260	-0.762
261	-0.773
261	-0.758
262	-0.763
262	-0.763
263	-0.755
263	-0.761
264	-0.769
264	-0.77
265	-0.761
265	-0.763
265	-0.774
266	-0.765
266	-0.767
267	-0.765
267	-0.779
268	-0.785
268	-0.779
269	-0.771
269	-0.786
270	-0.791
270	-0.791
271	-0.805
271	-0.814
272	-0.816
272	-0.818
272	-0.813
273	-0.823
273	-0.839
274	-0.832
274	-0.825
275	-0.821
275	-0.807
276	-0.81
276	-0.816
277	-0.816
277	-0.813
278	-0.818
278	-0.817
278	-0.805
279	-0.812
279	-0.827
280	-0.832
280	-0.842
281	-0.836
281	-0.828
282	-0.835
282	-0.829
283	-0.823
283	-0.836
284	-0.85
284	-0.862
285	-0.84
285	-0.845
285	-0.837
286	-0.844
286	-0.86
287	-0.857
287	-0.856
288	-0.854
288	-0.837
289	-0.835
289	-0.841
290	-0.85
290	-0.84
291	-0.844
291	-0.841
292	-0.821
292	-0.819
292	-0.823
293	-0.813
293	-0.807
294	-0.807
294	-0.794
295	-0.777
295	-0.788
296	-0.799
296	-0.794
297	-0.785
297	-0.788
298	-0.785
298	-0.8
298	-0.804
299	-0.786
299	-0.778
300	-0.774
300	-0.756
301	-0.739
301	-0.742
302	-0.751
302	-0.735
303	-0.729
303	-0.718
304	-0.701
304	-0.705
305	-0.697
305	-0.705
305	-0.72
306	-0.704
306	-0.703
307	-0.694
307	-0.706
308	-0.708
308	-0.705
309	-0.71
309	-0.705
310	-0.701
310	-0.696
311	-0.682
311	-0.7
311	-0.687
312	-0.683
312	-0.672
313	-0.664
313	-0.664
314	-0.667
314	-0.665
315	-0.663
315	-0.658
316	-0.652
316	-0.64
317	-0.632
317	-0.63
318	-0.622
318	-0.618
318	-0.609
319	-0.599
319	-0.59
320	-0.588
320	-0.585
321	-0.58
321	-0.581
322	-0.576
322	-0.568
323	-0.569
323	-0.561
324	-0.557
324	-0.545
324	-0.534
325	-0.518
325	-0.5
326	-0.493
326	-0.465
327	-0.45
327	-0.426
328	-0.394
328	-0.367
329	-0.339
329	-0.31
330	-0.282
330	-0.247
330	-0.21
331	-0.172
331	-0.139
332	-0.103
332	-0.07
333	-0.039
333	-0.005
334	0.024
334	0.051
335	0.079
335	0.101
336	0.125
336	0.148
336	0.165
337	0.183
337	0.202
338	0.216
338	0.228
339	0.243
339	0.254
340	0.263
340	0.274
341	0.281
341	0.288
342	0.296
342	0.303
342	0.308
343	0.311
343	0.317
344	0.32
344	0.324
345	0.327
345	0.329
346	0.331
346	0.333
347	0.335
347	0.336
348	0.338
348	0.34
348	0.341
349	0.342
349	0.343
350	0.343
350	0.344
351	0.344
351	0.345
352	0.345
352	0.345
353	0.346
353	0.346
354	0.346
354	0.346
354	0.346
355	0.346
355	0.346
356	0.346
356	0.346
357	0.346
357	0.346
358	0.346
358	0.346
359	0.346
359	0.346
360	0.346
360	0.346
360	0.346
361	0.346
361	0.346
362	0.346
362	0.346
363	0.346
363	0.346
364	0.346
364	0.346
365	0.346
365	0.346
366	0.346
366	0.346
366	0.346
367	0.346
367	0.346
368	0.345
368	0.345
369	0.345
369	0.345
370	0.345
370	0.345
371	0.344
371	0.344
372	0.344
372	0.343
372	0.343
373	0.343
373	0.343
374	0.342
374	0.342
375	0.342
375	0.341
376	0.341
376	0.341
377	0.34
377	0.34
378	0.34
378	0.339
378	0.339
379	0.339
379	0.338
380	0.338
380	0.338
381	0.338
381	0.338
382	0.337
382	0.337
383	0.337
383	0.337
383	0.336
384	0.336
384	0.336
385	0.335
385	0.335
386	0.335
386	0.334
387	0.334
387	0.334
388	0.334
388	0.334
389	0.334
389	0.333
389	0.333
390	0.333
390	0.333
391	0.332
391	0.332
392	0.332
392	0.331
393	0.331
393	0.331
394	0.331
394	0.33
394	0.33
395	0.33
395	0.329
396	0.329
396	0.329
397	0.328
397	0.328
398	0.327
398	0.327
399	0.327
399	0.327
400	0.326
400	0.326
400	0.326
401	0.325
401	0.325
402	0.325
402	0.325
403	0.324
403	0.324
404	0.324
404	0.323
405	0.323
405	0.323
405	0.322
406	0.322
406	0.322
407	0.322
407	0.321
408	0.321
408	0.321
409	0.321
409	0.321
410	0.321
410	0.32
411	0.32
411	0.32
411	0.32
412	0.319
412	0.319
413	0.319
413	0.319
414	0.318
414	0.318
415	0.317
415	0.317
416	0.317
416	0.317
416	0.316
417	0.316
417	0.316
418	0.316
418	0.316
419	0.316
419	0.315
420	0.315
420	0.315
421	0.315
421	0.315
421	0.315
422	0.316
422	0.316
423	0.315
423	0.315
424	0.315
424	0.315
425	0.315
425	0.314
426	0.314
426	0.314
427	0.314
427	0.314
427	0.314
428	0.314
428	0.314
429	0.313
429	0.313
430	0.313
430	0.312
431	0.312
431	0.312
432	0.311
432	0.311
432	0.311
433	0.31
433	0.31
434	0.311
434	0.311
435	0.311
435	0.311
436	0.311
436	0.311
437	0.311
437	0.311
437	0.311
438	0.31
438	0.31
439	0.31
439	0.31
440	0.31
440	0.31
441	0.31
441	0.31
442	0.31
442	0.309
442	0.309
443	0.309
443	0.309
444	0.309
444	0.309
445	0.309
445	0.309
446	0.309
446	0.309
447	0.309
447	0.309
447	0.309
448	0.309
448	0.309
449	0.31
449	0.31
450	0.31
450	0.31
451	0.31
451	0.31
452	0.31
452	0.31
452	0.31
453	0.31
453	0.31
454	0.31
454	0.31
455	0.311
455	0.311
456	0.311
456	0.311
457	0.311
457	0.311
458	0.311
458	0.311
458	0.311
459	0.311
459	0.311
460	0.31
460	0.31
461	0.31
461	0.31
462	0.311
462	0.312
463	0.312
463	0.313
463	0.313
464	0.314
464	0.314
465	0.315
465	0.315
466	0.316
466	0.316
467	0.317
467	0.317
467	0.317
468	0.316
468	0.317
469	0.317
469	0.318
470	0.318
470	0.318
471	0.319
471	0.319
472	0.319
472	0.32
472	0.32
473	0.321
473	0.322
474	0.323
474	0.323
475	0.324
475	0.325
476	0.326
476	0.327
477	0.328
477	0.329
477	0.329
478	0.33
478	0.331
479	0.332
479	0.333
480	0.333
480	0.334
481	0.335
481	0.336
482	0.337
482	0.338
482	0.339
483	0.341
483	0.343
484	0.344
484	0.345
485	0.347
485	0.348
486	0.35
486	0.351
487	0.352
487	0.354
487	0.355
488	0.356
488	0.357
489	0.358
489	0.36
490	0.362
490	0.363
491	0.365
491	0.367
492	0.368
492	0.369
492	0.371
493	0.372
493	0.374
494	0.377
494	0.379
495	0.381
495	0.383
496	0.385
496	0.387
496	0.389
497	0.392
497	0.394
498	0.396
498	0.398
499	0.4
499	0.403
500	0.406
500	0.408
501	0.411
501	0.413
501	0.415
502	0.418
502	0.42
503	0.423
503	0.425
504	0.427
504	0.43
505	0.433
505	0.436
506	0.439
506	0.442
506	0.445
507	0.448
507	0.451
508	0.454
508	0.458
509	0.461
509	0.464
510	0.467
510	0.47
511	0.473
511	0.475
511	0.478
512	0.48
512	0.482
513	0.484
513	0.486
514	0.489
514	0.491
515	0.493
515	0.495
515	0.497
516	0.499
516	0.502
517	0.504
517	0.506
518	0.508
518	0.509
519	0.511
519	0.512
520	0.514
520	0.516
520	0.518
521	0.518
521	0.52
522	0.521
522	0.522
523	0.524
523	0.526
524	0.527
524	0.528
524	0.529
525	0.53
525	0.531
526	0.532
526	0.533
527	0.534
527	0.534
528	0.534
528	0.534
529	0.534
529	0.534
529	0.533
530	0.533
530	0.533
531	0.533
531	0.532
532	0.531
532	0.531
533	0.53
533	0.53
533	0.529
534	0.528
534	0.527
535	0.526
535	0.526
536	0.525
536	0.524
537	0.523
537	0.522
538	0.521
538	0.519
538	0.518
539	0.516
539	0.515
540	0.513
540	0.51
541	0.508
541	0.506
542	0.504
542	0.502
542	0.499
543	0.497
543	0.494
544	0.491
544	0.489
545	0.487
545	0.484
546	0.482
546	0.479
547	0.476
547	0.473
547	0.471
548	0.469
548	0.466
549	0.464
549	0.462
550	0.459
550	0.457
551	0.454
551	0.451
551	0.448
552	0.446
552	0.443
553	0.441
553	0.438
554	0.436
554	0.432
555	0.429
555	0.426
556	0.423
556	0.42
556	0.417
557	0.415
557	0.412
558	0.409
558	0.406
559	0.403
559	0.4
560	0.397
560	0.394
560	0.392
561	0.39
561	0.388
562	0.385
562	0.383
563	0.38
563	0.378
564	0.376
564	0.374
564	0.372
565	0.371
565	0.369
566	0.367
566	0.365
567	0.363
567	0.361
568	0.359
568	0.356
568	0.354
569	0.352
569	0.349
570	0.346
570	0.343
571	0.341
571	0.339
572	0.337
572	0.334
573	0.332
573	0.329
573	0.327
574	0.325
574	0.323
575	0.322
575	0.322
576	0.32
576	0.317
577	0.315
577	0.314
577	0.313
578	0.312
578	0.311
579	0.311
579	0.31
580	0.307
580	0.304
581	0.301
581	0.299
581	0.299
582	0.298
582	0.297
583	0.296
583	0.294
584	0.291
584	0.289
585	0.288
585	0.288
585	0.288
586	0.287
586	0.285
587	0.283
587	0.281
588	0.279
588	0.278
589	0.276
589	0.275
590	0.274
590	0.272
590	0.272
591	0.271
591	0.269
592	0.267
592	0.265
593	0.264
593	0.263
594	0.261
594	0.26
594	0.258
595	0.258
595	0.255
596	0.253
596	0.254
597	0.254
597	0.253
598	0.252
598	0.251
598	0.251
599	0.25
599	0.249
600	0.248
600	0.247
601	0.247
601	0.246
602	0.245
602	0.244
602	0.243
603	0.243
603	0.243
604	0.242
604	0.242
605	0.241
605	0.241
606	0.24
606	0.238
606	0.236
607	0.235
607	0.234
608	0.233
608	0.231
609	0.23
609	0.229
610	0.228
610	0.226
610	0.226
611	0.226
611	0.225
612	0.224
612	0.224
613	0.223
613	0.222
614	0.221
614	0.219
614	0.217
615	0.216
615	0.214
616	0.213
616	0.212
617	0.211
617	0.21
618	0.209
618	0.208
618	0.207
619	0.206
619	0.206
620	0.206
620	0.205
621	0.204
621	0.202
622	0.201
622	0.199
622	0.197
623	0.195
623	0.195
624	0.194
624	0.192
625	0.191
625	0.19
626	0.189
626	0.188
626	0.188
627	0.187
627	0.186
628	0.186
628	0.184
629	0.183
629	0.182
630	0.179
630	0.178
630	0.176
631	0.175
631	0.173
632	0.171
632	0.169
633	0.167
633	0.165
634	0.163
634	0.16
634	0.159
635	0.156
635	0.154
636	0.151
636	0.149
637	0.146
637	0.143
638	0.14
638	0.137
638	0.133
639	0.13
639	0.125
640	0.121
640	0.117
641	0.113
641	0.109
642	0.104
642	0.1
642	0.095
643	0.091
643	0.085
644	0.08
644	0.075
645	0.07
645	0.065
646	0.059
646	0.053
646	0.047
647	0.04
647	0.033
648	0.026
648	0.019
649	0.012
649	0.005
650	-0.002
650	-0.009
650	-0.016
651	-0.026
651	-0.037
652	-0.05
652	-0.063
653	-0.076
653	-0.086
653	-0.081
654	-0.061
654	-0.056
655	-0.061
655	-0.066
656	-0.071
656	-0.077
657	-0.082
657	-0.087
657	-0.092
658	-0.1
658	-0.131
659	-0.215
659	-0.302
660	-0.342
660	-0.367
661	-0.393
661	-0.421
661	-0.45
662	-0.476
662	-0.504
663	-0.535
663	-0.571
664	-0.606
664	-0.644
665	-0.688
665	-0.731
665	-0.774
666	-0.822
666	-0.874
667	-0.926
667	-0.987
668	-1.044
668	-1.11
669	-1.175
669	-1.245
669	-1.32
670	-1.398
670	-1.503
671	-1.657
671	-1.969
672	-2.257
672	-2.436
672	-2.565
673	-2.667
673	-2.751
674	-2.822
674	-2.84
675	-2.857
675	-2.861
676	-2.861
676	-2.826
676	-2.758
677	-2.676
677	-2.579
678	-2.435
678	-2.204
679	-1.785
679	-1.597
680	-1.488
680	-1.411
680	-1.343
681	-1.294
681	-1.24
682	-1.198
682	-1.155
683	-1.113
683	-1.09
684	-1.061
684	-1.043
684	-1.021
685	-1.002
685	-0.993
686	-0.97
686	-0.957
687	-0.947
687	-0.936
687	-0.936
688	-0.919
688	-0.913
689	-0.917
689	-0.915
690	-0.901
690	-0.891
691	-0.89
691	-0.893
691	-0.896
692	-0.897
692	-0.893
693	-0.901
693	-0.91
694	-0.89
694	-0.888
695	-0.89
695	-0.884
695	-0.893
696	-0.9
696	-0.893
697	-0.886
697	-0.882
698	-0.877
698	-0.871
698	-0.884
699	-0.884
699	-0.884
700	-0.903
700	-0.895
701	-0.882
701	-0.875
702	-0.876
702	-0.874
702	-0.875
703	-0.866
703	-0.856
704	-0.864
704	-0.867
705	-0.856
705	-0.855
705	-0.85
706	-0.844
706	-0.84
707	-0.851
707	-0.855
708	-0.852
708	-0.85
709	-0.85
709	-0.846
709	-0.841
710	-0.85
710	-0.853
711	-0.852
711	-0.853
712	-0.845
712	-0.842
713	-0.846
713	-0.845
713	-0.826
714	-0.829
714	-0.831
715	-0.822
715	-0.831
716	-0.847
716	-0.855
716	-0.855
717	-0.862
717	-0.853
718	-0.849
718	-0.85
719	-0.845
719	-0.839
720	-0.835
720	-0.83
720	-0.823
721	-0.814
721	-0.819
722	-0.816
722	-0.813
723	-0.83
723	-0.842
723	-0.851
724	-0.85
724	-0.855
725	-0.849
725	-0.852
726	-0.854
726	-0.844
727	-0.846
727	-0.856
727	-0.846
728	-0.833
728	-0.83
729	-0.832
729	-0.835
730	-0.84
730	-0.832
730	-0.838
731	-0.842
731	-0.841
732	-0.841
732	-0.836
733	-0.85
733	-0.855
734	-0.864
734	-0.856
734	-0.839
735	-0.831
735	-0.827
736	-0.825
736	-0.821
737	-0.82
737	-0.81
737	-0.802
738	-0.788
738	-0.775
739	-0.777
739	-0.779
740	-0.791
740	-0.792
741	-0.803
741	-0.812
741	-0.822
742	-0.829
742	-0.846
743	-0.854
743	-0.858
744	-0.861
744	-0.869
744	-0.863
745	-0.87
745	-0.859
746	-0.854
746	-0.846
747	-0.848
747	-0.838
748	-0.839
748	-0.844
748	-0.845
749	-0.836
749	-0.841
750	-0.833
750	-0.835
751	-0.835
751	-0.832
751	-0.844
752	-0.846
752	-0.848
753	-0.849
753	-0.841
754	-0.862
754	-0.862
754	-0.869
755	-0.869
755	-0.859
756	-0.862
756	-0.846
757	-0.839
757	-0.829
758	-0.831
758	-0.83
758	-0.827
759	-0.833
759	-0.835
760	-0.833
760	-0.836
761	-0.831
761	-0.836
761	-0.836
762	-0.842
762	-0.841
763	-0.843
763	-0.845
764	-0.844
764	-0.839
764	-0.847
765	-0.846
765	-0.852
766	-0.855
766	-0.857
767	-0.872
767	-0.867
768	-0.865
768	-0.856
768	-0.85
769	-0.854
769	-0.859
770	-0.869
770	-0.874
771	-0.869
771	-0.868
771	-0.873
772	-0.878
772	-0.9
773	-0.902
773	-0.903
774	-0.9
774	-0.882
775	-0.869
775	-0.869
775	-0.872
776	-0.882
776	-0.878
777	-0.878
777	-0.86
778	-0.869
778	-0.877
778	-0.877
779	-0.888
779	-0.904
780	-0.901
780	-0.91
781	-0.9
781	-0.889
781	-0.903
782	-0.924
782	-0.926
783	-0.926
783	-0.934
784	-0.936
784	-0.928
784	-0.945
785	-0.938
785	-0.951
786	-0.956
786	-0.948
787	-0.94
787	-0.948
788	-0.939
788	-0.933
788	-0.935
789	-0.935
789	-0.925
790	-0.925
790	-0.908
791	-0.915
791	-0.911
791	-0.903
792	-0.897
792	-0.903
793	-0.905
793	-0.894
794	-0.885
794	-0.881
794	-0.889
795	-0.909
795	-0.896
796	-0.902
796	-0.898
797	-0.891
797	-0.882
797	-0.877
798	-0.897
798	-0.903
799	-0.9
799	-0.887
800	-0.882
800	-0.89
801	-0.887
801	-0.891
801	-0.888
802	-0.887
802	-0.884
803	-0.879
803	-0.871
804	-0.878
804	-0.884
804	-0.868
805	-0.848
805	-0.839
806	-0.838
806	-0.835
807	-0.835
807	-0.836
807	-0.817
808	-0.812
808	-0.804
809	-0.801
809	-0.801
810	-0.806
810	-0.802
810	-0.8
811	-0.802
811	-0.793
812	-0.787
812	-0.79
813	-0.797
813	-0.796
813	-0.793
814	-0.793
814	-0.797
815	-0.789
815	-0.784
816	-0.782
816	-0.799
817	-0.81
817	-0.814
817	-0.822
818	-0.816
818	-0.81
819	-0.82
819	-0.819
820	-0.83
820	-0.829
820	-0.827
821	-0.82
821	-0.816
822	-0.814
822	-0.803
823	-0.815
823	-0.815
823	-0.811
824	-0.807
824	-0.818
825	-0.816
825	-0.813
826	-0.811
826	-0.806
826	-0.806
827	-0.807
827	-0.796
828	-0.798
828	-0.791
829	-0.785
829	-0.77
829	-0.769
830	-0.768
830	-0.753
831	-0.747
831	-0.736
832	-0.727
832	-0.722
832	-0.715
833	-0.715
833	-0.72
834	-0.716
834	-0.711
835	-0.704
835	-0.702
835	-0.697
836	-0.693
836	-0.689
837	-0.678
837	-0.668
838	-0.655
838	-0.638
839	-0.632
839	-0.619
839	-0.607
840	-0.608
840	-0.598
841	-0.587
841	-0.58
842	-0.571
842	-0.559
842	-0.555
843	-0.551
843	-0.545
844	-0.542
844	-0.532
845	-0.517
845	-0.508
845	-0.497
846	-0.485
846	-0.474
847	-0.464
847	-0.453
848	-0.438
848	-0.42
848	-0.407
849	-0.394
849	-0.381
850	-0.37
850	-0.359
851	-0.346
851	-0.33
851	-0.32
852	-0.303
852	-0.29
853	-0.282
853	-0.271
854	-0.259
854	-0.25
854	-0.237
855	-0.225
855	-0.218
856	-0.21
856	-0.201
857	-0.194
857	-0.185
857	-0.172
858	-0.161
858	-0.153
859	-0.141
859	-0.129
860	-0.119
860	-0.104
860	-0.093
861	-0.083
861	-0.073
862	-0.064
862	-0.056
863	-0.049
863	-0.039
863	-0.033
864	-0.027
864	-0.02
865	-0.013
865	-0.007
866	-0.001
866	0.005
866	0.01
867	0.016
867	0.022
868	0.026
868	0.032
869	0.037
869	0.04
869	0.042
870	0.044
870	0.046
871	0.048
871	0.049
872	0.05
872	0.051
872	0.052
873	0.053
873	0.052
874	0.052
874	0.051
875	0.051
875	0.051
875	0.051
876	0.051
876	0.05
877	0.05
877	0.049
878	0.049
878	0.048
878	0.048
879	0.048
879	0.048
880	0.047
880	0.046
881	0.045
881	0.044
881	0.043
882	0.042
882	0.04
883	0.039
883	0.037
884	0.037
884	0.036
884	0.035
885	0.035
885	0.035
886	0.035
886	0.034
887	0.034
887	0.033
887	0.033
888	0.033
888	0.032
889	0.031
889	0.03
890	0.029
890	0.029
890	0.029
891	0.029
891	0.029
892	0.029
892	0.029
893	0.029
893	0.029
893	0.029
894	0.029
894	0.029
895	0.029
895	0.028
895	0.028
896	0.028
896	0.028
897	0.028
897	0.029
898	0.029
898	0.029
898	0.03
899	0.03
899	0.03
900	0.03
900	0.03
901	0.029
901	0.029
901	0.028
902	0.028
902	0.028
903	0.027
903	0.027
904	0.027
904	0.026
904	0.027
905	0.027
905	0.028
906	0.029
906	0.029
907	0.03
907	0.03
907	0.031
908	0.031
908	0.032
909	0.032
909	0.032
910	0.032
910	0.033
910	0.033
911	0.033
911	0.034
912	0.034
912	0.035
913	0.036
913	0.036
913	0.037
914	0.037
914	0.038
915	0.038
915	0.038
916	0.038
916	0.038
916	0.038
917	0.038
917	0.038
918	0.038
918	0.038
918	0.037
919	0.037
919	0.037
920	0.038
920	0.038
921	0.039
921	0.04
921	0.04
922	0.041
922	0.041
923	0.041
923	0.042
924	0.041
924	0.041
924	0.04
925	0.039
925	0.038
926	0.037
926	0.035
927	0.034
927	0.033
927	0.032
928	0.032
928	0.031
929	0.031
929	0.032
930	0.032
930	0.033
930	0.033
931	0.034
931	0.035
932	0.037
932	0.038
933	0.039
933	0.039
933	0.039
934	0.039
934	0.039
935	0.038
935	0.038
935	0.036
936	0.035
936	0.033
937	0.032
937	0.031
938	0.03
938	0.029
938	0.029
939	0.028
939	0.027
940	0.027
940	0.026
941	0.025
941	0.025
941	0.024
942	0.024
942	0.023
943	0.023
943	0.022
944	0.022
944	0.021
944	0.02
945	0.02
945	0.02
946	0.02
946	0.019
946	0.019
947	0.019
947	0.019
948	0.019
948	0.02
949	0.021
949	0.022
949	0.024
950	0.025
950	0.027
951	0.028
951	0.029
952	0.03
952	0.032
952	0.032
953	0.033
953	0.033
954	0.033
954	0.033
955	0.033
955	0.032
955	0.032
956	0.031
956	0.031
957	0.03
957	0.029
957	0.028
958	0.027
958	0.027
959	0.027
959	0.026
960	0.026
960	0.026
960	0.026
961	0.026
961	0.026
962	0.026
962	0.026
963	0.027
963	0.027
963	0.027
964	0.027
964	0.028
965	0.028
965	0.028
966	0.028
966	0.028
966	0.029
967	0.029
967	0.029
968	0.028
968	0.028
968	0.028
969	0.028
969	0.028
970	0.028
970	0.027
971	0.027
971	0.027
971	0.027
972	0.028
972	0.028
973	0.028
973	0.028
974	0.028
974	0.029
974	0.029
975	0.029
975	0.029
976	0.029
976	0.029
976	0.029
977	0.029
977	0.028
978	0.028
978	0.027
979	0.026
979	0.026
979	0.026
980	0.026
980	0.025
981	0.025
981	0.025
982	0.025
982	0.025
982	0.025
983	0.025
983	0.025
984	0.025
984	0.025
984	0.024
985	0.024
985	0.023
986	0.022
986	0.022
987	0.021
987	0.02
987	0.02
988	0.019
988	0.018
989	0.017
989	0.016
990	0.016
990	0.015
990	0.014
991	0.013
991	0.013
992	0.012
992	0.011
992	0.01
993	0.01
993	0.009
994	0.007
994	0.006
995	0.005
995	0.003
995	0.002
996	0.001
996	-0.001
997	-0.002
997	-0.003
997	-0.004
998	-0.004
998	-0.004
999	-0.004
999	-0.004
1000	-0.004
1000	-0.004
1000	-0.003
1001	-0.002
1001	-0.001
1002	-0
1002	0
1003	0.001
1003	0.001
1003	0.001
1004	0.001
1004	0.001
1005	0
1005	-0
1005	-0.001
1006	-0.002
1006	-0.003
1007	-0.004
1007	-0.005
1008	-0.006
1008	-0.006
1008	-0.006
1009	-0.007
1009	-0.006
1010	-0.005
1010	-0.005
1010	-0.004
1011	-0.004
1011	-0.003
1012	-0.002
1012	-0.001
1013	0.001
1013	0.001
1013	0.002
1014	0.003
1014	0.003
1015	0.004
1015	0.005
1016	0.005
1016	0.005
1016	0.005
1017	0.004
1017	0.004
1018	0.005
1018	0.004
1018	0.004
1019	0.004
1019	0.004
1020	0.003
1020	0.003
1021	0.003
1021	0.002
1021	0.002
1022	0.002
1022	0.001
1023	0.002
1023	0.002
1023	0.002
1024	0.002
1024	0.002
1025	0.003
1025	0.003
1026	0.004
1026	0.004
1026	0.004
1027	0.004
1027	0.005
1028	0.005
1028	0.006
1028	0.006
1029	0.006
1029	0.006
1030	0.006
1030	0.005
1031	0.005
1031	0.006
1031	0.006
1032	0.006
1032	0.006
1033	0.005
1033	0.005
1033	0.005
1034	0.005
1034	0.004
1035	0.004
1035	0.003
1036	0.003
1036	0.002
1036	0.002
1037	0.002
1037	0.002
1038	0.002
1038	0.002
1039	0.003
1039	0.003
1039	0.004
1040	0.004
1040	0.004
1041	0.004
1041	0.004
1041	0.004
1042	0.003
1042	0.002
1043	0.002
1043	0.001
1044	-0
1044	-0.001
1044	-0.002
1045	-0.003
1045	-0.003
1046	-0.004
1046	-0.004
1046	-0.005
1047	-0.005
1047	-0.005
1048	-0.005
1048	-0.005
1049	-0.004
1049	-0.005
1049	-0.005
1050	-0.005
1050	-0.006
1051	-0.007
1051	-0.007
1051	-0.008
1052	-0.009
1052	-0.01
1053	-0.01
1053	-0.011
1053	-0.011
1054	-0.012
1054	-0.012
1055	-0.012
1055	-0.012
1056	-0.012
1056	-0.013
1056	-0.013
1057	-0.013
1057	-0.014
1058	-0.014
1058	-0.014
1058	-0.014
1059	-0.014
1059	-0.015
1060	-0.016
1060	-0.016
1061	-0.016
1061	-0.016
1061	-0.016
1062	-0.017
1062	-0.017
1063	-0.017
1063	-0.017
1063	-0.017
1064	-0.016
1064	-0.016
1065	-0.016
1065	-0.016
1066	-0.016
1066	-0.016
1066	-0.016
1067	-0.017
1067	-0.017
1068	-0.018
1068	-0.019
1068	-0.02
1069	-0.021
1069	-0.021
1070	-0.022
1070	-0.023
1071	-0.022
1071	-0.023
1071	-0.024
1072	-0.024
1072	-0.024
1073	-0.024
1073	-0.024
1073	-0.024
1074	-0.025
1074	-0.025
1075	-0.026
1075	-0.026
1076	-0.027
1076	-0.028
1076	-0.029
1077	-0.03
1077	-0.031
1078	-0.032
1078	-0.033
1078	-0.033
1079	-0.034
1079	-0.034
1080	-0.036
1080	-0.036
1080	-0.038
1081	-0.039
1081	-0.04
1082	-0.04
1082	-0.042
1083	-0.043
1083	-0.044
1083	-0.045
1084	-0.046
1084	-0.047
1085	-0.048
1085	-0.049
1085	-0.049
1086	-0.05
1086	-0.051
1087	-0.052
1087	-0.053
1088	-0.054
1088	-0.055
1088	-0.055
1089	-0.057
1089	-0.058
1090	-0.059
1090	-0.059
1090	-0.061
1091	-0.062
1091	-0.062
1092	-0.062
1092	-0.062
1092	-0.063
1093	-0.064
1093	-0.064
1094	-0.065
1094	-0.066
1095	-0.067
1095	-0.067
1095	-0.067
1096	-0.069
1096	-0.071
1097	-0.072
1097	-0.074
1097	-0.076
1098	-0.077
1098	-0.08
1099	-0.081
1099	-0.082
1100	-0.085
1100	-0.088
1100	-0.091
1101	-0.094
1101	-0.097
1102	-0.099
1102	-0.101
1102	-0.104
1103	-0.106
1103	-0.109
1104	-0.113
1104	-0.116
1104	-0.119
1105	-0.121
1105	-0.124
1106	-0.129
1106	-0.131
1107	-0.138
1107	-0.142
1107	-0.148
1108	-0.151
1108	-0.152
1109	-0.155
1109	-0.159
1109	-0.164
1110	-0.167
1110	-0.169
1111	-0.181
1111	-0.179
