Data from 3.4A_17C_Absorbance__175__02087.txt Node

Date: Tue Jun 20 16:30:40 CEST 2023
User: Marek
Spectrometer: MAYP115816
Trigger mode: 0
Integration Time (sec): 2.200000E-1
Scans to average: 10
Electric dark correction enabled: true
Nonlinearity correction enabled: true
Boxcar width: 5
XAxis mode: Wavelengths
Number of Pixels in Spectrum: 2068
>>>>>Begin Spectral Data<<<<<
199	-0.795
199	-0.779
200	-0.745
200	-0.689
201	-0.662
201	-0.654
202	-0.638
202	-0.633
203	-0.632
203	-0.624
204	-0.604
204	-0.587
205	-0.564
205	-0.553
205	-0.561
206	-0.564
206	-0.559
207	-0.551
207	-0.556
208	-0.558
208	-0.562
209	-0.563
209	-0.57
210	-0.583
210	-0.589
211	-0.584
211	-0.587
212	-0.594
212	-0.6
213	-0.598
213	-0.592
213	-0.589
214	-0.597
214	-0.6
215	-0.597
215	-0.603
216	-0.611
216	-0.617
217	-0.616
217	-0.617
218	-0.626
218	-0.628
219	-0.635
219	-0.636
220	-0.64
220	-0.648
221	-0.647
221	-0.648
221	-0.639
222	-0.638
222	-0.639
223	-0.634
223	-0.637
224	-0.637
224	-0.636
225	-0.633
225	-0.632
226	-0.633
226	-0.634
227	-0.642
227	-0.653
228	-0.654
228	-0.662
229	-0.667
229	-0.665
229	-0.665
230	-0.658
230	-0.657
231	-0.653
231	-0.648
232	-0.65
232	-0.645
233	-0.646
233	-0.634
234	-0.634
234	-0.629
235	-0.634
235	-0.647
236	-0.654
236	-0.655
236	-0.654
237	-0.653
237	-0.654
238	-0.654
238	-0.656
239	-0.658
239	-0.667
240	-0.659
240	-0.654
241	-0.649
241	-0.653
242	-0.658
242	-0.666
243	-0.667
243	-0.668
243	-0.673
244	-0.669
244	-0.671
245	-0.675
245	-0.679
246	-0.69
246	-0.693
247	-0.699
247	-0.685
248	-0.683
248	-0.686
249	-0.692
249	-0.693
250	-0.693
250	-0.701
250	-0.698
251	-0.699
251	-0.695
252	-0.697
252	-0.708
253	-0.705
253	-0.717
254	-0.722
254	-0.724
255	-0.734
255	-0.732
256	-0.733
256	-0.744
257	-0.753
257	-0.749
258	-0.752
258	-0.758
258	-0.755
259	-0.748
259	-0.766
260	-0.766
260	-0.755
261	-0.766
261	-0.752
262	-0.758
262	-0.757
263	-0.747
263	-0.752
264	-0.763
264	-0.763
265	-0.753
265	-0.757
265	-0.767
266	-0.758
266	-0.76
267	-0.759
267	-0.776
268	-0.784
268	-0.777
269	-0.767
269	-0.781
270	-0.785
270	-0.783
271	-0.797
271	-0.807
272	-0.807
272	-0.81
272	-0.799
273	-0.809
273	-0.826
274	-0.817
274	-0.812
275	-0.81
275	-0.797
276	-0.8
276	-0.805
277	-0.806
277	-0.805
278	-0.81
278	-0.809
278	-0.797
279	-0.806
279	-0.82
280	-0.822
280	-0.831
281	-0.825
281	-0.818
282	-0.824
282	-0.817
283	-0.81
283	-0.825
284	-0.84
284	-0.85
285	-0.831
285	-0.836
285	-0.83
286	-0.834
286	-0.851
287	-0.847
287	-0.848
288	-0.847
288	-0.827
289	-0.824
289	-0.832
290	-0.841
290	-0.831
291	-0.834
291	-0.834
292	-0.813
292	-0.811
292	-0.814
293	-0.803
293	-0.799
294	-0.799
294	-0.785
295	-0.767
295	-0.779
296	-0.791
296	-0.784
297	-0.774
297	-0.778
298	-0.774
298	-0.792
298	-0.796
299	-0.777
299	-0.77
300	-0.767
300	-0.748
301	-0.729
301	-0.732
302	-0.74
302	-0.725
303	-0.72
303	-0.708
304	-0.691
304	-0.694
305	-0.687
305	-0.694
305	-0.71
306	-0.696
306	-0.693
307	-0.686
307	-0.697
308	-0.697
308	-0.692
309	-0.696
309	-0.693
310	-0.69
310	-0.685
311	-0.67
311	-0.689
311	-0.676
312	-0.674
312	-0.663
313	-0.655
313	-0.657
314	-0.662
314	-0.66
315	-0.657
315	-0.652
316	-0.645
316	-0.633
317	-0.628
317	-0.624
318	-0.615
318	-0.614
318	-0.602
319	-0.591
319	-0.581
320	-0.579
320	-0.577
321	-0.572
321	-0.573
322	-0.567
322	-0.559
323	-0.561
323	-0.55
324	-0.547
324	-0.536
324	-0.524
325	-0.51
325	-0.492
326	-0.483
326	-0.456
327	-0.44
327	-0.417
328	-0.384
328	-0.362
329	-0.334
329	-0.304
330	-0.277
330	-0.237
330	-0.2
331	-0.161
331	-0.126
332	-0.089
332	-0.054
333	-0.021
333	0.015
334	0.047
334	0.077
335	0.106
335	0.13
336	0.155
336	0.179
336	0.199
337	0.218
337	0.238
338	0.254
338	0.267
339	0.283
339	0.295
340	0.305
340	0.315
341	0.322
341	0.329
342	0.337
342	0.344
342	0.35
343	0.354
343	0.36
344	0.363
344	0.367
345	0.371
345	0.374
346	0.377
346	0.379
347	0.381
347	0.383
348	0.385
348	0.387
348	0.388
349	0.389
349	0.39
350	0.391
350	0.391
351	0.392
351	0.392
352	0.392
352	0.392
353	0.393
353	0.393
354	0.393
354	0.393
354	0.393
355	0.393
355	0.393
356	0.393
356	0.393
357	0.394
357	0.395
358	0.394
358	0.394
359	0.394
359	0.394
360	0.395
360	0.395
360	0.395
361	0.395
361	0.395
362	0.394
362	0.394
363	0.393
363	0.393
364	0.393
364	0.393
365	0.393
365	0.393
366	0.393
366	0.392
366	0.393
367	0.392
367	0.392
368	0.392
368	0.391
369	0.391
369	0.39
370	0.39
370	0.39
371	0.389
371	0.389
372	0.388
372	0.388
372	0.388
373	0.388
373	0.387
374	0.387
374	0.387
375	0.386
375	0.386
376	0.385
376	0.385
377	0.385
377	0.384
378	0.383
378	0.383
378	0.383
379	0.382
379	0.382
380	0.382
380	0.381
381	0.381
381	0.38
382	0.38
382	0.38
383	0.379
383	0.379
383	0.379
384	0.378
384	0.378
385	0.377
385	0.377
386	0.377
386	0.376
387	0.376
387	0.375
388	0.375
388	0.374
389	0.374
389	0.374
389	0.373
390	0.373
390	0.373
391	0.372
391	0.372
392	0.372
392	0.371
393	0.371
393	0.371
394	0.371
394	0.37
394	0.37
395	0.369
395	0.369
396	0.369
396	0.368
397	0.368
397	0.367
398	0.367
398	0.366
399	0.366
399	0.365
400	0.365
400	0.364
400	0.364
401	0.364
401	0.363
402	0.362
402	0.362
403	0.362
403	0.362
404	0.361
404	0.361
405	0.36
405	0.36
405	0.359
406	0.359
406	0.359
407	0.359
407	0.358
408	0.358
408	0.358
409	0.358
409	0.358
410	0.357
410	0.357
411	0.357
411	0.357
411	0.356
412	0.356
412	0.355
413	0.355
413	0.355
414	0.354
414	0.354
415	0.354
415	0.353
416	0.353
416	0.352
416	0.352
417	0.352
417	0.352
418	0.352
418	0.351
419	0.351
419	0.351
420	0.351
420	0.351
421	0.35
421	0.35
421	0.35
422	0.35
422	0.351
423	0.35
423	0.35
424	0.349
424	0.349
425	0.349
425	0.349
426	0.349
426	0.349
427	0.349
427	0.349
427	0.349
428	0.348
428	0.348
429	0.348
429	0.347
430	0.347
430	0.347
431	0.346
431	0.346
432	0.346
432	0.345
432	0.345
433	0.345
433	0.345
434	0.345
434	0.345
435	0.346
435	0.346
436	0.345
436	0.345
437	0.346
437	0.345
437	0.345
438	0.346
438	0.346
439	0.346
439	0.345
440	0.345
440	0.345
441	0.345
441	0.345
442	0.345
442	0.345
442	0.345
443	0.345
443	0.345
444	0.344
444	0.344
445	0.344
445	0.345
446	0.345
446	0.345
447	0.345
447	0.345
447	0.345
448	0.345
448	0.345
449	0.345
449	0.346
450	0.346
450	0.346
451	0.346
451	0.346
452	0.346
452	0.346
452	0.346
453	0.346
453	0.347
454	0.347
454	0.347
455	0.348
455	0.348
456	0.348
456	0.348
457	0.348
457	0.348
458	0.348
458	0.348
458	0.349
459	0.349
459	0.348
460	0.348
460	0.348
461	0.348
461	0.349
462	0.35
462	0.35
463	0.351
463	0.352
463	0.353
464	0.354
464	0.354
465	0.355
465	0.356
466	0.356
466	0.357
467	0.358
467	0.358
467	0.358
468	0.358
468	0.358
469	0.359
469	0.36
470	0.36
470	0.361
471	0.361
471	0.362
472	0.362
472	0.363
472	0.364
473	0.365
473	0.367
474	0.367
474	0.368
475	0.369
475	0.371
476	0.372
476	0.373
477	0.374
477	0.376
477	0.377
478	0.378
478	0.379
479	0.38
479	0.382
480	0.383
480	0.384
481	0.385
481	0.386
482	0.388
482	0.389
482	0.391
483	0.393
483	0.396
484	0.398
484	0.399
485	0.401
485	0.403
486	0.404
486	0.406
487	0.408
487	0.41
487	0.412
488	0.413
488	0.415
489	0.417
489	0.419
490	0.421
490	0.424
491	0.426
491	0.428
492	0.431
492	0.433
492	0.435
493	0.437
493	0.44
494	0.443
494	0.446
495	0.449
495	0.451
496	0.454
496	0.457
496	0.46
497	0.463
497	0.466
498	0.469
498	0.472
499	0.475
499	0.478
500	0.482
500	0.485
501	0.488
501	0.491
501	0.494
502	0.497
502	0.501
503	0.505
503	0.508
504	0.511
504	0.514
505	0.518
505	0.522
506	0.526
506	0.53
506	0.534
507	0.538
507	0.542
508	0.546
508	0.55
509	0.554
509	0.558
510	0.562
510	0.565
511	0.569
511	0.572
511	0.576
512	0.579
512	0.582
513	0.585
513	0.588
514	0.591
514	0.594
515	0.597
515	0.599
515	0.602
516	0.605
516	0.608
517	0.611
517	0.613
518	0.616
518	0.618
519	0.62
519	0.621
520	0.624
520	0.626
520	0.627
521	0.629
521	0.63
522	0.632
522	0.633
523	0.635
523	0.637
524	0.638
524	0.64
524	0.641
525	0.642
525	0.643
526	0.644
526	0.644
527	0.645
527	0.645
528	0.645
528	0.645
529	0.644
529	0.644
529	0.643
530	0.643
530	0.641
531	0.641
531	0.64
532	0.638
532	0.637
533	0.636
533	0.634
533	0.633
534	0.631
534	0.63
535	0.628
535	0.627
536	0.625
536	0.622
537	0.62
537	0.617
538	0.615
538	0.612
538	0.609
539	0.606
539	0.604
540	0.6
540	0.596
541	0.593
541	0.59
542	0.587
542	0.583
542	0.579
543	0.575
543	0.571
544	0.566
544	0.562
545	0.558
545	0.555
546	0.551
546	0.546
547	0.541
547	0.537
547	0.533
548	0.529
548	0.525
549	0.521
549	0.517
550	0.513
550	0.508
551	0.504
551	0.499
551	0.494
552	0.49
552	0.486
553	0.481
553	0.477
554	0.472
554	0.467
555	0.462
555	0.458
556	0.453
556	0.448
556	0.443
557	0.439
557	0.434
558	0.429
558	0.424
559	0.42
559	0.415
560	0.41
560	0.405
560	0.401
561	0.397
561	0.393
562	0.389
562	0.385
563	0.381
563	0.377
564	0.373
564	0.369
564	0.366
565	0.363
565	0.359
566	0.355
566	0.351
567	0.348
567	0.344
568	0.34
568	0.336
568	0.332
569	0.328
569	0.324
570	0.32
570	0.315
571	0.312
571	0.309
572	0.305
572	0.301
573	0.297
573	0.293
573	0.289
574	0.286
574	0.283
575	0.28
575	0.279
576	0.276
576	0.272
577	0.268
577	0.265
577	0.263
578	0.261
578	0.259
579	0.258
579	0.256
580	0.252
580	0.247
581	0.243
581	0.241
581	0.239
582	0.237
582	0.235
583	0.234
583	0.23
584	0.226
584	0.222
585	0.221
585	0.22
585	0.218
586	0.216
586	0.213
587	0.21
587	0.207
588	0.204
588	0.202
589	0.2
589	0.199
590	0.196
590	0.194
590	0.193
591	0.191
591	0.188
592	0.186
592	0.183
593	0.182
593	0.18
594	0.178
594	0.176
594	0.174
595	0.172
595	0.169
596	0.167
596	0.166
597	0.166
597	0.165
598	0.163
598	0.161
598	0.16
599	0.159
599	0.158
600	0.156
600	0.155
601	0.155
601	0.154
602	0.152
602	0.151
602	0.15
603	0.149
603	0.149
604	0.148
604	0.147
605	0.146
605	0.146
606	0.144
606	0.142
606	0.14
607	0.139
607	0.138
608	0.137
608	0.134
609	0.133
609	0.133
610	0.131
610	0.129
610	0.128
611	0.128
611	0.127
612	0.126
612	0.126
613	0.125
613	0.124
614	0.122
614	0.12
614	0.119
615	0.117
615	0.115
616	0.114
616	0.113
617	0.112
617	0.111
618	0.109
618	0.109
618	0.108
619	0.107
619	0.107
620	0.107
620	0.106
621	0.105
621	0.104
622	0.102
622	0.101
622	0.099
623	0.097
623	0.097
624	0.097
624	0.095
625	0.094
625	0.094
626	0.093
626	0.092
626	0.092
627	0.092
627	0.092
628	0.091
628	0.091
629	0.09
629	0.089
630	0.088
630	0.087
630	0.086
631	0.085
631	0.084
632	0.083
632	0.082
633	0.08
633	0.079
634	0.078
634	0.077
634	0.077
635	0.075
635	0.074
636	0.073
636	0.072
637	0.07
637	0.069
638	0.067
638	0.066
638	0.064
639	0.062
639	0.059
640	0.057
640	0.055
641	0.052
641	0.05
642	0.048
642	0.046
642	0.043
643	0.04
643	0.037
644	0.035
644	0.032
645	0.029
645	0.026
646	0.023
646	0.019
646	0.015
647	0.011
647	0.007
648	0.002
648	-0.003
649	-0.007
649	-0.012
650	-0.017
650	-0.022
650	-0.027
651	-0.034
651	-0.042
652	-0.051
652	-0.06
653	-0.068
653	-0.075
653	-0.07
654	-0.058
654	-0.058
655	-0.063
655	-0.067
656	-0.072
656	-0.077
657	-0.08
657	-0.083
657	-0.088
658	-0.093
658	-0.118
659	-0.18
659	-0.241
660	-0.269
660	-0.289
661	-0.309
661	-0.332
661	-0.355
662	-0.374
662	-0.393
663	-0.414
663	-0.438
664	-0.46
664	-0.486
665	-0.513
665	-0.541
665	-0.565
666	-0.594
666	-0.627
667	-0.66
667	-0.701
668	-0.739
668	-0.789
669	-0.838
669	-0.889
669	-0.948
670	-1.009
670	-1.104
671	-1.287
671	-1.607
672	-2.022
672	-2.292
672	-2.463
673	-2.588
673	-2.674
674	-2.702
674	-2.713
675	-2.728
675	-2.734
676	-2.736
676	-2.716
676	-2.651
677	-2.538
677	-2.388
678	-2.127
678	-1.578
679	-1.267
679	-1.152
680	-1.081
680	-1.033
680	-0.993
681	-0.97
681	-0.938
682	-0.918
682	-0.892
683	-0.866
683	-0.86
684	-0.847
684	-0.84
684	-0.832
685	-0.825
685	-0.827
686	-0.813
686	-0.808
687	-0.807
687	-0.805
687	-0.812
688	-0.804
688	-0.803
689	-0.813
689	-0.815
690	-0.807
690	-0.802
691	-0.805
691	-0.812
691	-0.817
692	-0.819
692	-0.82
693	-0.828
693	-0.843
694	-0.825
694	-0.828
695	-0.832
695	-0.827
695	-0.837
696	-0.846
696	-0.84
697	-0.835
697	-0.832
698	-0.829
698	-0.822
698	-0.837
699	-0.835
699	-0.837
700	-0.858
700	-0.853
701	-0.84
701	-0.836
702	-0.838
702	-0.837
702	-0.84
703	-0.833
703	-0.823
704	-0.832
704	-0.838
705	-0.825
705	-0.826
705	-0.821
706	-0.815
706	-0.812
707	-0.824
707	-0.827
708	-0.824
708	-0.821
709	-0.823
709	-0.818
709	-0.815
710	-0.824
710	-0.828
711	-0.826
711	-0.828
712	-0.818
712	-0.815
713	-0.82
713	-0.821
713	-0.801
714	-0.804
714	-0.807
715	-0.798
715	-0.806
716	-0.823
716	-0.834
716	-0.835
717	-0.841
717	-0.834
718	-0.829
718	-0.829
719	-0.827
719	-0.82
720	-0.815
720	-0.812
720	-0.806
721	-0.797
721	-0.802
722	-0.8
722	-0.797
723	-0.814
723	-0.826
723	-0.833
724	-0.831
724	-0.839
725	-0.832
725	-0.837
726	-0.839
726	-0.829
727	-0.832
727	-0.839
727	-0.831
728	-0.818
728	-0.814
729	-0.817
729	-0.82
730	-0.827
730	-0.817
730	-0.823
731	-0.827
731	-0.826
732	-0.829
732	-0.823
733	-0.841
733	-0.848
734	-0.856
734	-0.845
734	-0.828
735	-0.819
735	-0.812
736	-0.811
736	-0.806
737	-0.805
737	-0.796
737	-0.787
738	-0.773
738	-0.762
739	-0.766
739	-0.768
740	-0.782
740	-0.784
741	-0.794
741	-0.805
741	-0.814
742	-0.821
742	-0.836
743	-0.842
743	-0.846
744	-0.85
744	-0.858
744	-0.852
745	-0.861
745	-0.851
746	-0.847
746	-0.839
747	-0.841
747	-0.83
748	-0.832
748	-0.836
748	-0.837
749	-0.83
749	-0.836
750	-0.826
750	-0.827
751	-0.826
751	-0.824
751	-0.838
752	-0.84
752	-0.843
753	-0.844
753	-0.837
754	-0.857
754	-0.857
754	-0.865
755	-0.865
755	-0.857
756	-0.86
756	-0.843
757	-0.837
757	-0.827
758	-0.827
758	-0.827
758	-0.822
759	-0.826
759	-0.824
760	-0.823
760	-0.825
761	-0.82
761	-0.826
761	-0.827
762	-0.834
762	-0.832
763	-0.833
763	-0.837
764	-0.836
764	-0.833
764	-0.837
765	-0.837
765	-0.842
766	-0.843
766	-0.845
767	-0.859
767	-0.856
768	-0.853
768	-0.844
768	-0.839
769	-0.841
769	-0.849
770	-0.858
770	-0.863
771	-0.861
771	-0.861
771	-0.868
772	-0.873
772	-0.894
773	-0.895
773	-0.894
774	-0.893
774	-0.877
775	-0.863
775	-0.863
775	-0.867
776	-0.877
776	-0.869
777	-0.869
777	-0.852
778	-0.86
778	-0.871
778	-0.87
779	-0.88
779	-0.895
780	-0.891
780	-0.899
781	-0.888
781	-0.88
781	-0.893
782	-0.914
782	-0.916
783	-0.915
783	-0.924
784	-0.926
784	-0.919
784	-0.939
785	-0.93
785	-0.944
786	-0.947
786	-0.941
787	-0.932
787	-0.939
788	-0.93
788	-0.922
788	-0.924
789	-0.924
789	-0.914
790	-0.915
790	-0.898
791	-0.905
791	-0.899
791	-0.892
792	-0.885
792	-0.892
793	-0.896
793	-0.885
794	-0.878
794	-0.871
794	-0.876
795	-0.898
795	-0.885
796	-0.891
796	-0.888
797	-0.882
797	-0.87
797	-0.861
798	-0.882
798	-0.886
799	-0.885
799	-0.872
800	-0.867
800	-0.876
801	-0.874
801	-0.88
801	-0.876
802	-0.877
802	-0.878
803	-0.873
803	-0.865
804	-0.872
804	-0.88
804	-0.863
805	-0.844
805	-0.835
806	-0.835
806	-0.832
807	-0.833
807	-0.833
807	-0.815
808	-0.812
808	-0.806
809	-0.8
809	-0.801
810	-0.804
810	-0.801
810	-0.796
811	-0.799
811	-0.792
812	-0.784
812	-0.785
813	-0.789
813	-0.789
813	-0.786
814	-0.785
814	-0.792
815	-0.783
815	-0.78
816	-0.776
816	-0.794
817	-0.807
817	-0.811
817	-0.82
818	-0.815
818	-0.812
819	-0.823
819	-0.82
820	-0.831
820	-0.83
820	-0.829
821	-0.822
821	-0.818
822	-0.817
822	-0.806
823	-0.816
823	-0.816
823	-0.81
824	-0.808
824	-0.82
825	-0.819
825	-0.816
826	-0.811
826	-0.807
826	-0.806
827	-0.806
827	-0.797
828	-0.797
828	-0.791
829	-0.783
829	-0.768
829	-0.766
830	-0.764
830	-0.751
831	-0.744
831	-0.734
832	-0.725
832	-0.719
832	-0.709
833	-0.707
833	-0.714
834	-0.709
834	-0.704
835	-0.696
835	-0.697
835	-0.693
836	-0.69
836	-0.685
837	-0.675
837	-0.666
838	-0.655
838	-0.638
839	-0.632
839	-0.622
839	-0.612
840	-0.611
840	-0.599
841	-0.588
841	-0.581
842	-0.574
842	-0.563
842	-0.559
843	-0.554
843	-0.55
844	-0.545
844	-0.533
845	-0.518
845	-0.51
845	-0.498
846	-0.488
846	-0.477
847	-0.467
847	-0.455
848	-0.44
848	-0.423
848	-0.409
849	-0.398
849	-0.385
850	-0.376
850	-0.367
851	-0.354
851	-0.339
851	-0.329
852	-0.315
852	-0.303
853	-0.295
853	-0.285
854	-0.274
854	-0.265
854	-0.253
855	-0.241
855	-0.234
856	-0.226
856	-0.218
857	-0.212
857	-0.204
857	-0.192
858	-0.181
858	-0.173
859	-0.162
859	-0.151
860	-0.141
860	-0.127
860	-0.118
861	-0.108
861	-0.098
862	-0.09
862	-0.083
863	-0.075
863	-0.067
863	-0.061
864	-0.056
864	-0.049
865	-0.043
865	-0.038
866	-0.032
866	-0.027
866	-0.022
867	-0.017
867	-0.012
868	-0.008
868	-0.003
869	0.002
869	0.005
869	0.007
870	0.009
870	0.011
871	0.013
871	0.015
872	0.016
872	0.017
872	0.018
873	0.019
873	0.018
874	0.018
874	0.018
875	0.018
875	0.017
875	0.017
876	0.017
876	0.017
877	0.016
877	0.015
878	0.015
878	0.014
878	0.014
879	0.014
879	0.013
880	0.013
880	0.012
881	0.011
881	0.01
881	0.009
882	0.008
882	0.006
883	0.005
883	0.004
884	0.003
884	0.003
884	0.002
885	0.002
885	0.002
886	0.002
886	0.002
887	0.002
887	0.002
887	0.002
888	0.001
888	0.001
889	0
889	-0.001
890	-0.001
890	-0.002
890	-0.002
891	-0.002
891	-0.003
892	-0.002
892	-0.002
893	-0.002
893	-0.002
893	-0.002
894	-0.002
894	-0.002
895	-0.002
895	-0.003
895	-0.003
896	-0.003
896	-0.003
897	-0.003
897	-0.004
898	-0.004
898	-0.004
898	-0.004
899	-0.004
899	-0.003
900	-0.003
900	-0.004
901	-0.004
901	-0.004
901	-0.005
902	-0.005
902	-0.004
903	-0.004
903	-0.005
904	-0.005
904	-0.004
904	-0.004
905	-0.003
905	-0.003
906	-0.001
906	-0.001
907	0
907	0
907	0.001
908	0.001
908	0.002
909	0.002
909	0.002
910	0.002
910	0.003
910	0.002
911	0.003
911	0.004
912	0.004
912	0.005
913	0.006
913	0.006
913	0.007
914	0.007
914	0.007
915	0.008
915	0.008
916	0.008
916	0.008
916	0.007
917	0.007
917	0.007
918	0.007
918	0.007
918	0.007
919	0.007
919	0.007
920	0.008
920	0.009
921	0.01
921	0.01
921	0.011
922	0.012
922	0.012
923	0.012
923	0.013
924	0.013
924	0.012
924	0.012
925	0.011
925	0.01
926	0.009
926	0.008
927	0.007
927	0.006
927	0.006
928	0.005
928	0.005
929	0.006
929	0.006
930	0.007
930	0.007
930	0.008
931	0.009
931	0.01
932	0.011
932	0.011
933	0.012
933	0.013
933	0.012
934	0.012
934	0.011
935	0.011
935	0.01
935	0.009
936	0.008
936	0.006
937	0.005
937	0.004
938	0.003
938	0.002
938	0.002
939	0.001
939	0
940	-0
940	-0.001
941	-0.002
941	-0.002
941	-0.002
942	-0.003
942	-0.003
943	-0.003
943	-0.004
944	-0.004
944	-0.005
944	-0.006
945	-0.006
945	-0.006
946	-0.007
946	-0.007
946	-0.007
947	-0.007
947	-0.008
948	-0.007
948	-0.006
949	-0.005
949	-0.004
949	-0.002
950	-0.001
950	0
951	0.002
951	0.002
952	0.003
952	0.005
952	0.005
953	0.006
953	0.007
954	0.007
954	0.007
955	0.007
955	0.007
955	0.006
956	0.006
956	0.006
957	0.005
957	0.005
957	0.004
958	0.004
958	0.003
959	0.003
959	0.002
960	0.002
960	0.002
960	0.002
961	0.002
961	0.002
962	0.002
962	0.003
963	0.003
963	0.003
963	0.004
964	0.004
964	0.004
965	0.005
965	0.005
966	0.005
966	0.005
966	0.005
967	0.005
967	0.005
968	0.004
968	0.004
968	0.004
969	0.004
969	0.004
970	0.003
970	0.003
971	0.003
971	0.003
971	0.003
972	0.004
972	0.004
973	0.004
973	0.004
974	0.004
974	0.005
974	0.005
975	0.005
975	0.005
976	0.005
976	0.005
976	0.005
977	0.005
977	0.004
978	0.003
978	0.003
979	0.002
979	0.002
979	0.002
980	0.002
980	0.002
981	0.002
981	0.002
982	0.002
982	0.002
982	0.002
983	0.002
983	0.002
984	0.002
984	0.002
984	0.001
985	0.001
985	0
986	-0.001
986	-0.001
987	-0.002
987	-0.003
987	-0.003
988	-0.004
988	-0.005
989	-0.005
989	-0.006
990	-0.007
990	-0.008
990	-0.008
991	-0.009
991	-0.01
992	-0.01
992	-0.011
992	-0.011
993	-0.012
993	-0.013
994	-0.014
994	-0.015
995	-0.016
995	-0.017
995	-0.018
996	-0.02
996	-0.021
997	-0.022
997	-0.023
997	-0.023
998	-0.024
998	-0.024
999	-0.024
999	-0.024
1000	-0.023
1000	-0.023
1000	-0.023
1001	-0.022
1001	-0.021
1002	-0.021
1002	-0.021
1003	-0.02
1003	-0.021
1003	-0.021
1004	-0.021
1004	-0.021
1005	-0.022
1005	-0.022
1005	-0.023
1006	-0.024
1006	-0.025
1007	-0.026
1007	-0.027
1008	-0.028
1008	-0.028
1008	-0.029
1009	-0.029
1009	-0.028
1010	-0.028
1010	-0.027
1010	-0.027
1011	-0.026
1011	-0.025
1012	-0.024
1012	-0.022
1013	-0.021
1013	-0.02
1013	-0.019
1014	-0.018
1014	-0.017
1015	-0.017
1015	-0.016
1016	-0.016
1016	-0.016
1016	-0.016
1017	-0.016
1017	-0.016
1018	-0.016
1018	-0.017
1018	-0.017
1019	-0.017
1019	-0.017
1020	-0.018
1020	-0.018
1021	-0.019
1021	-0.019
1021	-0.02
1022	-0.02
1022	-0.02
1023	-0.02
1023	-0.02
1023	-0.019
1024	-0.019
1024	-0.019
1025	-0.019
1025	-0.018
1026	-0.018
1026	-0.017
1026	-0.017
1027	-0.016
1027	-0.016
1028	-0.015
1028	-0.015
1028	-0.014
1029	-0.014
1029	-0.014
1030	-0.014
1030	-0.014
1031	-0.014
1031	-0.013
1031	-0.013
1032	-0.013
1032	-0.013
1033	-0.013
1033	-0.013
1033	-0.013
1034	-0.014
1034	-0.014
1035	-0.014
1035	-0.015
1036	-0.016
1036	-0.016
1036	-0.016
1037	-0.016
1037	-0.016
1038	-0.016
1038	-0.015
1039	-0.015
1039	-0.014
1039	-0.014
1040	-0.013
1040	-0.013
1041	-0.013
1041	-0.013
1041	-0.014
1042	-0.015
1042	-0.015
1043	-0.016
1043	-0.017
1044	-0.018
1044	-0.02
1044	-0.021
1045	-0.022
1045	-0.022
1046	-0.023
1046	-0.024
1046	-0.024
1047	-0.024
1047	-0.024
1048	-0.023
1048	-0.023
1049	-0.023
1049	-0.023
1049	-0.023
1050	-0.023
1050	-0.024
1051	-0.025
1051	-0.025
1051	-0.025
1052	-0.026
1052	-0.027
1053	-0.028
1053	-0.028
1053	-0.028
1054	-0.029
1054	-0.029
1055	-0.029
1055	-0.029
1056	-0.029
1056	-0.03
1056	-0.03
1057	-0.03
1057	-0.03
1058	-0.03
1058	-0.031
1058	-0.031
1059	-0.031
1059	-0.032
1060	-0.033
1060	-0.033
1061	-0.033
1061	-0.034
1061	-0.034
1062	-0.034
1062	-0.034
1063	-0.033
1063	-0.033
1063	-0.033
1064	-0.033
1064	-0.032
1065	-0.032
1065	-0.032
1066	-0.032
1066	-0.032
1066	-0.032
1067	-0.033
1067	-0.034
1068	-0.034
1068	-0.034
1068	-0.035
1069	-0.036
1069	-0.037
1070	-0.037
1070	-0.038
1071	-0.038
1071	-0.039
1071	-0.039
1072	-0.039
1072	-0.039
1073	-0.04
1073	-0.04
1073	-0.04
1074	-0.04
1074	-0.041
1075	-0.042
1075	-0.042
1076	-0.043
1076	-0.044
1076	-0.045
1077	-0.046
1077	-0.047
1078	-0.047
1078	-0.048
1078	-0.048
1079	-0.049
1079	-0.049
1080	-0.05
1080	-0.051
1080	-0.053
1081	-0.054
1081	-0.054
1082	-0.054
1082	-0.056
1083	-0.057
1083	-0.058
1083	-0.06
1084	-0.061
1084	-0.062
1085	-0.063
1085	-0.063
1085	-0.064
1086	-0.065
1086	-0.067
1087	-0.067
1087	-0.067
1088	-0.069
1088	-0.069
1088	-0.069
1089	-0.071
1089	-0.072
1090	-0.072
1090	-0.073
1090	-0.075
1091	-0.076
1091	-0.075
1092	-0.076
1092	-0.076
1092	-0.077
1093	-0.078
1093	-0.078
1094	-0.078
1094	-0.079
1095	-0.081
1095	-0.081
1095	-0.081
1096	-0.082
1096	-0.084
1097	-0.085
1097	-0.088
1097	-0.089
1098	-0.092
1098	-0.094
1099	-0.096
1099	-0.097
1100	-0.099
1100	-0.101
1100	-0.105
1101	-0.108
1101	-0.11
1102	-0.111
1102	-0.114
1102	-0.115
1103	-0.117
1103	-0.119
1104	-0.123
1104	-0.126
1104	-0.128
1105	-0.13
1105	-0.132
1106	-0.138
1106	-0.14
1107	-0.145
1107	-0.15
1107	-0.155
1108	-0.157
1108	-0.159
1109	-0.162
1109	-0.166
1109	-0.171
1110	-0.173
1110	-0.175
1111	-0.184
1111	-0.181
