Data from 3.4A_17C_Absorbance__121__02033.txt Node

Date: Tue Jun 20 16:28:42 CEST 2023
User: Marek
Spectrometer: MAYP115816
Trigger mode: 0
Integration Time (sec): 2.200000E-1
Scans to average: 10
Electric dark correction enabled: true
Nonlinearity correction enabled: true
Boxcar width: 5
XAxis mode: Wavelengths
Number of Pixels in Spectrum: 2068
>>>>>Begin Spectral Data<<<<<
199	-0.81
199	-0.789
200	-0.75
200	-0.694
201	-0.665
201	-0.657
202	-0.637
202	-0.633
203	-0.632
203	-0.625
204	-0.604
204	-0.586
205	-0.561
205	-0.552
205	-0.56
206	-0.562
206	-0.559
207	-0.553
207	-0.556
208	-0.557
208	-0.563
209	-0.564
209	-0.572
210	-0.585
210	-0.593
211	-0.587
211	-0.59
212	-0.599
212	-0.606
213	-0.603
213	-0.599
213	-0.595
214	-0.602
214	-0.604
215	-0.6
215	-0.604
216	-0.615
216	-0.619
217	-0.616
217	-0.618
218	-0.626
218	-0.628
219	-0.634
219	-0.636
220	-0.64
220	-0.647
221	-0.648
221	-0.646
221	-0.638
222	-0.638
222	-0.635
223	-0.631
223	-0.632
224	-0.633
224	-0.631
225	-0.628
225	-0.629
226	-0.63
226	-0.631
227	-0.639
227	-0.648
228	-0.651
228	-0.66
229	-0.665
229	-0.663
229	-0.665
230	-0.659
230	-0.658
231	-0.654
231	-0.647
232	-0.65
232	-0.645
233	-0.646
233	-0.633
234	-0.632
234	-0.627
235	-0.63
235	-0.643
236	-0.65
236	-0.652
236	-0.653
237	-0.652
237	-0.653
238	-0.655
238	-0.658
239	-0.661
239	-0.669
240	-0.663
240	-0.659
241	-0.654
241	-0.656
242	-0.66
242	-0.668
243	-0.67
243	-0.67
243	-0.674
244	-0.67
244	-0.671
245	-0.673
245	-0.676
246	-0.685
246	-0.689
247	-0.694
247	-0.679
248	-0.676
248	-0.679
249	-0.686
249	-0.687
250	-0.687
250	-0.695
250	-0.694
251	-0.695
251	-0.692
252	-0.695
252	-0.708
253	-0.705
253	-0.717
254	-0.721
254	-0.723
255	-0.732
255	-0.731
256	-0.732
256	-0.743
257	-0.752
257	-0.748
258	-0.748
258	-0.756
258	-0.754
259	-0.747
259	-0.766
260	-0.765
260	-0.754
261	-0.765
261	-0.752
262	-0.758
262	-0.756
263	-0.748
263	-0.751
264	-0.761
264	-0.762
265	-0.753
265	-0.755
265	-0.765
266	-0.756
266	-0.757
267	-0.757
267	-0.774
268	-0.782
268	-0.777
269	-0.769
269	-0.783
270	-0.785
270	-0.785
271	-0.8
271	-0.809
272	-0.81
272	-0.812
272	-0.806
273	-0.816
273	-0.831
274	-0.822
274	-0.817
275	-0.816
275	-0.803
276	-0.805
276	-0.811
277	-0.813
277	-0.812
278	-0.815
278	-0.814
278	-0.802
279	-0.811
279	-0.823
280	-0.826
280	-0.837
281	-0.831
281	-0.824
282	-0.829
282	-0.823
283	-0.817
283	-0.832
284	-0.845
284	-0.856
285	-0.835
285	-0.841
285	-0.833
286	-0.838
286	-0.854
287	-0.85
287	-0.848
288	-0.845
288	-0.825
289	-0.824
289	-0.83
290	-0.841
290	-0.83
291	-0.833
291	-0.832
292	-0.813
292	-0.811
292	-0.815
293	-0.804
293	-0.8
294	-0.799
294	-0.786
295	-0.769
295	-0.78
296	-0.792
296	-0.785
297	-0.773
297	-0.777
298	-0.772
298	-0.79
298	-0.794
299	-0.777
299	-0.77
300	-0.766
300	-0.747
301	-0.728
301	-0.731
302	-0.742
302	-0.726
303	-0.719
303	-0.708
304	-0.692
304	-0.696
305	-0.689
305	-0.698
305	-0.714
306	-0.697
306	-0.696
307	-0.689
307	-0.702
308	-0.704
308	-0.699
309	-0.701
309	-0.696
310	-0.693
310	-0.687
311	-0.672
311	-0.691
311	-0.679
312	-0.677
312	-0.664
313	-0.654
313	-0.656
314	-0.661
314	-0.659
315	-0.653
315	-0.648
316	-0.641
316	-0.632
317	-0.624
317	-0.62
318	-0.612
318	-0.611
318	-0.6
319	-0.589
319	-0.58
320	-0.581
320	-0.58
321	-0.575
321	-0.574
322	-0.567
322	-0.559
323	-0.559
323	-0.549
324	-0.547
324	-0.535
324	-0.523
325	-0.506
325	-0.487
326	-0.478
326	-0.451
327	-0.436
327	-0.415
328	-0.383
328	-0.36
329	-0.329
329	-0.3
330	-0.272
330	-0.234
330	-0.199
331	-0.159
331	-0.125
332	-0.087
332	-0.052
333	-0.018
333	0.02
334	0.051
334	0.081
335	0.111
335	0.135
336	0.161
336	0.185
336	0.204
337	0.225
337	0.244
338	0.26
338	0.272
339	0.287
339	0.3
340	0.31
340	0.32
341	0.328
341	0.335
342	0.344
342	0.35
342	0.356
343	0.361
343	0.367
344	0.371
344	0.374
345	0.378
345	0.382
346	0.384
346	0.386
347	0.388
347	0.39
348	0.391
348	0.393
348	0.395
349	0.395
349	0.397
350	0.397
350	0.398
351	0.399
351	0.399
352	0.399
352	0.4
353	0.4
353	0.401
354	0.401
354	0.401
354	0.401
355	0.4
355	0.4
356	0.401
356	0.401
357	0.401
357	0.401
358	0.4
358	0.4
359	0.4
359	0.4
360	0.4
360	0.401
360	0.401
361	0.4
361	0.4
362	0.4
362	0.4
363	0.401
363	0.4
364	0.4
364	0.4
365	0.4
365	0.399
366	0.399
366	0.399
366	0.399
367	0.399
367	0.399
368	0.398
368	0.397
369	0.397
369	0.397
370	0.397
370	0.396
371	0.396
371	0.396
372	0.395
372	0.395
372	0.394
373	0.394
373	0.394
374	0.394
374	0.393
375	0.393
375	0.392
376	0.392
376	0.391
377	0.391
377	0.39
378	0.39
378	0.389
378	0.389
379	0.388
379	0.388
380	0.388
380	0.387
381	0.387
381	0.386
382	0.386
382	0.385
383	0.385
383	0.385
383	0.384
384	0.384
384	0.383
385	0.383
385	0.382
386	0.382
386	0.382
387	0.381
387	0.381
388	0.381
388	0.38
389	0.38
389	0.379
389	0.379
390	0.379
390	0.379
391	0.378
391	0.378
392	0.377
392	0.377
393	0.377
393	0.376
394	0.376
394	0.376
394	0.375
395	0.375
395	0.374
396	0.373
396	0.373
397	0.373
397	0.372
398	0.371
398	0.371
399	0.371
399	0.37
400	0.37
400	0.369
400	0.369
401	0.369
401	0.368
402	0.368
402	0.367
403	0.367
403	0.367
404	0.366
404	0.366
405	0.365
405	0.365
405	0.365
406	0.364
406	0.364
407	0.364
407	0.363
408	0.363
408	0.362
409	0.362
409	0.362
410	0.362
410	0.362
411	0.361
411	0.361
411	0.361
412	0.36
412	0.36
413	0.36
413	0.359
414	0.359
414	0.358
415	0.358
415	0.357
416	0.357
416	0.357
416	0.357
417	0.356
417	0.356
418	0.356
418	0.356
419	0.356
419	0.356
420	0.356
420	0.356
421	0.356
421	0.356
421	0.356
422	0.356
422	0.355
423	0.355
423	0.355
424	0.354
424	0.354
425	0.354
425	0.354
426	0.354
426	0.354
427	0.353
427	0.353
427	0.353
428	0.353
428	0.353
429	0.353
429	0.352
430	0.352
430	0.352
431	0.351
431	0.351
432	0.351
432	0.35
432	0.35
433	0.35
433	0.35
434	0.35
434	0.35
435	0.35
435	0.35
436	0.35
436	0.35
437	0.35
437	0.35
437	0.35
438	0.35
438	0.35
439	0.35
439	0.349
440	0.349
440	0.349
441	0.349
441	0.349
442	0.349
442	0.349
442	0.349
443	0.349
443	0.349
444	0.349
444	0.349
445	0.35
445	0.35
446	0.35
446	0.35
447	0.35
447	0.35
447	0.35
448	0.351
448	0.351
449	0.351
449	0.351
450	0.351
450	0.351
451	0.351
451	0.351
452	0.351
452	0.351
452	0.351
453	0.351
453	0.351
454	0.352
454	0.352
455	0.353
455	0.353
456	0.353
456	0.354
457	0.354
457	0.354
458	0.354
458	0.354
458	0.355
459	0.355
459	0.355
460	0.354
460	0.354
461	0.355
461	0.355
462	0.356
462	0.357
463	0.358
463	0.359
463	0.359
464	0.36
464	0.361
465	0.361
465	0.362
466	0.363
466	0.363
467	0.364
467	0.364
467	0.364
468	0.364
468	0.365
469	0.365
469	0.366
470	0.367
470	0.368
471	0.368
471	0.368
472	0.369
472	0.37
472	0.371
473	0.372
473	0.373
474	0.374
474	0.375
475	0.376
475	0.378
476	0.379
476	0.38
477	0.382
477	0.383
477	0.384
478	0.385
478	0.386
479	0.388
479	0.389
480	0.39
480	0.391
481	0.393
481	0.394
482	0.395
482	0.397
482	0.399
483	0.401
483	0.404
484	0.406
484	0.407
485	0.41
485	0.412
486	0.414
486	0.416
487	0.417
487	0.419
487	0.421
488	0.423
488	0.424
489	0.427
489	0.429
490	0.432
490	0.434
491	0.436
491	0.439
492	0.441
492	0.443
492	0.445
493	0.448
493	0.45
494	0.454
494	0.457
495	0.459
495	0.462
496	0.465
496	0.468
496	0.471
497	0.475
497	0.478
498	0.481
498	0.484
499	0.487
499	0.491
500	0.494
500	0.498
501	0.502
501	0.505
501	0.508
502	0.511
502	0.515
503	0.518
503	0.522
504	0.525
504	0.529
505	0.533
505	0.536
506	0.541
506	0.545
506	0.549
507	0.552
507	0.557
508	0.561
508	0.565
509	0.569
509	0.573
510	0.577
510	0.581
511	0.584
511	0.588
511	0.592
512	0.595
512	0.598
513	0.601
513	0.604
514	0.607
514	0.611
515	0.613
515	0.616
515	0.618
516	0.621
516	0.624
517	0.627
517	0.63
518	0.632
518	0.634
519	0.636
519	0.638
520	0.64
520	0.643
520	0.645
521	0.646
521	0.647
522	0.649
522	0.65
523	0.652
523	0.654
524	0.655
524	0.656
524	0.657
525	0.658
525	0.658
526	0.659
526	0.66
527	0.66
527	0.66
528	0.66
528	0.659
529	0.659
529	0.658
529	0.658
530	0.657
530	0.656
531	0.655
531	0.654
532	0.652
532	0.651
533	0.649
533	0.647
533	0.646
534	0.644
534	0.641
535	0.639
535	0.637
536	0.635
536	0.633
537	0.63
537	0.627
538	0.624
538	0.621
538	0.618
539	0.615
539	0.612
540	0.608
540	0.604
541	0.6
541	0.597
542	0.593
542	0.588
542	0.584
543	0.579
543	0.575
544	0.57
544	0.566
545	0.562
545	0.557
546	0.553
546	0.548
547	0.543
547	0.538
547	0.533
548	0.529
548	0.524
549	0.52
549	0.516
550	0.511
550	0.506
551	0.5
551	0.495
551	0.49
552	0.485
552	0.481
553	0.476
553	0.471
554	0.466
554	0.46
555	0.455
555	0.45
556	0.445
556	0.439
556	0.434
557	0.429
557	0.424
558	0.419
558	0.414
559	0.409
559	0.403
560	0.398
560	0.393
560	0.388
561	0.384
561	0.38
562	0.375
562	0.371
563	0.366
563	0.362
564	0.358
564	0.354
564	0.35
565	0.347
565	0.343
566	0.338
566	0.334
567	0.33
567	0.326
568	0.322
568	0.317
568	0.313
569	0.309
569	0.305
570	0.3
570	0.295
571	0.292
571	0.288
572	0.284
572	0.28
573	0.276
573	0.272
573	0.268
574	0.265
574	0.262
575	0.259
575	0.257
576	0.254
576	0.25
577	0.246
577	0.243
577	0.241
578	0.239
578	0.237
579	0.235
579	0.233
580	0.228
580	0.224
581	0.22
581	0.217
581	0.215
582	0.214
582	0.212
583	0.21
583	0.207
584	0.202
584	0.199
585	0.197
585	0.196
585	0.194
586	0.192
586	0.19
587	0.187
587	0.184
588	0.181
588	0.179
589	0.177
589	0.175
590	0.173
590	0.171
590	0.17
591	0.168
591	0.165
592	0.163
592	0.16
593	0.159
593	0.157
594	0.155
594	0.153
594	0.151
595	0.149
595	0.146
596	0.144
596	0.144
597	0.144
597	0.142
598	0.14
598	0.139
598	0.138
599	0.137
599	0.136
600	0.135
600	0.134
601	0.133
601	0.133
602	0.131
602	0.13
602	0.128
603	0.128
603	0.128
604	0.127
604	0.126
605	0.125
605	0.125
606	0.123
606	0.121
606	0.12
607	0.118
607	0.118
608	0.116
608	0.114
609	0.113
609	0.112
610	0.111
610	0.109
610	0.109
611	0.108
611	0.108
612	0.107
612	0.107
613	0.106
613	0.105
614	0.103
614	0.101
614	0.1
615	0.098
615	0.097
616	0.096
616	0.094
617	0.094
617	0.093
618	0.092
618	0.091
618	0.09
619	0.09
619	0.09
620	0.091
620	0.09
621	0.088
621	0.088
622	0.086
622	0.085
622	0.083
623	0.082
623	0.082
624	0.081
624	0.08
625	0.079
625	0.079
626	0.078
626	0.077
626	0.077
627	0.077
627	0.077
628	0.077
628	0.077
629	0.076
629	0.075
630	0.074
630	0.073
630	0.073
631	0.073
631	0.072
632	0.071
632	0.07
633	0.069
633	0.069
634	0.068
634	0.068
634	0.068
635	0.067
635	0.066
636	0.065
636	0.065
637	0.064
637	0.063
638	0.062
638	0.061
638	0.06
639	0.059
639	0.057
640	0.056
640	0.055
641	0.053
641	0.051
642	0.05
642	0.048
642	0.047
643	0.045
643	0.042
644	0.041
644	0.038
645	0.037
645	0.035
646	0.033
646	0.03
646	0.027
647	0.023
647	0.02
648	0.016
648	0.012
649	0.008
649	0.005
650	0.001
650	-0.004
650	-0.008
651	-0.014
651	-0.021
652	-0.028
652	-0.035
653	-0.042
653	-0.048
653	-0.044
654	-0.036
654	-0.039
655	-0.045
655	-0.048
656	-0.053
656	-0.058
657	-0.062
657	-0.065
657	-0.071
658	-0.076
658	-0.1
659	-0.157
659	-0.209
660	-0.233
660	-0.253
661	-0.273
661	-0.295
661	-0.318
662	-0.336
662	-0.353
663	-0.372
663	-0.394
664	-0.411
664	-0.432
665	-0.455
665	-0.477
665	-0.494
666	-0.515
666	-0.539
667	-0.562
667	-0.591
668	-0.62
668	-0.66
669	-0.697
669	-0.737
669	-0.783
670	-0.833
670	-0.926
671	-1.114
671	-1.434
672	-1.852
672	-2.207
672	-2.406
673	-2.537
673	-2.577
674	-2.597
674	-2.606
675	-2.621
675	-2.627
676	-2.629
676	-2.613
676	-2.557
677	-2.41
677	-2.185
678	-1.699
678	-1.221
679	-1.033
679	-0.96
680	-0.916
680	-0.889
680	-0.867
681	-0.86
681	-0.84
682	-0.83
682	-0.812
683	-0.793
683	-0.795
684	-0.79
684	-0.791
684	-0.788
685	-0.784
685	-0.789
686	-0.778
686	-0.777
687	-0.778
687	-0.778
687	-0.788
688	-0.78
688	-0.779
689	-0.789
689	-0.79
690	-0.783
690	-0.778
691	-0.781
691	-0.787
691	-0.792
692	-0.795
692	-0.798
693	-0.809
693	-0.825
694	-0.808
694	-0.811
695	-0.816
695	-0.812
695	-0.823
696	-0.834
696	-0.828
697	-0.825
697	-0.823
698	-0.818
698	-0.812
698	-0.83
699	-0.83
699	-0.832
700	-0.853
700	-0.847
701	-0.833
701	-0.829
702	-0.831
702	-0.831
702	-0.834
703	-0.825
703	-0.811
704	-0.822
704	-0.827
705	-0.817
705	-0.819
705	-0.814
706	-0.808
706	-0.805
707	-0.818
707	-0.822
708	-0.82
708	-0.818
709	-0.818
709	-0.814
709	-0.811
710	-0.819
710	-0.822
711	-0.821
711	-0.819
712	-0.81
712	-0.807
713	-0.814
713	-0.815
713	-0.795
714	-0.799
714	-0.803
715	-0.794
715	-0.803
716	-0.82
716	-0.832
716	-0.833
717	-0.84
717	-0.83
718	-0.826
718	-0.826
719	-0.822
719	-0.815
720	-0.813
720	-0.808
720	-0.803
721	-0.792
721	-0.796
722	-0.794
722	-0.791
723	-0.809
723	-0.822
723	-0.831
724	-0.829
724	-0.833
725	-0.827
725	-0.833
726	-0.839
726	-0.829
727	-0.831
727	-0.839
727	-0.827
728	-0.815
728	-0.81
729	-0.813
729	-0.817
730	-0.823
730	-0.813
730	-0.818
731	-0.823
731	-0.823
732	-0.826
732	-0.822
733	-0.838
733	-0.846
734	-0.855
734	-0.845
734	-0.828
735	-0.819
735	-0.815
736	-0.813
736	-0.809
737	-0.809
737	-0.799
737	-0.789
738	-0.775
738	-0.762
739	-0.765
739	-0.765
740	-0.779
740	-0.778
741	-0.789
741	-0.799
741	-0.808
742	-0.815
742	-0.831
743	-0.838
743	-0.842
744	-0.846
744	-0.855
744	-0.85
745	-0.858
745	-0.846
746	-0.842
746	-0.833
747	-0.836
747	-0.827
748	-0.828
748	-0.832
748	-0.833
749	-0.825
749	-0.83
750	-0.823
750	-0.824
751	-0.823
751	-0.82
751	-0.833
752	-0.836
752	-0.839
753	-0.84
753	-0.833
754	-0.852
754	-0.852
754	-0.859
755	-0.86
755	-0.852
756	-0.855
756	-0.841
757	-0.833
757	-0.822
758	-0.822
758	-0.821
758	-0.817
759	-0.823
759	-0.823
760	-0.821
760	-0.824
761	-0.816
761	-0.819
761	-0.82
762	-0.825
762	-0.826
763	-0.826
763	-0.83
764	-0.829
764	-0.825
764	-0.83
765	-0.829
765	-0.839
766	-0.841
766	-0.842
767	-0.858
767	-0.854
768	-0.854
768	-0.844
768	-0.836
769	-0.84
769	-0.849
770	-0.859
770	-0.863
771	-0.86
771	-0.859
771	-0.866
772	-0.87
772	-0.891
773	-0.892
773	-0.895
774	-0.891
774	-0.872
775	-0.86
775	-0.86
775	-0.863
776	-0.873
776	-0.868
777	-0.867
777	-0.85
778	-0.86
778	-0.868
778	-0.869
779	-0.877
779	-0.89
780	-0.886
780	-0.894
781	-0.884
781	-0.874
781	-0.888
782	-0.909
782	-0.909
783	-0.907
783	-0.915
784	-0.918
784	-0.915
784	-0.934
785	-0.928
785	-0.941
786	-0.945
786	-0.939
787	-0.929
787	-0.938
788	-0.933
788	-0.927
788	-0.931
789	-0.93
789	-0.919
790	-0.919
790	-0.903
791	-0.91
791	-0.906
791	-0.9
792	-0.895
792	-0.9
793	-0.902
793	-0.888
794	-0.881
794	-0.875
794	-0.882
795	-0.902
795	-0.888
796	-0.894
796	-0.89
797	-0.882
797	-0.872
797	-0.867
798	-0.886
798	-0.891
799	-0.891
799	-0.875
800	-0.871
800	-0.879
801	-0.877
801	-0.88
801	-0.877
802	-0.877
802	-0.875
803	-0.872
803	-0.861
804	-0.867
804	-0.877
804	-0.861
805	-0.841
805	-0.833
806	-0.833
806	-0.83
807	-0.831
807	-0.831
807	-0.813
808	-0.812
808	-0.804
809	-0.799
809	-0.799
810	-0.804
810	-0.801
810	-0.798
811	-0.801
811	-0.791
812	-0.784
812	-0.787
813	-0.791
813	-0.793
813	-0.787
814	-0.787
814	-0.793
815	-0.782
815	-0.778
816	-0.774
816	-0.793
817	-0.807
817	-0.811
817	-0.819
818	-0.812
818	-0.811
819	-0.821
819	-0.818
820	-0.829
820	-0.829
820	-0.827
821	-0.821
821	-0.816
822	-0.815
822	-0.803
823	-0.816
823	-0.815
823	-0.81
824	-0.81
824	-0.82
825	-0.819
825	-0.816
826	-0.812
826	-0.806
826	-0.804
827	-0.805
827	-0.794
828	-0.794
828	-0.788
829	-0.781
829	-0.767
829	-0.764
830	-0.762
830	-0.749
831	-0.744
831	-0.734
832	-0.726
832	-0.722
832	-0.714
833	-0.712
833	-0.717
834	-0.712
834	-0.706
835	-0.699
835	-0.698
835	-0.693
836	-0.691
836	-0.686
837	-0.677
837	-0.669
838	-0.657
838	-0.641
839	-0.636
839	-0.624
839	-0.614
840	-0.612
840	-0.601
841	-0.59
841	-0.585
842	-0.576
842	-0.563
842	-0.56
843	-0.556
843	-0.551
844	-0.548
844	-0.539
845	-0.525
845	-0.517
845	-0.507
846	-0.492
846	-0.482
847	-0.472
847	-0.458
848	-0.443
848	-0.427
848	-0.413
849	-0.4
849	-0.388
850	-0.377
850	-0.368
851	-0.356
851	-0.341
851	-0.331
852	-0.317
852	-0.304
853	-0.296
853	-0.286
854	-0.276
854	-0.266
854	-0.254
855	-0.243
855	-0.235
856	-0.227
856	-0.219
857	-0.212
857	-0.205
857	-0.191
858	-0.181
858	-0.173
859	-0.162
859	-0.152
860	-0.142
860	-0.128
860	-0.119
861	-0.109
861	-0.1
862	-0.093
862	-0.086
863	-0.079
863	-0.07
863	-0.065
864	-0.059
864	-0.053
865	-0.047
865	-0.041
866	-0.036
866	-0.03
866	-0.025
867	-0.02
867	-0.014
868	-0.01
868	-0.005
869	-0.001
869	0.003
869	0.005
870	0.007
870	0.008
871	0.01
871	0.012
872	0.013
872	0.014
872	0.015
873	0.015
873	0.015
874	0.015
874	0.015
875	0.015
875	0.015
875	0.015
876	0.015
876	0.015
877	0.014
877	0.014
878	0.013
878	0.013
878	0.013
879	0.012
879	0.012
880	0.011
880	0.01
881	0.009
881	0.008
881	0.007
882	0.006
882	0.004
883	0.003
883	0.001
884	0.001
884	0
884	-0
885	-0
885	-0
886	-0.001
886	-0.001
887	-0.001
887	-0.002
887	-0.002
888	-0.002
888	-0.003
889	-0.004
889	-0.004
890	-0.005
890	-0.006
890	-0.006
891	-0.006
891	-0.006
892	-0.006
892	-0.006
893	-0.005
893	-0.005
893	-0.005
894	-0.005
894	-0.005
895	-0.005
895	-0.006
895	-0.006
896	-0.005
896	-0.005
897	-0.005
897	-0.005
898	-0.005
898	-0.005
898	-0.005
899	-0.004
899	-0.004
900	-0.004
900	-0.004
901	-0.005
901	-0.005
901	-0.005
902	-0.006
902	-0.006
903	-0.007
903	-0.007
904	-0.007
904	-0.008
904	-0.007
905	-0.006
905	-0.005
906	-0.004
906	-0.003
907	-0.002
907	-0.002
907	-0.001
908	-0.001
908	-0
909	0
909	0.001
910	0.001
910	0.002
910	0.002
911	0.002
911	0.003
912	0.004
912	0.005
913	0.005
913	0.006
913	0.006
914	0.007
914	0.007
915	0.008
915	0.008
916	0.008
916	0.007
916	0.007
917	0.007
917	0.007
918	0.007
918	0.007
918	0.007
919	0.006
919	0.007
920	0.007
920	0.008
921	0.009
921	0.01
921	0.01
922	0.011
922	0.011
923	0.012
923	0.012
924	0.012
924	0.011
924	0.01
925	0.009
925	0.008
926	0.007
926	0.005
927	0.004
927	0.003
927	0.002
928	0.002
928	0.002
929	0.002
929	0.002
930	0.003
930	0.003
930	0.004
931	0.005
931	0.006
932	0.007
932	0.009
933	0.01
933	0.01
933	0.01
934	0.01
934	0.009
935	0.009
935	0.008
935	0.007
936	0.006
936	0.005
937	0.003
937	0.002
938	0.001
938	0
938	-0
939	-0.001
939	-0.001
940	-0.002
940	-0.003
941	-0.004
941	-0.004
941	-0.005
942	-0.005
942	-0.006
943	-0.006
943	-0.006
944	-0.007
944	-0.008
944	-0.008
945	-0.008
945	-0.008
946	-0.009
946	-0.009
946	-0.009
947	-0.009
947	-0.009
948	-0.009
948	-0.008
949	-0.007
949	-0.006
949	-0.004
950	-0.003
950	-0.001
951	0
951	0.002
952	0.002
952	0.003
952	0.004
953	0.005
953	0.005
954	0.005
954	0.005
955	0.005
955	0.005
955	0.005
956	0.004
956	0.004
957	0.003
957	0.002
957	0.001
958	0.001
958	0.001
959	0
959	-0
960	-0.001
960	-0.001
960	-0.001
961	-0.001
961	-0.001
962	-0
962	0
963	0
963	0
963	0.001
964	0.001
964	0.001
965	0.002
965	0.002
966	0.002
966	0.002
966	0.003
967	0.003
967	0.003
968	0.003
968	0.003
968	0.003
969	0.003
969	0.003
970	0.002
970	0.002
971	0.002
971	0.002
971	0.002
972	0.002
972	0.002
973	0.002
973	0.002
974	0.002
974	0.002
974	0.003
975	0.003
975	0.003
976	0.003
976	0.003
976	0.003
977	0.002
977	0.002
978	0.001
978	0.001
979	0.001
979	0
979	-0
980	-0
980	-0
981	-0
981	-0
982	-0
982	-0
982	-0
983	-0
983	-0
984	-0.001
984	-0.001
984	-0.001
985	-0.002
985	-0.002
986	-0.003
986	-0.004
987	-0.005
987	-0.005
987	-0.006
988	-0.007
988	-0.008
989	-0.008
989	-0.009
990	-0.01
990	-0.01
990	-0.011
991	-0.011
991	-0.012
992	-0.012
992	-0.013
992	-0.013
993	-0.014
993	-0.015
994	-0.016
994	-0.017
995	-0.018
995	-0.019
995	-0.02
996	-0.021
996	-0.022
997	-0.023
997	-0.024
997	-0.025
998	-0.025
998	-0.025
999	-0.025
999	-0.025
1000	-0.025
1000	-0.024
1000	-0.024
1001	-0.023
1001	-0.023
1002	-0.022
1002	-0.022
1003	-0.022
1003	-0.022
1003	-0.022
1004	-0.022
1004	-0.022
1005	-0.022
1005	-0.023
1005	-0.024
1006	-0.025
1006	-0.026
1007	-0.026
1007	-0.027
1008	-0.028
1008	-0.028
1008	-0.029
1009	-0.029
1009	-0.029
1010	-0.028
1010	-0.028
1010	-0.027
1011	-0.026
1011	-0.025
1012	-0.024
1012	-0.023
1013	-0.022
1013	-0.021
1013	-0.02
1014	-0.019
1014	-0.018
1015	-0.018
1015	-0.017
1016	-0.017
1016	-0.016
1016	-0.016
1017	-0.017
1017	-0.017
1018	-0.017
1018	-0.017
1018	-0.017
1019	-0.017
1019	-0.018
1020	-0.018
1020	-0.019
1021	-0.02
1021	-0.02
1021	-0.02
1022	-0.021
1022	-0.021
1023	-0.021
1023	-0.021
1023	-0.021
1024	-0.02
1024	-0.02
1025	-0.02
1025	-0.019
1026	-0.019
1026	-0.019
1026	-0.019
1027	-0.018
1027	-0.018
1028	-0.018
1028	-0.017
1028	-0.016
1029	-0.017
1029	-0.016
1030	-0.016
1030	-0.017
1031	-0.016
1031	-0.016
1031	-0.015
1032	-0.015
1032	-0.015
1033	-0.016
1033	-0.016
1033	-0.015
1034	-0.016
1034	-0.016
1035	-0.016
1035	-0.016
1036	-0.017
1036	-0.017
1036	-0.017
1037	-0.017
1037	-0.016
1038	-0.016
1038	-0.016
1039	-0.016
1039	-0.015
1039	-0.015
1040	-0.014
1040	-0.013
1041	-0.014
1041	-0.014
1041	-0.015
1042	-0.016
1042	-0.016
1043	-0.017
1043	-0.018
1044	-0.019
1044	-0.02
1044	-0.021
1045	-0.022
1045	-0.023
1046	-0.024
1046	-0.024
1046	-0.024
1047	-0.025
1047	-0.025
1048	-0.025
1048	-0.025
1049	-0.024
1049	-0.025
1049	-0.025
1050	-0.025
1050	-0.026
1051	-0.026
1051	-0.027
1051	-0.027
1052	-0.028
1052	-0.029
1053	-0.03
1053	-0.031
1053	-0.031
1054	-0.032
1054	-0.032
1055	-0.032
1055	-0.032
1056	-0.032
1056	-0.032
1056	-0.032
1057	-0.033
1057	-0.033
1058	-0.033
1058	-0.033
1058	-0.033
1059	-0.034
1059	-0.034
1060	-0.035
1060	-0.035
1061	-0.036
1061	-0.036
1061	-0.035
1062	-0.036
1062	-0.036
1063	-0.036
1063	-0.036
1063	-0.036
1064	-0.035
1064	-0.035
1065	-0.034
1065	-0.035
1066	-0.035
1066	-0.035
1066	-0.035
1067	-0.036
1067	-0.036
1068	-0.037
1068	-0.037
1068	-0.038
1069	-0.038
1069	-0.039
1070	-0.04
1070	-0.04
1071	-0.041
1071	-0.041
1071	-0.041
1072	-0.041
1072	-0.041
1073	-0.042
1073	-0.042
1073	-0.042
1074	-0.042
1074	-0.042
1075	-0.043
1075	-0.043
1076	-0.045
1076	-0.045
1076	-0.046
1077	-0.047
1077	-0.048
1078	-0.048
1078	-0.049
1078	-0.05
1079	-0.051
1079	-0.051
1080	-0.053
1080	-0.053
1080	-0.055
1081	-0.056
1081	-0.056
1082	-0.057
1082	-0.058
1083	-0.059
1083	-0.06
1083	-0.062
1084	-0.063
1084	-0.063
1085	-0.065
1085	-0.065
1085	-0.066
1086	-0.067
1086	-0.068
1087	-0.069
1087	-0.069
1088	-0.071
1088	-0.071
1088	-0.072
1089	-0.073
1089	-0.073
1090	-0.074
1090	-0.075
1090	-0.076
1091	-0.077
1091	-0.077
1092	-0.077
1092	-0.077
1092	-0.078
1093	-0.079
1093	-0.079
1094	-0.08
1094	-0.081
1095	-0.082
1095	-0.082
1095	-0.082
1096	-0.084
1096	-0.085
1097	-0.086
1097	-0.088
1097	-0.089
1098	-0.092
1098	-0.093
1099	-0.095
1099	-0.096
1100	-0.099
1100	-0.101
1100	-0.105
1101	-0.108
1101	-0.111
1102	-0.113
1102	-0.115
1102	-0.117
1103	-0.12
1103	-0.123
1104	-0.126
1104	-0.129
1104	-0.13
1105	-0.132
1105	-0.135
1106	-0.14
1106	-0.141
1107	-0.147
1107	-0.152
1107	-0.157
1108	-0.159
1108	-0.16
1109	-0.164
1109	-0.169
1109	-0.173
1110	-0.175
1110	-0.179
1111	-0.191
1111	-0.19
