Data from 3.4A_17C_Absorbance__942__02854.txt Node

Date: Tue Jun 20 16:58:48 CEST 2023
User: Marek
Spectrometer: MAYP115816
Trigger mode: 0
Integration Time (sec): 2.200000E-1
Scans to average: 10
Electric dark correction enabled: true
Nonlinearity correction enabled: true
Boxcar width: 5
XAxis mode: Wavelengths
Number of Pixels in Spectrum: 2068
>>>>>Begin Spectral Data<<<<<
199	-0.809
199	-0.799
200	-0.765
200	-0.709
201	-0.679
201	-0.669
202	-0.653
202	-0.645
203	-0.643
203	-0.637
204	-0.617
204	-0.601
205	-0.576
205	-0.564
205	-0.574
206	-0.575
206	-0.571
207	-0.561
207	-0.568
208	-0.57
208	-0.573
209	-0.575
209	-0.581
210	-0.595
210	-0.604
211	-0.595
211	-0.599
212	-0.609
212	-0.619
213	-0.616
213	-0.612
213	-0.608
214	-0.615
214	-0.616
215	-0.613
215	-0.618
216	-0.629
216	-0.635
217	-0.631
217	-0.631
218	-0.638
218	-0.641
219	-0.649
219	-0.651
220	-0.655
220	-0.663
221	-0.663
221	-0.662
221	-0.653
222	-0.654
222	-0.651
223	-0.647
223	-0.649
224	-0.649
224	-0.648
225	-0.645
225	-0.645
226	-0.645
226	-0.644
227	-0.653
227	-0.661
228	-0.667
228	-0.675
229	-0.679
229	-0.678
229	-0.678
230	-0.673
230	-0.67
231	-0.667
231	-0.662
232	-0.666
232	-0.662
233	-0.661
233	-0.65
234	-0.65
234	-0.643
235	-0.649
235	-0.659
236	-0.669
236	-0.67
236	-0.67
237	-0.669
237	-0.668
238	-0.669
238	-0.67
239	-0.672
239	-0.682
240	-0.675
240	-0.671
241	-0.665
241	-0.668
242	-0.672
242	-0.68
243	-0.682
243	-0.684
243	-0.689
244	-0.685
244	-0.686
245	-0.689
245	-0.694
246	-0.704
246	-0.708
247	-0.715
247	-0.702
248	-0.702
248	-0.703
249	-0.707
249	-0.71
250	-0.709
250	-0.718
250	-0.716
251	-0.716
251	-0.713
252	-0.713
252	-0.723
253	-0.719
253	-0.732
254	-0.738
254	-0.738
255	-0.75
255	-0.747
256	-0.748
256	-0.761
257	-0.769
257	-0.767
258	-0.769
258	-0.776
258	-0.773
259	-0.766
259	-0.784
260	-0.782
260	-0.77
261	-0.782
261	-0.767
262	-0.772
262	-0.771
263	-0.762
263	-0.768
264	-0.778
264	-0.781
265	-0.771
265	-0.775
265	-0.786
266	-0.777
266	-0.776
267	-0.776
267	-0.791
268	-0.798
268	-0.793
269	-0.786
269	-0.798
270	-0.804
270	-0.804
271	-0.818
271	-0.829
272	-0.833
272	-0.837
272	-0.831
273	-0.842
273	-0.857
274	-0.849
274	-0.843
275	-0.839
275	-0.825
276	-0.828
276	-0.833
277	-0.834
277	-0.832
278	-0.837
278	-0.837
278	-0.824
279	-0.833
279	-0.847
280	-0.849
280	-0.86
281	-0.854
281	-0.846
282	-0.852
282	-0.846
283	-0.838
283	-0.852
284	-0.866
284	-0.875
285	-0.856
285	-0.862
285	-0.855
286	-0.859
286	-0.875
287	-0.871
287	-0.869
288	-0.87
288	-0.852
289	-0.85
289	-0.858
290	-0.866
290	-0.856
291	-0.86
291	-0.859
292	-0.841
292	-0.837
292	-0.841
293	-0.826
293	-0.822
294	-0.822
294	-0.808
295	-0.793
295	-0.805
296	-0.816
296	-0.81
297	-0.798
297	-0.803
298	-0.801
298	-0.819
298	-0.822
299	-0.803
299	-0.796
300	-0.791
300	-0.771
301	-0.753
301	-0.757
302	-0.767
302	-0.753
303	-0.744
303	-0.733
304	-0.719
304	-0.721
305	-0.714
305	-0.722
305	-0.737
306	-0.721
306	-0.72
307	-0.711
307	-0.722
308	-0.725
308	-0.722
309	-0.723
309	-0.721
310	-0.719
310	-0.712
311	-0.7
311	-0.718
311	-0.705
312	-0.704
312	-0.695
313	-0.687
313	-0.687
314	-0.691
314	-0.688
315	-0.687
315	-0.683
316	-0.675
316	-0.665
317	-0.658
317	-0.654
318	-0.644
318	-0.64
318	-0.63
319	-0.619
319	-0.611
320	-0.608
320	-0.605
321	-0.602
321	-0.6
322	-0.594
322	-0.588
323	-0.591
323	-0.583
324	-0.581
324	-0.569
324	-0.558
325	-0.543
325	-0.525
326	-0.517
326	-0.493
327	-0.478
327	-0.457
328	-0.426
328	-0.402
329	-0.375
329	-0.349
330	-0.322
330	-0.289
330	-0.255
331	-0.22
331	-0.19
332	-0.157
332	-0.126
333	-0.098
333	-0.068
334	-0.041
334	-0.018
335	0.006
335	0.026
336	0.047
336	0.065
336	0.081
337	0.097
337	0.112
338	0.125
338	0.134
339	0.146
339	0.156
340	0.163
340	0.17
341	0.176
341	0.181
342	0.187
342	0.191
342	0.196
343	0.199
343	0.204
344	0.206
344	0.209
345	0.212
345	0.214
346	0.216
346	0.218
347	0.22
347	0.221
348	0.222
348	0.224
348	0.224
349	0.225
349	0.226
350	0.227
350	0.227
351	0.228
351	0.228
352	0.228
352	0.228
353	0.228
353	0.229
354	0.229
354	0.229
354	0.229
355	0.229
355	0.229
356	0.229
356	0.229
357	0.229
357	0.229
358	0.229
358	0.229
359	0.229
359	0.229
360	0.229
360	0.229
360	0.229
361	0.229
361	0.229
362	0.229
362	0.229
363	0.229
363	0.229
364	0.229
364	0.229
365	0.229
365	0.229
366	0.229
366	0.229
366	0.23
367	0.23
367	0.23
368	0.23
368	0.23
369	0.229
369	0.229
370	0.229
370	0.229
371	0.229
371	0.229
372	0.228
372	0.228
372	0.228
373	0.228
373	0.228
374	0.229
374	0.229
375	0.229
375	0.229
376	0.229
376	0.229
377	0.229
377	0.228
378	0.228
378	0.228
378	0.228
379	0.227
379	0.227
380	0.227
380	0.227
381	0.227
381	0.227
382	0.227
382	0.227
383	0.227
383	0.227
383	0.227
384	0.227
384	0.227
385	0.226
385	0.226
386	0.226
386	0.226
387	0.226
387	0.226
388	0.226
388	0.226
389	0.226
389	0.226
389	0.226
390	0.226
390	0.226
391	0.226
391	0.226
392	0.226
392	0.226
393	0.225
393	0.225
394	0.225
394	0.225
394	0.225
395	0.225
395	0.225
396	0.224
396	0.224
397	0.224
397	0.224
398	0.224
398	0.224
399	0.224
399	0.224
400	0.223
400	0.223
400	0.223
401	0.223
401	0.223
402	0.222
402	0.223
403	0.223
403	0.222
404	0.222
404	0.222
405	0.222
405	0.222
405	0.221
406	0.222
406	0.221
407	0.221
407	0.221
408	0.221
408	0.221
409	0.221
409	0.221
410	0.22
410	0.22
411	0.22
411	0.22
411	0.22
412	0.22
412	0.22
413	0.219
413	0.219
414	0.219
414	0.219
415	0.219
415	0.219
416	0.218
416	0.218
416	0.218
417	0.218
417	0.218
418	0.218
418	0.218
419	0.218
419	0.218
420	0.218
420	0.218
421	0.218
421	0.218
421	0.218
422	0.219
422	0.219
423	0.218
423	0.218
424	0.218
424	0.218
425	0.218
425	0.218
426	0.218
426	0.218
427	0.218
427	0.218
427	0.218
428	0.218
428	0.218
429	0.217
429	0.217
430	0.217
430	0.216
431	0.216
431	0.216
432	0.215
432	0.215
432	0.214
433	0.214
433	0.214
434	0.214
434	0.215
435	0.215
435	0.215
436	0.215
436	0.215
437	0.215
437	0.215
437	0.215
438	0.215
438	0.215
439	0.215
439	0.215
440	0.214
440	0.215
441	0.215
441	0.215
442	0.214
442	0.214
442	0.214
443	0.214
443	0.214
444	0.214
444	0.214
445	0.214
445	0.214
446	0.214
446	0.214
447	0.214
447	0.214
447	0.214
448	0.214
448	0.214
449	0.214
449	0.214
450	0.214
450	0.214
451	0.214
451	0.214
452	0.214
452	0.213
452	0.213
453	0.213
453	0.213
454	0.213
454	0.213
455	0.213
455	0.213
456	0.213
456	0.213
457	0.213
457	0.213
458	0.213
458	0.212
458	0.212
459	0.212
459	0.212
460	0.211
460	0.211
461	0.211
461	0.212
462	0.212
462	0.212
463	0.213
463	0.214
463	0.214
464	0.214
464	0.214
465	0.215
465	0.215
466	0.215
466	0.215
467	0.215
467	0.215
467	0.215
468	0.214
468	0.214
469	0.214
469	0.215
470	0.215
470	0.215
471	0.215
471	0.215
472	0.215
472	0.215
472	0.216
473	0.216
473	0.216
474	0.217
474	0.217
475	0.217
475	0.218
476	0.218
476	0.218
477	0.218
477	0.219
477	0.219
478	0.219
478	0.219
479	0.22
479	0.22
480	0.22
480	0.22
481	0.22
481	0.22
482	0.221
482	0.221
482	0.222
483	0.223
483	0.224
484	0.225
484	0.225
485	0.225
485	0.226
486	0.226
486	0.226
487	0.227
487	0.227
487	0.228
488	0.228
488	0.228
489	0.228
489	0.229
490	0.23
490	0.23
491	0.232
491	0.232
492	0.233
492	0.233
492	0.234
493	0.234
493	0.235
494	0.237
494	0.238
495	0.238
495	0.239
496	0.24
496	0.241
496	0.242
497	0.243
497	0.244
498	0.245
498	0.246
499	0.247
499	0.248
500	0.249
500	0.25
501	0.251
501	0.252
501	0.253
502	0.254
502	0.255
503	0.256
503	0.257
504	0.258
504	0.26
505	0.261
505	0.262
506	0.264
506	0.266
506	0.268
507	0.269
507	0.271
508	0.272
508	0.274
509	0.275
509	0.277
510	0.278
510	0.279
511	0.28
511	0.282
511	0.282
512	0.284
512	0.284
513	0.285
513	0.286
514	0.287
514	0.289
515	0.29
515	0.29
515	0.291
516	0.292
516	0.293
517	0.294
517	0.295
518	0.296
518	0.297
519	0.297
519	0.298
520	0.3
520	0.301
520	0.302
521	0.303
521	0.304
522	0.305
522	0.306
523	0.307
523	0.308
524	0.308
524	0.309
524	0.31
525	0.31
525	0.311
526	0.312
526	0.312
527	0.313
527	0.313
528	0.313
528	0.313
529	0.314
529	0.314
529	0.314
530	0.314
530	0.315
531	0.315
531	0.315
532	0.315
532	0.315
533	0.316
533	0.316
533	0.316
534	0.316
534	0.316
535	0.317
535	0.317
536	0.317
536	0.317
537	0.317
537	0.317
538	0.317
538	0.316
538	0.316
539	0.316
539	0.315
540	0.315
540	0.314
541	0.313
541	0.313
542	0.312
542	0.312
542	0.311
543	0.311
543	0.311
544	0.31
544	0.31
545	0.31
545	0.31
546	0.309
546	0.308
547	0.307
547	0.306
547	0.305
548	0.305
548	0.304
549	0.303
549	0.303
550	0.302
550	0.301
551	0.3
551	0.299
551	0.298
552	0.297
552	0.297
553	0.296
553	0.295
554	0.294
554	0.293
555	0.291
555	0.29
556	0.29
556	0.289
556	0.288
557	0.287
557	0.287
558	0.286
558	0.285
559	0.284
559	0.284
560	0.283
560	0.282
560	0.281
561	0.282
561	0.281
562	0.28
562	0.28
563	0.279
563	0.279
564	0.279
564	0.278
564	0.279
565	0.279
565	0.278
566	0.278
566	0.278
567	0.277
567	0.277
568	0.277
568	0.275
568	0.275
569	0.274
569	0.273
570	0.272
570	0.27
571	0.27
571	0.269
572	0.267
572	0.266
573	0.265
573	0.264
573	0.262
574	0.262
574	0.262
575	0.262
575	0.263
576	0.263
576	0.262
577	0.261
577	0.261
577	0.261
578	0.261
578	0.262
579	0.263
579	0.263
580	0.261
580	0.258
581	0.256
581	0.256
581	0.256
582	0.256
582	0.256
583	0.257
583	0.256
584	0.254
584	0.252
585	0.253
585	0.254
585	0.255
586	0.255
586	0.254
587	0.253
587	0.251
588	0.25
588	0.25
589	0.25
589	0.25
590	0.25
590	0.249
590	0.25
591	0.25
591	0.25
592	0.249
592	0.248
593	0.248
593	0.248
594	0.248
594	0.247
594	0.247
595	0.247
595	0.246
596	0.245
596	0.246
597	0.248
597	0.248
598	0.248
598	0.248
598	0.249
599	0.249
599	0.248
600	0.248
600	0.248
601	0.249
601	0.249
602	0.248
602	0.248
602	0.247
603	0.248
603	0.248
604	0.249
604	0.249
605	0.249
605	0.25
606	0.249
606	0.248
606	0.247
607	0.247
607	0.247
608	0.246
608	0.245
609	0.244
609	0.244
610	0.244
610	0.243
610	0.243
611	0.243
611	0.243
612	0.244
612	0.244
613	0.244
613	0.244
614	0.243
614	0.242
614	0.242
615	0.241
615	0.24
616	0.24
616	0.239
617	0.239
617	0.239
618	0.238
618	0.238
618	0.238
619	0.238
619	0.238
620	0.239
620	0.238
621	0.237
621	0.236
622	0.234
622	0.233
622	0.231
623	0.23
623	0.231
624	0.231
624	0.23
625	0.229
625	0.229
626	0.228
626	0.227
626	0.227
627	0.227
627	0.227
628	0.227
628	0.226
629	0.225
629	0.224
630	0.222
630	0.22
630	0.22
631	0.219
631	0.217
632	0.215
632	0.214
633	0.212
633	0.21
634	0.208
634	0.207
634	0.205
635	0.203
635	0.201
636	0.199
636	0.197
637	0.194
637	0.191
638	0.189
638	0.186
638	0.183
639	0.179
639	0.176
640	0.172
640	0.168
641	0.164
641	0.16
642	0.157
642	0.153
642	0.149
643	0.144
643	0.139
644	0.134
644	0.129
645	0.124
645	0.118
646	0.112
646	0.106
646	0.099
647	0.092
647	0.085
648	0.077
648	0.069
649	0.061
649	0.054
650	0.047
650	0.039
650	0.03
651	0.02
651	0.007
652	-0.007
652	-0.023
653	-0.037
653	-0.049
653	-0.045
654	-0.025
654	-0.02
655	-0.026
655	-0.032
656	-0.039
656	-0.047
657	-0.054
657	-0.06
657	-0.067
658	-0.076
658	-0.11
659	-0.203
659	-0.299
660	-0.342
660	-0.371
661	-0.401
661	-0.433
661	-0.465
662	-0.495
662	-0.528
663	-0.564
663	-0.604
664	-0.643
664	-0.686
665	-0.734
665	-0.783
665	-0.83
666	-0.883
666	-0.94
667	-0.996
667	-1.06
668	-1.121
668	-1.19
669	-1.258
669	-1.331
669	-1.408
670	-1.488
670	-1.59
671	-1.725
671	-1.989
672	-2.267
672	-2.442
672	-2.57
673	-2.67
673	-2.753
674	-2.832
674	-2.857
675	-2.875
675	-2.88
676	-2.88
676	-2.85
676	-2.787
677	-2.712
677	-2.625
678	-2.5
678	-2.312
679	-1.96
679	-1.732
680	-1.611
680	-1.528
680	-1.453
681	-1.398
681	-1.34
682	-1.293
682	-1.247
683	-1.2
683	-1.173
684	-1.142
684	-1.119
684	-1.093
685	-1.071
685	-1.057
686	-1.032
686	-1.016
687	-1.004
687	-0.99
687	-0.988
688	-0.97
688	-0.961
689	-0.963
689	-0.96
690	-0.944
690	-0.932
691	-0.93
691	-0.934
691	-0.932
692	-0.931
692	-0.926
693	-0.932
693	-0.941
694	-0.92
694	-0.919
695	-0.921
695	-0.914
695	-0.921
696	-0.926
696	-0.919
697	-0.913
697	-0.91
698	-0.905
698	-0.898
698	-0.91
699	-0.908
699	-0.908
700	-0.927
700	-0.921
701	-0.907
701	-0.901
702	-0.902
702	-0.898
702	-0.899
703	-0.89
703	-0.879
704	-0.886
704	-0.89
705	-0.879
705	-0.878
705	-0.872
706	-0.865
706	-0.86
707	-0.873
707	-0.874
708	-0.869
708	-0.867
709	-0.869
709	-0.866
709	-0.861
710	-0.869
710	-0.872
711	-0.871
711	-0.873
712	-0.864
712	-0.863
713	-0.868
713	-0.867
713	-0.846
714	-0.848
714	-0.853
715	-0.844
715	-0.851
716	-0.867
716	-0.875
716	-0.875
717	-0.881
717	-0.874
718	-0.869
718	-0.869
719	-0.865
719	-0.856
720	-0.853
720	-0.849
720	-0.844
721	-0.836
721	-0.84
722	-0.837
722	-0.833
723	-0.85
723	-0.863
723	-0.872
724	-0.871
724	-0.873
725	-0.866
725	-0.869
726	-0.871
726	-0.861
727	-0.863
727	-0.87
727	-0.862
728	-0.849
728	-0.843
729	-0.846
729	-0.849
730	-0.853
730	-0.843
730	-0.85
731	-0.854
731	-0.854
732	-0.857
732	-0.851
733	-0.867
733	-0.874
734	-0.883
734	-0.876
734	-0.861
735	-0.852
735	-0.848
736	-0.845
736	-0.84
737	-0.839
737	-0.829
737	-0.82
738	-0.805
738	-0.792
739	-0.793
739	-0.794
740	-0.807
740	-0.806
741	-0.816
741	-0.824
741	-0.833
742	-0.839
742	-0.854
743	-0.862
743	-0.866
744	-0.869
744	-0.876
744	-0.87
745	-0.878
745	-0.866
746	-0.863
746	-0.854
747	-0.857
747	-0.849
748	-0.85
748	-0.853
748	-0.854
749	-0.847
749	-0.853
750	-0.845
750	-0.846
751	-0.845
751	-0.842
751	-0.853
752	-0.856
752	-0.858
753	-0.861
753	-0.854
754	-0.873
754	-0.872
754	-0.881
755	-0.882
755	-0.875
756	-0.878
756	-0.863
757	-0.857
757	-0.846
758	-0.848
758	-0.847
758	-0.841
759	-0.847
759	-0.846
760	-0.842
760	-0.844
761	-0.839
761	-0.846
761	-0.846
762	-0.852
762	-0.85
763	-0.85
763	-0.856
764	-0.855
764	-0.852
764	-0.858
765	-0.855
765	-0.861
766	-0.862
766	-0.865
767	-0.879
767	-0.876
768	-0.875
768	-0.866
768	-0.859
769	-0.862
769	-0.871
770	-0.882
770	-0.888
771	-0.882
771	-0.879
771	-0.886
772	-0.89
772	-0.91
773	-0.911
773	-0.909
774	-0.907
774	-0.889
775	-0.876
775	-0.876
775	-0.881
776	-0.893
776	-0.888
777	-0.887
777	-0.871
778	-0.88
778	-0.889
778	-0.89
779	-0.899
779	-0.915
780	-0.909
780	-0.918
781	-0.907
781	-0.896
781	-0.912
782	-0.933
782	-0.936
783	-0.936
783	-0.943
784	-0.945
784	-0.937
784	-0.957
785	-0.95
785	-0.963
786	-0.967
786	-0.959
787	-0.947
787	-0.955
788	-0.947
788	-0.942
788	-0.943
789	-0.942
789	-0.931
790	-0.93
790	-0.914
791	-0.921
791	-0.917
791	-0.911
792	-0.905
792	-0.911
793	-0.914
793	-0.902
794	-0.897
794	-0.891
794	-0.897
795	-0.917
795	-0.903
796	-0.909
796	-0.905
797	-0.898
797	-0.89
797	-0.882
798	-0.902
798	-0.906
799	-0.904
799	-0.892
800	-0.889
800	-0.897
801	-0.894
801	-0.898
801	-0.894
802	-0.893
802	-0.891
803	-0.885
803	-0.878
804	-0.884
804	-0.891
804	-0.874
805	-0.854
805	-0.845
806	-0.846
806	-0.841
807	-0.841
807	-0.844
807	-0.827
808	-0.822
808	-0.814
809	-0.81
809	-0.809
810	-0.814
810	-0.811
810	-0.806
811	-0.81
811	-0.802
812	-0.794
812	-0.798
813	-0.802
813	-0.803
813	-0.799
814	-0.799
814	-0.803
815	-0.793
815	-0.789
816	-0.787
816	-0.802
817	-0.813
817	-0.816
817	-0.827
818	-0.82
818	-0.816
819	-0.827
819	-0.825
820	-0.836
820	-0.836
820	-0.833
821	-0.829
821	-0.825
822	-0.823
822	-0.81
823	-0.821
823	-0.821
823	-0.814
824	-0.811
824	-0.822
825	-0.82
825	-0.817
826	-0.812
826	-0.809
826	-0.808
827	-0.808
827	-0.798
828	-0.798
828	-0.793
829	-0.789
829	-0.775
829	-0.772
830	-0.771
830	-0.758
831	-0.751
831	-0.74
832	-0.73
832	-0.726
832	-0.718
833	-0.717
833	-0.721
834	-0.714
834	-0.71
835	-0.703
835	-0.702
835	-0.697
836	-0.693
836	-0.689
837	-0.678
837	-0.669
838	-0.655
838	-0.636
839	-0.629
839	-0.616
839	-0.605
840	-0.602
840	-0.592
841	-0.581
841	-0.573
842	-0.564
842	-0.552
842	-0.55
843	-0.548
843	-0.543
844	-0.54
844	-0.527
845	-0.513
845	-0.502
845	-0.491
846	-0.479
846	-0.467
847	-0.454
847	-0.439
848	-0.423
848	-0.405
848	-0.39
849	-0.378
849	-0.364
850	-0.352
850	-0.341
851	-0.327
851	-0.309
851	-0.299
852	-0.283
852	-0.268
853	-0.26
853	-0.248
854	-0.236
854	-0.222
854	-0.209
855	-0.197
855	-0.187
856	-0.177
856	-0.167
857	-0.158
857	-0.149
857	-0.133
858	-0.12
858	-0.111
859	-0.1
859	-0.087
860	-0.073
860	-0.057
860	-0.046
861	-0.034
861	-0.022
862	-0.012
862	-0.002
863	0.007
863	0.018
863	0.026
864	0.033
864	0.042
865	0.049
865	0.057
866	0.064
866	0.071
866	0.078
867	0.084
867	0.091
868	0.097
868	0.103
869	0.109
869	0.114
869	0.117
870	0.12
870	0.123
871	0.125
871	0.127
872	0.128
872	0.129
872	0.129
873	0.129
873	0.128
874	0.127
874	0.126
875	0.125
875	0.124
875	0.124
876	0.123
876	0.122
877	0.121
877	0.12
878	0.119
878	0.118
878	0.118
879	0.118
879	0.117
880	0.117
880	0.117
881	0.116
881	0.116
881	0.116
882	0.115
882	0.113
883	0.112
883	0.111
884	0.11
884	0.109
884	0.108
885	0.108
885	0.107
886	0.107
886	0.106
887	0.106
887	0.105
887	0.104
888	0.104
888	0.103
889	0.102
889	0.101
890	0.099
890	0.099
890	0.099
891	0.099
891	0.098
892	0.099
892	0.099
893	0.099
893	0.099
893	0.099
894	0.1
894	0.1
895	0.099
895	0.099
895	0.099
896	0.098
896	0.098
897	0.098
897	0.098
898	0.098
898	0.098
898	0.098
899	0.098
899	0.098
900	0.098
900	0.098
901	0.098
901	0.098
901	0.097
902	0.097
902	0.098
903	0.098
903	0.097
904	0.097
904	0.097
904	0.097
905	0.097
905	0.097
906	0.098
906	0.098
907	0.098
907	0.098
907	0.098
908	0.098
908	0.099
909	0.099
909	0.099
910	0.1
910	0.101
910	0.101
911	0.102
911	0.103
912	0.104
912	0.104
913	0.105
913	0.105
913	0.106
914	0.106
914	0.106
915	0.106
915	0.106
916	0.106
916	0.105
916	0.105
917	0.105
917	0.105
918	0.105
918	0.104
918	0.104
919	0.104
919	0.104
920	0.104
920	0.105
921	0.106
921	0.106
921	0.107
922	0.107
922	0.107
923	0.108
923	0.108
924	0.108
924	0.107
924	0.106
925	0.105
925	0.104
926	0.103
926	0.102
927	0.101
927	0.1
927	0.1
928	0.1
928	0.1
929	0.101
929	0.102
930	0.103
930	0.104
930	0.105
931	0.106
931	0.107
932	0.108
932	0.109
933	0.109
933	0.109
933	0.109
934	0.108
934	0.107
935	0.107
935	0.105
935	0.104
936	0.102
936	0.101
937	0.099
937	0.098
938	0.098
938	0.096
938	0.096
939	0.095
939	0.094
940	0.094
940	0.093
941	0.092
941	0.091
941	0.091
942	0.091
942	0.09
943	0.089
943	0.088
944	0.088
944	0.086
944	0.086
945	0.085
945	0.084
946	0.083
946	0.081
946	0.08
947	0.08
947	0.079
948	0.079
948	0.079
949	0.08
949	0.081
949	0.082
950	0.083
950	0.085
951	0.086
951	0.087
952	0.088
952	0.09
952	0.09
953	0.091
953	0.092
954	0.092
954	0.092
955	0.092
955	0.092
955	0.091
956	0.09
956	0.09
957	0.088
957	0.088
957	0.086
958	0.086
958	0.085
959	0.084
959	0.084
960	0.083
960	0.083
960	0.083
961	0.083
961	0.083
962	0.083
962	0.083
963	0.083
963	0.084
963	0.084
964	0.084
964	0.084
965	0.085
965	0.085
966	0.085
966	0.085
966	0.086
967	0.086
967	0.086
968	0.086
968	0.086
968	0.086
969	0.086
969	0.086
970	0.086
970	0.085
971	0.085
971	0.085
971	0.084
972	0.084
972	0.084
973	0.084
973	0.084
974	0.083
974	0.083
974	0.083
975	0.083
975	0.084
976	0.083
976	0.084
976	0.084
977	0.084
977	0.083
978	0.083
978	0.082
979	0.082
979	0.082
979	0.081
980	0.081
980	0.081
981	0.081
981	0.081
982	0.08
982	0.081
982	0.081
983	0.081
983	0.081
984	0.081
984	0.08
984	0.08
985	0.079
985	0.079
986	0.078
986	0.077
987	0.076
987	0.075
987	0.074
988	0.074
988	0.073
989	0.072
989	0.071
990	0.071
990	0.069
990	0.069
991	0.068
991	0.067
992	0.067
992	0.066
992	0.066
993	0.065
993	0.064
994	0.063
994	0.062
995	0.061
995	0.06
995	0.059
996	0.058
996	0.056
997	0.055
997	0.054
997	0.053
998	0.053
998	0.053
999	0.053
999	0.053
1000	0.053
1000	0.053
1000	0.054
1001	0.055
1001	0.056
1002	0.056
1002	0.057
1003	0.057
1003	0.058
1003	0.058
1004	0.058
1004	0.059
1005	0.059
1005	0.058
1005	0.058
1006	0.058
1006	0.057
1007	0.057
1007	0.056
1008	0.055
1008	0.055
1008	0.054
1009	0.054
1009	0.054
1010	0.054
1010	0.055
1010	0.055
1011	0.055
1011	0.055
1012	0.056
1012	0.057
1013	0.058
1013	0.058
1013	0.058
1014	0.059
1014	0.059
1015	0.059
1015	0.059
1016	0.059
1016	0.058
1016	0.058
1017	0.057
1017	0.056
1018	0.056
1018	0.056
1018	0.055
1019	0.055
1019	0.055
1020	0.054
1020	0.054
1021	0.053
1021	0.053
1021	0.053
1022	0.053
1022	0.052
1023	0.053
1023	0.052
1023	0.053
1024	0.052
1024	0.052
1025	0.053
1025	0.053
1026	0.053
1026	0.053
1026	0.053
1027	0.053
1027	0.053
1028	0.054
1028	0.054
1028	0.054
1029	0.054
1029	0.055
1030	0.055
1030	0.054
1031	0.054
1031	0.055
1031	0.054
1032	0.054
1032	0.054
1033	0.054
1033	0.054
1033	0.053
1034	0.053
1034	0.052
1035	0.052
1035	0.052
1036	0.051
1036	0.05
1036	0.05
1037	0.05
1037	0.05
1038	0.049
1038	0.05
1039	0.05
1039	0.051
1039	0.051
1040	0.052
1040	0.052
1041	0.052
1041	0.052
1041	0.052
1042	0.051
1042	0.051
1043	0.05
1043	0.049
1044	0.049
1044	0.047
1044	0.047
1045	0.046
1045	0.045
1046	0.044
1046	0.044
1046	0.044
1047	0.043
1047	0.044
1048	0.044
1048	0.044
1049	0.044
1049	0.044
1049	0.044
1050	0.044
1050	0.044
1051	0.043
1051	0.042
1051	0.042
1052	0.041
1052	0.04
1053	0.04
1053	0.039
1053	0.039
1054	0.038
1054	0.038
1055	0.039
1055	0.039
1056	0.038
1056	0.038
1056	0.037
1057	0.037
1057	0.037
1058	0.036
1058	0.036
1058	0.036
1059	0.035
1059	0.034
1060	0.033
1060	0.033
1061	0.033
1061	0.033
1061	0.032
1062	0.032
1062	0.032
1063	0.032
1063	0.031
1063	0.031
1064	0.031
1064	0.032
1065	0.032
1065	0.032
1066	0.032
1066	0.031
1066	0.031
1067	0.03
1067	0.029
1068	0.028
1068	0.027
1068	0.026
1069	0.025
1069	0.024
1070	0.023
1070	0.022
1071	0.021
1071	0.021
1071	0.02
1072	0.02
1072	0.02
1073	0.02
1073	0.02
1073	0.019
1074	0.019
1074	0.019
1075	0.019
1075	0.018
1076	0.017
1076	0.017
1076	0.016
1077	0.015
1077	0.014
1078	0.013
1078	0.012
1078	0.012
1079	0.011
1079	0.011
1080	0.01
1080	0.01
1080	0.008
1081	0.008
1081	0.007
1082	0.007
1082	0.006
1083	0.005
1083	0.004
1083	0.003
1084	0.002
1084	0.001
1085	-0
1085	-0.001
1085	-0.002
1086	-0.003
1086	-0.005
1087	-0.006
1087	-0.007
1088	-0.009
1088	-0.009
1088	-0.01
1089	-0.012
1089	-0.013
1090	-0.014
1090	-0.015
1090	-0.017
1091	-0.019
1091	-0.019
1092	-0.02
1092	-0.02
1092	-0.022
1093	-0.023
1093	-0.023
1094	-0.024
1094	-0.025
1095	-0.027
1095	-0.027
1095	-0.027
1096	-0.029
1096	-0.031
1097	-0.032
1097	-0.034
1097	-0.036
1098	-0.038
1098	-0.042
1099	-0.043
1099	-0.045
1100	-0.049
1100	-0.051
1100	-0.054
1101	-0.058
1101	-0.062
1102	-0.065
1102	-0.068
1102	-0.07
1103	-0.073
1103	-0.076
1104	-0.08
1104	-0.083
1104	-0.085
1105	-0.087
1105	-0.09
1106	-0.096
1106	-0.098
1107	-0.104
1107	-0.109
1107	-0.114
1108	-0.117
1108	-0.118
1109	-0.122
1109	-0.128
1109	-0.132
1110	-0.135
1110	-0.137
1111	-0.147
1111	-0.139
