Data from 3.4A_17C_Absorbance__639__02551.txt Node

Date: Tue Jun 20 16:47:41 CEST 2023
User: Marek
Spectrometer: MAYP115816
Trigger mode: 0
Integration Time (sec): 2.200000E-1
Scans to average: 10
Electric dark correction enabled: true
Nonlinearity correction enabled: true
Boxcar width: 5
XAxis mode: Wavelengths
Number of Pixels in Spectrum: 2068
>>>>>Begin Spectral Data<<<<<
199	-0.809
199	-0.789
200	-0.752
200	-0.699
201	-0.672
201	-0.663
202	-0.648
202	-0.64
203	-0.639
203	-0.63
204	-0.612
204	-0.594
205	-0.572
205	-0.563
205	-0.571
206	-0.573
206	-0.569
207	-0.56
207	-0.568
208	-0.568
208	-0.575
209	-0.575
209	-0.582
210	-0.594
210	-0.6
211	-0.594
211	-0.597
212	-0.605
212	-0.612
213	-0.608
213	-0.604
213	-0.601
214	-0.607
214	-0.61
215	-0.607
215	-0.614
216	-0.623
216	-0.628
217	-0.625
217	-0.625
218	-0.633
218	-0.635
219	-0.641
219	-0.644
220	-0.645
220	-0.652
221	-0.65
221	-0.651
221	-0.644
222	-0.645
222	-0.644
223	-0.64
223	-0.642
224	-0.644
224	-0.641
225	-0.64
225	-0.642
226	-0.642
226	-0.641
227	-0.649
227	-0.66
228	-0.663
228	-0.672
229	-0.677
229	-0.673
229	-0.673
230	-0.669
230	-0.666
231	-0.664
231	-0.66
232	-0.662
232	-0.656
233	-0.657
233	-0.645
234	-0.645
234	-0.642
235	-0.647
235	-0.657
236	-0.664
236	-0.664
236	-0.664
237	-0.661
237	-0.662
238	-0.662
238	-0.665
239	-0.667
239	-0.675
240	-0.668
240	-0.666
241	-0.659
241	-0.665
242	-0.668
242	-0.676
243	-0.677
243	-0.679
243	-0.683
244	-0.679
244	-0.681
245	-0.683
245	-0.687
246	-0.698
246	-0.699
247	-0.709
247	-0.694
248	-0.692
248	-0.695
249	-0.701
249	-0.704
250	-0.702
250	-0.711
250	-0.707
251	-0.706
251	-0.702
252	-0.703
252	-0.717
253	-0.713
253	-0.725
254	-0.729
254	-0.729
255	-0.741
255	-0.74
256	-0.743
256	-0.756
257	-0.766
257	-0.763
258	-0.764
258	-0.771
258	-0.768
259	-0.762
259	-0.779
260	-0.778
260	-0.766
261	-0.777
261	-0.761
262	-0.769
262	-0.767
263	-0.759
263	-0.765
264	-0.774
264	-0.775
265	-0.767
265	-0.769
265	-0.779
266	-0.771
266	-0.772
267	-0.769
267	-0.785
268	-0.793
268	-0.786
269	-0.78
269	-0.794
270	-0.797
270	-0.798
271	-0.812
271	-0.823
272	-0.825
272	-0.827
272	-0.82
273	-0.83
273	-0.845
274	-0.837
274	-0.831
275	-0.828
275	-0.814
276	-0.817
276	-0.82
277	-0.822
277	-0.821
278	-0.826
278	-0.825
278	-0.813
279	-0.821
279	-0.834
280	-0.836
280	-0.847
281	-0.84
281	-0.834
282	-0.841
282	-0.834
283	-0.827
283	-0.841
284	-0.854
284	-0.865
285	-0.846
285	-0.851
285	-0.842
286	-0.848
286	-0.865
287	-0.861
287	-0.86
288	-0.859
288	-0.841
289	-0.839
289	-0.847
290	-0.855
290	-0.844
291	-0.85
291	-0.849
292	-0.827
292	-0.824
292	-0.829
293	-0.818
293	-0.814
294	-0.814
294	-0.8
295	-0.784
295	-0.797
296	-0.809
296	-0.803
297	-0.791
297	-0.796
298	-0.792
298	-0.809
298	-0.812
299	-0.795
299	-0.786
300	-0.782
300	-0.763
301	-0.744
301	-0.748
302	-0.759
302	-0.743
303	-0.736
303	-0.724
304	-0.707
304	-0.709
305	-0.703
305	-0.711
305	-0.727
306	-0.711
306	-0.708
307	-0.7
307	-0.713
308	-0.716
308	-0.711
309	-0.714
309	-0.71
310	-0.708
310	-0.703
311	-0.688
311	-0.707
311	-0.696
312	-0.693
312	-0.682
313	-0.673
313	-0.674
314	-0.679
314	-0.678
315	-0.675
315	-0.669
316	-0.662
316	-0.651
317	-0.642
317	-0.64
318	-0.631
318	-0.629
318	-0.62
319	-0.609
319	-0.602
320	-0.6
320	-0.597
321	-0.594
321	-0.595
322	-0.588
322	-0.58
323	-0.581
323	-0.571
324	-0.567
324	-0.556
324	-0.544
325	-0.527
325	-0.511
326	-0.501
326	-0.475
327	-0.461
327	-0.44
328	-0.409
328	-0.387
329	-0.357
329	-0.331
330	-0.302
330	-0.267
330	-0.232
331	-0.195
331	-0.162
332	-0.128
332	-0.094
333	-0.064
333	-0.03
334	-0.002
334	0.024
335	0.052
335	0.073
336	0.096
336	0.117
336	0.134
337	0.151
337	0.168
338	0.182
338	0.192
339	0.205
339	0.216
340	0.223
340	0.232
341	0.238
341	0.244
342	0.251
342	0.257
342	0.261
343	0.265
343	0.27
344	0.274
344	0.277
345	0.28
345	0.283
346	0.285
346	0.287
347	0.288
347	0.29
348	0.291
348	0.293
348	0.294
349	0.294
349	0.295
350	0.296
350	0.296
351	0.297
351	0.297
352	0.297
352	0.297
353	0.297
353	0.298
354	0.298
354	0.297
354	0.297
355	0.297
355	0.297
356	0.297
356	0.297
357	0.298
357	0.299
358	0.298
358	0.298
359	0.298
359	0.298
360	0.299
360	0.299
360	0.299
361	0.299
361	0.298
362	0.298
362	0.297
363	0.298
363	0.298
364	0.298
364	0.298
365	0.298
365	0.298
366	0.298
366	0.298
366	0.298
367	0.298
367	0.298
368	0.297
368	0.297
369	0.297
369	0.297
370	0.297
370	0.296
371	0.296
371	0.296
372	0.296
372	0.295
372	0.295
373	0.295
373	0.295
374	0.295
374	0.295
375	0.295
375	0.294
376	0.294
376	0.294
377	0.294
377	0.294
378	0.294
378	0.293
378	0.293
379	0.293
379	0.292
380	0.292
380	0.292
381	0.292
381	0.292
382	0.292
382	0.291
383	0.291
383	0.291
383	0.291
384	0.29
384	0.29
385	0.29
385	0.29
386	0.29
386	0.29
387	0.289
387	0.289
388	0.289
388	0.288
389	0.288
389	0.288
389	0.288
390	0.288
390	0.288
391	0.288
391	0.288
392	0.288
392	0.288
393	0.287
393	0.288
394	0.287
394	0.287
394	0.287
395	0.286
395	0.286
396	0.286
396	0.286
397	0.285
397	0.285
398	0.284
398	0.284
399	0.284
399	0.284
400	0.283
400	0.283
400	0.283
401	0.283
401	0.282
402	0.282
402	0.282
403	0.282
403	0.282
404	0.282
404	0.282
405	0.281
405	0.281
405	0.281
406	0.281
406	0.28
407	0.28
407	0.28
408	0.28
408	0.279
409	0.279
409	0.279
410	0.279
410	0.279
411	0.279
411	0.279
411	0.279
412	0.278
412	0.278
413	0.278
413	0.278
414	0.277
414	0.277
415	0.277
415	0.276
416	0.276
416	0.276
416	0.275
417	0.275
417	0.275
418	0.275
418	0.275
419	0.275
419	0.275
420	0.275
420	0.275
421	0.275
421	0.275
421	0.275
422	0.275
422	0.275
423	0.275
423	0.274
424	0.274
424	0.274
425	0.274
425	0.274
426	0.274
426	0.274
427	0.274
427	0.274
427	0.274
428	0.274
428	0.274
429	0.274
429	0.273
430	0.273
430	0.272
431	0.272
431	0.272
432	0.271
432	0.271
432	0.271
433	0.27
433	0.27
434	0.27
434	0.271
435	0.271
435	0.271
436	0.271
436	0.271
437	0.271
437	0.271
437	0.271
438	0.271
438	0.271
439	0.27
439	0.27
440	0.27
440	0.27
441	0.27
441	0.27
442	0.27
442	0.27
442	0.269
443	0.269
443	0.269
444	0.269
444	0.269
445	0.269
445	0.269
446	0.269
446	0.269
447	0.269
447	0.269
447	0.269
448	0.269
448	0.269
449	0.27
449	0.27
450	0.27
450	0.27
451	0.27
451	0.27
452	0.27
452	0.27
452	0.27
453	0.27
453	0.27
454	0.27
454	0.27
455	0.27
455	0.27
456	0.27
456	0.27
457	0.27
457	0.27
458	0.27
458	0.27
458	0.27
459	0.27
459	0.27
460	0.269
460	0.269
461	0.269
461	0.27
462	0.27
462	0.271
463	0.271
463	0.272
463	0.272
464	0.273
464	0.273
465	0.273
465	0.274
466	0.274
466	0.275
467	0.275
467	0.275
467	0.275
468	0.274
468	0.274
469	0.275
469	0.275
470	0.275
470	0.275
471	0.276
471	0.275
472	0.276
472	0.276
472	0.277
473	0.277
473	0.278
474	0.278
474	0.279
475	0.28
475	0.28
476	0.281
476	0.282
477	0.282
477	0.283
477	0.284
478	0.284
478	0.284
479	0.285
479	0.286
480	0.286
480	0.286
481	0.287
481	0.288
482	0.289
482	0.289
482	0.29
483	0.292
483	0.294
484	0.295
484	0.295
485	0.296
485	0.298
486	0.298
486	0.299
487	0.3
487	0.301
487	0.302
488	0.302
488	0.303
489	0.304
489	0.306
490	0.307
490	0.308
491	0.309
491	0.311
492	0.312
492	0.313
492	0.314
493	0.315
493	0.317
494	0.319
494	0.321
495	0.322
495	0.323
496	0.325
496	0.326
496	0.328
497	0.33
497	0.331
498	0.333
498	0.335
499	0.336
499	0.338
500	0.34
500	0.343
501	0.345
501	0.347
501	0.348
502	0.35
502	0.352
503	0.354
503	0.356
504	0.358
504	0.36
505	0.363
505	0.365
506	0.367
506	0.37
506	0.372
507	0.375
507	0.377
508	0.38
508	0.382
509	0.385
509	0.387
510	0.39
510	0.392
511	0.394
511	0.396
511	0.397
512	0.4
512	0.401
513	0.402
513	0.404
514	0.406
514	0.407
515	0.409
515	0.41
515	0.411
516	0.413
516	0.415
517	0.417
517	0.419
518	0.42
518	0.421
519	0.422
519	0.424
520	0.425
520	0.427
520	0.428
521	0.429
521	0.43
522	0.431
522	0.432
523	0.434
523	0.435
524	0.436
524	0.437
524	0.438
525	0.439
525	0.44
526	0.44
526	0.441
527	0.442
527	0.442
528	0.442
528	0.442
529	0.442
529	0.442
529	0.442
530	0.442
530	0.442
531	0.441
531	0.441
532	0.44
532	0.44
533	0.44
533	0.44
533	0.439
534	0.438
534	0.438
535	0.437
535	0.437
536	0.436
536	0.435
537	0.435
537	0.434
538	0.433
538	0.432
538	0.431
539	0.43
539	0.429
540	0.427
540	0.426
541	0.424
541	0.423
542	0.421
542	0.419
542	0.418
543	0.416
543	0.414
544	0.412
544	0.41
545	0.409
545	0.407
546	0.405
546	0.403
547	0.401
547	0.399
547	0.397
548	0.396
548	0.394
549	0.392
549	0.391
550	0.389
550	0.387
551	0.384
551	0.382
551	0.38
552	0.378
552	0.377
553	0.375
553	0.373
554	0.37
554	0.367
555	0.365
555	0.363
556	0.36
556	0.358
556	0.356
557	0.354
557	0.352
558	0.35
558	0.348
559	0.346
559	0.345
560	0.342
560	0.34
560	0.339
561	0.338
561	0.336
562	0.334
562	0.333
563	0.331
563	0.329
564	0.327
564	0.326
564	0.325
565	0.324
565	0.323
566	0.321
566	0.32
567	0.319
567	0.318
568	0.317
568	0.315
568	0.313
569	0.312
569	0.31
570	0.308
570	0.305
571	0.304
571	0.302
572	0.3
572	0.298
573	0.296
573	0.295
573	0.293
574	0.291
574	0.291
575	0.29
575	0.29
576	0.29
576	0.287
577	0.286
577	0.285
577	0.285
578	0.284
578	0.284
579	0.285
579	0.284
580	0.282
580	0.279
581	0.276
581	0.275
581	0.275
582	0.275
582	0.275
583	0.275
583	0.273
584	0.271
584	0.268
585	0.269
585	0.27
585	0.269
586	0.269
586	0.268
587	0.266
587	0.264
588	0.263
588	0.262
589	0.261
589	0.261
590	0.26
590	0.259
590	0.259
591	0.259
591	0.257
592	0.256
592	0.255
593	0.255
593	0.254
594	0.253
594	0.252
594	0.251
595	0.25
595	0.248
596	0.247
596	0.248
597	0.249
597	0.249
598	0.248
598	0.248
598	0.248
599	0.248
599	0.248
600	0.247
600	0.247
601	0.247
601	0.247
602	0.246
602	0.245
602	0.245
603	0.244
603	0.245
604	0.245
604	0.244
605	0.244
605	0.245
606	0.244
606	0.242
606	0.241
607	0.241
607	0.241
608	0.24
608	0.238
609	0.238
609	0.238
610	0.237
610	0.235
610	0.235
611	0.235
611	0.235
612	0.235
612	0.235
613	0.234
613	0.234
614	0.233
614	0.231
614	0.23
615	0.229
615	0.228
616	0.227
616	0.226
617	0.226
617	0.225
618	0.224
618	0.224
618	0.223
619	0.223
619	0.223
620	0.223
620	0.222
621	0.221
621	0.22
622	0.218
622	0.216
622	0.214
623	0.213
623	0.212
624	0.212
624	0.211
625	0.21
625	0.209
626	0.208
626	0.207
626	0.207
627	0.207
627	0.207
628	0.206
628	0.205
629	0.204
629	0.203
630	0.201
630	0.2
630	0.199
631	0.198
631	0.196
632	0.195
632	0.193
633	0.191
633	0.189
634	0.187
634	0.186
634	0.184
635	0.182
635	0.179
636	0.177
636	0.174
637	0.172
637	0.169
638	0.166
638	0.164
638	0.161
639	0.157
639	0.153
640	0.15
640	0.146
641	0.142
641	0.139
642	0.135
642	0.131
642	0.127
643	0.122
643	0.117
644	0.113
644	0.107
645	0.102
645	0.098
646	0.092
646	0.086
646	0.079
647	0.073
647	0.066
648	0.059
648	0.051
649	0.044
649	0.037
650	0.03
650	0.022
650	0.015
651	0.005
651	-0.007
652	-0.02
652	-0.034
653	-0.047
653	-0.059
653	-0.054
654	-0.035
654	-0.03
655	-0.035
655	-0.041
656	-0.048
656	-0.055
657	-0.06
657	-0.066
657	-0.073
658	-0.08
658	-0.111
659	-0.199
659	-0.291
660	-0.333
660	-0.36
661	-0.387
661	-0.417
661	-0.449
662	-0.478
662	-0.508
663	-0.542
663	-0.581
664	-0.618
664	-0.659
665	-0.705
665	-0.751
665	-0.796
666	-0.847
666	-0.901
667	-0.956
667	-1.019
668	-1.077
668	-1.146
669	-1.212
669	-1.284
669	-1.36
670	-1.439
670	-1.544
671	-1.703
671	-2.042
672	-2.297
672	-2.464
672	-2.587
673	-2.684
673	-2.765
674	-2.843
674	-2.867
675	-2.884
675	-2.89
676	-2.888
676	-2.847
676	-2.783
677	-2.707
677	-2.619
678	-2.49
678	-2.297
679	-1.923
679	-1.681
680	-1.558
680	-1.475
680	-1.401
681	-1.348
681	-1.291
682	-1.246
682	-1.201
683	-1.156
683	-1.13
684	-1.1
684	-1.08
684	-1.057
685	-1.036
685	-1.025
686	-1.001
686	-0.987
687	-0.976
687	-0.965
687	-0.965
688	-0.949
688	-0.941
689	-0.945
689	-0.94
690	-0.926
690	-0.915
691	-0.913
691	-0.915
691	-0.914
692	-0.913
692	-0.908
693	-0.914
693	-0.925
694	-0.904
694	-0.904
695	-0.906
695	-0.899
695	-0.906
696	-0.912
696	-0.905
697	-0.899
697	-0.894
698	-0.89
698	-0.88
698	-0.895
699	-0.894
699	-0.895
700	-0.916
700	-0.91
701	-0.896
701	-0.891
702	-0.892
702	-0.889
702	-0.888
703	-0.881
703	-0.869
704	-0.874
704	-0.877
705	-0.864
705	-0.865
705	-0.859
706	-0.849
706	-0.846
707	-0.858
707	-0.861
708	-0.859
708	-0.855
709	-0.858
709	-0.854
709	-0.849
710	-0.856
710	-0.859
711	-0.86
711	-0.861
712	-0.852
712	-0.849
713	-0.853
713	-0.853
713	-0.833
714	-0.836
714	-0.84
715	-0.832
715	-0.841
716	-0.856
716	-0.866
716	-0.868
717	-0.874
717	-0.866
718	-0.861
718	-0.861
719	-0.856
719	-0.85
720	-0.845
720	-0.841
720	-0.836
721	-0.825
721	-0.829
722	-0.826
722	-0.821
723	-0.84
723	-0.852
723	-0.861
724	-0.858
724	-0.863
725	-0.857
725	-0.86
726	-0.864
726	-0.855
727	-0.858
727	-0.865
727	-0.855
728	-0.842
728	-0.837
729	-0.841
729	-0.843
730	-0.848
730	-0.838
730	-0.843
731	-0.845
731	-0.845
732	-0.847
732	-0.843
733	-0.859
733	-0.866
734	-0.873
734	-0.865
734	-0.848
735	-0.838
735	-0.833
736	-0.832
736	-0.826
737	-0.825
737	-0.815
737	-0.808
738	-0.793
738	-0.78
739	-0.782
739	-0.784
740	-0.799
740	-0.8
741	-0.811
741	-0.822
741	-0.832
742	-0.837
742	-0.853
743	-0.859
743	-0.861
744	-0.865
744	-0.873
744	-0.866
745	-0.874
745	-0.863
746	-0.856
746	-0.847
747	-0.851
747	-0.84
748	-0.843
748	-0.848
748	-0.849
749	-0.841
749	-0.847
750	-0.838
750	-0.839
751	-0.838
751	-0.836
751	-0.849
752	-0.853
752	-0.854
753	-0.854
753	-0.847
754	-0.868
754	-0.869
754	-0.876
755	-0.875
755	-0.868
756	-0.871
756	-0.856
757	-0.849
757	-0.84
758	-0.841
758	-0.839
758	-0.835
759	-0.838
759	-0.837
760	-0.837
760	-0.839
761	-0.833
761	-0.836
761	-0.835
762	-0.84
762	-0.841
763	-0.842
763	-0.846
764	-0.844
764	-0.839
764	-0.845
765	-0.844
765	-0.851
766	-0.853
766	-0.855
767	-0.871
767	-0.865
768	-0.864
768	-0.857
768	-0.852
769	-0.857
769	-0.866
770	-0.877
770	-0.88
771	-0.877
771	-0.878
771	-0.882
772	-0.887
772	-0.908
773	-0.908
773	-0.908
774	-0.907
774	-0.887
775	-0.874
775	-0.873
775	-0.877
776	-0.886
776	-0.883
777	-0.883
777	-0.865
778	-0.874
778	-0.884
778	-0.884
779	-0.893
779	-0.909
780	-0.907
780	-0.915
781	-0.907
781	-0.895
781	-0.91
782	-0.931
782	-0.932
783	-0.93
783	-0.938
784	-0.942
784	-0.934
784	-0.953
785	-0.946
785	-0.957
786	-0.963
786	-0.955
787	-0.945
787	-0.953
788	-0.947
788	-0.94
788	-0.94
789	-0.939
789	-0.93
790	-0.928
790	-0.913
791	-0.919
791	-0.915
791	-0.908
792	-0.903
792	-0.905
793	-0.909
793	-0.899
794	-0.894
794	-0.885
794	-0.892
795	-0.913
795	-0.899
796	-0.904
796	-0.902
797	-0.893
797	-0.885
797	-0.878
798	-0.897
798	-0.9
799	-0.899
799	-0.885
800	-0.88
800	-0.889
801	-0.887
801	-0.891
801	-0.887
802	-0.886
802	-0.885
803	-0.88
803	-0.872
804	-0.877
804	-0.885
804	-0.87
805	-0.851
805	-0.842
806	-0.842
806	-0.84
807	-0.842
807	-0.841
807	-0.824
808	-0.822
808	-0.815
809	-0.811
809	-0.812
810	-0.816
810	-0.812
810	-0.808
811	-0.811
811	-0.803
812	-0.796
812	-0.799
813	-0.804
813	-0.805
813	-0.798
814	-0.797
814	-0.801
815	-0.792
815	-0.787
816	-0.783
816	-0.799
817	-0.81
817	-0.813
817	-0.822
818	-0.815
818	-0.814
819	-0.823
819	-0.82
820	-0.833
820	-0.833
820	-0.833
821	-0.826
821	-0.821
822	-0.82
822	-0.807
823	-0.819
823	-0.818
823	-0.814
824	-0.811
824	-0.821
825	-0.819
825	-0.816
826	-0.812
826	-0.809
826	-0.809
827	-0.809
827	-0.799
828	-0.799
828	-0.792
829	-0.788
829	-0.773
829	-0.772
830	-0.771
830	-0.757
831	-0.751
831	-0.739
832	-0.73
832	-0.725
832	-0.717
833	-0.717
833	-0.72
834	-0.715
834	-0.708
835	-0.7
835	-0.698
835	-0.691
836	-0.687
836	-0.683
837	-0.674
837	-0.666
838	-0.651
838	-0.635
839	-0.63
839	-0.618
839	-0.609
840	-0.608
840	-0.598
841	-0.588
841	-0.581
842	-0.571
842	-0.558
842	-0.557
843	-0.552
843	-0.548
844	-0.544
844	-0.531
845	-0.517
845	-0.508
845	-0.497
846	-0.484
846	-0.473
847	-0.462
847	-0.448
848	-0.432
848	-0.416
848	-0.401
849	-0.39
849	-0.377
850	-0.366
850	-0.355
851	-0.343
851	-0.324
851	-0.314
852	-0.298
852	-0.285
853	-0.274
853	-0.263
854	-0.251
854	-0.239
854	-0.225
855	-0.213
855	-0.204
856	-0.198
856	-0.188
857	-0.179
857	-0.17
857	-0.156
858	-0.144
858	-0.136
859	-0.124
859	-0.111
860	-0.099
860	-0.084
860	-0.073
861	-0.062
861	-0.052
862	-0.042
862	-0.034
863	-0.026
863	-0.015
863	-0.008
864	-0.002
864	0.006
865	0.014
865	0.02
866	0.027
866	0.033
866	0.039
867	0.045
867	0.052
868	0.056
868	0.061
869	0.067
869	0.071
869	0.073
870	0.075
870	0.078
871	0.08
871	0.081
872	0.082
872	0.083
872	0.084
873	0.084
873	0.083
874	0.083
874	0.082
875	0.082
875	0.081
875	0.081
876	0.08
876	0.08
877	0.079
877	0.078
878	0.077
878	0.077
878	0.077
879	0.076
879	0.076
880	0.075
880	0.075
881	0.074
881	0.073
881	0.072
882	0.071
882	0.069
883	0.068
883	0.067
884	0.066
884	0.065
884	0.065
885	0.065
885	0.065
886	0.064
886	0.064
887	0.064
887	0.063
887	0.062
888	0.062
888	0.062
889	0.061
889	0.06
890	0.059
890	0.058
890	0.057
891	0.058
891	0.057
892	0.058
892	0.058
893	0.058
893	0.058
893	0.057
894	0.058
894	0.058
895	0.057
895	0.056
895	0.056
896	0.056
896	0.055
897	0.055
897	0.055
898	0.055
898	0.055
898	0.055
899	0.055
899	0.055
900	0.055
900	0.055
901	0.055
901	0.054
901	0.054
902	0.054
902	0.055
903	0.055
903	0.055
904	0.055
904	0.054
904	0.055
905	0.055
905	0.056
906	0.057
906	0.057
907	0.057
907	0.057
907	0.058
908	0.058
908	0.058
909	0.058
909	0.059
910	0.059
910	0.059
910	0.059
911	0.059
911	0.06
912	0.061
912	0.061
913	0.062
913	0.062
913	0.062
914	0.063
914	0.063
915	0.063
915	0.063
916	0.063
916	0.063
916	0.063
917	0.063
917	0.063
918	0.063
918	0.063
918	0.063
919	0.063
919	0.063
920	0.064
920	0.064
921	0.065
921	0.066
921	0.066
922	0.067
922	0.067
923	0.068
923	0.068
924	0.068
924	0.067
924	0.067
925	0.066
925	0.065
926	0.064
926	0.063
927	0.062
927	0.061
927	0.06
928	0.06
928	0.06
929	0.06
929	0.061
930	0.061
930	0.062
930	0.063
931	0.064
931	0.065
932	0.066
932	0.067
933	0.068
933	0.068
933	0.068
934	0.067
934	0.066
935	0.066
935	0.065
935	0.063
936	0.062
936	0.061
937	0.059
937	0.058
938	0.058
938	0.057
938	0.056
939	0.055
939	0.055
940	0.054
940	0.053
941	0.052
941	0.052
941	0.051
942	0.05
942	0.05
943	0.05
943	0.049
944	0.048
944	0.046
944	0.046
945	0.046
945	0.045
946	0.044
946	0.043
946	0.043
947	0.043
947	0.043
948	0.043
948	0.044
949	0.045
949	0.046
949	0.048
950	0.049
950	0.051
951	0.052
951	0.053
952	0.054
952	0.055
952	0.056
953	0.056
953	0.057
954	0.057
954	0.057
955	0.057
955	0.057
955	0.056
956	0.056
956	0.055
957	0.054
957	0.053
957	0.052
958	0.051
958	0.051
959	0.051
959	0.05
960	0.049
960	0.049
960	0.049
961	0.049
961	0.049
962	0.049
962	0.049
963	0.049
963	0.049
963	0.05
964	0.05
964	0.05
965	0.05
965	0.051
966	0.051
966	0.051
966	0.051
967	0.052
967	0.052
968	0.051
968	0.051
968	0.051
969	0.051
969	0.051
970	0.05
970	0.05
971	0.05
971	0.05
971	0.049
972	0.05
972	0.05
973	0.05
973	0.05
974	0.05
974	0.05
974	0.051
975	0.051
975	0.051
976	0.051
976	0.051
976	0.051
977	0.051
977	0.05
978	0.05
978	0.049
979	0.049
979	0.048
979	0.048
980	0.048
980	0.048
981	0.048
981	0.048
982	0.048
982	0.048
982	0.048
983	0.048
983	0.048
984	0.048
984	0.048
984	0.047
985	0.047
985	0.047
986	0.046
986	0.045
987	0.044
987	0.043
987	0.043
988	0.042
988	0.041
989	0.04
989	0.039
990	0.038
990	0.037
990	0.036
991	0.035
991	0.035
992	0.034
992	0.033
992	0.032
993	0.031
993	0.03
994	0.029
994	0.028
995	0.027
995	0.025
995	0.024
996	0.022
996	0.021
997	0.02
997	0.019
997	0.018
998	0.017
998	0.018
999	0.017
999	0.017
1000	0.018
1000	0.018
1000	0.019
1001	0.02
1001	0.02
1002	0.021
1002	0.021
1003	0.022
1003	0.021
1003	0.022
1004	0.022
1004	0.022
1005	0.021
1005	0.021
1005	0.02
1006	0.02
1006	0.019
1007	0.018
1007	0.018
1008	0.017
1008	0.016
1008	0.016
1009	0.016
1009	0.016
1010	0.017
1010	0.017
1010	0.017
1011	0.018
1011	0.018
1012	0.019
1012	0.02
1013	0.021
1013	0.022
1013	0.023
1014	0.023
1014	0.023
1015	0.024
1015	0.025
1016	0.025
1016	0.025
1016	0.024
1017	0.024
1017	0.024
1018	0.024
1018	0.024
1018	0.024
1019	0.024
1019	0.023
1020	0.023
1020	0.023
1021	0.023
1021	0.023
1021	0.022
1022	0.022
1022	0.022
1023	0.022
1023	0.022
1023	0.022
1024	0.023
1024	0.023
1025	0.023
1025	0.024
1026	0.024
1026	0.024
1026	0.024
1027	0.025
1027	0.025
1028	0.026
1028	0.026
1028	0.026
1029	0.026
1029	0.026
1030	0.026
1030	0.026
1031	0.026
1031	0.026
1031	0.026
1032	0.026
1032	0.025
1033	0.025
1033	0.025
1033	0.024
1034	0.024
1034	0.023
1035	0.023
1035	0.023
1036	0.022
1036	0.022
1036	0.021
1037	0.021
1037	0.021
1038	0.021
1038	0.021
1039	0.022
1039	0.022
1039	0.023
1040	0.023
1040	0.023
1041	0.023
1041	0.023
1041	0.023
1042	0.022
1042	0.021
1043	0.02
1043	0.019
1044	0.019
1044	0.018
1044	0.017
1045	0.016
1045	0.015
1046	0.014
1046	0.014
1046	0.013
1047	0.013
1047	0.013
1048	0.013
1048	0.013
1049	0.013
1049	0.013
1049	0.013
1050	0.013
1050	0.013
1051	0.012
1051	0.011
1051	0.011
1052	0.011
1052	0.01
1053	0.009
1053	0.009
1053	0.009
1054	0.008
1054	0.008
1055	0.008
1055	0.008
1056	0.008
1056	0.008
1056	0.007
1057	0.007
1057	0.007
1058	0.006
1058	0.005
1058	0.006
1059	0.005
1059	0.004
1060	0.004
1060	0.003
1061	0.003
1061	0.003
1061	0.002
1062	0.002
1062	0.002
1063	0.002
1063	0.001
1063	0.001
1064	0.002
1064	0.002
1065	0.002
1065	0.002
1066	0.002
1066	0.002
1066	0.002
1067	0.002
1067	0.001
1068	0.001
1068	0
1068	-0.001
1069	-0.002
1069	-0.003
1070	-0.004
1070	-0.004
1071	-0.005
1071	-0.005
1071	-0.006
1072	-0.007
1072	-0.007
1073	-0.007
1073	-0.008
1073	-0.008
1074	-0.008
1074	-0.008
1075	-0.009
1075	-0.01
1076	-0.011
1076	-0.011
1076	-0.012
1077	-0.013
1077	-0.013
1078	-0.014
1078	-0.014
1078	-0.015
1079	-0.016
1079	-0.016
1080	-0.017
1080	-0.018
1080	-0.02
1081	-0.02
1081	-0.021
1082	-0.021
1082	-0.023
1083	-0.024
1083	-0.025
1083	-0.026
1084	-0.028
1084	-0.028
1085	-0.03
1085	-0.03
1085	-0.031
1086	-0.032
1086	-0.034
1087	-0.034
1087	-0.035
1088	-0.037
1088	-0.037
1088	-0.038
1089	-0.039
1089	-0.04
1090	-0.041
1090	-0.042
1090	-0.043
1091	-0.044
1091	-0.045
1092	-0.046
1092	-0.046
1092	-0.047
1093	-0.048
1093	-0.048
1094	-0.049
1094	-0.05
1095	-0.05
1095	-0.051
1095	-0.051
1096	-0.053
1096	-0.055
1097	-0.056
1097	-0.058
1097	-0.06
1098	-0.062
1098	-0.064
1099	-0.065
1099	-0.067
1100	-0.07
1100	-0.072
1100	-0.075
1101	-0.079
1101	-0.081
1102	-0.084
1102	-0.086
1102	-0.089
1103	-0.092
1103	-0.095
1104	-0.099
1104	-0.102
1104	-0.104
1105	-0.106
1105	-0.109
1106	-0.114
1106	-0.116
1107	-0.123
1107	-0.128
1107	-0.133
1108	-0.134
1108	-0.135
1109	-0.139
1109	-0.144
1109	-0.15
1110	-0.151
1110	-0.156
1111	-0.167
1111	-0.165
