Data from 3.4A_17C_Absorbance__420__02332.txt Node

Date: Tue Jun 20 16:39:39 CEST 2023
User: Marek
Spectrometer: MAYP115816
Trigger mode: 0
Integration Time (sec): 2.200000E-1
Scans to average: 10
Electric dark correction enabled: true
Nonlinearity correction enabled: true
Boxcar width: 5
XAxis mode: Wavelengths
Number of Pixels in Spectrum: 2068
>>>>>Begin Spectral Data<<<<<
199	-0.804
199	-0.782
200	-0.748
200	-0.691
201	-0.664
201	-0.656
202	-0.639
202	-0.633
203	-0.632
203	-0.626
204	-0.606
204	-0.59
205	-0.569
205	-0.56
205	-0.568
206	-0.569
206	-0.564
207	-0.558
207	-0.563
208	-0.564
208	-0.566
209	-0.569
209	-0.574
210	-0.586
210	-0.592
211	-0.586
211	-0.592
212	-0.6
212	-0.607
213	-0.605
213	-0.601
213	-0.602
214	-0.609
214	-0.613
215	-0.61
215	-0.616
216	-0.625
216	-0.629
217	-0.628
217	-0.629
218	-0.636
218	-0.637
219	-0.642
219	-0.643
220	-0.645
220	-0.653
221	-0.651
221	-0.651
221	-0.644
222	-0.643
222	-0.641
223	-0.636
223	-0.638
224	-0.638
224	-0.636
225	-0.633
225	-0.633
226	-0.634
226	-0.634
227	-0.642
227	-0.654
228	-0.658
228	-0.667
229	-0.673
229	-0.671
229	-0.672
230	-0.667
230	-0.666
231	-0.663
231	-0.658
232	-0.658
232	-0.652
233	-0.651
233	-0.639
234	-0.64
234	-0.636
235	-0.641
235	-0.652
236	-0.659
236	-0.659
236	-0.66
237	-0.66
237	-0.661
238	-0.663
238	-0.665
239	-0.665
239	-0.673
240	-0.666
240	-0.663
241	-0.66
241	-0.662
242	-0.665
242	-0.674
243	-0.675
243	-0.676
243	-0.681
244	-0.678
244	-0.679
245	-0.681
245	-0.684
246	-0.692
246	-0.697
247	-0.706
247	-0.692
248	-0.691
248	-0.693
249	-0.698
249	-0.7
250	-0.7
250	-0.708
250	-0.706
251	-0.706
251	-0.703
252	-0.702
252	-0.714
253	-0.709
253	-0.721
254	-0.726
254	-0.727
255	-0.737
255	-0.736
256	-0.74
256	-0.753
257	-0.762
257	-0.759
258	-0.76
258	-0.768
258	-0.765
259	-0.757
259	-0.773
260	-0.772
260	-0.762
261	-0.773
261	-0.756
262	-0.761
262	-0.76
263	-0.75
263	-0.753
264	-0.763
264	-0.765
265	-0.757
265	-0.76
265	-0.769
266	-0.758
266	-0.759
267	-0.759
267	-0.774
268	-0.783
268	-0.778
269	-0.771
269	-0.786
270	-0.79
270	-0.789
271	-0.802
271	-0.812
272	-0.812
272	-0.815
272	-0.81
273	-0.82
273	-0.836
274	-0.828
274	-0.821
275	-0.818
275	-0.807
276	-0.811
276	-0.818
277	-0.822
277	-0.82
278	-0.824
278	-0.823
278	-0.81
279	-0.819
279	-0.834
280	-0.837
280	-0.847
281	-0.841
281	-0.832
282	-0.837
282	-0.831
283	-0.826
283	-0.84
284	-0.854
284	-0.866
285	-0.844
285	-0.849
285	-0.842
286	-0.848
286	-0.865
287	-0.863
287	-0.861
288	-0.86
288	-0.842
289	-0.839
289	-0.845
290	-0.855
290	-0.845
291	-0.847
291	-0.843
292	-0.822
292	-0.82
292	-0.825
293	-0.811
293	-0.808
294	-0.809
294	-0.795
295	-0.779
295	-0.79
296	-0.803
296	-0.798
297	-0.788
297	-0.79
298	-0.787
298	-0.805
298	-0.809
299	-0.788
299	-0.781
300	-0.777
300	-0.759
301	-0.74
301	-0.743
302	-0.752
302	-0.738
303	-0.73
303	-0.716
304	-0.699
304	-0.703
305	-0.696
305	-0.706
305	-0.72
306	-0.705
306	-0.703
307	-0.695
307	-0.705
308	-0.708
308	-0.706
309	-0.707
309	-0.702
310	-0.7
310	-0.694
311	-0.68
311	-0.699
311	-0.686
312	-0.683
312	-0.671
313	-0.664
313	-0.664
314	-0.671
314	-0.668
315	-0.666
315	-0.659
316	-0.652
316	-0.641
317	-0.635
317	-0.633
318	-0.625
318	-0.621
318	-0.609
319	-0.598
319	-0.591
320	-0.589
320	-0.589
321	-0.585
321	-0.586
322	-0.578
322	-0.571
323	-0.572
323	-0.564
324	-0.563
324	-0.551
324	-0.539
325	-0.522
325	-0.504
326	-0.494
326	-0.467
327	-0.453
327	-0.43
328	-0.399
328	-0.373
329	-0.346
329	-0.316
330	-0.29
330	-0.254
330	-0.218
331	-0.181
331	-0.147
332	-0.113
332	-0.078
333	-0.047
333	-0.012
334	0.019
334	0.046
335	0.075
335	0.098
336	0.122
336	0.144
336	0.161
337	0.179
337	0.197
338	0.211
338	0.222
339	0.237
339	0.248
340	0.257
340	0.265
341	0.273
341	0.279
342	0.287
342	0.294
342	0.299
343	0.304
343	0.31
344	0.312
344	0.316
345	0.32
345	0.323
346	0.325
346	0.327
347	0.329
347	0.331
348	0.332
348	0.334
348	0.335
349	0.336
349	0.337
350	0.337
350	0.338
351	0.339
351	0.339
352	0.339
352	0.339
353	0.34
353	0.34
354	0.34
354	0.34
354	0.34
355	0.339
355	0.339
356	0.34
356	0.339
357	0.339
357	0.34
358	0.34
358	0.34
359	0.34
359	0.34
360	0.34
360	0.34
360	0.34
361	0.34
361	0.34
362	0.34
362	0.34
363	0.34
363	0.34
364	0.34
364	0.34
365	0.34
365	0.339
366	0.34
366	0.339
366	0.34
367	0.34
367	0.339
368	0.339
368	0.339
369	0.339
369	0.339
370	0.338
370	0.338
371	0.338
371	0.337
372	0.337
372	0.337
372	0.337
373	0.336
373	0.336
374	0.336
374	0.335
375	0.335
375	0.335
376	0.335
376	0.334
377	0.334
377	0.334
378	0.333
378	0.333
378	0.333
379	0.332
379	0.332
380	0.332
380	0.332
381	0.332
381	0.331
382	0.331
382	0.331
383	0.331
383	0.33
383	0.33
384	0.33
384	0.329
385	0.329
385	0.329
386	0.329
386	0.328
387	0.328
387	0.328
388	0.328
388	0.327
389	0.327
389	0.327
389	0.327
390	0.327
390	0.327
391	0.327
391	0.326
392	0.326
392	0.326
393	0.325
393	0.325
394	0.325
394	0.325
394	0.324
395	0.324
395	0.323
396	0.323
396	0.323
397	0.322
397	0.322
398	0.322
398	0.322
399	0.321
399	0.321
400	0.321
400	0.321
400	0.32
401	0.32
401	0.319
402	0.319
402	0.319
403	0.319
403	0.319
404	0.318
404	0.318
405	0.317
405	0.317
405	0.317
406	0.316
406	0.316
407	0.316
407	0.316
408	0.315
408	0.315
409	0.315
409	0.315
410	0.315
410	0.315
411	0.315
411	0.314
411	0.314
412	0.314
412	0.313
413	0.313
413	0.313
414	0.313
414	0.313
415	0.312
415	0.312
416	0.311
416	0.311
416	0.311
417	0.31
417	0.31
418	0.31
418	0.31
419	0.31
419	0.31
420	0.31
420	0.31
421	0.31
421	0.31
421	0.31
422	0.31
422	0.31
423	0.31
423	0.31
424	0.309
424	0.309
425	0.309
425	0.309
426	0.309
426	0.309
427	0.309
427	0.309
427	0.309
428	0.309
428	0.308
429	0.308
429	0.308
430	0.307
430	0.307
431	0.307
431	0.306
432	0.306
432	0.306
432	0.305
433	0.305
433	0.305
434	0.305
434	0.305
435	0.306
435	0.306
436	0.306
436	0.306
437	0.305
437	0.305
437	0.305
438	0.305
438	0.305
439	0.305
439	0.305
440	0.305
440	0.305
441	0.305
441	0.305
442	0.304
442	0.304
442	0.304
443	0.304
443	0.304
444	0.304
444	0.304
445	0.304
445	0.304
446	0.304
446	0.304
447	0.304
447	0.304
447	0.304
448	0.304
448	0.304
449	0.304
449	0.304
450	0.304
450	0.304
451	0.304
451	0.304
452	0.304
452	0.304
452	0.304
453	0.304
453	0.304
454	0.304
454	0.304
455	0.305
455	0.305
456	0.305
456	0.305
457	0.305
457	0.305
458	0.305
458	0.305
458	0.305
459	0.305
459	0.305
460	0.304
460	0.304
461	0.304
461	0.305
462	0.305
462	0.306
463	0.307
463	0.308
463	0.308
464	0.308
464	0.309
465	0.309
465	0.31
466	0.31
466	0.311
467	0.311
467	0.311
467	0.311
468	0.311
468	0.311
469	0.312
469	0.312
470	0.312
470	0.313
471	0.313
471	0.313
472	0.313
472	0.314
472	0.315
473	0.315
473	0.316
474	0.317
474	0.317
475	0.318
475	0.319
476	0.32
476	0.321
477	0.321
477	0.322
477	0.323
478	0.323
478	0.324
479	0.325
479	0.326
480	0.327
480	0.327
481	0.328
481	0.329
482	0.33
482	0.331
482	0.332
483	0.334
483	0.336
484	0.338
484	0.338
485	0.34
485	0.341
486	0.342
486	0.344
487	0.345
487	0.347
487	0.348
488	0.349
488	0.349
489	0.35
489	0.352
490	0.354
490	0.355
491	0.357
491	0.359
492	0.36
492	0.362
492	0.363
493	0.365
493	0.366
494	0.369
494	0.371
495	0.373
495	0.375
496	0.377
496	0.379
496	0.381
497	0.383
497	0.385
498	0.387
498	0.39
499	0.392
499	0.394
500	0.397
500	0.399
501	0.402
501	0.404
501	0.406
502	0.409
502	0.411
503	0.413
503	0.415
504	0.418
504	0.42
505	0.423
505	0.426
506	0.429
506	0.432
506	0.435
507	0.437
507	0.441
508	0.444
508	0.447
509	0.451
509	0.453
510	0.456
510	0.459
511	0.461
511	0.464
511	0.466
512	0.469
512	0.47
513	0.472
513	0.474
514	0.477
514	0.479
515	0.481
515	0.483
515	0.485
516	0.487
516	0.489
517	0.492
517	0.494
518	0.495
518	0.497
519	0.498
519	0.5
520	0.501
520	0.503
520	0.505
521	0.505
521	0.507
522	0.508
522	0.509
523	0.511
523	0.512
524	0.513
524	0.514
524	0.515
525	0.516
525	0.517
526	0.519
526	0.519
527	0.52
527	0.521
528	0.521
528	0.521
529	0.521
529	0.521
529	0.521
530	0.52
530	0.52
531	0.52
531	0.519
532	0.518
532	0.518
533	0.518
533	0.517
533	0.517
534	0.516
534	0.515
535	0.514
535	0.513
536	0.512
536	0.511
537	0.511
537	0.509
538	0.508
538	0.506
538	0.505
539	0.504
539	0.503
540	0.501
540	0.499
541	0.497
541	0.495
542	0.493
542	0.491
542	0.489
543	0.486
543	0.484
544	0.481
544	0.479
545	0.476
545	0.474
546	0.471
546	0.469
547	0.466
547	0.463
547	0.46
548	0.459
548	0.456
549	0.454
549	0.452
550	0.45
550	0.447
551	0.444
551	0.442
551	0.44
552	0.437
552	0.434
553	0.432
553	0.429
554	0.426
554	0.423
555	0.42
555	0.417
556	0.414
556	0.411
556	0.409
557	0.406
557	0.404
558	0.401
558	0.399
559	0.396
559	0.393
560	0.39
560	0.388
560	0.385
561	0.383
561	0.381
562	0.379
562	0.376
563	0.374
563	0.372
564	0.37
564	0.368
564	0.366
565	0.364
565	0.363
566	0.361
566	0.359
567	0.357
567	0.355
568	0.353
568	0.351
568	0.349
569	0.347
569	0.345
570	0.342
570	0.339
571	0.337
571	0.335
572	0.333
572	0.33
573	0.328
573	0.325
573	0.323
574	0.321
574	0.32
575	0.319
575	0.318
576	0.317
576	0.314
577	0.312
577	0.311
577	0.31
578	0.309
578	0.309
579	0.308
579	0.307
580	0.305
580	0.301
581	0.298
581	0.297
581	0.296
582	0.296
582	0.295
583	0.295
583	0.293
584	0.29
584	0.287
585	0.287
585	0.287
585	0.286
586	0.285
586	0.284
587	0.282
587	0.28
588	0.278
588	0.276
589	0.276
589	0.274
590	0.273
590	0.271
590	0.271
591	0.27
591	0.269
592	0.267
592	0.265
593	0.264
593	0.263
594	0.261
594	0.26
594	0.259
595	0.258
595	0.256
596	0.254
596	0.254
597	0.255
597	0.254
598	0.253
598	0.253
598	0.252
599	0.252
599	0.251
600	0.25
600	0.249
601	0.249
601	0.248
602	0.247
602	0.246
602	0.245
603	0.245
603	0.245
604	0.244
604	0.244
605	0.244
605	0.244
606	0.242
606	0.24
606	0.239
607	0.238
607	0.237
608	0.236
608	0.234
609	0.233
609	0.233
610	0.231
610	0.23
610	0.229
611	0.229
611	0.228
612	0.228
612	0.228
613	0.227
613	0.226
614	0.224
614	0.222
614	0.221
615	0.219
615	0.218
616	0.217
616	0.216
617	0.215
617	0.214
618	0.213
618	0.212
618	0.211
619	0.21
619	0.21
620	0.211
620	0.209
621	0.208
621	0.207
622	0.205
622	0.203
622	0.201
623	0.2
623	0.199
624	0.199
624	0.197
625	0.196
625	0.195
626	0.194
626	0.192
626	0.192
627	0.192
627	0.191
628	0.19
628	0.189
629	0.188
629	0.186
630	0.184
630	0.183
630	0.182
631	0.18
631	0.178
632	0.176
632	0.174
633	0.172
633	0.17
634	0.168
634	0.166
634	0.164
635	0.162
635	0.159
636	0.156
636	0.154
637	0.151
637	0.148
638	0.145
638	0.142
638	0.138
639	0.134
639	0.13
640	0.126
640	0.122
641	0.118
641	0.114
642	0.11
642	0.105
642	0.101
643	0.096
643	0.091
644	0.086
644	0.081
645	0.075
645	0.07
646	0.065
646	0.059
646	0.052
647	0.046
647	0.039
648	0.032
648	0.025
649	0.017
649	0.01
650	0.003
650	-0.004
650	-0.012
651	-0.021
651	-0.033
652	-0.046
652	-0.061
653	-0.073
653	-0.083
653	-0.078
654	-0.058
654	-0.054
655	-0.058
655	-0.063
656	-0.069
656	-0.075
657	-0.079
657	-0.084
657	-0.09
658	-0.097
658	-0.128
659	-0.214
659	-0.301
660	-0.341
660	-0.366
661	-0.392
661	-0.421
661	-0.451
662	-0.479
662	-0.506
663	-0.539
663	-0.577
664	-0.611
664	-0.65
665	-0.693
665	-0.738
665	-0.781
666	-0.83
666	-0.883
667	-0.935
667	-0.996
668	-1.053
668	-1.12
669	-1.186
669	-1.257
669	-1.334
670	-1.412
670	-1.518
671	-1.674
671	-2.01
672	-2.279
672	-2.451
672	-2.577
673	-2.677
673	-2.759
674	-2.833
674	-2.852
675	-2.869
675	-2.873
676	-2.872
676	-2.833
676	-2.766
677	-2.686
677	-2.591
678	-2.453
678	-2.235
679	-1.811
679	-1.61
680	-1.498
680	-1.419
680	-1.35
681	-1.301
681	-1.246
682	-1.205
682	-1.163
683	-1.12
683	-1.096
684	-1.068
684	-1.049
684	-1.027
685	-1.008
685	-0.999
686	-0.977
686	-0.964
687	-0.955
687	-0.943
687	-0.944
688	-0.927
688	-0.919
689	-0.922
689	-0.918
690	-0.904
690	-0.893
691	-0.89
691	-0.894
691	-0.894
692	-0.895
692	-0.892
693	-0.899
693	-0.911
694	-0.891
694	-0.891
695	-0.894
695	-0.888
695	-0.895
696	-0.902
696	-0.895
697	-0.888
697	-0.883
698	-0.877
698	-0.869
698	-0.884
699	-0.882
699	-0.883
700	-0.903
700	-0.9
701	-0.887
701	-0.88
702	-0.881
702	-0.879
702	-0.879
703	-0.871
703	-0.859
704	-0.868
704	-0.87
705	-0.859
705	-0.857
705	-0.851
706	-0.844
706	-0.841
707	-0.853
707	-0.856
708	-0.854
708	-0.851
709	-0.851
709	-0.847
709	-0.842
710	-0.849
710	-0.854
711	-0.854
711	-0.854
712	-0.844
712	-0.84
713	-0.846
713	-0.846
713	-0.826
714	-0.83
714	-0.833
715	-0.825
715	-0.832
716	-0.848
716	-0.858
716	-0.858
717	-0.867
717	-0.858
718	-0.852
718	-0.852
719	-0.848
719	-0.84
720	-0.834
720	-0.83
720	-0.823
721	-0.813
721	-0.818
722	-0.815
722	-0.811
723	-0.829
723	-0.842
723	-0.85
724	-0.851
724	-0.857
725	-0.851
725	-0.855
726	-0.86
726	-0.851
727	-0.851
727	-0.859
727	-0.85
728	-0.837
728	-0.833
729	-0.834
729	-0.837
730	-0.841
730	-0.833
730	-0.838
731	-0.84
731	-0.841
732	-0.844
732	-0.839
733	-0.854
733	-0.861
734	-0.87
734	-0.861
734	-0.843
735	-0.835
735	-0.827
736	-0.828
736	-0.823
737	-0.821
737	-0.81
737	-0.803
738	-0.787
738	-0.776
739	-0.778
739	-0.781
740	-0.794
740	-0.797
741	-0.806
741	-0.815
741	-0.825
742	-0.833
742	-0.847
743	-0.854
743	-0.855
744	-0.859
744	-0.866
744	-0.86
745	-0.87
745	-0.859
746	-0.855
746	-0.845
747	-0.848
747	-0.84
748	-0.842
748	-0.849
748	-0.849
749	-0.84
749	-0.847
750	-0.835
750	-0.836
751	-0.836
751	-0.832
751	-0.843
752	-0.847
752	-0.85
753	-0.851
753	-0.844
754	-0.863
754	-0.862
754	-0.872
755	-0.872
755	-0.863
756	-0.868
756	-0.854
757	-0.846
757	-0.836
758	-0.837
758	-0.835
758	-0.832
759	-0.836
759	-0.836
760	-0.834
760	-0.837
761	-0.832
761	-0.834
761	-0.834
762	-0.839
762	-0.839
763	-0.84
763	-0.843
764	-0.843
764	-0.837
764	-0.843
765	-0.84
765	-0.846
766	-0.85
766	-0.852
767	-0.867
767	-0.864
768	-0.862
768	-0.855
768	-0.851
769	-0.856
769	-0.864
770	-0.875
770	-0.881
771	-0.876
771	-0.876
771	-0.882
772	-0.885
772	-0.904
773	-0.905
773	-0.904
774	-0.901
774	-0.883
775	-0.869
775	-0.867
775	-0.872
776	-0.882
776	-0.878
777	-0.878
777	-0.862
778	-0.871
778	-0.879
778	-0.879
779	-0.888
779	-0.905
780	-0.9
780	-0.909
781	-0.9
781	-0.89
781	-0.905
782	-0.927
782	-0.928
783	-0.928
783	-0.936
784	-0.938
784	-0.932
784	-0.951
785	-0.945
785	-0.955
786	-0.959
786	-0.952
787	-0.939
787	-0.948
788	-0.94
788	-0.934
788	-0.937
789	-0.936
789	-0.927
790	-0.925
790	-0.909
791	-0.915
791	-0.909
791	-0.904
792	-0.899
792	-0.902
793	-0.905
793	-0.892
794	-0.886
794	-0.877
794	-0.887
795	-0.907
795	-0.895
796	-0.9
796	-0.896
797	-0.89
797	-0.88
797	-0.874
798	-0.894
798	-0.897
799	-0.898
799	-0.881
800	-0.877
800	-0.887
801	-0.884
801	-0.887
801	-0.883
802	-0.884
802	-0.885
803	-0.879
803	-0.873
804	-0.879
804	-0.888
804	-0.87
805	-0.851
805	-0.842
806	-0.843
806	-0.839
807	-0.84
807	-0.84
807	-0.823
808	-0.819
808	-0.812
809	-0.806
809	-0.806
810	-0.808
810	-0.805
810	-0.802
811	-0.806
811	-0.796
812	-0.788
812	-0.791
813	-0.795
813	-0.796
813	-0.793
814	-0.795
814	-0.801
815	-0.793
815	-0.789
816	-0.785
816	-0.802
817	-0.814
817	-0.816
817	-0.824
818	-0.817
818	-0.813
819	-0.822
819	-0.82
820	-0.832
820	-0.832
820	-0.832
821	-0.827
821	-0.822
822	-0.822
822	-0.809
823	-0.821
823	-0.821
823	-0.816
824	-0.814
824	-0.824
825	-0.823
825	-0.819
826	-0.814
826	-0.81
826	-0.812
827	-0.813
827	-0.803
828	-0.801
828	-0.793
829	-0.788
829	-0.773
829	-0.769
830	-0.769
830	-0.754
831	-0.747
831	-0.734
832	-0.724
832	-0.719
832	-0.712
833	-0.712
833	-0.715
834	-0.71
834	-0.704
835	-0.695
835	-0.695
835	-0.691
836	-0.688
836	-0.685
837	-0.674
837	-0.666
838	-0.654
838	-0.639
839	-0.633
839	-0.621
839	-0.611
840	-0.61
840	-0.598
841	-0.586
841	-0.578
842	-0.57
842	-0.557
842	-0.553
843	-0.551
843	-0.546
844	-0.542
844	-0.531
845	-0.517
845	-0.508
845	-0.498
846	-0.488
846	-0.476
847	-0.466
847	-0.453
848	-0.436
848	-0.419
848	-0.407
849	-0.393
849	-0.38
850	-0.37
850	-0.36
851	-0.345
851	-0.327
851	-0.316
852	-0.302
852	-0.289
853	-0.28
853	-0.268
854	-0.257
854	-0.246
854	-0.232
855	-0.22
855	-0.212
856	-0.204
856	-0.196
857	-0.188
857	-0.18
857	-0.167
858	-0.158
858	-0.15
859	-0.139
859	-0.128
860	-0.116
860	-0.102
860	-0.092
861	-0.081
861	-0.07
862	-0.062
862	-0.054
863	-0.045
863	-0.036
863	-0.029
864	-0.023
864	-0.016
865	-0.009
865	-0.003
866	0.003
866	0.008
866	0.014
867	0.02
867	0.026
868	0.03
868	0.036
869	0.041
869	0.044
869	0.047
870	0.048
870	0.05
871	0.052
871	0.053
872	0.055
872	0.056
872	0.057
873	0.057
873	0.056
874	0.056
874	0.055
875	0.055
875	0.055
875	0.055
876	0.055
876	0.054
877	0.054
877	0.053
878	0.052
878	0.052
878	0.052
879	0.051
879	0.051
880	0.051
880	0.05
881	0.048
881	0.047
881	0.047
882	0.045
882	0.044
883	0.042
883	0.041
884	0.041
884	0.04
884	0.04
885	0.039
885	0.039
886	0.039
886	0.038
887	0.037
887	0.037
887	0.036
888	0.036
888	0.035
889	0.034
889	0.033
890	0.032
890	0.032
890	0.031
891	0.031
891	0.031
892	0.032
892	0.032
893	0.032
893	0.032
893	0.031
894	0.031
894	0.031
895	0.031
895	0.03
895	0.031
896	0.031
896	0.031
897	0.031
897	0.031
898	0.031
898	0.031
898	0.032
899	0.032
899	0.033
900	0.033
900	0.032
901	0.032
901	0.031
901	0.031
902	0.031
902	0.031
903	0.03
903	0.03
904	0.029
904	0.029
904	0.03
905	0.03
905	0.031
906	0.031
906	0.032
907	0.033
907	0.033
907	0.033
908	0.034
908	0.035
909	0.035
909	0.035
910	0.036
910	0.036
910	0.036
911	0.037
911	0.037
912	0.038
912	0.039
913	0.039
913	0.04
913	0.04
914	0.041
914	0.041
915	0.041
915	0.041
916	0.041
916	0.041
916	0.041
917	0.041
917	0.041
918	0.041
918	0.041
918	0.04
919	0.04
919	0.04
920	0.041
920	0.041
921	0.042
921	0.043
921	0.043
922	0.044
922	0.044
923	0.044
923	0.045
924	0.044
924	0.044
924	0.043
925	0.042
925	0.041
926	0.04
926	0.039
927	0.037
927	0.036
927	0.036
928	0.035
928	0.035
929	0.035
929	0.035
930	0.036
930	0.036
930	0.037
931	0.038
931	0.039
932	0.041
932	0.042
933	0.042
933	0.043
933	0.043
934	0.042
934	0.042
935	0.042
935	0.041
935	0.039
936	0.038
936	0.037
937	0.035
937	0.034
938	0.034
938	0.033
938	0.032
939	0.032
939	0.031
940	0.03
940	0.03
941	0.029
941	0.028
941	0.028
942	0.027
942	0.026
943	0.026
943	0.025
944	0.024
944	0.023
944	0.022
945	0.022
945	0.022
946	0.021
946	0.02
946	0.02
947	0.02
947	0.021
948	0.021
948	0.022
949	0.023
949	0.025
949	0.027
950	0.028
950	0.029
951	0.031
951	0.032
952	0.033
952	0.034
952	0.035
953	0.036
953	0.036
954	0.036
954	0.035
955	0.035
955	0.035
955	0.035
956	0.034
956	0.033
957	0.032
957	0.031
957	0.03
958	0.03
958	0.029
959	0.029
959	0.028
960	0.028
960	0.028
960	0.028
961	0.028
961	0.029
962	0.029
962	0.029
963	0.029
963	0.029
963	0.03
964	0.03
964	0.03
965	0.03
965	0.031
966	0.031
966	0.031
966	0.031
967	0.031
967	0.031
968	0.031
968	0.031
968	0.031
969	0.031
969	0.031
970	0.03
970	0.03
971	0.03
971	0.03
971	0.03
972	0.03
972	0.031
973	0.031
973	0.031
974	0.031
974	0.031
974	0.031
975	0.031
975	0.031
976	0.031
976	0.031
976	0.031
977	0.03
977	0.03
978	0.029
978	0.029
979	0.028
979	0.028
979	0.028
980	0.028
980	0.028
981	0.027
981	0.028
982	0.028
982	0.028
982	0.028
983	0.028
983	0.028
984	0.027
984	0.027
984	0.026
985	0.026
985	0.026
986	0.025
986	0.024
987	0.023
987	0.022
987	0.022
988	0.021
988	0.02
989	0.019
989	0.019
990	0.018
990	0.017
990	0.016
991	0.016
991	0.015
992	0.014
992	0.013
992	0.013
993	0.012
993	0.011
994	0.01
994	0.009
995	0.008
995	0.006
995	0.005
996	0.003
996	0.002
997	0
997	-0
997	-0.001
998	-0.002
998	-0.002
999	-0.002
999	-0.002
1000	-0.001
1000	-0.001
1000	-0
1001	0.001
1001	0.001
1002	0.002
1002	0.002
1003	0.003
1003	0.003
1003	0.003
1004	0.003
1004	0.003
1005	0.002
1005	0.002
1005	0.001
1006	0
1006	-0.001
1007	-0.001
1007	-0.002
1008	-0.003
1008	-0.004
1008	-0.004
1009	-0.004
1009	-0.004
1010	-0.003
1010	-0.003
1010	-0.002
1011	-0.002
1011	-0.001
1012	0
1012	0.002
1013	0.003
1013	0.004
1013	0.005
1014	0.005
1014	0.006
1015	0.007
1015	0.007
1016	0.008
1016	0.008
1016	0.008
1017	0.007
1017	0.007
1018	0.007
1018	0.007
1018	0.007
1019	0.006
1019	0.006
1020	0.005
1020	0.005
1021	0.005
1021	0.004
1021	0.004
1022	0.003
1022	0.003
1023	0.004
1023	0.004
1023	0.004
1024	0.005
1024	0.005
1025	0.005
1025	0.006
1026	0.006
1026	0.006
1026	0.006
1027	0.007
1027	0.007
1028	0.007
1028	0.008
1028	0.008
1029	0.008
1029	0.008
1030	0.008
1030	0.007
1031	0.007
1031	0.008
1031	0.008
1032	0.008
1032	0.007
1033	0.007
1033	0.007
1033	0.007
1034	0.007
1034	0.006
1035	0.006
1035	0.006
1036	0.005
1036	0.005
1036	0.004
1037	0.004
1037	0.005
1038	0.005
1038	0.005
1039	0.005
1039	0.005
1039	0.006
1040	0.006
1040	0.006
1041	0.006
1041	0.006
1041	0.005
1042	0.004
1042	0.004
1043	0.003
1043	0.002
1044	0.001
1044	-0
1044	-0.001
1045	-0.002
1045	-0.002
1046	-0.003
1046	-0.003
1046	-0.003
1047	-0.003
1047	-0.004
1048	-0.003
1048	-0.003
1049	-0.003
1049	-0.003
1049	-0.003
1050	-0.004
1050	-0.004
1051	-0.005
1051	-0.005
1051	-0.006
1052	-0.006
1052	-0.007
1053	-0.008
1053	-0.008
1053	-0.009
1054	-0.009
1054	-0.01
1055	-0.009
1055	-0.009
1056	-0.01
1056	-0.01
1056	-0.011
1057	-0.011
1057	-0.011
1058	-0.012
1058	-0.012
1058	-0.012
1059	-0.013
1059	-0.013
1060	-0.014
1060	-0.014
1061	-0.015
1061	-0.015
1061	-0.015
1062	-0.015
1062	-0.016
1063	-0.016
1063	-0.016
1063	-0.015
1064	-0.015
1064	-0.015
1065	-0.014
1065	-0.014
1066	-0.014
1066	-0.015
1066	-0.015
1067	-0.015
1067	-0.016
1068	-0.017
1068	-0.018
1068	-0.019
1069	-0.019
1069	-0.02
1070	-0.021
1070	-0.022
1071	-0.022
1071	-0.022
1071	-0.023
1072	-0.023
1072	-0.023
1073	-0.023
1073	-0.023
1073	-0.023
1074	-0.023
1074	-0.023
1075	-0.024
1075	-0.025
1076	-0.026
1076	-0.026
1076	-0.027
1077	-0.028
1077	-0.029
1078	-0.03
1078	-0.031
1078	-0.032
1079	-0.032
1079	-0.032
1080	-0.034
1080	-0.034
1080	-0.036
1081	-0.036
1081	-0.037
1082	-0.038
1082	-0.039
1083	-0.041
1083	-0.041
1083	-0.043
1084	-0.044
1084	-0.045
1085	-0.046
1085	-0.047
1085	-0.048
1086	-0.049
1086	-0.05
1087	-0.051
1087	-0.052
1088	-0.053
1088	-0.054
1088	-0.054
1089	-0.056
1089	-0.057
1090	-0.057
1090	-0.058
1090	-0.059
1091	-0.06
1091	-0.06
1092	-0.06
1092	-0.06
1092	-0.061
1093	-0.061
1093	-0.062
1094	-0.062
1094	-0.063
1095	-0.065
1095	-0.065
1095	-0.066
1096	-0.068
1096	-0.07
1097	-0.071
1097	-0.073
1097	-0.074
1098	-0.076
1098	-0.079
1099	-0.08
1099	-0.082
1100	-0.084
1100	-0.087
1100	-0.091
1101	-0.094
1101	-0.096
1102	-0.099
1102	-0.102
1102	-0.103
1103	-0.106
1103	-0.11
1104	-0.113
1104	-0.116
1104	-0.117
1105	-0.118
1105	-0.121
1106	-0.126
1106	-0.128
1107	-0.133
1107	-0.138
1107	-0.143
1108	-0.144
1108	-0.145
1109	-0.148
1109	-0.153
1109	-0.159
1110	-0.161
1110	-0.164
1111	-0.175
1111	-0.172
