Data from 3.4A_17C_Absorbance__357__02269.txt Node

Date: Tue Jun 20 16:37:21 CEST 2023
User: Marek
Spectrometer: MAYP115816
Trigger mode: 0
Integration Time (sec): 2.200000E-1
Scans to average: 10
Electric dark correction enabled: true
Nonlinearity correction enabled: true
Boxcar width: 5
XAxis mode: Wavelengths
Number of Pixels in Spectrum: 2068
>>>>>Begin Spectral Data<<<<<
199	-0.791
199	-0.775
200	-0.74
200	-0.688
201	-0.662
201	-0.654
202	-0.639
202	-0.633
203	-0.632
203	-0.627
204	-0.607
204	-0.59
205	-0.568
205	-0.558
205	-0.564
206	-0.565
206	-0.562
207	-0.555
207	-0.56
208	-0.558
208	-0.563
209	-0.564
209	-0.571
210	-0.586
210	-0.594
211	-0.589
211	-0.594
212	-0.603
212	-0.609
213	-0.608
213	-0.605
213	-0.603
214	-0.61
214	-0.612
215	-0.607
215	-0.612
216	-0.622
216	-0.627
217	-0.625
217	-0.625
218	-0.632
218	-0.633
219	-0.64
219	-0.642
220	-0.646
220	-0.654
221	-0.653
221	-0.652
221	-0.643
222	-0.642
222	-0.64
223	-0.637
223	-0.641
224	-0.641
224	-0.638
225	-0.636
225	-0.635
226	-0.636
226	-0.637
227	-0.645
227	-0.655
228	-0.658
228	-0.666
229	-0.67
229	-0.668
229	-0.67
230	-0.665
230	-0.664
231	-0.661
231	-0.654
232	-0.657
232	-0.65
233	-0.65
233	-0.639
234	-0.639
234	-0.634
235	-0.638
235	-0.649
236	-0.656
236	-0.657
236	-0.659
237	-0.656
237	-0.657
238	-0.658
238	-0.66
239	-0.662
239	-0.67
240	-0.663
240	-0.659
241	-0.656
241	-0.659
242	-0.66
242	-0.671
243	-0.672
243	-0.674
243	-0.679
244	-0.676
244	-0.678
245	-0.682
245	-0.686
246	-0.695
246	-0.697
247	-0.705
247	-0.69
248	-0.69
248	-0.693
249	-0.699
249	-0.7
250	-0.698
250	-0.706
250	-0.703
251	-0.703
251	-0.699
252	-0.701
252	-0.712
253	-0.708
253	-0.717
254	-0.721
254	-0.722
255	-0.733
255	-0.731
256	-0.733
256	-0.746
257	-0.756
257	-0.752
258	-0.755
258	-0.762
258	-0.762
259	-0.756
259	-0.774
260	-0.771
260	-0.759
261	-0.771
261	-0.757
262	-0.763
262	-0.762
263	-0.753
263	-0.757
264	-0.765
264	-0.766
265	-0.757
265	-0.761
265	-0.772
266	-0.763
266	-0.761
267	-0.76
267	-0.776
268	-0.785
268	-0.781
269	-0.774
269	-0.788
270	-0.792
270	-0.793
271	-0.806
271	-0.815
272	-0.818
272	-0.822
272	-0.816
273	-0.823
273	-0.837
274	-0.829
274	-0.823
275	-0.819
275	-0.807
276	-0.811
276	-0.817
277	-0.818
277	-0.815
278	-0.818
278	-0.819
278	-0.807
279	-0.816
279	-0.83
280	-0.832
280	-0.842
281	-0.834
281	-0.826
282	-0.832
282	-0.828
283	-0.821
283	-0.836
284	-0.85
284	-0.861
285	-0.842
285	-0.848
285	-0.84
286	-0.847
286	-0.864
287	-0.862
287	-0.86
288	-0.859
288	-0.842
289	-0.841
289	-0.847
290	-0.855
290	-0.844
291	-0.85
291	-0.846
292	-0.825
292	-0.821
292	-0.826
293	-0.813
293	-0.806
294	-0.805
294	-0.793
295	-0.776
295	-0.786
296	-0.797
296	-0.79
297	-0.781
297	-0.786
298	-0.78
298	-0.799
298	-0.805
299	-0.785
299	-0.779
300	-0.775
300	-0.756
301	-0.736
301	-0.74
302	-0.75
302	-0.734
303	-0.728
303	-0.714
304	-0.696
304	-0.699
305	-0.691
305	-0.7
305	-0.717
306	-0.701
306	-0.698
307	-0.689
307	-0.702
308	-0.706
308	-0.702
309	-0.704
309	-0.702
310	-0.7
310	-0.694
311	-0.678
311	-0.698
311	-0.688
312	-0.686
312	-0.675
313	-0.666
313	-0.667
314	-0.671
314	-0.666
315	-0.661
315	-0.656
316	-0.65
316	-0.64
317	-0.63
317	-0.627
318	-0.616
318	-0.613
318	-0.602
319	-0.594
319	-0.586
320	-0.585
320	-0.583
321	-0.578
321	-0.578
322	-0.574
322	-0.568
323	-0.568
323	-0.559
324	-0.556
324	-0.544
324	-0.533
325	-0.516
325	-0.498
326	-0.489
326	-0.463
327	-0.446
327	-0.424
328	-0.392
328	-0.37
329	-0.343
329	-0.314
330	-0.286
330	-0.251
330	-0.215
331	-0.178
331	-0.144
332	-0.109
332	-0.073
333	-0.041
333	-0.005
334	0.026
334	0.052
335	0.081
335	0.105
336	0.128
336	0.151
336	0.17
337	0.189
337	0.207
338	0.221
338	0.233
339	0.248
339	0.261
340	0.27
340	0.279
341	0.287
341	0.293
342	0.301
342	0.307
342	0.312
343	0.316
343	0.322
344	0.324
344	0.328
345	0.331
345	0.334
346	0.336
346	0.339
347	0.34
347	0.342
348	0.344
348	0.346
348	0.346
349	0.347
349	0.348
350	0.349
350	0.35
351	0.35
351	0.351
352	0.351
352	0.351
353	0.351
353	0.352
354	0.352
354	0.352
354	0.352
355	0.352
355	0.352
356	0.352
356	0.352
357	0.353
357	0.353
358	0.353
358	0.353
359	0.353
359	0.353
360	0.354
360	0.354
360	0.354
361	0.354
361	0.353
362	0.353
362	0.353
363	0.353
363	0.353
364	0.353
364	0.352
365	0.353
365	0.352
366	0.353
366	0.352
366	0.352
367	0.352
367	0.352
368	0.352
368	0.351
369	0.351
369	0.351
370	0.351
370	0.35
371	0.35
371	0.35
372	0.349
372	0.349
372	0.349
373	0.349
373	0.348
374	0.348
374	0.348
375	0.348
375	0.347
376	0.347
376	0.347
377	0.347
377	0.346
378	0.346
378	0.346
378	0.345
379	0.345
379	0.345
380	0.345
380	0.344
381	0.344
381	0.344
382	0.343
382	0.343
383	0.343
383	0.342
383	0.342
384	0.341
384	0.341
385	0.341
385	0.341
386	0.34
386	0.34
387	0.34
387	0.34
388	0.339
388	0.339
389	0.339
389	0.339
389	0.338
390	0.338
390	0.338
391	0.338
391	0.338
392	0.337
392	0.337
393	0.337
393	0.337
394	0.336
394	0.336
394	0.336
395	0.336
395	0.335
396	0.335
396	0.334
397	0.334
397	0.333
398	0.333
398	0.333
399	0.332
399	0.332
400	0.332
400	0.331
400	0.331
401	0.331
401	0.33
402	0.33
402	0.33
403	0.33
403	0.33
404	0.329
404	0.329
405	0.328
405	0.328
405	0.328
406	0.327
406	0.327
407	0.327
407	0.327
408	0.326
408	0.326
409	0.326
409	0.326
410	0.326
410	0.326
411	0.326
411	0.326
411	0.325
412	0.325
412	0.324
413	0.324
413	0.324
414	0.323
414	0.323
415	0.323
415	0.323
416	0.322
416	0.322
416	0.322
417	0.321
417	0.321
418	0.321
418	0.321
419	0.321
419	0.321
420	0.32
420	0.32
421	0.32
421	0.32
421	0.32
422	0.32
422	0.32
423	0.32
423	0.32
424	0.319
424	0.319
425	0.319
425	0.319
426	0.319
426	0.319
427	0.319
427	0.319
427	0.319
428	0.319
428	0.318
429	0.318
429	0.318
430	0.318
430	0.317
431	0.317
431	0.317
432	0.316
432	0.316
432	0.316
433	0.316
433	0.316
434	0.316
434	0.316
435	0.316
435	0.316
436	0.316
436	0.316
437	0.316
437	0.315
437	0.315
438	0.315
438	0.315
439	0.315
439	0.315
440	0.314
440	0.314
441	0.314
441	0.314
442	0.314
442	0.314
442	0.314
443	0.314
443	0.314
444	0.314
444	0.314
445	0.314
445	0.314
446	0.314
446	0.314
447	0.314
447	0.314
447	0.314
448	0.314
448	0.314
449	0.314
449	0.314
450	0.315
450	0.315
451	0.314
451	0.315
452	0.315
452	0.315
452	0.315
453	0.315
453	0.315
454	0.315
454	0.315
455	0.315
455	0.316
456	0.316
456	0.316
457	0.316
457	0.316
458	0.316
458	0.315
458	0.316
459	0.316
459	0.315
460	0.315
460	0.315
461	0.315
461	0.316
462	0.316
462	0.317
463	0.317
463	0.318
463	0.319
464	0.319
464	0.32
465	0.32
465	0.321
466	0.321
466	0.322
467	0.322
467	0.322
467	0.322
468	0.322
468	0.322
469	0.323
469	0.323
470	0.324
470	0.324
471	0.324
471	0.324
472	0.325
472	0.326
472	0.326
473	0.327
473	0.328
474	0.329
474	0.329
475	0.33
475	0.331
476	0.332
476	0.333
477	0.334
477	0.334
477	0.335
478	0.336
478	0.337
479	0.338
479	0.339
480	0.339
480	0.34
481	0.341
481	0.342
482	0.343
482	0.344
482	0.345
483	0.347
483	0.349
484	0.351
484	0.352
485	0.353
485	0.355
486	0.356
486	0.357
487	0.359
487	0.36
487	0.361
488	0.362
488	0.363
489	0.365
489	0.367
490	0.368
490	0.37
491	0.372
491	0.373
492	0.375
492	0.377
492	0.379
493	0.38
493	0.382
494	0.385
494	0.387
495	0.389
495	0.391
496	0.393
496	0.395
496	0.398
497	0.4
497	0.402
498	0.405
498	0.407
499	0.409
499	0.412
500	0.415
500	0.418
501	0.42
501	0.423
501	0.425
502	0.427
502	0.43
503	0.433
503	0.435
504	0.438
504	0.44
505	0.443
505	0.446
506	0.449
506	0.452
506	0.455
507	0.458
507	0.462
508	0.465
508	0.469
509	0.472
509	0.475
510	0.478
510	0.481
511	0.484
511	0.486
511	0.489
512	0.491
512	0.494
513	0.496
513	0.498
514	0.5
514	0.503
515	0.505
515	0.507
515	0.509
516	0.511
516	0.514
517	0.516
517	0.518
518	0.52
518	0.522
519	0.524
519	0.525
520	0.527
520	0.529
520	0.53
521	0.531
521	0.533
522	0.534
522	0.536
523	0.537
523	0.538
524	0.539
524	0.54
524	0.542
525	0.543
525	0.544
526	0.545
526	0.546
527	0.546
527	0.546
528	0.547
528	0.547
529	0.547
529	0.547
529	0.547
530	0.546
530	0.546
531	0.546
531	0.545
532	0.544
532	0.544
533	0.543
533	0.543
533	0.542
534	0.541
534	0.54
535	0.539
535	0.539
536	0.538
536	0.536
537	0.536
537	0.534
538	0.533
538	0.531
538	0.529
539	0.528
539	0.526
540	0.524
540	0.522
541	0.52
541	0.518
542	0.516
542	0.513
542	0.511
543	0.508
543	0.505
544	0.502
544	0.5
545	0.498
545	0.495
546	0.493
546	0.489
547	0.486
547	0.483
547	0.481
548	0.479
548	0.476
549	0.474
549	0.472
550	0.469
550	0.466
551	0.463
551	0.461
551	0.458
552	0.455
552	0.452
553	0.449
553	0.447
554	0.444
554	0.44
555	0.437
555	0.434
556	0.431
556	0.427
556	0.424
557	0.422
557	0.419
558	0.416
558	0.413
559	0.41
559	0.407
560	0.404
560	0.401
560	0.398
561	0.396
561	0.394
562	0.391
562	0.388
563	0.386
563	0.383
564	0.381
564	0.379
564	0.377
565	0.375
565	0.373
566	0.37
566	0.368
567	0.366
567	0.364
568	0.362
568	0.359
568	0.357
569	0.355
569	0.352
570	0.349
570	0.346
571	0.344
571	0.342
572	0.339
572	0.337
573	0.334
573	0.331
573	0.329
574	0.327
574	0.325
575	0.323
575	0.323
576	0.322
576	0.319
577	0.316
577	0.315
577	0.314
578	0.313
578	0.312
579	0.312
579	0.311
580	0.308
580	0.304
581	0.301
581	0.299
581	0.299
582	0.298
582	0.297
583	0.296
583	0.294
584	0.291
584	0.288
585	0.288
585	0.288
585	0.287
586	0.286
586	0.284
587	0.282
587	0.279
588	0.277
588	0.276
589	0.274
589	0.273
590	0.271
590	0.27
590	0.27
591	0.268
591	0.266
592	0.265
592	0.263
593	0.262
593	0.26
594	0.259
594	0.257
594	0.256
595	0.255
595	0.252
596	0.25
596	0.25
597	0.251
597	0.25
598	0.249
598	0.248
598	0.247
599	0.247
599	0.245
600	0.244
600	0.244
601	0.244
601	0.243
602	0.241
602	0.241
602	0.239
603	0.239
603	0.239
604	0.238
604	0.237
605	0.237
605	0.237
606	0.235
606	0.233
606	0.232
607	0.23
607	0.23
608	0.228
608	0.226
609	0.225
609	0.224
610	0.223
610	0.221
610	0.221
611	0.22
611	0.22
612	0.219
612	0.218
613	0.218
613	0.217
614	0.215
614	0.213
614	0.212
615	0.21
615	0.208
616	0.207
616	0.206
617	0.205
617	0.204
618	0.203
618	0.202
618	0.201
619	0.2
619	0.2
620	0.2
620	0.199
621	0.197
621	0.196
622	0.194
622	0.193
622	0.191
623	0.189
623	0.188
624	0.188
624	0.186
625	0.184
625	0.184
626	0.182
626	0.181
626	0.181
627	0.18
627	0.179
628	0.178
628	0.177
629	0.176
629	0.175
630	0.173
630	0.171
630	0.17
631	0.168
631	0.166
632	0.164
632	0.162
633	0.16
633	0.157
634	0.156
634	0.154
634	0.152
635	0.149
635	0.147
636	0.144
636	0.141
637	0.139
637	0.136
638	0.133
638	0.13
638	0.126
639	0.122
639	0.118
640	0.114
640	0.11
641	0.106
641	0.102
642	0.097
642	0.093
642	0.088
643	0.084
643	0.078
644	0.073
644	0.068
645	0.063
645	0.058
646	0.053
646	0.047
646	0.04
647	0.034
647	0.027
648	0.02
648	0.013
649	0.006
649	-0.001
650	-0.008
650	-0.015
650	-0.023
651	-0.032
651	-0.043
652	-0.057
652	-0.071
653	-0.083
653	-0.093
653	-0.088
654	-0.068
654	-0.063
655	-0.067
655	-0.072
656	-0.077
656	-0.083
657	-0.088
657	-0.091
657	-0.097
658	-0.103
658	-0.134
659	-0.217
659	-0.303
660	-0.34
660	-0.365
661	-0.39
661	-0.419
661	-0.447
662	-0.474
662	-0.502
663	-0.533
663	-0.569
664	-0.602
664	-0.64
665	-0.683
665	-0.726
665	-0.767
666	-0.814
666	-0.864
667	-0.916
667	-0.975
668	-1.031
668	-1.097
669	-1.162
669	-1.232
669	-1.307
670	-1.384
670	-1.486
671	-1.635
671	-1.921
672	-2.232
672	-2.419
672	-2.553
673	-2.657
673	-2.743
674	-2.808
674	-2.825
675	-2.842
675	-2.846
676	-2.846
676	-2.816
676	-2.747
677	-2.662
677	-2.56
678	-2.408
678	-2.158
679	-1.755
679	-1.572
680	-1.467
680	-1.391
680	-1.323
681	-1.276
681	-1.224
682	-1.182
682	-1.141
683	-1.099
683	-1.076
684	-1.05
684	-1.032
684	-1.011
685	-0.993
685	-0.984
686	-0.962
686	-0.95
687	-0.942
687	-0.932
687	-0.932
688	-0.917
688	-0.91
689	-0.913
689	-0.91
690	-0.896
690	-0.886
691	-0.884
691	-0.889
691	-0.889
692	-0.888
692	-0.885
693	-0.892
693	-0.903
694	-0.882
694	-0.881
695	-0.885
695	-0.879
695	-0.886
696	-0.891
696	-0.883
697	-0.877
697	-0.873
698	-0.871
698	-0.864
698	-0.88
699	-0.878
699	-0.877
700	-0.898
700	-0.892
701	-0.878
701	-0.874
702	-0.875
702	-0.873
702	-0.872
703	-0.862
703	-0.849
704	-0.859
704	-0.863
705	-0.85
705	-0.85
705	-0.846
706	-0.839
706	-0.836
707	-0.848
707	-0.852
708	-0.849
708	-0.848
709	-0.849
709	-0.844
709	-0.841
710	-0.848
710	-0.853
711	-0.852
711	-0.853
712	-0.845
712	-0.843
713	-0.849
713	-0.85
713	-0.83
714	-0.833
714	-0.838
715	-0.83
715	-0.836
716	-0.851
716	-0.86
716	-0.861
717	-0.868
717	-0.859
718	-0.853
718	-0.854
719	-0.85
719	-0.84
720	-0.836
720	-0.832
720	-0.827
721	-0.818
721	-0.822
722	-0.818
722	-0.814
723	-0.83
723	-0.843
723	-0.851
724	-0.85
724	-0.854
725	-0.847
725	-0.849
726	-0.851
726	-0.841
727	-0.842
727	-0.849
727	-0.838
728	-0.827
728	-0.823
729	-0.828
729	-0.831
730	-0.837
730	-0.83
730	-0.837
731	-0.841
731	-0.843
732	-0.846
732	-0.842
733	-0.857
733	-0.863
734	-0.87
734	-0.861
734	-0.843
735	-0.834
735	-0.827
736	-0.827
736	-0.82
737	-0.819
737	-0.808
737	-0.8
738	-0.787
738	-0.774
739	-0.778
739	-0.779
740	-0.792
740	-0.793
741	-0.802
741	-0.813
741	-0.824
742	-0.831
742	-0.846
743	-0.851
743	-0.854
744	-0.857
744	-0.864
744	-0.858
745	-0.866
745	-0.855
746	-0.85
746	-0.841
747	-0.844
747	-0.834
748	-0.836
748	-0.84
748	-0.842
749	-0.835
749	-0.841
750	-0.833
750	-0.835
751	-0.833
751	-0.83
751	-0.84
752	-0.844
752	-0.847
753	-0.85
753	-0.841
754	-0.86
754	-0.859
754	-0.864
755	-0.864
755	-0.857
756	-0.861
756	-0.847
757	-0.84
757	-0.831
758	-0.831
758	-0.832
758	-0.829
759	-0.835
759	-0.837
760	-0.835
760	-0.837
761	-0.83
761	-0.833
761	-0.834
762	-0.838
762	-0.839
763	-0.839
763	-0.841
764	-0.838
764	-0.833
764	-0.839
765	-0.839
765	-0.845
766	-0.848
766	-0.85
767	-0.865
767	-0.86
768	-0.86
768	-0.853
768	-0.849
769	-0.853
769	-0.861
770	-0.87
770	-0.876
771	-0.874
771	-0.872
771	-0.874
772	-0.879
772	-0.899
773	-0.9
773	-0.899
774	-0.896
774	-0.878
775	-0.865
775	-0.865
775	-0.866
776	-0.877
776	-0.876
777	-0.876
777	-0.859
778	-0.868
778	-0.878
778	-0.877
779	-0.886
779	-0.902
780	-0.898
780	-0.908
781	-0.9
781	-0.89
781	-0.904
782	-0.925
782	-0.927
783	-0.926
783	-0.935
784	-0.939
784	-0.931
784	-0.95
785	-0.944
785	-0.955
786	-0.958
786	-0.95
787	-0.939
787	-0.944
788	-0.937
788	-0.93
788	-0.931
789	-0.933
789	-0.92
790	-0.919
790	-0.903
791	-0.911
791	-0.908
791	-0.9
792	-0.896
792	-0.902
793	-0.905
793	-0.894
794	-0.886
794	-0.881
794	-0.887
795	-0.907
795	-0.892
796	-0.896
796	-0.893
797	-0.886
797	-0.877
797	-0.87
798	-0.89
798	-0.897
799	-0.896
799	-0.881
800	-0.876
800	-0.887
801	-0.885
801	-0.889
801	-0.886
802	-0.885
802	-0.884
803	-0.877
803	-0.868
804	-0.874
804	-0.884
804	-0.867
805	-0.848
805	-0.84
806	-0.84
806	-0.835
807	-0.836
807	-0.837
807	-0.821
808	-0.818
808	-0.812
809	-0.805
809	-0.805
810	-0.807
810	-0.803
810	-0.799
811	-0.803
811	-0.795
812	-0.788
812	-0.79
813	-0.793
813	-0.794
813	-0.79
814	-0.791
814	-0.797
815	-0.787
815	-0.784
816	-0.781
816	-0.797
817	-0.809
817	-0.812
817	-0.822
818	-0.815
818	-0.813
819	-0.825
819	-0.824
820	-0.837
820	-0.835
820	-0.834
821	-0.828
821	-0.825
822	-0.826
822	-0.813
823	-0.825
823	-0.823
823	-0.816
824	-0.814
824	-0.824
825	-0.824
825	-0.822
826	-0.817
826	-0.812
826	-0.811
827	-0.811
827	-0.8
828	-0.799
828	-0.793
829	-0.785
829	-0.77
829	-0.766
830	-0.764
830	-0.749
831	-0.742
831	-0.731
832	-0.722
832	-0.717
832	-0.709
833	-0.708
833	-0.715
834	-0.71
834	-0.706
835	-0.697
835	-0.696
835	-0.693
836	-0.69
836	-0.686
837	-0.676
837	-0.668
838	-0.656
838	-0.637
839	-0.633
839	-0.618
839	-0.609
840	-0.609
840	-0.598
841	-0.586
841	-0.579
842	-0.571
842	-0.558
842	-0.555
843	-0.552
843	-0.547
844	-0.545
844	-0.534
845	-0.519
845	-0.51
845	-0.498
846	-0.487
846	-0.476
847	-0.466
847	-0.453
848	-0.438
848	-0.421
848	-0.406
849	-0.393
849	-0.381
850	-0.371
850	-0.361
851	-0.348
851	-0.331
851	-0.322
852	-0.305
852	-0.292
853	-0.284
853	-0.274
854	-0.264
854	-0.253
854	-0.24
855	-0.229
855	-0.22
856	-0.212
856	-0.204
857	-0.197
857	-0.189
857	-0.176
858	-0.164
858	-0.156
859	-0.145
859	-0.133
860	-0.122
860	-0.107
860	-0.097
861	-0.087
861	-0.076
862	-0.067
862	-0.059
863	-0.052
863	-0.043
863	-0.036
864	-0.031
864	-0.024
865	-0.017
865	-0.011
866	-0.005
866	0
866	0.006
867	0.012
867	0.017
868	0.022
868	0.027
869	0.032
869	0.036
869	0.038
870	0.04
870	0.042
871	0.043
871	0.045
872	0.046
872	0.047
872	0.048
873	0.048
873	0.048
874	0.047
874	0.047
875	0.047
875	0.047
875	0.046
876	0.046
876	0.046
877	0.046
877	0.045
878	0.044
878	0.044
878	0.044
879	0.044
879	0.043
880	0.043
880	0.042
881	0.041
881	0.04
881	0.039
882	0.038
882	0.036
883	0.035
883	0.033
884	0.033
884	0.032
884	0.032
885	0.031
885	0.031
886	0.03
886	0.03
887	0.029
887	0.029
887	0.028
888	0.028
888	0.028
889	0.027
889	0.026
890	0.026
890	0.025
890	0.025
891	0.025
891	0.024
892	0.025
892	0.024
893	0.025
893	0.025
893	0.024
894	0.025
894	0.024
895	0.024
895	0.024
895	0.024
896	0.024
896	0.024
897	0.024
897	0.024
898	0.024
898	0.024
898	0.025
899	0.025
899	0.026
900	0.026
900	0.025
901	0.025
901	0.024
901	0.024
902	0.023
902	0.024
903	0.023
903	0.023
904	0.023
904	0.023
904	0.023
905	0.023
905	0.024
906	0.025
906	0.026
907	0.026
907	0.026
907	0.027
908	0.027
908	0.028
909	0.028
909	0.028
910	0.028
910	0.029
910	0.029
911	0.029
911	0.03
912	0.03
912	0.031
913	0.032
913	0.032
913	0.033
914	0.033
914	0.033
915	0.034
915	0.034
916	0.034
916	0.034
916	0.034
917	0.034
917	0.034
918	0.033
918	0.033
918	0.033
919	0.033
919	0.033
920	0.033
920	0.034
921	0.035
921	0.035
921	0.036
922	0.037
922	0.037
923	0.038
923	0.038
924	0.038
924	0.037
924	0.037
925	0.035
925	0.034
926	0.033
926	0.032
927	0.03
927	0.029
927	0.028
928	0.028
928	0.028
929	0.028
929	0.028
930	0.029
930	0.029
930	0.03
931	0.031
931	0.032
932	0.033
932	0.034
933	0.035
933	0.035
933	0.036
934	0.035
934	0.035
935	0.034
935	0.033
935	0.032
936	0.031
936	0.03
937	0.029
937	0.028
938	0.027
938	0.026
938	0.025
939	0.025
939	0.024
940	0.023
940	0.023
941	0.022
941	0.021
941	0.021
942	0.02
942	0.019
943	0.019
943	0.019
944	0.018
944	0.017
944	0.017
945	0.016
945	0.016
946	0.015
946	0.015
946	0.015
947	0.015
947	0.015
948	0.015
948	0.016
949	0.017
949	0.018
949	0.02
950	0.021
950	0.023
951	0.025
951	0.026
952	0.026
952	0.028
952	0.028
953	0.029
953	0.029
954	0.029
954	0.029
955	0.029
955	0.028
955	0.028
956	0.028
956	0.027
957	0.026
957	0.025
957	0.024
958	0.024
958	0.023
959	0.023
959	0.022
960	0.022
960	0.022
960	0.022
961	0.022
961	0.022
962	0.022
962	0.023
963	0.023
963	0.023
963	0.023
964	0.023
964	0.024
965	0.024
965	0.024
966	0.024
966	0.025
966	0.025
967	0.025
967	0.025
968	0.025
968	0.025
968	0.025
969	0.025
969	0.025
970	0.024
970	0.024
971	0.024
971	0.024
971	0.024
972	0.025
972	0.025
973	0.025
973	0.025
974	0.025
974	0.025
974	0.026
975	0.026
975	0.026
976	0.026
976	0.026
976	0.026
977	0.025
977	0.025
978	0.024
978	0.024
979	0.023
979	0.023
979	0.023
980	0.022
980	0.022
981	0.022
981	0.022
982	0.022
982	0.022
982	0.022
983	0.022
983	0.022
984	0.022
984	0.021
984	0.021
985	0.02
985	0.02
986	0.019
986	0.018
987	0.017
987	0.017
987	0.016
988	0.015
988	0.015
989	0.014
989	0.013
990	0.012
990	0.011
990	0.011
991	0.01
991	0.009
992	0.009
992	0.008
992	0.007
993	0.007
993	0.006
994	0.005
994	0.003
995	0.002
995	0.001
995	-0
996	-0.002
996	-0.004
997	-0.005
997	-0.006
997	-0.007
998	-0.007
998	-0.007
999	-0.007
999	-0.007
1000	-0.006
1000	-0.006
1000	-0.005
1001	-0.004
1001	-0.004
1002	-0.003
1002	-0.003
1003	-0.002
1003	-0.002
1003	-0.003
1004	-0.003
1004	-0.003
1005	-0.003
1005	-0.004
1005	-0.005
1006	-0.006
1006	-0.006
1007	-0.007
1007	-0.008
1008	-0.009
1008	-0.009
1008	-0.009
1009	-0.009
1009	-0.009
1010	-0.009
1010	-0.008
1010	-0.007
1011	-0.006
1011	-0.006
1012	-0.005
1012	-0.004
1013	-0.002
1013	-0.001
1013	-0.001
1014	0
1014	0.001
1015	0.001
1015	0.002
1016	0.002
1016	0.002
1016	0.002
1017	0.002
1017	0.002
1018	0.002
1018	0.001
1018	0.001
1019	0.001
1019	0.001
1020	0
1020	-0
1021	-0.001
1021	-0.001
1021	-0.001
1022	-0.002
1022	-0.002
1023	-0.001
1023	-0.002
1023	-0.001
1024	-0.001
1024	-0.001
1025	-0.001
1025	0
1026	0.001
1026	0.001
1026	0.001
1027	0.002
1027	0.002
1028	0.003
1028	0.003
1028	0.003
1029	0.003
1029	0.004
1030	0.003
1030	0.003
1031	0.003
1031	0.003
1031	0.003
1032	0.003
1032	0.003
1033	0.003
1033	0.003
1033	0.002
1034	0.002
1034	0.001
1035	0.001
1035	0
1036	-0
1036	-0.001
1036	-0.001
1037	-0.001
1037	-0.001
1038	-0.001
1038	-0.001
1039	-0
1039	-0
1039	0
1040	0.001
1040	0.002
1041	0.001
1041	0.001
1041	0.001
1042	0
1042	-0.001
1043	-0.002
1043	-0.002
1044	-0.003
1044	-0.004
1044	-0.005
1045	-0.006
1045	-0.007
1046	-0.007
1046	-0.008
1046	-0.008
1047	-0.008
1047	-0.008
1048	-0.007
1048	-0.007
1049	-0.007
1049	-0.008
1049	-0.007
1050	-0.008
1050	-0.009
1051	-0.01
1051	-0.01
1051	-0.01
1052	-0.011
1052	-0.012
1053	-0.013
1053	-0.013
1053	-0.014
1054	-0.015
1054	-0.015
1055	-0.015
1055	-0.014
1056	-0.015
1056	-0.015
1056	-0.015
1057	-0.015
1057	-0.016
1058	-0.016
1058	-0.016
1058	-0.016
1059	-0.016
1059	-0.017
1060	-0.018
1060	-0.018
1061	-0.018
1061	-0.018
1061	-0.018
1062	-0.018
1062	-0.018
1063	-0.018
1063	-0.019
1063	-0.018
1064	-0.018
1064	-0.018
1065	-0.018
1065	-0.018
1066	-0.018
1066	-0.018
1066	-0.019
1067	-0.019
1067	-0.02
1068	-0.021
1068	-0.022
1068	-0.022
1069	-0.023
1069	-0.024
1070	-0.025
1070	-0.025
1071	-0.026
1071	-0.026
1071	-0.027
1072	-0.027
1072	-0.027
1073	-0.027
1073	-0.027
1073	-0.028
1074	-0.028
1074	-0.028
1075	-0.029
1075	-0.029
1076	-0.03
1076	-0.03
1076	-0.031
1077	-0.032
1077	-0.033
1078	-0.033
1078	-0.034
1078	-0.034
1079	-0.035
1079	-0.035
1080	-0.036
1080	-0.037
1080	-0.039
1081	-0.04
1081	-0.041
1082	-0.042
1082	-0.043
1083	-0.045
1083	-0.046
1083	-0.047
1084	-0.048
1084	-0.049
1085	-0.05
1085	-0.051
1085	-0.051
1086	-0.052
1086	-0.054
1087	-0.055
1087	-0.055
1088	-0.057
1088	-0.057
1088	-0.058
1089	-0.059
1089	-0.06
1090	-0.06
1090	-0.061
1090	-0.062
1091	-0.063
1091	-0.063
1092	-0.063
1092	-0.063
1092	-0.064
1093	-0.065
1093	-0.065
1094	-0.066
1094	-0.067
1095	-0.068
1095	-0.068
1095	-0.069
1096	-0.071
1096	-0.072
1097	-0.074
1097	-0.076
1097	-0.077
1098	-0.08
1098	-0.082
1099	-0.084
1099	-0.087
1100	-0.089
1100	-0.092
1100	-0.095
1101	-0.098
1101	-0.101
1102	-0.103
1102	-0.105
1102	-0.106
1103	-0.109
1103	-0.112
1104	-0.114
1104	-0.117
1104	-0.119
1105	-0.121
1105	-0.124
1106	-0.128
1106	-0.131
1107	-0.138
1107	-0.143
1107	-0.148
1108	-0.15
1108	-0.152
1109	-0.156
1109	-0.16
1109	-0.165
1110	-0.167
1110	-0.171
1111	-0.181
1111	-0.172
