Data from 3.4A_17C_Absorbance__226__02138.txt Node

Date: Tue Jun 20 16:32:33 CEST 2023
User: Marek
Spectrometer: MAYP115816
Trigger mode: 0
Integration Time (sec): 2.200000E-1
Scans to average: 10
Electric dark correction enabled: true
Nonlinearity correction enabled: true
Boxcar width: 5
XAxis mode: Wavelengths
Number of Pixels in Spectrum: 2068
>>>>>Begin Spectral Data<<<<<
199	-0.798
199	-0.776
200	-0.745
200	-0.689
201	-0.662
201	-0.654
202	-0.639
202	-0.633
203	-0.63
203	-0.622
204	-0.603
204	-0.587
205	-0.566
205	-0.554
205	-0.565
206	-0.566
206	-0.563
207	-0.554
207	-0.561
208	-0.565
208	-0.57
209	-0.571
209	-0.577
210	-0.589
210	-0.597
211	-0.589
211	-0.593
212	-0.601
212	-0.609
213	-0.604
213	-0.598
213	-0.596
214	-0.603
214	-0.605
215	-0.603
215	-0.608
216	-0.618
216	-0.624
217	-0.622
217	-0.621
218	-0.63
218	-0.632
219	-0.637
219	-0.638
220	-0.64
220	-0.647
221	-0.647
221	-0.648
221	-0.64
222	-0.641
222	-0.64
223	-0.636
223	-0.637
224	-0.638
224	-0.637
225	-0.635
225	-0.636
226	-0.636
226	-0.636
227	-0.643
227	-0.653
228	-0.656
228	-0.663
229	-0.669
229	-0.666
229	-0.668
230	-0.662
230	-0.66
231	-0.657
231	-0.651
232	-0.652
232	-0.646
233	-0.646
233	-0.636
234	-0.636
234	-0.633
235	-0.635
235	-0.647
236	-0.654
236	-0.655
236	-0.654
237	-0.653
237	-0.654
238	-0.653
238	-0.655
239	-0.657
239	-0.667
240	-0.659
240	-0.655
241	-0.652
241	-0.655
242	-0.66
242	-0.668
243	-0.668
243	-0.671
243	-0.675
244	-0.67
244	-0.671
245	-0.676
245	-0.678
246	-0.687
246	-0.689
247	-0.695
247	-0.682
248	-0.681
248	-0.683
249	-0.688
249	-0.692
250	-0.689
250	-0.697
250	-0.696
251	-0.694
251	-0.692
252	-0.693
252	-0.705
253	-0.699
253	-0.712
254	-0.718
254	-0.718
255	-0.73
255	-0.728
256	-0.73
256	-0.744
257	-0.753
257	-0.75
258	-0.752
258	-0.76
258	-0.755
259	-0.747
259	-0.765
260	-0.764
260	-0.752
261	-0.763
261	-0.749
262	-0.756
262	-0.756
263	-0.747
263	-0.753
264	-0.763
264	-0.765
265	-0.757
265	-0.759
265	-0.77
266	-0.762
266	-0.763
267	-0.762
267	-0.778
268	-0.786
268	-0.779
269	-0.771
269	-0.786
270	-0.79
270	-0.788
271	-0.802
271	-0.813
272	-0.813
272	-0.816
272	-0.81
273	-0.82
273	-0.835
274	-0.828
274	-0.822
275	-0.819
275	-0.806
276	-0.809
276	-0.814
277	-0.816
277	-0.813
278	-0.818
278	-0.817
278	-0.805
279	-0.814
279	-0.828
280	-0.83
280	-0.842
281	-0.835
281	-0.826
282	-0.832
282	-0.828
283	-0.819
283	-0.834
284	-0.848
284	-0.858
285	-0.839
285	-0.845
285	-0.837
286	-0.843
286	-0.86
287	-0.858
287	-0.854
288	-0.852
288	-0.833
289	-0.832
289	-0.838
290	-0.846
290	-0.834
291	-0.838
291	-0.836
292	-0.816
292	-0.813
292	-0.818
293	-0.808
293	-0.805
294	-0.803
294	-0.79
295	-0.774
295	-0.785
296	-0.796
296	-0.792
297	-0.78
297	-0.785
298	-0.779
298	-0.795
298	-0.798
299	-0.779
299	-0.773
300	-0.767
300	-0.749
301	-0.731
301	-0.732
302	-0.744
302	-0.729
303	-0.723
303	-0.711
304	-0.694
304	-0.698
305	-0.69
305	-0.698
305	-0.713
306	-0.697
306	-0.695
307	-0.685
307	-0.696
308	-0.7
308	-0.695
309	-0.697
309	-0.695
310	-0.692
310	-0.686
311	-0.674
311	-0.693
311	-0.679
312	-0.676
312	-0.665
313	-0.656
313	-0.657
314	-0.661
314	-0.659
315	-0.657
315	-0.652
316	-0.645
316	-0.635
317	-0.629
317	-0.625
318	-0.618
318	-0.614
318	-0.604
319	-0.594
319	-0.585
320	-0.583
320	-0.581
321	-0.576
321	-0.577
322	-0.571
322	-0.564
323	-0.564
323	-0.556
324	-0.554
324	-0.542
324	-0.53
325	-0.515
325	-0.495
326	-0.487
326	-0.459
327	-0.442
327	-0.419
328	-0.386
328	-0.362
329	-0.332
329	-0.301
330	-0.271
330	-0.234
330	-0.199
331	-0.159
331	-0.124
332	-0.087
332	-0.053
333	-0.022
333	0.014
334	0.045
334	0.072
335	0.101
335	0.125
336	0.151
336	0.173
336	0.192
337	0.211
337	0.23
338	0.245
338	0.257
339	0.273
339	0.286
340	0.295
340	0.305
341	0.312
341	0.32
342	0.328
342	0.335
342	0.341
343	0.345
343	0.351
344	0.355
344	0.358
345	0.362
345	0.365
346	0.367
346	0.369
347	0.371
347	0.372
348	0.374
348	0.376
348	0.377
349	0.378
349	0.379
350	0.38
350	0.381
351	0.382
351	0.383
352	0.382
352	0.383
353	0.383
353	0.384
354	0.384
354	0.384
354	0.384
355	0.384
355	0.383
356	0.384
356	0.383
357	0.384
357	0.384
358	0.384
358	0.384
359	0.383
359	0.383
360	0.383
360	0.383
360	0.384
361	0.383
361	0.383
362	0.383
362	0.383
363	0.383
363	0.383
364	0.383
364	0.383
365	0.383
365	0.383
366	0.383
366	0.382
366	0.382
367	0.382
367	0.382
368	0.382
368	0.381
369	0.381
369	0.381
370	0.38
370	0.38
371	0.38
371	0.379
372	0.379
372	0.379
372	0.379
373	0.378
373	0.378
374	0.378
374	0.377
375	0.377
375	0.376
376	0.376
376	0.376
377	0.375
377	0.375
378	0.374
378	0.374
378	0.374
379	0.373
379	0.373
380	0.373
380	0.372
381	0.372
381	0.371
382	0.371
382	0.371
383	0.37
383	0.37
383	0.37
384	0.369
384	0.369
385	0.369
385	0.368
386	0.368
386	0.368
387	0.368
387	0.367
388	0.367
388	0.367
389	0.366
389	0.366
389	0.365
390	0.365
390	0.365
391	0.365
391	0.364
392	0.364
392	0.364
393	0.363
393	0.363
394	0.363
394	0.362
394	0.362
395	0.362
395	0.361
396	0.361
396	0.36
397	0.36
397	0.359
398	0.359
398	0.358
399	0.358
399	0.358
400	0.357
400	0.357
400	0.357
401	0.356
401	0.356
402	0.355
402	0.355
403	0.355
403	0.355
404	0.354
404	0.353
405	0.353
405	0.352
405	0.352
406	0.352
406	0.352
407	0.352
407	0.351
408	0.351
408	0.35
409	0.35
409	0.35
410	0.35
410	0.35
411	0.349
411	0.349
411	0.349
412	0.348
412	0.348
413	0.348
413	0.348
414	0.347
414	0.347
415	0.347
415	0.346
416	0.346
416	0.345
416	0.345
417	0.345
417	0.344
418	0.344
418	0.344
419	0.344
419	0.344
420	0.344
420	0.344
421	0.343
421	0.343
421	0.343
422	0.343
422	0.343
423	0.343
423	0.343
424	0.342
424	0.342
425	0.342
425	0.342
426	0.342
426	0.342
427	0.342
427	0.342
427	0.342
428	0.342
428	0.341
429	0.341
429	0.341
430	0.34
430	0.34
431	0.34
431	0.34
432	0.339
432	0.339
432	0.339
433	0.339
433	0.339
434	0.339
434	0.339
435	0.339
435	0.339
436	0.339
436	0.339
437	0.339
437	0.339
437	0.338
438	0.338
438	0.338
439	0.338
439	0.338
440	0.338
440	0.338
441	0.338
441	0.338
442	0.338
442	0.338
442	0.338
443	0.338
443	0.338
444	0.338
444	0.337
445	0.338
445	0.338
446	0.338
446	0.338
447	0.338
447	0.338
447	0.338
448	0.338
448	0.338
449	0.338
449	0.338
450	0.338
450	0.338
451	0.338
451	0.338
452	0.338
452	0.338
452	0.338
453	0.338
453	0.338
454	0.339
454	0.339
455	0.34
455	0.34
456	0.34
456	0.341
457	0.341
457	0.341
458	0.341
458	0.341
458	0.341
459	0.341
459	0.341
460	0.341
460	0.341
461	0.341
461	0.341
462	0.342
462	0.343
463	0.343
463	0.344
463	0.344
464	0.345
464	0.345
465	0.346
465	0.346
466	0.347
466	0.348
467	0.349
467	0.349
467	0.349
468	0.349
468	0.349
469	0.349
469	0.35
470	0.351
470	0.351
471	0.352
471	0.352
472	0.352
472	0.353
472	0.354
473	0.355
473	0.356
474	0.357
474	0.358
475	0.36
475	0.361
476	0.362
476	0.363
477	0.364
477	0.365
477	0.367
478	0.368
478	0.368
479	0.369
479	0.37
480	0.371
480	0.372
481	0.373
481	0.374
482	0.375
482	0.377
482	0.378
483	0.381
483	0.383
484	0.385
484	0.386
485	0.388
485	0.39
486	0.391
486	0.393
487	0.395
487	0.396
487	0.398
488	0.399
488	0.401
489	0.403
489	0.405
490	0.407
490	0.409
491	0.411
491	0.413
492	0.415
492	0.417
492	0.419
493	0.421
493	0.423
494	0.426
494	0.429
495	0.431
495	0.434
496	0.436
496	0.439
496	0.442
497	0.445
497	0.448
498	0.45
498	0.453
499	0.456
499	0.459
500	0.463
500	0.466
501	0.47
501	0.472
501	0.475
502	0.478
502	0.481
503	0.485
503	0.488
504	0.491
504	0.494
505	0.497
505	0.501
506	0.504
506	0.508
506	0.511
507	0.515
507	0.519
508	0.523
508	0.527
509	0.531
509	0.534
510	0.538
510	0.541
511	0.544
511	0.548
511	0.551
512	0.555
512	0.557
513	0.559
513	0.562
514	0.565
514	0.568
515	0.571
515	0.573
515	0.575
516	0.578
516	0.581
517	0.583
517	0.586
518	0.588
518	0.59
519	0.592
519	0.594
520	0.596
520	0.598
520	0.6
521	0.601
521	0.603
522	0.604
522	0.606
523	0.608
523	0.61
524	0.61
524	0.612
524	0.613
525	0.614
525	0.615
526	0.616
526	0.617
527	0.618
527	0.618
528	0.618
528	0.618
529	0.618
529	0.618
529	0.618
530	0.617
530	0.617
531	0.616
531	0.615
532	0.614
532	0.613
533	0.612
533	0.611
533	0.61
534	0.608
534	0.606
535	0.605
535	0.604
536	0.602
536	0.6
537	0.599
537	0.597
538	0.594
538	0.592
538	0.59
539	0.588
539	0.586
540	0.583
540	0.58
541	0.577
541	0.574
542	0.571
542	0.568
542	0.565
543	0.561
543	0.557
544	0.554
544	0.551
545	0.547
545	0.544
546	0.54
546	0.537
547	0.533
547	0.529
547	0.526
548	0.523
548	0.519
549	0.515
549	0.512
550	0.509
550	0.505
551	0.5
551	0.497
551	0.493
552	0.489
552	0.485
553	0.482
553	0.478
554	0.474
554	0.47
555	0.465
555	0.462
556	0.457
556	0.453
556	0.449
557	0.445
557	0.441
558	0.437
558	0.433
559	0.428
559	0.424
560	0.42
560	0.415
560	0.412
561	0.409
561	0.405
562	0.402
562	0.398
563	0.395
563	0.391
564	0.388
564	0.385
564	0.382
565	0.379
565	0.377
566	0.373
566	0.37
567	0.367
567	0.364
568	0.36
568	0.357
568	0.353
569	0.35
569	0.346
570	0.342
570	0.338
571	0.336
571	0.333
572	0.329
572	0.326
573	0.322
573	0.319
573	0.316
574	0.313
574	0.31
575	0.308
575	0.307
576	0.304
576	0.3
577	0.297
577	0.295
577	0.293
578	0.291
578	0.29
579	0.289
579	0.287
580	0.283
580	0.279
581	0.275
581	0.273
581	0.271
582	0.27
582	0.268
583	0.267
583	0.264
584	0.26
584	0.256
585	0.255
585	0.254
585	0.253
586	0.25
586	0.248
587	0.245
587	0.243
588	0.24
588	0.238
589	0.236
589	0.234
590	0.232
590	0.23
590	0.229
591	0.227
591	0.225
592	0.222
592	0.22
593	0.218
593	0.217
594	0.215
594	0.212
594	0.211
595	0.209
595	0.206
596	0.204
596	0.203
597	0.203
597	0.202
598	0.2
598	0.199
598	0.198
599	0.197
599	0.195
600	0.194
600	0.193
601	0.193
601	0.192
602	0.19
602	0.189
602	0.187
603	0.186
603	0.186
604	0.185
604	0.184
605	0.183
605	0.183
606	0.181
606	0.178
606	0.177
607	0.176
607	0.175
608	0.173
608	0.171
609	0.169
609	0.169
610	0.167
610	0.165
610	0.164
611	0.164
611	0.163
612	0.162
612	0.161
613	0.16
613	0.159
614	0.157
614	0.155
614	0.154
615	0.152
615	0.15
616	0.149
616	0.148
617	0.147
617	0.146
618	0.144
618	0.143
618	0.142
619	0.141
619	0.141
620	0.141
620	0.14
621	0.138
621	0.137
622	0.135
622	0.133
622	0.131
623	0.13
623	0.129
624	0.129
624	0.127
625	0.126
625	0.125
626	0.124
626	0.123
626	0.123
627	0.122
627	0.122
628	0.121
628	0.12
629	0.119
629	0.118
630	0.116
630	0.115
630	0.114
631	0.113
631	0.111
632	0.109
632	0.108
633	0.106
633	0.104
634	0.102
634	0.101
634	0.099
635	0.098
635	0.095
636	0.094
636	0.092
637	0.089
637	0.087
638	0.085
638	0.083
638	0.08
639	0.077
639	0.073
640	0.07
640	0.067
641	0.063
641	0.06
642	0.057
642	0.053
642	0.05
643	0.046
643	0.042
644	0.038
644	0.034
645	0.03
645	0.026
646	0.021
646	0.016
646	0.011
647	0.005
647	-0
648	-0.006
648	-0.012
649	-0.018
649	-0.024
650	-0.03
650	-0.035
650	-0.042
651	-0.049
651	-0.059
652	-0.069
652	-0.081
653	-0.09
653	-0.098
653	-0.092
654	-0.076
654	-0.073
655	-0.077
655	-0.081
656	-0.085
656	-0.089
657	-0.093
657	-0.096
657	-0.101
658	-0.107
658	-0.134
659	-0.206
659	-0.278
660	-0.311
660	-0.332
661	-0.354
661	-0.378
661	-0.402
662	-0.425
662	-0.449
663	-0.473
663	-0.502
664	-0.528
664	-0.559
665	-0.593
665	-0.629
665	-0.662
666	-0.699
666	-0.741
667	-0.783
667	-0.831
668	-0.879
668	-0.938
669	-0.995
669	-1.057
669	-1.124
670	-1.194
670	-1.296
671	-1.467
671	-1.786
672	-2.169
672	-2.379
672	-2.524
673	-2.635
673	-2.726
674	-2.772
674	-2.786
675	-2.802
675	-2.807
676	-2.808
676	-2.782
676	-2.705
677	-2.609
677	-2.489
678	-2.3
678	-1.933
679	-1.539
679	-1.361
680	-1.267
680	-1.201
680	-1.145
681	-1.108
681	-1.065
682	-1.033
682	-0.999
683	-0.965
683	-0.951
684	-0.932
684	-0.921
684	-0.906
685	-0.896
685	-0.894
686	-0.878
686	-0.87
687	-0.867
687	-0.86
687	-0.865
688	-0.854
688	-0.85
689	-0.856
689	-0.856
690	-0.844
690	-0.833
691	-0.834
691	-0.841
691	-0.842
692	-0.845
692	-0.844
693	-0.852
693	-0.864
694	-0.846
694	-0.846
695	-0.851
695	-0.846
695	-0.854
696	-0.864
696	-0.858
697	-0.854
697	-0.848
698	-0.843
698	-0.836
698	-0.853
699	-0.853
699	-0.854
700	-0.875
700	-0.872
701	-0.858
701	-0.853
702	-0.854
702	-0.854
702	-0.857
703	-0.85
703	-0.837
704	-0.844
704	-0.848
705	-0.837
705	-0.835
705	-0.829
706	-0.824
706	-0.819
707	-0.832
707	-0.834
708	-0.833
708	-0.831
709	-0.832
709	-0.828
709	-0.824
710	-0.83
710	-0.834
711	-0.832
711	-0.833
712	-0.824
712	-0.822
713	-0.826
713	-0.828
713	-0.807
714	-0.81
714	-0.814
715	-0.807
715	-0.816
716	-0.833
716	-0.842
716	-0.843
717	-0.85
717	-0.84
718	-0.834
718	-0.836
719	-0.831
719	-0.825
720	-0.82
720	-0.815
720	-0.808
721	-0.8
721	-0.805
722	-0.803
722	-0.801
723	-0.817
723	-0.83
723	-0.84
724	-0.838
724	-0.842
725	-0.836
725	-0.841
726	-0.846
726	-0.837
727	-0.839
727	-0.847
727	-0.839
728	-0.826
728	-0.822
729	-0.824
729	-0.827
730	-0.833
730	-0.824
730	-0.829
731	-0.832
731	-0.832
732	-0.834
732	-0.83
733	-0.846
733	-0.852
734	-0.86
734	-0.853
734	-0.837
735	-0.826
735	-0.821
736	-0.821
736	-0.816
737	-0.815
737	-0.805
737	-0.797
738	-0.784
738	-0.772
739	-0.775
739	-0.775
740	-0.79
740	-0.791
741	-0.801
741	-0.809
741	-0.819
742	-0.825
742	-0.84
743	-0.847
743	-0.85
744	-0.854
744	-0.862
744	-0.856
745	-0.863
745	-0.852
746	-0.847
746	-0.838
747	-0.84
747	-0.83
748	-0.831
748	-0.836
748	-0.837
749	-0.829
749	-0.832
750	-0.824
750	-0.825
751	-0.826
751	-0.824
751	-0.836
752	-0.84
752	-0.843
753	-0.844
753	-0.836
754	-0.856
754	-0.856
754	-0.863
755	-0.863
755	-0.856
756	-0.86
756	-0.847
757	-0.839
757	-0.829
758	-0.828
758	-0.827
758	-0.823
759	-0.83
759	-0.831
760	-0.83
760	-0.829
761	-0.823
761	-0.828
761	-0.827
762	-0.835
762	-0.836
763	-0.837
763	-0.839
764	-0.837
764	-0.834
764	-0.84
765	-0.838
765	-0.845
766	-0.848
766	-0.851
767	-0.865
767	-0.86
768	-0.857
768	-0.849
768	-0.844
769	-0.847
769	-0.854
770	-0.864
770	-0.867
771	-0.863
771	-0.862
771	-0.866
772	-0.871
772	-0.894
773	-0.897
773	-0.896
774	-0.895
774	-0.877
775	-0.866
775	-0.864
775	-0.867
776	-0.878
776	-0.874
777	-0.873
777	-0.855
778	-0.863
778	-0.871
778	-0.87
779	-0.879
779	-0.894
780	-0.892
780	-0.901
781	-0.89
781	-0.879
781	-0.893
782	-0.913
782	-0.914
783	-0.913
783	-0.921
784	-0.923
784	-0.918
784	-0.938
785	-0.931
785	-0.944
786	-0.948
786	-0.942
787	-0.933
787	-0.942
788	-0.937
788	-0.932
788	-0.935
789	-0.934
789	-0.922
790	-0.922
790	-0.907
791	-0.913
791	-0.909
791	-0.902
792	-0.896
792	-0.898
793	-0.901
793	-0.888
794	-0.88
794	-0.874
794	-0.88
795	-0.901
795	-0.889
796	-0.893
796	-0.889
797	-0.882
797	-0.873
797	-0.867
798	-0.887
798	-0.891
799	-0.89
799	-0.876
800	-0.87
800	-0.878
801	-0.876
801	-0.88
801	-0.876
802	-0.876
802	-0.873
803	-0.87
803	-0.865
804	-0.871
804	-0.88
804	-0.865
805	-0.845
805	-0.838
806	-0.838
806	-0.836
807	-0.837
807	-0.84
807	-0.822
808	-0.817
808	-0.809
809	-0.803
809	-0.803
810	-0.806
810	-0.804
810	-0.801
811	-0.802
811	-0.793
812	-0.786
812	-0.786
813	-0.79
813	-0.792
813	-0.788
814	-0.789
814	-0.795
815	-0.785
815	-0.779
816	-0.776
816	-0.793
817	-0.803
817	-0.809
817	-0.818
818	-0.81
818	-0.807
819	-0.816
819	-0.814
820	-0.824
820	-0.826
820	-0.825
821	-0.82
821	-0.817
822	-0.815
822	-0.803
823	-0.816
823	-0.817
823	-0.812
824	-0.809
824	-0.819
825	-0.818
825	-0.816
826	-0.812
826	-0.807
826	-0.809
827	-0.809
827	-0.796
828	-0.796
828	-0.79
829	-0.784
829	-0.77
829	-0.768
830	-0.765
830	-0.752
831	-0.747
831	-0.735
832	-0.727
832	-0.723
832	-0.716
833	-0.715
833	-0.721
834	-0.715
834	-0.709
835	-0.699
835	-0.699
835	-0.694
836	-0.69
836	-0.686
837	-0.677
837	-0.667
838	-0.654
838	-0.637
839	-0.632
839	-0.62
839	-0.612
840	-0.609
840	-0.598
841	-0.588
841	-0.581
842	-0.573
842	-0.561
842	-0.56
843	-0.557
843	-0.552
844	-0.549
844	-0.538
845	-0.525
845	-0.516
845	-0.506
846	-0.492
846	-0.48
847	-0.469
847	-0.455
848	-0.44
848	-0.423
848	-0.41
849	-0.396
849	-0.384
850	-0.374
850	-0.364
851	-0.352
851	-0.337
851	-0.329
852	-0.314
852	-0.302
853	-0.294
853	-0.283
854	-0.273
854	-0.263
854	-0.251
855	-0.239
855	-0.233
856	-0.225
856	-0.216
857	-0.209
857	-0.2
857	-0.186
858	-0.175
858	-0.169
859	-0.158
859	-0.147
860	-0.137
860	-0.123
860	-0.112
861	-0.102
861	-0.092
862	-0.084
862	-0.077
863	-0.069
863	-0.06
863	-0.054
864	-0.049
864	-0.043
865	-0.036
865	-0.031
866	-0.026
866	-0.02
866	-0.015
867	-0.01
867	-0.005
868	-0.001
868	0.004
869	0.009
869	0.012
869	0.014
870	0.016
870	0.018
871	0.02
871	0.021
872	0.022
872	0.024
872	0.025
873	0.025
873	0.025
874	0.024
874	0.024
875	0.024
875	0.024
875	0.024
876	0.023
876	0.023
877	0.022
877	0.022
878	0.022
878	0.021
878	0.021
879	0.021
879	0.02
880	0.02
880	0.019
881	0.018
881	0.017
881	0.016
882	0.015
882	0.013
883	0.012
883	0.011
884	0.01
884	0.01
884	0.01
885	0.009
885	0.009
886	0.009
886	0.009
887	0.009
887	0.008
887	0.008
888	0.008
888	0.007
889	0.006
889	0.006
890	0.005
890	0.004
890	0.004
891	0.004
891	0.004
892	0.004
892	0.004
893	0.004
893	0.004
893	0.004
894	0.004
894	0.004
895	0.003
895	0.003
895	0.003
896	0.003
896	0.003
897	0.003
897	0.003
898	0.003
898	0.003
898	0.003
899	0.003
899	0.004
900	0.004
900	0.003
901	0.003
901	0.002
901	0.002
902	0.002
902	0.002
903	0.002
903	0.002
904	0.002
904	0.002
904	0.003
905	0.003
905	0.004
906	0.005
906	0.005
907	0.006
907	0.006
907	0.007
908	0.007
908	0.007
909	0.008
909	0.008
910	0.008
910	0.008
910	0.008
911	0.009
911	0.009
912	0.01
912	0.011
913	0.012
913	0.012
913	0.013
914	0.013
914	0.014
915	0.014
915	0.014
916	0.014
916	0.014
916	0.014
917	0.014
917	0.014
918	0.014
918	0.014
918	0.013
919	0.014
919	0.014
920	0.014
920	0.015
921	0.016
921	0.017
921	0.017
922	0.018
922	0.018
923	0.019
923	0.019
924	0.019
924	0.018
924	0.018
925	0.017
925	0.016
926	0.015
926	0.014
927	0.013
927	0.012
927	0.011
928	0.011
928	0.01
929	0.011
929	0.011
930	0.012
930	0.012
930	0.013
931	0.014
931	0.015
932	0.016
932	0.017
933	0.018
933	0.019
933	0.019
934	0.019
934	0.018
935	0.018
935	0.017
935	0.016
936	0.014
936	0.013
937	0.012
937	0.01
938	0.01
938	0.009
938	0.008
939	0.007
939	0.007
940	0.006
940	0.005
941	0.004
941	0.004
941	0.004
942	0.003
942	0.003
943	0.003
943	0.002
944	0.002
944	0
944	-0
945	-0
945	-0.001
946	-0.001
946	-0.002
946	-0.002
947	-0.002
947	-0.002
948	-0.001
948	-0.001
949	-0
949	0.001
949	0.003
950	0.004
950	0.006
951	0.007
951	0.008
952	0.009
952	0.01
952	0.011
953	0.012
953	0.012
954	0.012
954	0.012
955	0.013
955	0.012
955	0.012
956	0.011
956	0.011
957	0.01
957	0.009
957	0.008
958	0.008
958	0.007
959	0.007
959	0.006
960	0.006
960	0.006
960	0.006
961	0.006
961	0.006
962	0.006
962	0.007
963	0.007
963	0.007
963	0.007
964	0.008
964	0.008
965	0.008
965	0.008
966	0.009
966	0.009
966	0.009
967	0.009
967	0.009
968	0.009
968	0.009
968	0.009
969	0.009
969	0.009
970	0.008
970	0.008
971	0.008
971	0.008
971	0.008
972	0.009
972	0.009
973	0.009
973	0.009
974	0.009
974	0.009
974	0.01
975	0.01
975	0.01
976	0.01
976	0.01
976	0.009
977	0.009
977	0.009
978	0.008
978	0.008
979	0.007
979	0.007
979	0.007
980	0.007
980	0.006
981	0.007
981	0.007
982	0.007
982	0.007
982	0.007
983	0.007
983	0.007
984	0.007
984	0.007
984	0.006
985	0.006
985	0.006
986	0.005
986	0.004
987	0.003
987	0.002
987	0.002
988	0.001
988	0
989	-0
989	-0.001
990	-0.002
990	-0.003
990	-0.004
991	-0.004
991	-0.005
992	-0.005
992	-0.006
992	-0.007
993	-0.007
993	-0.008
994	-0.009
994	-0.01
995	-0.011
995	-0.013
995	-0.014
996	-0.015
996	-0.017
997	-0.018
997	-0.019
997	-0.02
998	-0.02
998	-0.02
999	-0.02
999	-0.02
1000	-0.019
1000	-0.019
1000	-0.019
1001	-0.018
1001	-0.017
1002	-0.017
1002	-0.017
1003	-0.016
1003	-0.017
1003	-0.017
1004	-0.017
1004	-0.017
1005	-0.018
1005	-0.018
1005	-0.019
1006	-0.02
1006	-0.021
1007	-0.022
1007	-0.023
1008	-0.023
1008	-0.024
1008	-0.024
1009	-0.024
1009	-0.024
1010	-0.023
1010	-0.023
1010	-0.022
1011	-0.022
1011	-0.021
1012	-0.02
1012	-0.018
1013	-0.017
1013	-0.016
1013	-0.015
1014	-0.015
1014	-0.014
1015	-0.013
1015	-0.013
1016	-0.012
1016	-0.012
1016	-0.012
1017	-0.013
1017	-0.013
1018	-0.013
1018	-0.013
1018	-0.013
1019	-0.013
1019	-0.013
1020	-0.014
1020	-0.014
1021	-0.014
1021	-0.015
1021	-0.015
1022	-0.015
1022	-0.015
1023	-0.015
1023	-0.015
1023	-0.014
1024	-0.014
1024	-0.014
1025	-0.014
1025	-0.013
1026	-0.013
1026	-0.012
1026	-0.013
1027	-0.012
1027	-0.012
1028	-0.011
1028	-0.011
1028	-0.01
1029	-0.01
1029	-0.01
1030	-0.01
1030	-0.01
1031	-0.01
1031	-0.01
1031	-0.01
1032	-0.01
1032	-0.01
1033	-0.01
1033	-0.01
1033	-0.01
1034	-0.011
1034	-0.011
1035	-0.011
1035	-0.012
1036	-0.012
1036	-0.013
1036	-0.013
1037	-0.013
1037	-0.012
1038	-0.012
1038	-0.012
1039	-0.012
1039	-0.011
1039	-0.01
1040	-0.01
1040	-0.01
1041	-0.01
1041	-0.01
1041	-0.011
1042	-0.012
1042	-0.012
1043	-0.013
1043	-0.014
1044	-0.015
1044	-0.016
1044	-0.017
1045	-0.018
1045	-0.019
1046	-0.019
1046	-0.02
1046	-0.02
1047	-0.02
1047	-0.02
1048	-0.02
1048	-0.02
1049	-0.02
1049	-0.02
1049	-0.02
1050	-0.02
1050	-0.021
1051	-0.021
1051	-0.022
1051	-0.022
1052	-0.023
1052	-0.024
1053	-0.024
1053	-0.025
1053	-0.025
1054	-0.026
1054	-0.027
1055	-0.026
1055	-0.026
1056	-0.027
1056	-0.027
1056	-0.027
1057	-0.028
1057	-0.028
1058	-0.028
1058	-0.029
1058	-0.029
1059	-0.029
1059	-0.029
1060	-0.03
1060	-0.03
1061	-0.03
1061	-0.03
1061	-0.03
1062	-0.03
1062	-0.03
1063	-0.029
1063	-0.03
1063	-0.03
1064	-0.029
1064	-0.029
1065	-0.029
1065	-0.029
1066	-0.029
1066	-0.029
1066	-0.029
1067	-0.03
1067	-0.031
1068	-0.031
1068	-0.031
1068	-0.032
1069	-0.033
1069	-0.034
1070	-0.035
1070	-0.035
1071	-0.035
1071	-0.036
1071	-0.036
1072	-0.037
1072	-0.037
1073	-0.037
1073	-0.037
1073	-0.037
1074	-0.037
1074	-0.037
1075	-0.038
1075	-0.039
1076	-0.04
1076	-0.04
1076	-0.041
1077	-0.042
1077	-0.043
1078	-0.043
1078	-0.044
1078	-0.045
1079	-0.046
1079	-0.046
1080	-0.047
1080	-0.047
1080	-0.049
1081	-0.05
1081	-0.05
1082	-0.051
1082	-0.053
1083	-0.054
1083	-0.055
1083	-0.056
1084	-0.058
1084	-0.059
1085	-0.06
1085	-0.061
1085	-0.061
1086	-0.062
1086	-0.063
1087	-0.064
1087	-0.064
1088	-0.066
1088	-0.067
1088	-0.067
1089	-0.068
1089	-0.069
1090	-0.069
1090	-0.07
1090	-0.071
1091	-0.073
1091	-0.073
1092	-0.074
1092	-0.073
1092	-0.075
1093	-0.075
1093	-0.075
1094	-0.076
1094	-0.077
1095	-0.078
1095	-0.079
1095	-0.079
1096	-0.08
1096	-0.082
1097	-0.084
1097	-0.085
1097	-0.088
1098	-0.09
1098	-0.091
1099	-0.092
1099	-0.094
1100	-0.097
1100	-0.099
1100	-0.102
1101	-0.104
1101	-0.107
1102	-0.108
1102	-0.11
1102	-0.112
1103	-0.114
1103	-0.118
1104	-0.121
1104	-0.124
1104	-0.126
1105	-0.128
1105	-0.131
1106	-0.136
1106	-0.139
1107	-0.144
1107	-0.149
1107	-0.154
1108	-0.156
1108	-0.156
1109	-0.16
1109	-0.164
1109	-0.169
1110	-0.171
1110	-0.172
1111	-0.182
1111	-0.178
