Data from 3.4A_17C_Absorbance__520__02432.txt Node

Date: Tue Jun 20 16:43:19 CEST 2023
User: Marek
Spectrometer: MAYP115816
Trigger mode: 0
Integration Time (sec): 2.200000E-1
Scans to average: 10
Electric dark correction enabled: true
Nonlinearity correction enabled: true
Boxcar width: 5
XAxis mode: Wavelengths
Number of Pixels in Spectrum: 2068
>>>>>Begin Spectral Data<<<<<
199	-0.807
199	-0.79
200	-0.755
200	-0.698
201	-0.671
201	-0.661
202	-0.642
202	-0.637
203	-0.635
203	-0.629
204	-0.61
204	-0.593
205	-0.57
205	-0.558
205	-0.568
206	-0.568
206	-0.565
207	-0.559
207	-0.565
208	-0.566
208	-0.571
209	-0.573
209	-0.579
210	-0.591
210	-0.6
211	-0.594
211	-0.598
212	-0.606
212	-0.613
213	-0.61
213	-0.607
213	-0.603
214	-0.61
214	-0.612
215	-0.609
215	-0.613
216	-0.621
216	-0.627
217	-0.624
217	-0.624
218	-0.632
218	-0.632
219	-0.639
219	-0.64
220	-0.645
220	-0.652
221	-0.653
221	-0.653
221	-0.645
222	-0.646
222	-0.646
223	-0.641
223	-0.645
224	-0.644
224	-0.642
225	-0.64
225	-0.641
226	-0.641
226	-0.64
227	-0.647
227	-0.656
228	-0.658
228	-0.669
229	-0.672
229	-0.671
229	-0.672
230	-0.667
230	-0.663
231	-0.66
231	-0.657
232	-0.661
232	-0.655
233	-0.655
233	-0.641
234	-0.642
234	-0.637
235	-0.641
235	-0.651
236	-0.659
236	-0.66
236	-0.659
237	-0.658
237	-0.66
238	-0.661
238	-0.664
239	-0.665
239	-0.676
240	-0.669
240	-0.665
241	-0.661
241	-0.663
242	-0.666
242	-0.674
243	-0.674
243	-0.676
243	-0.68
244	-0.677
244	-0.678
245	-0.682
245	-0.687
246	-0.698
246	-0.701
247	-0.71
247	-0.695
248	-0.695
248	-0.697
249	-0.702
249	-0.703
250	-0.701
250	-0.709
250	-0.706
251	-0.706
251	-0.702
252	-0.703
252	-0.716
253	-0.711
253	-0.721
254	-0.725
254	-0.726
255	-0.737
255	-0.736
256	-0.737
256	-0.75
257	-0.759
257	-0.756
258	-0.757
258	-0.765
258	-0.762
259	-0.756
259	-0.772
260	-0.771
260	-0.76
261	-0.772
261	-0.758
262	-0.765
262	-0.763
263	-0.754
263	-0.76
264	-0.772
264	-0.772
265	-0.764
265	-0.766
265	-0.775
266	-0.767
266	-0.768
267	-0.765
267	-0.783
268	-0.792
268	-0.785
269	-0.777
269	-0.792
270	-0.798
270	-0.798
271	-0.811
271	-0.819
272	-0.819
272	-0.825
272	-0.816
273	-0.826
273	-0.84
274	-0.832
274	-0.827
275	-0.824
275	-0.812
276	-0.816
276	-0.822
277	-0.826
277	-0.821
278	-0.827
278	-0.826
278	-0.815
279	-0.824
279	-0.837
280	-0.839
280	-0.849
281	-0.842
281	-0.835
282	-0.84
282	-0.834
283	-0.827
283	-0.841
284	-0.855
284	-0.864
285	-0.845
285	-0.85
285	-0.84
286	-0.844
286	-0.862
287	-0.859
287	-0.859
288	-0.859
288	-0.841
289	-0.839
289	-0.847
290	-0.856
290	-0.847
291	-0.851
291	-0.85
292	-0.829
292	-0.825
292	-0.829
293	-0.818
293	-0.813
294	-0.813
294	-0.799
295	-0.781
295	-0.792
296	-0.804
296	-0.798
297	-0.786
297	-0.79
298	-0.786
298	-0.803
298	-0.808
299	-0.789
299	-0.783
300	-0.779
300	-0.76
301	-0.74
301	-0.744
302	-0.754
302	-0.739
303	-0.732
303	-0.719
304	-0.7
304	-0.704
305	-0.697
305	-0.706
305	-0.722
306	-0.707
306	-0.705
307	-0.699
307	-0.711
308	-0.712
308	-0.708
309	-0.711
309	-0.704
310	-0.702
310	-0.696
311	-0.683
311	-0.703
311	-0.69
312	-0.687
312	-0.675
313	-0.667
313	-0.67
314	-0.673
314	-0.673
315	-0.67
315	-0.664
316	-0.658
316	-0.645
317	-0.638
317	-0.634
318	-0.626
318	-0.624
318	-0.613
319	-0.602
319	-0.595
320	-0.593
320	-0.59
321	-0.585
321	-0.586
322	-0.58
322	-0.574
323	-0.574
323	-0.564
324	-0.561
324	-0.55
324	-0.539
325	-0.523
325	-0.507
326	-0.498
326	-0.472
327	-0.457
327	-0.433
328	-0.403
328	-0.378
329	-0.35
329	-0.322
330	-0.294
330	-0.258
330	-0.22
331	-0.183
331	-0.149
332	-0.113
332	-0.081
333	-0.049
333	-0.016
334	0.014
334	0.041
335	0.069
335	0.09
336	0.112
336	0.133
336	0.149
337	0.167
337	0.184
338	0.198
338	0.209
339	0.223
339	0.234
340	0.242
340	0.251
341	0.258
341	0.264
342	0.272
342	0.278
342	0.283
343	0.288
343	0.293
344	0.296
344	0.299
345	0.302
345	0.304
346	0.306
346	0.309
347	0.31
347	0.312
348	0.313
348	0.315
348	0.315
349	0.316
349	0.317
350	0.318
350	0.319
351	0.319
351	0.32
352	0.32
352	0.32
353	0.32
353	0.32
354	0.32
354	0.321
354	0.32
355	0.321
355	0.32
356	0.321
356	0.321
357	0.321
357	0.321
358	0.321
358	0.321
359	0.321
359	0.321
360	0.321
360	0.321
360	0.321
361	0.321
361	0.321
362	0.321
362	0.321
363	0.321
363	0.321
364	0.321
364	0.321
365	0.321
365	0.321
366	0.321
366	0.321
366	0.321
367	0.321
367	0.321
368	0.32
368	0.32
369	0.32
369	0.32
370	0.32
370	0.319
371	0.319
371	0.319
372	0.318
372	0.318
372	0.318
373	0.318
373	0.318
374	0.318
374	0.318
375	0.317
375	0.317
376	0.317
376	0.316
377	0.316
377	0.316
378	0.315
378	0.315
378	0.315
379	0.315
379	0.314
380	0.314
380	0.314
381	0.314
381	0.314
382	0.314
382	0.313
383	0.313
383	0.313
383	0.313
384	0.312
384	0.312
385	0.312
385	0.312
386	0.311
386	0.311
387	0.311
387	0.311
388	0.311
388	0.31
389	0.31
389	0.31
389	0.31
390	0.31
390	0.31
391	0.31
391	0.309
392	0.309
392	0.309
393	0.309
393	0.309
394	0.308
394	0.308
394	0.307
395	0.307
395	0.307
396	0.306
396	0.306
397	0.306
397	0.305
398	0.305
398	0.305
399	0.305
399	0.304
400	0.304
400	0.304
400	0.304
401	0.304
401	0.303
402	0.303
402	0.303
403	0.303
403	0.303
404	0.302
404	0.302
405	0.301
405	0.301
405	0.301
406	0.301
406	0.301
407	0.3
407	0.3
408	0.3
408	0.3
409	0.299
409	0.299
410	0.299
410	0.299
411	0.299
411	0.299
411	0.298
412	0.298
412	0.298
413	0.298
413	0.297
414	0.297
414	0.297
415	0.297
415	0.296
416	0.296
416	0.296
416	0.295
417	0.295
417	0.295
418	0.295
418	0.295
419	0.295
419	0.295
420	0.295
420	0.294
421	0.294
421	0.294
421	0.294
422	0.294
422	0.294
423	0.294
423	0.294
424	0.293
424	0.293
425	0.293
425	0.293
426	0.293
426	0.293
427	0.293
427	0.293
427	0.293
428	0.293
428	0.293
429	0.293
429	0.292
430	0.292
430	0.292
431	0.291
431	0.291
432	0.29
432	0.29
432	0.29
433	0.29
433	0.29
434	0.29
434	0.29
435	0.29
435	0.29
436	0.29
436	0.29
437	0.29
437	0.29
437	0.29
438	0.29
438	0.29
439	0.29
439	0.289
440	0.289
440	0.289
441	0.289
441	0.289
442	0.289
442	0.289
442	0.289
443	0.289
443	0.289
444	0.289
444	0.288
445	0.288
445	0.288
446	0.288
446	0.288
447	0.288
447	0.289
447	0.289
448	0.289
448	0.289
449	0.289
449	0.289
450	0.289
450	0.289
451	0.289
451	0.289
452	0.289
452	0.289
452	0.289
453	0.289
453	0.289
454	0.289
454	0.289
455	0.29
455	0.29
456	0.29
456	0.29
457	0.289
457	0.289
458	0.289
458	0.289
458	0.29
459	0.289
459	0.289
460	0.289
460	0.289
461	0.289
461	0.29
462	0.29
462	0.291
463	0.291
463	0.292
463	0.292
464	0.292
464	0.293
465	0.293
465	0.294
466	0.294
466	0.294
467	0.295
467	0.295
467	0.294
468	0.294
468	0.294
469	0.295
469	0.295
470	0.296
470	0.296
471	0.296
471	0.296
472	0.296
472	0.297
472	0.297
473	0.298
473	0.299
474	0.299
474	0.3
475	0.301
475	0.302
476	0.302
476	0.303
477	0.304
477	0.305
477	0.305
478	0.306
478	0.306
479	0.307
479	0.308
480	0.308
480	0.309
481	0.31
481	0.31
482	0.311
482	0.313
482	0.314
483	0.316
483	0.317
484	0.318
484	0.319
485	0.32
485	0.322
486	0.322
486	0.324
487	0.325
487	0.326
487	0.327
488	0.327
488	0.328
489	0.33
489	0.331
490	0.333
490	0.334
491	0.336
491	0.337
492	0.338
492	0.34
492	0.341
493	0.342
493	0.344
494	0.346
494	0.348
495	0.349
495	0.351
496	0.353
496	0.354
496	0.356
497	0.358
497	0.36
498	0.362
498	0.364
499	0.366
499	0.368
500	0.371
500	0.373
501	0.376
501	0.378
501	0.38
502	0.382
502	0.384
503	0.387
503	0.389
504	0.391
504	0.393
505	0.395
505	0.398
506	0.4
506	0.403
506	0.406
507	0.408
507	0.411
508	0.414
508	0.417
509	0.42
509	0.422
510	0.425
510	0.427
511	0.429
511	0.432
511	0.434
512	0.436
512	0.438
513	0.44
513	0.442
514	0.444
514	0.446
515	0.448
515	0.449
515	0.451
516	0.453
516	0.455
517	0.458
517	0.459
518	0.461
518	0.462
519	0.464
519	0.465
520	0.467
520	0.468
520	0.47
521	0.471
521	0.472
522	0.473
522	0.474
523	0.476
523	0.477
524	0.478
524	0.479
524	0.48
525	0.481
525	0.482
526	0.483
526	0.483
527	0.484
527	0.484
528	0.484
528	0.484
529	0.484
529	0.484
529	0.483
530	0.483
530	0.483
531	0.483
531	0.482
532	0.482
532	0.482
533	0.481
533	0.481
533	0.48
534	0.48
534	0.479
535	0.478
535	0.478
536	0.477
536	0.476
537	0.475
537	0.474
538	0.473
538	0.472
538	0.471
539	0.47
539	0.468
540	0.467
540	0.465
541	0.463
541	0.461
542	0.46
542	0.458
542	0.456
543	0.454
543	0.451
544	0.449
544	0.447
545	0.445
545	0.443
546	0.441
546	0.439
547	0.436
547	0.434
547	0.432
548	0.43
548	0.428
549	0.426
549	0.424
550	0.422
550	0.42
551	0.417
551	0.415
551	0.412
552	0.41
552	0.408
553	0.406
553	0.404
554	0.401
554	0.398
555	0.395
555	0.392
556	0.39
556	0.387
556	0.385
557	0.383
557	0.381
558	0.378
558	0.376
559	0.373
559	0.371
560	0.369
560	0.366
560	0.365
561	0.363
561	0.361
562	0.359
562	0.357
563	0.355
563	0.353
564	0.351
564	0.35
564	0.348
565	0.347
565	0.346
566	0.344
566	0.342
567	0.341
567	0.339
568	0.338
568	0.335
568	0.334
569	0.332
569	0.33
570	0.327
570	0.325
571	0.323
571	0.322
572	0.319
572	0.317
573	0.315
573	0.313
573	0.311
574	0.309
574	0.308
575	0.307
575	0.307
576	0.306
576	0.303
577	0.301
577	0.3
577	0.3
578	0.299
578	0.299
579	0.299
579	0.299
580	0.296
580	0.293
581	0.29
581	0.289
581	0.289
582	0.288
582	0.288
583	0.287
583	0.286
584	0.283
584	0.281
585	0.281
585	0.281
585	0.281
586	0.28
586	0.279
587	0.277
587	0.275
588	0.273
588	0.272
589	0.272
589	0.271
590	0.269
590	0.268
590	0.268
591	0.268
591	0.266
592	0.265
592	0.263
593	0.262
593	0.262
594	0.26
594	0.259
594	0.258
595	0.257
595	0.255
596	0.254
596	0.254
597	0.256
597	0.255
598	0.254
598	0.254
598	0.254
599	0.253
599	0.252
600	0.252
600	0.251
601	0.251
601	0.251
602	0.25
602	0.249
602	0.248
603	0.248
603	0.248
604	0.248
604	0.248
605	0.248
605	0.248
606	0.246
606	0.245
606	0.244
607	0.243
607	0.242
608	0.241
608	0.24
609	0.239
609	0.238
610	0.237
610	0.236
610	0.235
611	0.235
611	0.235
612	0.234
612	0.234
613	0.234
613	0.233
614	0.231
614	0.23
614	0.229
615	0.227
615	0.226
616	0.225
616	0.224
617	0.224
617	0.223
618	0.222
618	0.221
618	0.22
619	0.22
619	0.22
620	0.22
620	0.219
621	0.217
621	0.216
622	0.214
622	0.213
622	0.211
623	0.209
623	0.209
624	0.208
624	0.207
625	0.206
625	0.205
626	0.204
626	0.203
626	0.203
627	0.202
627	0.202
628	0.201
628	0.2
629	0.199
629	0.197
630	0.195
630	0.194
630	0.193
631	0.192
631	0.19
632	0.188
632	0.186
633	0.184
633	0.182
634	0.18
634	0.178
634	0.176
635	0.174
635	0.172
636	0.169
636	0.167
637	0.164
637	0.161
638	0.158
638	0.155
638	0.152
639	0.148
639	0.144
640	0.14
640	0.136
641	0.132
641	0.128
642	0.124
642	0.12
642	0.116
643	0.111
643	0.106
644	0.101
644	0.096
645	0.091
645	0.086
646	0.081
646	0.075
646	0.068
647	0.062
647	0.055
648	0.048
648	0.04
649	0.032
649	0.025
650	0.018
650	0.011
650	0.003
651	-0.007
651	-0.019
652	-0.032
652	-0.047
653	-0.059
653	-0.07
653	-0.066
654	-0.047
654	-0.041
655	-0.047
655	-0.053
656	-0.059
656	-0.065
657	-0.071
657	-0.075
657	-0.082
658	-0.09
658	-0.121
659	-0.208
659	-0.298
660	-0.338
660	-0.364
661	-0.391
661	-0.42
661	-0.451
662	-0.478
662	-0.507
663	-0.541
663	-0.579
664	-0.615
664	-0.655
665	-0.699
665	-0.745
665	-0.788
666	-0.837
666	-0.89
667	-0.944
667	-1.006
668	-1.063
668	-1.13
669	-1.197
669	-1.267
669	-1.344
670	-1.421
670	-1.522
671	-1.654
671	-1.917
672	-2.229
672	-2.417
672	-2.551
673	-2.656
673	-2.741
674	-2.822
674	-2.844
675	-2.862
675	-2.867
676	-2.868
676	-2.843
676	-2.778
677	-2.701
677	-2.61
678	-2.479
678	-2.279
679	-1.878
679	-1.654
680	-1.537
680	-1.455
680	-1.383
681	-1.332
681	-1.276
682	-1.231
682	-1.187
683	-1.143
683	-1.119
684	-1.09
684	-1.07
684	-1.047
685	-1.027
685	-1.015
686	-0.991
686	-0.976
687	-0.967
687	-0.955
687	-0.955
688	-0.938
688	-0.929
689	-0.932
689	-0.928
690	-0.914
690	-0.903
691	-0.901
691	-0.905
691	-0.903
692	-0.903
692	-0.897
693	-0.905
693	-0.914
694	-0.894
694	-0.893
695	-0.896
695	-0.889
695	-0.895
696	-0.903
696	-0.897
697	-0.89
697	-0.887
698	-0.882
698	-0.876
698	-0.889
699	-0.887
699	-0.887
700	-0.908
700	-0.903
701	-0.888
701	-0.883
702	-0.884
702	-0.883
702	-0.882
703	-0.872
703	-0.861
704	-0.869
704	-0.874
705	-0.862
705	-0.862
705	-0.856
706	-0.848
706	-0.842
707	-0.854
707	-0.857
708	-0.856
708	-0.854
709	-0.856
709	-0.854
709	-0.848
710	-0.858
710	-0.861
711	-0.861
711	-0.863
712	-0.855
712	-0.852
713	-0.858
713	-0.859
713	-0.838
714	-0.839
714	-0.843
715	-0.832
715	-0.841
716	-0.856
716	-0.864
716	-0.865
717	-0.872
717	-0.862
718	-0.856
718	-0.856
719	-0.852
719	-0.844
720	-0.841
720	-0.834
720	-0.83
721	-0.821
721	-0.825
722	-0.821
722	-0.818
723	-0.836
723	-0.848
723	-0.856
724	-0.855
724	-0.86
725	-0.854
725	-0.857
726	-0.861
726	-0.852
727	-0.853
727	-0.86
727	-0.851
728	-0.837
728	-0.834
729	-0.837
729	-0.839
730	-0.846
730	-0.836
730	-0.842
731	-0.844
731	-0.845
732	-0.846
732	-0.842
733	-0.859
733	-0.865
734	-0.873
734	-0.866
734	-0.848
735	-0.839
735	-0.833
736	-0.832
736	-0.827
737	-0.828
737	-0.818
737	-0.808
738	-0.794
738	-0.783
739	-0.786
739	-0.787
740	-0.799
740	-0.8
741	-0.81
741	-0.82
741	-0.828
742	-0.833
742	-0.85
743	-0.857
743	-0.859
744	-0.86
744	-0.868
744	-0.864
745	-0.874
745	-0.864
746	-0.86
746	-0.85
747	-0.854
747	-0.845
748	-0.846
748	-0.849
748	-0.851
749	-0.844
749	-0.848
750	-0.838
750	-0.838
751	-0.836
751	-0.835
751	-0.846
752	-0.85
752	-0.853
753	-0.855
753	-0.845
754	-0.865
754	-0.865
754	-0.872
755	-0.872
755	-0.866
756	-0.87
756	-0.854
757	-0.846
757	-0.835
758	-0.836
758	-0.835
758	-0.83
759	-0.836
759	-0.836
760	-0.835
760	-0.836
761	-0.828
761	-0.833
761	-0.835
762	-0.841
762	-0.842
763	-0.844
763	-0.848
764	-0.847
764	-0.842
764	-0.847
765	-0.847
765	-0.855
766	-0.857
766	-0.859
767	-0.874
767	-0.868
768	-0.866
768	-0.857
768	-0.852
769	-0.855
769	-0.863
770	-0.872
770	-0.876
771	-0.871
771	-0.869
771	-0.876
772	-0.881
772	-0.902
773	-0.905
773	-0.904
774	-0.903
774	-0.886
775	-0.874
775	-0.872
775	-0.876
776	-0.888
776	-0.884
777	-0.882
777	-0.865
778	-0.874
778	-0.885
778	-0.885
779	-0.896
779	-0.911
780	-0.909
780	-0.918
781	-0.908
781	-0.897
781	-0.912
782	-0.935
782	-0.935
783	-0.933
783	-0.94
784	-0.944
784	-0.938
784	-0.956
785	-0.95
785	-0.96
786	-0.963
786	-0.955
787	-0.943
787	-0.949
788	-0.941
788	-0.938
788	-0.937
789	-0.937
789	-0.926
790	-0.925
790	-0.91
791	-0.917
791	-0.913
791	-0.908
792	-0.904
792	-0.908
793	-0.908
793	-0.896
794	-0.888
794	-0.883
794	-0.889
795	-0.909
795	-0.897
796	-0.902
796	-0.898
797	-0.892
797	-0.883
797	-0.877
798	-0.897
798	-0.901
799	-0.9
799	-0.886
800	-0.881
800	-0.889
801	-0.888
801	-0.891
801	-0.888
802	-0.889
802	-0.888
803	-0.883
803	-0.876
804	-0.882
804	-0.89
804	-0.873
805	-0.853
805	-0.842
806	-0.843
806	-0.839
807	-0.838
807	-0.837
807	-0.822
808	-0.818
808	-0.811
809	-0.804
809	-0.806
810	-0.809
810	-0.808
810	-0.803
811	-0.806
811	-0.797
812	-0.791
812	-0.791
813	-0.794
813	-0.796
813	-0.79
814	-0.792
814	-0.798
815	-0.787
815	-0.784
816	-0.779
816	-0.796
817	-0.808
817	-0.812
817	-0.822
818	-0.814
818	-0.812
819	-0.822
819	-0.819
820	-0.832
820	-0.831
820	-0.83
821	-0.823
821	-0.819
822	-0.818
822	-0.806
823	-0.819
823	-0.819
823	-0.812
824	-0.812
824	-0.821
825	-0.821
825	-0.818
826	-0.816
826	-0.811
826	-0.812
827	-0.814
827	-0.801
828	-0.802
828	-0.796
829	-0.788
829	-0.773
829	-0.77
830	-0.769
830	-0.755
831	-0.75
831	-0.737
832	-0.726
832	-0.723
832	-0.715
833	-0.714
833	-0.721
834	-0.716
834	-0.711
835	-0.702
835	-0.7
835	-0.693
836	-0.689
836	-0.686
837	-0.675
837	-0.665
838	-0.651
838	-0.632
839	-0.629
839	-0.614
839	-0.605
840	-0.603
840	-0.593
841	-0.582
841	-0.575
842	-0.566
842	-0.555
842	-0.553
843	-0.55
843	-0.543
844	-0.542
844	-0.53
845	-0.516
845	-0.506
845	-0.496
846	-0.484
846	-0.474
847	-0.462
847	-0.448
848	-0.432
848	-0.415
848	-0.401
849	-0.388
849	-0.375
850	-0.364
850	-0.352
851	-0.339
851	-0.322
851	-0.313
852	-0.298
852	-0.285
853	-0.276
853	-0.265
854	-0.254
854	-0.242
854	-0.23
855	-0.219
855	-0.21
856	-0.202
856	-0.191
857	-0.183
857	-0.174
857	-0.16
858	-0.149
858	-0.142
859	-0.131
859	-0.119
860	-0.108
860	-0.093
860	-0.083
861	-0.072
861	-0.062
862	-0.054
862	-0.046
863	-0.037
863	-0.027
863	-0.02
864	-0.013
864	-0.005
865	0.002
865	0.008
866	0.015
866	0.021
866	0.026
867	0.032
867	0.038
868	0.043
868	0.048
869	0.054
869	0.057
869	0.06
870	0.062
870	0.064
871	0.065
871	0.067
872	0.068
872	0.07
872	0.07
873	0.07
873	0.07
874	0.069
874	0.069
875	0.068
875	0.068
875	0.068
876	0.067
876	0.067
877	0.066
877	0.065
878	0.064
878	0.064
878	0.064
879	0.064
879	0.063
880	0.063
880	0.062
881	0.061
881	0.06
881	0.06
882	0.058
882	0.057
883	0.055
883	0.054
884	0.053
884	0.053
884	0.052
885	0.052
885	0.052
886	0.051
886	0.051
887	0.051
887	0.05
887	0.05
888	0.05
888	0.049
889	0.048
889	0.047
890	0.046
890	0.046
890	0.045
891	0.045
891	0.045
892	0.045
892	0.045
893	0.046
893	0.045
893	0.045
894	0.045
894	0.045
895	0.045
895	0.045
895	0.044
896	0.044
896	0.044
897	0.044
897	0.043
898	0.043
898	0.043
898	0.043
899	0.043
899	0.044
900	0.043
900	0.043
901	0.043
901	0.042
901	0.042
902	0.042
902	0.042
903	0.042
903	0.042
904	0.042
904	0.042
904	0.042
905	0.043
905	0.043
906	0.044
906	0.045
907	0.045
907	0.045
907	0.046
908	0.046
908	0.046
909	0.047
909	0.047
910	0.047
910	0.047
910	0.047
911	0.048
911	0.048
912	0.049
912	0.05
913	0.05
913	0.05
913	0.05
914	0.051
914	0.051
915	0.051
915	0.051
916	0.052
916	0.051
916	0.051
917	0.051
917	0.051
918	0.051
918	0.051
918	0.051
919	0.051
919	0.051
920	0.051
920	0.052
921	0.052
921	0.053
921	0.054
922	0.054
922	0.055
923	0.055
923	0.055
924	0.055
924	0.055
924	0.054
925	0.053
925	0.052
926	0.051
926	0.05
927	0.049
927	0.048
927	0.047
928	0.047
928	0.047
929	0.047
929	0.048
930	0.049
930	0.049
930	0.05
931	0.05
931	0.051
932	0.053
932	0.054
933	0.054
933	0.055
933	0.055
934	0.054
934	0.054
935	0.053
935	0.052
935	0.051
936	0.05
936	0.048
937	0.047
937	0.046
938	0.045
938	0.044
938	0.044
939	0.043
939	0.042
940	0.042
940	0.041
941	0.04
941	0.039
941	0.039
942	0.038
942	0.038
943	0.038
943	0.037
944	0.036
944	0.035
944	0.034
945	0.033
945	0.033
946	0.032
946	0.032
946	0.031
947	0.031
947	0.031
948	0.032
948	0.032
949	0.033
949	0.035
949	0.036
950	0.038
950	0.039
951	0.041
951	0.042
952	0.043
952	0.044
952	0.045
953	0.045
953	0.046
954	0.046
954	0.045
955	0.046
955	0.045
955	0.045
956	0.044
956	0.044
957	0.043
957	0.042
957	0.041
958	0.04
958	0.04
959	0.039
959	0.039
960	0.039
960	0.038
960	0.038
961	0.038
961	0.039
962	0.039
962	0.039
963	0.039
963	0.039
963	0.04
964	0.04
964	0.04
965	0.04
965	0.04
966	0.04
966	0.041
966	0.041
967	0.042
967	0.041
968	0.041
968	0.041
968	0.041
969	0.041
969	0.041
970	0.041
970	0.04
971	0.04
971	0.04
971	0.04
972	0.041
972	0.041
973	0.041
973	0.041
974	0.041
974	0.041
974	0.041
975	0.042
975	0.042
976	0.041
976	0.041
976	0.041
977	0.041
977	0.04
978	0.04
978	0.039
979	0.039
979	0.038
979	0.038
980	0.038
980	0.038
981	0.038
981	0.038
982	0.038
982	0.038
982	0.038
983	0.038
983	0.038
984	0.037
984	0.037
984	0.036
985	0.036
985	0.036
986	0.035
986	0.034
987	0.033
987	0.033
987	0.032
988	0.031
988	0.031
989	0.03
989	0.029
990	0.028
990	0.027
990	0.027
991	0.026
991	0.025
992	0.024
992	0.023
992	0.023
993	0.022
993	0.021
994	0.019
994	0.018
995	0.017
995	0.015
995	0.014
996	0.012
996	0.011
997	0.01
997	0.008
997	0.008
998	0.007
998	0.007
999	0.007
999	0.007
1000	0.008
1000	0.008
1000	0.009
1001	0.009
1001	0.01
1002	0.01
1002	0.011
1003	0.011
1003	0.011
1003	0.011
1004	0.011
1004	0.011
1005	0.01
1005	0.01
1005	0.009
1006	0.009
1006	0.008
1007	0.008
1007	0.007
1008	0.006
1008	0.005
1008	0.005
1009	0.005
1009	0.005
1010	0.006
1010	0.006
1010	0.007
1011	0.007
1011	0.008
1012	0.009
1012	0.01
1013	0.012
1013	0.012
1013	0.013
1014	0.014
1014	0.014
1015	0.015
1015	0.015
1016	0.016
1016	0.016
1016	0.016
1017	0.015
1017	0.015
1018	0.016
1018	0.015
1018	0.015
1019	0.015
1019	0.015
1020	0.014
1020	0.014
1021	0.013
1021	0.013
1021	0.013
1022	0.012
1022	0.012
1023	0.013
1023	0.013
1023	0.013
1024	0.014
1024	0.014
1025	0.014
1025	0.015
1026	0.015
1026	0.016
1026	0.016
1027	0.015
1027	0.016
1028	0.016
1028	0.017
1028	0.017
1029	0.017
1029	0.017
1030	0.017
1030	0.017
1031	0.017
1031	0.017
1031	0.017
1032	0.017
1032	0.017
1033	0.016
1033	0.016
1033	0.016
1034	0.015
1034	0.015
1035	0.015
1035	0.014
1036	0.013
1036	0.013
1036	0.013
1037	0.012
1037	0.013
1038	0.012
1038	0.012
1039	0.013
1039	0.013
1039	0.014
1040	0.014
1040	0.014
1041	0.014
1041	0.014
1041	0.014
1042	0.013
1042	0.013
1043	0.012
1043	0.011
1044	0.01
1044	0.009
1044	0.008
1045	0.007
1045	0.007
1046	0.006
1046	0.005
1046	0.005
1047	0.005
1047	0.005
1048	0.005
1048	0.005
1049	0.005
1049	0.005
1049	0.005
1050	0.005
1050	0.004
1051	0.003
1051	0.003
1051	0.002
1052	0.002
1052	0.001
1053	0.001
1053	0
1053	-0
1054	-0.001
1054	-0.001
1055	-0.001
1055	-0.001
1056	-0.001
1056	-0.001
1056	-0.002
1057	-0.002
1057	-0.002
1058	-0.003
1058	-0.004
1058	-0.003
1059	-0.004
1059	-0.005
1060	-0.006
1060	-0.006
1061	-0.006
1061	-0.006
1061	-0.006
1062	-0.007
1062	-0.007
1063	-0.007
1063	-0.007
1063	-0.007
1064	-0.006
1064	-0.006
1065	-0.006
1065	-0.006
1066	-0.006
1066	-0.006
1066	-0.007
1067	-0.007
1067	-0.008
1068	-0.008
1068	-0.009
1068	-0.01
1069	-0.011
1069	-0.012
1070	-0.012
1070	-0.013
1071	-0.013
1071	-0.014
1071	-0.014
1072	-0.015
1072	-0.015
1073	-0.015
1073	-0.016
1073	-0.016
1074	-0.016
1074	-0.017
1075	-0.017
1075	-0.018
1076	-0.019
1076	-0.019
1076	-0.02
1077	-0.021
1077	-0.022
1078	-0.022
1078	-0.023
1078	-0.023
1079	-0.024
1079	-0.024
1080	-0.026
1080	-0.026
1080	-0.027
1081	-0.028
1081	-0.029
1082	-0.03
1082	-0.031
1083	-0.033
1083	-0.034
1083	-0.035
1084	-0.037
1084	-0.038
1085	-0.039
1085	-0.04
1085	-0.041
1086	-0.042
1086	-0.044
1087	-0.044
1087	-0.045
1088	-0.046
1088	-0.047
1088	-0.047
1089	-0.048
1089	-0.049
1090	-0.05
1090	-0.051
1090	-0.052
1091	-0.053
1091	-0.053
1092	-0.054
1092	-0.054
1092	-0.055
1093	-0.056
1093	-0.056
1094	-0.056
1094	-0.058
1095	-0.059
1095	-0.06
1095	-0.06
1096	-0.061
1096	-0.063
1097	-0.064
1097	-0.067
1097	-0.068
1098	-0.071
1098	-0.073
1099	-0.075
1099	-0.076
1100	-0.078
1100	-0.081
1100	-0.084
1101	-0.087
1101	-0.089
1102	-0.091
1102	-0.094
1102	-0.095
1103	-0.097
1103	-0.1
1104	-0.103
1104	-0.107
1104	-0.108
1105	-0.111
1105	-0.114
1106	-0.12
1106	-0.122
1107	-0.128
1107	-0.133
1107	-0.139
1108	-0.141
1108	-0.142
1109	-0.146
1109	-0.152
1109	-0.157
1110	-0.158
1110	-0.159
1111	-0.167
1111	-0.164
