Data from 3.4A_17C_Absorbance__412__02324.txt Node

Date: Tue Jun 20 16:39:22 CEST 2023
User: Marek
Spectrometer: MAYP115816
Trigger mode: 0
Integration Time (sec): 2.200000E-1
Scans to average: 10
Electric dark correction enabled: true
Nonlinearity correction enabled: true
Boxcar width: 5
XAxis mode: Wavelengths
Number of Pixels in Spectrum: 2068
>>>>>Begin Spectral Data<<<<<
199	-0.788
199	-0.784
200	-0.75
200	-0.696
201	-0.667
201	-0.657
202	-0.641
202	-0.636
203	-0.635
203	-0.627
204	-0.608
204	-0.593
205	-0.568
205	-0.557
205	-0.566
206	-0.567
206	-0.565
207	-0.558
207	-0.563
208	-0.565
208	-0.568
209	-0.569
209	-0.574
210	-0.586
210	-0.594
211	-0.587
211	-0.592
212	-0.599
212	-0.605
213	-0.601
213	-0.596
213	-0.597
214	-0.604
214	-0.606
215	-0.603
215	-0.608
216	-0.617
216	-0.623
217	-0.622
217	-0.623
218	-0.63
218	-0.631
219	-0.636
219	-0.637
220	-0.641
220	-0.647
221	-0.647
221	-0.647
221	-0.639
222	-0.638
222	-0.637
223	-0.633
223	-0.635
224	-0.636
224	-0.635
225	-0.633
225	-0.634
226	-0.634
226	-0.635
227	-0.641
227	-0.651
228	-0.653
228	-0.663
229	-0.669
229	-0.666
229	-0.666
230	-0.661
230	-0.66
231	-0.657
231	-0.652
232	-0.655
232	-0.649
233	-0.649
233	-0.637
234	-0.638
234	-0.633
235	-0.637
235	-0.649
236	-0.655
236	-0.656
236	-0.657
237	-0.656
237	-0.658
238	-0.659
238	-0.66
239	-0.662
239	-0.673
240	-0.665
240	-0.66
241	-0.654
241	-0.659
242	-0.661
242	-0.669
243	-0.669
243	-0.67
243	-0.676
244	-0.672
244	-0.672
245	-0.677
245	-0.681
246	-0.692
246	-0.694
247	-0.701
247	-0.687
248	-0.687
248	-0.691
249	-0.697
249	-0.7
250	-0.699
250	-0.705
250	-0.702
251	-0.704
251	-0.702
252	-0.703
252	-0.714
253	-0.708
253	-0.719
254	-0.723
254	-0.724
255	-0.735
255	-0.734
256	-0.736
256	-0.749
257	-0.758
257	-0.755
258	-0.757
258	-0.766
258	-0.764
259	-0.757
259	-0.776
260	-0.776
260	-0.766
261	-0.778
261	-0.763
262	-0.768
262	-0.766
263	-0.755
263	-0.76
264	-0.769
264	-0.771
265	-0.76
265	-0.761
265	-0.771
266	-0.76
266	-0.76
267	-0.76
267	-0.776
268	-0.786
268	-0.78
269	-0.77
269	-0.785
270	-0.789
270	-0.788
271	-0.801
271	-0.812
272	-0.812
272	-0.815
272	-0.808
273	-0.818
273	-0.835
274	-0.827
274	-0.823
275	-0.819
275	-0.808
276	-0.812
276	-0.816
277	-0.82
277	-0.818
278	-0.822
278	-0.822
278	-0.808
279	-0.817
279	-0.829
280	-0.832
280	-0.842
281	-0.836
281	-0.828
282	-0.832
282	-0.826
283	-0.821
283	-0.834
284	-0.849
284	-0.859
285	-0.839
285	-0.847
285	-0.84
286	-0.846
286	-0.864
287	-0.861
287	-0.859
288	-0.858
288	-0.839
289	-0.838
289	-0.847
290	-0.856
290	-0.843
291	-0.846
291	-0.844
292	-0.822
292	-0.816
292	-0.82
293	-0.808
293	-0.805
294	-0.803
294	-0.788
295	-0.771
295	-0.783
296	-0.795
296	-0.789
297	-0.779
297	-0.788
298	-0.785
298	-0.802
298	-0.807
299	-0.789
299	-0.782
300	-0.778
300	-0.76
301	-0.742
301	-0.745
302	-0.756
302	-0.74
303	-0.733
303	-0.72
304	-0.702
304	-0.704
305	-0.696
305	-0.703
305	-0.718
306	-0.702
306	-0.699
307	-0.69
307	-0.7
308	-0.702
308	-0.697
309	-0.699
309	-0.695
310	-0.693
310	-0.689
311	-0.675
311	-0.692
311	-0.681
312	-0.679
312	-0.668
313	-0.66
313	-0.663
314	-0.669
314	-0.667
315	-0.665
315	-0.659
316	-0.653
316	-0.644
317	-0.635
317	-0.631
318	-0.624
318	-0.621
318	-0.61
319	-0.597
319	-0.591
320	-0.587
320	-0.585
321	-0.579
321	-0.58
322	-0.575
322	-0.568
323	-0.568
323	-0.559
324	-0.556
324	-0.547
324	-0.536
325	-0.521
325	-0.503
326	-0.494
326	-0.469
327	-0.454
327	-0.432
328	-0.399
328	-0.375
329	-0.347
329	-0.315
330	-0.289
330	-0.251
330	-0.215
331	-0.177
331	-0.142
332	-0.106
332	-0.073
333	-0.043
333	-0.008
334	0.023
334	0.049
335	0.077
335	0.1
336	0.123
336	0.145
336	0.163
337	0.181
337	0.199
338	0.214
338	0.224
339	0.239
339	0.251
340	0.259
340	0.268
341	0.277
341	0.283
342	0.29
342	0.296
342	0.302
343	0.306
343	0.311
344	0.315
344	0.318
345	0.322
345	0.325
346	0.327
346	0.329
347	0.331
347	0.332
348	0.334
348	0.336
348	0.337
349	0.337
349	0.338
350	0.339
350	0.34
351	0.341
351	0.341
352	0.341
352	0.342
353	0.342
353	0.342
354	0.342
354	0.342
354	0.342
355	0.342
355	0.342
356	0.342
356	0.342
357	0.342
357	0.342
358	0.342
358	0.342
359	0.342
359	0.342
360	0.342
360	0.343
360	0.343
361	0.342
361	0.342
362	0.342
362	0.342
363	0.342
363	0.342
364	0.342
364	0.342
365	0.342
365	0.341
366	0.342
366	0.341
366	0.341
367	0.341
367	0.341
368	0.341
368	0.341
369	0.341
369	0.341
370	0.34
370	0.34
371	0.34
371	0.339
372	0.339
372	0.339
372	0.339
373	0.338
373	0.338
374	0.338
374	0.338
375	0.337
375	0.337
376	0.337
376	0.337
377	0.336
377	0.336
378	0.336
378	0.335
378	0.335
379	0.335
379	0.335
380	0.334
380	0.334
381	0.334
381	0.334
382	0.333
382	0.333
383	0.333
383	0.333
383	0.332
384	0.332
384	0.332
385	0.331
385	0.331
386	0.331
386	0.331
387	0.33
387	0.33
388	0.33
388	0.33
389	0.329
389	0.329
389	0.329
390	0.329
390	0.329
391	0.329
391	0.328
392	0.328
392	0.328
393	0.327
393	0.327
394	0.327
394	0.326
394	0.326
395	0.326
395	0.325
396	0.325
396	0.325
397	0.324
397	0.324
398	0.324
398	0.323
399	0.323
399	0.323
400	0.322
400	0.322
400	0.322
401	0.321
401	0.321
402	0.321
402	0.321
403	0.321
403	0.32
404	0.32
404	0.32
405	0.319
405	0.319
405	0.319
406	0.319
406	0.318
407	0.318
407	0.318
408	0.317
408	0.317
409	0.317
409	0.317
410	0.317
410	0.317
411	0.317
411	0.316
411	0.316
412	0.316
412	0.315
413	0.315
413	0.315
414	0.315
414	0.315
415	0.314
415	0.314
416	0.313
416	0.313
416	0.313
417	0.312
417	0.312
418	0.312
418	0.312
419	0.312
419	0.312
420	0.312
420	0.312
421	0.311
421	0.311
421	0.312
422	0.312
422	0.312
423	0.311
423	0.311
424	0.311
424	0.311
425	0.311
425	0.311
426	0.311
426	0.31
427	0.31
427	0.31
427	0.31
428	0.31
428	0.31
429	0.31
429	0.309
430	0.309
430	0.308
431	0.308
431	0.308
432	0.308
432	0.307
432	0.307
433	0.307
433	0.307
434	0.307
434	0.307
435	0.307
435	0.307
436	0.307
436	0.307
437	0.307
437	0.307
437	0.307
438	0.307
438	0.307
439	0.307
439	0.307
440	0.307
440	0.306
441	0.306
441	0.306
442	0.306
442	0.306
442	0.306
443	0.306
443	0.305
444	0.305
444	0.305
445	0.305
445	0.305
446	0.305
446	0.305
447	0.305
447	0.305
447	0.305
448	0.306
448	0.305
449	0.305
449	0.305
450	0.306
450	0.306
451	0.306
451	0.306
452	0.306
452	0.306
452	0.306
453	0.306
453	0.306
454	0.306
454	0.306
455	0.307
455	0.307
456	0.307
456	0.307
457	0.307
457	0.307
458	0.307
458	0.306
458	0.307
459	0.307
459	0.306
460	0.306
460	0.306
461	0.306
461	0.307
462	0.307
462	0.308
463	0.309
463	0.31
463	0.31
464	0.31
464	0.311
465	0.311
465	0.312
466	0.312
466	0.313
467	0.313
467	0.313
467	0.313
468	0.313
468	0.313
469	0.313
469	0.314
470	0.315
470	0.315
471	0.315
471	0.315
472	0.315
472	0.316
472	0.316
473	0.317
473	0.318
474	0.318
474	0.319
475	0.32
475	0.321
476	0.321
476	0.322
477	0.323
477	0.324
477	0.325
478	0.326
478	0.326
479	0.327
479	0.328
480	0.328
480	0.329
481	0.33
481	0.331
482	0.332
482	0.333
482	0.334
483	0.336
483	0.338
484	0.339
484	0.34
485	0.342
485	0.343
486	0.344
486	0.346
487	0.347
487	0.348
487	0.35
488	0.35
488	0.351
489	0.352
489	0.354
490	0.356
490	0.357
491	0.359
491	0.361
492	0.362
492	0.364
492	0.365
493	0.366
493	0.368
494	0.371
494	0.373
495	0.375
495	0.377
496	0.379
496	0.381
496	0.383
497	0.385
497	0.388
498	0.39
498	0.392
499	0.394
499	0.396
500	0.399
500	0.402
501	0.404
501	0.406
501	0.408
502	0.41
502	0.413
503	0.415
503	0.418
504	0.42
504	0.423
505	0.425
505	0.428
506	0.431
506	0.434
506	0.437
507	0.44
507	0.444
508	0.447
508	0.45
509	0.453
509	0.456
510	0.459
510	0.462
511	0.464
511	0.467
511	0.469
512	0.472
512	0.474
513	0.476
513	0.478
514	0.48
514	0.482
515	0.484
515	0.486
515	0.488
516	0.49
516	0.492
517	0.494
517	0.496
518	0.498
518	0.5
519	0.502
519	0.503
520	0.505
520	0.507
520	0.509
521	0.51
521	0.511
522	0.512
522	0.514
523	0.515
523	0.517
524	0.518
524	0.519
524	0.52
525	0.521
525	0.522
526	0.523
526	0.524
527	0.524
527	0.524
528	0.524
528	0.524
529	0.524
529	0.524
529	0.524
530	0.524
530	0.524
531	0.523
531	0.523
532	0.522
532	0.521
533	0.521
533	0.52
533	0.52
534	0.519
534	0.518
535	0.517
535	0.516
536	0.516
536	0.514
537	0.514
537	0.512
538	0.511
538	0.51
538	0.508
539	0.507
539	0.505
540	0.504
540	0.501
541	0.499
541	0.498
542	0.496
542	0.494
542	0.491
543	0.489
543	0.486
544	0.484
544	0.482
545	0.479
545	0.477
546	0.475
546	0.472
547	0.469
547	0.466
547	0.464
548	0.462
548	0.46
549	0.458
549	0.455
550	0.453
550	0.45
551	0.447
551	0.445
551	0.442
552	0.44
552	0.437
553	0.435
553	0.432
554	0.429
554	0.426
555	0.423
555	0.42
556	0.417
556	0.414
556	0.411
557	0.409
557	0.406
558	0.404
558	0.401
559	0.398
559	0.395
560	0.392
560	0.389
560	0.387
561	0.385
561	0.383
562	0.381
562	0.378
563	0.376
563	0.374
564	0.371
564	0.37
564	0.368
565	0.366
565	0.365
566	0.362
566	0.361
567	0.359
567	0.357
568	0.355
568	0.353
568	0.351
569	0.349
569	0.346
570	0.343
570	0.34
571	0.339
571	0.337
572	0.334
572	0.332
573	0.329
573	0.327
573	0.324
574	0.323
574	0.322
575	0.32
575	0.32
576	0.318
576	0.315
577	0.313
577	0.312
577	0.311
578	0.31
578	0.309
579	0.309
579	0.308
580	0.305
580	0.302
581	0.299
581	0.298
581	0.297
582	0.297
582	0.296
583	0.295
583	0.293
584	0.29
584	0.288
585	0.288
585	0.288
585	0.287
586	0.286
586	0.285
587	0.282
587	0.28
588	0.278
588	0.277
589	0.276
589	0.275
590	0.273
590	0.272
590	0.272
591	0.271
591	0.269
592	0.267
592	0.266
593	0.265
593	0.263
594	0.262
594	0.26
594	0.259
595	0.258
595	0.256
596	0.254
596	0.254
597	0.255
597	0.254
598	0.253
598	0.253
598	0.252
599	0.252
599	0.25
600	0.25
600	0.249
601	0.249
601	0.248
602	0.247
602	0.246
602	0.245
603	0.245
603	0.245
604	0.244
604	0.244
605	0.244
605	0.243
606	0.242
606	0.24
606	0.239
607	0.238
607	0.237
608	0.236
608	0.234
609	0.233
609	0.232
610	0.231
610	0.23
610	0.229
611	0.229
611	0.228
612	0.228
612	0.227
613	0.226
613	0.226
614	0.224
614	0.222
614	0.221
615	0.219
615	0.218
616	0.217
616	0.215
617	0.215
617	0.214
618	0.212
618	0.212
618	0.211
619	0.21
619	0.21
620	0.21
620	0.209
621	0.207
621	0.206
622	0.205
622	0.203
622	0.201
623	0.199
623	0.199
624	0.198
624	0.196
625	0.195
625	0.194
626	0.193
626	0.192
626	0.192
627	0.191
627	0.19
628	0.189
628	0.188
629	0.187
629	0.186
630	0.184
630	0.182
630	0.181
631	0.18
631	0.178
632	0.176
632	0.174
633	0.171
633	0.169
634	0.167
634	0.165
634	0.163
635	0.161
635	0.158
636	0.156
636	0.153
637	0.15
637	0.147
638	0.144
638	0.141
638	0.138
639	0.134
639	0.13
640	0.126
640	0.121
641	0.117
641	0.113
642	0.109
642	0.105
642	0.1
643	0.095
643	0.09
644	0.085
644	0.08
645	0.074
645	0.069
646	0.064
646	0.058
646	0.051
647	0.044
647	0.038
648	0.031
648	0.023
649	0.016
649	0.009
650	0.002
650	-0.005
650	-0.013
651	-0.022
651	-0.033
652	-0.046
652	-0.061
653	-0.072
653	-0.083
653	-0.078
654	-0.059
654	-0.054
655	-0.059
655	-0.064
656	-0.07
656	-0.075
657	-0.08
657	-0.084
657	-0.091
658	-0.097
658	-0.128
659	-0.213
659	-0.301
660	-0.341
660	-0.367
661	-0.393
661	-0.424
661	-0.453
662	-0.481
662	-0.51
663	-0.543
663	-0.579
664	-0.614
664	-0.652
665	-0.695
665	-0.739
665	-0.782
666	-0.83
666	-0.882
667	-0.934
667	-0.995
668	-1.052
668	-1.118
669	-1.183
669	-1.255
669	-1.331
670	-1.409
670	-1.515
671	-1.672
671	-2.009
672	-2.278
672	-2.451
672	-2.577
673	-2.676
673	-2.759
674	-2.831
674	-2.85
675	-2.866
675	-2.871
676	-2.87
676	-2.83
676	-2.764
677	-2.683
677	-2.587
678	-2.447
678	-2.225
679	-1.808
679	-1.608
680	-1.495
680	-1.417
680	-1.348
681	-1.3
681	-1.245
682	-1.204
682	-1.16
683	-1.117
683	-1.093
684	-1.064
684	-1.046
684	-1.023
685	-1.002
685	-0.994
686	-0.972
686	-0.959
687	-0.95
687	-0.938
687	-0.939
688	-0.924
688	-0.916
689	-0.918
689	-0.915
690	-0.902
690	-0.891
691	-0.887
691	-0.89
691	-0.889
692	-0.89
692	-0.887
693	-0.894
693	-0.906
694	-0.887
694	-0.887
695	-0.889
695	-0.883
695	-0.892
696	-0.899
696	-0.892
697	-0.886
697	-0.882
698	-0.878
698	-0.87
698	-0.885
699	-0.883
699	-0.884
700	-0.904
700	-0.896
701	-0.883
701	-0.877
702	-0.877
702	-0.874
702	-0.875
703	-0.866
703	-0.853
704	-0.861
704	-0.864
705	-0.852
705	-0.853
705	-0.849
706	-0.842
706	-0.839
707	-0.85
707	-0.855
708	-0.852
708	-0.85
709	-0.85
709	-0.847
709	-0.844
710	-0.853
710	-0.855
711	-0.855
711	-0.855
712	-0.846
712	-0.842
713	-0.848
713	-0.848
713	-0.828
714	-0.831
714	-0.833
715	-0.825
715	-0.832
716	-0.849
716	-0.858
716	-0.859
717	-0.865
717	-0.856
718	-0.85
718	-0.852
719	-0.847
719	-0.84
720	-0.834
720	-0.829
720	-0.822
721	-0.813
721	-0.818
722	-0.816
722	-0.812
723	-0.83
723	-0.843
723	-0.851
724	-0.851
724	-0.856
725	-0.852
725	-0.856
726	-0.86
726	-0.851
727	-0.853
727	-0.858
727	-0.848
728	-0.834
728	-0.83
729	-0.833
729	-0.836
730	-0.84
730	-0.831
730	-0.836
731	-0.84
731	-0.84
732	-0.845
732	-0.841
733	-0.856
733	-0.863
734	-0.872
734	-0.863
734	-0.847
735	-0.837
735	-0.831
736	-0.829
736	-0.824
737	-0.822
737	-0.812
737	-0.804
738	-0.791
738	-0.778
739	-0.781
739	-0.782
740	-0.795
740	-0.797
741	-0.808
741	-0.818
741	-0.827
742	-0.834
742	-0.85
743	-0.855
743	-0.858
744	-0.861
744	-0.869
744	-0.864
745	-0.87
745	-0.86
746	-0.855
746	-0.846
747	-0.849
747	-0.838
748	-0.84
748	-0.844
748	-0.844
749	-0.837
749	-0.842
750	-0.832
750	-0.832
751	-0.832
751	-0.829
751	-0.843
752	-0.846
752	-0.848
753	-0.85
753	-0.843
754	-0.863
754	-0.863
754	-0.872
755	-0.871
755	-0.863
756	-0.865
756	-0.851
757	-0.844
757	-0.833
758	-0.834
758	-0.834
758	-0.829
759	-0.835
759	-0.834
760	-0.833
760	-0.835
761	-0.83
761	-0.835
761	-0.836
762	-0.843
762	-0.844
763	-0.845
763	-0.848
764	-0.845
764	-0.84
764	-0.847
765	-0.845
765	-0.852
766	-0.853
766	-0.852
767	-0.867
767	-0.862
768	-0.86
768	-0.852
768	-0.848
769	-0.851
769	-0.858
770	-0.869
770	-0.872
771	-0.868
771	-0.869
771	-0.874
772	-0.878
772	-0.9
773	-0.901
773	-0.902
774	-0.901
774	-0.886
775	-0.872
775	-0.871
775	-0.874
776	-0.886
776	-0.882
777	-0.883
777	-0.863
778	-0.872
778	-0.879
778	-0.881
779	-0.89
779	-0.905
780	-0.902
780	-0.91
781	-0.896
781	-0.886
781	-0.899
782	-0.919
782	-0.921
783	-0.921
783	-0.928
784	-0.931
784	-0.924
784	-0.944
785	-0.938
785	-0.953
786	-0.956
786	-0.948
787	-0.938
787	-0.947
788	-0.938
788	-0.932
788	-0.933
789	-0.933
789	-0.923
790	-0.923
790	-0.908
791	-0.916
791	-0.912
791	-0.905
792	-0.899
792	-0.903
793	-0.905
793	-0.893
794	-0.886
794	-0.878
794	-0.885
795	-0.905
795	-0.891
796	-0.895
796	-0.892
797	-0.885
797	-0.877
797	-0.871
798	-0.89
798	-0.896
799	-0.896
799	-0.882
800	-0.876
800	-0.884
801	-0.884
801	-0.888
801	-0.884
802	-0.882
802	-0.88
803	-0.874
803	-0.865
804	-0.87
804	-0.88
804	-0.863
805	-0.844
805	-0.836
806	-0.836
806	-0.834
807	-0.835
807	-0.836
807	-0.819
808	-0.816
808	-0.808
809	-0.8
809	-0.802
810	-0.804
810	-0.801
810	-0.797
811	-0.8
811	-0.793
812	-0.787
812	-0.789
813	-0.793
813	-0.794
813	-0.79
814	-0.79
814	-0.795
815	-0.785
815	-0.783
816	-0.778
816	-0.795
817	-0.807
817	-0.812
817	-0.822
818	-0.816
818	-0.814
819	-0.823
819	-0.822
820	-0.835
820	-0.834
820	-0.833
821	-0.825
821	-0.821
822	-0.82
822	-0.807
823	-0.818
823	-0.819
823	-0.814
824	-0.814
824	-0.823
825	-0.822
825	-0.82
826	-0.816
826	-0.811
826	-0.81
827	-0.811
827	-0.8
828	-0.799
828	-0.793
829	-0.785
829	-0.77
829	-0.767
830	-0.764
830	-0.751
831	-0.745
831	-0.735
832	-0.725
832	-0.72
832	-0.713
833	-0.712
833	-0.717
834	-0.711
834	-0.708
835	-0.7
835	-0.701
835	-0.695
836	-0.691
836	-0.685
837	-0.677
837	-0.667
838	-0.653
838	-0.636
839	-0.631
839	-0.615
839	-0.607
840	-0.603
840	-0.594
841	-0.583
841	-0.578
842	-0.568
842	-0.555
842	-0.553
843	-0.55
843	-0.546
844	-0.543
844	-0.532
845	-0.518
845	-0.508
845	-0.497
846	-0.484
846	-0.475
847	-0.465
847	-0.451
848	-0.436
848	-0.419
848	-0.406
849	-0.393
849	-0.38
850	-0.37
850	-0.36
851	-0.346
851	-0.329
851	-0.319
852	-0.302
852	-0.29
853	-0.282
853	-0.271
854	-0.259
854	-0.248
854	-0.236
855	-0.224
855	-0.215
856	-0.207
856	-0.197
857	-0.19
857	-0.181
857	-0.167
858	-0.156
858	-0.149
859	-0.138
859	-0.126
860	-0.115
860	-0.102
860	-0.091
861	-0.081
861	-0.071
862	-0.062
862	-0.054
863	-0.046
863	-0.036
863	-0.03
864	-0.024
864	-0.017
865	-0.01
865	-0.004
866	0.002
866	0.007
866	0.013
867	0.019
867	0.025
868	0.029
868	0.034
869	0.039
869	0.043
869	0.045
870	0.047
870	0.049
871	0.051
871	0.053
872	0.054
872	0.055
872	0.056
873	0.056
873	0.056
874	0.055
874	0.055
875	0.054
875	0.054
875	0.054
876	0.054
876	0.054
877	0.053
877	0.053
878	0.052
878	0.052
878	0.052
879	0.051
879	0.051
880	0.051
880	0.05
881	0.049
881	0.047
881	0.046
882	0.045
882	0.043
883	0.042
883	0.041
884	0.04
884	0.04
884	0.039
885	0.039
885	0.039
886	0.038
886	0.038
887	0.037
887	0.037
887	0.036
888	0.036
888	0.035
889	0.034
889	0.033
890	0.032
890	0.032
890	0.031
891	0.031
891	0.031
892	0.032
892	0.032
893	0.031
893	0.031
893	0.031
894	0.031
894	0.031
895	0.031
895	0.03
895	0.03
896	0.03
896	0.03
897	0.03
897	0.031
898	0.031
898	0.031
898	0.032
899	0.032
899	0.033
900	0.033
900	0.032
901	0.032
901	0.031
901	0.03
902	0.03
902	0.03
903	0.029
903	0.029
904	0.029
904	0.029
904	0.029
905	0.029
905	0.03
906	0.031
906	0.032
907	0.032
907	0.033
907	0.033
908	0.034
908	0.034
909	0.035
909	0.035
910	0.035
910	0.036
910	0.036
911	0.036
911	0.037
912	0.038
912	0.038
913	0.039
913	0.039
913	0.04
914	0.04
914	0.041
915	0.041
915	0.041
916	0.041
916	0.041
916	0.041
917	0.041
917	0.04
918	0.04
918	0.04
918	0.04
919	0.04
919	0.04
920	0.04
920	0.041
921	0.042
921	0.042
921	0.043
922	0.043
922	0.044
923	0.044
923	0.044
924	0.044
924	0.043
924	0.043
925	0.042
925	0.04
926	0.039
926	0.037
927	0.036
927	0.035
927	0.034
928	0.034
928	0.033
929	0.034
929	0.034
930	0.034
930	0.035
930	0.036
931	0.037
931	0.038
932	0.039
932	0.04
933	0.041
933	0.042
933	0.042
934	0.041
934	0.041
935	0.041
935	0.039
935	0.038
936	0.037
936	0.036
937	0.034
937	0.033
938	0.033
938	0.032
938	0.031
939	0.031
939	0.03
940	0.029
940	0.029
941	0.028
941	0.027
941	0.027
942	0.026
942	0.026
943	0.025
943	0.025
944	0.024
944	0.023
944	0.022
945	0.022
945	0.022
946	0.021
946	0.021
946	0.02
947	0.02
947	0.021
948	0.021
948	0.022
949	0.022
949	0.024
949	0.026
950	0.027
950	0.029
951	0.03
951	0.031
952	0.032
952	0.033
952	0.034
953	0.035
953	0.035
954	0.035
954	0.035
955	0.035
955	0.035
955	0.034
956	0.034
956	0.033
957	0.032
957	0.031
957	0.03
958	0.029
958	0.029
959	0.029
959	0.028
960	0.027
960	0.027
960	0.027
961	0.027
961	0.027
962	0.028
962	0.028
963	0.028
963	0.029
963	0.029
964	0.029
964	0.03
965	0.03
965	0.031
966	0.031
966	0.031
966	0.031
967	0.031
967	0.031
968	0.03
968	0.03
968	0.03
969	0.03
969	0.03
970	0.029
970	0.029
971	0.029
971	0.029
971	0.029
972	0.03
972	0.03
973	0.03
973	0.03
974	0.03
974	0.03
974	0.03
975	0.031
975	0.031
976	0.03
976	0.03
976	0.03
977	0.03
977	0.029
978	0.029
978	0.028
979	0.028
979	0.028
979	0.028
980	0.027
980	0.027
981	0.027
981	0.027
982	0.027
982	0.027
982	0.027
983	0.027
983	0.027
984	0.027
984	0.027
984	0.026
985	0.026
985	0.025
986	0.024
986	0.024
987	0.023
987	0.022
987	0.021
988	0.021
988	0.02
989	0.019
989	0.019
990	0.018
990	0.017
990	0.016
991	0.016
991	0.015
992	0.015
992	0.014
992	0.013
993	0.012
993	0.011
994	0.01
994	0.009
995	0.007
995	0.006
995	0.004
996	0.003
996	0.001
997	-0
997	-0.001
997	-0.002
998	-0.002
998	-0.002
999	-0.002
999	-0.002
1000	-0.001
1000	-0.001
1000	-0
1001	0.001
1001	0.002
1002	0.002
1002	0.003
1003	0.003
1003	0.003
1003	0.003
1004	0.003
1004	0.003
1005	0.003
1005	0.002
1005	0.001
1006	0.001
1006	-0
1007	-0.001
1007	-0.002
1008	-0.003
1008	-0.003
1008	-0.003
1009	-0.004
1009	-0.004
1010	-0.003
1010	-0.003
1010	-0.002
1011	-0.002
1011	-0.001
1012	-0
1012	0.002
1013	0.003
1013	0.004
1013	0.005
1014	0.006
1014	0.006
1015	0.007
1015	0.008
1016	0.008
1016	0.008
1016	0.008
1017	0.007
1017	0.007
1018	0.007
1018	0.007
1018	0.007
1019	0.006
1019	0.005
1020	0.005
1020	0.004
1021	0.004
1021	0.004
1021	0.004
1022	0.004
1022	0.003
1023	0.004
1023	0.004
1023	0.004
1024	0.004
1024	0.005
1025	0.005
1025	0.005
1026	0.006
1026	0.006
1026	0.006
1027	0.006
1027	0.006
1028	0.007
1028	0.008
1028	0.008
1029	0.007
1029	0.007
1030	0.007
1030	0.007
1031	0.007
1031	0.007
1031	0.008
1032	0.007
1032	0.007
1033	0.006
1033	0.006
1033	0.007
1034	0.006
1034	0.006
1035	0.005
1035	0.005
1036	0.004
1036	0.003
1036	0.003
1037	0.003
1037	0.003
1038	0.003
1038	0.003
1039	0.004
1039	0.004
1039	0.005
1040	0.005
1040	0.006
1041	0.006
1041	0.005
1041	0.005
1042	0.005
1042	0.004
1043	0.003
1043	0.002
1044	0.002
1044	0.001
1044	-0
1045	-0.001
1045	-0.002
1046	-0.002
1046	-0.003
1046	-0.003
1047	-0.003
1047	-0.003
1048	-0.003
1048	-0.003
1049	-0.003
1049	-0.003
1049	-0.003
1050	-0.004
1050	-0.005
1051	-0.005
1051	-0.006
1051	-0.006
1052	-0.007
1052	-0.008
1053	-0.009
1053	-0.009
1053	-0.01
1054	-0.011
1054	-0.011
1055	-0.01
1055	-0.01
1056	-0.011
1056	-0.011
1056	-0.011
1057	-0.012
1057	-0.012
1058	-0.012
1058	-0.012
1058	-0.012
1059	-0.012
1059	-0.013
1060	-0.014
1060	-0.014
1061	-0.015
1061	-0.015
1061	-0.015
1062	-0.015
1062	-0.015
1063	-0.015
1063	-0.016
1063	-0.016
1064	-0.015
1064	-0.015
1065	-0.014
1065	-0.015
1066	-0.014
1066	-0.015
1066	-0.015
1067	-0.015
1067	-0.016
1068	-0.016
1068	-0.017
1068	-0.018
1069	-0.018
1069	-0.019
1070	-0.02
1070	-0.021
1071	-0.021
1071	-0.022
1071	-0.022
1072	-0.022
1072	-0.022
1073	-0.023
1073	-0.023
1073	-0.023
1074	-0.024
1074	-0.024
1075	-0.025
1075	-0.025
1076	-0.026
1076	-0.026
1076	-0.027
1077	-0.028
1077	-0.029
1078	-0.03
1078	-0.03
1078	-0.031
1079	-0.032
1079	-0.032
1080	-0.034
1080	-0.034
1080	-0.036
1081	-0.037
1081	-0.037
1082	-0.038
1082	-0.04
1083	-0.041
1083	-0.042
1083	-0.043
1084	-0.044
1084	-0.045
1085	-0.046
1085	-0.047
1085	-0.048
1086	-0.049
1086	-0.051
1087	-0.051
1087	-0.051
1088	-0.053
1088	-0.054
1088	-0.055
1089	-0.056
1089	-0.057
1090	-0.057
1090	-0.058
1090	-0.059
1091	-0.06
1091	-0.06
1092	-0.061
1092	-0.061
1092	-0.062
1093	-0.062
1093	-0.062
1094	-0.062
1094	-0.063
1095	-0.064
1095	-0.065
1095	-0.065
1096	-0.067
1096	-0.068
1097	-0.069
1097	-0.071
1097	-0.073
1098	-0.076
1098	-0.078
1099	-0.08
1099	-0.082
1100	-0.084
1100	-0.087
1100	-0.09
1101	-0.093
1101	-0.096
1102	-0.098
1102	-0.101
1102	-0.102
1103	-0.105
1103	-0.109
1104	-0.111
1104	-0.114
1104	-0.116
1105	-0.118
1105	-0.121
1106	-0.126
1106	-0.128
1107	-0.134
1107	-0.14
1107	-0.145
1108	-0.146
1108	-0.148
1109	-0.152
1109	-0.158
1109	-0.163
1110	-0.166
1110	-0.171
1111	-0.183
1111	-0.181
