Data from 3.4A_17C_Absorbance__454__02366.txt Node

Date: Tue Jun 20 16:40:54 CEST 2023
User: Marek
Spectrometer: MAYP115816
Trigger mode: 0
Integration Time (sec): 2.200000E-1
Scans to average: 10
Electric dark correction enabled: true
Nonlinearity correction enabled: true
Boxcar width: 5
XAxis mode: Wavelengths
Number of Pixels in Spectrum: 2068
>>>>>Begin Spectral Data<<<<<
199	-0.794
199	-0.781
200	-0.748
200	-0.694
201	-0.665
201	-0.658
202	-0.641
202	-0.633
203	-0.632
203	-0.625
204	-0.604
204	-0.589
205	-0.566
205	-0.554
205	-0.561
206	-0.565
206	-0.562
207	-0.555
207	-0.563
208	-0.564
208	-0.567
209	-0.57
209	-0.576
210	-0.589
210	-0.599
211	-0.595
211	-0.597
212	-0.604
212	-0.61
213	-0.606
213	-0.603
213	-0.601
214	-0.609
214	-0.61
215	-0.607
215	-0.611
216	-0.618
216	-0.623
217	-0.622
217	-0.623
218	-0.63
218	-0.631
219	-0.64
219	-0.64
220	-0.643
220	-0.649
221	-0.651
221	-0.653
221	-0.645
222	-0.645
222	-0.642
223	-0.639
223	-0.641
224	-0.642
224	-0.642
225	-0.639
225	-0.641
226	-0.639
226	-0.639
227	-0.648
227	-0.657
228	-0.661
228	-0.67
229	-0.674
229	-0.671
229	-0.671
230	-0.668
230	-0.666
231	-0.664
231	-0.659
232	-0.661
232	-0.655
233	-0.656
233	-0.644
234	-0.644
234	-0.639
235	-0.643
235	-0.655
236	-0.662
236	-0.661
236	-0.659
237	-0.658
237	-0.66
238	-0.659
238	-0.659
239	-0.661
239	-0.671
240	-0.664
240	-0.66
241	-0.657
241	-0.662
242	-0.667
242	-0.677
243	-0.678
243	-0.681
243	-0.687
244	-0.684
244	-0.686
245	-0.688
245	-0.691
246	-0.699
246	-0.702
247	-0.709
247	-0.694
248	-0.694
248	-0.695
249	-0.7
249	-0.7
250	-0.697
250	-0.706
250	-0.704
251	-0.704
251	-0.7
252	-0.701
252	-0.713
253	-0.707
253	-0.719
254	-0.723
254	-0.725
255	-0.736
255	-0.733
256	-0.734
256	-0.746
257	-0.756
257	-0.752
258	-0.754
258	-0.762
258	-0.76
259	-0.754
259	-0.773
260	-0.771
260	-0.761
261	-0.774
261	-0.761
262	-0.766
262	-0.765
263	-0.756
263	-0.762
264	-0.772
264	-0.774
265	-0.765
265	-0.767
265	-0.779
266	-0.77
266	-0.77
267	-0.77
267	-0.786
268	-0.794
268	-0.788
269	-0.78
269	-0.793
270	-0.796
270	-0.795
271	-0.809
271	-0.817
272	-0.818
272	-0.82
272	-0.814
273	-0.823
273	-0.837
274	-0.83
274	-0.825
275	-0.822
275	-0.81
276	-0.811
276	-0.817
277	-0.818
277	-0.816
278	-0.82
278	-0.82
278	-0.809
279	-0.819
279	-0.831
280	-0.834
280	-0.845
281	-0.838
281	-0.832
282	-0.837
282	-0.831
283	-0.825
283	-0.839
284	-0.853
284	-0.862
285	-0.844
285	-0.85
285	-0.842
286	-0.847
286	-0.864
287	-0.862
287	-0.861
288	-0.86
288	-0.841
289	-0.84
289	-0.848
290	-0.856
290	-0.845
291	-0.848
291	-0.846
292	-0.824
292	-0.821
292	-0.823
293	-0.811
293	-0.807
294	-0.806
294	-0.79
295	-0.773
295	-0.785
296	-0.799
296	-0.795
297	-0.784
297	-0.788
298	-0.787
298	-0.804
298	-0.809
299	-0.79
299	-0.783
300	-0.779
300	-0.759
301	-0.74
301	-0.742
302	-0.753
302	-0.738
303	-0.73
303	-0.718
304	-0.701
304	-0.705
305	-0.697
305	-0.707
305	-0.721
306	-0.706
306	-0.706
307	-0.698
307	-0.709
308	-0.712
308	-0.708
309	-0.711
309	-0.706
310	-0.704
310	-0.697
311	-0.684
311	-0.703
311	-0.689
312	-0.686
312	-0.675
313	-0.666
313	-0.666
314	-0.67
314	-0.67
315	-0.666
315	-0.661
316	-0.655
316	-0.643
317	-0.637
317	-0.633
318	-0.625
318	-0.623
318	-0.613
319	-0.603
319	-0.594
320	-0.592
320	-0.589
321	-0.587
321	-0.587
322	-0.581
322	-0.574
323	-0.574
323	-0.565
324	-0.562
324	-0.55
324	-0.539
325	-0.524
325	-0.505
326	-0.495
326	-0.469
327	-0.453
327	-0.431
328	-0.4
328	-0.377
329	-0.348
329	-0.319
330	-0.291
330	-0.254
330	-0.218
331	-0.181
331	-0.146
332	-0.112
332	-0.078
333	-0.046
333	-0.012
334	0.018
334	0.045
335	0.073
335	0.095
336	0.117
336	0.139
336	0.156
337	0.175
337	0.193
338	0.207
338	0.219
339	0.233
339	0.244
340	0.252
340	0.262
341	0.269
341	0.276
342	0.283
342	0.289
342	0.294
343	0.298
343	0.304
344	0.307
344	0.31
345	0.314
345	0.316
346	0.318
346	0.32
347	0.322
347	0.324
348	0.325
348	0.327
348	0.328
349	0.329
349	0.329
350	0.33
350	0.331
351	0.332
351	0.332
352	0.332
352	0.332
353	0.333
353	0.332
354	0.332
354	0.332
354	0.332
355	0.332
355	0.332
356	0.332
356	0.332
357	0.333
357	0.333
358	0.333
358	0.333
359	0.333
359	0.333
360	0.333
360	0.333
360	0.334
361	0.333
361	0.333
362	0.333
362	0.333
363	0.333
363	0.333
364	0.333
364	0.333
365	0.333
365	0.332
366	0.332
366	0.332
366	0.332
367	0.332
367	0.332
368	0.332
368	0.332
369	0.331
369	0.331
370	0.331
370	0.331
371	0.331
371	0.331
372	0.33
372	0.33
372	0.33
373	0.329
373	0.329
374	0.329
374	0.329
375	0.328
375	0.328
376	0.328
376	0.328
377	0.327
377	0.327
378	0.327
378	0.326
378	0.326
379	0.326
379	0.326
380	0.326
380	0.326
381	0.325
381	0.325
382	0.325
382	0.324
383	0.324
383	0.324
383	0.324
384	0.323
384	0.323
385	0.323
385	0.323
386	0.322
386	0.322
387	0.322
387	0.322
388	0.322
388	0.321
389	0.321
389	0.321
389	0.321
390	0.321
390	0.32
391	0.32
391	0.32
392	0.319
392	0.319
393	0.319
393	0.319
394	0.318
394	0.318
394	0.318
395	0.317
395	0.317
396	0.317
396	0.317
397	0.316
397	0.316
398	0.315
398	0.315
399	0.315
399	0.314
400	0.314
400	0.314
400	0.314
401	0.314
401	0.313
402	0.313
402	0.313
403	0.313
403	0.313
404	0.313
404	0.312
405	0.312
405	0.311
405	0.311
406	0.311
406	0.311
407	0.311
407	0.31
408	0.309
408	0.309
409	0.309
409	0.309
410	0.309
410	0.309
411	0.308
411	0.308
411	0.308
412	0.307
412	0.307
413	0.307
413	0.307
414	0.307
414	0.307
415	0.306
415	0.306
416	0.306
416	0.305
416	0.305
417	0.305
417	0.305
418	0.305
418	0.304
419	0.304
419	0.304
420	0.304
420	0.304
421	0.304
421	0.304
421	0.304
422	0.305
422	0.305
423	0.304
423	0.304
424	0.304
424	0.304
425	0.304
425	0.304
426	0.304
426	0.304
427	0.303
427	0.303
427	0.303
428	0.303
428	0.303
429	0.302
429	0.302
430	0.302
430	0.301
431	0.301
431	0.3
432	0.3
432	0.3
432	0.299
433	0.299
433	0.299
434	0.299
434	0.3
435	0.3
435	0.3
436	0.3
436	0.3
437	0.299
437	0.299
437	0.299
438	0.299
438	0.299
439	0.299
439	0.299
440	0.299
440	0.299
441	0.298
441	0.298
442	0.298
442	0.298
442	0.298
443	0.298
443	0.298
444	0.298
444	0.298
445	0.298
445	0.298
446	0.298
446	0.298
447	0.298
447	0.298
447	0.298
448	0.298
448	0.298
449	0.298
449	0.298
450	0.299
450	0.298
451	0.298
451	0.299
452	0.299
452	0.299
452	0.299
453	0.299
453	0.299
454	0.299
454	0.299
455	0.299
455	0.299
456	0.299
456	0.299
457	0.299
457	0.299
458	0.299
458	0.299
458	0.299
459	0.299
459	0.299
460	0.298
460	0.298
461	0.299
461	0.299
462	0.3
462	0.3
463	0.301
463	0.301
463	0.302
464	0.302
464	0.303
465	0.303
465	0.304
466	0.304
466	0.305
467	0.305
467	0.305
467	0.305
468	0.305
468	0.305
469	0.305
469	0.306
470	0.306
470	0.306
471	0.306
471	0.306
472	0.307
472	0.307
472	0.308
473	0.309
473	0.309
474	0.31
474	0.311
475	0.311
475	0.312
476	0.313
476	0.314
477	0.315
477	0.316
477	0.317
478	0.317
478	0.318
479	0.319
479	0.319
480	0.32
480	0.321
481	0.321
481	0.322
482	0.323
482	0.324
482	0.325
483	0.327
483	0.329
484	0.33
484	0.331
485	0.332
485	0.334
486	0.335
486	0.336
487	0.337
487	0.338
487	0.34
488	0.34
488	0.341
489	0.342
489	0.344
490	0.346
490	0.347
491	0.349
491	0.35
492	0.352
492	0.353
492	0.355
493	0.356
493	0.358
494	0.36
494	0.363
495	0.364
495	0.366
496	0.368
496	0.37
496	0.372
497	0.374
497	0.376
498	0.378
498	0.38
499	0.382
499	0.384
500	0.387
500	0.39
501	0.392
501	0.394
501	0.396
502	0.398
502	0.4
503	0.403
503	0.405
504	0.408
504	0.41
505	0.412
505	0.415
506	0.418
506	0.421
506	0.424
507	0.427
507	0.43
508	0.433
508	0.436
509	0.439
509	0.442
510	0.445
510	0.447
511	0.45
511	0.452
511	0.455
512	0.457
512	0.459
513	0.46
513	0.462
514	0.464
514	0.467
515	0.469
515	0.47
515	0.472
516	0.474
516	0.476
517	0.478
517	0.48
518	0.483
518	0.484
519	0.486
519	0.487
520	0.489
520	0.491
520	0.492
521	0.493
521	0.494
522	0.496
522	0.497
523	0.498
523	0.5
524	0.5
524	0.502
524	0.502
525	0.503
525	0.504
526	0.505
526	0.506
527	0.507
527	0.507
528	0.507
528	0.507
529	0.507
529	0.507
529	0.507
530	0.507
530	0.506
531	0.506
531	0.506
532	0.505
532	0.504
533	0.504
533	0.504
533	0.503
534	0.503
534	0.502
535	0.501
535	0.501
536	0.5
536	0.499
537	0.498
537	0.497
538	0.496
538	0.494
538	0.493
539	0.491
539	0.49
540	0.488
540	0.486
541	0.484
541	0.482
542	0.48
542	0.477
542	0.475
543	0.473
543	0.471
544	0.468
544	0.466
545	0.464
545	0.462
546	0.46
546	0.458
547	0.455
547	0.452
547	0.45
548	0.448
548	0.446
549	0.444
549	0.442
550	0.44
550	0.437
551	0.434
551	0.432
551	0.429
552	0.427
552	0.425
553	0.422
553	0.42
554	0.417
554	0.414
555	0.411
555	0.409
556	0.406
556	0.403
556	0.4
557	0.398
557	0.395
558	0.393
558	0.39
559	0.387
559	0.385
560	0.382
560	0.379
560	0.377
561	0.375
561	0.373
562	0.371
562	0.369
563	0.367
563	0.365
564	0.363
564	0.361
564	0.36
565	0.358
565	0.357
566	0.355
566	0.353
567	0.351
567	0.35
568	0.348
568	0.345
568	0.343
569	0.341
569	0.339
570	0.336
570	0.333
571	0.332
571	0.33
572	0.327
572	0.325
573	0.323
573	0.32
573	0.318
574	0.317
574	0.316
575	0.314
575	0.314
576	0.313
576	0.31
577	0.308
577	0.307
577	0.306
578	0.305
578	0.305
579	0.305
579	0.304
580	0.301
580	0.298
581	0.295
581	0.294
581	0.294
582	0.293
582	0.292
583	0.292
583	0.29
584	0.287
584	0.284
585	0.284
585	0.285
585	0.284
586	0.283
586	0.282
587	0.28
587	0.278
588	0.276
588	0.275
589	0.274
589	0.273
590	0.272
590	0.27
590	0.27
591	0.27
591	0.268
592	0.266
592	0.265
593	0.264
593	0.263
594	0.261
594	0.26
594	0.259
595	0.258
595	0.256
596	0.254
596	0.254
597	0.255
597	0.254
598	0.253
598	0.253
598	0.252
599	0.252
599	0.251
600	0.25
600	0.249
601	0.249
601	0.249
602	0.248
602	0.247
602	0.246
603	0.246
603	0.246
604	0.246
604	0.245
605	0.245
605	0.245
606	0.244
606	0.242
606	0.24
607	0.239
607	0.239
608	0.238
608	0.236
609	0.235
609	0.234
610	0.233
610	0.231
610	0.231
611	0.231
611	0.23
612	0.23
612	0.229
613	0.229
613	0.228
614	0.227
614	0.225
614	0.224
615	0.222
615	0.221
616	0.22
616	0.219
617	0.218
617	0.217
618	0.216
618	0.215
618	0.214
619	0.214
619	0.214
620	0.214
620	0.213
621	0.212
621	0.211
622	0.209
622	0.208
622	0.205
623	0.204
623	0.203
624	0.203
624	0.201
625	0.2
625	0.199
626	0.197
626	0.196
626	0.196
627	0.196
627	0.195
628	0.194
628	0.193
629	0.192
629	0.191
630	0.189
630	0.187
630	0.186
631	0.185
631	0.183
632	0.181
632	0.179
633	0.176
633	0.174
634	0.172
634	0.17
634	0.168
635	0.166
635	0.163
636	0.161
636	0.158
637	0.156
637	0.153
638	0.15
638	0.147
638	0.144
639	0.14
639	0.136
640	0.132
640	0.128
641	0.123
641	0.119
642	0.115
642	0.111
642	0.107
643	0.102
643	0.097
644	0.092
644	0.086
645	0.081
645	0.076
646	0.071
646	0.064
646	0.058
647	0.051
647	0.044
648	0.037
648	0.03
649	0.022
649	0.016
650	0.009
650	0.001
650	-0.006
651	-0.016
651	-0.027
652	-0.041
652	-0.054
653	-0.067
653	-0.077
653	-0.072
654	-0.052
654	-0.047
655	-0.052
655	-0.057
656	-0.063
656	-0.07
657	-0.074
657	-0.079
657	-0.085
658	-0.093
658	-0.125
659	-0.211
659	-0.301
660	-0.34
660	-0.366
661	-0.393
661	-0.421
661	-0.452
662	-0.478
662	-0.506
663	-0.539
663	-0.575
664	-0.611
664	-0.65
665	-0.694
665	-0.738
665	-0.781
666	-0.83
666	-0.883
667	-0.935
667	-0.997
668	-1.054
668	-1.12
669	-1.186
669	-1.256
669	-1.332
670	-1.409
670	-1.51
671	-1.647
671	-1.918
672	-2.23
672	-2.418
672	-2.551
673	-2.656
673	-2.742
674	-2.822
674	-2.842
675	-2.859
675	-2.865
676	-2.866
676	-2.839
676	-2.774
677	-2.696
677	-2.604
678	-2.47
678	-2.264
679	-1.837
679	-1.632
680	-1.52
680	-1.439
680	-1.368
681	-1.317
681	-1.262
682	-1.219
682	-1.175
683	-1.132
683	-1.108
684	-1.08
684	-1.061
684	-1.037
685	-1.017
685	-1.007
686	-0.984
686	-0.971
687	-0.962
687	-0.951
687	-0.951
688	-0.935
688	-0.926
689	-0.929
689	-0.926
690	-0.911
690	-0.9
691	-0.898
691	-0.901
691	-0.899
692	-0.9
692	-0.895
693	-0.903
693	-0.913
694	-0.893
694	-0.892
695	-0.896
695	-0.889
695	-0.894
696	-0.9
696	-0.894
697	-0.888
697	-0.884
698	-0.879
698	-0.871
698	-0.883
699	-0.883
699	-0.884
700	-0.905
700	-0.901
701	-0.887
701	-0.881
702	-0.882
702	-0.881
702	-0.882
703	-0.874
703	-0.862
704	-0.869
704	-0.872
705	-0.862
705	-0.86
705	-0.856
706	-0.848
706	-0.843
707	-0.853
707	-0.857
708	-0.853
708	-0.852
709	-0.854
709	-0.851
709	-0.846
710	-0.856
710	-0.859
711	-0.859
711	-0.86
712	-0.851
712	-0.848
713	-0.854
713	-0.852
713	-0.831
714	-0.834
714	-0.838
715	-0.827
715	-0.834
716	-0.85
716	-0.859
716	-0.86
717	-0.867
717	-0.859
718	-0.855
718	-0.856
719	-0.849
719	-0.84
720	-0.836
720	-0.833
720	-0.827
721	-0.817
721	-0.821
722	-0.816
722	-0.814
723	-0.832
723	-0.844
723	-0.853
724	-0.851
724	-0.856
725	-0.85
725	-0.854
726	-0.858
726	-0.85
727	-0.854
727	-0.86
727	-0.85
728	-0.838
728	-0.834
729	-0.838
729	-0.84
730	-0.846
730	-0.839
730	-0.843
731	-0.847
731	-0.845
732	-0.849
732	-0.843
733	-0.859
733	-0.866
734	-0.872
734	-0.865
734	-0.846
735	-0.836
735	-0.833
736	-0.831
736	-0.826
737	-0.825
737	-0.815
737	-0.807
738	-0.792
738	-0.781
739	-0.782
739	-0.784
740	-0.797
740	-0.796
741	-0.806
741	-0.816
741	-0.825
742	-0.832
742	-0.849
743	-0.855
743	-0.859
744	-0.862
744	-0.871
744	-0.864
745	-0.872
745	-0.861
746	-0.855
746	-0.847
747	-0.846
747	-0.836
748	-0.84
748	-0.844
748	-0.844
749	-0.837
749	-0.843
750	-0.834
750	-0.835
751	-0.837
751	-0.832
751	-0.847
752	-0.85
752	-0.851
753	-0.853
753	-0.846
754	-0.865
754	-0.866
754	-0.874
755	-0.876
755	-0.867
756	-0.871
756	-0.855
757	-0.847
757	-0.835
758	-0.835
758	-0.834
758	-0.832
759	-0.837
759	-0.837
760	-0.834
760	-0.837
761	-0.83
761	-0.836
761	-0.838
762	-0.844
762	-0.843
763	-0.843
763	-0.846
764	-0.844
764	-0.838
764	-0.843
765	-0.841
765	-0.849
766	-0.852
766	-0.852
767	-0.867
767	-0.864
768	-0.862
768	-0.854
768	-0.849
769	-0.854
769	-0.864
770	-0.873
770	-0.876
771	-0.871
771	-0.871
771	-0.878
772	-0.882
772	-0.903
773	-0.904
773	-0.906
774	-0.903
774	-0.885
775	-0.871
775	-0.871
775	-0.875
776	-0.888
776	-0.883
777	-0.883
777	-0.864
778	-0.874
778	-0.881
778	-0.88
779	-0.89
779	-0.907
780	-0.904
780	-0.913
781	-0.901
781	-0.889
781	-0.904
782	-0.926
782	-0.928
783	-0.928
783	-0.935
784	-0.938
784	-0.931
784	-0.95
785	-0.943
785	-0.955
786	-0.96
786	-0.952
787	-0.941
787	-0.95
788	-0.94
788	-0.936
788	-0.937
789	-0.937
789	-0.926
790	-0.926
790	-0.909
791	-0.915
791	-0.912
791	-0.906
792	-0.898
792	-0.904
793	-0.906
793	-0.893
794	-0.884
794	-0.878
794	-0.885
795	-0.906
795	-0.893
796	-0.897
796	-0.893
797	-0.886
797	-0.877
797	-0.87
798	-0.892
798	-0.898
799	-0.899
799	-0.886
800	-0.88
800	-0.889
801	-0.886
801	-0.892
801	-0.89
802	-0.889
802	-0.888
803	-0.88
803	-0.873
804	-0.877
804	-0.883
804	-0.869
805	-0.85
805	-0.842
806	-0.841
806	-0.836
807	-0.838
807	-0.838
807	-0.822
808	-0.819
808	-0.811
809	-0.807
809	-0.807
810	-0.809
810	-0.805
810	-0.801
811	-0.806
811	-0.797
812	-0.788
812	-0.791
813	-0.793
813	-0.796
813	-0.791
814	-0.791
814	-0.798
815	-0.788
815	-0.785
816	-0.781
816	-0.799
817	-0.812
817	-0.816
817	-0.826
818	-0.818
818	-0.815
819	-0.826
819	-0.822
820	-0.835
820	-0.833
820	-0.832
821	-0.827
821	-0.822
822	-0.821
822	-0.808
823	-0.821
823	-0.821
823	-0.816
824	-0.814
824	-0.825
825	-0.825
825	-0.821
826	-0.816
826	-0.811
826	-0.812
827	-0.814
827	-0.802
828	-0.802
828	-0.797
829	-0.79
829	-0.774
829	-0.772
830	-0.77
830	-0.755
831	-0.749
831	-0.738
832	-0.727
832	-0.724
832	-0.715
833	-0.714
833	-0.72
834	-0.714
834	-0.707
835	-0.701
835	-0.702
835	-0.697
836	-0.693
836	-0.69
837	-0.678
837	-0.67
838	-0.656
838	-0.639
839	-0.633
839	-0.621
839	-0.611
840	-0.609
840	-0.598
841	-0.587
841	-0.579
842	-0.572
842	-0.56
842	-0.559
843	-0.556
843	-0.551
844	-0.549
844	-0.537
845	-0.523
845	-0.513
845	-0.501
846	-0.489
846	-0.478
847	-0.466
847	-0.453
848	-0.435
848	-0.42
848	-0.404
849	-0.391
849	-0.378
850	-0.369
850	-0.358
851	-0.344
851	-0.327
851	-0.317
852	-0.301
852	-0.29
853	-0.28
853	-0.269
854	-0.258
854	-0.248
854	-0.234
855	-0.222
855	-0.214
856	-0.206
856	-0.197
857	-0.189
857	-0.179
857	-0.166
858	-0.154
858	-0.146
859	-0.135
859	-0.123
860	-0.113
860	-0.098
860	-0.088
861	-0.077
861	-0.067
862	-0.058
862	-0.05
863	-0.041
863	-0.032
863	-0.025
864	-0.02
864	-0.013
865	-0.006
865	0
866	0.006
866	0.012
866	0.018
867	0.023
867	0.029
868	0.034
868	0.039
869	0.044
869	0.047
869	0.05
870	0.052
870	0.054
871	0.056
871	0.057
872	0.059
872	0.06
872	0.061
873	0.061
873	0.061
874	0.06
874	0.06
875	0.06
875	0.059
875	0.059
876	0.059
876	0.059
877	0.058
877	0.058
878	0.057
878	0.057
878	0.057
879	0.056
879	0.056
880	0.055
880	0.054
881	0.053
881	0.052
881	0.051
882	0.049
882	0.048
883	0.046
883	0.045
884	0.044
884	0.043
884	0.043
885	0.043
885	0.042
886	0.042
886	0.041
887	0.041
887	0.041
887	0.04
888	0.04
888	0.039
889	0.039
889	0.038
890	0.037
890	0.036
890	0.036
891	0.036
891	0.035
892	0.036
892	0.036
893	0.035
893	0.035
893	0.035
894	0.036
894	0.036
895	0.035
895	0.035
895	0.035
896	0.035
896	0.035
897	0.036
897	0.036
898	0.036
898	0.036
898	0.036
899	0.037
899	0.037
900	0.037
900	0.036
901	0.036
901	0.035
901	0.035
902	0.034
902	0.034
903	0.034
903	0.034
904	0.033
904	0.033
904	0.034
905	0.034
905	0.035
906	0.035
906	0.036
907	0.037
907	0.037
907	0.038
908	0.038
908	0.039
909	0.039
909	0.039
910	0.04
910	0.04
910	0.04
911	0.041
911	0.041
912	0.042
912	0.043
913	0.043
913	0.044
913	0.044
914	0.045
914	0.045
915	0.045
915	0.045
916	0.045
916	0.045
916	0.045
917	0.045
917	0.045
918	0.044
918	0.044
918	0.044
919	0.044
919	0.044
920	0.044
920	0.045
921	0.045
921	0.046
921	0.047
922	0.047
922	0.048
923	0.048
923	0.048
924	0.048
924	0.047
924	0.047
925	0.046
925	0.044
926	0.043
926	0.041
927	0.04
927	0.039
927	0.039
928	0.038
928	0.038
929	0.038
929	0.038
930	0.039
930	0.039
930	0.04
931	0.041
931	0.042
932	0.043
932	0.044
933	0.045
933	0.045
933	0.045
934	0.045
934	0.045
935	0.044
935	0.043
935	0.042
936	0.041
936	0.039
937	0.038
937	0.037
938	0.037
938	0.036
938	0.035
939	0.034
939	0.034
940	0.033
940	0.032
941	0.032
941	0.031
941	0.031
942	0.03
942	0.029
943	0.029
943	0.028
944	0.028
944	0.026
944	0.026
945	0.025
945	0.025
946	0.025
946	0.023
946	0.023
947	0.023
947	0.023
948	0.024
948	0.025
949	0.026
949	0.028
949	0.029
950	0.031
950	0.032
951	0.034
951	0.035
952	0.036
952	0.037
952	0.038
953	0.039
953	0.039
954	0.039
954	0.038
955	0.038
955	0.037
955	0.037
956	0.037
956	0.036
957	0.035
957	0.034
957	0.034
958	0.033
958	0.033
959	0.032
959	0.032
960	0.032
960	0.032
960	0.032
961	0.032
961	0.032
962	0.032
962	0.032
963	0.032
963	0.033
963	0.033
964	0.033
964	0.034
965	0.034
965	0.034
966	0.034
966	0.034
966	0.035
967	0.035
967	0.035
968	0.034
968	0.034
968	0.034
969	0.034
969	0.034
970	0.033
970	0.033
971	0.033
971	0.033
971	0.033
972	0.034
972	0.034
973	0.034
973	0.034
974	0.034
974	0.034
974	0.034
975	0.034
975	0.034
976	0.034
976	0.034
976	0.033
977	0.033
977	0.033
978	0.032
978	0.032
979	0.031
979	0.031
979	0.031
980	0.031
980	0.031
981	0.031
981	0.031
982	0.031
982	0.031
982	0.031
983	0.031
983	0.03
984	0.03
984	0.03
984	0.029
985	0.029
985	0.028
986	0.027
986	0.026
987	0.025
987	0.025
987	0.024
988	0.023
988	0.023
989	0.022
989	0.021
990	0.021
990	0.02
990	0.019
991	0.019
991	0.018
992	0.017
992	0.017
992	0.016
993	0.015
993	0.014
994	0.013
994	0.011
995	0.01
995	0.009
995	0.007
996	0.006
996	0.004
997	0.003
997	0.002
997	0.001
998	0.001
998	0.001
999	0.001
999	0.001
1000	0.002
1000	0.002
1000	0.003
1001	0.004
1001	0.005
1002	0.005
1002	0.006
1003	0.006
1003	0.006
1003	0.006
1004	0.006
1004	0.005
1005	0.005
1005	0.005
1005	0.004
1006	0.003
1006	0.002
1007	0.001
1007	0
1008	-0
1008	-0.001
1008	-0.001
1009	-0.001
1009	-0.001
1010	-0
1010	0
1010	0.001
1011	0.002
1011	0.002
1012	0.003
1012	0.005
1013	0.006
1013	0.007
1013	0.008
1014	0.008
1014	0.009
1015	0.009
1015	0.01
1016	0.01
1016	0.01
1016	0.01
1017	0.01
1017	0.01
1018	0.01
1018	0.009
1018	0.009
1019	0.009
1019	0.009
1020	0.008
1020	0.007
1021	0.007
1021	0.007
1021	0.007
1022	0.006
1022	0.006
1023	0.007
1023	0.007
1023	0.007
1024	0.007
1024	0.008
1025	0.008
1025	0.008
1026	0.009
1026	0.009
1026	0.009
1027	0.009
1027	0.009
1028	0.01
1028	0.01
1028	0.011
1029	0.01
1029	0.011
1030	0.01
1030	0.01
1031	0.01
1031	0.01
1031	0.01
1032	0.01
1032	0.01
1033	0.009
1033	0.009
1033	0.009
1034	0.009
1034	0.008
1035	0.008
1035	0.008
1036	0.007
1036	0.007
1036	0.006
1037	0.006
1037	0.007
1038	0.006
1038	0.007
1039	0.007
1039	0.007
1039	0.008
1040	0.008
1040	0.009
1041	0.009
1041	0.008
1041	0.008
1042	0.007
1042	0.007
1043	0.006
1043	0.005
1044	0.005
1044	0.003
1044	0.003
1045	0.002
1045	0.001
1046	0
1046	-0
1046	-0
1047	-0.001
1047	-0.001
1048	-0.001
1048	-0.001
1049	-0.001
1049	-0.001
1049	-0.001
1050	-0.002
1050	-0.002
1051	-0.003
1051	-0.004
1051	-0.004
1052	-0.005
1052	-0.005
1053	-0.006
1053	-0.006
1053	-0.007
1054	-0.008
1054	-0.008
1055	-0.008
1055	-0.008
1056	-0.008
1056	-0.008
1056	-0.009
1057	-0.009
1057	-0.009
1058	-0.01
1058	-0.01
1058	-0.01
1059	-0.01
1059	-0.011
1060	-0.012
1060	-0.012
1061	-0.013
1061	-0.012
1061	-0.012
1062	-0.012
1062	-0.012
1063	-0.012
1063	-0.012
1063	-0.012
1064	-0.012
1064	-0.011
1065	-0.011
1065	-0.011
1066	-0.011
1066	-0.012
1066	-0.012
1067	-0.013
1067	-0.014
1068	-0.014
1068	-0.015
1068	-0.016
1069	-0.016
1069	-0.017
1070	-0.018
1070	-0.018
1071	-0.019
1071	-0.019
1071	-0.02
1072	-0.02
1072	-0.02
1073	-0.02
1073	-0.02
1073	-0.021
1074	-0.021
1074	-0.021
1075	-0.022
1075	-0.022
1076	-0.023
1076	-0.023
1076	-0.024
1077	-0.026
1077	-0.027
1078	-0.028
1078	-0.028
1078	-0.029
1079	-0.03
1079	-0.03
1080	-0.031
1080	-0.032
1080	-0.034
1081	-0.035
1081	-0.035
1082	-0.035
1082	-0.037
1083	-0.038
1083	-0.039
1083	-0.04
1084	-0.042
1084	-0.043
1085	-0.044
1085	-0.045
1085	-0.046
1086	-0.047
1086	-0.049
1087	-0.05
1087	-0.05
1088	-0.052
1088	-0.053
1088	-0.053
1089	-0.055
1089	-0.055
1090	-0.056
1090	-0.056
1090	-0.058
1091	-0.059
1091	-0.059
1092	-0.059
1092	-0.059
1092	-0.06
1093	-0.061
1093	-0.06
1094	-0.06
1094	-0.061
1095	-0.062
1095	-0.062
1095	-0.063
1096	-0.064
1096	-0.067
1097	-0.068
1097	-0.07
1097	-0.071
1098	-0.074
1098	-0.076
1099	-0.078
1099	-0.079
1100	-0.082
1100	-0.084
1100	-0.088
1101	-0.09
1101	-0.093
1102	-0.095
1102	-0.098
1102	-0.099
1103	-0.102
1103	-0.106
1104	-0.109
1104	-0.112
1104	-0.114
1105	-0.116
1105	-0.119
1106	-0.125
1106	-0.127
1107	-0.133
1107	-0.139
1107	-0.143
1108	-0.145
1108	-0.147
1109	-0.151
1109	-0.156
1109	-0.16
1110	-0.161
1110	-0.165
1111	-0.175
1111	-0.17
