Data from 3.4A_17C_Absorbance__368__02280.txt Node

Date: Tue Jun 20 16:37:45 CEST 2023
User: Marek
Spectrometer: MAYP115816
Trigger mode: 0
Integration Time (sec): 2.200000E-1
Scans to average: 10
Electric dark correction enabled: true
Nonlinearity correction enabled: true
Boxcar width: 5
XAxis mode: Wavelengths
Number of Pixels in Spectrum: 2068
>>>>>Begin Spectral Data<<<<<
199	-0.806
199	-0.787
200	-0.755
200	-0.699
201	-0.672
201	-0.66
202	-0.643
202	-0.635
203	-0.635
203	-0.627
204	-0.607
204	-0.59
205	-0.568
205	-0.557
205	-0.567
206	-0.567
206	-0.564
207	-0.557
207	-0.564
208	-0.564
208	-0.569
209	-0.57
209	-0.575
210	-0.585
210	-0.591
211	-0.583
211	-0.587
212	-0.595
212	-0.602
213	-0.599
213	-0.597
213	-0.595
214	-0.602
214	-0.606
215	-0.604
215	-0.609
216	-0.619
216	-0.624
217	-0.622
217	-0.623
218	-0.631
218	-0.632
219	-0.64
219	-0.642
220	-0.645
220	-0.651
221	-0.651
221	-0.651
221	-0.643
222	-0.642
222	-0.639
223	-0.634
223	-0.637
224	-0.636
224	-0.635
225	-0.632
225	-0.633
226	-0.633
226	-0.635
227	-0.645
227	-0.654
228	-0.659
228	-0.668
229	-0.673
229	-0.672
229	-0.672
230	-0.667
230	-0.665
231	-0.663
231	-0.657
232	-0.658
232	-0.652
233	-0.651
233	-0.639
234	-0.639
234	-0.634
235	-0.639
235	-0.65
236	-0.658
236	-0.661
236	-0.661
237	-0.66
237	-0.663
238	-0.663
238	-0.664
239	-0.666
239	-0.676
240	-0.67
240	-0.664
241	-0.659
241	-0.661
242	-0.665
242	-0.673
243	-0.673
243	-0.676
243	-0.681
244	-0.678
244	-0.678
245	-0.681
245	-0.686
246	-0.695
246	-0.698
247	-0.705
247	-0.69
248	-0.69
248	-0.692
249	-0.697
249	-0.7
250	-0.698
250	-0.706
250	-0.702
251	-0.704
251	-0.702
252	-0.703
252	-0.714
253	-0.709
253	-0.722
254	-0.726
254	-0.727
255	-0.739
255	-0.738
256	-0.743
256	-0.756
257	-0.765
257	-0.763
258	-0.763
258	-0.771
258	-0.768
259	-0.76
259	-0.776
260	-0.776
260	-0.764
261	-0.773
261	-0.758
262	-0.763
262	-0.761
263	-0.753
263	-0.758
264	-0.767
264	-0.768
265	-0.758
265	-0.76
265	-0.769
266	-0.761
266	-0.759
267	-0.758
267	-0.774
268	-0.783
268	-0.778
269	-0.772
269	-0.789
270	-0.792
270	-0.792
271	-0.807
271	-0.816
272	-0.819
272	-0.821
272	-0.815
273	-0.824
273	-0.838
274	-0.827
274	-0.821
275	-0.82
275	-0.806
276	-0.809
276	-0.816
277	-0.817
277	-0.815
278	-0.819
278	-0.82
278	-0.809
279	-0.821
279	-0.834
280	-0.835
280	-0.847
281	-0.84
281	-0.833
282	-0.838
282	-0.832
283	-0.825
283	-0.838
284	-0.851
284	-0.86
285	-0.84
285	-0.847
285	-0.837
286	-0.844
286	-0.858
287	-0.856
287	-0.856
288	-0.856
288	-0.838
289	-0.835
289	-0.843
290	-0.854
290	-0.843
291	-0.847
291	-0.844
292	-0.825
292	-0.822
292	-0.826
293	-0.814
293	-0.81
294	-0.811
294	-0.798
295	-0.78
295	-0.791
296	-0.803
296	-0.798
297	-0.786
297	-0.789
298	-0.784
298	-0.801
298	-0.805
299	-0.786
299	-0.777
300	-0.773
300	-0.755
301	-0.735
301	-0.738
302	-0.748
302	-0.733
303	-0.727
303	-0.716
304	-0.699
304	-0.702
305	-0.696
305	-0.706
305	-0.721
306	-0.705
306	-0.704
307	-0.696
307	-0.707
308	-0.709
308	-0.705
309	-0.709
309	-0.705
310	-0.701
310	-0.694
311	-0.68
311	-0.7
311	-0.687
312	-0.684
312	-0.672
313	-0.666
313	-0.667
314	-0.67
314	-0.667
315	-0.667
315	-0.66
316	-0.653
316	-0.642
317	-0.635
317	-0.631
318	-0.623
318	-0.62
318	-0.609
319	-0.599
319	-0.59
320	-0.585
320	-0.585
321	-0.58
321	-0.581
322	-0.574
322	-0.566
323	-0.566
323	-0.555
324	-0.553
324	-0.543
324	-0.532
325	-0.518
325	-0.501
326	-0.491
326	-0.466
327	-0.451
327	-0.429
328	-0.397
328	-0.374
329	-0.345
329	-0.315
330	-0.286
330	-0.25
330	-0.212
331	-0.175
331	-0.141
332	-0.105
332	-0.07
333	-0.04
333	-0.005
334	0.027
334	0.054
335	0.083
335	0.106
336	0.129
336	0.151
336	0.168
337	0.187
337	0.205
338	0.22
338	0.231
339	0.246
339	0.257
340	0.265
340	0.276
341	0.284
341	0.291
342	0.299
342	0.305
342	0.311
343	0.315
343	0.32
344	0.323
344	0.326
345	0.33
345	0.333
346	0.335
346	0.337
347	0.338
347	0.34
348	0.341
348	0.343
348	0.344
349	0.345
349	0.346
350	0.347
350	0.347
351	0.348
351	0.349
352	0.349
352	0.349
353	0.349
353	0.349
354	0.349
354	0.35
354	0.35
355	0.35
355	0.35
356	0.35
356	0.35
357	0.351
357	0.351
358	0.351
358	0.351
359	0.351
359	0.351
360	0.351
360	0.351
360	0.351
361	0.351
361	0.351
362	0.35
362	0.35
363	0.35
363	0.35
364	0.35
364	0.35
365	0.35
365	0.35
366	0.35
366	0.35
366	0.35
367	0.35
367	0.35
368	0.349
368	0.349
369	0.349
369	0.349
370	0.348
370	0.348
371	0.348
371	0.348
372	0.347
372	0.347
372	0.347
373	0.347
373	0.346
374	0.346
374	0.346
375	0.346
375	0.345
376	0.345
376	0.345
377	0.344
377	0.344
378	0.343
378	0.343
378	0.342
379	0.342
379	0.342
380	0.342
380	0.342
381	0.341
381	0.341
382	0.341
382	0.34
383	0.34
383	0.34
383	0.34
384	0.339
384	0.339
385	0.338
385	0.338
386	0.338
386	0.338
387	0.337
387	0.337
388	0.337
388	0.337
389	0.337
389	0.337
389	0.337
390	0.336
390	0.336
391	0.336
391	0.335
392	0.335
392	0.335
393	0.335
393	0.334
394	0.334
394	0.334
394	0.333
395	0.333
395	0.332
396	0.332
396	0.332
397	0.332
397	0.331
398	0.331
398	0.331
399	0.33
399	0.33
400	0.329
400	0.329
400	0.329
401	0.329
401	0.328
402	0.328
402	0.328
403	0.328
403	0.327
404	0.327
404	0.327
405	0.326
405	0.326
405	0.326
406	0.326
406	0.325
407	0.325
407	0.325
408	0.324
408	0.324
409	0.324
409	0.324
410	0.324
410	0.323
411	0.323
411	0.323
411	0.323
412	0.322
412	0.322
413	0.322
413	0.321
414	0.321
414	0.321
415	0.321
415	0.32
416	0.32
416	0.32
416	0.319
417	0.319
417	0.319
418	0.319
418	0.319
419	0.319
419	0.319
420	0.318
420	0.318
421	0.318
421	0.318
421	0.318
422	0.318
422	0.318
423	0.318
423	0.318
424	0.317
424	0.317
425	0.317
425	0.317
426	0.317
426	0.317
427	0.317
427	0.317
427	0.317
428	0.317
428	0.316
429	0.316
429	0.316
430	0.315
430	0.315
431	0.315
431	0.314
432	0.314
432	0.314
432	0.313
433	0.313
433	0.313
434	0.313
434	0.314
435	0.314
435	0.314
436	0.314
436	0.314
437	0.313
437	0.313
437	0.313
438	0.313
438	0.313
439	0.313
439	0.313
440	0.313
440	0.312
441	0.312
441	0.312
442	0.312
442	0.312
442	0.312
443	0.312
443	0.312
444	0.311
444	0.311
445	0.311
445	0.311
446	0.311
446	0.311
447	0.312
447	0.312
447	0.312
448	0.312
448	0.312
449	0.312
449	0.312
450	0.312
450	0.312
451	0.312
451	0.312
452	0.312
452	0.313
452	0.312
453	0.313
453	0.313
454	0.313
454	0.313
455	0.313
455	0.314
456	0.314
456	0.314
457	0.313
457	0.313
458	0.313
458	0.313
458	0.314
459	0.314
459	0.313
460	0.313
460	0.313
461	0.313
461	0.314
462	0.314
462	0.315
463	0.315
463	0.316
463	0.317
464	0.317
464	0.318
465	0.318
465	0.319
466	0.319
466	0.32
467	0.32
467	0.32
467	0.32
468	0.32
468	0.32
469	0.32
469	0.321
470	0.321
470	0.321
471	0.322
471	0.322
472	0.322
472	0.323
472	0.323
473	0.324
473	0.325
474	0.326
474	0.327
475	0.328
475	0.329
476	0.329
476	0.33
477	0.332
477	0.332
477	0.333
478	0.334
478	0.335
479	0.336
479	0.336
480	0.337
480	0.338
481	0.339
481	0.34
482	0.341
482	0.342
482	0.343
483	0.345
483	0.347
484	0.348
484	0.349
485	0.351
485	0.352
486	0.353
486	0.355
487	0.356
487	0.357
487	0.359
488	0.36
488	0.361
489	0.362
489	0.364
490	0.366
490	0.367
491	0.369
491	0.371
492	0.372
492	0.374
492	0.375
493	0.377
493	0.379
494	0.382
494	0.384
495	0.386
495	0.388
496	0.39
496	0.392
496	0.394
497	0.397
497	0.399
498	0.401
498	0.403
499	0.406
499	0.408
500	0.411
500	0.414
501	0.417
501	0.419
501	0.421
502	0.423
502	0.426
503	0.429
503	0.431
504	0.433
504	0.436
505	0.439
505	0.441
506	0.444
506	0.447
506	0.451
507	0.454
507	0.457
508	0.461
508	0.464
509	0.467
509	0.47
510	0.473
510	0.476
511	0.478
511	0.481
511	0.484
512	0.487
512	0.489
513	0.491
513	0.493
514	0.496
514	0.498
515	0.5
515	0.502
515	0.504
516	0.506
516	0.508
517	0.511
517	0.513
518	0.515
518	0.517
519	0.518
519	0.52
520	0.522
520	0.524
520	0.525
521	0.526
521	0.528
522	0.529
522	0.53
523	0.532
523	0.533
524	0.534
524	0.535
524	0.536
525	0.537
525	0.538
526	0.539
526	0.54
527	0.541
527	0.541
528	0.541
528	0.541
529	0.541
529	0.541
529	0.541
530	0.541
530	0.541
531	0.541
531	0.54
532	0.539
532	0.539
533	0.538
533	0.538
533	0.537
534	0.536
534	0.536
535	0.535
535	0.534
536	0.533
536	0.532
537	0.531
537	0.53
538	0.528
538	0.526
538	0.525
539	0.523
539	0.522
540	0.519
540	0.517
541	0.515
541	0.513
542	0.511
542	0.508
542	0.506
543	0.503
543	0.501
544	0.498
544	0.496
545	0.493
545	0.491
546	0.489
546	0.485
547	0.482
547	0.479
547	0.477
548	0.475
548	0.472
549	0.47
549	0.467
550	0.465
550	0.462
551	0.459
551	0.456
551	0.454
552	0.451
552	0.449
553	0.446
553	0.443
554	0.44
554	0.437
555	0.434
555	0.431
556	0.427
556	0.424
556	0.421
557	0.418
557	0.416
558	0.413
558	0.41
559	0.407
559	0.404
560	0.401
560	0.398
560	0.396
561	0.394
561	0.391
562	0.389
562	0.386
563	0.384
563	0.381
564	0.379
564	0.377
564	0.375
565	0.373
565	0.371
566	0.369
566	0.367
567	0.365
567	0.363
568	0.361
568	0.358
568	0.356
569	0.354
569	0.351
570	0.348
570	0.345
571	0.343
571	0.341
572	0.338
572	0.336
573	0.333
573	0.33
573	0.327
574	0.326
574	0.324
575	0.323
575	0.322
576	0.321
576	0.318
577	0.315
577	0.314
577	0.313
578	0.312
578	0.311
579	0.311
579	0.31
580	0.307
580	0.303
581	0.301
581	0.299
581	0.298
582	0.297
582	0.297
583	0.296
583	0.294
584	0.291
584	0.288
585	0.288
585	0.288
585	0.287
586	0.286
586	0.284
587	0.282
587	0.28
588	0.277
588	0.276
589	0.275
589	0.274
590	0.272
590	0.27
590	0.27
591	0.269
591	0.267
592	0.265
592	0.263
593	0.262
593	0.261
594	0.259
594	0.258
594	0.256
595	0.255
595	0.253
596	0.251
596	0.251
597	0.252
597	0.25
598	0.249
598	0.249
598	0.248
599	0.247
599	0.246
600	0.245
600	0.244
601	0.244
601	0.244
602	0.242
602	0.242
602	0.24
603	0.24
603	0.24
604	0.239
604	0.238
605	0.238
605	0.238
606	0.236
606	0.234
606	0.233
607	0.232
607	0.231
608	0.23
608	0.228
609	0.226
609	0.226
610	0.224
610	0.223
610	0.222
611	0.222
611	0.221
612	0.22
612	0.22
613	0.219
613	0.218
614	0.216
614	0.215
614	0.213
615	0.211
615	0.21
616	0.209
616	0.208
617	0.207
617	0.206
618	0.205
618	0.204
618	0.203
619	0.202
619	0.202
620	0.202
620	0.201
621	0.199
621	0.198
622	0.196
622	0.194
622	0.192
623	0.191
623	0.19
624	0.189
624	0.188
625	0.186
625	0.185
626	0.184
626	0.183
626	0.183
627	0.182
627	0.181
628	0.181
628	0.18
629	0.178
629	0.177
630	0.175
630	0.173
630	0.172
631	0.17
631	0.168
632	0.166
632	0.164
633	0.162
633	0.16
634	0.158
634	0.156
634	0.154
635	0.151
635	0.149
636	0.146
636	0.144
637	0.141
637	0.138
638	0.135
638	0.132
638	0.128
639	0.124
639	0.12
640	0.116
640	0.112
641	0.108
641	0.104
642	0.099
642	0.095
642	0.09
643	0.085
643	0.08
644	0.075
644	0.07
645	0.065
645	0.06
646	0.054
646	0.048
646	0.041
647	0.035
647	0.028
648	0.021
648	0.013
649	0.006
649	-0
650	-0.007
650	-0.014
650	-0.022
651	-0.031
651	-0.043
652	-0.055
652	-0.069
653	-0.081
653	-0.09
653	-0.085
654	-0.066
654	-0.06
655	-0.065
655	-0.07
656	-0.075
656	-0.08
657	-0.084
657	-0.088
657	-0.094
658	-0.101
658	-0.131
659	-0.215
659	-0.302
660	-0.34
660	-0.366
661	-0.391
661	-0.421
661	-0.45
662	-0.477
662	-0.506
663	-0.538
663	-0.574
664	-0.607
664	-0.645
665	-0.687
665	-0.73
665	-0.772
666	-0.819
666	-0.87
667	-0.921
667	-0.98
668	-1.035
668	-1.102
669	-1.167
669	-1.237
669	-1.312
670	-1.389
670	-1.492
671	-1.641
671	-1.933
672	-2.238
672	-2.423
672	-2.556
673	-2.659
673	-2.745
674	-2.812
674	-2.83
675	-2.846
675	-2.851
676	-2.851
676	-2.82
676	-2.751
677	-2.667
677	-2.567
678	-2.418
678	-2.175
679	-1.767
679	-1.58
680	-1.474
680	-1.397
680	-1.329
681	-1.28
681	-1.227
682	-1.186
682	-1.145
683	-1.104
683	-1.081
684	-1.055
684	-1.036
684	-1.015
685	-0.996
685	-0.987
686	-0.965
686	-0.953
687	-0.944
687	-0.934
687	-0.934
688	-0.919
688	-0.911
689	-0.916
689	-0.913
690	-0.901
690	-0.891
691	-0.888
691	-0.892
691	-0.893
692	-0.893
692	-0.89
693	-0.897
693	-0.909
694	-0.889
694	-0.889
695	-0.891
695	-0.884
695	-0.893
696	-0.897
696	-0.89
697	-0.885
697	-0.882
698	-0.877
698	-0.873
698	-0.886
699	-0.883
699	-0.885
700	-0.905
700	-0.899
701	-0.888
701	-0.882
702	-0.881
702	-0.878
702	-0.877
703	-0.866
703	-0.855
704	-0.864
704	-0.867
705	-0.857
705	-0.857
705	-0.851
706	-0.844
706	-0.84
707	-0.853
707	-0.858
708	-0.856
708	-0.854
709	-0.853
709	-0.851
709	-0.846
710	-0.852
710	-0.855
711	-0.854
711	-0.854
712	-0.844
712	-0.84
713	-0.845
713	-0.847
713	-0.827
714	-0.829
714	-0.832
715	-0.825
715	-0.834
716	-0.85
716	-0.86
716	-0.862
717	-0.868
717	-0.859
718	-0.852
718	-0.852
719	-0.848
719	-0.843
720	-0.838
720	-0.834
720	-0.829
721	-0.819
721	-0.822
722	-0.819
722	-0.817
723	-0.834
723	-0.847
723	-0.855
724	-0.853
724	-0.858
725	-0.852
725	-0.856
726	-0.858
726	-0.851
727	-0.854
727	-0.86
727	-0.852
728	-0.839
728	-0.836
729	-0.837
729	-0.838
730	-0.843
730	-0.832
730	-0.839
731	-0.841
731	-0.84
732	-0.841
732	-0.836
733	-0.852
733	-0.858
734	-0.867
734	-0.859
734	-0.841
735	-0.833
735	-0.829
736	-0.827
736	-0.823
737	-0.823
737	-0.812
737	-0.803
738	-0.79
738	-0.777
739	-0.781
739	-0.783
740	-0.796
740	-0.797
741	-0.807
741	-0.818
741	-0.827
742	-0.834
742	-0.851
743	-0.856
743	-0.861
744	-0.864
744	-0.872
744	-0.866
745	-0.87
745	-0.861
746	-0.854
746	-0.844
747	-0.847
747	-0.837
748	-0.839
748	-0.843
748	-0.844
749	-0.836
749	-0.842
750	-0.835
750	-0.835
751	-0.836
751	-0.835
751	-0.848
752	-0.852
752	-0.855
753	-0.855
753	-0.849
754	-0.868
754	-0.868
754	-0.877
755	-0.878
755	-0.87
756	-0.872
756	-0.857
757	-0.849
757	-0.838
758	-0.839
758	-0.838
758	-0.835
759	-0.838
759	-0.837
760	-0.833
760	-0.834
761	-0.829
761	-0.833
761	-0.833
762	-0.84
762	-0.841
763	-0.84
763	-0.844
764	-0.843
764	-0.839
764	-0.846
765	-0.845
765	-0.85
766	-0.854
766	-0.855
767	-0.87
767	-0.865
768	-0.866
768	-0.856
768	-0.853
769	-0.858
769	-0.865
770	-0.873
770	-0.878
771	-0.873
771	-0.873
771	-0.878
772	-0.882
772	-0.904
773	-0.905
773	-0.904
774	-0.902
774	-0.883
775	-0.872
775	-0.873
775	-0.876
776	-0.886
776	-0.881
777	-0.881
777	-0.861
778	-0.872
778	-0.88
778	-0.879
779	-0.889
779	-0.905
780	-0.9
780	-0.91
781	-0.9
781	-0.89
781	-0.904
782	-0.925
782	-0.927
783	-0.929
783	-0.937
784	-0.94
784	-0.932
784	-0.952
785	-0.946
785	-0.958
786	-0.962
786	-0.955
787	-0.944
787	-0.95
788	-0.94
788	-0.935
788	-0.937
789	-0.937
789	-0.925
790	-0.923
790	-0.907
791	-0.914
791	-0.91
791	-0.904
792	-0.9
792	-0.905
793	-0.908
793	-0.895
794	-0.89
794	-0.885
794	-0.891
795	-0.911
795	-0.898
796	-0.904
796	-0.899
797	-0.89
797	-0.88
797	-0.872
798	-0.892
798	-0.897
799	-0.897
799	-0.883
800	-0.878
800	-0.886
801	-0.884
801	-0.889
801	-0.886
802	-0.884
802	-0.884
803	-0.877
803	-0.87
804	-0.873
804	-0.881
804	-0.865
805	-0.845
805	-0.835
806	-0.836
806	-0.832
807	-0.834
807	-0.835
807	-0.819
808	-0.815
808	-0.81
809	-0.805
809	-0.807
810	-0.809
810	-0.808
810	-0.802
811	-0.806
811	-0.798
812	-0.79
812	-0.791
813	-0.796
813	-0.798
813	-0.791
814	-0.791
814	-0.798
815	-0.787
815	-0.784
816	-0.78
816	-0.796
817	-0.808
817	-0.811
817	-0.821
818	-0.812
818	-0.811
819	-0.82
819	-0.816
820	-0.827
820	-0.828
820	-0.827
821	-0.822
821	-0.82
822	-0.819
822	-0.807
823	-0.819
823	-0.817
823	-0.812
824	-0.811
824	-0.822
825	-0.819
825	-0.814
826	-0.81
826	-0.805
826	-0.805
827	-0.805
827	-0.796
828	-0.797
828	-0.79
829	-0.784
829	-0.768
829	-0.766
830	-0.767
830	-0.752
831	-0.746
831	-0.735
832	-0.726
832	-0.721
832	-0.713
833	-0.715
833	-0.72
834	-0.716
834	-0.71
835	-0.701
835	-0.702
835	-0.697
836	-0.694
836	-0.689
837	-0.678
837	-0.67
838	-0.655
838	-0.638
839	-0.632
839	-0.619
839	-0.609
840	-0.609
840	-0.598
841	-0.587
841	-0.579
842	-0.572
842	-0.558
842	-0.555
843	-0.552
843	-0.547
844	-0.545
844	-0.533
845	-0.518
845	-0.509
845	-0.498
846	-0.486
846	-0.475
847	-0.465
847	-0.452
848	-0.437
848	-0.42
848	-0.405
849	-0.394
849	-0.382
850	-0.371
850	-0.361
851	-0.347
851	-0.331
851	-0.322
852	-0.306
852	-0.293
853	-0.284
853	-0.274
854	-0.262
854	-0.251
854	-0.239
855	-0.227
855	-0.22
856	-0.213
856	-0.204
857	-0.196
857	-0.187
857	-0.174
858	-0.164
858	-0.156
859	-0.144
859	-0.132
860	-0.121
860	-0.107
860	-0.096
861	-0.086
861	-0.076
862	-0.068
862	-0.06
863	-0.051
863	-0.042
863	-0.036
864	-0.031
864	-0.023
865	-0.017
865	-0.011
866	-0.005
866	0.001
866	0.006
867	0.011
867	0.018
868	0.022
868	0.027
869	0.032
869	0.036
869	0.038
870	0.04
870	0.042
871	0.044
871	0.046
872	0.047
872	0.048
872	0.049
873	0.049
873	0.049
874	0.048
874	0.048
875	0.048
875	0.048
875	0.048
876	0.047
876	0.047
877	0.047
877	0.046
878	0.045
878	0.045
878	0.045
879	0.044
879	0.044
880	0.044
880	0.043
881	0.041
881	0.04
881	0.039
882	0.038
882	0.037
883	0.035
883	0.034
884	0.033
884	0.033
884	0.032
885	0.032
885	0.032
886	0.031
886	0.031
887	0.03
887	0.03
887	0.029
888	0.028
888	0.028
889	0.027
889	0.026
890	0.025
890	0.025
890	0.025
891	0.025
891	0.024
892	0.025
892	0.025
893	0.025
893	0.025
893	0.025
894	0.025
894	0.025
895	0.025
895	0.024
895	0.024
896	0.025
896	0.024
897	0.025
897	0.025
898	0.025
898	0.026
898	0.026
899	0.026
899	0.027
900	0.027
900	0.026
901	0.026
901	0.025
901	0.025
902	0.024
902	0.024
903	0.024
903	0.023
904	0.023
904	0.023
904	0.024
905	0.024
905	0.025
906	0.026
906	0.026
907	0.027
907	0.027
907	0.028
908	0.028
908	0.029
909	0.029
909	0.029
910	0.029
910	0.03
910	0.03
911	0.03
911	0.031
912	0.031
912	0.032
913	0.033
913	0.033
913	0.034
914	0.034
914	0.035
915	0.035
915	0.035
916	0.035
916	0.035
916	0.035
917	0.035
917	0.035
918	0.035
918	0.034
918	0.034
919	0.034
919	0.034
920	0.034
920	0.035
921	0.036
921	0.036
921	0.037
922	0.038
922	0.038
923	0.039
923	0.039
924	0.039
924	0.038
924	0.037
925	0.036
925	0.035
926	0.034
926	0.032
927	0.031
927	0.03
927	0.029
928	0.028
928	0.028
929	0.028
929	0.029
930	0.029
930	0.03
930	0.031
931	0.031
931	0.032
932	0.034
932	0.035
933	0.036
933	0.036
933	0.036
934	0.036
934	0.035
935	0.035
935	0.034
935	0.033
936	0.032
936	0.03
937	0.029
937	0.028
938	0.027
938	0.026
938	0.026
939	0.025
939	0.024
940	0.024
940	0.023
941	0.022
941	0.022
941	0.022
942	0.02
942	0.02
943	0.02
943	0.019
944	0.019
944	0.017
944	0.017
945	0.016
945	0.016
946	0.016
946	0.015
946	0.015
947	0.015
947	0.015
948	0.015
948	0.016
949	0.017
949	0.018
949	0.02
950	0.022
950	0.023
951	0.025
951	0.026
952	0.027
952	0.028
952	0.029
953	0.029
953	0.03
954	0.03
954	0.029
955	0.029
955	0.029
955	0.029
956	0.028
956	0.028
957	0.027
957	0.026
957	0.025
958	0.024
958	0.024
959	0.024
959	0.023
960	0.023
960	0.022
960	0.022
961	0.022
961	0.023
962	0.023
962	0.023
963	0.023
963	0.024
963	0.024
964	0.024
964	0.025
965	0.025
965	0.025
966	0.025
966	0.026
966	0.026
967	0.026
967	0.026
968	0.026
968	0.026
968	0.026
969	0.026
969	0.025
970	0.025
970	0.025
971	0.025
971	0.025
971	0.025
972	0.025
972	0.026
973	0.026
973	0.026
974	0.026
974	0.026
974	0.026
975	0.027
975	0.027
976	0.026
976	0.026
976	0.026
977	0.026
977	0.025
978	0.025
978	0.024
979	0.024
979	0.023
979	0.023
980	0.023
980	0.023
981	0.023
981	0.023
982	0.023
982	0.022
982	0.023
983	0.023
983	0.022
984	0.022
984	0.022
984	0.021
985	0.021
985	0.02
986	0.02
986	0.019
987	0.018
987	0.018
987	0.017
988	0.016
988	0.015
989	0.015
989	0.014
990	0.013
990	0.012
990	0.011
991	0.011
991	0.01
992	0.009
992	0.008
992	0.008
993	0.007
993	0.006
994	0.005
994	0.003
995	0.002
995	0.001
995	-0
996	-0.002
996	-0.003
997	-0.004
997	-0.005
997	-0.006
998	-0.006
998	-0.006
999	-0.006
999	-0.006
1000	-0.006
1000	-0.006
1000	-0.005
1001	-0.004
1001	-0.003
1002	-0.003
1002	-0.002
1003	-0.002
1003	-0.002
1003	-0.002
1004	-0.002
1004	-0.002
1005	-0.002
1005	-0.003
1005	-0.004
1006	-0.005
1006	-0.006
1007	-0.006
1007	-0.007
1008	-0.008
1008	-0.008
1008	-0.008
1009	-0.008
1009	-0.008
1010	-0.008
1010	-0.007
1010	-0.007
1011	-0.006
1011	-0.006
1012	-0.005
1012	-0.003
1013	-0.002
1013	-0.001
1013	-0
1014	0.001
1014	0.001
1015	0.002
1015	0.003
1016	0.003
1016	0.003
1016	0.003
1017	0.002
1017	0.002
1018	0.002
1018	0.002
1018	0.002
1019	0.001
1019	0.001
1020	0.001
1020	0.001
1021	0.001
1021	0
1021	-0
1022	-0.001
1022	-0.001
1023	-0
1023	-0
1023	-0
1024	0
1024	0
1025	0
1025	0.001
1026	0.001
1026	0.002
1026	0.002
1027	0.002
1027	0.002
1028	0.003
1028	0.003
1028	0.003
1029	0.003
1029	0.004
1030	0.004
1030	0.003
1031	0.003
1031	0.004
1031	0.004
1032	0.003
1032	0.004
1033	0.003
1033	0.003
1033	0.003
1034	0.003
1034	0.002
1035	0.002
1035	0.001
1036	0.001
1036	-0
1036	-0
1037	-0
1037	-0
1038	-0.001
1038	-0.001
1039	-0
1039	0
1039	0.001
1040	0.001
1040	0.002
1041	0.002
1041	0.001
1041	0.001
1042	0
1042	-0
1043	-0.001
1043	-0.002
1044	-0.003
1044	-0.004
1044	-0.004
1045	-0.005
1045	-0.006
1046	-0.007
1046	-0.007
1046	-0.007
1047	-0.007
1047	-0.007
1048	-0.006
1048	-0.006
1049	-0.006
1049	-0.006
1049	-0.006
1050	-0.007
1050	-0.007
1051	-0.008
1051	-0.009
1051	-0.009
1052	-0.01
1052	-0.012
1053	-0.012
1053	-0.013
1053	-0.013
1054	-0.014
1054	-0.015
1055	-0.014
1055	-0.014
1056	-0.015
1056	-0.015
1056	-0.015
1057	-0.015
1057	-0.016
1058	-0.016
1058	-0.016
1058	-0.016
1059	-0.016
1059	-0.017
1060	-0.018
1060	-0.018
1061	-0.018
1061	-0.018
1061	-0.018
1062	-0.018
1062	-0.018
1063	-0.018
1063	-0.019
1063	-0.018
1064	-0.018
1064	-0.018
1065	-0.018
1065	-0.018
1066	-0.018
1066	-0.019
1066	-0.019
1067	-0.02
1067	-0.02
1068	-0.021
1068	-0.021
1068	-0.022
1069	-0.023
1069	-0.023
1070	-0.024
1070	-0.024
1071	-0.025
1071	-0.025
1071	-0.026
1072	-0.026
1072	-0.026
1073	-0.026
1073	-0.027
1073	-0.027
1074	-0.027
1074	-0.027
1075	-0.028
1075	-0.028
1076	-0.029
1076	-0.029
1076	-0.03
1077	-0.031
1077	-0.032
1078	-0.033
1078	-0.034
1078	-0.034
1079	-0.035
1079	-0.036
1080	-0.037
1080	-0.038
1080	-0.039
1081	-0.04
1081	-0.041
1082	-0.042
1082	-0.043
1083	-0.045
1083	-0.046
1083	-0.047
1084	-0.048
1084	-0.049
1085	-0.05
1085	-0.051
1085	-0.052
1086	-0.053
1086	-0.054
1087	-0.055
1087	-0.055
1088	-0.057
1088	-0.058
1088	-0.058
1089	-0.06
1089	-0.06
1090	-0.061
1090	-0.062
1090	-0.064
1091	-0.065
1091	-0.064
1092	-0.065
1092	-0.064
1092	-0.065
1093	-0.066
1093	-0.065
1094	-0.066
1094	-0.067
1095	-0.068
1095	-0.068
1095	-0.068
1096	-0.07
1096	-0.072
1097	-0.073
1097	-0.076
1097	-0.078
1098	-0.08
1098	-0.082
1099	-0.083
1099	-0.084
1100	-0.087
1100	-0.09
1100	-0.093
1101	-0.096
1101	-0.099
1102	-0.101
1102	-0.103
1102	-0.105
1103	-0.109
1103	-0.112
1104	-0.115
1104	-0.118
1104	-0.12
1105	-0.122
1105	-0.124
1106	-0.13
1106	-0.132
1107	-0.138
1107	-0.143
1107	-0.148
1108	-0.15
1108	-0.152
1109	-0.155
1109	-0.16
1109	-0.165
1110	-0.168
1110	-0.171
1111	-0.182
1111	-0.181
