Data from 3.4A_17C_Absorbance__643__02555.txt Node

Date: Tue Jun 20 16:47:50 CEST 2023
User: Marek
Spectrometer: MAYP115816
Trigger mode: 0
Integration Time (sec): 2.200000E-1
Scans to average: 10
Electric dark correction enabled: true
Nonlinearity correction enabled: true
Boxcar width: 5
XAxis mode: Wavelengths
Number of Pixels in Spectrum: 2068
>>>>>Begin Spectral Data<<<<<
199	-0.802
199	-0.78
200	-0.746
200	-0.693
201	-0.668
201	-0.657
202	-0.642
202	-0.633
203	-0.631
203	-0.624
204	-0.604
204	-0.589
205	-0.566
205	-0.555
205	-0.564
206	-0.565
206	-0.562
207	-0.553
207	-0.563
208	-0.564
208	-0.569
209	-0.57
209	-0.576
210	-0.592
210	-0.599
211	-0.593
211	-0.597
212	-0.606
212	-0.614
213	-0.61
213	-0.605
213	-0.603
214	-0.609
214	-0.61
215	-0.606
215	-0.612
216	-0.622
216	-0.627
217	-0.623
217	-0.624
218	-0.631
218	-0.633
219	-0.64
219	-0.643
220	-0.647
220	-0.654
221	-0.653
221	-0.652
221	-0.643
222	-0.644
222	-0.642
223	-0.639
223	-0.641
224	-0.642
224	-0.64
225	-0.638
225	-0.639
226	-0.641
226	-0.641
227	-0.648
227	-0.658
228	-0.661
228	-0.67
229	-0.674
229	-0.671
229	-0.67
230	-0.665
230	-0.662
231	-0.659
231	-0.654
232	-0.657
232	-0.65
233	-0.651
233	-0.64
234	-0.64
234	-0.636
235	-0.64
235	-0.651
236	-0.658
236	-0.658
236	-0.657
237	-0.657
237	-0.658
238	-0.659
238	-0.661
239	-0.663
239	-0.671
240	-0.665
240	-0.661
241	-0.657
241	-0.66
242	-0.665
242	-0.673
243	-0.673
243	-0.675
243	-0.68
244	-0.676
244	-0.678
245	-0.681
245	-0.685
246	-0.695
246	-0.698
247	-0.704
247	-0.69
248	-0.69
248	-0.692
249	-0.697
249	-0.698
250	-0.698
250	-0.707
250	-0.705
251	-0.704
251	-0.702
252	-0.705
252	-0.715
253	-0.71
253	-0.722
254	-0.727
254	-0.729
255	-0.739
255	-0.736
256	-0.74
256	-0.754
257	-0.763
257	-0.762
258	-0.763
258	-0.77
258	-0.769
259	-0.761
259	-0.78
260	-0.779
260	-0.77
261	-0.78
261	-0.764
262	-0.769
262	-0.766
263	-0.758
263	-0.763
264	-0.772
264	-0.772
265	-0.763
265	-0.766
265	-0.777
266	-0.768
266	-0.771
267	-0.77
267	-0.787
268	-0.796
268	-0.791
269	-0.784
269	-0.801
270	-0.804
270	-0.803
271	-0.815
271	-0.825
272	-0.825
272	-0.829
272	-0.823
273	-0.832
273	-0.846
274	-0.837
274	-0.83
275	-0.827
275	-0.814
276	-0.817
276	-0.822
277	-0.825
277	-0.821
278	-0.825
278	-0.825
278	-0.812
279	-0.822
279	-0.837
280	-0.84
280	-0.851
281	-0.846
281	-0.837
282	-0.842
282	-0.836
283	-0.83
283	-0.844
284	-0.857
284	-0.866
285	-0.846
285	-0.853
285	-0.847
286	-0.851
286	-0.868
287	-0.866
287	-0.863
288	-0.861
288	-0.842
289	-0.841
289	-0.848
290	-0.856
290	-0.842
291	-0.844
291	-0.841
292	-0.822
292	-0.82
292	-0.826
293	-0.815
293	-0.811
294	-0.812
294	-0.798
295	-0.78
295	-0.795
296	-0.807
296	-0.801
297	-0.79
297	-0.794
298	-0.79
298	-0.806
298	-0.809
299	-0.788
299	-0.782
300	-0.778
300	-0.757
301	-0.738
301	-0.741
302	-0.75
302	-0.735
303	-0.728
303	-0.719
304	-0.704
304	-0.71
305	-0.701
305	-0.71
305	-0.726
306	-0.712
306	-0.709
307	-0.702
307	-0.713
308	-0.715
308	-0.708
309	-0.71
309	-0.707
310	-0.706
310	-0.702
311	-0.687
311	-0.706
311	-0.695
312	-0.693
312	-0.682
313	-0.675
313	-0.677
314	-0.681
314	-0.678
315	-0.677
315	-0.671
316	-0.665
316	-0.655
317	-0.647
317	-0.642
318	-0.634
318	-0.631
318	-0.62
319	-0.609
319	-0.6
320	-0.596
320	-0.592
321	-0.588
321	-0.587
322	-0.582
322	-0.575
323	-0.575
323	-0.564
324	-0.562
324	-0.55
324	-0.539
325	-0.524
325	-0.508
326	-0.499
326	-0.473
327	-0.456
327	-0.434
328	-0.403
328	-0.38
329	-0.354
329	-0.326
330	-0.299
330	-0.265
330	-0.229
331	-0.191
331	-0.157
332	-0.125
332	-0.093
333	-0.063
333	-0.031
334	-0
334	0.024
335	0.051
335	0.073
336	0.095
336	0.116
336	0.131
337	0.149
337	0.165
338	0.179
338	0.189
339	0.202
339	0.214
340	0.222
340	0.23
341	0.238
341	0.244
342	0.251
342	0.257
342	0.262
343	0.265
343	0.27
344	0.273
344	0.276
345	0.279
345	0.281
346	0.283
346	0.285
347	0.287
347	0.288
348	0.289
348	0.291
348	0.292
349	0.293
349	0.293
350	0.294
350	0.295
351	0.295
351	0.296
352	0.296
352	0.296
353	0.296
353	0.297
354	0.297
354	0.297
354	0.297
355	0.297
355	0.296
356	0.297
356	0.297
357	0.298
357	0.298
358	0.298
358	0.298
359	0.298
359	0.298
360	0.298
360	0.298
360	0.298
361	0.298
361	0.298
362	0.297
362	0.297
363	0.297
363	0.297
364	0.297
364	0.297
365	0.297
365	0.297
366	0.297
366	0.297
366	0.297
367	0.297
367	0.297
368	0.296
368	0.296
369	0.296
369	0.296
370	0.296
370	0.296
371	0.295
371	0.295
372	0.295
372	0.295
372	0.295
373	0.295
373	0.295
374	0.294
374	0.294
375	0.294
375	0.294
376	0.294
376	0.294
377	0.294
377	0.293
378	0.293
378	0.292
378	0.292
379	0.292
379	0.292
380	0.292
380	0.292
381	0.291
381	0.291
382	0.291
382	0.291
383	0.291
383	0.291
383	0.29
384	0.29
384	0.29
385	0.289
385	0.289
386	0.289
386	0.289
387	0.289
387	0.288
388	0.288
388	0.288
389	0.288
389	0.288
389	0.288
390	0.288
390	0.287
391	0.287
391	0.287
392	0.287
392	0.287
393	0.287
393	0.286
394	0.286
394	0.286
394	0.286
395	0.285
395	0.285
396	0.285
396	0.284
397	0.284
397	0.284
398	0.283
398	0.283
399	0.283
399	0.283
400	0.283
400	0.282
400	0.282
401	0.282
401	0.282
402	0.282
402	0.282
403	0.282
403	0.281
404	0.281
404	0.281
405	0.28
405	0.28
405	0.28
406	0.28
406	0.28
407	0.279
407	0.279
408	0.278
408	0.278
409	0.278
409	0.278
410	0.278
410	0.278
411	0.278
411	0.278
411	0.278
412	0.278
412	0.277
413	0.277
413	0.277
414	0.277
414	0.277
415	0.276
415	0.276
416	0.276
416	0.275
416	0.275
417	0.275
417	0.275
418	0.275
418	0.275
419	0.275
419	0.275
420	0.274
420	0.274
421	0.274
421	0.274
421	0.274
422	0.274
422	0.274
423	0.274
423	0.274
424	0.273
424	0.273
425	0.273
425	0.273
426	0.273
426	0.273
427	0.273
427	0.273
427	0.273
428	0.273
428	0.273
429	0.273
429	0.272
430	0.272
430	0.272
431	0.271
431	0.271
432	0.271
432	0.27
432	0.27
433	0.27
433	0.27
434	0.27
434	0.27
435	0.27
435	0.27
436	0.27
436	0.271
437	0.27
437	0.27
437	0.27
438	0.27
438	0.27
439	0.27
439	0.27
440	0.27
440	0.27
441	0.27
441	0.269
442	0.269
442	0.269
442	0.269
443	0.269
443	0.269
444	0.269
444	0.269
445	0.269
445	0.269
446	0.269
446	0.269
447	0.269
447	0.269
447	0.269
448	0.269
448	0.269
449	0.269
449	0.269
450	0.269
450	0.269
451	0.269
451	0.269
452	0.269
452	0.269
452	0.269
453	0.269
453	0.269
454	0.269
454	0.269
455	0.269
455	0.27
456	0.27
456	0.269
457	0.269
457	0.269
458	0.269
458	0.269
458	0.269
459	0.269
459	0.268
460	0.268
460	0.268
461	0.268
461	0.269
462	0.269
462	0.27
463	0.271
463	0.271
463	0.272
464	0.272
464	0.272
465	0.273
465	0.273
466	0.274
466	0.274
467	0.274
467	0.274
467	0.274
468	0.273
468	0.273
469	0.274
469	0.274
470	0.275
470	0.275
471	0.275
471	0.275
472	0.275
472	0.276
472	0.276
473	0.277
473	0.277
474	0.278
474	0.279
475	0.279
475	0.28
476	0.281
476	0.282
477	0.282
477	0.283
477	0.284
478	0.284
478	0.284
479	0.285
479	0.285
480	0.286
480	0.286
481	0.286
481	0.287
482	0.288
482	0.288
482	0.289
483	0.291
483	0.293
484	0.294
484	0.295
485	0.296
485	0.297
486	0.298
486	0.299
487	0.3
487	0.301
487	0.301
488	0.302
488	0.302
489	0.303
489	0.305
490	0.306
490	0.307
491	0.309
491	0.31
492	0.311
492	0.312
492	0.314
493	0.315
493	0.316
494	0.318
494	0.32
495	0.321
495	0.323
496	0.324
496	0.326
496	0.328
497	0.329
497	0.331
498	0.333
498	0.335
499	0.336
499	0.338
500	0.34
500	0.342
501	0.344
501	0.346
501	0.348
502	0.35
502	0.352
503	0.354
503	0.356
504	0.358
504	0.36
505	0.362
505	0.364
506	0.366
506	0.368
506	0.371
507	0.373
507	0.376
508	0.378
508	0.381
509	0.383
509	0.386
510	0.388
510	0.39
511	0.392
511	0.394
511	0.396
512	0.398
512	0.399
513	0.401
513	0.402
514	0.404
514	0.406
515	0.408
515	0.41
515	0.411
516	0.413
516	0.415
517	0.416
517	0.418
518	0.419
518	0.42
519	0.422
519	0.423
520	0.424
520	0.426
520	0.427
521	0.428
521	0.429
522	0.43
522	0.432
523	0.433
523	0.434
524	0.435
524	0.435
524	0.436
525	0.437
525	0.438
526	0.439
526	0.44
527	0.44
527	0.441
528	0.441
528	0.441
529	0.441
529	0.441
529	0.441
530	0.44
530	0.44
531	0.44
531	0.439
532	0.439
532	0.439
533	0.439
533	0.438
533	0.437
534	0.437
534	0.436
535	0.436
535	0.435
536	0.435
536	0.434
537	0.434
537	0.433
538	0.432
538	0.431
538	0.43
539	0.429
539	0.428
540	0.426
540	0.424
541	0.422
541	0.421
542	0.419
542	0.418
542	0.416
543	0.414
543	0.412
544	0.411
544	0.409
545	0.408
545	0.406
546	0.404
546	0.402
547	0.4
547	0.398
547	0.396
548	0.395
548	0.393
549	0.391
549	0.389
550	0.387
550	0.385
551	0.383
551	0.381
551	0.379
552	0.377
552	0.376
553	0.374
553	0.372
554	0.37
554	0.367
555	0.364
555	0.363
556	0.36
556	0.358
556	0.356
557	0.354
557	0.352
558	0.35
558	0.348
559	0.346
559	0.344
560	0.342
560	0.34
560	0.338
561	0.337
561	0.336
562	0.334
562	0.332
563	0.33
563	0.329
564	0.327
564	0.326
564	0.325
565	0.324
565	0.323
566	0.322
566	0.32
567	0.32
567	0.319
568	0.317
568	0.315
568	0.313
569	0.312
569	0.31
570	0.308
570	0.305
571	0.304
571	0.302
572	0.3
572	0.298
573	0.296
573	0.294
573	0.292
574	0.291
574	0.29
575	0.289
575	0.29
576	0.289
576	0.287
577	0.285
577	0.284
577	0.284
578	0.284
578	0.284
579	0.284
579	0.284
580	0.281
580	0.278
581	0.276
581	0.275
581	0.275
582	0.274
582	0.274
583	0.274
583	0.273
584	0.27
584	0.268
585	0.269
585	0.269
585	0.269
586	0.268
586	0.267
587	0.266
587	0.264
588	0.262
588	0.261
589	0.261
589	0.26
590	0.259
590	0.258
590	0.259
591	0.258
591	0.257
592	0.256
592	0.255
593	0.254
593	0.254
594	0.253
594	0.252
594	0.251
595	0.25
595	0.249
596	0.247
596	0.248
597	0.249
597	0.249
598	0.248
598	0.248
598	0.248
599	0.248
599	0.247
600	0.247
600	0.247
601	0.247
601	0.247
602	0.246
602	0.245
602	0.245
603	0.245
603	0.245
604	0.245
604	0.245
605	0.245
605	0.245
606	0.244
606	0.242
606	0.242
607	0.241
607	0.241
608	0.24
608	0.238
609	0.238
609	0.238
610	0.237
610	0.236
610	0.236
611	0.236
611	0.235
612	0.235
612	0.235
613	0.235
613	0.234
614	0.233
614	0.231
614	0.23
615	0.229
615	0.228
616	0.227
616	0.226
617	0.226
617	0.225
618	0.224
618	0.224
618	0.223
619	0.223
619	0.223
620	0.223
620	0.222
621	0.221
621	0.22
622	0.218
622	0.216
622	0.214
623	0.213
623	0.212
624	0.212
624	0.211
625	0.21
625	0.209
626	0.208
626	0.208
626	0.207
627	0.207
627	0.207
628	0.206
628	0.206
629	0.205
629	0.203
630	0.201
630	0.2
630	0.199
631	0.198
631	0.197
632	0.195
632	0.193
633	0.191
633	0.189
634	0.188
634	0.186
634	0.184
635	0.182
635	0.18
636	0.177
636	0.175
637	0.172
637	0.169
638	0.166
638	0.164
638	0.161
639	0.157
639	0.153
640	0.15
640	0.146
641	0.142
641	0.138
642	0.135
642	0.131
642	0.127
643	0.122
643	0.118
644	0.113
644	0.108
645	0.103
645	0.098
646	0.092
646	0.086
646	0.079
647	0.073
647	0.066
648	0.058
648	0.051
649	0.043
649	0.036
650	0.029
650	0.022
650	0.014
651	0.004
651	-0.008
652	-0.021
652	-0.036
653	-0.048
653	-0.06
653	-0.055
654	-0.035
654	-0.03
655	-0.035
655	-0.041
656	-0.048
656	-0.054
657	-0.06
657	-0.065
657	-0.072
658	-0.079
658	-0.111
659	-0.199
659	-0.291
660	-0.333
660	-0.361
661	-0.388
661	-0.419
661	-0.45
662	-0.479
662	-0.509
663	-0.543
663	-0.582
664	-0.618
664	-0.659
665	-0.705
665	-0.75
665	-0.795
666	-0.845
666	-0.9
667	-0.954
667	-1.015
668	-1.074
668	-1.142
669	-1.209
669	-1.281
669	-1.357
670	-1.436
670	-1.54
671	-1.686
671	-1.991
672	-2.268
672	-2.444
672	-2.571
673	-2.672
673	-2.755
674	-2.833
674	-2.857
675	-2.875
675	-2.88
676	-2.88
676	-2.846
676	-2.782
677	-2.706
677	-2.617
678	-2.488
678	-2.293
679	-1.915
679	-1.679
680	-1.559
680	-1.477
680	-1.404
681	-1.351
681	-1.295
682	-1.249
682	-1.204
683	-1.159
683	-1.133
684	-1.103
684	-1.083
684	-1.058
685	-1.036
685	-1.025
686	-1.001
686	-0.986
687	-0.975
687	-0.964
687	-0.963
688	-0.947
688	-0.938
689	-0.94
689	-0.936
690	-0.924
690	-0.912
691	-0.909
691	-0.913
691	-0.913
692	-0.912
692	-0.907
693	-0.913
693	-0.923
694	-0.904
694	-0.903
695	-0.903
695	-0.897
695	-0.904
696	-0.912
696	-0.905
697	-0.898
697	-0.894
698	-0.889
698	-0.88
698	-0.891
699	-0.89
699	-0.892
700	-0.911
700	-0.907
701	-0.892
701	-0.887
702	-0.887
702	-0.886
702	-0.886
703	-0.877
703	-0.866
704	-0.875
704	-0.878
705	-0.866
705	-0.864
705	-0.859
706	-0.851
706	-0.847
707	-0.858
707	-0.862
708	-0.86
708	-0.858
709	-0.859
709	-0.855
709	-0.852
710	-0.859
710	-0.861
711	-0.861
711	-0.862
712	-0.853
712	-0.849
713	-0.854
713	-0.855
713	-0.835
714	-0.837
714	-0.84
715	-0.832
715	-0.84
716	-0.856
716	-0.865
716	-0.866
717	-0.871
717	-0.862
718	-0.857
718	-0.856
719	-0.852
719	-0.844
720	-0.839
720	-0.835
720	-0.83
721	-0.82
721	-0.824
722	-0.821
722	-0.818
723	-0.834
723	-0.847
723	-0.856
724	-0.855
724	-0.86
725	-0.852
725	-0.854
726	-0.858
726	-0.848
727	-0.851
727	-0.858
727	-0.847
728	-0.835
728	-0.831
729	-0.834
729	-0.837
730	-0.842
730	-0.834
730	-0.841
731	-0.845
731	-0.844
732	-0.845
732	-0.843
733	-0.858
733	-0.864
734	-0.872
734	-0.865
734	-0.848
735	-0.837
735	-0.832
736	-0.83
736	-0.825
737	-0.828
737	-0.817
737	-0.808
738	-0.794
738	-0.781
739	-0.784
739	-0.784
740	-0.799
740	-0.8
741	-0.81
741	-0.821
741	-0.83
742	-0.835
742	-0.853
743	-0.86
743	-0.862
744	-0.865
744	-0.875
744	-0.869
745	-0.877
745	-0.865
746	-0.859
746	-0.851
747	-0.854
747	-0.841
748	-0.843
748	-0.849
748	-0.849
749	-0.841
749	-0.845
750	-0.835
750	-0.836
751	-0.836
751	-0.831
751	-0.842
752	-0.846
752	-0.85
753	-0.85
753	-0.841
754	-0.86
754	-0.863
754	-0.872
755	-0.872
755	-0.863
756	-0.866
756	-0.852
757	-0.844
757	-0.834
758	-0.835
758	-0.835
758	-0.831
759	-0.836
759	-0.835
760	-0.835
760	-0.837
761	-0.832
761	-0.838
761	-0.839
762	-0.844
762	-0.843
763	-0.843
763	-0.846
764	-0.845
764	-0.839
764	-0.845
765	-0.844
765	-0.851
766	-0.853
766	-0.854
767	-0.87
767	-0.866
768	-0.864
768	-0.855
768	-0.852
769	-0.856
769	-0.865
770	-0.874
770	-0.878
771	-0.876
771	-0.875
771	-0.881
772	-0.885
772	-0.907
773	-0.909
773	-0.908
774	-0.907
774	-0.888
775	-0.876
775	-0.874
775	-0.877
776	-0.887
776	-0.882
777	-0.884
777	-0.865
778	-0.873
778	-0.881
778	-0.881
779	-0.89
779	-0.907
780	-0.904
780	-0.912
781	-0.903
781	-0.893
781	-0.906
782	-0.928
782	-0.929
783	-0.929
783	-0.936
784	-0.939
784	-0.931
784	-0.95
785	-0.942
785	-0.954
786	-0.959
786	-0.95
787	-0.941
787	-0.95
788	-0.942
788	-0.935
788	-0.938
789	-0.938
789	-0.927
790	-0.927
790	-0.91
791	-0.918
791	-0.914
791	-0.908
792	-0.903
792	-0.908
793	-0.911
793	-0.899
794	-0.891
794	-0.885
794	-0.891
795	-0.91
795	-0.895
796	-0.899
796	-0.895
797	-0.887
797	-0.875
797	-0.869
798	-0.89
798	-0.895
799	-0.894
799	-0.88
800	-0.876
800	-0.887
801	-0.884
801	-0.887
801	-0.883
802	-0.884
802	-0.884
803	-0.879
803	-0.871
804	-0.879
804	-0.888
804	-0.871
805	-0.85
805	-0.842
806	-0.843
806	-0.841
807	-0.842
807	-0.841
807	-0.822
808	-0.818
808	-0.81
809	-0.803
809	-0.805
810	-0.809
810	-0.805
810	-0.802
811	-0.805
811	-0.796
812	-0.788
812	-0.79
813	-0.794
813	-0.794
813	-0.79
814	-0.789
814	-0.792
815	-0.786
815	-0.781
816	-0.777
816	-0.795
817	-0.809
817	-0.813
817	-0.823
818	-0.817
818	-0.815
819	-0.825
819	-0.824
820	-0.834
820	-0.834
820	-0.834
821	-0.829
821	-0.823
822	-0.821
822	-0.809
823	-0.821
823	-0.819
823	-0.814
824	-0.812
824	-0.823
825	-0.821
825	-0.814
826	-0.81
826	-0.804
826	-0.805
827	-0.805
827	-0.793
828	-0.793
828	-0.786
829	-0.78
829	-0.764
829	-0.764
830	-0.764
830	-0.75
831	-0.744
831	-0.734
832	-0.725
832	-0.721
832	-0.713
833	-0.714
833	-0.719
834	-0.715
834	-0.708
835	-0.701
835	-0.7
835	-0.694
836	-0.689
836	-0.684
837	-0.673
837	-0.663
838	-0.649
838	-0.633
839	-0.627
839	-0.614
839	-0.604
840	-0.602
840	-0.593
841	-0.582
841	-0.576
842	-0.567
842	-0.555
842	-0.553
843	-0.548
843	-0.542
844	-0.54
844	-0.529
845	-0.514
845	-0.504
845	-0.495
846	-0.482
846	-0.472
847	-0.462
847	-0.448
848	-0.432
848	-0.414
848	-0.399
849	-0.385
849	-0.373
850	-0.363
850	-0.351
851	-0.336
851	-0.319
851	-0.308
852	-0.293
852	-0.28
853	-0.272
853	-0.261
854	-0.251
854	-0.239
854	-0.225
855	-0.213
855	-0.205
856	-0.197
856	-0.188
857	-0.18
857	-0.17
857	-0.156
858	-0.143
858	-0.134
859	-0.122
859	-0.11
860	-0.099
860	-0.084
860	-0.072
861	-0.061
861	-0.051
862	-0.041
862	-0.032
863	-0.023
863	-0.014
863	-0.007
864	-0.001
864	0.007
865	0.014
865	0.02
866	0.027
866	0.034
866	0.039
867	0.045
867	0.052
868	0.056
868	0.062
869	0.067
869	0.071
869	0.074
870	0.076
870	0.078
871	0.08
871	0.082
872	0.083
872	0.084
872	0.085
873	0.085
873	0.084
874	0.083
874	0.083
875	0.082
875	0.082
875	0.081
876	0.081
876	0.08
877	0.079
877	0.078
878	0.078
878	0.077
878	0.077
879	0.077
879	0.076
880	0.076
880	0.076
881	0.075
881	0.074
881	0.073
882	0.072
882	0.071
883	0.069
883	0.068
884	0.067
884	0.066
884	0.066
885	0.066
885	0.065
886	0.065
886	0.065
887	0.064
887	0.064
887	0.064
888	0.064
888	0.063
889	0.062
889	0.061
890	0.06
890	0.06
890	0.059
891	0.059
891	0.058
892	0.059
892	0.058
893	0.058
893	0.058
893	0.058
894	0.058
894	0.058
895	0.057
895	0.057
895	0.057
896	0.057
896	0.056
897	0.056
897	0.056
898	0.056
898	0.056
898	0.056
899	0.056
899	0.056
900	0.056
900	0.056
901	0.056
901	0.055
901	0.055
902	0.055
902	0.055
903	0.055
903	0.055
904	0.055
904	0.055
904	0.055
905	0.056
905	0.056
906	0.057
906	0.058
907	0.058
907	0.058
907	0.058
908	0.058
908	0.059
909	0.059
909	0.059
910	0.059
910	0.06
910	0.06
911	0.06
911	0.061
912	0.061
912	0.062
913	0.063
913	0.063
913	0.063
914	0.063
914	0.064
915	0.064
915	0.064
916	0.064
916	0.064
916	0.064
917	0.064
917	0.064
918	0.064
918	0.064
918	0.064
919	0.064
919	0.064
920	0.064
920	0.065
921	0.066
921	0.066
921	0.067
922	0.067
922	0.068
923	0.068
923	0.068
924	0.068
924	0.068
924	0.067
925	0.066
925	0.065
926	0.064
926	0.063
927	0.062
927	0.061
927	0.061
928	0.06
928	0.06
929	0.061
929	0.061
930	0.062
930	0.062
930	0.063
931	0.064
931	0.065
932	0.066
932	0.067
933	0.067
933	0.068
933	0.068
934	0.067
934	0.066
935	0.066
935	0.065
935	0.063
936	0.062
936	0.061
937	0.059
937	0.058
938	0.058
938	0.057
938	0.056
939	0.055
939	0.055
940	0.054
940	0.053
941	0.053
941	0.052
941	0.051
942	0.051
942	0.05
943	0.05
943	0.049
944	0.048
944	0.047
944	0.047
945	0.046
945	0.046
946	0.045
946	0.044
946	0.044
947	0.044
947	0.043
948	0.044
948	0.045
949	0.045
949	0.046
949	0.048
950	0.05
950	0.051
951	0.053
951	0.054
952	0.055
952	0.056
952	0.057
953	0.057
953	0.058
954	0.058
954	0.058
955	0.058
955	0.058
955	0.057
956	0.056
956	0.056
957	0.055
957	0.054
957	0.053
958	0.052
958	0.052
959	0.051
959	0.051
960	0.05
960	0.05
960	0.05
961	0.05
961	0.05
962	0.05
962	0.05
963	0.05
963	0.05
963	0.051
964	0.051
964	0.051
965	0.051
965	0.051
966	0.051
966	0.051
966	0.052
967	0.052
967	0.052
968	0.052
968	0.052
968	0.052
969	0.052
969	0.051
970	0.051
970	0.051
971	0.051
971	0.05
971	0.05
972	0.05
972	0.05
973	0.05
973	0.05
974	0.051
974	0.051
974	0.051
975	0.051
975	0.051
976	0.051
976	0.051
976	0.051
977	0.051
977	0.051
978	0.05
978	0.05
979	0.049
979	0.049
979	0.049
980	0.049
980	0.049
981	0.049
981	0.049
982	0.049
982	0.049
982	0.049
983	0.049
983	0.049
984	0.048
984	0.048
984	0.048
985	0.047
985	0.047
986	0.046
986	0.045
987	0.045
987	0.044
987	0.043
988	0.042
988	0.041
989	0.041
989	0.04
990	0.039
990	0.038
990	0.037
991	0.036
991	0.035
992	0.034
992	0.034
992	0.033
993	0.032
993	0.031
994	0.03
994	0.028
995	0.027
995	0.026
995	0.024
996	0.023
996	0.021
997	0.02
997	0.019
997	0.018
998	0.017
998	0.017
999	0.017
999	0.017
1000	0.017
1000	0.018
1000	0.019
1001	0.019
1001	0.02
1002	0.021
1002	0.021
1003	0.022
1003	0.022
1003	0.022
1004	0.022
1004	0.023
1005	0.022
1005	0.022
1005	0.021
1006	0.02
1006	0.02
1007	0.019
1007	0.019
1008	0.018
1008	0.017
1008	0.017
1009	0.017
1009	0.017
1010	0.017
1010	0.018
1010	0.018
1011	0.018
1011	0.019
1012	0.02
1012	0.021
1013	0.022
1013	0.022
1013	0.023
1014	0.024
1014	0.024
1015	0.025
1015	0.025
1016	0.025
1016	0.025
1016	0.025
1017	0.025
1017	0.024
1018	0.025
1018	0.024
1018	0.024
1019	0.024
1019	0.024
1020	0.024
1020	0.024
1021	0.024
1021	0.023
1021	0.023
1022	0.023
1022	0.023
1023	0.023
1023	0.023
1023	0.023
1024	0.024
1024	0.024
1025	0.024
1025	0.024
1026	0.025
1026	0.025
1026	0.025
1027	0.025
1027	0.026
1028	0.026
1028	0.027
1028	0.027
1029	0.027
1029	0.027
1030	0.027
1030	0.026
1031	0.026
1031	0.027
1031	0.027
1032	0.026
1032	0.026
1033	0.026
1033	0.025
1033	0.025
1034	0.024
1034	0.024
1035	0.023
1035	0.023
1036	0.022
1036	0.021
1036	0.021
1037	0.021
1037	0.021
1038	0.021
1038	0.021
1039	0.021
1039	0.022
1039	0.023
1040	0.023
1040	0.024
1041	0.024
1041	0.023
1041	0.023
1042	0.022
1042	0.022
1043	0.021
1043	0.02
1044	0.019
1044	0.018
1044	0.017
1045	0.016
1045	0.015
1046	0.014
1046	0.014
1046	0.014
1047	0.013
1047	0.014
1048	0.014
1048	0.014
1049	0.014
1049	0.014
1049	0.014
1050	0.014
1050	0.013
1051	0.012
1051	0.012
1051	0.012
1052	0.011
1052	0.01
1053	0.01
1053	0.01
1053	0.009
1054	0.008
1054	0.008
1055	0.009
1055	0.009
1056	0.008
1056	0.008
1056	0.008
1057	0.007
1057	0.007
1058	0.007
1058	0.006
1058	0.006
1059	0.006
1059	0.005
1060	0.004
1060	0.004
1061	0.004
1061	0.004
1061	0.004
1062	0.003
1062	0.003
1063	0.003
1063	0.003
1063	0.003
1064	0.003
1064	0.004
1065	0.004
1065	0.004
1066	0.004
1066	0.003
1066	0.003
1067	0.003
1067	0.002
1068	0.001
1068	0
1068	-0
1069	-0.002
1069	-0.003
1070	-0.003
1070	-0.004
1071	-0.005
1071	-0.005
1071	-0.006
1072	-0.006
1072	-0.006
1073	-0.006
1073	-0.007
1073	-0.007
1074	-0.007
1074	-0.008
1075	-0.009
1075	-0.009
1076	-0.011
1076	-0.011
1076	-0.012
1077	-0.013
1077	-0.014
1078	-0.014
1078	-0.015
1078	-0.015
1079	-0.016
1079	-0.016
1080	-0.017
1080	-0.018
1080	-0.019
1081	-0.02
1081	-0.02
1082	-0.021
1082	-0.022
1083	-0.023
1083	-0.025
1083	-0.026
1084	-0.027
1084	-0.028
1085	-0.03
1085	-0.03
1085	-0.032
1086	-0.033
1086	-0.034
1087	-0.035
1087	-0.035
1088	-0.037
1088	-0.037
1088	-0.038
1089	-0.039
1089	-0.04
1090	-0.041
1090	-0.042
1090	-0.043
1091	-0.044
1091	-0.045
1092	-0.045
1092	-0.046
1092	-0.047
1093	-0.048
1093	-0.048
1094	-0.049
1094	-0.05
1095	-0.051
1095	-0.051
1095	-0.051
1096	-0.053
1096	-0.055
1097	-0.057
1097	-0.059
1097	-0.06
1098	-0.063
1098	-0.065
1099	-0.067
1099	-0.069
1100	-0.072
1100	-0.075
1100	-0.078
1101	-0.08
1101	-0.083
1102	-0.085
1102	-0.088
1102	-0.09
1103	-0.093
1103	-0.096
1104	-0.099
1104	-0.102
1104	-0.104
1105	-0.106
1105	-0.11
1106	-0.115
1106	-0.117
1107	-0.123
1107	-0.128
1107	-0.132
1108	-0.133
1108	-0.135
1109	-0.138
1109	-0.142
1109	-0.147
1110	-0.148
1110	-0.149
1111	-0.158
1111	-0.15
