Data from 3.4A_17C_Absorbance__866__02778.txt Node

Date: Tue Jun 20 16:56:01 CEST 2023
User: Marek
Spectrometer: MAYP115816
Trigger mode: 0
Integration Time (sec): 2.200000E-1
Scans to average: 10
Electric dark correction enabled: true
Nonlinearity correction enabled: true
Boxcar width: 5
XAxis mode: Wavelengths
Number of Pixels in Spectrum: 2068
>>>>>Begin Spectral Data<<<<<
199	-0.794
199	-0.776
200	-0.746
200	-0.693
201	-0.665
201	-0.657
202	-0.642
202	-0.635
203	-0.634
203	-0.628
204	-0.608
204	-0.592
205	-0.57
205	-0.559
205	-0.57
206	-0.571
206	-0.568
207	-0.561
207	-0.569
208	-0.57
208	-0.574
209	-0.575
209	-0.582
210	-0.596
210	-0.604
211	-0.596
211	-0.601
212	-0.609
212	-0.617
213	-0.613
213	-0.609
213	-0.607
214	-0.616
214	-0.618
215	-0.614
215	-0.62
216	-0.627
216	-0.633
217	-0.632
217	-0.631
218	-0.638
218	-0.641
219	-0.646
219	-0.647
220	-0.649
220	-0.656
221	-0.656
221	-0.659
221	-0.65
222	-0.649
222	-0.648
223	-0.644
223	-0.646
224	-0.648
224	-0.646
225	-0.644
225	-0.646
226	-0.647
226	-0.646
227	-0.653
227	-0.662
228	-0.665
228	-0.675
229	-0.681
229	-0.679
229	-0.679
230	-0.675
230	-0.672
231	-0.669
231	-0.663
232	-0.666
232	-0.661
233	-0.659
233	-0.645
234	-0.645
234	-0.64
235	-0.645
235	-0.655
236	-0.663
236	-0.663
236	-0.664
237	-0.663
237	-0.663
238	-0.665
238	-0.668
239	-0.67
239	-0.681
240	-0.673
240	-0.67
241	-0.666
241	-0.669
242	-0.672
242	-0.679
243	-0.681
243	-0.683
243	-0.687
244	-0.682
244	-0.683
245	-0.685
245	-0.687
246	-0.696
246	-0.701
247	-0.708
247	-0.694
248	-0.693
248	-0.697
249	-0.705
249	-0.707
250	-0.706
250	-0.715
250	-0.714
251	-0.714
251	-0.71
252	-0.712
252	-0.723
253	-0.718
253	-0.73
254	-0.733
254	-0.734
255	-0.743
255	-0.741
256	-0.744
256	-0.757
257	-0.766
257	-0.763
258	-0.766
258	-0.775
258	-0.771
259	-0.762
259	-0.781
260	-0.782
260	-0.772
261	-0.782
261	-0.767
262	-0.772
262	-0.772
263	-0.761
263	-0.765
264	-0.776
264	-0.779
265	-0.769
265	-0.77
265	-0.781
266	-0.773
266	-0.774
267	-0.774
267	-0.79
268	-0.799
268	-0.793
269	-0.785
269	-0.801
270	-0.805
270	-0.806
271	-0.819
271	-0.827
272	-0.829
272	-0.833
272	-0.826
273	-0.836
273	-0.852
274	-0.843
274	-0.837
275	-0.833
275	-0.82
276	-0.824
276	-0.831
277	-0.833
277	-0.829
278	-0.833
278	-0.833
278	-0.82
279	-0.829
279	-0.843
280	-0.846
280	-0.857
281	-0.852
281	-0.843
282	-0.849
282	-0.843
283	-0.837
283	-0.851
284	-0.863
284	-0.874
285	-0.853
285	-0.858
285	-0.849
286	-0.853
286	-0.87
287	-0.867
287	-0.865
288	-0.864
288	-0.846
289	-0.848
289	-0.855
290	-0.865
290	-0.853
291	-0.857
291	-0.854
292	-0.833
292	-0.83
292	-0.836
293	-0.824
293	-0.822
294	-0.819
294	-0.806
295	-0.79
295	-0.804
296	-0.817
296	-0.812
297	-0.801
297	-0.804
298	-0.8
298	-0.818
298	-0.82
299	-0.802
299	-0.794
300	-0.788
300	-0.771
301	-0.751
301	-0.754
302	-0.765
302	-0.75
303	-0.743
303	-0.73
304	-0.714
304	-0.719
305	-0.712
305	-0.722
305	-0.733
306	-0.718
306	-0.716
307	-0.707
307	-0.721
308	-0.725
308	-0.721
309	-0.723
309	-0.718
310	-0.716
310	-0.711
311	-0.699
311	-0.72
311	-0.707
312	-0.705
312	-0.692
313	-0.682
313	-0.684
314	-0.688
314	-0.685
315	-0.681
315	-0.675
316	-0.669
316	-0.658
317	-0.652
317	-0.649
318	-0.64
318	-0.638
318	-0.627
319	-0.615
319	-0.608
320	-0.606
320	-0.603
321	-0.599
321	-0.598
322	-0.593
322	-0.585
323	-0.586
323	-0.577
324	-0.576
324	-0.565
324	-0.555
325	-0.539
325	-0.524
326	-0.514
326	-0.49
327	-0.473
327	-0.451
328	-0.421
328	-0.398
329	-0.371
329	-0.345
330	-0.319
330	-0.286
330	-0.251
331	-0.217
331	-0.186
332	-0.155
332	-0.124
333	-0.096
333	-0.065
334	-0.038
334	-0.015
335	0.012
335	0.032
336	0.053
336	0.072
336	0.088
337	0.104
337	0.119
338	0.131
338	0.14
339	0.153
339	0.163
340	0.17
340	0.178
341	0.184
341	0.189
342	0.195
342	0.2
342	0.205
343	0.208
343	0.213
344	0.215
344	0.218
345	0.22
345	0.223
346	0.224
346	0.226
347	0.227
347	0.229
348	0.23
348	0.232
348	0.232
349	0.233
349	0.234
350	0.235
350	0.235
351	0.236
351	0.236
352	0.236
352	0.236
353	0.237
353	0.237
354	0.237
354	0.237
354	0.237
355	0.237
355	0.236
356	0.237
356	0.237
357	0.238
357	0.238
358	0.238
358	0.238
359	0.238
359	0.238
360	0.238
360	0.238
360	0.238
361	0.238
361	0.238
362	0.238
362	0.238
363	0.238
363	0.238
364	0.238
364	0.238
365	0.238
365	0.238
366	0.238
366	0.238
366	0.238
367	0.238
367	0.238
368	0.238
368	0.238
369	0.238
369	0.238
370	0.238
370	0.238
371	0.237
371	0.237
372	0.237
372	0.237
372	0.237
373	0.237
373	0.237
374	0.237
374	0.237
375	0.237
375	0.237
376	0.237
376	0.237
377	0.237
377	0.237
378	0.236
378	0.236
378	0.236
379	0.236
379	0.236
380	0.236
380	0.236
381	0.236
381	0.235
382	0.235
382	0.235
383	0.235
383	0.235
383	0.235
384	0.235
384	0.235
385	0.235
385	0.235
386	0.235
386	0.235
387	0.235
387	0.235
388	0.234
388	0.234
389	0.234
389	0.234
389	0.234
390	0.234
390	0.234
391	0.234
391	0.234
392	0.234
392	0.233
393	0.234
393	0.233
394	0.234
394	0.233
394	0.233
395	0.233
395	0.233
396	0.233
396	0.233
397	0.232
397	0.232
398	0.232
398	0.232
399	0.231
399	0.231
400	0.231
400	0.231
400	0.231
401	0.231
401	0.23
402	0.23
402	0.23
403	0.23
403	0.23
404	0.23
404	0.23
405	0.229
405	0.229
405	0.229
406	0.229
406	0.229
407	0.229
407	0.229
408	0.229
408	0.229
409	0.229
409	0.228
410	0.228
410	0.228
411	0.228
411	0.228
411	0.228
412	0.228
412	0.228
413	0.227
413	0.227
414	0.227
414	0.227
415	0.227
415	0.226
416	0.226
416	0.226
416	0.226
417	0.226
417	0.226
418	0.226
418	0.226
419	0.226
419	0.226
420	0.226
420	0.226
421	0.226
421	0.226
421	0.225
422	0.226
422	0.226
423	0.225
423	0.225
424	0.225
424	0.225
425	0.225
425	0.225
426	0.225
426	0.225
427	0.225
427	0.225
427	0.225
428	0.225
428	0.225
429	0.225
429	0.224
430	0.224
430	0.224
431	0.223
431	0.223
432	0.223
432	0.223
432	0.222
433	0.222
433	0.222
434	0.222
434	0.222
435	0.223
435	0.223
436	0.223
436	0.223
437	0.223
437	0.222
437	0.222
438	0.222
438	0.222
439	0.222
439	0.222
440	0.222
440	0.222
441	0.222
441	0.222
442	0.221
442	0.221
442	0.221
443	0.221
443	0.221
444	0.221
444	0.221
445	0.221
445	0.221
446	0.221
446	0.221
447	0.221
447	0.221
447	0.221
448	0.221
448	0.221
449	0.221
449	0.221
450	0.221
450	0.221
451	0.221
451	0.221
452	0.221
452	0.221
452	0.221
453	0.221
453	0.22
454	0.22
454	0.22
455	0.22
455	0.22
456	0.22
456	0.22
457	0.22
457	0.22
458	0.22
458	0.22
458	0.22
459	0.22
459	0.219
460	0.219
460	0.219
461	0.219
461	0.219
462	0.219
462	0.22
463	0.22
463	0.221
463	0.221
464	0.222
464	0.222
465	0.222
465	0.222
466	0.223
466	0.223
467	0.223
467	0.222
467	0.222
468	0.221
468	0.221
469	0.221
469	0.222
470	0.222
470	0.222
471	0.222
471	0.222
472	0.222
472	0.222
472	0.222
473	0.223
473	0.223
474	0.223
474	0.224
475	0.224
475	0.224
476	0.225
476	0.225
477	0.225
477	0.226
477	0.226
478	0.226
478	0.226
479	0.226
479	0.227
480	0.227
480	0.227
481	0.227
481	0.227
482	0.228
482	0.228
482	0.229
483	0.23
483	0.231
484	0.232
484	0.232
485	0.233
485	0.233
486	0.233
486	0.234
487	0.235
487	0.235
487	0.235
488	0.235
488	0.235
489	0.236
489	0.237
490	0.237
490	0.238
491	0.239
491	0.24
492	0.241
492	0.242
492	0.242
493	0.243
493	0.244
494	0.245
494	0.246
495	0.247
495	0.248
496	0.249
496	0.25
496	0.251
497	0.252
497	0.253
498	0.254
498	0.255
499	0.256
499	0.257
500	0.258
500	0.259
501	0.26
501	0.261
501	0.262
502	0.263
502	0.264
503	0.266
503	0.267
504	0.268
504	0.269
505	0.271
505	0.272
506	0.274
506	0.276
506	0.278
507	0.279
507	0.281
508	0.283
508	0.285
509	0.286
509	0.287
510	0.289
510	0.29
511	0.291
511	0.292
511	0.293
512	0.294
512	0.295
513	0.296
513	0.297
514	0.298
514	0.3
515	0.301
515	0.302
515	0.302
516	0.304
516	0.305
517	0.306
517	0.307
518	0.308
518	0.309
519	0.31
519	0.31
520	0.312
520	0.313
520	0.314
521	0.315
521	0.316
522	0.317
522	0.318
523	0.319
523	0.32
524	0.32
524	0.321
524	0.322
525	0.323
525	0.323
526	0.324
526	0.326
527	0.326
527	0.327
528	0.327
528	0.328
529	0.328
529	0.329
529	0.329
530	0.33
530	0.33
531	0.33
531	0.33
532	0.33
532	0.331
533	0.331
533	0.331
533	0.331
534	0.331
534	0.331
535	0.331
535	0.331
536	0.331
536	0.331
537	0.331
537	0.331
538	0.331
538	0.331
538	0.331
539	0.331
539	0.331
540	0.33
540	0.329
541	0.329
541	0.328
542	0.328
542	0.327
542	0.327
543	0.326
543	0.326
544	0.325
544	0.325
545	0.325
545	0.325
546	0.324
546	0.323
547	0.323
547	0.322
547	0.321
548	0.321
548	0.32
549	0.319
549	0.319
550	0.318
550	0.317
551	0.316
551	0.316
551	0.315
552	0.314
552	0.313
553	0.313
553	0.312
554	0.311
554	0.309
555	0.308
555	0.307
556	0.306
556	0.305
556	0.304
557	0.304
557	0.303
558	0.302
558	0.301
559	0.3
559	0.3
560	0.299
560	0.298
560	0.298
561	0.297
561	0.297
562	0.296
562	0.296
563	0.295
563	0.294
564	0.294
564	0.294
564	0.294
565	0.294
565	0.294
566	0.293
566	0.293
567	0.292
567	0.292
568	0.291
568	0.29
568	0.29
569	0.289
569	0.288
570	0.287
570	0.285
571	0.284
571	0.283
572	0.282
572	0.281
573	0.28
573	0.279
573	0.277
574	0.277
574	0.276
575	0.276
575	0.278
576	0.277
576	0.276
577	0.275
577	0.275
577	0.275
578	0.275
578	0.276
579	0.277
579	0.277
580	0.275
580	0.272
581	0.27
581	0.27
581	0.27
582	0.27
582	0.27
583	0.271
583	0.27
584	0.268
584	0.266
585	0.267
585	0.268
585	0.269
586	0.269
586	0.268
587	0.266
587	0.265
588	0.264
588	0.263
589	0.263
589	0.263
590	0.263
590	0.262
590	0.263
591	0.263
591	0.262
592	0.262
592	0.261
593	0.261
593	0.261
594	0.26
594	0.259
594	0.259
595	0.259
595	0.258
596	0.257
596	0.259
597	0.261
597	0.26
598	0.26
598	0.26
598	0.26
599	0.26
599	0.26
600	0.26
600	0.26
601	0.26
601	0.26
602	0.259
602	0.259
602	0.259
603	0.259
603	0.26
604	0.26
604	0.26
605	0.26
605	0.261
606	0.26
606	0.259
606	0.258
607	0.258
607	0.258
608	0.257
608	0.256
609	0.255
609	0.255
610	0.254
610	0.253
610	0.254
611	0.254
611	0.254
612	0.254
612	0.254
613	0.254
613	0.254
614	0.253
614	0.252
614	0.252
615	0.251
615	0.25
616	0.25
616	0.249
617	0.249
617	0.248
618	0.248
618	0.248
618	0.247
619	0.247
619	0.248
620	0.248
620	0.247
621	0.246
621	0.245
622	0.243
622	0.242
622	0.24
623	0.239
623	0.239
624	0.239
624	0.238
625	0.237
625	0.237
626	0.236
626	0.235
626	0.235
627	0.235
627	0.234
628	0.234
628	0.234
629	0.232
629	0.231
630	0.229
630	0.228
630	0.227
631	0.226
631	0.224
632	0.222
632	0.221
633	0.219
633	0.216
634	0.215
634	0.213
634	0.211
635	0.209
635	0.207
636	0.204
636	0.202
637	0.199
637	0.196
638	0.193
638	0.19
638	0.187
639	0.183
639	0.179
640	0.175
640	0.171
641	0.167
641	0.163
642	0.159
642	0.156
642	0.151
643	0.146
643	0.141
644	0.136
644	0.13
645	0.125
645	0.119
646	0.113
646	0.106
646	0.099
647	0.091
647	0.084
648	0.076
648	0.068
649	0.06
649	0.052
650	0.045
650	0.037
650	0.028
651	0.017
651	0.005
652	-0.01
652	-0.026
653	-0.04
653	-0.052
653	-0.049
654	-0.028
654	-0.021
655	-0.027
655	-0.034
656	-0.041
656	-0.049
657	-0.056
657	-0.061
657	-0.068
658	-0.076
658	-0.11
659	-0.203
659	-0.302
660	-0.347
660	-0.376
661	-0.405
661	-0.437
661	-0.469
662	-0.5
662	-0.533
663	-0.569
663	-0.61
664	-0.649
664	-0.692
665	-0.74
665	-0.788
665	-0.836
666	-0.888
666	-0.946
667	-1.002
667	-1.068
668	-1.129
668	-1.199
669	-1.268
669	-1.341
669	-1.419
670	-1.5
670	-1.603
671	-1.74
671	-2.009
672	-2.278
672	-2.45
672	-2.575
673	-2.675
673	-2.757
674	-2.835
674	-2.861
675	-2.878
675	-2.884
676	-2.883
676	-2.851
676	-2.789
677	-2.714
677	-2.628
678	-2.504
678	-2.318
679	-1.975
679	-1.741
680	-1.62
680	-1.534
680	-1.459
681	-1.404
681	-1.345
682	-1.298
682	-1.251
683	-1.204
683	-1.175
684	-1.143
684	-1.123
684	-1.097
685	-1.074
685	-1.06
686	-1.035
686	-1.019
687	-1.007
687	-0.995
687	-0.994
688	-0.976
688	-0.966
689	-0.967
689	-0.962
690	-0.947
690	-0.936
691	-0.933
691	-0.936
691	-0.934
692	-0.933
692	-0.928
693	-0.936
693	-0.944
694	-0.922
694	-0.921
695	-0.923
695	-0.914
695	-0.92
696	-0.925
696	-0.918
697	-0.911
697	-0.907
698	-0.9
698	-0.893
698	-0.907
699	-0.905
699	-0.907
700	-0.927
700	-0.921
701	-0.908
701	-0.902
702	-0.903
702	-0.9
702	-0.9
703	-0.891
703	-0.878
704	-0.885
704	-0.888
705	-0.877
705	-0.876
705	-0.87
706	-0.863
706	-0.857
707	-0.868
707	-0.872
708	-0.869
708	-0.867
709	-0.868
709	-0.865
709	-0.862
710	-0.87
710	-0.873
711	-0.872
711	-0.874
712	-0.865
712	-0.862
713	-0.867
713	-0.867
713	-0.848
714	-0.849
714	-0.853
715	-0.844
715	-0.851
716	-0.868
716	-0.875
716	-0.875
717	-0.88
717	-0.871
718	-0.866
718	-0.866
719	-0.862
719	-0.853
720	-0.849
720	-0.845
720	-0.84
721	-0.831
721	-0.835
722	-0.832
722	-0.83
723	-0.848
723	-0.862
723	-0.87
724	-0.869
724	-0.872
725	-0.865
725	-0.869
726	-0.873
726	-0.864
727	-0.867
727	-0.875
727	-0.863
728	-0.849
728	-0.845
729	-0.847
729	-0.85
730	-0.855
730	-0.844
730	-0.849
731	-0.852
731	-0.851
732	-0.852
732	-0.847
733	-0.861
733	-0.867
734	-0.876
734	-0.866
734	-0.85
735	-0.842
735	-0.837
736	-0.836
736	-0.83
737	-0.829
737	-0.819
737	-0.812
738	-0.797
738	-0.784
739	-0.787
739	-0.789
740	-0.802
740	-0.804
741	-0.814
741	-0.825
741	-0.835
742	-0.842
742	-0.858
743	-0.864
743	-0.867
744	-0.869
744	-0.876
744	-0.87
745	-0.876
745	-0.864
746	-0.859
746	-0.849
747	-0.852
747	-0.841
748	-0.843
748	-0.848
748	-0.851
749	-0.843
749	-0.849
750	-0.841
750	-0.842
751	-0.841
751	-0.839
751	-0.85
752	-0.851
752	-0.854
753	-0.856
753	-0.848
754	-0.869
754	-0.871
754	-0.878
755	-0.878
755	-0.87
756	-0.874
756	-0.859
757	-0.852
757	-0.841
758	-0.841
758	-0.84
758	-0.835
759	-0.84
759	-0.841
760	-0.841
760	-0.842
761	-0.837
761	-0.841
761	-0.843
762	-0.848
762	-0.849
763	-0.851
763	-0.853
764	-0.853
764	-0.847
764	-0.853
765	-0.852
765	-0.858
766	-0.863
766	-0.864
767	-0.879
767	-0.874
768	-0.871
768	-0.865
768	-0.859
769	-0.863
769	-0.87
770	-0.881
770	-0.885
771	-0.88
771	-0.878
771	-0.884
772	-0.888
772	-0.91
773	-0.91
773	-0.911
774	-0.908
774	-0.892
775	-0.878
775	-0.878
775	-0.883
776	-0.894
776	-0.891
777	-0.891
777	-0.873
778	-0.882
778	-0.89
778	-0.891
779	-0.899
779	-0.917
780	-0.915
780	-0.923
781	-0.913
781	-0.903
781	-0.917
782	-0.938
782	-0.939
783	-0.939
783	-0.946
784	-0.948
784	-0.938
784	-0.956
785	-0.949
785	-0.961
786	-0.963
786	-0.955
787	-0.946
787	-0.954
788	-0.947
788	-0.943
788	-0.945
789	-0.945
789	-0.934
790	-0.934
790	-0.918
791	-0.926
791	-0.921
791	-0.915
792	-0.909
792	-0.913
793	-0.914
793	-0.901
794	-0.895
794	-0.889
794	-0.894
795	-0.915
795	-0.9
796	-0.907
796	-0.904
797	-0.895
797	-0.886
797	-0.88
798	-0.9
798	-0.905
799	-0.904
799	-0.892
800	-0.887
800	-0.895
801	-0.892
801	-0.894
801	-0.892
802	-0.891
802	-0.89
803	-0.885
803	-0.875
804	-0.88
804	-0.887
804	-0.869
805	-0.85
805	-0.842
806	-0.843
806	-0.839
807	-0.838
807	-0.839
807	-0.821
808	-0.816
808	-0.809
809	-0.805
809	-0.806
810	-0.809
810	-0.805
810	-0.801
811	-0.803
811	-0.798
812	-0.79
812	-0.792
813	-0.797
813	-0.796
813	-0.791
814	-0.791
814	-0.796
815	-0.787
815	-0.782
816	-0.781
816	-0.796
817	-0.807
817	-0.811
817	-0.82
818	-0.814
818	-0.811
819	-0.822
819	-0.819
820	-0.832
820	-0.832
820	-0.831
821	-0.826
821	-0.822
822	-0.822
822	-0.81
823	-0.823
823	-0.822
823	-0.816
824	-0.814
824	-0.824
825	-0.823
825	-0.82
826	-0.815
826	-0.811
826	-0.811
827	-0.81
827	-0.799
828	-0.799
828	-0.794
829	-0.788
829	-0.773
829	-0.77
830	-0.768
830	-0.754
831	-0.748
831	-0.738
832	-0.728
832	-0.724
832	-0.716
833	-0.713
833	-0.719
834	-0.714
834	-0.708
835	-0.698
835	-0.696
835	-0.69
836	-0.684
836	-0.679
837	-0.668
837	-0.657
838	-0.646
838	-0.628
839	-0.621
839	-0.609
839	-0.6
840	-0.6
840	-0.59
841	-0.58
841	-0.572
842	-0.563
842	-0.551
842	-0.549
843	-0.545
843	-0.541
844	-0.538
844	-0.525
845	-0.511
845	-0.5
845	-0.487
846	-0.476
846	-0.465
847	-0.453
847	-0.439
848	-0.422
848	-0.403
848	-0.387
849	-0.375
849	-0.361
850	-0.35
850	-0.34
851	-0.325
851	-0.308
851	-0.298
852	-0.281
852	-0.267
853	-0.258
853	-0.247
854	-0.234
854	-0.222
854	-0.209
855	-0.196
855	-0.187
856	-0.179
856	-0.168
857	-0.16
857	-0.151
857	-0.136
858	-0.123
858	-0.114
859	-0.101
859	-0.087
860	-0.075
860	-0.058
860	-0.046
861	-0.034
861	-0.023
862	-0.014
862	-0.003
863	0.007
863	0.018
863	0.025
864	0.032
864	0.041
865	0.049
865	0.056
866	0.063
866	0.07
866	0.077
867	0.083
867	0.09
868	0.095
868	0.101
869	0.107
869	0.111
869	0.115
870	0.118
870	0.12
871	0.122
871	0.124
872	0.125
872	0.126
872	0.127
873	0.127
873	0.126
874	0.125
874	0.124
875	0.123
875	0.122
875	0.121
876	0.12
876	0.12
877	0.118
877	0.117
878	0.116
878	0.115
878	0.115
879	0.114
879	0.114
880	0.114
880	0.114
881	0.113
881	0.112
881	0.112
882	0.111
882	0.109
883	0.108
883	0.107
884	0.106
884	0.106
884	0.105
885	0.105
885	0.105
886	0.105
886	0.104
887	0.104
887	0.103
887	0.103
888	0.102
888	0.101
889	0.1
889	0.099
890	0.098
890	0.097
890	0.097
891	0.097
891	0.097
892	0.097
892	0.097
893	0.097
893	0.098
893	0.097
894	0.097
894	0.097
895	0.096
895	0.096
895	0.096
896	0.096
896	0.095
897	0.095
897	0.095
898	0.094
898	0.094
898	0.094
899	0.094
899	0.095
900	0.095
900	0.094
901	0.094
901	0.094
901	0.093
902	0.094
902	0.094
903	0.094
903	0.094
904	0.094
904	0.094
904	0.094
905	0.094
905	0.094
906	0.095
906	0.095
907	0.095
907	0.095
907	0.095
908	0.095
908	0.095
909	0.096
909	0.096
910	0.097
910	0.097
910	0.098
911	0.098
911	0.099
912	0.1
912	0.101
913	0.101
913	0.102
913	0.102
914	0.102
914	0.102
915	0.102
915	0.102
916	0.102
916	0.101
916	0.101
917	0.101
917	0.101
918	0.101
918	0.101
918	0.101
919	0.1
919	0.101
920	0.101
920	0.101
921	0.102
921	0.103
921	0.103
922	0.103
922	0.104
923	0.104
923	0.104
924	0.104
924	0.104
924	0.103
925	0.102
925	0.101
926	0.1
926	0.099
927	0.099
927	0.098
927	0.098
928	0.097
928	0.098
929	0.099
929	0.1
930	0.1
930	0.101
930	0.102
931	0.103
931	0.104
932	0.105
932	0.105
933	0.106
933	0.106
933	0.105
934	0.104
934	0.104
935	0.103
935	0.102
935	0.101
936	0.099
936	0.098
937	0.096
937	0.095
938	0.094
938	0.093
938	0.092
939	0.091
939	0.09
940	0.089
940	0.088
941	0.087
941	0.087
941	0.087
942	0.086
942	0.085
943	0.085
943	0.084
944	0.083
944	0.082
944	0.081
945	0.08
945	0.08
946	0.078
946	0.077
946	0.076
947	0.076
947	0.075
948	0.076
948	0.076
949	0.076
949	0.077
949	0.078
950	0.079
950	0.081
951	0.082
951	0.084
952	0.085
952	0.086
952	0.087
953	0.088
953	0.089
954	0.089
954	0.089
955	0.089
955	0.089
955	0.089
956	0.088
956	0.088
957	0.086
957	0.085
957	0.084
958	0.084
958	0.083
959	0.082
959	0.081
960	0.081
960	0.08
960	0.08
961	0.08
961	0.08
962	0.08
962	0.081
963	0.081
963	0.081
963	0.082
964	0.082
964	0.083
965	0.083
965	0.083
966	0.083
966	0.084
966	0.084
967	0.085
967	0.084
968	0.084
968	0.084
968	0.084
969	0.084
969	0.083
970	0.083
970	0.083
971	0.082
971	0.082
971	0.081
972	0.081
972	0.081
973	0.081
973	0.081
974	0.081
974	0.081
974	0.081
975	0.081
975	0.081
976	0.081
976	0.082
976	0.082
977	0.082
977	0.082
978	0.081
978	0.081
979	0.081
979	0.08
979	0.08
980	0.08
980	0.08
981	0.079
981	0.079
982	0.079
982	0.079
982	0.079
983	0.079
983	0.079
984	0.079
984	0.079
984	0.078
985	0.078
985	0.078
986	0.077
986	0.076
987	0.075
987	0.074
987	0.073
988	0.072
988	0.072
989	0.071
989	0.07
990	0.069
990	0.068
990	0.068
991	0.067
991	0.067
992	0.066
992	0.065
992	0.064
993	0.064
993	0.063
994	0.062
994	0.06
995	0.059
995	0.058
995	0.057
996	0.055
996	0.054
997	0.052
997	0.051
997	0.05
998	0.05
998	0.05
999	0.05
999	0.05
1000	0.05
1000	0.05
1000	0.051
1001	0.052
1001	0.053
1002	0.053
1002	0.054
1003	0.054
1003	0.054
1003	0.054
1004	0.055
1004	0.055
1005	0.055
1005	0.055
1005	0.054
1006	0.054
1006	0.053
1007	0.053
1007	0.052
1008	0.052
1008	0.051
1008	0.051
1009	0.051
1009	0.051
1010	0.051
1010	0.051
1010	0.051
1011	0.052
1011	0.052
1012	0.053
1012	0.054
1013	0.055
1013	0.055
1013	0.055
1014	0.055
1014	0.055
1015	0.056
1015	0.056
1016	0.055
1016	0.055
1016	0.055
1017	0.054
1017	0.054
1018	0.054
1018	0.053
1018	0.053
1019	0.053
1019	0.053
1020	0.052
1020	0.051
1021	0.051
1021	0.051
1021	0.05
1022	0.05
1022	0.05
1023	0.05
1023	0.05
1023	0.05
1024	0.05
1024	0.05
1025	0.05
1025	0.05
1026	0.05
1026	0.051
1026	0.05
1027	0.05
1027	0.051
1028	0.051
1028	0.052
1028	0.052
1029	0.052
1029	0.052
1030	0.052
1030	0.052
1031	0.052
1031	0.053
1031	0.053
1032	0.053
1032	0.052
1033	0.052
1033	0.052
1033	0.051
1034	0.051
1034	0.05
1035	0.05
1035	0.05
1036	0.049
1036	0.048
1036	0.048
1037	0.048
1037	0.048
1038	0.048
1038	0.048
1039	0.048
1039	0.049
1039	0.049
1040	0.049
1040	0.05
1041	0.05
1041	0.049
1041	0.049
1042	0.048
1042	0.047
1043	0.046
1043	0.045
1044	0.045
1044	0.043
1044	0.043
1045	0.042
1045	0.041
1046	0.041
1046	0.04
1046	0.04
1047	0.04
1047	0.04
1048	0.04
1048	0.04
1049	0.041
1049	0.04
1049	0.041
1050	0.04
1050	0.04
1051	0.039
1051	0.039
1051	0.039
1052	0.038
1052	0.038
1053	0.037
1053	0.037
1053	0.037
1054	0.036
1054	0.036
1055	0.036
1055	0.036
1056	0.036
1056	0.036
1056	0.035
1057	0.035
1057	0.034
1058	0.034
1058	0.033
1058	0.033
1059	0.033
1059	0.032
1060	0.032
1060	0.031
1061	0.03
1061	0.03
1061	0.03
1062	0.03
1062	0.03
1063	0.03
1063	0.029
1063	0.029
1064	0.029
1064	0.029
1065	0.029
1065	0.029
1066	0.029
1066	0.029
1066	0.029
1067	0.028
1067	0.027
1068	0.026
1068	0.025
1068	0.024
1069	0.023
1069	0.022
1070	0.021
1070	0.02
1071	0.019
1071	0.019
1071	0.018
1072	0.018
1072	0.017
1073	0.017
1073	0.017
1073	0.017
1074	0.017
1074	0.016
1075	0.016
1075	0.015
1076	0.014
1076	0.014
1076	0.013
1077	0.012
1077	0.011
1078	0.011
1078	0.01
1078	0.009
1079	0.009
1079	0.008
1080	0.007
1080	0.007
1080	0.006
1081	0.005
1081	0.005
1082	0.005
1082	0.004
1083	0.003
1083	0.002
1083	0.001
1084	-0
1084	-0.001
1085	-0.002
1085	-0.003
1085	-0.004
1086	-0.005
1086	-0.007
1087	-0.008
1087	-0.009
1088	-0.011
1088	-0.012
1088	-0.013
1089	-0.014
1089	-0.015
1090	-0.016
1090	-0.018
1090	-0.02
1091	-0.021
1091	-0.021
1092	-0.022
1092	-0.023
1092	-0.024
1093	-0.026
1093	-0.026
1094	-0.027
1094	-0.027
1095	-0.029
1095	-0.03
1095	-0.03
1096	-0.031
1096	-0.034
1097	-0.034
1097	-0.036
1097	-0.038
1098	-0.04
1098	-0.043
1099	-0.045
1099	-0.046
1100	-0.049
1100	-0.053
1100	-0.057
1101	-0.06
1101	-0.064
1102	-0.066
1102	-0.07
1102	-0.072
1103	-0.076
1103	-0.08
1104	-0.083
1104	-0.086
1104	-0.087
1105	-0.089
1105	-0.092
1106	-0.097
1106	-0.1
1107	-0.106
1107	-0.11
1107	-0.115
1108	-0.116
1108	-0.118
1109	-0.122
1109	-0.127
1109	-0.133
1110	-0.135
1110	-0.14
1111	-0.152
1111	-0.144
