Data from 3.4A_17C_Absorbance__880__02792.txt Node

Date: Tue Jun 20 16:56:31 CEST 2023
User: Marek
Spectrometer: MAYP115816
Trigger mode: 0
Integration Time (sec): 2.200000E-1
Scans to average: 10
Electric dark correction enabled: true
Nonlinearity correction enabled: true
Boxcar width: 5
XAxis mode: Wavelengths
Number of Pixels in Spectrum: 2068
>>>>>Begin Spectral Data<<<<<
199	-0.8
199	-0.788
200	-0.751
200	-0.699
201	-0.673
201	-0.663
202	-0.647
202	-0.641
203	-0.64
203	-0.634
204	-0.612
204	-0.596
205	-0.571
205	-0.562
205	-0.569
206	-0.57
206	-0.566
207	-0.558
207	-0.563
208	-0.567
208	-0.57
209	-0.572
209	-0.579
210	-0.595
210	-0.601
211	-0.595
211	-0.599
212	-0.61
212	-0.618
213	-0.614
213	-0.609
213	-0.606
214	-0.614
214	-0.618
215	-0.614
215	-0.619
216	-0.629
216	-0.634
217	-0.629
217	-0.628
218	-0.637
218	-0.638
219	-0.645
219	-0.647
220	-0.648
220	-0.656
221	-0.655
221	-0.656
221	-0.648
222	-0.647
222	-0.647
223	-0.643
223	-0.646
224	-0.646
224	-0.643
225	-0.642
225	-0.644
226	-0.645
226	-0.643
227	-0.652
227	-0.663
228	-0.667
228	-0.676
229	-0.68
229	-0.679
229	-0.679
230	-0.674
230	-0.671
231	-0.667
231	-0.662
232	-0.664
232	-0.659
233	-0.659
233	-0.646
234	-0.645
234	-0.64
235	-0.644
235	-0.655
236	-0.662
236	-0.664
236	-0.663
237	-0.66
237	-0.66
238	-0.661
238	-0.662
239	-0.665
239	-0.675
240	-0.668
240	-0.664
241	-0.66
241	-0.664
242	-0.67
242	-0.679
243	-0.682
243	-0.682
243	-0.688
244	-0.684
244	-0.684
245	-0.686
245	-0.692
246	-0.702
246	-0.703
247	-0.709
247	-0.695
248	-0.693
248	-0.696
249	-0.701
249	-0.704
250	-0.703
250	-0.712
250	-0.708
251	-0.708
251	-0.706
252	-0.707
252	-0.719
253	-0.714
253	-0.726
254	-0.732
254	-0.731
255	-0.742
255	-0.74
256	-0.742
256	-0.755
257	-0.765
257	-0.762
258	-0.764
258	-0.771
258	-0.768
259	-0.76
259	-0.779
260	-0.778
260	-0.769
261	-0.78
261	-0.766
262	-0.769
262	-0.767
263	-0.757
263	-0.763
264	-0.772
264	-0.774
265	-0.765
265	-0.765
265	-0.775
266	-0.766
266	-0.766
267	-0.767
267	-0.785
268	-0.793
268	-0.787
269	-0.78
269	-0.795
270	-0.8
270	-0.802
271	-0.815
271	-0.824
272	-0.825
272	-0.828
272	-0.823
273	-0.833
273	-0.847
274	-0.841
274	-0.834
275	-0.831
275	-0.817
276	-0.822
276	-0.828
277	-0.83
277	-0.827
278	-0.831
278	-0.831
278	-0.818
279	-0.825
279	-0.839
280	-0.842
280	-0.853
281	-0.845
281	-0.838
282	-0.843
282	-0.836
283	-0.828
283	-0.844
284	-0.858
284	-0.869
285	-0.85
285	-0.856
285	-0.85
286	-0.857
286	-0.872
287	-0.869
287	-0.87
288	-0.869
288	-0.85
289	-0.848
289	-0.857
290	-0.865
290	-0.853
291	-0.854
291	-0.851
292	-0.832
292	-0.83
292	-0.835
293	-0.823
293	-0.82
294	-0.819
294	-0.804
295	-0.788
295	-0.799
296	-0.813
296	-0.805
297	-0.794
297	-0.796
298	-0.792
298	-0.81
298	-0.812
299	-0.794
299	-0.787
300	-0.783
300	-0.763
301	-0.745
301	-0.751
302	-0.763
302	-0.75
303	-0.743
303	-0.73
304	-0.715
304	-0.718
305	-0.711
305	-0.718
305	-0.734
306	-0.719
306	-0.716
307	-0.707
307	-0.718
308	-0.72
308	-0.715
309	-0.716
309	-0.711
310	-0.711
310	-0.706
311	-0.693
311	-0.711
311	-0.697
312	-0.695
312	-0.682
313	-0.673
313	-0.677
314	-0.682
314	-0.679
315	-0.676
315	-0.67
316	-0.664
316	-0.655
317	-0.648
317	-0.645
318	-0.639
318	-0.639
318	-0.627
319	-0.617
319	-0.61
320	-0.607
320	-0.604
321	-0.598
321	-0.597
322	-0.591
322	-0.582
323	-0.582
323	-0.57
324	-0.568
324	-0.557
324	-0.545
325	-0.531
325	-0.515
326	-0.507
326	-0.483
327	-0.469
327	-0.449
328	-0.418
328	-0.396
329	-0.368
329	-0.341
330	-0.316
330	-0.281
330	-0.247
331	-0.212
331	-0.181
332	-0.149
332	-0.118
333	-0.09
333	-0.059
334	-0.032
334	-0.009
335	0.015
335	0.035
336	0.055
336	0.075
336	0.089
337	0.105
337	0.12
338	0.132
338	0.141
339	0.153
339	0.163
340	0.171
340	0.178
341	0.184
341	0.19
342	0.196
342	0.202
342	0.206
343	0.21
343	0.215
344	0.217
344	0.22
345	0.222
345	0.224
346	0.226
346	0.228
347	0.229
347	0.23
348	0.231
348	0.232
348	0.233
349	0.233
349	0.234
350	0.235
350	0.235
351	0.236
351	0.236
352	0.236
352	0.236
353	0.236
353	0.236
354	0.237
354	0.237
354	0.237
355	0.237
355	0.237
356	0.237
356	0.237
357	0.237
357	0.237
358	0.237
358	0.237
359	0.237
359	0.237
360	0.238
360	0.238
360	0.238
361	0.238
361	0.237
362	0.237
362	0.237
363	0.238
363	0.238
364	0.237
364	0.237
365	0.237
365	0.237
366	0.237
366	0.238
366	0.238
367	0.238
367	0.238
368	0.238
368	0.237
369	0.237
369	0.237
370	0.237
370	0.237
371	0.237
371	0.237
372	0.237
372	0.236
372	0.236
373	0.237
373	0.237
374	0.237
374	0.237
375	0.237
375	0.237
376	0.237
376	0.236
377	0.237
377	0.236
378	0.236
378	0.236
378	0.236
379	0.236
379	0.235
380	0.235
380	0.236
381	0.236
381	0.235
382	0.235
382	0.235
383	0.235
383	0.235
383	0.235
384	0.235
384	0.235
385	0.235
385	0.234
386	0.234
386	0.234
387	0.234
387	0.234
388	0.234
388	0.234
389	0.234
389	0.234
389	0.234
390	0.234
390	0.234
391	0.234
391	0.234
392	0.234
392	0.233
393	0.233
393	0.233
394	0.233
394	0.233
394	0.233
395	0.233
395	0.233
396	0.232
396	0.232
397	0.232
397	0.232
398	0.232
398	0.232
399	0.231
399	0.231
400	0.231
400	0.231
400	0.231
401	0.23
401	0.23
402	0.23
402	0.23
403	0.23
403	0.23
404	0.23
404	0.229
405	0.229
405	0.229
405	0.229
406	0.229
406	0.229
407	0.229
407	0.229
408	0.228
408	0.228
409	0.228
409	0.228
410	0.228
410	0.228
411	0.228
411	0.228
411	0.228
412	0.228
412	0.227
413	0.227
413	0.227
414	0.227
414	0.227
415	0.226
415	0.226
416	0.226
416	0.226
416	0.226
417	0.226
417	0.226
418	0.226
418	0.225
419	0.226
419	0.225
420	0.225
420	0.225
421	0.225
421	0.225
421	0.225
422	0.226
422	0.226
423	0.225
423	0.225
424	0.225
424	0.225
425	0.225
425	0.225
426	0.225
426	0.225
427	0.225
427	0.225
427	0.225
428	0.225
428	0.224
429	0.224
429	0.224
430	0.224
430	0.223
431	0.223
431	0.223
432	0.223
432	0.222
432	0.222
433	0.222
433	0.222
434	0.222
434	0.222
435	0.222
435	0.222
436	0.222
436	0.222
437	0.222
437	0.222
437	0.222
438	0.222
438	0.222
439	0.222
439	0.222
440	0.221
440	0.221
441	0.221
441	0.221
442	0.221
442	0.221
442	0.221
443	0.221
443	0.221
444	0.22
444	0.22
445	0.22
445	0.221
446	0.22
446	0.22
447	0.221
447	0.221
447	0.221
448	0.221
448	0.221
449	0.221
449	0.221
450	0.221
450	0.221
451	0.221
451	0.221
452	0.221
452	0.22
452	0.22
453	0.22
453	0.22
454	0.22
454	0.22
455	0.22
455	0.22
456	0.22
456	0.22
457	0.22
457	0.22
458	0.22
458	0.219
458	0.219
459	0.219
459	0.219
460	0.218
460	0.218
461	0.218
461	0.218
462	0.219
462	0.22
463	0.22
463	0.221
463	0.221
464	0.221
464	0.221
465	0.222
465	0.222
466	0.222
466	0.222
467	0.222
467	0.222
467	0.221
468	0.221
468	0.221
469	0.221
469	0.222
470	0.222
470	0.222
471	0.222
471	0.222
472	0.222
472	0.222
472	0.223
473	0.223
473	0.223
474	0.223
474	0.224
475	0.224
475	0.224
476	0.225
476	0.225
477	0.226
477	0.226
477	0.226
478	0.226
478	0.226
479	0.227
479	0.227
480	0.227
480	0.227
481	0.227
481	0.228
482	0.228
482	0.229
482	0.229
483	0.231
483	0.232
484	0.232
484	0.232
485	0.233
485	0.234
486	0.234
486	0.235
487	0.235
487	0.236
487	0.236
488	0.236
488	0.236
489	0.236
489	0.238
490	0.238
490	0.239
491	0.24
491	0.241
492	0.242
492	0.242
492	0.243
493	0.243
493	0.244
494	0.246
494	0.247
495	0.248
495	0.248
496	0.249
496	0.25
496	0.251
497	0.253
497	0.254
498	0.255
498	0.256
499	0.257
499	0.258
500	0.259
500	0.26
501	0.261
501	0.262
501	0.263
502	0.264
502	0.265
503	0.267
503	0.268
504	0.269
504	0.27
505	0.272
505	0.274
506	0.275
506	0.277
506	0.278
507	0.28
507	0.282
508	0.283
508	0.285
509	0.287
509	0.288
510	0.29
510	0.291
511	0.292
511	0.293
511	0.295
512	0.296
512	0.297
513	0.298
513	0.299
514	0.3
514	0.302
515	0.302
515	0.303
515	0.304
516	0.305
516	0.306
517	0.307
517	0.308
518	0.309
518	0.31
519	0.311
519	0.312
520	0.313
520	0.314
520	0.315
521	0.316
521	0.317
522	0.318
522	0.319
523	0.32
523	0.321
524	0.322
524	0.323
524	0.324
525	0.325
525	0.325
526	0.326
526	0.327
527	0.327
527	0.328
528	0.328
528	0.329
529	0.329
529	0.329
529	0.329
530	0.33
530	0.33
531	0.33
531	0.33
532	0.33
532	0.33
533	0.33
533	0.331
533	0.331
534	0.331
534	0.331
535	0.331
535	0.332
536	0.332
536	0.332
537	0.332
537	0.332
538	0.332
538	0.332
538	0.332
539	0.331
539	0.331
540	0.33
540	0.329
541	0.329
541	0.328
542	0.327
542	0.327
542	0.326
543	0.326
543	0.325
544	0.324
544	0.324
545	0.324
545	0.324
546	0.323
546	0.322
547	0.321
547	0.32
547	0.319
548	0.319
548	0.318
549	0.317
549	0.317
550	0.316
550	0.315
551	0.314
551	0.313
551	0.312
552	0.312
552	0.311
553	0.31
553	0.31
554	0.308
554	0.307
555	0.305
555	0.304
556	0.303
556	0.302
556	0.301
557	0.3
557	0.299
558	0.298
558	0.297
559	0.297
559	0.296
560	0.295
560	0.294
560	0.294
561	0.294
561	0.293
562	0.293
562	0.292
563	0.291
563	0.291
564	0.29
564	0.29
564	0.29
565	0.29
565	0.29
566	0.289
566	0.289
567	0.289
567	0.289
568	0.288
568	0.287
568	0.286
569	0.285
569	0.284
570	0.283
570	0.281
571	0.281
571	0.28
572	0.278
572	0.277
573	0.276
573	0.274
573	0.273
574	0.273
574	0.272
575	0.272
575	0.273
576	0.273
576	0.272
577	0.271
577	0.27
577	0.27
578	0.271
578	0.271
579	0.272
579	0.272
580	0.27
580	0.267
581	0.265
581	0.265
581	0.265
582	0.265
582	0.266
583	0.266
583	0.265
584	0.263
584	0.261
585	0.262
585	0.264
585	0.264
586	0.264
586	0.263
587	0.262
587	0.26
588	0.259
588	0.259
589	0.259
589	0.259
590	0.258
590	0.257
590	0.259
591	0.259
591	0.258
592	0.257
592	0.256
593	0.256
593	0.256
594	0.255
594	0.255
594	0.254
595	0.254
595	0.253
596	0.253
596	0.254
597	0.256
597	0.256
598	0.255
598	0.256
598	0.256
599	0.256
599	0.256
600	0.255
600	0.255
601	0.255
601	0.255
602	0.254
602	0.255
602	0.254
603	0.254
603	0.255
604	0.255
604	0.255
605	0.256
605	0.256
606	0.255
606	0.254
606	0.254
607	0.253
607	0.253
608	0.253
608	0.251
609	0.25
609	0.251
610	0.25
610	0.249
610	0.249
611	0.249
611	0.249
612	0.249
612	0.25
613	0.25
613	0.25
614	0.248
614	0.247
614	0.247
615	0.246
615	0.245
616	0.245
616	0.244
617	0.244
617	0.244
618	0.243
618	0.243
618	0.243
619	0.243
619	0.243
620	0.244
620	0.243
621	0.242
621	0.241
622	0.239
622	0.238
622	0.236
623	0.235
623	0.235
624	0.235
624	0.234
625	0.233
625	0.233
626	0.232
626	0.231
626	0.231
627	0.231
627	0.231
628	0.23
628	0.23
629	0.228
629	0.227
630	0.225
630	0.224
630	0.223
631	0.222
631	0.22
632	0.218
632	0.217
633	0.215
633	0.213
634	0.211
634	0.209
634	0.208
635	0.206
635	0.204
636	0.201
636	0.199
637	0.196
637	0.193
638	0.19
638	0.187
638	0.184
639	0.181
639	0.177
640	0.173
640	0.169
641	0.165
641	0.162
642	0.158
642	0.154
642	0.149
643	0.145
643	0.139
644	0.134
644	0.129
645	0.123
645	0.118
646	0.112
646	0.105
646	0.098
647	0.091
647	0.084
648	0.076
648	0.069
649	0.061
649	0.053
650	0.046
650	0.038
650	0.03
651	0.02
651	0.007
652	-0.008
652	-0.024
653	-0.038
653	-0.051
653	-0.047
654	-0.026
654	-0.021
655	-0.027
655	-0.034
656	-0.041
656	-0.049
657	-0.055
657	-0.061
657	-0.069
658	-0.077
658	-0.11
659	-0.204
659	-0.301
660	-0.344
660	-0.372
661	-0.402
661	-0.433
661	-0.466
662	-0.496
662	-0.527
663	-0.564
663	-0.605
664	-0.644
664	-0.687
665	-0.735
665	-0.785
665	-0.832
666	-0.885
666	-0.942
667	-0.998
667	-1.063
668	-1.124
668	-1.194
669	-1.262
669	-1.335
669	-1.413
670	-1.493
670	-1.597
671	-1.739
671	-2.031
672	-2.29
672	-2.458
672	-2.582
673	-2.68
673	-2.761
674	-2.839
674	-2.865
675	-2.883
675	-2.888
676	-2.887
676	-2.852
676	-2.789
677	-2.715
677	-2.629
678	-2.505
678	-2.32
679	-1.977
679	-1.736
680	-1.613
680	-1.529
680	-1.454
681	-1.399
681	-1.34
682	-1.294
682	-1.247
683	-1.2
683	-1.173
684	-1.14
684	-1.117
684	-1.091
685	-1.068
685	-1.055
686	-1.029
686	-1.015
687	-1.002
687	-0.989
687	-0.987
688	-0.971
688	-0.961
689	-0.963
689	-0.958
690	-0.943
690	-0.93
691	-0.927
691	-0.929
691	-0.927
692	-0.927
692	-0.923
693	-0.928
693	-0.938
694	-0.918
694	-0.918
695	-0.922
695	-0.916
695	-0.925
696	-0.93
696	-0.923
697	-0.915
697	-0.911
698	-0.907
698	-0.899
698	-0.911
699	-0.91
699	-0.908
700	-0.925
700	-0.917
701	-0.903
701	-0.898
702	-0.899
702	-0.896
702	-0.896
703	-0.888
703	-0.875
704	-0.883
704	-0.886
705	-0.875
705	-0.876
705	-0.87
706	-0.863
706	-0.86
707	-0.871
707	-0.874
708	-0.87
708	-0.869
709	-0.869
709	-0.865
709	-0.863
710	-0.871
710	-0.875
711	-0.873
711	-0.872
712	-0.863
712	-0.859
713	-0.865
713	-0.865
713	-0.847
714	-0.85
714	-0.85
715	-0.841
715	-0.849
716	-0.866
716	-0.875
716	-0.877
717	-0.884
717	-0.876
718	-0.869
718	-0.868
719	-0.862
719	-0.855
720	-0.85
720	-0.844
720	-0.838
721	-0.829
721	-0.832
722	-0.829
722	-0.825
723	-0.841
723	-0.855
723	-0.864
724	-0.863
724	-0.867
725	-0.862
725	-0.866
726	-0.87
726	-0.86
727	-0.862
727	-0.868
727	-0.858
728	-0.843
728	-0.84
729	-0.843
729	-0.846
730	-0.851
730	-0.841
730	-0.845
731	-0.849
731	-0.849
732	-0.85
732	-0.847
733	-0.863
733	-0.87
734	-0.879
734	-0.87
734	-0.852
735	-0.842
735	-0.837
736	-0.837
736	-0.832
737	-0.832
737	-0.822
737	-0.815
738	-0.799
738	-0.786
739	-0.787
739	-0.789
740	-0.804
740	-0.805
741	-0.813
741	-0.823
741	-0.833
742	-0.84
742	-0.855
743	-0.861
743	-0.863
744	-0.867
744	-0.873
744	-0.867
745	-0.874
745	-0.866
746	-0.861
746	-0.851
747	-0.853
747	-0.845
748	-0.848
748	-0.854
748	-0.855
749	-0.849
749	-0.854
750	-0.847
750	-0.846
751	-0.845
751	-0.843
751	-0.855
752	-0.857
752	-0.86
753	-0.863
753	-0.855
754	-0.873
754	-0.873
754	-0.88
755	-0.881
755	-0.874
756	-0.877
756	-0.861
757	-0.854
757	-0.843
758	-0.843
758	-0.843
758	-0.838
759	-0.843
759	-0.842
760	-0.841
760	-0.842
761	-0.836
761	-0.841
761	-0.841
762	-0.846
762	-0.846
763	-0.847
763	-0.852
764	-0.85
764	-0.847
764	-0.853
765	-0.852
765	-0.859
766	-0.861
766	-0.864
767	-0.88
767	-0.874
768	-0.873
768	-0.864
768	-0.862
769	-0.864
769	-0.87
770	-0.88
770	-0.885
771	-0.881
771	-0.88
771	-0.883
772	-0.888
772	-0.909
773	-0.911
773	-0.909
774	-0.908
774	-0.89
775	-0.877
775	-0.876
775	-0.88
776	-0.89
776	-0.886
777	-0.888
777	-0.87
778	-0.879
778	-0.888
778	-0.887
779	-0.898
779	-0.915
780	-0.912
780	-0.92
781	-0.91
781	-0.9
781	-0.912
782	-0.932
782	-0.935
783	-0.933
783	-0.941
784	-0.943
784	-0.936
784	-0.955
785	-0.948
785	-0.961
786	-0.965
786	-0.959
787	-0.947
787	-0.954
788	-0.947
788	-0.941
788	-0.942
789	-0.941
789	-0.93
790	-0.93
790	-0.914
791	-0.92
791	-0.916
791	-0.91
792	-0.903
792	-0.906
793	-0.908
793	-0.897
794	-0.89
794	-0.883
794	-0.89
795	-0.91
795	-0.896
796	-0.901
796	-0.9
797	-0.893
797	-0.884
797	-0.877
798	-0.897
798	-0.9
799	-0.9
799	-0.886
800	-0.881
800	-0.89
801	-0.889
801	-0.891
801	-0.888
802	-0.887
802	-0.887
803	-0.884
803	-0.876
804	-0.882
804	-0.889
804	-0.871
805	-0.852
805	-0.841
806	-0.841
806	-0.838
807	-0.838
807	-0.838
807	-0.819
808	-0.816
808	-0.807
809	-0.802
809	-0.805
810	-0.808
810	-0.804
810	-0.8
811	-0.804
811	-0.797
812	-0.789
812	-0.792
813	-0.794
813	-0.798
813	-0.793
814	-0.791
814	-0.798
815	-0.789
815	-0.785
816	-0.78
816	-0.798
817	-0.811
817	-0.814
817	-0.825
818	-0.818
818	-0.814
819	-0.826
819	-0.824
820	-0.836
820	-0.836
820	-0.833
821	-0.828
821	-0.823
822	-0.822
822	-0.807
823	-0.82
823	-0.819
823	-0.812
824	-0.812
824	-0.823
825	-0.821
825	-0.818
826	-0.814
826	-0.81
826	-0.81
827	-0.811
827	-0.799
828	-0.798
828	-0.794
829	-0.785
829	-0.768
829	-0.765
830	-0.764
830	-0.749
831	-0.741
831	-0.73
832	-0.722
832	-0.716
832	-0.71
833	-0.707
833	-0.711
834	-0.707
834	-0.7
835	-0.693
835	-0.692
835	-0.688
836	-0.684
836	-0.679
837	-0.669
837	-0.659
838	-0.647
838	-0.631
839	-0.624
839	-0.612
839	-0.602
840	-0.6
840	-0.59
841	-0.578
841	-0.572
842	-0.563
842	-0.55
842	-0.548
843	-0.544
843	-0.539
844	-0.535
844	-0.522
845	-0.508
845	-0.498
845	-0.487
846	-0.474
846	-0.463
847	-0.453
847	-0.44
848	-0.423
848	-0.406
848	-0.391
849	-0.378
849	-0.364
850	-0.353
850	-0.342
851	-0.328
851	-0.309
851	-0.299
852	-0.282
852	-0.268
853	-0.259
853	-0.247
854	-0.235
854	-0.224
854	-0.21
855	-0.197
855	-0.189
856	-0.181
856	-0.171
857	-0.162
857	-0.151
857	-0.137
858	-0.124
858	-0.116
859	-0.103
859	-0.089
860	-0.076
860	-0.058
860	-0.046
861	-0.034
861	-0.023
862	-0.014
862	-0.004
863	0.004
863	0.017
863	0.024
864	0.032
864	0.04
865	0.048
865	0.055
866	0.063
866	0.069
866	0.076
867	0.083
867	0.09
868	0.095
868	0.101
869	0.107
869	0.111
869	0.114
870	0.116
870	0.119
871	0.121
871	0.123
872	0.124
872	0.125
872	0.126
873	0.126
873	0.125
874	0.124
874	0.123
875	0.122
875	0.121
875	0.121
876	0.12
876	0.119
877	0.118
877	0.117
878	0.116
878	0.115
878	0.115
879	0.114
879	0.114
880	0.114
880	0.113
881	0.112
881	0.112
881	0.111
882	0.11
882	0.109
883	0.107
883	0.106
884	0.105
884	0.104
884	0.104
885	0.104
885	0.104
886	0.104
886	0.103
887	0.103
887	0.102
887	0.102
888	0.101
888	0.1
889	0.1
889	0.099
890	0.098
890	0.097
890	0.097
891	0.097
891	0.096
892	0.097
892	0.097
893	0.097
893	0.097
893	0.097
894	0.097
894	0.098
895	0.097
895	0.097
895	0.096
896	0.096
896	0.096
897	0.095
897	0.095
898	0.095
898	0.094
898	0.094
899	0.094
899	0.094
900	0.094
900	0.094
901	0.094
901	0.094
901	0.094
902	0.094
902	0.094
903	0.094
903	0.094
904	0.093
904	0.093
904	0.093
905	0.093
905	0.093
906	0.094
906	0.094
907	0.094
907	0.094
907	0.095
908	0.095
908	0.095
909	0.096
909	0.096
910	0.097
910	0.097
910	0.098
911	0.098
911	0.099
912	0.1
912	0.1
913	0.101
913	0.101
913	0.102
914	0.102
914	0.102
915	0.102
915	0.102
916	0.101
916	0.101
916	0.101
917	0.101
917	0.101
918	0.101
918	0.101
918	0.101
919	0.1
919	0.101
920	0.101
920	0.102
921	0.102
921	0.103
921	0.103
922	0.103
922	0.104
923	0.104
923	0.104
924	0.104
924	0.103
924	0.103
925	0.102
925	0.101
926	0.1
926	0.099
927	0.098
927	0.097
927	0.097
928	0.097
928	0.097
929	0.098
929	0.099
930	0.1
930	0.1
930	0.101
931	0.102
931	0.103
932	0.104
932	0.105
933	0.105
933	0.105
933	0.105
934	0.104
934	0.103
935	0.103
935	0.102
935	0.1
936	0.099
936	0.097
937	0.096
937	0.095
938	0.094
938	0.093
938	0.092
939	0.091
939	0.09
940	0.089
940	0.088
941	0.088
941	0.087
941	0.086
942	0.086
942	0.085
943	0.085
943	0.084
944	0.083
944	0.081
944	0.081
945	0.08
945	0.079
946	0.079
946	0.077
946	0.077
947	0.076
947	0.075
948	0.076
948	0.076
949	0.077
949	0.078
949	0.079
950	0.08
950	0.081
951	0.082
951	0.083
952	0.084
952	0.086
952	0.086
953	0.087
953	0.088
954	0.088
954	0.088
955	0.088
955	0.088
955	0.088
956	0.087
956	0.087
957	0.085
957	0.085
957	0.084
958	0.083
958	0.083
959	0.082
959	0.081
960	0.081
960	0.08
960	0.08
961	0.08
961	0.081
962	0.08
962	0.081
963	0.081
963	0.081
963	0.081
964	0.081
964	0.082
965	0.082
965	0.082
966	0.082
966	0.083
966	0.084
967	0.084
967	0.084
968	0.084
968	0.083
968	0.084
969	0.084
969	0.083
970	0.083
970	0.082
971	0.082
971	0.082
971	0.081
972	0.081
972	0.081
973	0.081
973	0.081
974	0.081
974	0.081
974	0.081
975	0.081
975	0.081
976	0.081
976	0.082
976	0.082
977	0.082
977	0.082
978	0.081
978	0.081
979	0.08
979	0.08
979	0.08
980	0.079
980	0.079
981	0.079
981	0.078
982	0.078
982	0.078
982	0.078
983	0.078
983	0.078
984	0.078
984	0.077
984	0.077
985	0.076
985	0.076
986	0.075
986	0.074
987	0.074
987	0.073
987	0.072
988	0.071
988	0.07
989	0.07
989	0.069
990	0.068
990	0.067
990	0.067
991	0.066
991	0.065
992	0.065
992	0.064
992	0.063
993	0.063
993	0.062
994	0.061
994	0.06
995	0.059
995	0.057
995	0.056
996	0.055
996	0.053
997	0.052
997	0.051
997	0.05
998	0.05
998	0.05
999	0.05
999	0.049
1000	0.05
1000	0.05
1000	0.051
1001	0.052
1001	0.052
1002	0.053
1002	0.054
1003	0.054
1003	0.054
1003	0.055
1004	0.055
1004	0.055
1005	0.055
1005	0.055
1005	0.055
1006	0.054
1006	0.054
1007	0.053
1007	0.052
1008	0.051
1008	0.051
1008	0.051
1009	0.05
1009	0.05
1010	0.051
1010	0.051
1010	0.051
1011	0.051
1011	0.052
1012	0.052
1012	0.054
1013	0.054
1013	0.055
1013	0.055
1014	0.055
1014	0.056
1015	0.056
1015	0.056
1016	0.056
1016	0.056
1016	0.055
1017	0.054
1017	0.054
1018	0.054
1018	0.053
1018	0.053
1019	0.052
1019	0.052
1020	0.051
1020	0.051
1021	0.05
1021	0.05
1021	0.05
1022	0.049
1022	0.049
1023	0.049
1023	0.049
1023	0.049
1024	0.049
1024	0.049
1025	0.049
1025	0.05
1026	0.05
1026	0.051
1026	0.051
1027	0.051
1027	0.051
1028	0.051
1028	0.052
1028	0.052
1029	0.052
1029	0.052
1030	0.052
1030	0.052
1031	0.052
1031	0.052
1031	0.052
1032	0.052
1032	0.052
1033	0.051
1033	0.051
1033	0.051
1034	0.05
1034	0.049
1035	0.049
1035	0.049
1036	0.048
1036	0.047
1036	0.047
1037	0.047
1037	0.047
1038	0.047
1038	0.047
1039	0.047
1039	0.048
1039	0.048
1040	0.048
1040	0.048
1041	0.048
1041	0.048
1041	0.048
1042	0.047
1042	0.046
1043	0.046
1043	0.045
1044	0.044
1044	0.043
1044	0.043
1045	0.042
1045	0.041
1046	0.041
1046	0.04
1046	0.04
1047	0.04
1047	0.04
1048	0.041
1048	0.041
1049	0.041
1049	0.041
1049	0.041
1050	0.041
1050	0.04
1051	0.04
1051	0.039
1051	0.039
1052	0.038
1052	0.038
1053	0.037
1053	0.037
1053	0.036
1054	0.036
1054	0.035
1055	0.036
1055	0.036
1056	0.035
1056	0.035
1056	0.034
1057	0.034
1057	0.034
1058	0.033
1058	0.033
1058	0.033
1059	0.033
1059	0.032
1060	0.031
1060	0.031
1061	0.03
1061	0.03
1061	0.03
1062	0.029
1062	0.029
1063	0.029
1063	0.028
1063	0.028
1064	0.028
1064	0.028
1065	0.028
1065	0.028
1066	0.028
1066	0.028
1066	0.028
1067	0.027
1067	0.026
1068	0.026
1068	0.025
1068	0.024
1069	0.023
1069	0.022
1070	0.021
1070	0.02
1071	0.019
1071	0.019
1071	0.018
1072	0.017
1072	0.018
1073	0.017
1073	0.017
1073	0.016
1074	0.016
1074	0.016
1075	0.016
1075	0.015
1076	0.014
1076	0.014
1076	0.013
1077	0.011
1077	0.011
1078	0.01
1078	0.009
1078	0.009
1079	0.009
1079	0.009
1080	0.008
1080	0.007
1080	0.006
1081	0.005
1081	0.005
1082	0.005
1082	0.004
1083	0.003
1083	0.002
1083	0.001
1084	-0.001
1084	-0.002
1085	-0.003
1085	-0.004
1085	-0.004
1086	-0.005
1086	-0.007
1087	-0.008
1087	-0.008
1088	-0.01
1088	-0.011
1088	-0.012
1089	-0.014
1089	-0.015
1090	-0.016
1090	-0.017
1090	-0.019
1091	-0.021
1091	-0.022
1092	-0.023
1092	-0.023
1092	-0.025
1093	-0.026
1093	-0.027
1094	-0.027
1094	-0.028
1095	-0.029
1095	-0.03
1095	-0.03
1096	-0.031
1096	-0.033
1097	-0.034
1097	-0.035
1097	-0.037
1098	-0.039
1098	-0.041
1099	-0.043
1099	-0.046
1100	-0.049
1100	-0.053
1100	-0.057
1101	-0.06
1101	-0.063
1102	-0.066
1102	-0.07
1102	-0.072
1103	-0.074
1103	-0.078
1104	-0.082
1104	-0.084
1104	-0.086
1105	-0.088
1105	-0.091
1106	-0.097
1106	-0.099
1107	-0.104
1107	-0.109
1107	-0.115
1108	-0.115
1108	-0.116
1109	-0.12
1109	-0.125
1109	-0.13
1110	-0.132
1110	-0.136
1111	-0.146
1111	-0.14
