Data from 3.4A_17C_Absorbance__621__02533.txt Node

Date: Tue Jun 20 16:47:02 CEST 2023
User: Marek
Spectrometer: MAYP115816
Trigger mode: 0
Integration Time (sec): 2.200000E-1
Scans to average: 10
Electric dark correction enabled: true
Nonlinearity correction enabled: true
Boxcar width: 5
XAxis mode: Wavelengths
Number of Pixels in Spectrum: 2068
>>>>>Begin Spectral Data<<<<<
199	-0.809
199	-0.793
200	-0.758
200	-0.703
201	-0.674
201	-0.663
202	-0.647
202	-0.637
203	-0.636
203	-0.63
204	-0.61
204	-0.593
205	-0.568
205	-0.557
205	-0.567
206	-0.568
206	-0.563
207	-0.554
207	-0.563
208	-0.565
208	-0.569
209	-0.57
209	-0.577
210	-0.59
210	-0.597
211	-0.59
211	-0.593
212	-0.603
212	-0.612
213	-0.606
213	-0.602
213	-0.6
214	-0.608
214	-0.611
215	-0.606
215	-0.612
216	-0.621
216	-0.628
217	-0.625
217	-0.626
218	-0.634
218	-0.635
219	-0.641
219	-0.642
220	-0.645
220	-0.653
221	-0.653
221	-0.655
221	-0.645
222	-0.644
222	-0.643
223	-0.638
223	-0.642
224	-0.644
224	-0.642
225	-0.64
225	-0.642
226	-0.642
226	-0.64
227	-0.649
227	-0.66
228	-0.662
228	-0.671
229	-0.675
229	-0.671
229	-0.672
230	-0.667
230	-0.664
231	-0.661
231	-0.656
232	-0.657
232	-0.653
233	-0.653
233	-0.643
234	-0.643
234	-0.638
235	-0.642
235	-0.654
236	-0.66
236	-0.664
236	-0.664
237	-0.663
237	-0.663
238	-0.665
238	-0.665
239	-0.667
239	-0.677
240	-0.669
240	-0.664
241	-0.66
241	-0.662
242	-0.665
242	-0.672
243	-0.673
243	-0.675
243	-0.681
244	-0.678
244	-0.68
245	-0.682
245	-0.688
246	-0.697
246	-0.7
247	-0.707
247	-0.693
248	-0.692
248	-0.695
249	-0.701
249	-0.702
250	-0.7
250	-0.709
250	-0.707
251	-0.707
251	-0.701
252	-0.703
252	-0.715
253	-0.711
253	-0.722
254	-0.725
254	-0.726
255	-0.737
255	-0.736
256	-0.738
256	-0.752
257	-0.761
257	-0.759
258	-0.761
258	-0.769
258	-0.767
259	-0.761
259	-0.779
260	-0.779
260	-0.769
261	-0.78
261	-0.766
262	-0.773
262	-0.77
263	-0.761
263	-0.766
264	-0.775
264	-0.777
265	-0.768
265	-0.771
265	-0.781
266	-0.771
266	-0.771
267	-0.77
267	-0.786
268	-0.795
268	-0.788
269	-0.78
269	-0.794
270	-0.798
270	-0.796
271	-0.809
271	-0.819
272	-0.82
272	-0.825
272	-0.819
273	-0.829
273	-0.844
274	-0.837
274	-0.831
275	-0.831
275	-0.818
276	-0.821
276	-0.827
277	-0.829
277	-0.824
278	-0.827
278	-0.826
278	-0.815
279	-0.821
279	-0.835
280	-0.837
280	-0.847
281	-0.841
281	-0.832
282	-0.839
282	-0.835
283	-0.828
283	-0.843
284	-0.855
284	-0.867
285	-0.848
285	-0.855
285	-0.846
286	-0.852
286	-0.869
287	-0.866
287	-0.865
288	-0.865
288	-0.846
289	-0.846
289	-0.853
290	-0.861
290	-0.849
291	-0.853
291	-0.85
292	-0.83
292	-0.826
292	-0.83
293	-0.818
293	-0.815
294	-0.815
294	-0.8
295	-0.783
295	-0.794
296	-0.806
296	-0.8
297	-0.789
297	-0.791
298	-0.786
298	-0.802
298	-0.807
299	-0.787
299	-0.779
300	-0.775
300	-0.756
301	-0.737
301	-0.741
302	-0.752
302	-0.739
303	-0.732
303	-0.721
304	-0.703
304	-0.707
305	-0.701
305	-0.71
305	-0.727
306	-0.713
306	-0.71
307	-0.7
307	-0.711
308	-0.714
308	-0.71
309	-0.712
309	-0.707
310	-0.704
310	-0.698
311	-0.684
311	-0.704
311	-0.694
312	-0.69
312	-0.679
313	-0.67
313	-0.671
314	-0.675
314	-0.674
315	-0.672
315	-0.666
316	-0.66
316	-0.648
317	-0.64
317	-0.64
318	-0.633
318	-0.631
318	-0.621
319	-0.609
319	-0.602
320	-0.599
320	-0.597
321	-0.591
321	-0.591
322	-0.585
322	-0.574
323	-0.573
323	-0.562
324	-0.558
324	-0.55
324	-0.54
325	-0.525
325	-0.506
326	-0.499
326	-0.473
327	-0.458
327	-0.436
328	-0.404
328	-0.383
329	-0.355
329	-0.325
330	-0.297
330	-0.262
330	-0.227
331	-0.191
331	-0.158
332	-0.125
332	-0.093
333	-0.063
333	-0.03
334	-0
334	0.025
335	0.053
335	0.075
336	0.098
336	0.119
336	0.136
337	0.153
337	0.17
338	0.184
338	0.194
339	0.207
339	0.218
340	0.226
340	0.234
341	0.241
341	0.247
342	0.254
342	0.26
342	0.265
343	0.268
343	0.273
344	0.276
344	0.279
345	0.282
345	0.285
346	0.287
346	0.289
347	0.291
347	0.292
348	0.294
348	0.295
348	0.296
349	0.297
349	0.298
350	0.299
350	0.299
351	0.299
351	0.3
352	0.3
352	0.3
353	0.3
353	0.3
354	0.301
354	0.301
354	0.3
355	0.301
355	0.301
356	0.301
356	0.301
357	0.301
357	0.301
358	0.301
358	0.301
359	0.301
359	0.301
360	0.301
360	0.301
360	0.301
361	0.301
361	0.301
362	0.301
362	0.301
363	0.301
363	0.301
364	0.301
364	0.301
365	0.301
365	0.301
366	0.301
366	0.301
366	0.301
367	0.301
367	0.301
368	0.301
368	0.301
369	0.301
369	0.301
370	0.3
370	0.3
371	0.299
371	0.299
372	0.299
372	0.299
372	0.299
373	0.298
373	0.298
374	0.298
374	0.298
375	0.298
375	0.297
376	0.297
376	0.297
377	0.297
377	0.297
378	0.296
378	0.296
378	0.296
379	0.296
379	0.295
380	0.295
380	0.296
381	0.295
381	0.295
382	0.295
382	0.294
383	0.294
383	0.294
383	0.294
384	0.294
384	0.294
385	0.293
385	0.293
386	0.293
386	0.293
387	0.293
387	0.292
388	0.292
388	0.292
389	0.292
389	0.292
389	0.291
390	0.291
390	0.291
391	0.291
391	0.291
392	0.291
392	0.29
393	0.29
393	0.29
394	0.29
394	0.29
394	0.289
395	0.289
395	0.289
396	0.288
396	0.288
397	0.288
397	0.288
398	0.287
398	0.287
399	0.287
399	0.287
400	0.286
400	0.286
400	0.286
401	0.286
401	0.285
402	0.285
402	0.285
403	0.285
403	0.285
404	0.284
404	0.284
405	0.284
405	0.283
405	0.283
406	0.283
406	0.283
407	0.283
407	0.282
408	0.282
408	0.282
409	0.281
409	0.282
410	0.281
410	0.281
411	0.281
411	0.281
411	0.281
412	0.281
412	0.28
413	0.28
413	0.28
414	0.28
414	0.28
415	0.28
415	0.279
416	0.279
416	0.279
416	0.278
417	0.278
417	0.278
418	0.278
418	0.278
419	0.278
419	0.278
420	0.278
420	0.278
421	0.278
421	0.278
421	0.278
422	0.278
422	0.278
423	0.278
423	0.278
424	0.277
424	0.277
425	0.277
425	0.277
426	0.277
426	0.277
427	0.277
427	0.277
427	0.277
428	0.277
428	0.277
429	0.276
429	0.276
430	0.276
430	0.275
431	0.275
431	0.275
432	0.274
432	0.274
432	0.273
433	0.273
433	0.273
434	0.273
434	0.274
435	0.274
435	0.274
436	0.274
436	0.274
437	0.274
437	0.274
437	0.274
438	0.274
438	0.274
439	0.274
439	0.273
440	0.273
440	0.273
441	0.273
441	0.273
442	0.273
442	0.273
442	0.272
443	0.272
443	0.272
444	0.272
444	0.272
445	0.272
445	0.272
446	0.272
446	0.272
447	0.272
447	0.272
447	0.272
448	0.272
448	0.272
449	0.273
449	0.273
450	0.273
450	0.273
451	0.273
451	0.272
452	0.272
452	0.272
452	0.272
453	0.273
453	0.272
454	0.272
454	0.272
455	0.272
455	0.273
456	0.273
456	0.273
457	0.272
457	0.272
458	0.272
458	0.272
458	0.273
459	0.273
459	0.272
460	0.272
460	0.272
461	0.272
461	0.273
462	0.273
462	0.274
463	0.274
463	0.275
463	0.275
464	0.276
464	0.276
465	0.276
465	0.277
466	0.277
466	0.277
467	0.277
467	0.277
467	0.277
468	0.277
468	0.277
469	0.277
469	0.278
470	0.279
470	0.279
471	0.279
471	0.279
472	0.279
472	0.279
472	0.28
473	0.28
473	0.281
474	0.281
474	0.282
475	0.282
475	0.283
476	0.284
476	0.285
477	0.285
477	0.286
477	0.287
478	0.287
478	0.288
479	0.288
479	0.289
480	0.289
480	0.29
481	0.29
481	0.291
482	0.292
482	0.293
482	0.294
483	0.295
483	0.297
484	0.298
484	0.298
485	0.299
485	0.301
486	0.301
486	0.302
487	0.304
487	0.305
487	0.305
488	0.306
488	0.306
489	0.308
489	0.31
490	0.311
490	0.312
491	0.313
491	0.315
492	0.316
492	0.317
492	0.319
493	0.32
493	0.321
494	0.324
494	0.325
495	0.326
495	0.328
496	0.33
496	0.331
496	0.333
497	0.335
497	0.336
498	0.338
498	0.34
499	0.341
499	0.343
500	0.346
500	0.348
501	0.35
501	0.351
501	0.353
502	0.355
502	0.356
503	0.359
503	0.361
504	0.363
504	0.365
505	0.367
505	0.369
506	0.372
506	0.374
506	0.377
507	0.379
507	0.382
508	0.385
508	0.387
509	0.39
509	0.392
510	0.394
510	0.396
511	0.398
511	0.4
511	0.402
512	0.404
512	0.406
513	0.407
513	0.409
514	0.411
514	0.413
515	0.415
515	0.416
515	0.417
516	0.419
516	0.421
517	0.423
517	0.425
518	0.426
518	0.427
519	0.429
519	0.43
520	0.431
520	0.433
520	0.435
521	0.435
521	0.437
522	0.437
522	0.439
523	0.44
523	0.441
524	0.442
524	0.443
524	0.443
525	0.444
525	0.445
526	0.446
526	0.447
527	0.447
527	0.447
528	0.447
528	0.448
529	0.448
529	0.448
529	0.448
530	0.448
530	0.448
531	0.447
531	0.447
532	0.446
532	0.447
533	0.446
533	0.446
533	0.446
534	0.445
534	0.444
535	0.443
535	0.443
536	0.443
536	0.442
537	0.441
537	0.44
538	0.439
538	0.438
538	0.437
539	0.436
539	0.435
540	0.433
540	0.431
541	0.43
541	0.428
542	0.427
542	0.425
542	0.423
543	0.422
543	0.419
544	0.417
544	0.416
545	0.414
545	0.413
546	0.411
546	0.409
547	0.406
547	0.404
547	0.402
548	0.4
548	0.399
549	0.397
549	0.395
550	0.394
550	0.391
551	0.389
551	0.387
551	0.385
552	0.383
552	0.382
553	0.38
553	0.378
554	0.375
554	0.372
555	0.37
555	0.367
556	0.365
556	0.363
556	0.361
557	0.359
557	0.357
558	0.355
558	0.353
559	0.35
559	0.348
560	0.346
560	0.344
560	0.343
561	0.341
561	0.34
562	0.338
562	0.336
563	0.334
563	0.332
564	0.331
564	0.33
564	0.329
565	0.328
565	0.327
566	0.325
566	0.324
567	0.323
567	0.322
568	0.32
568	0.318
568	0.316
569	0.315
569	0.313
570	0.311
570	0.308
571	0.307
571	0.306
572	0.303
572	0.302
573	0.299
573	0.297
573	0.295
574	0.294
574	0.293
575	0.293
575	0.293
576	0.292
576	0.29
577	0.288
577	0.287
577	0.287
578	0.287
578	0.287
579	0.287
579	0.287
580	0.284
580	0.281
581	0.279
581	0.278
581	0.277
582	0.277
582	0.277
583	0.277
583	0.275
584	0.272
584	0.27
585	0.271
585	0.271
585	0.271
586	0.27
586	0.269
587	0.267
587	0.266
588	0.264
588	0.263
589	0.263
589	0.262
590	0.261
590	0.26
590	0.26
591	0.26
591	0.259
592	0.258
592	0.256
593	0.256
593	0.255
594	0.254
594	0.253
594	0.252
595	0.252
595	0.25
596	0.249
596	0.249
597	0.251
597	0.25
598	0.249
598	0.249
598	0.249
599	0.249
599	0.248
600	0.248
600	0.247
601	0.248
601	0.247
602	0.246
602	0.246
602	0.245
603	0.245
603	0.246
604	0.245
604	0.245
605	0.245
605	0.245
606	0.244
606	0.243
606	0.242
607	0.241
607	0.241
608	0.24
608	0.239
609	0.238
609	0.238
610	0.237
610	0.236
610	0.236
611	0.236
611	0.235
612	0.235
612	0.235
613	0.235
613	0.235
614	0.233
614	0.232
614	0.231
615	0.229
615	0.228
616	0.227
616	0.226
617	0.226
617	0.225
618	0.224
618	0.223
618	0.223
619	0.222
619	0.223
620	0.223
620	0.222
621	0.22
621	0.219
622	0.218
622	0.216
622	0.214
623	0.213
623	0.212
624	0.212
624	0.21
625	0.21
625	0.209
626	0.208
626	0.207
626	0.207
627	0.207
627	0.206
628	0.206
628	0.205
629	0.204
629	0.203
630	0.201
630	0.199
630	0.199
631	0.198
631	0.196
632	0.194
632	0.192
633	0.19
633	0.188
634	0.187
634	0.185
634	0.183
635	0.181
635	0.179
636	0.176
636	0.174
637	0.171
637	0.168
638	0.165
638	0.163
638	0.16
639	0.156
639	0.152
640	0.149
640	0.145
641	0.141
641	0.137
642	0.133
642	0.13
642	0.126
643	0.121
643	0.116
644	0.111
644	0.106
645	0.101
645	0.096
646	0.091
646	0.085
646	0.078
647	0.072
647	0.065
648	0.057
648	0.05
649	0.043
649	0.036
650	0.029
650	0.021
650	0.014
651	0.004
651	-0.008
652	-0.021
652	-0.036
653	-0.048
653	-0.06
653	-0.056
654	-0.038
654	-0.033
655	-0.039
655	-0.045
656	-0.052
656	-0.059
657	-0.064
657	-0.069
657	-0.076
658	-0.084
658	-0.116
659	-0.203
659	-0.293
660	-0.335
660	-0.362
661	-0.389
661	-0.419
661	-0.451
662	-0.478
662	-0.508
663	-0.543
663	-0.58
664	-0.617
664	-0.657
665	-0.703
665	-0.749
665	-0.793
666	-0.843
666	-0.897
667	-0.951
667	-1.013
668	-1.071
668	-1.139
669	-1.205
669	-1.277
669	-1.353
670	-1.431
670	-1.533
671	-1.679
671	-1.989
672	-2.267
672	-2.443
672	-2.571
673	-2.671
673	-2.754
674	-2.833
674	-2.857
675	-2.874
675	-2.88
676	-2.88
676	-2.845
676	-2.782
677	-2.705
677	-2.616
678	-2.487
678	-2.291
679	-1.91
679	-1.676
680	-1.556
680	-1.473
680	-1.4
681	-1.347
681	-1.291
682	-1.245
682	-1.2
683	-1.155
683	-1.129
684	-1.099
684	-1.08
684	-1.055
685	-1.034
685	-1.023
686	-0.999
686	-0.984
687	-0.974
687	-0.962
687	-0.961
688	-0.945
688	-0.937
689	-0.94
689	-0.938
690	-0.924
690	-0.912
691	-0.909
691	-0.911
691	-0.911
692	-0.911
692	-0.907
693	-0.913
693	-0.923
694	-0.901
694	-0.899
695	-0.901
695	-0.895
695	-0.902
696	-0.909
696	-0.902
697	-0.895
697	-0.891
698	-0.886
698	-0.879
698	-0.892
699	-0.891
699	-0.892
700	-0.91
700	-0.906
701	-0.893
701	-0.887
702	-0.887
702	-0.886
702	-0.886
703	-0.878
703	-0.866
704	-0.873
704	-0.878
705	-0.866
705	-0.864
705	-0.858
706	-0.853
706	-0.849
707	-0.861
707	-0.863
708	-0.86
708	-0.858
709	-0.861
709	-0.856
709	-0.852
710	-0.859
710	-0.863
711	-0.861
711	-0.861
712	-0.851
712	-0.848
713	-0.852
713	-0.854
713	-0.834
714	-0.834
714	-0.838
715	-0.832
715	-0.838
716	-0.854
716	-0.863
716	-0.864
717	-0.871
717	-0.862
718	-0.856
718	-0.856
719	-0.853
719	-0.845
720	-0.839
720	-0.837
720	-0.832
721	-0.824
721	-0.828
722	-0.827
722	-0.824
723	-0.84
723	-0.853
723	-0.862
724	-0.862
724	-0.866
725	-0.857
725	-0.861
726	-0.863
726	-0.853
727	-0.853
727	-0.861
727	-0.85
728	-0.836
728	-0.832
729	-0.834
729	-0.838
730	-0.845
730	-0.836
730	-0.841
731	-0.845
731	-0.844
732	-0.847
732	-0.843
733	-0.859
733	-0.866
734	-0.875
734	-0.864
734	-0.845
735	-0.835
735	-0.832
736	-0.829
736	-0.826
737	-0.825
737	-0.814
737	-0.806
738	-0.791
738	-0.779
739	-0.782
739	-0.784
740	-0.799
740	-0.798
741	-0.81
741	-0.818
741	-0.826
742	-0.834
742	-0.849
743	-0.855
743	-0.858
744	-0.862
744	-0.87
744	-0.863
745	-0.871
745	-0.858
746	-0.855
746	-0.848
747	-0.85
747	-0.84
748	-0.843
748	-0.846
748	-0.846
749	-0.838
749	-0.843
750	-0.834
750	-0.835
751	-0.833
751	-0.832
751	-0.843
752	-0.846
752	-0.849
753	-0.851
753	-0.845
754	-0.865
754	-0.866
754	-0.874
755	-0.877
755	-0.869
756	-0.87
756	-0.857
757	-0.85
757	-0.839
758	-0.841
758	-0.84
758	-0.837
759	-0.843
759	-0.843
760	-0.839
760	-0.842
761	-0.838
761	-0.842
761	-0.842
762	-0.846
762	-0.845
763	-0.845
763	-0.847
764	-0.844
764	-0.839
764	-0.846
765	-0.844
765	-0.848
766	-0.85
766	-0.853
767	-0.87
767	-0.868
768	-0.866
768	-0.858
768	-0.853
769	-0.856
769	-0.864
770	-0.874
770	-0.879
771	-0.876
771	-0.872
771	-0.877
772	-0.88
772	-0.9
773	-0.902
773	-0.902
774	-0.901
774	-0.883
775	-0.869
775	-0.869
775	-0.874
776	-0.886
776	-0.883
777	-0.884
777	-0.866
778	-0.876
778	-0.884
778	-0.884
779	-0.892
779	-0.911
780	-0.906
780	-0.912
781	-0.902
781	-0.891
781	-0.906
782	-0.928
782	-0.928
783	-0.928
783	-0.936
784	-0.94
784	-0.932
784	-0.951
785	-0.944
785	-0.957
786	-0.96
786	-0.951
787	-0.939
787	-0.947
788	-0.94
788	-0.935
788	-0.936
789	-0.936
789	-0.928
790	-0.929
790	-0.913
791	-0.921
791	-0.918
791	-0.913
792	-0.908
792	-0.912
793	-0.915
793	-0.901
794	-0.894
794	-0.885
794	-0.891
795	-0.911
795	-0.896
796	-0.9
796	-0.895
797	-0.888
797	-0.878
797	-0.871
798	-0.891
798	-0.896
799	-0.896
799	-0.881
800	-0.876
800	-0.885
801	-0.882
801	-0.886
801	-0.882
802	-0.881
802	-0.878
803	-0.875
803	-0.868
804	-0.876
804	-0.884
804	-0.868
805	-0.849
805	-0.839
806	-0.84
806	-0.837
807	-0.839
807	-0.839
807	-0.821
808	-0.817
808	-0.809
809	-0.804
809	-0.806
810	-0.809
810	-0.806
810	-0.801
811	-0.804
811	-0.795
812	-0.79
812	-0.793
813	-0.798
813	-0.798
813	-0.794
814	-0.793
814	-0.798
815	-0.789
815	-0.786
816	-0.782
816	-0.799
817	-0.81
817	-0.812
817	-0.822
818	-0.814
818	-0.811
819	-0.823
819	-0.822
820	-0.835
820	-0.833
820	-0.832
821	-0.826
821	-0.821
822	-0.819
822	-0.807
823	-0.82
823	-0.819
823	-0.813
824	-0.81
824	-0.821
825	-0.821
825	-0.818
826	-0.813
826	-0.81
826	-0.809
827	-0.809
827	-0.795
828	-0.795
828	-0.788
829	-0.783
829	-0.766
829	-0.763
830	-0.763
830	-0.75
831	-0.742
831	-0.732
832	-0.724
832	-0.722
832	-0.714
833	-0.716
833	-0.72
834	-0.715
834	-0.711
835	-0.702
835	-0.701
835	-0.697
836	-0.691
836	-0.688
837	-0.678
837	-0.669
838	-0.653
838	-0.637
839	-0.63
839	-0.617
839	-0.608
840	-0.607
840	-0.596
841	-0.586
841	-0.579
842	-0.568
842	-0.556
842	-0.555
843	-0.55
843	-0.545
844	-0.543
844	-0.531
845	-0.515
845	-0.505
845	-0.493
846	-0.481
846	-0.472
847	-0.461
847	-0.447
848	-0.431
848	-0.414
848	-0.399
849	-0.387
849	-0.377
850	-0.365
850	-0.354
851	-0.34
851	-0.324
851	-0.313
852	-0.297
852	-0.285
853	-0.274
853	-0.264
854	-0.251
854	-0.239
854	-0.226
855	-0.214
855	-0.206
856	-0.196
856	-0.187
857	-0.178
857	-0.169
857	-0.155
858	-0.142
858	-0.134
859	-0.123
859	-0.111
860	-0.1
860	-0.085
860	-0.073
861	-0.062
861	-0.052
862	-0.043
862	-0.034
863	-0.026
863	-0.016
863	-0.009
864	-0.003
864	0.005
865	0.012
865	0.019
866	0.025
866	0.032
866	0.037
867	0.043
867	0.05
868	0.054
868	0.06
869	0.066
869	0.069
869	0.072
870	0.074
870	0.076
871	0.078
871	0.079
872	0.08
872	0.081
872	0.082
873	0.082
873	0.082
874	0.081
874	0.08
875	0.08
875	0.079
875	0.079
876	0.078
876	0.078
877	0.077
877	0.076
878	0.075
878	0.075
878	0.075
879	0.074
879	0.074
880	0.074
880	0.073
881	0.072
881	0.072
881	0.071
882	0.07
882	0.068
883	0.067
883	0.066
884	0.065
884	0.064
884	0.064
885	0.063
885	0.063
886	0.063
886	0.062
887	0.062
887	0.062
887	0.061
888	0.061
888	0.059
889	0.058
889	0.058
890	0.057
890	0.056
890	0.056
891	0.056
891	0.055
892	0.056
892	0.056
893	0.056
893	0.056
893	0.056
894	0.056
894	0.056
895	0.056
895	0.056
895	0.055
896	0.055
896	0.055
897	0.054
897	0.054
898	0.054
898	0.054
898	0.054
899	0.054
899	0.054
900	0.054
900	0.054
901	0.054
901	0.053
901	0.053
902	0.053
902	0.053
903	0.053
903	0.053
904	0.053
904	0.053
904	0.053
905	0.054
905	0.054
906	0.055
906	0.056
907	0.056
907	0.056
907	0.056
908	0.056
908	0.057
909	0.057
909	0.057
910	0.057
910	0.058
910	0.058
911	0.058
911	0.059
912	0.059
912	0.06
913	0.061
913	0.061
913	0.061
914	0.061
914	0.062
915	0.062
915	0.062
916	0.062
916	0.062
916	0.062
917	0.062
917	0.061
918	0.061
918	0.061
918	0.061
919	0.061
919	0.061
920	0.061
920	0.062
921	0.063
921	0.064
921	0.064
922	0.065
922	0.065
923	0.066
923	0.066
924	0.066
924	0.065
924	0.065
925	0.064
925	0.063
926	0.061
926	0.061
927	0.06
927	0.059
927	0.058
928	0.058
928	0.058
929	0.058
929	0.059
930	0.059
930	0.06
930	0.06
931	0.061
931	0.062
932	0.063
932	0.064
933	0.065
933	0.065
933	0.065
934	0.065
934	0.064
935	0.064
935	0.063
935	0.061
936	0.06
936	0.059
937	0.057
937	0.056
938	0.055
938	0.054
938	0.054
939	0.053
939	0.052
940	0.052
940	0.051
941	0.05
941	0.049
941	0.049
942	0.048
942	0.048
943	0.047
943	0.047
944	0.045
944	0.044
944	0.044
945	0.043
945	0.043
946	0.042
946	0.041
946	0.041
947	0.041
947	0.041
948	0.042
948	0.043
949	0.043
949	0.044
949	0.046
950	0.048
950	0.049
951	0.05
951	0.051
952	0.052
952	0.054
952	0.054
953	0.055
953	0.056
954	0.056
954	0.055
955	0.056
955	0.055
955	0.055
956	0.055
956	0.054
957	0.052
957	0.052
957	0.051
958	0.05
958	0.05
959	0.049
959	0.049
960	0.048
960	0.048
960	0.048
961	0.047
961	0.048
962	0.048
962	0.048
963	0.048
963	0.048
963	0.048
964	0.048
964	0.049
965	0.049
965	0.049
966	0.05
966	0.05
966	0.05
967	0.051
967	0.05
968	0.05
968	0.05
968	0.05
969	0.05
969	0.05
970	0.049
970	0.049
971	0.048
971	0.048
971	0.048
972	0.049
972	0.049
973	0.049
973	0.049
974	0.049
974	0.049
974	0.05
975	0.05
975	0.05
976	0.05
976	0.05
976	0.05
977	0.049
977	0.049
978	0.048
978	0.048
979	0.047
979	0.047
979	0.047
980	0.047
980	0.047
981	0.047
981	0.047
982	0.047
982	0.047
982	0.047
983	0.047
983	0.047
984	0.047
984	0.046
984	0.046
985	0.045
985	0.045
986	0.044
986	0.043
987	0.043
987	0.042
987	0.041
988	0.04
988	0.039
989	0.039
989	0.038
990	0.037
990	0.036
990	0.035
991	0.034
991	0.033
992	0.033
992	0.032
992	0.031
993	0.03
993	0.029
994	0.028
994	0.027
995	0.025
995	0.024
995	0.022
996	0.021
996	0.02
997	0.018
997	0.017
997	0.017
998	0.016
998	0.016
999	0.016
999	0.016
1000	0.016
1000	0.017
1000	0.017
1001	0.018
1001	0.019
1002	0.019
1002	0.02
1003	0.02
1003	0.02
1003	0.021
1004	0.021
1004	0.021
1005	0.02
1005	0.02
1005	0.019
1006	0.018
1006	0.017
1007	0.017
1007	0.016
1008	0.015
1008	0.015
1008	0.015
1009	0.015
1009	0.015
1010	0.015
1010	0.016
1010	0.016
1011	0.017
1011	0.017
1012	0.018
1012	0.019
1013	0.02
1013	0.021
1013	0.021
1014	0.022
1014	0.022
1015	0.023
1015	0.023
1016	0.024
1016	0.023
1016	0.023
1017	0.023
1017	0.023
1018	0.023
1018	0.023
1018	0.023
1019	0.022
1019	0.022
1020	0.022
1020	0.022
1021	0.022
1021	0.021
1021	0.021
1022	0.021
1022	0.021
1023	0.021
1023	0.021
1023	0.021
1024	0.022
1024	0.022
1025	0.022
1025	0.023
1026	0.023
1026	0.023
1026	0.023
1027	0.023
1027	0.024
1028	0.024
1028	0.025
1028	0.025
1029	0.025
1029	0.026
1030	0.025
1030	0.025
1031	0.025
1031	0.025
1031	0.025
1032	0.025
1032	0.024
1033	0.023
1033	0.023
1033	0.023
1034	0.022
1034	0.022
1035	0.022
1035	0.021
1036	0.02
1036	0.02
1036	0.02
1037	0.02
1037	0.02
1038	0.02
1038	0.02
1039	0.02
1039	0.021
1039	0.021
1040	0.022
1040	0.022
1041	0.022
1041	0.022
1041	0.022
1042	0.021
1042	0.021
1043	0.02
1043	0.019
1044	0.018
1044	0.017
1044	0.016
1045	0.015
1045	0.014
1046	0.013
1046	0.013
1046	0.012
1047	0.012
1047	0.012
1048	0.012
1048	0.012
1049	0.012
1049	0.012
1049	0.012
1050	0.012
1050	0.011
1051	0.011
1051	0.01
1051	0.01
1052	0.009
1052	0.008
1053	0.008
1053	0.007
1053	0.007
1054	0.006
1054	0.006
1055	0.006
1055	0.006
1056	0.006
1056	0.006
1056	0.005
1057	0.005
1057	0.005
1058	0.004
1058	0.004
1058	0.004
1059	0.004
1059	0.003
1060	0.002
1060	0.002
1061	0.001
1061	0.001
1061	0.001
1062	0.001
1062	0.001
1063	0.001
1063	0.001
1063	0.001
1064	0.001
1064	0.002
1065	0.002
1065	0.002
1066	0.002
1066	0.002
1066	0.001
1067	0
1067	0
1068	-0.001
1068	-0.002
1068	-0.003
1069	-0.003
1069	-0.004
1070	-0.005
1070	-0.006
1071	-0.006
1071	-0.006
1071	-0.007
1072	-0.008
1072	-0.008
1073	-0.008
1073	-0.008
1073	-0.008
1074	-0.008
1074	-0.009
1075	-0.01
1075	-0.01
1076	-0.012
1076	-0.011
1076	-0.012
1077	-0.013
1077	-0.014
1078	-0.015
1078	-0.016
1078	-0.017
1079	-0.017
1079	-0.017
1080	-0.019
1080	-0.019
1080	-0.02
1081	-0.021
1081	-0.022
1082	-0.022
1082	-0.023
1083	-0.025
1083	-0.026
1083	-0.027
1084	-0.029
1084	-0.029
1085	-0.03
1085	-0.031
1085	-0.032
1086	-0.033
1086	-0.035
1087	-0.036
1087	-0.036
1088	-0.038
1088	-0.038
1088	-0.038
1089	-0.04
1089	-0.041
1090	-0.042
1090	-0.043
1090	-0.045
1091	-0.046
1091	-0.046
1092	-0.047
1092	-0.047
1092	-0.048
1093	-0.05
1093	-0.05
1094	-0.05
1094	-0.051
1095	-0.053
1095	-0.053
1095	-0.053
1096	-0.055
1096	-0.056
1097	-0.058
1097	-0.06
1097	-0.061
1098	-0.063
1098	-0.065
1099	-0.066
1099	-0.068
1100	-0.07
1100	-0.073
1100	-0.077
1101	-0.08
1101	-0.083
1102	-0.085
1102	-0.088
1102	-0.09
1103	-0.093
1103	-0.097
1104	-0.1
1104	-0.104
1104	-0.106
1105	-0.107
1105	-0.11
1106	-0.115
1106	-0.118
1107	-0.124
1107	-0.129
1107	-0.134
1108	-0.136
1108	-0.138
1109	-0.14
1109	-0.145
1109	-0.151
1110	-0.153
1110	-0.157
1111	-0.166
1111	-0.157
