Data from 3.4A_17C_Absorbance__794__02706.txt Node

Date: Tue Jun 20 16:53:22 CEST 2023
User: Marek
Spectrometer: MAYP115816
Trigger mode: 0
Integration Time (sec): 2.200000E-1
Scans to average: 10
Electric dark correction enabled: true
Nonlinearity correction enabled: true
Boxcar width: 5
XAxis mode: Wavelengths
Number of Pixels in Spectrum: 2068
>>>>>Begin Spectral Data<<<<<
199	-0.809
199	-0.79
200	-0.754
200	-0.697
201	-0.671
201	-0.663
202	-0.648
202	-0.639
203	-0.638
203	-0.631
204	-0.611
204	-0.596
205	-0.574
205	-0.566
205	-0.576
206	-0.577
206	-0.573
207	-0.565
207	-0.571
208	-0.573
208	-0.577
209	-0.577
209	-0.584
210	-0.595
210	-0.601
211	-0.595
211	-0.598
212	-0.607
212	-0.614
213	-0.613
213	-0.608
213	-0.605
214	-0.612
214	-0.612
215	-0.61
215	-0.614
216	-0.623
216	-0.63
217	-0.626
217	-0.626
218	-0.632
218	-0.633
219	-0.64
219	-0.644
220	-0.647
220	-0.654
221	-0.656
221	-0.658
221	-0.648
222	-0.649
222	-0.648
223	-0.645
223	-0.648
224	-0.649
224	-0.647
225	-0.644
225	-0.643
226	-0.643
226	-0.642
227	-0.651
227	-0.66
228	-0.663
228	-0.672
229	-0.676
229	-0.674
229	-0.674
230	-0.669
230	-0.668
231	-0.664
231	-0.659
232	-0.661
232	-0.656
233	-0.657
233	-0.644
234	-0.644
234	-0.638
235	-0.643
235	-0.656
236	-0.663
236	-0.665
236	-0.664
237	-0.662
237	-0.665
238	-0.664
238	-0.667
239	-0.67
239	-0.678
240	-0.671
240	-0.667
241	-0.662
241	-0.665
242	-0.669
242	-0.677
243	-0.677
243	-0.679
243	-0.683
244	-0.68
244	-0.683
245	-0.685
245	-0.688
246	-0.699
246	-0.704
247	-0.711
247	-0.698
248	-0.697
248	-0.699
249	-0.706
249	-0.707
250	-0.707
250	-0.716
250	-0.713
251	-0.713
251	-0.709
252	-0.712
252	-0.724
253	-0.718
253	-0.729
254	-0.732
254	-0.733
255	-0.743
255	-0.74
256	-0.743
256	-0.757
257	-0.766
257	-0.763
258	-0.764
258	-0.773
258	-0.771
259	-0.765
259	-0.783
260	-0.783
260	-0.774
261	-0.785
261	-0.77
262	-0.775
262	-0.773
263	-0.765
263	-0.77
264	-0.78
264	-0.781
265	-0.77
265	-0.773
265	-0.784
266	-0.774
266	-0.775
267	-0.775
267	-0.79
268	-0.798
268	-0.791
269	-0.783
269	-0.799
270	-0.804
270	-0.803
271	-0.816
271	-0.828
272	-0.828
272	-0.831
272	-0.826
273	-0.837
273	-0.855
274	-0.847
274	-0.841
275	-0.838
275	-0.825
276	-0.827
276	-0.829
277	-0.832
277	-0.827
278	-0.832
278	-0.83
278	-0.817
279	-0.825
279	-0.838
280	-0.841
280	-0.853
281	-0.848
281	-0.841
282	-0.845
282	-0.841
283	-0.833
283	-0.848
284	-0.861
284	-0.872
285	-0.851
285	-0.858
285	-0.851
286	-0.856
286	-0.872
287	-0.872
287	-0.87
288	-0.87
288	-0.853
289	-0.85
289	-0.858
290	-0.868
290	-0.855
291	-0.858
291	-0.857
292	-0.838
292	-0.834
292	-0.838
293	-0.826
293	-0.82
294	-0.821
294	-0.806
295	-0.787
295	-0.799
296	-0.812
296	-0.806
297	-0.795
297	-0.799
298	-0.796
298	-0.813
298	-0.818
299	-0.8
299	-0.794
300	-0.791
300	-0.774
301	-0.753
301	-0.754
302	-0.763
302	-0.749
303	-0.741
303	-0.73
304	-0.712
304	-0.715
305	-0.707
305	-0.717
305	-0.732
306	-0.718
306	-0.717
307	-0.71
307	-0.718
308	-0.721
308	-0.715
309	-0.718
309	-0.713
310	-0.711
310	-0.706
311	-0.691
311	-0.71
311	-0.697
312	-0.696
312	-0.686
313	-0.678
313	-0.679
314	-0.683
314	-0.683
315	-0.68
315	-0.673
316	-0.668
316	-0.658
317	-0.65
317	-0.645
318	-0.637
318	-0.635
318	-0.624
319	-0.614
319	-0.606
320	-0.603
320	-0.601
321	-0.596
321	-0.595
322	-0.589
322	-0.584
323	-0.585
323	-0.576
324	-0.576
324	-0.564
324	-0.553
325	-0.538
325	-0.522
326	-0.512
326	-0.487
327	-0.473
327	-0.451
328	-0.419
328	-0.396
329	-0.367
329	-0.339
330	-0.313
330	-0.279
330	-0.245
331	-0.212
331	-0.181
332	-0.149
332	-0.118
333	-0.09
333	-0.059
334	-0.033
334	-0.009
335	0.016
335	0.037
336	0.058
336	0.078
336	0.094
337	0.11
337	0.126
338	0.138
338	0.148
339	0.161
339	0.17
340	0.177
340	0.185
341	0.191
341	0.197
342	0.203
342	0.208
342	0.212
343	0.216
343	0.221
344	0.223
344	0.226
345	0.229
345	0.231
346	0.233
346	0.235
347	0.236
347	0.237
348	0.238
348	0.24
348	0.241
349	0.241
349	0.242
350	0.242
350	0.243
351	0.243
351	0.244
352	0.243
352	0.244
353	0.244
353	0.244
354	0.245
354	0.245
354	0.245
355	0.245
355	0.245
356	0.245
356	0.245
357	0.245
357	0.245
358	0.245
358	0.245
359	0.245
359	0.245
360	0.245
360	0.246
360	0.246
361	0.246
361	0.246
362	0.246
362	0.246
363	0.246
363	0.246
364	0.246
364	0.246
365	0.246
365	0.246
366	0.246
366	0.246
366	0.246
367	0.247
367	0.247
368	0.246
368	0.246
369	0.246
369	0.246
370	0.246
370	0.246
371	0.246
371	0.246
372	0.246
372	0.245
372	0.245
373	0.245
373	0.245
374	0.245
374	0.245
375	0.245
375	0.245
376	0.245
376	0.245
377	0.245
377	0.245
378	0.245
378	0.245
378	0.244
379	0.244
379	0.244
380	0.244
380	0.244
381	0.244
381	0.244
382	0.244
382	0.244
383	0.244
383	0.244
383	0.244
384	0.244
384	0.243
385	0.243
385	0.243
386	0.243
386	0.243
387	0.243
387	0.243
388	0.242
388	0.242
389	0.242
389	0.242
389	0.243
390	0.243
390	0.243
391	0.243
391	0.243
392	0.243
392	0.243
393	0.243
393	0.243
394	0.243
394	0.242
394	0.242
395	0.242
395	0.242
396	0.241
396	0.241
397	0.241
397	0.241
398	0.24
398	0.24
399	0.24
399	0.24
400	0.24
400	0.24
400	0.24
401	0.24
401	0.239
402	0.239
402	0.239
403	0.239
403	0.239
404	0.239
404	0.238
405	0.238
405	0.238
405	0.238
406	0.238
406	0.238
407	0.238
407	0.237
408	0.237
408	0.237
409	0.237
409	0.237
410	0.237
410	0.237
411	0.237
411	0.237
411	0.236
412	0.236
412	0.236
413	0.236
413	0.236
414	0.236
414	0.235
415	0.235
415	0.235
416	0.234
416	0.234
416	0.234
417	0.234
417	0.234
418	0.234
418	0.234
419	0.234
419	0.234
420	0.234
420	0.234
421	0.234
421	0.234
421	0.234
422	0.234
422	0.234
423	0.234
423	0.234
424	0.234
424	0.233
425	0.233
425	0.234
426	0.234
426	0.233
427	0.233
427	0.233
427	0.234
428	0.234
428	0.233
429	0.233
429	0.233
430	0.232
430	0.232
431	0.232
431	0.231
432	0.231
432	0.231
432	0.23
433	0.23
433	0.23
434	0.23
434	0.231
435	0.231
435	0.231
436	0.231
436	0.231
437	0.231
437	0.231
437	0.231
438	0.231
438	0.23
439	0.23
439	0.23
440	0.23
440	0.23
441	0.23
441	0.23
442	0.23
442	0.229
442	0.229
443	0.229
443	0.229
444	0.229
444	0.229
445	0.229
445	0.229
446	0.228
446	0.228
447	0.229
447	0.229
447	0.229
448	0.229
448	0.229
449	0.229
449	0.229
450	0.229
450	0.229
451	0.229
451	0.228
452	0.228
452	0.228
452	0.228
453	0.228
453	0.228
454	0.228
454	0.228
455	0.228
455	0.228
456	0.228
456	0.228
457	0.227
457	0.227
458	0.227
458	0.227
458	0.227
459	0.227
459	0.226
460	0.226
460	0.226
461	0.226
461	0.226
462	0.227
462	0.227
463	0.228
463	0.228
463	0.228
464	0.229
464	0.229
465	0.229
465	0.229
466	0.23
466	0.23
467	0.23
467	0.229
467	0.229
468	0.228
468	0.228
469	0.228
469	0.229
470	0.229
470	0.229
471	0.229
471	0.229
472	0.228
472	0.229
472	0.229
473	0.23
473	0.23
474	0.23
474	0.23
475	0.231
475	0.231
476	0.231
476	0.231
477	0.232
477	0.232
477	0.232
478	0.232
478	0.233
479	0.233
479	0.233
480	0.233
480	0.233
481	0.234
481	0.234
482	0.234
482	0.235
482	0.236
483	0.237
483	0.238
484	0.238
484	0.238
485	0.239
485	0.239
486	0.24
486	0.24
487	0.241
487	0.241
487	0.242
488	0.242
488	0.242
489	0.242
489	0.244
490	0.244
490	0.245
491	0.246
491	0.247
492	0.248
492	0.248
492	0.249
493	0.249
493	0.25
494	0.251
494	0.252
495	0.253
495	0.253
496	0.254
496	0.255
496	0.256
497	0.257
497	0.258
498	0.259
498	0.26
499	0.261
499	0.262
500	0.264
500	0.265
501	0.266
501	0.267
501	0.268
502	0.269
502	0.27
503	0.272
503	0.273
504	0.274
504	0.275
505	0.277
505	0.278
506	0.28
506	0.282
506	0.283
507	0.285
507	0.286
508	0.288
508	0.29
509	0.292
509	0.293
510	0.295
510	0.296
511	0.297
511	0.299
511	0.3
512	0.301
512	0.302
513	0.303
513	0.304
514	0.305
514	0.306
515	0.307
515	0.308
515	0.309
516	0.31
516	0.311
517	0.313
517	0.314
518	0.315
518	0.316
519	0.317
519	0.318
520	0.319
520	0.321
520	0.322
521	0.323
521	0.324
522	0.325
522	0.326
523	0.328
523	0.329
524	0.33
524	0.331
524	0.331
525	0.332
525	0.333
526	0.335
526	0.336
527	0.336
527	0.337
528	0.337
528	0.338
529	0.339
529	0.34
529	0.34
530	0.341
530	0.342
531	0.342
531	0.343
532	0.343
532	0.343
533	0.344
533	0.345
533	0.345
534	0.345
534	0.345
535	0.346
535	0.346
536	0.347
536	0.347
537	0.347
537	0.348
538	0.348
538	0.348
538	0.348
539	0.349
539	0.349
540	0.348
540	0.348
541	0.348
541	0.347
542	0.347
542	0.347
542	0.347
543	0.347
543	0.346
544	0.346
544	0.346
545	0.346
545	0.346
546	0.346
546	0.345
547	0.344
547	0.343
547	0.343
548	0.343
548	0.342
549	0.342
549	0.341
550	0.341
550	0.34
551	0.339
551	0.339
551	0.338
552	0.338
552	0.337
553	0.337
553	0.336
554	0.335
554	0.334
555	0.332
555	0.332
556	0.331
556	0.33
556	0.329
557	0.329
557	0.328
558	0.328
558	0.327
559	0.326
559	0.326
560	0.325
560	0.324
560	0.324
561	0.324
561	0.323
562	0.323
562	0.322
563	0.321
563	0.321
564	0.32
564	0.32
564	0.32
565	0.32
565	0.32
566	0.319
566	0.318
567	0.318
567	0.318
568	0.317
568	0.316
568	0.315
569	0.315
569	0.314
570	0.313
570	0.311
571	0.311
571	0.31
572	0.308
572	0.307
573	0.306
573	0.305
573	0.303
574	0.303
574	0.302
575	0.302
575	0.303
576	0.303
576	0.301
577	0.3
577	0.3
577	0.3
578	0.3
578	0.3
579	0.301
579	0.301
580	0.299
580	0.296
581	0.294
581	0.294
581	0.294
582	0.294
582	0.294
583	0.295
583	0.294
584	0.291
584	0.29
585	0.291
585	0.292
585	0.292
586	0.292
586	0.291
587	0.289
587	0.288
588	0.287
588	0.286
589	0.286
589	0.286
590	0.285
590	0.284
590	0.285
591	0.285
591	0.284
592	0.284
592	0.283
593	0.283
593	0.282
594	0.281
594	0.281
594	0.28
595	0.28
595	0.279
596	0.278
596	0.279
597	0.281
597	0.281
598	0.28
598	0.281
598	0.281
599	0.281
599	0.28
600	0.28
600	0.28
601	0.28
601	0.28
602	0.279
602	0.279
602	0.278
603	0.279
603	0.279
604	0.279
604	0.279
605	0.279
605	0.279
606	0.279
606	0.277
606	0.277
607	0.276
607	0.276
608	0.275
608	0.274
609	0.273
609	0.273
610	0.272
610	0.271
610	0.272
611	0.272
611	0.272
612	0.272
612	0.272
613	0.272
613	0.272
614	0.271
614	0.269
614	0.269
615	0.268
615	0.267
616	0.267
616	0.266
617	0.266
617	0.265
618	0.264
618	0.264
618	0.264
619	0.263
619	0.263
620	0.264
620	0.263
621	0.261
621	0.26
622	0.259
622	0.257
622	0.255
623	0.254
623	0.254
624	0.253
624	0.252
625	0.251
625	0.251
626	0.249
626	0.248
626	0.248
627	0.248
627	0.247
628	0.247
628	0.246
629	0.244
629	0.243
630	0.241
630	0.239
630	0.238
631	0.237
631	0.236
632	0.234
632	0.232
633	0.229
633	0.227
634	0.225
634	0.223
634	0.22
635	0.218
635	0.215
636	0.212
636	0.21
637	0.206
637	0.202
638	0.199
638	0.196
638	0.192
639	0.188
639	0.183
640	0.179
640	0.174
641	0.17
641	0.165
642	0.161
642	0.157
642	0.152
643	0.146
643	0.141
644	0.135
644	0.129
645	0.123
645	0.117
646	0.11
646	0.103
646	0.095
647	0.088
647	0.08
648	0.072
648	0.064
649	0.055
649	0.047
650	0.039
650	0.031
650	0.023
651	0.012
651	-0.002
652	-0.017
652	-0.033
653	-0.048
653	-0.06
653	-0.056
654	-0.033
654	-0.027
655	-0.032
655	-0.039
656	-0.046
656	-0.055
657	-0.061
657	-0.066
657	-0.073
658	-0.082
658	-0.117
659	-0.213
659	-0.313
660	-0.358
660	-0.387
661	-0.417
661	-0.448
661	-0.482
662	-0.513
662	-0.547
663	-0.585
663	-0.626
664	-0.667
664	-0.711
665	-0.761
665	-0.81
665	-0.858
666	-0.911
666	-0.969
667	-1.026
667	-1.092
668	-1.153
668	-1.224
669	-1.294
669	-1.369
669	-1.448
670	-1.531
670	-1.639
671	-1.797
671	-2.109
672	-2.337
672	-2.491
672	-2.607
673	-2.701
673	-2.779
674	-2.853
674	-2.878
675	-2.896
675	-2.9
676	-2.897
676	-2.852
676	-2.79
677	-2.715
677	-2.63
678	-2.506
678	-2.322
679	-1.984
679	-1.757
680	-1.637
680	-1.552
680	-1.477
681	-1.421
681	-1.362
682	-1.314
682	-1.266
683	-1.219
683	-1.191
684	-1.158
684	-1.136
684	-1.109
685	-1.084
685	-1.071
686	-1.045
686	-1.029
687	-1.017
687	-1.004
687	-1.001
688	-0.983
688	-0.973
689	-0.973
689	-0.968
690	-0.954
690	-0.942
691	-0.938
691	-0.939
691	-0.937
692	-0.935
692	-0.93
693	-0.937
693	-0.947
694	-0.927
694	-0.926
695	-0.927
695	-0.92
695	-0.927
696	-0.934
696	-0.928
697	-0.922
697	-0.918
698	-0.912
698	-0.903
698	-0.915
699	-0.914
699	-0.913
700	-0.932
700	-0.925
701	-0.91
701	-0.902
702	-0.901
702	-0.899
702	-0.9
703	-0.89
703	-0.879
704	-0.885
704	-0.888
705	-0.876
705	-0.875
705	-0.87
706	-0.864
706	-0.86
707	-0.87
707	-0.873
708	-0.869
708	-0.866
709	-0.868
709	-0.865
709	-0.861
710	-0.869
710	-0.873
711	-0.872
711	-0.873
712	-0.863
712	-0.859
713	-0.865
713	-0.866
713	-0.846
714	-0.847
714	-0.85
715	-0.84
715	-0.848
716	-0.863
716	-0.872
716	-0.873
717	-0.88
717	-0.872
718	-0.866
718	-0.865
719	-0.862
719	-0.855
720	-0.851
720	-0.845
720	-0.84
721	-0.831
721	-0.835
722	-0.832
722	-0.829
723	-0.844
723	-0.859
723	-0.868
724	-0.867
724	-0.871
725	-0.864
725	-0.869
726	-0.872
726	-0.863
727	-0.865
727	-0.873
727	-0.864
728	-0.85
728	-0.845
729	-0.846
729	-0.85
730	-0.855
730	-0.844
730	-0.85
731	-0.853
731	-0.854
732	-0.855
732	-0.85
733	-0.865
733	-0.871
734	-0.879
734	-0.87
734	-0.853
735	-0.845
735	-0.839
736	-0.838
736	-0.832
737	-0.831
737	-0.82
737	-0.813
738	-0.799
738	-0.788
739	-0.79
739	-0.792
740	-0.804
740	-0.805
741	-0.816
741	-0.826
741	-0.836
742	-0.842
742	-0.858
743	-0.864
743	-0.867
744	-0.87
744	-0.878
744	-0.872
745	-0.879
745	-0.868
746	-0.862
746	-0.852
747	-0.855
747	-0.845
748	-0.848
748	-0.851
748	-0.853
749	-0.846
749	-0.853
750	-0.845
750	-0.844
751	-0.844
751	-0.842
751	-0.854
752	-0.857
752	-0.86
753	-0.862
753	-0.852
754	-0.87
754	-0.87
754	-0.876
755	-0.878
755	-0.87
756	-0.874
756	-0.859
757	-0.851
757	-0.839
758	-0.841
758	-0.842
758	-0.839
759	-0.845
759	-0.843
760	-0.841
760	-0.842
761	-0.835
761	-0.839
761	-0.839
762	-0.845
762	-0.846
763	-0.846
763	-0.851
764	-0.847
764	-0.845
764	-0.85
765	-0.85
765	-0.856
766	-0.86
766	-0.862
767	-0.877
767	-0.872
768	-0.871
768	-0.862
768	-0.858
769	-0.863
769	-0.873
770	-0.883
770	-0.886
771	-0.881
771	-0.881
771	-0.885
772	-0.889
772	-0.909
773	-0.91
773	-0.909
774	-0.906
774	-0.887
775	-0.874
775	-0.875
775	-0.878
776	-0.889
776	-0.885
777	-0.886
777	-0.869
778	-0.878
778	-0.888
778	-0.887
779	-0.897
779	-0.913
780	-0.909
780	-0.919
781	-0.908
781	-0.899
781	-0.913
782	-0.935
782	-0.937
783	-0.936
783	-0.944
784	-0.948
784	-0.941
784	-0.96
785	-0.953
785	-0.966
786	-0.969
786	-0.96
787	-0.949
787	-0.957
788	-0.948
788	-0.943
788	-0.942
789	-0.943
789	-0.932
790	-0.931
790	-0.915
791	-0.921
791	-0.916
791	-0.909
792	-0.903
792	-0.909
793	-0.911
793	-0.898
794	-0.89
794	-0.883
794	-0.89
795	-0.91
795	-0.897
796	-0.901
796	-0.897
797	-0.89
797	-0.881
797	-0.875
798	-0.894
798	-0.899
799	-0.899
799	-0.884
800	-0.88
800	-0.887
801	-0.886
801	-0.891
801	-0.888
802	-0.885
802	-0.884
803	-0.88
803	-0.872
804	-0.879
804	-0.886
804	-0.871
805	-0.853
805	-0.843
806	-0.844
806	-0.838
807	-0.839
807	-0.839
807	-0.822
808	-0.818
808	-0.809
809	-0.804
809	-0.803
810	-0.805
810	-0.803
810	-0.799
811	-0.803
811	-0.794
812	-0.786
812	-0.789
813	-0.792
813	-0.794
813	-0.792
814	-0.793
814	-0.798
815	-0.789
815	-0.784
816	-0.78
816	-0.799
817	-0.813
817	-0.816
817	-0.825
818	-0.818
818	-0.815
819	-0.825
819	-0.823
820	-0.835
820	-0.837
820	-0.836
821	-0.83
821	-0.826
822	-0.824
822	-0.814
823	-0.825
823	-0.823
823	-0.818
824	-0.816
824	-0.825
825	-0.821
825	-0.82
826	-0.816
826	-0.811
826	-0.811
827	-0.809
827	-0.799
828	-0.799
828	-0.793
829	-0.787
829	-0.77
829	-0.769
830	-0.767
830	-0.754
831	-0.747
831	-0.737
832	-0.727
832	-0.722
832	-0.715
833	-0.716
833	-0.72
834	-0.716
834	-0.71
835	-0.701
835	-0.699
835	-0.692
836	-0.688
836	-0.684
837	-0.673
837	-0.663
838	-0.647
838	-0.63
839	-0.624
839	-0.611
839	-0.602
840	-0.599
840	-0.589
841	-0.577
841	-0.571
842	-0.562
842	-0.55
842	-0.547
843	-0.543
843	-0.54
844	-0.537
844	-0.523
845	-0.508
845	-0.5
845	-0.488
846	-0.475
846	-0.464
847	-0.454
847	-0.442
848	-0.426
848	-0.407
848	-0.393
849	-0.38
849	-0.368
850	-0.355
850	-0.344
851	-0.33
851	-0.312
851	-0.3
852	-0.282
852	-0.267
853	-0.258
853	-0.246
854	-0.235
854	-0.222
854	-0.209
855	-0.197
855	-0.187
856	-0.178
856	-0.168
857	-0.16
857	-0.151
857	-0.136
858	-0.123
858	-0.114
859	-0.102
859	-0.088
860	-0.075
860	-0.059
860	-0.047
861	-0.035
861	-0.023
862	-0.014
862	-0.005
863	0.005
863	0.016
863	0.024
864	0.03
864	0.039
865	0.046
865	0.053
866	0.06
866	0.067
866	0.074
867	0.08
867	0.087
868	0.092
868	0.098
869	0.104
869	0.108
869	0.111
870	0.114
870	0.117
871	0.119
871	0.12
872	0.121
872	0.122
872	0.123
873	0.123
873	0.122
874	0.121
874	0.12
875	0.12
875	0.119
875	0.119
876	0.118
876	0.117
877	0.116
877	0.115
878	0.115
878	0.114
878	0.114
879	0.114
879	0.114
880	0.113
880	0.113
881	0.112
881	0.111
881	0.111
882	0.109
882	0.108
883	0.106
883	0.105
884	0.104
884	0.103
884	0.102
885	0.102
885	0.102
886	0.102
886	0.101
887	0.1
887	0.1
887	0.099
888	0.099
888	0.098
889	0.097
889	0.096
890	0.095
890	0.094
890	0.093
891	0.093
891	0.093
892	0.093
892	0.093
893	0.093
893	0.093
893	0.093
894	0.093
894	0.093
895	0.093
895	0.093
895	0.092
896	0.092
896	0.092
897	0.092
897	0.092
898	0.092
898	0.093
898	0.093
899	0.093
899	0.093
900	0.092
900	0.092
901	0.092
901	0.092
901	0.091
902	0.091
902	0.091
903	0.091
903	0.091
904	0.09
904	0.09
904	0.091
905	0.091
905	0.091
906	0.092
906	0.092
907	0.093
907	0.093
907	0.093
908	0.093
908	0.094
909	0.095
909	0.095
910	0.096
910	0.096
910	0.097
911	0.097
911	0.098
912	0.098
912	0.099
913	0.099
913	0.1
913	0.1
914	0.1
914	0.1
915	0.1
915	0.1
916	0.1
916	0.099
916	0.099
917	0.099
917	0.099
918	0.099
918	0.099
918	0.099
919	0.099
919	0.099
920	0.099
920	0.1
921	0.101
921	0.101
921	0.102
922	0.102
922	0.102
923	0.103
923	0.103
924	0.102
924	0.102
924	0.101
925	0.1
925	0.098
926	0.097
926	0.096
927	0.095
927	0.094
927	0.094
928	0.093
928	0.094
929	0.095
929	0.095
930	0.096
930	0.097
930	0.098
931	0.099
931	0.1
932	0.102
932	0.102
933	0.103
933	0.103
933	0.103
934	0.102
934	0.101
935	0.101
935	0.099
935	0.098
936	0.096
936	0.094
937	0.093
937	0.092
938	0.091
938	0.09
938	0.089
939	0.088
939	0.088
940	0.087
940	0.086
941	0.085
941	0.085
941	0.084
942	0.083
942	0.082
943	0.082
943	0.081
944	0.08
944	0.078
944	0.078
945	0.077
945	0.077
946	0.076
946	0.075
946	0.074
947	0.075
947	0.074
948	0.074
948	0.075
949	0.076
949	0.077
949	0.079
950	0.08
950	0.081
951	0.083
951	0.084
952	0.085
952	0.087
952	0.087
953	0.088
953	0.089
954	0.089
954	0.088
955	0.088
955	0.088
955	0.087
956	0.086
956	0.086
957	0.084
957	0.083
957	0.082
958	0.081
958	0.08
959	0.079
959	0.078
960	0.078
960	0.077
960	0.077
961	0.077
961	0.077
962	0.077
962	0.077
963	0.078
963	0.078
963	0.078
964	0.078
964	0.078
965	0.078
965	0.078
966	0.078
966	0.079
966	0.079
967	0.08
967	0.08
968	0.079
968	0.079
968	0.08
969	0.079
969	0.079
970	0.079
970	0.079
971	0.078
971	0.078
971	0.078
972	0.078
972	0.078
973	0.078
973	0.077
974	0.077
974	0.077
974	0.077
975	0.077
975	0.077
976	0.077
976	0.078
976	0.077
977	0.077
977	0.077
978	0.077
978	0.076
979	0.076
979	0.076
979	0.076
980	0.076
980	0.076
981	0.076
981	0.076
982	0.076
982	0.076
982	0.076
983	0.076
983	0.076
984	0.076
984	0.075
984	0.075
985	0.075
985	0.074
986	0.074
986	0.073
987	0.072
987	0.071
987	0.07
988	0.069
988	0.069
989	0.068
989	0.067
990	0.066
990	0.065
990	0.064
991	0.063
991	0.063
992	0.062
992	0.061
992	0.06
993	0.059
993	0.059
994	0.057
994	0.056
995	0.055
995	0.054
995	0.052
996	0.051
996	0.049
997	0.048
997	0.047
997	0.047
998	0.046
998	0.046
999	0.046
999	0.046
1000	0.047
1000	0.047
1000	0.048
1001	0.049
1001	0.05
1002	0.05
1002	0.051
1003	0.051
1003	0.051
1003	0.051
1004	0.052
1004	0.052
1005	0.052
1005	0.051
1005	0.051
1006	0.05
1006	0.05
1007	0.049
1007	0.048
1008	0.047
1008	0.047
1008	0.046
1009	0.046
1009	0.047
1010	0.047
1010	0.047
1010	0.048
1011	0.048
1011	0.049
1012	0.049
1012	0.051
1013	0.052
1013	0.053
1013	0.053
1014	0.054
1014	0.054
1015	0.054
1015	0.054
1016	0.054
1016	0.054
1016	0.054
1017	0.053
1017	0.052
1018	0.052
1018	0.052
1018	0.051
1019	0.051
1019	0.051
1020	0.051
1020	0.05
1021	0.05
1021	0.05
1021	0.05
1022	0.049
1022	0.05
1023	0.05
1023	0.05
1023	0.05
1024	0.05
1024	0.05
1025	0.05
1025	0.051
1026	0.051
1026	0.052
1026	0.051
1027	0.051
1027	0.052
1028	0.052
1028	0.053
1028	0.053
1029	0.053
1029	0.053
1030	0.052
1030	0.052
1031	0.052
1031	0.052
1031	0.052
1032	0.052
1032	0.051
1033	0.05
1033	0.05
1033	0.05
1034	0.05
1034	0.049
1035	0.049
1035	0.049
1036	0.048
1036	0.047
1036	0.047
1037	0.047
1037	0.047
1038	0.047
1038	0.047
1039	0.048
1039	0.048
1039	0.048
1040	0.049
1040	0.049
1041	0.049
1041	0.048
1041	0.048
1042	0.047
1042	0.046
1043	0.045
1043	0.044
1044	0.043
1044	0.042
1044	0.041
1045	0.04
1045	0.04
1046	0.039
1046	0.039
1046	0.039
1047	0.038
1047	0.038
1048	0.039
1048	0.039
1049	0.039
1049	0.039
1049	0.039
1050	0.038
1050	0.038
1051	0.037
1051	0.036
1051	0.036
1052	0.036
1052	0.035
1053	0.034
1053	0.034
1053	0.033
1054	0.032
1054	0.032
1055	0.033
1055	0.033
1056	0.032
1056	0.032
1056	0.032
1057	0.032
1057	0.031
1058	0.031
1058	0.031
1058	0.031
1059	0.03
1059	0.029
1060	0.028
1060	0.028
1061	0.027
1061	0.027
1061	0.027
1062	0.026
1062	0.026
1063	0.026
1063	0.025
1063	0.025
1064	0.026
1064	0.026
1065	0.026
1065	0.026
1066	0.026
1066	0.026
1066	0.026
1067	0.025
1067	0.024
1068	0.023
1068	0.022
1068	0.022
1069	0.021
1069	0.02
1070	0.019
1070	0.018
1071	0.018
1071	0.017
1071	0.017
1072	0.016
1072	0.017
1073	0.017
1073	0.016
1073	0.016
1074	0.016
1074	0.015
1075	0.014
1075	0.014
1076	0.013
1076	0.013
1076	0.012
1077	0.011
1077	0.01
1078	0.009
1078	0.008
1078	0.007
1079	0.007
1079	0.007
1080	0.005
1080	0.005
1080	0.004
1081	0.003
1081	0.003
1082	0.003
1082	0.002
1083	0
1083	-0.001
1083	-0.002
1084	-0.004
1084	-0.004
1085	-0.006
1085	-0.007
1085	-0.008
1086	-0.009
1086	-0.012
1087	-0.013
1087	-0.013
1088	-0.015
1088	-0.016
1088	-0.017
1089	-0.018
1089	-0.02
1090	-0.021
1090	-0.022
1090	-0.024
1091	-0.025
1091	-0.026
1092	-0.027
1092	-0.026
1092	-0.028
1093	-0.029
1093	-0.029
1094	-0.029
1094	-0.03
1095	-0.031
1095	-0.031
1095	-0.032
1096	-0.033
1096	-0.035
1097	-0.036
1097	-0.038
1097	-0.04
1098	-0.042
1098	-0.045
1099	-0.047
1099	-0.049
1100	-0.052
1100	-0.054
1100	-0.058
1101	-0.062
1101	-0.064
1102	-0.066
1102	-0.069
1102	-0.071
1103	-0.074
1103	-0.078
1104	-0.082
1104	-0.084
1104	-0.087
1105	-0.089
1105	-0.092
1106	-0.098
1106	-0.101
1107	-0.107
1107	-0.112
1107	-0.117
1108	-0.118
1108	-0.119
1109	-0.124
1109	-0.129
1109	-0.133
1110	-0.135
1110	-0.138
1111	-0.149
1111	-0.145
