Data from 3.4A_17C_Absorbance__728__02640.txt Node

Date: Tue Jun 20 16:50:57 CEST 2023
User: Marek
Spectrometer: MAYP115816
Trigger mode: 0
Integration Time (sec): 2.200000E-1
Scans to average: 10
Electric dark correction enabled: true
Nonlinearity correction enabled: true
Boxcar width: 5
XAxis mode: Wavelengths
Number of Pixels in Spectrum: 2068
>>>>>Begin Spectral Data<<<<<
199	-0.809
199	-0.786
200	-0.752
200	-0.693
201	-0.667
201	-0.659
202	-0.644
202	-0.639
203	-0.639
203	-0.633
204	-0.613
204	-0.595
205	-0.573
205	-0.563
205	-0.574
206	-0.575
206	-0.57
207	-0.559
207	-0.566
208	-0.566
208	-0.57
209	-0.571
209	-0.579
210	-0.592
210	-0.598
211	-0.591
211	-0.595
212	-0.605
212	-0.615
213	-0.611
213	-0.605
213	-0.603
214	-0.61
214	-0.61
215	-0.607
215	-0.613
216	-0.622
216	-0.627
217	-0.624
217	-0.624
218	-0.631
218	-0.633
219	-0.639
219	-0.641
220	-0.647
220	-0.653
221	-0.652
221	-0.653
221	-0.645
222	-0.644
222	-0.642
223	-0.639
223	-0.643
224	-0.643
224	-0.64
225	-0.638
225	-0.639
226	-0.64
226	-0.639
227	-0.647
227	-0.657
228	-0.661
228	-0.669
229	-0.672
229	-0.669
229	-0.669
230	-0.664
230	-0.661
231	-0.659
231	-0.655
232	-0.658
232	-0.653
233	-0.652
233	-0.641
234	-0.642
234	-0.637
235	-0.642
235	-0.651
236	-0.659
236	-0.659
236	-0.66
237	-0.658
237	-0.658
238	-0.659
238	-0.66
239	-0.662
239	-0.673
240	-0.666
240	-0.663
241	-0.659
241	-0.662
242	-0.665
242	-0.673
243	-0.674
243	-0.678
243	-0.683
244	-0.68
244	-0.68
245	-0.685
245	-0.69
246	-0.699
246	-0.702
247	-0.71
247	-0.695
248	-0.694
248	-0.695
249	-0.703
249	-0.705
250	-0.704
250	-0.711
250	-0.708
251	-0.708
251	-0.707
252	-0.708
252	-0.721
253	-0.717
253	-0.728
254	-0.731
254	-0.732
255	-0.741
255	-0.74
256	-0.741
256	-0.754
257	-0.762
257	-0.758
258	-0.761
258	-0.768
258	-0.768
259	-0.761
259	-0.781
260	-0.782
260	-0.77
261	-0.783
261	-0.77
262	-0.774
262	-0.774
263	-0.764
263	-0.77
264	-0.779
264	-0.78
265	-0.77
265	-0.773
265	-0.784
266	-0.775
266	-0.774
267	-0.774
267	-0.79
268	-0.8
268	-0.792
269	-0.783
269	-0.797
270	-0.8
270	-0.8
271	-0.813
271	-0.822
272	-0.823
272	-0.827
272	-0.819
273	-0.826
273	-0.842
274	-0.834
274	-0.829
275	-0.826
275	-0.811
276	-0.815
276	-0.821
277	-0.824
277	-0.819
278	-0.826
278	-0.827
278	-0.814
279	-0.825
279	-0.839
280	-0.844
280	-0.855
281	-0.849
281	-0.841
282	-0.847
282	-0.844
283	-0.836
283	-0.85
284	-0.864
284	-0.872
285	-0.851
285	-0.856
285	-0.848
286	-0.855
286	-0.872
287	-0.868
287	-0.865
288	-0.863
288	-0.845
289	-0.843
289	-0.852
290	-0.862
290	-0.852
291	-0.855
291	-0.851
292	-0.83
292	-0.828
292	-0.833
293	-0.822
293	-0.817
294	-0.817
294	-0.802
295	-0.784
295	-0.795
296	-0.807
296	-0.803
297	-0.793
297	-0.796
298	-0.793
298	-0.809
298	-0.813
299	-0.795
299	-0.788
300	-0.784
300	-0.765
301	-0.748
301	-0.747
302	-0.758
302	-0.744
303	-0.736
303	-0.725
304	-0.708
304	-0.712
305	-0.704
305	-0.714
305	-0.728
306	-0.711
306	-0.712
307	-0.703
307	-0.715
308	-0.718
308	-0.714
309	-0.716
309	-0.711
310	-0.709
310	-0.704
311	-0.689
311	-0.709
311	-0.694
312	-0.691
312	-0.68
313	-0.67
313	-0.672
314	-0.677
314	-0.675
315	-0.673
315	-0.666
316	-0.662
316	-0.651
317	-0.644
317	-0.641
318	-0.632
318	-0.631
318	-0.62
319	-0.61
319	-0.602
320	-0.598
320	-0.596
321	-0.592
321	-0.593
322	-0.587
322	-0.581
323	-0.583
323	-0.575
324	-0.573
324	-0.563
324	-0.552
325	-0.537
325	-0.52
326	-0.511
326	-0.486
327	-0.471
327	-0.448
328	-0.417
328	-0.393
329	-0.365
329	-0.337
330	-0.309
330	-0.274
330	-0.24
331	-0.204
331	-0.171
332	-0.136
332	-0.104
333	-0.075
333	-0.043
334	-0.014
334	0.011
335	0.037
335	0.058
336	0.08
336	0.1
336	0.116
337	0.133
337	0.149
338	0.161
338	0.171
339	0.183
339	0.193
340	0.201
340	0.209
341	0.216
341	0.222
342	0.228
342	0.233
342	0.238
343	0.242
343	0.247
344	0.249
344	0.252
345	0.255
345	0.258
346	0.26
346	0.262
347	0.263
347	0.265
348	0.266
348	0.267
348	0.268
349	0.269
349	0.27
350	0.27
350	0.271
351	0.271
351	0.272
352	0.272
352	0.272
353	0.272
353	0.272
354	0.272
354	0.272
354	0.272
355	0.272
355	0.272
356	0.273
356	0.273
357	0.274
357	0.274
358	0.274
358	0.274
359	0.274
359	0.274
360	0.274
360	0.275
360	0.275
361	0.274
361	0.274
362	0.274
362	0.274
363	0.274
363	0.274
364	0.274
364	0.273
365	0.273
365	0.273
366	0.273
366	0.273
366	0.273
367	0.274
367	0.273
368	0.273
368	0.273
369	0.273
369	0.273
370	0.273
370	0.273
371	0.272
371	0.272
372	0.272
372	0.272
372	0.272
373	0.271
373	0.271
374	0.271
374	0.271
375	0.271
375	0.27
376	0.27
376	0.27
377	0.27
377	0.27
378	0.27
378	0.269
378	0.269
379	0.269
379	0.269
380	0.269
380	0.269
381	0.269
381	0.269
382	0.269
382	0.268
383	0.269
383	0.269
383	0.268
384	0.268
384	0.268
385	0.268
385	0.267
386	0.267
386	0.267
387	0.267
387	0.267
388	0.267
388	0.266
389	0.267
389	0.267
389	0.267
390	0.267
390	0.266
391	0.266
391	0.266
392	0.266
392	0.266
393	0.266
393	0.265
394	0.265
394	0.265
394	0.265
395	0.264
395	0.264
396	0.264
396	0.264
397	0.264
397	0.263
398	0.263
398	0.263
399	0.262
399	0.262
400	0.262
400	0.262
400	0.262
401	0.261
401	0.261
402	0.261
402	0.261
403	0.261
403	0.261
404	0.261
404	0.26
405	0.26
405	0.26
405	0.26
406	0.26
406	0.26
407	0.259
407	0.259
408	0.259
408	0.258
409	0.259
409	0.258
410	0.258
410	0.258
411	0.258
411	0.258
411	0.258
412	0.258
412	0.257
413	0.257
413	0.257
414	0.257
414	0.257
415	0.256
415	0.256
416	0.256
416	0.255
416	0.255
417	0.255
417	0.255
418	0.255
418	0.255
419	0.255
419	0.255
420	0.255
420	0.255
421	0.255
421	0.255
421	0.255
422	0.255
422	0.255
423	0.255
423	0.255
424	0.254
424	0.254
425	0.254
425	0.254
426	0.254
426	0.254
427	0.254
427	0.254
427	0.254
428	0.254
428	0.254
429	0.254
429	0.253
430	0.253
430	0.253
431	0.253
431	0.252
432	0.252
432	0.251
432	0.251
433	0.251
433	0.251
434	0.251
434	0.251
435	0.251
435	0.251
436	0.251
436	0.251
437	0.251
437	0.251
437	0.251
438	0.251
438	0.251
439	0.251
439	0.251
440	0.251
440	0.251
441	0.251
441	0.25
442	0.25
442	0.25
442	0.25
443	0.25
443	0.25
444	0.25
444	0.25
445	0.25
445	0.25
446	0.25
446	0.25
447	0.25
447	0.25
447	0.25
448	0.25
448	0.25
449	0.25
449	0.25
450	0.25
450	0.25
451	0.25
451	0.25
452	0.25
452	0.25
452	0.25
453	0.25
453	0.25
454	0.249
454	0.249
455	0.25
455	0.25
456	0.25
456	0.25
457	0.249
457	0.249
458	0.249
458	0.249
458	0.25
459	0.25
459	0.249
460	0.249
460	0.249
461	0.249
461	0.249
462	0.249
462	0.25
463	0.25
463	0.251
463	0.251
464	0.252
464	0.252
465	0.252
465	0.253
466	0.253
466	0.253
467	0.254
467	0.254
467	0.253
468	0.253
468	0.253
469	0.253
469	0.254
470	0.254
470	0.254
471	0.254
471	0.254
472	0.254
472	0.254
472	0.255
473	0.255
473	0.256
474	0.256
474	0.257
475	0.257
475	0.258
476	0.258
476	0.259
477	0.259
477	0.26
477	0.261
478	0.261
478	0.261
479	0.262
479	0.262
480	0.262
480	0.262
481	0.263
481	0.264
482	0.264
482	0.265
482	0.266
483	0.267
483	0.269
484	0.27
484	0.27
485	0.271
485	0.272
486	0.272
486	0.273
487	0.274
487	0.275
487	0.276
488	0.276
488	0.276
489	0.277
489	0.278
490	0.28
490	0.28
491	0.282
491	0.283
492	0.284
492	0.285
492	0.286
493	0.287
493	0.288
494	0.29
494	0.291
495	0.292
495	0.293
496	0.295
496	0.296
496	0.297
497	0.299
497	0.3
498	0.302
498	0.303
499	0.304
499	0.306
500	0.308
500	0.31
501	0.311
501	0.313
501	0.314
502	0.315
502	0.317
503	0.319
503	0.321
504	0.322
504	0.324
505	0.326
505	0.328
506	0.33
506	0.332
506	0.334
507	0.336
507	0.338
508	0.341
508	0.343
509	0.345
509	0.347
510	0.349
510	0.351
511	0.352
511	0.354
511	0.356
512	0.357
512	0.358
513	0.359
513	0.361
514	0.362
514	0.364
515	0.365
515	0.366
515	0.367
516	0.369
516	0.37
517	0.372
517	0.373
518	0.374
518	0.375
519	0.377
519	0.378
520	0.379
520	0.38
520	0.382
521	0.382
521	0.383
522	0.384
522	0.386
523	0.387
523	0.388
524	0.389
524	0.39
524	0.39
525	0.391
525	0.392
526	0.393
526	0.393
527	0.394
527	0.394
528	0.394
528	0.394
529	0.395
529	0.395
529	0.395
530	0.395
530	0.395
531	0.395
531	0.394
532	0.394
532	0.394
533	0.394
533	0.394
533	0.393
534	0.393
534	0.392
535	0.392
535	0.392
536	0.392
536	0.391
537	0.391
537	0.39
538	0.39
538	0.389
538	0.388
539	0.387
539	0.386
540	0.385
540	0.384
541	0.383
541	0.381
542	0.38
542	0.379
542	0.378
543	0.376
543	0.375
544	0.373
544	0.373
545	0.371
545	0.37
546	0.369
546	0.367
547	0.365
547	0.363
547	0.362
548	0.361
548	0.359
549	0.358
549	0.356
550	0.355
550	0.354
551	0.352
551	0.35
551	0.349
552	0.347
552	0.346
553	0.344
553	0.343
554	0.341
554	0.339
555	0.336
555	0.335
556	0.333
556	0.331
556	0.329
557	0.328
557	0.326
558	0.324
558	0.323
559	0.322
559	0.32
560	0.318
560	0.317
560	0.316
561	0.315
561	0.314
562	0.313
562	0.311
563	0.31
563	0.309
564	0.308
564	0.307
564	0.306
565	0.306
565	0.305
566	0.303
566	0.303
567	0.302
567	0.301
568	0.3
568	0.298
568	0.297
569	0.296
569	0.295
570	0.293
570	0.29
571	0.29
571	0.288
572	0.287
572	0.285
573	0.284
573	0.282
573	0.28
574	0.279
574	0.279
575	0.278
575	0.279
576	0.279
576	0.277
577	0.276
577	0.275
577	0.275
578	0.275
578	0.275
579	0.276
579	0.275
580	0.273
580	0.27
581	0.268
581	0.268
581	0.268
582	0.268
582	0.268
583	0.268
583	0.267
584	0.265
584	0.263
585	0.264
585	0.265
585	0.265
586	0.264
586	0.264
587	0.262
587	0.261
588	0.259
588	0.259
589	0.258
589	0.258
590	0.257
590	0.256
590	0.257
591	0.257
591	0.256
592	0.255
592	0.253
593	0.253
593	0.253
594	0.252
594	0.251
594	0.25
595	0.25
595	0.249
596	0.248
596	0.249
597	0.251
597	0.25
598	0.25
598	0.25
598	0.25
599	0.25
599	0.25
600	0.249
600	0.249
601	0.249
601	0.249
602	0.248
602	0.248
602	0.248
603	0.248
603	0.249
604	0.249
604	0.248
605	0.249
605	0.249
606	0.248
606	0.247
606	0.246
607	0.246
607	0.246
608	0.245
608	0.243
609	0.243
609	0.243
610	0.242
610	0.241
610	0.241
611	0.241
611	0.241
612	0.241
612	0.241
613	0.241
613	0.241
614	0.239
614	0.238
614	0.237
615	0.236
615	0.235
616	0.235
616	0.234
617	0.234
617	0.233
618	0.232
618	0.232
618	0.232
619	0.232
619	0.232
620	0.232
620	0.232
621	0.23
621	0.229
622	0.228
622	0.226
622	0.224
623	0.223
623	0.223
624	0.223
624	0.221
625	0.22
625	0.22
626	0.219
626	0.218
626	0.218
627	0.218
627	0.218
628	0.217
628	0.217
629	0.216
629	0.214
630	0.213
630	0.211
630	0.211
631	0.21
631	0.208
632	0.206
632	0.205
633	0.203
633	0.201
634	0.199
634	0.198
634	0.196
635	0.194
635	0.192
636	0.189
636	0.187
637	0.184
637	0.181
638	0.179
638	0.176
638	0.173
639	0.169
639	0.165
640	0.162
640	0.158
641	0.154
641	0.15
642	0.146
642	0.143
642	0.139
643	0.134
643	0.13
644	0.125
644	0.12
645	0.115
645	0.11
646	0.104
646	0.098
646	0.091
647	0.084
647	0.077
648	0.07
648	0.062
649	0.054
649	0.047
650	0.04
650	0.033
650	0.024
651	0.015
651	0.002
652	-0.012
652	-0.027
653	-0.04
653	-0.051
653	-0.047
654	-0.028
654	-0.023
655	-0.029
655	-0.035
656	-0.042
656	-0.05
657	-0.055
657	-0.061
657	-0.068
658	-0.076
658	-0.109
659	-0.2
659	-0.294
660	-0.337
660	-0.365
661	-0.394
661	-0.426
661	-0.458
662	-0.487
662	-0.519
663	-0.555
663	-0.595
664	-0.633
664	-0.675
665	-0.722
665	-0.77
665	-0.815
666	-0.866
666	-0.921
667	-0.977
667	-1.04
668	-1.099
668	-1.168
669	-1.236
669	-1.309
669	-1.386
670	-1.465
670	-1.567
671	-1.702
671	-1.982
672	-2.263
672	-2.44
672	-2.568
673	-2.669
673	-2.752
674	-2.831
674	-2.856
675	-2.874
675	-2.88
676	-2.88
676	-2.849
676	-2.786
677	-2.711
677	-2.624
678	-2.498
678	-2.309
679	-1.951
679	-1.715
680	-1.593
680	-1.509
680	-1.434
681	-1.379
681	-1.32
682	-1.274
682	-1.227
683	-1.182
683	-1.155
684	-1.123
684	-1.102
684	-1.078
685	-1.056
685	-1.043
686	-1.018
686	-1.003
687	-0.992
687	-0.978
687	-0.977
688	-0.959
688	-0.95
689	-0.952
689	-0.948
690	-0.933
690	-0.923
691	-0.92
691	-0.923
691	-0.921
692	-0.921
692	-0.916
693	-0.923
693	-0.933
694	-0.913
694	-0.913
695	-0.916
695	-0.91
695	-0.917
696	-0.923
696	-0.917
697	-0.911
697	-0.906
698	-0.9
698	-0.891
698	-0.905
699	-0.902
699	-0.902
700	-0.92
700	-0.914
701	-0.898
701	-0.89
702	-0.892
702	-0.89
702	-0.89
703	-0.881
703	-0.868
704	-0.876
704	-0.878
705	-0.866
705	-0.863
705	-0.861
706	-0.855
706	-0.851
707	-0.863
707	-0.866
708	-0.864
708	-0.86
709	-0.862
709	-0.859
709	-0.856
710	-0.865
710	-0.866
711	-0.865
711	-0.865
712	-0.857
712	-0.853
713	-0.858
713	-0.861
713	-0.84
714	-0.843
714	-0.845
715	-0.836
715	-0.845
716	-0.862
716	-0.871
716	-0.87
717	-0.876
717	-0.867
718	-0.861
718	-0.861
719	-0.856
719	-0.85
720	-0.844
720	-0.84
720	-0.832
721	-0.823
721	-0.828
722	-0.826
722	-0.823
723	-0.84
723	-0.855
723	-0.864
724	-0.862
724	-0.867
725	-0.861
725	-0.865
726	-0.87
726	-0.86
727	-0.862
727	-0.87
727	-0.859
728	-0.844
728	-0.839
729	-0.841
729	-0.844
730	-0.849
730	-0.839
730	-0.843
731	-0.847
731	-0.846
732	-0.848
732	-0.843
733	-0.858
733	-0.867
734	-0.876
734	-0.866
734	-0.849
735	-0.84
735	-0.835
736	-0.833
736	-0.828
737	-0.828
737	-0.819
737	-0.813
738	-0.797
738	-0.784
739	-0.786
739	-0.787
740	-0.8
740	-0.8
741	-0.811
741	-0.82
741	-0.829
742	-0.835
742	-0.849
743	-0.856
743	-0.86
744	-0.864
744	-0.872
744	-0.865
745	-0.875
745	-0.863
746	-0.86
746	-0.85
747	-0.854
747	-0.845
748	-0.847
748	-0.849
748	-0.851
749	-0.844
749	-0.851
750	-0.841
750	-0.842
751	-0.84
751	-0.837
751	-0.849
752	-0.851
752	-0.853
753	-0.856
753	-0.85
754	-0.869
754	-0.869
754	-0.876
755	-0.876
755	-0.868
756	-0.872
756	-0.856
757	-0.847
757	-0.837
758	-0.839
758	-0.836
758	-0.832
759	-0.837
759	-0.835
760	-0.834
760	-0.837
761	-0.831
761	-0.835
761	-0.836
762	-0.841
762	-0.842
763	-0.843
763	-0.847
764	-0.846
764	-0.843
764	-0.849
765	-0.849
765	-0.856
766	-0.86
766	-0.86
767	-0.876
767	-0.871
768	-0.869
768	-0.862
768	-0.857
769	-0.859
769	-0.867
770	-0.877
770	-0.882
771	-0.876
771	-0.876
771	-0.88
772	-0.883
772	-0.905
773	-0.906
773	-0.906
774	-0.906
774	-0.887
775	-0.875
775	-0.873
775	-0.877
776	-0.887
776	-0.883
777	-0.884
777	-0.866
778	-0.875
778	-0.883
778	-0.882
779	-0.89
779	-0.905
780	-0.902
780	-0.912
781	-0.903
781	-0.894
781	-0.907
782	-0.927
782	-0.929
783	-0.929
783	-0.937
784	-0.942
784	-0.935
784	-0.953
785	-0.946
785	-0.957
786	-0.96
786	-0.953
787	-0.94
787	-0.948
788	-0.939
788	-0.935
788	-0.935
789	-0.935
789	-0.925
790	-0.923
790	-0.907
791	-0.915
791	-0.91
791	-0.907
792	-0.901
792	-0.906
793	-0.906
793	-0.894
794	-0.887
794	-0.881
794	-0.889
795	-0.91
795	-0.894
796	-0.9
796	-0.897
797	-0.89
797	-0.88
797	-0.874
798	-0.894
798	-0.896
799	-0.897
799	-0.882
800	-0.879
800	-0.89
801	-0.887
801	-0.89
801	-0.886
802	-0.883
802	-0.88
803	-0.875
803	-0.869
804	-0.874
804	-0.882
804	-0.864
805	-0.842
805	-0.835
806	-0.835
806	-0.833
807	-0.837
807	-0.839
807	-0.821
808	-0.818
808	-0.81
809	-0.806
809	-0.807
810	-0.81
810	-0.806
810	-0.803
811	-0.807
811	-0.797
812	-0.791
812	-0.794
813	-0.796
813	-0.798
813	-0.793
814	-0.795
814	-0.802
815	-0.794
815	-0.79
816	-0.785
816	-0.803
817	-0.814
817	-0.816
817	-0.827
818	-0.819
818	-0.816
819	-0.827
819	-0.824
820	-0.833
820	-0.832
820	-0.83
821	-0.823
821	-0.819
822	-0.818
822	-0.806
823	-0.818
823	-0.818
823	-0.812
824	-0.809
824	-0.822
825	-0.821
825	-0.819
826	-0.816
826	-0.812
826	-0.812
827	-0.812
827	-0.801
828	-0.799
828	-0.792
829	-0.786
829	-0.77
829	-0.767
830	-0.766
830	-0.751
831	-0.743
831	-0.731
832	-0.721
832	-0.717
832	-0.71
833	-0.709
833	-0.715
834	-0.71
834	-0.705
835	-0.697
835	-0.695
835	-0.69
836	-0.687
836	-0.682
837	-0.671
837	-0.663
838	-0.65
838	-0.632
839	-0.626
839	-0.612
839	-0.603
840	-0.603
840	-0.593
841	-0.58
841	-0.574
842	-0.566
842	-0.554
842	-0.551
843	-0.547
843	-0.542
844	-0.542
844	-0.53
845	-0.515
845	-0.504
845	-0.495
846	-0.482
846	-0.47
847	-0.458
847	-0.445
848	-0.429
848	-0.412
848	-0.394
849	-0.381
849	-0.369
850	-0.359
850	-0.348
851	-0.334
851	-0.318
851	-0.309
852	-0.291
852	-0.278
853	-0.269
853	-0.258
854	-0.246
854	-0.233
854	-0.219
855	-0.207
855	-0.198
856	-0.189
856	-0.179
857	-0.17
857	-0.161
857	-0.146
858	-0.134
858	-0.125
859	-0.112
859	-0.1
860	-0.088
860	-0.072
860	-0.061
861	-0.049
861	-0.038
862	-0.028
862	-0.02
863	-0.011
863	-0
863	0.007
864	0.013
864	0.022
865	0.029
865	0.036
866	0.042
866	0.049
866	0.054
867	0.06
867	0.067
868	0.071
868	0.077
869	0.083
869	0.086
869	0.089
870	0.092
870	0.094
871	0.096
871	0.098
872	0.099
872	0.1
872	0.101
873	0.101
873	0.1
874	0.099
874	0.099
875	0.098
875	0.098
875	0.097
876	0.097
876	0.096
877	0.096
877	0.095
878	0.094
878	0.094
878	0.094
879	0.093
879	0.093
880	0.093
880	0.092
881	0.091
881	0.09
881	0.09
882	0.089
882	0.087
883	0.086
883	0.084
884	0.083
884	0.083
884	0.082
885	0.081
885	0.081
886	0.081
886	0.08
887	0.08
887	0.079
887	0.079
888	0.078
888	0.077
889	0.076
889	0.076
890	0.075
890	0.074
890	0.073
891	0.073
891	0.073
892	0.073
892	0.073
893	0.073
893	0.073
893	0.073
894	0.073
894	0.073
895	0.073
895	0.072
895	0.072
896	0.072
896	0.072
897	0.072
897	0.072
898	0.072
898	0.072
898	0.072
899	0.072
899	0.072
900	0.072
900	0.072
901	0.072
901	0.072
901	0.071
902	0.071
902	0.071
903	0.071
903	0.071
904	0.07
904	0.07
904	0.07
905	0.07
905	0.071
906	0.071
906	0.072
907	0.072
907	0.073
907	0.073
908	0.074
908	0.074
909	0.075
909	0.075
910	0.076
910	0.076
910	0.077
911	0.077
911	0.078
912	0.078
912	0.079
913	0.079
913	0.08
913	0.08
914	0.08
914	0.08
915	0.08
915	0.08
916	0.08
916	0.08
916	0.08
917	0.08
917	0.08
918	0.08
918	0.08
918	0.08
919	0.079
919	0.08
920	0.08
920	0.081
921	0.081
921	0.082
921	0.082
922	0.083
922	0.083
923	0.083
923	0.083
924	0.083
924	0.083
924	0.082
925	0.08
925	0.079
926	0.078
926	0.077
927	0.076
927	0.075
927	0.074
928	0.074
928	0.074
929	0.074
929	0.075
930	0.075
930	0.076
930	0.077
931	0.078
931	0.079
932	0.08
932	0.081
933	0.082
933	0.083
933	0.082
934	0.082
934	0.081
935	0.081
935	0.08
935	0.078
936	0.077
936	0.075
937	0.074
937	0.073
938	0.072
938	0.071
938	0.071
939	0.07
939	0.069
940	0.069
940	0.068
941	0.067
941	0.066
941	0.066
942	0.065
942	0.064
943	0.064
943	0.063
944	0.062
944	0.061
944	0.06
945	0.059
945	0.059
946	0.058
946	0.058
946	0.057
947	0.057
947	0.057
948	0.058
948	0.059
949	0.059
949	0.06
949	0.062
950	0.063
950	0.065
951	0.066
951	0.067
952	0.068
952	0.07
952	0.07
953	0.071
953	0.072
954	0.072
954	0.071
955	0.071
955	0.07
955	0.07
956	0.069
956	0.068
957	0.067
957	0.066
957	0.065
958	0.064
958	0.064
959	0.063
959	0.062
960	0.062
960	0.061
960	0.061
961	0.061
961	0.061
962	0.061
962	0.062
963	0.062
963	0.062
963	0.062
964	0.062
964	0.063
965	0.063
965	0.063
966	0.063
966	0.064
966	0.064
967	0.065
967	0.064
968	0.064
968	0.064
968	0.064
969	0.064
969	0.064
970	0.063
970	0.063
971	0.063
971	0.062
971	0.062
972	0.062
972	0.062
973	0.062
973	0.062
974	0.062
974	0.062
974	0.063
975	0.063
975	0.063
976	0.063
976	0.063
976	0.063
977	0.063
977	0.062
978	0.062
978	0.061
979	0.061
979	0.061
979	0.061
980	0.061
980	0.06
981	0.06
981	0.06
982	0.061
982	0.061
982	0.061
983	0.061
983	0.06
984	0.06
984	0.06
984	0.059
985	0.059
985	0.059
986	0.058
986	0.057
987	0.056
987	0.055
987	0.055
988	0.054
988	0.053
989	0.053
989	0.052
990	0.051
990	0.05
990	0.049
991	0.048
991	0.047
992	0.047
992	0.046
992	0.045
993	0.044
993	0.043
994	0.042
994	0.04
995	0.039
995	0.037
995	0.036
996	0.034
996	0.033
997	0.032
997	0.031
997	0.03
998	0.03
998	0.03
999	0.03
999	0.03
1000	0.03
1000	0.031
1000	0.031
1001	0.032
1001	0.033
1002	0.034
1002	0.034
1003	0.035
1003	0.035
1003	0.035
1004	0.035
1004	0.035
1005	0.035
1005	0.035
1005	0.034
1006	0.034
1006	0.033
1007	0.032
1007	0.031
1008	0.031
1008	0.03
1008	0.03
1009	0.03
1009	0.03
1010	0.03
1010	0.031
1010	0.031
1011	0.032
1011	0.032
1012	0.033
1012	0.034
1013	0.036
1013	0.036
1013	0.036
1014	0.037
1014	0.038
1015	0.038
1015	0.038
1016	0.039
1016	0.039
1016	0.038
1017	0.037
1017	0.037
1018	0.037
1018	0.037
1018	0.037
1019	0.037
1019	0.036
1020	0.036
1020	0.035
1021	0.035
1021	0.035
1021	0.035
1022	0.035
1022	0.035
1023	0.035
1023	0.035
1023	0.035
1024	0.036
1024	0.036
1025	0.036
1025	0.036
1026	0.037
1026	0.037
1026	0.037
1027	0.037
1027	0.037
1028	0.038
1028	0.038
1028	0.038
1029	0.038
1029	0.038
1030	0.038
1030	0.037
1031	0.037
1031	0.038
1031	0.037
1032	0.037
1032	0.037
1033	0.036
1033	0.035
1033	0.035
1034	0.035
1034	0.034
1035	0.034
1035	0.033
1036	0.033
1036	0.032
1036	0.032
1037	0.032
1037	0.033
1038	0.032
1038	0.032
1039	0.033
1039	0.033
1039	0.034
1040	0.034
1040	0.034
1041	0.034
1041	0.034
1041	0.034
1042	0.033
1042	0.032
1043	0.031
1043	0.031
1044	0.03
1044	0.029
1044	0.028
1045	0.027
1045	0.026
1046	0.025
1046	0.025
1046	0.025
1047	0.024
1047	0.025
1048	0.025
1048	0.025
1049	0.025
1049	0.025
1049	0.025
1050	0.024
1050	0.024
1051	0.023
1051	0.022
1051	0.022
1052	0.021
1052	0.02
1053	0.02
1053	0.02
1053	0.019
1054	0.019
1054	0.018
1055	0.019
1055	0.019
1056	0.018
1056	0.018
1056	0.018
1057	0.018
1057	0.017
1058	0.017
1058	0.017
1058	0.017
1059	0.016
1059	0.015
1060	0.014
1060	0.014
1061	0.013
1061	0.013
1061	0.013
1062	0.013
1062	0.012
1063	0.012
1063	0.012
1063	0.012
1064	0.012
1064	0.013
1065	0.013
1065	0.013
1066	0.013
1066	0.013
1066	0.013
1067	0.013
1067	0.012
1068	0.011
1068	0.01
1068	0.009
1069	0.008
1069	0.007
1070	0.006
1070	0.006
1071	0.005
1071	0.005
1071	0.004
1072	0.004
1072	0.004
1073	0.004
1073	0.003
1073	0.003
1074	0.003
1074	0.003
1075	0.002
1075	0.001
1076	0
1076	0
1076	-0.001
1077	-0.001
1077	-0.002
1078	-0.003
1078	-0.004
1078	-0.004
1079	-0.005
1079	-0.005
1080	-0.007
1080	-0.008
1080	-0.009
1081	-0.01
1081	-0.011
1082	-0.011
1082	-0.013
1083	-0.014
1083	-0.015
1083	-0.016
1084	-0.018
1084	-0.019
1085	-0.02
1085	-0.021
1085	-0.022
1086	-0.024
1086	-0.025
1087	-0.026
1087	-0.026
1088	-0.028
1088	-0.029
1088	-0.029
1089	-0.03
1089	-0.032
1090	-0.033
1090	-0.034
1090	-0.035
1091	-0.037
1091	-0.037
1092	-0.038
1092	-0.038
1092	-0.039
1093	-0.04
1093	-0.04
1094	-0.04
1094	-0.041
1095	-0.042
1095	-0.042
1095	-0.042
1096	-0.044
1096	-0.046
1097	-0.047
1097	-0.05
1097	-0.052
1098	-0.054
1098	-0.056
1099	-0.058
1099	-0.06
1100	-0.063
1100	-0.066
1100	-0.069
1101	-0.072
1101	-0.075
1102	-0.078
1102	-0.081
1102	-0.082
1103	-0.085
1103	-0.089
1104	-0.092
1104	-0.096
1104	-0.097
1105	-0.099
1105	-0.102
1106	-0.108
1106	-0.11
1107	-0.117
1107	-0.122
1107	-0.127
1108	-0.128
1108	-0.129
1109	-0.133
1109	-0.139
1109	-0.143
1110	-0.145
1110	-0.148
1111	-0.159
1111	-0.152
