Data from 3.4A_17C_Absorbance__780__02692.txt Node

Date: Tue Jun 20 16:52:51 CEST 2023
User: Marek
Spectrometer: MAYP115816
Trigger mode: 0
Integration Time (sec): 2.200000E-1
Scans to average: 10
Electric dark correction enabled: true
Nonlinearity correction enabled: true
Boxcar width: 5
XAxis mode: Wavelengths
Number of Pixels in Spectrum: 2068
>>>>>Begin Spectral Data<<<<<
199	-0.799
199	-0.787
200	-0.752
200	-0.701
201	-0.676
201	-0.666
202	-0.651
202	-0.643
203	-0.642
203	-0.635
204	-0.615
204	-0.6
205	-0.576
205	-0.567
205	-0.573
206	-0.573
206	-0.569
207	-0.559
207	-0.566
208	-0.565
208	-0.57
209	-0.571
209	-0.577
210	-0.591
210	-0.599
211	-0.593
211	-0.598
212	-0.606
212	-0.614
213	-0.61
213	-0.606
213	-0.603
214	-0.61
214	-0.611
215	-0.607
215	-0.612
216	-0.62
216	-0.624
217	-0.623
217	-0.624
218	-0.633
218	-0.635
219	-0.642
219	-0.643
220	-0.647
220	-0.652
221	-0.651
221	-0.652
221	-0.646
222	-0.646
222	-0.646
223	-0.64
223	-0.643
224	-0.644
224	-0.642
225	-0.64
225	-0.643
226	-0.644
226	-0.643
227	-0.649
227	-0.658
228	-0.66
228	-0.669
229	-0.675
229	-0.671
229	-0.673
230	-0.667
230	-0.664
231	-0.66
231	-0.656
232	-0.66
232	-0.655
233	-0.656
233	-0.644
234	-0.643
234	-0.638
235	-0.643
235	-0.656
236	-0.665
236	-0.666
236	-0.666
237	-0.664
237	-0.666
238	-0.666
238	-0.668
239	-0.67
239	-0.68
240	-0.673
240	-0.667
241	-0.662
241	-0.667
242	-0.67
242	-0.678
243	-0.678
243	-0.681
243	-0.686
244	-0.682
244	-0.683
245	-0.686
245	-0.69
246	-0.699
246	-0.699
247	-0.707
247	-0.694
248	-0.693
248	-0.695
249	-0.7
249	-0.702
250	-0.701
250	-0.709
250	-0.708
251	-0.709
251	-0.706
252	-0.705
252	-0.717
253	-0.713
253	-0.723
254	-0.728
254	-0.728
255	-0.738
255	-0.738
256	-0.74
256	-0.753
257	-0.763
257	-0.76
258	-0.761
258	-0.77
258	-0.769
259	-0.763
259	-0.781
260	-0.782
260	-0.771
261	-0.782
261	-0.767
262	-0.772
262	-0.773
263	-0.763
263	-0.768
264	-0.778
264	-0.778
265	-0.769
265	-0.769
265	-0.779
266	-0.771
266	-0.772
267	-0.773
267	-0.79
268	-0.8
268	-0.794
269	-0.786
269	-0.8
270	-0.804
270	-0.802
271	-0.815
271	-0.825
272	-0.825
272	-0.827
272	-0.817
273	-0.826
273	-0.842
274	-0.834
274	-0.831
275	-0.827
275	-0.817
276	-0.821
276	-0.824
277	-0.827
277	-0.825
278	-0.831
278	-0.832
278	-0.818
279	-0.827
279	-0.84
280	-0.844
280	-0.855
281	-0.848
281	-0.84
282	-0.848
282	-0.842
283	-0.834
283	-0.85
284	-0.865
284	-0.875
285	-0.855
285	-0.861
285	-0.852
286	-0.859
286	-0.876
287	-0.871
287	-0.869
288	-0.87
288	-0.849
289	-0.846
289	-0.853
290	-0.861
290	-0.85
291	-0.853
291	-0.85
292	-0.83
292	-0.828
292	-0.834
293	-0.822
293	-0.819
294	-0.821
294	-0.808
295	-0.79
295	-0.802
296	-0.814
296	-0.81
297	-0.797
297	-0.802
298	-0.796
298	-0.813
298	-0.816
299	-0.796
299	-0.788
300	-0.786
300	-0.768
301	-0.75
301	-0.751
302	-0.764
302	-0.748
303	-0.742
303	-0.73
304	-0.713
304	-0.716
305	-0.708
305	-0.716
305	-0.731
306	-0.715
306	-0.715
307	-0.704
307	-0.717
308	-0.72
308	-0.714
309	-0.715
309	-0.713
310	-0.712
310	-0.706
311	-0.692
311	-0.711
311	-0.699
312	-0.698
312	-0.687
313	-0.68
313	-0.68
314	-0.686
314	-0.684
315	-0.68
315	-0.673
316	-0.667
316	-0.657
317	-0.648
317	-0.646
318	-0.636
318	-0.634
318	-0.623
319	-0.611
319	-0.603
320	-0.6
320	-0.598
321	-0.593
321	-0.592
322	-0.587
322	-0.578
323	-0.579
323	-0.569
324	-0.566
324	-0.556
324	-0.545
325	-0.531
325	-0.513
326	-0.505
326	-0.48
327	-0.467
327	-0.446
328	-0.415
328	-0.392
329	-0.365
329	-0.339
330	-0.314
330	-0.28
330	-0.247
331	-0.211
331	-0.18
332	-0.147
332	-0.116
333	-0.088
333	-0.056
334	-0.03
334	-0.005
335	0.02
335	0.04
336	0.061
336	0.08
336	0.096
337	0.113
337	0.128
338	0.142
338	0.151
339	0.164
339	0.174
340	0.182
340	0.19
341	0.196
341	0.202
342	0.208
342	0.213
342	0.218
343	0.221
343	0.226
344	0.228
344	0.231
345	0.234
345	0.236
346	0.238
346	0.239
347	0.24
347	0.242
348	0.243
348	0.245
348	0.245
349	0.246
349	0.247
350	0.247
350	0.248
351	0.249
351	0.249
352	0.249
352	0.25
353	0.25
353	0.25
354	0.25
354	0.25
354	0.25
355	0.25
355	0.25
356	0.25
356	0.25
357	0.251
357	0.251
358	0.251
358	0.251
359	0.251
359	0.251
360	0.251
360	0.251
360	0.252
361	0.251
361	0.251
362	0.251
362	0.251
363	0.251
363	0.251
364	0.251
364	0.251
365	0.251
365	0.251
366	0.251
366	0.251
366	0.252
367	0.252
367	0.251
368	0.251
368	0.251
369	0.251
369	0.251
370	0.251
370	0.251
371	0.25
371	0.25
372	0.25
372	0.25
372	0.25
373	0.25
373	0.25
374	0.25
374	0.25
375	0.25
375	0.25
376	0.25
376	0.25
377	0.25
377	0.25
378	0.249
378	0.249
378	0.249
379	0.249
379	0.249
380	0.249
380	0.249
381	0.249
381	0.248
382	0.248
382	0.248
383	0.248
383	0.249
383	0.248
384	0.248
384	0.248
385	0.248
385	0.248
386	0.248
386	0.248
387	0.247
387	0.247
388	0.247
388	0.247
389	0.247
389	0.247
389	0.247
390	0.247
390	0.247
391	0.247
391	0.247
392	0.247
392	0.247
393	0.247
393	0.247
394	0.247
394	0.247
394	0.246
395	0.246
395	0.246
396	0.245
396	0.245
397	0.245
397	0.245
398	0.245
398	0.244
399	0.244
399	0.244
400	0.244
400	0.244
400	0.244
401	0.243
401	0.243
402	0.243
402	0.243
403	0.243
403	0.243
404	0.243
404	0.243
405	0.243
405	0.242
405	0.242
406	0.242
406	0.242
407	0.242
407	0.242
408	0.242
408	0.241
409	0.241
409	0.241
410	0.241
410	0.241
411	0.241
411	0.241
411	0.241
412	0.241
412	0.24
413	0.24
413	0.24
414	0.24
414	0.24
415	0.239
415	0.239
416	0.239
416	0.238
416	0.238
417	0.238
417	0.238
418	0.238
418	0.238
419	0.238
419	0.238
420	0.238
420	0.238
421	0.238
421	0.238
421	0.238
422	0.238
422	0.238
423	0.238
423	0.238
424	0.237
424	0.237
425	0.237
425	0.237
426	0.237
426	0.237
427	0.237
427	0.237
427	0.237
428	0.237
428	0.237
429	0.237
429	0.236
430	0.236
430	0.236
431	0.236
431	0.235
432	0.235
432	0.234
432	0.234
433	0.234
433	0.234
434	0.234
434	0.234
435	0.234
435	0.234
436	0.234
436	0.234
437	0.234
437	0.234
437	0.234
438	0.234
438	0.234
439	0.234
439	0.234
440	0.234
440	0.234
441	0.234
441	0.234
442	0.233
442	0.233
442	0.233
443	0.233
443	0.233
444	0.233
444	0.233
445	0.233
445	0.233
446	0.233
446	0.232
447	0.233
447	0.233
447	0.233
448	0.233
448	0.233
449	0.233
449	0.233
450	0.233
450	0.233
451	0.233
451	0.233
452	0.232
452	0.232
452	0.232
453	0.232
453	0.232
454	0.232
454	0.232
455	0.232
455	0.232
456	0.232
456	0.232
457	0.232
457	0.231
458	0.231
458	0.231
458	0.231
459	0.231
459	0.231
460	0.23
460	0.23
461	0.23
461	0.23
462	0.23
462	0.231
463	0.231
463	0.232
463	0.232
464	0.232
464	0.233
465	0.233
465	0.233
466	0.234
466	0.234
467	0.234
467	0.234
467	0.233
468	0.233
468	0.233
469	0.233
469	0.233
470	0.234
470	0.234
471	0.234
471	0.233
472	0.233
472	0.233
472	0.233
473	0.234
473	0.234
474	0.235
474	0.235
475	0.235
475	0.236
476	0.236
476	0.236
477	0.237
477	0.237
477	0.237
478	0.238
478	0.238
479	0.238
479	0.238
480	0.238
480	0.238
481	0.239
481	0.239
482	0.239
482	0.24
482	0.24
483	0.242
483	0.243
484	0.243
484	0.243
485	0.244
485	0.245
486	0.245
486	0.246
487	0.246
487	0.247
487	0.247
488	0.247
488	0.247
489	0.248
489	0.249
490	0.25
490	0.25
491	0.251
491	0.252
492	0.253
492	0.254
492	0.254
493	0.255
493	0.255
494	0.257
494	0.258
495	0.258
495	0.259
496	0.26
496	0.261
496	0.262
497	0.263
497	0.265
498	0.266
498	0.267
499	0.268
499	0.269
500	0.27
500	0.272
501	0.273
501	0.274
501	0.275
502	0.276
502	0.277
503	0.279
503	0.28
504	0.281
504	0.283
505	0.284
505	0.286
506	0.287
506	0.289
506	0.291
507	0.293
507	0.294
508	0.296
508	0.298
509	0.3
509	0.301
510	0.303
510	0.304
511	0.305
511	0.307
511	0.308
512	0.309
512	0.31
513	0.311
513	0.312
514	0.314
514	0.315
515	0.316
515	0.317
515	0.318
516	0.319
516	0.321
517	0.322
517	0.324
518	0.325
518	0.326
519	0.327
519	0.328
520	0.329
520	0.33
520	0.332
521	0.332
521	0.333
522	0.334
522	0.335
523	0.337
523	0.338
524	0.339
524	0.34
524	0.341
525	0.342
525	0.343
526	0.345
526	0.346
527	0.347
527	0.347
528	0.348
528	0.348
529	0.349
529	0.35
529	0.35
530	0.351
530	0.351
531	0.352
531	0.352
532	0.352
532	0.353
533	0.353
533	0.354
533	0.354
534	0.354
534	0.354
535	0.355
535	0.356
536	0.356
536	0.356
537	0.356
537	0.357
538	0.357
538	0.357
538	0.357
539	0.357
539	0.357
540	0.356
540	0.356
541	0.355
541	0.355
542	0.355
542	0.354
542	0.354
543	0.354
543	0.353
544	0.353
544	0.353
545	0.353
545	0.353
546	0.353
546	0.352
547	0.351
547	0.35
547	0.35
548	0.35
548	0.349
549	0.348
549	0.348
550	0.347
550	0.346
551	0.345
551	0.345
551	0.344
552	0.344
552	0.343
553	0.342
553	0.342
554	0.341
554	0.339
555	0.338
555	0.337
556	0.336
556	0.335
556	0.334
557	0.333
557	0.333
558	0.332
558	0.331
559	0.33
559	0.329
560	0.328
560	0.327
560	0.327
561	0.327
561	0.326
562	0.325
562	0.325
563	0.324
563	0.323
564	0.323
564	0.322
564	0.322
565	0.322
565	0.322
566	0.321
566	0.321
567	0.32
567	0.32
568	0.319
568	0.318
568	0.317
569	0.316
569	0.315
570	0.314
570	0.312
571	0.311
571	0.31
572	0.309
572	0.307
573	0.306
573	0.305
573	0.303
574	0.303
574	0.302
575	0.302
575	0.303
576	0.303
576	0.301
577	0.3
577	0.299
577	0.299
578	0.299
578	0.3
579	0.3
579	0.3
580	0.298
580	0.295
581	0.294
581	0.293
581	0.293
582	0.293
582	0.294
583	0.294
583	0.293
584	0.29
584	0.289
585	0.29
585	0.291
585	0.291
586	0.291
586	0.29
587	0.288
587	0.287
588	0.286
588	0.285
589	0.285
589	0.284
590	0.283
590	0.283
590	0.284
591	0.284
591	0.283
592	0.282
592	0.281
593	0.281
593	0.281
594	0.28
594	0.279
594	0.279
595	0.279
595	0.277
596	0.276
596	0.278
597	0.279
597	0.279
598	0.278
598	0.278
598	0.278
599	0.279
599	0.278
600	0.277
600	0.277
601	0.278
601	0.277
602	0.276
602	0.277
602	0.276
603	0.276
603	0.277
604	0.277
604	0.276
605	0.277
605	0.277
606	0.276
606	0.275
606	0.274
607	0.273
607	0.273
608	0.273
608	0.271
609	0.271
609	0.271
610	0.27
610	0.269
610	0.269
611	0.269
611	0.269
612	0.269
612	0.269
613	0.269
613	0.269
614	0.268
614	0.267
614	0.266
615	0.265
615	0.264
616	0.264
616	0.263
617	0.263
617	0.262
618	0.262
618	0.261
618	0.261
619	0.261
619	0.261
620	0.261
620	0.26
621	0.259
621	0.258
622	0.256
622	0.255
622	0.253
623	0.251
623	0.251
624	0.251
624	0.25
625	0.249
625	0.248
626	0.247
626	0.246
626	0.246
627	0.245
627	0.245
628	0.244
628	0.244
629	0.242
629	0.241
630	0.239
630	0.237
630	0.236
631	0.235
631	0.233
632	0.231
632	0.229
633	0.227
633	0.224
634	0.222
634	0.22
634	0.218
635	0.216
635	0.213
636	0.21
636	0.207
637	0.204
637	0.201
638	0.197
638	0.194
638	0.19
639	0.186
639	0.182
640	0.178
640	0.173
641	0.169
641	0.165
642	0.16
642	0.156
642	0.151
643	0.146
643	0.14
644	0.135
644	0.129
645	0.123
645	0.117
646	0.111
646	0.104
646	0.096
647	0.089
647	0.081
648	0.073
648	0.065
649	0.056
649	0.048
650	0.04
650	0.032
650	0.023
651	0.012
651	-0.002
652	-0.016
652	-0.032
653	-0.047
653	-0.059
653	-0.056
654	-0.034
654	-0.026
655	-0.032
655	-0.037
656	-0.045
656	-0.053
657	-0.059
657	-0.064
657	-0.072
658	-0.08
658	-0.114
659	-0.21
659	-0.309
660	-0.354
660	-0.383
661	-0.412
661	-0.444
661	-0.479
662	-0.509
662	-0.542
663	-0.579
663	-0.621
664	-0.661
664	-0.705
665	-0.753
665	-0.803
665	-0.851
666	-0.906
666	-0.963
667	-1.021
667	-1.087
668	-1.148
668	-1.219
669	-1.288
669	-1.362
669	-1.441
670	-1.522
670	-1.628
671	-1.773
671	-2.056
672	-2.304
672	-2.468
672	-2.589
673	-2.686
673	-2.766
674	-2.843
674	-2.868
675	-2.886
675	-2.89
676	-2.889
676	-2.852
676	-2.79
677	-2.715
677	-2.629
678	-2.506
678	-2.321
679	-1.982
679	-1.754
680	-1.634
680	-1.549
680	-1.473
681	-1.418
681	-1.359
682	-1.31
682	-1.263
683	-1.216
683	-1.188
684	-1.155
684	-1.133
684	-1.106
685	-1.082
685	-1.07
686	-1.044
686	-1.027
687	-1.014
687	-1
687	-0.997
688	-0.978
688	-0.969
689	-0.971
689	-0.969
690	-0.955
690	-0.942
691	-0.938
691	-0.94
691	-0.94
692	-0.939
692	-0.934
693	-0.94
693	-0.948
694	-0.926
694	-0.923
695	-0.924
695	-0.917
695	-0.923
696	-0.929
696	-0.92
697	-0.913
697	-0.907
698	-0.902
698	-0.895
698	-0.907
699	-0.905
699	-0.904
700	-0.924
700	-0.918
701	-0.903
701	-0.897
702	-0.898
702	-0.897
702	-0.895
703	-0.886
703	-0.876
704	-0.883
704	-0.889
705	-0.876
705	-0.875
705	-0.872
706	-0.864
706	-0.861
707	-0.871
707	-0.877
708	-0.875
708	-0.871
709	-0.872
709	-0.867
709	-0.862
710	-0.87
710	-0.872
711	-0.872
711	-0.872
712	-0.863
712	-0.86
713	-0.865
713	-0.867
713	-0.847
714	-0.849
714	-0.853
715	-0.845
715	-0.853
716	-0.869
716	-0.879
716	-0.879
717	-0.884
717	-0.877
718	-0.87
718	-0.871
719	-0.866
719	-0.859
720	-0.853
720	-0.849
720	-0.842
721	-0.831
721	-0.835
722	-0.833
722	-0.828
723	-0.846
723	-0.858
723	-0.866
724	-0.864
724	-0.869
725	-0.863
725	-0.867
726	-0.871
726	-0.861
727	-0.862
727	-0.87
727	-0.861
728	-0.848
728	-0.843
729	-0.845
729	-0.848
730	-0.852
730	-0.842
730	-0.849
731	-0.853
731	-0.852
732	-0.853
732	-0.848
733	-0.863
733	-0.871
734	-0.879
734	-0.87
734	-0.854
735	-0.845
735	-0.839
736	-0.837
736	-0.832
737	-0.831
737	-0.82
737	-0.812
738	-0.798
738	-0.784
739	-0.786
739	-0.785
740	-0.799
740	-0.801
741	-0.811
741	-0.82
741	-0.829
742	-0.838
742	-0.852
743	-0.858
743	-0.863
744	-0.866
744	-0.875
744	-0.869
745	-0.878
745	-0.865
746	-0.861
746	-0.852
747	-0.855
747	-0.845
748	-0.849
748	-0.853
748	-0.854
749	-0.847
749	-0.852
750	-0.841
750	-0.842
751	-0.841
751	-0.837
751	-0.848
752	-0.851
752	-0.853
753	-0.854
753	-0.848
754	-0.868
754	-0.869
754	-0.878
755	-0.879
755	-0.873
756	-0.876
756	-0.862
757	-0.854
757	-0.843
758	-0.844
758	-0.842
758	-0.838
759	-0.843
759	-0.842
760	-0.839
760	-0.84
761	-0.835
761	-0.838
761	-0.84
762	-0.845
762	-0.846
763	-0.847
763	-0.848
764	-0.846
764	-0.844
764	-0.851
765	-0.85
765	-0.856
766	-0.859
766	-0.86
767	-0.876
767	-0.874
768	-0.872
768	-0.866
768	-0.861
769	-0.865
769	-0.872
770	-0.883
770	-0.887
771	-0.883
771	-0.882
771	-0.887
772	-0.89
772	-0.912
773	-0.911
773	-0.91
774	-0.907
774	-0.888
775	-0.874
775	-0.874
775	-0.878
776	-0.889
776	-0.885
777	-0.884
777	-0.865
778	-0.876
778	-0.885
778	-0.885
779	-0.896
779	-0.912
780	-0.91
780	-0.918
781	-0.908
781	-0.898
781	-0.912
782	-0.934
782	-0.935
783	-0.935
783	-0.943
784	-0.946
784	-0.939
784	-0.958
785	-0.952
785	-0.964
786	-0.968
786	-0.96
787	-0.947
787	-0.957
788	-0.95
788	-0.943
788	-0.944
789	-0.944
789	-0.933
790	-0.929
790	-0.914
791	-0.919
791	-0.916
791	-0.909
792	-0.902
792	-0.904
793	-0.908
793	-0.896
794	-0.888
794	-0.881
794	-0.89
795	-0.909
795	-0.896
796	-0.901
796	-0.899
797	-0.893
797	-0.884
797	-0.877
798	-0.896
798	-0.9
799	-0.9
799	-0.884
800	-0.88
800	-0.887
801	-0.885
801	-0.888
801	-0.884
802	-0.883
802	-0.882
803	-0.878
803	-0.87
804	-0.876
804	-0.884
804	-0.868
805	-0.849
805	-0.841
806	-0.841
806	-0.838
807	-0.84
807	-0.837
807	-0.82
808	-0.817
808	-0.808
809	-0.804
809	-0.803
810	-0.806
810	-0.802
810	-0.798
811	-0.802
811	-0.793
812	-0.788
812	-0.79
813	-0.794
813	-0.795
813	-0.79
814	-0.791
814	-0.797
815	-0.789
815	-0.785
816	-0.779
816	-0.796
817	-0.807
817	-0.812
817	-0.822
818	-0.815
818	-0.812
819	-0.822
819	-0.82
820	-0.832
820	-0.831
820	-0.83
821	-0.825
821	-0.82
822	-0.818
822	-0.807
823	-0.819
823	-0.819
823	-0.814
824	-0.812
824	-0.822
825	-0.822
825	-0.82
826	-0.815
826	-0.811
826	-0.811
827	-0.81
827	-0.801
828	-0.801
828	-0.796
829	-0.79
829	-0.776
829	-0.773
830	-0.772
830	-0.758
831	-0.752
831	-0.74
832	-0.732
832	-0.726
832	-0.717
833	-0.716
833	-0.721
834	-0.716
834	-0.709
835	-0.701
835	-0.7
835	-0.694
836	-0.69
836	-0.685
837	-0.675
837	-0.666
838	-0.652
838	-0.634
839	-0.628
839	-0.615
839	-0.603
840	-0.601
840	-0.592
841	-0.58
841	-0.573
842	-0.564
842	-0.552
842	-0.548
843	-0.544
843	-0.538
844	-0.535
844	-0.524
845	-0.509
845	-0.498
845	-0.487
846	-0.474
846	-0.462
847	-0.451
847	-0.437
848	-0.423
848	-0.405
848	-0.389
849	-0.375
849	-0.362
850	-0.351
850	-0.341
851	-0.327
851	-0.309
851	-0.299
852	-0.282
852	-0.268
853	-0.258
853	-0.247
854	-0.235
854	-0.223
854	-0.21
855	-0.196
855	-0.187
856	-0.18
856	-0.169
857	-0.161
857	-0.152
857	-0.136
858	-0.124
858	-0.116
859	-0.103
859	-0.089
860	-0.077
860	-0.059
860	-0.048
861	-0.036
861	-0.024
862	-0.014
862	-0.005
863	0.005
863	0.016
863	0.023
864	0.03
864	0.038
865	0.045
865	0.053
866	0.059
866	0.066
866	0.072
867	0.079
867	0.086
868	0.091
868	0.097
869	0.102
869	0.107
869	0.11
870	0.112
870	0.115
871	0.117
871	0.118
872	0.12
872	0.12
872	0.121
873	0.121
873	0.12
874	0.12
874	0.119
875	0.118
875	0.117
875	0.117
876	0.116
876	0.116
877	0.115
877	0.114
878	0.113
878	0.112
878	0.112
879	0.111
879	0.111
880	0.111
880	0.11
881	0.11
881	0.109
881	0.108
882	0.107
882	0.105
883	0.104
883	0.102
884	0.102
884	0.101
884	0.1
885	0.1
885	0.099
886	0.099
886	0.099
887	0.098
887	0.098
887	0.097
888	0.097
888	0.096
889	0.095
889	0.094
890	0.093
890	0.092
890	0.092
891	0.092
891	0.091
892	0.092
892	0.092
893	0.092
893	0.092
893	0.092
894	0.092
894	0.092
895	0.092
895	0.092
895	0.091
896	0.091
896	0.091
897	0.091
897	0.091
898	0.09
898	0.09
898	0.09
899	0.09
899	0.09
900	0.09
900	0.09
901	0.089
901	0.089
901	0.089
902	0.089
902	0.089
903	0.089
903	0.088
904	0.088
904	0.088
904	0.088
905	0.089
905	0.089
906	0.09
906	0.091
907	0.091
907	0.091
907	0.091
908	0.092
908	0.092
909	0.093
909	0.093
910	0.094
910	0.095
910	0.095
911	0.095
911	0.096
912	0.097
912	0.097
913	0.098
913	0.098
913	0.098
914	0.098
914	0.098
915	0.098
915	0.098
916	0.098
916	0.098
916	0.098
917	0.097
917	0.097
918	0.097
918	0.097
918	0.097
919	0.097
919	0.097
920	0.097
920	0.098
921	0.099
921	0.099
921	0.1
922	0.1
922	0.1
923	0.1
923	0.1
924	0.1
924	0.1
924	0.099
925	0.098
925	0.096
926	0.095
926	0.094
927	0.093
927	0.092
927	0.092
928	0.091
928	0.091
929	0.092
929	0.093
930	0.094
930	0.094
930	0.095
931	0.096
931	0.098
932	0.099
932	0.1
933	0.101
933	0.101
933	0.101
934	0.1
934	0.099
935	0.099
935	0.097
935	0.096
936	0.094
936	0.093
937	0.091
937	0.09
938	0.089
938	0.088
938	0.087
939	0.086
939	0.086
940	0.085
940	0.084
941	0.083
941	0.083
941	0.082
942	0.081
942	0.081
943	0.08
943	0.079
944	0.078
944	0.077
944	0.076
945	0.075
945	0.075
946	0.074
946	0.072
946	0.072
947	0.072
947	0.072
948	0.072
948	0.073
949	0.073
949	0.075
949	0.076
950	0.078
950	0.079
951	0.081
951	0.082
952	0.083
952	0.084
952	0.085
953	0.085
953	0.086
954	0.086
954	0.086
955	0.086
955	0.086
955	0.085
956	0.084
956	0.083
957	0.082
957	0.081
957	0.08
958	0.079
958	0.078
959	0.077
959	0.076
960	0.075
960	0.075
960	0.075
961	0.075
961	0.075
962	0.075
962	0.075
963	0.075
963	0.075
963	0.075
964	0.075
964	0.075
965	0.076
965	0.076
966	0.076
966	0.076
966	0.077
967	0.077
967	0.077
968	0.077
968	0.077
968	0.077
969	0.077
969	0.077
970	0.076
970	0.076
971	0.076
971	0.076
971	0.075
972	0.076
972	0.076
973	0.076
973	0.075
974	0.075
974	0.075
974	0.075
975	0.076
975	0.076
976	0.075
976	0.076
976	0.076
977	0.076
977	0.075
978	0.075
978	0.074
979	0.074
979	0.074
979	0.074
980	0.073
980	0.073
981	0.073
981	0.073
982	0.073
982	0.073
982	0.073
983	0.073
983	0.073
984	0.073
984	0.073
984	0.073
985	0.073
985	0.072
986	0.071
986	0.071
987	0.07
987	0.069
987	0.069
988	0.068
988	0.067
989	0.066
989	0.065
990	0.065
990	0.064
990	0.063
991	0.062
991	0.061
992	0.061
992	0.06
992	0.059
993	0.058
993	0.057
994	0.056
994	0.055
995	0.054
995	0.052
995	0.051
996	0.049
996	0.048
997	0.047
997	0.046
997	0.045
998	0.045
998	0.045
999	0.045
999	0.045
1000	0.045
1000	0.046
1000	0.046
1001	0.047
1001	0.048
1002	0.049
1002	0.049
1003	0.05
1003	0.05
1003	0.05
1004	0.05
1004	0.05
1005	0.051
1005	0.05
1005	0.05
1006	0.049
1006	0.048
1007	0.048
1007	0.047
1008	0.046
1008	0.046
1008	0.046
1009	0.046
1009	0.046
1010	0.046
1010	0.047
1010	0.047
1011	0.048
1011	0.048
1012	0.049
1012	0.051
1013	0.052
1013	0.052
1013	0.052
1014	0.052
1014	0.053
1015	0.053
1015	0.053
1016	0.053
1016	0.052
1016	0.052
1017	0.051
1017	0.05
1018	0.051
1018	0.05
1018	0.05
1019	0.05
1019	0.049
1020	0.049
1020	0.049
1021	0.049
1021	0.049
1021	0.048
1022	0.048
1022	0.048
1023	0.049
1023	0.048
1023	0.049
1024	0.049
1024	0.049
1025	0.049
1025	0.05
1026	0.05
1026	0.05
1026	0.05
1027	0.05
1027	0.05
1028	0.051
1028	0.051
1028	0.051
1029	0.052
1029	0.052
1030	0.051
1030	0.051
1031	0.05
1031	0.051
1031	0.051
1032	0.05
1032	0.05
1033	0.05
1033	0.049
1033	0.049
1034	0.048
1034	0.048
1035	0.048
1035	0.047
1036	0.047
1036	0.046
1036	0.046
1037	0.045
1037	0.046
1038	0.046
1038	0.046
1039	0.046
1039	0.046
1039	0.047
1040	0.047
1040	0.048
1041	0.047
1041	0.047
1041	0.047
1042	0.046
1042	0.045
1043	0.044
1043	0.043
1044	0.043
1044	0.041
1044	0.041
1045	0.039
1045	0.039
1046	0.038
1046	0.037
1046	0.037
1047	0.037
1047	0.037
1048	0.037
1048	0.037
1049	0.037
1049	0.037
1049	0.037
1050	0.037
1050	0.036
1051	0.036
1051	0.035
1051	0.035
1052	0.034
1052	0.033
1053	0.033
1053	0.032
1053	0.032
1054	0.031
1054	0.031
1055	0.031
1055	0.032
1056	0.031
1056	0.031
1056	0.031
1057	0.03
1057	0.03
1058	0.03
1058	0.029
1058	0.029
1059	0.029
1059	0.028
1060	0.027
1060	0.027
1061	0.026
1061	0.026
1061	0.026
1062	0.025
1062	0.025
1063	0.025
1063	0.024
1063	0.024
1064	0.024
1064	0.025
1065	0.025
1065	0.025
1066	0.025
1066	0.025
1066	0.025
1067	0.024
1067	0.024
1068	0.023
1068	0.022
1068	0.021
1069	0.021
1069	0.019
1070	0.019
1070	0.018
1071	0.017
1071	0.017
1071	0.016
1072	0.015
1072	0.016
1073	0.015
1073	0.015
1073	0.014
1074	0.014
1074	0.014
1075	0.013
1075	0.013
1076	0.012
1076	0.012
1076	0.011
1077	0.01
1077	0.01
1078	0.008
1078	0.008
1078	0.007
1079	0.007
1079	0.006
1080	0.005
1080	0.004
1080	0.003
1081	0.002
1081	0.001
1082	0.001
1082	-0
1083	-0.001
1083	-0.002
1083	-0.003
1084	-0.005
1084	-0.006
1085	-0.007
1085	-0.008
1085	-0.009
1086	-0.011
1086	-0.013
1087	-0.013
1087	-0.014
1088	-0.016
1088	-0.017
1088	-0.018
1089	-0.02
1089	-0.021
1090	-0.023
1090	-0.023
1090	-0.025
1091	-0.026
1091	-0.027
1092	-0.027
1092	-0.027
1092	-0.028
1093	-0.029
1093	-0.029
1094	-0.029
1094	-0.03
1095	-0.032
1095	-0.032
1095	-0.033
1096	-0.034
1096	-0.036
1097	-0.038
1097	-0.039
1097	-0.041
1098	-0.043
1098	-0.046
1099	-0.048
1099	-0.05
1100	-0.052
1100	-0.056
1100	-0.059
1101	-0.063
1101	-0.066
1102	-0.069
1102	-0.072
1102	-0.074
1103	-0.077
1103	-0.08
1104	-0.083
1104	-0.087
1104	-0.089
1105	-0.09
1105	-0.094
1106	-0.097
1106	-0.1
1107	-0.106
1107	-0.11
1107	-0.116
1108	-0.119
1108	-0.12
1109	-0.123
1109	-0.128
1109	-0.134
1110	-0.135
1110	-0.14
1111	-0.15
1111	-0.148
