Data from 3.4A_17C_Absorbance__908__02820.txt Node

Date: Tue Jun 20 16:57:33 CEST 2023
User: Marek
Spectrometer: MAYP115816
Trigger mode: 0
Integration Time (sec): 2.200000E-1
Scans to average: 10
Electric dark correction enabled: true
Nonlinearity correction enabled: true
Boxcar width: 5
XAxis mode: Wavelengths
Number of Pixels in Spectrum: 2068
>>>>>Begin Spectral Data<<<<<
199	-0.798
199	-0.786
200	-0.751
200	-0.696
201	-0.669
201	-0.661
202	-0.646
202	-0.64
203	-0.639
203	-0.631
204	-0.611
204	-0.596
205	-0.572
205	-0.562
205	-0.571
206	-0.573
206	-0.569
207	-0.56
207	-0.565
208	-0.566
208	-0.572
209	-0.574
209	-0.579
210	-0.592
210	-0.598
211	-0.591
211	-0.596
212	-0.605
212	-0.612
213	-0.609
213	-0.605
213	-0.601
214	-0.607
214	-0.61
215	-0.606
215	-0.613
216	-0.623
216	-0.627
217	-0.624
217	-0.625
218	-0.633
218	-0.635
219	-0.641
219	-0.644
220	-0.647
220	-0.653
221	-0.653
221	-0.653
221	-0.644
222	-0.643
222	-0.642
223	-0.638
223	-0.641
224	-0.643
224	-0.642
225	-0.64
225	-0.643
226	-0.644
226	-0.645
227	-0.654
227	-0.664
228	-0.668
228	-0.677
229	-0.681
229	-0.679
229	-0.678
230	-0.674
230	-0.672
231	-0.668
231	-0.662
232	-0.664
232	-0.659
233	-0.659
233	-0.646
234	-0.646
234	-0.64
235	-0.646
235	-0.658
236	-0.665
236	-0.666
236	-0.666
237	-0.663
237	-0.666
238	-0.666
238	-0.668
239	-0.672
239	-0.68
240	-0.673
240	-0.667
241	-0.66
241	-0.663
242	-0.667
242	-0.677
243	-0.674
243	-0.677
243	-0.681
244	-0.677
244	-0.678
245	-0.681
245	-0.685
246	-0.697
246	-0.699
247	-0.707
247	-0.693
248	-0.693
248	-0.696
249	-0.702
249	-0.704
250	-0.704
250	-0.713
250	-0.71
251	-0.71
251	-0.707
252	-0.708
252	-0.72
253	-0.715
253	-0.726
254	-0.73
254	-0.73
255	-0.741
255	-0.738
256	-0.741
256	-0.754
257	-0.766
257	-0.763
258	-0.764
258	-0.772
258	-0.77
259	-0.763
259	-0.781
260	-0.78
260	-0.769
261	-0.781
261	-0.768
262	-0.773
262	-0.772
263	-0.764
263	-0.769
264	-0.779
264	-0.782
265	-0.773
265	-0.775
265	-0.785
266	-0.775
266	-0.774
267	-0.773
267	-0.79
268	-0.797
268	-0.791
269	-0.783
269	-0.797
270	-0.802
270	-0.802
271	-0.816
271	-0.826
272	-0.828
272	-0.831
272	-0.824
273	-0.833
273	-0.848
274	-0.841
274	-0.836
275	-0.834
275	-0.819
276	-0.822
276	-0.827
277	-0.828
277	-0.825
278	-0.831
278	-0.831
278	-0.82
279	-0.829
279	-0.843
280	-0.845
280	-0.858
281	-0.851
281	-0.844
282	-0.851
282	-0.846
283	-0.839
283	-0.852
284	-0.868
284	-0.877
285	-0.856
285	-0.862
285	-0.852
286	-0.858
286	-0.874
287	-0.87
287	-0.868
288	-0.868
288	-0.85
289	-0.847
289	-0.854
290	-0.863
290	-0.852
291	-0.856
291	-0.853
292	-0.835
292	-0.831
292	-0.834
293	-0.823
293	-0.818
294	-0.817
294	-0.806
295	-0.789
295	-0.801
296	-0.813
296	-0.808
297	-0.796
297	-0.802
298	-0.799
298	-0.817
298	-0.82
299	-0.802
299	-0.793
300	-0.789
300	-0.769
301	-0.75
301	-0.753
302	-0.764
302	-0.749
303	-0.741
303	-0.729
304	-0.713
304	-0.716
305	-0.709
305	-0.717
305	-0.732
306	-0.718
306	-0.718
307	-0.711
307	-0.721
308	-0.725
308	-0.72
309	-0.721
309	-0.717
310	-0.716
310	-0.711
311	-0.698
311	-0.718
311	-0.704
312	-0.701
312	-0.689
313	-0.681
313	-0.682
314	-0.687
314	-0.685
315	-0.682
315	-0.675
316	-0.668
316	-0.655
317	-0.649
317	-0.645
318	-0.635
318	-0.634
318	-0.623
319	-0.613
319	-0.603
320	-0.602
320	-0.6
321	-0.596
321	-0.597
322	-0.59
322	-0.584
323	-0.586
323	-0.576
324	-0.573
324	-0.563
324	-0.552
325	-0.537
325	-0.52
326	-0.512
326	-0.487
327	-0.473
327	-0.449
328	-0.418
328	-0.396
329	-0.369
329	-0.341
330	-0.316
330	-0.281
330	-0.249
331	-0.214
331	-0.183
332	-0.152
332	-0.121
333	-0.094
333	-0.062
334	-0.035
334	-0.012
335	0.013
335	0.033
336	0.053
336	0.072
336	0.087
337	0.104
337	0.119
338	0.131
338	0.14
339	0.153
339	0.162
340	0.169
340	0.177
341	0.184
341	0.189
342	0.196
342	0.201
342	0.205
343	0.208
343	0.213
344	0.215
344	0.218
345	0.221
345	0.223
346	0.224
346	0.226
347	0.227
347	0.229
348	0.23
348	0.232
348	0.232
349	0.233
349	0.234
350	0.235
350	0.235
351	0.236
351	0.236
352	0.236
352	0.236
353	0.236
353	0.236
354	0.236
354	0.236
354	0.236
355	0.236
355	0.236
356	0.237
356	0.237
357	0.237
357	0.237
358	0.237
358	0.237
359	0.237
359	0.237
360	0.237
360	0.237
360	0.237
361	0.237
361	0.237
362	0.237
362	0.237
363	0.237
363	0.237
364	0.237
364	0.237
365	0.237
365	0.237
366	0.237
366	0.237
366	0.237
367	0.238
367	0.237
368	0.237
368	0.237
369	0.237
369	0.237
370	0.237
370	0.237
371	0.237
371	0.237
372	0.236
372	0.236
372	0.236
373	0.236
373	0.236
374	0.236
374	0.236
375	0.236
375	0.236
376	0.236
376	0.236
377	0.236
377	0.236
378	0.236
378	0.235
378	0.235
379	0.235
379	0.235
380	0.235
380	0.235
381	0.235
381	0.235
382	0.235
382	0.235
383	0.235
383	0.235
383	0.235
384	0.234
384	0.234
385	0.234
385	0.234
386	0.234
386	0.234
387	0.234
387	0.233
388	0.233
388	0.233
389	0.233
389	0.233
389	0.233
390	0.233
390	0.233
391	0.233
391	0.233
392	0.233
392	0.233
393	0.233
393	0.233
394	0.233
394	0.233
394	0.233
395	0.232
395	0.232
396	0.232
396	0.232
397	0.232
397	0.231
398	0.231
398	0.231
399	0.231
399	0.23
400	0.23
400	0.23
400	0.23
401	0.23
401	0.229
402	0.229
402	0.229
403	0.229
403	0.229
404	0.229
404	0.228
405	0.228
405	0.228
405	0.228
406	0.228
406	0.228
407	0.228
407	0.228
408	0.228
408	0.227
409	0.228
409	0.227
410	0.227
410	0.227
411	0.227
411	0.227
411	0.227
412	0.227
412	0.226
413	0.226
413	0.226
414	0.226
414	0.226
415	0.225
415	0.225
416	0.225
416	0.225
416	0.225
417	0.225
417	0.225
418	0.225
418	0.224
419	0.225
419	0.225
420	0.225
420	0.224
421	0.224
421	0.224
421	0.224
422	0.224
422	0.224
423	0.224
423	0.224
424	0.224
424	0.223
425	0.224
425	0.224
426	0.224
426	0.224
427	0.224
427	0.224
427	0.224
428	0.224
428	0.224
429	0.224
429	0.223
430	0.223
430	0.222
431	0.222
431	0.222
432	0.221
432	0.221
432	0.221
433	0.22
433	0.22
434	0.221
434	0.221
435	0.221
435	0.221
436	0.221
436	0.221
437	0.221
437	0.221
437	0.221
438	0.221
438	0.221
439	0.221
439	0.221
440	0.221
440	0.221
441	0.221
441	0.221
442	0.221
442	0.221
442	0.22
443	0.22
443	0.22
444	0.22
444	0.22
445	0.22
445	0.22
446	0.22
446	0.22
447	0.22
447	0.22
447	0.22
448	0.22
448	0.22
449	0.22
449	0.22
450	0.22
450	0.22
451	0.22
451	0.22
452	0.22
452	0.22
452	0.22
453	0.22
453	0.219
454	0.219
454	0.219
455	0.219
455	0.219
456	0.219
456	0.219
457	0.219
457	0.219
458	0.219
458	0.219
458	0.219
459	0.219
459	0.218
460	0.218
460	0.218
461	0.218
461	0.218
462	0.219
462	0.219
463	0.219
463	0.22
463	0.221
464	0.221
464	0.221
465	0.221
465	0.222
466	0.222
466	0.222
467	0.222
467	0.222
467	0.221
468	0.221
468	0.221
469	0.221
469	0.221
470	0.221
470	0.222
471	0.222
471	0.222
472	0.222
472	0.222
472	0.223
473	0.223
473	0.223
474	0.224
474	0.224
475	0.224
475	0.225
476	0.225
476	0.225
477	0.226
477	0.226
477	0.226
478	0.226
478	0.227
479	0.227
479	0.227
480	0.227
480	0.227
481	0.227
481	0.228
482	0.228
482	0.229
482	0.229
483	0.231
483	0.232
484	0.233
484	0.233
485	0.233
485	0.234
486	0.234
486	0.234
487	0.235
487	0.235
487	0.236
488	0.236
488	0.235
489	0.236
489	0.237
490	0.238
490	0.239
491	0.24
491	0.241
492	0.242
492	0.242
492	0.243
493	0.244
493	0.245
494	0.246
494	0.247
495	0.248
495	0.249
496	0.25
496	0.251
496	0.252
497	0.253
497	0.255
498	0.256
498	0.257
499	0.257
499	0.258
500	0.26
500	0.261
501	0.262
501	0.263
501	0.264
502	0.265
502	0.266
503	0.268
503	0.269
504	0.27
504	0.272
505	0.273
505	0.275
506	0.277
506	0.278
506	0.28
507	0.281
507	0.283
508	0.285
508	0.286
509	0.288
509	0.289
510	0.291
510	0.292
511	0.293
511	0.294
511	0.295
512	0.297
512	0.298
513	0.299
513	0.3
514	0.302
514	0.303
515	0.304
515	0.305
515	0.306
516	0.307
516	0.308
517	0.31
517	0.311
518	0.311
518	0.312
519	0.313
519	0.313
520	0.315
520	0.316
520	0.317
521	0.318
521	0.319
522	0.319
522	0.321
523	0.322
523	0.323
524	0.324
524	0.324
524	0.325
525	0.326
525	0.327
526	0.328
526	0.329
527	0.329
527	0.329
528	0.33
528	0.33
529	0.33
529	0.331
529	0.331
530	0.331
530	0.331
531	0.332
531	0.332
532	0.331
532	0.332
533	0.332
533	0.332
533	0.332
534	0.332
534	0.332
535	0.332
535	0.332
536	0.332
536	0.332
537	0.332
537	0.332
538	0.331
538	0.331
538	0.331
539	0.33
539	0.33
540	0.329
540	0.328
541	0.327
541	0.327
542	0.326
542	0.326
542	0.325
543	0.324
543	0.323
544	0.323
544	0.323
545	0.322
545	0.322
546	0.321
546	0.32
547	0.319
547	0.318
547	0.317
548	0.317
548	0.316
549	0.315
549	0.314
550	0.313
550	0.312
551	0.311
551	0.31
551	0.309
552	0.308
552	0.307
553	0.306
553	0.306
554	0.304
554	0.303
555	0.301
555	0.3
556	0.299
556	0.298
556	0.297
557	0.296
557	0.295
558	0.294
558	0.293
559	0.293
559	0.292
560	0.291
560	0.29
560	0.289
561	0.289
561	0.289
562	0.288
562	0.287
563	0.286
563	0.286
564	0.285
564	0.285
564	0.285
565	0.285
565	0.284
566	0.283
566	0.283
567	0.283
567	0.283
568	0.282
568	0.281
568	0.28
569	0.279
569	0.278
570	0.277
570	0.275
571	0.274
571	0.273
572	0.272
572	0.27
573	0.269
573	0.268
573	0.266
574	0.266
574	0.265
575	0.265
575	0.266
576	0.266
576	0.265
577	0.264
577	0.264
577	0.264
578	0.264
578	0.265
579	0.266
579	0.266
580	0.263
580	0.261
581	0.259
581	0.258
581	0.258
582	0.259
582	0.259
583	0.259
583	0.258
584	0.255
584	0.254
585	0.255
585	0.256
585	0.256
586	0.256
586	0.256
587	0.254
587	0.253
588	0.252
588	0.252
589	0.252
589	0.252
590	0.251
590	0.25
590	0.252
591	0.252
591	0.251
592	0.25
592	0.249
593	0.249
593	0.249
594	0.248
594	0.248
594	0.247
595	0.248
595	0.246
596	0.246
596	0.247
597	0.249
597	0.249
598	0.248
598	0.249
598	0.249
599	0.249
599	0.249
600	0.248
600	0.248
601	0.249
601	0.248
602	0.248
602	0.248
602	0.247
603	0.248
603	0.248
604	0.249
604	0.249
605	0.249
605	0.25
606	0.249
606	0.247
606	0.247
607	0.247
607	0.247
608	0.246
608	0.244
609	0.244
609	0.244
610	0.243
610	0.242
610	0.242
611	0.243
611	0.243
612	0.243
612	0.243
613	0.243
613	0.243
614	0.242
614	0.241
614	0.241
615	0.24
615	0.239
616	0.239
616	0.239
617	0.239
617	0.238
618	0.238
618	0.238
618	0.238
619	0.238
619	0.238
620	0.239
620	0.238
621	0.237
621	0.236
622	0.235
622	0.234
622	0.232
623	0.231
623	0.232
624	0.232
624	0.231
625	0.231
625	0.231
626	0.23
626	0.23
626	0.231
627	0.232
627	0.232
628	0.232
628	0.232
629	0.232
629	0.232
630	0.231
630	0.23
630	0.231
631	0.231
631	0.23
632	0.23
632	0.23
633	0.23
633	0.23
634	0.23
634	0.23
634	0.23
635	0.23
635	0.229
636	0.229
636	0.229
637	0.228
637	0.228
638	0.228
638	0.228
638	0.227
639	0.227
639	0.227
640	0.227
640	0.226
641	0.226
641	0.225
642	0.225
642	0.225
642	0.224
643	0.224
643	0.223
644	0.222
644	0.221
645	0.219
645	0.218
646	0.216
646	0.213
646	0.21
647	0.207
647	0.204
648	0.2
648	0.196
649	0.191
649	0.187
650	0.182
650	0.177
650	0.171
651	0.163
651	0.156
652	0.146
652	0.136
653	0.126
653	0.116
653	0.117
654	0.122
654	0.117
655	0.108
655	0.102
656	0.094
656	0.085
657	0.079
657	0.073
657	0.064
658	0.058
658	0.031
659	-0.035
659	-0.099
660	-0.132
660	-0.155
661	-0.177
661	-0.2
661	-0.226
662	-0.246
662	-0.263
663	-0.281
663	-0.303
664	-0.317
664	-0.339
665	-0.356
665	-0.373
665	-0.385
666	-0.397
666	-0.41
667	-0.42
667	-0.433
668	-0.444
668	-0.465
669	-0.478
669	-0.487
669	-0.502
670	-0.507
670	-0.518
671	-0.527
671	-0.542
672	-0.56
672	-0.58
672	-0.595
673	-0.6
673	-0.609
674	-0.626
674	-0.63
675	-0.646
675	-0.654
676	-0.665
676	-0.663
676	-0.673
677	-0.674
677	-0.692
678	-0.7
678	-0.7
679	-0.704
679	-0.708
680	-0.715
680	-0.722
680	-0.723
681	-0.737
681	-0.735
682	-0.739
682	-0.728
683	-0.719
683	-0.733
684	-0.737
684	-0.742
684	-0.743
685	-0.746
685	-0.756
686	-0.75
686	-0.751
687	-0.754
687	-0.76
687	-0.771
688	-0.764
688	-0.766
689	-0.78
689	-0.783
690	-0.774
690	-0.771
691	-0.774
691	-0.783
691	-0.789
692	-0.792
692	-0.793
693	-0.805
693	-0.82
694	-0.804
694	-0.807
695	-0.815
695	-0.811
695	-0.822
696	-0.831
696	-0.825
697	-0.821
697	-0.821
698	-0.817
698	-0.811
698	-0.826
699	-0.828
699	-0.827
700	-0.849
700	-0.845
701	-0.834
701	-0.83
702	-0.833
702	-0.831
702	-0.833
703	-0.825
703	-0.817
704	-0.824
704	-0.831
705	-0.822
705	-0.822
705	-0.817
706	-0.81
706	-0.806
707	-0.82
707	-0.824
708	-0.82
708	-0.816
709	-0.82
709	-0.814
709	-0.809
710	-0.818
710	-0.824
711	-0.824
711	-0.824
712	-0.815
712	-0.813
713	-0.82
713	-0.823
713	-0.802
714	-0.805
714	-0.807
715	-0.8
715	-0.808
716	-0.826
716	-0.836
716	-0.838
717	-0.845
717	-0.836
718	-0.832
718	-0.833
719	-0.83
719	-0.824
720	-0.819
720	-0.815
720	-0.809
721	-0.8
721	-0.803
722	-0.802
722	-0.799
723	-0.816
723	-0.83
723	-0.838
724	-0.838
724	-0.843
725	-0.836
725	-0.84
726	-0.845
726	-0.837
727	-0.837
727	-0.845
727	-0.837
728	-0.823
728	-0.82
729	-0.821
729	-0.826
730	-0.831
730	-0.821
730	-0.826
731	-0.83
731	-0.834
732	-0.835
732	-0.829
733	-0.844
733	-0.851
734	-0.861
734	-0.852
734	-0.835
735	-0.827
735	-0.823
736	-0.821
736	-0.813
737	-0.814
737	-0.804
737	-0.798
738	-0.783
738	-0.77
739	-0.773
739	-0.775
740	-0.787
740	-0.788
741	-0.8
741	-0.809
741	-0.818
742	-0.824
742	-0.839
743	-0.847
743	-0.849
744	-0.853
744	-0.859
744	-0.854
745	-0.864
745	-0.851
746	-0.846
746	-0.837
747	-0.841
747	-0.831
748	-0.831
748	-0.837
748	-0.837
749	-0.831
749	-0.836
750	-0.826
750	-0.828
751	-0.829
751	-0.826
751	-0.837
752	-0.843
752	-0.847
753	-0.851
753	-0.843
754	-0.863
754	-0.864
754	-0.872
755	-0.874
755	-0.866
756	-0.869
756	-0.854
757	-0.847
757	-0.835
758	-0.833
758	-0.831
758	-0.825
759	-0.831
759	-0.831
760	-0.826
760	-0.829
761	-0.821
761	-0.827
761	-0.825
762	-0.829
762	-0.831
763	-0.833
763	-0.836
764	-0.834
764	-0.83
764	-0.836
765	-0.836
765	-0.843
766	-0.845
766	-0.847
767	-0.864
767	-0.857
768	-0.856
768	-0.848
768	-0.843
769	-0.847
769	-0.855
770	-0.865
770	-0.868
771	-0.863
771	-0.863
771	-0.868
772	-0.874
772	-0.895
773	-0.897
773	-0.896
774	-0.894
774	-0.877
775	-0.865
775	-0.866
775	-0.871
776	-0.88
776	-0.877
777	-0.876
777	-0.859
778	-0.867
778	-0.876
778	-0.876
779	-0.884
779	-0.898
780	-0.892
780	-0.898
781	-0.888
781	-0.877
781	-0.891
782	-0.911
782	-0.912
783	-0.912
783	-0.921
784	-0.923
784	-0.918
784	-0.94
785	-0.933
785	-0.946
786	-0.952
786	-0.946
787	-0.938
787	-0.946
788	-0.939
788	-0.934
788	-0.936
789	-0.937
789	-0.926
790	-0.927
790	-0.911
791	-0.919
791	-0.914
791	-0.907
792	-0.902
792	-0.907
793	-0.91
793	-0.899
794	-0.893
794	-0.886
794	-0.893
795	-0.913
795	-0.898
796	-0.905
796	-0.901
797	-0.894
797	-0.885
797	-0.878
798	-0.896
798	-0.898
799	-0.897
799	-0.881
800	-0.878
800	-0.887
801	-0.884
801	-0.886
801	-0.883
802	-0.88
802	-0.879
803	-0.874
803	-0.867
804	-0.873
804	-0.882
804	-0.864
805	-0.845
805	-0.836
806	-0.839
806	-0.835
807	-0.837
807	-0.837
807	-0.819
808	-0.816
808	-0.807
809	-0.804
809	-0.805
810	-0.808
810	-0.805
810	-0.8
811	-0.804
811	-0.796
812	-0.79
812	-0.792
813	-0.795
813	-0.797
813	-0.791
814	-0.792
814	-0.798
815	-0.789
815	-0.785
816	-0.78
816	-0.796
817	-0.807
817	-0.811
817	-0.822
818	-0.815
818	-0.813
819	-0.821
819	-0.819
820	-0.831
820	-0.831
820	-0.831
821	-0.829
821	-0.825
822	-0.825
822	-0.813
823	-0.824
823	-0.824
823	-0.819
824	-0.816
824	-0.825
825	-0.824
825	-0.821
826	-0.816
826	-0.811
826	-0.809
827	-0.81
827	-0.799
828	-0.799
828	-0.794
829	-0.789
829	-0.775
829	-0.771
830	-0.769
830	-0.754
831	-0.748
831	-0.736
832	-0.727
832	-0.722
832	-0.715
833	-0.714
833	-0.718
834	-0.712
834	-0.706
835	-0.697
835	-0.696
835	-0.69
836	-0.686
836	-0.681
837	-0.67
837	-0.66
838	-0.647
838	-0.629
839	-0.622
839	-0.608
839	-0.598
840	-0.597
840	-0.587
841	-0.574
841	-0.568
842	-0.559
842	-0.546
842	-0.543
843	-0.539
843	-0.535
844	-0.535
844	-0.521
845	-0.505
845	-0.496
845	-0.487
846	-0.473
846	-0.463
847	-0.451
847	-0.438
848	-0.421
848	-0.402
848	-0.386
849	-0.376
849	-0.364
850	-0.354
850	-0.341
851	-0.326
851	-0.31
851	-0.298
852	-0.281
852	-0.266
853	-0.256
853	-0.245
854	-0.233
854	-0.22
854	-0.206
855	-0.195
855	-0.186
856	-0.177
856	-0.168
857	-0.16
857	-0.152
857	-0.138
858	-0.125
858	-0.116
859	-0.102
859	-0.089
860	-0.076
860	-0.06
860	-0.048
861	-0.035
861	-0.023
862	-0.013
862	-0.004
863	0.007
863	0.018
863	0.024
864	0.031
864	0.039
865	0.047
865	0.055
866	0.061
866	0.069
866	0.075
867	0.082
867	0.089
868	0.095
868	0.102
869	0.108
869	0.112
869	0.115
870	0.118
870	0.121
871	0.123
871	0.125
872	0.126
872	0.126
872	0.127
873	0.127
873	0.126
874	0.125
874	0.124
875	0.123
875	0.122
875	0.121
876	0.121
876	0.12
877	0.119
877	0.117
878	0.116
878	0.116
878	0.116
879	0.115
879	0.115
880	0.115
880	0.114
881	0.114
881	0.113
881	0.113
882	0.112
882	0.111
883	0.109
883	0.108
884	0.107
884	0.106
884	0.106
885	0.106
885	0.106
886	0.105
886	0.105
887	0.104
887	0.104
887	0.103
888	0.103
888	0.102
889	0.101
889	0.099
890	0.098
890	0.097
890	0.097
891	0.097
891	0.097
892	0.097
892	0.098
893	0.098
893	0.098
893	0.098
894	0.098
894	0.098
895	0.098
895	0.097
895	0.097
896	0.096
896	0.096
897	0.095
897	0.095
898	0.094
898	0.094
898	0.094
899	0.094
899	0.094
900	0.094
900	0.093
901	0.093
901	0.092
901	0.092
902	0.092
902	0.093
903	0.093
903	0.093
904	0.092
904	0.092
904	0.092
905	0.093
905	0.093
906	0.093
906	0.094
907	0.094
907	0.093
907	0.093
908	0.094
908	0.094
909	0.094
909	0.095
910	0.095
910	0.096
910	0.096
911	0.097
911	0.098
912	0.099
912	0.1
913	0.1
913	0.101
913	0.101
914	0.101
914	0.101
915	0.101
915	0.101
916	0.101
916	0.101
916	0.1
917	0.1
917	0.1
918	0.1
918	0.1
918	0.099
919	0.099
919	0.099
920	0.1
920	0.1
921	0.101
921	0.101
921	0.102
922	0.102
922	0.102
923	0.103
923	0.103
924	0.103
924	0.102
924	0.102
925	0.101
925	0.1
926	0.099
926	0.098
927	0.097
927	0.097
927	0.096
928	0.096
928	0.097
929	0.098
929	0.099
930	0.099
930	0.1
930	0.101
931	0.102
931	0.103
932	0.104
932	0.105
933	0.105
933	0.105
933	0.105
934	0.104
934	0.103
935	0.102
935	0.101
935	0.1
936	0.098
936	0.097
937	0.095
937	0.094
938	0.093
938	0.092
938	0.091
939	0.091
939	0.089
940	0.089
940	0.088
941	0.087
941	0.087
941	0.087
942	0.086
942	0.085
943	0.085
943	0.084
944	0.083
944	0.081
944	0.081
945	0.08
945	0.079
946	0.078
946	0.077
946	0.076
947	0.076
947	0.075
948	0.075
948	0.075
949	0.076
949	0.077
949	0.078
950	0.079
950	0.08
951	0.081
951	0.082
952	0.083
952	0.084
952	0.085
953	0.086
953	0.087
954	0.087
954	0.087
955	0.087
955	0.087
955	0.087
956	0.086
956	0.086
957	0.084
957	0.084
957	0.082
958	0.082
958	0.081
959	0.08
959	0.08
960	0.079
960	0.079
960	0.079
961	0.079
961	0.08
962	0.08
962	0.08
963	0.08
963	0.08
963	0.081
964	0.081
964	0.081
965	0.081
965	0.082
966	0.081
966	0.082
966	0.082
967	0.082
967	0.082
968	0.082
968	0.082
968	0.082
969	0.082
969	0.082
970	0.081
970	0.081
971	0.08
971	0.08
971	0.079
972	0.08
972	0.079
973	0.079
973	0.079
974	0.079
974	0.079
974	0.079
975	0.079
975	0.079
976	0.079
976	0.079
976	0.079
977	0.079
977	0.079
978	0.078
978	0.078
979	0.078
979	0.077
979	0.077
980	0.077
980	0.077
981	0.077
981	0.077
982	0.077
982	0.077
982	0.077
983	0.077
983	0.077
984	0.077
984	0.077
984	0.076
985	0.076
985	0.075
986	0.074
986	0.074
987	0.073
987	0.072
987	0.071
988	0.07
988	0.069
989	0.069
989	0.068
990	0.067
990	0.066
990	0.065
991	0.064
991	0.064
992	0.064
992	0.063
992	0.062
993	0.061
993	0.06
994	0.059
994	0.058
995	0.057
995	0.056
995	0.054
996	0.053
996	0.052
997	0.05
997	0.049
997	0.049
998	0.048
998	0.048
999	0.048
999	0.048
1000	0.049
1000	0.049
1000	0.05
1001	0.05
1001	0.051
1002	0.052
1002	0.052
1003	0.053
1003	0.053
1003	0.053
1004	0.053
1004	0.053
1005	0.053
1005	0.053
1005	0.053
1006	0.052
1006	0.052
1007	0.051
1007	0.05
1008	0.05
1008	0.049
1008	0.049
1009	0.049
1009	0.049
1010	0.049
1010	0.049
1010	0.05
1011	0.05
1011	0.05
1012	0.051
1012	0.052
1013	0.053
1013	0.053
1013	0.054
1014	0.054
1014	0.054
1015	0.054
1015	0.055
1016	0.055
1016	0.054
1016	0.054
1017	0.053
1017	0.052
1018	0.052
1018	0.051
1018	0.051
1019	0.051
1019	0.05
1020	0.05
1020	0.049
1021	0.049
1021	0.049
1021	0.048
1022	0.048
1022	0.048
1023	0.048
1023	0.048
1023	0.048
1024	0.048
1024	0.048
1025	0.048
1025	0.048
1026	0.048
1026	0.049
1026	0.049
1027	0.049
1027	0.049
1028	0.05
1028	0.051
1028	0.051
1029	0.051
1029	0.052
1030	0.051
1030	0.051
1031	0.051
1031	0.051
1031	0.051
1032	0.051
1032	0.051
1033	0.05
1033	0.05
1033	0.049
1034	0.049
1034	0.048
1035	0.048
1035	0.048
1036	0.047
1036	0.046
1036	0.046
1037	0.046
1037	0.046
1038	0.046
1038	0.046
1039	0.046
1039	0.046
1039	0.047
1040	0.047
1040	0.048
1041	0.048
1041	0.048
1041	0.047
1042	0.046
1042	0.046
1043	0.045
1043	0.045
1044	0.044
1044	0.043
1044	0.042
1045	0.041
1045	0.04
1046	0.04
1046	0.039
1046	0.039
1047	0.039
1047	0.039
1048	0.039
1048	0.04
1049	0.04
1049	0.039
1049	0.04
1050	0.039
1050	0.039
1051	0.038
1051	0.038
1051	0.038
1052	0.037
1052	0.036
1053	0.036
1053	0.036
1053	0.036
1054	0.035
1054	0.035
1055	0.035
1055	0.035
1056	0.035
1056	0.034
1056	0.034
1057	0.033
1057	0.033
1058	0.033
1058	0.032
1058	0.032
1059	0.032
1059	0.031
1060	0.03
1060	0.029
1061	0.029
1061	0.029
1061	0.029
1062	0.028
1062	0.028
1063	0.028
1063	0.027
1063	0.027
1064	0.027
1064	0.028
1065	0.029
1065	0.028
1066	0.028
1066	0.028
1066	0.028
1067	0.027
1067	0.026
1068	0.025
1068	0.024
1068	0.023
1069	0.021
1069	0.02
1070	0.019
1070	0.018
1071	0.017
1071	0.017
1071	0.016
1072	0.016
1072	0.016
1073	0.015
1073	0.015
1073	0.015
1074	0.015
1074	0.015
1075	0.014
1075	0.014
1076	0.013
1076	0.012
1076	0.011
1077	0.011
1077	0.01
1078	0.009
1078	0.008
1078	0.008
1079	0.007
1079	0.007
1080	0.006
1080	0.006
1080	0.004
1081	0.004
1081	0.004
1082	0.004
1082	0.003
1083	0.002
1083	0.001
1083	-0
1084	-0.002
1084	-0.002
1085	-0.003
1085	-0.004
1085	-0.004
1086	-0.006
1086	-0.008
1087	-0.009
1087	-0.009
1088	-0.011
1088	-0.012
1088	-0.013
1089	-0.014
1089	-0.015
1090	-0.017
1090	-0.019
1090	-0.021
1091	-0.022
1091	-0.023
1092	-0.024
1092	-0.024
1092	-0.025
1093	-0.026
1093	-0.026
1094	-0.027
1094	-0.028
1095	-0.03
1095	-0.03
1095	-0.03
1096	-0.032
1096	-0.034
1097	-0.034
1097	-0.036
1097	-0.038
1098	-0.041
1098	-0.044
1099	-0.046
1099	-0.047
1100	-0.05
1100	-0.053
1100	-0.056
1101	-0.06
1101	-0.064
1102	-0.066
1102	-0.07
1102	-0.072
1103	-0.075
1103	-0.078
1104	-0.082
1104	-0.086
1104	-0.087
1105	-0.089
1105	-0.092
1106	-0.098
1106	-0.101
1107	-0.106
1107	-0.111
1107	-0.117
1108	-0.119
1108	-0.12
1109	-0.124
1109	-0.13
1109	-0.135
1110	-0.138
1110	-0.14
1111	-0.151
1111	-0.147
