Data from 3.4A_17C_Absorbance__379__02291.txt Node

Date: Tue Jun 20 16:38:09 CEST 2023
User: Marek
Spectrometer: MAYP115816
Trigger mode: 0
Integration Time (sec): 2.200000E-1
Scans to average: 10
Electric dark correction enabled: true
Nonlinearity correction enabled: true
Boxcar width: 5
XAxis mode: Wavelengths
Number of Pixels in Spectrum: 2068
>>>>>Begin Spectral Data<<<<<
199	-0.805
199	-0.783
200	-0.749
200	-0.696
201	-0.666
201	-0.658
202	-0.643
202	-0.634
203	-0.635
203	-0.627
204	-0.605
204	-0.59
205	-0.567
205	-0.557
205	-0.564
206	-0.567
206	-0.564
207	-0.555
207	-0.561
208	-0.561
208	-0.566
209	-0.569
209	-0.575
210	-0.589
210	-0.595
211	-0.59
211	-0.593
212	-0.601
212	-0.608
213	-0.605
213	-0.6
213	-0.597
214	-0.603
214	-0.606
215	-0.602
215	-0.607
216	-0.616
216	-0.622
217	-0.621
217	-0.623
218	-0.63
218	-0.633
219	-0.641
219	-0.642
220	-0.646
220	-0.652
221	-0.654
221	-0.654
221	-0.645
222	-0.645
222	-0.643
223	-0.64
223	-0.642
224	-0.643
224	-0.641
225	-0.639
225	-0.639
226	-0.638
226	-0.637
227	-0.646
227	-0.656
228	-0.66
228	-0.668
229	-0.671
229	-0.669
229	-0.669
230	-0.663
230	-0.661
231	-0.658
231	-0.653
232	-0.655
232	-0.649
233	-0.649
233	-0.637
234	-0.638
234	-0.634
235	-0.639
235	-0.651
236	-0.658
236	-0.661
236	-0.662
237	-0.661
237	-0.661
238	-0.662
238	-0.664
239	-0.665
239	-0.674
240	-0.666
240	-0.661
241	-0.657
241	-0.657
242	-0.661
242	-0.67
243	-0.672
243	-0.672
243	-0.678
244	-0.676
244	-0.678
245	-0.68
245	-0.683
246	-0.693
246	-0.697
247	-0.704
247	-0.688
248	-0.686
248	-0.688
249	-0.693
249	-0.694
250	-0.692
250	-0.7
250	-0.698
251	-0.698
251	-0.697
252	-0.696
252	-0.71
253	-0.706
253	-0.718
254	-0.723
254	-0.726
255	-0.738
255	-0.738
256	-0.74
256	-0.753
257	-0.762
257	-0.759
258	-0.76
258	-0.768
258	-0.767
259	-0.76
259	-0.776
260	-0.773
260	-0.762
261	-0.773
261	-0.758
262	-0.763
262	-0.764
263	-0.754
263	-0.758
264	-0.766
264	-0.767
265	-0.759
265	-0.764
265	-0.775
266	-0.767
266	-0.768
267	-0.766
267	-0.782
268	-0.791
268	-0.785
269	-0.778
269	-0.793
270	-0.797
270	-0.795
271	-0.808
271	-0.818
272	-0.82
272	-0.824
272	-0.818
273	-0.829
273	-0.844
274	-0.836
274	-0.83
275	-0.825
275	-0.813
276	-0.817
276	-0.82
277	-0.823
277	-0.82
278	-0.825
278	-0.824
278	-0.812
279	-0.82
279	-0.834
280	-0.837
280	-0.849
281	-0.842
281	-0.835
282	-0.84
282	-0.834
283	-0.825
283	-0.838
284	-0.851
284	-0.861
285	-0.841
285	-0.847
285	-0.838
286	-0.841
286	-0.857
287	-0.853
287	-0.852
288	-0.851
288	-0.834
289	-0.832
289	-0.84
290	-0.847
290	-0.837
291	-0.841
291	-0.841
292	-0.822
292	-0.819
292	-0.823
293	-0.811
293	-0.807
294	-0.808
294	-0.794
295	-0.778
295	-0.79
296	-0.802
296	-0.794
297	-0.784
297	-0.789
298	-0.786
298	-0.804
298	-0.806
299	-0.788
299	-0.781
300	-0.776
300	-0.757
301	-0.738
301	-0.741
302	-0.751
302	-0.735
303	-0.726
303	-0.715
304	-0.697
304	-0.7
305	-0.693
305	-0.702
305	-0.719
306	-0.704
306	-0.702
307	-0.693
307	-0.704
308	-0.707
308	-0.703
309	-0.707
309	-0.703
310	-0.7
310	-0.694
311	-0.679
311	-0.697
311	-0.685
312	-0.682
312	-0.671
313	-0.662
313	-0.663
314	-0.667
314	-0.666
315	-0.663
315	-0.658
316	-0.652
316	-0.642
317	-0.634
317	-0.631
318	-0.621
318	-0.621
318	-0.61
319	-0.6
319	-0.59
320	-0.586
320	-0.583
321	-0.578
321	-0.578
322	-0.571
322	-0.564
323	-0.567
323	-0.556
324	-0.554
324	-0.541
324	-0.532
325	-0.519
325	-0.504
326	-0.496
326	-0.47
327	-0.455
327	-0.432
328	-0.399
328	-0.376
329	-0.347
329	-0.317
330	-0.289
330	-0.251
330	-0.213
331	-0.175
331	-0.14
332	-0.106
332	-0.071
333	-0.04
333	-0.005
334	0.025
334	0.052
335	0.08
335	0.102
336	0.126
336	0.148
336	0.166
337	0.186
337	0.204
338	0.219
338	0.231
339	0.245
339	0.257
340	0.266
340	0.276
341	0.283
341	0.29
342	0.297
342	0.303
342	0.308
343	0.312
343	0.317
344	0.321
344	0.324
345	0.328
345	0.33
346	0.333
346	0.335
347	0.337
347	0.339
348	0.34
348	0.342
348	0.343
349	0.344
349	0.345
350	0.346
350	0.346
351	0.347
351	0.347
352	0.347
352	0.347
353	0.348
353	0.348
354	0.348
354	0.348
354	0.348
355	0.348
355	0.348
356	0.348
356	0.348
357	0.348
357	0.348
358	0.348
358	0.349
359	0.348
359	0.349
360	0.349
360	0.349
360	0.349
361	0.349
361	0.349
362	0.349
362	0.349
363	0.349
363	0.349
364	0.349
364	0.349
365	0.348
365	0.348
366	0.348
366	0.348
366	0.348
367	0.348
367	0.348
368	0.348
368	0.347
369	0.347
369	0.347
370	0.347
370	0.347
371	0.346
371	0.346
372	0.346
372	0.345
372	0.345
373	0.345
373	0.345
374	0.344
374	0.344
375	0.344
375	0.343
376	0.343
376	0.343
377	0.343
377	0.342
378	0.342
378	0.341
378	0.341
379	0.341
379	0.341
380	0.341
380	0.34
381	0.34
381	0.34
382	0.339
382	0.339
383	0.339
383	0.339
383	0.338
384	0.338
384	0.337
385	0.337
385	0.337
386	0.336
386	0.336
387	0.336
387	0.336
388	0.336
388	0.335
389	0.335
389	0.335
389	0.335
390	0.335
390	0.335
391	0.334
391	0.334
392	0.334
392	0.333
393	0.333
393	0.333
394	0.333
394	0.332
394	0.332
395	0.332
395	0.331
396	0.331
396	0.33
397	0.33
397	0.33
398	0.329
398	0.329
399	0.329
399	0.329
400	0.328
400	0.328
400	0.328
401	0.327
401	0.327
402	0.327
402	0.327
403	0.327
403	0.326
404	0.326
404	0.325
405	0.325
405	0.325
405	0.324
406	0.324
406	0.324
407	0.324
407	0.323
408	0.323
408	0.323
409	0.323
409	0.323
410	0.323
410	0.322
411	0.322
411	0.322
411	0.321
412	0.321
412	0.321
413	0.321
413	0.321
414	0.32
414	0.32
415	0.319
415	0.319
416	0.319
416	0.319
416	0.318
417	0.318
417	0.318
418	0.318
418	0.318
419	0.318
419	0.318
420	0.318
420	0.318
421	0.318
421	0.318
421	0.318
422	0.318
422	0.318
423	0.317
423	0.317
424	0.317
424	0.316
425	0.316
425	0.316
426	0.316
426	0.316
427	0.316
427	0.316
427	0.316
428	0.315
428	0.315
429	0.315
429	0.315
430	0.314
430	0.314
431	0.314
431	0.314
432	0.313
432	0.313
432	0.313
433	0.312
433	0.312
434	0.312
434	0.313
435	0.313
435	0.313
436	0.313
436	0.313
437	0.313
437	0.313
437	0.312
438	0.312
438	0.312
439	0.312
439	0.312
440	0.312
440	0.312
441	0.312
441	0.311
442	0.311
442	0.311
442	0.311
443	0.311
443	0.311
444	0.311
444	0.311
445	0.311
445	0.311
446	0.311
446	0.311
447	0.311
447	0.311
447	0.311
448	0.311
448	0.311
449	0.311
449	0.311
450	0.312
450	0.312
451	0.311
451	0.311
452	0.311
452	0.311
452	0.312
453	0.312
453	0.311
454	0.311
454	0.312
455	0.312
455	0.312
456	0.313
456	0.313
457	0.313
457	0.312
458	0.313
458	0.313
458	0.313
459	0.313
459	0.312
460	0.312
460	0.312
461	0.312
461	0.313
462	0.313
462	0.314
463	0.314
463	0.315
463	0.315
464	0.316
464	0.316
465	0.317
465	0.317
466	0.318
466	0.318
467	0.319
467	0.319
467	0.319
468	0.318
468	0.319
469	0.319
469	0.32
470	0.32
470	0.32
471	0.321
471	0.321
472	0.321
472	0.322
472	0.322
473	0.323
473	0.324
474	0.324
474	0.325
475	0.326
475	0.327
476	0.328
476	0.329
477	0.33
477	0.331
477	0.332
478	0.332
478	0.333
479	0.334
479	0.335
480	0.335
480	0.336
481	0.337
481	0.338
482	0.339
482	0.34
482	0.341
483	0.343
483	0.345
484	0.347
484	0.347
485	0.349
485	0.351
486	0.352
486	0.353
487	0.355
487	0.356
487	0.357
488	0.358
488	0.359
489	0.36
489	0.362
490	0.364
490	0.365
491	0.367
491	0.369
492	0.37
492	0.372
492	0.373
493	0.375
493	0.377
494	0.38
494	0.382
495	0.384
495	0.386
496	0.388
496	0.39
496	0.392
497	0.395
497	0.397
498	0.399
498	0.401
499	0.403
499	0.406
500	0.408
500	0.411
501	0.414
501	0.416
501	0.418
502	0.42
502	0.423
503	0.426
503	0.428
504	0.431
504	0.433
505	0.436
505	0.439
506	0.442
506	0.444
506	0.448
507	0.451
507	0.454
508	0.458
508	0.461
509	0.464
509	0.467
510	0.47
510	0.473
511	0.476
511	0.478
511	0.48
512	0.483
512	0.485
513	0.487
513	0.489
514	0.492
514	0.494
515	0.496
515	0.498
515	0.5
516	0.503
516	0.505
517	0.508
517	0.51
518	0.512
518	0.513
519	0.515
519	0.517
520	0.518
520	0.52
520	0.522
521	0.523
521	0.524
522	0.525
522	0.526
523	0.528
523	0.529
524	0.53
524	0.531
524	0.533
525	0.534
525	0.535
526	0.536
526	0.537
527	0.537
527	0.538
528	0.538
528	0.538
529	0.538
529	0.538
529	0.537
530	0.537
530	0.537
531	0.536
531	0.535
532	0.535
532	0.534
533	0.534
533	0.533
533	0.533
534	0.531
534	0.531
535	0.53
535	0.529
536	0.528
536	0.527
537	0.526
537	0.525
538	0.524
538	0.522
538	0.521
539	0.52
539	0.518
540	0.516
540	0.514
541	0.512
541	0.51
542	0.508
542	0.506
542	0.503
543	0.5
543	0.498
544	0.495
544	0.492
545	0.49
545	0.488
546	0.485
546	0.483
547	0.48
547	0.477
547	0.474
548	0.472
548	0.47
549	0.467
549	0.465
550	0.463
550	0.46
551	0.457
551	0.454
551	0.451
552	0.449
552	0.446
553	0.444
553	0.441
554	0.438
554	0.435
555	0.431
555	0.428
556	0.426
556	0.423
556	0.42
557	0.417
557	0.415
558	0.411
558	0.409
559	0.406
559	0.403
560	0.4
560	0.397
560	0.394
561	0.392
561	0.39
562	0.387
562	0.385
563	0.382
563	0.38
564	0.378
564	0.376
564	0.374
565	0.373
565	0.371
566	0.369
566	0.367
567	0.365
567	0.363
568	0.361
568	0.358
568	0.356
569	0.354
569	0.351
570	0.348
570	0.345
571	0.343
571	0.341
572	0.338
572	0.335
573	0.333
573	0.33
573	0.328
574	0.326
574	0.325
575	0.323
575	0.323
576	0.321
576	0.318
577	0.316
577	0.315
577	0.313
578	0.312
578	0.312
579	0.311
579	0.31
580	0.307
580	0.304
581	0.301
581	0.299
581	0.299
582	0.298
582	0.297
583	0.297
583	0.295
584	0.292
584	0.289
585	0.289
585	0.289
585	0.288
586	0.287
586	0.285
587	0.283
587	0.281
588	0.279
588	0.278
589	0.276
589	0.275
590	0.274
590	0.272
590	0.272
591	0.271
591	0.269
592	0.267
592	0.265
593	0.264
593	0.262
594	0.261
594	0.259
594	0.258
595	0.257
595	0.255
596	0.253
596	0.253
597	0.253
597	0.252
598	0.251
598	0.25
598	0.25
599	0.249
599	0.248
600	0.247
600	0.246
601	0.246
601	0.246
602	0.244
602	0.244
602	0.242
603	0.242
603	0.242
604	0.241
604	0.241
605	0.241
605	0.24
606	0.239
606	0.237
606	0.235
607	0.234
607	0.234
608	0.232
608	0.23
609	0.229
609	0.229
610	0.227
610	0.225
610	0.225
611	0.225
611	0.224
612	0.223
612	0.223
613	0.222
613	0.221
614	0.219
614	0.217
614	0.216
615	0.214
615	0.213
616	0.212
616	0.211
617	0.21
617	0.209
618	0.207
618	0.206
618	0.206
619	0.205
619	0.205
620	0.205
620	0.204
621	0.202
621	0.201
622	0.199
622	0.197
622	0.195
623	0.194
623	0.193
624	0.192
624	0.191
625	0.189
625	0.188
626	0.187
626	0.186
626	0.186
627	0.185
627	0.185
628	0.184
628	0.183
629	0.181
629	0.18
630	0.178
630	0.176
630	0.175
631	0.174
631	0.172
632	0.17
632	0.168
633	0.165
633	0.163
634	0.161
634	0.159
634	0.157
635	0.155
635	0.152
636	0.149
636	0.147
637	0.144
637	0.141
638	0.138
638	0.135
638	0.131
639	0.128
639	0.123
640	0.119
640	0.115
641	0.111
641	0.107
642	0.102
642	0.098
642	0.094
643	0.089
643	0.083
644	0.078
644	0.073
645	0.068
645	0.063
646	0.057
646	0.051
646	0.045
647	0.038
647	0.032
648	0.025
648	0.018
649	0.01
649	0.003
650	-0.004
650	-0.011
650	-0.019
651	-0.028
651	-0.04
652	-0.053
652	-0.067
653	-0.078
653	-0.089
653	-0.084
654	-0.064
654	-0.058
655	-0.062
655	-0.067
656	-0.073
656	-0.079
657	-0.083
657	-0.087
657	-0.093
658	-0.1
658	-0.13
659	-0.215
659	-0.302
660	-0.341
660	-0.367
661	-0.392
661	-0.42
661	-0.451
662	-0.477
662	-0.506
663	-0.538
663	-0.573
664	-0.606
664	-0.644
665	-0.686
665	-0.729
665	-0.77
666	-0.818
666	-0.869
667	-0.92
667	-0.98
668	-1.037
668	-1.103
669	-1.168
669	-1.239
669	-1.314
670	-1.392
670	-1.496
671	-1.646
671	-1.934
672	-2.238
672	-2.424
672	-2.556
673	-2.66
673	-2.745
674	-2.815
674	-2.833
675	-2.849
675	-2.854
676	-2.854
676	-2.823
676	-2.755
677	-2.672
677	-2.574
678	-2.428
678	-2.192
679	-1.777
679	-1.591
680	-1.484
680	-1.406
680	-1.338
681	-1.289
681	-1.237
682	-1.196
682	-1.153
683	-1.11
683	-1.086
684	-1.059
684	-1.042
684	-1.021
685	-1.001
685	-0.992
686	-0.97
686	-0.956
687	-0.945
687	-0.935
687	-0.935
688	-0.92
688	-0.912
689	-0.915
689	-0.911
690	-0.898
690	-0.889
691	-0.887
691	-0.891
691	-0.89
692	-0.89
692	-0.888
693	-0.895
693	-0.906
694	-0.887
694	-0.886
695	-0.889
695	-0.882
695	-0.888
696	-0.896
696	-0.89
697	-0.884
697	-0.88
698	-0.875
698	-0.867
698	-0.883
699	-0.88
699	-0.882
700	-0.9
700	-0.896
701	-0.882
701	-0.876
702	-0.875
702	-0.876
702	-0.877
703	-0.869
703	-0.856
704	-0.863
704	-0.865
705	-0.855
705	-0.854
705	-0.849
706	-0.843
706	-0.84
707	-0.849
707	-0.852
708	-0.849
708	-0.846
709	-0.849
709	-0.847
709	-0.843
710	-0.852
710	-0.856
711	-0.856
711	-0.855
712	-0.846
712	-0.843
713	-0.848
713	-0.849
713	-0.827
714	-0.829
714	-0.831
715	-0.823
715	-0.831
716	-0.847
716	-0.858
716	-0.859
717	-0.865
717	-0.856
718	-0.852
718	-0.852
719	-0.848
719	-0.84
720	-0.835
720	-0.829
720	-0.822
721	-0.813
721	-0.819
722	-0.815
722	-0.812
723	-0.831
723	-0.845
723	-0.855
724	-0.855
724	-0.859
725	-0.853
725	-0.856
726	-0.859
726	-0.848
727	-0.85
727	-0.858
727	-0.847
728	-0.832
728	-0.829
729	-0.83
729	-0.834
730	-0.841
730	-0.832
730	-0.838
731	-0.841
731	-0.841
732	-0.841
732	-0.838
733	-0.853
733	-0.861
734	-0.868
734	-0.859
734	-0.841
735	-0.83
735	-0.825
736	-0.825
736	-0.82
737	-0.821
737	-0.81
737	-0.803
738	-0.787
738	-0.776
739	-0.779
739	-0.779
740	-0.795
740	-0.795
741	-0.806
741	-0.815
741	-0.823
742	-0.829
742	-0.845
743	-0.852
743	-0.855
744	-0.859
744	-0.867
744	-0.862
745	-0.868
745	-0.858
746	-0.854
746	-0.847
747	-0.85
747	-0.839
748	-0.841
748	-0.844
748	-0.844
749	-0.836
749	-0.842
750	-0.833
750	-0.833
751	-0.832
751	-0.828
751	-0.841
752	-0.843
752	-0.846
753	-0.849
753	-0.842
754	-0.863
754	-0.863
754	-0.87
755	-0.87
755	-0.864
756	-0.866
756	-0.852
757	-0.845
757	-0.833
758	-0.833
758	-0.833
758	-0.829
759	-0.837
759	-0.837
760	-0.836
760	-0.837
761	-0.832
761	-0.836
761	-0.836
762	-0.842
762	-0.843
763	-0.843
763	-0.845
764	-0.842
764	-0.838
764	-0.845
765	-0.844
765	-0.852
766	-0.855
766	-0.856
767	-0.872
767	-0.866
768	-0.864
768	-0.857
768	-0.852
769	-0.856
769	-0.864
770	-0.874
770	-0.877
771	-0.873
771	-0.872
771	-0.879
772	-0.883
772	-0.904
773	-0.905
773	-0.903
774	-0.901
774	-0.883
775	-0.87
775	-0.869
775	-0.872
776	-0.883
776	-0.878
777	-0.877
777	-0.859
778	-0.868
778	-0.877
778	-0.876
779	-0.886
779	-0.902
780	-0.9
780	-0.909
781	-0.899
781	-0.888
781	-0.903
782	-0.925
782	-0.925
783	-0.924
783	-0.932
784	-0.936
784	-0.929
784	-0.946
785	-0.939
785	-0.952
786	-0.955
786	-0.947
787	-0.938
787	-0.946
788	-0.938
788	-0.932
788	-0.933
789	-0.932
789	-0.923
790	-0.922
790	-0.906
791	-0.913
791	-0.911
791	-0.903
792	-0.898
792	-0.903
793	-0.905
793	-0.893
794	-0.885
794	-0.88
794	-0.888
795	-0.907
795	-0.894
796	-0.899
796	-0.895
797	-0.889
797	-0.88
797	-0.873
798	-0.892
798	-0.896
799	-0.895
799	-0.882
800	-0.878
800	-0.886
801	-0.883
801	-0.887
801	-0.882
802	-0.882
802	-0.881
803	-0.876
803	-0.868
804	-0.875
804	-0.882
804	-0.865
805	-0.847
805	-0.838
806	-0.84
806	-0.837
807	-0.837
807	-0.838
807	-0.822
808	-0.819
808	-0.813
809	-0.808
809	-0.808
810	-0.812
810	-0.81
810	-0.805
811	-0.807
811	-0.8
812	-0.793
812	-0.795
813	-0.799
813	-0.798
813	-0.794
814	-0.794
814	-0.8
815	-0.791
815	-0.785
816	-0.783
816	-0.799
817	-0.81
817	-0.814
817	-0.821
818	-0.814
818	-0.811
819	-0.821
819	-0.818
820	-0.829
820	-0.831
820	-0.83
821	-0.825
821	-0.821
822	-0.82
822	-0.81
823	-0.822
823	-0.822
823	-0.818
824	-0.815
824	-0.825
825	-0.821
825	-0.816
826	-0.811
826	-0.806
826	-0.806
827	-0.807
827	-0.797
828	-0.796
828	-0.789
829	-0.784
829	-0.768
829	-0.767
830	-0.768
830	-0.754
831	-0.749
831	-0.736
832	-0.726
832	-0.72
832	-0.712
833	-0.712
833	-0.717
834	-0.714
834	-0.708
835	-0.699
835	-0.699
835	-0.694
836	-0.692
836	-0.689
837	-0.68
837	-0.673
838	-0.659
838	-0.642
839	-0.635
839	-0.622
839	-0.614
840	-0.611
840	-0.601
841	-0.589
841	-0.582
842	-0.571
842	-0.558
842	-0.554
843	-0.551
843	-0.546
844	-0.543
844	-0.53
845	-0.516
845	-0.505
845	-0.494
846	-0.482
846	-0.472
847	-0.461
847	-0.449
848	-0.433
848	-0.417
848	-0.402
849	-0.39
849	-0.378
850	-0.368
850	-0.357
851	-0.345
851	-0.329
851	-0.319
852	-0.302
852	-0.29
853	-0.28
853	-0.271
854	-0.26
854	-0.248
854	-0.236
855	-0.225
855	-0.218
856	-0.21
856	-0.203
857	-0.195
857	-0.186
857	-0.173
858	-0.162
858	-0.154
859	-0.143
859	-0.133
860	-0.122
860	-0.107
860	-0.096
861	-0.086
861	-0.075
862	-0.067
862	-0.059
863	-0.051
863	-0.042
863	-0.035
864	-0.028
864	-0.021
865	-0.014
865	-0.008
866	-0.002
866	0.003
866	0.009
867	0.015
867	0.021
868	0.025
868	0.03
869	0.035
869	0.038
869	0.04
870	0.042
870	0.044
871	0.046
871	0.047
872	0.049
872	0.05
872	0.051
873	0.051
873	0.051
874	0.051
874	0.051
875	0.05
875	0.05
875	0.05
876	0.05
876	0.05
877	0.049
877	0.049
878	0.048
878	0.048
878	0.047
879	0.047
879	0.047
880	0.046
880	0.045
881	0.044
881	0.043
881	0.042
882	0.041
882	0.039
883	0.038
883	0.037
884	0.036
884	0.035
884	0.034
885	0.034
885	0.034
886	0.034
886	0.033
887	0.032
887	0.032
887	0.032
888	0.031
888	0.031
889	0.03
889	0.03
890	0.029
890	0.028
890	0.027
891	0.027
891	0.027
892	0.027
892	0.027
893	0.027
893	0.027
893	0.027
894	0.028
894	0.027
895	0.027
895	0.027
895	0.027
896	0.027
896	0.027
897	0.028
897	0.028
898	0.028
898	0.028
898	0.028
899	0.029
899	0.029
900	0.029
900	0.029
901	0.028
901	0.028
901	0.027
902	0.027
902	0.027
903	0.026
903	0.026
904	0.026
904	0.026
904	0.026
905	0.027
905	0.027
906	0.028
906	0.028
907	0.029
907	0.029
907	0.03
908	0.03
908	0.031
909	0.031
909	0.031
910	0.032
910	0.032
910	0.032
911	0.032
911	0.033
912	0.034
912	0.034
913	0.035
913	0.035
913	0.036
914	0.036
914	0.037
915	0.037
915	0.037
916	0.037
916	0.037
916	0.037
917	0.037
917	0.037
918	0.037
918	0.037
918	0.036
919	0.036
919	0.036
920	0.037
920	0.037
921	0.038
921	0.039
921	0.039
922	0.04
922	0.04
923	0.041
923	0.041
924	0.041
924	0.04
924	0.04
925	0.038
925	0.037
926	0.036
926	0.034
927	0.033
927	0.032
927	0.031
928	0.03
928	0.03
929	0.03
929	0.031
930	0.031
930	0.031
930	0.032
931	0.033
931	0.034
932	0.036
932	0.037
933	0.038
933	0.038
933	0.038
934	0.038
934	0.037
935	0.037
935	0.036
935	0.035
936	0.034
936	0.032
937	0.031
937	0.03
938	0.029
938	0.028
938	0.028
939	0.027
939	0.026
940	0.026
940	0.025
941	0.024
941	0.024
941	0.024
942	0.023
942	0.023
943	0.023
943	0.022
944	0.021
944	0.02
944	0.02
945	0.02
945	0.019
946	0.019
946	0.018
946	0.018
947	0.018
947	0.017
948	0.018
948	0.019
949	0.02
949	0.021
949	0.023
950	0.025
950	0.026
951	0.028
951	0.029
952	0.03
952	0.031
952	0.032
953	0.032
953	0.033
954	0.033
954	0.032
955	0.032
955	0.032
955	0.031
956	0.031
956	0.03
957	0.029
957	0.028
957	0.027
958	0.027
958	0.026
959	0.026
959	0.025
960	0.024
960	0.024
960	0.024
961	0.025
961	0.025
962	0.025
962	0.025
963	0.025
963	0.026
963	0.026
964	0.026
964	0.027
965	0.027
965	0.027
966	0.027
966	0.028
966	0.028
967	0.028
967	0.028
968	0.028
968	0.027
968	0.027
969	0.027
969	0.027
970	0.027
970	0.026
971	0.026
971	0.026
971	0.027
972	0.027
972	0.027
973	0.027
973	0.027
974	0.028
974	0.028
974	0.028
975	0.028
975	0.028
976	0.028
976	0.028
976	0.028
977	0.027
977	0.027
978	0.026
978	0.026
979	0.025
979	0.025
979	0.025
980	0.025
980	0.024
981	0.024
981	0.024
982	0.024
982	0.025
982	0.025
983	0.025
983	0.024
984	0.024
984	0.024
984	0.023
985	0.023
985	0.023
986	0.021
986	0.021
987	0.02
987	0.019
987	0.019
988	0.018
988	0.017
989	0.016
989	0.016
990	0.015
990	0.014
990	0.013
991	0.013
991	0.012
992	0.011
992	0.011
992	0.01
993	0.009
993	0.008
994	0.007
994	0.006
995	0.004
995	0.003
995	0.002
996	0
996	-0.001
997	-0.003
997	-0.003
997	-0.004
998	-0.005
998	-0.004
999	-0.005
999	-0.005
1000	-0.004
1000	-0.003
1000	-0.003
1001	-0.002
1001	-0.001
1002	-0
1002	0
1003	0.001
1003	0.001
1003	0.001
1004	0.001
1004	0
1005	-0
1005	-0.001
1005	-0.001
1006	-0.002
1006	-0.003
1007	-0.004
1007	-0.005
1008	-0.005
1008	-0.006
1008	-0.006
1009	-0.007
1009	-0.006
1010	-0.006
1010	-0.005
1010	-0.005
1011	-0.004
1011	-0.003
1012	-0.002
1012	-0.001
1013	0
1013	0.001
1013	0.002
1014	0.003
1014	0.004
1015	0.004
1015	0.005
1016	0.005
1016	0.005
1016	0.004
1017	0.004
1017	0.004
1018	0.004
1018	0.004
1018	0.004
1019	0.003
1019	0.003
1020	0.003
1020	0.002
1021	0.002
1021	0.002
1021	0.002
1022	0.001
1022	0.001
1023	0.002
1023	0.002
1023	0.002
1024	0.002
1024	0.002
1025	0.002
1025	0.002
1026	0.003
1026	0.003
1026	0.003
1027	0.003
1027	0.004
1028	0.004
1028	0.005
1028	0.005
1029	0.005
1029	0.005
1030	0.005
1030	0.004
1031	0.004
1031	0.005
1031	0.005
1032	0.004
1032	0.004
1033	0.004
1033	0.004
1033	0.004
1034	0.004
1034	0.003
1035	0.003
1035	0.003
1036	0.002
1036	0.001
1036	0.001
1037	0.001
1037	0.002
1038	0.001
1038	0.001
1039	0.002
1039	0.002
1039	0.003
1040	0.003
1040	0.004
1041	0.004
1041	0.004
1041	0.003
1042	0.002
1042	0.002
1043	0.001
1043	0
1044	-0
1044	-0.002
1044	-0.002
1045	-0.003
1045	-0.004
1046	-0.005
1046	-0.005
1046	-0.005
1047	-0.006
1047	-0.006
1048	-0.005
1048	-0.006
1049	-0.005
1049	-0.006
1049	-0.006
1050	-0.006
1050	-0.007
1051	-0.007
1051	-0.008
1051	-0.008
1052	-0.009
1052	-0.01
1053	-0.011
1053	-0.011
1053	-0.012
1054	-0.012
1054	-0.013
1055	-0.012
1055	-0.012
1056	-0.013
1056	-0.013
1056	-0.013
1057	-0.014
1057	-0.014
1058	-0.014
1058	-0.014
1058	-0.014
1059	-0.015
1059	-0.015
1060	-0.016
1060	-0.016
1061	-0.016
1061	-0.016
1061	-0.016
1062	-0.017
1062	-0.017
1063	-0.017
1063	-0.017
1063	-0.017
1064	-0.017
1064	-0.016
1065	-0.016
1065	-0.016
1066	-0.016
1066	-0.016
1066	-0.017
1067	-0.017
1067	-0.018
1068	-0.018
1068	-0.019
1068	-0.02
1069	-0.021
1069	-0.022
1070	-0.022
1070	-0.023
1071	-0.023
1071	-0.024
1071	-0.024
1072	-0.025
1072	-0.024
1073	-0.025
1073	-0.025
1073	-0.025
1074	-0.026
1074	-0.026
1075	-0.026
1075	-0.027
1076	-0.028
1076	-0.029
1076	-0.03
1077	-0.03
1077	-0.031
1078	-0.032
1078	-0.033
1078	-0.033
1079	-0.034
1079	-0.034
1080	-0.035
1080	-0.036
1080	-0.037
1081	-0.038
1081	-0.039
1082	-0.039
1082	-0.041
1083	-0.042
1083	-0.044
1083	-0.045
1084	-0.046
1084	-0.048
1085	-0.049
1085	-0.05
1085	-0.051
1086	-0.052
1086	-0.054
1087	-0.055
1087	-0.055
1088	-0.056
1088	-0.057
1088	-0.057
1089	-0.058
1089	-0.059
1090	-0.059
1090	-0.06
1090	-0.061
1091	-0.062
1091	-0.062
1092	-0.062
1092	-0.062
1092	-0.063
1093	-0.064
1093	-0.063
1094	-0.064
1094	-0.065
1095	-0.066
1095	-0.066
1095	-0.066
1096	-0.068
1096	-0.07
1097	-0.071
1097	-0.073
1097	-0.075
1098	-0.077
1098	-0.079
1099	-0.08
1099	-0.082
1100	-0.085
1100	-0.088
1100	-0.092
1101	-0.095
1101	-0.098
1102	-0.1
1102	-0.103
1102	-0.105
1103	-0.107
1103	-0.111
1104	-0.113
1104	-0.117
1104	-0.118
1105	-0.12
1105	-0.123
1106	-0.128
1106	-0.13
1107	-0.136
1107	-0.14
1107	-0.146
1108	-0.148
1108	-0.149
1109	-0.152
1109	-0.157
1109	-0.161
1110	-0.163
1110	-0.167
1111	-0.178
1111	-0.173
