Data from 3.4A_17C_Absorbance__539__02451.txt Node

Date: Tue Jun 20 16:44:01 CEST 2023
User: Marek
Spectrometer: MAYP115816
Trigger mode: 0
Integration Time (sec): 2.200000E-1
Scans to average: 10
Electric dark correction enabled: true
Nonlinearity correction enabled: true
Boxcar width: 5
XAxis mode: Wavelengths
Number of Pixels in Spectrum: 2068
>>>>>Begin Spectral Data<<<<<
199	-0.805
199	-0.791
200	-0.757
200	-0.704
201	-0.677
201	-0.667
202	-0.648
202	-0.64
203	-0.639
203	-0.632
204	-0.613
204	-0.597
205	-0.572
205	-0.561
205	-0.569
206	-0.57
206	-0.565
207	-0.557
207	-0.565
208	-0.565
208	-0.568
209	-0.57
209	-0.575
210	-0.589
210	-0.596
211	-0.589
211	-0.591
212	-0.599
212	-0.607
213	-0.603
213	-0.599
213	-0.598
214	-0.605
214	-0.609
215	-0.604
215	-0.61
216	-0.618
216	-0.626
217	-0.625
217	-0.625
218	-0.631
218	-0.633
219	-0.639
219	-0.641
220	-0.646
220	-0.653
221	-0.654
221	-0.654
221	-0.646
222	-0.646
222	-0.644
223	-0.641
223	-0.645
224	-0.647
224	-0.645
225	-0.641
225	-0.642
226	-0.642
226	-0.644
227	-0.65
227	-0.66
228	-0.663
228	-0.67
229	-0.674
229	-0.671
229	-0.67
230	-0.665
230	-0.663
231	-0.659
231	-0.653
232	-0.656
232	-0.649
233	-0.65
233	-0.64
234	-0.64
234	-0.635
235	-0.639
235	-0.65
236	-0.656
236	-0.656
236	-0.657
237	-0.656
237	-0.657
238	-0.658
238	-0.658
239	-0.66
239	-0.671
240	-0.664
240	-0.661
241	-0.659
241	-0.663
242	-0.666
242	-0.672
243	-0.673
243	-0.674
243	-0.68
244	-0.677
244	-0.678
245	-0.681
245	-0.685
246	-0.695
246	-0.697
247	-0.705
247	-0.692
248	-0.692
248	-0.695
249	-0.701
249	-0.701
250	-0.699
250	-0.705
250	-0.705
251	-0.704
251	-0.699
252	-0.701
252	-0.713
253	-0.707
253	-0.717
254	-0.722
254	-0.722
255	-0.733
255	-0.734
256	-0.736
256	-0.748
257	-0.759
257	-0.756
258	-0.757
258	-0.767
258	-0.765
259	-0.758
259	-0.777
260	-0.777
260	-0.765
261	-0.775
261	-0.761
262	-0.766
262	-0.765
263	-0.756
263	-0.759
264	-0.769
264	-0.772
265	-0.762
265	-0.765
265	-0.776
266	-0.766
266	-0.768
267	-0.766
267	-0.783
268	-0.792
268	-0.787
269	-0.778
269	-0.792
270	-0.795
270	-0.793
271	-0.808
271	-0.817
272	-0.818
272	-0.823
272	-0.816
273	-0.825
273	-0.841
274	-0.834
274	-0.828
275	-0.826
275	-0.813
276	-0.815
276	-0.821
277	-0.822
277	-0.821
278	-0.824
278	-0.823
278	-0.812
279	-0.82
279	-0.834
280	-0.835
280	-0.846
281	-0.839
281	-0.832
282	-0.839
282	-0.829
283	-0.823
283	-0.837
284	-0.849
284	-0.859
285	-0.839
285	-0.847
285	-0.839
286	-0.845
286	-0.863
287	-0.859
287	-0.86
288	-0.859
288	-0.841
289	-0.84
289	-0.846
290	-0.855
290	-0.843
291	-0.848
291	-0.846
292	-0.825
292	-0.822
292	-0.827
293	-0.814
293	-0.81
294	-0.811
294	-0.799
295	-0.782
295	-0.794
296	-0.804
296	-0.798
297	-0.787
297	-0.791
298	-0.786
298	-0.802
298	-0.806
299	-0.788
299	-0.78
300	-0.778
300	-0.76
301	-0.742
301	-0.743
302	-0.754
302	-0.738
303	-0.733
303	-0.723
304	-0.706
304	-0.711
305	-0.703
305	-0.711
305	-0.726
306	-0.71
306	-0.71
307	-0.701
307	-0.713
308	-0.714
308	-0.709
309	-0.71
309	-0.704
310	-0.701
310	-0.696
311	-0.681
311	-0.701
311	-0.688
312	-0.685
312	-0.673
313	-0.665
313	-0.666
314	-0.673
314	-0.672
315	-0.669
315	-0.662
316	-0.658
316	-0.649
317	-0.641
317	-0.638
318	-0.63
318	-0.627
318	-0.616
319	-0.604
319	-0.597
320	-0.594
320	-0.592
321	-0.587
321	-0.585
322	-0.579
322	-0.572
323	-0.571
323	-0.561
324	-0.559
324	-0.547
324	-0.537
325	-0.522
325	-0.504
326	-0.495
326	-0.471
327	-0.456
327	-0.434
328	-0.403
328	-0.382
329	-0.353
329	-0.325
330	-0.297
330	-0.261
330	-0.225
331	-0.187
331	-0.153
332	-0.118
332	-0.085
333	-0.055
333	-0.022
334	0.008
334	0.035
335	0.063
335	0.084
336	0.107
336	0.128
336	0.145
337	0.163
337	0.18
338	0.195
338	0.206
339	0.22
339	0.23
340	0.238
340	0.247
341	0.254
341	0.26
342	0.267
342	0.273
342	0.278
343	0.282
343	0.287
344	0.29
344	0.294
345	0.297
345	0.3
346	0.302
346	0.304
347	0.305
347	0.306
348	0.308
348	0.31
348	0.311
349	0.311
349	0.312
350	0.313
350	0.314
351	0.314
351	0.315
352	0.315
352	0.316
353	0.316
353	0.316
354	0.317
354	0.317
354	0.317
355	0.316
355	0.316
356	0.317
356	0.316
357	0.316
357	0.316
358	0.316
358	0.316
359	0.316
359	0.316
360	0.316
360	0.316
360	0.316
361	0.316
361	0.316
362	0.316
362	0.316
363	0.316
363	0.316
364	0.316
364	0.316
365	0.316
365	0.316
366	0.316
366	0.316
366	0.316
367	0.317
367	0.316
368	0.316
368	0.316
369	0.316
369	0.316
370	0.315
370	0.315
371	0.315
371	0.315
372	0.314
372	0.314
372	0.314
373	0.314
373	0.313
374	0.313
374	0.313
375	0.313
375	0.312
376	0.312
376	0.312
377	0.312
377	0.312
378	0.311
378	0.311
378	0.311
379	0.311
379	0.31
380	0.31
380	0.31
381	0.31
381	0.309
382	0.309
382	0.309
383	0.309
383	0.309
383	0.308
384	0.308
384	0.308
385	0.308
385	0.307
386	0.307
386	0.307
387	0.307
387	0.307
388	0.307
388	0.306
389	0.306
389	0.306
389	0.306
390	0.306
390	0.306
391	0.305
391	0.305
392	0.305
392	0.305
393	0.305
393	0.304
394	0.304
394	0.304
394	0.304
395	0.303
395	0.303
396	0.302
396	0.302
397	0.302
397	0.302
398	0.301
398	0.301
399	0.301
399	0.3
400	0.3
400	0.3
400	0.3
401	0.3
401	0.299
402	0.299
402	0.299
403	0.299
403	0.298
404	0.298
404	0.298
405	0.297
405	0.297
405	0.297
406	0.297
406	0.297
407	0.296
407	0.296
408	0.295
408	0.295
409	0.295
409	0.295
410	0.295
410	0.295
411	0.295
411	0.294
411	0.294
412	0.294
412	0.294
413	0.293
413	0.293
414	0.293
414	0.293
415	0.293
415	0.293
416	0.292
416	0.292
416	0.292
417	0.292
417	0.291
418	0.291
418	0.291
419	0.291
419	0.291
420	0.291
420	0.291
421	0.291
421	0.291
421	0.291
422	0.291
422	0.291
423	0.29
423	0.29
424	0.29
424	0.289
425	0.29
425	0.289
426	0.289
426	0.289
427	0.29
427	0.29
427	0.29
428	0.29
428	0.289
429	0.289
429	0.289
430	0.288
430	0.288
431	0.287
431	0.287
432	0.287
432	0.286
432	0.286
433	0.286
433	0.286
434	0.286
434	0.286
435	0.286
435	0.286
436	0.286
436	0.286
437	0.286
437	0.286
437	0.286
438	0.286
438	0.286
439	0.286
439	0.286
440	0.285
440	0.285
441	0.285
441	0.285
442	0.285
442	0.285
442	0.285
443	0.285
443	0.285
444	0.285
444	0.285
445	0.285
445	0.285
446	0.284
446	0.285
447	0.285
447	0.285
447	0.284
448	0.285
448	0.285
449	0.285
449	0.285
450	0.285
450	0.285
451	0.285
451	0.285
452	0.285
452	0.285
452	0.285
453	0.285
453	0.285
454	0.285
454	0.285
455	0.285
455	0.286
456	0.286
456	0.286
457	0.286
457	0.285
458	0.285
458	0.285
458	0.286
459	0.285
459	0.285
460	0.285
460	0.285
461	0.285
461	0.285
462	0.286
462	0.287
463	0.287
463	0.288
463	0.288
464	0.289
464	0.289
465	0.289
465	0.29
466	0.29
466	0.29
467	0.291
467	0.291
467	0.291
468	0.29
468	0.29
469	0.291
469	0.291
470	0.291
470	0.292
471	0.292
471	0.292
472	0.292
472	0.292
472	0.293
473	0.294
473	0.295
474	0.295
474	0.296
475	0.297
475	0.297
476	0.298
476	0.299
477	0.3
477	0.301
477	0.301
478	0.302
478	0.302
479	0.303
479	0.304
480	0.304
480	0.305
481	0.305
481	0.306
482	0.307
482	0.307
482	0.309
483	0.31
483	0.312
484	0.313
484	0.314
485	0.315
485	0.317
486	0.318
486	0.319
487	0.32
487	0.321
487	0.322
488	0.323
488	0.324
489	0.325
489	0.326
490	0.327
490	0.329
491	0.331
491	0.332
492	0.334
492	0.335
492	0.336
493	0.337
493	0.338
494	0.341
494	0.343
495	0.344
495	0.346
496	0.347
496	0.349
496	0.351
497	0.354
497	0.355
498	0.357
498	0.359
499	0.361
499	0.363
500	0.366
500	0.368
501	0.37
501	0.372
501	0.373
502	0.375
502	0.377
503	0.379
503	0.382
504	0.384
504	0.386
505	0.389
505	0.391
506	0.394
506	0.397
506	0.399
507	0.402
507	0.405
508	0.408
508	0.411
509	0.413
509	0.416
510	0.418
510	0.421
511	0.423
511	0.425
511	0.428
512	0.43
512	0.432
513	0.433
513	0.435
514	0.437
514	0.439
515	0.441
515	0.443
515	0.444
516	0.446
516	0.448
517	0.45
517	0.452
518	0.453
518	0.455
519	0.456
519	0.458
520	0.459
520	0.461
520	0.462
521	0.463
521	0.464
522	0.465
522	0.466
523	0.468
523	0.469
524	0.47
524	0.471
524	0.472
525	0.473
525	0.474
526	0.475
526	0.475
527	0.476
527	0.476
528	0.476
528	0.476
529	0.476
529	0.476
529	0.476
530	0.476
530	0.476
531	0.476
531	0.476
532	0.475
532	0.475
533	0.474
533	0.473
533	0.473
534	0.472
534	0.471
535	0.47
535	0.47
536	0.469
536	0.468
537	0.467
537	0.466
538	0.465
538	0.464
538	0.463
539	0.462
539	0.461
540	0.459
540	0.457
541	0.456
541	0.454
542	0.452
542	0.45
542	0.448
543	0.446
543	0.444
544	0.442
544	0.44
545	0.438
545	0.436
546	0.435
546	0.432
547	0.43
547	0.427
547	0.425
548	0.423
548	0.421
549	0.419
549	0.418
550	0.416
550	0.413
551	0.41
551	0.408
551	0.406
552	0.404
552	0.402
553	0.4
553	0.398
554	0.395
554	0.392
555	0.389
555	0.387
556	0.385
556	0.382
556	0.38
557	0.378
557	0.376
558	0.373
558	0.371
559	0.369
559	0.367
560	0.364
560	0.361
560	0.36
561	0.358
561	0.356
562	0.354
562	0.352
563	0.35
563	0.348
564	0.347
564	0.345
564	0.344
565	0.343
565	0.341
566	0.34
566	0.338
567	0.337
567	0.335
568	0.334
568	0.331
568	0.329
569	0.328
569	0.326
570	0.323
570	0.32
571	0.319
571	0.317
572	0.315
572	0.313
573	0.311
573	0.309
573	0.306
574	0.305
574	0.304
575	0.303
575	0.304
576	0.303
576	0.3
577	0.298
577	0.297
577	0.297
578	0.296
578	0.296
579	0.296
579	0.296
580	0.293
580	0.29
581	0.287
581	0.286
581	0.286
582	0.285
582	0.285
583	0.285
583	0.283
584	0.28
584	0.278
585	0.278
585	0.279
585	0.278
586	0.278
586	0.276
587	0.274
587	0.272
588	0.27
588	0.269
589	0.269
589	0.268
590	0.267
590	0.266
590	0.266
591	0.265
591	0.264
592	0.263
592	0.261
593	0.261
593	0.26
594	0.259
594	0.257
594	0.256
595	0.256
595	0.254
596	0.252
596	0.253
597	0.254
597	0.253
598	0.252
598	0.252
598	0.252
599	0.252
599	0.251
600	0.25
600	0.25
601	0.25
601	0.249
602	0.248
602	0.248
602	0.247
603	0.247
603	0.247
604	0.247
604	0.246
605	0.246
605	0.246
606	0.245
606	0.243
606	0.243
607	0.242
607	0.241
608	0.24
608	0.239
609	0.238
609	0.238
610	0.236
610	0.235
610	0.235
611	0.235
611	0.235
612	0.234
612	0.234
613	0.234
613	0.233
614	0.232
614	0.23
614	0.229
615	0.227
615	0.226
616	0.225
616	0.224
617	0.224
617	0.223
618	0.222
618	0.221
618	0.22
619	0.22
619	0.22
620	0.22
620	0.219
621	0.217
621	0.216
622	0.214
622	0.213
622	0.211
623	0.209
623	0.209
624	0.208
624	0.207
625	0.206
625	0.205
626	0.204
626	0.203
626	0.203
627	0.203
627	0.202
628	0.202
628	0.201
629	0.199
629	0.198
630	0.196
630	0.194
630	0.194
631	0.192
631	0.191
632	0.189
632	0.187
633	0.185
633	0.183
634	0.181
634	0.179
634	0.178
635	0.175
635	0.173
636	0.171
636	0.168
637	0.165
637	0.162
638	0.159
638	0.156
638	0.153
639	0.149
639	0.145
640	0.141
640	0.137
641	0.133
641	0.129
642	0.125
642	0.121
642	0.117
643	0.113
643	0.108
644	0.103
644	0.098
645	0.093
645	0.088
646	0.082
646	0.076
646	0.07
647	0.063
647	0.056
648	0.049
648	0.041
649	0.034
649	0.027
650	0.02
650	0.012
650	0.004
651	-0.006
651	-0.018
652	-0.031
652	-0.045
653	-0.057
653	-0.068
653	-0.064
654	-0.045
654	-0.039
655	-0.044
655	-0.05
656	-0.056
656	-0.063
657	-0.068
657	-0.073
657	-0.08
658	-0.087
658	-0.119
659	-0.206
659	-0.296
660	-0.337
660	-0.364
661	-0.392
661	-0.421
661	-0.451
662	-0.478
662	-0.508
663	-0.541
663	-0.578
664	-0.615
664	-0.655
665	-0.7
665	-0.746
665	-0.789
666	-0.839
666	-0.893
667	-0.947
667	-1.008
668	-1.066
668	-1.133
669	-1.199
669	-1.27
669	-1.345
670	-1.422
670	-1.522
671	-1.652
671	-1.913
672	-2.227
672	-2.416
672	-2.55
673	-2.655
673	-2.741
674	-2.821
674	-2.843
675	-2.86
675	-2.866
676	-2.867
676	-2.842
676	-2.777
677	-2.7
677	-2.609
678	-2.477
678	-2.276
679	-1.87
679	-1.655
680	-1.539
680	-1.459
680	-1.387
681	-1.335
681	-1.279
682	-1.234
682	-1.19
683	-1.146
683	-1.121
684	-1.092
684	-1.072
684	-1.048
685	-1.027
685	-1.015
686	-0.992
686	-0.979
687	-0.968
687	-0.956
687	-0.956
688	-0.939
688	-0.93
689	-0.933
689	-0.932
690	-0.918
690	-0.908
691	-0.905
691	-0.908
691	-0.908
692	-0.908
692	-0.905
693	-0.912
693	-0.922
694	-0.901
694	-0.898
695	-0.902
695	-0.895
695	-0.902
696	-0.909
696	-0.904
697	-0.897
697	-0.892
698	-0.887
698	-0.879
698	-0.893
699	-0.89
699	-0.89
700	-0.91
700	-0.904
701	-0.889
701	-0.883
702	-0.884
702	-0.882
702	-0.88
703	-0.871
703	-0.859
704	-0.867
704	-0.872
705	-0.859
705	-0.858
705	-0.854
706	-0.846
706	-0.842
707	-0.852
707	-0.858
708	-0.856
708	-0.852
709	-0.852
709	-0.849
709	-0.846
710	-0.853
710	-0.857
711	-0.856
711	-0.858
712	-0.848
712	-0.843
713	-0.851
713	-0.853
713	-0.834
714	-0.835
714	-0.838
715	-0.83
715	-0.838
716	-0.855
716	-0.864
716	-0.866
717	-0.873
717	-0.865
718	-0.858
718	-0.858
719	-0.853
719	-0.846
720	-0.841
720	-0.837
720	-0.829
721	-0.821
721	-0.825
722	-0.821
722	-0.817
723	-0.836
723	-0.848
723	-0.858
724	-0.856
724	-0.861
725	-0.854
725	-0.859
726	-0.86
726	-0.852
727	-0.854
727	-0.861
727	-0.849
728	-0.836
728	-0.833
729	-0.836
729	-0.839
730	-0.845
730	-0.836
730	-0.841
731	-0.843
731	-0.843
732	-0.845
732	-0.842
733	-0.857
733	-0.862
734	-0.87
734	-0.86
734	-0.842
735	-0.832
735	-0.83
736	-0.829
736	-0.825
737	-0.824
737	-0.814
737	-0.808
738	-0.796
738	-0.782
739	-0.785
739	-0.785
740	-0.8
740	-0.799
741	-0.809
741	-0.819
741	-0.83
742	-0.836
742	-0.852
743	-0.858
743	-0.861
744	-0.865
744	-0.874
744	-0.868
745	-0.877
745	-0.867
746	-0.863
746	-0.852
747	-0.852
747	-0.842
748	-0.842
748	-0.847
748	-0.848
749	-0.839
749	-0.845
750	-0.834
750	-0.835
751	-0.833
751	-0.831
751	-0.843
752	-0.846
752	-0.849
753	-0.85
753	-0.843
754	-0.865
754	-0.865
754	-0.874
755	-0.875
755	-0.867
756	-0.872
756	-0.859
757	-0.851
757	-0.84
758	-0.841
758	-0.841
758	-0.836
759	-0.841
759	-0.839
760	-0.835
760	-0.836
761	-0.828
761	-0.831
761	-0.831
762	-0.838
762	-0.838
763	-0.838
763	-0.841
764	-0.839
764	-0.837
764	-0.844
765	-0.844
765	-0.85
766	-0.853
766	-0.856
767	-0.871
767	-0.866
768	-0.865
768	-0.858
768	-0.853
769	-0.855
769	-0.865
770	-0.876
770	-0.881
771	-0.877
771	-0.876
771	-0.881
772	-0.885
772	-0.907
773	-0.908
773	-0.907
774	-0.905
774	-0.886
775	-0.872
775	-0.871
775	-0.875
776	-0.886
776	-0.883
777	-0.885
777	-0.866
778	-0.876
778	-0.885
778	-0.885
779	-0.894
779	-0.911
780	-0.909
780	-0.918
781	-0.907
781	-0.897
781	-0.91
782	-0.932
782	-0.933
783	-0.933
783	-0.94
784	-0.943
784	-0.936
784	-0.954
785	-0.947
785	-0.959
786	-0.962
786	-0.953
787	-0.943
787	-0.951
788	-0.942
788	-0.938
788	-0.94
789	-0.94
789	-0.928
790	-0.927
790	-0.912
791	-0.92
791	-0.915
791	-0.91
792	-0.903
792	-0.907
793	-0.909
793	-0.896
794	-0.89
794	-0.884
794	-0.891
795	-0.909
795	-0.894
796	-0.9
796	-0.894
797	-0.888
797	-0.879
797	-0.871
798	-0.893
798	-0.897
799	-0.897
799	-0.884
800	-0.88
800	-0.888
801	-0.887
801	-0.892
801	-0.889
802	-0.889
802	-0.889
803	-0.883
803	-0.876
804	-0.88
804	-0.887
804	-0.871
805	-0.851
805	-0.84
806	-0.84
806	-0.836
807	-0.837
807	-0.836
807	-0.819
808	-0.813
808	-0.808
809	-0.803
809	-0.804
810	-0.81
810	-0.807
810	-0.804
811	-0.805
811	-0.795
812	-0.789
812	-0.792
813	-0.796
813	-0.796
813	-0.79
814	-0.791
814	-0.797
815	-0.787
815	-0.782
816	-0.779
816	-0.798
817	-0.811
817	-0.814
817	-0.823
818	-0.817
818	-0.815
819	-0.824
819	-0.821
820	-0.833
820	-0.834
820	-0.833
821	-0.827
821	-0.822
822	-0.818
822	-0.806
823	-0.818
823	-0.818
823	-0.813
824	-0.81
824	-0.819
825	-0.818
825	-0.815
826	-0.81
826	-0.807
826	-0.809
827	-0.81
827	-0.798
828	-0.797
828	-0.79
829	-0.785
829	-0.77
829	-0.768
830	-0.767
830	-0.754
831	-0.747
831	-0.733
832	-0.724
832	-0.719
832	-0.712
833	-0.711
833	-0.716
834	-0.711
834	-0.705
835	-0.696
835	-0.694
835	-0.689
836	-0.686
836	-0.681
837	-0.671
837	-0.663
838	-0.65
838	-0.633
839	-0.626
839	-0.615
839	-0.606
840	-0.605
840	-0.594
841	-0.584
841	-0.577
842	-0.57
842	-0.557
842	-0.555
843	-0.55
843	-0.547
844	-0.545
844	-0.533
845	-0.52
845	-0.511
845	-0.501
846	-0.488
846	-0.475
847	-0.464
847	-0.45
848	-0.435
848	-0.417
848	-0.403
849	-0.39
849	-0.377
850	-0.366
850	-0.354
851	-0.34
851	-0.324
851	-0.314
852	-0.297
852	-0.285
853	-0.275
853	-0.264
854	-0.253
854	-0.243
854	-0.23
855	-0.219
855	-0.21
856	-0.202
856	-0.194
857	-0.186
857	-0.176
857	-0.163
858	-0.152
858	-0.143
859	-0.131
859	-0.118
860	-0.107
860	-0.092
860	-0.082
861	-0.071
861	-0.06
862	-0.052
862	-0.043
863	-0.034
863	-0.024
863	-0.017
864	-0.012
864	-0.004
865	0.004
865	0.011
866	0.017
866	0.023
866	0.029
867	0.035
867	0.041
868	0.045
868	0.05
869	0.055
869	0.059
869	0.061
870	0.063
870	0.065
871	0.067
871	0.069
872	0.07
872	0.071
872	0.072
873	0.072
873	0.072
874	0.071
874	0.071
875	0.07
875	0.07
875	0.069
876	0.069
876	0.069
877	0.068
877	0.067
878	0.066
878	0.066
878	0.066
879	0.065
879	0.065
880	0.065
880	0.064
881	0.063
881	0.062
881	0.062
882	0.06
882	0.059
883	0.057
883	0.056
884	0.055
884	0.054
884	0.054
885	0.053
885	0.053
886	0.053
886	0.052
887	0.052
887	0.052
887	0.052
888	0.051
888	0.051
889	0.05
889	0.049
890	0.048
890	0.047
890	0.047
891	0.047
891	0.047
892	0.047
892	0.047
893	0.047
893	0.047
893	0.047
894	0.048
894	0.047
895	0.047
895	0.046
895	0.046
896	0.046
896	0.045
897	0.045
897	0.045
898	0.045
898	0.045
898	0.044
899	0.044
899	0.045
900	0.045
900	0.044
901	0.044
901	0.044
901	0.043
902	0.043
902	0.043
903	0.043
903	0.043
904	0.043
904	0.043
904	0.043
905	0.044
905	0.045
906	0.045
906	0.046
907	0.046
907	0.046
907	0.047
908	0.047
908	0.047
909	0.048
909	0.048
910	0.048
910	0.049
910	0.049
911	0.049
911	0.049
912	0.05
912	0.051
913	0.051
913	0.052
913	0.052
914	0.052
914	0.053
915	0.053
915	0.053
916	0.053
916	0.053
916	0.053
917	0.053
917	0.053
918	0.053
918	0.053
918	0.052
919	0.052
919	0.052
920	0.053
920	0.053
921	0.054
921	0.055
921	0.055
922	0.056
922	0.056
923	0.056
923	0.056
924	0.056
924	0.056
924	0.056
925	0.055
925	0.054
926	0.053
926	0.052
927	0.051
927	0.05
927	0.049
928	0.049
928	0.049
929	0.049
929	0.05
930	0.05
930	0.051
930	0.052
931	0.052
931	0.053
932	0.054
932	0.055
933	0.056
933	0.056
933	0.056
934	0.056
934	0.055
935	0.055
935	0.054
935	0.052
936	0.051
936	0.05
937	0.048
937	0.048
938	0.047
938	0.046
938	0.045
939	0.044
939	0.043
940	0.043
940	0.042
941	0.041
941	0.04
941	0.04
942	0.039
942	0.039
943	0.039
943	0.038
944	0.037
944	0.036
944	0.036
945	0.035
945	0.035
946	0.034
946	0.034
946	0.033
947	0.034
947	0.034
948	0.034
948	0.035
949	0.035
949	0.037
949	0.038
950	0.039
950	0.041
951	0.042
951	0.043
952	0.044
952	0.045
952	0.045
953	0.046
953	0.047
954	0.047
954	0.047
955	0.047
955	0.046
955	0.046
956	0.046
956	0.045
957	0.044
957	0.043
957	0.042
958	0.041
958	0.041
959	0.04
959	0.04
960	0.04
960	0.039
960	0.04
961	0.04
961	0.041
962	0.041
962	0.041
963	0.041
963	0.041
963	0.042
964	0.042
964	0.042
965	0.042
965	0.043
966	0.043
966	0.043
966	0.043
967	0.043
967	0.043
968	0.043
968	0.042
968	0.043
969	0.043
969	0.042
970	0.042
970	0.042
971	0.042
971	0.041
971	0.042
972	0.042
972	0.042
973	0.042
973	0.042
974	0.042
974	0.042
974	0.043
975	0.043
975	0.043
976	0.043
976	0.043
976	0.042
977	0.042
977	0.042
978	0.041
978	0.041
979	0.04
979	0.04
979	0.04
980	0.039
980	0.039
981	0.039
981	0.039
982	0.039
982	0.039
982	0.039
983	0.039
983	0.039
984	0.039
984	0.039
984	0.038
985	0.038
985	0.038
986	0.037
986	0.036
987	0.035
987	0.034
987	0.034
988	0.033
988	0.032
989	0.031
989	0.031
990	0.03
990	0.029
990	0.028
991	0.027
991	0.026
992	0.026
992	0.025
992	0.024
993	0.023
993	0.022
994	0.021
994	0.019
995	0.018
995	0.016
995	0.015
996	0.013
996	0.012
997	0.011
997	0.01
997	0.009
998	0.008
998	0.009
999	0.009
999	0.009
1000	0.009
1000	0.01
1000	0.01
1001	0.011
1001	0.012
1002	0.012
1002	0.012
1003	0.012
1003	0.012
1003	0.012
1004	0.012
1004	0.012
1005	0.011
1005	0.011
1005	0.01
1006	0.01
1006	0.009
1007	0.009
1007	0.008
1008	0.007
1008	0.006
1008	0.006
1009	0.006
1009	0.006
1010	0.007
1010	0.007
1010	0.008
1011	0.009
1011	0.009
1012	0.01
1012	0.012
1013	0.013
1013	0.014
1013	0.014
1014	0.015
1014	0.016
1015	0.016
1015	0.017
1016	0.017
1016	0.017
1016	0.016
1017	0.016
1017	0.016
1018	0.016
1018	0.016
1018	0.016
1019	0.016
1019	0.015
1020	0.015
1020	0.014
1021	0.014
1021	0.014
1021	0.014
1022	0.013
1022	0.013
1023	0.014
1023	0.014
1023	0.014
1024	0.014
1024	0.015
1025	0.015
1025	0.015
1026	0.016
1026	0.016
1026	0.016
1027	0.017
1027	0.017
1028	0.017
1028	0.018
1028	0.018
1029	0.018
1029	0.018
1030	0.018
1030	0.018
1031	0.018
1031	0.019
1031	0.018
1032	0.018
1032	0.018
1033	0.018
1033	0.017
1033	0.017
1034	0.017
1034	0.016
1035	0.016
1035	0.015
1036	0.014
1036	0.014
1036	0.014
1037	0.014
1037	0.014
1038	0.014
1038	0.014
1039	0.014
1039	0.015
1039	0.015
1040	0.015
1040	0.016
1041	0.016
1041	0.015
1041	0.015
1042	0.014
1042	0.013
1043	0.012
1043	0.011
1044	0.011
1044	0.01
1044	0.009
1045	0.008
1045	0.008
1046	0.007
1046	0.006
1046	0.006
1047	0.006
1047	0.006
1048	0.006
1048	0.006
1049	0.006
1049	0.006
1049	0.006
1050	0.006
1050	0.005
1051	0.004
1051	0.004
1051	0.004
1052	0.003
1052	0.002
1053	0.002
1053	0.001
1053	0.001
1054	0
1054	0
1055	0
1055	0
1056	0
1056	-0
1056	-0
1057	-0.001
1057	-0.001
1058	-0.001
1058	-0.002
1058	-0.002
1059	-0.003
1059	-0.003
1060	-0.004
1060	-0.005
1061	-0.005
1061	-0.005
1061	-0.005
1062	-0.005
1062	-0.006
1063	-0.005
1063	-0.006
1063	-0.006
1064	-0.005
1064	-0.005
1065	-0.005
1065	-0.005
1066	-0.005
1066	-0.005
1066	-0.005
1067	-0.006
1067	-0.006
1068	-0.007
1068	-0.008
1068	-0.009
1069	-0.009
1069	-0.01
1070	-0.011
1070	-0.011
1071	-0.012
1071	-0.012
1071	-0.013
1072	-0.013
1072	-0.013
1073	-0.014
1073	-0.014
1073	-0.014
1074	-0.015
1074	-0.015
1075	-0.016
1075	-0.016
1076	-0.018
1076	-0.018
1076	-0.019
1077	-0.02
1077	-0.021
1078	-0.021
1078	-0.022
1078	-0.023
1079	-0.023
1079	-0.023
1080	-0.024
1080	-0.025
1080	-0.026
1081	-0.027
1081	-0.028
1082	-0.029
1082	-0.03
1083	-0.031
1083	-0.033
1083	-0.034
1084	-0.036
1084	-0.037
1085	-0.038
1085	-0.039
1085	-0.039
1086	-0.04
1086	-0.042
1087	-0.042
1087	-0.042
1088	-0.043
1088	-0.044
1088	-0.044
1089	-0.046
1089	-0.046
1090	-0.048
1090	-0.049
1090	-0.05
1091	-0.052
1091	-0.052
1092	-0.053
1092	-0.053
1092	-0.054
1093	-0.055
1093	-0.055
1094	-0.055
1094	-0.056
1095	-0.057
1095	-0.057
1095	-0.058
1096	-0.06
1096	-0.062
1097	-0.063
1097	-0.065
1097	-0.067
1098	-0.07
1098	-0.072
1099	-0.074
1099	-0.075
1100	-0.077
1100	-0.08
1100	-0.084
1101	-0.086
1101	-0.09
1102	-0.092
1102	-0.095
1102	-0.097
1103	-0.1
1103	-0.103
1104	-0.107
1104	-0.11
1104	-0.111
1105	-0.113
1105	-0.116
1106	-0.12
1106	-0.123
1107	-0.128
1107	-0.132
1107	-0.137
1108	-0.139
1108	-0.14
1109	-0.144
1109	-0.149
1109	-0.154
1110	-0.157
1110	-0.16
1111	-0.167
1111	-0.164
