Data from 3.4A_17C_Absorbance__16__01928.txt Node

Date: Tue Jun 20 16:24:51 CEST 2023
User: Marek
Spectrometer: MAYP115816
Trigger mode: 0
Integration Time (sec): 2.200000E-1
Scans to average: 10
Electric dark correction enabled: true
Nonlinearity correction enabled: true
Boxcar width: 5
XAxis mode: Wavelengths
Number of Pixels in Spectrum: 2068
>>>>>Begin Spectral Data<<<<<
199	-0.802
199	-0.783
200	-0.746
200	-0.688
201	-0.659
201	-0.652
202	-0.634
202	-0.626
203	-0.625
203	-0.617
204	-0.596
204	-0.58
205	-0.556
205	-0.548
205	-0.559
206	-0.562
206	-0.557
207	-0.549
207	-0.556
208	-0.557
208	-0.561
209	-0.563
209	-0.569
210	-0.583
210	-0.588
211	-0.581
211	-0.585
212	-0.594
212	-0.602
213	-0.599
213	-0.595
213	-0.593
214	-0.599
214	-0.601
215	-0.597
215	-0.603
216	-0.611
216	-0.615
217	-0.613
217	-0.612
218	-0.619
218	-0.62
219	-0.627
219	-0.63
220	-0.634
220	-0.641
221	-0.642
221	-0.643
221	-0.636
222	-0.635
222	-0.636
223	-0.631
223	-0.634
224	-0.636
224	-0.632
225	-0.629
225	-0.631
226	-0.632
226	-0.631
227	-0.638
227	-0.647
228	-0.651
228	-0.662
229	-0.666
229	-0.664
229	-0.664
230	-0.66
230	-0.657
231	-0.653
231	-0.647
232	-0.65
232	-0.645
233	-0.645
233	-0.633
234	-0.633
234	-0.628
235	-0.634
235	-0.645
236	-0.654
236	-0.655
236	-0.656
237	-0.655
237	-0.654
238	-0.655
238	-0.656
239	-0.658
239	-0.667
240	-0.659
240	-0.655
241	-0.649
241	-0.654
242	-0.657
242	-0.664
243	-0.667
243	-0.668
243	-0.673
244	-0.67
244	-0.67
245	-0.674
245	-0.677
246	-0.686
246	-0.688
247	-0.693
247	-0.68
248	-0.679
248	-0.682
249	-0.688
249	-0.689
250	-0.69
250	-0.698
250	-0.696
251	-0.696
251	-0.694
252	-0.696
252	-0.709
253	-0.703
253	-0.716
254	-0.72
254	-0.72
255	-0.73
255	-0.728
256	-0.73
256	-0.743
257	-0.752
257	-0.75
258	-0.749
258	-0.757
258	-0.753
259	-0.747
259	-0.766
260	-0.764
260	-0.754
261	-0.763
261	-0.748
262	-0.753
262	-0.751
263	-0.742
263	-0.747
264	-0.757
264	-0.758
265	-0.747
265	-0.75
265	-0.761
266	-0.754
266	-0.755
267	-0.754
267	-0.769
268	-0.776
268	-0.771
269	-0.763
269	-0.78
270	-0.783
270	-0.784
271	-0.797
271	-0.806
272	-0.806
272	-0.809
272	-0.804
273	-0.815
273	-0.829
274	-0.821
274	-0.815
275	-0.813
275	-0.801
276	-0.804
276	-0.809
277	-0.813
277	-0.809
278	-0.814
278	-0.815
278	-0.803
279	-0.812
279	-0.824
280	-0.826
280	-0.837
281	-0.829
281	-0.822
282	-0.827
282	-0.823
283	-0.816
283	-0.829
284	-0.842
284	-0.851
285	-0.831
285	-0.837
285	-0.827
286	-0.833
286	-0.849
287	-0.846
287	-0.845
288	-0.844
288	-0.825
289	-0.825
289	-0.833
290	-0.841
290	-0.83
291	-0.835
291	-0.834
292	-0.813
292	-0.809
292	-0.812
293	-0.798
293	-0.795
294	-0.793
294	-0.78
295	-0.764
295	-0.775
296	-0.788
296	-0.781
297	-0.772
297	-0.777
298	-0.775
298	-0.793
298	-0.796
299	-0.78
299	-0.773
300	-0.771
300	-0.753
301	-0.733
301	-0.736
302	-0.745
302	-0.731
303	-0.723
303	-0.71
304	-0.694
304	-0.696
305	-0.688
305	-0.694
305	-0.71
306	-0.694
306	-0.694
307	-0.683
307	-0.695
308	-0.697
308	-0.693
309	-0.695
309	-0.69
310	-0.686
310	-0.681
311	-0.666
311	-0.684
311	-0.672
312	-0.67
312	-0.657
313	-0.648
313	-0.649
314	-0.654
314	-0.653
315	-0.651
315	-0.644
316	-0.64
316	-0.629
317	-0.62
317	-0.617
318	-0.61
318	-0.607
318	-0.597
319	-0.587
319	-0.578
320	-0.576
320	-0.574
321	-0.568
321	-0.568
322	-0.562
322	-0.554
323	-0.554
323	-0.545
324	-0.542
324	-0.53
324	-0.52
325	-0.505
325	-0.487
326	-0.479
326	-0.454
327	-0.439
327	-0.416
328	-0.384
328	-0.362
329	-0.332
329	-0.301
330	-0.272
330	-0.234
330	-0.196
331	-0.156
331	-0.12
332	-0.082
332	-0.047
333	-0.016
333	0.022
334	0.053
334	0.081
335	0.111
335	0.137
336	0.162
336	0.185
336	0.205
337	0.225
337	0.245
338	0.261
338	0.274
339	0.29
339	0.303
340	0.312
340	0.322
341	0.33
341	0.337
342	0.345
342	0.352
342	0.358
343	0.362
343	0.368
344	0.372
344	0.375
345	0.379
345	0.382
346	0.385
346	0.387
347	0.389
347	0.391
348	0.392
348	0.394
348	0.395
349	0.396
349	0.397
350	0.399
350	0.399
351	0.4
351	0.4
352	0.401
352	0.401
353	0.401
353	0.402
354	0.402
354	0.402
354	0.401
355	0.401
355	0.401
356	0.401
356	0.401
357	0.402
357	0.403
358	0.402
358	0.402
359	0.402
359	0.403
360	0.403
360	0.403
360	0.403
361	0.403
361	0.403
362	0.402
362	0.401
363	0.402
363	0.401
364	0.401
364	0.401
365	0.4
365	0.4
366	0.4
366	0.399
366	0.4
367	0.4
367	0.399
368	0.399
368	0.399
369	0.398
369	0.398
370	0.398
370	0.397
371	0.397
371	0.397
372	0.396
372	0.396
372	0.396
373	0.395
373	0.395
374	0.395
374	0.394
375	0.394
375	0.393
376	0.393
376	0.392
377	0.392
377	0.391
378	0.39
378	0.39
378	0.39
379	0.389
379	0.389
380	0.389
380	0.388
381	0.388
381	0.387
382	0.387
382	0.386
383	0.386
383	0.386
383	0.385
384	0.385
384	0.384
385	0.383
385	0.383
386	0.382
386	0.382
387	0.382
387	0.382
388	0.381
388	0.381
389	0.381
389	0.38
389	0.38
390	0.38
390	0.379
391	0.379
391	0.378
392	0.378
392	0.378
393	0.377
393	0.377
394	0.377
394	0.376
394	0.376
395	0.375
395	0.375
396	0.374
396	0.374
397	0.373
397	0.373
398	0.372
398	0.372
399	0.372
399	0.371
400	0.371
400	0.37
400	0.37
401	0.37
401	0.369
402	0.368
402	0.368
403	0.368
403	0.367
404	0.367
404	0.366
405	0.366
405	0.365
405	0.365
406	0.365
406	0.364
407	0.364
407	0.364
408	0.363
408	0.363
409	0.363
409	0.363
410	0.363
410	0.362
411	0.362
411	0.362
411	0.361
412	0.361
412	0.36
413	0.36
413	0.36
414	0.359
414	0.359
415	0.359
415	0.358
416	0.358
416	0.357
416	0.357
417	0.357
417	0.357
418	0.357
418	0.356
419	0.356
419	0.356
420	0.356
420	0.356
421	0.355
421	0.355
421	0.355
422	0.355
422	0.356
423	0.355
423	0.355
424	0.355
424	0.355
425	0.355
425	0.355
426	0.354
426	0.354
427	0.354
427	0.354
427	0.354
428	0.354
428	0.354
429	0.354
429	0.353
430	0.353
430	0.352
431	0.352
431	0.352
432	0.351
432	0.351
432	0.351
433	0.35
433	0.35
434	0.351
434	0.351
435	0.351
435	0.351
436	0.351
436	0.351
437	0.35
437	0.35
437	0.35
438	0.351
438	0.351
439	0.351
439	0.35
440	0.35
440	0.35
441	0.35
441	0.35
442	0.35
442	0.35
442	0.35
443	0.35
443	0.35
444	0.35
444	0.35
445	0.35
445	0.35
446	0.35
446	0.35
447	0.35
447	0.351
447	0.351
448	0.351
448	0.351
449	0.351
449	0.351
450	0.351
450	0.351
451	0.351
451	0.352
452	0.352
452	0.352
452	0.352
453	0.352
453	0.353
454	0.353
454	0.353
455	0.353
455	0.354
456	0.354
456	0.354
457	0.354
457	0.354
458	0.355
458	0.355
458	0.355
459	0.355
459	0.355
460	0.355
460	0.355
461	0.356
461	0.356
462	0.357
462	0.358
463	0.358
463	0.359
463	0.36
464	0.361
464	0.361
465	0.362
465	0.363
466	0.364
466	0.364
467	0.365
467	0.365
467	0.365
468	0.365
468	0.366
469	0.366
469	0.367
470	0.368
470	0.368
471	0.369
471	0.369
472	0.37
472	0.371
472	0.372
473	0.373
473	0.374
474	0.375
474	0.376
475	0.378
475	0.379
476	0.38
476	0.381
477	0.383
477	0.384
477	0.385
478	0.386
478	0.387
479	0.389
479	0.39
480	0.391
480	0.393
481	0.394
481	0.395
482	0.397
482	0.399
482	0.401
483	0.403
483	0.406
484	0.408
484	0.41
485	0.412
485	0.414
486	0.416
486	0.418
487	0.42
487	0.422
487	0.423
488	0.425
488	0.427
489	0.429
489	0.432
490	0.434
490	0.436
491	0.439
491	0.441
492	0.444
492	0.446
492	0.448
493	0.45
493	0.453
494	0.457
494	0.46
495	0.463
495	0.466
496	0.468
496	0.472
496	0.475
497	0.478
497	0.481
498	0.484
498	0.487
499	0.49
499	0.494
500	0.497
500	0.501
501	0.505
501	0.508
501	0.511
502	0.514
502	0.518
503	0.522
503	0.525
504	0.528
504	0.532
505	0.536
505	0.539
506	0.543
506	0.547
506	0.552
507	0.556
507	0.56
508	0.564
508	0.569
509	0.573
509	0.576
510	0.58
510	0.584
511	0.588
511	0.592
511	0.595
512	0.599
512	0.602
513	0.604
513	0.607
514	0.611
514	0.614
515	0.617
515	0.62
515	0.623
516	0.626
516	0.629
517	0.632
517	0.634
518	0.637
518	0.638
519	0.64
519	0.642
520	0.644
520	0.646
520	0.648
521	0.649
521	0.65
522	0.651
522	0.653
523	0.655
523	0.657
524	0.658
524	0.659
524	0.66
525	0.661
525	0.661
526	0.662
526	0.662
527	0.663
527	0.663
528	0.662
528	0.662
529	0.661
529	0.66
529	0.66
530	0.659
530	0.658
531	0.657
531	0.655
532	0.653
532	0.652
533	0.651
533	0.649
533	0.648
534	0.645
534	0.643
535	0.641
535	0.64
536	0.637
536	0.634
537	0.631
537	0.628
538	0.625
538	0.622
538	0.618
539	0.615
539	0.612
540	0.608
540	0.604
541	0.6
541	0.596
542	0.592
542	0.588
542	0.583
543	0.578
543	0.574
544	0.569
544	0.564
545	0.56
545	0.555
546	0.55
546	0.545
547	0.54
547	0.535
547	0.53
548	0.526
548	0.521
549	0.516
549	0.512
550	0.507
550	0.501
551	0.496
551	0.491
551	0.486
552	0.481
552	0.476
553	0.471
553	0.466
554	0.461
554	0.455
555	0.45
555	0.445
556	0.439
556	0.434
556	0.429
557	0.424
557	0.419
558	0.413
558	0.408
559	0.403
559	0.397
560	0.392
560	0.387
560	0.382
561	0.378
561	0.373
562	0.369
562	0.364
563	0.36
563	0.355
564	0.351
564	0.347
564	0.343
565	0.339
565	0.335
566	0.33
566	0.326
567	0.322
567	0.318
568	0.314
568	0.309
568	0.305
569	0.301
569	0.297
570	0.292
570	0.287
571	0.284
571	0.28
572	0.276
572	0.272
573	0.268
573	0.264
573	0.26
574	0.256
574	0.254
575	0.25
575	0.249
576	0.246
576	0.241
577	0.237
577	0.234
577	0.232
578	0.23
578	0.228
579	0.227
579	0.225
580	0.22
580	0.216
581	0.212
581	0.209
581	0.207
582	0.206
582	0.204
583	0.202
583	0.199
584	0.195
584	0.191
585	0.189
585	0.188
585	0.187
586	0.184
586	0.182
587	0.179
587	0.176
588	0.173
588	0.171
589	0.169
589	0.167
590	0.165
590	0.162
590	0.161
591	0.16
591	0.157
592	0.155
592	0.152
593	0.151
593	0.149
594	0.147
594	0.145
594	0.144
595	0.142
595	0.139
596	0.137
596	0.136
597	0.136
597	0.135
598	0.133
598	0.132
598	0.131
599	0.13
599	0.129
600	0.128
600	0.127
601	0.126
601	0.126
602	0.124
602	0.123
602	0.122
603	0.121
603	0.121
604	0.12
604	0.119
605	0.119
605	0.118
606	0.117
606	0.114
606	0.113
607	0.112
607	0.111
608	0.11
608	0.108
609	0.106
609	0.106
610	0.104
610	0.103
610	0.102
611	0.102
611	0.101
612	0.101
612	0.1
613	0.1
613	0.099
614	0.097
614	0.095
614	0.094
615	0.092
615	0.091
616	0.09
616	0.089
617	0.088
617	0.087
618	0.086
618	0.085
618	0.085
619	0.084
619	0.084
620	0.085
620	0.084
621	0.083
621	0.082
622	0.08
622	0.079
622	0.078
623	0.077
623	0.077
624	0.076
624	0.075
625	0.074
625	0.074
626	0.073
626	0.072
626	0.073
627	0.073
627	0.073
628	0.073
628	0.072
629	0.072
629	0.071
630	0.07
630	0.07
630	0.069
631	0.069
631	0.068
632	0.067
632	0.067
633	0.066
633	0.065
634	0.065
634	0.065
634	0.064
635	0.064
635	0.063
636	0.063
636	0.062
637	0.061
637	0.061
638	0.06
638	0.06
638	0.059
639	0.058
639	0.056
640	0.056
640	0.054
641	0.053
641	0.051
642	0.05
642	0.049
642	0.047
643	0.046
643	0.044
644	0.042
644	0.04
645	0.039
645	0.038
646	0.036
646	0.033
646	0.03
647	0.027
647	0.024
648	0.021
648	0.017
649	0.013
649	0.01
650	0.006
650	0.002
650	-0.003
651	-0.008
651	-0.015
652	-0.022
652	-0.03
653	-0.036
653	-0.042
653	-0.038
654	-0.03
654	-0.034
655	-0.04
655	-0.043
656	-0.048
656	-0.053
657	-0.057
657	-0.06
657	-0.066
658	-0.071
658	-0.094
659	-0.15
659	-0.2
660	-0.225
660	-0.244
661	-0.263
661	-0.284
661	-0.306
662	-0.324
662	-0.341
663	-0.361
663	-0.382
664	-0.397
664	-0.419
665	-0.441
665	-0.461
665	-0.479
666	-0.5
666	-0.524
667	-0.545
667	-0.573
668	-0.599
668	-0.637
669	-0.674
669	-0.712
669	-0.761
670	-0.819
670	-0.965
671	-1.262
671	-1.62
672	-1.973
672	-2.264
672	-2.436
673	-2.5
673	-2.517
674	-2.534
674	-2.543
675	-2.557
675	-2.561
676	-2.554
676	-2.519
676	-2.432
677	-2.222
677	-1.82
678	-1.286
678	-1.015
679	-0.932
679	-0.89
680	-0.86
680	-0.841
680	-0.826
681	-0.825
681	-0.81
682	-0.805
682	-0.788
683	-0.774
683	-0.776
684	-0.773
684	-0.772
684	-0.769
685	-0.768
685	-0.774
686	-0.764
686	-0.763
687	-0.764
687	-0.766
687	-0.775
688	-0.768
688	-0.77
689	-0.781
689	-0.785
690	-0.778
690	-0.771
691	-0.773
691	-0.78
691	-0.786
692	-0.791
692	-0.792
693	-0.803
693	-0.818
694	-0.801
694	-0.803
695	-0.808
695	-0.806
695	-0.817
696	-0.827
696	-0.822
697	-0.817
697	-0.816
698	-0.812
698	-0.805
698	-0.823
699	-0.821
699	-0.822
700	-0.844
700	-0.84
701	-0.828
701	-0.823
702	-0.824
702	-0.824
702	-0.826
703	-0.819
703	-0.807
704	-0.818
704	-0.823
705	-0.812
705	-0.812
705	-0.809
706	-0.803
706	-0.799
707	-0.811
707	-0.816
708	-0.814
708	-0.813
709	-0.815
709	-0.812
709	-0.807
710	-0.815
710	-0.816
711	-0.816
711	-0.818
712	-0.81
712	-0.807
713	-0.813
713	-0.813
713	-0.792
714	-0.795
714	-0.8
715	-0.792
715	-0.802
716	-0.819
716	-0.83
716	-0.83
717	-0.837
717	-0.828
718	-0.824
718	-0.825
719	-0.82
719	-0.813
720	-0.81
720	-0.805
720	-0.798
721	-0.79
721	-0.793
722	-0.79
722	-0.788
723	-0.806
723	-0.822
723	-0.832
724	-0.831
724	-0.835
725	-0.83
725	-0.834
726	-0.837
726	-0.828
727	-0.83
727	-0.839
727	-0.83
728	-0.816
728	-0.812
729	-0.814
729	-0.817
730	-0.822
730	-0.813
730	-0.82
731	-0.823
731	-0.823
732	-0.825
732	-0.819
733	-0.834
733	-0.84
734	-0.849
734	-0.839
734	-0.823
735	-0.815
735	-0.811
736	-0.808
736	-0.803
737	-0.801
737	-0.791
737	-0.784
738	-0.77
738	-0.758
739	-0.762
739	-0.762
740	-0.775
740	-0.775
741	-0.788
741	-0.798
741	-0.808
742	-0.815
742	-0.83
743	-0.836
743	-0.837
744	-0.84
744	-0.849
744	-0.846
745	-0.853
745	-0.842
746	-0.839
746	-0.829
747	-0.833
747	-0.823
748	-0.826
748	-0.831
748	-0.832
749	-0.825
749	-0.828
750	-0.819
750	-0.819
751	-0.818
751	-0.815
751	-0.827
752	-0.832
752	-0.835
753	-0.837
753	-0.83
754	-0.848
754	-0.848
754	-0.857
755	-0.858
755	-0.849
756	-0.853
756	-0.838
757	-0.83
757	-0.818
758	-0.818
758	-0.819
758	-0.815
759	-0.82
759	-0.82
760	-0.818
760	-0.821
761	-0.814
761	-0.818
761	-0.818
762	-0.824
762	-0.824
763	-0.823
763	-0.827
764	-0.825
764	-0.822
764	-0.827
765	-0.826
765	-0.834
766	-0.839
766	-0.841
767	-0.856
767	-0.852
768	-0.851
768	-0.843
768	-0.837
769	-0.842
769	-0.85
770	-0.861
770	-0.865
771	-0.859
771	-0.858
771	-0.864
772	-0.868
772	-0.89
773	-0.89
773	-0.891
774	-0.887
774	-0.87
775	-0.857
775	-0.855
775	-0.859
776	-0.868
776	-0.863
777	-0.863
777	-0.843
778	-0.854
778	-0.862
778	-0.863
779	-0.871
779	-0.887
780	-0.883
780	-0.891
781	-0.88
781	-0.869
781	-0.882
782	-0.904
782	-0.904
783	-0.901
783	-0.912
784	-0.915
784	-0.909
784	-0.929
785	-0.922
785	-0.935
786	-0.94
786	-0.934
787	-0.924
787	-0.934
788	-0.927
788	-0.92
788	-0.922
789	-0.923
789	-0.913
790	-0.912
790	-0.898
791	-0.905
791	-0.902
791	-0.897
792	-0.89
792	-0.895
793	-0.897
793	-0.885
794	-0.877
794	-0.871
794	-0.878
795	-0.896
795	-0.882
796	-0.886
796	-0.881
797	-0.875
797	-0.864
797	-0.858
798	-0.878
798	-0.882
799	-0.883
799	-0.87
800	-0.867
800	-0.875
801	-0.873
801	-0.878
801	-0.875
802	-0.876
802	-0.876
803	-0.869
803	-0.862
804	-0.869
804	-0.876
804	-0.858
805	-0.841
805	-0.832
806	-0.833
806	-0.829
807	-0.83
807	-0.831
807	-0.814
808	-0.81
808	-0.802
809	-0.797
809	-0.798
810	-0.801
810	-0.799
810	-0.795
811	-0.799
811	-0.791
812	-0.783
812	-0.786
813	-0.79
813	-0.79
813	-0.786
814	-0.785
814	-0.791
815	-0.78
815	-0.774
816	-0.77
816	-0.788
817	-0.798
817	-0.8
817	-0.809
818	-0.8
818	-0.796
819	-0.81
819	-0.808
820	-0.82
820	-0.822
820	-0.821
821	-0.816
821	-0.813
822	-0.812
822	-0.8
823	-0.813
823	-0.813
823	-0.807
824	-0.803
824	-0.813
825	-0.81
825	-0.806
826	-0.803
826	-0.797
826	-0.798
827	-0.8
827	-0.79
828	-0.79
828	-0.783
829	-0.778
829	-0.765
829	-0.763
830	-0.762
830	-0.749
831	-0.743
831	-0.732
832	-0.724
832	-0.717
832	-0.71
833	-0.712
833	-0.717
834	-0.711
834	-0.707
835	-0.7
835	-0.698
835	-0.694
836	-0.69
836	-0.686
837	-0.678
837	-0.668
838	-0.653
838	-0.636
839	-0.63
839	-0.617
839	-0.607
840	-0.604
840	-0.594
841	-0.582
841	-0.575
842	-0.566
842	-0.554
842	-0.553
843	-0.549
843	-0.545
844	-0.542
844	-0.531
845	-0.519
845	-0.512
845	-0.501
846	-0.49
846	-0.48
847	-0.47
847	-0.457
848	-0.443
848	-0.427
848	-0.415
849	-0.402
849	-0.39
850	-0.378
850	-0.368
851	-0.356
851	-0.34
851	-0.331
852	-0.316
852	-0.304
853	-0.296
853	-0.286
854	-0.275
854	-0.265
854	-0.254
855	-0.243
855	-0.235
856	-0.227
856	-0.218
857	-0.212
857	-0.203
857	-0.191
858	-0.181
858	-0.175
859	-0.164
859	-0.153
860	-0.143
860	-0.13
860	-0.12
861	-0.111
861	-0.101
862	-0.093
862	-0.086
863	-0.078
863	-0.069
863	-0.064
864	-0.059
864	-0.052
865	-0.046
865	-0.041
866	-0.036
866	-0.031
866	-0.026
867	-0.021
867	-0.016
868	-0.012
868	-0.008
869	-0.003
869	0
869	0.002
870	0.004
870	0.006
871	0.008
871	0.009
872	0.01
872	0.012
872	0.013
873	0.013
873	0.013
874	0.013
874	0.013
875	0.013
875	0.013
875	0.013
876	0.013
876	0.013
877	0.012
877	0.012
878	0.011
878	0.011
878	0.011
879	0.011
879	0.01
880	0.01
880	0.009
881	0.008
881	0.007
881	0.006
882	0.004
882	0.003
883	0.002
883	0
884	-0
884	-0.001
884	-0.001
885	-0.002
885	-0.002
886	-0.002
886	-0.003
887	-0.003
887	-0.003
887	-0.004
888	-0.004
888	-0.005
889	-0.005
889	-0.006
890	-0.007
890	-0.007
890	-0.007
891	-0.007
891	-0.007
892	-0.006
892	-0.006
893	-0.006
893	-0.006
893	-0.006
894	-0.006
894	-0.006
895	-0.006
895	-0.006
895	-0.006
896	-0.006
896	-0.006
897	-0.006
897	-0.006
898	-0.007
898	-0.006
898	-0.006
899	-0.005
899	-0.005
900	-0.005
900	-0.005
901	-0.006
901	-0.006
901	-0.007
902	-0.007
902	-0.006
903	-0.006
903	-0.007
904	-0.007
904	-0.007
904	-0.007
905	-0.006
905	-0.005
906	-0.004
906	-0.004
907	-0.003
907	-0.003
907	-0.002
908	-0.002
908	-0.001
909	-0.001
909	-0
910	0
910	0
910	0
911	0.001
911	0.001
912	0.002
912	0.003
913	0.004
913	0.004
913	0.005
914	0.005
914	0.006
915	0.006
915	0.006
916	0.006
916	0.006
916	0.006
917	0.006
917	0.006
918	0.006
918	0.006
918	0.006
919	0.005
919	0.006
920	0.006
920	0.007
921	0.008
921	0.009
921	0.009
922	0.01
922	0.01
923	0.011
923	0.011
924	0.011
924	0.01
924	0.01
925	0.009
925	0.007
926	0.006
926	0.005
927	0.004
927	0.003
927	0.002
928	0.001
928	0.001
929	0.001
929	0.001
930	0.002
930	0.002
930	0.003
931	0.004
931	0.005
932	0.006
932	0.007
933	0.008
933	0.009
933	0.009
934	0.008
934	0.008
935	0.008
935	0.007
935	0.006
936	0.005
936	0.003
937	0.002
937	0.001
938	0.001
938	-0
938	-0.001
939	-0.002
939	-0.002
940	-0.003
940	-0.003
941	-0.004
941	-0.005
941	-0.005
942	-0.006
942	-0.006
943	-0.006
943	-0.006
944	-0.007
944	-0.008
944	-0.009
945	-0.009
945	-0.009
946	-0.009
946	-0.009
946	-0.009
947	-0.009
947	-0.009
948	-0.009
948	-0.008
949	-0.007
949	-0.005
949	-0.004
950	-0.002
950	-0.001
951	0.001
951	0.002
952	0.002
952	0.004
952	0.004
953	0.005
953	0.005
954	0.005
954	0.005
955	0.005
955	0.005
955	0.005
956	0.005
956	0.004
957	0.003
957	0.003
957	0.002
958	0.001
958	0.001
959	0.001
959	0.001
960	0
960	0
960	0
961	0.001
961	0.001
962	0.001
962	0.001
963	0.002
963	0.002
963	0.002
964	0.003
964	0.003
965	0.003
965	0.003
966	0.003
966	0.004
966	0.004
967	0.004
967	0.004
968	0.004
968	0.003
968	0.003
969	0.003
969	0.003
970	0.003
970	0.002
971	0.002
971	0.002
971	0.002
972	0.003
972	0.003
973	0.003
973	0.003
974	0.003
974	0.003
974	0.004
975	0.004
975	0.004
976	0.004
976	0.004
976	0.004
977	0.004
977	0.003
978	0.003
978	0.002
979	0.002
979	0.001
979	0.001
980	0.001
980	0.001
981	0
981	0
982	0
982	0
982	0
983	0
983	0
984	0
984	-0
984	-0.001
985	-0.001
985	-0.002
986	-0.002
986	-0.003
987	-0.004
987	-0.005
987	-0.006
988	-0.007
988	-0.008
989	-0.009
989	-0.009
990	-0.01
990	-0.011
990	-0.012
991	-0.012
991	-0.012
992	-0.013
992	-0.013
992	-0.014
993	-0.014
993	-0.015
994	-0.016
994	-0.017
995	-0.018
995	-0.019
995	-0.02
996	-0.021
996	-0.022
997	-0.024
997	-0.024
997	-0.025
998	-0.025
998	-0.025
999	-0.025
999	-0.025
1000	-0.025
1000	-0.025
1000	-0.024
1001	-0.024
1001	-0.023
1002	-0.023
1002	-0.023
1003	-0.023
1003	-0.023
1003	-0.023
1004	-0.023
1004	-0.023
1005	-0.024
1005	-0.024
1005	-0.025
1006	-0.026
1006	-0.027
1007	-0.028
1007	-0.029
1008	-0.03
1008	-0.03
1008	-0.031
1009	-0.031
1009	-0.031
1010	-0.031
1010	-0.03
1010	-0.03
1011	-0.029
1011	-0.028
1012	-0.027
1012	-0.025
1013	-0.024
1013	-0.023
1013	-0.022
1014	-0.021
1014	-0.02
1015	-0.019
1015	-0.019
1016	-0.019
1016	-0.019
1016	-0.019
1017	-0.019
1017	-0.019
1018	-0.019
1018	-0.02
1018	-0.02
1019	-0.02
1019	-0.021
1020	-0.021
1020	-0.022
1021	-0.022
1021	-0.022
1021	-0.023
1022	-0.023
1022	-0.023
1023	-0.022
1023	-0.023
1023	-0.022
1024	-0.022
1024	-0.022
1025	-0.022
1025	-0.021
1026	-0.021
1026	-0.02
1026	-0.021
1027	-0.02
1027	-0.02
1028	-0.019
1028	-0.019
1028	-0.019
1029	-0.018
1029	-0.018
1030	-0.018
1030	-0.018
1031	-0.018
1031	-0.017
1031	-0.017
1032	-0.017
1032	-0.017
1033	-0.017
1033	-0.017
1033	-0.017
1034	-0.017
1034	-0.017
1035	-0.016
1035	-0.017
1036	-0.018
1036	-0.018
1036	-0.018
1037	-0.018
1037	-0.017
1038	-0.017
1038	-0.017
1039	-0.017
1039	-0.016
1039	-0.016
1040	-0.015
1040	-0.015
1041	-0.015
1041	-0.015
1041	-0.016
1042	-0.017
1042	-0.017
1043	-0.018
1043	-0.019
1044	-0.02
1044	-0.021
1044	-0.022
1045	-0.023
1045	-0.024
1046	-0.025
1046	-0.025
1046	-0.026
1047	-0.026
1047	-0.026
1048	-0.025
1048	-0.025
1049	-0.025
1049	-0.025
1049	-0.025
1050	-0.026
1050	-0.027
1051	-0.027
1051	-0.028
1051	-0.028
1052	-0.029
1052	-0.03
1053	-0.031
1053	-0.032
1053	-0.032
1054	-0.033
1054	-0.033
1055	-0.033
1055	-0.033
1056	-0.033
1056	-0.034
1056	-0.034
1057	-0.034
1057	-0.034
1058	-0.035
1058	-0.035
1058	-0.035
1059	-0.035
1059	-0.036
1060	-0.036
1060	-0.036
1061	-0.037
1061	-0.037
1061	-0.036
1062	-0.037
1062	-0.037
1063	-0.036
1063	-0.037
1063	-0.036
1064	-0.036
1064	-0.036
1065	-0.035
1065	-0.035
1066	-0.036
1066	-0.036
1066	-0.036
1067	-0.036
1067	-0.037
1068	-0.038
1068	-0.038
1068	-0.039
1069	-0.04
1069	-0.041
1070	-0.041
1070	-0.041
1071	-0.042
1071	-0.042
1071	-0.042
1072	-0.043
1072	-0.042
1073	-0.042
1073	-0.042
1073	-0.043
1074	-0.043
1074	-0.043
1075	-0.044
1075	-0.044
1076	-0.045
1076	-0.046
1076	-0.047
1077	-0.048
1077	-0.049
1078	-0.049
1078	-0.05
1078	-0.05
1079	-0.051
1079	-0.052
1080	-0.053
1080	-0.054
1080	-0.055
1081	-0.056
1081	-0.057
1082	-0.058
1082	-0.059
1083	-0.06
1083	-0.061
1083	-0.062
1084	-0.063
1084	-0.064
1085	-0.065
1085	-0.066
1085	-0.066
1086	-0.067
1086	-0.068
1087	-0.069
1087	-0.07
1088	-0.071
1088	-0.072
1088	-0.072
1089	-0.073
1089	-0.074
1090	-0.075
1090	-0.075
1090	-0.076
1091	-0.077
1091	-0.077
1092	-0.077
1092	-0.076
1092	-0.077
1093	-0.078
1093	-0.078
1094	-0.079
1094	-0.079
1095	-0.081
1095	-0.081
1095	-0.082
1096	-0.084
1096	-0.086
1097	-0.087
1097	-0.089
1097	-0.091
1098	-0.093
1098	-0.095
1099	-0.097
1099	-0.098
1100	-0.101
1100	-0.103
1100	-0.106
1101	-0.109
1101	-0.111
1102	-0.114
1102	-0.116
1102	-0.118
1103	-0.121
1103	-0.123
1104	-0.127
1104	-0.129
1104	-0.131
1105	-0.133
1105	-0.136
1106	-0.14
1106	-0.142
1107	-0.148
1107	-0.152
1107	-0.156
1108	-0.159
1108	-0.159
1109	-0.163
1109	-0.167
1109	-0.172
1110	-0.174
1110	-0.179
1111	-0.187
1111	-0.182
