Data from 3.4A_17C_Absorbance__448__02360.txt Node

Date: Tue Jun 20 16:40:41 CEST 2023
User: Marek
Spectrometer: MAYP115816
Trigger mode: 0
Integration Time (sec): 2.200000E-1
Scans to average: 10
Electric dark correction enabled: true
Nonlinearity correction enabled: true
Boxcar width: 5
XAxis mode: Wavelengths
Number of Pixels in Spectrum: 2068
>>>>>Begin Spectral Data<<<<<
199	-0.795
199	-0.779
200	-0.747
200	-0.693
201	-0.664
201	-0.657
202	-0.641
202	-0.634
203	-0.632
203	-0.625
204	-0.606
204	-0.591
205	-0.569
205	-0.558
205	-0.566
206	-0.567
206	-0.562
207	-0.554
207	-0.559
208	-0.56
208	-0.566
209	-0.567
209	-0.572
210	-0.586
210	-0.593
211	-0.587
211	-0.592
212	-0.601
212	-0.609
213	-0.606
213	-0.602
213	-0.598
214	-0.606
214	-0.608
215	-0.604
215	-0.609
216	-0.618
216	-0.625
217	-0.623
217	-0.623
218	-0.632
218	-0.633
219	-0.639
219	-0.641
220	-0.643
220	-0.65
221	-0.65
221	-0.65
221	-0.642
222	-0.642
222	-0.64
223	-0.636
223	-0.638
224	-0.64
224	-0.637
225	-0.635
225	-0.636
226	-0.637
226	-0.636
227	-0.644
227	-0.654
228	-0.659
228	-0.667
229	-0.67
229	-0.668
229	-0.67
230	-0.665
230	-0.663
231	-0.659
231	-0.654
232	-0.657
232	-0.651
233	-0.65
233	-0.639
234	-0.641
234	-0.635
235	-0.637
235	-0.649
236	-0.655
236	-0.658
236	-0.659
237	-0.656
237	-0.656
238	-0.656
238	-0.657
239	-0.659
239	-0.669
240	-0.664
240	-0.66
241	-0.656
241	-0.659
242	-0.663
242	-0.672
243	-0.672
243	-0.674
243	-0.679
244	-0.677
244	-0.678
245	-0.68
245	-0.685
246	-0.694
246	-0.698
247	-0.704
247	-0.689
248	-0.689
248	-0.693
249	-0.7
249	-0.701
250	-0.7
250	-0.708
250	-0.705
251	-0.705
251	-0.7
252	-0.702
252	-0.714
253	-0.71
253	-0.721
254	-0.726
254	-0.727
255	-0.739
255	-0.739
256	-0.741
256	-0.753
257	-0.762
257	-0.759
258	-0.76
258	-0.767
258	-0.765
259	-0.756
259	-0.774
260	-0.772
260	-0.76
261	-0.772
261	-0.759
262	-0.763
262	-0.763
263	-0.755
263	-0.761
264	-0.771
264	-0.773
265	-0.763
265	-0.766
265	-0.776
266	-0.767
266	-0.768
267	-0.767
267	-0.783
268	-0.791
268	-0.784
269	-0.776
269	-0.791
270	-0.793
270	-0.792
271	-0.806
271	-0.816
272	-0.818
272	-0.821
272	-0.814
273	-0.823
273	-0.838
274	-0.831
274	-0.826
275	-0.823
275	-0.811
276	-0.815
276	-0.819
277	-0.82
277	-0.817
278	-0.823
278	-0.821
278	-0.809
279	-0.817
279	-0.829
280	-0.832
280	-0.842
281	-0.835
281	-0.828
282	-0.834
282	-0.829
283	-0.822
283	-0.838
284	-0.852
284	-0.862
285	-0.843
285	-0.848
285	-0.84
286	-0.847
286	-0.864
287	-0.861
287	-0.859
288	-0.858
288	-0.838
289	-0.837
289	-0.845
290	-0.853
290	-0.842
291	-0.846
291	-0.843
292	-0.824
292	-0.819
292	-0.822
293	-0.81
293	-0.807
294	-0.806
294	-0.792
295	-0.775
295	-0.787
296	-0.799
296	-0.794
297	-0.782
297	-0.788
298	-0.787
298	-0.803
298	-0.806
299	-0.789
299	-0.782
300	-0.778
300	-0.759
301	-0.74
301	-0.742
302	-0.752
302	-0.736
303	-0.728
303	-0.717
304	-0.699
304	-0.701
305	-0.695
305	-0.704
305	-0.719
306	-0.705
306	-0.704
307	-0.696
307	-0.709
308	-0.712
308	-0.707
309	-0.71
309	-0.707
310	-0.706
310	-0.699
311	-0.685
311	-0.701
311	-0.688
312	-0.684
312	-0.673
313	-0.664
313	-0.665
314	-0.669
314	-0.667
315	-0.663
315	-0.658
316	-0.652
316	-0.642
317	-0.634
317	-0.633
318	-0.624
318	-0.623
318	-0.613
319	-0.602
319	-0.593
320	-0.591
320	-0.588
321	-0.585
321	-0.586
322	-0.58
322	-0.572
323	-0.572
323	-0.562
324	-0.559
324	-0.547
324	-0.535
325	-0.518
325	-0.501
326	-0.491
326	-0.465
327	-0.451
327	-0.429
328	-0.398
328	-0.374
329	-0.347
329	-0.318
330	-0.291
330	-0.256
330	-0.219
331	-0.182
331	-0.147
332	-0.113
332	-0.079
333	-0.048
333	-0.014
334	0.017
334	0.044
335	0.072
335	0.095
336	0.118
336	0.141
336	0.158
337	0.177
337	0.194
338	0.209
338	0.22
339	0.234
339	0.246
340	0.254
340	0.263
341	0.27
341	0.277
342	0.284
342	0.291
342	0.296
343	0.3
343	0.306
344	0.309
344	0.312
345	0.315
345	0.318
346	0.32
346	0.322
347	0.324
347	0.325
348	0.326
348	0.328
348	0.329
349	0.33
349	0.331
350	0.331
350	0.332
351	0.333
351	0.333
352	0.333
352	0.333
353	0.334
353	0.334
354	0.334
354	0.335
354	0.335
355	0.335
355	0.334
356	0.334
356	0.334
357	0.334
357	0.335
358	0.334
358	0.335
359	0.335
359	0.334
360	0.335
360	0.335
360	0.335
361	0.335
361	0.335
362	0.335
362	0.335
363	0.335
363	0.335
364	0.335
364	0.334
365	0.334
365	0.334
366	0.334
366	0.334
366	0.334
367	0.334
367	0.334
368	0.334
368	0.333
369	0.333
369	0.333
370	0.333
370	0.333
371	0.332
371	0.332
372	0.332
372	0.331
372	0.331
373	0.331
373	0.331
374	0.331
374	0.331
375	0.33
375	0.33
376	0.33
376	0.33
377	0.329
377	0.329
378	0.329
378	0.328
378	0.328
379	0.328
379	0.327
380	0.327
380	0.327
381	0.327
381	0.326
382	0.326
382	0.326
383	0.326
383	0.326
383	0.326
384	0.325
384	0.325
385	0.325
385	0.324
386	0.324
386	0.324
387	0.324
387	0.323
388	0.323
388	0.323
389	0.322
389	0.322
389	0.322
390	0.322
390	0.322
391	0.321
391	0.321
392	0.321
392	0.321
393	0.321
393	0.32
394	0.32
394	0.32
394	0.32
395	0.319
395	0.319
396	0.318
396	0.318
397	0.318
397	0.318
398	0.317
398	0.317
399	0.317
399	0.317
400	0.316
400	0.316
400	0.316
401	0.316
401	0.315
402	0.315
402	0.315
403	0.314
403	0.314
404	0.314
404	0.313
405	0.313
405	0.313
405	0.312
406	0.312
406	0.312
407	0.312
407	0.311
408	0.311
408	0.311
409	0.311
409	0.311
410	0.311
410	0.311
411	0.31
411	0.31
411	0.31
412	0.31
412	0.309
413	0.309
413	0.309
414	0.308
414	0.308
415	0.308
415	0.308
416	0.307
416	0.307
416	0.307
417	0.306
417	0.306
418	0.306
418	0.306
419	0.306
419	0.306
420	0.305
420	0.305
421	0.305
421	0.305
421	0.306
422	0.306
422	0.306
423	0.305
423	0.305
424	0.305
424	0.305
425	0.305
425	0.304
426	0.304
426	0.304
427	0.304
427	0.304
427	0.304
428	0.304
428	0.304
429	0.304
429	0.303
430	0.303
430	0.303
431	0.302
431	0.302
432	0.302
432	0.301
432	0.301
433	0.301
433	0.301
434	0.301
434	0.301
435	0.301
435	0.301
436	0.301
436	0.301
437	0.301
437	0.301
437	0.301
438	0.301
438	0.301
439	0.301
439	0.3
440	0.3
440	0.3
441	0.3
441	0.3
442	0.3
442	0.3
442	0.299
443	0.299
443	0.299
444	0.299
444	0.299
445	0.3
445	0.3
446	0.299
446	0.3
447	0.3
447	0.3
447	0.3
448	0.3
448	0.3
449	0.3
449	0.3
450	0.3
450	0.3
451	0.3
451	0.3
452	0.3
452	0.3
452	0.3
453	0.3
453	0.3
454	0.3
454	0.3
455	0.301
455	0.301
456	0.301
456	0.301
457	0.301
457	0.301
458	0.301
458	0.301
458	0.301
459	0.301
459	0.301
460	0.3
460	0.3
461	0.301
461	0.301
462	0.301
462	0.302
463	0.302
463	0.303
463	0.304
464	0.304
464	0.304
465	0.305
465	0.305
466	0.306
466	0.306
467	0.307
467	0.307
467	0.307
468	0.307
468	0.307
469	0.307
469	0.308
470	0.308
470	0.308
471	0.308
471	0.308
472	0.308
472	0.309
472	0.309
473	0.31
473	0.311
474	0.311
474	0.312
475	0.313
475	0.314
476	0.314
476	0.315
477	0.316
477	0.317
477	0.318
478	0.319
478	0.319
479	0.32
479	0.321
480	0.321
480	0.322
481	0.323
481	0.324
482	0.325
482	0.326
482	0.327
483	0.329
483	0.331
484	0.332
484	0.333
485	0.334
485	0.336
486	0.337
486	0.338
487	0.339
487	0.34
487	0.341
488	0.342
488	0.343
489	0.344
489	0.346
490	0.348
490	0.349
491	0.351
491	0.352
492	0.354
492	0.355
492	0.357
493	0.358
493	0.36
494	0.362
494	0.365
495	0.366
495	0.368
496	0.37
496	0.372
496	0.374
497	0.376
497	0.378
498	0.381
498	0.383
499	0.385
499	0.387
500	0.39
500	0.393
501	0.395
501	0.397
501	0.399
502	0.401
502	0.403
503	0.406
503	0.408
504	0.41
504	0.413
505	0.415
505	0.418
506	0.421
506	0.423
506	0.426
507	0.429
507	0.432
508	0.436
508	0.439
509	0.442
509	0.444
510	0.447
510	0.45
511	0.452
511	0.455
511	0.457
512	0.46
512	0.462
513	0.463
513	0.466
514	0.468
514	0.47
515	0.472
515	0.474
515	0.475
516	0.477
516	0.48
517	0.482
517	0.483
518	0.485
518	0.487
519	0.488
519	0.489
520	0.491
520	0.493
520	0.495
521	0.496
521	0.497
522	0.499
522	0.5
523	0.502
523	0.503
524	0.504
524	0.505
524	0.506
525	0.507
525	0.508
526	0.509
526	0.509
527	0.51
527	0.51
528	0.51
528	0.51
529	0.51
529	0.51
529	0.51
530	0.51
530	0.509
531	0.509
531	0.509
532	0.508
532	0.508
533	0.507
533	0.507
533	0.506
534	0.505
534	0.504
535	0.504
535	0.503
536	0.502
536	0.501
537	0.501
537	0.5
538	0.498
538	0.497
538	0.495
539	0.494
539	0.492
540	0.49
540	0.488
541	0.486
541	0.484
542	0.482
542	0.48
542	0.478
543	0.476
543	0.473
544	0.471
544	0.469
545	0.467
545	0.465
546	0.463
546	0.46
547	0.457
547	0.454
547	0.452
548	0.45
548	0.448
549	0.446
549	0.444
550	0.442
550	0.439
551	0.436
551	0.434
551	0.431
552	0.429
552	0.427
553	0.424
553	0.422
554	0.419
554	0.416
555	0.413
555	0.41
556	0.408
556	0.405
556	0.402
557	0.4
557	0.398
558	0.395
558	0.392
559	0.39
559	0.387
560	0.384
560	0.381
560	0.379
561	0.377
561	0.375
562	0.373
562	0.371
563	0.369
563	0.367
564	0.365
564	0.363
564	0.361
565	0.36
565	0.358
566	0.356
566	0.354
567	0.353
567	0.351
568	0.349
568	0.347
568	0.345
569	0.343
569	0.34
570	0.338
570	0.335
571	0.334
571	0.332
572	0.329
572	0.327
573	0.325
573	0.322
573	0.32
574	0.318
574	0.317
575	0.316
575	0.316
576	0.314
576	0.311
577	0.309
577	0.308
577	0.307
578	0.306
578	0.306
579	0.306
579	0.305
580	0.303
580	0.299
581	0.297
581	0.295
581	0.295
582	0.294
582	0.294
583	0.293
583	0.291
584	0.288
584	0.286
585	0.286
585	0.286
585	0.285
586	0.284
586	0.283
587	0.281
587	0.279
588	0.277
588	0.276
589	0.275
589	0.274
590	0.272
590	0.271
590	0.271
591	0.27
591	0.269
592	0.267
592	0.265
593	0.265
593	0.263
594	0.262
594	0.26
594	0.259
595	0.258
595	0.256
596	0.255
596	0.255
597	0.256
597	0.255
598	0.254
598	0.253
598	0.253
599	0.253
599	0.251
600	0.25
600	0.25
601	0.25
601	0.249
602	0.248
602	0.248
602	0.247
603	0.246
603	0.247
604	0.246
604	0.246
605	0.246
605	0.245
606	0.244
606	0.242
606	0.241
607	0.24
607	0.239
608	0.238
608	0.236
609	0.235
609	0.235
610	0.233
610	0.232
610	0.232
611	0.231
611	0.231
612	0.23
612	0.23
613	0.229
613	0.228
614	0.227
614	0.225
614	0.224
615	0.222
615	0.221
616	0.22
616	0.219
617	0.218
617	0.217
618	0.216
618	0.215
618	0.215
619	0.214
619	0.214
620	0.214
620	0.213
621	0.212
621	0.21
622	0.209
622	0.207
622	0.205
623	0.203
623	0.203
624	0.202
624	0.201
625	0.199
625	0.199
626	0.197
626	0.196
626	0.196
627	0.195
627	0.195
628	0.194
628	0.193
629	0.192
629	0.19
630	0.188
630	0.187
630	0.186
631	0.185
631	0.183
632	0.181
632	0.179
633	0.177
633	0.174
634	0.172
634	0.17
634	0.168
635	0.166
635	0.163
636	0.161
636	0.158
637	0.155
637	0.152
638	0.15
638	0.147
638	0.143
639	0.139
639	0.135
640	0.131
640	0.127
641	0.123
641	0.119
642	0.114
642	0.11
642	0.106
643	0.101
643	0.096
644	0.091
644	0.085
645	0.08
645	0.075
646	0.07
646	0.063
646	0.057
647	0.05
647	0.044
648	0.036
648	0.029
649	0.022
649	0.015
650	0.007
650	-0
650	-0.008
651	-0.017
651	-0.029
652	-0.043
652	-0.057
653	-0.069
653	-0.079
653	-0.074
654	-0.054
654	-0.048
655	-0.054
655	-0.059
656	-0.065
656	-0.071
657	-0.076
657	-0.081
657	-0.087
658	-0.094
658	-0.125
659	-0.212
659	-0.3
660	-0.34
660	-0.366
661	-0.393
661	-0.422
661	-0.451
662	-0.476
662	-0.505
663	-0.538
663	-0.576
664	-0.611
664	-0.65
665	-0.694
665	-0.738
665	-0.781
666	-0.829
666	-0.883
667	-0.936
667	-0.996
668	-1.052
668	-1.118
669	-1.184
669	-1.255
669	-1.33
670	-1.408
670	-1.511
671	-1.655
671	-1.934
672	-2.238
672	-2.423
672	-2.556
673	-2.659
673	-2.745
674	-2.825
674	-2.845
675	-2.862
675	-2.867
676	-2.867
676	-2.839
676	-2.774
677	-2.695
677	-2.604
678	-2.47
678	-2.263
679	-1.837
679	-1.629
680	-1.516
680	-1.436
680	-1.366
681	-1.315
681	-1.26
682	-1.217
682	-1.173
683	-1.13
683	-1.105
684	-1.076
684	-1.058
684	-1.035
685	-1.014
685	-1.005
686	-0.983
686	-0.969
687	-0.959
687	-0.947
687	-0.948
688	-0.932
688	-0.925
689	-0.928
689	-0.925
690	-0.911
690	-0.9
691	-0.897
691	-0.9
691	-0.901
692	-0.901
692	-0.898
693	-0.905
693	-0.916
694	-0.896
694	-0.894
695	-0.898
695	-0.892
695	-0.899
696	-0.906
696	-0.898
697	-0.893
697	-0.888
698	-0.884
698	-0.876
698	-0.89
699	-0.89
699	-0.89
700	-0.91
700	-0.904
701	-0.89
701	-0.884
702	-0.884
702	-0.882
702	-0.882
703	-0.871
703	-0.858
704	-0.866
704	-0.871
705	-0.858
705	-0.858
705	-0.852
706	-0.845
706	-0.842
707	-0.852
707	-0.856
708	-0.853
708	-0.852
709	-0.851
709	-0.847
709	-0.843
710	-0.85
710	-0.854
711	-0.853
711	-0.854
712	-0.845
712	-0.842
713	-0.846
713	-0.847
713	-0.829
714	-0.83
714	-0.834
715	-0.826
715	-0.834
716	-0.851
716	-0.86
716	-0.861
717	-0.867
717	-0.86
718	-0.854
718	-0.853
719	-0.85
719	-0.843
720	-0.839
720	-0.834
720	-0.826
721	-0.817
721	-0.822
722	-0.819
722	-0.815
723	-0.831
723	-0.844
723	-0.852
724	-0.85
724	-0.855
725	-0.848
725	-0.853
726	-0.855
726	-0.845
727	-0.848
727	-0.855
727	-0.845
728	-0.832
728	-0.828
729	-0.831
729	-0.833
730	-0.84
730	-0.83
730	-0.836
731	-0.839
731	-0.84
732	-0.842
732	-0.838
733	-0.854
733	-0.861
734	-0.869
734	-0.862
734	-0.844
735	-0.836
735	-0.831
736	-0.831
736	-0.825
737	-0.825
737	-0.814
737	-0.805
738	-0.791
738	-0.779
739	-0.782
739	-0.783
740	-0.796
740	-0.795
741	-0.805
741	-0.815
741	-0.824
742	-0.831
742	-0.846
743	-0.853
743	-0.856
744	-0.86
744	-0.867
744	-0.861
745	-0.87
745	-0.859
746	-0.855
746	-0.847
747	-0.85
747	-0.84
748	-0.841
748	-0.845
748	-0.847
749	-0.84
749	-0.846
750	-0.837
750	-0.837
751	-0.835
751	-0.832
751	-0.845
752	-0.85
752	-0.853
753	-0.852
753	-0.844
754	-0.863
754	-0.864
754	-0.872
755	-0.872
755	-0.866
756	-0.868
756	-0.852
757	-0.844
757	-0.833
758	-0.835
758	-0.834
758	-0.83
759	-0.833
759	-0.832
760	-0.831
760	-0.832
761	-0.827
761	-0.832
761	-0.832
762	-0.839
762	-0.84
763	-0.839
763	-0.845
764	-0.845
764	-0.841
764	-0.846
765	-0.846
765	-0.852
766	-0.854
766	-0.856
767	-0.872
767	-0.867
768	-0.866
768	-0.858
768	-0.852
769	-0.855
769	-0.863
770	-0.873
770	-0.878
771	-0.874
771	-0.873
771	-0.876
772	-0.88
772	-0.902
773	-0.902
773	-0.901
774	-0.9
774	-0.882
775	-0.869
775	-0.866
775	-0.871
776	-0.882
776	-0.879
777	-0.879
777	-0.86
778	-0.87
778	-0.88
778	-0.879
779	-0.887
779	-0.905
780	-0.903
780	-0.911
781	-0.9
781	-0.89
781	-0.904
782	-0.925
782	-0.926
783	-0.924
783	-0.931
784	-0.934
784	-0.926
784	-0.946
785	-0.937
785	-0.95
786	-0.956
786	-0.948
787	-0.939
787	-0.948
788	-0.941
788	-0.936
788	-0.938
789	-0.937
789	-0.927
790	-0.927
790	-0.91
791	-0.917
791	-0.914
791	-0.906
792	-0.899
792	-0.903
793	-0.905
793	-0.893
794	-0.889
794	-0.882
794	-0.889
795	-0.91
795	-0.896
796	-0.9
796	-0.895
797	-0.887
797	-0.879
797	-0.872
798	-0.893
798	-0.896
799	-0.896
799	-0.881
800	-0.876
800	-0.885
801	-0.882
801	-0.887
801	-0.885
802	-0.884
802	-0.884
803	-0.878
803	-0.868
804	-0.874
804	-0.882
804	-0.866
805	-0.846
805	-0.837
806	-0.838
806	-0.835
807	-0.838
807	-0.835
807	-0.818
808	-0.816
808	-0.808
809	-0.802
809	-0.801
810	-0.805
810	-0.803
810	-0.798
811	-0.801
811	-0.792
812	-0.785
812	-0.786
813	-0.79
813	-0.793
813	-0.79
814	-0.793
814	-0.796
815	-0.787
815	-0.784
816	-0.78
816	-0.796
817	-0.808
817	-0.812
817	-0.822
818	-0.816
818	-0.813
819	-0.822
819	-0.822
820	-0.834
820	-0.834
820	-0.833
821	-0.827
821	-0.825
822	-0.824
822	-0.812
823	-0.821
823	-0.82
823	-0.816
824	-0.813
824	-0.823
825	-0.82
825	-0.817
826	-0.812
826	-0.806
826	-0.808
827	-0.809
827	-0.798
828	-0.797
828	-0.791
829	-0.786
829	-0.771
829	-0.77
830	-0.77
830	-0.755
831	-0.749
831	-0.737
832	-0.726
832	-0.721
832	-0.714
833	-0.712
833	-0.716
834	-0.711
834	-0.705
835	-0.697
835	-0.699
835	-0.693
836	-0.688
836	-0.685
837	-0.674
837	-0.665
838	-0.654
838	-0.637
839	-0.63
839	-0.618
839	-0.609
840	-0.606
840	-0.596
841	-0.587
841	-0.58
842	-0.572
842	-0.56
842	-0.555
843	-0.553
843	-0.549
844	-0.546
844	-0.533
845	-0.521
845	-0.511
845	-0.501
846	-0.489
846	-0.478
847	-0.468
847	-0.455
848	-0.44
848	-0.423
848	-0.408
849	-0.396
849	-0.381
850	-0.369
850	-0.357
851	-0.341
851	-0.324
851	-0.313
852	-0.297
852	-0.283
853	-0.274
853	-0.264
854	-0.252
854	-0.243
854	-0.232
855	-0.221
855	-0.214
856	-0.205
856	-0.197
857	-0.19
857	-0.182
857	-0.168
858	-0.156
858	-0.148
859	-0.137
859	-0.124
860	-0.113
860	-0.098
860	-0.088
861	-0.078
861	-0.067
862	-0.058
862	-0.051
863	-0.043
863	-0.034
863	-0.027
864	-0.022
864	-0.014
865	-0.008
865	-0.002
866	0.004
866	0.01
866	0.016
867	0.022
867	0.028
868	0.033
868	0.038
869	0.043
869	0.047
869	0.049
870	0.052
870	0.054
871	0.056
871	0.057
872	0.058
872	0.06
872	0.061
873	0.061
873	0.06
874	0.06
874	0.06
875	0.059
875	0.059
875	0.059
876	0.059
876	0.059
877	0.058
877	0.057
878	0.057
878	0.056
878	0.056
879	0.056
879	0.055
880	0.055
880	0.054
881	0.053
881	0.052
881	0.051
882	0.049
882	0.048
883	0.046
883	0.045
884	0.044
884	0.043
884	0.043
885	0.042
885	0.042
886	0.042
886	0.041
887	0.041
887	0.04
887	0.04
888	0.04
888	0.039
889	0.038
889	0.037
890	0.036
890	0.035
890	0.035
891	0.035
891	0.034
892	0.035
892	0.035
893	0.035
893	0.035
893	0.035
894	0.035
894	0.035
895	0.035
895	0.035
895	0.034
896	0.035
896	0.035
897	0.035
897	0.036
898	0.036
898	0.036
898	0.036
899	0.036
899	0.037
900	0.037
900	0.037
901	0.036
901	0.036
901	0.035
902	0.035
902	0.035
903	0.034
903	0.034
904	0.033
904	0.033
904	0.034
905	0.034
905	0.035
906	0.036
906	0.036
907	0.037
907	0.037
907	0.038
908	0.038
908	0.039
909	0.039
909	0.039
910	0.04
910	0.04
910	0.04
911	0.041
911	0.041
912	0.042
912	0.043
913	0.043
913	0.044
913	0.044
914	0.044
914	0.045
915	0.045
915	0.045
916	0.045
916	0.045
916	0.045
917	0.045
917	0.044
918	0.044
918	0.044
918	0.044
919	0.043
919	0.044
920	0.044
920	0.045
921	0.045
921	0.046
921	0.047
922	0.047
922	0.047
923	0.048
923	0.048
924	0.048
924	0.047
924	0.047
925	0.045
925	0.044
926	0.043
926	0.041
927	0.04
927	0.039
927	0.038
928	0.038
928	0.037
929	0.038
929	0.038
930	0.039
930	0.039
930	0.04
931	0.041
931	0.042
932	0.043
932	0.044
933	0.045
933	0.045
933	0.045
934	0.045
934	0.044
935	0.044
935	0.043
935	0.042
936	0.041
936	0.039
937	0.038
937	0.037
938	0.037
938	0.036
938	0.035
939	0.035
939	0.034
940	0.033
940	0.033
941	0.032
941	0.031
941	0.03
942	0.03
942	0.029
943	0.029
943	0.028
944	0.027
944	0.026
944	0.026
945	0.025
945	0.025
946	0.024
946	0.024
946	0.023
947	0.023
947	0.023
948	0.024
948	0.024
949	0.025
949	0.027
949	0.029
950	0.03
950	0.032
951	0.034
951	0.035
952	0.036
952	0.038
952	0.038
953	0.039
953	0.039
954	0.039
954	0.038
955	0.038
955	0.038
955	0.038
956	0.037
956	0.036
957	0.035
957	0.034
957	0.033
958	0.033
958	0.033
959	0.032
959	0.032
960	0.032
960	0.031
960	0.031
961	0.031
961	0.032
962	0.032
962	0.032
963	0.032
963	0.032
963	0.033
964	0.033
964	0.033
965	0.033
965	0.033
966	0.034
966	0.034
966	0.034
967	0.034
967	0.034
968	0.034
968	0.033
968	0.033
969	0.033
969	0.033
970	0.033
970	0.033
971	0.032
971	0.033
971	0.033
972	0.033
972	0.033
973	0.034
973	0.034
974	0.033
974	0.034
974	0.034
975	0.034
975	0.034
976	0.034
976	0.034
976	0.033
977	0.033
977	0.033
978	0.032
978	0.032
979	0.032
979	0.031
979	0.031
980	0.031
980	0.031
981	0.031
981	0.031
982	0.031
982	0.031
982	0.031
983	0.031
983	0.03
984	0.03
984	0.03
984	0.029
985	0.029
985	0.028
986	0.027
986	0.026
987	0.026
987	0.025
987	0.024
988	0.024
988	0.023
989	0.022
989	0.021
990	0.021
990	0.02
990	0.019
991	0.019
991	0.018
992	0.017
992	0.016
992	0.016
993	0.015
993	0.014
994	0.013
994	0.011
995	0.01
995	0.009
995	0.007
996	0.006
996	0.004
997	0.003
997	0.002
997	0.001
998	0.001
998	0.001
999	0.001
999	0.001
1000	0.002
1000	0.002
1000	0.003
1001	0.004
1001	0.005
1002	0.005
1002	0.005
1003	0.006
1003	0.006
1003	0.006
1004	0.006
1004	0.006
1005	0.006
1005	0.005
1005	0.004
1006	0.004
1006	0.003
1007	0.002
1007	0.001
1008	0
1008	-0.001
1008	-0.001
1009	-0.001
1009	-0.001
1010	-0.001
1010	-0
1010	0
1011	0.001
1011	0.002
1012	0.003
1012	0.005
1013	0.006
1013	0.007
1013	0.008
1014	0.009
1014	0.009
1015	0.01
1015	0.011
1016	0.011
1016	0.011
1016	0.011
1017	0.01
1017	0.01
1018	0.01
1018	0.009
1018	0.009
1019	0.009
1019	0.008
1020	0.008
1020	0.007
1021	0.007
1021	0.007
1021	0.006
1022	0.006
1022	0.006
1023	0.006
1023	0.006
1023	0.007
1024	0.007
1024	0.007
1025	0.008
1025	0.008
1026	0.008
1026	0.009
1026	0.009
1027	0.009
1027	0.009
1028	0.01
1028	0.011
1028	0.011
1029	0.011
1029	0.011
1030	0.011
1030	0.011
1031	0.01
1031	0.011
1031	0.011
1032	0.011
1032	0.01
1033	0.01
1033	0.01
1033	0.009
1034	0.009
1034	0.008
1035	0.008
1035	0.008
1036	0.007
1036	0.006
1036	0.006
1037	0.006
1037	0.006
1038	0.006
1038	0.007
1039	0.007
1039	0.007
1039	0.008
1040	0.008
1040	0.009
1041	0.009
1041	0.008
1041	0.008
1042	0.007
1042	0.007
1043	0.006
1043	0.005
1044	0.004
1044	0.003
1044	0.003
1045	0.002
1045	0.001
1046	0
1046	0
1046	0
1047	-0
1047	-0
1048	-0
1048	-0
1049	-0
1049	-0.001
1049	-0.001
1050	-0.001
1050	-0.002
1051	-0.003
1051	-0.003
1051	-0.004
1052	-0.005
1052	-0.005
1053	-0.006
1053	-0.007
1053	-0.007
1054	-0.008
1054	-0.008
1055	-0.008
1055	-0.008
1056	-0.009
1056	-0.009
1056	-0.009
1057	-0.009
1057	-0.01
1058	-0.01
1058	-0.01
1058	-0.01
1059	-0.01
1059	-0.011
1060	-0.012
1060	-0.012
1061	-0.012
1061	-0.012
1061	-0.012
1062	-0.012
1062	-0.012
1063	-0.012
1063	-0.013
1063	-0.013
1064	-0.013
1064	-0.012
1065	-0.012
1065	-0.012
1066	-0.012
1066	-0.013
1066	-0.013
1067	-0.013
1067	-0.014
1068	-0.015
1068	-0.015
1068	-0.016
1069	-0.017
1069	-0.018
1070	-0.019
1070	-0.019
1071	-0.02
1071	-0.02
1071	-0.021
1072	-0.021
1072	-0.02
1073	-0.02
1073	-0.02
1073	-0.021
1074	-0.021
1074	-0.021
1075	-0.022
1075	-0.022
1076	-0.024
1076	-0.024
1076	-0.025
1077	-0.026
1077	-0.026
1078	-0.027
1078	-0.028
1078	-0.029
1079	-0.029
1079	-0.029
1080	-0.031
1080	-0.032
1080	-0.033
1081	-0.034
1081	-0.035
1082	-0.036
1082	-0.038
1083	-0.039
1083	-0.04
1083	-0.042
1084	-0.043
1084	-0.044
1085	-0.045
1085	-0.046
1085	-0.047
1086	-0.048
1086	-0.049
1087	-0.05
1087	-0.051
1088	-0.052
1088	-0.052
1088	-0.052
1089	-0.054
1089	-0.054
1090	-0.055
1090	-0.055
1090	-0.057
1091	-0.058
1091	-0.058
1092	-0.058
1092	-0.058
1092	-0.06
1093	-0.061
1093	-0.061
1094	-0.062
1094	-0.063
1095	-0.064
1095	-0.064
1095	-0.064
1096	-0.066
1096	-0.068
1097	-0.069
1097	-0.071
1097	-0.073
1098	-0.075
1098	-0.077
1099	-0.079
1099	-0.081
1100	-0.083
1100	-0.086
1100	-0.089
1101	-0.092
1101	-0.094
1102	-0.096
1102	-0.099
1102	-0.101
1103	-0.103
1103	-0.106
1104	-0.11
1104	-0.113
1104	-0.115
1105	-0.117
1105	-0.12
1106	-0.125
1106	-0.127
1107	-0.133
1107	-0.138
1107	-0.143
1108	-0.145
1108	-0.146
1109	-0.15
1109	-0.155
1109	-0.16
1110	-0.162
1110	-0.166
1111	-0.177
1111	-0.171
