Data from 3.4A_17C_Absorbance__870__02782.txt Node

Date: Tue Jun 20 16:56:09 CEST 2023
User: Marek
Spectrometer: MAYP115816
Trigger mode: 0
Integration Time (sec): 2.200000E-1
Scans to average: 10
Electric dark correction enabled: true
Nonlinearity correction enabled: true
Boxcar width: 5
XAxis mode: Wavelengths
Number of Pixels in Spectrum: 2068
>>>>>Begin Spectral Data<<<<<
199	-0.813
199	-0.789
200	-0.752
200	-0.697
201	-0.668
201	-0.662
202	-0.646
202	-0.636
203	-0.636
203	-0.631
204	-0.609
204	-0.593
205	-0.571
205	-0.562
205	-0.57
206	-0.573
206	-0.568
207	-0.561
207	-0.57
208	-0.57
208	-0.575
209	-0.576
209	-0.581
210	-0.594
210	-0.601
211	-0.597
211	-0.6
212	-0.61
212	-0.616
213	-0.611
213	-0.607
213	-0.604
214	-0.612
214	-0.615
215	-0.61
215	-0.616
216	-0.625
216	-0.63
217	-0.627
217	-0.628
218	-0.637
218	-0.639
219	-0.647
219	-0.649
220	-0.654
220	-0.662
221	-0.662
221	-0.662
221	-0.653
222	-0.653
222	-0.652
223	-0.646
223	-0.649
224	-0.647
224	-0.645
225	-0.641
225	-0.642
226	-0.641
226	-0.642
227	-0.651
227	-0.661
228	-0.666
228	-0.675
229	-0.679
229	-0.678
229	-0.678
230	-0.674
230	-0.671
231	-0.668
231	-0.662
232	-0.663
232	-0.657
233	-0.657
233	-0.645
234	-0.646
234	-0.64
235	-0.645
235	-0.656
236	-0.663
236	-0.665
236	-0.665
237	-0.664
237	-0.665
238	-0.666
238	-0.667
239	-0.669
239	-0.679
240	-0.671
240	-0.668
241	-0.662
241	-0.665
242	-0.669
242	-0.677
243	-0.677
243	-0.679
243	-0.684
244	-0.681
244	-0.682
245	-0.684
245	-0.688
246	-0.7
246	-0.703
247	-0.712
247	-0.698
248	-0.697
248	-0.7
249	-0.706
249	-0.708
250	-0.708
250	-0.716
250	-0.714
251	-0.714
251	-0.709
252	-0.709
252	-0.721
253	-0.716
253	-0.727
254	-0.732
254	-0.733
255	-0.743
255	-0.741
256	-0.743
256	-0.755
257	-0.766
257	-0.763
258	-0.765
258	-0.773
258	-0.772
259	-0.765
259	-0.783
260	-0.782
260	-0.771
261	-0.783
261	-0.77
262	-0.774
262	-0.773
263	-0.765
263	-0.769
264	-0.778
264	-0.779
265	-0.77
265	-0.773
265	-0.783
266	-0.775
266	-0.776
267	-0.774
267	-0.789
268	-0.797
268	-0.791
269	-0.784
269	-0.799
270	-0.801
270	-0.802
271	-0.817
271	-0.825
272	-0.826
272	-0.83
272	-0.825
273	-0.835
273	-0.852
274	-0.844
274	-0.839
275	-0.838
275	-0.824
276	-0.825
276	-0.831
277	-0.832
277	-0.83
278	-0.834
278	-0.834
278	-0.821
279	-0.83
279	-0.842
280	-0.845
280	-0.855
281	-0.85
281	-0.842
282	-0.847
282	-0.84
283	-0.832
283	-0.846
284	-0.858
284	-0.869
285	-0.849
285	-0.855
285	-0.849
286	-0.853
286	-0.87
287	-0.869
287	-0.87
288	-0.868
288	-0.85
289	-0.849
289	-0.857
290	-0.867
290	-0.855
291	-0.858
291	-0.857
292	-0.837
292	-0.833
292	-0.838
293	-0.826
293	-0.822
294	-0.821
294	-0.806
295	-0.789
295	-0.801
296	-0.812
296	-0.807
297	-0.796
297	-0.8
298	-0.795
298	-0.813
298	-0.816
299	-0.798
299	-0.793
300	-0.79
300	-0.769
301	-0.752
301	-0.754
302	-0.766
302	-0.752
303	-0.745
303	-0.733
304	-0.717
304	-0.72
305	-0.712
305	-0.719
305	-0.735
306	-0.719
306	-0.717
307	-0.708
307	-0.717
308	-0.719
308	-0.714
309	-0.717
309	-0.713
310	-0.711
310	-0.707
311	-0.692
311	-0.711
311	-0.699
312	-0.697
312	-0.686
313	-0.678
313	-0.681
314	-0.685
314	-0.683
315	-0.679
315	-0.673
316	-0.667
316	-0.657
317	-0.649
317	-0.645
318	-0.636
318	-0.633
318	-0.621
319	-0.61
319	-0.602
320	-0.599
320	-0.597
321	-0.593
321	-0.593
322	-0.588
322	-0.581
323	-0.583
323	-0.574
324	-0.573
324	-0.565
324	-0.553
325	-0.538
325	-0.522
326	-0.513
326	-0.488
327	-0.472
327	-0.452
328	-0.421
328	-0.399
329	-0.371
329	-0.343
330	-0.317
330	-0.284
330	-0.25
331	-0.215
331	-0.184
332	-0.152
332	-0.121
333	-0.094
333	-0.062
334	-0.035
334	-0.011
335	0.014
335	0.034
336	0.055
336	0.073
336	0.088
337	0.104
337	0.12
338	0.133
338	0.142
339	0.153
339	0.163
340	0.17
340	0.178
341	0.185
341	0.19
342	0.196
342	0.201
342	0.205
343	0.209
343	0.213
344	0.215
344	0.218
345	0.221
345	0.223
346	0.225
346	0.227
347	0.228
347	0.229
348	0.231
348	0.232
348	0.233
349	0.233
349	0.234
350	0.235
350	0.235
351	0.236
351	0.236
352	0.236
352	0.236
353	0.237
353	0.237
354	0.237
354	0.237
354	0.237
355	0.237
355	0.237
356	0.237
356	0.237
357	0.238
357	0.238
358	0.238
358	0.238
359	0.238
359	0.238
360	0.238
360	0.238
360	0.238
361	0.238
361	0.238
362	0.238
362	0.238
363	0.238
363	0.238
364	0.238
364	0.238
365	0.238
365	0.238
366	0.238
366	0.238
366	0.238
367	0.238
367	0.238
368	0.238
368	0.238
369	0.238
369	0.238
370	0.238
370	0.238
371	0.237
371	0.237
372	0.237
372	0.237
372	0.237
373	0.237
373	0.237
374	0.237
374	0.237
375	0.237
375	0.237
376	0.236
376	0.236
377	0.236
377	0.236
378	0.236
378	0.236
378	0.235
379	0.235
379	0.235
380	0.235
380	0.236
381	0.236
381	0.235
382	0.235
382	0.235
383	0.235
383	0.235
383	0.235
384	0.235
384	0.235
385	0.235
385	0.234
386	0.234
386	0.234
387	0.234
387	0.234
388	0.234
388	0.234
389	0.234
389	0.234
389	0.234
390	0.234
390	0.234
391	0.234
391	0.234
392	0.233
392	0.233
393	0.234
393	0.234
394	0.233
394	0.233
394	0.233
395	0.233
395	0.233
396	0.233
396	0.232
397	0.232
397	0.232
398	0.232
398	0.231
399	0.231
399	0.231
400	0.231
400	0.231
400	0.231
401	0.23
401	0.23
402	0.23
402	0.23
403	0.23
403	0.23
404	0.23
404	0.229
405	0.229
405	0.229
405	0.229
406	0.229
406	0.229
407	0.229
407	0.229
408	0.229
408	0.228
409	0.229
409	0.229
410	0.228
410	0.228
411	0.228
411	0.228
411	0.228
412	0.228
412	0.228
413	0.228
413	0.228
414	0.227
414	0.227
415	0.227
415	0.227
416	0.226
416	0.226
416	0.226
417	0.225
417	0.225
418	0.225
418	0.225
419	0.225
419	0.225
420	0.225
420	0.225
421	0.225
421	0.225
421	0.225
422	0.225
422	0.226
423	0.225
423	0.225
424	0.225
424	0.225
425	0.225
425	0.225
426	0.225
426	0.225
427	0.225
427	0.225
427	0.225
428	0.225
428	0.225
429	0.225
429	0.224
430	0.224
430	0.223
431	0.223
431	0.223
432	0.223
432	0.222
432	0.222
433	0.222
433	0.222
434	0.222
434	0.222
435	0.222
435	0.222
436	0.222
436	0.222
437	0.222
437	0.222
437	0.222
438	0.222
438	0.222
439	0.222
439	0.222
440	0.222
440	0.222
441	0.221
441	0.221
442	0.221
442	0.221
442	0.221
443	0.221
443	0.221
444	0.221
444	0.221
445	0.221
445	0.221
446	0.221
446	0.221
447	0.221
447	0.221
447	0.221
448	0.221
448	0.221
449	0.221
449	0.221
450	0.221
450	0.221
451	0.221
451	0.221
452	0.221
452	0.221
452	0.221
453	0.22
453	0.22
454	0.22
454	0.22
455	0.22
455	0.22
456	0.22
456	0.22
457	0.22
457	0.22
458	0.22
458	0.219
458	0.22
459	0.219
459	0.219
460	0.219
460	0.219
461	0.219
461	0.219
462	0.219
462	0.22
463	0.22
463	0.221
463	0.221
464	0.222
464	0.222
465	0.222
465	0.222
466	0.222
466	0.222
467	0.222
467	0.222
467	0.222
468	0.221
468	0.221
469	0.221
469	0.221
470	0.222
470	0.222
471	0.222
471	0.222
472	0.222
472	0.222
472	0.222
473	0.223
473	0.223
474	0.223
474	0.224
475	0.224
475	0.225
476	0.225
476	0.225
477	0.225
477	0.226
477	0.226
478	0.226
478	0.226
479	0.226
479	0.227
480	0.227
480	0.227
481	0.227
481	0.227
482	0.228
482	0.229
482	0.229
483	0.231
483	0.232
484	0.232
484	0.232
485	0.233
485	0.233
486	0.234
486	0.234
487	0.235
487	0.235
487	0.236
488	0.235
488	0.236
489	0.236
489	0.237
490	0.238
490	0.239
491	0.24
491	0.241
492	0.242
492	0.242
492	0.243
493	0.243
493	0.244
494	0.245
494	0.246
495	0.247
495	0.248
496	0.248
496	0.249
496	0.251
497	0.252
497	0.253
498	0.254
498	0.255
499	0.255
499	0.257
500	0.258
500	0.26
501	0.261
501	0.262
501	0.262
502	0.264
502	0.265
503	0.266
503	0.267
504	0.269
504	0.27
505	0.271
505	0.273
506	0.274
506	0.276
506	0.278
507	0.279
507	0.281
508	0.283
508	0.284
509	0.286
509	0.287
510	0.289
510	0.29
511	0.291
511	0.293
511	0.294
512	0.295
512	0.296
513	0.296
513	0.298
514	0.299
514	0.3
515	0.301
515	0.302
515	0.302
516	0.304
516	0.305
517	0.306
517	0.307
518	0.308
518	0.309
519	0.31
519	0.31
520	0.312
520	0.313
520	0.314
521	0.315
521	0.316
522	0.317
522	0.318
523	0.319
523	0.32
524	0.321
524	0.322
524	0.323
525	0.324
525	0.325
526	0.326
526	0.326
527	0.327
527	0.327
528	0.328
528	0.328
529	0.328
529	0.329
529	0.329
530	0.329
530	0.329
531	0.33
531	0.33
532	0.33
532	0.33
533	0.33
533	0.331
533	0.331
534	0.33
534	0.33
535	0.331
535	0.331
536	0.331
536	0.331
537	0.332
537	0.332
538	0.331
538	0.331
538	0.331
539	0.331
539	0.331
540	0.33
540	0.329
541	0.328
541	0.328
542	0.328
542	0.327
542	0.327
543	0.326
543	0.326
544	0.325
544	0.325
545	0.324
545	0.324
546	0.324
546	0.323
547	0.322
547	0.321
547	0.32
548	0.32
548	0.319
549	0.319
549	0.318
550	0.318
550	0.317
551	0.316
551	0.316
551	0.315
552	0.314
552	0.313
553	0.312
553	0.312
554	0.311
554	0.309
555	0.307
555	0.306
556	0.305
556	0.304
556	0.303
557	0.302
557	0.301
558	0.3
558	0.3
559	0.299
559	0.299
560	0.298
560	0.296
560	0.296
561	0.296
561	0.296
562	0.295
562	0.295
563	0.294
563	0.293
564	0.293
564	0.293
564	0.293
565	0.293
565	0.293
566	0.292
566	0.292
567	0.291
567	0.291
568	0.29
568	0.289
568	0.289
569	0.288
569	0.287
570	0.285
570	0.283
571	0.283
571	0.282
572	0.281
572	0.279
573	0.278
573	0.277
573	0.275
574	0.275
574	0.275
575	0.275
575	0.276
576	0.276
576	0.274
577	0.273
577	0.273
577	0.274
578	0.274
578	0.274
579	0.275
579	0.275
580	0.273
580	0.27
581	0.268
581	0.268
581	0.268
582	0.269
582	0.269
583	0.269
583	0.268
584	0.266
584	0.265
585	0.266
585	0.267
585	0.267
586	0.267
586	0.267
587	0.265
587	0.264
588	0.263
588	0.262
589	0.262
589	0.262
590	0.262
590	0.261
590	0.262
591	0.262
591	0.261
592	0.261
592	0.26
593	0.26
593	0.26
594	0.259
594	0.258
594	0.258
595	0.258
595	0.256
596	0.256
596	0.257
597	0.259
597	0.259
598	0.259
598	0.259
598	0.259
599	0.259
599	0.259
600	0.259
600	0.259
601	0.259
601	0.259
602	0.258
602	0.258
602	0.257
603	0.258
603	0.258
604	0.258
604	0.258
605	0.259
605	0.259
606	0.258
606	0.257
606	0.257
607	0.256
607	0.256
608	0.256
608	0.254
609	0.254
609	0.254
610	0.253
610	0.252
610	0.252
611	0.252
611	0.252
612	0.252
612	0.253
613	0.253
613	0.253
614	0.251
614	0.25
614	0.25
615	0.249
615	0.248
616	0.248
616	0.247
617	0.247
617	0.247
618	0.246
618	0.246
618	0.246
619	0.246
619	0.246
620	0.247
620	0.246
621	0.245
621	0.244
622	0.242
622	0.241
622	0.239
623	0.238
623	0.238
624	0.237
624	0.236
625	0.236
625	0.235
626	0.234
626	0.234
626	0.234
627	0.233
627	0.233
628	0.233
628	0.232
629	0.231
629	0.229
630	0.228
630	0.226
630	0.225
631	0.224
631	0.223
632	0.221
632	0.219
633	0.217
633	0.215
634	0.214
634	0.212
634	0.21
635	0.208
635	0.206
636	0.204
636	0.201
637	0.198
637	0.195
638	0.192
638	0.189
638	0.186
639	0.182
639	0.178
640	0.174
640	0.17
641	0.166
641	0.163
642	0.159
642	0.155
642	0.15
643	0.146
643	0.14
644	0.135
644	0.129
645	0.124
645	0.118
646	0.112
646	0.105
646	0.098
647	0.091
647	0.084
648	0.077
648	0.069
649	0.061
649	0.053
650	0.045
650	0.038
650	0.029
651	0.018
651	0.004
652	-0.01
652	-0.026
653	-0.04
653	-0.052
653	-0.048
654	-0.027
654	-0.022
655	-0.028
655	-0.034
656	-0.041
656	-0.048
657	-0.055
657	-0.06
657	-0.068
658	-0.076
658	-0.111
659	-0.204
659	-0.302
660	-0.345
660	-0.374
661	-0.403
661	-0.435
661	-0.467
662	-0.497
662	-0.53
663	-0.566
663	-0.606
664	-0.644
664	-0.687
665	-0.735
665	-0.783
665	-0.83
666	-0.882
666	-0.939
667	-0.997
667	-1.061
668	-1.122
668	-1.192
669	-1.261
669	-1.334
669	-1.411
670	-1.491
670	-1.592
671	-1.718
671	-1.953
672	-2.247
672	-2.429
672	-2.559
673	-2.662
673	-2.746
674	-2.825
674	-2.852
675	-2.87
675	-2.875
676	-2.876
676	-2.852
676	-2.789
677	-2.714
677	-2.628
678	-2.504
678	-2.319
679	-1.975
679	-1.742
680	-1.62
680	-1.536
680	-1.46
681	-1.404
681	-1.345
682	-1.298
682	-1.251
683	-1.204
683	-1.176
684	-1.144
684	-1.122
684	-1.096
685	-1.072
685	-1.059
686	-1.034
686	-1.018
687	-1.006
687	-0.993
687	-0.991
688	-0.974
688	-0.964
689	-0.965
689	-0.96
690	-0.945
690	-0.933
691	-0.929
691	-0.931
691	-0.929
692	-0.928
692	-0.923
693	-0.929
693	-0.938
694	-0.918
694	-0.916
695	-0.919
695	-0.912
695	-0.919
696	-0.926
696	-0.919
697	-0.914
697	-0.908
698	-0.904
698	-0.896
698	-0.911
699	-0.911
699	-0.912
700	-0.932
700	-0.926
701	-0.911
701	-0.905
702	-0.904
702	-0.904
702	-0.904
703	-0.895
703	-0.881
704	-0.887
704	-0.889
705	-0.876
705	-0.875
705	-0.87
706	-0.863
706	-0.86
707	-0.87
707	-0.872
708	-0.87
708	-0.868
709	-0.87
709	-0.866
709	-0.863
710	-0.869
710	-0.873
711	-0.871
711	-0.871
712	-0.864
712	-0.86
713	-0.865
713	-0.865
713	-0.844
714	-0.846
714	-0.849
715	-0.841
715	-0.848
716	-0.865
716	-0.873
716	-0.873
717	-0.88
717	-0.871
718	-0.865
718	-0.866
719	-0.861
719	-0.852
720	-0.847
720	-0.842
720	-0.836
721	-0.826
721	-0.83
722	-0.828
722	-0.824
723	-0.843
723	-0.855
723	-0.864
724	-0.863
724	-0.869
725	-0.862
725	-0.865
726	-0.868
726	-0.859
727	-0.861
727	-0.868
727	-0.858
728	-0.846
728	-0.842
729	-0.845
729	-0.848
730	-0.853
730	-0.844
730	-0.852
731	-0.853
731	-0.851
732	-0.855
732	-0.85
733	-0.864
733	-0.871
734	-0.88
734	-0.87
734	-0.853
735	-0.843
735	-0.837
736	-0.838
736	-0.834
737	-0.831
737	-0.82
737	-0.812
738	-0.797
738	-0.783
739	-0.786
739	-0.787
740	-0.801
740	-0.804
741	-0.814
741	-0.824
741	-0.833
742	-0.839
742	-0.856
743	-0.863
743	-0.866
744	-0.869
744	-0.877
744	-0.87
745	-0.875
745	-0.864
746	-0.859
746	-0.851
747	-0.854
747	-0.844
748	-0.844
748	-0.847
748	-0.849
749	-0.841
749	-0.848
750	-0.84
750	-0.84
751	-0.839
751	-0.837
751	-0.848
752	-0.851
752	-0.854
753	-0.856
753	-0.849
754	-0.869
754	-0.87
754	-0.878
755	-0.88
755	-0.872
756	-0.874
756	-0.86
757	-0.854
757	-0.842
758	-0.844
758	-0.843
758	-0.837
759	-0.841
759	-0.839
760	-0.838
760	-0.841
761	-0.834
761	-0.838
761	-0.838
762	-0.845
762	-0.844
763	-0.844
763	-0.849
764	-0.847
764	-0.843
764	-0.848
765	-0.846
765	-0.854
766	-0.857
766	-0.859
767	-0.874
767	-0.87
768	-0.87
768	-0.862
768	-0.856
769	-0.861
769	-0.87
770	-0.881
770	-0.885
771	-0.882
771	-0.882
771	-0.888
772	-0.89
772	-0.911
773	-0.913
773	-0.913
774	-0.912
774	-0.894
775	-0.88
775	-0.879
775	-0.882
776	-0.892
776	-0.888
777	-0.888
777	-0.871
778	-0.881
778	-0.89
778	-0.889
779	-0.899
779	-0.915
780	-0.911
780	-0.92
781	-0.91
781	-0.899
781	-0.912
782	-0.933
782	-0.932
783	-0.932
783	-0.94
784	-0.942
784	-0.936
784	-0.956
785	-0.948
785	-0.959
786	-0.964
786	-0.958
787	-0.948
787	-0.956
788	-0.948
788	-0.941
788	-0.941
789	-0.941
789	-0.928
790	-0.928
790	-0.912
791	-0.919
791	-0.914
791	-0.908
792	-0.902
792	-0.906
793	-0.909
793	-0.897
794	-0.889
794	-0.883
794	-0.889
795	-0.91
795	-0.895
796	-0.902
796	-0.898
797	-0.891
797	-0.883
797	-0.876
798	-0.897
798	-0.902
799	-0.902
799	-0.889
800	-0.883
800	-0.892
801	-0.889
801	-0.894
801	-0.89
802	-0.891
802	-0.891
803	-0.884
803	-0.877
804	-0.882
804	-0.89
804	-0.873
805	-0.853
805	-0.844
806	-0.846
806	-0.843
807	-0.843
807	-0.842
807	-0.825
808	-0.821
808	-0.814
809	-0.808
809	-0.809
810	-0.812
810	-0.809
810	-0.803
811	-0.806
811	-0.797
812	-0.79
812	-0.791
813	-0.794
813	-0.796
813	-0.79
814	-0.791
814	-0.796
815	-0.788
815	-0.783
816	-0.779
816	-0.796
817	-0.809
817	-0.814
817	-0.825
818	-0.819
818	-0.819
819	-0.831
819	-0.828
820	-0.837
820	-0.838
820	-0.836
821	-0.832
821	-0.826
822	-0.826
822	-0.812
823	-0.822
823	-0.819
823	-0.812
824	-0.809
824	-0.82
825	-0.817
825	-0.814
826	-0.81
826	-0.806
826	-0.804
827	-0.804
827	-0.793
828	-0.793
828	-0.787
829	-0.782
829	-0.766
829	-0.765
830	-0.764
830	-0.75
831	-0.744
831	-0.733
832	-0.725
832	-0.721
832	-0.715
833	-0.714
833	-0.718
834	-0.713
834	-0.707
835	-0.697
835	-0.697
835	-0.692
836	-0.687
836	-0.682
837	-0.672
837	-0.661
838	-0.649
838	-0.632
839	-0.627
839	-0.615
839	-0.606
840	-0.604
840	-0.593
841	-0.582
841	-0.575
842	-0.566
842	-0.554
842	-0.551
843	-0.547
843	-0.543
844	-0.54
844	-0.526
845	-0.512
845	-0.501
845	-0.49
846	-0.478
846	-0.466
847	-0.453
847	-0.439
848	-0.423
848	-0.404
848	-0.389
849	-0.378
849	-0.365
850	-0.353
850	-0.341
851	-0.326
851	-0.31
851	-0.301
852	-0.284
852	-0.269
853	-0.259
853	-0.248
854	-0.235
854	-0.223
854	-0.209
855	-0.197
855	-0.189
856	-0.179
856	-0.167
857	-0.159
857	-0.15
857	-0.135
858	-0.123
858	-0.114
859	-0.101
859	-0.087
860	-0.075
860	-0.058
860	-0.046
861	-0.035
861	-0.024
862	-0.014
862	-0.004
863	0.006
863	0.017
863	0.025
864	0.032
864	0.041
865	0.048
865	0.055
866	0.063
866	0.07
866	0.077
867	0.084
867	0.09
868	0.096
868	0.102
869	0.107
869	0.112
869	0.115
870	0.118
870	0.12
871	0.122
871	0.124
872	0.125
872	0.126
872	0.126
873	0.126
873	0.125
874	0.124
874	0.124
875	0.123
875	0.122
875	0.121
876	0.12
876	0.119
877	0.118
877	0.117
878	0.116
878	0.115
878	0.115
879	0.114
879	0.114
880	0.114
880	0.113
881	0.113
881	0.112
881	0.112
882	0.111
882	0.11
883	0.108
883	0.107
884	0.106
884	0.105
884	0.104
885	0.104
885	0.104
886	0.104
886	0.104
887	0.103
887	0.103
887	0.102
888	0.102
888	0.101
889	0.1
889	0.099
890	0.097
890	0.097
890	0.096
891	0.096
891	0.096
892	0.097
892	0.096
893	0.097
893	0.097
893	0.097
894	0.098
894	0.098
895	0.097
895	0.097
895	0.096
896	0.096
896	0.096
897	0.096
897	0.095
898	0.095
898	0.094
898	0.094
899	0.094
899	0.094
900	0.094
900	0.094
901	0.094
901	0.094
901	0.094
902	0.094
902	0.094
903	0.095
903	0.094
904	0.094
904	0.094
904	0.094
905	0.095
905	0.095
906	0.095
906	0.095
907	0.095
907	0.095
907	0.095
908	0.095
908	0.096
909	0.096
909	0.096
910	0.097
910	0.097
910	0.098
911	0.099
911	0.099
912	0.1
912	0.101
913	0.102
913	0.102
913	0.102
914	0.102
914	0.102
915	0.102
915	0.102
916	0.102
916	0.102
916	0.102
917	0.102
917	0.102
918	0.101
918	0.101
918	0.101
919	0.101
919	0.101
920	0.101
920	0.102
921	0.102
921	0.103
921	0.103
922	0.103
922	0.104
923	0.104
923	0.104
924	0.104
924	0.103
924	0.103
925	0.102
925	0.101
926	0.1
926	0.099
927	0.098
927	0.098
927	0.097
928	0.097
928	0.098
929	0.098
929	0.099
930	0.1
930	0.101
930	0.102
931	0.103
931	0.104
932	0.105
932	0.105
933	0.106
933	0.106
933	0.105
934	0.105
934	0.104
935	0.103
935	0.102
935	0.101
936	0.099
936	0.097
937	0.096
937	0.095
938	0.094
938	0.093
938	0.092
939	0.091
939	0.09
940	0.089
940	0.088
941	0.087
941	0.087
941	0.087
942	0.086
942	0.085
943	0.085
943	0.084
944	0.084
944	0.082
944	0.082
945	0.081
945	0.08
946	0.079
946	0.078
946	0.077
947	0.076
947	0.075
948	0.076
948	0.076
949	0.076
949	0.077
949	0.078
950	0.08
950	0.081
951	0.082
951	0.084
952	0.085
952	0.086
952	0.087
953	0.088
953	0.089
954	0.089
954	0.089
955	0.089
955	0.089
955	0.089
956	0.088
956	0.088
957	0.087
957	0.085
957	0.084
958	0.084
958	0.083
959	0.082
959	0.082
960	0.081
960	0.081
960	0.081
961	0.081
961	0.081
962	0.081
962	0.081
963	0.081
963	0.081
963	0.082
964	0.082
964	0.082
965	0.082
965	0.083
966	0.083
966	0.083
966	0.083
967	0.084
967	0.084
968	0.084
968	0.084
968	0.084
969	0.084
969	0.083
970	0.083
970	0.082
971	0.082
971	0.082
971	0.081
972	0.081
972	0.081
973	0.081
973	0.081
974	0.08
974	0.081
974	0.081
975	0.081
975	0.081
976	0.081
976	0.082
976	0.082
977	0.082
977	0.082
978	0.081
978	0.081
979	0.081
979	0.08
979	0.08
980	0.08
980	0.08
981	0.079
981	0.079
982	0.079
982	0.079
982	0.079
983	0.079
983	0.079
984	0.079
984	0.079
984	0.078
985	0.078
985	0.077
986	0.076
986	0.076
987	0.075
987	0.074
987	0.073
988	0.073
988	0.072
989	0.071
989	0.07
990	0.069
990	0.068
990	0.067
991	0.067
991	0.066
992	0.066
992	0.065
992	0.064
993	0.063
993	0.062
994	0.061
994	0.06
995	0.059
995	0.058
995	0.056
996	0.055
996	0.053
997	0.052
997	0.051
997	0.05
998	0.05
998	0.05
999	0.05
999	0.049
1000	0.05
1000	0.05
1000	0.05
1001	0.051
1001	0.052
1002	0.053
1002	0.053
1003	0.054
1003	0.054
1003	0.054
1004	0.055
1004	0.055
1005	0.055
1005	0.055
1005	0.055
1006	0.054
1006	0.054
1007	0.053
1007	0.052
1008	0.052
1008	0.051
1008	0.051
1009	0.051
1009	0.051
1010	0.051
1010	0.051
1010	0.052
1011	0.052
1011	0.052
1012	0.053
1012	0.054
1013	0.055
1013	0.055
1013	0.056
1014	0.056
1014	0.056
1015	0.056
1015	0.056
1016	0.056
1016	0.056
1016	0.055
1017	0.054
1017	0.054
1018	0.054
1018	0.053
1018	0.053
1019	0.053
1019	0.052
1020	0.052
1020	0.051
1021	0.051
1021	0.05
1021	0.05
1022	0.05
1022	0.049
1023	0.049
1023	0.049
1023	0.049
1024	0.049
1024	0.049
1025	0.049
1025	0.05
1026	0.05
1026	0.051
1026	0.051
1027	0.051
1027	0.051
1028	0.052
1028	0.053
1028	0.053
1029	0.053
1029	0.053
1030	0.053
1030	0.052
1031	0.052
1031	0.053
1031	0.053
1032	0.052
1032	0.052
1033	0.052
1033	0.051
1033	0.051
1034	0.051
1034	0.05
1035	0.05
1035	0.05
1036	0.049
1036	0.048
1036	0.048
1037	0.047
1037	0.048
1038	0.047
1038	0.048
1039	0.048
1039	0.049
1039	0.049
1040	0.049
1040	0.049
1041	0.049
1041	0.049
1041	0.049
1042	0.048
1042	0.048
1043	0.047
1043	0.046
1044	0.045
1044	0.044
1044	0.043
1045	0.042
1045	0.041
1046	0.041
1046	0.04
1046	0.04
1047	0.04
1047	0.04
1048	0.04
1048	0.04
1049	0.04
1049	0.04
1049	0.041
1050	0.04
1050	0.04
1051	0.04
1051	0.039
1051	0.039
1052	0.039
1052	0.038
1053	0.038
1053	0.038
1053	0.037
1054	0.037
1054	0.036
1055	0.037
1055	0.036
1056	0.036
1056	0.036
1056	0.035
1057	0.035
1057	0.034
1058	0.034
1058	0.034
1058	0.034
1059	0.033
1059	0.032
1060	0.031
1060	0.031
1061	0.031
1061	0.031
1061	0.031
1062	0.03
1062	0.03
1063	0.03
1063	0.029
1063	0.029
1064	0.029
1064	0.03
1065	0.03
1065	0.029
1066	0.029
1066	0.029
1066	0.028
1067	0.027
1067	0.026
1068	0.025
1068	0.024
1068	0.023
1069	0.022
1069	0.021
1070	0.02
1070	0.019
1071	0.019
1071	0.018
1071	0.018
1072	0.017
1072	0.018
1073	0.017
1073	0.017
1073	0.017
1074	0.017
1074	0.017
1075	0.017
1075	0.016
1076	0.015
1076	0.015
1076	0.013
1077	0.013
1077	0.012
1078	0.011
1078	0.01
1078	0.009
1079	0.009
1079	0.008
1080	0.007
1080	0.007
1080	0.006
1081	0.005
1081	0.005
1082	0.005
1082	0.003
1083	0.002
1083	0.002
1083	0.001
1084	0
1084	-0.001
1085	-0.002
1085	-0.003
1085	-0.004
1086	-0.005
1086	-0.006
1087	-0.006
1087	-0.007
1088	-0.009
1088	-0.01
1088	-0.011
1089	-0.013
1089	-0.014
1090	-0.015
1090	-0.016
1090	-0.018
1091	-0.02
1091	-0.021
1092	-0.023
1092	-0.023
1092	-0.025
1093	-0.026
1093	-0.026
1094	-0.027
1094	-0.028
1095	-0.03
1095	-0.03
1095	-0.03
1096	-0.032
1096	-0.034
1097	-0.035
1097	-0.037
1097	-0.039
1098	-0.041
1098	-0.044
1099	-0.046
1099	-0.048
1100	-0.05
1100	-0.053
1100	-0.057
1101	-0.06
1101	-0.064
1102	-0.067
1102	-0.07
1102	-0.071
1103	-0.074
1103	-0.077
1104	-0.081
1104	-0.086
1104	-0.088
1105	-0.09
1105	-0.093
1106	-0.098
1106	-0.1
1107	-0.106
1107	-0.111
1107	-0.116
1108	-0.118
1108	-0.119
1109	-0.122
1109	-0.128
1109	-0.131
1110	-0.134
1110	-0.137
1111	-0.149
1111	-0.145
