Data from 3.4A_17C_Absorbance__821__02733.txt Node

Date: Tue Jun 20 16:54:22 CEST 2023
User: Marek
Spectrometer: MAYP115816
Trigger mode: 0
Integration Time (sec): 2.200000E-1
Scans to average: 10
Electric dark correction enabled: true
Nonlinearity correction enabled: true
Boxcar width: 5
XAxis mode: Wavelengths
Number of Pixels in Spectrum: 2068
>>>>>Begin Spectral Data<<<<<
199	-0.788
199	-0.777
200	-0.751
200	-0.697
201	-0.668
201	-0.66
202	-0.643
202	-0.638
203	-0.635
203	-0.628
204	-0.609
204	-0.596
205	-0.574
205	-0.56
205	-0.568
206	-0.571
206	-0.567
207	-0.56
207	-0.565
208	-0.567
208	-0.572
209	-0.572
209	-0.577
210	-0.589
210	-0.598
211	-0.591
211	-0.596
212	-0.603
212	-0.611
213	-0.608
213	-0.605
213	-0.603
214	-0.61
214	-0.613
215	-0.611
215	-0.616
216	-0.625
216	-0.629
217	-0.626
217	-0.628
218	-0.634
218	-0.635
219	-0.642
219	-0.645
220	-0.649
220	-0.655
221	-0.654
221	-0.657
221	-0.648
222	-0.648
222	-0.647
223	-0.643
223	-0.646
224	-0.646
224	-0.642
225	-0.639
225	-0.64
226	-0.642
226	-0.641
227	-0.649
227	-0.66
228	-0.663
228	-0.671
229	-0.676
229	-0.674
229	-0.675
230	-0.671
230	-0.669
231	-0.663
231	-0.657
232	-0.66
232	-0.654
233	-0.653
233	-0.643
234	-0.643
234	-0.639
235	-0.642
235	-0.652
236	-0.659
236	-0.661
236	-0.662
237	-0.66
237	-0.66
238	-0.661
238	-0.662
239	-0.663
239	-0.671
240	-0.667
240	-0.664
241	-0.66
241	-0.664
242	-0.666
242	-0.675
243	-0.677
243	-0.68
243	-0.685
244	-0.682
244	-0.684
245	-0.684
245	-0.688
246	-0.698
246	-0.7
247	-0.709
247	-0.694
248	-0.694
248	-0.697
249	-0.703
249	-0.705
250	-0.703
250	-0.714
250	-0.71
251	-0.711
251	-0.708
252	-0.71
252	-0.722
253	-0.716
253	-0.726
254	-0.732
254	-0.733
255	-0.744
255	-0.743
256	-0.744
256	-0.756
257	-0.765
257	-0.762
258	-0.765
258	-0.773
258	-0.769
259	-0.761
259	-0.779
260	-0.778
260	-0.766
261	-0.78
261	-0.767
262	-0.773
262	-0.77
263	-0.762
263	-0.766
264	-0.776
264	-0.776
265	-0.766
265	-0.769
265	-0.78
266	-0.77
266	-0.768
267	-0.768
267	-0.785
268	-0.792
268	-0.787
269	-0.781
269	-0.796
270	-0.801
270	-0.801
271	-0.814
271	-0.824
272	-0.826
272	-0.828
272	-0.82
273	-0.829
273	-0.844
274	-0.835
274	-0.832
275	-0.83
275	-0.816
276	-0.82
276	-0.825
277	-0.829
277	-0.826
278	-0.832
278	-0.832
278	-0.819
279	-0.829
279	-0.841
280	-0.842
280	-0.852
281	-0.845
281	-0.836
282	-0.842
282	-0.835
283	-0.829
283	-0.843
284	-0.859
284	-0.869
285	-0.85
285	-0.857
285	-0.85
286	-0.855
286	-0.874
287	-0.869
287	-0.869
288	-0.868
288	-0.848
289	-0.847
289	-0.853
290	-0.86
290	-0.85
291	-0.853
291	-0.851
292	-0.831
292	-0.828
292	-0.831
293	-0.819
293	-0.816
294	-0.815
294	-0.801
295	-0.785
295	-0.796
296	-0.807
296	-0.801
297	-0.79
297	-0.795
298	-0.791
298	-0.81
298	-0.814
299	-0.794
299	-0.788
300	-0.784
300	-0.766
301	-0.748
301	-0.751
302	-0.762
302	-0.745
303	-0.739
303	-0.727
304	-0.711
304	-0.715
305	-0.706
305	-0.716
305	-0.73
306	-0.714
306	-0.713
307	-0.704
307	-0.717
308	-0.718
308	-0.713
309	-0.715
309	-0.712
310	-0.71
310	-0.706
311	-0.691
311	-0.71
311	-0.698
312	-0.693
312	-0.682
313	-0.674
313	-0.678
314	-0.684
314	-0.68
315	-0.678
315	-0.672
316	-0.667
316	-0.657
317	-0.65
317	-0.649
318	-0.641
318	-0.639
318	-0.625
319	-0.614
319	-0.608
320	-0.605
320	-0.604
321	-0.598
321	-0.6
322	-0.596
322	-0.587
323	-0.588
323	-0.579
324	-0.578
324	-0.566
324	-0.555
325	-0.539
325	-0.52
326	-0.513
326	-0.486
327	-0.47
327	-0.448
328	-0.418
328	-0.395
329	-0.368
329	-0.34
330	-0.315
330	-0.281
330	-0.248
331	-0.214
331	-0.182
332	-0.15
332	-0.121
333	-0.091
333	-0.06
334	-0.033
334	-0.009
335	0.016
335	0.036
336	0.056
336	0.075
336	0.091
337	0.107
337	0.122
338	0.134
338	0.143
339	0.156
339	0.165
340	0.172
340	0.18
341	0.186
341	0.191
342	0.197
342	0.202
342	0.206
343	0.21
343	0.214
344	0.217
344	0.219
345	0.222
345	0.224
346	0.226
346	0.228
347	0.229
347	0.23
348	0.232
348	0.234
348	0.234
349	0.235
349	0.236
350	0.237
350	0.237
351	0.238
351	0.238
352	0.238
352	0.238
353	0.239
353	0.239
354	0.239
354	0.239
354	0.239
355	0.239
355	0.239
356	0.239
356	0.239
357	0.239
357	0.239
358	0.239
358	0.239
359	0.239
359	0.239
360	0.24
360	0.24
360	0.24
361	0.24
361	0.239
362	0.24
362	0.24
363	0.24
363	0.24
364	0.24
364	0.239
365	0.239
365	0.239
366	0.239
366	0.239
366	0.24
367	0.24
367	0.24
368	0.239
368	0.239
369	0.239
369	0.239
370	0.239
370	0.239
371	0.239
371	0.239
372	0.239
372	0.239
372	0.239
373	0.239
373	0.239
374	0.239
374	0.239
375	0.239
375	0.239
376	0.239
376	0.239
377	0.239
377	0.239
378	0.238
378	0.238
378	0.238
379	0.238
379	0.238
380	0.238
380	0.238
381	0.238
381	0.238
382	0.238
382	0.238
383	0.238
383	0.238
383	0.237
384	0.237
384	0.237
385	0.237
385	0.237
386	0.237
386	0.237
387	0.237
387	0.237
388	0.236
388	0.236
389	0.236
389	0.236
389	0.236
390	0.236
390	0.236
391	0.236
391	0.236
392	0.236
392	0.236
393	0.236
393	0.236
394	0.236
394	0.236
394	0.236
395	0.236
395	0.235
396	0.235
396	0.235
397	0.235
397	0.234
398	0.234
398	0.234
399	0.234
399	0.234
400	0.234
400	0.233
400	0.233
401	0.233
401	0.233
402	0.233
402	0.233
403	0.233
403	0.233
404	0.233
404	0.232
405	0.232
405	0.232
405	0.232
406	0.232
406	0.232
407	0.232
407	0.231
408	0.231
408	0.231
409	0.231
409	0.231
410	0.231
410	0.231
411	0.231
411	0.231
411	0.231
412	0.23
412	0.23
413	0.23
413	0.23
414	0.23
414	0.23
415	0.229
415	0.229
416	0.229
416	0.228
416	0.228
417	0.228
417	0.228
418	0.228
418	0.228
419	0.228
419	0.228
420	0.228
420	0.228
421	0.228
421	0.228
421	0.228
422	0.228
422	0.228
423	0.228
423	0.228
424	0.228
424	0.227
425	0.227
425	0.227
426	0.227
426	0.228
427	0.228
427	0.228
427	0.228
428	0.228
428	0.228
429	0.227
429	0.227
430	0.227
430	0.226
431	0.226
431	0.226
432	0.225
432	0.225
432	0.224
433	0.224
433	0.224
434	0.224
434	0.225
435	0.225
435	0.225
436	0.225
436	0.225
437	0.225
437	0.225
437	0.225
438	0.225
438	0.225
439	0.225
439	0.224
440	0.224
440	0.224
441	0.224
441	0.224
442	0.224
442	0.224
442	0.223
443	0.223
443	0.223
444	0.223
444	0.223
445	0.223
445	0.223
446	0.223
446	0.223
447	0.223
447	0.223
447	0.223
448	0.223
448	0.223
449	0.223
449	0.223
450	0.223
450	0.223
451	0.223
451	0.223
452	0.223
452	0.223
452	0.223
453	0.223
453	0.223
454	0.222
454	0.222
455	0.222
455	0.222
456	0.222
456	0.222
457	0.222
457	0.221
458	0.221
458	0.221
458	0.221
459	0.221
459	0.221
460	0.22
460	0.22
461	0.22
461	0.22
462	0.221
462	0.221
463	0.222
463	0.222
463	0.222
464	0.223
464	0.223
465	0.223
465	0.223
466	0.223
466	0.224
467	0.224
467	0.223
467	0.223
468	0.223
468	0.222
469	0.223
469	0.223
470	0.224
470	0.223
471	0.224
471	0.223
472	0.223
472	0.223
472	0.224
473	0.224
473	0.224
474	0.225
474	0.225
475	0.225
475	0.226
476	0.226
476	0.226
477	0.227
477	0.227
477	0.227
478	0.227
478	0.227
479	0.228
479	0.228
480	0.228
480	0.228
481	0.228
481	0.228
482	0.228
482	0.229
482	0.229
483	0.231
483	0.232
484	0.232
484	0.232
485	0.232
485	0.233
486	0.233
486	0.234
487	0.235
487	0.235
487	0.235
488	0.235
488	0.235
489	0.236
489	0.237
490	0.238
490	0.238
491	0.239
491	0.24
492	0.241
492	0.241
492	0.242
493	0.242
493	0.243
494	0.245
494	0.246
495	0.246
495	0.247
496	0.248
496	0.248
496	0.25
497	0.251
497	0.252
498	0.253
498	0.254
499	0.254
499	0.255
500	0.257
500	0.258
501	0.259
501	0.26
501	0.261
502	0.262
502	0.263
503	0.264
503	0.265
504	0.266
504	0.268
505	0.269
505	0.271
506	0.273
506	0.274
506	0.276
507	0.277
507	0.279
508	0.281
508	0.282
509	0.284
509	0.285
510	0.287
510	0.288
511	0.289
511	0.29
511	0.291
512	0.292
512	0.293
513	0.294
513	0.295
514	0.297
514	0.298
515	0.299
515	0.3
515	0.3
516	0.302
516	0.303
517	0.304
517	0.305
518	0.306
518	0.307
519	0.307
519	0.308
520	0.31
520	0.311
520	0.312
521	0.313
521	0.314
522	0.315
522	0.317
523	0.318
523	0.319
524	0.32
524	0.321
524	0.322
525	0.323
525	0.323
526	0.325
526	0.326
527	0.327
527	0.327
528	0.327
528	0.328
529	0.329
529	0.329
529	0.33
530	0.33
530	0.331
531	0.331
531	0.331
532	0.331
532	0.332
533	0.332
533	0.333
533	0.333
534	0.333
534	0.333
535	0.334
535	0.334
536	0.334
536	0.335
537	0.335
537	0.335
538	0.335
538	0.335
538	0.336
539	0.336
539	0.336
540	0.336
540	0.335
541	0.335
541	0.334
542	0.334
542	0.334
542	0.334
543	0.334
543	0.333
544	0.333
544	0.333
545	0.333
545	0.333
546	0.333
546	0.332
547	0.331
547	0.331
547	0.33
548	0.33
548	0.33
549	0.329
549	0.329
550	0.329
550	0.328
551	0.327
551	0.326
551	0.326
552	0.325
552	0.325
553	0.324
553	0.323
554	0.323
554	0.321
555	0.32
555	0.319
556	0.319
556	0.318
556	0.317
557	0.317
557	0.317
558	0.316
558	0.315
559	0.315
559	0.314
560	0.314
560	0.313
560	0.312
561	0.312
561	0.312
562	0.311
562	0.311
563	0.31
563	0.31
564	0.309
564	0.309
564	0.309
565	0.309
565	0.309
566	0.308
566	0.308
567	0.308
567	0.308
568	0.307
568	0.306
568	0.305
569	0.305
569	0.304
570	0.303
570	0.301
571	0.301
571	0.3
572	0.298
572	0.297
573	0.296
573	0.295
573	0.293
574	0.293
574	0.293
575	0.293
575	0.294
576	0.294
576	0.292
577	0.291
577	0.291
577	0.291
578	0.292
578	0.292
579	0.293
579	0.293
580	0.291
580	0.288
581	0.286
581	0.286
581	0.286
582	0.286
582	0.287
583	0.287
583	0.286
584	0.284
584	0.282
585	0.283
585	0.284
585	0.284
586	0.284
586	0.284
587	0.282
587	0.281
588	0.28
588	0.279
589	0.279
589	0.279
590	0.278
590	0.277
590	0.278
591	0.279
591	0.278
592	0.277
592	0.276
593	0.276
593	0.276
594	0.275
594	0.275
594	0.274
595	0.274
595	0.273
596	0.272
596	0.273
597	0.275
597	0.275
598	0.274
598	0.275
598	0.275
599	0.275
599	0.275
600	0.274
600	0.274
601	0.274
601	0.274
602	0.273
602	0.274
602	0.273
603	0.273
603	0.274
604	0.274
604	0.274
605	0.274
605	0.275
606	0.274
606	0.273
606	0.272
607	0.272
607	0.272
608	0.271
608	0.269
609	0.269
609	0.269
610	0.268
610	0.267
610	0.267
611	0.267
611	0.267
612	0.267
612	0.268
613	0.268
613	0.268
614	0.266
614	0.265
614	0.264
615	0.263
615	0.263
616	0.262
616	0.262
617	0.262
617	0.261
618	0.26
618	0.26
618	0.26
619	0.26
619	0.26
620	0.26
620	0.259
621	0.258
621	0.257
622	0.255
622	0.254
622	0.252
623	0.251
623	0.251
624	0.25
624	0.249
625	0.248
625	0.248
626	0.246
626	0.245
626	0.245
627	0.245
627	0.244
628	0.244
628	0.243
629	0.242
629	0.24
630	0.239
630	0.237
630	0.236
631	0.235
631	0.233
632	0.231
632	0.229
633	0.227
633	0.225
634	0.223
634	0.221
634	0.219
635	0.217
635	0.214
636	0.211
636	0.208
637	0.205
637	0.201
638	0.198
638	0.195
638	0.191
639	0.187
639	0.183
640	0.179
640	0.174
641	0.17
641	0.166
642	0.162
642	0.157
642	0.152
643	0.147
643	0.142
644	0.136
644	0.13
645	0.125
645	0.119
646	0.112
646	0.105
646	0.098
647	0.09
647	0.083
648	0.075
648	0.066
649	0.058
649	0.05
650	0.042
650	0.034
650	0.025
651	0.014
651	-0
652	-0.015
652	-0.031
653	-0.046
653	-0.058
653	-0.054
654	-0.032
654	-0.025
655	-0.03
655	-0.037
656	-0.044
656	-0.052
657	-0.058
657	-0.063
657	-0.071
658	-0.08
658	-0.114
659	-0.21
659	-0.309
660	-0.354
660	-0.383
661	-0.412
661	-0.444
661	-0.476
662	-0.507
662	-0.54
663	-0.577
663	-0.618
664	-0.659
664	-0.702
665	-0.752
665	-0.801
665	-0.849
666	-0.903
666	-0.962
667	-1.02
667	-1.085
668	-1.146
668	-1.217
669	-1.286
669	-1.36
669	-1.438
670	-1.519
670	-1.623
671	-1.756
671	-2.021
672	-2.284
672	-2.454
672	-2.578
673	-2.677
673	-2.759
674	-2.836
674	-2.861
675	-2.879
675	-2.884
676	-2.884
676	-2.852
676	-2.79
677	-2.715
677	-2.629
678	-2.505
678	-2.321
679	-1.981
679	-1.757
680	-1.637
680	-1.552
680	-1.476
681	-1.42
681	-1.361
682	-1.313
682	-1.266
683	-1.219
683	-1.19
684	-1.157
684	-1.133
684	-1.107
685	-1.084
685	-1.07
686	-1.044
686	-1.027
687	-1.015
687	-1.001
687	-0.998
688	-0.979
688	-0.969
689	-0.97
689	-0.964
690	-0.949
690	-0.936
691	-0.931
691	-0.934
691	-0.933
692	-0.931
692	-0.927
693	-0.932
693	-0.942
694	-0.921
694	-0.919
695	-0.921
695	-0.915
695	-0.923
696	-0.93
696	-0.921
697	-0.915
697	-0.909
698	-0.903
698	-0.895
698	-0.908
699	-0.906
699	-0.908
700	-0.928
700	-0.92
701	-0.906
701	-0.899
702	-0.9
702	-0.9
702	-0.9
703	-0.891
703	-0.88
704	-0.886
704	-0.89
705	-0.875
705	-0.875
705	-0.87
706	-0.863
706	-0.858
707	-0.868
707	-0.872
708	-0.87
708	-0.867
709	-0.868
709	-0.864
709	-0.86
710	-0.868
710	-0.87
711	-0.869
711	-0.87
712	-0.862
712	-0.859
713	-0.863
713	-0.862
713	-0.843
714	-0.844
714	-0.848
715	-0.838
715	-0.848
716	-0.863
716	-0.871
716	-0.871
717	-0.877
717	-0.87
718	-0.865
718	-0.864
719	-0.859
719	-0.852
720	-0.847
720	-0.841
720	-0.835
721	-0.827
721	-0.831
722	-0.829
722	-0.824
723	-0.841
723	-0.853
723	-0.862
724	-0.859
724	-0.864
725	-0.858
725	-0.862
726	-0.865
726	-0.856
727	-0.859
727	-0.867
727	-0.858
728	-0.846
728	-0.841
729	-0.846
729	-0.85
730	-0.855
730	-0.847
730	-0.852
731	-0.855
731	-0.854
732	-0.854
732	-0.848
733	-0.864
733	-0.872
734	-0.879
734	-0.869
734	-0.852
735	-0.841
735	-0.836
736	-0.833
736	-0.827
737	-0.827
737	-0.816
737	-0.808
738	-0.794
738	-0.782
739	-0.785
739	-0.785
740	-0.799
740	-0.801
741	-0.813
741	-0.824
741	-0.833
742	-0.841
742	-0.858
743	-0.863
743	-0.865
744	-0.868
744	-0.877
744	-0.87
745	-0.876
745	-0.865
746	-0.859
746	-0.85
747	-0.851
747	-0.842
748	-0.845
748	-0.851
748	-0.852
749	-0.844
749	-0.85
750	-0.841
750	-0.842
751	-0.842
751	-0.839
751	-0.85
752	-0.852
752	-0.855
753	-0.855
753	-0.846
754	-0.867
754	-0.865
754	-0.872
755	-0.874
755	-0.867
756	-0.871
756	-0.857
757	-0.848
757	-0.838
758	-0.837
758	-0.837
758	-0.831
759	-0.837
759	-0.839
760	-0.837
760	-0.839
761	-0.831
761	-0.837
761	-0.838
762	-0.844
762	-0.846
763	-0.846
763	-0.851
764	-0.849
764	-0.845
764	-0.849
765	-0.849
765	-0.857
766	-0.858
766	-0.859
767	-0.874
767	-0.869
768	-0.868
768	-0.86
768	-0.855
769	-0.857
769	-0.866
770	-0.875
770	-0.878
771	-0.876
771	-0.876
771	-0.879
772	-0.882
772	-0.904
773	-0.904
773	-0.905
774	-0.903
774	-0.884
775	-0.871
775	-0.869
775	-0.872
776	-0.884
776	-0.882
777	-0.882
777	-0.864
778	-0.873
778	-0.881
778	-0.883
779	-0.892
779	-0.909
780	-0.906
780	-0.915
781	-0.906
781	-0.895
781	-0.91
782	-0.931
782	-0.933
783	-0.935
783	-0.943
784	-0.947
784	-0.94
784	-0.96
785	-0.954
785	-0.965
786	-0.969
786	-0.959
787	-0.95
787	-0.957
788	-0.948
788	-0.94
788	-0.94
789	-0.937
789	-0.925
790	-0.925
790	-0.909
791	-0.915
791	-0.911
791	-0.903
792	-0.897
792	-0.901
793	-0.905
793	-0.895
794	-0.889
794	-0.883
794	-0.889
795	-0.91
795	-0.896
796	-0.902
796	-0.899
797	-0.893
797	-0.883
797	-0.875
798	-0.894
798	-0.898
799	-0.898
799	-0.883
800	-0.878
800	-0.886
801	-0.884
801	-0.89
801	-0.886
802	-0.886
802	-0.885
803	-0.88
803	-0.874
804	-0.879
804	-0.888
804	-0.871
805	-0.852
805	-0.841
806	-0.842
806	-0.837
807	-0.838
807	-0.837
807	-0.82
808	-0.814
808	-0.805
809	-0.799
809	-0.8
810	-0.803
810	-0.801
810	-0.797
811	-0.8
811	-0.792
812	-0.786
812	-0.788
813	-0.793
813	-0.796
813	-0.791
814	-0.791
814	-0.797
815	-0.787
815	-0.782
816	-0.779
816	-0.797
817	-0.808
817	-0.811
817	-0.821
818	-0.814
818	-0.811
819	-0.82
819	-0.818
820	-0.831
820	-0.832
820	-0.83
821	-0.824
821	-0.818
822	-0.818
822	-0.805
823	-0.817
823	-0.817
823	-0.811
824	-0.81
824	-0.82
825	-0.819
825	-0.817
826	-0.813
826	-0.809
826	-0.806
827	-0.807
827	-0.796
828	-0.796
828	-0.79
829	-0.783
829	-0.766
829	-0.761
830	-0.758
830	-0.743
831	-0.738
831	-0.729
832	-0.72
832	-0.713
832	-0.706
833	-0.706
833	-0.713
834	-0.707
834	-0.703
835	-0.695
835	-0.693
835	-0.687
836	-0.684
836	-0.679
837	-0.67
837	-0.664
838	-0.651
838	-0.633
839	-0.626
839	-0.613
839	-0.605
840	-0.604
840	-0.594
841	-0.583
841	-0.575
842	-0.566
842	-0.55
842	-0.548
843	-0.544
843	-0.539
844	-0.536
844	-0.524
845	-0.509
845	-0.499
845	-0.488
846	-0.476
846	-0.463
847	-0.452
847	-0.437
848	-0.421
848	-0.404
848	-0.389
849	-0.376
849	-0.364
850	-0.352
850	-0.34
851	-0.326
851	-0.308
851	-0.298
852	-0.282
852	-0.269
853	-0.258
853	-0.246
854	-0.235
854	-0.223
854	-0.209
855	-0.196
855	-0.187
856	-0.178
856	-0.167
857	-0.158
857	-0.149
857	-0.134
858	-0.122
858	-0.114
859	-0.101
859	-0.087
860	-0.075
860	-0.059
860	-0.047
861	-0.035
861	-0.023
862	-0.014
862	-0.004
863	0.005
863	0.017
863	0.024
864	0.031
864	0.039
865	0.048
865	0.055
866	0.062
866	0.069
866	0.077
867	0.084
867	0.09
868	0.096
868	0.102
869	0.107
869	0.112
869	0.115
870	0.117
870	0.12
871	0.122
871	0.123
872	0.124
872	0.125
872	0.126
873	0.126
873	0.125
874	0.124
874	0.123
875	0.122
875	0.122
875	0.121
876	0.12
876	0.119
877	0.118
877	0.117
878	0.116
878	0.115
878	0.115
879	0.115
879	0.114
880	0.114
880	0.114
881	0.113
881	0.112
881	0.112
882	0.111
882	0.11
883	0.108
883	0.107
884	0.106
884	0.105
884	0.105
885	0.105
885	0.105
886	0.105
886	0.105
887	0.104
887	0.104
887	0.103
888	0.103
888	0.102
889	0.101
889	0.1
890	0.098
890	0.098
890	0.097
891	0.097
891	0.097
892	0.097
892	0.097
893	0.097
893	0.097
893	0.097
894	0.097
894	0.097
895	0.096
895	0.096
895	0.095
896	0.095
896	0.095
897	0.094
897	0.094
898	0.094
898	0.094
898	0.093
899	0.093
899	0.094
900	0.093
900	0.093
901	0.093
901	0.093
901	0.092
902	0.092
902	0.093
903	0.093
903	0.093
904	0.092
904	0.092
904	0.093
905	0.093
905	0.093
906	0.094
906	0.094
907	0.095
907	0.094
907	0.095
908	0.095
908	0.096
909	0.096
909	0.097
910	0.097
910	0.097
910	0.098
911	0.098
911	0.099
912	0.1
912	0.1
913	0.101
913	0.101
913	0.101
914	0.101
914	0.101
915	0.101
915	0.101
916	0.101
916	0.101
916	0.101
917	0.101
917	0.101
918	0.101
918	0.101
918	0.1
919	0.1
919	0.1
920	0.101
920	0.101
921	0.102
921	0.102
921	0.103
922	0.103
922	0.103
923	0.104
923	0.104
924	0.104
924	0.103
924	0.103
925	0.102
925	0.1
926	0.099
926	0.098
927	0.098
927	0.097
927	0.097
928	0.097
928	0.097
929	0.098
929	0.099
930	0.1
930	0.101
930	0.102
931	0.103
931	0.104
932	0.105
932	0.106
933	0.106
933	0.106
933	0.106
934	0.105
934	0.104
935	0.103
935	0.102
935	0.1
936	0.099
936	0.097
937	0.095
937	0.094
938	0.093
938	0.092
938	0.091
939	0.09
939	0.089
940	0.089
940	0.088
941	0.087
941	0.086
941	0.086
942	0.085
942	0.085
943	0.084
943	0.083
944	0.083
944	0.082
944	0.081
945	0.08
945	0.08
946	0.079
946	0.077
946	0.077
947	0.077
947	0.076
948	0.076
948	0.077
949	0.077
949	0.078
949	0.079
950	0.08
950	0.082
951	0.083
951	0.084
952	0.085
952	0.086
952	0.087
953	0.088
953	0.089
954	0.089
954	0.089
955	0.089
955	0.089
955	0.089
956	0.088
956	0.088
957	0.086
957	0.085
957	0.084
958	0.084
958	0.083
959	0.082
959	0.081
960	0.081
960	0.08
960	0.08
961	0.08
961	0.08
962	0.081
962	0.08
963	0.08
963	0.081
963	0.081
964	0.082
964	0.082
965	0.082
965	0.082
966	0.082
966	0.083
966	0.083
967	0.083
967	0.083
968	0.083
968	0.083
968	0.083
969	0.083
969	0.082
970	0.082
970	0.081
971	0.081
971	0.081
971	0.08
972	0.08
972	0.08
973	0.08
973	0.08
974	0.08
974	0.08
974	0.08
975	0.08
975	0.08
976	0.08
976	0.08
976	0.08
977	0.08
977	0.08
978	0.079
978	0.079
979	0.079
979	0.078
979	0.078
980	0.078
980	0.078
981	0.078
981	0.078
982	0.078
982	0.078
982	0.078
983	0.078
983	0.078
984	0.078
984	0.078
984	0.077
985	0.077
985	0.077
986	0.075
986	0.075
987	0.074
987	0.073
987	0.072
988	0.072
988	0.071
989	0.07
989	0.069
990	0.068
990	0.067
990	0.067
991	0.066
991	0.065
992	0.064
992	0.064
992	0.063
993	0.062
993	0.061
994	0.06
994	0.059
995	0.058
995	0.056
995	0.055
996	0.054
996	0.052
997	0.051
997	0.05
997	0.049
998	0.049
998	0.049
999	0.049
999	0.049
1000	0.049
1000	0.05
1000	0.05
1001	0.051
1001	0.052
1002	0.052
1002	0.053
1003	0.053
1003	0.054
1003	0.054
1004	0.054
1004	0.054
1005	0.054
1005	0.054
1005	0.053
1006	0.052
1006	0.052
1007	0.051
1007	0.05
1008	0.05
1008	0.049
1008	0.049
1009	0.048
1009	0.048
1010	0.049
1010	0.049
1010	0.049
1011	0.05
1011	0.05
1012	0.051
1012	0.052
1013	0.053
1013	0.053
1013	0.054
1014	0.054
1014	0.055
1015	0.055
1015	0.055
1016	0.055
1016	0.055
1016	0.055
1017	0.054
1017	0.054
1018	0.053
1018	0.053
1018	0.053
1019	0.053
1019	0.052
1020	0.052
1020	0.051
1021	0.051
1021	0.051
1021	0.05
1022	0.05
1022	0.05
1023	0.051
1023	0.05
1023	0.05
1024	0.05
1024	0.051
1025	0.051
1025	0.051
1026	0.052
1026	0.052
1026	0.052
1027	0.052
1027	0.052
1028	0.053
1028	0.053
1028	0.054
1029	0.053
1029	0.054
1030	0.053
1030	0.053
1031	0.053
1031	0.053
1031	0.053
1032	0.053
1032	0.052
1033	0.052
1033	0.051
1033	0.051
1034	0.051
1034	0.05
1035	0.05
1035	0.049
1036	0.048
1036	0.048
1036	0.048
1037	0.047
1037	0.048
1038	0.048
1038	0.048
1039	0.048
1039	0.048
1039	0.049
1040	0.049
1040	0.05
1041	0.049
1041	0.049
1041	0.048
1042	0.048
1042	0.047
1043	0.047
1043	0.046
1044	0.045
1044	0.044
1044	0.043
1045	0.042
1045	0.041
1046	0.04
1046	0.04
1046	0.04
1047	0.039
1047	0.039
1048	0.039
1048	0.04
1049	0.04
1049	0.04
1049	0.04
1050	0.039
1050	0.039
1051	0.039
1051	0.038
1051	0.038
1052	0.038
1052	0.037
1053	0.036
1053	0.036
1053	0.036
1054	0.035
1054	0.035
1055	0.035
1055	0.035
1056	0.035
1056	0.035
1056	0.034
1057	0.034
1057	0.033
1058	0.033
1058	0.033
1058	0.033
1059	0.032
1059	0.031
1060	0.03
1060	0.03
1061	0.029
1061	0.029
1061	0.029
1062	0.028
1062	0.028
1063	0.028
1063	0.028
1063	0.027
1064	0.028
1064	0.028
1065	0.029
1065	0.029
1066	0.029
1066	0.028
1066	0.028
1067	0.028
1067	0.027
1068	0.026
1068	0.025
1068	0.024
1069	0.023
1069	0.022
1070	0.021
1070	0.02
1071	0.019
1071	0.019
1071	0.018
1072	0.018
1072	0.018
1073	0.017
1073	0.017
1073	0.016
1074	0.017
1074	0.016
1075	0.015
1075	0.015
1076	0.013
1076	0.013
1076	0.012
1077	0.011
1077	0.01
1078	0.01
1078	0.009
1078	0.008
1079	0.008
1079	0.008
1080	0.007
1080	0.007
1080	0.005
1081	0.004
1081	0.004
1082	0.004
1082	0.003
1083	0.001
1083	0
1083	-0
1084	-0.002
1084	-0.002
1085	-0.004
1085	-0.005
1085	-0.006
1086	-0.007
1086	-0.009
1087	-0.009
1087	-0.01
1088	-0.012
1088	-0.013
1088	-0.014
1089	-0.016
1089	-0.017
1090	-0.018
1090	-0.019
1090	-0.021
1091	-0.023
1091	-0.023
1092	-0.024
1092	-0.024
1092	-0.026
1093	-0.027
1093	-0.027
1094	-0.027
1094	-0.028
1095	-0.03
1095	-0.029
1095	-0.029
1096	-0.031
1096	-0.033
1097	-0.034
1097	-0.036
1097	-0.037
1098	-0.04
1098	-0.042
1099	-0.044
1099	-0.046
1100	-0.049
1100	-0.052
1100	-0.055
1101	-0.059
1101	-0.062
1102	-0.064
1102	-0.068
1102	-0.07
1103	-0.073
1103	-0.077
1104	-0.08
1104	-0.084
1104	-0.086
1105	-0.088
1105	-0.091
1106	-0.096
1106	-0.099
1107	-0.105
1107	-0.11
1107	-0.116
1108	-0.118
1108	-0.12
1109	-0.124
1109	-0.129
1109	-0.134
1110	-0.136
1110	-0.141
1111	-0.155
1111	-0.148
