Data from 3.4A_17C_Absorbance__63__01975.txt Node

Date: Tue Jun 20 16:26:34 CEST 2023
User: Marek
Spectrometer: MAYP115816
Trigger mode: 0
Integration Time (sec): 2.200000E-1
Scans to average: 10
Electric dark correction enabled: true
Nonlinearity correction enabled: true
Boxcar width: 5
XAxis mode: Wavelengths
Number of Pixels in Spectrum: 2068
>>>>>Begin Spectral Data<<<<<
199	-0.79
199	-0.777
200	-0.742
200	-0.687
201	-0.659
201	-0.65
202	-0.633
202	-0.625
203	-0.626
203	-0.617
204	-0.597
204	-0.582
205	-0.558
205	-0.548
205	-0.557
206	-0.558
206	-0.553
207	-0.546
207	-0.552
208	-0.552
208	-0.557
209	-0.559
209	-0.565
210	-0.578
210	-0.587
211	-0.581
211	-0.585
212	-0.595
212	-0.603
213	-0.599
213	-0.594
213	-0.591
214	-0.598
214	-0.599
215	-0.596
215	-0.601
216	-0.609
216	-0.614
217	-0.613
217	-0.613
218	-0.623
218	-0.626
219	-0.633
219	-0.634
220	-0.639
220	-0.645
221	-0.644
221	-0.645
221	-0.637
222	-0.636
222	-0.633
223	-0.628
223	-0.63
224	-0.631
224	-0.629
225	-0.627
225	-0.629
226	-0.629
226	-0.629
227	-0.636
227	-0.648
228	-0.651
228	-0.66
229	-0.667
229	-0.666
229	-0.666
230	-0.661
230	-0.658
231	-0.655
231	-0.65
232	-0.654
232	-0.646
233	-0.648
233	-0.635
234	-0.634
234	-0.628
235	-0.632
235	-0.644
236	-0.65
236	-0.651
236	-0.65
237	-0.65
237	-0.65
238	-0.651
238	-0.653
239	-0.656
239	-0.665
240	-0.657
240	-0.653
241	-0.65
241	-0.652
242	-0.657
242	-0.662
243	-0.664
243	-0.663
243	-0.668
244	-0.664
244	-0.667
245	-0.67
245	-0.674
246	-0.683
246	-0.687
247	-0.693
247	-0.678
248	-0.678
248	-0.682
249	-0.687
249	-0.689
250	-0.687
250	-0.694
250	-0.69
251	-0.691
251	-0.687
252	-0.689
252	-0.702
253	-0.697
253	-0.709
254	-0.715
254	-0.716
255	-0.726
255	-0.725
256	-0.726
256	-0.74
257	-0.749
257	-0.745
258	-0.747
258	-0.756
258	-0.753
259	-0.745
259	-0.762
260	-0.761
260	-0.75
261	-0.764
261	-0.747
262	-0.754
262	-0.753
263	-0.744
263	-0.747
264	-0.756
264	-0.758
265	-0.749
265	-0.753
265	-0.764
266	-0.753
266	-0.755
267	-0.754
267	-0.769
268	-0.779
268	-0.774
269	-0.768
269	-0.783
270	-0.786
270	-0.783
271	-0.797
271	-0.808
272	-0.809
272	-0.812
272	-0.807
273	-0.817
273	-0.832
274	-0.822
274	-0.816
275	-0.814
275	-0.801
276	-0.803
276	-0.809
277	-0.811
277	-0.809
278	-0.814
278	-0.812
278	-0.8
279	-0.807
279	-0.821
280	-0.824
280	-0.835
281	-0.828
281	-0.82
282	-0.824
282	-0.817
283	-0.81
283	-0.825
284	-0.839
284	-0.85
285	-0.829
285	-0.835
285	-0.826
286	-0.832
286	-0.848
287	-0.846
287	-0.846
288	-0.845
288	-0.828
289	-0.824
289	-0.83
290	-0.84
290	-0.829
291	-0.832
291	-0.829
292	-0.809
292	-0.807
292	-0.811
293	-0.8
293	-0.795
294	-0.796
294	-0.783
295	-0.765
295	-0.774
296	-0.786
296	-0.782
297	-0.772
297	-0.775
298	-0.77
298	-0.789
298	-0.791
299	-0.773
299	-0.766
300	-0.765
300	-0.747
301	-0.729
301	-0.731
302	-0.742
302	-0.727
303	-0.719
303	-0.706
304	-0.691
304	-0.695
305	-0.686
305	-0.695
305	-0.711
306	-0.695
306	-0.694
307	-0.686
307	-0.698
308	-0.701
308	-0.695
309	-0.696
309	-0.689
310	-0.686
310	-0.68
311	-0.665
311	-0.684
311	-0.671
312	-0.668
312	-0.657
313	-0.649
313	-0.652
314	-0.657
314	-0.654
315	-0.651
315	-0.646
316	-0.64
316	-0.631
317	-0.624
317	-0.621
318	-0.612
318	-0.611
318	-0.599
319	-0.589
319	-0.582
320	-0.582
320	-0.58
321	-0.576
321	-0.575
322	-0.571
322	-0.563
323	-0.563
323	-0.553
324	-0.549
324	-0.537
324	-0.525
325	-0.509
325	-0.49
326	-0.48
326	-0.453
327	-0.435
327	-0.413
328	-0.38
328	-0.355
329	-0.327
329	-0.298
330	-0.268
330	-0.232
330	-0.194
331	-0.155
331	-0.118
332	-0.081
332	-0.045
333	-0.013
333	0.025
334	0.058
334	0.086
335	0.116
335	0.14
336	0.165
336	0.188
336	0.207
337	0.227
337	0.246
338	0.262
338	0.274
339	0.29
339	0.302
340	0.312
340	0.322
341	0.33
341	0.337
342	0.345
342	0.352
342	0.358
343	0.363
343	0.369
344	0.373
344	0.376
345	0.38
345	0.383
346	0.386
346	0.388
347	0.39
347	0.392
348	0.393
348	0.395
348	0.396
349	0.397
349	0.398
350	0.399
350	0.399
351	0.4
351	0.401
352	0.401
352	0.401
353	0.402
353	0.402
354	0.403
354	0.403
354	0.403
355	0.403
355	0.402
356	0.403
356	0.403
357	0.402
357	0.402
358	0.401
358	0.402
359	0.401
359	0.402
360	0.402
360	0.402
360	0.402
361	0.402
361	0.402
362	0.403
362	0.402
363	0.403
363	0.403
364	0.402
364	0.402
365	0.402
365	0.402
366	0.402
366	0.401
366	0.401
367	0.401
367	0.401
368	0.4
368	0.4
369	0.399
369	0.399
370	0.398
370	0.398
371	0.398
371	0.397
372	0.396
372	0.396
372	0.396
373	0.395
373	0.395
374	0.395
374	0.394
375	0.394
375	0.393
376	0.393
376	0.393
377	0.392
377	0.392
378	0.391
378	0.39
378	0.39
379	0.39
379	0.39
380	0.389
380	0.389
381	0.389
381	0.388
382	0.387
382	0.387
383	0.387
383	0.387
383	0.386
384	0.385
384	0.385
385	0.384
385	0.384
386	0.383
386	0.383
387	0.383
387	0.382
388	0.382
388	0.381
389	0.381
389	0.381
389	0.38
390	0.38
390	0.38
391	0.38
391	0.379
392	0.379
392	0.378
393	0.378
393	0.378
394	0.378
394	0.377
394	0.377
395	0.376
395	0.376
396	0.375
396	0.375
397	0.374
397	0.374
398	0.373
398	0.373
399	0.372
399	0.372
400	0.371
400	0.371
400	0.371
401	0.37
401	0.369
402	0.369
402	0.369
403	0.369
403	0.368
404	0.367
404	0.367
405	0.367
405	0.366
405	0.366
406	0.365
406	0.365
407	0.365
407	0.365
408	0.364
408	0.364
409	0.364
409	0.364
410	0.363
410	0.364
411	0.363
411	0.363
411	0.363
412	0.362
412	0.362
413	0.361
413	0.361
414	0.361
414	0.36
415	0.36
415	0.359
416	0.359
416	0.358
416	0.358
417	0.358
417	0.358
418	0.357
418	0.357
419	0.357
419	0.357
420	0.357
420	0.357
421	0.357
421	0.357
421	0.357
422	0.357
422	0.357
423	0.356
423	0.356
424	0.356
424	0.355
425	0.355
425	0.355
426	0.355
426	0.355
427	0.355
427	0.355
427	0.355
428	0.354
428	0.354
429	0.354
429	0.354
430	0.353
430	0.353
431	0.353
431	0.353
432	0.352
432	0.352
432	0.352
433	0.351
433	0.351
434	0.352
434	0.352
435	0.352
435	0.352
436	0.352
436	0.352
437	0.352
437	0.351
437	0.351
438	0.351
438	0.351
439	0.351
439	0.351
440	0.351
440	0.351
441	0.351
441	0.351
442	0.351
442	0.351
442	0.351
443	0.351
443	0.351
444	0.351
444	0.351
445	0.351
445	0.351
446	0.351
446	0.351
447	0.351
447	0.351
447	0.352
448	0.352
448	0.352
449	0.352
449	0.352
450	0.352
450	0.352
451	0.352
451	0.352
452	0.352
452	0.353
452	0.353
453	0.353
453	0.353
454	0.353
454	0.354
455	0.354
455	0.355
456	0.355
456	0.355
457	0.355
457	0.355
458	0.356
458	0.356
458	0.356
459	0.356
459	0.356
460	0.356
460	0.356
461	0.356
461	0.357
462	0.357
462	0.358
463	0.359
463	0.36
463	0.36
464	0.361
464	0.362
465	0.362
465	0.363
466	0.364
466	0.365
467	0.365
467	0.366
467	0.366
468	0.366
468	0.366
469	0.367
469	0.368
470	0.369
470	0.369
471	0.37
471	0.371
472	0.371
472	0.372
472	0.373
473	0.374
473	0.376
474	0.376
474	0.377
475	0.379
475	0.38
476	0.381
476	0.382
477	0.384
477	0.385
477	0.386
478	0.387
478	0.388
479	0.39
479	0.391
480	0.392
480	0.393
481	0.395
481	0.396
482	0.398
482	0.399
482	0.401
483	0.403
483	0.406
484	0.408
484	0.409
485	0.412
485	0.414
486	0.416
486	0.418
487	0.42
487	0.422
487	0.424
488	0.426
488	0.427
489	0.429
489	0.432
490	0.435
490	0.437
491	0.439
491	0.442
492	0.444
492	0.446
492	0.449
493	0.451
493	0.454
494	0.458
494	0.461
495	0.463
495	0.466
496	0.469
496	0.472
496	0.475
497	0.479
497	0.482
498	0.485
498	0.488
499	0.491
499	0.494
500	0.498
500	0.502
501	0.506
501	0.509
501	0.512
502	0.515
502	0.519
503	0.523
503	0.526
504	0.529
504	0.533
505	0.537
505	0.541
506	0.545
506	0.548
506	0.553
507	0.556
507	0.561
508	0.565
508	0.569
509	0.573
509	0.577
510	0.582
510	0.586
511	0.589
511	0.593
511	0.596
512	0.6
512	0.603
513	0.606
513	0.609
514	0.612
514	0.615
515	0.618
515	0.621
515	0.623
516	0.626
516	0.629
517	0.632
517	0.635
518	0.637
518	0.639
519	0.641
519	0.643
520	0.645
520	0.647
520	0.649
521	0.65
521	0.652
522	0.653
522	0.654
523	0.656
523	0.657
524	0.658
524	0.66
524	0.661
525	0.662
525	0.663
526	0.664
526	0.664
527	0.664
527	0.665
528	0.664
528	0.664
529	0.664
529	0.663
529	0.662
530	0.661
530	0.66
531	0.659
531	0.657
532	0.656
532	0.654
533	0.653
533	0.651
533	0.649
534	0.646
534	0.644
535	0.642
535	0.64
536	0.637
536	0.634
537	0.632
537	0.629
538	0.626
538	0.622
538	0.619
539	0.616
539	0.613
540	0.609
540	0.605
541	0.601
541	0.597
542	0.593
542	0.589
542	0.585
543	0.58
543	0.575
544	0.57
544	0.566
545	0.562
545	0.557
546	0.553
546	0.547
547	0.542
547	0.537
547	0.532
548	0.528
548	0.523
549	0.518
549	0.514
550	0.509
550	0.503
551	0.498
551	0.493
551	0.487
552	0.482
552	0.477
553	0.473
553	0.468
554	0.462
554	0.457
555	0.451
555	0.446
556	0.441
556	0.435
556	0.43
557	0.425
557	0.42
558	0.414
558	0.409
559	0.404
559	0.398
560	0.393
560	0.388
560	0.383
561	0.379
561	0.375
562	0.37
562	0.366
563	0.361
563	0.357
564	0.353
564	0.348
564	0.345
565	0.341
565	0.337
566	0.332
566	0.328
567	0.324
567	0.319
568	0.315
568	0.31
568	0.306
569	0.302
569	0.298
570	0.293
570	0.288
571	0.285
571	0.281
572	0.277
572	0.273
573	0.269
573	0.265
573	0.261
574	0.258
574	0.255
575	0.252
575	0.251
576	0.247
576	0.243
577	0.239
577	0.237
577	0.234
578	0.232
578	0.23
579	0.229
579	0.227
580	0.222
580	0.218
581	0.214
581	0.211
581	0.209
582	0.208
582	0.206
583	0.204
583	0.201
584	0.196
584	0.193
585	0.191
585	0.19
585	0.188
586	0.186
586	0.184
587	0.181
587	0.178
588	0.175
588	0.173
589	0.171
589	0.169
590	0.167
590	0.164
590	0.163
591	0.162
591	0.159
592	0.157
592	0.154
593	0.153
593	0.151
594	0.149
594	0.147
594	0.145
595	0.144
595	0.141
596	0.139
596	0.138
597	0.138
597	0.137
598	0.135
598	0.134
598	0.133
599	0.132
599	0.13
600	0.129
600	0.128
601	0.128
601	0.127
602	0.126
602	0.125
602	0.123
603	0.123
603	0.123
604	0.122
604	0.121
605	0.121
605	0.12
606	0.118
606	0.116
606	0.115
607	0.113
607	0.113
608	0.111
608	0.109
609	0.108
609	0.107
610	0.106
610	0.104
610	0.104
611	0.103
611	0.103
612	0.102
612	0.102
613	0.101
613	0.1
614	0.099
614	0.097
614	0.096
615	0.094
615	0.092
616	0.092
616	0.091
617	0.09
617	0.089
618	0.088
618	0.087
618	0.086
619	0.086
619	0.086
620	0.087
620	0.086
621	0.085
621	0.084
622	0.082
622	0.081
622	0.08
623	0.078
623	0.078
624	0.078
624	0.076
625	0.075
625	0.075
626	0.074
626	0.074
626	0.074
627	0.074
627	0.074
628	0.074
628	0.073
629	0.073
629	0.072
630	0.071
630	0.07
630	0.071
631	0.07
631	0.069
632	0.068
632	0.068
633	0.067
633	0.066
634	0.066
634	0.066
634	0.065
635	0.065
635	0.064
636	0.063
636	0.063
637	0.062
637	0.061
638	0.061
638	0.06
638	0.059
639	0.058
639	0.057
640	0.056
640	0.055
641	0.053
641	0.052
642	0.051
642	0.05
642	0.048
643	0.046
643	0.044
644	0.043
644	0.041
645	0.039
645	0.038
646	0.036
646	0.033
646	0.031
647	0.028
647	0.024
648	0.021
648	0.018
649	0.013
649	0.009
650	0.006
650	0.001
650	-0.003
651	-0.009
651	-0.015
652	-0.022
652	-0.03
653	-0.037
653	-0.044
653	-0.039
654	-0.031
654	-0.035
655	-0.041
655	-0.045
656	-0.049
656	-0.055
657	-0.059
657	-0.061
657	-0.067
658	-0.072
658	-0.095
659	-0.151
659	-0.2
660	-0.224
660	-0.243
661	-0.262
661	-0.283
661	-0.304
662	-0.323
662	-0.34
663	-0.358
663	-0.379
664	-0.395
664	-0.417
665	-0.44
665	-0.46
665	-0.477
666	-0.497
666	-0.519
667	-0.54
667	-0.567
668	-0.593
668	-0.63
669	-0.666
669	-0.701
669	-0.746
670	-0.797
670	-0.901
671	-1.131
671	-1.494
672	-1.874
672	-2.202
672	-2.403
673	-2.493
673	-2.517
674	-2.535
674	-2.544
675	-2.559
675	-2.564
676	-2.563
676	-2.538
676	-2.471
677	-2.298
677	-1.964
678	-1.424
678	-1.062
679	-0.954
679	-0.906
680	-0.873
680	-0.851
680	-0.835
681	-0.833
681	-0.817
682	-0.811
682	-0.795
683	-0.778
683	-0.783
684	-0.778
684	-0.779
684	-0.775
685	-0.775
685	-0.782
686	-0.771
686	-0.77
687	-0.772
687	-0.772
687	-0.782
688	-0.774
688	-0.776
689	-0.785
689	-0.787
690	-0.779
690	-0.774
691	-0.775
691	-0.784
691	-0.789
692	-0.794
692	-0.794
693	-0.806
693	-0.819
694	-0.802
694	-0.803
695	-0.81
695	-0.804
695	-0.816
696	-0.824
696	-0.817
697	-0.813
697	-0.81
698	-0.806
698	-0.801
698	-0.819
699	-0.819
699	-0.821
700	-0.843
700	-0.837
701	-0.827
701	-0.824
702	-0.827
702	-0.827
702	-0.828
703	-0.819
703	-0.808
704	-0.817
704	-0.819
705	-0.808
705	-0.81
705	-0.805
706	-0.799
706	-0.795
707	-0.809
707	-0.815
708	-0.815
708	-0.812
709	-0.814
709	-0.813
709	-0.81
710	-0.816
710	-0.82
711	-0.819
711	-0.819
712	-0.811
712	-0.807
713	-0.81
713	-0.812
713	-0.792
714	-0.795
714	-0.798
715	-0.791
715	-0.798
716	-0.816
716	-0.827
716	-0.825
717	-0.832
717	-0.825
718	-0.821
718	-0.823
719	-0.82
719	-0.813
720	-0.808
720	-0.805
720	-0.798
721	-0.789
721	-0.793
722	-0.791
722	-0.787
723	-0.804
723	-0.816
723	-0.823
724	-0.821
724	-0.827
725	-0.82
725	-0.825
726	-0.828
726	-0.821
727	-0.824
727	-0.831
727	-0.822
728	-0.809
728	-0.806
729	-0.811
729	-0.813
730	-0.819
730	-0.809
730	-0.817
731	-0.82
731	-0.82
732	-0.821
732	-0.817
733	-0.832
733	-0.839
734	-0.846
734	-0.838
734	-0.82
735	-0.81
735	-0.805
736	-0.802
736	-0.797
737	-0.799
737	-0.787
737	-0.78
738	-0.766
738	-0.755
739	-0.759
739	-0.759
740	-0.775
740	-0.776
741	-0.787
741	-0.798
741	-0.807
742	-0.816
742	-0.83
743	-0.838
743	-0.84
744	-0.843
744	-0.853
744	-0.848
745	-0.856
745	-0.845
746	-0.839
746	-0.829
747	-0.831
747	-0.823
748	-0.824
748	-0.828
748	-0.828
749	-0.82
749	-0.826
750	-0.816
750	-0.817
751	-0.816
751	-0.814
751	-0.825
752	-0.828
752	-0.832
753	-0.834
753	-0.827
754	-0.847
754	-0.845
754	-0.855
755	-0.855
755	-0.848
756	-0.852
756	-0.836
757	-0.828
757	-0.816
758	-0.817
758	-0.815
758	-0.811
759	-0.815
759	-0.814
760	-0.812
760	-0.815
761	-0.809
761	-0.813
761	-0.812
762	-0.819
762	-0.819
763	-0.82
763	-0.825
764	-0.824
764	-0.82
764	-0.826
765	-0.826
765	-0.832
766	-0.837
766	-0.84
767	-0.857
767	-0.852
768	-0.851
768	-0.841
768	-0.836
769	-0.839
769	-0.848
770	-0.857
770	-0.861
771	-0.856
771	-0.855
771	-0.859
772	-0.864
772	-0.886
773	-0.887
773	-0.889
774	-0.889
774	-0.87
775	-0.857
775	-0.856
775	-0.859
776	-0.87
776	-0.865
777	-0.865
777	-0.847
778	-0.855
778	-0.862
778	-0.861
779	-0.871
779	-0.886
780	-0.882
780	-0.891
781	-0.879
781	-0.868
781	-0.882
782	-0.902
782	-0.904
783	-0.902
783	-0.912
784	-0.914
784	-0.909
784	-0.929
785	-0.922
785	-0.936
786	-0.943
786	-0.936
787	-0.927
787	-0.936
788	-0.93
788	-0.922
788	-0.924
789	-0.924
789	-0.914
790	-0.914
790	-0.898
791	-0.906
791	-0.901
791	-0.896
792	-0.892
792	-0.895
793	-0.898
793	-0.885
794	-0.878
794	-0.873
794	-0.88
795	-0.901
795	-0.885
796	-0.892
796	-0.888
797	-0.881
797	-0.871
797	-0.864
798	-0.886
798	-0.889
799	-0.889
799	-0.875
800	-0.871
800	-0.882
801	-0.88
801	-0.885
801	-0.881
802	-0.88
802	-0.88
803	-0.874
803	-0.866
804	-0.871
804	-0.877
804	-0.859
805	-0.838
805	-0.828
806	-0.83
806	-0.826
807	-0.828
807	-0.827
807	-0.811
808	-0.806
808	-0.8
809	-0.797
809	-0.798
810	-0.801
810	-0.797
810	-0.793
811	-0.796
811	-0.788
812	-0.781
812	-0.784
813	-0.79
813	-0.79
813	-0.786
814	-0.787
814	-0.792
815	-0.784
815	-0.778
816	-0.774
816	-0.791
817	-0.803
817	-0.805
817	-0.812
818	-0.805
818	-0.802
819	-0.812
819	-0.811
820	-0.821
820	-0.822
820	-0.821
821	-0.817
821	-0.813
822	-0.812
822	-0.8
823	-0.813
823	-0.812
823	-0.806
824	-0.804
824	-0.813
825	-0.812
825	-0.81
826	-0.805
826	-0.801
826	-0.801
827	-0.802
827	-0.79
828	-0.79
828	-0.785
829	-0.781
829	-0.766
829	-0.763
830	-0.76
830	-0.747
831	-0.74
831	-0.729
832	-0.72
832	-0.715
832	-0.708
833	-0.707
833	-0.712
834	-0.707
834	-0.7
835	-0.693
835	-0.693
835	-0.688
836	-0.684
836	-0.681
837	-0.672
837	-0.665
838	-0.652
838	-0.636
839	-0.631
839	-0.619
839	-0.609
840	-0.608
840	-0.597
841	-0.587
841	-0.579
842	-0.57
842	-0.557
842	-0.555
843	-0.55
843	-0.546
844	-0.543
844	-0.535
845	-0.521
845	-0.512
845	-0.502
846	-0.49
846	-0.48
847	-0.469
847	-0.456
848	-0.443
848	-0.427
848	-0.414
849	-0.401
849	-0.388
850	-0.377
850	-0.368
851	-0.355
851	-0.339
851	-0.33
852	-0.316
852	-0.304
853	-0.295
853	-0.284
854	-0.274
854	-0.264
854	-0.253
855	-0.241
855	-0.234
856	-0.226
856	-0.217
857	-0.21
857	-0.203
857	-0.19
858	-0.178
858	-0.171
859	-0.16
859	-0.15
860	-0.14
860	-0.127
860	-0.118
861	-0.108
861	-0.099
862	-0.091
862	-0.085
863	-0.078
863	-0.069
863	-0.064
864	-0.059
864	-0.052
865	-0.046
865	-0.041
866	-0.036
866	-0.031
866	-0.026
867	-0.021
867	-0.016
868	-0.012
868	-0.006
869	-0.002
869	0.001
869	0.003
870	0.005
870	0.007
871	0.009
871	0.01
872	0.011
872	0.013
872	0.014
873	0.014
873	0.014
874	0.014
874	0.014
875	0.014
875	0.014
875	0.014
876	0.014
876	0.014
877	0.013
877	0.013
878	0.012
878	0.012
878	0.012
879	0.011
879	0.011
880	0.01
880	0.009
881	0.008
881	0.007
881	0.006
882	0.005
882	0.003
883	0.002
883	0.001
884	0
884	-0
884	-0.001
885	-0.001
885	-0.001
886	-0.001
886	-0.001
887	-0.001
887	-0.002
887	-0.002
888	-0.002
888	-0.003
889	-0.003
889	-0.004
890	-0.005
890	-0.006
890	-0.006
891	-0.006
891	-0.006
892	-0.006
892	-0.006
893	-0.005
893	-0.005
893	-0.006
894	-0.005
894	-0.005
895	-0.005
895	-0.006
895	-0.006
896	-0.006
896	-0.006
897	-0.006
897	-0.006
898	-0.006
898	-0.006
898	-0.005
899	-0.005
899	-0.005
900	-0.005
900	-0.005
901	-0.006
901	-0.006
901	-0.006
902	-0.006
902	-0.006
903	-0.006
903	-0.007
904	-0.007
904	-0.007
904	-0.007
905	-0.006
905	-0.005
906	-0.004
906	-0.003
907	-0.003
907	-0.002
907	-0.002
908	-0.001
908	-0.001
909	-0
909	-0
910	0
910	0.001
910	0.001
911	0.001
911	0.002
912	0.003
912	0.004
913	0.004
913	0.005
913	0.006
914	0.006
914	0.007
915	0.007
915	0.007
916	0.007
916	0.007
916	0.007
917	0.006
917	0.006
918	0.006
918	0.006
918	0.006
919	0.006
919	0.006
920	0.007
920	0.008
921	0.008
921	0.009
921	0.01
922	0.01
922	0.011
923	0.011
923	0.011
924	0.011
924	0.011
924	0.01
925	0.009
925	0.008
926	0.006
926	0.005
927	0.004
927	0.003
927	0.002
928	0.002
928	0.002
929	0.002
929	0.002
930	0.002
930	0.003
930	0.004
931	0.005
931	0.006
932	0.007
932	0.008
933	0.009
933	0.01
933	0.01
934	0.009
934	0.009
935	0.009
935	0.008
935	0.006
936	0.005
936	0.004
937	0.002
937	0.001
938	0.001
938	-0
938	-0.001
939	-0.002
939	-0.002
940	-0.003
940	-0.003
941	-0.004
941	-0.005
941	-0.005
942	-0.005
942	-0.006
943	-0.006
943	-0.006
944	-0.007
944	-0.007
944	-0.008
945	-0.008
945	-0.008
946	-0.008
946	-0.009
946	-0.009
947	-0.008
947	-0.009
948	-0.008
948	-0.007
949	-0.006
949	-0.005
949	-0.003
950	-0.002
950	-0
951	0.001
951	0.002
952	0.003
952	0.004
952	0.004
953	0.005
953	0.006
954	0.006
954	0.006
955	0.006
955	0.005
955	0.005
956	0.005
956	0.004
957	0.003
957	0.003
957	0.002
958	0.001
958	0.001
959	0.001
959	0
960	-0
960	-0.001
960	-0
961	-0
961	0
962	0
962	0
963	0.001
963	0.001
963	0.001
964	0.001
964	0.002
965	0.003
965	0.003
966	0.003
966	0.004
966	0.004
967	0.004
967	0.004
968	0.004
968	0.003
968	0.003
969	0.003
969	0.003
970	0.002
970	0.002
971	0.002
971	0.002
971	0.002
972	0.002
972	0.003
973	0.003
973	0.003
974	0.003
974	0.003
974	0.003
975	0.003
975	0.003
976	0.003
976	0.003
976	0.003
977	0.003
977	0.002
978	0.002
978	0.001
979	0.001
979	0
979	0
980	-0
980	-0
981	-0.001
981	-0
982	-0
982	-0
982	-0
983	-0
983	-0
984	-0
984	-0
984	-0.001
985	-0.001
985	-0.002
986	-0.003
986	-0.004
987	-0.005
987	-0.005
987	-0.006
988	-0.007
988	-0.007
989	-0.008
989	-0.009
990	-0.01
990	-0.01
990	-0.011
991	-0.011
991	-0.012
992	-0.012
992	-0.013
992	-0.013
993	-0.014
993	-0.014
994	-0.015
994	-0.016
995	-0.017
995	-0.019
995	-0.02
996	-0.021
996	-0.022
997	-0.023
997	-0.024
997	-0.025
998	-0.025
998	-0.025
999	-0.025
999	-0.025
1000	-0.025
1000	-0.024
1000	-0.024
1001	-0.023
1001	-0.022
1002	-0.022
1002	-0.022
1003	-0.022
1003	-0.022
1003	-0.022
1004	-0.023
1004	-0.023
1005	-0.023
1005	-0.024
1005	-0.025
1006	-0.026
1006	-0.026
1007	-0.027
1007	-0.028
1008	-0.029
1008	-0.03
1008	-0.03
1009	-0.03
1009	-0.03
1010	-0.03
1010	-0.029
1010	-0.028
1011	-0.028
1011	-0.027
1012	-0.026
1012	-0.024
1013	-0.023
1013	-0.022
1013	-0.021
1014	-0.02
1014	-0.019
1015	-0.019
1015	-0.018
1016	-0.018
1016	-0.018
1016	-0.018
1017	-0.018
1017	-0.018
1018	-0.018
1018	-0.018
1018	-0.018
1019	-0.019
1019	-0.019
1020	-0.019
1020	-0.02
1021	-0.02
1021	-0.021
1021	-0.021
1022	-0.022
1022	-0.022
1023	-0.021
1023	-0.022
1023	-0.021
1024	-0.021
1024	-0.021
1025	-0.02
1025	-0.02
1026	-0.02
1026	-0.019
1026	-0.019
1027	-0.019
1027	-0.019
1028	-0.018
1028	-0.017
1028	-0.016
1029	-0.016
1029	-0.016
1030	-0.017
1030	-0.017
1031	-0.016
1031	-0.016
1031	-0.016
1032	-0.016
1032	-0.015
1033	-0.016
1033	-0.016
1033	-0.016
1034	-0.016
1034	-0.017
1035	-0.016
1035	-0.017
1036	-0.017
1036	-0.018
1036	-0.018
1037	-0.018
1037	-0.017
1038	-0.017
1038	-0.017
1039	-0.016
1039	-0.016
1039	-0.015
1040	-0.015
1040	-0.015
1041	-0.015
1041	-0.015
1041	-0.016
1042	-0.016
1042	-0.017
1043	-0.018
1043	-0.019
1044	-0.02
1044	-0.021
1044	-0.022
1045	-0.023
1045	-0.023
1046	-0.024
1046	-0.025
1046	-0.025
1047	-0.025
1047	-0.025
1048	-0.025
1048	-0.025
1049	-0.025
1049	-0.025
1049	-0.025
1050	-0.025
1050	-0.026
1051	-0.027
1051	-0.028
1051	-0.028
1052	-0.029
1052	-0.03
1053	-0.03
1053	-0.031
1053	-0.032
1054	-0.033
1054	-0.033
1055	-0.033
1055	-0.033
1056	-0.033
1056	-0.033
1056	-0.034
1057	-0.034
1057	-0.034
1058	-0.034
1058	-0.034
1058	-0.034
1059	-0.034
1059	-0.035
1060	-0.036
1060	-0.036
1061	-0.036
1061	-0.036
1061	-0.035
1062	-0.036
1062	-0.036
1063	-0.035
1063	-0.036
1063	-0.035
1064	-0.035
1064	-0.035
1065	-0.034
1065	-0.034
1066	-0.034
1066	-0.035
1066	-0.035
1067	-0.035
1067	-0.036
1068	-0.036
1068	-0.037
1068	-0.037
1069	-0.038
1069	-0.038
1070	-0.039
1070	-0.04
1071	-0.04
1071	-0.04
1071	-0.041
1072	-0.041
1072	-0.041
1073	-0.042
1073	-0.042
1073	-0.042
1074	-0.042
1074	-0.042
1075	-0.043
1075	-0.044
1076	-0.045
1076	-0.045
1076	-0.046
1077	-0.046
1077	-0.047
1078	-0.048
1078	-0.049
1078	-0.049
1079	-0.05
1079	-0.05
1080	-0.051
1080	-0.052
1080	-0.054
1081	-0.054
1081	-0.055
1082	-0.056
1082	-0.057
1083	-0.058
1083	-0.059
1083	-0.061
1084	-0.062
1084	-0.062
1085	-0.064
1085	-0.065
1085	-0.065
1086	-0.066
1086	-0.067
1087	-0.068
1087	-0.069
1088	-0.07
1088	-0.071
1088	-0.071
1089	-0.073
1089	-0.073
1090	-0.074
1090	-0.075
1090	-0.077
1091	-0.077
1091	-0.077
1092	-0.078
1092	-0.078
1092	-0.078
1093	-0.079
1093	-0.079
1094	-0.079
1094	-0.08
1095	-0.081
1095	-0.081
1095	-0.082
1096	-0.083
1096	-0.085
1097	-0.086
1097	-0.088
1097	-0.089
1098	-0.092
1098	-0.094
1099	-0.095
1099	-0.097
1100	-0.099
1100	-0.102
1100	-0.105
1101	-0.108
1101	-0.111
1102	-0.113
1102	-0.115
1102	-0.117
1103	-0.119
1103	-0.123
1104	-0.125
1104	-0.127
1104	-0.129
1105	-0.13
1105	-0.132
1106	-0.137
1106	-0.139
1107	-0.145
1107	-0.15
1107	-0.155
1108	-0.157
1108	-0.159
1109	-0.163
1109	-0.168
1109	-0.175
1110	-0.178
1110	-0.181
1111	-0.191
1111	-0.19
