Data from 3.4A_17C_Absorbance__743__02655.txt Node

Date: Tue Jun 20 16:51:30 CEST 2023
User: Marek
Spectrometer: MAYP115816
Trigger mode: 0
Integration Time (sec): 2.200000E-1
Scans to average: 10
Electric dark correction enabled: true
Nonlinearity correction enabled: true
Boxcar width: 5
XAxis mode: Wavelengths
Number of Pixels in Spectrum: 2068
>>>>>Begin Spectral Data<<<<<
199	-0.803
199	-0.788
200	-0.754
200	-0.699
201	-0.67
201	-0.661
202	-0.645
202	-0.637
203	-0.637
203	-0.63
204	-0.607
204	-0.591
205	-0.567
205	-0.556
205	-0.565
206	-0.568
206	-0.565
207	-0.558
207	-0.564
208	-0.565
208	-0.569
209	-0.573
209	-0.579
210	-0.592
210	-0.6
211	-0.594
211	-0.597
212	-0.604
212	-0.611
213	-0.606
213	-0.602
213	-0.6
214	-0.607
214	-0.609
215	-0.607
215	-0.612
216	-0.619
216	-0.624
217	-0.622
217	-0.622
218	-0.631
218	-0.632
219	-0.639
219	-0.64
220	-0.643
220	-0.649
221	-0.65
221	-0.651
221	-0.643
222	-0.643
222	-0.64
223	-0.636
223	-0.64
224	-0.641
224	-0.639
225	-0.638
225	-0.639
226	-0.638
226	-0.638
227	-0.646
227	-0.655
228	-0.661
228	-0.67
229	-0.674
229	-0.671
229	-0.672
230	-0.665
230	-0.665
231	-0.662
231	-0.657
232	-0.658
232	-0.654
233	-0.653
233	-0.64
234	-0.64
234	-0.635
235	-0.639
235	-0.652
236	-0.658
236	-0.66
236	-0.661
237	-0.659
237	-0.66
238	-0.662
238	-0.665
239	-0.666
239	-0.676
240	-0.669
240	-0.664
241	-0.658
241	-0.661
242	-0.663
242	-0.672
243	-0.674
243	-0.674
243	-0.678
244	-0.674
244	-0.674
245	-0.678
245	-0.682
246	-0.692
246	-0.694
247	-0.704
247	-0.689
248	-0.688
248	-0.692
249	-0.698
249	-0.699
250	-0.699
250	-0.707
250	-0.704
251	-0.704
251	-0.701
252	-0.7
252	-0.712
253	-0.708
253	-0.719
254	-0.725
254	-0.725
255	-0.733
255	-0.733
256	-0.735
256	-0.748
257	-0.759
257	-0.757
258	-0.758
258	-0.765
258	-0.762
259	-0.754
259	-0.772
260	-0.774
260	-0.763
261	-0.775
261	-0.76
262	-0.765
262	-0.762
263	-0.753
263	-0.76
264	-0.769
264	-0.77
265	-0.762
265	-0.766
265	-0.775
266	-0.766
266	-0.767
267	-0.767
267	-0.785
268	-0.793
268	-0.786
269	-0.78
269	-0.794
270	-0.797
270	-0.795
271	-0.81
271	-0.819
272	-0.821
272	-0.824
272	-0.816
273	-0.827
273	-0.842
274	-0.832
274	-0.828
275	-0.827
275	-0.813
276	-0.815
276	-0.823
277	-0.823
277	-0.818
278	-0.823
278	-0.824
278	-0.812
279	-0.821
279	-0.834
280	-0.836
280	-0.846
281	-0.841
281	-0.832
282	-0.838
282	-0.833
283	-0.826
283	-0.838
284	-0.853
284	-0.862
285	-0.844
285	-0.85
285	-0.843
286	-0.849
286	-0.866
287	-0.864
287	-0.864
288	-0.865
288	-0.846
289	-0.843
289	-0.852
290	-0.859
290	-0.848
291	-0.852
291	-0.847
292	-0.827
292	-0.822
292	-0.828
293	-0.816
293	-0.813
294	-0.813
294	-0.8
295	-0.785
295	-0.796
296	-0.807
296	-0.803
297	-0.792
297	-0.797
298	-0.792
298	-0.809
298	-0.812
299	-0.795
299	-0.787
300	-0.782
300	-0.763
301	-0.746
301	-0.75
302	-0.761
302	-0.747
303	-0.74
303	-0.729
304	-0.713
304	-0.715
305	-0.708
305	-0.716
305	-0.73
306	-0.716
306	-0.712
307	-0.704
307	-0.715
308	-0.717
308	-0.713
309	-0.714
309	-0.711
310	-0.709
310	-0.704
311	-0.692
311	-0.709
311	-0.696
312	-0.695
312	-0.683
313	-0.675
313	-0.674
314	-0.68
314	-0.678
315	-0.673
315	-0.667
316	-0.659
316	-0.649
317	-0.643
317	-0.638
318	-0.63
318	-0.627
318	-0.618
319	-0.608
319	-0.6
320	-0.599
320	-0.595
321	-0.592
321	-0.593
322	-0.586
322	-0.58
323	-0.579
323	-0.571
324	-0.568
324	-0.556
324	-0.546
325	-0.532
325	-0.516
326	-0.506
326	-0.481
327	-0.467
327	-0.444
328	-0.414
328	-0.39
329	-0.364
329	-0.336
330	-0.31
330	-0.274
330	-0.24
331	-0.205
331	-0.171
332	-0.138
332	-0.106
333	-0.076
333	-0.044
334	-0.017
334	0.008
335	0.034
335	0.054
336	0.075
336	0.095
336	0.111
337	0.127
337	0.143
338	0.155
338	0.166
339	0.179
339	0.189
340	0.196
340	0.204
341	0.21
341	0.216
342	0.222
342	0.227
342	0.232
343	0.236
343	0.24
344	0.243
344	0.245
345	0.248
345	0.251
346	0.253
346	0.255
347	0.256
347	0.258
348	0.259
348	0.26
348	0.262
349	0.262
349	0.263
350	0.264
350	0.265
351	0.265
351	0.265
352	0.265
352	0.266
353	0.266
353	0.266
354	0.266
354	0.266
354	0.266
355	0.266
355	0.266
356	0.266
356	0.266
357	0.266
357	0.266
358	0.266
358	0.266
359	0.266
359	0.266
360	0.266
360	0.266
360	0.267
361	0.266
361	0.266
362	0.267
362	0.267
363	0.267
363	0.267
364	0.267
364	0.267
365	0.267
365	0.266
366	0.266
366	0.266
366	0.267
367	0.267
367	0.267
368	0.267
368	0.266
369	0.266
369	0.266
370	0.266
370	0.266
371	0.266
371	0.266
372	0.265
372	0.265
372	0.265
373	0.265
373	0.265
374	0.265
374	0.265
375	0.264
375	0.264
376	0.264
376	0.264
377	0.264
377	0.264
378	0.263
378	0.263
378	0.263
379	0.263
379	0.262
380	0.262
380	0.262
381	0.262
381	0.262
382	0.262
382	0.262
383	0.262
383	0.262
383	0.262
384	0.261
384	0.261
385	0.261
385	0.261
386	0.261
386	0.261
387	0.26
387	0.26
388	0.26
388	0.26
389	0.26
389	0.26
389	0.26
390	0.26
390	0.26
391	0.26
391	0.26
392	0.26
392	0.259
393	0.259
393	0.259
394	0.259
394	0.258
394	0.258
395	0.258
395	0.257
396	0.257
396	0.257
397	0.257
397	0.256
398	0.256
398	0.256
399	0.256
399	0.256
400	0.256
400	0.256
400	0.256
401	0.255
401	0.255
402	0.255
402	0.255
403	0.255
403	0.255
404	0.255
404	0.254
405	0.254
405	0.254
405	0.254
406	0.254
406	0.254
407	0.253
407	0.253
408	0.253
408	0.253
409	0.253
409	0.252
410	0.252
410	0.252
411	0.252
411	0.252
411	0.252
412	0.252
412	0.252
413	0.251
413	0.251
414	0.251
414	0.251
415	0.251
415	0.25
416	0.25
416	0.25
416	0.25
417	0.249
417	0.249
418	0.249
418	0.249
419	0.249
419	0.249
420	0.249
420	0.249
421	0.249
421	0.249
421	0.249
422	0.249
422	0.249
423	0.249
423	0.249
424	0.248
424	0.248
425	0.248
425	0.248
426	0.248
426	0.248
427	0.248
427	0.248
427	0.248
428	0.248
428	0.248
429	0.248
429	0.248
430	0.247
430	0.247
431	0.247
431	0.246
432	0.246
432	0.246
432	0.245
433	0.245
433	0.245
434	0.245
434	0.246
435	0.246
435	0.246
436	0.246
436	0.246
437	0.246
437	0.246
437	0.246
438	0.246
438	0.246
439	0.245
439	0.245
440	0.245
440	0.245
441	0.245
441	0.245
442	0.245
442	0.244
442	0.244
443	0.244
443	0.244
444	0.244
444	0.244
445	0.244
445	0.244
446	0.244
446	0.244
447	0.244
447	0.244
447	0.244
448	0.244
448	0.244
449	0.244
449	0.244
450	0.245
450	0.245
451	0.244
451	0.244
452	0.244
452	0.244
452	0.244
453	0.244
453	0.244
454	0.244
454	0.244
455	0.244
455	0.244
456	0.244
456	0.244
457	0.243
457	0.243
458	0.243
458	0.243
458	0.243
459	0.243
459	0.243
460	0.242
460	0.242
461	0.242
461	0.242
462	0.243
462	0.244
463	0.244
463	0.245
463	0.245
464	0.246
464	0.246
465	0.246
465	0.247
466	0.247
466	0.248
467	0.248
467	0.247
467	0.247
468	0.247
468	0.247
469	0.247
469	0.248
470	0.248
470	0.248
471	0.248
471	0.248
472	0.248
472	0.248
472	0.248
473	0.249
473	0.249
474	0.25
474	0.25
475	0.25
475	0.251
476	0.251
476	0.252
477	0.253
477	0.253
477	0.254
478	0.254
478	0.254
479	0.254
479	0.255
480	0.255
480	0.255
481	0.255
481	0.256
482	0.257
482	0.257
482	0.258
483	0.26
483	0.261
484	0.262
484	0.262
485	0.263
485	0.264
486	0.265
486	0.266
487	0.266
487	0.267
487	0.268
488	0.268
488	0.268
489	0.269
489	0.27
490	0.271
490	0.272
491	0.273
491	0.274
492	0.275
492	0.275
492	0.276
493	0.277
493	0.278
494	0.28
494	0.281
495	0.282
495	0.283
496	0.284
496	0.286
496	0.287
497	0.289
497	0.29
498	0.291
498	0.293
499	0.294
499	0.296
500	0.298
500	0.299
501	0.301
501	0.302
501	0.303
502	0.304
502	0.306
503	0.308
503	0.309
504	0.311
504	0.312
505	0.314
505	0.316
506	0.318
506	0.32
506	0.322
507	0.324
507	0.326
508	0.329
508	0.331
509	0.333
509	0.335
510	0.337
510	0.338
511	0.34
511	0.341
511	0.343
512	0.344
512	0.346
513	0.346
513	0.348
514	0.349
514	0.351
515	0.352
515	0.353
515	0.354
516	0.356
516	0.357
517	0.358
517	0.36
518	0.361
518	0.362
519	0.363
519	0.364
520	0.365
520	0.367
520	0.368
521	0.369
521	0.37
522	0.37
522	0.372
523	0.373
523	0.374
524	0.375
524	0.375
524	0.376
525	0.377
525	0.378
526	0.378
526	0.379
527	0.38
527	0.38
528	0.38
528	0.381
529	0.381
529	0.381
529	0.381
530	0.381
530	0.381
531	0.382
531	0.381
532	0.381
532	0.381
533	0.381
533	0.381
533	0.381
534	0.38
534	0.38
535	0.38
535	0.38
536	0.379
536	0.379
537	0.378
537	0.378
538	0.377
538	0.376
538	0.375
539	0.375
539	0.374
540	0.373
540	0.371
541	0.37
541	0.369
542	0.368
542	0.367
542	0.366
543	0.365
543	0.364
544	0.362
544	0.361
545	0.361
545	0.36
546	0.359
546	0.357
547	0.355
547	0.354
547	0.353
548	0.352
548	0.351
549	0.349
549	0.348
550	0.347
550	0.346
551	0.344
551	0.343
551	0.342
552	0.34
552	0.339
553	0.338
553	0.336
554	0.334
554	0.332
555	0.33
555	0.329
556	0.327
556	0.325
556	0.324
557	0.322
557	0.321
558	0.319
558	0.318
559	0.317
559	0.315
560	0.314
560	0.312
560	0.311
561	0.311
561	0.31
562	0.308
562	0.307
563	0.306
563	0.305
564	0.304
564	0.304
564	0.303
565	0.303
565	0.302
566	0.301
566	0.3
567	0.299
567	0.299
568	0.298
568	0.296
568	0.295
569	0.294
569	0.293
570	0.291
570	0.289
571	0.288
571	0.287
572	0.286
572	0.284
573	0.283
573	0.281
573	0.279
574	0.279
574	0.279
575	0.278
575	0.279
576	0.278
576	0.277
577	0.275
577	0.275
577	0.275
578	0.275
578	0.275
579	0.276
579	0.275
580	0.273
580	0.271
581	0.269
581	0.268
581	0.268
582	0.268
582	0.268
583	0.269
583	0.268
584	0.265
584	0.264
585	0.265
585	0.266
585	0.266
586	0.266
586	0.265
587	0.263
587	0.262
588	0.261
588	0.26
589	0.26
589	0.26
590	0.259
590	0.258
590	0.258
591	0.259
591	0.258
592	0.257
592	0.256
593	0.256
593	0.255
594	0.255
594	0.254
594	0.253
595	0.253
595	0.252
596	0.251
596	0.252
597	0.254
597	0.254
598	0.254
598	0.254
598	0.254
599	0.254
599	0.253
600	0.253
600	0.253
601	0.253
601	0.253
602	0.252
602	0.252
602	0.252
603	0.252
603	0.253
604	0.253
604	0.253
605	0.253
605	0.254
606	0.253
606	0.251
606	0.251
607	0.25
607	0.25
608	0.249
608	0.248
609	0.247
609	0.248
610	0.247
610	0.246
610	0.246
611	0.246
611	0.246
612	0.246
612	0.247
613	0.247
613	0.247
614	0.245
614	0.244
614	0.244
615	0.243
615	0.242
616	0.241
616	0.241
617	0.241
617	0.24
618	0.24
618	0.24
618	0.24
619	0.24
619	0.24
620	0.241
620	0.24
621	0.239
621	0.238
622	0.237
622	0.236
622	0.234
623	0.233
623	0.233
624	0.233
624	0.233
625	0.232
625	0.232
626	0.231
626	0.231
626	0.232
627	0.232
627	0.232
628	0.233
628	0.232
629	0.232
629	0.231
630	0.231
630	0.23
630	0.231
631	0.231
631	0.23
632	0.23
632	0.23
633	0.23
633	0.229
634	0.229
634	0.229
634	0.229
635	0.228
635	0.228
636	0.228
636	0.227
637	0.227
637	0.226
638	0.226
638	0.226
638	0.225
639	0.225
639	0.224
640	0.224
640	0.223
641	0.223
641	0.222
642	0.222
642	0.222
642	0.221
643	0.22
643	0.219
644	0.218
644	0.217
645	0.215
645	0.214
646	0.213
646	0.21
646	0.208
647	0.205
647	0.201
648	0.197
648	0.193
649	0.188
649	0.184
650	0.179
650	0.174
650	0.168
651	0.161
651	0.152
652	0.142
652	0.132
653	0.124
653	0.114
653	0.115
654	0.12
654	0.115
655	0.106
655	0.099
656	0.092
656	0.084
657	0.078
657	0.071
657	0.063
658	0.056
658	0.03
659	-0.035
659	-0.099
660	-0.132
660	-0.152
661	-0.175
661	-0.201
661	-0.226
662	-0.244
662	-0.264
663	-0.283
663	-0.304
664	-0.319
664	-0.338
665	-0.356
665	-0.373
665	-0.383
666	-0.396
666	-0.408
667	-0.417
667	-0.431
668	-0.438
668	-0.462
669	-0.477
669	-0.485
669	-0.498
670	-0.505
670	-0.517
671	-0.525
671	-0.539
672	-0.556
672	-0.571
672	-0.585
673	-0.587
673	-0.592
674	-0.608
674	-0.61
675	-0.624
675	-0.633
676	-0.641
676	-0.64
676	-0.652
677	-0.655
677	-0.675
678	-0.685
678	-0.69
679	-0.695
679	-0.702
680	-0.71
680	-0.717
680	-0.722
681	-0.735
681	-0.733
682	-0.737
682	-0.729
683	-0.716
683	-0.727
684	-0.729
684	-0.735
684	-0.736
685	-0.738
685	-0.748
686	-0.741
686	-0.742
687	-0.746
687	-0.751
687	-0.763
688	-0.757
688	-0.76
689	-0.773
689	-0.776
690	-0.769
690	-0.766
691	-0.769
691	-0.778
691	-0.783
692	-0.787
692	-0.79
693	-0.801
693	-0.818
694	-0.8
694	-0.802
695	-0.808
695	-0.804
695	-0.813
696	-0.823
696	-0.819
697	-0.816
697	-0.814
698	-0.81
698	-0.805
698	-0.823
699	-0.822
699	-0.824
700	-0.848
700	-0.846
701	-0.836
701	-0.833
702	-0.834
702	-0.832
702	-0.835
703	-0.825
703	-0.814
704	-0.824
704	-0.829
705	-0.818
705	-0.816
705	-0.809
706	-0.801
706	-0.798
707	-0.813
707	-0.818
708	-0.815
708	-0.812
709	-0.815
709	-0.811
709	-0.807
710	-0.817
710	-0.822
711	-0.822
711	-0.824
712	-0.814
712	-0.81
713	-0.818
713	-0.821
713	-0.799
714	-0.804
714	-0.81
715	-0.8
715	-0.809
716	-0.826
716	-0.835
716	-0.836
717	-0.845
717	-0.835
718	-0.828
718	-0.83
719	-0.825
719	-0.817
720	-0.812
720	-0.808
720	-0.801
721	-0.791
721	-0.796
722	-0.793
722	-0.79
723	-0.808
723	-0.821
723	-0.83
724	-0.829
724	-0.833
725	-0.827
725	-0.832
726	-0.837
726	-0.828
727	-0.83
727	-0.838
727	-0.829
728	-0.816
728	-0.813
729	-0.817
729	-0.82
730	-0.825
730	-0.815
730	-0.821
731	-0.824
731	-0.825
732	-0.828
732	-0.822
733	-0.838
733	-0.845
734	-0.852
734	-0.845
734	-0.828
735	-0.819
735	-0.817
736	-0.816
736	-0.809
737	-0.809
737	-0.801
737	-0.793
738	-0.78
738	-0.768
739	-0.771
739	-0.773
740	-0.787
740	-0.786
741	-0.797
741	-0.807
741	-0.816
742	-0.822
742	-0.838
743	-0.844
743	-0.848
744	-0.851
744	-0.858
744	-0.851
745	-0.858
745	-0.846
746	-0.843
746	-0.833
747	-0.834
747	-0.825
748	-0.826
748	-0.83
748	-0.832
749	-0.825
749	-0.834
750	-0.825
750	-0.828
751	-0.828
751	-0.825
751	-0.84
752	-0.843
752	-0.846
753	-0.848
753	-0.84
754	-0.86
754	-0.858
754	-0.865
755	-0.864
755	-0.855
756	-0.857
756	-0.841
757	-0.832
757	-0.82
758	-0.822
758	-0.821
758	-0.817
759	-0.823
759	-0.824
760	-0.823
760	-0.827
761	-0.821
761	-0.825
761	-0.827
762	-0.835
762	-0.835
763	-0.836
763	-0.839
764	-0.838
764	-0.834
764	-0.837
765	-0.836
765	-0.842
766	-0.845
766	-0.847
767	-0.862
767	-0.856
768	-0.854
768	-0.847
768	-0.842
769	-0.845
769	-0.855
770	-0.866
770	-0.871
771	-0.869
771	-0.868
771	-0.873
772	-0.877
772	-0.9
773	-0.901
773	-0.898
774	-0.897
774	-0.879
775	-0.866
775	-0.865
775	-0.869
776	-0.877
776	-0.873
777	-0.872
777	-0.854
778	-0.862
778	-0.871
778	-0.871
779	-0.88
779	-0.895
780	-0.891
780	-0.899
781	-0.889
781	-0.878
781	-0.893
782	-0.912
782	-0.912
783	-0.91
783	-0.918
784	-0.921
784	-0.914
784	-0.934
785	-0.927
785	-0.941
786	-0.948
786	-0.941
787	-0.93
787	-0.943
788	-0.937
788	-0.933
788	-0.935
789	-0.937
789	-0.926
790	-0.924
790	-0.909
791	-0.915
791	-0.911
791	-0.907
792	-0.9
792	-0.904
793	-0.905
793	-0.893
794	-0.886
794	-0.88
794	-0.888
795	-0.907
795	-0.894
796	-0.899
796	-0.895
797	-0.888
797	-0.878
797	-0.87
798	-0.89
798	-0.895
799	-0.894
799	-0.879
800	-0.873
800	-0.883
801	-0.881
801	-0.883
801	-0.88
802	-0.88
802	-0.881
803	-0.875
803	-0.866
804	-0.872
804	-0.881
804	-0.864
805	-0.843
805	-0.834
806	-0.836
806	-0.832
807	-0.833
807	-0.833
807	-0.817
808	-0.811
808	-0.804
809	-0.8
809	-0.8
810	-0.803
810	-0.8
810	-0.795
811	-0.797
811	-0.789
812	-0.782
812	-0.784
813	-0.789
813	-0.791
813	-0.784
814	-0.786
814	-0.792
815	-0.782
815	-0.779
816	-0.775
816	-0.792
817	-0.804
817	-0.809
817	-0.819
818	-0.812
818	-0.81
819	-0.821
819	-0.819
820	-0.831
820	-0.832
820	-0.831
821	-0.826
821	-0.822
822	-0.821
822	-0.81
823	-0.822
823	-0.82
823	-0.814
824	-0.812
824	-0.822
825	-0.821
825	-0.816
826	-0.811
826	-0.806
826	-0.805
827	-0.804
827	-0.793
828	-0.793
828	-0.786
829	-0.78
829	-0.763
829	-0.761
830	-0.761
830	-0.746
831	-0.74
831	-0.728
832	-0.719
832	-0.714
832	-0.707
833	-0.707
833	-0.713
834	-0.709
834	-0.704
835	-0.695
835	-0.697
835	-0.691
836	-0.688
836	-0.683
837	-0.673
837	-0.665
838	-0.651
838	-0.634
839	-0.627
839	-0.613
839	-0.604
840	-0.602
840	-0.592
841	-0.579
841	-0.572
842	-0.562
842	-0.548
842	-0.546
843	-0.541
843	-0.536
844	-0.533
844	-0.52
845	-0.506
845	-0.496
845	-0.485
846	-0.473
846	-0.463
847	-0.452
847	-0.438
848	-0.423
848	-0.407
848	-0.392
849	-0.379
849	-0.365
850	-0.354
850	-0.343
851	-0.328
851	-0.311
851	-0.3
852	-0.284
852	-0.269
853	-0.258
853	-0.247
854	-0.236
854	-0.224
854	-0.211
855	-0.198
855	-0.191
856	-0.181
856	-0.171
857	-0.163
857	-0.154
857	-0.14
858	-0.127
858	-0.119
859	-0.105
859	-0.092
860	-0.081
860	-0.064
860	-0.053
861	-0.042
861	-0.03
862	-0.021
862	-0.012
863	-0.003
863	0.007
863	0.014
864	0.021
864	0.028
865	0.036
865	0.043
866	0.05
866	0.057
866	0.064
867	0.071
867	0.078
868	0.082
868	0.088
869	0.093
869	0.098
869	0.1
870	0.103
870	0.105
871	0.107
871	0.108
872	0.109
872	0.11
872	0.111
873	0.111
873	0.111
874	0.11
874	0.109
875	0.109
875	0.109
875	0.108
876	0.108
876	0.107
877	0.107
877	0.106
878	0.105
878	0.105
878	0.105
879	0.104
879	0.104
880	0.104
880	0.103
881	0.102
881	0.101
881	0.1
882	0.099
882	0.097
883	0.096
883	0.094
884	0.093
884	0.093
884	0.092
885	0.091
885	0.091
886	0.091
886	0.09
887	0.09
887	0.089
887	0.089
888	0.088
888	0.087
889	0.086
889	0.085
890	0.084
890	0.083
890	0.082
891	0.082
891	0.082
892	0.082
892	0.082
893	0.082
893	0.082
893	0.082
894	0.082
894	0.082
895	0.081
895	0.081
895	0.081
896	0.08
896	0.08
897	0.08
897	0.08
898	0.08
898	0.08
898	0.081
899	0.081
899	0.081
900	0.081
900	0.081
901	0.08
901	0.08
901	0.08
902	0.079
902	0.079
903	0.079
903	0.078
904	0.078
904	0.078
904	0.078
905	0.078
905	0.079
906	0.079
906	0.08
907	0.08
907	0.081
907	0.081
908	0.081
908	0.082
909	0.083
909	0.083
910	0.084
910	0.084
910	0.084
911	0.085
911	0.085
912	0.086
912	0.086
913	0.087
913	0.087
913	0.087
914	0.087
914	0.087
915	0.087
915	0.087
916	0.087
916	0.087
916	0.087
917	0.087
917	0.087
918	0.087
918	0.087
918	0.086
919	0.086
919	0.086
920	0.087
920	0.087
921	0.088
921	0.088
921	0.089
922	0.089
922	0.089
923	0.09
923	0.09
924	0.089
924	0.089
924	0.088
925	0.087
925	0.085
926	0.084
926	0.083
927	0.082
927	0.081
927	0.081
928	0.08
928	0.08
929	0.081
929	0.081
930	0.082
930	0.083
930	0.084
931	0.084
931	0.085
932	0.087
932	0.088
933	0.088
933	0.089
933	0.088
934	0.088
934	0.087
935	0.087
935	0.085
935	0.084
936	0.082
936	0.081
937	0.079
937	0.078
938	0.078
938	0.077
938	0.076
939	0.076
939	0.075
940	0.074
940	0.073
941	0.072
941	0.071
941	0.071
942	0.07
942	0.069
943	0.069
943	0.068
944	0.066
944	0.065
944	0.065
945	0.064
945	0.064
946	0.063
946	0.062
946	0.061
947	0.061
947	0.061
948	0.062
948	0.062
949	0.063
949	0.064
949	0.065
950	0.067
950	0.068
951	0.07
951	0.071
952	0.072
952	0.073
952	0.073
953	0.074
953	0.075
954	0.075
954	0.074
955	0.074
955	0.074
955	0.073
956	0.072
956	0.072
957	0.07
957	0.069
957	0.068
958	0.067
958	0.067
959	0.066
959	0.065
960	0.064
960	0.064
960	0.064
961	0.064
961	0.064
962	0.064
962	0.064
963	0.064
963	0.064
963	0.064
964	0.065
964	0.065
965	0.065
965	0.065
966	0.065
966	0.065
966	0.066
967	0.066
967	0.066
968	0.066
968	0.066
968	0.066
969	0.066
969	0.065
970	0.065
970	0.065
971	0.065
971	0.065
971	0.065
972	0.065
972	0.065
973	0.065
973	0.065
974	0.065
974	0.065
974	0.066
975	0.066
975	0.066
976	0.066
976	0.066
976	0.066
977	0.066
977	0.066
978	0.065
978	0.065
979	0.064
979	0.064
979	0.064
980	0.064
980	0.064
981	0.064
981	0.064
982	0.064
982	0.064
982	0.064
983	0.064
983	0.064
984	0.064
984	0.063
984	0.063
985	0.063
985	0.062
986	0.061
986	0.061
987	0.06
987	0.059
987	0.059
988	0.058
988	0.057
989	0.056
989	0.055
990	0.054
990	0.053
990	0.053
991	0.052
991	0.051
992	0.051
992	0.05
992	0.049
993	0.048
993	0.047
994	0.046
994	0.045
995	0.044
995	0.043
995	0.041
996	0.04
996	0.038
997	0.037
997	0.036
997	0.036
998	0.035
998	0.035
999	0.035
999	0.035
1000	0.036
1000	0.037
1000	0.037
1001	0.038
1001	0.039
1002	0.04
1002	0.04
1003	0.04
1003	0.041
1003	0.041
1004	0.041
1004	0.041
1005	0.041
1005	0.04
1005	0.04
1006	0.039
1006	0.039
1007	0.038
1007	0.037
1008	0.037
1008	0.036
1008	0.036
1009	0.036
1009	0.036
1010	0.037
1010	0.037
1010	0.038
1011	0.038
1011	0.039
1012	0.04
1012	0.041
1013	0.042
1013	0.042
1013	0.043
1014	0.043
1014	0.043
1015	0.044
1015	0.044
1016	0.044
1016	0.044
1016	0.044
1017	0.043
1017	0.043
1018	0.043
1018	0.042
1018	0.042
1019	0.042
1019	0.042
1020	0.042
1020	0.041
1021	0.041
1021	0.041
1021	0.04
1022	0.04
1022	0.04
1023	0.041
1023	0.041
1023	0.041
1024	0.041
1024	0.041
1025	0.041
1025	0.042
1026	0.042
1026	0.043
1026	0.042
1027	0.042
1027	0.042
1028	0.043
1028	0.043
1028	0.044
1029	0.043
1029	0.044
1030	0.043
1030	0.043
1031	0.043
1031	0.043
1031	0.043
1032	0.043
1032	0.042
1033	0.042
1033	0.041
1033	0.041
1034	0.041
1034	0.04
1035	0.04
1035	0.04
1036	0.039
1036	0.038
1036	0.038
1037	0.038
1037	0.038
1038	0.038
1038	0.038
1039	0.038
1039	0.039
1039	0.039
1040	0.039
1040	0.04
1041	0.04
1041	0.039
1041	0.039
1042	0.038
1042	0.037
1043	0.037
1043	0.036
1044	0.035
1044	0.034
1044	0.033
1045	0.032
1045	0.031
1046	0.03
1046	0.03
1046	0.03
1047	0.03
1047	0.03
1048	0.03
1048	0.03
1049	0.03
1049	0.03
1049	0.03
1050	0.029
1050	0.029
1051	0.028
1051	0.027
1051	0.027
1052	0.027
1052	0.026
1053	0.025
1053	0.025
1053	0.025
1054	0.024
1054	0.024
1055	0.024
1055	0.024
1056	0.024
1056	0.024
1056	0.023
1057	0.023
1057	0.023
1058	0.023
1058	0.022
1058	0.022
1059	0.021
1059	0.02
1060	0.019
1060	0.019
1061	0.018
1061	0.018
1061	0.018
1062	0.017
1062	0.017
1063	0.017
1063	0.017
1063	0.017
1064	0.018
1064	0.018
1065	0.019
1065	0.018
1066	0.019
1066	0.018
1066	0.018
1067	0.017
1067	0.017
1068	0.016
1068	0.015
1068	0.014
1069	0.013
1069	0.012
1070	0.012
1070	0.011
1071	0.01
1071	0.01
1071	0.009
1072	0.008
1072	0.008
1073	0.008
1073	0.008
1073	0.007
1074	0.007
1074	0.007
1075	0.006
1075	0.006
1076	0.005
1076	0.005
1076	0.003
1077	0.003
1077	0.002
1078	0.001
1078	0
1078	0
1079	-0
1079	-0.001
1080	-0.002
1080	-0.002
1080	-0.004
1081	-0.005
1081	-0.005
1082	-0.006
1082	-0.007
1083	-0.008
1083	-0.01
1083	-0.011
1084	-0.013
1084	-0.014
1085	-0.015
1085	-0.015
1085	-0.016
1086	-0.018
1086	-0.019
1087	-0.02
1087	-0.021
1088	-0.023
1088	-0.024
1088	-0.024
1089	-0.026
1089	-0.027
1090	-0.029
1090	-0.03
1090	-0.031
1091	-0.033
1091	-0.034
1092	-0.034
1092	-0.034
1092	-0.036
1093	-0.036
1093	-0.036
1094	-0.037
1094	-0.038
1095	-0.039
1095	-0.039
1095	-0.039
1096	-0.04
1096	-0.042
1097	-0.043
1097	-0.045
1097	-0.047
1098	-0.05
1098	-0.052
1099	-0.054
1099	-0.056
1100	-0.059
1100	-0.061
1100	-0.065
1101	-0.068
1101	-0.071
1102	-0.073
1102	-0.076
1102	-0.078
1103	-0.081
1103	-0.084
1104	-0.087
1104	-0.091
1104	-0.093
1105	-0.095
1105	-0.098
1106	-0.104
1106	-0.106
1107	-0.112
1107	-0.116
1107	-0.121
1108	-0.123
1108	-0.125
1109	-0.128
1109	-0.133
1109	-0.139
1110	-0.14
1110	-0.142
1111	-0.154
1111	-0.15
