Data from 3.4A_17C_Absorbance__854__02766.txt Node

Date: Tue Jun 20 16:55:34 CEST 2023
User: Marek
Spectrometer: MAYP115816
Trigger mode: 0
Integration Time (sec): 2.200000E-1
Scans to average: 10
Electric dark correction enabled: true
Nonlinearity correction enabled: true
Boxcar width: 5
XAxis mode: Wavelengths
Number of Pixels in Spectrum: 2068
>>>>>Begin Spectral Data<<<<<
199	-0.796
199	-0.784
200	-0.745
200	-0.693
201	-0.667
201	-0.658
202	-0.643
202	-0.635
203	-0.636
203	-0.63
204	-0.611
204	-0.596
205	-0.573
205	-0.565
205	-0.573
206	-0.574
206	-0.57
207	-0.561
207	-0.568
208	-0.567
208	-0.571
209	-0.573
209	-0.579
210	-0.592
210	-0.599
211	-0.593
211	-0.598
212	-0.608
212	-0.617
213	-0.613
213	-0.61
213	-0.608
214	-0.615
214	-0.616
215	-0.613
215	-0.62
216	-0.629
216	-0.632
217	-0.63
217	-0.63
218	-0.637
218	-0.639
219	-0.644
219	-0.646
220	-0.65
220	-0.655
221	-0.654
221	-0.654
221	-0.647
222	-0.645
222	-0.644
223	-0.64
223	-0.644
224	-0.644
224	-0.641
225	-0.639
225	-0.64
226	-0.641
226	-0.641
227	-0.648
227	-0.659
228	-0.662
228	-0.67
229	-0.674
229	-0.673
229	-0.673
230	-0.668
230	-0.666
231	-0.662
231	-0.655
232	-0.659
232	-0.653
233	-0.654
233	-0.645
234	-0.644
234	-0.638
235	-0.642
235	-0.653
236	-0.66
236	-0.662
236	-0.664
237	-0.662
237	-0.662
238	-0.661
238	-0.661
239	-0.664
239	-0.675
240	-0.668
240	-0.665
241	-0.661
241	-0.664
242	-0.666
242	-0.674
243	-0.675
243	-0.678
243	-0.684
244	-0.682
244	-0.682
245	-0.685
245	-0.69
246	-0.7
246	-0.704
247	-0.711
247	-0.698
248	-0.697
248	-0.701
249	-0.706
249	-0.706
250	-0.705
250	-0.713
250	-0.709
251	-0.711
251	-0.707
252	-0.709
252	-0.72
253	-0.716
253	-0.725
254	-0.73
254	-0.731
255	-0.741
255	-0.741
256	-0.744
256	-0.756
257	-0.767
257	-0.763
258	-0.765
258	-0.773
258	-0.772
259	-0.764
259	-0.782
260	-0.781
260	-0.771
261	-0.781
261	-0.766
262	-0.773
262	-0.771
263	-0.761
263	-0.766
264	-0.775
264	-0.777
265	-0.769
265	-0.771
265	-0.779
266	-0.77
266	-0.772
267	-0.77
267	-0.787
268	-0.796
268	-0.791
269	-0.784
269	-0.799
270	-0.803
270	-0.803
271	-0.819
271	-0.83
272	-0.83
272	-0.834
272	-0.827
273	-0.835
273	-0.849
274	-0.841
274	-0.834
275	-0.831
275	-0.818
276	-0.82
276	-0.825
277	-0.827
277	-0.823
278	-0.828
278	-0.829
278	-0.816
279	-0.825
279	-0.84
280	-0.842
280	-0.853
281	-0.848
281	-0.839
282	-0.845
282	-0.841
283	-0.833
283	-0.847
284	-0.861
284	-0.87
285	-0.851
285	-0.857
285	-0.849
286	-0.854
286	-0.87
287	-0.867
287	-0.864
288	-0.864
288	-0.844
289	-0.843
289	-0.851
290	-0.859
290	-0.848
291	-0.851
291	-0.848
292	-0.829
292	-0.827
292	-0.832
293	-0.82
293	-0.816
294	-0.816
294	-0.803
295	-0.787
295	-0.799
296	-0.812
296	-0.807
297	-0.796
297	-0.799
298	-0.797
298	-0.817
298	-0.821
299	-0.802
299	-0.793
300	-0.788
300	-0.768
301	-0.75
301	-0.752
302	-0.762
302	-0.748
303	-0.74
303	-0.727
304	-0.71
304	-0.713
305	-0.706
305	-0.715
305	-0.732
306	-0.716
306	-0.714
307	-0.705
307	-0.716
308	-0.718
308	-0.713
309	-0.715
309	-0.712
310	-0.709
310	-0.704
311	-0.691
311	-0.71
311	-0.699
312	-0.698
312	-0.688
313	-0.68
313	-0.683
314	-0.689
314	-0.687
315	-0.685
315	-0.679
316	-0.673
316	-0.662
317	-0.655
317	-0.651
318	-0.641
318	-0.637
318	-0.625
319	-0.615
319	-0.607
320	-0.605
320	-0.6
321	-0.596
321	-0.595
322	-0.589
322	-0.583
323	-0.584
323	-0.576
324	-0.575
324	-0.563
324	-0.553
325	-0.538
325	-0.522
326	-0.511
326	-0.488
327	-0.474
327	-0.451
328	-0.421
328	-0.399
329	-0.371
329	-0.344
330	-0.318
330	-0.286
330	-0.253
331	-0.219
331	-0.187
332	-0.154
332	-0.122
333	-0.095
333	-0.064
334	-0.037
334	-0.013
335	0.013
335	0.033
336	0.054
336	0.073
336	0.089
337	0.105
337	0.12
338	0.132
338	0.142
339	0.154
339	0.163
340	0.17
340	0.178
341	0.184
341	0.189
342	0.195
342	0.2
342	0.204
343	0.208
343	0.212
344	0.215
344	0.218
345	0.22
345	0.222
346	0.224
346	0.226
347	0.227
347	0.229
348	0.23
348	0.231
348	0.232
349	0.233
349	0.233
350	0.234
350	0.235
351	0.235
351	0.235
352	0.235
352	0.236
353	0.236
353	0.236
354	0.236
354	0.236
354	0.236
355	0.236
355	0.236
356	0.237
356	0.237
357	0.238
357	0.238
358	0.238
358	0.238
359	0.238
359	0.238
360	0.238
360	0.239
360	0.238
361	0.238
361	0.238
362	0.238
362	0.238
363	0.238
363	0.238
364	0.238
364	0.238
365	0.238
365	0.237
366	0.238
366	0.238
366	0.238
367	0.238
367	0.238
368	0.238
368	0.238
369	0.238
369	0.238
370	0.237
370	0.237
371	0.237
371	0.237
372	0.237
372	0.237
372	0.237
373	0.237
373	0.237
374	0.237
374	0.237
375	0.237
375	0.237
376	0.237
376	0.237
377	0.236
377	0.236
378	0.236
378	0.236
378	0.236
379	0.236
379	0.236
380	0.236
380	0.236
381	0.236
381	0.236
382	0.235
382	0.235
383	0.236
383	0.236
383	0.235
384	0.235
384	0.235
385	0.235
385	0.235
386	0.235
386	0.235
387	0.235
387	0.234
388	0.234
388	0.234
389	0.234
389	0.234
389	0.234
390	0.234
390	0.234
391	0.234
391	0.234
392	0.234
392	0.234
393	0.234
393	0.234
394	0.233
394	0.233
394	0.233
395	0.233
395	0.232
396	0.232
396	0.232
397	0.232
397	0.232
398	0.231
398	0.231
399	0.231
399	0.231
400	0.231
400	0.231
400	0.231
401	0.23
401	0.23
402	0.23
402	0.23
403	0.23
403	0.23
404	0.23
404	0.23
405	0.229
405	0.229
405	0.229
406	0.229
406	0.229
407	0.229
407	0.229
408	0.229
408	0.228
409	0.229
409	0.228
410	0.228
410	0.228
411	0.229
411	0.228
411	0.228
412	0.228
412	0.228
413	0.227
413	0.227
414	0.227
414	0.227
415	0.227
415	0.226
416	0.226
416	0.226
416	0.226
417	0.225
417	0.225
418	0.226
418	0.225
419	0.225
419	0.226
420	0.225
420	0.225
421	0.225
421	0.226
421	0.226
422	0.226
422	0.226
423	0.225
423	0.225
424	0.225
424	0.225
425	0.225
425	0.225
426	0.225
426	0.225
427	0.225
427	0.225
427	0.225
428	0.225
428	0.225
429	0.225
429	0.224
430	0.224
430	0.224
431	0.223
431	0.223
432	0.223
432	0.222
432	0.222
433	0.222
433	0.221
434	0.222
434	0.222
435	0.222
435	0.222
436	0.223
436	0.223
437	0.222
437	0.222
437	0.223
438	0.223
438	0.223
439	0.222
439	0.222
440	0.222
440	0.222
441	0.222
441	0.222
442	0.222
442	0.221
442	0.221
443	0.221
443	0.221
444	0.221
444	0.221
445	0.221
445	0.221
446	0.221
446	0.221
447	0.221
447	0.221
447	0.221
448	0.221
448	0.221
449	0.221
449	0.221
450	0.221
450	0.221
451	0.221
451	0.221
452	0.221
452	0.221
452	0.221
453	0.221
453	0.221
454	0.22
454	0.22
455	0.22
455	0.22
456	0.22
456	0.22
457	0.22
457	0.219
458	0.219
458	0.219
458	0.219
459	0.219
459	0.219
460	0.218
460	0.218
461	0.218
461	0.219
462	0.219
462	0.22
463	0.22
463	0.221
463	0.221
464	0.221
464	0.221
465	0.222
465	0.222
466	0.222
466	0.222
467	0.222
467	0.222
467	0.221
468	0.221
468	0.221
469	0.221
469	0.221
470	0.222
470	0.222
471	0.222
471	0.222
472	0.221
472	0.222
472	0.222
473	0.223
473	0.223
474	0.223
474	0.223
475	0.223
475	0.224
476	0.224
476	0.224
477	0.225
477	0.225
477	0.225
478	0.225
478	0.225
479	0.226
479	0.226
480	0.226
480	0.226
481	0.227
481	0.227
482	0.227
482	0.228
482	0.229
483	0.23
483	0.231
484	0.232
484	0.232
485	0.232
485	0.233
486	0.233
486	0.234
487	0.234
487	0.235
487	0.235
488	0.235
488	0.235
489	0.235
489	0.237
490	0.237
490	0.238
491	0.239
491	0.24
492	0.24
492	0.241
492	0.241
493	0.242
493	0.243
494	0.244
494	0.245
495	0.245
495	0.246
496	0.247
496	0.248
496	0.249
497	0.251
497	0.252
498	0.253
498	0.254
499	0.255
499	0.256
500	0.257
500	0.258
501	0.259
501	0.26
501	0.261
502	0.261
502	0.263
503	0.264
503	0.265
504	0.266
504	0.267
505	0.269
505	0.271
506	0.272
506	0.274
506	0.275
507	0.277
507	0.279
508	0.281
508	0.282
509	0.284
509	0.285
510	0.287
510	0.288
511	0.289
511	0.29
511	0.292
512	0.293
512	0.294
513	0.294
513	0.296
514	0.297
514	0.298
515	0.299
515	0.3
515	0.301
516	0.302
516	0.303
517	0.304
517	0.305
518	0.306
518	0.307
519	0.308
519	0.308
520	0.309
520	0.311
520	0.312
521	0.313
521	0.314
522	0.315
522	0.316
523	0.317
523	0.318
524	0.319
524	0.32
524	0.321
525	0.322
525	0.322
526	0.323
526	0.324
527	0.325
527	0.325
528	0.326
528	0.326
529	0.327
529	0.327
529	0.327
530	0.328
530	0.328
531	0.329
531	0.329
532	0.329
532	0.329
533	0.33
533	0.33
533	0.33
534	0.33
534	0.33
535	0.33
535	0.33
536	0.33
536	0.331
537	0.331
537	0.331
538	0.331
538	0.331
538	0.331
539	0.331
539	0.331
540	0.331
540	0.33
541	0.329
541	0.329
542	0.329
542	0.328
542	0.328
543	0.328
543	0.327
544	0.326
544	0.326
545	0.326
545	0.326
546	0.326
546	0.325
547	0.324
547	0.323
547	0.322
548	0.322
548	0.321
549	0.321
549	0.32
550	0.32
550	0.318
551	0.317
551	0.317
551	0.316
552	0.316
552	0.315
553	0.314
553	0.314
554	0.313
554	0.311
555	0.31
555	0.309
556	0.308
556	0.307
556	0.306
557	0.306
557	0.305
558	0.304
558	0.303
559	0.303
559	0.302
560	0.301
560	0.3
560	0.3
561	0.3
561	0.3
562	0.299
562	0.298
563	0.298
563	0.297
564	0.297
564	0.297
564	0.297
565	0.297
565	0.297
566	0.296
566	0.296
567	0.296
567	0.295
568	0.295
568	0.294
568	0.293
569	0.292
569	0.291
570	0.29
570	0.288
571	0.288
571	0.287
572	0.285
572	0.284
573	0.283
573	0.282
573	0.281
574	0.28
574	0.28
575	0.28
575	0.281
576	0.281
576	0.28
577	0.279
577	0.278
577	0.279
578	0.279
578	0.28
579	0.28
579	0.28
580	0.278
580	0.276
581	0.274
581	0.273
581	0.274
582	0.274
582	0.274
583	0.274
583	0.273
584	0.271
584	0.27
585	0.271
585	0.272
585	0.272
586	0.272
586	0.272
587	0.27
587	0.269
588	0.267
588	0.267
589	0.267
589	0.267
590	0.266
590	0.265
590	0.266
591	0.267
591	0.266
592	0.265
592	0.264
593	0.265
593	0.264
594	0.264
594	0.263
594	0.263
595	0.263
595	0.262
596	0.261
596	0.262
597	0.264
597	0.264
598	0.264
598	0.264
598	0.264
599	0.264
599	0.263
600	0.263
600	0.263
601	0.263
601	0.263
602	0.263
602	0.263
602	0.262
603	0.263
603	0.263
604	0.263
604	0.263
605	0.264
605	0.264
606	0.263
606	0.262
606	0.261
607	0.261
607	0.261
608	0.26
608	0.259
609	0.258
609	0.258
610	0.257
610	0.256
610	0.256
611	0.257
611	0.257
612	0.257
612	0.257
613	0.257
613	0.257
614	0.256
614	0.255
614	0.254
615	0.253
615	0.253
616	0.253
616	0.252
617	0.252
617	0.251
618	0.251
618	0.25
618	0.25
619	0.25
619	0.25
620	0.251
620	0.25
621	0.248
621	0.247
622	0.246
622	0.245
622	0.243
623	0.242
623	0.242
624	0.241
624	0.24
625	0.239
625	0.239
626	0.238
626	0.237
626	0.237
627	0.237
627	0.237
628	0.236
628	0.236
629	0.234
629	0.233
630	0.231
630	0.23
630	0.229
631	0.228
631	0.226
632	0.224
632	0.223
633	0.221
633	0.219
634	0.217
634	0.215
634	0.213
635	0.211
635	0.209
636	0.206
636	0.204
637	0.2
637	0.197
638	0.194
638	0.191
638	0.188
639	0.184
639	0.18
640	0.176
640	0.172
641	0.168
641	0.163
642	0.159
642	0.155
642	0.151
643	0.146
643	0.141
644	0.135
644	0.129
645	0.124
645	0.118
646	0.112
646	0.105
646	0.098
647	0.091
647	0.083
648	0.076
648	0.067
649	0.059
649	0.052
650	0.044
650	0.036
650	0.027
651	0.016
651	0.003
652	-0.012
652	-0.028
653	-0.042
653	-0.055
653	-0.051
654	-0.029
654	-0.023
655	-0.028
655	-0.035
656	-0.041
656	-0.049
657	-0.055
657	-0.061
657	-0.069
658	-0.077
658	-0.111
659	-0.206
659	-0.305
660	-0.35
660	-0.378
661	-0.408
661	-0.44
661	-0.472
662	-0.502
662	-0.535
663	-0.572
663	-0.613
664	-0.652
664	-0.694
665	-0.743
665	-0.792
665	-0.841
666	-0.894
666	-0.951
667	-1.008
667	-1.073
668	-1.133
668	-1.204
669	-1.273
669	-1.346
669	-1.424
670	-1.505
670	-1.608
671	-1.742
671	-2.015
672	-2.281
672	-2.452
672	-2.577
673	-2.676
673	-2.758
674	-2.836
674	-2.862
675	-2.88
675	-2.885
676	-2.885
676	-2.852
676	-2.79
677	-2.715
677	-2.629
678	-2.506
678	-2.321
679	-1.981
679	-1.747
680	-1.625
680	-1.54
680	-1.465
681	-1.409
681	-1.35
682	-1.303
682	-1.257
683	-1.21
683	-1.181
684	-1.148
684	-1.126
684	-1.1
685	-1.077
685	-1.064
686	-1.039
686	-1.023
687	-1.01
687	-0.996
687	-0.994
688	-0.975
688	-0.966
689	-0.967
689	-0.962
690	-0.946
690	-0.934
691	-0.93
691	-0.934
691	-0.933
692	-0.932
692	-0.928
693	-0.934
693	-0.945
694	-0.925
694	-0.923
695	-0.926
695	-0.92
695	-0.926
696	-0.932
696	-0.923
697	-0.915
697	-0.91
698	-0.903
698	-0.895
698	-0.907
699	-0.905
699	-0.905
700	-0.924
700	-0.918
701	-0.903
701	-0.897
702	-0.898
702	-0.896
702	-0.897
703	-0.887
703	-0.876
704	-0.882
704	-0.885
705	-0.873
705	-0.869
705	-0.864
706	-0.858
706	-0.853
707	-0.863
707	-0.868
708	-0.867
708	-0.864
709	-0.867
709	-0.864
709	-0.861
710	-0.87
710	-0.873
711	-0.873
711	-0.875
712	-0.867
712	-0.862
713	-0.865
713	-0.865
713	-0.845
714	-0.844
714	-0.847
715	-0.838
715	-0.846
716	-0.861
716	-0.87
716	-0.871
717	-0.878
717	-0.869
718	-0.863
718	-0.863
719	-0.86
719	-0.853
720	-0.846
720	-0.842
720	-0.836
721	-0.827
721	-0.832
722	-0.828
722	-0.825
723	-0.842
723	-0.856
723	-0.865
724	-0.863
724	-0.87
725	-0.863
725	-0.866
726	-0.868
726	-0.859
727	-0.86
727	-0.868
727	-0.858
728	-0.844
728	-0.84
729	-0.843
729	-0.845
730	-0.85
730	-0.84
730	-0.847
731	-0.85
731	-0.85
732	-0.851
732	-0.847
733	-0.86
733	-0.867
734	-0.875
734	-0.867
734	-0.85
735	-0.841
735	-0.835
736	-0.834
736	-0.827
737	-0.827
737	-0.817
737	-0.811
738	-0.797
738	-0.783
739	-0.785
739	-0.787
740	-0.801
740	-0.802
741	-0.812
741	-0.824
741	-0.834
742	-0.841
742	-0.856
743	-0.863
743	-0.867
744	-0.871
744	-0.877
744	-0.87
745	-0.877
745	-0.868
746	-0.864
746	-0.854
747	-0.857
747	-0.849
748	-0.85
748	-0.855
748	-0.856
749	-0.849
749	-0.856
750	-0.847
750	-0.846
751	-0.845
751	-0.843
751	-0.853
752	-0.856
752	-0.861
753	-0.864
753	-0.855
754	-0.876
754	-0.875
754	-0.884
755	-0.884
755	-0.876
756	-0.88
756	-0.866
757	-0.858
757	-0.845
758	-0.845
758	-0.846
758	-0.841
759	-0.847
759	-0.845
760	-0.842
760	-0.844
761	-0.836
761	-0.841
761	-0.841
762	-0.848
762	-0.85
763	-0.85
763	-0.854
764	-0.853
764	-0.848
764	-0.855
765	-0.855
765	-0.862
766	-0.864
766	-0.866
767	-0.879
767	-0.874
768	-0.873
768	-0.865
768	-0.86
769	-0.865
769	-0.873
770	-0.881
770	-0.884
771	-0.88
771	-0.878
771	-0.883
772	-0.888
772	-0.907
773	-0.908
773	-0.907
774	-0.906
774	-0.888
775	-0.876
775	-0.876
775	-0.881
776	-0.892
776	-0.889
777	-0.889
777	-0.872
778	-0.881
778	-0.889
778	-0.888
779	-0.898
779	-0.914
780	-0.91
780	-0.919
781	-0.91
781	-0.899
781	-0.91
782	-0.931
782	-0.933
783	-0.934
783	-0.94
784	-0.943
784	-0.936
784	-0.956
785	-0.948
785	-0.96
786	-0.964
786	-0.959
787	-0.947
787	-0.956
788	-0.947
788	-0.94
788	-0.941
789	-0.939
789	-0.927
790	-0.926
790	-0.911
791	-0.916
791	-0.913
791	-0.909
792	-0.902
792	-0.906
793	-0.911
793	-0.898
794	-0.891
794	-0.884
794	-0.894
795	-0.913
795	-0.9
796	-0.905
796	-0.901
797	-0.893
797	-0.884
797	-0.878
798	-0.899
798	-0.905
799	-0.905
799	-0.888
800	-0.883
800	-0.89
801	-0.888
801	-0.891
801	-0.888
802	-0.887
802	-0.885
803	-0.879
803	-0.871
804	-0.878
804	-0.886
804	-0.869
805	-0.852
805	-0.842
806	-0.843
806	-0.84
807	-0.842
807	-0.842
807	-0.825
808	-0.821
808	-0.812
809	-0.806
809	-0.808
810	-0.811
810	-0.809
810	-0.806
811	-0.809
811	-0.798
812	-0.791
812	-0.791
813	-0.796
813	-0.798
813	-0.795
814	-0.796
814	-0.801
815	-0.79
815	-0.786
816	-0.781
816	-0.801
817	-0.813
817	-0.817
817	-0.825
818	-0.818
818	-0.814
819	-0.824
819	-0.821
820	-0.833
820	-0.834
820	-0.833
821	-0.826
821	-0.822
822	-0.821
822	-0.809
823	-0.821
823	-0.821
823	-0.816
824	-0.813
824	-0.825
825	-0.822
825	-0.82
826	-0.817
826	-0.813
826	-0.812
827	-0.811
827	-0.799
828	-0.797
828	-0.79
829	-0.785
829	-0.768
829	-0.763
830	-0.761
830	-0.745
831	-0.739
831	-0.729
832	-0.721
832	-0.716
832	-0.71
833	-0.708
833	-0.713
834	-0.709
834	-0.704
835	-0.697
835	-0.696
835	-0.69
836	-0.685
836	-0.68
837	-0.67
837	-0.662
838	-0.65
838	-0.633
839	-0.625
839	-0.613
839	-0.602
840	-0.6
840	-0.591
841	-0.58
841	-0.574
842	-0.565
842	-0.552
842	-0.549
843	-0.545
843	-0.54
844	-0.536
844	-0.524
845	-0.509
845	-0.497
845	-0.486
846	-0.473
846	-0.462
847	-0.45
847	-0.437
848	-0.422
848	-0.403
848	-0.388
849	-0.374
849	-0.362
850	-0.352
850	-0.34
851	-0.326
851	-0.309
851	-0.298
852	-0.28
852	-0.266
853	-0.257
853	-0.245
854	-0.233
854	-0.219
854	-0.205
855	-0.193
855	-0.184
856	-0.175
856	-0.167
857	-0.157
857	-0.148
857	-0.132
858	-0.12
858	-0.112
859	-0.1
859	-0.088
860	-0.075
860	-0.057
860	-0.045
861	-0.032
861	-0.021
862	-0.011
862	-0.002
863	0.008
863	0.018
863	0.025
864	0.033
864	0.041
865	0.049
865	0.055
866	0.062
866	0.069
866	0.076
867	0.083
867	0.09
868	0.095
868	0.102
869	0.108
869	0.112
869	0.115
870	0.118
870	0.12
871	0.122
871	0.124
872	0.125
872	0.126
872	0.126
873	0.126
873	0.125
874	0.124
874	0.123
875	0.122
875	0.122
875	0.121
876	0.12
876	0.119
877	0.118
877	0.117
878	0.116
878	0.115
878	0.115
879	0.114
879	0.114
880	0.114
880	0.113
881	0.113
881	0.112
881	0.112
882	0.111
882	0.109
883	0.108
883	0.107
884	0.106
884	0.106
884	0.105
885	0.105
885	0.105
886	0.105
886	0.104
887	0.104
887	0.103
887	0.103
888	0.102
888	0.101
889	0.1
889	0.099
890	0.098
890	0.097
890	0.097
891	0.097
891	0.096
892	0.097
892	0.097
893	0.097
893	0.097
893	0.096
894	0.096
894	0.096
895	0.096
895	0.095
895	0.095
896	0.095
896	0.094
897	0.094
897	0.093
898	0.093
898	0.093
898	0.093
899	0.094
899	0.094
900	0.094
900	0.094
901	0.094
901	0.093
901	0.093
902	0.093
902	0.094
903	0.093
903	0.093
904	0.093
904	0.093
904	0.093
905	0.093
905	0.093
906	0.094
906	0.094
907	0.095
907	0.095
907	0.095
908	0.095
908	0.096
909	0.096
909	0.096
910	0.097
910	0.098
910	0.098
911	0.099
911	0.099
912	0.1
912	0.101
913	0.101
913	0.102
913	0.102
914	0.102
914	0.102
915	0.102
915	0.102
916	0.101
916	0.101
916	0.101
917	0.101
917	0.101
918	0.101
918	0.101
918	0.101
919	0.101
919	0.101
920	0.101
920	0.101
921	0.102
921	0.102
921	0.103
922	0.103
922	0.103
923	0.104
923	0.104
924	0.104
924	0.103
924	0.103
925	0.102
925	0.101
926	0.1
926	0.099
927	0.098
927	0.098
927	0.097
928	0.097
928	0.098
929	0.098
929	0.099
930	0.1
930	0.101
930	0.102
931	0.103
931	0.104
932	0.105
932	0.106
933	0.106
933	0.106
933	0.106
934	0.105
934	0.104
935	0.103
935	0.102
935	0.101
936	0.099
936	0.098
937	0.096
937	0.095
938	0.094
938	0.093
938	0.092
939	0.091
939	0.09
940	0.09
940	0.088
941	0.087
941	0.087
941	0.086
942	0.086
942	0.085
943	0.085
943	0.084
944	0.083
944	0.082
944	0.081
945	0.08
945	0.08
946	0.079
946	0.077
946	0.077
947	0.076
947	0.076
948	0.076
948	0.077
949	0.077
949	0.078
949	0.079
950	0.081
950	0.082
951	0.083
951	0.084
952	0.085
952	0.087
952	0.087
953	0.088
953	0.089
954	0.089
954	0.089
955	0.089
955	0.089
955	0.089
956	0.088
956	0.088
957	0.087
957	0.086
957	0.085
958	0.084
958	0.083
959	0.083
959	0.082
960	0.081
960	0.081
960	0.081
961	0.081
961	0.081
962	0.081
962	0.081
963	0.082
963	0.081
963	0.082
964	0.082
964	0.082
965	0.082
965	0.082
966	0.083
966	0.083
966	0.083
967	0.084
967	0.084
968	0.083
968	0.083
968	0.083
969	0.083
969	0.083
970	0.083
970	0.082
971	0.082
971	0.081
971	0.081
972	0.081
972	0.081
973	0.081
973	0.081
974	0.081
974	0.081
974	0.081
975	0.081
975	0.081
976	0.081
976	0.082
976	0.082
977	0.082
977	0.081
978	0.081
978	0.081
979	0.08
979	0.08
979	0.08
980	0.08
980	0.079
981	0.079
981	0.079
982	0.079
982	0.079
982	0.079
983	0.079
983	0.079
984	0.079
984	0.078
984	0.078
985	0.078
985	0.077
986	0.076
986	0.075
987	0.074
987	0.073
987	0.073
988	0.072
988	0.071
989	0.071
989	0.07
990	0.069
990	0.068
990	0.067
991	0.067
991	0.066
992	0.065
992	0.065
992	0.064
993	0.063
993	0.062
994	0.061
994	0.059
995	0.058
995	0.057
995	0.056
996	0.054
996	0.053
997	0.052
997	0.051
997	0.05
998	0.049
998	0.049
999	0.049
999	0.049
1000	0.05
1000	0.05
1000	0.051
1001	0.051
1001	0.052
1002	0.053
1002	0.053
1003	0.054
1003	0.054
1003	0.054
1004	0.055
1004	0.055
1005	0.055
1005	0.054
1005	0.054
1006	0.053
1006	0.053
1007	0.052
1007	0.051
1008	0.051
1008	0.05
1008	0.05
1009	0.05
1009	0.05
1010	0.05
1010	0.051
1010	0.051
1011	0.051
1011	0.052
1012	0.053
1012	0.054
1013	0.055
1013	0.055
1013	0.055
1014	0.056
1014	0.056
1015	0.056
1015	0.056
1016	0.056
1016	0.056
1016	0.055
1017	0.054
1017	0.054
1018	0.054
1018	0.053
1018	0.053
1019	0.053
1019	0.052
1020	0.052
1020	0.051
1021	0.051
1021	0.051
1021	0.051
1022	0.05
1022	0.05
1023	0.051
1023	0.05
1023	0.05
1024	0.05
1024	0.05
1025	0.05
1025	0.05
1026	0.05
1026	0.051
1026	0.051
1027	0.051
1027	0.051
1028	0.051
1028	0.052
1028	0.052
1029	0.052
1029	0.053
1030	0.052
1030	0.052
1031	0.052
1031	0.053
1031	0.053
1032	0.052
1032	0.052
1033	0.051
1033	0.051
1033	0.051
1034	0.051
1034	0.05
1035	0.05
1035	0.049
1036	0.049
1036	0.048
1036	0.048
1037	0.048
1037	0.048
1038	0.047
1038	0.048
1039	0.048
1039	0.048
1039	0.049
1040	0.049
1040	0.049
1041	0.049
1041	0.049
1041	0.049
1042	0.048
1042	0.047
1043	0.046
1043	0.045
1044	0.045
1044	0.044
1044	0.043
1045	0.042
1045	0.041
1046	0.04
1046	0.04
1046	0.039
1047	0.039
1047	0.04
1048	0.04
1048	0.04
1049	0.04
1049	0.04
1049	0.041
1050	0.04
1050	0.04
1051	0.04
1051	0.039
1051	0.039
1052	0.038
1052	0.038
1053	0.037
1053	0.037
1053	0.037
1054	0.036
1054	0.036
1055	0.036
1055	0.036
1056	0.036
1056	0.035
1056	0.035
1057	0.034
1057	0.034
1058	0.034
1058	0.033
1058	0.033
1059	0.032
1059	0.031
1060	0.03
1060	0.03
1061	0.029
1061	0.029
1061	0.029
1062	0.029
1062	0.028
1063	0.028
1063	0.028
1063	0.028
1064	0.028
1064	0.029
1065	0.029
1065	0.029
1066	0.029
1066	0.029
1066	0.029
1067	0.028
1067	0.027
1068	0.026
1068	0.025
1068	0.024
1069	0.023
1069	0.021
1070	0.021
1070	0.02
1071	0.019
1071	0.019
1071	0.018
1072	0.018
1072	0.018
1073	0.017
1073	0.017
1073	0.017
1074	0.017
1074	0.016
1075	0.015
1075	0.015
1076	0.014
1076	0.013
1076	0.012
1077	0.011
1077	0.01
1078	0.009
1078	0.009
1078	0.008
1079	0.007
1079	0.007
1080	0.006
1080	0.006
1080	0.005
1081	0.004
1081	0.004
1082	0.004
1082	0.003
1083	0.002
1083	0.001
1083	-0
1084	-0.001
1084	-0.002
1085	-0.003
1085	-0.003
1085	-0.004
1086	-0.005
1086	-0.007
1087	-0.008
1087	-0.008
1088	-0.01
1088	-0.011
1088	-0.012
1089	-0.014
1089	-0.015
1090	-0.017
1090	-0.018
1090	-0.02
1091	-0.022
1091	-0.022
1092	-0.023
1092	-0.024
1092	-0.025
1093	-0.026
1093	-0.026
1094	-0.027
1094	-0.028
1095	-0.03
1095	-0.03
1095	-0.03
1096	-0.031
1096	-0.034
1097	-0.034
1097	-0.037
1097	-0.039
1098	-0.041
1098	-0.044
1099	-0.045
1099	-0.047
1100	-0.05
1100	-0.052
1100	-0.057
1101	-0.06
1101	-0.063
1102	-0.066
1102	-0.068
1102	-0.07
1103	-0.073
1103	-0.077
1104	-0.08
1104	-0.083
1104	-0.086
1105	-0.088
1105	-0.09
1106	-0.096
1106	-0.099
1107	-0.105
1107	-0.11
1107	-0.115
1108	-0.118
1108	-0.119
1109	-0.123
1109	-0.128
1109	-0.133
1110	-0.135
1110	-0.139
1111	-0.15
1111	-0.143
