Data from 3.4A_17C_Absorbance__156__02068.txt Node

Date: Tue Jun 20 16:29:59 CEST 2023
User: Marek
Spectrometer: MAYP115816
Trigger mode: 0
Integration Time (sec): 2.200000E-1
Scans to average: 10
Electric dark correction enabled: true
Nonlinearity correction enabled: true
Boxcar width: 5
XAxis mode: Wavelengths
Number of Pixels in Spectrum: 2068
>>>>>Begin Spectral Data<<<<<
199	-0.795
199	-0.778
200	-0.744
200	-0.69
201	-0.662
201	-0.651
202	-0.634
202	-0.628
203	-0.626
203	-0.619
204	-0.599
204	-0.583
205	-0.561
205	-0.55
205	-0.559
206	-0.561
206	-0.557
207	-0.549
207	-0.556
208	-0.558
208	-0.564
209	-0.565
209	-0.573
210	-0.585
210	-0.592
211	-0.585
211	-0.589
212	-0.599
212	-0.607
213	-0.603
213	-0.598
213	-0.597
214	-0.603
214	-0.603
215	-0.601
215	-0.605
216	-0.614
216	-0.619
217	-0.616
217	-0.617
218	-0.625
218	-0.626
219	-0.632
219	-0.632
220	-0.636
220	-0.643
221	-0.644
221	-0.646
221	-0.639
222	-0.638
222	-0.636
223	-0.63
223	-0.633
224	-0.634
224	-0.633
225	-0.63
225	-0.631
226	-0.632
226	-0.631
227	-0.639
227	-0.649
228	-0.655
228	-0.663
229	-0.669
229	-0.666
229	-0.667
230	-0.663
230	-0.661
231	-0.656
231	-0.651
232	-0.654
232	-0.647
233	-0.647
233	-0.635
234	-0.636
234	-0.632
235	-0.636
235	-0.647
236	-0.654
236	-0.655
236	-0.656
237	-0.653
237	-0.653
238	-0.653
238	-0.656
239	-0.658
239	-0.667
240	-0.658
240	-0.654
241	-0.65
241	-0.652
242	-0.654
242	-0.662
243	-0.664
243	-0.666
243	-0.671
244	-0.667
244	-0.67
245	-0.673
245	-0.678
246	-0.688
246	-0.691
247	-0.7
247	-0.686
248	-0.685
248	-0.687
249	-0.691
249	-0.694
250	-0.692
250	-0.699
250	-0.698
251	-0.699
251	-0.697
252	-0.697
252	-0.711
253	-0.706
253	-0.718
254	-0.723
254	-0.723
255	-0.733
255	-0.733
256	-0.734
256	-0.745
257	-0.753
257	-0.75
258	-0.751
258	-0.761
258	-0.757
259	-0.75
259	-0.767
260	-0.768
260	-0.756
261	-0.767
261	-0.754
262	-0.76
262	-0.759
263	-0.749
263	-0.754
264	-0.763
264	-0.765
265	-0.756
265	-0.758
265	-0.768
266	-0.758
266	-0.759
267	-0.758
267	-0.774
268	-0.781
268	-0.776
269	-0.768
269	-0.782
270	-0.788
270	-0.786
271	-0.799
271	-0.81
272	-0.812
272	-0.814
272	-0.807
273	-0.817
273	-0.831
274	-0.822
274	-0.818
275	-0.813
275	-0.802
276	-0.804
276	-0.808
277	-0.809
277	-0.808
278	-0.813
278	-0.812
278	-0.801
279	-0.81
279	-0.822
280	-0.825
280	-0.836
281	-0.831
281	-0.824
282	-0.83
282	-0.823
283	-0.816
283	-0.832
284	-0.844
284	-0.854
285	-0.834
285	-0.841
285	-0.832
286	-0.837
286	-0.853
287	-0.85
287	-0.849
288	-0.848
288	-0.829
289	-0.829
289	-0.836
290	-0.845
290	-0.834
291	-0.839
291	-0.835
292	-0.816
292	-0.813
292	-0.817
293	-0.805
293	-0.801
294	-0.801
294	-0.787
295	-0.771
295	-0.782
296	-0.793
296	-0.787
297	-0.776
297	-0.781
298	-0.777
298	-0.795
298	-0.799
299	-0.78
299	-0.773
300	-0.768
300	-0.75
301	-0.732
301	-0.735
302	-0.746
302	-0.731
303	-0.724
303	-0.712
304	-0.696
304	-0.698
305	-0.689
305	-0.698
305	-0.712
306	-0.696
306	-0.693
307	-0.683
307	-0.693
308	-0.695
308	-0.69
309	-0.692
309	-0.688
310	-0.688
310	-0.683
311	-0.668
311	-0.688
311	-0.676
312	-0.676
312	-0.665
313	-0.658
313	-0.66
314	-0.664
314	-0.661
315	-0.657
315	-0.651
316	-0.646
316	-0.636
317	-0.627
317	-0.624
318	-0.615
318	-0.612
318	-0.601
319	-0.59
319	-0.583
320	-0.581
320	-0.579
321	-0.574
321	-0.573
322	-0.568
322	-0.56
323	-0.561
323	-0.552
324	-0.551
324	-0.54
324	-0.529
325	-0.514
325	-0.498
326	-0.49
326	-0.463
327	-0.446
327	-0.424
328	-0.392
328	-0.368
329	-0.339
329	-0.308
330	-0.278
330	-0.24
330	-0.202
331	-0.163
331	-0.127
332	-0.091
332	-0.054
333	-0.022
333	0.016
334	0.048
334	0.075
335	0.105
335	0.13
336	0.156
336	0.181
336	0.2
337	0.221
337	0.239
338	0.255
338	0.267
339	0.284
339	0.297
340	0.307
340	0.317
341	0.325
341	0.331
342	0.34
342	0.347
342	0.353
343	0.358
343	0.364
344	0.367
344	0.37
345	0.374
345	0.377
346	0.38
346	0.382
347	0.384
347	0.386
348	0.387
348	0.389
348	0.39
349	0.391
349	0.393
350	0.394
350	0.395
351	0.395
351	0.396
352	0.396
352	0.396
353	0.396
353	0.397
354	0.397
354	0.397
354	0.397
355	0.397
355	0.396
356	0.397
356	0.397
357	0.397
357	0.397
358	0.397
358	0.397
359	0.397
359	0.397
360	0.397
360	0.397
360	0.397
361	0.398
361	0.397
362	0.397
362	0.397
363	0.397
363	0.397
364	0.396
364	0.396
365	0.396
365	0.396
366	0.395
366	0.395
366	0.395
367	0.395
367	0.395
368	0.394
368	0.394
369	0.394
369	0.393
370	0.393
370	0.393
371	0.392
371	0.392
372	0.391
372	0.391
372	0.391
373	0.391
373	0.39
374	0.39
374	0.39
375	0.39
375	0.389
376	0.389
376	0.388
377	0.388
377	0.387
378	0.387
378	0.386
378	0.386
379	0.385
379	0.385
380	0.385
380	0.384
381	0.384
381	0.383
382	0.383
382	0.383
383	0.382
383	0.382
383	0.381
384	0.381
384	0.38
385	0.38
385	0.379
386	0.379
386	0.379
387	0.379
387	0.378
388	0.378
388	0.378
389	0.377
389	0.377
389	0.377
390	0.377
390	0.376
391	0.376
391	0.375
392	0.375
392	0.374
393	0.374
393	0.374
394	0.373
394	0.373
394	0.372
395	0.372
395	0.371
396	0.371
396	0.37
397	0.37
397	0.369
398	0.369
398	0.369
399	0.368
399	0.368
400	0.367
400	0.367
400	0.367
401	0.366
401	0.366
402	0.365
402	0.365
403	0.365
403	0.364
404	0.364
404	0.363
405	0.363
405	0.362
405	0.362
406	0.362
406	0.362
407	0.361
407	0.361
408	0.36
408	0.36
409	0.36
409	0.36
410	0.36
410	0.359
411	0.359
411	0.359
411	0.358
412	0.358
412	0.358
413	0.357
413	0.357
414	0.357
414	0.356
415	0.356
415	0.356
416	0.355
416	0.355
416	0.355
417	0.354
417	0.354
418	0.354
418	0.354
419	0.354
419	0.353
420	0.353
420	0.353
421	0.353
421	0.353
421	0.353
422	0.353
422	0.353
423	0.352
423	0.352
424	0.351
424	0.351
425	0.351
425	0.351
426	0.351
426	0.351
427	0.351
427	0.351
427	0.351
428	0.351
428	0.351
429	0.35
429	0.35
430	0.35
430	0.349
431	0.349
431	0.349
432	0.348
432	0.348
432	0.348
433	0.347
433	0.347
434	0.347
434	0.348
435	0.348
435	0.348
436	0.347
436	0.347
437	0.347
437	0.347
437	0.347
438	0.347
438	0.347
439	0.347
439	0.347
440	0.347
440	0.347
441	0.347
441	0.347
442	0.347
442	0.347
442	0.347
443	0.347
443	0.347
444	0.347
444	0.347
445	0.347
445	0.347
446	0.347
446	0.347
447	0.347
447	0.347
447	0.347
448	0.347
448	0.347
449	0.348
449	0.348
450	0.348
450	0.348
451	0.348
451	0.348
452	0.348
452	0.348
452	0.349
453	0.349
453	0.349
454	0.349
454	0.349
455	0.35
455	0.35
456	0.351
456	0.351
457	0.351
457	0.351
458	0.351
458	0.351
458	0.352
459	0.351
459	0.351
460	0.351
460	0.351
461	0.351
461	0.352
462	0.353
462	0.354
463	0.354
463	0.355
463	0.356
464	0.356
464	0.357
465	0.358
465	0.359
466	0.359
466	0.36
467	0.36
467	0.36
467	0.361
468	0.361
468	0.361
469	0.362
469	0.363
470	0.363
470	0.364
471	0.364
471	0.365
472	0.365
472	0.366
472	0.367
473	0.368
473	0.369
474	0.37
474	0.371
475	0.373
475	0.374
476	0.375
476	0.376
477	0.377
477	0.379
477	0.38
478	0.381
478	0.382
479	0.383
479	0.385
480	0.386
480	0.387
481	0.389
481	0.39
482	0.392
482	0.393
482	0.395
483	0.398
483	0.4
484	0.402
484	0.403
485	0.405
485	0.407
486	0.409
486	0.411
487	0.413
487	0.415
487	0.416
488	0.418
488	0.42
489	0.422
489	0.425
490	0.427
490	0.429
491	0.431
491	0.433
492	0.436
492	0.438
492	0.44
493	0.442
493	0.445
494	0.448
494	0.451
495	0.454
495	0.457
496	0.459
496	0.462
496	0.465
497	0.468
497	0.471
498	0.474
498	0.477
499	0.48
499	0.483
500	0.487
500	0.491
501	0.495
501	0.498
501	0.501
502	0.504
502	0.508
503	0.511
503	0.515
504	0.518
504	0.522
505	0.525
505	0.529
506	0.533
506	0.537
506	0.541
507	0.545
507	0.549
508	0.553
508	0.557
509	0.561
509	0.565
510	0.569
510	0.573
511	0.576
511	0.58
511	0.583
512	0.587
512	0.589
513	0.592
513	0.595
514	0.598
514	0.602
515	0.604
515	0.607
515	0.609
516	0.612
516	0.615
517	0.618
517	0.621
518	0.623
518	0.625
519	0.627
519	0.629
520	0.631
520	0.633
520	0.636
521	0.637
521	0.638
522	0.64
522	0.642
523	0.643
523	0.645
524	0.646
524	0.647
524	0.648
525	0.649
525	0.65
526	0.651
526	0.651
527	0.652
527	0.652
528	0.652
528	0.652
529	0.651
529	0.651
529	0.65
530	0.649
530	0.649
531	0.648
531	0.647
532	0.645
532	0.644
533	0.643
533	0.641
533	0.64
534	0.638
534	0.636
535	0.634
535	0.632
536	0.63
536	0.628
537	0.625
537	0.623
538	0.62
538	0.617
538	0.614
539	0.611
539	0.608
540	0.605
540	0.601
541	0.597
541	0.594
542	0.59
542	0.586
542	0.582
543	0.577
543	0.573
544	0.568
544	0.565
545	0.561
545	0.557
546	0.552
546	0.547
547	0.542
547	0.538
547	0.533
548	0.53
548	0.525
549	0.521
549	0.517
550	0.513
550	0.508
551	0.503
551	0.498
551	0.493
552	0.488
552	0.484
553	0.479
553	0.475
554	0.47
554	0.464
555	0.459
555	0.455
556	0.45
556	0.445
556	0.44
557	0.436
557	0.431
558	0.426
558	0.421
559	0.416
559	0.411
560	0.405
560	0.4
560	0.396
561	0.392
561	0.388
562	0.383
562	0.379
563	0.375
563	0.371
564	0.367
564	0.363
564	0.359
565	0.356
565	0.352
566	0.348
566	0.344
567	0.34
567	0.336
568	0.332
568	0.327
568	0.323
569	0.319
569	0.315
570	0.311
570	0.306
571	0.303
571	0.299
572	0.295
572	0.291
573	0.287
573	0.283
573	0.28
574	0.276
574	0.274
575	0.271
575	0.269
576	0.266
576	0.262
577	0.258
577	0.255
577	0.253
578	0.251
578	0.249
579	0.248
579	0.245
580	0.241
580	0.236
581	0.232
581	0.23
581	0.228
582	0.226
582	0.224
583	0.222
583	0.219
584	0.215
584	0.211
585	0.21
585	0.209
585	0.207
586	0.205
586	0.203
587	0.2
587	0.197
588	0.194
588	0.192
589	0.19
589	0.188
590	0.186
590	0.183
590	0.182
591	0.18
591	0.177
592	0.175
592	0.172
593	0.171
593	0.169
594	0.167
594	0.165
594	0.163
595	0.161
595	0.158
596	0.156
596	0.155
597	0.155
597	0.154
598	0.152
598	0.151
598	0.15
599	0.149
599	0.147
600	0.146
600	0.145
601	0.145
601	0.144
602	0.142
602	0.141
602	0.139
603	0.139
603	0.139
604	0.138
604	0.137
605	0.136
605	0.136
606	0.134
606	0.132
606	0.13
607	0.129
607	0.128
608	0.127
608	0.124
609	0.123
609	0.123
610	0.121
610	0.119
610	0.119
611	0.118
611	0.117
612	0.117
612	0.116
613	0.115
613	0.114
614	0.113
614	0.111
614	0.109
615	0.108
615	0.106
616	0.105
616	0.104
617	0.103
617	0.102
618	0.101
618	0.1
618	0.099
619	0.099
619	0.099
620	0.099
620	0.098
621	0.097
621	0.096
622	0.094
622	0.093
622	0.091
623	0.09
623	0.09
624	0.089
624	0.088
625	0.087
625	0.086
626	0.085
626	0.085
626	0.085
627	0.085
627	0.085
628	0.085
628	0.084
629	0.083
629	0.082
630	0.081
630	0.08
630	0.08
631	0.079
631	0.078
632	0.077
632	0.076
633	0.075
633	0.074
634	0.073
634	0.073
634	0.072
635	0.071
635	0.07
636	0.069
636	0.068
637	0.067
637	0.065
638	0.064
638	0.063
638	0.062
639	0.06
639	0.058
640	0.056
640	0.054
641	0.052
641	0.05
642	0.048
642	0.046
642	0.044
643	0.042
643	0.039
644	0.037
644	0.034
645	0.032
645	0.03
646	0.027
646	0.024
646	0.02
647	0.016
647	0.013
648	0.008
648	0.004
649	-0.001
649	-0.005
650	-0.009
650	-0.013
650	-0.018
651	-0.024
651	-0.032
652	-0.04
652	-0.049
653	-0.056
653	-0.062
653	-0.058
654	-0.047
654	-0.049
655	-0.054
655	-0.058
656	-0.063
656	-0.067
657	-0.071
657	-0.075
657	-0.081
658	-0.086
658	-0.11
659	-0.17
659	-0.227
660	-0.254
660	-0.273
661	-0.294
661	-0.316
661	-0.337
662	-0.354
662	-0.374
663	-0.394
663	-0.417
664	-0.436
664	-0.461
665	-0.486
665	-0.512
665	-0.534
666	-0.559
666	-0.59
667	-0.618
667	-0.654
668	-0.687
668	-0.733
669	-0.777
669	-0.824
669	-0.879
670	-0.937
670	-1.037
671	-1.228
671	-1.547
672	-1.974
672	-2.266
672	-2.445
673	-2.575
673	-2.636
674	-2.659
674	-2.669
675	-2.684
675	-2.69
676	-2.691
676	-2.673
676	-2.606
677	-2.479
677	-2.298
678	-1.94
678	-1.405
679	-1.16
679	-1.068
680	-1.01
680	-0.97
680	-0.938
681	-0.922
681	-0.896
682	-0.88
682	-0.857
683	-0.833
683	-0.832
684	-0.822
684	-0.819
684	-0.812
685	-0.804
685	-0.808
686	-0.796
686	-0.793
687	-0.794
687	-0.794
687	-0.805
688	-0.796
688	-0.796
689	-0.807
689	-0.808
690	-0.801
690	-0.796
691	-0.798
691	-0.806
691	-0.809
692	-0.812
692	-0.813
693	-0.822
693	-0.837
694	-0.819
694	-0.821
695	-0.829
695	-0.824
695	-0.834
696	-0.841
696	-0.837
697	-0.833
697	-0.829
698	-0.825
698	-0.818
698	-0.835
699	-0.835
699	-0.835
700	-0.856
700	-0.851
701	-0.84
701	-0.834
702	-0.835
702	-0.835
702	-0.836
703	-0.827
703	-0.815
704	-0.823
704	-0.828
705	-0.816
705	-0.815
705	-0.811
706	-0.805
706	-0.801
707	-0.815
707	-0.818
708	-0.818
708	-0.816
709	-0.819
709	-0.814
709	-0.811
710	-0.819
710	-0.823
711	-0.822
711	-0.825
712	-0.814
712	-0.811
713	-0.815
713	-0.817
713	-0.798
714	-0.801
714	-0.806
715	-0.799
715	-0.806
716	-0.823
716	-0.831
716	-0.833
717	-0.84
717	-0.833
718	-0.826
718	-0.827
719	-0.824
719	-0.816
720	-0.811
720	-0.807
720	-0.801
721	-0.794
721	-0.799
722	-0.797
722	-0.792
723	-0.81
723	-0.822
723	-0.829
724	-0.827
724	-0.833
725	-0.826
725	-0.832
726	-0.835
726	-0.828
727	-0.829
727	-0.837
727	-0.826
728	-0.817
728	-0.815
729	-0.819
729	-0.822
730	-0.827
730	-0.819
730	-0.823
731	-0.827
731	-0.829
732	-0.831
732	-0.827
733	-0.84
733	-0.847
734	-0.855
734	-0.847
734	-0.83
735	-0.818
735	-0.814
736	-0.812
736	-0.806
737	-0.806
737	-0.795
737	-0.787
738	-0.773
738	-0.761
739	-0.764
739	-0.766
740	-0.782
740	-0.783
741	-0.792
741	-0.803
741	-0.814
742	-0.822
742	-0.837
743	-0.844
743	-0.846
744	-0.85
744	-0.857
744	-0.851
745	-0.858
745	-0.848
746	-0.844
746	-0.835
747	-0.838
747	-0.829
748	-0.832
748	-0.836
748	-0.836
749	-0.828
749	-0.834
750	-0.825
750	-0.825
751	-0.824
751	-0.821
751	-0.832
752	-0.836
752	-0.838
753	-0.842
753	-0.836
754	-0.857
754	-0.856
754	-0.865
755	-0.865
755	-0.857
756	-0.861
756	-0.845
757	-0.837
757	-0.825
758	-0.825
758	-0.824
758	-0.82
759	-0.827
759	-0.827
760	-0.826
760	-0.829
761	-0.821
761	-0.827
761	-0.828
762	-0.834
762	-0.834
763	-0.833
763	-0.835
764	-0.833
764	-0.828
764	-0.833
765	-0.832
765	-0.841
766	-0.842
766	-0.844
767	-0.858
767	-0.853
768	-0.851
768	-0.845
768	-0.839
769	-0.842
769	-0.851
770	-0.863
770	-0.866
771	-0.862
771	-0.862
771	-0.868
772	-0.872
772	-0.894
773	-0.895
773	-0.895
774	-0.894
774	-0.876
775	-0.861
775	-0.861
775	-0.863
776	-0.874
776	-0.87
777	-0.871
777	-0.852
778	-0.86
778	-0.868
778	-0.869
779	-0.878
779	-0.893
780	-0.89
780	-0.899
781	-0.886
781	-0.876
781	-0.889
782	-0.91
782	-0.912
783	-0.91
783	-0.916
784	-0.919
784	-0.912
784	-0.931
785	-0.925
785	-0.941
786	-0.945
786	-0.939
787	-0.929
787	-0.938
788	-0.931
788	-0.926
788	-0.929
789	-0.928
789	-0.917
790	-0.917
790	-0.901
791	-0.909
791	-0.905
791	-0.899
792	-0.893
792	-0.899
793	-0.901
793	-0.889
794	-0.883
794	-0.878
794	-0.885
795	-0.905
795	-0.892
796	-0.895
796	-0.892
797	-0.885
797	-0.875
797	-0.868
798	-0.888
798	-0.894
799	-0.892
799	-0.878
800	-0.872
800	-0.879
801	-0.878
801	-0.882
801	-0.879
802	-0.878
802	-0.881
803	-0.875
803	-0.867
804	-0.873
804	-0.88
804	-0.864
805	-0.845
805	-0.837
806	-0.837
806	-0.833
807	-0.833
807	-0.83
807	-0.812
808	-0.807
808	-0.8
809	-0.796
809	-0.797
810	-0.802
810	-0.799
810	-0.795
811	-0.799
811	-0.79
812	-0.783
812	-0.786
813	-0.79
813	-0.792
813	-0.789
814	-0.79
814	-0.795
815	-0.785
815	-0.78
816	-0.776
816	-0.793
817	-0.806
817	-0.81
817	-0.819
818	-0.812
818	-0.809
819	-0.819
819	-0.816
820	-0.829
820	-0.828
820	-0.826
821	-0.822
821	-0.818
822	-0.816
822	-0.802
823	-0.812
823	-0.812
823	-0.808
824	-0.807
824	-0.818
825	-0.816
825	-0.814
826	-0.81
826	-0.806
826	-0.807
827	-0.808
827	-0.799
828	-0.798
828	-0.79
829	-0.784
829	-0.769
829	-0.767
830	-0.766
830	-0.753
831	-0.746
831	-0.735
832	-0.725
832	-0.719
832	-0.713
833	-0.712
833	-0.719
834	-0.713
834	-0.707
835	-0.698
835	-0.698
835	-0.692
836	-0.688
836	-0.684
837	-0.674
837	-0.666
838	-0.654
838	-0.637
839	-0.631
839	-0.619
839	-0.61
840	-0.608
840	-0.598
841	-0.588
841	-0.581
842	-0.572
842	-0.559
842	-0.557
843	-0.552
843	-0.549
844	-0.548
844	-0.536
845	-0.522
845	-0.513
845	-0.503
846	-0.492
846	-0.483
847	-0.472
847	-0.458
848	-0.443
848	-0.425
848	-0.409
849	-0.399
849	-0.387
850	-0.378
850	-0.368
851	-0.356
851	-0.34
851	-0.331
852	-0.317
852	-0.305
853	-0.297
853	-0.288
854	-0.278
854	-0.267
854	-0.255
855	-0.242
855	-0.234
856	-0.226
856	-0.219
857	-0.212
857	-0.204
857	-0.191
858	-0.18
858	-0.173
859	-0.163
859	-0.152
860	-0.143
860	-0.128
860	-0.119
861	-0.108
861	-0.099
862	-0.092
862	-0.084
863	-0.076
863	-0.068
863	-0.062
864	-0.057
864	-0.051
865	-0.045
865	-0.04
866	-0.034
866	-0.029
866	-0.023
867	-0.018
867	-0.013
868	-0.009
868	-0.004
869	0.001
869	0.004
869	0.006
870	0.008
870	0.01
871	0.011
871	0.013
872	0.014
872	0.015
872	0.016
873	0.016
873	0.016
874	0.016
874	0.016
875	0.016
875	0.016
875	0.016
876	0.016
876	0.016
877	0.015
877	0.015
878	0.014
878	0.014
878	0.014
879	0.013
879	0.013
880	0.012
880	0.011
881	0.01
881	0.009
881	0.008
882	0.007
882	0.005
883	0.004
883	0.003
884	0.002
884	0.002
884	0.002
885	0.001
885	0.001
886	0.001
886	0.001
887	0
887	0
887	-0
888	-0.001
888	-0.001
889	-0.002
889	-0.003
890	-0.004
890	-0.004
890	-0.005
891	-0.004
891	-0.005
892	-0.005
892	-0.005
893	-0.004
893	-0.004
893	-0.004
894	-0.004
894	-0.003
895	-0.004
895	-0.004
895	-0.005
896	-0.004
896	-0.004
897	-0.004
897	-0.004
898	-0.004
898	-0.004
898	-0.004
899	-0.004
899	-0.004
900	-0.003
900	-0.004
901	-0.004
901	-0.005
901	-0.005
902	-0.005
902	-0.005
903	-0.005
903	-0.006
904	-0.006
904	-0.006
904	-0.006
905	-0.005
905	-0.004
906	-0.003
906	-0.002
907	-0.001
907	-0.001
907	-0
908	0
908	0.001
909	0.001
909	0.002
910	0.002
910	0.002
910	0.003
911	0.003
911	0.004
912	0.004
912	0.005
913	0.006
913	0.007
913	0.007
914	0.008
914	0.008
915	0.008
915	0.008
916	0.008
916	0.008
916	0.008
917	0.008
917	0.007
918	0.007
918	0.007
918	0.007
919	0.007
919	0.007
920	0.008
920	0.009
921	0.009
921	0.01
921	0.011
922	0.011
922	0.012
923	0.012
923	0.012
924	0.012
924	0.012
924	0.011
925	0.01
925	0.009
926	0.008
926	0.006
927	0.005
927	0.004
927	0.004
928	0.003
928	0.003
929	0.003
929	0.004
930	0.004
930	0.004
930	0.005
931	0.006
931	0.007
932	0.008
932	0.009
933	0.01
933	0.011
933	0.011
934	0.01
934	0.01
935	0.009
935	0.008
935	0.007
936	0.006
936	0.005
937	0.004
937	0.003
938	0.002
938	0.001
938	0.001
939	-0
939	-0.001
940	-0.001
940	-0.002
941	-0.002
941	-0.003
941	-0.003
942	-0.004
942	-0.004
943	-0.004
943	-0.005
944	-0.006
944	-0.007
944	-0.007
945	-0.008
945	-0.008
946	-0.008
946	-0.009
946	-0.009
947	-0.009
947	-0.009
948	-0.008
948	-0.007
949	-0.006
949	-0.005
949	-0.004
950	-0.002
950	-0.001
951	0.001
951	0.002
952	0.002
952	0.004
952	0.005
953	0.005
953	0.006
954	0.006
954	0.006
955	0.006
955	0.006
955	0.006
956	0.005
956	0.005
957	0.004
957	0.003
957	0.002
958	0.002
958	0.001
959	0.001
959	0
960	0
960	0
960	0
961	0
961	0.001
962	0.001
962	0.001
963	0.001
963	0.002
963	0.002
964	0.003
964	0.003
965	0.003
965	0.003
966	0.003
966	0.003
966	0.004
967	0.004
967	0.003
968	0.003
968	0.003
968	0.003
969	0.003
969	0.002
970	0.002
970	0.002
971	0.002
971	0.002
971	0.002
972	0.003
972	0.003
973	0.003
973	0.003
974	0.003
974	0.004
974	0.004
975	0.004
975	0.004
976	0.004
976	0.004
976	0.004
977	0.004
977	0.003
978	0.002
978	0.002
979	0.001
979	0.001
979	0.001
980	0.001
980	0
981	0
981	0.001
982	0.001
982	0.001
982	0.001
983	0.001
983	0.001
984	0.001
984	0
984	0
985	-0
985	-0.001
986	-0.002
986	-0.003
987	-0.003
987	-0.004
987	-0.005
988	-0.005
988	-0.006
989	-0.007
989	-0.008
990	-0.008
990	-0.009
990	-0.01
991	-0.01
991	-0.011
992	-0.011
992	-0.012
992	-0.013
993	-0.013
993	-0.014
994	-0.015
994	-0.016
995	-0.017
995	-0.018
995	-0.019
996	-0.021
996	-0.022
997	-0.023
997	-0.024
997	-0.024
998	-0.025
998	-0.024
999	-0.024
999	-0.024
1000	-0.024
1000	-0.024
1000	-0.023
1001	-0.022
1001	-0.022
1002	-0.021
1002	-0.021
1003	-0.021
1003	-0.021
1003	-0.022
1004	-0.022
1004	-0.022
1005	-0.022
1005	-0.023
1005	-0.024
1006	-0.025
1006	-0.026
1007	-0.027
1007	-0.028
1008	-0.029
1008	-0.029
1008	-0.029
1009	-0.029
1009	-0.029
1010	-0.029
1010	-0.028
1010	-0.027
1011	-0.026
1011	-0.025
1012	-0.024
1012	-0.023
1013	-0.021
1013	-0.021
1013	-0.019
1014	-0.018
1014	-0.018
1015	-0.017
1015	-0.017
1016	-0.016
1016	-0.016
1016	-0.016
1017	-0.016
1017	-0.016
1018	-0.016
1018	-0.017
1018	-0.017
1019	-0.017
1019	-0.018
1020	-0.018
1020	-0.019
1021	-0.019
1021	-0.019
1021	-0.02
1022	-0.02
1022	-0.02
1023	-0.02
1023	-0.02
1023	-0.02
1024	-0.02
1024	-0.02
1025	-0.019
1025	-0.019
1026	-0.019
1026	-0.018
1026	-0.018
1027	-0.018
1027	-0.017
1028	-0.017
1028	-0.016
1028	-0.016
1029	-0.016
1029	-0.015
1030	-0.016
1030	-0.016
1031	-0.016
1031	-0.015
1031	-0.015
1032	-0.015
1032	-0.015
1033	-0.015
1033	-0.015
1033	-0.015
1034	-0.015
1034	-0.015
1035	-0.015
1035	-0.016
1036	-0.016
1036	-0.016
1036	-0.016
1037	-0.016
1037	-0.016
1038	-0.016
1038	-0.016
1039	-0.015
1039	-0.015
1039	-0.014
1040	-0.014
1040	-0.013
1041	-0.014
1041	-0.014
1041	-0.014
1042	-0.015
1042	-0.016
1043	-0.017
1043	-0.017
1044	-0.018
1044	-0.02
1044	-0.02
1045	-0.022
1045	-0.022
1046	-0.023
1046	-0.024
1046	-0.024
1047	-0.025
1047	-0.025
1048	-0.024
1048	-0.024
1049	-0.024
1049	-0.024
1049	-0.024
1050	-0.024
1050	-0.025
1051	-0.026
1051	-0.026
1051	-0.027
1052	-0.027
1052	-0.028
1053	-0.029
1053	-0.03
1053	-0.03
1054	-0.031
1054	-0.032
1055	-0.032
1055	-0.032
1056	-0.032
1056	-0.032
1056	-0.032
1057	-0.033
1057	-0.033
1058	-0.033
1058	-0.033
1058	-0.033
1059	-0.033
1059	-0.034
1060	-0.034
1060	-0.034
1061	-0.034
1061	-0.034
1061	-0.034
1062	-0.034
1062	-0.034
1063	-0.034
1063	-0.034
1063	-0.034
1064	-0.034
1064	-0.033
1065	-0.033
1065	-0.033
1066	-0.033
1066	-0.034
1066	-0.034
1067	-0.034
1067	-0.035
1068	-0.035
1068	-0.036
1068	-0.036
1069	-0.037
1069	-0.038
1070	-0.038
1070	-0.039
1071	-0.039
1071	-0.04
1071	-0.04
1072	-0.04
1072	-0.04
1073	-0.04
1073	-0.041
1073	-0.041
1074	-0.041
1074	-0.041
1075	-0.042
1075	-0.042
1076	-0.043
1076	-0.043
1076	-0.044
1077	-0.045
1077	-0.046
1078	-0.047
1078	-0.048
1078	-0.049
1079	-0.049
1079	-0.05
1080	-0.051
1080	-0.052
1080	-0.054
1081	-0.055
1081	-0.055
1082	-0.056
1082	-0.057
1083	-0.058
1083	-0.059
1083	-0.06
1084	-0.061
1084	-0.061
1085	-0.063
1085	-0.063
1085	-0.064
1086	-0.065
1086	-0.066
1087	-0.067
1087	-0.068
1088	-0.069
1088	-0.07
1088	-0.071
1089	-0.072
1089	-0.072
1090	-0.073
1090	-0.074
1090	-0.075
1091	-0.077
1091	-0.076
1092	-0.077
1092	-0.077
1092	-0.079
1093	-0.079
1093	-0.079
1094	-0.08
1094	-0.081
1095	-0.082
1095	-0.082
1095	-0.082
1096	-0.084
1096	-0.085
1097	-0.086
1097	-0.088
1097	-0.088
1098	-0.09
1098	-0.092
1099	-0.094
1099	-0.096
1100	-0.099
1100	-0.102
1100	-0.105
1101	-0.108
1101	-0.11
1102	-0.112
1102	-0.115
1102	-0.118
1103	-0.12
1103	-0.122
1104	-0.125
1104	-0.128
1104	-0.13
1105	-0.132
1105	-0.135
1106	-0.141
1106	-0.143
1107	-0.149
1107	-0.153
1107	-0.158
1108	-0.16
1108	-0.162
1109	-0.165
1109	-0.17
1109	-0.174
1110	-0.176
1110	-0.178
1111	-0.191
1111	-0.187
