Data from 3.4A_17C_Absorbance__273__02185.txt Node

Date: Tue Jun 20 16:34:16 CEST 2023
User: Marek
Spectrometer: MAYP115816
Trigger mode: 0
Integration Time (sec): 2.200000E-1
Scans to average: 10
Electric dark correction enabled: true
Nonlinearity correction enabled: true
Boxcar width: 5
XAxis mode: Wavelengths
Number of Pixels in Spectrum: 2068
>>>>>Begin Spectral Data<<<<<
199	-0.794
199	-0.782
200	-0.745
200	-0.689
201	-0.663
201	-0.658
202	-0.642
202	-0.634
203	-0.632
203	-0.626
204	-0.606
204	-0.59
205	-0.568
205	-0.559
205	-0.569
206	-0.571
206	-0.564
207	-0.554
207	-0.562
208	-0.564
208	-0.567
209	-0.569
209	-0.575
210	-0.587
210	-0.593
211	-0.585
211	-0.589
212	-0.598
212	-0.608
213	-0.603
213	-0.599
213	-0.598
214	-0.604
214	-0.607
215	-0.603
215	-0.61
216	-0.62
216	-0.625
217	-0.621
217	-0.622
218	-0.63
218	-0.631
219	-0.638
219	-0.641
220	-0.645
220	-0.654
221	-0.653
221	-0.654
221	-0.645
222	-0.646
222	-0.644
223	-0.64
223	-0.644
224	-0.644
224	-0.642
225	-0.638
225	-0.636
226	-0.637
226	-0.637
227	-0.646
227	-0.656
228	-0.659
228	-0.668
229	-0.672
229	-0.669
229	-0.669
230	-0.665
230	-0.664
231	-0.659
231	-0.654
232	-0.657
232	-0.651
233	-0.65
233	-0.637
234	-0.637
234	-0.634
235	-0.638
235	-0.65
236	-0.656
236	-0.658
236	-0.659
237	-0.656
237	-0.659
238	-0.659
238	-0.662
239	-0.664
239	-0.671
240	-0.664
240	-0.659
241	-0.653
241	-0.655
242	-0.656
242	-0.664
243	-0.664
243	-0.666
243	-0.671
244	-0.668
244	-0.67
245	-0.674
245	-0.679
246	-0.689
246	-0.693
247	-0.701
247	-0.687
248	-0.686
248	-0.689
249	-0.694
249	-0.697
250	-0.696
250	-0.705
250	-0.7
251	-0.701
251	-0.697
252	-0.699
252	-0.711
253	-0.706
253	-0.717
254	-0.72
254	-0.72
255	-0.731
255	-0.728
256	-0.733
256	-0.744
257	-0.755
257	-0.751
258	-0.751
258	-0.759
258	-0.758
259	-0.753
259	-0.772
260	-0.77
260	-0.759
261	-0.769
261	-0.755
262	-0.76
262	-0.759
263	-0.751
263	-0.757
264	-0.766
264	-0.767
265	-0.76
265	-0.764
265	-0.774
266	-0.765
266	-0.766
267	-0.764
267	-0.78
268	-0.788
268	-0.78
269	-0.773
269	-0.787
270	-0.788
270	-0.786
271	-0.798
271	-0.809
272	-0.812
272	-0.816
272	-0.808
273	-0.819
273	-0.834
274	-0.825
274	-0.821
275	-0.818
275	-0.806
276	-0.811
276	-0.815
277	-0.815
277	-0.813
278	-0.819
278	-0.819
278	-0.808
279	-0.816
279	-0.828
280	-0.832
280	-0.843
281	-0.836
281	-0.829
282	-0.834
282	-0.828
283	-0.82
283	-0.834
284	-0.848
284	-0.859
285	-0.841
285	-0.847
285	-0.84
286	-0.845
286	-0.861
287	-0.857
287	-0.856
288	-0.857
288	-0.837
289	-0.835
289	-0.841
290	-0.849
290	-0.838
291	-0.84
291	-0.837
292	-0.818
292	-0.817
292	-0.821
293	-0.808
293	-0.805
294	-0.804
294	-0.789
295	-0.773
295	-0.786
296	-0.797
296	-0.792
297	-0.779
297	-0.783
298	-0.779
298	-0.798
298	-0.8
299	-0.784
299	-0.779
300	-0.773
300	-0.753
301	-0.734
301	-0.735
302	-0.746
302	-0.731
303	-0.725
303	-0.712
304	-0.697
304	-0.698
305	-0.691
305	-0.7
305	-0.715
306	-0.701
306	-0.7
307	-0.691
307	-0.701
308	-0.704
308	-0.701
309	-0.704
309	-0.699
310	-0.695
310	-0.689
311	-0.676
311	-0.695
311	-0.683
312	-0.68
312	-0.67
313	-0.661
313	-0.661
314	-0.665
314	-0.662
315	-0.66
315	-0.653
316	-0.646
316	-0.635
317	-0.627
317	-0.624
318	-0.614
318	-0.61
318	-0.599
319	-0.59
319	-0.582
320	-0.579
320	-0.577
321	-0.574
321	-0.575
322	-0.57
322	-0.564
323	-0.566
323	-0.556
324	-0.553
324	-0.541
324	-0.53
325	-0.514
325	-0.496
326	-0.486
326	-0.459
327	-0.443
327	-0.42
328	-0.386
328	-0.365
329	-0.336
329	-0.307
330	-0.279
330	-0.242
330	-0.205
331	-0.168
331	-0.134
332	-0.097
332	-0.063
333	-0.031
333	0.006
334	0.037
334	0.065
335	0.094
335	0.118
336	0.142
336	0.166
336	0.184
337	0.203
337	0.221
338	0.237
338	0.249
339	0.264
339	0.276
340	0.285
340	0.294
341	0.302
341	0.309
342	0.317
342	0.323
342	0.329
343	0.333
343	0.339
344	0.343
344	0.346
345	0.35
345	0.353
346	0.355
346	0.358
347	0.359
347	0.361
348	0.363
348	0.364
348	0.365
349	0.366
349	0.368
350	0.368
350	0.369
351	0.37
351	0.37
352	0.37
352	0.371
353	0.371
353	0.371
354	0.371
354	0.371
354	0.371
355	0.371
355	0.371
356	0.371
356	0.371
357	0.372
357	0.372
358	0.372
358	0.372
359	0.372
359	0.372
360	0.372
360	0.372
360	0.372
361	0.372
361	0.372
362	0.371
362	0.371
363	0.371
363	0.371
364	0.371
364	0.371
365	0.371
365	0.371
366	0.371
366	0.37
366	0.371
367	0.371
367	0.371
368	0.37
368	0.37
369	0.37
369	0.369
370	0.369
370	0.369
371	0.368
371	0.368
372	0.368
372	0.367
372	0.367
373	0.367
373	0.367
374	0.366
374	0.366
375	0.366
375	0.365
376	0.365
376	0.365
377	0.365
377	0.364
378	0.364
378	0.363
378	0.363
379	0.362
379	0.362
380	0.362
380	0.362
381	0.362
381	0.361
382	0.361
382	0.361
383	0.36
383	0.36
383	0.359
384	0.359
384	0.359
385	0.358
385	0.358
386	0.358
386	0.357
387	0.357
387	0.357
388	0.356
388	0.356
389	0.356
389	0.356
389	0.355
390	0.355
390	0.355
391	0.354
391	0.354
392	0.354
392	0.353
393	0.353
393	0.353
394	0.353
394	0.352
394	0.352
395	0.351
395	0.351
396	0.35
396	0.35
397	0.35
397	0.349
398	0.349
398	0.348
399	0.348
399	0.348
400	0.347
400	0.347
400	0.347
401	0.346
401	0.346
402	0.346
402	0.345
403	0.345
403	0.345
404	0.344
404	0.344
405	0.344
405	0.343
405	0.343
406	0.342
406	0.342
407	0.342
407	0.342
408	0.341
408	0.341
409	0.341
409	0.341
410	0.341
410	0.341
411	0.34
411	0.34
411	0.34
412	0.339
412	0.339
413	0.339
413	0.339
414	0.338
414	0.338
415	0.338
415	0.337
416	0.337
416	0.337
416	0.336
417	0.336
417	0.336
418	0.336
418	0.336
419	0.335
419	0.335
420	0.335
420	0.335
421	0.335
421	0.334
421	0.334
422	0.334
422	0.334
423	0.334
423	0.334
424	0.333
424	0.333
425	0.333
425	0.333
426	0.333
426	0.333
427	0.333
427	0.333
427	0.333
428	0.333
428	0.333
429	0.333
429	0.332
430	0.332
430	0.332
431	0.332
431	0.331
432	0.331
432	0.33
432	0.33
433	0.33
433	0.33
434	0.33
434	0.33
435	0.33
435	0.33
436	0.33
436	0.33
437	0.33
437	0.33
437	0.33
438	0.33
438	0.329
439	0.329
439	0.329
440	0.329
440	0.329
441	0.329
441	0.329
442	0.328
442	0.328
442	0.328
443	0.328
443	0.328
444	0.328
444	0.328
445	0.328
445	0.328
446	0.328
446	0.328
447	0.328
447	0.329
447	0.329
448	0.329
448	0.329
449	0.329
449	0.329
450	0.329
450	0.329
451	0.329
451	0.329
452	0.329
452	0.329
452	0.329
453	0.33
453	0.33
454	0.33
454	0.33
455	0.33
455	0.331
456	0.331
456	0.331
457	0.331
457	0.331
458	0.331
458	0.331
458	0.331
459	0.331
459	0.331
460	0.331
460	0.331
461	0.331
461	0.332
462	0.332
462	0.333
463	0.334
463	0.334
463	0.335
464	0.335
464	0.336
465	0.336
465	0.337
466	0.337
466	0.338
467	0.338
467	0.338
467	0.338
468	0.338
468	0.339
469	0.339
469	0.34
470	0.341
470	0.341
471	0.341
471	0.342
472	0.342
472	0.343
472	0.344
473	0.345
473	0.345
474	0.346
474	0.347
475	0.348
475	0.349
476	0.35
476	0.351
477	0.352
477	0.352
477	0.353
478	0.354
478	0.355
479	0.356
479	0.357
480	0.358
480	0.359
481	0.36
481	0.361
482	0.362
482	0.363
482	0.365
483	0.367
483	0.369
484	0.371
484	0.372
485	0.374
485	0.376
486	0.377
486	0.379
487	0.38
487	0.382
487	0.383
488	0.384
488	0.386
489	0.387
489	0.39
490	0.391
490	0.393
491	0.395
491	0.397
492	0.4
492	0.401
492	0.403
493	0.405
493	0.407
494	0.41
494	0.413
495	0.415
495	0.417
496	0.419
496	0.421
496	0.424
497	0.427
497	0.429
498	0.432
498	0.434
499	0.437
499	0.44
500	0.443
500	0.446
501	0.45
501	0.452
501	0.454
502	0.457
502	0.46
503	0.464
503	0.467
504	0.469
504	0.472
505	0.476
505	0.479
506	0.482
506	0.485
506	0.489
507	0.492
507	0.496
508	0.499
508	0.503
509	0.506
509	0.51
510	0.513
510	0.516
511	0.519
511	0.522
511	0.525
512	0.528
512	0.531
513	0.533
513	0.536
514	0.538
514	0.542
515	0.544
515	0.546
515	0.548
516	0.551
516	0.554
517	0.556
517	0.558
518	0.56
518	0.562
519	0.564
519	0.565
520	0.568
520	0.57
520	0.572
521	0.573
521	0.574
522	0.575
522	0.577
523	0.578
523	0.58
524	0.581
524	0.582
524	0.584
525	0.585
525	0.586
526	0.587
526	0.588
527	0.589
527	0.589
528	0.589
528	0.589
529	0.589
529	0.589
529	0.588
530	0.588
530	0.588
531	0.587
531	0.587
532	0.586
532	0.585
533	0.585
533	0.584
533	0.583
534	0.581
534	0.58
535	0.579
535	0.578
536	0.577
536	0.575
537	0.574
537	0.572
538	0.571
538	0.568
538	0.567
539	0.565
539	0.563
540	0.561
540	0.558
541	0.555
541	0.553
542	0.55
542	0.547
542	0.544
543	0.541
543	0.538
544	0.535
544	0.532
545	0.529
545	0.526
546	0.523
546	0.52
547	0.516
547	0.513
547	0.51
548	0.508
548	0.504
549	0.501
549	0.499
550	0.496
550	0.492
551	0.489
551	0.485
551	0.482
552	0.479
552	0.476
553	0.472
553	0.469
554	0.465
554	0.461
555	0.457
555	0.454
556	0.45
556	0.446
556	0.442
557	0.439
557	0.436
558	0.432
558	0.429
559	0.425
559	0.421
560	0.418
560	0.414
560	0.411
561	0.409
561	0.406
562	0.403
562	0.4
563	0.397
563	0.394
564	0.391
564	0.388
564	0.386
565	0.383
565	0.381
566	0.378
566	0.375
567	0.373
567	0.37
568	0.367
568	0.364
568	0.361
569	0.358
569	0.355
570	0.351
570	0.348
571	0.346
571	0.343
572	0.339
572	0.337
573	0.333
573	0.33
573	0.327
574	0.325
574	0.323
575	0.321
575	0.32
576	0.318
576	0.314
577	0.311
577	0.309
577	0.308
578	0.307
578	0.306
579	0.305
579	0.303
580	0.3
580	0.296
581	0.292
581	0.29
581	0.289
582	0.288
582	0.287
583	0.285
583	0.283
584	0.279
584	0.276
585	0.275
585	0.275
585	0.273
586	0.272
586	0.27
587	0.267
587	0.265
588	0.262
588	0.26
589	0.259
589	0.257
590	0.255
590	0.253
590	0.252
591	0.251
591	0.249
592	0.246
592	0.244
593	0.243
593	0.241
594	0.239
594	0.237
594	0.236
595	0.235
595	0.232
596	0.23
596	0.229
597	0.229
597	0.228
598	0.226
598	0.225
598	0.224
599	0.224
599	0.222
600	0.221
600	0.22
601	0.22
601	0.219
602	0.217
602	0.216
602	0.215
603	0.214
603	0.214
604	0.213
604	0.212
605	0.211
605	0.211
606	0.209
606	0.207
606	0.205
607	0.204
607	0.203
608	0.202
608	0.2
609	0.198
609	0.198
610	0.196
610	0.194
610	0.193
611	0.193
611	0.192
612	0.191
612	0.19
613	0.189
613	0.188
614	0.186
614	0.184
614	0.183
615	0.181
615	0.179
616	0.178
616	0.177
617	0.176
617	0.175
618	0.173
618	0.172
618	0.171
619	0.17
619	0.17
620	0.17
620	0.168
621	0.167
621	0.165
622	0.163
622	0.161
622	0.159
623	0.158
623	0.157
624	0.156
624	0.154
625	0.153
625	0.152
626	0.151
626	0.15
626	0.149
627	0.149
627	0.148
628	0.147
628	0.146
629	0.145
629	0.144
630	0.142
630	0.14
630	0.139
631	0.138
631	0.136
632	0.134
632	0.132
633	0.13
633	0.128
634	0.126
634	0.124
634	0.122
635	0.12
635	0.117
636	0.115
636	0.112
637	0.11
637	0.107
638	0.104
638	0.101
638	0.098
639	0.095
639	0.091
640	0.087
640	0.083
641	0.08
641	0.076
642	0.072
642	0.068
642	0.064
643	0.059
643	0.054
644	0.05
644	0.045
645	0.04
645	0.035
646	0.03
646	0.024
646	0.018
647	0.012
647	0.006
648	-0
648	-0.007
649	-0.014
649	-0.02
650	-0.026
650	-0.033
650	-0.04
651	-0.048
651	-0.059
652	-0.071
652	-0.084
653	-0.095
653	-0.103
653	-0.098
654	-0.08
654	-0.075
655	-0.079
655	-0.083
656	-0.088
656	-0.093
657	-0.096
657	-0.099
657	-0.104
658	-0.11
658	-0.138
659	-0.215
659	-0.294
660	-0.331
660	-0.353
661	-0.377
661	-0.402
661	-0.429
662	-0.455
662	-0.48
663	-0.509
663	-0.541
664	-0.571
664	-0.605
665	-0.643
665	-0.683
665	-0.719
666	-0.762
666	-0.81
667	-0.857
667	-0.912
668	-0.964
668	-1.027
669	-1.089
669	-1.155
669	-1.228
670	-1.303
670	-1.407
671	-1.58
671	-1.886
672	-2.215
672	-2.408
672	-2.545
673	-2.651
673	-2.739
674	-2.791
674	-2.805
675	-2.821
675	-2.826
676	-2.825
676	-2.794
676	-2.72
677	-2.628
677	-2.515
678	-2.34
678	-2.025
679	-1.635
679	-1.471
680	-1.374
680	-1.303
680	-1.24
681	-1.198
681	-1.15
682	-1.113
682	-1.075
683	-1.036
683	-1.018
684	-0.994
684	-0.979
684	-0.96
685	-0.944
685	-0.94
686	-0.92
686	-0.91
687	-0.904
687	-0.896
687	-0.898
688	-0.884
688	-0.879
689	-0.886
689	-0.884
690	-0.872
690	-0.863
691	-0.862
691	-0.867
691	-0.869
692	-0.87
692	-0.866
693	-0.874
693	-0.885
694	-0.865
694	-0.865
695	-0.868
695	-0.862
695	-0.872
696	-0.878
696	-0.871
697	-0.866
697	-0.864
698	-0.86
698	-0.854
698	-0.871
699	-0.87
699	-0.873
700	-0.893
700	-0.887
701	-0.873
701	-0.868
702	-0.869
702	-0.867
702	-0.867
703	-0.859
703	-0.846
704	-0.853
704	-0.855
705	-0.843
705	-0.842
705	-0.839
706	-0.831
706	-0.828
707	-0.84
707	-0.843
708	-0.839
708	-0.837
709	-0.836
709	-0.835
709	-0.831
710	-0.839
710	-0.841
711	-0.841
711	-0.841
712	-0.832
712	-0.83
713	-0.836
713	-0.837
713	-0.818
714	-0.821
714	-0.823
715	-0.815
715	-0.824
716	-0.84
716	-0.85
716	-0.851
717	-0.857
717	-0.849
718	-0.844
718	-0.846
719	-0.84
719	-0.833
720	-0.827
720	-0.824
720	-0.819
721	-0.81
721	-0.814
722	-0.811
722	-0.808
723	-0.827
723	-0.84
723	-0.849
724	-0.848
724	-0.854
725	-0.846
725	-0.85
726	-0.853
726	-0.843
727	-0.846
727	-0.851
727	-0.84
728	-0.828
728	-0.825
729	-0.827
729	-0.83
730	-0.836
730	-0.827
730	-0.832
731	-0.836
731	-0.836
732	-0.84
732	-0.836
733	-0.85
733	-0.856
734	-0.863
734	-0.857
734	-0.841
735	-0.831
735	-0.826
736	-0.825
736	-0.82
737	-0.818
737	-0.806
737	-0.797
738	-0.785
738	-0.773
739	-0.774
739	-0.776
740	-0.79
740	-0.791
741	-0.802
741	-0.812
741	-0.822
742	-0.828
742	-0.843
743	-0.849
743	-0.854
744	-0.857
744	-0.865
744	-0.857
745	-0.865
745	-0.853
746	-0.848
746	-0.839
747	-0.844
747	-0.834
748	-0.836
748	-0.841
748	-0.842
749	-0.834
749	-0.842
750	-0.834
750	-0.835
751	-0.835
751	-0.832
751	-0.843
752	-0.847
752	-0.849
753	-0.85
753	-0.841
754	-0.861
754	-0.859
754	-0.865
755	-0.865
755	-0.858
756	-0.863
756	-0.847
757	-0.84
757	-0.829
758	-0.83
758	-0.83
758	-0.825
759	-0.832
759	-0.832
760	-0.829
760	-0.831
761	-0.822
761	-0.828
761	-0.828
762	-0.836
762	-0.835
763	-0.836
763	-0.84
764	-0.838
764	-0.832
764	-0.84
765	-0.84
765	-0.847
766	-0.85
766	-0.852
767	-0.865
767	-0.86
768	-0.859
768	-0.852
768	-0.846
769	-0.852
769	-0.859
770	-0.869
770	-0.873
771	-0.869
771	-0.867
771	-0.872
772	-0.876
772	-0.897
773	-0.897
773	-0.898
774	-0.895
774	-0.876
775	-0.863
775	-0.863
775	-0.868
776	-0.88
776	-0.876
777	-0.879
777	-0.861
778	-0.87
778	-0.879
778	-0.879
779	-0.888
779	-0.905
780	-0.9
780	-0.908
781	-0.896
781	-0.885
781	-0.897
782	-0.919
782	-0.921
783	-0.92
783	-0.927
784	-0.93
784	-0.923
784	-0.944
785	-0.937
785	-0.951
786	-0.956
786	-0.949
787	-0.937
787	-0.945
788	-0.937
788	-0.933
788	-0.934
789	-0.933
789	-0.922
790	-0.921
790	-0.904
791	-0.91
791	-0.906
791	-0.901
792	-0.896
792	-0.9
793	-0.903
793	-0.891
794	-0.885
794	-0.88
794	-0.887
795	-0.906
795	-0.892
796	-0.897
796	-0.893
797	-0.887
797	-0.877
797	-0.869
798	-0.89
798	-0.894
799	-0.892
799	-0.878
800	-0.873
800	-0.882
801	-0.88
801	-0.883
801	-0.88
802	-0.88
802	-0.878
803	-0.873
803	-0.865
804	-0.87
804	-0.878
804	-0.861
805	-0.843
805	-0.836
806	-0.836
806	-0.832
807	-0.832
807	-0.831
807	-0.815
808	-0.811
808	-0.805
809	-0.798
809	-0.799
810	-0.803
810	-0.799
810	-0.796
811	-0.798
811	-0.79
812	-0.784
812	-0.786
813	-0.79
813	-0.792
813	-0.789
814	-0.79
814	-0.794
815	-0.785
815	-0.781
816	-0.778
816	-0.796
817	-0.808
817	-0.811
817	-0.822
818	-0.817
818	-0.814
819	-0.825
819	-0.822
820	-0.835
820	-0.833
820	-0.833
821	-0.825
821	-0.822
822	-0.821
822	-0.807
823	-0.818
823	-0.817
823	-0.811
824	-0.812
824	-0.821
825	-0.82
825	-0.817
826	-0.815
826	-0.809
826	-0.807
827	-0.807
827	-0.796
828	-0.795
828	-0.788
829	-0.782
829	-0.767
829	-0.765
830	-0.764
830	-0.748
831	-0.743
831	-0.733
832	-0.726
832	-0.721
832	-0.713
833	-0.712
833	-0.717
834	-0.711
834	-0.705
835	-0.698
835	-0.698
835	-0.693
836	-0.689
836	-0.685
837	-0.675
837	-0.667
838	-0.653
838	-0.636
839	-0.63
839	-0.617
839	-0.607
840	-0.605
840	-0.594
841	-0.585
841	-0.579
842	-0.57
842	-0.559
842	-0.557
843	-0.554
843	-0.549
844	-0.547
844	-0.535
845	-0.521
845	-0.511
845	-0.499
846	-0.487
846	-0.477
847	-0.466
847	-0.453
848	-0.437
848	-0.421
848	-0.407
849	-0.395
849	-0.384
850	-0.376
850	-0.365
851	-0.353
851	-0.335
851	-0.326
852	-0.311
852	-0.298
853	-0.291
853	-0.28
854	-0.27
854	-0.259
854	-0.246
855	-0.235
855	-0.227
856	-0.22
856	-0.211
857	-0.204
857	-0.197
857	-0.184
858	-0.173
858	-0.165
859	-0.153
859	-0.143
860	-0.132
860	-0.118
860	-0.109
861	-0.098
861	-0.088
862	-0.08
862	-0.072
863	-0.064
863	-0.054
863	-0.049
864	-0.043
864	-0.036
865	-0.029
865	-0.024
866	-0.018
866	-0.012
866	-0.007
867	-0.002
867	0.004
868	0.008
868	0.013
869	0.018
869	0.021
869	0.024
870	0.026
870	0.028
871	0.029
871	0.031
872	0.032
872	0.033
872	0.034
873	0.034
873	0.034
874	0.033
874	0.033
875	0.033
875	0.032
875	0.032
876	0.032
876	0.031
877	0.031
877	0.03
878	0.029
878	0.029
878	0.029
879	0.028
879	0.028
880	0.027
880	0.027
881	0.026
881	0.025
881	0.024
882	0.023
882	0.021
883	0.02
883	0.019
884	0.018
884	0.018
884	0.018
885	0.018
885	0.018
886	0.018
886	0.017
887	0.017
887	0.016
887	0.016
888	0.016
888	0.015
889	0.014
889	0.014
890	0.013
890	0.012
890	0.012
891	0.012
891	0.012
892	0.012
892	0.012
893	0.012
893	0.012
893	0.012
894	0.012
894	0.012
895	0.011
895	0.011
895	0.011
896	0.01
896	0.01
897	0.01
897	0.01
898	0.01
898	0.01
898	0.01
899	0.01
899	0.01
900	0.01
900	0.01
901	0.01
901	0.01
901	0.009
902	0.009
902	0.01
903	0.01
903	0.009
904	0.009
904	0.01
904	0.01
905	0.01
905	0.011
906	0.012
906	0.012
907	0.013
907	0.013
907	0.013
908	0.014
908	0.014
909	0.014
909	0.015
910	0.015
910	0.015
910	0.015
911	0.015
911	0.016
912	0.017
912	0.018
913	0.018
913	0.019
913	0.019
914	0.02
914	0.02
915	0.02
915	0.02
916	0.02
916	0.02
916	0.02
917	0.02
917	0.02
918	0.02
918	0.02
918	0.02
919	0.02
919	0.02
920	0.021
920	0.022
921	0.022
921	0.023
921	0.024
922	0.024
922	0.025
923	0.025
923	0.026
924	0.026
924	0.025
924	0.025
925	0.024
925	0.023
926	0.021
926	0.02
927	0.02
927	0.019
927	0.018
928	0.018
928	0.018
929	0.018
929	0.018
930	0.019
930	0.019
930	0.02
931	0.021
931	0.022
932	0.024
932	0.024
933	0.025
933	0.026
933	0.025
934	0.025
934	0.025
935	0.024
935	0.023
935	0.022
936	0.021
936	0.019
937	0.018
937	0.017
938	0.016
938	0.015
938	0.015
939	0.014
939	0.014
940	0.013
940	0.012
941	0.011
941	0.011
941	0.01
942	0.01
942	0.01
943	0.01
943	0.009
944	0.008
944	0.007
944	0.007
945	0.006
945	0.006
946	0.005
946	0.004
946	0.004
947	0.004
947	0.004
948	0.005
948	0.006
949	0.007
949	0.008
949	0.009
950	0.011
950	0.012
951	0.014
951	0.015
952	0.016
952	0.017
952	0.018
953	0.018
953	0.018
954	0.018
954	0.018
955	0.018
955	0.018
955	0.018
956	0.017
956	0.017
957	0.016
957	0.015
957	0.015
958	0.014
958	0.014
959	0.013
959	0.013
960	0.013
960	0.012
960	0.012
961	0.012
961	0.012
962	0.012
962	0.012
963	0.012
963	0.012
963	0.013
964	0.013
964	0.013
965	0.014
965	0.014
966	0.014
966	0.014
966	0.014
967	0.014
967	0.014
968	0.014
968	0.014
968	0.014
969	0.014
969	0.014
970	0.014
970	0.013
971	0.013
971	0.013
971	0.013
972	0.013
972	0.014
973	0.014
973	0.014
974	0.014
974	0.014
974	0.015
975	0.015
975	0.015
976	0.015
976	0.015
976	0.015
977	0.015
977	0.014
978	0.014
978	0.013
979	0.013
979	0.012
979	0.012
980	0.012
980	0.012
981	0.012
981	0.012
982	0.012
982	0.012
982	0.012
983	0.012
983	0.012
984	0.012
984	0.012
984	0.011
985	0.011
985	0.011
986	0.01
986	0.009
987	0.008
987	0.008
987	0.007
988	0.007
988	0.006
989	0.005
989	0.004
990	0.003
990	0.002
990	0.002
991	0.001
991	0
992	-0
992	-0.001
992	-0.002
993	-0.002
993	-0.003
994	-0.004
994	-0.006
995	-0.007
995	-0.009
995	-0.01
996	-0.011
996	-0.012
997	-0.014
997	-0.015
997	-0.016
998	-0.016
998	-0.016
999	-0.016
999	-0.016
1000	-0.016
1000	-0.016
1000	-0.015
1001	-0.014
1001	-0.013
1002	-0.013
1002	-0.013
1003	-0.013
1003	-0.013
1003	-0.013
1004	-0.013
1004	-0.013
1005	-0.013
1005	-0.014
1005	-0.014
1006	-0.015
1006	-0.016
1007	-0.017
1007	-0.017
1008	-0.018
1008	-0.018
1008	-0.018
1009	-0.019
1009	-0.018
1010	-0.018
1010	-0.017
1010	-0.017
1011	-0.016
1011	-0.015
1012	-0.015
1012	-0.013
1013	-0.012
1013	-0.011
1013	-0.01
1014	-0.01
1014	-0.009
1015	-0.008
1015	-0.008
1016	-0.007
1016	-0.007
1016	-0.007
1017	-0.008
1017	-0.008
1018	-0.008
1018	-0.008
1018	-0.008
1019	-0.008
1019	-0.009
1020	-0.009
1020	-0.01
1021	-0.01
1021	-0.01
1021	-0.01
1022	-0.011
1022	-0.011
1023	-0.01
1023	-0.01
1023	-0.01
1024	-0.01
1024	-0.01
1025	-0.009
1025	-0.009
1026	-0.009
1026	-0.008
1026	-0.008
1027	-0.008
1027	-0.008
1028	-0.007
1028	-0.006
1028	-0.006
1029	-0.006
1029	-0.005
1030	-0.006
1030	-0.006
1031	-0.006
1031	-0.005
1031	-0.005
1032	-0.005
1032	-0.005
1033	-0.006
1033	-0.006
1033	-0.006
1034	-0.007
1034	-0.007
1035	-0.007
1035	-0.007
1036	-0.008
1036	-0.008
1036	-0.008
1037	-0.008
1037	-0.008
1038	-0.008
1038	-0.008
1039	-0.008
1039	-0.007
1039	-0.007
1040	-0.007
1040	-0.006
1041	-0.006
1041	-0.006
1041	-0.007
1042	-0.007
1042	-0.008
1043	-0.009
1043	-0.01
1044	-0.01
1044	-0.012
1044	-0.012
1045	-0.014
1045	-0.014
1046	-0.015
1046	-0.016
1046	-0.016
1047	-0.017
1047	-0.017
1048	-0.016
1048	-0.016
1049	-0.016
1049	-0.016
1049	-0.016
1050	-0.016
1050	-0.017
1051	-0.017
1051	-0.018
1051	-0.018
1052	-0.019
1052	-0.02
1053	-0.02
1053	-0.021
1053	-0.021
1054	-0.022
1054	-0.022
1055	-0.022
1055	-0.022
1056	-0.022
1056	-0.022
1056	-0.023
1057	-0.023
1057	-0.023
1058	-0.023
1058	-0.024
1058	-0.024
1059	-0.024
1059	-0.025
1060	-0.026
1060	-0.026
1061	-0.026
1061	-0.026
1061	-0.026
1062	-0.027
1062	-0.027
1063	-0.027
1063	-0.027
1063	-0.027
1064	-0.026
1064	-0.026
1065	-0.025
1065	-0.025
1066	-0.026
1066	-0.026
1066	-0.026
1067	-0.026
1067	-0.026
1068	-0.027
1068	-0.028
1068	-0.028
1069	-0.029
1069	-0.03
1070	-0.031
1070	-0.031
1071	-0.032
1071	-0.032
1071	-0.033
1072	-0.033
1072	-0.033
1073	-0.033
1073	-0.034
1073	-0.034
1074	-0.034
1074	-0.035
1075	-0.036
1075	-0.036
1076	-0.037
1076	-0.037
1076	-0.038
1077	-0.039
1077	-0.04
1078	-0.041
1078	-0.042
1078	-0.042
1079	-0.043
1079	-0.043
1080	-0.044
1080	-0.045
1080	-0.046
1081	-0.047
1081	-0.048
1082	-0.048
1082	-0.05
1083	-0.051
1083	-0.052
1083	-0.053
1084	-0.054
1084	-0.055
1085	-0.057
1085	-0.058
1085	-0.058
1086	-0.059
1086	-0.061
1087	-0.061
1087	-0.062
1088	-0.063
1088	-0.064
1088	-0.064
1089	-0.066
1089	-0.066
1090	-0.067
1090	-0.068
1090	-0.07
1091	-0.071
1091	-0.07
1092	-0.071
1092	-0.071
1092	-0.072
1093	-0.073
1093	-0.073
1094	-0.074
1094	-0.074
1095	-0.076
1095	-0.076
1095	-0.076
1096	-0.077
1096	-0.079
1097	-0.081
1097	-0.082
1097	-0.084
1098	-0.086
1098	-0.088
1099	-0.09
1099	-0.091
1100	-0.094
1100	-0.096
1100	-0.1
1101	-0.103
1101	-0.106
1102	-0.108
1102	-0.111
1102	-0.112
1103	-0.115
1103	-0.118
1104	-0.121
1104	-0.124
1104	-0.126
1105	-0.128
1105	-0.13
1106	-0.135
1106	-0.136
1107	-0.141
1107	-0.147
1107	-0.152
1108	-0.153
1108	-0.155
1109	-0.158
1109	-0.162
1109	-0.166
1110	-0.168
1110	-0.172
1111	-0.184
1111	-0.184
