Data from 3.4A_17C_Absorbance__199__02111.txt Node

Date: Tue Jun 20 16:31:33 CEST 2023
User: Marek
Spectrometer: MAYP115816
Trigger mode: 0
Integration Time (sec): 2.200000E-1
Scans to average: 10
Electric dark correction enabled: true
Nonlinearity correction enabled: true
Boxcar width: 5
XAxis mode: Wavelengths
Number of Pixels in Spectrum: 2068
>>>>>Begin Spectral Data<<<<<
199	-0.799
199	-0.783
200	-0.754
200	-0.696
201	-0.67
201	-0.661
202	-0.643
202	-0.637
203	-0.635
203	-0.627
204	-0.606
204	-0.589
205	-0.566
205	-0.555
205	-0.564
206	-0.563
206	-0.558
207	-0.551
207	-0.558
208	-0.56
208	-0.565
209	-0.568
209	-0.573
210	-0.585
210	-0.59
211	-0.584
211	-0.588
212	-0.598
212	-0.606
213	-0.602
213	-0.599
213	-0.596
214	-0.602
214	-0.604
215	-0.602
215	-0.608
216	-0.619
216	-0.625
217	-0.623
217	-0.622
218	-0.629
218	-0.628
219	-0.635
219	-0.637
220	-0.642
220	-0.65
221	-0.651
221	-0.65
221	-0.641
222	-0.641
222	-0.639
223	-0.636
223	-0.64
224	-0.641
224	-0.639
225	-0.634
225	-0.633
226	-0.633
226	-0.632
227	-0.64
227	-0.649
228	-0.653
228	-0.662
229	-0.666
229	-0.664
229	-0.665
230	-0.661
230	-0.658
231	-0.655
231	-0.65
232	-0.652
232	-0.646
233	-0.647
233	-0.635
234	-0.636
234	-0.631
235	-0.635
235	-0.647
236	-0.655
236	-0.657
236	-0.657
237	-0.657
237	-0.659
238	-0.66
238	-0.662
239	-0.663
239	-0.672
240	-0.666
240	-0.66
241	-0.655
241	-0.658
242	-0.662
242	-0.669
243	-0.668
243	-0.67
243	-0.675
244	-0.672
244	-0.673
245	-0.675
245	-0.68
246	-0.689
246	-0.691
247	-0.7
247	-0.686
248	-0.686
248	-0.688
249	-0.693
249	-0.695
250	-0.694
250	-0.703
250	-0.699
251	-0.7
251	-0.696
252	-0.697
252	-0.708
253	-0.703
253	-0.715
254	-0.718
254	-0.718
255	-0.728
255	-0.725
256	-0.728
256	-0.74
257	-0.751
257	-0.746
258	-0.747
258	-0.754
258	-0.752
259	-0.746
259	-0.763
260	-0.764
260	-0.753
261	-0.765
261	-0.752
262	-0.757
262	-0.758
263	-0.75
263	-0.757
264	-0.767
264	-0.769
265	-0.761
265	-0.761
265	-0.771
266	-0.762
266	-0.761
267	-0.759
267	-0.774
268	-0.783
268	-0.776
269	-0.767
269	-0.782
270	-0.785
270	-0.786
271	-0.799
271	-0.808
272	-0.809
272	-0.813
272	-0.807
273	-0.816
273	-0.832
274	-0.823
274	-0.819
275	-0.817
275	-0.805
276	-0.808
276	-0.813
277	-0.814
277	-0.811
278	-0.815
278	-0.813
278	-0.8
279	-0.81
279	-0.824
280	-0.826
280	-0.836
281	-0.831
281	-0.824
282	-0.831
282	-0.825
283	-0.817
283	-0.833
284	-0.847
284	-0.855
285	-0.833
285	-0.838
285	-0.832
286	-0.837
286	-0.853
287	-0.848
287	-0.847
288	-0.848
288	-0.829
289	-0.827
289	-0.835
290	-0.844
290	-0.835
291	-0.838
291	-0.835
292	-0.817
292	-0.815
292	-0.819
293	-0.806
293	-0.802
294	-0.802
294	-0.79
295	-0.774
295	-0.783
296	-0.796
296	-0.79
297	-0.778
297	-0.784
298	-0.78
298	-0.798
298	-0.803
299	-0.785
299	-0.776
300	-0.772
300	-0.754
301	-0.733
301	-0.736
302	-0.746
302	-0.729
303	-0.722
303	-0.71
304	-0.694
304	-0.697
305	-0.689
305	-0.698
305	-0.714
306	-0.7
306	-0.698
307	-0.689
307	-0.701
308	-0.705
308	-0.7
309	-0.7
309	-0.693
310	-0.691
310	-0.686
311	-0.672
311	-0.688
311	-0.676
312	-0.673
312	-0.66
313	-0.65
313	-0.651
314	-0.656
314	-0.654
315	-0.652
315	-0.646
316	-0.641
316	-0.634
317	-0.626
317	-0.625
318	-0.615
318	-0.614
318	-0.603
319	-0.594
319	-0.588
320	-0.585
320	-0.581
321	-0.577
321	-0.575
322	-0.568
322	-0.56
323	-0.562
323	-0.552
324	-0.551
324	-0.536
324	-0.525
325	-0.509
325	-0.492
326	-0.482
326	-0.456
327	-0.442
327	-0.419
328	-0.386
328	-0.362
329	-0.331
329	-0.304
330	-0.275
330	-0.237
330	-0.2
331	-0.161
331	-0.126
332	-0.089
332	-0.054
333	-0.022
333	0.014
334	0.046
334	0.074
335	0.103
335	0.127
336	0.152
336	0.175
336	0.194
337	0.214
337	0.234
338	0.25
338	0.262
339	0.277
339	0.29
340	0.3
340	0.31
341	0.319
341	0.325
342	0.333
342	0.34
342	0.345
343	0.35
343	0.356
344	0.359
344	0.363
345	0.366
345	0.369
346	0.371
346	0.374
347	0.376
347	0.378
348	0.379
348	0.381
348	0.383
349	0.383
349	0.385
350	0.386
350	0.387
351	0.387
351	0.388
352	0.388
352	0.388
353	0.389
353	0.389
354	0.389
354	0.389
354	0.389
355	0.389
355	0.389
356	0.389
356	0.389
357	0.389
357	0.389
358	0.388
358	0.389
359	0.389
359	0.389
360	0.389
360	0.389
360	0.389
361	0.389
361	0.389
362	0.389
362	0.389
363	0.389
363	0.389
364	0.389
364	0.389
365	0.389
365	0.388
366	0.388
366	0.388
366	0.388
367	0.388
367	0.387
368	0.387
368	0.386
369	0.386
369	0.386
370	0.386
370	0.385
371	0.385
371	0.385
372	0.384
372	0.384
372	0.384
373	0.384
373	0.384
374	0.383
374	0.383
375	0.383
375	0.382
376	0.382
376	0.382
377	0.381
377	0.381
378	0.38
378	0.38
378	0.379
379	0.379
379	0.378
380	0.378
380	0.378
381	0.377
381	0.377
382	0.376
382	0.376
383	0.376
383	0.375
383	0.375
384	0.374
384	0.374
385	0.373
385	0.373
386	0.373
386	0.373
387	0.372
387	0.372
388	0.371
388	0.371
389	0.371
389	0.37
389	0.37
390	0.37
390	0.37
391	0.369
391	0.369
392	0.368
392	0.368
393	0.368
393	0.367
394	0.367
394	0.366
394	0.366
395	0.365
395	0.365
396	0.364
396	0.364
397	0.364
397	0.363
398	0.363
398	0.362
399	0.362
399	0.362
400	0.361
400	0.361
400	0.361
401	0.36
401	0.36
402	0.359
402	0.359
403	0.359
403	0.359
404	0.358
404	0.358
405	0.357
405	0.357
405	0.356
406	0.356
406	0.356
407	0.356
407	0.355
408	0.355
408	0.355
409	0.355
409	0.354
410	0.354
410	0.354
411	0.354
411	0.353
411	0.353
412	0.353
412	0.352
413	0.352
413	0.352
414	0.351
414	0.351
415	0.351
415	0.35
416	0.35
416	0.349
416	0.349
417	0.349
417	0.348
418	0.348
418	0.348
419	0.348
419	0.348
420	0.348
420	0.348
421	0.348
421	0.348
421	0.348
422	0.348
422	0.348
423	0.348
423	0.347
424	0.347
424	0.347
425	0.347
425	0.347
426	0.346
426	0.346
427	0.346
427	0.346
427	0.346
428	0.346
428	0.346
429	0.345
429	0.345
430	0.344
430	0.344
431	0.344
431	0.343
432	0.343
432	0.343
432	0.342
433	0.342
433	0.342
434	0.342
434	0.342
435	0.342
435	0.343
436	0.342
436	0.343
437	0.342
437	0.342
437	0.342
438	0.342
438	0.342
439	0.342
439	0.342
440	0.342
440	0.342
441	0.342
441	0.341
442	0.341
442	0.341
442	0.341
443	0.341
443	0.341
444	0.341
444	0.341
445	0.341
445	0.341
446	0.341
446	0.341
447	0.341
447	0.342
447	0.342
448	0.342
448	0.342
449	0.342
449	0.342
450	0.342
450	0.342
451	0.342
451	0.343
452	0.343
452	0.343
452	0.343
453	0.343
453	0.343
454	0.343
454	0.344
455	0.344
455	0.345
456	0.345
456	0.345
457	0.345
457	0.345
458	0.345
458	0.345
458	0.345
459	0.345
459	0.345
460	0.345
460	0.345
461	0.345
461	0.346
462	0.346
462	0.347
463	0.348
463	0.349
463	0.349
464	0.35
464	0.351
465	0.351
465	0.352
466	0.353
466	0.353
467	0.354
467	0.354
467	0.354
468	0.354
468	0.355
469	0.355
469	0.356
470	0.357
470	0.357
471	0.357
471	0.358
472	0.358
472	0.359
472	0.36
473	0.361
473	0.362
474	0.363
474	0.364
475	0.365
475	0.367
476	0.368
476	0.369
477	0.37
477	0.371
477	0.372
478	0.373
478	0.374
479	0.375
479	0.377
480	0.378
480	0.379
481	0.38
481	0.381
482	0.382
482	0.384
482	0.386
483	0.388
483	0.39
484	0.392
484	0.393
485	0.395
485	0.397
486	0.398
486	0.4
487	0.402
487	0.404
487	0.406
488	0.407
488	0.408
489	0.411
489	0.413
490	0.415
490	0.417
491	0.42
491	0.422
492	0.424
492	0.426
492	0.428
493	0.43
493	0.433
494	0.436
494	0.439
495	0.441
495	0.444
496	0.447
496	0.449
496	0.452
497	0.455
497	0.458
498	0.461
498	0.464
499	0.466
499	0.469
500	0.473
500	0.476
501	0.48
501	0.483
501	0.485
502	0.489
502	0.492
503	0.496
503	0.499
504	0.502
504	0.505
505	0.509
505	0.513
506	0.517
506	0.52
506	0.524
507	0.528
507	0.532
508	0.536
508	0.54
509	0.544
509	0.547
510	0.551
510	0.555
511	0.558
511	0.562
511	0.565
512	0.568
512	0.571
513	0.573
513	0.576
514	0.579
514	0.583
515	0.585
515	0.588
515	0.59
516	0.593
516	0.596
517	0.599
517	0.601
518	0.604
518	0.606
519	0.607
519	0.609
520	0.611
520	0.614
520	0.616
521	0.617
521	0.618
522	0.619
522	0.622
523	0.623
523	0.625
524	0.626
524	0.628
524	0.629
525	0.63
525	0.631
526	0.632
526	0.633
527	0.633
527	0.633
528	0.633
528	0.633
529	0.633
529	0.632
529	0.632
530	0.631
530	0.631
531	0.63
531	0.629
532	0.627
532	0.626
533	0.626
533	0.625
533	0.623
534	0.622
534	0.62
535	0.618
535	0.617
536	0.615
536	0.613
537	0.611
537	0.608
538	0.606
538	0.603
538	0.601
539	0.599
539	0.596
540	0.593
540	0.59
541	0.587
541	0.584
542	0.581
542	0.577
542	0.574
543	0.57
543	0.566
544	0.562
544	0.558
545	0.555
545	0.551
546	0.547
546	0.543
547	0.539
547	0.535
547	0.531
548	0.528
548	0.524
549	0.52
549	0.516
550	0.512
550	0.508
551	0.503
551	0.499
551	0.495
552	0.491
552	0.487
553	0.483
553	0.479
554	0.474
554	0.469
555	0.465
555	0.461
556	0.456
556	0.452
556	0.447
557	0.443
557	0.439
558	0.434
558	0.43
559	0.425
559	0.421
560	0.416
560	0.411
560	0.408
561	0.404
561	0.4
562	0.397
562	0.393
563	0.389
563	0.385
564	0.381
564	0.378
564	0.374
565	0.371
565	0.368
566	0.364
566	0.361
567	0.357
567	0.354
568	0.35
568	0.346
568	0.343
569	0.339
569	0.335
570	0.331
570	0.327
571	0.324
571	0.321
572	0.317
572	0.313
573	0.309
573	0.306
573	0.302
574	0.299
574	0.297
575	0.294
575	0.292
576	0.29
576	0.286
577	0.282
577	0.28
577	0.278
578	0.276
578	0.275
579	0.273
579	0.271
580	0.267
580	0.263
581	0.259
581	0.256
581	0.255
582	0.253
582	0.251
583	0.25
583	0.246
584	0.242
584	0.239
585	0.237
585	0.236
585	0.235
586	0.233
586	0.23
587	0.227
587	0.225
588	0.222
588	0.219
589	0.218
589	0.216
590	0.213
590	0.211
590	0.21
591	0.208
591	0.205
592	0.203
592	0.2
593	0.199
593	0.197
594	0.195
594	0.193
594	0.191
595	0.189
595	0.186
596	0.184
596	0.183
597	0.183
597	0.181
598	0.18
598	0.178
598	0.177
599	0.176
599	0.175
600	0.173
600	0.172
601	0.172
601	0.171
602	0.169
602	0.168
602	0.167
603	0.166
603	0.165
604	0.164
604	0.163
605	0.163
605	0.162
606	0.161
606	0.158
606	0.157
607	0.155
607	0.154
608	0.153
608	0.151
609	0.149
609	0.149
610	0.147
610	0.145
610	0.144
611	0.144
611	0.143
612	0.142
612	0.141
613	0.14
613	0.139
614	0.137
614	0.136
614	0.134
615	0.132
615	0.131
616	0.13
616	0.128
617	0.127
617	0.126
618	0.125
618	0.124
618	0.123
619	0.122
619	0.122
620	0.122
620	0.121
621	0.12
621	0.118
622	0.117
622	0.115
622	0.113
623	0.112
623	0.112
624	0.111
624	0.109
625	0.108
625	0.108
626	0.106
626	0.106
626	0.105
627	0.105
627	0.105
628	0.104
628	0.103
629	0.102
629	0.101
630	0.1
630	0.099
630	0.098
631	0.097
631	0.096
632	0.094
632	0.093
633	0.092
633	0.09
634	0.089
634	0.087
634	0.086
635	0.085
635	0.083
636	0.081
636	0.08
637	0.078
637	0.076
638	0.074
638	0.072
638	0.07
639	0.067
639	0.064
640	0.061
640	0.059
641	0.056
641	0.053
642	0.05
642	0.047
642	0.044
643	0.041
643	0.037
644	0.034
644	0.03
645	0.027
645	0.023
646	0.02
646	0.015
646	0.011
647	0.006
647	0.001
648	-0.004
648	-0.01
649	-0.015
649	-0.019
650	-0.024
650	-0.03
650	-0.035
651	-0.042
651	-0.051
652	-0.06
652	-0.07
653	-0.079
653	-0.087
653	-0.081
654	-0.067
654	-0.065
655	-0.07
655	-0.073
656	-0.078
656	-0.083
657	-0.086
657	-0.09
657	-0.095
658	-0.099
658	-0.125
659	-0.193
659	-0.26
660	-0.289
660	-0.31
661	-0.331
661	-0.353
661	-0.377
662	-0.396
662	-0.418
663	-0.441
663	-0.469
664	-0.493
664	-0.521
665	-0.552
665	-0.584
665	-0.613
666	-0.648
666	-0.684
667	-0.722
667	-0.767
668	-0.81
668	-0.864
669	-0.917
669	-0.974
669	-1.038
670	-1.105
670	-1.2
671	-1.351
671	-1.666
672	-2.121
672	-2.35
672	-2.503
673	-2.619
673	-2.713
674	-2.748
674	-2.759
675	-2.775
675	-2.78
676	-2.783
676	-2.763
676	-2.682
677	-2.579
677	-2.447
678	-2.232
678	-1.75
679	-1.395
679	-1.254
680	-1.174
680	-1.115
680	-1.067
681	-1.037
681	-1.001
682	-0.975
682	-0.945
683	-0.914
683	-0.903
684	-0.889
684	-0.881
684	-0.867
685	-0.858
685	-0.858
686	-0.843
686	-0.836
687	-0.833
687	-0.83
687	-0.837
688	-0.827
688	-0.823
689	-0.833
689	-0.834
690	-0.824
690	-0.817
691	-0.818
691	-0.825
691	-0.826
692	-0.829
692	-0.827
693	-0.838
693	-0.852
694	-0.833
694	-0.835
695	-0.842
695	-0.837
695	-0.846
696	-0.854
696	-0.849
697	-0.844
697	-0.842
698	-0.838
698	-0.831
698	-0.846
699	-0.845
699	-0.847
700	-0.868
700	-0.862
701	-0.85
701	-0.847
702	-0.848
702	-0.845
702	-0.846
703	-0.837
703	-0.826
704	-0.833
704	-0.836
705	-0.824
705	-0.825
705	-0.82
706	-0.812
706	-0.809
707	-0.824
707	-0.828
708	-0.826
708	-0.825
709	-0.827
709	-0.825
709	-0.822
710	-0.829
710	-0.833
711	-0.834
711	-0.834
712	-0.824
712	-0.821
713	-0.827
713	-0.828
713	-0.807
714	-0.808
714	-0.812
715	-0.803
715	-0.811
716	-0.827
716	-0.837
716	-0.836
717	-0.842
717	-0.835
718	-0.83
718	-0.832
719	-0.829
719	-0.821
720	-0.817
720	-0.812
720	-0.806
721	-0.797
721	-0.803
722	-0.8
722	-0.796
723	-0.814
723	-0.827
723	-0.837
724	-0.836
724	-0.843
725	-0.838
725	-0.841
726	-0.845
726	-0.836
727	-0.839
727	-0.847
727	-0.837
728	-0.823
728	-0.818
729	-0.821
729	-0.823
730	-0.828
730	-0.819
730	-0.825
731	-0.828
731	-0.826
732	-0.829
732	-0.825
733	-0.842
733	-0.849
734	-0.858
734	-0.851
734	-0.832
735	-0.825
735	-0.819
736	-0.819
736	-0.815
737	-0.815
737	-0.805
737	-0.797
738	-0.782
738	-0.768
739	-0.77
739	-0.772
740	-0.784
740	-0.786
741	-0.796
741	-0.805
741	-0.813
742	-0.82
742	-0.836
743	-0.843
743	-0.847
744	-0.849
744	-0.859
744	-0.852
745	-0.86
745	-0.849
746	-0.846
746	-0.837
747	-0.84
747	-0.83
748	-0.832
748	-0.835
748	-0.838
749	-0.83
749	-0.836
750	-0.828
750	-0.829
751	-0.827
751	-0.824
751	-0.835
752	-0.838
752	-0.842
753	-0.844
753	-0.836
754	-0.854
754	-0.853
754	-0.86
755	-0.86
755	-0.851
756	-0.854
756	-0.84
757	-0.832
757	-0.822
758	-0.823
758	-0.822
758	-0.819
759	-0.823
759	-0.825
760	-0.823
760	-0.825
761	-0.82
761	-0.826
761	-0.827
762	-0.832
762	-0.834
763	-0.835
763	-0.839
764	-0.839
764	-0.833
764	-0.839
765	-0.837
765	-0.844
766	-0.845
766	-0.847
767	-0.863
767	-0.857
768	-0.855
768	-0.847
768	-0.841
769	-0.846
769	-0.854
770	-0.866
770	-0.869
771	-0.867
771	-0.864
771	-0.871
772	-0.874
772	-0.895
773	-0.897
773	-0.897
774	-0.894
774	-0.876
775	-0.863
775	-0.862
775	-0.866
776	-0.876
776	-0.87
777	-0.869
777	-0.851
778	-0.861
778	-0.869
778	-0.869
779	-0.877
779	-0.892
780	-0.889
780	-0.898
781	-0.888
781	-0.878
781	-0.893
782	-0.913
782	-0.913
783	-0.913
783	-0.921
784	-0.923
784	-0.919
784	-0.938
785	-0.932
785	-0.945
786	-0.949
786	-0.943
787	-0.934
787	-0.942
788	-0.936
788	-0.931
788	-0.934
789	-0.934
789	-0.921
790	-0.92
790	-0.905
791	-0.913
791	-0.909
791	-0.902
792	-0.897
792	-0.902
793	-0.905
793	-0.89
794	-0.884
794	-0.879
794	-0.886
795	-0.905
795	-0.891
796	-0.896
796	-0.894
797	-0.887
797	-0.877
797	-0.871
798	-0.892
798	-0.896
799	-0.894
799	-0.879
800	-0.873
800	-0.881
801	-0.878
801	-0.882
801	-0.879
802	-0.878
802	-0.876
803	-0.872
803	-0.863
804	-0.871
804	-0.878
804	-0.863
805	-0.845
805	-0.837
806	-0.837
806	-0.833
807	-0.835
807	-0.835
807	-0.817
808	-0.812
808	-0.803
809	-0.8
809	-0.801
810	-0.803
810	-0.8
810	-0.796
811	-0.799
811	-0.789
812	-0.784
812	-0.788
813	-0.792
813	-0.793
813	-0.789
814	-0.788
814	-0.795
815	-0.784
815	-0.78
816	-0.775
816	-0.792
817	-0.805
817	-0.807
817	-0.817
818	-0.81
818	-0.808
819	-0.817
819	-0.815
820	-0.827
820	-0.829
820	-0.828
821	-0.823
821	-0.818
822	-0.818
822	-0.805
823	-0.817
823	-0.815
823	-0.81
824	-0.808
824	-0.818
825	-0.815
825	-0.812
826	-0.807
826	-0.803
826	-0.803
827	-0.804
827	-0.794
828	-0.794
828	-0.789
829	-0.782
829	-0.768
829	-0.766
830	-0.764
830	-0.752
831	-0.745
831	-0.734
832	-0.725
832	-0.72
832	-0.714
833	-0.713
833	-0.718
834	-0.713
834	-0.707
835	-0.701
835	-0.7
835	-0.694
836	-0.691
836	-0.688
837	-0.678
837	-0.669
838	-0.656
838	-0.64
839	-0.634
839	-0.622
839	-0.61
840	-0.609
840	-0.6
841	-0.588
841	-0.581
842	-0.574
842	-0.562
842	-0.559
843	-0.555
843	-0.551
844	-0.549
844	-0.539
845	-0.524
845	-0.515
845	-0.505
846	-0.493
846	-0.482
847	-0.471
847	-0.459
848	-0.444
848	-0.426
848	-0.413
849	-0.4
849	-0.389
850	-0.379
850	-0.369
851	-0.356
851	-0.341
851	-0.332
852	-0.316
852	-0.303
853	-0.295
853	-0.284
854	-0.273
854	-0.261
854	-0.248
855	-0.237
855	-0.23
856	-0.222
856	-0.214
857	-0.207
857	-0.2
857	-0.186
858	-0.177
858	-0.17
859	-0.16
859	-0.15
860	-0.139
860	-0.125
860	-0.115
861	-0.106
861	-0.097
862	-0.088
862	-0.081
863	-0.073
863	-0.064
863	-0.058
864	-0.054
864	-0.047
865	-0.041
865	-0.035
866	-0.029
866	-0.024
866	-0.019
867	-0.014
867	-0.009
868	-0.005
868	0
869	0.005
869	0.008
869	0.01
870	0.012
870	0.014
871	0.015
871	0.017
872	0.018
872	0.02
872	0.021
873	0.021
873	0.021
874	0.02
874	0.02
875	0.02
875	0.02
875	0.02
876	0.02
876	0.019
877	0.019
877	0.018
878	0.018
878	0.017
878	0.017
879	0.017
879	0.016
880	0.016
880	0.015
881	0.014
881	0.013
881	0.013
882	0.011
882	0.01
883	0.008
883	0.007
884	0.007
884	0.006
884	0.006
885	0.006
885	0.006
886	0.006
886	0.005
887	0.005
887	0.004
887	0.004
888	0.004
888	0.004
889	0.003
889	0.002
890	0.001
890	0.001
890	0.001
891	0.001
891	0.001
892	0.001
892	0.001
893	0.001
893	0.001
893	0.001
894	0.002
894	0.001
895	0.001
895	0.001
895	0
896	0
896	-0
897	-0
897	-0
898	-0
898	-0
898	-0
899	0
899	0.001
900	0.001
900	0.001
901	0
901	-0
901	-0.001
902	-0.001
902	-0.001
903	-0.001
903	-0.002
904	-0.002
904	-0.002
904	-0.001
905	-0.001
905	-0
906	0.001
906	0.002
907	0.002
907	0.002
907	0.003
908	0.003
908	0.004
909	0.004
909	0.004
910	0.004
910	0.005
910	0.005
911	0.005
911	0.006
912	0.007
912	0.008
913	0.009
913	0.009
913	0.01
914	0.01
914	0.01
915	0.01
915	0.011
916	0.011
916	0.011
916	0.01
917	0.01
917	0.01
918	0.01
918	0.01
918	0.01
919	0.01
919	0.01
920	0.011
920	0.011
921	0.012
921	0.013
921	0.014
922	0.014
922	0.015
923	0.015
923	0.015
924	0.015
924	0.015
924	0.014
925	0.013
925	0.012
926	0.011
926	0.01
927	0.009
927	0.008
927	0.008
928	0.007
928	0.007
929	0.007
929	0.008
930	0.008
930	0.008
930	0.009
931	0.01
931	0.011
932	0.012
932	0.013
933	0.014
933	0.014
933	0.014
934	0.014
934	0.013
935	0.013
935	0.012
935	0.011
936	0.01
936	0.008
937	0.007
937	0.006
938	0.005
938	0.004
938	0.003
939	0.003
939	0.002
940	0.002
940	0.001
941	0
941	-0
941	-0
942	-0.001
942	-0.002
943	-0.002
943	-0.003
944	-0.003
944	-0.004
944	-0.005
945	-0.005
945	-0.005
946	-0.006
946	-0.006
946	-0.006
947	-0.006
947	-0.006
948	-0.005
948	-0.004
949	-0.003
949	-0.002
949	-0.001
950	0.001
950	0.002
951	0.004
951	0.005
952	0.005
952	0.007
952	0.008
953	0.008
953	0.009
954	0.009
954	0.009
955	0.009
955	0.009
955	0.009
956	0.008
956	0.008
957	0.007
957	0.006
957	0.005
958	0.005
958	0.005
959	0.004
959	0.003
960	0.003
960	0.003
960	0.003
961	0.003
961	0.004
962	0.004
962	0.004
963	0.004
963	0.005
963	0.005
964	0.005
964	0.005
965	0.006
965	0.006
966	0.006
966	0.006
966	0.006
967	0.006
967	0.006
968	0.006
968	0.006
968	0.006
969	0.005
969	0.005
970	0.005
970	0.005
971	0.005
971	0.005
971	0.005
972	0.005
972	0.006
973	0.006
973	0.006
974	0.006
974	0.007
974	0.007
975	0.007
975	0.007
976	0.007
976	0.007
976	0.007
977	0.007
977	0.006
978	0.006
978	0.005
979	0.004
979	0.004
979	0.004
980	0.004
980	0.004
981	0.004
981	0.004
982	0.004
982	0.004
982	0.004
983	0.004
983	0.004
984	0.004
984	0.004
984	0.003
985	0.003
985	0.002
986	0.002
986	0.001
987	0
987	-0.001
987	-0.001
988	-0.002
988	-0.002
989	-0.003
989	-0.004
990	-0.004
990	-0.005
990	-0.006
991	-0.007
991	-0.007
992	-0.008
992	-0.009
992	-0.009
993	-0.01
993	-0.011
994	-0.012
994	-0.013
995	-0.014
995	-0.015
995	-0.017
996	-0.018
996	-0.019
997	-0.02
997	-0.021
997	-0.022
998	-0.022
998	-0.022
999	-0.022
999	-0.022
1000	-0.021
1000	-0.021
1000	-0.021
1001	-0.02
1001	-0.019
1002	-0.019
1002	-0.019
1003	-0.019
1003	-0.019
1003	-0.019
1004	-0.02
1004	-0.02
1005	-0.02
1005	-0.021
1005	-0.021
1006	-0.022
1006	-0.023
1007	-0.024
1007	-0.025
1008	-0.025
1008	-0.026
1008	-0.026
1009	-0.027
1009	-0.026
1010	-0.026
1010	-0.026
1010	-0.025
1011	-0.024
1011	-0.023
1012	-0.022
1012	-0.021
1013	-0.019
1013	-0.019
1013	-0.018
1014	-0.017
1014	-0.016
1015	-0.015
1015	-0.014
1016	-0.014
1016	-0.014
1016	-0.014
1017	-0.014
1017	-0.014
1018	-0.014
1018	-0.015
1018	-0.015
1019	-0.015
1019	-0.015
1020	-0.016
1020	-0.016
1021	-0.017
1021	-0.017
1021	-0.017
1022	-0.018
1022	-0.018
1023	-0.018
1023	-0.018
1023	-0.018
1024	-0.017
1024	-0.017
1025	-0.017
1025	-0.016
1026	-0.016
1026	-0.016
1026	-0.016
1027	-0.015
1027	-0.015
1028	-0.014
1028	-0.014
1028	-0.013
1029	-0.013
1029	-0.013
1030	-0.013
1030	-0.013
1031	-0.013
1031	-0.012
1031	-0.012
1032	-0.012
1032	-0.012
1033	-0.013
1033	-0.013
1033	-0.013
1034	-0.013
1034	-0.013
1035	-0.013
1035	-0.014
1036	-0.014
1036	-0.015
1036	-0.015
1037	-0.015
1037	-0.015
1038	-0.015
1038	-0.014
1039	-0.014
1039	-0.013
1039	-0.013
1040	-0.013
1040	-0.012
1041	-0.012
1041	-0.012
1041	-0.013
1042	-0.014
1042	-0.014
1043	-0.015
1043	-0.016
1044	-0.017
1044	-0.018
1044	-0.019
1045	-0.02
1045	-0.021
1046	-0.022
1046	-0.022
1046	-0.022
1047	-0.022
1047	-0.022
1048	-0.022
1048	-0.021
1049	-0.021
1049	-0.022
1049	-0.022
1050	-0.022
1050	-0.022
1051	-0.023
1051	-0.024
1051	-0.024
1052	-0.025
1052	-0.025
1053	-0.026
1053	-0.027
1053	-0.027
1054	-0.028
1054	-0.028
1055	-0.028
1055	-0.028
1056	-0.029
1056	-0.029
1056	-0.029
1057	-0.029
1057	-0.029
1058	-0.029
1058	-0.03
1058	-0.03
1059	-0.03
1059	-0.031
1060	-0.032
1060	-0.032
1061	-0.032
1061	-0.032
1061	-0.032
1062	-0.032
1062	-0.032
1063	-0.032
1063	-0.032
1063	-0.032
1064	-0.031
1064	-0.031
1065	-0.031
1065	-0.031
1066	-0.031
1066	-0.031
1066	-0.031
1067	-0.032
1067	-0.033
1068	-0.033
1068	-0.034
1068	-0.034
1069	-0.035
1069	-0.036
1070	-0.036
1070	-0.037
1071	-0.037
1071	-0.037
1071	-0.038
1072	-0.038
1072	-0.038
1073	-0.038
1073	-0.038
1073	-0.039
1074	-0.039
1074	-0.039
1075	-0.04
1075	-0.04
1076	-0.042
1076	-0.042
1076	-0.043
1077	-0.044
1077	-0.045
1078	-0.046
1078	-0.047
1078	-0.047
1079	-0.048
1079	-0.048
1080	-0.05
1080	-0.05
1080	-0.052
1081	-0.053
1081	-0.054
1082	-0.054
1082	-0.056
1083	-0.056
1083	-0.058
1083	-0.059
1084	-0.06
1084	-0.06
1085	-0.062
1085	-0.063
1085	-0.063
1086	-0.064
1086	-0.065
1087	-0.066
1087	-0.066
1088	-0.068
1088	-0.069
1088	-0.069
1089	-0.07
1089	-0.071
1090	-0.071
1090	-0.072
1090	-0.073
1091	-0.074
1091	-0.074
1092	-0.075
1092	-0.075
1092	-0.076
1093	-0.077
1093	-0.077
1094	-0.077
1094	-0.078
1095	-0.079
1095	-0.08
1095	-0.08
1096	-0.081
1096	-0.083
1097	-0.084
1097	-0.086
1097	-0.087
1098	-0.09
1098	-0.092
1099	-0.094
1099	-0.096
1100	-0.099
1100	-0.101
1100	-0.105
1101	-0.107
1101	-0.11
1102	-0.112
1102	-0.114
1102	-0.116
1103	-0.118
1103	-0.121
1104	-0.124
1104	-0.127
1104	-0.128
1105	-0.13
1105	-0.134
1106	-0.138
1106	-0.141
1107	-0.146
1107	-0.151
1107	-0.156
1108	-0.158
1108	-0.159
1109	-0.162
1109	-0.167
1109	-0.171
1110	-0.172
1110	-0.176
1111	-0.186
1111	-0.182
