Data from 3.4A_17C_Absorbance__400__02312.txt Node

Date: Tue Jun 20 16:38:55 CEST 2023
User: Marek
Spectrometer: MAYP115816
Trigger mode: 0
Integration Time (sec): 2.200000E-1
Scans to average: 10
Electric dark correction enabled: true
Nonlinearity correction enabled: true
Boxcar width: 5
XAxis mode: Wavelengths
Number of Pixels in Spectrum: 2068
>>>>>Begin Spectral Data<<<<<
199	-0.793
199	-0.776
200	-0.743
200	-0.688
201	-0.661
201	-0.651
202	-0.634
202	-0.63
203	-0.633
203	-0.626
204	-0.605
204	-0.59
205	-0.568
205	-0.558
205	-0.566
206	-0.568
206	-0.565
207	-0.557
207	-0.562
208	-0.561
208	-0.566
209	-0.567
209	-0.573
210	-0.587
210	-0.595
211	-0.589
211	-0.593
212	-0.602
212	-0.611
213	-0.609
213	-0.603
213	-0.601
214	-0.607
214	-0.608
215	-0.604
215	-0.607
216	-0.617
216	-0.622
217	-0.619
217	-0.619
218	-0.626
218	-0.628
219	-0.634
219	-0.637
220	-0.641
220	-0.648
221	-0.649
221	-0.649
221	-0.641
222	-0.641
222	-0.639
223	-0.636
223	-0.639
224	-0.64
224	-0.639
225	-0.635
225	-0.637
226	-0.638
226	-0.638
227	-0.644
227	-0.655
228	-0.659
228	-0.666
229	-0.67
229	-0.667
229	-0.668
230	-0.664
230	-0.661
231	-0.658
231	-0.653
232	-0.656
232	-0.647
233	-0.649
233	-0.637
234	-0.638
234	-0.633
235	-0.637
235	-0.648
236	-0.654
236	-0.654
236	-0.654
237	-0.654
237	-0.656
238	-0.655
238	-0.657
239	-0.657
239	-0.668
240	-0.662
240	-0.657
241	-0.653
241	-0.657
242	-0.659
242	-0.668
243	-0.669
243	-0.671
243	-0.676
244	-0.674
244	-0.674
245	-0.676
245	-0.681
246	-0.691
246	-0.694
247	-0.702
247	-0.687
248	-0.687
248	-0.69
249	-0.694
249	-0.695
250	-0.695
250	-0.703
250	-0.701
251	-0.701
251	-0.697
252	-0.698
252	-0.71
253	-0.704
253	-0.717
254	-0.724
254	-0.725
255	-0.736
255	-0.736
256	-0.738
256	-0.751
257	-0.76
257	-0.756
258	-0.759
258	-0.767
258	-0.764
259	-0.756
259	-0.772
260	-0.769
260	-0.758
261	-0.769
261	-0.755
262	-0.761
262	-0.761
263	-0.751
263	-0.757
264	-0.766
264	-0.768
265	-0.761
265	-0.764
265	-0.775
266	-0.765
266	-0.767
267	-0.766
267	-0.783
268	-0.792
268	-0.785
269	-0.778
269	-0.794
270	-0.798
270	-0.798
271	-0.811
271	-0.821
272	-0.821
272	-0.823
272	-0.816
273	-0.823
273	-0.839
274	-0.829
274	-0.824
275	-0.82
275	-0.806
276	-0.809
276	-0.815
277	-0.817
277	-0.814
278	-0.819
278	-0.818
278	-0.805
279	-0.814
279	-0.827
280	-0.828
280	-0.84
281	-0.834
281	-0.826
282	-0.83
282	-0.825
283	-0.817
283	-0.834
284	-0.848
284	-0.859
285	-0.837
285	-0.846
285	-0.837
286	-0.842
286	-0.859
287	-0.856
287	-0.856
288	-0.854
288	-0.834
289	-0.833
289	-0.841
290	-0.849
290	-0.838
291	-0.842
291	-0.841
292	-0.82
292	-0.817
292	-0.819
293	-0.808
293	-0.807
294	-0.805
294	-0.792
295	-0.775
295	-0.788
296	-0.801
296	-0.796
297	-0.785
297	-0.791
298	-0.788
298	-0.804
298	-0.806
299	-0.79
299	-0.781
300	-0.777
300	-0.757
301	-0.738
301	-0.742
302	-0.752
302	-0.736
303	-0.73
303	-0.719
304	-0.702
304	-0.704
305	-0.696
305	-0.705
305	-0.719
306	-0.702
306	-0.7
307	-0.692
307	-0.702
308	-0.704
308	-0.7
309	-0.703
309	-0.699
310	-0.698
310	-0.691
311	-0.678
311	-0.698
311	-0.684
312	-0.683
312	-0.673
313	-0.664
313	-0.666
314	-0.67
314	-0.669
315	-0.667
315	-0.661
316	-0.656
316	-0.645
317	-0.637
317	-0.633
318	-0.625
318	-0.621
318	-0.61
319	-0.598
319	-0.589
320	-0.586
320	-0.584
321	-0.579
321	-0.578
322	-0.572
322	-0.566
323	-0.567
323	-0.558
324	-0.556
324	-0.546
324	-0.537
325	-0.521
325	-0.504
326	-0.495
326	-0.47
327	-0.455
327	-0.432
328	-0.398
328	-0.376
329	-0.346
329	-0.317
330	-0.288
330	-0.251
330	-0.214
331	-0.174
331	-0.14
332	-0.106
332	-0.071
333	-0.041
333	-0.006
334	0.025
334	0.053
335	0.081
335	0.103
336	0.125
336	0.147
336	0.165
337	0.184
337	0.202
338	0.216
338	0.227
339	0.241
339	0.253
340	0.262
340	0.272
341	0.28
341	0.286
342	0.293
342	0.299
342	0.304
343	0.309
343	0.314
344	0.317
344	0.32
345	0.323
345	0.326
346	0.328
346	0.331
347	0.333
347	0.334
348	0.336
348	0.337
348	0.339
349	0.339
349	0.341
350	0.342
350	0.342
351	0.343
351	0.343
352	0.343
352	0.343
353	0.344
353	0.344
354	0.344
354	0.344
354	0.344
355	0.344
355	0.344
356	0.345
356	0.344
357	0.344
357	0.344
358	0.344
358	0.344
359	0.344
359	0.344
360	0.344
360	0.344
360	0.344
361	0.344
361	0.344
362	0.344
362	0.344
363	0.344
363	0.344
364	0.344
364	0.344
365	0.344
365	0.344
366	0.344
366	0.344
366	0.344
367	0.344
367	0.343
368	0.343
368	0.343
369	0.343
369	0.342
370	0.342
370	0.342
371	0.342
371	0.341
372	0.341
372	0.341
372	0.341
373	0.341
373	0.341
374	0.341
374	0.34
375	0.34
375	0.34
376	0.34
376	0.34
377	0.339
377	0.339
378	0.338
378	0.338
378	0.337
379	0.337
379	0.337
380	0.336
380	0.336
381	0.336
381	0.336
382	0.335
382	0.335
383	0.335
383	0.335
383	0.334
384	0.334
384	0.334
385	0.333
385	0.333
386	0.333
386	0.332
387	0.332
387	0.332
388	0.332
388	0.332
389	0.332
389	0.332
389	0.331
390	0.331
390	0.331
391	0.331
391	0.331
392	0.33
392	0.33
393	0.33
393	0.33
394	0.329
394	0.329
394	0.329
395	0.328
395	0.328
396	0.327
396	0.327
397	0.327
397	0.327
398	0.326
398	0.326
399	0.326
399	0.325
400	0.325
400	0.325
400	0.325
401	0.324
401	0.323
402	0.323
402	0.323
403	0.323
403	0.323
404	0.322
404	0.322
405	0.322
405	0.322
405	0.321
406	0.321
406	0.321
407	0.321
407	0.32
408	0.32
408	0.319
409	0.319
409	0.319
410	0.319
410	0.319
411	0.319
411	0.318
411	0.318
412	0.318
412	0.317
413	0.317
413	0.317
414	0.317
414	0.317
415	0.316
415	0.316
416	0.315
416	0.315
416	0.315
417	0.315
417	0.314
418	0.315
418	0.314
419	0.314
419	0.314
420	0.314
420	0.314
421	0.314
421	0.314
421	0.314
422	0.314
422	0.314
423	0.314
423	0.313
424	0.313
424	0.313
425	0.313
425	0.313
426	0.313
426	0.313
427	0.313
427	0.313
427	0.312
428	0.312
428	0.312
429	0.312
429	0.311
430	0.311
430	0.311
431	0.31
431	0.31
432	0.31
432	0.309
432	0.309
433	0.309
433	0.309
434	0.309
434	0.31
435	0.31
435	0.31
436	0.31
436	0.31
437	0.309
437	0.309
437	0.309
438	0.309
438	0.309
439	0.309
439	0.309
440	0.308
440	0.309
441	0.308
441	0.308
442	0.308
442	0.308
442	0.308
443	0.308
443	0.308
444	0.308
444	0.308
445	0.308
445	0.308
446	0.308
446	0.308
447	0.308
447	0.308
447	0.308
448	0.308
448	0.308
449	0.308
449	0.308
450	0.308
450	0.308
451	0.308
451	0.308
452	0.308
452	0.308
452	0.309
453	0.308
453	0.308
454	0.308
454	0.309
455	0.309
455	0.309
456	0.309
456	0.309
457	0.309
457	0.309
458	0.309
458	0.309
458	0.309
459	0.309
459	0.309
460	0.309
460	0.308
461	0.308
461	0.309
462	0.31
462	0.31
463	0.311
463	0.311
463	0.312
464	0.312
464	0.313
465	0.313
465	0.314
466	0.314
466	0.315
467	0.315
467	0.315
467	0.315
468	0.315
468	0.315
469	0.316
469	0.316
470	0.317
470	0.317
471	0.317
471	0.317
472	0.318
472	0.318
472	0.319
473	0.32
473	0.32
474	0.321
474	0.322
475	0.323
475	0.324
476	0.324
476	0.325
477	0.326
477	0.327
477	0.328
478	0.328
478	0.329
479	0.33
479	0.331
480	0.331
480	0.332
481	0.333
481	0.334
482	0.335
482	0.336
482	0.337
483	0.339
483	0.341
484	0.342
484	0.343
485	0.345
485	0.346
486	0.347
486	0.349
487	0.35
487	0.352
487	0.353
488	0.354
488	0.355
489	0.356
489	0.358
490	0.359
490	0.361
491	0.363
491	0.364
492	0.366
492	0.367
492	0.368
493	0.37
493	0.372
494	0.374
494	0.377
495	0.379
495	0.38
496	0.382
496	0.384
496	0.387
497	0.389
497	0.391
498	0.393
498	0.395
499	0.398
499	0.4
500	0.403
500	0.406
501	0.408
501	0.41
501	0.412
502	0.415
502	0.417
503	0.42
503	0.422
504	0.425
504	0.427
505	0.43
505	0.433
506	0.436
506	0.439
506	0.442
507	0.445
507	0.448
508	0.451
508	0.454
509	0.457
509	0.46
510	0.463
510	0.466
511	0.469
511	0.471
511	0.474
512	0.476
512	0.478
513	0.48
513	0.482
514	0.484
514	0.487
515	0.489
515	0.491
515	0.492
516	0.495
516	0.497
517	0.499
517	0.502
518	0.504
518	0.505
519	0.507
519	0.508
520	0.51
520	0.512
520	0.513
521	0.514
521	0.516
522	0.517
522	0.518
523	0.52
523	0.521
524	0.522
524	0.524
524	0.524
525	0.525
525	0.526
526	0.527
526	0.528
527	0.528
527	0.529
528	0.529
528	0.529
529	0.529
529	0.529
529	0.528
530	0.529
530	0.529
531	0.528
531	0.528
532	0.527
532	0.526
533	0.526
533	0.526
533	0.525
534	0.524
534	0.523
535	0.522
535	0.522
536	0.521
536	0.52
537	0.519
537	0.517
538	0.516
538	0.514
538	0.513
539	0.512
539	0.51
540	0.508
540	0.506
541	0.504
541	0.502
542	0.5
542	0.498
542	0.496
543	0.493
543	0.49
544	0.488
544	0.485
545	0.483
545	0.481
546	0.479
546	0.476
547	0.473
547	0.47
547	0.468
548	0.466
548	0.463
549	0.461
549	0.459
550	0.456
550	0.454
551	0.451
551	0.448
551	0.446
552	0.443
552	0.44
553	0.438
553	0.435
554	0.432
554	0.429
555	0.426
555	0.423
556	0.42
556	0.417
556	0.414
557	0.412
557	0.409
558	0.406
558	0.404
559	0.401
559	0.398
560	0.395
560	0.392
560	0.39
561	0.388
561	0.386
562	0.384
562	0.381
563	0.379
563	0.377
564	0.375
564	0.373
564	0.371
565	0.369
565	0.368
566	0.365
566	0.363
567	0.361
567	0.359
568	0.357
568	0.354
568	0.352
569	0.35
569	0.348
570	0.345
570	0.342
571	0.34
571	0.338
572	0.335
572	0.333
573	0.331
573	0.328
573	0.325
574	0.324
574	0.322
575	0.321
575	0.321
576	0.319
576	0.317
577	0.314
577	0.313
577	0.312
578	0.311
578	0.311
579	0.31
579	0.309
580	0.306
580	0.303
581	0.3
581	0.299
581	0.298
582	0.298
582	0.297
583	0.296
583	0.294
584	0.291
584	0.289
585	0.289
585	0.289
585	0.288
586	0.287
586	0.285
587	0.283
587	0.281
588	0.279
588	0.278
589	0.277
589	0.275
590	0.274
590	0.272
590	0.272
591	0.271
591	0.269
592	0.267
592	0.266
593	0.265
593	0.264
594	0.262
594	0.26
594	0.259
595	0.258
595	0.256
596	0.254
596	0.254
597	0.255
597	0.254
598	0.253
598	0.253
598	0.252
599	0.251
599	0.25
600	0.249
600	0.248
601	0.248
601	0.248
602	0.246
602	0.246
602	0.244
603	0.244
603	0.244
604	0.244
604	0.243
605	0.243
605	0.243
606	0.241
606	0.239
606	0.238
607	0.237
607	0.236
608	0.235
608	0.233
609	0.232
609	0.231
610	0.23
610	0.228
610	0.228
611	0.227
611	0.227
612	0.226
612	0.226
613	0.225
613	0.224
614	0.223
614	0.221
614	0.22
615	0.218
615	0.216
616	0.215
616	0.214
617	0.213
617	0.212
618	0.211
618	0.21
618	0.209
619	0.208
619	0.208
620	0.209
620	0.208
621	0.206
621	0.205
622	0.203
622	0.202
622	0.199
623	0.198
623	0.197
624	0.197
624	0.195
625	0.194
625	0.193
626	0.191
626	0.19
626	0.19
627	0.189
627	0.189
628	0.188
628	0.187
629	0.186
629	0.184
630	0.182
630	0.18
630	0.179
631	0.178
631	0.176
632	0.174
632	0.172
633	0.169
633	0.167
634	0.165
634	0.163
634	0.161
635	0.159
635	0.156
636	0.153
636	0.151
637	0.148
637	0.145
638	0.142
638	0.139
638	0.136
639	0.132
639	0.128
640	0.124
640	0.119
641	0.115
641	0.111
642	0.107
642	0.102
642	0.098
643	0.093
643	0.088
644	0.083
644	0.077
645	0.072
645	0.067
646	0.062
646	0.056
646	0.049
647	0.043
647	0.036
648	0.029
648	0.021
649	0.013
649	0.006
650	-0
650	-0.008
650	-0.015
651	-0.025
651	-0.037
652	-0.05
652	-0.063
653	-0.075
653	-0.085
653	-0.081
654	-0.061
654	-0.055
655	-0.06
655	-0.065
656	-0.071
656	-0.077
657	-0.082
657	-0.086
657	-0.092
658	-0.099
658	-0.129
659	-0.214
659	-0.302
660	-0.341
660	-0.366
661	-0.393
661	-0.421
661	-0.451
662	-0.478
662	-0.506
663	-0.539
663	-0.574
664	-0.608
664	-0.647
665	-0.69
665	-0.734
665	-0.776
666	-0.825
666	-0.877
667	-0.929
667	-0.99
668	-1.047
668	-1.115
669	-1.182
669	-1.253
669	-1.329
670	-1.408
670	-1.514
671	-1.678
671	-2.028
672	-2.289
672	-2.458
672	-2.583
673	-2.681
673	-2.763
674	-2.83
674	-2.848
675	-2.864
675	-2.869
676	-2.867
676	-2.824
676	-2.756
677	-2.673
677	-2.574
678	-2.429
678	-2.194
679	-1.786
679	-1.596
680	-1.488
680	-1.41
680	-1.342
681	-1.293
681	-1.239
682	-1.198
682	-1.155
683	-1.114
683	-1.091
684	-1.062
684	-1.044
684	-1.022
685	-1.002
685	-0.992
686	-0.971
686	-0.959
687	-0.95
687	-0.939
687	-0.939
688	-0.923
688	-0.917
689	-0.92
689	-0.917
690	-0.904
690	-0.894
691	-0.89
691	-0.894
691	-0.894
692	-0.894
692	-0.891
693	-0.899
693	-0.909
694	-0.891
694	-0.889
695	-0.893
695	-0.889
695	-0.896
696	-0.901
696	-0.894
697	-0.887
697	-0.883
698	-0.877
698	-0.869
698	-0.884
699	-0.882
699	-0.88
700	-0.898
700	-0.892
701	-0.88
701	-0.875
702	-0.876
702	-0.873
702	-0.874
703	-0.866
703	-0.852
704	-0.86
704	-0.866
705	-0.854
705	-0.855
705	-0.849
706	-0.842
706	-0.838
707	-0.849
707	-0.851
708	-0.848
708	-0.847
709	-0.848
709	-0.845
709	-0.842
710	-0.849
710	-0.851
711	-0.851
711	-0.851
712	-0.844
712	-0.842
713	-0.846
713	-0.847
713	-0.827
714	-0.827
714	-0.83
715	-0.821
715	-0.83
716	-0.845
716	-0.854
716	-0.854
717	-0.858
717	-0.85
718	-0.844
718	-0.845
719	-0.842
719	-0.835
720	-0.831
720	-0.827
720	-0.823
721	-0.813
721	-0.817
722	-0.816
722	-0.813
723	-0.83
723	-0.843
723	-0.851
724	-0.85
724	-0.853
725	-0.846
725	-0.85
726	-0.855
726	-0.846
727	-0.848
727	-0.855
727	-0.846
728	-0.833
728	-0.83
729	-0.834
729	-0.839
730	-0.844
730	-0.834
730	-0.839
731	-0.845
731	-0.844
732	-0.846
732	-0.84
733	-0.854
733	-0.86
734	-0.867
734	-0.857
734	-0.841
735	-0.83
735	-0.825
736	-0.823
736	-0.817
737	-0.818
737	-0.81
737	-0.804
738	-0.79
738	-0.778
739	-0.781
739	-0.782
740	-0.798
740	-0.798
741	-0.808
741	-0.82
741	-0.829
742	-0.835
742	-0.851
743	-0.858
743	-0.86
744	-0.863
744	-0.87
744	-0.862
745	-0.871
745	-0.858
746	-0.854
746	-0.843
747	-0.845
747	-0.834
748	-0.835
748	-0.84
748	-0.842
749	-0.834
749	-0.84
750	-0.83
750	-0.832
751	-0.831
751	-0.829
751	-0.841
752	-0.843
752	-0.847
753	-0.849
753	-0.843
754	-0.863
754	-0.864
754	-0.872
755	-0.871
755	-0.864
756	-0.867
756	-0.853
757	-0.847
757	-0.834
758	-0.834
758	-0.831
758	-0.827
759	-0.833
759	-0.832
760	-0.832
760	-0.833
761	-0.827
761	-0.831
761	-0.83
762	-0.837
762	-0.838
763	-0.84
763	-0.842
764	-0.84
764	-0.837
764	-0.843
765	-0.843
765	-0.849
766	-0.85
766	-0.852
767	-0.867
767	-0.861
768	-0.86
768	-0.852
768	-0.847
769	-0.851
769	-0.86
770	-0.871
770	-0.875
771	-0.873
771	-0.873
771	-0.877
772	-0.882
772	-0.901
773	-0.902
773	-0.901
774	-0.899
774	-0.882
775	-0.868
775	-0.867
775	-0.87
776	-0.88
776	-0.877
777	-0.876
777	-0.859
778	-0.868
778	-0.878
778	-0.877
779	-0.887
779	-0.902
780	-0.899
780	-0.909
781	-0.899
781	-0.889
781	-0.903
782	-0.923
782	-0.926
783	-0.924
783	-0.932
784	-0.935
784	-0.928
784	-0.947
785	-0.94
785	-0.953
786	-0.959
786	-0.953
787	-0.942
787	-0.948
788	-0.941
788	-0.934
788	-0.936
789	-0.936
789	-0.925
790	-0.924
790	-0.908
791	-0.913
791	-0.907
791	-0.9
792	-0.895
792	-0.901
793	-0.905
793	-0.892
794	-0.883
794	-0.876
794	-0.884
795	-0.904
795	-0.891
796	-0.897
796	-0.895
797	-0.888
797	-0.875
797	-0.867
798	-0.888
798	-0.895
799	-0.894
799	-0.879
800	-0.873
800	-0.88
801	-0.878
801	-0.881
801	-0.878
802	-0.879
802	-0.879
803	-0.874
803	-0.865
804	-0.871
804	-0.879
804	-0.863
805	-0.844
805	-0.834
806	-0.834
806	-0.831
807	-0.834
807	-0.832
807	-0.815
808	-0.811
808	-0.804
809	-0.798
809	-0.799
810	-0.804
810	-0.802
810	-0.798
811	-0.801
811	-0.792
812	-0.785
812	-0.787
813	-0.792
813	-0.794
813	-0.791
814	-0.792
814	-0.797
815	-0.788
815	-0.782
816	-0.779
816	-0.796
817	-0.808
817	-0.812
817	-0.821
818	-0.811
818	-0.806
819	-0.815
819	-0.814
820	-0.825
820	-0.826
820	-0.825
821	-0.821
821	-0.818
822	-0.818
822	-0.806
823	-0.819
823	-0.817
823	-0.813
824	-0.811
824	-0.82
825	-0.818
825	-0.815
826	-0.809
826	-0.805
826	-0.803
827	-0.803
827	-0.792
828	-0.793
828	-0.788
829	-0.783
829	-0.769
829	-0.767
830	-0.765
830	-0.751
831	-0.745
831	-0.735
832	-0.726
832	-0.722
832	-0.716
833	-0.714
833	-0.718
834	-0.713
834	-0.707
835	-0.7
835	-0.699
835	-0.693
836	-0.69
836	-0.686
837	-0.675
837	-0.666
838	-0.654
838	-0.637
839	-0.63
839	-0.617
839	-0.606
840	-0.606
840	-0.594
841	-0.583
841	-0.575
842	-0.567
842	-0.554
842	-0.551
843	-0.546
843	-0.542
844	-0.539
844	-0.529
845	-0.513
845	-0.505
845	-0.494
846	-0.482
846	-0.472
847	-0.462
847	-0.451
848	-0.438
848	-0.421
848	-0.405
849	-0.392
849	-0.381
850	-0.37
850	-0.36
851	-0.347
851	-0.33
851	-0.32
852	-0.304
852	-0.29
853	-0.282
853	-0.272
854	-0.262
854	-0.25
854	-0.237
855	-0.224
855	-0.216
856	-0.208
856	-0.2
857	-0.191
857	-0.182
857	-0.169
858	-0.157
858	-0.149
859	-0.138
859	-0.126
860	-0.116
860	-0.102
860	-0.092
861	-0.081
861	-0.071
862	-0.063
862	-0.055
863	-0.046
863	-0.037
863	-0.032
864	-0.026
864	-0.018
865	-0.011
865	-0.006
866	0.001
866	0.007
866	0.012
867	0.018
867	0.023
868	0.028
868	0.034
869	0.039
869	0.042
869	0.044
870	0.046
870	0.048
871	0.05
871	0.051
872	0.053
872	0.054
872	0.055
873	0.055
873	0.055
874	0.054
874	0.054
875	0.054
875	0.053
875	0.053
876	0.053
876	0.053
877	0.052
877	0.051
878	0.051
878	0.05
878	0.05
879	0.05
879	0.049
880	0.049
880	0.048
881	0.047
881	0.046
881	0.045
882	0.043
882	0.041
883	0.04
883	0.039
884	0.038
884	0.038
884	0.037
885	0.037
885	0.037
886	0.036
886	0.036
887	0.035
887	0.035
887	0.034
888	0.034
888	0.034
889	0.033
889	0.032
890	0.031
890	0.031
890	0.03
891	0.03
891	0.03
892	0.03
892	0.03
893	0.03
893	0.03
893	0.03
894	0.03
894	0.03
895	0.03
895	0.03
895	0.03
896	0.03
896	0.03
897	0.03
897	0.03
898	0.03
898	0.03
898	0.031
899	0.031
899	0.031
900	0.031
900	0.031
901	0.03
901	0.03
901	0.029
902	0.029
902	0.029
903	0.029
903	0.029
904	0.028
904	0.028
904	0.029
905	0.029
905	0.03
906	0.03
906	0.031
907	0.032
907	0.032
907	0.032
908	0.033
908	0.033
909	0.034
909	0.034
910	0.034
910	0.035
910	0.035
911	0.035
911	0.035
912	0.036
912	0.037
913	0.038
913	0.038
913	0.038
914	0.039
914	0.039
915	0.039
915	0.04
916	0.04
916	0.04
916	0.04
917	0.04
917	0.039
918	0.039
918	0.039
918	0.039
919	0.039
919	0.039
920	0.039
920	0.04
921	0.041
921	0.041
921	0.042
922	0.042
922	0.043
923	0.043
923	0.043
924	0.043
924	0.042
924	0.042
925	0.041
925	0.039
926	0.038
926	0.037
927	0.036
927	0.034
927	0.034
928	0.033
928	0.033
929	0.033
929	0.033
930	0.034
930	0.034
930	0.035
931	0.036
931	0.037
932	0.039
932	0.04
933	0.041
933	0.041
933	0.041
934	0.04
934	0.04
935	0.04
935	0.039
935	0.038
936	0.036
936	0.035
937	0.034
937	0.033
938	0.032
938	0.031
938	0.031
939	0.03
939	0.029
940	0.029
940	0.028
941	0.027
941	0.026
941	0.026
942	0.025
942	0.025
943	0.025
943	0.024
944	0.023
944	0.022
944	0.022
945	0.022
945	0.021
946	0.021
946	0.02
946	0.02
947	0.02
947	0.019
948	0.02
948	0.02
949	0.021
949	0.023
949	0.025
950	0.026
950	0.028
951	0.029
951	0.03
952	0.031
952	0.033
952	0.034
953	0.034
953	0.035
954	0.035
954	0.034
955	0.034
955	0.034
955	0.033
956	0.033
956	0.032
957	0.031
957	0.03
957	0.029
958	0.029
958	0.028
959	0.028
959	0.027
960	0.026
960	0.026
960	0.026
961	0.027
961	0.027
962	0.027
962	0.027
963	0.027
963	0.027
963	0.028
964	0.028
964	0.029
965	0.029
965	0.029
966	0.029
966	0.029
966	0.03
967	0.03
967	0.03
968	0.03
968	0.03
968	0.03
969	0.029
969	0.029
970	0.029
970	0.029
971	0.029
971	0.029
971	0.029
972	0.029
972	0.03
973	0.03
973	0.029
974	0.03
974	0.03
974	0.03
975	0.03
975	0.03
976	0.03
976	0.03
976	0.029
977	0.029
977	0.029
978	0.029
978	0.028
979	0.027
979	0.027
979	0.027
980	0.027
980	0.027
981	0.027
981	0.027
982	0.027
982	0.027
982	0.027
983	0.027
983	0.027
984	0.027
984	0.026
984	0.026
985	0.025
985	0.025
986	0.024
986	0.023
987	0.022
987	0.021
987	0.021
988	0.02
988	0.019
989	0.018
989	0.018
990	0.017
990	0.016
990	0.015
991	0.014
991	0.014
992	0.013
992	0.012
992	0.012
993	0.011
993	0.01
994	0.009
994	0.007
995	0.006
995	0.005
995	0.003
996	0.002
996	0
997	-0.001
997	-0.002
997	-0.003
998	-0.003
998	-0.003
999	-0.003
999	-0.003
1000	-0.002
1000	-0.002
1000	-0.001
1001	0
1001	0.001
1002	0.002
1002	0.002
1003	0.002
1003	0.002
1003	0.002
1004	0.002
1004	0.002
1005	0.001
1005	0.001
1005	0
1006	-0.001
1006	-0.002
1007	-0.002
1007	-0.003
1008	-0.004
1008	-0.005
1008	-0.005
1009	-0.005
1009	-0.005
1010	-0.004
1010	-0.004
1010	-0.003
1011	-0.002
1011	-0.001
1012	-0
1012	0.001
1013	0.003
1013	0.003
1013	0.004
1014	0.005
1014	0.006
1015	0.006
1015	0.007
1016	0.007
1016	0.007
1016	0.007
1017	0.006
1017	0.006
1018	0.006
1018	0.006
1018	0.006
1019	0.005
1019	0.005
1020	0.005
1020	0.004
1021	0.004
1021	0.003
1021	0.003
1022	0.003
1022	0.003
1023	0.003
1023	0.003
1023	0.003
1024	0.003
1024	0.003
1025	0.004
1025	0.004
1026	0.005
1026	0.005
1026	0.005
1027	0.005
1027	0.006
1028	0.006
1028	0.007
1028	0.007
1029	0.007
1029	0.007
1030	0.007
1030	0.007
1031	0.007
1031	0.007
1031	0.007
1032	0.007
1032	0.007
1033	0.006
1033	0.006
1033	0.006
1034	0.005
1034	0.005
1035	0.005
1035	0.004
1036	0.004
1036	0.003
1036	0.003
1037	0.003
1037	0.003
1038	0.003
1038	0.003
1039	0.004
1039	0.004
1039	0.005
1040	0.005
1040	0.005
1041	0.005
1041	0.005
1041	0.005
1042	0.004
1042	0.003
1043	0.003
1043	0.002
1044	0.001
1044	-0
1044	-0.001
1045	-0.002
1045	-0.003
1046	-0.003
1046	-0.004
1046	-0.004
1047	-0.004
1047	-0.004
1048	-0.004
1048	-0.003
1049	-0.003
1049	-0.003
1049	-0.004
1050	-0.004
1050	-0.005
1051	-0.006
1051	-0.006
1051	-0.007
1052	-0.007
1052	-0.008
1053	-0.009
1053	-0.01
1053	-0.011
1054	-0.011
1054	-0.012
1055	-0.011
1055	-0.011
1056	-0.012
1056	-0.012
1056	-0.012
1057	-0.013
1057	-0.012
1058	-0.012
1058	-0.013
1058	-0.012
1059	-0.013
1059	-0.013
1060	-0.014
1060	-0.015
1061	-0.015
1061	-0.015
1061	-0.015
1062	-0.015
1062	-0.015
1063	-0.015
1063	-0.015
1063	-0.015
1064	-0.015
1064	-0.014
1065	-0.014
1065	-0.014
1066	-0.014
1066	-0.015
1066	-0.015
1067	-0.015
1067	-0.016
1068	-0.017
1068	-0.018
1068	-0.019
1069	-0.02
1069	-0.02
1070	-0.021
1070	-0.022
1071	-0.022
1071	-0.023
1071	-0.023
1072	-0.024
1072	-0.024
1073	-0.024
1073	-0.024
1073	-0.024
1074	-0.024
1074	-0.025
1075	-0.025
1075	-0.026
1076	-0.027
1076	-0.027
1076	-0.028
1077	-0.028
1077	-0.029
1078	-0.03
1078	-0.031
1078	-0.032
1079	-0.032
1079	-0.032
1080	-0.034
1080	-0.035
1080	-0.036
1081	-0.037
1081	-0.038
1082	-0.039
1082	-0.04
1083	-0.041
1083	-0.042
1083	-0.044
1084	-0.045
1084	-0.046
1085	-0.047
1085	-0.048
1085	-0.048
1086	-0.049
1086	-0.051
1087	-0.051
1087	-0.052
1088	-0.054
1088	-0.054
1088	-0.055
1089	-0.056
1089	-0.057
1090	-0.057
1090	-0.058
1090	-0.06
1091	-0.061
1091	-0.06
1092	-0.061
1092	-0.061
1092	-0.061
1093	-0.062
1093	-0.063
1094	-0.063
1094	-0.063
1095	-0.065
1095	-0.066
1095	-0.065
1096	-0.067
1096	-0.069
1097	-0.07
1097	-0.072
1097	-0.074
1098	-0.076
1098	-0.078
1099	-0.08
1099	-0.081
1100	-0.084
1100	-0.087
1100	-0.09
1101	-0.093
1101	-0.097
1102	-0.099
1102	-0.102
1102	-0.103
1103	-0.106
1103	-0.109
1104	-0.113
1104	-0.116
1104	-0.118
1105	-0.12
1105	-0.123
1106	-0.128
1106	-0.13
1107	-0.135
1107	-0.141
1107	-0.145
1108	-0.147
1108	-0.148
1109	-0.151
1109	-0.156
1109	-0.161
1110	-0.163
1110	-0.166
1111	-0.175
1111	-0.172
