Data from 3.4A_17C_Absorbance__391__02303.txt Node

Date: Tue Jun 20 16:38:36 CEST 2023
User: Marek
Spectrometer: MAYP115816
Trigger mode: 0
Integration Time (sec): 2.200000E-1
Scans to average: 10
Electric dark correction enabled: true
Nonlinearity correction enabled: true
Boxcar width: 5
XAxis mode: Wavelengths
Number of Pixels in Spectrum: 2068
>>>>>Begin Spectral Data<<<<<
199	-0.802
199	-0.792
200	-0.755
200	-0.698
201	-0.669
201	-0.661
202	-0.644
202	-0.638
203	-0.636
203	-0.629
204	-0.608
204	-0.593
205	-0.569
205	-0.559
205	-0.567
206	-0.57
206	-0.566
207	-0.559
207	-0.563
208	-0.564
208	-0.568
209	-0.571
209	-0.576
210	-0.588
210	-0.597
211	-0.591
211	-0.595
212	-0.604
212	-0.611
213	-0.609
213	-0.604
213	-0.603
214	-0.609
214	-0.611
215	-0.606
215	-0.609
216	-0.617
216	-0.623
217	-0.62
217	-0.621
218	-0.628
218	-0.631
219	-0.638
219	-0.64
220	-0.643
220	-0.65
221	-0.651
221	-0.653
221	-0.644
222	-0.644
222	-0.643
223	-0.639
223	-0.642
224	-0.641
224	-0.64
225	-0.637
225	-0.638
226	-0.64
226	-0.639
227	-0.647
227	-0.657
228	-0.659
228	-0.668
229	-0.671
229	-0.669
229	-0.669
230	-0.665
230	-0.665
231	-0.662
231	-0.656
232	-0.657
232	-0.65
233	-0.65
233	-0.638
234	-0.64
234	-0.636
235	-0.641
235	-0.651
236	-0.657
236	-0.658
236	-0.659
237	-0.66
237	-0.663
238	-0.663
238	-0.664
239	-0.665
239	-0.674
240	-0.667
240	-0.662
241	-0.656
241	-0.658
242	-0.661
242	-0.67
243	-0.67
243	-0.672
243	-0.677
244	-0.675
244	-0.677
245	-0.68
245	-0.686
246	-0.695
246	-0.698
247	-0.705
247	-0.69
248	-0.689
248	-0.691
249	-0.698
249	-0.699
250	-0.697
250	-0.706
250	-0.702
251	-0.704
251	-0.7
252	-0.701
252	-0.713
253	-0.709
253	-0.721
254	-0.725
254	-0.725
255	-0.737
255	-0.737
256	-0.74
256	-0.752
257	-0.762
257	-0.76
258	-0.762
258	-0.769
258	-0.766
259	-0.758
259	-0.777
260	-0.776
260	-0.764
261	-0.775
261	-0.76
262	-0.767
262	-0.765
263	-0.755
263	-0.76
264	-0.77
264	-0.772
265	-0.762
265	-0.763
265	-0.772
266	-0.763
266	-0.764
267	-0.763
267	-0.778
268	-0.786
268	-0.781
269	-0.775
269	-0.788
270	-0.793
270	-0.791
271	-0.806
271	-0.817
272	-0.818
272	-0.82
272	-0.814
273	-0.825
273	-0.84
274	-0.832
274	-0.826
275	-0.822
275	-0.812
276	-0.814
276	-0.819
277	-0.821
277	-0.819
278	-0.823
278	-0.823
278	-0.81
279	-0.819
279	-0.832
280	-0.834
280	-0.845
281	-0.839
281	-0.83
282	-0.835
282	-0.829
283	-0.822
283	-0.835
284	-0.85
284	-0.86
285	-0.842
285	-0.848
285	-0.839
286	-0.845
286	-0.862
287	-0.858
287	-0.857
288	-0.856
288	-0.839
289	-0.838
289	-0.845
290	-0.853
290	-0.843
291	-0.846
291	-0.844
292	-0.824
292	-0.822
292	-0.827
293	-0.814
293	-0.811
294	-0.809
294	-0.794
295	-0.777
295	-0.788
296	-0.8
296	-0.793
297	-0.781
297	-0.786
298	-0.781
298	-0.8
298	-0.803
299	-0.784
299	-0.778
300	-0.775
300	-0.754
301	-0.736
301	-0.74
302	-0.752
302	-0.739
303	-0.733
303	-0.722
304	-0.705
304	-0.71
305	-0.701
305	-0.71
305	-0.726
306	-0.71
306	-0.708
307	-0.698
307	-0.708
308	-0.71
308	-0.705
309	-0.707
309	-0.702
310	-0.7
310	-0.695
311	-0.682
311	-0.701
311	-0.69
312	-0.688
312	-0.674
313	-0.665
313	-0.666
314	-0.672
314	-0.67
315	-0.666
315	-0.659
316	-0.653
316	-0.642
317	-0.632
317	-0.629
318	-0.622
318	-0.621
318	-0.611
319	-0.598
319	-0.589
320	-0.585
320	-0.585
321	-0.58
321	-0.58
322	-0.576
322	-0.569
323	-0.572
323	-0.561
324	-0.556
324	-0.545
324	-0.534
325	-0.521
325	-0.503
326	-0.494
326	-0.467
327	-0.452
327	-0.43
328	-0.398
328	-0.374
329	-0.347
329	-0.318
330	-0.291
330	-0.255
330	-0.218
331	-0.179
331	-0.147
332	-0.108
332	-0.075
333	-0.043
333	-0.008
334	0.023
334	0.049
335	0.078
335	0.101
336	0.124
336	0.146
336	0.165
337	0.183
337	0.201
338	0.217
338	0.228
339	0.242
339	0.254
340	0.263
340	0.273
341	0.28
341	0.287
342	0.294
342	0.301
342	0.306
343	0.31
343	0.316
344	0.319
344	0.323
345	0.326
345	0.328
346	0.331
346	0.333
347	0.335
347	0.336
348	0.337
348	0.339
348	0.34
349	0.341
349	0.341
350	0.342
350	0.343
351	0.343
351	0.344
352	0.343
352	0.343
353	0.344
353	0.344
354	0.345
354	0.345
354	0.344
355	0.344
355	0.344
356	0.344
356	0.345
357	0.345
357	0.345
358	0.345
358	0.345
359	0.345
359	0.345
360	0.345
360	0.345
360	0.346
361	0.345
361	0.345
362	0.345
362	0.345
363	0.345
363	0.345
364	0.345
364	0.345
365	0.345
365	0.345
366	0.345
366	0.345
366	0.345
367	0.345
367	0.345
368	0.345
368	0.344
369	0.344
369	0.344
370	0.344
370	0.343
371	0.343
371	0.343
372	0.342
372	0.342
372	0.342
373	0.342
373	0.341
374	0.342
374	0.341
375	0.341
375	0.341
376	0.34
376	0.34
377	0.34
377	0.339
378	0.339
378	0.339
378	0.339
379	0.338
379	0.338
380	0.338
380	0.338
381	0.337
381	0.337
382	0.337
382	0.336
383	0.336
383	0.336
383	0.336
384	0.335
384	0.335
385	0.334
385	0.334
386	0.334
386	0.334
387	0.333
387	0.333
388	0.333
388	0.333
389	0.332
389	0.332
389	0.332
390	0.332
390	0.332
391	0.332
391	0.331
392	0.331
392	0.331
393	0.331
393	0.33
394	0.33
394	0.33
394	0.329
395	0.329
395	0.328
396	0.328
396	0.328
397	0.327
397	0.327
398	0.327
398	0.327
399	0.326
399	0.326
400	0.326
400	0.325
400	0.325
401	0.325
401	0.324
402	0.324
402	0.324
403	0.324
403	0.323
404	0.323
404	0.323
405	0.322
405	0.322
405	0.321
406	0.321
406	0.321
407	0.321
407	0.321
408	0.32
408	0.32
409	0.32
409	0.32
410	0.32
410	0.32
411	0.319
411	0.319
411	0.319
412	0.319
412	0.318
413	0.318
413	0.318
414	0.318
414	0.317
415	0.317
415	0.317
416	0.317
416	0.316
416	0.316
417	0.315
417	0.315
418	0.315
418	0.315
419	0.315
419	0.315
420	0.315
420	0.315
421	0.314
421	0.314
421	0.314
422	0.315
422	0.314
423	0.314
423	0.314
424	0.314
424	0.313
425	0.313
425	0.313
426	0.313
426	0.313
427	0.313
427	0.313
427	0.313
428	0.313
428	0.313
429	0.313
429	0.312
430	0.312
430	0.311
431	0.311
431	0.311
432	0.31
432	0.31
432	0.31
433	0.309
433	0.309
434	0.309
434	0.31
435	0.31
435	0.31
436	0.31
436	0.31
437	0.31
437	0.309
437	0.309
438	0.309
438	0.31
439	0.31
439	0.309
440	0.309
440	0.309
441	0.309
441	0.309
442	0.309
442	0.309
442	0.309
443	0.309
443	0.308
444	0.308
444	0.308
445	0.308
445	0.308
446	0.308
446	0.309
447	0.309
447	0.309
447	0.309
448	0.309
448	0.309
449	0.309
449	0.309
450	0.309
450	0.309
451	0.309
451	0.309
452	0.309
452	0.309
452	0.309
453	0.309
453	0.309
454	0.309
454	0.309
455	0.31
455	0.31
456	0.31
456	0.31
457	0.31
457	0.309
458	0.309
458	0.309
458	0.31
459	0.31
459	0.309
460	0.309
460	0.309
461	0.309
461	0.309
462	0.31
462	0.311
463	0.311
463	0.312
463	0.313
464	0.313
464	0.314
465	0.314
465	0.315
466	0.315
466	0.316
467	0.316
467	0.316
467	0.316
468	0.316
468	0.316
469	0.316
469	0.317
470	0.317
470	0.317
471	0.318
471	0.318
472	0.318
472	0.319
472	0.319
473	0.32
473	0.321
474	0.322
474	0.322
475	0.324
475	0.324
476	0.325
476	0.326
477	0.327
477	0.328
477	0.328
478	0.329
478	0.33
479	0.331
479	0.332
480	0.332
480	0.333
481	0.334
481	0.335
482	0.336
482	0.337
482	0.338
483	0.34
483	0.342
484	0.343
484	0.344
485	0.346
485	0.347
486	0.348
486	0.35
487	0.351
487	0.352
487	0.353
488	0.354
488	0.355
489	0.357
489	0.359
490	0.36
490	0.362
491	0.363
491	0.365
492	0.367
492	0.368
492	0.37
493	0.371
493	0.373
494	0.375
494	0.378
495	0.38
495	0.381
496	0.383
496	0.385
496	0.388
497	0.39
497	0.392
498	0.394
498	0.397
499	0.399
499	0.401
500	0.404
500	0.407
501	0.41
501	0.412
501	0.414
502	0.416
502	0.419
503	0.422
503	0.424
504	0.426
504	0.429
505	0.432
505	0.435
506	0.438
506	0.44
506	0.444
507	0.447
507	0.45
508	0.454
508	0.457
509	0.46
509	0.463
510	0.466
510	0.468
511	0.471
511	0.474
511	0.476
512	0.479
512	0.481
513	0.483
513	0.485
514	0.488
514	0.49
515	0.492
515	0.494
515	0.496
516	0.498
516	0.5
517	0.502
517	0.504
518	0.506
518	0.508
519	0.509
519	0.51
520	0.512
520	0.514
520	0.516
521	0.517
521	0.519
522	0.52
522	0.522
523	0.523
523	0.525
524	0.526
524	0.527
524	0.528
525	0.529
525	0.53
526	0.531
526	0.532
527	0.532
527	0.532
528	0.532
528	0.532
529	0.532
529	0.532
529	0.532
530	0.532
530	0.531
531	0.531
531	0.531
532	0.53
532	0.53
533	0.529
533	0.529
533	0.528
534	0.527
534	0.526
535	0.525
535	0.525
536	0.524
536	0.523
537	0.522
537	0.521
538	0.519
538	0.518
538	0.516
539	0.515
539	0.514
540	0.512
540	0.509
541	0.507
541	0.505
542	0.502
542	0.5
542	0.498
543	0.495
543	0.493
544	0.49
544	0.488
545	0.485
545	0.483
546	0.481
546	0.478
547	0.475
547	0.472
547	0.47
548	0.468
548	0.466
549	0.464
549	0.461
550	0.459
550	0.456
551	0.453
551	0.451
551	0.448
552	0.445
552	0.443
553	0.44
553	0.437
554	0.434
554	0.43
555	0.427
555	0.424
556	0.421
556	0.418
556	0.416
557	0.413
557	0.41
558	0.408
558	0.405
559	0.402
559	0.399
560	0.396
560	0.393
560	0.391
561	0.389
561	0.387
562	0.384
562	0.382
563	0.379
563	0.377
564	0.375
564	0.373
564	0.372
565	0.37
565	0.368
566	0.366
566	0.364
567	0.362
567	0.36
568	0.358
568	0.355
568	0.353
569	0.351
569	0.348
570	0.345
570	0.342
571	0.341
571	0.338
572	0.336
572	0.333
573	0.331
573	0.329
573	0.326
574	0.324
574	0.323
575	0.321
575	0.321
576	0.319
576	0.317
577	0.315
577	0.313
577	0.312
578	0.311
578	0.311
579	0.31
579	0.309
580	0.306
580	0.303
581	0.3
581	0.298
581	0.298
582	0.297
582	0.296
583	0.296
583	0.294
584	0.291
584	0.288
585	0.288
585	0.288
585	0.287
586	0.286
586	0.285
587	0.282
587	0.28
588	0.278
588	0.277
589	0.276
589	0.275
590	0.273
590	0.271
590	0.271
591	0.27
591	0.268
592	0.267
592	0.265
593	0.264
593	0.263
594	0.261
594	0.26
594	0.258
595	0.257
595	0.255
596	0.253
596	0.254
597	0.254
597	0.253
598	0.252
598	0.251
598	0.25
599	0.25
599	0.249
600	0.248
600	0.247
601	0.247
601	0.246
602	0.245
602	0.244
602	0.243
603	0.243
603	0.243
604	0.242
604	0.242
605	0.241
605	0.241
606	0.24
606	0.237
606	0.236
607	0.235
607	0.234
608	0.233
608	0.231
609	0.23
609	0.229
610	0.228
610	0.226
610	0.226
611	0.226
611	0.225
612	0.224
612	0.224
613	0.223
613	0.223
614	0.221
614	0.219
614	0.218
615	0.216
615	0.214
616	0.213
616	0.212
617	0.211
617	0.21
618	0.209
618	0.208
618	0.207
619	0.206
619	0.206
620	0.206
620	0.205
621	0.203
621	0.202
622	0.2
622	0.199
622	0.197
623	0.195
623	0.195
624	0.194
624	0.192
625	0.191
625	0.19
626	0.189
626	0.188
626	0.188
627	0.187
627	0.186
628	0.186
628	0.185
629	0.183
629	0.182
630	0.18
630	0.178
630	0.177
631	0.175
631	0.173
632	0.171
632	0.169
633	0.167
633	0.165
634	0.163
634	0.161
634	0.159
635	0.156
635	0.154
636	0.151
636	0.149
637	0.146
637	0.143
638	0.14
638	0.137
638	0.133
639	0.13
639	0.125
640	0.121
640	0.117
641	0.113
641	0.109
642	0.104
642	0.1
642	0.095
643	0.091
643	0.085
644	0.08
644	0.075
645	0.07
645	0.065
646	0.059
646	0.053
646	0.047
647	0.04
647	0.034
648	0.027
648	0.019
649	0.012
649	0.005
650	-0.002
650	-0.01
650	-0.017
651	-0.027
651	-0.038
652	-0.052
652	-0.065
653	-0.078
653	-0.088
653	-0.083
654	-0.063
654	-0.057
655	-0.062
655	-0.067
656	-0.073
656	-0.079
657	-0.083
657	-0.087
657	-0.093
658	-0.099
658	-0.13
659	-0.214
659	-0.302
660	-0.34
660	-0.365
661	-0.392
661	-0.421
661	-0.45
662	-0.477
662	-0.507
663	-0.54
663	-0.576
664	-0.611
664	-0.649
665	-0.692
665	-0.735
665	-0.778
666	-0.826
666	-0.877
667	-0.929
667	-0.988
668	-1.044
668	-1.11
669	-1.175
669	-1.245
669	-1.321
670	-1.399
670	-1.503
671	-1.657
671	-1.978
672	-2.261
672	-2.439
672	-2.568
673	-2.669
673	-2.753
674	-2.824
674	-2.842
675	-2.859
675	-2.864
676	-2.863
676	-2.827
676	-2.759
677	-2.677
677	-2.58
678	-2.437
678	-2.208
679	-1.788
679	-1.597
680	-1.488
680	-1.411
680	-1.341
681	-1.293
681	-1.24
682	-1.198
682	-1.156
683	-1.114
683	-1.091
684	-1.064
684	-1.045
684	-1.022
685	-1.004
685	-0.996
686	-0.973
686	-0.96
687	-0.951
687	-0.941
687	-0.941
688	-0.924
688	-0.916
689	-0.92
689	-0.919
690	-0.905
690	-0.893
691	-0.891
691	-0.894
691	-0.893
692	-0.894
692	-0.891
693	-0.9
693	-0.912
694	-0.892
694	-0.888
695	-0.891
695	-0.886
695	-0.893
696	-0.899
696	-0.894
697	-0.889
697	-0.884
698	-0.879
698	-0.872
698	-0.886
699	-0.886
699	-0.888
700	-0.906
700	-0.9
701	-0.889
701	-0.881
702	-0.88
702	-0.875
702	-0.875
703	-0.866
703	-0.856
704	-0.863
704	-0.866
705	-0.856
705	-0.856
705	-0.85
706	-0.843
706	-0.84
707	-0.853
707	-0.857
708	-0.855
708	-0.851
709	-0.852
709	-0.848
709	-0.844
710	-0.851
710	-0.854
711	-0.854
711	-0.856
712	-0.848
712	-0.844
713	-0.848
713	-0.848
713	-0.827
714	-0.828
714	-0.831
715	-0.823
715	-0.83
716	-0.847
716	-0.856
716	-0.855
717	-0.863
717	-0.854
718	-0.85
718	-0.851
719	-0.849
719	-0.841
720	-0.836
720	-0.833
720	-0.825
721	-0.815
721	-0.82
722	-0.816
722	-0.813
723	-0.831
723	-0.844
723	-0.852
724	-0.85
724	-0.855
725	-0.848
725	-0.852
726	-0.856
726	-0.848
727	-0.853
727	-0.858
727	-0.849
728	-0.835
728	-0.832
729	-0.834
729	-0.837
730	-0.844
730	-0.835
730	-0.841
731	-0.843
731	-0.84
732	-0.843
732	-0.838
733	-0.854
733	-0.86
734	-0.868
734	-0.859
734	-0.841
735	-0.831
735	-0.826
736	-0.824
736	-0.818
737	-0.818
737	-0.807
737	-0.799
738	-0.786
738	-0.774
739	-0.778
739	-0.778
740	-0.793
740	-0.792
741	-0.805
741	-0.817
741	-0.826
742	-0.835
742	-0.85
743	-0.856
743	-0.857
744	-0.861
744	-0.868
744	-0.862
745	-0.872
745	-0.859
746	-0.854
746	-0.845
747	-0.847
747	-0.837
748	-0.84
748	-0.844
748	-0.844
749	-0.837
749	-0.843
750	-0.833
750	-0.836
751	-0.837
751	-0.834
751	-0.847
752	-0.851
752	-0.853
753	-0.856
753	-0.85
754	-0.87
754	-0.87
754	-0.879
755	-0.876
755	-0.867
756	-0.869
756	-0.853
757	-0.845
757	-0.835
758	-0.836
758	-0.834
758	-0.83
759	-0.836
759	-0.836
760	-0.835
760	-0.838
761	-0.831
761	-0.837
761	-0.839
762	-0.846
762	-0.844
763	-0.847
763	-0.85
764	-0.848
764	-0.842
764	-0.847
765	-0.844
765	-0.851
766	-0.852
766	-0.853
767	-0.866
767	-0.861
768	-0.858
768	-0.849
768	-0.843
769	-0.847
769	-0.856
770	-0.867
770	-0.873
771	-0.869
771	-0.868
771	-0.874
772	-0.879
772	-0.901
773	-0.902
773	-0.902
774	-0.902
774	-0.884
775	-0.871
775	-0.87
775	-0.873
776	-0.884
776	-0.881
777	-0.882
777	-0.863
778	-0.871
778	-0.88
778	-0.878
779	-0.888
779	-0.904
780	-0.901
780	-0.911
781	-0.901
781	-0.89
781	-0.904
782	-0.925
782	-0.926
783	-0.925
783	-0.933
784	-0.936
784	-0.929
784	-0.947
785	-0.939
785	-0.951
786	-0.955
786	-0.947
787	-0.938
787	-0.947
788	-0.94
788	-0.935
788	-0.936
789	-0.934
789	-0.924
790	-0.924
790	-0.908
791	-0.915
791	-0.912
791	-0.905
792	-0.898
792	-0.901
793	-0.904
793	-0.892
794	-0.887
794	-0.88
794	-0.887
795	-0.908
795	-0.896
796	-0.9
796	-0.897
797	-0.889
797	-0.88
797	-0.873
798	-0.894
798	-0.898
799	-0.898
799	-0.884
800	-0.879
800	-0.886
801	-0.883
801	-0.889
801	-0.886
802	-0.887
802	-0.886
803	-0.881
803	-0.873
804	-0.878
804	-0.884
804	-0.867
805	-0.848
805	-0.839
806	-0.839
806	-0.836
807	-0.838
807	-0.837
807	-0.819
808	-0.815
808	-0.807
809	-0.803
809	-0.803
810	-0.806
810	-0.803
810	-0.797
811	-0.8
811	-0.79
812	-0.784
812	-0.786
813	-0.79
813	-0.792
813	-0.788
814	-0.789
814	-0.794
815	-0.785
815	-0.78
816	-0.777
816	-0.795
817	-0.806
817	-0.809
817	-0.82
818	-0.814
818	-0.811
819	-0.821
819	-0.819
820	-0.832
820	-0.833
820	-0.831
821	-0.826
821	-0.823
822	-0.822
822	-0.809
823	-0.819
823	-0.82
823	-0.814
824	-0.812
824	-0.822
825	-0.822
825	-0.82
826	-0.814
826	-0.809
826	-0.807
827	-0.809
827	-0.799
828	-0.798
828	-0.794
829	-0.787
829	-0.773
829	-0.769
830	-0.766
830	-0.753
831	-0.748
831	-0.737
832	-0.726
832	-0.722
832	-0.714
833	-0.712
833	-0.72
834	-0.713
834	-0.708
835	-0.702
835	-0.701
835	-0.696
836	-0.693
836	-0.689
837	-0.68
837	-0.67
838	-0.657
838	-0.639
839	-0.635
839	-0.622
839	-0.612
840	-0.611
840	-0.601
841	-0.589
841	-0.582
842	-0.573
842	-0.56
842	-0.558
843	-0.553
843	-0.547
844	-0.543
844	-0.532
845	-0.518
845	-0.508
845	-0.498
846	-0.486
846	-0.477
847	-0.466
847	-0.453
848	-0.438
848	-0.421
848	-0.408
849	-0.395
849	-0.383
850	-0.371
850	-0.361
851	-0.348
851	-0.331
851	-0.321
852	-0.305
852	-0.293
853	-0.285
853	-0.274
854	-0.263
854	-0.252
854	-0.239
855	-0.228
855	-0.22
856	-0.211
856	-0.203
857	-0.196
857	-0.187
857	-0.173
858	-0.162
858	-0.153
859	-0.142
859	-0.13
860	-0.118
860	-0.103
860	-0.094
861	-0.083
861	-0.072
862	-0.064
862	-0.056
863	-0.048
863	-0.039
863	-0.033
864	-0.027
864	-0.021
865	-0.014
865	-0.008
866	-0.001
866	0.004
866	0.01
867	0.016
867	0.022
868	0.027
868	0.032
869	0.037
869	0.04
869	0.043
870	0.045
870	0.046
871	0.048
871	0.049
872	0.05
872	0.051
872	0.052
873	0.053
873	0.052
874	0.052
874	0.052
875	0.051
875	0.051
875	0.051
876	0.051
876	0.05
877	0.05
877	0.049
878	0.049
878	0.048
878	0.048
879	0.048
879	0.047
880	0.047
880	0.046
881	0.045
881	0.044
881	0.043
882	0.041
882	0.04
883	0.039
883	0.037
884	0.037
884	0.036
884	0.035
885	0.035
885	0.035
886	0.035
886	0.034
887	0.034
887	0.033
887	0.033
888	0.032
888	0.031
889	0.031
889	0.03
890	0.029
890	0.029
890	0.028
891	0.028
891	0.027
892	0.028
892	0.028
893	0.028
893	0.028
893	0.028
894	0.028
894	0.029
895	0.028
895	0.028
895	0.028
896	0.028
896	0.028
897	0.029
897	0.029
898	0.029
898	0.029
898	0.029
899	0.029
899	0.029
900	0.029
900	0.029
901	0.028
901	0.028
901	0.027
902	0.027
902	0.028
903	0.027
903	0.027
904	0.026
904	0.026
904	0.027
905	0.027
905	0.028
906	0.029
906	0.029
907	0.03
907	0.03
907	0.03
908	0.031
908	0.032
909	0.032
909	0.032
910	0.033
910	0.033
910	0.033
911	0.033
911	0.034
912	0.035
912	0.035
913	0.036
913	0.036
913	0.036
914	0.037
914	0.038
915	0.038
915	0.038
916	0.038
916	0.038
916	0.038
917	0.038
917	0.038
918	0.037
918	0.037
918	0.037
919	0.037
919	0.037
920	0.037
920	0.038
921	0.038
921	0.039
921	0.04
922	0.04
922	0.041
923	0.041
923	0.041
924	0.041
924	0.04
924	0.04
925	0.039
925	0.038
926	0.036
926	0.035
927	0.034
927	0.033
927	0.032
928	0.031
928	0.031
929	0.031
929	0.032
930	0.032
930	0.033
930	0.034
931	0.035
931	0.036
932	0.037
932	0.038
933	0.039
933	0.039
933	0.039
934	0.038
934	0.038
935	0.038
935	0.037
935	0.035
936	0.034
936	0.033
937	0.032
937	0.031
938	0.03
938	0.029
938	0.029
939	0.028
939	0.027
940	0.027
940	0.026
941	0.025
941	0.024
941	0.024
942	0.023
942	0.023
943	0.023
943	0.023
944	0.022
944	0.02
944	0.02
945	0.02
945	0.02
946	0.019
946	0.019
946	0.019
947	0.019
947	0.018
948	0.019
948	0.019
949	0.02
949	0.022
949	0.023
950	0.025
950	0.026
951	0.028
951	0.029
952	0.03
952	0.031
952	0.031
953	0.032
953	0.033
954	0.032
954	0.032
955	0.032
955	0.032
955	0.031
956	0.031
956	0.03
957	0.029
957	0.028
957	0.028
958	0.027
958	0.027
959	0.026
959	0.026
960	0.025
960	0.025
960	0.025
961	0.025
961	0.026
962	0.026
962	0.026
963	0.026
963	0.026
963	0.026
964	0.026
964	0.027
965	0.027
965	0.028
966	0.028
966	0.028
966	0.028
967	0.028
967	0.028
968	0.028
968	0.027
968	0.028
969	0.028
969	0.027
970	0.027
970	0.027
971	0.027
971	0.027
971	0.027
972	0.028
972	0.028
973	0.028
973	0.028
974	0.028
974	0.028
974	0.029
975	0.029
975	0.029
976	0.028
976	0.028
976	0.028
977	0.028
977	0.027
978	0.027
978	0.026
979	0.026
979	0.026
979	0.025
980	0.025
980	0.025
981	0.025
981	0.025
982	0.025
982	0.025
982	0.025
983	0.025
983	0.025
984	0.025
984	0.025
984	0.024
985	0.024
985	0.023
986	0.022
986	0.022
987	0.021
987	0.02
987	0.019
988	0.019
988	0.018
989	0.017
989	0.016
990	0.015
990	0.014
990	0.014
991	0.013
991	0.012
992	0.012
992	0.011
992	0.01
993	0.009
993	0.008
994	0.007
994	0.006
995	0.005
995	0.003
995	0.002
996	0
996	-0.001
997	-0.002
997	-0.003
997	-0.004
998	-0.004
998	-0.004
999	-0.004
999	-0.004
1000	-0.004
1000	-0.003
1000	-0.003
1001	-0.002
1001	-0.001
1002	-0
1002	0
1003	0
1003	0
1003	0
1004	0
1004	0
1005	-0
1005	-0.001
1005	-0.001
1006	-0.002
1006	-0.003
1007	-0.004
1007	-0.004
1008	-0.005
1008	-0.006
1008	-0.006
1009	-0.006
1009	-0.006
1010	-0.006
1010	-0.005
1010	-0.004
1011	-0.003
1011	-0.003
1012	-0.002
1012	-0.001
1013	0.001
1013	0.002
1013	0.003
1014	0.003
1014	0.004
1015	0.005
1015	0.005
1016	0.005
1016	0.005
1016	0.005
1017	0.005
1017	0.005
1018	0.005
1018	0.004
1018	0.004
1019	0.004
1019	0.004
1020	0.003
1020	0.003
1021	0.002
1021	0.002
1021	0.002
1022	0.001
1022	0.001
1023	0.001
1023	0.001
1023	0.001
1024	0.002
1024	0.002
1025	0.002
1025	0.003
1026	0.003
1026	0.004
1026	0.004
1027	0.004
1027	0.005
1028	0.005
1028	0.006
1028	0.006
1029	0.006
1029	0.006
1030	0.006
1030	0.006
1031	0.005
1031	0.006
1031	0.006
1032	0.006
1032	0.006
1033	0.005
1033	0.005
1033	0.005
1034	0.004
1034	0.004
1035	0.003
1035	0.003
1036	0.002
1036	0.002
1036	0.002
1037	0.002
1037	0.002
1038	0.002
1038	0.002
1039	0.003
1039	0.003
1039	0.004
1040	0.004
1040	0.004
1041	0.004
1041	0.004
1041	0.003
1042	0.003
1042	0.002
1043	0.001
1043	0
1044	-0.001
1044	-0.002
1044	-0.003
1045	-0.004
1045	-0.004
1046	-0.005
1046	-0.005
1046	-0.005
1047	-0.005
1047	-0.005
1048	-0.005
1048	-0.005
1049	-0.005
1049	-0.005
1049	-0.005
1050	-0.005
1050	-0.006
1051	-0.007
1051	-0.007
1051	-0.008
1052	-0.009
1052	-0.01
1053	-0.01
1053	-0.011
1053	-0.011
1054	-0.012
1054	-0.012
1055	-0.012
1055	-0.012
1056	-0.013
1056	-0.013
1056	-0.013
1057	-0.013
1057	-0.013
1058	-0.014
1058	-0.014
1058	-0.014
1059	-0.014
1059	-0.015
1060	-0.015
1060	-0.016
1061	-0.016
1061	-0.016
1061	-0.016
1062	-0.017
1062	-0.017
1063	-0.017
1063	-0.017
1063	-0.017
1064	-0.017
1064	-0.017
1065	-0.016
1065	-0.016
1066	-0.017
1066	-0.017
1066	-0.017
1067	-0.018
1067	-0.018
1068	-0.019
1068	-0.019
1068	-0.02
1069	-0.021
1069	-0.022
1070	-0.023
1070	-0.023
1071	-0.024
1071	-0.024
1071	-0.024
1072	-0.024
1072	-0.025
1073	-0.025
1073	-0.025
1073	-0.025
1074	-0.025
1074	-0.025
1075	-0.026
1075	-0.027
1076	-0.028
1076	-0.028
1076	-0.03
1077	-0.03
1077	-0.031
1078	-0.032
1078	-0.033
1078	-0.033
1079	-0.034
1079	-0.034
1080	-0.036
1080	-0.036
1080	-0.038
1081	-0.039
1081	-0.039
1082	-0.04
1082	-0.041
1083	-0.043
1083	-0.044
1083	-0.045
1084	-0.046
1084	-0.047
1085	-0.049
1085	-0.049
1085	-0.05
1086	-0.051
1086	-0.052
1087	-0.053
1087	-0.054
1088	-0.055
1088	-0.055
1088	-0.056
1089	-0.057
1089	-0.057
1090	-0.058
1090	-0.058
1090	-0.06
1091	-0.061
1091	-0.061
1092	-0.061
1092	-0.061
1092	-0.063
1093	-0.064
1093	-0.064
1094	-0.064
1094	-0.065
1095	-0.067
1095	-0.068
1095	-0.068
1096	-0.07
1096	-0.072
1097	-0.073
1097	-0.074
1097	-0.077
1098	-0.078
1098	-0.081
1099	-0.083
1099	-0.085
1100	-0.087
1100	-0.089
1100	-0.092
1101	-0.095
1101	-0.098
1102	-0.101
1102	-0.103
1102	-0.105
1103	-0.107
1103	-0.11
1104	-0.113
1104	-0.117
1104	-0.119
1105	-0.121
1105	-0.124
1106	-0.129
1106	-0.13
1107	-0.137
1107	-0.142
1107	-0.147
1108	-0.148
1108	-0.15
1109	-0.153
1109	-0.158
1109	-0.163
1110	-0.164
1110	-0.17
1111	-0.182
1111	-0.177
