Data from 3.4A_17C_Absorbance__28__01940.txt Node

Date: Tue Jun 20 16:25:17 CEST 2023
User: Marek
Spectrometer: MAYP115816
Trigger mode: 0
Integration Time (sec): 2.200000E-1
Scans to average: 10
Electric dark correction enabled: true
Nonlinearity correction enabled: true
Boxcar width: 5
XAxis mode: Wavelengths
Number of Pixels in Spectrum: 2068
>>>>>Begin Spectral Data<<<<<
199	-0.813
199	-0.79
200	-0.751
200	-0.695
201	-0.667
201	-0.655
202	-0.641
202	-0.634
203	-0.633
203	-0.626
204	-0.604
204	-0.586
205	-0.565
205	-0.555
205	-0.564
206	-0.564
206	-0.56
207	-0.551
207	-0.557
208	-0.557
208	-0.561
209	-0.562
209	-0.569
210	-0.581
210	-0.588
211	-0.584
211	-0.588
212	-0.597
212	-0.605
213	-0.602
213	-0.599
213	-0.595
214	-0.605
214	-0.607
215	-0.602
215	-0.608
216	-0.615
216	-0.621
217	-0.619
217	-0.62
218	-0.629
218	-0.628
219	-0.636
219	-0.638
220	-0.642
220	-0.651
221	-0.651
221	-0.651
221	-0.641
222	-0.641
222	-0.639
223	-0.633
223	-0.638
224	-0.639
224	-0.636
225	-0.631
225	-0.632
226	-0.632
226	-0.631
227	-0.64
227	-0.65
228	-0.654
228	-0.662
229	-0.666
229	-0.664
229	-0.664
230	-0.66
230	-0.657
231	-0.653
231	-0.65
232	-0.652
232	-0.647
233	-0.646
233	-0.634
234	-0.635
234	-0.63
235	-0.633
235	-0.645
236	-0.652
236	-0.653
236	-0.652
237	-0.651
237	-0.65
238	-0.651
238	-0.653
239	-0.654
239	-0.664
240	-0.658
240	-0.653
241	-0.648
241	-0.652
242	-0.655
242	-0.661
243	-0.663
243	-0.665
243	-0.671
244	-0.667
244	-0.668
245	-0.672
245	-0.676
246	-0.687
246	-0.688
247	-0.697
247	-0.685
248	-0.685
248	-0.688
249	-0.694
249	-0.697
250	-0.696
250	-0.703
250	-0.701
251	-0.701
251	-0.698
252	-0.699
252	-0.71
253	-0.704
253	-0.714
254	-0.719
254	-0.72
255	-0.73
255	-0.729
256	-0.732
256	-0.744
257	-0.754
257	-0.752
258	-0.754
258	-0.762
258	-0.76
259	-0.752
259	-0.769
260	-0.768
260	-0.757
261	-0.768
261	-0.754
262	-0.759
262	-0.757
263	-0.748
263	-0.753
264	-0.761
264	-0.762
265	-0.752
265	-0.756
265	-0.765
266	-0.756
266	-0.756
267	-0.754
267	-0.769
268	-0.777
268	-0.771
269	-0.765
269	-0.78
270	-0.784
270	-0.782
271	-0.796
271	-0.805
272	-0.804
272	-0.809
272	-0.803
273	-0.81
273	-0.827
274	-0.818
274	-0.813
275	-0.811
275	-0.798
276	-0.802
276	-0.807
277	-0.81
277	-0.807
278	-0.811
278	-0.813
278	-0.8
279	-0.808
279	-0.823
280	-0.825
280	-0.837
281	-0.83
281	-0.823
282	-0.829
282	-0.823
283	-0.814
283	-0.827
284	-0.842
284	-0.852
285	-0.83
285	-0.837
285	-0.828
286	-0.835
286	-0.852
287	-0.848
287	-0.848
288	-0.849
288	-0.832
289	-0.83
289	-0.837
290	-0.847
290	-0.835
291	-0.838
291	-0.835
292	-0.815
292	-0.812
292	-0.818
293	-0.806
293	-0.801
294	-0.801
294	-0.786
295	-0.769
295	-0.78
296	-0.791
296	-0.787
297	-0.775
297	-0.778
298	-0.774
298	-0.79
298	-0.793
299	-0.775
299	-0.77
300	-0.767
300	-0.749
301	-0.731
301	-0.734
302	-0.744
302	-0.73
303	-0.722
303	-0.711
304	-0.694
304	-0.697
305	-0.688
305	-0.696
305	-0.711
306	-0.696
306	-0.694
307	-0.684
307	-0.696
308	-0.7
308	-0.695
309	-0.699
309	-0.694
310	-0.69
310	-0.684
311	-0.669
311	-0.689
311	-0.676
312	-0.674
312	-0.662
313	-0.652
313	-0.653
314	-0.658
314	-0.657
315	-0.655
315	-0.648
316	-0.642
316	-0.632
317	-0.622
317	-0.619
318	-0.611
318	-0.609
318	-0.598
319	-0.586
319	-0.577
320	-0.575
320	-0.574
321	-0.568
321	-0.568
322	-0.564
322	-0.556
323	-0.557
323	-0.547
324	-0.545
324	-0.534
324	-0.524
325	-0.511
325	-0.493
326	-0.485
326	-0.459
327	-0.442
327	-0.42
328	-0.386
328	-0.363
329	-0.332
329	-0.302
330	-0.272
330	-0.233
330	-0.194
331	-0.154
331	-0.118
332	-0.083
332	-0.047
333	-0.015
333	0.022
334	0.054
334	0.082
335	0.111
335	0.135
336	0.159
336	0.184
336	0.203
337	0.224
337	0.243
338	0.259
338	0.271
339	0.287
339	0.301
340	0.311
340	0.322
341	0.33
341	0.337
342	0.345
342	0.352
342	0.358
343	0.363
343	0.369
344	0.372
344	0.376
345	0.379
345	0.382
346	0.384
346	0.387
347	0.389
347	0.391
348	0.392
348	0.394
348	0.395
349	0.396
349	0.397
350	0.398
350	0.399
351	0.399
351	0.4
352	0.4
352	0.4
353	0.401
353	0.401
354	0.402
354	0.401
354	0.402
355	0.401
355	0.401
356	0.402
356	0.402
357	0.401
357	0.401
358	0.401
358	0.401
359	0.401
359	0.401
360	0.401
360	0.401
360	0.401
361	0.401
361	0.401
362	0.401
362	0.401
363	0.401
363	0.401
364	0.401
364	0.4
365	0.4
365	0.4
366	0.4
366	0.399
366	0.399
367	0.4
367	0.399
368	0.399
368	0.398
369	0.398
369	0.398
370	0.397
370	0.397
371	0.396
371	0.396
372	0.395
372	0.395
372	0.395
373	0.395
373	0.394
374	0.394
374	0.393
375	0.393
375	0.392
376	0.392
376	0.392
377	0.391
377	0.391
378	0.39
378	0.39
378	0.389
379	0.389
379	0.388
380	0.388
380	0.388
381	0.387
381	0.387
382	0.386
382	0.386
383	0.386
383	0.385
383	0.384
384	0.384
384	0.384
385	0.383
385	0.383
386	0.382
386	0.382
387	0.382
387	0.381
388	0.381
388	0.381
389	0.38
389	0.38
389	0.38
390	0.38
390	0.379
391	0.379
391	0.378
392	0.378
392	0.377
393	0.377
393	0.376
394	0.376
394	0.375
394	0.375
395	0.375
395	0.374
396	0.373
396	0.373
397	0.373
397	0.372
398	0.372
398	0.371
399	0.371
399	0.37
400	0.37
400	0.369
400	0.369
401	0.369
401	0.368
402	0.368
402	0.367
403	0.367
403	0.367
404	0.366
404	0.366
405	0.366
405	0.365
405	0.365
406	0.365
406	0.364
407	0.364
407	0.364
408	0.363
408	0.363
409	0.363
409	0.363
410	0.363
410	0.362
411	0.362
411	0.362
411	0.361
412	0.361
412	0.36
413	0.36
413	0.359
414	0.359
414	0.359
415	0.358
415	0.358
416	0.358
416	0.357
416	0.357
417	0.357
417	0.357
418	0.357
418	0.356
419	0.356
419	0.356
420	0.355
420	0.355
421	0.355
421	0.355
421	0.355
422	0.355
422	0.355
423	0.355
423	0.354
424	0.354
424	0.354
425	0.354
425	0.354
426	0.354
426	0.354
427	0.354
427	0.354
427	0.354
428	0.354
428	0.353
429	0.353
429	0.353
430	0.352
430	0.352
431	0.352
431	0.351
432	0.351
432	0.35
432	0.35
433	0.35
433	0.35
434	0.35
434	0.351
435	0.351
435	0.351
436	0.351
436	0.351
437	0.351
437	0.351
437	0.35
438	0.351
438	0.35
439	0.35
439	0.35
440	0.35
440	0.35
441	0.35
441	0.35
442	0.35
442	0.35
442	0.35
443	0.35
443	0.35
444	0.35
444	0.35
445	0.35
445	0.35
446	0.35
446	0.35
447	0.35
447	0.35
447	0.35
448	0.35
448	0.35
449	0.35
449	0.351
450	0.351
450	0.351
451	0.351
451	0.351
452	0.351
452	0.351
452	0.352
453	0.352
453	0.352
454	0.352
454	0.353
455	0.353
455	0.353
456	0.354
456	0.354
457	0.354
457	0.354
458	0.354
458	0.354
458	0.355
459	0.355
459	0.355
460	0.354
460	0.354
461	0.355
461	0.355
462	0.356
462	0.357
463	0.358
463	0.359
463	0.36
464	0.36
464	0.361
465	0.362
465	0.363
466	0.363
466	0.364
467	0.365
467	0.365
467	0.365
468	0.365
468	0.366
469	0.367
469	0.367
470	0.368
470	0.369
471	0.369
471	0.369
472	0.37
472	0.371
472	0.372
473	0.373
473	0.374
474	0.375
474	0.376
475	0.378
475	0.379
476	0.38
476	0.382
477	0.383
477	0.384
477	0.385
478	0.386
478	0.388
479	0.389
479	0.39
480	0.392
480	0.393
481	0.394
481	0.395
482	0.397
482	0.399
482	0.4
483	0.403
483	0.405
484	0.407
484	0.409
485	0.411
485	0.413
486	0.415
486	0.417
487	0.419
487	0.421
487	0.423
488	0.425
488	0.426
489	0.429
489	0.431
490	0.433
490	0.436
491	0.438
491	0.441
492	0.443
492	0.445
492	0.447
493	0.45
493	0.452
494	0.456
494	0.459
495	0.462
495	0.465
496	0.467
496	0.47
496	0.474
497	0.477
497	0.48
498	0.483
498	0.487
499	0.49
499	0.493
500	0.497
500	0.501
501	0.505
501	0.508
501	0.511
502	0.514
502	0.518
503	0.522
503	0.525
504	0.528
504	0.532
505	0.536
505	0.54
506	0.543
506	0.547
506	0.552
507	0.556
507	0.56
508	0.564
508	0.568
509	0.572
509	0.576
510	0.581
510	0.584
511	0.588
511	0.592
511	0.595
512	0.598
512	0.602
513	0.604
513	0.608
514	0.611
514	0.614
515	0.617
515	0.62
515	0.622
516	0.625
516	0.628
517	0.631
517	0.633
518	0.636
518	0.638
519	0.64
519	0.641
520	0.644
520	0.646
520	0.648
521	0.649
521	0.65
522	0.652
522	0.654
523	0.655
523	0.657
524	0.658
524	0.659
524	0.66
525	0.661
525	0.661
526	0.662
526	0.663
527	0.663
527	0.663
528	0.663
528	0.662
529	0.662
529	0.661
529	0.66
530	0.66
530	0.658
531	0.658
531	0.656
532	0.654
532	0.653
533	0.652
533	0.65
533	0.648
534	0.646
534	0.644
535	0.641
535	0.639
536	0.636
536	0.633
537	0.63
537	0.628
538	0.624
538	0.621
538	0.618
539	0.615
539	0.611
540	0.608
540	0.604
541	0.6
541	0.596
542	0.592
542	0.588
542	0.583
543	0.578
543	0.573
544	0.569
544	0.564
545	0.559
545	0.555
546	0.55
546	0.545
547	0.54
547	0.534
547	0.53
548	0.526
548	0.521
549	0.516
549	0.512
550	0.507
550	0.502
551	0.496
551	0.491
551	0.486
552	0.481
552	0.476
553	0.471
553	0.466
554	0.461
554	0.455
555	0.449
555	0.444
556	0.439
556	0.434
556	0.428
557	0.423
557	0.418
558	0.413
558	0.407
559	0.402
559	0.396
560	0.391
560	0.386
560	0.381
561	0.377
561	0.372
562	0.367
562	0.363
563	0.359
563	0.354
564	0.35
564	0.346
564	0.342
565	0.338
565	0.334
566	0.33
566	0.326
567	0.322
567	0.318
568	0.313
568	0.309
568	0.305
569	0.3
569	0.296
570	0.291
570	0.287
571	0.283
571	0.28
572	0.275
572	0.272
573	0.267
573	0.263
573	0.259
574	0.256
574	0.253
575	0.25
575	0.248
576	0.245
576	0.241
577	0.237
577	0.234
577	0.232
578	0.23
578	0.228
579	0.227
579	0.224
580	0.22
580	0.215
581	0.211
581	0.209
581	0.207
582	0.205
582	0.203
583	0.202
583	0.199
584	0.194
584	0.191
585	0.189
585	0.188
585	0.186
586	0.184
586	0.182
587	0.179
587	0.176
588	0.173
588	0.171
589	0.169
589	0.167
590	0.165
590	0.162
590	0.161
591	0.16
591	0.157
592	0.155
592	0.152
593	0.151
593	0.149
594	0.147
594	0.145
594	0.143
595	0.142
595	0.139
596	0.137
596	0.136
597	0.136
597	0.135
598	0.133
598	0.132
598	0.131
599	0.13
599	0.129
600	0.127
600	0.127
601	0.126
601	0.125
602	0.124
602	0.123
602	0.121
603	0.121
603	0.121
604	0.12
604	0.119
605	0.118
605	0.118
606	0.116
606	0.114
606	0.113
607	0.111
607	0.11
608	0.109
608	0.107
609	0.106
609	0.105
610	0.104
610	0.102
610	0.102
611	0.101
611	0.101
612	0.1
612	0.1
613	0.099
613	0.098
614	0.097
614	0.095
614	0.094
615	0.092
615	0.091
616	0.09
616	0.089
617	0.088
617	0.087
618	0.086
618	0.085
618	0.085
619	0.084
619	0.084
620	0.084
620	0.084
621	0.083
621	0.082
622	0.08
622	0.079
622	0.078
623	0.076
623	0.076
624	0.076
624	0.075
625	0.074
625	0.073
626	0.073
626	0.072
626	0.072
627	0.072
627	0.072
628	0.072
628	0.072
629	0.071
629	0.071
630	0.07
630	0.069
630	0.069
631	0.069
631	0.068
632	0.067
632	0.066
633	0.066
633	0.065
634	0.065
634	0.064
634	0.064
635	0.063
635	0.062
636	0.062
636	0.061
637	0.061
637	0.06
638	0.06
638	0.059
638	0.058
639	0.057
639	0.056
640	0.055
640	0.053
641	0.052
641	0.051
642	0.049
642	0.048
642	0.047
643	0.045
643	0.043
644	0.041
644	0.039
645	0.038
645	0.036
646	0.035
646	0.032
646	0.029
647	0.026
647	0.023
648	0.02
648	0.016
649	0.012
649	0.009
650	0.005
650	0.001
650	-0.003
651	-0.009
651	-0.015
652	-0.023
652	-0.03
653	-0.036
653	-0.042
653	-0.038
654	-0.03
654	-0.034
655	-0.04
655	-0.044
656	-0.049
656	-0.054
657	-0.059
657	-0.062
657	-0.068
658	-0.074
658	-0.096
659	-0.152
659	-0.201
660	-0.226
660	-0.246
661	-0.266
661	-0.287
661	-0.307
662	-0.325
662	-0.343
663	-0.361
663	-0.381
664	-0.397
664	-0.419
665	-0.44
665	-0.461
665	-0.478
666	-0.498
666	-0.52
667	-0.541
667	-0.569
668	-0.594
668	-0.634
669	-0.67
669	-0.709
669	-0.756
670	-0.811
670	-0.939
671	-1.207
671	-1.585
672	-1.961
672	-2.255
672	-2.432
673	-2.503
673	-2.523
674	-2.54
674	-2.549
675	-2.564
675	-2.568
676	-2.564
676	-2.532
676	-2.446
677	-2.248
677	-1.872
678	-1.344
678	-1.036
679	-0.938
679	-0.892
680	-0.862
680	-0.842
680	-0.827
681	-0.825
681	-0.81
682	-0.804
682	-0.788
683	-0.772
683	-0.776
684	-0.771
684	-0.773
684	-0.768
685	-0.766
685	-0.773
686	-0.762
686	-0.763
687	-0.766
687	-0.768
687	-0.778
688	-0.771
688	-0.773
689	-0.785
689	-0.789
690	-0.781
690	-0.776
691	-0.779
691	-0.787
691	-0.791
692	-0.795
692	-0.795
693	-0.806
693	-0.82
694	-0.803
694	-0.807
695	-0.813
695	-0.809
695	-0.821
696	-0.828
696	-0.823
697	-0.818
697	-0.815
698	-0.812
698	-0.806
698	-0.824
699	-0.823
699	-0.825
700	-0.846
700	-0.842
701	-0.831
701	-0.827
702	-0.83
702	-0.831
702	-0.833
703	-0.826
703	-0.815
704	-0.823
704	-0.828
705	-0.818
705	-0.817
705	-0.811
706	-0.805
706	-0.801
707	-0.812
707	-0.816
708	-0.813
708	-0.812
709	-0.814
709	-0.809
709	-0.806
710	-0.815
710	-0.818
711	-0.82
711	-0.822
712	-0.814
712	-0.812
713	-0.818
713	-0.819
713	-0.798
714	-0.8
714	-0.803
715	-0.796
715	-0.805
716	-0.821
716	-0.829
716	-0.831
717	-0.837
717	-0.829
718	-0.824
718	-0.826
719	-0.823
719	-0.817
720	-0.812
720	-0.808
720	-0.801
721	-0.794
721	-0.799
722	-0.798
722	-0.796
723	-0.812
723	-0.827
723	-0.834
724	-0.832
724	-0.836
725	-0.831
725	-0.836
726	-0.839
726	-0.829
727	-0.831
727	-0.837
727	-0.829
728	-0.813
728	-0.809
729	-0.812
729	-0.816
730	-0.82
730	-0.81
730	-0.817
731	-0.822
731	-0.822
732	-0.822
732	-0.818
733	-0.835
733	-0.842
734	-0.851
734	-0.843
734	-0.825
735	-0.818
735	-0.813
736	-0.811
736	-0.806
737	-0.807
737	-0.797
737	-0.789
738	-0.776
738	-0.763
739	-0.766
739	-0.767
740	-0.78
740	-0.78
741	-0.79
741	-0.799
741	-0.809
742	-0.815
742	-0.831
743	-0.838
743	-0.841
744	-0.846
744	-0.856
744	-0.85
745	-0.858
745	-0.847
746	-0.843
746	-0.834
747	-0.836
747	-0.826
748	-0.827
748	-0.833
748	-0.832
749	-0.824
749	-0.831
750	-0.822
750	-0.823
751	-0.822
751	-0.819
751	-0.832
752	-0.835
752	-0.838
753	-0.84
753	-0.834
754	-0.853
754	-0.854
754	-0.862
755	-0.862
755	-0.854
756	-0.857
756	-0.842
757	-0.833
757	-0.823
758	-0.825
758	-0.823
758	-0.818
759	-0.822
759	-0.821
760	-0.819
760	-0.823
761	-0.815
761	-0.821
761	-0.824
762	-0.829
762	-0.827
763	-0.829
763	-0.833
764	-0.831
764	-0.826
764	-0.832
765	-0.83
765	-0.838
766	-0.839
766	-0.84
767	-0.856
767	-0.853
768	-0.851
768	-0.844
768	-0.84
769	-0.845
769	-0.851
770	-0.861
770	-0.866
771	-0.863
771	-0.862
771	-0.865
772	-0.868
772	-0.889
773	-0.891
773	-0.89
774	-0.888
774	-0.872
775	-0.861
775	-0.859
775	-0.862
776	-0.872
776	-0.868
777	-0.868
777	-0.852
778	-0.86
778	-0.868
778	-0.869
779	-0.877
779	-0.891
780	-0.887
780	-0.898
781	-0.888
781	-0.876
781	-0.889
782	-0.907
782	-0.907
783	-0.906
783	-0.913
784	-0.915
784	-0.91
784	-0.93
785	-0.924
785	-0.936
786	-0.943
786	-0.938
787	-0.929
787	-0.941
788	-0.935
788	-0.93
788	-0.932
789	-0.931
789	-0.919
790	-0.917
790	-0.901
791	-0.907
791	-0.901
791	-0.893
792	-0.884
792	-0.887
793	-0.891
793	-0.878
794	-0.871
794	-0.865
794	-0.872
795	-0.893
795	-0.881
796	-0.886
796	-0.884
797	-0.878
797	-0.869
797	-0.862
798	-0.884
798	-0.888
799	-0.889
799	-0.874
800	-0.869
800	-0.876
801	-0.874
801	-0.877
801	-0.876
802	-0.875
802	-0.874
803	-0.868
803	-0.862
804	-0.867
804	-0.877
804	-0.862
805	-0.843
805	-0.834
806	-0.838
806	-0.831
807	-0.834
807	-0.833
807	-0.817
808	-0.813
808	-0.805
809	-0.799
809	-0.8
810	-0.803
810	-0.799
810	-0.793
811	-0.799
811	-0.789
812	-0.782
812	-0.783
813	-0.787
813	-0.789
813	-0.784
814	-0.784
814	-0.791
815	-0.783
815	-0.78
816	-0.775
816	-0.791
817	-0.805
817	-0.81
817	-0.819
818	-0.811
818	-0.807
819	-0.818
819	-0.816
820	-0.825
820	-0.825
820	-0.825
821	-0.82
821	-0.815
822	-0.814
822	-0.802
823	-0.814
823	-0.813
823	-0.808
824	-0.806
824	-0.819
825	-0.816
825	-0.813
826	-0.809
826	-0.804
826	-0.803
827	-0.804
827	-0.793
828	-0.793
828	-0.788
829	-0.782
829	-0.767
829	-0.764
830	-0.762
830	-0.748
831	-0.742
831	-0.732
832	-0.721
832	-0.717
832	-0.71
833	-0.709
833	-0.716
834	-0.71
834	-0.707
835	-0.7
835	-0.701
835	-0.697
836	-0.692
836	-0.689
837	-0.68
837	-0.672
838	-0.657
838	-0.639
839	-0.634
839	-0.621
839	-0.611
840	-0.61
840	-0.599
841	-0.588
841	-0.583
842	-0.573
842	-0.561
842	-0.559
843	-0.558
843	-0.553
844	-0.55
844	-0.538
845	-0.524
845	-0.515
845	-0.504
846	-0.49
846	-0.48
847	-0.47
847	-0.458
848	-0.442
848	-0.425
848	-0.412
849	-0.4
849	-0.388
850	-0.378
850	-0.368
851	-0.356
851	-0.34
851	-0.331
852	-0.316
852	-0.305
853	-0.299
853	-0.288
854	-0.278
854	-0.267
854	-0.255
855	-0.245
855	-0.236
856	-0.229
856	-0.221
857	-0.213
857	-0.204
857	-0.191
858	-0.181
858	-0.174
859	-0.165
859	-0.154
860	-0.144
860	-0.131
860	-0.121
861	-0.111
861	-0.102
862	-0.094
862	-0.087
863	-0.079
863	-0.071
863	-0.065
864	-0.059
864	-0.052
865	-0.046
865	-0.041
866	-0.036
866	-0.031
866	-0.026
867	-0.021
867	-0.015
868	-0.011
868	-0.007
869	-0.002
869	0
869	0.002
870	0.004
870	0.006
871	0.007
871	0.009
872	0.01
872	0.011
872	0.013
873	0.013
873	0.013
874	0.013
874	0.013
875	0.013
875	0.013
875	0.013
876	0.013
876	0.012
877	0.012
877	0.011
878	0.011
878	0.011
878	0.01
879	0.01
879	0.01
880	0.009
880	0.008
881	0.007
881	0.006
881	0.005
882	0.004
882	0.002
883	0.001
883	-0
884	-0.001
884	-0.001
884	-0.002
885	-0.002
885	-0.002
886	-0.002
886	-0.002
887	-0.002
887	-0.003
887	-0.004
888	-0.004
888	-0.005
889	-0.005
889	-0.006
890	-0.007
890	-0.007
890	-0.008
891	-0.008
891	-0.008
892	-0.007
892	-0.007
893	-0.007
893	-0.007
893	-0.007
894	-0.007
894	-0.007
895	-0.007
895	-0.007
895	-0.007
896	-0.007
896	-0.007
897	-0.007
897	-0.007
898	-0.007
898	-0.006
898	-0.006
899	-0.006
899	-0.006
900	-0.006
900	-0.006
901	-0.006
901	-0.007
901	-0.007
902	-0.007
902	-0.007
903	-0.007
903	-0.008
904	-0.008
904	-0.008
904	-0.008
905	-0.007
905	-0.006
906	-0.005
906	-0.004
907	-0.004
907	-0.003
907	-0.003
908	-0.002
908	-0.002
909	-0.001
909	-0.001
910	-0.001
910	-0
910	-0
911	0
911	0.001
912	0.001
912	0.002
913	0.003
913	0.004
913	0.004
914	0.005
914	0.005
915	0.005
915	0.006
916	0.006
916	0.006
916	0.006
917	0.006
917	0.005
918	0.005
918	0.005
918	0.005
919	0.005
919	0.005
920	0.006
920	0.007
921	0.008
921	0.008
921	0.009
922	0.01
922	0.01
923	0.01
923	0.01
924	0.01
924	0.01
924	0.009
925	0.008
925	0.007
926	0.006
926	0.004
927	0.003
927	0.002
927	0.002
928	0.001
928	0.001
929	0.001
929	0.001
930	0.002
930	0.002
930	0.003
931	0.004
931	0.005
932	0.006
932	0.007
933	0.008
933	0.009
933	0.009
934	0.009
934	0.008
935	0.008
935	0.007
935	0.006
936	0.005
936	0.004
937	0.003
937	0.002
938	0.001
938	0
938	-0
939	-0.001
939	-0.002
940	-0.002
940	-0.003
941	-0.004
941	-0.005
941	-0.005
942	-0.006
942	-0.006
943	-0.006
943	-0.007
944	-0.007
944	-0.008
944	-0.008
945	-0.009
945	-0.009
946	-0.009
946	-0.01
946	-0.01
947	-0.009
947	-0.01
948	-0.009
948	-0.008
949	-0.007
949	-0.006
949	-0.004
950	-0.003
950	-0.001
951	0.001
951	0.002
952	0.002
952	0.004
952	0.005
953	0.005
953	0.005
954	0.005
954	0.005
955	0.005
955	0.005
955	0.005
956	0.004
956	0.004
957	0.003
957	0.002
957	0.002
958	0.001
958	0.001
959	0.001
959	0
960	-0
960	-0
960	-0
961	-0
961	0
962	-0
962	0
963	0
963	0
963	0.001
964	0.001
964	0.001
965	0.002
965	0.002
966	0.002
966	0.002
966	0.003
967	0.003
967	0.002
968	0.002
968	0.002
968	0.002
969	0.002
969	0.002
970	0.002
970	0.001
971	0.001
971	0.001
971	0.001
972	0.002
972	0.002
973	0.002
973	0.002
974	0.002
974	0.003
974	0.003
975	0.003
975	0.003
976	0.003
976	0.003
976	0.003
977	0.003
977	0.002
978	0.002
978	0.001
979	0.001
979	0
979	0
980	-0
980	-0
981	-0
981	-0.001
982	-0.001
982	-0.001
982	-0
983	-0
983	-0.001
984	-0.001
984	-0.001
984	-0.001
985	-0.002
985	-0.002
986	-0.003
986	-0.004
987	-0.005
987	-0.006
987	-0.006
988	-0.007
988	-0.008
989	-0.009
989	-0.01
990	-0.01
990	-0.011
990	-0.012
991	-0.012
991	-0.013
992	-0.013
992	-0.014
992	-0.014
993	-0.015
993	-0.016
994	-0.016
994	-0.018
995	-0.018
995	-0.02
995	-0.021
996	-0.022
996	-0.023
997	-0.024
997	-0.025
997	-0.026
998	-0.026
998	-0.026
999	-0.026
999	-0.026
1000	-0.026
1000	-0.026
1000	-0.025
1001	-0.024
1001	-0.024
1002	-0.024
1002	-0.023
1003	-0.023
1003	-0.023
1003	-0.023
1004	-0.023
1004	-0.024
1005	-0.024
1005	-0.025
1005	-0.026
1006	-0.026
1006	-0.027
1007	-0.028
1007	-0.029
1008	-0.03
1008	-0.03
1008	-0.031
1009	-0.031
1009	-0.031
1010	-0.03
1010	-0.03
1010	-0.029
1011	-0.028
1011	-0.027
1012	-0.026
1012	-0.025
1013	-0.023
1013	-0.023
1013	-0.022
1014	-0.021
1014	-0.02
1015	-0.019
1015	-0.019
1016	-0.019
1016	-0.019
1016	-0.019
1017	-0.019
1017	-0.019
1018	-0.019
1018	-0.019
1018	-0.019
1019	-0.02
1019	-0.02
1020	-0.02
1020	-0.021
1021	-0.021
1021	-0.022
1021	-0.022
1022	-0.023
1022	-0.023
1023	-0.023
1023	-0.023
1023	-0.023
1024	-0.023
1024	-0.023
1025	-0.022
1025	-0.022
1026	-0.022
1026	-0.021
1026	-0.021
1027	-0.021
1027	-0.02
1028	-0.019
1028	-0.019
1028	-0.019
1029	-0.019
1029	-0.018
1030	-0.018
1030	-0.018
1031	-0.018
1031	-0.018
1031	-0.017
1032	-0.017
1032	-0.017
1033	-0.017
1033	-0.017
1033	-0.017
1034	-0.017
1034	-0.017
1035	-0.017
1035	-0.018
1036	-0.018
1036	-0.019
1036	-0.019
1037	-0.019
1037	-0.018
1038	-0.018
1038	-0.018
1039	-0.018
1039	-0.017
1039	-0.017
1040	-0.016
1040	-0.016
1041	-0.016
1041	-0.016
1041	-0.016
1042	-0.017
1042	-0.018
1043	-0.018
1043	-0.019
1044	-0.02
1044	-0.021
1044	-0.022
1045	-0.023
1045	-0.024
1046	-0.025
1046	-0.025
1046	-0.026
1047	-0.026
1047	-0.026
1048	-0.026
1048	-0.026
1049	-0.026
1049	-0.026
1049	-0.026
1050	-0.027
1050	-0.028
1051	-0.028
1051	-0.029
1051	-0.029
1052	-0.03
1052	-0.031
1053	-0.032
1053	-0.032
1053	-0.033
1054	-0.034
1054	-0.034
1055	-0.034
1055	-0.034
1056	-0.034
1056	-0.034
1056	-0.034
1057	-0.035
1057	-0.035
1058	-0.035
1058	-0.035
1058	-0.035
1059	-0.036
1059	-0.036
1060	-0.037
1060	-0.037
1061	-0.037
1061	-0.037
1061	-0.037
1062	-0.037
1062	-0.037
1063	-0.037
1063	-0.037
1063	-0.037
1064	-0.036
1064	-0.036
1065	-0.035
1065	-0.035
1066	-0.035
1066	-0.036
1066	-0.036
1067	-0.036
1067	-0.037
1068	-0.037
1068	-0.038
1068	-0.038
1069	-0.039
1069	-0.04
1070	-0.04
1070	-0.041
1071	-0.041
1071	-0.041
1071	-0.042
1072	-0.042
1072	-0.042
1073	-0.043
1073	-0.043
1073	-0.044
1074	-0.043
1074	-0.044
1075	-0.045
1075	-0.045
1076	-0.046
1076	-0.046
1076	-0.047
1077	-0.048
1077	-0.049
1078	-0.049
1078	-0.05
1078	-0.05
1079	-0.051
1079	-0.051
1080	-0.053
1080	-0.053
1080	-0.055
1081	-0.056
1081	-0.056
1082	-0.057
1082	-0.058
1083	-0.059
1083	-0.06
1083	-0.062
1084	-0.063
1084	-0.064
1085	-0.065
1085	-0.066
1085	-0.066
1086	-0.067
1086	-0.068
1087	-0.069
1087	-0.07
1088	-0.071
1088	-0.072
1088	-0.072
1089	-0.074
1089	-0.074
1090	-0.075
1090	-0.076
1090	-0.077
1091	-0.078
1091	-0.078
1092	-0.079
1092	-0.079
1092	-0.08
1093	-0.081
1093	-0.08
1094	-0.081
1094	-0.082
1095	-0.083
1095	-0.083
1095	-0.083
1096	-0.085
1096	-0.086
1097	-0.087
1097	-0.088
1097	-0.09
1098	-0.092
1098	-0.095
1099	-0.096
1099	-0.098
1100	-0.1
1100	-0.103
1100	-0.106
1101	-0.109
1101	-0.112
1102	-0.114
1102	-0.117
1102	-0.118
1103	-0.121
1103	-0.124
1104	-0.127
1104	-0.13
1104	-0.132
1105	-0.133
1105	-0.137
1106	-0.141
1106	-0.143
1107	-0.148
1107	-0.153
1107	-0.158
1108	-0.159
1108	-0.16
1109	-0.163
1109	-0.168
1109	-0.173
1110	-0.174
1110	-0.178
1111	-0.188
1111	-0.185
