Data from 3.4A_17C_Absorbance__434__02346.txt Node

Date: Tue Jun 20 16:40:10 CEST 2023
User: Marek
Spectrometer: MAYP115816
Trigger mode: 0
Integration Time (sec): 2.200000E-1
Scans to average: 10
Electric dark correction enabled: true
Nonlinearity correction enabled: true
Boxcar width: 5
XAxis mode: Wavelengths
Number of Pixels in Spectrum: 2068
>>>>>Begin Spectral Data<<<<<
199	-0.797
199	-0.778
200	-0.745
200	-0.69
201	-0.661
201	-0.652
202	-0.634
202	-0.629
203	-0.63
203	-0.624
204	-0.605
204	-0.589
205	-0.566
205	-0.556
205	-0.566
206	-0.571
206	-0.566
207	-0.56
207	-0.566
208	-0.567
208	-0.571
209	-0.571
209	-0.577
210	-0.589
210	-0.597
211	-0.59
211	-0.592
212	-0.601
212	-0.608
213	-0.605
213	-0.599
213	-0.597
214	-0.606
214	-0.609
215	-0.606
215	-0.61
216	-0.619
216	-0.624
217	-0.622
217	-0.623
218	-0.631
218	-0.633
219	-0.64
219	-0.639
220	-0.64
220	-0.647
221	-0.648
221	-0.649
221	-0.641
222	-0.64
222	-0.64
223	-0.635
223	-0.638
224	-0.638
224	-0.639
225	-0.637
225	-0.639
226	-0.638
226	-0.638
227	-0.646
227	-0.658
228	-0.661
228	-0.67
229	-0.675
229	-0.674
229	-0.673
230	-0.667
230	-0.666
231	-0.662
231	-0.658
232	-0.66
232	-0.655
233	-0.652
233	-0.639
234	-0.639
234	-0.632
235	-0.636
235	-0.648
236	-0.653
236	-0.655
236	-0.656
237	-0.653
237	-0.653
238	-0.656
238	-0.659
239	-0.661
239	-0.672
240	-0.667
240	-0.661
241	-0.66
241	-0.662
242	-0.664
242	-0.674
243	-0.674
243	-0.675
243	-0.679
244	-0.676
244	-0.677
245	-0.679
245	-0.686
246	-0.692
246	-0.695
247	-0.705
247	-0.691
248	-0.69
248	-0.694
249	-0.7
249	-0.702
250	-0.7
250	-0.71
250	-0.707
251	-0.708
251	-0.704
252	-0.703
252	-0.714
253	-0.71
253	-0.721
254	-0.725
254	-0.727
255	-0.737
255	-0.732
256	-0.734
256	-0.748
257	-0.759
257	-0.757
258	-0.76
258	-0.768
258	-0.766
259	-0.758
259	-0.774
260	-0.774
260	-0.764
261	-0.774
261	-0.759
262	-0.764
262	-0.763
263	-0.752
263	-0.756
264	-0.766
264	-0.769
265	-0.76
265	-0.762
265	-0.774
266	-0.764
266	-0.764
267	-0.763
267	-0.778
268	-0.786
268	-0.781
269	-0.773
269	-0.787
270	-0.791
270	-0.79
271	-0.803
271	-0.814
272	-0.816
272	-0.821
272	-0.815
273	-0.826
273	-0.841
274	-0.833
274	-0.827
275	-0.824
275	-0.811
276	-0.813
276	-0.819
277	-0.82
277	-0.816
278	-0.821
278	-0.82
278	-0.807
279	-0.817
279	-0.832
280	-0.834
280	-0.846
281	-0.839
281	-0.83
282	-0.838
282	-0.833
283	-0.824
283	-0.839
284	-0.853
284	-0.863
285	-0.843
285	-0.85
285	-0.842
286	-0.85
286	-0.866
287	-0.861
287	-0.862
288	-0.861
288	-0.842
289	-0.839
289	-0.846
290	-0.854
290	-0.841
291	-0.846
291	-0.842
292	-0.824
292	-0.821
292	-0.823
293	-0.813
293	-0.81
294	-0.81
294	-0.798
295	-0.782
295	-0.795
296	-0.805
296	-0.798
297	-0.786
297	-0.792
298	-0.787
298	-0.802
298	-0.804
299	-0.787
299	-0.778
300	-0.773
300	-0.752
301	-0.735
301	-0.739
302	-0.747
302	-0.733
303	-0.726
303	-0.715
304	-0.699
304	-0.701
305	-0.694
305	-0.704
305	-0.72
306	-0.703
306	-0.702
307	-0.695
307	-0.706
308	-0.708
308	-0.703
309	-0.704
309	-0.699
310	-0.698
310	-0.692
311	-0.678
311	-0.697
311	-0.686
312	-0.683
312	-0.673
313	-0.665
313	-0.666
314	-0.671
314	-0.67
315	-0.665
315	-0.659
316	-0.653
316	-0.642
317	-0.632
317	-0.629
318	-0.618
318	-0.616
318	-0.605
319	-0.593
319	-0.586
320	-0.585
320	-0.583
321	-0.578
321	-0.578
322	-0.574
322	-0.567
323	-0.57
323	-0.562
324	-0.561
324	-0.549
324	-0.538
325	-0.523
325	-0.504
326	-0.495
326	-0.47
327	-0.454
327	-0.433
328	-0.4
328	-0.377
329	-0.348
329	-0.319
330	-0.29
330	-0.255
330	-0.219
331	-0.183
331	-0.149
332	-0.113
332	-0.077
333	-0.046
333	-0.01
334	0.021
334	0.046
335	0.073
335	0.097
336	0.119
336	0.142
336	0.159
337	0.178
337	0.195
338	0.209
338	0.22
339	0.235
339	0.247
340	0.256
340	0.265
341	0.273
341	0.279
342	0.287
342	0.293
342	0.298
343	0.302
343	0.307
344	0.31
344	0.314
345	0.317
345	0.32
346	0.322
346	0.324
347	0.326
347	0.327
348	0.329
348	0.331
348	0.332
349	0.332
349	0.333
350	0.334
350	0.335
351	0.336
351	0.336
352	0.336
352	0.337
353	0.337
353	0.337
354	0.337
354	0.337
354	0.337
355	0.337
355	0.337
356	0.337
356	0.337
357	0.337
357	0.337
358	0.337
358	0.337
359	0.337
359	0.338
360	0.337
360	0.338
360	0.338
361	0.338
361	0.338
362	0.337
362	0.337
363	0.337
363	0.337
364	0.337
364	0.337
365	0.337
365	0.337
366	0.337
366	0.337
366	0.337
367	0.337
367	0.337
368	0.337
368	0.336
369	0.336
369	0.336
370	0.335
370	0.335
371	0.335
371	0.335
372	0.334
372	0.334
372	0.334
373	0.334
373	0.334
374	0.334
374	0.333
375	0.333
375	0.333
376	0.332
376	0.332
377	0.332
377	0.331
378	0.331
378	0.331
378	0.331
379	0.33
379	0.33
380	0.33
380	0.33
381	0.33
381	0.329
382	0.329
382	0.329
383	0.329
383	0.329
383	0.328
384	0.328
384	0.327
385	0.327
385	0.327
386	0.327
386	0.327
387	0.326
387	0.326
388	0.326
388	0.326
389	0.326
389	0.325
389	0.325
390	0.325
390	0.325
391	0.324
391	0.324
392	0.324
392	0.323
393	0.323
393	0.323
394	0.322
394	0.322
394	0.322
395	0.321
395	0.321
396	0.321
396	0.321
397	0.32
397	0.32
398	0.32
398	0.319
399	0.319
399	0.319
400	0.319
400	0.318
400	0.318
401	0.318
401	0.317
402	0.317
402	0.317
403	0.317
403	0.317
404	0.316
404	0.316
405	0.315
405	0.315
405	0.314
406	0.314
406	0.314
407	0.314
407	0.314
408	0.313
408	0.313
409	0.313
409	0.313
410	0.313
410	0.313
411	0.312
411	0.312
411	0.312
412	0.312
412	0.311
413	0.311
413	0.311
414	0.311
414	0.311
415	0.31
415	0.31
416	0.31
416	0.309
416	0.309
417	0.309
417	0.309
418	0.309
418	0.308
419	0.308
419	0.308
420	0.308
420	0.308
421	0.308
421	0.308
421	0.308
422	0.308
422	0.308
423	0.308
423	0.307
424	0.307
424	0.307
425	0.307
425	0.307
426	0.307
426	0.307
427	0.307
427	0.307
427	0.307
428	0.306
428	0.306
429	0.306
429	0.306
430	0.305
430	0.305
431	0.305
431	0.304
432	0.304
432	0.303
432	0.303
433	0.303
433	0.303
434	0.303
434	0.303
435	0.304
435	0.303
436	0.303
436	0.303
437	0.303
437	0.303
437	0.303
438	0.303
438	0.303
439	0.303
439	0.303
440	0.302
440	0.302
441	0.302
441	0.302
442	0.302
442	0.302
442	0.302
443	0.302
443	0.302
444	0.302
444	0.302
445	0.301
445	0.302
446	0.301
446	0.301
447	0.302
447	0.302
447	0.302
448	0.302
448	0.302
449	0.302
449	0.302
450	0.302
450	0.302
451	0.302
451	0.303
452	0.303
452	0.303
452	0.303
453	0.303
453	0.303
454	0.303
454	0.303
455	0.303
455	0.304
456	0.304
456	0.304
457	0.304
457	0.303
458	0.303
458	0.303
458	0.303
459	0.303
459	0.303
460	0.302
460	0.302
461	0.302
461	0.303
462	0.303
462	0.304
463	0.305
463	0.305
463	0.306
464	0.306
464	0.307
465	0.307
465	0.308
466	0.308
466	0.309
467	0.309
467	0.309
467	0.309
468	0.309
468	0.309
469	0.31
469	0.31
470	0.311
470	0.31
471	0.311
471	0.311
472	0.311
472	0.311
472	0.312
473	0.313
473	0.313
474	0.314
474	0.315
475	0.316
475	0.317
476	0.317
476	0.318
477	0.319
477	0.32
477	0.321
478	0.321
478	0.322
479	0.323
479	0.324
480	0.324
480	0.325
481	0.326
481	0.327
482	0.328
482	0.329
482	0.33
483	0.332
483	0.334
484	0.335
484	0.336
485	0.337
485	0.339
486	0.34
486	0.341
487	0.343
487	0.344
487	0.345
488	0.346
488	0.346
489	0.347
489	0.349
490	0.351
490	0.352
491	0.354
491	0.355
492	0.357
492	0.358
492	0.36
493	0.361
493	0.363
494	0.366
494	0.368
495	0.369
495	0.371
496	0.373
496	0.375
496	0.377
497	0.379
497	0.381
498	0.384
498	0.386
499	0.387
499	0.39
500	0.393
500	0.395
501	0.398
501	0.4
501	0.402
502	0.404
502	0.407
503	0.409
503	0.412
504	0.414
504	0.417
505	0.419
505	0.422
506	0.425
506	0.427
506	0.431
507	0.433
507	0.436
508	0.44
508	0.443
509	0.446
509	0.449
510	0.452
510	0.455
511	0.457
511	0.46
511	0.462
512	0.465
512	0.467
513	0.469
513	0.471
514	0.473
514	0.475
515	0.477
515	0.479
515	0.481
516	0.483
516	0.485
517	0.487
517	0.489
518	0.491
518	0.492
519	0.494
519	0.495
520	0.497
520	0.499
520	0.5
521	0.501
521	0.503
522	0.503
522	0.505
523	0.507
523	0.508
524	0.509
524	0.51
524	0.511
525	0.512
525	0.513
526	0.514
526	0.515
527	0.516
527	0.516
528	0.516
528	0.516
529	0.516
529	0.516
529	0.516
530	0.516
530	0.515
531	0.515
531	0.515
532	0.514
532	0.513
533	0.513
533	0.513
533	0.512
534	0.511
534	0.51
535	0.51
535	0.509
536	0.508
536	0.507
537	0.506
537	0.505
538	0.504
538	0.502
538	0.501
539	0.499
539	0.498
540	0.496
540	0.494
541	0.492
541	0.49
542	0.488
542	0.486
542	0.483
543	0.481
543	0.478
544	0.476
544	0.474
545	0.472
545	0.47
546	0.468
546	0.465
547	0.462
547	0.459
547	0.457
548	0.455
548	0.453
549	0.45
549	0.448
550	0.446
550	0.443
551	0.44
551	0.438
551	0.436
552	0.433
552	0.431
553	0.429
553	0.427
554	0.424
554	0.42
555	0.417
555	0.415
556	0.412
556	0.409
556	0.406
557	0.403
557	0.401
558	0.398
558	0.395
559	0.392
559	0.39
560	0.387
560	0.384
560	0.382
561	0.381
561	0.378
562	0.376
562	0.374
563	0.372
563	0.37
564	0.368
564	0.366
564	0.365
565	0.363
565	0.361
566	0.359
566	0.357
567	0.355
567	0.353
568	0.351
568	0.349
568	0.346
569	0.345
569	0.342
570	0.34
570	0.337
571	0.335
571	0.333
572	0.331
572	0.329
573	0.326
573	0.324
573	0.322
574	0.32
574	0.319
575	0.317
575	0.317
576	0.316
576	0.313
577	0.311
577	0.31
577	0.309
578	0.308
578	0.308
579	0.308
579	0.307
580	0.304
580	0.301
581	0.298
581	0.297
581	0.296
582	0.295
582	0.295
583	0.294
583	0.292
584	0.289
584	0.287
585	0.287
585	0.287
585	0.286
586	0.285
586	0.284
587	0.282
587	0.28
588	0.278
588	0.276
589	0.275
589	0.274
590	0.273
590	0.271
590	0.271
591	0.27
591	0.269
592	0.267
592	0.266
593	0.265
593	0.264
594	0.262
594	0.26
594	0.259
595	0.258
595	0.256
596	0.254
596	0.255
597	0.256
597	0.255
598	0.254
598	0.253
598	0.253
599	0.252
599	0.251
600	0.25
600	0.25
601	0.25
601	0.249
602	0.248
602	0.248
602	0.246
603	0.246
603	0.246
604	0.246
604	0.245
605	0.245
605	0.245
606	0.243
606	0.241
606	0.24
607	0.239
607	0.238
608	0.237
608	0.235
609	0.234
609	0.234
610	0.232
610	0.231
610	0.231
611	0.23
611	0.23
612	0.229
612	0.229
613	0.228
613	0.228
614	0.226
614	0.224
614	0.223
615	0.221
615	0.22
616	0.219
616	0.218
617	0.217
617	0.216
618	0.215
618	0.214
618	0.213
619	0.212
619	0.212
620	0.213
620	0.211
621	0.21
621	0.209
622	0.207
622	0.205
622	0.203
623	0.202
623	0.201
624	0.201
624	0.199
625	0.198
625	0.197
626	0.195
626	0.194
626	0.194
627	0.194
627	0.193
628	0.192
628	0.191
629	0.19
629	0.189
630	0.187
630	0.185
630	0.184
631	0.183
631	0.181
632	0.179
632	0.177
633	0.174
633	0.172
634	0.17
634	0.168
634	0.166
635	0.164
635	0.162
636	0.159
636	0.156
637	0.154
637	0.151
638	0.148
638	0.145
638	0.141
639	0.137
639	0.133
640	0.129
640	0.125
641	0.121
641	0.117
642	0.112
642	0.108
642	0.104
643	0.099
643	0.094
644	0.089
644	0.084
645	0.078
645	0.073
646	0.068
646	0.062
646	0.055
647	0.048
647	0.042
648	0.034
648	0.027
649	0.02
649	0.013
650	0.006
650	-0.002
650	-0.009
651	-0.019
651	-0.031
652	-0.044
652	-0.058
653	-0.07
653	-0.081
653	-0.076
654	-0.057
654	-0.051
655	-0.056
655	-0.06
656	-0.066
656	-0.072
657	-0.076
657	-0.08
657	-0.087
658	-0.093
658	-0.124
659	-0.21
659	-0.297
660	-0.336
660	-0.363
661	-0.39
661	-0.419
661	-0.45
662	-0.477
662	-0.506
663	-0.54
663	-0.576
664	-0.61
664	-0.649
665	-0.693
665	-0.738
665	-0.782
666	-0.83
666	-0.882
667	-0.936
667	-0.996
668	-1.053
668	-1.119
669	-1.185
669	-1.257
669	-1.332
670	-1.41
670	-1.513
671	-1.659
671	-1.966
672	-2.255
672	-2.435
672	-2.564
673	-2.666
673	-2.75
674	-2.83
674	-2.85
675	-2.866
675	-2.872
676	-2.872
676	-2.839
676	-2.773
677	-2.695
677	-2.603
678	-2.468
678	-2.261
679	-1.83
679	-1.621
680	-1.509
680	-1.429
680	-1.359
681	-1.309
681	-1.254
682	-1.211
682	-1.168
683	-1.124
683	-1.099
684	-1.071
684	-1.053
684	-1.031
685	-1.011
685	-1.001
686	-0.978
686	-0.965
687	-0.955
687	-0.944
687	-0.944
688	-0.929
688	-0.921
689	-0.922
689	-0.919
690	-0.905
690	-0.895
691	-0.892
691	-0.895
691	-0.896
692	-0.896
692	-0.892
693	-0.898
693	-0.908
694	-0.888
694	-0.887
695	-0.89
695	-0.885
695	-0.893
696	-0.9
696	-0.894
697	-0.887
697	-0.882
698	-0.879
698	-0.871
698	-0.885
699	-0.884
699	-0.886
700	-0.905
700	-0.901
701	-0.888
701	-0.881
702	-0.882
702	-0.882
702	-0.881
703	-0.873
703	-0.86
704	-0.867
704	-0.87
705	-0.856
705	-0.854
705	-0.848
706	-0.842
706	-0.839
707	-0.85
707	-0.854
708	-0.851
708	-0.849
709	-0.851
709	-0.848
709	-0.845
710	-0.853
710	-0.856
711	-0.854
711	-0.854
712	-0.846
712	-0.842
713	-0.849
713	-0.85
713	-0.829
714	-0.831
714	-0.835
715	-0.827
715	-0.835
716	-0.852
716	-0.861
716	-0.86
717	-0.866
717	-0.856
718	-0.851
718	-0.851
719	-0.846
719	-0.84
720	-0.833
720	-0.83
720	-0.824
721	-0.815
721	-0.82
722	-0.817
722	-0.813
723	-0.832
723	-0.844
723	-0.854
724	-0.852
724	-0.856
725	-0.849
725	-0.852
726	-0.855
726	-0.846
727	-0.849
727	-0.857
727	-0.845
728	-0.833
728	-0.828
729	-0.83
729	-0.836
730	-0.841
730	-0.832
730	-0.838
731	-0.842
731	-0.842
732	-0.844
732	-0.841
733	-0.857
733	-0.865
734	-0.873
734	-0.863
734	-0.845
735	-0.836
735	-0.831
736	-0.83
736	-0.826
737	-0.825
737	-0.815
737	-0.807
738	-0.792
738	-0.781
739	-0.785
739	-0.787
740	-0.802
740	-0.801
741	-0.813
741	-0.82
741	-0.83
742	-0.837
742	-0.852
743	-0.857
743	-0.857
744	-0.859
744	-0.867
744	-0.861
745	-0.869
745	-0.856
746	-0.852
746	-0.843
747	-0.844
747	-0.832
748	-0.837
748	-0.844
748	-0.844
749	-0.836
749	-0.84
750	-0.832
750	-0.832
751	-0.832
751	-0.83
751	-0.841
752	-0.847
752	-0.849
753	-0.85
753	-0.843
754	-0.863
754	-0.864
754	-0.87
755	-0.871
755	-0.863
756	-0.864
756	-0.851
757	-0.843
757	-0.833
758	-0.833
758	-0.833
758	-0.828
759	-0.833
759	-0.834
760	-0.832
760	-0.835
761	-0.829
761	-0.833
761	-0.834
762	-0.839
762	-0.839
763	-0.838
763	-0.841
764	-0.841
764	-0.836
764	-0.842
765	-0.842
765	-0.849
766	-0.849
766	-0.851
767	-0.867
767	-0.861
768	-0.862
768	-0.854
768	-0.848
769	-0.851
769	-0.858
770	-0.868
770	-0.871
771	-0.868
771	-0.868
771	-0.873
772	-0.879
772	-0.899
773	-0.901
773	-0.902
774	-0.901
774	-0.885
775	-0.873
775	-0.872
775	-0.876
776	-0.886
776	-0.883
777	-0.881
777	-0.865
778	-0.874
778	-0.884
778	-0.883
779	-0.891
779	-0.906
780	-0.903
780	-0.911
781	-0.902
781	-0.891
781	-0.907
782	-0.927
782	-0.93
783	-0.928
783	-0.937
784	-0.94
784	-0.933
784	-0.954
785	-0.949
785	-0.96
786	-0.964
786	-0.956
787	-0.946
787	-0.953
788	-0.946
788	-0.939
788	-0.939
789	-0.938
789	-0.927
790	-0.924
790	-0.908
791	-0.915
791	-0.91
791	-0.904
792	-0.899
792	-0.902
793	-0.905
793	-0.893
794	-0.885
794	-0.878
794	-0.886
795	-0.909
795	-0.893
796	-0.899
796	-0.894
797	-0.887
797	-0.877
797	-0.87
798	-0.891
798	-0.896
799	-0.896
799	-0.882
800	-0.876
800	-0.884
801	-0.881
801	-0.886
801	-0.882
802	-0.883
802	-0.882
803	-0.879
803	-0.872
804	-0.877
804	-0.884
804	-0.867
805	-0.849
805	-0.84
806	-0.841
806	-0.837
807	-0.838
807	-0.838
807	-0.819
808	-0.814
808	-0.807
809	-0.801
809	-0.803
810	-0.805
810	-0.802
810	-0.799
811	-0.804
811	-0.794
812	-0.788
812	-0.79
813	-0.795
813	-0.797
813	-0.794
814	-0.793
814	-0.801
815	-0.792
815	-0.786
816	-0.781
816	-0.797
817	-0.809
817	-0.814
817	-0.823
818	-0.815
818	-0.812
819	-0.823
819	-0.82
820	-0.832
820	-0.833
820	-0.831
821	-0.826
821	-0.82
822	-0.818
822	-0.806
823	-0.817
823	-0.818
823	-0.812
824	-0.811
824	-0.822
825	-0.82
825	-0.816
826	-0.814
826	-0.811
826	-0.81
827	-0.811
827	-0.8
828	-0.799
828	-0.793
829	-0.786
829	-0.77
829	-0.768
830	-0.766
830	-0.752
831	-0.746
831	-0.736
832	-0.726
832	-0.72
832	-0.714
833	-0.714
833	-0.72
834	-0.715
834	-0.709
835	-0.703
835	-0.702
835	-0.695
836	-0.689
836	-0.685
837	-0.677
837	-0.669
838	-0.655
838	-0.636
839	-0.631
839	-0.619
839	-0.608
840	-0.606
840	-0.596
841	-0.586
841	-0.578
842	-0.568
842	-0.556
842	-0.552
843	-0.55
843	-0.544
844	-0.541
844	-0.53
845	-0.516
845	-0.507
845	-0.499
846	-0.487
846	-0.478
847	-0.467
847	-0.454
848	-0.439
848	-0.422
848	-0.408
849	-0.395
849	-0.384
850	-0.374
850	-0.362
851	-0.348
851	-0.331
851	-0.321
852	-0.305
852	-0.292
853	-0.283
853	-0.272
854	-0.26
854	-0.248
854	-0.234
855	-0.223
855	-0.214
856	-0.206
856	-0.197
857	-0.19
857	-0.181
857	-0.167
858	-0.155
858	-0.148
859	-0.137
859	-0.125
860	-0.114
860	-0.099
860	-0.088
861	-0.078
861	-0.067
862	-0.059
862	-0.051
863	-0.043
863	-0.033
863	-0.027
864	-0.021
864	-0.014
865	-0.007
865	-0.001
866	0.004
866	0.01
866	0.015
867	0.021
867	0.026
868	0.031
868	0.037
869	0.042
869	0.045
869	0.048
870	0.05
870	0.052
871	0.054
871	0.056
872	0.057
872	0.058
872	0.059
873	0.059
873	0.059
874	0.058
874	0.058
875	0.058
875	0.057
875	0.057
876	0.057
876	0.057
877	0.056
877	0.055
878	0.055
878	0.055
878	0.054
879	0.054
879	0.054
880	0.053
880	0.052
881	0.051
881	0.05
881	0.049
882	0.048
882	0.046
883	0.045
883	0.044
884	0.043
884	0.042
884	0.041
885	0.041
885	0.041
886	0.04
886	0.04
887	0.039
887	0.039
887	0.038
888	0.038
888	0.037
889	0.036
889	0.035
890	0.034
890	0.034
890	0.033
891	0.033
891	0.033
892	0.033
892	0.033
893	0.033
893	0.033
893	0.033
894	0.033
894	0.033
895	0.033
895	0.033
895	0.033
896	0.033
896	0.033
897	0.033
897	0.033
898	0.034
898	0.034
898	0.034
899	0.035
899	0.035
900	0.035
900	0.035
901	0.034
901	0.034
901	0.033
902	0.033
902	0.033
903	0.032
903	0.032
904	0.031
904	0.031
904	0.031
905	0.032
905	0.032
906	0.033
906	0.034
907	0.035
907	0.035
907	0.035
908	0.036
908	0.037
909	0.037
909	0.038
910	0.038
910	0.038
910	0.038
911	0.039
911	0.04
912	0.04
912	0.041
913	0.041
913	0.042
913	0.042
914	0.043
914	0.043
915	0.043
915	0.043
916	0.043
916	0.043
916	0.043
917	0.043
917	0.043
918	0.042
918	0.042
918	0.042
919	0.042
919	0.042
920	0.042
920	0.043
921	0.044
921	0.044
921	0.045
922	0.046
922	0.046
923	0.046
923	0.046
924	0.046
924	0.046
924	0.045
925	0.044
925	0.043
926	0.041
926	0.04
927	0.039
927	0.038
927	0.037
928	0.036
928	0.036
929	0.036
929	0.036
930	0.037
930	0.037
930	0.038
931	0.039
931	0.04
932	0.041
932	0.042
933	0.043
933	0.044
933	0.044
934	0.043
934	0.043
935	0.042
935	0.041
935	0.04
936	0.039
936	0.038
937	0.036
937	0.035
938	0.035
938	0.034
938	0.034
939	0.033
939	0.032
940	0.032
940	0.031
941	0.03
941	0.029
941	0.029
942	0.028
942	0.028
943	0.028
943	0.027
944	0.026
944	0.025
944	0.024
945	0.024
945	0.024
946	0.023
946	0.022
946	0.022
947	0.022
947	0.022
948	0.023
948	0.024
949	0.024
949	0.026
949	0.028
950	0.029
950	0.031
951	0.033
951	0.034
952	0.035
952	0.036
952	0.037
953	0.037
953	0.038
954	0.038
954	0.037
955	0.037
955	0.037
955	0.036
956	0.035
956	0.035
957	0.034
957	0.033
957	0.032
958	0.031
958	0.031
959	0.031
959	0.03
960	0.03
960	0.03
960	0.03
961	0.03
961	0.03
962	0.03
962	0.031
963	0.031
963	0.031
963	0.031
964	0.031
964	0.031
965	0.032
965	0.032
966	0.032
966	0.032
966	0.033
967	0.033
967	0.033
968	0.033
968	0.032
968	0.033
969	0.033
969	0.032
970	0.032
970	0.032
971	0.032
971	0.032
971	0.032
972	0.032
972	0.032
973	0.033
973	0.032
974	0.032
974	0.032
974	0.032
975	0.033
975	0.033
976	0.032
976	0.032
976	0.032
977	0.032
977	0.031
978	0.031
978	0.03
979	0.03
979	0.03
979	0.029
980	0.029
980	0.029
981	0.029
981	0.029
982	0.029
982	0.029
982	0.029
983	0.029
983	0.029
984	0.029
984	0.028
984	0.028
985	0.027
985	0.027
986	0.026
986	0.025
987	0.024
987	0.024
987	0.023
988	0.022
988	0.021
989	0.021
989	0.02
990	0.019
990	0.018
990	0.018
991	0.017
991	0.016
992	0.016
992	0.015
992	0.014
993	0.013
993	0.012
994	0.011
994	0.01
995	0.009
995	0.007
995	0.006
996	0.004
996	0.003
997	0.002
997	0.001
997	0
998	0
998	0
999	0
999	0
1000	0.001
1000	0.001
1000	0.002
1001	0.003
1001	0.004
1002	0.004
1002	0.004
1003	0.005
1003	0.004
1003	0.005
1004	0.004
1004	0.004
1005	0.004
1005	0.003
1005	0.003
1006	0.002
1006	0.001
1007	0
1007	-0.001
1008	-0.001
1008	-0.002
1008	-0.002
1009	-0.002
1009	-0.002
1010	-0.002
1010	-0.001
1010	-0.001
1011	0
1011	0.001
1012	0.002
1012	0.003
1013	0.005
1013	0.005
1013	0.007
1014	0.007
1014	0.008
1015	0.009
1015	0.009
1016	0.01
1016	0.01
1016	0.01
1017	0.009
1017	0.009
1018	0.009
1018	0.009
1018	0.008
1019	0.008
1019	0.007
1020	0.007
1020	0.006
1021	0.006
1021	0.006
1021	0.005
1022	0.005
1022	0.005
1023	0.005
1023	0.005
1023	0.005
1024	0.006
1024	0.006
1025	0.006
1025	0.007
1026	0.007
1026	0.008
1026	0.008
1027	0.008
1027	0.008
1028	0.009
1028	0.01
1028	0.01
1029	0.009
1029	0.01
1030	0.009
1030	0.009
1031	0.009
1031	0.009
1031	0.01
1032	0.009
1032	0.009
1033	0.008
1033	0.008
1033	0.008
1034	0.008
1034	0.008
1035	0.008
1035	0.007
1036	0.006
1036	0.006
1036	0.005
1037	0.005
1037	0.005
1038	0.005
1038	0.005
1039	0.006
1039	0.006
1039	0.006
1040	0.007
1040	0.007
1041	0.007
1041	0.007
1041	0.007
1042	0.006
1042	0.005
1043	0.004
1043	0.003
1044	0.003
1044	0.002
1044	0.001
1045	0
1045	-0
1046	-0.001
1046	-0.002
1046	-0.002
1047	-0.002
1047	-0.002
1048	-0.001
1048	-0.001
1049	-0.001
1049	-0.001
1049	-0.001
1050	-0.002
1050	-0.002
1051	-0.003
1051	-0.003
1051	-0.004
1052	-0.005
1052	-0.006
1053	-0.006
1053	-0.007
1053	-0.008
1054	-0.008
1054	-0.009
1055	-0.008
1055	-0.009
1056	-0.009
1056	-0.009
1056	-0.009
1057	-0.01
1057	-0.01
1058	-0.01
1058	-0.011
1058	-0.011
1059	-0.011
1059	-0.012
1060	-0.012
1060	-0.013
1061	-0.013
1061	-0.014
1061	-0.014
1062	-0.014
1062	-0.014
1063	-0.013
1063	-0.014
1063	-0.014
1064	-0.014
1064	-0.013
1065	-0.013
1065	-0.013
1066	-0.013
1066	-0.013
1066	-0.014
1067	-0.014
1067	-0.015
1068	-0.016
1068	-0.016
1068	-0.017
1069	-0.018
1069	-0.019
1070	-0.02
1070	-0.02
1071	-0.021
1071	-0.021
1071	-0.021
1072	-0.022
1072	-0.022
1073	-0.022
1073	-0.022
1073	-0.022
1074	-0.022
1074	-0.023
1075	-0.023
1075	-0.024
1076	-0.025
1076	-0.025
1076	-0.026
1077	-0.027
1077	-0.027
1078	-0.028
1078	-0.029
1078	-0.029
1079	-0.03
1079	-0.03
1080	-0.032
1080	-0.033
1080	-0.034
1081	-0.035
1081	-0.036
1082	-0.037
1082	-0.038
1083	-0.04
1083	-0.041
1083	-0.042
1084	-0.044
1084	-0.045
1085	-0.046
1085	-0.047
1085	-0.047
1086	-0.048
1086	-0.05
1087	-0.051
1087	-0.051
1088	-0.052
1088	-0.053
1088	-0.054
1089	-0.055
1089	-0.055
1090	-0.056
1090	-0.057
1090	-0.058
1091	-0.059
1091	-0.059
1092	-0.059
1092	-0.059
1092	-0.06
1093	-0.06
1093	-0.06
1094	-0.061
1094	-0.061
1095	-0.063
1095	-0.063
1095	-0.063
1096	-0.065
1096	-0.067
1097	-0.068
1097	-0.071
1097	-0.072
1098	-0.075
1098	-0.077
1099	-0.079
1099	-0.08
1100	-0.083
1100	-0.086
1100	-0.088
1101	-0.092
1101	-0.094
1102	-0.096
1102	-0.099
1102	-0.101
1103	-0.104
1103	-0.107
1104	-0.11
1104	-0.114
1104	-0.115
1105	-0.117
1105	-0.119
1106	-0.125
1106	-0.127
1107	-0.133
1107	-0.138
1107	-0.143
1108	-0.145
1108	-0.146
1109	-0.15
1109	-0.154
1109	-0.16
1110	-0.162
1110	-0.165
1111	-0.176
1111	-0.172
