Data from 3.4A_17C_Absorbance__513__02425.txt Node

Date: Tue Jun 20 16:43:04 CEST 2023
User: Marek
Spectrometer: MAYP115816
Trigger mode: 0
Integration Time (sec): 2.200000E-1
Scans to average: 10
Electric dark correction enabled: true
Nonlinearity correction enabled: true
Boxcar width: 5
XAxis mode: Wavelengths
Number of Pixels in Spectrum: 2068
>>>>>Begin Spectral Data<<<<<
199	-0.803
199	-0.788
200	-0.751
200	-0.696
201	-0.668
201	-0.658
202	-0.641
202	-0.635
203	-0.634
203	-0.628
204	-0.607
204	-0.591
205	-0.568
205	-0.559
205	-0.57
206	-0.572
206	-0.569
207	-0.563
207	-0.568
208	-0.569
208	-0.573
209	-0.574
209	-0.581
210	-0.593
210	-0.6
211	-0.591
211	-0.595
212	-0.604
212	-0.61
213	-0.607
213	-0.603
213	-0.601
214	-0.609
214	-0.61
215	-0.607
215	-0.612
216	-0.622
216	-0.627
217	-0.624
217	-0.624
218	-0.631
218	-0.634
219	-0.641
219	-0.642
220	-0.646
220	-0.653
221	-0.654
221	-0.656
221	-0.647
222	-0.647
222	-0.647
223	-0.643
223	-0.643
224	-0.645
224	-0.643
225	-0.64
225	-0.642
226	-0.641
226	-0.639
227	-0.648
227	-0.658
228	-0.662
228	-0.671
229	-0.677
229	-0.673
229	-0.673
230	-0.668
230	-0.665
231	-0.661
231	-0.657
232	-0.658
232	-0.652
233	-0.651
233	-0.639
234	-0.639
234	-0.634
235	-0.639
235	-0.65
236	-0.657
236	-0.659
236	-0.658
237	-0.656
237	-0.658
238	-0.659
238	-0.661
239	-0.662
239	-0.672
240	-0.665
240	-0.661
241	-0.658
241	-0.661
242	-0.665
242	-0.674
243	-0.675
243	-0.677
243	-0.683
244	-0.679
244	-0.68
245	-0.682
245	-0.687
246	-0.696
246	-0.698
247	-0.708
247	-0.692
248	-0.691
248	-0.693
249	-0.697
249	-0.698
250	-0.698
250	-0.707
250	-0.703
251	-0.704
251	-0.703
252	-0.704
252	-0.717
253	-0.712
253	-0.724
254	-0.729
254	-0.731
255	-0.74
255	-0.739
256	-0.742
256	-0.754
257	-0.762
257	-0.759
258	-0.761
258	-0.769
258	-0.767
259	-0.759
259	-0.776
260	-0.777
260	-0.765
261	-0.777
261	-0.763
262	-0.768
262	-0.766
263	-0.757
263	-0.762
264	-0.771
264	-0.773
265	-0.765
265	-0.767
265	-0.777
266	-0.767
266	-0.766
267	-0.766
267	-0.782
268	-0.789
268	-0.784
269	-0.775
269	-0.79
270	-0.794
270	-0.793
271	-0.807
271	-0.815
272	-0.817
272	-0.82
272	-0.813
273	-0.824
273	-0.839
274	-0.83
274	-0.827
275	-0.821
275	-0.809
276	-0.811
276	-0.818
277	-0.82
277	-0.818
278	-0.822
278	-0.821
278	-0.809
279	-0.819
279	-0.831
280	-0.836
280	-0.847
281	-0.842
281	-0.834
282	-0.841
282	-0.834
283	-0.828
283	-0.844
284	-0.856
284	-0.867
285	-0.848
285	-0.853
285	-0.844
286	-0.85
286	-0.866
287	-0.864
287	-0.864
288	-0.862
288	-0.842
289	-0.84
289	-0.847
290	-0.856
290	-0.844
291	-0.847
291	-0.845
292	-0.825
292	-0.821
292	-0.825
293	-0.814
293	-0.809
294	-0.809
294	-0.795
295	-0.777
295	-0.79
296	-0.803
296	-0.798
297	-0.786
297	-0.791
298	-0.787
298	-0.803
298	-0.808
299	-0.789
299	-0.781
300	-0.778
300	-0.759
301	-0.739
301	-0.742
302	-0.753
302	-0.738
303	-0.732
303	-0.721
304	-0.705
304	-0.708
305	-0.701
305	-0.709
305	-0.724
306	-0.709
306	-0.707
307	-0.698
307	-0.709
308	-0.712
308	-0.708
309	-0.708
309	-0.704
310	-0.704
310	-0.7
311	-0.687
311	-0.707
311	-0.693
312	-0.689
312	-0.678
313	-0.67
313	-0.671
314	-0.679
314	-0.675
315	-0.672
315	-0.664
316	-0.659
316	-0.647
317	-0.64
317	-0.639
318	-0.629
318	-0.626
318	-0.616
319	-0.603
319	-0.596
320	-0.593
320	-0.59
321	-0.585
321	-0.586
322	-0.579
322	-0.571
323	-0.573
323	-0.563
324	-0.561
324	-0.549
324	-0.539
325	-0.524
325	-0.508
326	-0.499
326	-0.472
327	-0.457
327	-0.435
328	-0.404
328	-0.38
329	-0.35
329	-0.321
330	-0.292
330	-0.256
330	-0.219
331	-0.182
331	-0.149
332	-0.114
332	-0.08
333	-0.05
333	-0.017
334	0.013
334	0.039
335	0.066
335	0.089
336	0.112
336	0.133
336	0.151
337	0.168
337	0.185
338	0.199
338	0.21
339	0.223
339	0.235
340	0.243
340	0.252
341	0.259
341	0.266
342	0.273
342	0.279
342	0.284
343	0.288
343	0.293
344	0.296
344	0.299
345	0.302
345	0.305
346	0.307
346	0.309
347	0.311
347	0.313
348	0.314
348	0.316
348	0.317
349	0.318
349	0.319
350	0.32
350	0.321
351	0.321
351	0.321
352	0.321
352	0.321
353	0.322
353	0.322
354	0.322
354	0.322
354	0.322
355	0.321
355	0.321
356	0.322
356	0.322
357	0.322
357	0.322
358	0.322
358	0.322
359	0.322
359	0.322
360	0.322
360	0.322
360	0.322
361	0.322
361	0.322
362	0.322
362	0.322
363	0.322
363	0.322
364	0.322
364	0.322
365	0.322
365	0.322
366	0.322
366	0.322
366	0.322
367	0.322
367	0.322
368	0.321
368	0.321
369	0.321
369	0.321
370	0.321
370	0.32
371	0.32
371	0.32
372	0.319
372	0.319
372	0.319
373	0.319
373	0.319
374	0.319
374	0.318
375	0.318
375	0.318
376	0.318
376	0.318
377	0.318
377	0.317
378	0.317
378	0.316
378	0.316
379	0.316
379	0.316
380	0.316
380	0.316
381	0.315
381	0.315
382	0.315
382	0.314
383	0.314
383	0.314
383	0.314
384	0.313
384	0.313
385	0.313
385	0.313
386	0.312
386	0.312
387	0.312
387	0.312
388	0.312
388	0.311
389	0.311
389	0.311
389	0.311
390	0.311
390	0.311
391	0.31
391	0.31
392	0.31
392	0.31
393	0.309
393	0.309
394	0.309
394	0.308
394	0.308
395	0.308
395	0.307
396	0.307
396	0.307
397	0.307
397	0.306
398	0.306
398	0.306
399	0.306
399	0.305
400	0.305
400	0.305
400	0.305
401	0.304
401	0.304
402	0.304
402	0.304
403	0.304
403	0.303
404	0.303
404	0.303
405	0.303
405	0.302
405	0.302
406	0.302
406	0.302
407	0.301
407	0.301
408	0.3
408	0.3
409	0.3
409	0.3
410	0.3
410	0.3
411	0.3
411	0.3
411	0.3
412	0.299
412	0.299
413	0.299
413	0.299
414	0.298
414	0.298
415	0.298
415	0.297
416	0.297
416	0.297
416	0.296
417	0.296
417	0.296
418	0.296
418	0.296
419	0.296
419	0.296
420	0.296
420	0.296
421	0.295
421	0.295
421	0.295
422	0.295
422	0.295
423	0.295
423	0.295
424	0.295
424	0.294
425	0.294
425	0.294
426	0.294
426	0.294
427	0.294
427	0.294
427	0.294
428	0.294
428	0.294
429	0.293
429	0.293
430	0.293
430	0.292
431	0.292
431	0.292
432	0.292
432	0.291
432	0.291
433	0.291
433	0.291
434	0.291
434	0.291
435	0.291
435	0.291
436	0.291
436	0.291
437	0.291
437	0.291
437	0.291
438	0.291
438	0.291
439	0.291
439	0.29
440	0.29
440	0.29
441	0.29
441	0.29
442	0.29
442	0.289
442	0.289
443	0.289
443	0.289
444	0.289
444	0.289
445	0.289
445	0.289
446	0.289
446	0.289
447	0.289
447	0.289
447	0.289
448	0.289
448	0.289
449	0.289
449	0.289
450	0.289
450	0.29
451	0.29
451	0.29
452	0.29
452	0.29
452	0.29
453	0.29
453	0.29
454	0.29
454	0.29
455	0.29
455	0.29
456	0.291
456	0.291
457	0.29
457	0.29
458	0.29
458	0.29
458	0.291
459	0.291
459	0.29
460	0.29
460	0.29
461	0.29
461	0.29
462	0.291
462	0.291
463	0.292
463	0.293
463	0.293
464	0.293
464	0.293
465	0.294
465	0.295
466	0.295
466	0.295
467	0.296
467	0.296
467	0.296
468	0.296
468	0.296
469	0.296
469	0.297
470	0.297
470	0.297
471	0.297
471	0.297
472	0.297
472	0.298
472	0.298
473	0.299
473	0.3
474	0.3
474	0.301
475	0.301
475	0.303
476	0.303
476	0.304
477	0.305
477	0.306
477	0.307
478	0.307
478	0.308
479	0.309
479	0.309
480	0.31
480	0.31
481	0.311
481	0.312
482	0.313
482	0.314
482	0.315
483	0.316
483	0.318
484	0.319
484	0.32
485	0.321
485	0.322
486	0.323
486	0.324
487	0.326
487	0.327
487	0.328
488	0.329
488	0.329
489	0.33
489	0.332
490	0.334
490	0.335
491	0.337
491	0.338
492	0.339
492	0.341
492	0.342
493	0.343
493	0.345
494	0.347
494	0.349
495	0.351
495	0.352
496	0.354
496	0.356
496	0.358
497	0.36
497	0.362
498	0.364
498	0.366
499	0.368
499	0.37
500	0.373
500	0.375
501	0.377
501	0.379
501	0.381
502	0.383
502	0.385
503	0.388
503	0.39
504	0.392
504	0.394
505	0.397
505	0.399
506	0.402
506	0.405
506	0.408
507	0.41
507	0.413
508	0.416
508	0.419
509	0.422
509	0.425
510	0.427
510	0.429
511	0.432
511	0.434
511	0.436
512	0.438
512	0.44
513	0.442
513	0.444
514	0.446
514	0.448
515	0.45
515	0.452
515	0.453
516	0.455
516	0.457
517	0.459
517	0.461
518	0.463
518	0.464
519	0.466
519	0.467
520	0.468
520	0.47
520	0.471
521	0.472
521	0.474
522	0.475
522	0.476
523	0.477
523	0.479
524	0.48
524	0.481
524	0.482
525	0.483
525	0.484
526	0.485
526	0.485
527	0.486
527	0.486
528	0.486
528	0.486
529	0.486
529	0.486
529	0.486
530	0.486
530	0.486
531	0.486
531	0.485
532	0.484
532	0.484
533	0.484
533	0.483
533	0.482
534	0.481
534	0.481
535	0.48
535	0.479
536	0.478
536	0.478
537	0.477
537	0.476
538	0.475
538	0.474
538	0.472
539	0.471
539	0.47
540	0.468
540	0.466
541	0.464
541	0.463
542	0.461
542	0.459
542	0.457
543	0.455
543	0.453
544	0.45
544	0.448
545	0.446
545	0.445
546	0.442
546	0.44
547	0.437
547	0.435
547	0.433
548	0.431
548	0.429
549	0.427
549	0.425
550	0.423
550	0.421
551	0.418
551	0.416
551	0.414
552	0.412
552	0.41
553	0.407
553	0.405
554	0.402
554	0.399
555	0.396
555	0.394
556	0.392
556	0.389
556	0.387
557	0.385
557	0.382
558	0.38
558	0.377
559	0.375
559	0.373
560	0.37
560	0.368
560	0.366
561	0.364
561	0.362
562	0.36
562	0.358
563	0.356
563	0.354
564	0.353
564	0.351
564	0.349
565	0.348
565	0.347
566	0.345
566	0.343
567	0.342
567	0.34
568	0.339
568	0.337
568	0.335
569	0.333
569	0.331
570	0.328
570	0.325
571	0.324
571	0.322
572	0.32
572	0.318
573	0.316
573	0.313
573	0.311
574	0.31
574	0.308
575	0.307
575	0.307
576	0.306
576	0.304
577	0.302
577	0.3
577	0.3
578	0.299
578	0.299
579	0.299
579	0.299
580	0.296
580	0.293
581	0.291
581	0.29
581	0.289
582	0.289
582	0.288
583	0.288
583	0.286
584	0.283
584	0.281
585	0.281
585	0.282
585	0.281
586	0.28
586	0.279
587	0.277
587	0.275
588	0.273
588	0.272
589	0.272
589	0.271
590	0.269
590	0.268
590	0.268
591	0.268
591	0.266
592	0.265
592	0.263
593	0.263
593	0.262
594	0.26
594	0.259
594	0.258
595	0.257
595	0.255
596	0.254
596	0.254
597	0.255
597	0.254
598	0.254
598	0.253
598	0.253
599	0.253
599	0.252
600	0.251
600	0.251
601	0.251
601	0.25
602	0.249
602	0.249
602	0.248
603	0.248
603	0.248
604	0.247
604	0.247
605	0.247
605	0.247
606	0.246
606	0.244
606	0.243
607	0.242
607	0.242
608	0.241
608	0.239
609	0.238
609	0.238
610	0.237
610	0.235
610	0.235
611	0.235
611	0.234
612	0.234
612	0.233
613	0.233
613	0.232
614	0.231
614	0.229
614	0.228
615	0.226
615	0.225
616	0.225
616	0.223
617	0.223
617	0.222
618	0.221
618	0.22
618	0.22
619	0.219
619	0.219
620	0.219
620	0.218
621	0.217
621	0.216
622	0.214
622	0.212
622	0.21
623	0.209
623	0.208
624	0.207
624	0.206
625	0.205
625	0.204
626	0.203
626	0.202
626	0.202
627	0.202
627	0.201
628	0.201
628	0.2
629	0.198
629	0.197
630	0.195
630	0.193
630	0.192
631	0.191
631	0.189
632	0.187
632	0.186
633	0.183
633	0.181
634	0.179
634	0.177
634	0.176
635	0.173
635	0.171
636	0.169
636	0.166
637	0.163
637	0.16
638	0.157
638	0.154
638	0.151
639	0.147
639	0.143
640	0.139
640	0.135
641	0.131
641	0.127
642	0.123
642	0.119
642	0.115
643	0.11
643	0.105
644	0.1
644	0.095
645	0.09
645	0.085
646	0.08
646	0.074
646	0.067
647	0.06
647	0.054
648	0.046
648	0.039
649	0.031
649	0.024
650	0.017
650	0.01
650	0.002
651	-0.007
651	-0.019
652	-0.033
652	-0.047
653	-0.06
653	-0.071
653	-0.066
654	-0.046
654	-0.04
655	-0.046
655	-0.051
656	-0.057
656	-0.064
657	-0.069
657	-0.074
657	-0.081
658	-0.088
658	-0.12
659	-0.207
659	-0.297
660	-0.337
660	-0.364
661	-0.392
661	-0.421
661	-0.452
662	-0.479
662	-0.509
663	-0.541
663	-0.579
664	-0.614
664	-0.655
665	-0.7
665	-0.746
665	-0.789
666	-0.84
666	-0.894
667	-0.948
667	-1.01
668	-1.068
668	-1.136
669	-1.203
669	-1.274
669	-1.351
670	-1.43
670	-1.536
671	-1.7
671	-2.031
672	-2.291
672	-2.46
672	-2.583
673	-2.682
673	-2.763
674	-2.841
674	-2.861
675	-2.878
675	-2.883
676	-2.881
676	-2.841
676	-2.776
677	-2.698
677	-2.607
678	-2.474
678	-2.271
679	-1.857
679	-1.646
680	-1.533
680	-1.452
680	-1.381
681	-1.328
681	-1.273
682	-1.23
682	-1.185
683	-1.142
683	-1.117
684	-1.089
684	-1.068
684	-1.045
685	-1.025
685	-1.013
686	-0.99
686	-0.976
687	-0.966
687	-0.954
687	-0.954
688	-0.937
688	-0.928
689	-0.931
689	-0.927
690	-0.912
690	-0.902
691	-0.9
691	-0.904
691	-0.904
692	-0.905
692	-0.901
693	-0.908
693	-0.92
694	-0.9
694	-0.899
695	-0.901
695	-0.895
695	-0.901
696	-0.907
696	-0.899
697	-0.893
697	-0.889
698	-0.884
698	-0.876
698	-0.89
699	-0.889
699	-0.892
700	-0.912
700	-0.905
701	-0.892
701	-0.888
702	-0.888
702	-0.886
702	-0.886
703	-0.876
703	-0.863
704	-0.871
704	-0.874
705	-0.862
705	-0.862
705	-0.855
706	-0.848
706	-0.843
707	-0.855
707	-0.858
708	-0.856
708	-0.854
709	-0.855
709	-0.849
709	-0.845
710	-0.852
710	-0.856
711	-0.856
711	-0.856
712	-0.845
712	-0.841
713	-0.846
713	-0.847
713	-0.825
714	-0.827
714	-0.831
715	-0.823
715	-0.832
716	-0.849
716	-0.859
716	-0.861
717	-0.868
717	-0.861
718	-0.856
718	-0.857
719	-0.853
719	-0.845
720	-0.841
720	-0.836
720	-0.828
721	-0.819
721	-0.824
722	-0.821
722	-0.818
723	-0.836
723	-0.85
723	-0.859
724	-0.857
724	-0.862
725	-0.856
725	-0.86
726	-0.864
726	-0.854
727	-0.857
727	-0.864
727	-0.854
728	-0.839
728	-0.835
729	-0.838
729	-0.841
730	-0.847
730	-0.839
730	-0.844
731	-0.847
731	-0.846
732	-0.848
732	-0.842
733	-0.859
733	-0.864
734	-0.873
734	-0.864
734	-0.845
735	-0.837
735	-0.829
736	-0.829
736	-0.824
737	-0.824
737	-0.814
737	-0.806
738	-0.792
738	-0.779
739	-0.781
739	-0.781
740	-0.793
740	-0.795
741	-0.804
741	-0.816
741	-0.825
742	-0.832
742	-0.845
743	-0.853
743	-0.856
744	-0.859
744	-0.867
744	-0.861
745	-0.868
745	-0.858
746	-0.853
746	-0.844
747	-0.846
747	-0.838
748	-0.841
748	-0.846
748	-0.849
749	-0.843
749	-0.849
750	-0.84
750	-0.841
751	-0.839
751	-0.836
751	-0.849
752	-0.852
752	-0.855
753	-0.856
753	-0.846
754	-0.864
754	-0.866
754	-0.873
755	-0.872
755	-0.863
756	-0.866
756	-0.851
757	-0.843
757	-0.832
758	-0.833
758	-0.832
758	-0.83
759	-0.835
759	-0.834
760	-0.834
760	-0.835
761	-0.829
761	-0.833
761	-0.834
762	-0.84
762	-0.841
763	-0.841
763	-0.846
764	-0.844
764	-0.841
764	-0.846
765	-0.847
765	-0.853
766	-0.854
766	-0.857
767	-0.874
767	-0.869
768	-0.868
768	-0.86
768	-0.855
769	-0.858
769	-0.866
770	-0.876
770	-0.882
771	-0.879
771	-0.878
771	-0.882
772	-0.886
772	-0.907
773	-0.907
773	-0.907
774	-0.905
774	-0.888
775	-0.874
775	-0.873
775	-0.877
776	-0.887
776	-0.883
777	-0.884
777	-0.865
778	-0.874
778	-0.883
778	-0.882
779	-0.892
779	-0.91
780	-0.905
780	-0.914
781	-0.904
781	-0.893
781	-0.906
782	-0.929
782	-0.93
783	-0.93
783	-0.938
784	-0.94
784	-0.931
784	-0.95
785	-0.942
785	-0.954
786	-0.958
786	-0.951
787	-0.94
787	-0.949
788	-0.941
788	-0.935
788	-0.937
789	-0.937
789	-0.927
790	-0.927
790	-0.912
791	-0.918
791	-0.912
791	-0.905
792	-0.896
792	-0.9
793	-0.904
793	-0.892
794	-0.886
794	-0.88
794	-0.887
795	-0.905
795	-0.893
796	-0.901
796	-0.898
797	-0.892
797	-0.881
797	-0.874
798	-0.895
798	-0.899
799	-0.899
799	-0.885
800	-0.882
800	-0.89
801	-0.885
801	-0.89
801	-0.887
802	-0.887
802	-0.887
803	-0.881
803	-0.873
804	-0.878
804	-0.888
804	-0.87
805	-0.849
805	-0.842
806	-0.84
806	-0.837
807	-0.836
807	-0.835
807	-0.817
808	-0.814
808	-0.806
809	-0.8
809	-0.801
810	-0.804
810	-0.802
810	-0.798
811	-0.803
811	-0.797
812	-0.79
812	-0.793
813	-0.797
813	-0.799
813	-0.795
814	-0.795
814	-0.801
815	-0.792
815	-0.788
816	-0.784
816	-0.8
817	-0.813
817	-0.817
817	-0.827
818	-0.818
818	-0.815
819	-0.825
819	-0.822
820	-0.833
820	-0.833
820	-0.832
821	-0.827
821	-0.823
822	-0.82
822	-0.808
823	-0.82
823	-0.818
823	-0.811
824	-0.811
824	-0.822
825	-0.82
825	-0.816
826	-0.812
826	-0.807
826	-0.808
827	-0.808
827	-0.799
828	-0.8
828	-0.794
829	-0.789
829	-0.773
829	-0.771
830	-0.769
830	-0.753
831	-0.748
831	-0.738
832	-0.729
832	-0.722
832	-0.714
833	-0.715
833	-0.72
834	-0.715
834	-0.71
835	-0.701
835	-0.702
835	-0.696
836	-0.69
836	-0.687
837	-0.677
837	-0.669
838	-0.655
838	-0.637
839	-0.631
839	-0.618
839	-0.609
840	-0.606
840	-0.596
841	-0.587
841	-0.579
842	-0.571
842	-0.557
842	-0.554
843	-0.549
843	-0.544
844	-0.541
844	-0.531
845	-0.517
845	-0.507
845	-0.496
846	-0.484
846	-0.473
847	-0.463
847	-0.45
848	-0.435
848	-0.419
848	-0.405
849	-0.392
849	-0.379
850	-0.369
850	-0.358
851	-0.345
851	-0.328
851	-0.318
852	-0.302
852	-0.29
853	-0.281
853	-0.27
854	-0.258
854	-0.246
854	-0.233
855	-0.221
855	-0.212
856	-0.204
856	-0.194
857	-0.186
857	-0.177
857	-0.163
858	-0.152
858	-0.144
859	-0.133
859	-0.121
860	-0.109
860	-0.095
860	-0.084
861	-0.074
861	-0.063
862	-0.053
862	-0.045
863	-0.037
863	-0.027
863	-0.02
864	-0.014
864	-0.006
865	0.001
865	0.007
866	0.014
866	0.02
866	0.025
867	0.031
867	0.037
868	0.042
868	0.047
869	0.052
869	0.055
869	0.058
870	0.06
870	0.062
871	0.064
871	0.066
872	0.067
872	0.068
872	0.069
873	0.069
873	0.068
874	0.068
874	0.068
875	0.067
875	0.067
875	0.067
876	0.066
876	0.066
877	0.065
877	0.065
878	0.064
878	0.064
878	0.064
879	0.063
879	0.063
880	0.062
880	0.062
881	0.061
881	0.06
881	0.059
882	0.058
882	0.056
883	0.055
883	0.053
884	0.052
884	0.051
884	0.051
885	0.05
885	0.05
886	0.05
886	0.049
887	0.049
887	0.049
887	0.048
888	0.048
888	0.048
889	0.047
889	0.046
890	0.045
890	0.044
890	0.044
891	0.044
891	0.043
892	0.044
892	0.043
893	0.043
893	0.043
893	0.043
894	0.043
894	0.043
895	0.042
895	0.042
895	0.042
896	0.042
896	0.042
897	0.042
897	0.042
898	0.042
898	0.042
898	0.042
899	0.042
899	0.042
900	0.042
900	0.042
901	0.042
901	0.042
901	0.041
902	0.041
902	0.041
903	0.041
903	0.041
904	0.041
904	0.041
904	0.041
905	0.042
905	0.042
906	0.043
906	0.043
907	0.044
907	0.044
907	0.045
908	0.045
908	0.045
909	0.046
909	0.046
910	0.046
910	0.047
910	0.047
911	0.047
911	0.048
912	0.048
912	0.049
913	0.05
913	0.05
913	0.05
914	0.051
914	0.051
915	0.051
915	0.051
916	0.051
916	0.051
916	0.051
917	0.051
917	0.051
918	0.05
918	0.05
918	0.05
919	0.05
919	0.05
920	0.05
920	0.051
921	0.052
921	0.053
921	0.053
922	0.054
922	0.054
923	0.055
923	0.055
924	0.055
924	0.055
924	0.054
925	0.053
925	0.052
926	0.05
926	0.049
927	0.048
927	0.047
927	0.047
928	0.046
928	0.046
929	0.046
929	0.046
930	0.047
930	0.047
930	0.048
931	0.049
931	0.05
932	0.051
932	0.052
933	0.053
933	0.054
933	0.053
934	0.053
934	0.053
935	0.052
935	0.051
935	0.05
936	0.049
936	0.047
937	0.046
937	0.045
938	0.044
938	0.043
938	0.042
939	0.042
939	0.041
940	0.041
940	0.04
941	0.039
941	0.038
941	0.038
942	0.037
942	0.036
943	0.036
943	0.035
944	0.034
944	0.033
944	0.032
945	0.032
945	0.032
946	0.031
946	0.03
946	0.03
947	0.031
947	0.031
948	0.031
948	0.032
949	0.032
949	0.034
949	0.035
950	0.037
950	0.038
951	0.04
951	0.041
952	0.041
952	0.043
952	0.043
953	0.044
953	0.045
954	0.045
954	0.044
955	0.044
955	0.044
955	0.044
956	0.043
956	0.043
957	0.042
957	0.041
957	0.04
958	0.039
958	0.039
959	0.038
959	0.038
960	0.038
960	0.037
960	0.037
961	0.037
961	0.038
962	0.038
962	0.038
963	0.038
963	0.038
963	0.039
964	0.039
964	0.039
965	0.039
965	0.04
966	0.04
966	0.04
966	0.04
967	0.041
967	0.041
968	0.04
968	0.04
968	0.04
969	0.04
969	0.04
970	0.04
970	0.039
971	0.039
971	0.039
971	0.039
972	0.039
972	0.039
973	0.04
973	0.039
974	0.04
974	0.04
974	0.04
975	0.04
975	0.04
976	0.04
976	0.04
976	0.04
977	0.04
977	0.039
978	0.039
978	0.038
979	0.038
979	0.038
979	0.037
980	0.037
980	0.037
981	0.037
981	0.037
982	0.037
982	0.037
982	0.037
983	0.037
983	0.037
984	0.037
984	0.036
984	0.036
985	0.035
985	0.035
986	0.034
986	0.033
987	0.033
987	0.032
987	0.032
988	0.031
988	0.03
989	0.029
989	0.028
990	0.028
990	0.027
990	0.026
991	0.025
991	0.024
992	0.023
992	0.022
992	0.022
993	0.021
993	0.02
994	0.019
994	0.017
995	0.016
995	0.015
995	0.013
996	0.012
996	0.01
997	0.009
997	0.008
997	0.007
998	0.007
998	0.007
999	0.007
999	0.007
1000	0.007
1000	0.008
1000	0.008
1001	0.009
1001	0.01
1002	0.01
1002	0.011
1003	0.011
1003	0.011
1003	0.011
1004	0.011
1004	0.011
1005	0.011
1005	0.01
1005	0.009
1006	0.009
1006	0.008
1007	0.007
1007	0.006
1008	0.006
1008	0.005
1008	0.005
1009	0.005
1009	0.005
1010	0.005
1010	0.006
1010	0.006
1011	0.007
1011	0.008
1012	0.009
1012	0.01
1013	0.011
1013	0.012
1013	0.013
1014	0.013
1014	0.014
1015	0.014
1015	0.015
1016	0.015
1016	0.015
1016	0.015
1017	0.014
1017	0.014
1018	0.014
1018	0.014
1018	0.014
1019	0.014
1019	0.013
1020	0.013
1020	0.013
1021	0.012
1021	0.012
1021	0.012
1022	0.012
1022	0.012
1023	0.012
1023	0.012
1023	0.012
1024	0.012
1024	0.013
1025	0.013
1025	0.014
1026	0.014
1026	0.015
1026	0.014
1027	0.015
1027	0.015
1028	0.015
1028	0.016
1028	0.017
1029	0.016
1029	0.017
1030	0.016
1030	0.016
1031	0.016
1031	0.016
1031	0.016
1032	0.016
1032	0.016
1033	0.015
1033	0.014
1033	0.014
1034	0.014
1034	0.014
1035	0.013
1035	0.013
1036	0.012
1036	0.012
1036	0.012
1037	0.012
1037	0.012
1038	0.012
1038	0.012
1039	0.012
1039	0.012
1039	0.013
1040	0.013
1040	0.013
1041	0.013
1041	0.013
1041	0.013
1042	0.012
1042	0.011
1043	0.01
1043	0.01
1044	0.009
1044	0.008
1044	0.007
1045	0.006
1045	0.006
1046	0.005
1046	0.005
1046	0.005
1047	0.004
1047	0.004
1048	0.005
1048	0.005
1049	0.005
1049	0.005
1049	0.005
1050	0.004
1050	0.004
1051	0.003
1051	0.002
1051	0.002
1052	0.001
1052	0
1053	-0
1053	-0.001
1053	-0.001
1054	-0.002
1054	-0.002
1055	-0.002
1055	-0.002
1056	-0.002
1056	-0.002
1056	-0.003
1057	-0.003
1057	-0.003
1058	-0.004
1058	-0.004
1058	-0.004
1059	-0.004
1059	-0.005
1060	-0.006
1060	-0.006
1061	-0.007
1061	-0.007
1061	-0.006
1062	-0.007
1062	-0.007
1063	-0.007
1063	-0.008
1063	-0.007
1064	-0.007
1064	-0.006
1065	-0.006
1065	-0.006
1066	-0.007
1066	-0.008
1066	-0.008
1067	-0.008
1067	-0.008
1068	-0.009
1068	-0.01
1068	-0.011
1069	-0.011
1069	-0.013
1070	-0.013
1070	-0.014
1071	-0.014
1071	-0.014
1071	-0.015
1072	-0.016
1072	-0.016
1073	-0.016
1073	-0.016
1073	-0.016
1074	-0.016
1074	-0.017
1075	-0.018
1075	-0.018
1076	-0.019
1076	-0.019
1076	-0.02
1077	-0.021
1077	-0.022
1078	-0.023
1078	-0.024
1078	-0.024
1079	-0.025
1079	-0.025
1080	-0.027
1080	-0.027
1080	-0.029
1081	-0.03
1081	-0.03
1082	-0.031
1082	-0.033
1083	-0.034
1083	-0.035
1083	-0.036
1084	-0.037
1084	-0.038
1085	-0.039
1085	-0.04
1085	-0.041
1086	-0.042
1086	-0.043
1087	-0.044
1087	-0.044
1088	-0.046
1088	-0.047
1088	-0.047
1089	-0.048
1089	-0.049
1090	-0.049
1090	-0.05
1090	-0.052
1091	-0.053
1091	-0.053
1092	-0.054
1092	-0.054
1092	-0.055
1093	-0.056
1093	-0.056
1094	-0.057
1094	-0.058
1095	-0.059
1095	-0.059
1095	-0.06
1096	-0.061
1096	-0.063
1097	-0.064
1097	-0.066
1097	-0.068
1098	-0.07
1098	-0.072
1099	-0.074
1099	-0.076
1100	-0.079
1100	-0.081
1100	-0.085
1101	-0.087
1101	-0.09
1102	-0.091
1102	-0.094
1102	-0.096
1103	-0.098
1103	-0.101
1104	-0.105
1104	-0.108
1104	-0.11
1105	-0.113
1105	-0.117
1106	-0.122
1106	-0.124
1107	-0.131
1107	-0.137
1107	-0.142
1108	-0.145
1108	-0.146
1109	-0.15
1109	-0.155
1109	-0.159
1110	-0.161
1110	-0.165
1111	-0.176
1111	-0.172
