Data from 3.4A_17C_Absorbance__116__02028.txt Node

Date: Tue Jun 20 16:28:31 CEST 2023
User: Marek
Spectrometer: MAYP115816
Trigger mode: 0
Integration Time (sec): 2.200000E-1
Scans to average: 10
Electric dark correction enabled: true
Nonlinearity correction enabled: true
Boxcar width: 5
XAxis mode: Wavelengths
Number of Pixels in Spectrum: 2068
>>>>>Begin Spectral Data<<<<<
199	-0.809
199	-0.79
200	-0.755
200	-0.698
201	-0.671
201	-0.66
202	-0.643
202	-0.635
203	-0.634
203	-0.625
204	-0.605
204	-0.587
205	-0.565
205	-0.555
205	-0.564
206	-0.565
206	-0.561
207	-0.552
207	-0.559
208	-0.559
208	-0.565
209	-0.564
209	-0.571
210	-0.581
210	-0.589
211	-0.583
211	-0.587
212	-0.597
212	-0.604
213	-0.598
213	-0.593
213	-0.589
214	-0.599
214	-0.601
215	-0.599
215	-0.603
216	-0.611
216	-0.616
217	-0.612
217	-0.613
218	-0.623
218	-0.627
219	-0.634
219	-0.634
220	-0.637
220	-0.643
221	-0.645
221	-0.646
221	-0.639
222	-0.639
222	-0.637
223	-0.633
223	-0.635
224	-0.635
224	-0.635
225	-0.634
225	-0.635
226	-0.634
226	-0.634
227	-0.641
227	-0.651
228	-0.656
228	-0.665
229	-0.67
229	-0.669
229	-0.667
230	-0.661
230	-0.66
231	-0.657
231	-0.651
232	-0.653
232	-0.647
233	-0.646
233	-0.633
234	-0.634
234	-0.629
235	-0.633
235	-0.647
236	-0.653
236	-0.654
236	-0.654
237	-0.653
237	-0.655
238	-0.656
238	-0.658
239	-0.659
239	-0.667
240	-0.66
240	-0.655
241	-0.649
241	-0.652
242	-0.655
242	-0.662
243	-0.661
243	-0.664
243	-0.667
244	-0.665
244	-0.668
245	-0.672
245	-0.676
246	-0.688
246	-0.691
247	-0.699
247	-0.684
248	-0.684
248	-0.686
249	-0.693
249	-0.693
250	-0.692
250	-0.697
250	-0.694
251	-0.694
251	-0.691
252	-0.694
252	-0.707
253	-0.703
253	-0.715
254	-0.718
254	-0.72
255	-0.73
255	-0.73
256	-0.734
256	-0.745
257	-0.754
257	-0.748
258	-0.75
258	-0.757
258	-0.755
259	-0.749
259	-0.767
260	-0.765
260	-0.754
261	-0.763
261	-0.75
262	-0.755
262	-0.753
263	-0.742
263	-0.747
264	-0.756
264	-0.757
265	-0.748
265	-0.751
265	-0.762
266	-0.755
266	-0.756
267	-0.757
267	-0.773
268	-0.783
268	-0.776
269	-0.769
269	-0.785
270	-0.789
270	-0.79
271	-0.802
271	-0.811
272	-0.812
272	-0.813
272	-0.806
273	-0.815
273	-0.831
274	-0.824
274	-0.818
275	-0.815
275	-0.802
276	-0.805
276	-0.809
277	-0.811
277	-0.809
278	-0.814
278	-0.815
278	-0.801
279	-0.808
279	-0.821
280	-0.823
280	-0.834
281	-0.828
281	-0.823
282	-0.83
282	-0.825
283	-0.818
283	-0.833
284	-0.848
284	-0.858
285	-0.838
285	-0.843
285	-0.834
286	-0.839
286	-0.855
287	-0.851
287	-0.85
288	-0.85
288	-0.829
289	-0.827
289	-0.834
290	-0.844
290	-0.834
291	-0.839
291	-0.836
292	-0.814
292	-0.81
292	-0.814
293	-0.801
293	-0.799
294	-0.799
294	-0.784
295	-0.767
295	-0.78
296	-0.791
296	-0.785
297	-0.773
297	-0.779
298	-0.776
298	-0.793
298	-0.797
299	-0.777
299	-0.771
300	-0.765
300	-0.744
301	-0.726
301	-0.73
302	-0.74
302	-0.725
303	-0.718
303	-0.706
304	-0.689
304	-0.692
305	-0.685
305	-0.695
305	-0.711
306	-0.695
306	-0.693
307	-0.685
307	-0.697
308	-0.699
308	-0.696
309	-0.698
309	-0.695
310	-0.693
310	-0.687
311	-0.672
311	-0.691
311	-0.679
312	-0.675
312	-0.662
313	-0.654
313	-0.653
314	-0.659
314	-0.656
315	-0.652
315	-0.647
316	-0.642
316	-0.631
317	-0.625
317	-0.622
318	-0.614
318	-0.612
318	-0.601
319	-0.589
319	-0.581
320	-0.577
320	-0.574
321	-0.569
321	-0.568
322	-0.56
322	-0.553
323	-0.553
323	-0.543
324	-0.542
324	-0.53
324	-0.521
325	-0.507
325	-0.489
326	-0.479
326	-0.455
327	-0.441
327	-0.417
328	-0.385
328	-0.361
329	-0.331
329	-0.302
330	-0.271
330	-0.234
330	-0.196
331	-0.159
331	-0.122
332	-0.086
332	-0.051
333	-0.019
333	0.016
334	0.047
334	0.076
335	0.106
335	0.131
336	0.156
336	0.181
336	0.201
337	0.221
337	0.241
338	0.258
338	0.271
339	0.288
339	0.301
340	0.31
340	0.32
341	0.329
341	0.335
342	0.344
342	0.351
342	0.358
343	0.362
343	0.368
344	0.371
344	0.375
345	0.379
345	0.381
346	0.383
346	0.386
347	0.387
347	0.389
348	0.39
348	0.393
348	0.393
349	0.394
349	0.396
350	0.397
350	0.397
351	0.398
351	0.399
352	0.399
352	0.399
353	0.4
353	0.4
354	0.4
354	0.4
354	0.4
355	0.4
355	0.4
356	0.4
356	0.4
357	0.4
357	0.4
358	0.4
358	0.4
359	0.4
359	0.4
360	0.4
360	0.4
360	0.4
361	0.4
361	0.4
362	0.4
362	0.4
363	0.4
363	0.4
364	0.4
364	0.399
365	0.399
365	0.399
366	0.399
366	0.399
366	0.399
367	0.399
367	0.399
368	0.398
368	0.398
369	0.398
369	0.398
370	0.397
370	0.397
371	0.396
371	0.396
372	0.395
372	0.395
372	0.395
373	0.394
373	0.394
374	0.393
374	0.393
375	0.392
375	0.392
376	0.391
376	0.391
377	0.391
377	0.39
378	0.39
378	0.389
378	0.389
379	0.388
379	0.388
380	0.388
380	0.387
381	0.387
381	0.387
382	0.386
382	0.386
383	0.385
383	0.385
383	0.384
384	0.384
384	0.383
385	0.382
385	0.382
386	0.382
386	0.381
387	0.381
387	0.381
388	0.38
388	0.38
389	0.38
389	0.379
389	0.379
390	0.379
390	0.378
391	0.378
391	0.378
392	0.377
392	0.376
393	0.376
393	0.376
394	0.375
394	0.375
394	0.375
395	0.374
395	0.374
396	0.373
396	0.373
397	0.372
397	0.372
398	0.372
398	0.371
399	0.371
399	0.37
400	0.37
400	0.37
400	0.369
401	0.369
401	0.368
402	0.368
402	0.367
403	0.367
403	0.367
404	0.366
404	0.366
405	0.365
405	0.365
405	0.364
406	0.364
406	0.364
407	0.364
407	0.363
408	0.363
408	0.362
409	0.362
409	0.362
410	0.362
410	0.361
411	0.361
411	0.361
411	0.361
412	0.36
412	0.36
413	0.36
413	0.359
414	0.359
414	0.359
415	0.358
415	0.358
416	0.358
416	0.357
416	0.357
417	0.357
417	0.356
418	0.356
418	0.356
419	0.356
419	0.356
420	0.356
420	0.356
421	0.356
421	0.355
421	0.356
422	0.356
422	0.355
423	0.355
423	0.355
424	0.354
424	0.354
425	0.354
425	0.354
426	0.354
426	0.353
427	0.353
427	0.353
427	0.353
428	0.353
428	0.353
429	0.353
429	0.353
430	0.352
430	0.352
431	0.352
431	0.351
432	0.351
432	0.351
432	0.35
433	0.35
433	0.35
434	0.35
434	0.35
435	0.35
435	0.35
436	0.35
436	0.35
437	0.35
437	0.35
437	0.35
438	0.35
438	0.35
439	0.35
439	0.35
440	0.35
440	0.35
441	0.35
441	0.349
442	0.349
442	0.349
442	0.349
443	0.349
443	0.349
444	0.349
444	0.349
445	0.349
445	0.349
446	0.349
446	0.35
447	0.35
447	0.35
447	0.35
448	0.35
448	0.35
449	0.35
449	0.35
450	0.351
450	0.351
451	0.351
451	0.351
452	0.351
452	0.351
452	0.351
453	0.352
453	0.352
454	0.352
454	0.352
455	0.353
455	0.353
456	0.354
456	0.354
457	0.354
457	0.354
458	0.354
458	0.354
458	0.354
459	0.354
459	0.354
460	0.354
460	0.354
461	0.355
461	0.355
462	0.356
462	0.357
463	0.358
463	0.358
463	0.359
464	0.36
464	0.36
465	0.361
465	0.361
466	0.362
466	0.363
467	0.363
467	0.364
467	0.364
468	0.364
468	0.365
469	0.365
469	0.366
470	0.367
470	0.367
471	0.368
471	0.368
472	0.369
472	0.37
472	0.371
473	0.372
473	0.373
474	0.374
474	0.375
475	0.377
475	0.378
476	0.379
476	0.38
477	0.381
477	0.383
477	0.384
478	0.385
478	0.386
479	0.388
479	0.389
480	0.39
480	0.391
481	0.393
481	0.394
482	0.396
482	0.398
482	0.399
483	0.402
483	0.404
484	0.406
484	0.408
485	0.41
485	0.412
486	0.414
486	0.416
487	0.418
487	0.42
487	0.421
488	0.423
488	0.424
489	0.426
489	0.429
490	0.431
490	0.433
491	0.436
491	0.439
492	0.441
492	0.443
492	0.445
493	0.448
493	0.451
494	0.454
494	0.458
495	0.46
495	0.463
496	0.466
496	0.469
496	0.472
497	0.476
497	0.479
498	0.482
498	0.485
499	0.488
499	0.491
500	0.495
500	0.499
501	0.502
501	0.505
501	0.508
502	0.512
502	0.515
503	0.519
503	0.522
504	0.526
504	0.529
505	0.533
505	0.537
506	0.541
506	0.545
506	0.549
507	0.553
507	0.557
508	0.562
508	0.566
509	0.57
509	0.574
510	0.578
510	0.582
511	0.585
511	0.589
511	0.592
512	0.596
512	0.599
513	0.601
513	0.604
514	0.607
514	0.611
515	0.613
515	0.616
515	0.618
516	0.621
516	0.624
517	0.627
517	0.63
518	0.632
518	0.635
519	0.637
519	0.638
520	0.641
520	0.643
520	0.645
521	0.646
521	0.648
522	0.649
522	0.651
523	0.653
523	0.654
524	0.655
524	0.656
524	0.657
525	0.658
525	0.658
526	0.659
526	0.66
527	0.66
527	0.66
528	0.659
528	0.659
529	0.658
529	0.658
529	0.657
530	0.656
530	0.655
531	0.654
531	0.653
532	0.651
532	0.65
533	0.649
533	0.647
533	0.646
534	0.644
534	0.642
535	0.639
535	0.637
536	0.635
536	0.633
537	0.63
537	0.628
538	0.625
538	0.622
538	0.618
539	0.615
539	0.612
540	0.609
540	0.605
541	0.601
541	0.597
542	0.593
542	0.589
542	0.584
543	0.58
543	0.575
544	0.57
544	0.566
545	0.561
545	0.557
546	0.552
546	0.547
547	0.542
547	0.537
547	0.532
548	0.528
548	0.524
549	0.52
549	0.515
550	0.51
550	0.505
551	0.5
551	0.494
551	0.489
552	0.484
552	0.48
553	0.475
553	0.47
554	0.464
554	0.459
555	0.454
555	0.449
556	0.443
556	0.438
556	0.433
557	0.429
557	0.424
558	0.418
558	0.413
559	0.408
559	0.402
560	0.397
560	0.391
560	0.387
561	0.382
561	0.378
562	0.373
562	0.369
563	0.365
563	0.36
564	0.356
564	0.352
564	0.349
565	0.345
565	0.341
566	0.337
566	0.332
567	0.328
567	0.324
568	0.32
568	0.315
568	0.311
569	0.307
569	0.303
570	0.298
570	0.294
571	0.291
571	0.287
572	0.283
572	0.279
573	0.275
573	0.271
573	0.267
574	0.263
574	0.26
575	0.257
575	0.256
576	0.252
576	0.248
577	0.244
577	0.241
577	0.239
578	0.237
578	0.235
579	0.234
579	0.231
580	0.227
580	0.222
581	0.218
581	0.215
581	0.214
582	0.212
582	0.21
583	0.208
583	0.205
584	0.201
584	0.197
585	0.196
585	0.195
585	0.193
586	0.191
586	0.189
587	0.186
587	0.183
588	0.18
588	0.178
589	0.176
589	0.174
590	0.172
590	0.169
590	0.168
591	0.167
591	0.164
592	0.161
592	0.159
593	0.157
593	0.156
594	0.154
594	0.151
594	0.15
595	0.148
595	0.145
596	0.143
596	0.142
597	0.143
597	0.141
598	0.139
598	0.138
598	0.137
599	0.136
599	0.135
600	0.133
600	0.132
601	0.132
601	0.131
602	0.129
602	0.129
602	0.127
603	0.126
603	0.126
604	0.126
604	0.125
605	0.124
605	0.124
606	0.122
606	0.12
606	0.119
607	0.117
607	0.116
608	0.115
608	0.113
609	0.112
609	0.111
610	0.11
610	0.108
610	0.107
611	0.107
611	0.106
612	0.106
612	0.105
613	0.104
613	0.104
614	0.102
614	0.1
614	0.099
615	0.097
615	0.096
616	0.095
616	0.094
617	0.093
617	0.092
618	0.091
618	0.09
618	0.089
619	0.089
619	0.089
620	0.09
620	0.089
621	0.087
621	0.087
622	0.085
622	0.084
622	0.082
623	0.081
623	0.081
624	0.08
624	0.079
625	0.078
625	0.078
626	0.077
626	0.076
626	0.076
627	0.076
627	0.076
628	0.076
628	0.076
629	0.075
629	0.075
630	0.074
630	0.073
630	0.073
631	0.073
631	0.072
632	0.071
632	0.07
633	0.069
633	0.068
634	0.068
634	0.067
634	0.067
635	0.066
635	0.065
636	0.065
636	0.064
637	0.063
637	0.062
638	0.062
638	0.061
638	0.06
639	0.059
639	0.057
640	0.056
640	0.055
641	0.053
641	0.051
642	0.05
642	0.048
642	0.047
643	0.045
643	0.043
644	0.041
644	0.039
645	0.037
645	0.035
646	0.033
646	0.03
646	0.027
647	0.024
647	0.02
648	0.017
648	0.013
649	0.009
649	0.006
650	0.002
650	-0.002
650	-0.007
651	-0.013
651	-0.019
652	-0.027
652	-0.035
653	-0.042
653	-0.049
653	-0.045
654	-0.036
654	-0.039
655	-0.045
655	-0.049
656	-0.054
656	-0.059
657	-0.063
657	-0.066
657	-0.072
658	-0.077
658	-0.099
659	-0.156
659	-0.208
660	-0.234
660	-0.253
661	-0.271
661	-0.293
661	-0.314
662	-0.332
662	-0.35
663	-0.369
663	-0.39
664	-0.408
664	-0.43
665	-0.451
665	-0.475
665	-0.494
666	-0.514
666	-0.539
667	-0.562
667	-0.591
668	-0.617
668	-0.657
669	-0.694
669	-0.732
669	-0.779
670	-0.829
670	-0.927
671	-1.149
671	-1.477
672	-1.851
672	-2.206
672	-2.406
673	-2.534
673	-2.571
674	-2.59
674	-2.6
675	-2.615
675	-2.62
676	-2.621
676	-2.602
676	-2.55
677	-2.399
677	-2.166
678	-1.658
678	-1.187
679	-1.018
679	-0.952
680	-0.911
680	-0.885
680	-0.864
681	-0.857
681	-0.837
682	-0.828
682	-0.809
683	-0.79
683	-0.793
684	-0.788
684	-0.788
684	-0.783
685	-0.78
685	-0.783
686	-0.772
686	-0.771
687	-0.771
687	-0.772
687	-0.783
688	-0.774
688	-0.774
689	-0.784
689	-0.787
690	-0.779
690	-0.774
691	-0.775
691	-0.784
691	-0.79
692	-0.794
692	-0.794
693	-0.806
693	-0.822
694	-0.805
694	-0.807
695	-0.814
695	-0.811
695	-0.823
696	-0.832
696	-0.828
697	-0.824
697	-0.822
698	-0.818
698	-0.813
698	-0.829
699	-0.83
699	-0.832
700	-0.852
700	-0.847
701	-0.836
701	-0.83
702	-0.833
702	-0.834
702	-0.835
703	-0.825
703	-0.813
704	-0.822
704	-0.827
705	-0.817
705	-0.817
705	-0.812
706	-0.806
706	-0.802
707	-0.815
707	-0.819
708	-0.817
708	-0.816
709	-0.816
709	-0.813
709	-0.81
710	-0.818
710	-0.822
711	-0.82
711	-0.823
712	-0.814
712	-0.812
713	-0.817
713	-0.818
713	-0.8
714	-0.801
714	-0.807
715	-0.798
715	-0.807
716	-0.825
716	-0.833
716	-0.834
717	-0.84
717	-0.834
718	-0.828
718	-0.83
719	-0.826
719	-0.816
720	-0.813
720	-0.808
720	-0.802
721	-0.792
721	-0.796
722	-0.794
722	-0.789
723	-0.808
723	-0.819
723	-0.829
724	-0.827
724	-0.832
725	-0.825
725	-0.83
726	-0.834
726	-0.826
727	-0.828
727	-0.836
727	-0.827
728	-0.815
728	-0.81
729	-0.813
729	-0.816
730	-0.823
730	-0.814
730	-0.821
731	-0.822
731	-0.822
732	-0.824
732	-0.819
733	-0.834
733	-0.841
734	-0.849
734	-0.843
734	-0.825
735	-0.815
735	-0.81
736	-0.81
736	-0.806
737	-0.806
737	-0.796
737	-0.788
738	-0.774
738	-0.763
739	-0.766
739	-0.766
740	-0.78
740	-0.78
741	-0.79
741	-0.799
741	-0.81
742	-0.817
742	-0.833
743	-0.84
743	-0.842
744	-0.845
744	-0.854
744	-0.846
745	-0.855
745	-0.844
746	-0.841
746	-0.83
747	-0.831
747	-0.821
748	-0.823
748	-0.827
748	-0.829
749	-0.822
749	-0.83
750	-0.821
750	-0.822
751	-0.821
751	-0.82
751	-0.832
752	-0.836
752	-0.839
753	-0.841
753	-0.834
754	-0.852
754	-0.852
754	-0.859
755	-0.859
755	-0.851
756	-0.853
756	-0.84
757	-0.832
757	-0.82
758	-0.821
758	-0.819
758	-0.814
759	-0.82
759	-0.819
760	-0.818
760	-0.822
761	-0.817
761	-0.821
761	-0.822
762	-0.828
762	-0.827
763	-0.829
763	-0.833
764	-0.831
764	-0.83
764	-0.834
765	-0.832
765	-0.837
766	-0.84
766	-0.842
767	-0.858
767	-0.855
768	-0.853
768	-0.845
768	-0.84
769	-0.843
769	-0.853
770	-0.86
770	-0.865
771	-0.861
771	-0.862
771	-0.867
772	-0.87
772	-0.891
773	-0.892
773	-0.891
774	-0.89
774	-0.872
775	-0.859
775	-0.858
775	-0.862
776	-0.872
776	-0.869
777	-0.868
777	-0.849
778	-0.858
778	-0.867
778	-0.866
779	-0.875
779	-0.892
780	-0.887
780	-0.895
781	-0.883
781	-0.87
781	-0.886
782	-0.906
782	-0.906
783	-0.905
783	-0.911
784	-0.914
784	-0.909
784	-0.93
785	-0.924
785	-0.938
786	-0.944
786	-0.937
787	-0.929
787	-0.938
788	-0.933
788	-0.929
788	-0.93
789	-0.93
789	-0.92
790	-0.919
790	-0.903
791	-0.911
791	-0.907
791	-0.9
792	-0.894
792	-0.899
793	-0.901
793	-0.889
794	-0.882
794	-0.876
794	-0.882
795	-0.9
795	-0.886
796	-0.891
796	-0.886
797	-0.88
797	-0.871
797	-0.865
798	-0.887
798	-0.891
799	-0.89
799	-0.875
800	-0.872
800	-0.881
801	-0.877
801	-0.881
801	-0.879
802	-0.878
802	-0.877
803	-0.869
803	-0.862
804	-0.867
804	-0.875
804	-0.86
805	-0.84
805	-0.832
806	-0.834
806	-0.83
807	-0.832
807	-0.833
807	-0.818
808	-0.813
808	-0.807
809	-0.803
809	-0.803
810	-0.807
810	-0.805
810	-0.8
811	-0.802
811	-0.794
812	-0.786
812	-0.788
813	-0.791
813	-0.793
813	-0.788
814	-0.787
814	-0.79
815	-0.782
815	-0.779
816	-0.775
816	-0.793
817	-0.805
817	-0.807
817	-0.817
818	-0.809
818	-0.808
819	-0.819
819	-0.817
820	-0.828
820	-0.827
820	-0.827
821	-0.821
821	-0.816
822	-0.817
822	-0.805
823	-0.816
823	-0.816
823	-0.81
824	-0.81
824	-0.821
825	-0.819
825	-0.815
826	-0.809
826	-0.804
826	-0.805
827	-0.804
827	-0.793
828	-0.793
828	-0.788
829	-0.78
829	-0.765
829	-0.763
830	-0.762
830	-0.749
831	-0.743
831	-0.732
832	-0.724
832	-0.72
832	-0.712
833	-0.712
833	-0.718
834	-0.712
834	-0.706
835	-0.699
835	-0.7
835	-0.695
836	-0.691
836	-0.688
837	-0.677
837	-0.668
838	-0.655
838	-0.637
839	-0.632
839	-0.622
839	-0.611
840	-0.609
840	-0.599
841	-0.588
841	-0.581
842	-0.573
842	-0.561
842	-0.558
843	-0.555
843	-0.55
844	-0.547
844	-0.536
845	-0.524
845	-0.515
845	-0.505
846	-0.494
846	-0.484
847	-0.473
847	-0.46
848	-0.446
848	-0.43
848	-0.415
849	-0.404
849	-0.392
850	-0.382
850	-0.372
851	-0.359
851	-0.342
851	-0.333
852	-0.318
852	-0.306
853	-0.298
853	-0.288
854	-0.277
854	-0.267
854	-0.255
855	-0.245
855	-0.238
856	-0.231
856	-0.223
857	-0.215
857	-0.207
857	-0.194
858	-0.184
858	-0.175
859	-0.164
859	-0.153
860	-0.142
860	-0.128
860	-0.119
861	-0.109
861	-0.1
862	-0.092
862	-0.085
863	-0.078
863	-0.07
863	-0.064
864	-0.059
864	-0.052
865	-0.046
865	-0.04
866	-0.035
866	-0.03
866	-0.025
867	-0.02
867	-0.014
868	-0.01
868	-0.005
869	-0.001
869	0.002
869	0.005
870	0.006
870	0.008
871	0.009
871	0.011
872	0.012
872	0.013
872	0.014
873	0.015
873	0.015
874	0.014
874	0.014
875	0.014
875	0.014
875	0.014
876	0.014
876	0.014
877	0.014
877	0.013
878	0.013
878	0.012
878	0.012
879	0.012
879	0.011
880	0.011
880	0.01
881	0.009
881	0.008
881	0.007
882	0.005
882	0.004
883	0.003
883	0.001
884	0.001
884	0
884	-0
885	-0.001
885	-0.001
886	-0.001
886	-0.001
887	-0.001
887	-0.002
887	-0.002
888	-0.002
888	-0.003
889	-0.004
889	-0.004
890	-0.005
890	-0.006
890	-0.006
891	-0.006
891	-0.006
892	-0.005
892	-0.005
893	-0.005
893	-0.005
893	-0.005
894	-0.005
894	-0.005
895	-0.005
895	-0.006
895	-0.006
896	-0.006
896	-0.006
897	-0.006
897	-0.006
898	-0.006
898	-0.005
898	-0.005
899	-0.005
899	-0.005
900	-0.005
900	-0.005
901	-0.005
901	-0.006
901	-0.006
902	-0.006
902	-0.006
903	-0.007
903	-0.007
904	-0.007
904	-0.007
904	-0.007
905	-0.006
905	-0.005
906	-0.004
906	-0.003
907	-0.003
907	-0.002
907	-0.002
908	-0.001
908	-0
909	0
909	0.001
910	0.001
910	0.002
910	0.002
911	0.002
911	0.003
912	0.004
912	0.005
913	0.005
913	0.006
913	0.007
914	0.007
914	0.008
915	0.008
915	0.008
916	0.008
916	0.007
916	0.007
917	0.007
917	0.007
918	0.007
918	0.007
918	0.007
919	0.007
919	0.007
920	0.008
920	0.009
921	0.009
921	0.01
921	0.011
922	0.011
922	0.012
923	0.012
923	0.012
924	0.011
924	0.011
924	0.01
925	0.009
925	0.008
926	0.006
926	0.005
927	0.004
927	0.003
927	0.002
928	0.001
928	0.001
929	0.002
929	0.002
930	0.002
930	0.003
930	0.004
931	0.005
931	0.006
932	0.007
932	0.008
933	0.009
933	0.01
933	0.01
934	0.009
934	0.009
935	0.008
935	0.007
935	0.006
936	0.005
936	0.003
937	0.002
937	0.001
938	0.001
938	-0
938	-0.001
939	-0.001
939	-0.002
940	-0.003
940	-0.003
941	-0.004
941	-0.005
941	-0.005
942	-0.006
942	-0.006
943	-0.006
943	-0.007
944	-0.007
944	-0.008
944	-0.008
945	-0.008
945	-0.008
946	-0.009
946	-0.009
946	-0.009
947	-0.009
947	-0.009
948	-0.009
948	-0.008
949	-0.007
949	-0.006
949	-0.004
950	-0.003
950	-0.001
951	-0
951	0.001
952	0.001
952	0.003
952	0.003
953	0.004
953	0.005
954	0.005
954	0.005
955	0.005
955	0.005
955	0.005
956	0.005
956	0.004
957	0.003
957	0.002
957	0.002
958	0.001
958	0.001
959	0.001
959	0
960	-0
960	-0.001
960	-0
961	-0
961	-0
962	0
962	0
963	0.001
963	0.001
963	0.001
964	0.001
964	0.001
965	0.002
965	0.002
966	0.002
966	0.002
966	0.002
967	0.003
967	0.002
968	0.002
968	0.002
968	0.002
969	0.002
969	0.002
970	0.001
970	0.001
971	0.001
971	0.001
971	0.001
972	0.002
972	0.002
973	0.002
973	0.002
974	0.002
974	0.002
974	0.003
975	0.003
975	0.003
976	0.003
976	0.003
976	0.003
977	0.002
977	0.002
978	0.001
978	0.001
979	0
979	0
979	-0
980	-0
980	-0
981	-0
981	-0
982	-0
982	-0
982	-0
983	-0
983	-0
984	-0
984	-0.001
984	-0.001
985	-0.001
985	-0.002
986	-0.003
986	-0.004
987	-0.005
987	-0.005
987	-0.006
988	-0.007
988	-0.008
989	-0.008
989	-0.009
990	-0.01
990	-0.011
990	-0.011
991	-0.012
991	-0.012
992	-0.013
992	-0.013
992	-0.014
993	-0.014
993	-0.015
994	-0.015
994	-0.017
995	-0.018
995	-0.019
995	-0.02
996	-0.021
996	-0.022
997	-0.023
997	-0.024
997	-0.025
998	-0.025
998	-0.025
999	-0.025
999	-0.025
1000	-0.024
1000	-0.024
1000	-0.023
1001	-0.023
1001	-0.022
1002	-0.022
1002	-0.021
1003	-0.021
1003	-0.021
1003	-0.022
1004	-0.022
1004	-0.022
1005	-0.022
1005	-0.023
1005	-0.024
1006	-0.024
1006	-0.025
1007	-0.026
1007	-0.027
1008	-0.028
1008	-0.029
1008	-0.029
1009	-0.029
1009	-0.029
1010	-0.028
1010	-0.028
1010	-0.028
1011	-0.027
1011	-0.026
1012	-0.025
1012	-0.023
1013	-0.022
1013	-0.021
1013	-0.02
1014	-0.019
1014	-0.018
1015	-0.017
1015	-0.017
1016	-0.016
1016	-0.016
1016	-0.016
1017	-0.016
1017	-0.017
1018	-0.017
1018	-0.017
1018	-0.017
1019	-0.018
1019	-0.018
1020	-0.019
1020	-0.02
1021	-0.02
1021	-0.02
1021	-0.021
1022	-0.021
1022	-0.021
1023	-0.021
1023	-0.021
1023	-0.021
1024	-0.021
1024	-0.021
1025	-0.02
1025	-0.02
1026	-0.019
1026	-0.019
1026	-0.019
1027	-0.019
1027	-0.018
1028	-0.018
1028	-0.017
1028	-0.017
1029	-0.017
1029	-0.016
1030	-0.017
1030	-0.017
1031	-0.017
1031	-0.016
1031	-0.016
1032	-0.016
1032	-0.016
1033	-0.016
1033	-0.016
1033	-0.016
1034	-0.016
1034	-0.016
1035	-0.016
1035	-0.016
1036	-0.017
1036	-0.017
1036	-0.017
1037	-0.017
1037	-0.017
1038	-0.017
1038	-0.016
1039	-0.016
1039	-0.015
1039	-0.015
1040	-0.015
1040	-0.014
1041	-0.014
1041	-0.014
1041	-0.015
1042	-0.016
1042	-0.016
1043	-0.017
1043	-0.018
1044	-0.019
1044	-0.02
1044	-0.021
1045	-0.022
1045	-0.023
1046	-0.024
1046	-0.024
1046	-0.024
1047	-0.024
1047	-0.025
1048	-0.024
1048	-0.024
1049	-0.024
1049	-0.024
1049	-0.024
1050	-0.025
1050	-0.025
1051	-0.026
1051	-0.027
1051	-0.028
1052	-0.028
1052	-0.029
1053	-0.03
1053	-0.031
1053	-0.031
1054	-0.032
1054	-0.033
1055	-0.032
1055	-0.032
1056	-0.033
1056	-0.033
1056	-0.033
1057	-0.034
1057	-0.034
1058	-0.034
1058	-0.034
1058	-0.034
1059	-0.034
1059	-0.035
1060	-0.036
1060	-0.036
1061	-0.036
1061	-0.036
1061	-0.036
1062	-0.036
1062	-0.036
1063	-0.035
1063	-0.036
1063	-0.035
1064	-0.035
1064	-0.034
1065	-0.034
1065	-0.034
1066	-0.035
1066	-0.035
1066	-0.035
1067	-0.036
1067	-0.036
1068	-0.037
1068	-0.037
1068	-0.038
1069	-0.039
1069	-0.039
1070	-0.04
1070	-0.04
1071	-0.04
1071	-0.04
1071	-0.041
1072	-0.041
1072	-0.041
1073	-0.041
1073	-0.042
1073	-0.042
1074	-0.042
1074	-0.042
1075	-0.043
1075	-0.043
1076	-0.045
1076	-0.045
1076	-0.046
1077	-0.047
1077	-0.048
1078	-0.048
1078	-0.049
1078	-0.05
1079	-0.05
1079	-0.051
1080	-0.052
1080	-0.053
1080	-0.054
1081	-0.055
1081	-0.055
1082	-0.056
1082	-0.058
1083	-0.059
1083	-0.06
1083	-0.061
1084	-0.062
1084	-0.063
1085	-0.064
1085	-0.065
1085	-0.066
1086	-0.066
1086	-0.068
1087	-0.068
1087	-0.069
1088	-0.07
1088	-0.071
1088	-0.072
1089	-0.074
1089	-0.074
1090	-0.075
1090	-0.076
1090	-0.077
1091	-0.078
1091	-0.078
1092	-0.078
1092	-0.078
1092	-0.079
1093	-0.079
1093	-0.079
1094	-0.079
1094	-0.08
1095	-0.081
1095	-0.081
1095	-0.082
1096	-0.083
1096	-0.085
1097	-0.086
1097	-0.088
1097	-0.09
1098	-0.092
1098	-0.094
1099	-0.096
1099	-0.097
1100	-0.1
1100	-0.102
1100	-0.106
1101	-0.109
1101	-0.111
1102	-0.114
1102	-0.117
1102	-0.118
1103	-0.12
1103	-0.124
1104	-0.127
1104	-0.13
1104	-0.132
1105	-0.133
1105	-0.136
1106	-0.141
1106	-0.142
1107	-0.147
1107	-0.153
1107	-0.157
1108	-0.159
1108	-0.161
1109	-0.164
1109	-0.169
1109	-0.174
1110	-0.177
1110	-0.18
1111	-0.193
1111	-0.189
