Data from aggregation-dark_Absorbance__423__00423.txt Node

Date: Tue Jan 16 11:07:09 CET 2024
User: Marek
Spectrometer: MAYP115816
Trigger mode: 0
Integration Time (sec): 2.000000E-1
Scans to average: 10
Electric dark correction enabled: true
Nonlinearity correction enabled: true
Boxcar width: 5
XAxis mode: Wavelengths
Number of Pixels in Spectrum: 2068
>>>>>Begin Spectral Data<<<<<
199	-0.313
199	-0.251
200	-0.191
200	-0.134
201	-0.104
201	-0.086
202	-0.061
202	-0.055
203	-0.053
203	-0.046
204	-0.035
204	-0.021
205	-0.009
205	-0.003
205	-0.003
206	-0.002
206	-0.002
207	-0.002
207	-0.004
208	-0.003
208	-0.005
209	-0.002
209	-0.006
210	-0.008
210	-0.007
211	-0.009
211	-0.01
212	-0.013
212	-0.015
213	-0.016
213	-0.015
213	-0.016
214	-0.017
214	-0.014
215	-0.013
215	-0.017
216	-0.015
216	-0.018
217	-0.015
217	-0.015
218	-0.014
218	-0.009
219	-0.007
219	-0.006
220	-0.008
220	-0.01
221	-0.007
221	-0.008
221	-0.004
222	0
222	0.003
223	0.007
223	0.008
224	0.009
224	0.016
225	0.024
225	0.028
226	0.03
226	0.036
227	0.046
227	0.048
228	0.056
228	0.064
229	0.073
229	0.087
229	0.098
230	0.11
230	0.125
231	0.14
231	0.158
232	0.17
232	0.186
233	0.201
233	0.217
234	0.231
234	0.244
235	0.255
235	0.266
236	0.276
236	0.285
236	0.293
237	0.301
237	0.308
238	0.314
238	0.319
239	0.325
239	0.329
240	0.333
240	0.337
241	0.34
241	0.343
242	0.346
242	0.349
243	0.351
243	0.354
243	0.355
244	0.357
244	0.36
245	0.362
245	0.364
246	0.365
246	0.368
247	0.369
247	0.371
248	0.373
248	0.374
249	0.376
249	0.378
250	0.379
250	0.381
250	0.382
251	0.384
251	0.385
252	0.386
252	0.388
253	0.389
253	0.39
254	0.391
254	0.392
255	0.393
255	0.394
256	0.395
256	0.395
257	0.396
257	0.396
258	0.396
258	0.397
258	0.397
259	0.397
259	0.397
260	0.396
260	0.396
261	0.396
261	0.395
262	0.395
262	0.394
263	0.394
263	0.393
264	0.392
264	0.391
265	0.39
265	0.389
265	0.388
266	0.387
266	0.386
267	0.385
267	0.383
268	0.382
268	0.38
269	0.379
269	0.377
270	0.375
270	0.373
271	0.372
271	0.37
272	0.368
272	0.366
272	0.364
273	0.362
273	0.36
274	0.358
274	0.356
275	0.354
275	0.352
276	0.35
276	0.348
277	0.346
277	0.344
278	0.343
278	0.341
278	0.339
279	0.337
279	0.334
280	0.332
280	0.33
281	0.328
281	0.326
282	0.324
282	0.323
283	0.321
283	0.319
284	0.317
284	0.315
285	0.314
285	0.312
285	0.31
286	0.309
286	0.307
287	0.305
287	0.303
288	0.302
288	0.301
289	0.299
289	0.298
290	0.296
290	0.295
291	0.294
291	0.293
292	0.292
292	0.291
292	0.289
293	0.289
293	0.288
294	0.287
294	0.286
295	0.285
295	0.284
296	0.283
296	0.283
297	0.282
297	0.282
298	0.281
298	0.28
298	0.28
299	0.279
299	0.279
300	0.279
300	0.278
301	0.278
301	0.277
302	0.277
302	0.277
303	0.276
303	0.276
304	0.275
304	0.275
305	0.275
305	0.274
305	0.274
306	0.273
306	0.273
307	0.273
307	0.272
308	0.272
308	0.271
309	0.271
309	0.27
310	0.27
310	0.27
311	0.269
311	0.269
311	0.269
312	0.268
312	0.268
313	0.268
313	0.267
314	0.267
314	0.266
315	0.266
315	0.266
316	0.265
316	0.265
317	0.264
317	0.264
318	0.264
318	0.263
318	0.263
319	0.263
319	0.262
320	0.262
320	0.261
321	0.261
321	0.26
322	0.26
322	0.26
323	0.259
323	0.259
324	0.259
324	0.258
324	0.258
325	0.257
325	0.257
326	0.257
326	0.256
327	0.256
327	0.255
328	0.255
328	0.254
329	0.254
329	0.253
330	0.253
330	0.253
330	0.252
331	0.252
331	0.251
332	0.251
332	0.25
333	0.25
333	0.249
334	0.249
334	0.248
335	0.248
335	0.247
336	0.247
336	0.246
336	0.246
337	0.246
337	0.245
338	0.245
338	0.245
339	0.244
339	0.244
340	0.244
340	0.243
341	0.243
341	0.243
342	0.243
342	0.242
342	0.242
343	0.242
343	0.241
344	0.241
344	0.241
345	0.24
345	0.24
346	0.24
346	0.24
347	0.24
347	0.239
348	0.239
348	0.239
348	0.239
349	0.239
349	0.239
350	0.238
350	0.238
351	0.238
351	0.238
352	0.238
352	0.237
353	0.237
353	0.237
354	0.237
354	0.236
354	0.236
355	0.236
355	0.235
356	0.235
356	0.235
357	0.235
357	0.235
358	0.235
358	0.235
359	0.235
359	0.235
360	0.235
360	0.235
360	0.235
361	0.235
361	0.235
362	0.235
362	0.235
363	0.235
363	0.235
364	0.235
364	0.235
365	0.235
365	0.235
366	0.235
366	0.235
366	0.235
367	0.235
367	0.235
368	0.235
368	0.235
369	0.235
369	0.235
370	0.234
370	0.234
371	0.234
371	0.234
372	0.234
372	0.234
372	0.234
373	0.234
373	0.234
374	0.234
374	0.234
375	0.234
375	0.234
376	0.234
376	0.234
377	0.234
377	0.234
378	0.234
378	0.234
378	0.234
379	0.234
379	0.234
380	0.234
380	0.234
381	0.234
381	0.234
382	0.234
382	0.235
383	0.235
383	0.234
383	0.234
384	0.234
384	0.234
385	0.234
385	0.234
386	0.234
386	0.234
387	0.234
387	0.233
388	0.233
388	0.233
389	0.233
389	0.233
389	0.233
390	0.232
390	0.232
391	0.232
391	0.232
392	0.232
392	0.233
393	0.233
393	0.233
394	0.233
394	0.233
394	0.233
395	0.233
395	0.233
396	0.233
396	0.233
397	0.233
397	0.233
398	0.232
398	0.232
399	0.232
399	0.232
400	0.232
400	0.232
400	0.232
401	0.232
401	0.232
402	0.231
402	0.231
403	0.231
403	0.231
404	0.231
404	0.231
405	0.231
405	0.231
405	0.231
406	0.231
406	0.231
407	0.231
407	0.231
408	0.231
408	0.231
409	0.231
409	0.231
410	0.232
410	0.232
411	0.232
411	0.231
411	0.231
412	0.231
412	0.231
413	0.231
413	0.231
414	0.231
414	0.23
415	0.23
415	0.23
416	0.23
416	0.23
416	0.23
417	0.23
417	0.23
418	0.23
418	0.23
419	0.23
419	0.23
420	0.23
420	0.23
421	0.23
421	0.23
421	0.23
422	0.231
422	0.231
423	0.231
423	0.231
424	0.23
424	0.23
425	0.23
425	0.23
426	0.23
426	0.23
427	0.23
427	0.23
427	0.23
428	0.23
428	0.23
429	0.231
429	0.231
430	0.231
430	0.231
431	0.231
431	0.23
432	0.23
432	0.23
432	0.23
433	0.229
433	0.229
434	0.229
434	0.229
435	0.229
435	0.229
436	0.229
436	0.229
437	0.229
437	0.229
437	0.229
438	0.229
438	0.229
439	0.229
439	0.229
440	0.228
440	0.228
441	0.229
441	0.229
442	0.229
442	0.229
442	0.229
443	0.229
443	0.229
444	0.229
444	0.23
445	0.23
445	0.23
446	0.23
446	0.23
447	0.23
447	0.23
447	0.23
448	0.23
448	0.23
449	0.23
449	0.23
450	0.23
450	0.23
451	0.23
451	0.23
452	0.23
452	0.23
452	0.23
453	0.23
453	0.23
454	0.23
454	0.23
455	0.23
455	0.229
456	0.229
456	0.229
457	0.229
457	0.229
458	0.229
458	0.229
458	0.229
459	0.229
459	0.23
460	0.23
460	0.23
461	0.23
461	0.23
462	0.23
462	0.23
463	0.231
463	0.231
463	0.231
464	0.231
464	0.231
465	0.231
465	0.231
466	0.231
466	0.231
467	0.232
467	0.232
467	0.232
468	0.232
468	0.232
469	0.232
469	0.233
470	0.233
470	0.233
471	0.233
471	0.233
472	0.233
472	0.233
472	0.233
473	0.233
473	0.233
474	0.234
474	0.234
475	0.234
475	0.235
476	0.235
476	0.236
477	0.236
477	0.237
477	0.237
478	0.237
478	0.238
479	0.238
479	0.239
480	0.239
480	0.239
481	0.239
481	0.24
482	0.24
482	0.24
482	0.241
483	0.241
483	0.242
484	0.242
484	0.242
485	0.243
485	0.244
486	0.244
486	0.245
487	0.245
487	0.246
487	0.247
488	0.248
488	0.248
489	0.25
489	0.251
490	0.252
490	0.252
491	0.253
491	0.254
492	0.255
492	0.256
492	0.256
493	0.257
493	0.258
494	0.26
494	0.261
495	0.262
495	0.263
496	0.264
496	0.265
496	0.266
497	0.268
497	0.269
498	0.269
498	0.27
499	0.272
499	0.272
500	0.274
500	0.275
501	0.276
501	0.277
501	0.278
502	0.279
502	0.281
503	0.282
503	0.283
504	0.284
504	0.285
505	0.286
505	0.287
506	0.289
506	0.29
506	0.291
507	0.292
507	0.293
508	0.295
508	0.296
509	0.297
509	0.299
510	0.3
510	0.301
511	0.302
511	0.303
511	0.305
512	0.306
512	0.307
513	0.308
513	0.308
514	0.309
514	0.311
515	0.311
515	0.312
515	0.313
516	0.314
516	0.314
517	0.315
517	0.316
518	0.317
518	0.317
519	0.318
519	0.319
520	0.319
520	0.32
520	0.321
521	0.321
521	0.322
522	0.322
522	0.323
523	0.324
523	0.325
524	0.325
524	0.325
524	0.326
525	0.326
525	0.327
526	0.327
526	0.327
527	0.327
527	0.327
528	0.327
528	0.327
529	0.328
529	0.328
529	0.328
530	0.328
530	0.329
531	0.329
531	0.329
532	0.329
532	0.329
533	0.329
533	0.329
533	0.329
534	0.329
534	0.329
535	0.329
535	0.329
536	0.329
536	0.329
537	0.329
537	0.329
538	0.329
538	0.329
538	0.329
539	0.329
539	0.328
540	0.328
540	0.327
541	0.327
541	0.327
542	0.327
542	0.326
542	0.326
543	0.326
543	0.326
544	0.326
544	0.326
545	0.326
545	0.326
546	0.325
546	0.324
547	0.324
547	0.323
547	0.323
548	0.322
548	0.322
549	0.321
549	0.321
550	0.32
550	0.32
551	0.32
551	0.32
551	0.32
552	0.32
552	0.32
553	0.32
553	0.32
554	0.32
554	0.319
555	0.319
555	0.318
556	0.318
556	0.318
556	0.317
557	0.317
557	0.316
558	0.316
558	0.315
559	0.314
559	0.314
560	0.314
560	0.314
560	0.314
561	0.314
561	0.313
562	0.313
562	0.312
563	0.311
563	0.311
564	0.31
564	0.309
564	0.309
565	0.308
565	0.307
566	0.306
566	0.305
567	0.305
567	0.304
568	0.304
568	0.303
568	0.303
569	0.303
569	0.303
570	0.302
570	0.301
571	0.301
571	0.3
572	0.299
572	0.299
573	0.298
573	0.297
573	0.296
574	0.295
574	0.295
575	0.294
575	0.294
576	0.293
576	0.293
577	0.292
577	0.292
577	0.292
578	0.292
578	0.292
579	0.292
579	0.292
580	0.291
580	0.29
581	0.29
581	0.289
581	0.289
582	0.289
582	0.289
583	0.288
583	0.287
584	0.286
584	0.285
585	0.285
585	0.285
585	0.284
586	0.284
586	0.283
587	0.282
587	0.282
588	0.281
588	0.281
589	0.281
589	0.281
590	0.28
590	0.28
590	0.281
591	0.28
591	0.279
592	0.278
592	0.277
593	0.277
593	0.276
594	0.275
594	0.274
594	0.274
595	0.274
595	0.274
596	0.274
596	0.275
597	0.275
597	0.275
598	0.275
598	0.276
598	0.275
599	0.275
599	0.275
600	0.274
600	0.273
601	0.273
601	0.272
602	0.271
602	0.27
602	0.269
603	0.269
603	0.269
604	0.268
604	0.268
605	0.267
605	0.267
606	0.267
606	0.266
606	0.266
607	0.265
607	0.265
608	0.264
608	0.263
609	0.263
609	0.262
610	0.261
610	0.261
610	0.26
611	0.26
611	0.26
612	0.26
612	0.26
613	0.26
613	0.259
614	0.259
614	0.258
614	0.257
615	0.257
615	0.256
616	0.256
616	0.255
617	0.255
617	0.255
618	0.255
618	0.255
618	0.255
619	0.255
619	0.256
620	0.257
620	0.257
621	0.257
621	0.257
622	0.257
622	0.257
622	0.257
623	0.257
623	0.257
624	0.257
624	0.256
625	0.256
625	0.257
626	0.256
626	0.257
626	0.257
627	0.257
627	0.257
628	0.258
628	0.258
629	0.258
629	0.258
630	0.259
630	0.259
630	0.261
631	0.261
631	0.262
632	0.262
632	0.264
633	0.264
633	0.265
634	0.266
634	0.267
634	0.268
635	0.269
635	0.269
636	0.269
636	0.27
637	0.27
637	0.271
638	0.271
638	0.272
638	0.273
639	0.274
639	0.275
640	0.276
640	0.277
641	0.278
641	0.279
642	0.28
642	0.281
642	0.281
643	0.282
643	0.282
644	0.283
644	0.284
645	0.285
645	0.286
646	0.287
646	0.289
646	0.291
647	0.294
647	0.296
648	0.298
648	0.3
649	0.302
649	0.304
650	0.306
650	0.308
650	0.31
651	0.311
651	0.313
652	0.315
652	0.317
653	0.319
653	0.323
653	0.311
654	0.241
654	0.199
655	0.205
655	0.206
656	0.208
656	0.209
657	0.21
657	0.211
657	0.212
658	0.21
658	0.211
659	0.271
659	0.344
660	0.349
660	0.351
661	0.353
661	0.356
661	0.359
662	0.362
662	0.365
663	0.367
663	0.37
664	0.372
664	0.374
665	0.376
665	0.378
665	0.381
666	0.383
666	0.385
667	0.388
667	0.39
668	0.393
668	0.395
669	0.398
669	0.4
669	0.403
670	0.405
670	0.407
671	0.409
671	0.41
672	0.412
672	0.413
672	0.414
673	0.415
673	0.417
674	0.418
674	0.419
675	0.421
675	0.423
676	0.425
676	0.426
676	0.428
677	0.43
677	0.432
678	0.433
678	0.434
679	0.436
679	0.437
680	0.438
680	0.439
680	0.44
681	0.441
681	0.442
682	0.443
682	0.444
683	0.445
683	0.447
684	0.448
684	0.449
684	0.45
685	0.451
685	0.452
686	0.453
686	0.454
687	0.454
687	0.455
687	0.455
688	0.455
688	0.455
689	0.455
689	0.455
690	0.454
690	0.454
691	0.453
691	0.453
691	0.453
692	0.452
692	0.453
693	0.453
693	0.453
694	0.453
694	0.453
695	0.454
695	0.454
695	0.453
696	0.452
696	0.451
697	0.45
697	0.448
698	0.446
698	0.444
698	0.442
699	0.441
699	0.439
700	0.437
700	0.436
701	0.435
701	0.434
702	0.433
702	0.433
702	0.432
703	0.432
703	0.431
704	0.43
704	0.429
705	0.428
705	0.426
705	0.425
706	0.423
706	0.422
707	0.42
707	0.418
708	0.416
708	0.415
709	0.414
709	0.412
709	0.41
710	0.409
710	0.408
711	0.407
711	0.405
712	0.404
712	0.402
713	0.4
713	0.398
713	0.396
714	0.394
714	0.393
715	0.391
715	0.389
716	0.387
716	0.385
716	0.383
717	0.381
717	0.379
718	0.378
718	0.376
719	0.375
719	0.374
720	0.373
720	0.371
720	0.37
721	0.368
721	0.367
722	0.364
722	0.363
723	0.361
723	0.359
723	0.356
724	0.354
724	0.351
725	0.349
725	0.347
726	0.345
726	0.343
727	0.342
727	0.34
727	0.339
728	0.338
728	0.337
729	0.336
729	0.336
730	0.334
730	0.333
730	0.333
731	0.332
731	0.332
732	0.331
732	0.33
733	0.328
733	0.327
734	0.326
734	0.325
734	0.325
735	0.324
735	0.322
736	0.321
736	0.319
737	0.318
737	0.317
737	0.315
738	0.314
738	0.312
739	0.311
739	0.309
740	0.308
740	0.308
741	0.308
741	0.307
741	0.306
742	0.305
742	0.305
743	0.304
743	0.303
744	0.302
744	0.301
744	0.299
745	0.297
745	0.295
746	0.293
746	0.291
747	0.29
747	0.288
748	0.286
748	0.285
748	0.283
749	0.282
749	0.28
750	0.279
750	0.278
751	0.276
751	0.275
751	0.274
752	0.273
752	0.272
753	0.271
753	0.271
754	0.27
754	0.269
754	0.269
755	0.267
755	0.266
756	0.265
756	0.263
757	0.262
757	0.261
758	0.26
758	0.258
758	0.256
759	0.255
759	0.253
760	0.252
760	0.251
761	0.25
761	0.249
761	0.249
762	0.248
762	0.247
763	0.247
763	0.246
764	0.245
764	0.245
764	0.245
765	0.244
765	0.244
766	0.243
766	0.243
767	0.242
767	0.241
768	0.24
768	0.24
768	0.239
769	0.238
769	0.237
770	0.236
770	0.235
771	0.234
771	0.233
771	0.232
772	0.231
772	0.231
773	0.23
773	0.23
774	0.229
774	0.229
775	0.229
775	0.229
775	0.228
776	0.228
776	0.227
777	0.227
777	0.226
778	0.225
778	0.224
778	0.223
779	0.222
779	0.22
780	0.219
780	0.218
781	0.217
781	0.217
781	0.216
782	0.216
782	0.216
783	0.216
783	0.215
784	0.215
784	0.215
784	0.215
785	0.214
785	0.213
786	0.213
786	0.212
787	0.211
787	0.21
788	0.209
788	0.208
788	0.207
789	0.206
789	0.206
790	0.205
790	0.204
791	0.204
791	0.203
791	0.202
792	0.202
792	0.2
793	0.199
793	0.198
794	0.198
794	0.198
794	0.198
795	0.198
795	0.197
796	0.197
796	0.196
797	0.196
797	0.197
797	0.196
798	0.196
798	0.195
799	0.194
799	0.193
800	0.193
800	0.192
801	0.191
801	0.19
801	0.189
802	0.188
802	0.187
803	0.187
803	0.186
804	0.185
804	0.185
804	0.184
805	0.183
805	0.183
806	0.182
806	0.182
807	0.183
807	0.183
807	0.183
808	0.184
808	0.184
809	0.184
809	0.185
810	0.185
810	0.185
810	0.185
811	0.184
811	0.184
812	0.183
812	0.182
813	0.182
813	0.181
813	0.18
814	0.18
814	0.18
815	0.18
815	0.18
816	0.179
816	0.179
817	0.179
817	0.178
817	0.178
818	0.178
818	0.177
819	0.176
819	0.175
820	0.175
820	0.174
820	0.174
821	0.174
821	0.173
822	0.172
822	0.172
823	0.171
823	0.171
823	0.17
824	0.17
824	0.169
825	0.169
825	0.168
826	0.167
826	0.166
826	0.165
827	0.165
827	0.164
828	0.163
828	0.163
829	0.162
829	0.162
829	0.162
830	0.162
830	0.162
831	0.163
831	0.163
832	0.163
832	0.164
832	0.164
833	0.164
833	0.164
834	0.164
834	0.164
835	0.164
835	0.163
835	0.162
836	0.162
836	0.161
837	0.16
837	0.16
838	0.159
838	0.158
839	0.158
839	0.157
839	0.157
840	0.156
840	0.156
841	0.156
841	0.155
842	0.155
842	0.155
842	0.155
843	0.155
843	0.155
844	0.155
844	0.155
845	0.155
845	0.155
845	0.156
846	0.156
846	0.156
847	0.156
847	0.156
848	0.156
848	0.156
848	0.156
849	0.156
849	0.156
850	0.155
850	0.155
851	0.155
851	0.155
851	0.154
852	0.154
852	0.154
853	0.153
853	0.153
854	0.153
854	0.153
854	0.152
855	0.152
855	0.151
856	0.151
856	0.151
857	0.15
857	0.15
857	0.149
858	0.149
858	0.148
859	0.147
859	0.146
860	0.145
860	0.143
860	0.142
861	0.141
861	0.14
862	0.138
862	0.137
863	0.137
863	0.136
863	0.136
864	0.136
864	0.137
865	0.138
865	0.139
866	0.139
866	0.14
866	0.141
867	0.141
867	0.141
868	0.142
868	0.141
869	0.141
869	0.14
869	0.139
870	0.139
870	0.138
871	0.137
871	0.136
872	0.136
872	0.135
872	0.134
873	0.134
873	0.133
874	0.133
874	0.133
875	0.133
875	0.133
875	0.132
876	0.132
876	0.132
877	0.132
877	0.131
878	0.131
878	0.13
878	0.129
879	0.128
879	0.127
880	0.127
880	0.126
881	0.125
881	0.124
881	0.124
882	0.124
882	0.124
883	0.124
883	0.124
884	0.124
884	0.125
884	0.125
885	0.125
885	0.125
886	0.125
886	0.125
887	0.125
887	0.125
887	0.125
888	0.125
888	0.124
889	0.124
889	0.124
890	0.124
890	0.124
890	0.124
891	0.123
891	0.123
892	0.122
892	0.122
893	0.122
893	0.122
893	0.122
894	0.122
894	0.122
895	0.122
895	0.123
895	0.123
896	0.124
896	0.124
897	0.125
897	0.125
898	0.126
898	0.126
898	0.126
899	0.125
899	0.125
900	0.125
900	0.125
901	0.124
901	0.125
901	0.125
902	0.125
902	0.125
903	0.126
903	0.126
904	0.126
904	0.126
904	0.126
905	0.125
905	0.125
906	0.124
906	0.124
907	0.123
907	0.122
907	0.122
908	0.122
908	0.121
909	0.121
909	0.121
910	0.121
910	0.121
910	0.121
911	0.121
911	0.121
912	0.121
912	0.121
913	0.122
913	0.122
913	0.122
914	0.122
914	0.122
915	0.122
915	0.122
916	0.121
916	0.121
916	0.121
917	0.12
917	0.119
918	0.119
918	0.118
918	0.117
919	0.117
919	0.116
920	0.116
920	0.116
921	0.116
921	0.115
921	0.115
922	0.114
922	0.114
923	0.114
923	0.113
924	0.113
924	0.112
924	0.111
925	0.11
925	0.108
926	0.107
926	0.106
927	0.104
927	0.103
927	0.102
928	0.101
928	0.101
929	0.1
929	0.1
930	0.101
930	0.101
930	0.102
931	0.103
931	0.104
932	0.105
932	0.107
933	0.108
933	0.109
933	0.11
934	0.111
934	0.112
935	0.112
935	0.113
935	0.113
936	0.113
936	0.113
937	0.113
937	0.113
938	0.113
938	0.113
938	0.113
939	0.113
939	0.113
940	0.113
940	0.113
941	0.113
941	0.112
941	0.112
942	0.112
942	0.111
943	0.111
943	0.11
944	0.109
944	0.109
944	0.109
945	0.109
945	0.109
946	0.109
946	0.109
946	0.109
947	0.109
947	0.109
948	0.108
948	0.108
949	0.108
949	0.107
949	0.107
950	0.106
950	0.106
951	0.105
951	0.105
952	0.105
952	0.104
952	0.104
953	0.104
953	0.104
954	0.104
954	0.104
955	0.105
955	0.105
955	0.106
956	0.106
956	0.106
957	0.106
957	0.106
957	0.106
958	0.106
958	0.105
959	0.105
959	0.104
960	0.103
960	0.102
960	0.101
961	0.101
961	0.1
962	0.1
962	0.099
963	0.099
963	0.1
963	0.1
964	0.1
964	0.101
965	0.102
965	0.103
966	0.103
966	0.104
966	0.105
967	0.106
967	0.106
968	0.106
968	0.106
968	0.106
969	0.106
969	0.105
970	0.105
970	0.104
971	0.103
971	0.103
971	0.102
972	0.102
972	0.102
973	0.102
973	0.102
974	0.102
974	0.103
974	0.103
975	0.104
975	0.104
976	0.105
976	0.105
976	0.105
977	0.105
977	0.105
978	0.104
978	0.103
979	0.103
979	0.102
979	0.102
980	0.101
980	0.1
981	0.1
981	0.099
982	0.099
982	0.099
982	0.099
983	0.099
983	0.098
984	0.098
984	0.098
984	0.097
985	0.097
985	0.096
986	0.095
986	0.095
987	0.094
987	0.093
987	0.092
988	0.091
988	0.09
989	0.09
989	0.09
990	0.089
990	0.089
990	0.089
991	0.09
991	0.09
992	0.091
992	0.092
992	0.092
993	0.093
993	0.093
994	0.093
994	0.094
995	0.094
995	0.094
995	0.094
996	0.094
996	0.094
997	0.094
997	0.094
997	0.094
998	0.094
998	0.094
999	0.094
999	0.094
1000	0.095
1000	0.095
1000	0.095
1001	0.096
1001	0.096
1002	0.096
1002	0.096
1003	0.096
1003	0.096
1003	0.095
1004	0.095
1004	0.094
1005	0.094
1005	0.093
1005	0.092
1006	0.092
1006	0.091
1007	0.09
1007	0.09
1008	0.089
1008	0.088
1008	0.087
1009	0.087
1009	0.086
1010	0.086
1010	0.085
1010	0.085
1011	0.084
1011	0.084
1012	0.084
1012	0.084
1013	0.084
1013	0.084
1013	0.083
1014	0.083
1014	0.083
1015	0.083
1015	0.082
1016	0.082
1016	0.082
1016	0.081
1017	0.08
1017	0.08
1018	0.079
1018	0.079
1018	0.078
1019	0.078
1019	0.077
1020	0.077
1020	0.076
1021	0.076
1021	0.076
1021	0.076
1022	0.076
1022	0.076
1023	0.076
1023	0.076
1023	0.076
1024	0.076
1024	0.075
1025	0.075
1025	0.075
1026	0.074
1026	0.074
1026	0.073
1027	0.073
1027	0.073
1028	0.072
1028	0.072
1028	0.072
1029	0.071
1029	0.071
1030	0.07
1030	0.07
1031	0.07
1031	0.069
1031	0.069
1032	0.069
1032	0.069
1033	0.069
1033	0.069
1033	0.069
1034	0.068
1034	0.068
1035	0.068
1035	0.068
1036	0.068
1036	0.068
1036	0.068
1037	0.068
1037	0.069
1038	0.069
1038	0.069
1039	0.069
1039	0.07
1039	0.071
1040	0.071
1040	0.072
1041	0.072
1041	0.072
1041	0.072
1042	0.072
1042	0.072
1043	0.072
1043	0.072
1044	0.072
1044	0.072
1044	0.071
1045	0.071
1045	0.07
1046	0.07
1046	0.069
1046	0.069
1047	0.068
1047	0.068
1048	0.067
1048	0.067
1049	0.066
1049	0.066
1049	0.065
1050	0.065
1050	0.064
1051	0.064
1051	0.064
1051	0.063
1052	0.063
1052	0.063
1053	0.062
1053	0.062
1053	0.061
1054	0.061
1054	0.06
1055	0.06
1055	0.06
1056	0.059
1056	0.058
1056	0.058
1057	0.057
1057	0.056
1058	0.056
1058	0.056
1058	0.055
1059	0.055
1059	0.055
1060	0.055
1060	0.055
1061	0.055
1061	0.056
1061	0.056
1062	0.057
1062	0.057
1063	0.058
1063	0.058
1063	0.058
1064	0.058
1064	0.058
1065	0.058
1065	0.058
1066	0.058
1066	0.058
1066	0.058
1067	0.058
1067	0.057
1068	0.057
1068	0.057
1068	0.057
1069	0.056
1069	0.056
1070	0.055
1070	0.055
1071	0.055
1071	0.054
1071	0.053
1072	0.053
1072	0.053
1073	0.052
1073	0.052
1073	0.051
1074	0.05
1074	0.05
1075	0.049
1075	0.048
1076	0.047
1076	0.046
1076	0.046
1077	0.045
1077	0.045
1078	0.044
1078	0.044
1078	0.044
1079	0.044
1079	0.044
1080	0.045
1080	0.045
1080	0.045
1081	0.045
1081	0.044
1082	0.044
1082	0.044
1083	0.044
1083	0.044
1083	0.044
1084	0.044
1084	0.044
1085	0.045
1085	0.045
1085	0.046
1086	0.046
1086	0.046
1087	0.047
1087	0.047
1088	0.047
1088	0.047
1088	0.047
1089	0.047
1089	0.047
1090	0.047
1090	0.046
1090	0.046
1091	0.045
1091	0.045
1092	0.045
1092	0.044
1092	0.044
1093	0.043
1093	0.043
1094	0.043
1094	0.042
1095	0.041
1095	0.04
1095	0.04
1096	0.04
1096	0.038
1097	0.039
1097	0.038
1097	0.037
1098	0.036
1098	0.035
1099	0.034
1099	0.033
1100	0.032
1100	0.031
1100	0.031
1101	0.03
1101	0.028
1102	0.027
1102	0.026
1102	0.026
1103	0.025
1103	0.024
1104	0.022
1104	0.022
1104	0.021
1105	0.02
1105	0.019
1106	0.017
1106	0.016
1107	0.013
1107	0.012
1107	0.01
1108	0.011
1108	0.01
1109	0.01
1109	0.008
1109	0.006
1110	0.005
1110	0.004
1111	0.003
1111	0.012
