Data from aggregation-dark_Absorbance__278__00278.txt Node

Date: Tue Jan 16 11:02:19 CET 2024
User: Marek
Spectrometer: MAYP115816
Trigger mode: 0
Integration Time (sec): 2.000000E-1
Scans to average: 10
Electric dark correction enabled: true
Nonlinearity correction enabled: true
Boxcar width: 5
XAxis mode: Wavelengths
Number of Pixels in Spectrum: 2068
>>>>>Begin Spectral Data<<<<<
199	-0.26
199	-0.19
200	-0.134
200	-0.082
201	-0.052
201	-0.035
202	-0.014
202	-0.009
203	-0.005
203	0.001
204	0.011
204	0.025
205	0.035
205	0.039
205	0.038
206	0.038
206	0.038
207	0.041
207	0.04
208	0.04
208	0.039
209	0.042
209	0.038
210	0.038
210	0.04
211	0.039
211	0.036
212	0.032
212	0.031
213	0.031
213	0.033
213	0.03
214	0.03
214	0.033
215	0.033
215	0.029
216	0.031
216	0.03
217	0.034
217	0.034
218	0.036
218	0.038
219	0.044
219	0.045
220	0.043
220	0.041
221	0.043
221	0.044
221	0.048
222	0.052
222	0.056
223	0.062
223	0.063
224	0.065
224	0.071
225	0.079
225	0.084
226	0.091
226	0.097
227	0.105
227	0.107
228	0.117
228	0.122
229	0.133
229	0.146
229	0.157
230	0.17
230	0.184
231	0.199
231	0.216
232	0.23
232	0.249
233	0.264
233	0.279
234	0.292
234	0.304
235	0.317
235	0.327
236	0.338
236	0.347
236	0.356
237	0.364
237	0.37
238	0.376
238	0.381
239	0.387
239	0.392
240	0.397
240	0.4
241	0.404
241	0.407
242	0.41
242	0.413
243	0.415
243	0.418
243	0.421
244	0.423
244	0.426
245	0.427
245	0.43
246	0.432
246	0.434
247	0.435
247	0.438
248	0.44
248	0.441
249	0.443
249	0.444
250	0.446
250	0.447
250	0.449
251	0.45
251	0.451
252	0.453
252	0.454
253	0.455
253	0.456
254	0.457
254	0.458
255	0.459
255	0.46
256	0.461
256	0.461
257	0.462
257	0.462
258	0.463
258	0.463
258	0.462
259	0.462
259	0.462
260	0.462
260	0.461
261	0.461
261	0.46
262	0.46
262	0.459
263	0.458
263	0.457
264	0.456
264	0.455
265	0.455
265	0.453
265	0.452
266	0.451
266	0.449
267	0.448
267	0.446
268	0.445
268	0.443
269	0.441
269	0.439
270	0.437
270	0.435
271	0.433
271	0.431
272	0.429
272	0.427
272	0.425
273	0.422
273	0.42
274	0.418
274	0.416
275	0.413
275	0.411
276	0.409
276	0.406
277	0.404
277	0.402
278	0.399
278	0.397
278	0.395
279	0.392
279	0.39
280	0.388
280	0.385
281	0.383
281	0.381
282	0.378
282	0.376
283	0.374
283	0.372
284	0.37
284	0.368
285	0.366
285	0.364
285	0.362
286	0.36
286	0.358
287	0.356
287	0.354
288	0.352
288	0.35
289	0.348
289	0.347
290	0.345
290	0.344
291	0.342
291	0.341
292	0.339
292	0.338
292	0.337
293	0.335
293	0.334
294	0.333
294	0.332
295	0.331
295	0.33
296	0.329
296	0.328
297	0.327
297	0.326
298	0.325
298	0.325
298	0.324
299	0.323
299	0.322
300	0.322
300	0.321
301	0.32
301	0.32
302	0.319
302	0.319
303	0.318
303	0.317
304	0.317
304	0.316
305	0.316
305	0.315
305	0.314
306	0.314
306	0.313
307	0.313
307	0.312
308	0.311
308	0.311
309	0.31
309	0.31
310	0.309
310	0.309
311	0.308
311	0.308
311	0.307
312	0.306
312	0.306
313	0.305
313	0.305
314	0.304
314	0.304
315	0.303
315	0.302
316	0.302
316	0.301
317	0.301
317	0.3
318	0.299
318	0.299
318	0.298
319	0.298
319	0.297
320	0.297
320	0.296
321	0.295
321	0.295
322	0.294
322	0.294
323	0.293
323	0.293
324	0.292
324	0.291
324	0.291
325	0.29
325	0.29
326	0.289
326	0.289
327	0.288
327	0.288
328	0.287
328	0.286
329	0.286
329	0.285
330	0.285
330	0.284
330	0.284
331	0.283
331	0.282
332	0.282
332	0.281
333	0.281
333	0.28
334	0.28
334	0.279
335	0.279
335	0.278
336	0.278
336	0.277
336	0.277
337	0.276
337	0.276
338	0.275
338	0.275
339	0.274
339	0.274
340	0.273
340	0.273
341	0.273
341	0.272
342	0.272
342	0.271
342	0.271
343	0.271
343	0.27
344	0.27
344	0.27
345	0.269
345	0.269
346	0.269
346	0.268
347	0.268
347	0.268
348	0.268
348	0.268
348	0.267
349	0.267
349	0.267
350	0.267
350	0.267
351	0.267
351	0.267
352	0.266
352	0.266
353	0.266
353	0.266
354	0.266
354	0.265
354	0.265
355	0.265
355	0.264
356	0.264
356	0.264
357	0.264
357	0.264
358	0.263
358	0.263
359	0.263
359	0.263
360	0.263
360	0.263
360	0.263
361	0.263
361	0.263
362	0.263
362	0.263
363	0.263
363	0.263
364	0.263
364	0.263
365	0.263
365	0.262
366	0.262
366	0.262
366	0.262
367	0.262
367	0.262
368	0.262
368	0.262
369	0.262
369	0.262
370	0.261
370	0.261
371	0.261
371	0.261
372	0.261
372	0.261
372	0.261
373	0.261
373	0.261
374	0.261
374	0.261
375	0.261
375	0.261
376	0.261
376	0.26
377	0.26
377	0.26
378	0.26
378	0.26
378	0.26
379	0.26
379	0.26
380	0.26
380	0.26
381	0.26
381	0.26
382	0.259
382	0.259
383	0.259
383	0.259
383	0.259
384	0.259
384	0.259
385	0.258
385	0.259
386	0.258
386	0.258
387	0.258
387	0.258
388	0.258
388	0.257
389	0.257
389	0.257
389	0.257
390	0.256
390	0.256
391	0.256
391	0.256
392	0.256
392	0.256
393	0.256
393	0.256
394	0.256
394	0.256
394	0.256
395	0.256
395	0.256
396	0.256
396	0.255
397	0.255
397	0.255
398	0.255
398	0.255
399	0.255
399	0.255
400	0.255
400	0.255
400	0.255
401	0.254
401	0.254
402	0.254
402	0.254
403	0.254
403	0.253
404	0.253
404	0.253
405	0.253
405	0.253
405	0.253
406	0.253
406	0.253
407	0.253
407	0.253
408	0.253
408	0.253
409	0.253
409	0.253
410	0.253
410	0.253
411	0.253
411	0.253
411	0.253
412	0.253
412	0.253
413	0.252
413	0.252
414	0.252
414	0.252
415	0.251
415	0.251
416	0.251
416	0.251
416	0.251
417	0.251
417	0.251
418	0.251
418	0.251
419	0.251
419	0.251
420	0.251
420	0.251
421	0.251
421	0.251
421	0.251
422	0.251
422	0.251
423	0.251
423	0.251
424	0.251
424	0.25
425	0.25
425	0.25
426	0.25
426	0.25
427	0.25
427	0.25
427	0.25
428	0.25
428	0.25
429	0.25
429	0.251
430	0.251
430	0.25
431	0.25
431	0.25
432	0.25
432	0.25
432	0.25
433	0.25
433	0.25
434	0.249
434	0.249
435	0.249
435	0.249
436	0.249
436	0.249
437	0.249
437	0.249
437	0.249
438	0.249
438	0.249
439	0.249
439	0.249
440	0.249
440	0.248
441	0.248
441	0.248
442	0.248
442	0.249
442	0.249
443	0.249
443	0.249
444	0.249
444	0.249
445	0.25
445	0.25
446	0.25
446	0.25
447	0.25
447	0.25
447	0.25
448	0.25
448	0.25
449	0.25
449	0.25
450	0.25
450	0.25
451	0.25
451	0.25
452	0.25
452	0.251
452	0.251
453	0.251
453	0.251
454	0.251
454	0.25
455	0.25
455	0.25
456	0.25
456	0.25
457	0.25
457	0.25
458	0.25
458	0.25
458	0.251
459	0.251
459	0.251
460	0.251
460	0.251
461	0.252
461	0.252
462	0.252
462	0.252
463	0.253
463	0.253
463	0.253
464	0.253
464	0.253
465	0.253
465	0.254
466	0.254
466	0.254
467	0.254
467	0.254
467	0.254
468	0.255
468	0.255
469	0.255
469	0.256
470	0.256
470	0.256
471	0.257
471	0.257
472	0.257
472	0.258
472	0.258
473	0.258
473	0.258
474	0.259
474	0.259
475	0.259
475	0.26
476	0.26
476	0.261
477	0.261
477	0.262
477	0.262
478	0.263
478	0.264
479	0.264
479	0.265
480	0.265
480	0.266
481	0.266
481	0.266
482	0.267
482	0.268
482	0.268
483	0.269
483	0.27
484	0.27
484	0.271
485	0.272
485	0.273
486	0.274
486	0.275
487	0.276
487	0.277
487	0.278
488	0.279
488	0.28
489	0.282
489	0.284
490	0.284
490	0.286
491	0.287
491	0.288
492	0.289
492	0.29
492	0.291
493	0.292
493	0.294
494	0.295
494	0.297
495	0.298
495	0.3
496	0.301
496	0.303
496	0.304
497	0.306
497	0.307
498	0.309
498	0.31
499	0.311
499	0.313
500	0.314
500	0.316
501	0.318
501	0.319
501	0.321
502	0.323
502	0.324
503	0.326
503	0.328
504	0.329
504	0.331
505	0.333
505	0.334
506	0.336
506	0.337
506	0.339
507	0.341
507	0.342
508	0.344
508	0.346
509	0.348
509	0.349
510	0.351
510	0.353
511	0.354
511	0.356
511	0.358
512	0.359
512	0.361
513	0.362
513	0.363
514	0.365
514	0.366
515	0.367
515	0.368
515	0.369
516	0.37
516	0.371
517	0.373
517	0.374
518	0.374
518	0.375
519	0.377
519	0.378
520	0.379
520	0.38
520	0.381
521	0.381
521	0.382
522	0.383
522	0.383
523	0.384
523	0.385
524	0.385
524	0.386
524	0.386
525	0.387
525	0.387
526	0.387
526	0.387
527	0.387
527	0.387
528	0.387
528	0.387
529	0.387
529	0.387
529	0.387
530	0.387
530	0.387
531	0.387
531	0.387
532	0.387
532	0.386
533	0.386
533	0.386
533	0.385
534	0.384
534	0.384
535	0.383
535	0.383
536	0.383
536	0.382
537	0.382
537	0.381
538	0.381
538	0.38
538	0.38
539	0.379
539	0.378
540	0.377
540	0.376
541	0.375
541	0.375
542	0.373
542	0.372
542	0.371
543	0.37
543	0.369
544	0.369
544	0.368
545	0.367
545	0.366
546	0.365
546	0.363
547	0.362
547	0.361
547	0.36
548	0.358
548	0.357
549	0.356
549	0.354
550	0.353
550	0.352
551	0.351
551	0.35
551	0.349
552	0.348
552	0.347
553	0.347
553	0.346
554	0.345
554	0.344
555	0.343
555	0.342
556	0.34
556	0.339
556	0.338
557	0.336
557	0.335
558	0.334
558	0.332
559	0.331
559	0.329
560	0.328
560	0.327
560	0.326
561	0.326
561	0.324
562	0.323
562	0.322
563	0.32
563	0.319
564	0.318
564	0.316
564	0.315
565	0.313
565	0.311
566	0.309
566	0.307
567	0.306
567	0.304
568	0.303
568	0.301
568	0.3
569	0.299
569	0.298
570	0.296
570	0.295
571	0.294
571	0.293
572	0.291
572	0.29
573	0.288
573	0.287
573	0.285
574	0.284
574	0.283
575	0.281
575	0.281
576	0.279
576	0.278
577	0.277
577	0.276
577	0.276
578	0.275
578	0.274
579	0.273
579	0.272
580	0.271
580	0.27
581	0.268
581	0.268
581	0.267
582	0.267
582	0.266
583	0.265
583	0.264
584	0.262
584	0.261
585	0.26
585	0.259
585	0.258
586	0.257
586	0.256
587	0.255
587	0.254
588	0.253
588	0.252
589	0.252
589	0.251
590	0.25
590	0.25
590	0.249
591	0.248
591	0.247
592	0.246
592	0.245
593	0.244
593	0.243
594	0.243
594	0.242
594	0.241
595	0.241
595	0.24
596	0.24
596	0.24
597	0.24
597	0.239
598	0.239
598	0.239
598	0.238
599	0.238
599	0.237
600	0.236
600	0.235
601	0.234
601	0.233
602	0.232
602	0.231
602	0.23
603	0.229
603	0.229
604	0.228
604	0.227
605	0.227
605	0.227
606	0.226
606	0.226
606	0.226
607	0.225
607	0.225
608	0.224
608	0.224
609	0.224
609	0.223
610	0.222
610	0.222
610	0.221
611	0.221
611	0.22
612	0.22
612	0.219
613	0.219
613	0.219
614	0.218
614	0.217
614	0.217
615	0.216
615	0.216
616	0.215
616	0.215
617	0.215
617	0.214
618	0.214
618	0.215
618	0.215
619	0.216
619	0.217
620	0.217
620	0.218
621	0.218
621	0.218
622	0.218
622	0.219
622	0.219
623	0.219
623	0.219
624	0.219
624	0.219
625	0.219
625	0.22
626	0.22
626	0.22
626	0.221
627	0.221
627	0.222
628	0.222
628	0.222
629	0.223
629	0.224
630	0.225
630	0.226
630	0.227
631	0.228
631	0.229
632	0.23
632	0.231
633	0.233
633	0.234
634	0.235
634	0.236
634	0.237
635	0.238
635	0.238
636	0.239
636	0.239
637	0.24
637	0.241
638	0.242
638	0.242
638	0.244
639	0.244
639	0.246
640	0.247
640	0.249
641	0.25
641	0.252
642	0.253
642	0.254
642	0.256
643	0.257
643	0.258
644	0.259
644	0.261
645	0.262
645	0.264
646	0.266
646	0.268
646	0.271
647	0.273
647	0.276
648	0.278
648	0.281
649	0.283
649	0.286
650	0.288
650	0.29
650	0.292
651	0.294
651	0.296
652	0.298
652	0.301
653	0.303
653	0.308
653	0.293
654	0.229
654	0.188
655	0.195
655	0.197
656	0.198
656	0.2
657	0.201
657	0.202
657	0.203
658	0.201
658	0.205
659	0.263
659	0.336
660	0.34
660	0.342
661	0.345
661	0.349
661	0.352
662	0.356
662	0.359
663	0.362
663	0.365
664	0.368
664	0.37
665	0.373
665	0.376
665	0.378
666	0.38
666	0.383
667	0.385
667	0.388
668	0.39
668	0.393
669	0.395
669	0.398
669	0.401
670	0.403
670	0.406
671	0.408
671	0.41
672	0.411
672	0.413
672	0.414
673	0.416
673	0.418
674	0.419
674	0.421
675	0.423
675	0.425
676	0.426
676	0.428
676	0.43
677	0.432
677	0.434
678	0.435
678	0.437
679	0.438
679	0.44
680	0.441
680	0.442
680	0.443
681	0.444
681	0.445
682	0.446
682	0.447
683	0.448
683	0.449
684	0.45
684	0.451
684	0.452
685	0.452
685	0.453
686	0.454
686	0.454
687	0.455
687	0.455
687	0.455
688	0.455
688	0.455
689	0.455
689	0.455
690	0.454
690	0.454
691	0.453
691	0.453
691	0.452
692	0.452
692	0.452
693	0.452
693	0.452
694	0.452
694	0.452
695	0.452
695	0.452
695	0.451
696	0.449
696	0.448
697	0.447
697	0.445
698	0.442
698	0.44
698	0.438
699	0.436
699	0.433
700	0.431
700	0.43
701	0.428
701	0.426
702	0.425
702	0.424
702	0.423
703	0.422
703	0.421
704	0.42
704	0.419
705	0.418
705	0.416
705	0.414
706	0.412
706	0.41
707	0.408
707	0.405
708	0.403
708	0.401
709	0.399
709	0.397
709	0.395
710	0.394
710	0.392
711	0.39
711	0.389
712	0.387
712	0.385
713	0.383
713	0.381
713	0.378
714	0.376
714	0.374
715	0.371
715	0.369
716	0.366
716	0.364
716	0.361
717	0.359
717	0.357
718	0.354
718	0.352
719	0.351
719	0.349
720	0.347
720	0.346
720	0.344
721	0.342
721	0.34
722	0.338
722	0.336
723	0.334
723	0.331
723	0.328
724	0.325
724	0.323
725	0.32
725	0.318
726	0.316
726	0.313
727	0.311
727	0.31
727	0.309
728	0.307
728	0.306
729	0.305
729	0.304
730	0.303
730	0.302
730	0.301
731	0.3
731	0.299
732	0.297
732	0.296
733	0.294
733	0.293
734	0.291
734	0.29
734	0.288
735	0.287
735	0.285
736	0.284
736	0.282
737	0.28
737	0.279
737	0.277
738	0.275
738	0.273
739	0.271
739	0.27
740	0.268
740	0.267
741	0.267
741	0.266
741	0.265
742	0.264
742	0.263
743	0.262
743	0.26
744	0.259
744	0.257
744	0.256
745	0.253
745	0.251
746	0.249
746	0.247
747	0.245
747	0.243
748	0.242
748	0.24
748	0.238
749	0.237
749	0.235
750	0.234
750	0.232
751	0.231
751	0.229
751	0.228
752	0.227
752	0.226
753	0.225
753	0.224
754	0.223
754	0.222
754	0.222
755	0.22
755	0.219
756	0.218
756	0.216
757	0.215
757	0.214
758	0.212
758	0.21
758	0.209
759	0.207
759	0.205
760	0.204
760	0.203
761	0.202
761	0.201
761	0.2
762	0.2
762	0.199
763	0.198
763	0.198
764	0.197
764	0.196
764	0.196
765	0.195
765	0.195
766	0.194
766	0.194
767	0.193
767	0.192
768	0.192
768	0.191
768	0.191
769	0.19
769	0.189
770	0.188
770	0.187
771	0.185
771	0.184
771	0.183
772	0.183
772	0.182
773	0.181
773	0.181
774	0.18
774	0.18
775	0.18
775	0.179
775	0.179
776	0.178
776	0.178
777	0.177
777	0.177
778	0.176
778	0.175
778	0.174
779	0.172
779	0.171
780	0.17
780	0.169
781	0.169
781	0.168
781	0.167
782	0.167
782	0.167
783	0.167
783	0.167
784	0.166
784	0.166
784	0.166
785	0.165
785	0.165
786	0.164
786	0.163
787	0.162
787	0.161
788	0.16
788	0.159
788	0.159
789	0.158
789	0.157
790	0.156
790	0.156
791	0.155
791	0.154
791	0.153
792	0.153
792	0.151
793	0.151
793	0.15
794	0.15
794	0.15
794	0.15
795	0.15
795	0.149
796	0.149
796	0.148
797	0.148
797	0.149
797	0.149
798	0.148
798	0.148
799	0.147
799	0.146
800	0.146
800	0.145
801	0.145
801	0.144
801	0.143
802	0.142
802	0.142
803	0.141
803	0.14
804	0.14
804	0.139
804	0.138
805	0.137
805	0.136
806	0.136
806	0.136
807	0.136
807	0.136
807	0.136
808	0.136
808	0.137
809	0.137
809	0.137
810	0.138
810	0.138
810	0.138
811	0.138
811	0.138
812	0.137
812	0.136
813	0.135
813	0.135
813	0.134
814	0.134
814	0.134
815	0.134
815	0.133
816	0.133
816	0.132
817	0.132
817	0.132
817	0.131
818	0.131
818	0.13
819	0.129
819	0.129
820	0.128
820	0.128
820	0.128
821	0.127
821	0.127
822	0.126
822	0.126
823	0.126
823	0.125
823	0.125
824	0.125
824	0.125
825	0.124
825	0.124
826	0.123
826	0.122
826	0.122
827	0.121
827	0.121
828	0.12
828	0.12
829	0.119
829	0.119
829	0.119
830	0.119
830	0.119
831	0.12
831	0.12
832	0.121
832	0.121
832	0.122
833	0.122
833	0.122
834	0.122
834	0.122
835	0.122
835	0.121
835	0.121
836	0.12
836	0.12
837	0.119
837	0.118
838	0.118
838	0.117
839	0.117
839	0.116
839	0.116
840	0.116
840	0.115
841	0.115
841	0.115
842	0.115
842	0.115
842	0.115
843	0.115
843	0.115
844	0.114
844	0.114
845	0.114
845	0.114
845	0.114
846	0.115
846	0.115
847	0.115
847	0.115
848	0.115
848	0.115
848	0.115
849	0.115
849	0.115
850	0.115
850	0.115
851	0.115
851	0.115
851	0.115
852	0.115
852	0.115
853	0.115
853	0.115
854	0.115
854	0.114
854	0.114
855	0.114
855	0.113
856	0.113
856	0.112
857	0.112
857	0.111
857	0.111
858	0.11
858	0.109
859	0.109
859	0.108
860	0.107
860	0.105
860	0.104
861	0.103
861	0.102
862	0.101
862	0.1
863	0.099
863	0.099
863	0.099
864	0.099
864	0.1
865	0.101
865	0.102
866	0.103
866	0.104
866	0.105
867	0.106
867	0.106
868	0.106
868	0.106
869	0.106
869	0.105
869	0.104
870	0.103
870	0.102
871	0.101
871	0.1
872	0.099
872	0.098
872	0.097
873	0.097
873	0.096
874	0.096
874	0.096
875	0.095
875	0.095
875	0.095
876	0.095
876	0.095
877	0.095
877	0.095
878	0.094
878	0.094
878	0.093
879	0.092
879	0.092
880	0.091
880	0.09
881	0.09
881	0.09
881	0.089
882	0.089
882	0.089
883	0.09
883	0.09
884	0.09
884	0.09
884	0.09
885	0.091
885	0.091
886	0.091
886	0.091
887	0.091
887	0.091
887	0.091
888	0.09
888	0.09
889	0.09
889	0.09
890	0.09
890	0.09
890	0.09
891	0.09
891	0.089
892	0.089
892	0.088
893	0.088
893	0.088
893	0.088
894	0.088
894	0.088
895	0.089
895	0.089
895	0.09
896	0.09
896	0.091
897	0.091
897	0.092
898	0.092
898	0.092
898	0.092
899	0.092
899	0.092
900	0.091
900	0.091
901	0.091
901	0.091
901	0.092
902	0.092
902	0.092
903	0.093
903	0.093
904	0.093
904	0.093
904	0.093
905	0.093
905	0.093
906	0.092
906	0.092
907	0.091
907	0.091
907	0.09
908	0.09
908	0.09
909	0.09
909	0.09
910	0.09
910	0.089
910	0.089
911	0.089
911	0.09
912	0.09
912	0.09
913	0.09
913	0.091
913	0.091
914	0.092
914	0.092
915	0.092
915	0.092
916	0.092
916	0.091
916	0.091
917	0.091
917	0.09
918	0.089
918	0.089
918	0.088
919	0.087
919	0.087
920	0.087
920	0.086
921	0.086
921	0.086
921	0.085
922	0.085
922	0.084
923	0.084
923	0.083
924	0.083
924	0.082
924	0.081
925	0.08
925	0.079
926	0.077
926	0.076
927	0.075
927	0.073
927	0.073
928	0.072
928	0.072
929	0.071
929	0.071
930	0.072
930	0.073
930	0.074
931	0.075
931	0.076
932	0.077
932	0.078
933	0.08
933	0.081
933	0.082
934	0.083
934	0.084
935	0.085
935	0.086
935	0.086
936	0.086
936	0.087
937	0.087
937	0.086
938	0.086
938	0.086
938	0.086
939	0.086
939	0.086
940	0.085
940	0.085
941	0.085
941	0.085
941	0.084
942	0.083
942	0.083
943	0.082
943	0.081
944	0.081
944	0.08
944	0.08
945	0.08
945	0.081
946	0.081
946	0.08
946	0.081
947	0.081
947	0.081
948	0.081
948	0.08
949	0.08
949	0.08
949	0.08
950	0.079
950	0.079
951	0.079
951	0.078
952	0.078
952	0.078
952	0.078
953	0.078
953	0.078
954	0.078
954	0.078
955	0.079
955	0.079
955	0.08
956	0.08
956	0.081
957	0.081
957	0.081
957	0.08
958	0.08
958	0.08
959	0.079
959	0.079
960	0.078
960	0.078
960	0.077
961	0.076
961	0.076
962	0.075
962	0.075
963	0.075
963	0.075
963	0.076
964	0.076
964	0.076
965	0.077
965	0.078
966	0.078
966	0.079
966	0.08
967	0.081
967	0.081
968	0.082
968	0.082
968	0.082
969	0.082
969	0.081
970	0.081
970	0.08
971	0.079
971	0.079
971	0.078
972	0.078
972	0.077
973	0.077
973	0.077
974	0.077
974	0.078
974	0.078
975	0.079
975	0.079
976	0.08
976	0.08
976	0.08
977	0.08
977	0.08
978	0.08
978	0.08
979	0.079
979	0.079
979	0.078
980	0.078
980	0.077
981	0.077
981	0.076
982	0.076
982	0.076
982	0.076
983	0.076
983	0.076
984	0.075
984	0.075
984	0.075
985	0.075
985	0.074
986	0.074
986	0.073
987	0.072
987	0.072
987	0.071
988	0.07
988	0.07
989	0.069
989	0.069
990	0.068
990	0.068
990	0.068
991	0.069
991	0.069
992	0.069
992	0.07
992	0.07
993	0.071
993	0.071
994	0.072
994	0.072
995	0.072
995	0.072
995	0.072
996	0.072
996	0.072
997	0.072
997	0.073
997	0.072
998	0.072
998	0.073
999	0.073
999	0.073
1000	0.073
1000	0.074
1000	0.074
1001	0.074
1001	0.074
1002	0.074
1002	0.074
1003	0.074
1003	0.074
1003	0.074
1004	0.074
1004	0.073
1005	0.072
1005	0.072
1005	0.071
1006	0.071
1006	0.07
1007	0.069
1007	0.069
1008	0.068
1008	0.067
1008	0.066
1009	0.066
1009	0.065
1010	0.064
1010	0.064
1010	0.063
1011	0.063
1011	0.062
1012	0.062
1012	0.062
1013	0.062
1013	0.063
1013	0.062
1014	0.062
1014	0.062
1015	0.062
1015	0.062
1016	0.062
1016	0.061
1016	0.061
1017	0.06
1017	0.06
1018	0.059
1018	0.059
1018	0.058
1019	0.058
1019	0.058
1020	0.058
1020	0.058
1021	0.058
1021	0.058
1021	0.058
1022	0.059
1022	0.059
1023	0.059
1023	0.06
1023	0.06
1024	0.06
1024	0.06
1025	0.06
1025	0.06
1026	0.06
1026	0.059
1026	0.059
1027	0.058
1027	0.058
1028	0.057
1028	0.057
1028	0.056
1029	0.056
1029	0.055
1030	0.055
1030	0.054
1031	0.054
1031	0.053
1031	0.052
1032	0.052
1032	0.052
1033	0.052
1033	0.051
1033	0.051
1034	0.051
1034	0.051
1035	0.051
1035	0.051
1036	0.051
1036	0.051
1036	0.051
1037	0.052
1037	0.052
1038	0.052
1038	0.053
1039	0.053
1039	0.054
1039	0.054
1040	0.055
1040	0.055
1041	0.056
1041	0.056
1041	0.056
1042	0.056
1042	0.056
1043	0.056
1043	0.057
1044	0.057
1044	0.056
1044	0.056
1045	0.056
1045	0.055
1046	0.055
1046	0.055
1046	0.054
1047	0.054
1047	0.053
1048	0.053
1048	0.052
1049	0.052
1049	0.051
1049	0.051
1050	0.05
1050	0.05
1051	0.05
1051	0.049
1051	0.049
1052	0.049
1052	0.048
1053	0.048
1053	0.047
1053	0.046
1054	0.046
1054	0.046
1055	0.045
1055	0.045
1056	0.045
1056	0.044
1056	0.043
1057	0.042
1057	0.042
1058	0.042
1058	0.042
1058	0.042
1059	0.042
1059	0.041
1060	0.041
1060	0.041
1061	0.042
1061	0.042
1061	0.043
1062	0.043
1062	0.043
1063	0.044
1063	0.044
1063	0.044
1064	0.044
1064	0.044
1065	0.044
1065	0.044
1066	0.044
1066	0.044
1066	0.044
1067	0.044
1067	0.043
1068	0.043
1068	0.043
1068	0.043
1069	0.043
1069	0.042
1070	0.042
1070	0.042
1071	0.042
1071	0.041
1071	0.041
1072	0.041
1072	0.04
1073	0.04
1073	0.04
1073	0.039
1074	0.039
1074	0.039
1075	0.038
1075	0.037
1076	0.037
1076	0.036
1076	0.036
1077	0.036
1077	0.036
1078	0.035
1078	0.035
1078	0.035
1079	0.035
1079	0.035
1080	0.035
1080	0.035
1080	0.036
1081	0.036
1081	0.036
1082	0.036
1082	0.036
1083	0.036
1083	0.035
1083	0.036
1084	0.035
1084	0.035
1085	0.036
1085	0.036
1085	0.036
1086	0.036
1086	0.036
1087	0.037
1087	0.037
1088	0.037
1088	0.037
1088	0.037
1089	0.037
1089	0.037
1090	0.037
1090	0.037
1090	0.037
1091	0.036
1091	0.036
1092	0.036
1092	0.036
1092	0.036
1093	0.036
1093	0.036
1094	0.035
1094	0.034
1095	0.034
1095	0.033
1095	0.033
1096	0.032
1096	0.031
1097	0.031
1097	0.031
1097	0.03
1098	0.03
1098	0.03
1099	0.029
1099	0.028
1100	0.028
1100	0.028
1100	0.028
1101	0.027
1101	0.026
1102	0.025
1102	0.024
1102	0.024
1103	0.023
1103	0.022
1104	0.021
1104	0.02
1104	0.019
1105	0.019
1105	0.019
1106	0.018
1106	0.017
1107	0.016
1107	0.014
1107	0.012
1108	0.013
1108	0.014
1109	0.014
1109	0.012
1109	0.01
1110	0.01
1110	0.008
1111	0.007
1111	0.011
