Data from aggregation-dark_Absorbance__97__00097.txt Node

Date: Tue Jan 16 10:56:17 CET 2024
User: Marek
Spectrometer: MAYP115816
Trigger mode: 0
Integration Time (sec): 2.000000E-1
Scans to average: 10
Electric dark correction enabled: true
Nonlinearity correction enabled: true
Boxcar width: 5
XAxis mode: Wavelengths
Number of Pixels in Spectrum: 2068
>>>>>Begin Spectral Data<<<<<
199	-0.131
199	-0.075
200	-0.026
200	0.022
201	0.041
201	0.057
202	0.075
202	0.082
203	0.086
203	0.092
204	0.102
204	0.11
205	0.117
205	0.12
205	0.116
206	0.119
206	0.116
207	0.115
207	0.11
208	0.111
208	0.108
209	0.11
209	0.105
210	0.104
210	0.106
211	0.108
211	0.105
212	0.107
212	0.107
213	0.11
213	0.108
213	0.108
214	0.108
214	0.113
215	0.115
215	0.113
216	0.113
216	0.115
217	0.117
217	0.119
218	0.12
218	0.125
219	0.128
219	0.131
220	0.131
220	0.132
221	0.135
221	0.137
221	0.141
222	0.144
222	0.149
223	0.154
223	0.156
224	0.159
224	0.164
225	0.171
225	0.178
226	0.181
226	0.188
227	0.196
227	0.201
228	0.21
228	0.216
229	0.227
229	0.238
229	0.248
230	0.262
230	0.276
231	0.291
231	0.306
232	0.319
232	0.334
233	0.348
233	0.362
234	0.376
234	0.39
235	0.403
235	0.413
236	0.423
236	0.432
236	0.441
237	0.448
237	0.455
238	0.46
238	0.466
239	0.471
239	0.476
240	0.48
240	0.484
241	0.487
241	0.491
242	0.493
242	0.497
243	0.499
243	0.502
243	0.504
244	0.506
244	0.508
245	0.511
245	0.512
246	0.515
246	0.517
247	0.518
247	0.52
248	0.522
248	0.524
249	0.525
249	0.527
250	0.528
250	0.53
250	0.531
251	0.533
251	0.534
252	0.535
252	0.537
253	0.537
253	0.538
254	0.539
254	0.54
255	0.541
255	0.541
256	0.542
256	0.542
257	0.543
257	0.543
258	0.543
258	0.543
258	0.543
259	0.543
259	0.542
260	0.542
260	0.541
261	0.54
261	0.54
262	0.538
262	0.537
263	0.536
263	0.535
264	0.534
264	0.532
265	0.531
265	0.53
265	0.528
266	0.526
266	0.524
267	0.523
267	0.521
268	0.518
268	0.516
269	0.514
269	0.511
270	0.509
270	0.507
271	0.504
271	0.501
272	0.499
272	0.496
272	0.493
273	0.491
273	0.488
274	0.485
274	0.482
275	0.479
275	0.477
276	0.474
276	0.471
277	0.468
277	0.465
278	0.462
278	0.459
278	0.456
279	0.453
279	0.45
280	0.447
280	0.444
281	0.441
281	0.438
282	0.435
282	0.433
283	0.43
283	0.427
284	0.424
284	0.422
285	0.419
285	0.417
285	0.414
286	0.411
286	0.409
287	0.406
287	0.404
288	0.401
288	0.399
289	0.397
289	0.395
290	0.393
290	0.391
291	0.389
291	0.387
292	0.385
292	0.383
292	0.381
293	0.38
293	0.378
294	0.377
294	0.375
295	0.373
295	0.372
296	0.371
296	0.369
297	0.368
297	0.367
298	0.366
298	0.365
298	0.364
299	0.363
299	0.361
300	0.36
300	0.359
301	0.358
301	0.358
302	0.357
302	0.356
303	0.355
303	0.354
304	0.353
304	0.352
305	0.351
305	0.35
305	0.349
306	0.348
306	0.347
307	0.346
307	0.345
308	0.344
308	0.344
309	0.343
309	0.342
310	0.341
310	0.34
311	0.339
311	0.338
311	0.338
312	0.337
312	0.336
313	0.335
313	0.335
314	0.334
314	0.333
315	0.332
315	0.332
316	0.331
316	0.33
317	0.329
317	0.328
318	0.327
318	0.327
318	0.326
319	0.325
319	0.324
320	0.323
320	0.322
321	0.322
321	0.321
322	0.32
322	0.32
323	0.319
323	0.318
324	0.317
324	0.316
324	0.316
325	0.315
325	0.314
326	0.314
326	0.313
327	0.312
327	0.311
328	0.311
328	0.31
329	0.309
329	0.308
330	0.308
330	0.307
330	0.306
331	0.306
331	0.305
332	0.304
332	0.303
333	0.303
333	0.302
334	0.302
334	0.301
335	0.3
335	0.3
336	0.299
336	0.298
336	0.298
337	0.297
337	0.297
338	0.296
338	0.296
339	0.295
339	0.295
340	0.294
340	0.294
341	0.293
341	0.293
342	0.293
342	0.292
342	0.292
343	0.291
343	0.291
344	0.291
344	0.29
345	0.29
345	0.29
346	0.289
346	0.289
347	0.289
347	0.288
348	0.288
348	0.288
348	0.287
349	0.287
349	0.287
350	0.287
350	0.286
351	0.286
351	0.286
352	0.286
352	0.286
353	0.285
353	0.285
354	0.285
354	0.285
354	0.285
355	0.284
355	0.284
356	0.284
356	0.283
357	0.283
357	0.283
358	0.283
358	0.282
359	0.282
359	0.282
360	0.282
360	0.282
360	0.282
361	0.282
361	0.282
362	0.282
362	0.282
363	0.282
363	0.282
364	0.282
364	0.282
365	0.281
365	0.281
366	0.281
366	0.281
366	0.281
367	0.281
367	0.28
368	0.28
368	0.28
369	0.28
369	0.279
370	0.279
370	0.279
371	0.279
371	0.279
372	0.279
372	0.279
372	0.278
373	0.278
373	0.278
374	0.278
374	0.278
375	0.277
375	0.277
376	0.277
376	0.277
377	0.276
377	0.276
378	0.276
378	0.276
378	0.276
379	0.276
379	0.276
380	0.276
380	0.275
381	0.275
381	0.275
382	0.275
382	0.275
383	0.275
383	0.274
383	0.274
384	0.274
384	0.273
385	0.273
385	0.273
386	0.273
386	0.272
387	0.272
387	0.272
388	0.272
388	0.271
389	0.271
389	0.271
389	0.271
390	0.27
390	0.27
391	0.27
391	0.27
392	0.269
392	0.269
393	0.269
393	0.269
394	0.269
394	0.269
394	0.269
395	0.269
395	0.269
396	0.268
396	0.268
397	0.268
397	0.268
398	0.268
398	0.267
399	0.268
399	0.267
400	0.267
400	0.267
400	0.267
401	0.267
401	0.267
402	0.266
402	0.266
403	0.266
403	0.266
404	0.265
404	0.265
405	0.265
405	0.265
405	0.265
406	0.265
406	0.264
407	0.264
407	0.264
408	0.264
408	0.264
409	0.264
409	0.264
410	0.264
410	0.264
411	0.264
411	0.263
411	0.263
412	0.263
412	0.263
413	0.262
413	0.262
414	0.262
414	0.262
415	0.262
415	0.262
416	0.261
416	0.261
416	0.261
417	0.261
417	0.261
418	0.261
418	0.261
419	0.261
419	0.261
420	0.261
420	0.261
421	0.261
421	0.261
421	0.261
422	0.261
422	0.261
423	0.261
423	0.261
424	0.261
424	0.261
425	0.261
425	0.26
426	0.26
426	0.26
427	0.26
427	0.26
427	0.26
428	0.26
428	0.26
429	0.26
429	0.26
430	0.26
430	0.26
431	0.26
431	0.26
432	0.26
432	0.259
432	0.259
433	0.259
433	0.259
434	0.259
434	0.259
435	0.259
435	0.259
436	0.259
436	0.259
437	0.259
437	0.259
437	0.259
438	0.259
438	0.259
439	0.259
439	0.258
440	0.258
440	0.258
441	0.258
441	0.259
442	0.259
442	0.259
442	0.259
443	0.259
443	0.26
444	0.26
444	0.26
445	0.26
445	0.261
446	0.261
446	0.261
447	0.261
447	0.261
447	0.261
448	0.261
448	0.261
449	0.261
449	0.261
450	0.261
450	0.261
451	0.261
451	0.262
452	0.262
452	0.262
452	0.262
453	0.262
453	0.262
454	0.262
454	0.262
455	0.263
455	0.262
456	0.262
456	0.262
457	0.262
457	0.262
458	0.263
458	0.263
458	0.263
459	0.264
459	0.264
460	0.264
460	0.265
461	0.265
461	0.265
462	0.266
462	0.266
463	0.266
463	0.267
463	0.267
464	0.267
464	0.268
465	0.268
465	0.268
466	0.269
466	0.269
467	0.27
467	0.27
467	0.27
468	0.27
468	0.271
469	0.271
469	0.272
470	0.272
470	0.273
471	0.273
471	0.273
472	0.274
472	0.274
472	0.275
473	0.275
473	0.276
474	0.276
474	0.277
475	0.277
475	0.278
476	0.279
476	0.28
477	0.28
477	0.281
477	0.282
478	0.283
478	0.284
479	0.285
479	0.285
480	0.286
480	0.287
481	0.288
481	0.288
482	0.289
482	0.29
482	0.291
483	0.292
483	0.293
484	0.294
484	0.295
485	0.296
485	0.297
486	0.299
486	0.3
487	0.301
487	0.303
487	0.304
488	0.306
488	0.307
489	0.309
489	0.311
490	0.313
490	0.314
491	0.316
491	0.317
492	0.319
492	0.32
492	0.322
493	0.324
493	0.326
494	0.328
494	0.33
495	0.331
495	0.333
496	0.335
496	0.337
496	0.339
497	0.342
497	0.344
498	0.345
498	0.347
499	0.349
499	0.351
500	0.353
500	0.356
501	0.358
501	0.36
501	0.362
502	0.364
502	0.366
503	0.369
503	0.371
504	0.373
504	0.375
505	0.377
505	0.379
506	0.381
506	0.383
506	0.385
507	0.387
507	0.389
508	0.391
508	0.393
509	0.395
509	0.397
510	0.399
510	0.401
511	0.403
511	0.405
511	0.407
512	0.409
512	0.411
513	0.412
513	0.414
514	0.415
514	0.417
515	0.418
515	0.419
515	0.42
516	0.421
516	0.422
517	0.423
517	0.424
518	0.426
518	0.427
519	0.427
519	0.428
520	0.429
520	0.43
520	0.431
521	0.431
521	0.432
522	0.432
522	0.432
523	0.433
523	0.433
524	0.433
524	0.433
524	0.433
525	0.433
525	0.432
526	0.432
526	0.432
527	0.431
527	0.43
528	0.43
528	0.429
529	0.428
529	0.427
529	0.426
530	0.425
530	0.425
531	0.423
531	0.422
532	0.421
532	0.419
533	0.418
533	0.416
533	0.414
534	0.413
534	0.411
535	0.409
535	0.408
536	0.406
536	0.404
537	0.402
537	0.4
538	0.398
538	0.396
538	0.394
539	0.392
539	0.39
540	0.388
540	0.385
541	0.383
541	0.381
542	0.378
542	0.375
542	0.372
543	0.37
543	0.368
544	0.365
544	0.363
545	0.36
545	0.357
546	0.354
546	0.351
547	0.349
547	0.346
547	0.344
548	0.341
548	0.338
549	0.335
549	0.332
550	0.329
550	0.326
551	0.324
551	0.321
551	0.318
552	0.315
552	0.313
553	0.31
553	0.308
554	0.305
554	0.303
555	0.3
555	0.297
556	0.295
556	0.292
556	0.289
557	0.286
557	0.283
558	0.28
558	0.277
559	0.274
559	0.272
560	0.269
560	0.267
560	0.265
561	0.263
561	0.261
562	0.259
562	0.256
563	0.254
563	0.252
564	0.25
564	0.247
564	0.245
565	0.242
565	0.239
566	0.236
566	0.233
567	0.23
567	0.228
568	0.225
568	0.223
568	0.221
569	0.219
569	0.217
570	0.215
570	0.213
571	0.212
571	0.21
572	0.208
572	0.206
573	0.204
573	0.201
573	0.199
574	0.198
574	0.196
575	0.194
575	0.192
576	0.191
576	0.189
577	0.188
577	0.187
577	0.186
578	0.185
578	0.184
579	0.182
579	0.181
580	0.18
580	0.178
581	0.177
581	0.176
581	0.176
582	0.175
582	0.174
583	0.173
583	0.172
584	0.171
584	0.17
585	0.169
585	0.168
585	0.166
586	0.165
586	0.164
587	0.163
587	0.163
588	0.162
588	0.161
589	0.16
589	0.16
590	0.159
590	0.159
590	0.158
591	0.158
591	0.157
592	0.156
592	0.155
593	0.155
593	0.154
594	0.154
594	0.153
594	0.153
595	0.153
595	0.153
596	0.153
596	0.153
597	0.153
597	0.153
598	0.152
598	0.152
598	0.152
599	0.152
599	0.151
600	0.151
600	0.151
601	0.15
601	0.149
602	0.148
602	0.148
602	0.148
603	0.147
603	0.147
604	0.146
604	0.146
605	0.146
605	0.146
606	0.147
606	0.147
606	0.147
607	0.147
607	0.147
608	0.147
608	0.147
609	0.147
609	0.147
610	0.146
610	0.146
610	0.146
611	0.146
611	0.146
612	0.146
612	0.146
613	0.146
613	0.146
614	0.146
614	0.145
614	0.146
615	0.146
615	0.146
616	0.146
616	0.147
617	0.147
617	0.148
618	0.149
618	0.15
618	0.151
619	0.152
619	0.153
620	0.154
620	0.155
621	0.156
621	0.156
622	0.157
622	0.157
622	0.158
623	0.158
623	0.159
624	0.159
624	0.16
625	0.16
625	0.161
626	0.161
626	0.162
626	0.163
627	0.164
627	0.164
628	0.165
628	0.166
629	0.167
629	0.169
630	0.17
630	0.172
630	0.173
631	0.175
631	0.176
632	0.178
632	0.179
633	0.181
633	0.182
634	0.184
634	0.185
634	0.186
635	0.188
635	0.188
636	0.19
636	0.191
637	0.192
637	0.194
638	0.195
638	0.197
638	0.198
639	0.2
639	0.202
640	0.203
640	0.205
641	0.207
641	0.209
642	0.211
642	0.213
642	0.214
643	0.216
643	0.218
644	0.22
644	0.222
645	0.225
645	0.227
646	0.23
646	0.233
646	0.236
647	0.239
647	0.242
648	0.245
648	0.248
649	0.25
649	0.253
650	0.256
650	0.259
650	0.262
651	0.264
651	0.267
652	0.27
652	0.273
653	0.277
653	0.281
653	0.266
654	0.209
654	0.171
655	0.178
655	0.181
656	0.182
656	0.184
657	0.186
657	0.188
657	0.189
658	0.188
658	0.194
659	0.248
659	0.318
660	0.322
660	0.325
661	0.329
661	0.332
661	0.337
662	0.341
662	0.345
663	0.349
663	0.352
664	0.356
664	0.359
665	0.363
665	0.366
665	0.369
666	0.373
666	0.376
667	0.379
667	0.382
668	0.385
668	0.389
669	0.392
669	0.395
669	0.399
670	0.402
670	0.405
671	0.408
671	0.41
672	0.413
672	0.415
672	0.417
673	0.419
673	0.421
674	0.423
674	0.424
675	0.427
675	0.429
676	0.431
676	0.433
676	0.435
677	0.437
677	0.439
678	0.441
678	0.443
679	0.445
679	0.446
680	0.448
680	0.449
680	0.45
681	0.451
681	0.453
682	0.454
682	0.455
683	0.456
683	0.458
684	0.458
684	0.459
684	0.46
685	0.461
685	0.462
686	0.463
686	0.463
687	0.463
687	0.464
687	0.463
688	0.463
688	0.463
689	0.463
689	0.462
690	0.461
690	0.461
691	0.46
691	0.459
691	0.459
692	0.458
692	0.458
693	0.457
693	0.457
694	0.456
694	0.456
695	0.455
695	0.453
695	0.452
696	0.45
696	0.448
697	0.446
697	0.444
698	0.441
698	0.438
698	0.436
699	0.433
699	0.431
700	0.428
700	0.425
701	0.423
701	0.421
702	0.419
702	0.417
702	0.415
703	0.414
703	0.412
704	0.41
704	0.408
705	0.406
705	0.403
705	0.401
706	0.398
706	0.396
707	0.393
707	0.391
708	0.388
708	0.386
709	0.384
709	0.381
709	0.379
710	0.376
710	0.374
711	0.372
711	0.369
712	0.367
712	0.364
713	0.361
713	0.358
713	0.355
714	0.352
714	0.349
715	0.347
715	0.344
716	0.341
716	0.338
716	0.335
717	0.332
717	0.329
718	0.326
718	0.324
719	0.322
719	0.32
720	0.317
720	0.315
720	0.313
721	0.31
721	0.307
722	0.304
722	0.301
723	0.298
723	0.295
723	0.292
724	0.289
724	0.285
725	0.282
725	0.279
726	0.276
726	0.273
727	0.271
727	0.269
727	0.267
728	0.266
728	0.264
729	0.263
729	0.262
730	0.26
730	0.259
730	0.258
731	0.256
731	0.255
732	0.253
732	0.251
733	0.249
733	0.247
734	0.245
734	0.243
734	0.241
735	0.239
735	0.237
736	0.235
736	0.233
737	0.231
737	0.229
737	0.226
738	0.224
738	0.222
739	0.22
739	0.218
740	0.217
740	0.216
741	0.215
741	0.214
741	0.213
742	0.211
742	0.21
743	0.209
743	0.208
744	0.206
744	0.204
744	0.202
745	0.2
745	0.198
746	0.196
746	0.193
747	0.191
747	0.189
748	0.187
748	0.185
748	0.184
749	0.182
749	0.18
750	0.178
750	0.177
751	0.175
751	0.174
751	0.172
752	0.171
752	0.17
753	0.169
753	0.168
754	0.167
754	0.166
754	0.165
755	0.163
755	0.162
756	0.161
756	0.159
757	0.158
757	0.157
758	0.155
758	0.154
758	0.152
759	0.151
759	0.149
760	0.148
760	0.147
761	0.147
761	0.146
761	0.145
762	0.144
762	0.143
763	0.143
763	0.142
764	0.141
764	0.14
764	0.139
765	0.139
765	0.138
766	0.138
766	0.137
767	0.137
767	0.136
768	0.135
768	0.135
768	0.134
769	0.133
769	0.132
770	0.131
770	0.131
771	0.13
771	0.129
771	0.128
772	0.127
772	0.126
773	0.126
773	0.126
774	0.126
774	0.126
775	0.126
775	0.126
775	0.125
776	0.125
776	0.125
777	0.124
777	0.124
778	0.123
778	0.122
778	0.121
779	0.119
779	0.118
780	0.117
780	0.117
781	0.116
781	0.116
781	0.115
782	0.115
782	0.115
783	0.115
783	0.114
784	0.114
784	0.113
784	0.113
785	0.112
785	0.111
786	0.11
786	0.109
787	0.108
787	0.107
788	0.106
788	0.105
788	0.105
789	0.104
789	0.104
790	0.103
790	0.103
791	0.103
791	0.103
791	0.103
792	0.103
792	0.102
793	0.102
793	0.102
794	0.102
794	0.102
794	0.102
795	0.102
795	0.102
796	0.102
796	0.101
797	0.101
797	0.101
797	0.101
798	0.1
798	0.1
799	0.099
799	0.098
800	0.098
800	0.097
801	0.097
801	0.096
801	0.096
802	0.095
802	0.095
803	0.094
803	0.094
804	0.093
804	0.092
804	0.091
805	0.09
805	0.09
806	0.089
806	0.089
807	0.089
807	0.089
807	0.09
808	0.09
808	0.091
809	0.091
809	0.091
810	0.092
810	0.092
810	0.092
811	0.092
811	0.092
812	0.091
812	0.09
813	0.09
813	0.089
813	0.089
814	0.089
814	0.088
815	0.088
815	0.088
816	0.088
816	0.088
817	0.088
817	0.087
817	0.087
818	0.086
818	0.086
819	0.085
819	0.085
820	0.084
820	0.084
820	0.084
821	0.084
821	0.083
822	0.083
822	0.083
823	0.083
823	0.083
823	0.083
824	0.083
824	0.082
825	0.082
825	0.082
826	0.082
826	0.081
826	0.081
827	0.08
827	0.08
828	0.08
828	0.08
829	0.08
829	0.08
829	0.079
830	0.079
830	0.08
831	0.08
831	0.081
832	0.081
832	0.082
832	0.082
833	0.083
833	0.083
834	0.083
834	0.083
835	0.083
835	0.083
835	0.082
836	0.082
836	0.081
837	0.08
837	0.08
838	0.079
838	0.078
839	0.077
839	0.077
839	0.076
840	0.076
840	0.075
841	0.075
841	0.075
842	0.075
842	0.075
842	0.075
843	0.075
843	0.074
844	0.074
844	0.074
845	0.074
845	0.074
845	0.074
846	0.075
846	0.075
847	0.075
847	0.075
848	0.076
848	0.076
848	0.077
849	0.077
849	0.077
850	0.077
850	0.077
851	0.078
851	0.078
851	0.078
852	0.078
852	0.078
853	0.078
853	0.078
854	0.078
854	0.078
854	0.078
855	0.078
855	0.077
856	0.077
856	0.076
857	0.076
857	0.075
857	0.075
858	0.075
858	0.074
859	0.073
859	0.072
860	0.072
860	0.07
860	0.069
861	0.069
861	0.068
862	0.067
862	0.066
863	0.065
863	0.065
863	0.065
864	0.066
864	0.067
865	0.068
865	0.069
866	0.071
866	0.072
866	0.073
867	0.074
867	0.074
868	0.074
868	0.074
869	0.074
869	0.073
869	0.072
870	0.071
870	0.07
871	0.069
871	0.068
872	0.067
872	0.065
872	0.064
873	0.063
873	0.063
874	0.063
874	0.062
875	0.062
875	0.062
875	0.062
876	0.063
876	0.063
877	0.063
877	0.063
878	0.063
878	0.063
878	0.062
879	0.062
879	0.061
880	0.061
880	0.061
881	0.06
881	0.06
881	0.06
882	0.06
882	0.06
883	0.061
883	0.061
884	0.062
884	0.062
884	0.062
885	0.062
885	0.063
886	0.063
886	0.063
887	0.062
887	0.062
887	0.062
888	0.061
888	0.061
889	0.061
889	0.061
890	0.061
890	0.061
890	0.06
891	0.06
891	0.06
892	0.059
892	0.059
893	0.058
893	0.058
893	0.058
894	0.058
894	0.058
895	0.058
895	0.059
895	0.059
896	0.059
896	0.06
897	0.061
897	0.061
898	0.062
898	0.062
898	0.062
899	0.062
899	0.062
900	0.062
900	0.062
901	0.062
901	0.062
901	0.062
902	0.063
902	0.063
903	0.063
903	0.063
904	0.063
904	0.063
904	0.063
905	0.063
905	0.063
906	0.062
906	0.062
907	0.062
907	0.061
907	0.061
908	0.061
908	0.061
909	0.061
909	0.061
910	0.061
910	0.061
910	0.061
911	0.061
911	0.061
912	0.062
912	0.062
913	0.063
913	0.063
913	0.064
914	0.064
914	0.064
915	0.064
915	0.065
916	0.064
916	0.064
916	0.064
917	0.064
917	0.063
918	0.063
918	0.062
918	0.061
919	0.061
919	0.06
920	0.06
920	0.059
921	0.059
921	0.058
921	0.058
922	0.057
922	0.057
923	0.056
923	0.056
924	0.055
924	0.054
924	0.053
925	0.052
925	0.051
926	0.05
926	0.049
927	0.048
927	0.047
927	0.047
928	0.046
928	0.046
929	0.046
929	0.046
930	0.047
930	0.048
930	0.049
931	0.05
931	0.051
932	0.053
932	0.054
933	0.056
933	0.057
933	0.059
934	0.06
934	0.061
935	0.061
935	0.062
935	0.063
936	0.063
936	0.063
937	0.063
937	0.063
938	0.063
938	0.063
938	0.063
939	0.063
939	0.063
940	0.062
940	0.062
941	0.062
941	0.062
941	0.062
942	0.061
942	0.061
943	0.06
943	0.06
944	0.059
944	0.059
944	0.059
945	0.059
945	0.059
946	0.059
946	0.058
946	0.058
947	0.058
947	0.057
948	0.057
948	0.056
949	0.056
949	0.055
949	0.055
950	0.054
950	0.054
951	0.054
951	0.054
952	0.054
952	0.054
952	0.055
953	0.055
953	0.055
954	0.056
954	0.056
955	0.057
955	0.057
955	0.058
956	0.058
956	0.058
957	0.058
957	0.058
957	0.058
958	0.057
958	0.057
959	0.057
959	0.057
960	0.057
960	0.056
960	0.056
961	0.056
961	0.056
962	0.056
962	0.056
963	0.057
963	0.057
963	0.057
964	0.057
964	0.058
965	0.058
965	0.059
966	0.059
966	0.06
966	0.06
967	0.061
967	0.061
968	0.062
968	0.062
968	0.062
969	0.062
969	0.062
970	0.061
970	0.061
971	0.06
971	0.059
971	0.059
972	0.058
972	0.057
973	0.056
973	0.056
974	0.056
974	0.056
974	0.056
975	0.057
975	0.057
976	0.058
976	0.058
976	0.059
977	0.059
977	0.059
978	0.059
978	0.059
979	0.059
979	0.059
979	0.059
980	0.058
980	0.057
981	0.057
981	0.057
982	0.057
982	0.056
982	0.056
983	0.056
983	0.056
984	0.056
984	0.056
984	0.056
985	0.056
985	0.055
986	0.055
986	0.055
987	0.054
987	0.054
987	0.053
988	0.052
988	0.052
989	0.051
989	0.051
990	0.05
990	0.05
990	0.05
991	0.05
991	0.05
992	0.05
992	0.051
992	0.051
993	0.051
993	0.051
994	0.052
994	0.052
995	0.052
995	0.053
995	0.053
996	0.053
996	0.052
997	0.053
997	0.053
997	0.052
998	0.053
998	0.053
999	0.053
999	0.053
1000	0.053
1000	0.053
1000	0.054
1001	0.054
1001	0.054
1002	0.054
1002	0.054
1003	0.054
1003	0.054
1003	0.054
1004	0.054
1004	0.054
1005	0.053
1005	0.053
1005	0.053
1006	0.052
1006	0.052
1007	0.051
1007	0.051
1008	0.05
1008	0.049
1008	0.048
1009	0.048
1009	0.048
1010	0.047
1010	0.046
1010	0.046
1011	0.046
1011	0.045
1012	0.045
1012	0.045
1013	0.045
1013	0.046
1013	0.046
1014	0.045
1014	0.045
1015	0.045
1015	0.045
1016	0.045
1016	0.045
1016	0.045
1017	0.044
1017	0.043
1018	0.043
1018	0.043
1018	0.043
1019	0.042
1019	0.042
1020	0.043
1020	0.043
1021	0.043
1021	0.043
1021	0.044
1022	0.045
1022	0.045
1023	0.046
1023	0.047
1023	0.047
1024	0.047
1024	0.047
1025	0.047
1025	0.048
1026	0.047
1026	0.047
1026	0.047
1027	0.046
1027	0.046
1028	0.045
1028	0.044
1028	0.044
1029	0.043
1029	0.043
1030	0.042
1030	0.042
1031	0.041
1031	0.041
1031	0.04
1032	0.04
1032	0.04
1033	0.04
1033	0.04
1033	0.04
1034	0.039
1034	0.039
1035	0.039
1035	0.038
1036	0.038
1036	0.038
1036	0.038
1037	0.038
1037	0.038
1038	0.038
1038	0.038
1039	0.039
1039	0.039
1039	0.04
1040	0.04
1040	0.041
1041	0.041
1041	0.042
1041	0.042
1042	0.042
1042	0.043
1043	0.043
1043	0.044
1044	0.044
1044	0.044
1044	0.044
1045	0.044
1045	0.044
1046	0.044
1046	0.044
1046	0.044
1047	0.044
1047	0.043
1048	0.043
1048	0.043
1049	0.043
1049	0.043
1049	0.042
1050	0.042
1050	0.042
1051	0.042
1051	0.042
1051	0.041
1052	0.041
1052	0.041
1053	0.04
1053	0.04
1053	0.039
1054	0.039
1054	0.038
1055	0.038
1055	0.037
1056	0.036
1056	0.036
1056	0.035
1057	0.034
1057	0.034
1058	0.033
1058	0.033
1058	0.032
1059	0.033
1059	0.032
1060	0.032
1060	0.032
1061	0.032
1061	0.032
1061	0.032
1062	0.032
1062	0.033
1063	0.033
1063	0.033
1063	0.033
1064	0.033
1064	0.033
1065	0.033
1065	0.033
1066	0.034
1066	0.034
1066	0.033
1067	0.033
1067	0.033
1068	0.033
1068	0.033
1068	0.033
1069	0.033
1069	0.033
1070	0.032
1070	0.032
1071	0.032
1071	0.032
1071	0.032
1072	0.031
1072	0.031
1073	0.031
1073	0.031
1073	0.031
1074	0.03
1074	0.03
1075	0.029
1075	0.029
1076	0.028
1076	0.028
1076	0.027
1077	0.027
1077	0.026
1078	0.026
1078	0.026
1078	0.026
1079	0.026
1079	0.027
1080	0.027
1080	0.027
1080	0.027
1081	0.027
1081	0.027
1082	0.027
1082	0.027
1083	0.027
1083	0.027
1083	0.027
1084	0.027
1084	0.027
1085	0.027
1085	0.028
1085	0.028
1086	0.029
1086	0.029
1087	0.029
1087	0.029
1088	0.03
1088	0.03
1088	0.03
1089	0.03
1089	0.03
1090	0.03
1090	0.03
1090	0.03
1091	0.029
1091	0.029
1092	0.029
1092	0.029
1092	0.029
1093	0.029
1093	0.028
1094	0.028
1094	0.027
1095	0.026
1095	0.027
1095	0.027
1096	0.027
1096	0.027
1097	0.027
1097	0.028
1097	0.028
1098	0.028
1098	0.028
1099	0.028
1099	0.028
1100	0.028
1100	0.029
1100	0.029
1101	0.028
1101	0.027
1102	0.027
1102	0.027
1102	0.028
1103	0.028
1103	0.028
1104	0.028
1104	0.027
1104	0.026
1105	0.027
1105	0.027
1106	0.027
1106	0.026
1107	0.024
1107	0.023
1107	0.023
1108	0.024
1108	0.024
1109	0.023
1109	0.023
1109	0.022
1110	0.022
1110	0.02
1111	0.021
1111	0.03
