Data from aggregation-dark_Absorbance__881__00881.txt Node

Date: Tue Jan 16 11:22:24 CET 2024
User: Marek
Spectrometer: MAYP115816
Trigger mode: 0
Integration Time (sec): 2.000000E-1
Scans to average: 10
Electric dark correction enabled: true
Nonlinearity correction enabled: true
Boxcar width: 5
XAxis mode: Wavelengths
Number of Pixels in Spectrum: 2068
>>>>>Begin Spectral Data<<<<<
199	-0.436
199	-0.368
200	-0.304
200	-0.239
201	-0.204
201	-0.183
202	-0.159
202	-0.151
203	-0.147
203	-0.14
204	-0.126
204	-0.112
205	-0.1
205	-0.093
205	-0.096
206	-0.096
206	-0.098
207	-0.097
207	-0.099
208	-0.098
208	-0.1
209	-0.096
209	-0.102
210	-0.103
210	-0.104
211	-0.103
211	-0.106
212	-0.11
212	-0.11
213	-0.112
213	-0.113
213	-0.117
214	-0.119
214	-0.116
215	-0.117
215	-0.121
216	-0.12
216	-0.122
217	-0.118
217	-0.117
218	-0.117
218	-0.113
219	-0.107
219	-0.109
220	-0.11
220	-0.112
221	-0.11
221	-0.111
221	-0.107
222	-0.104
222	-0.102
223	-0.096
223	-0.096
224	-0.096
224	-0.088
225	-0.081
225	-0.075
226	-0.071
226	-0.065
227	-0.057
227	-0.055
228	-0.046
228	-0.04
229	-0.029
229	-0.014
229	-0.001
230	0.014
230	0.03
231	0.048
231	0.069
232	0.084
232	0.104
233	0.122
233	0.141
234	0.157
234	0.173
235	0.187
235	0.199
236	0.211
236	0.222
236	0.232
237	0.242
237	0.25
238	0.257
238	0.264
239	0.271
239	0.276
240	0.281
240	0.285
241	0.289
241	0.292
242	0.295
242	0.298
243	0.301
243	0.304
243	0.306
244	0.308
244	0.31
245	0.312
245	0.314
246	0.316
246	0.318
247	0.32
247	0.322
248	0.324
248	0.325
249	0.327
249	0.329
250	0.33
250	0.332
250	0.333
251	0.335
251	0.336
252	0.337
252	0.339
253	0.34
253	0.34
254	0.341
254	0.342
255	0.343
255	0.344
256	0.344
256	0.345
257	0.346
257	0.346
258	0.346
258	0.347
258	0.347
259	0.347
259	0.347
260	0.347
260	0.347
261	0.346
261	0.346
262	0.345
262	0.345
263	0.344
263	0.344
264	0.343
264	0.342
265	0.341
265	0.34
265	0.339
266	0.338
266	0.337
267	0.336
267	0.335
268	0.333
268	0.332
269	0.33
269	0.329
270	0.327
270	0.326
271	0.324
271	0.322
272	0.32
272	0.319
272	0.317
273	0.315
273	0.313
274	0.312
274	0.31
275	0.308
275	0.307
276	0.305
276	0.303
277	0.301
277	0.299
278	0.297
278	0.296
278	0.294
279	0.292
279	0.29
280	0.288
280	0.286
281	0.284
281	0.282
282	0.281
282	0.279
283	0.277
283	0.275
284	0.273
284	0.272
285	0.27
285	0.269
285	0.267
286	0.266
286	0.264
287	0.263
287	0.261
288	0.26
288	0.259
289	0.258
289	0.257
290	0.256
290	0.255
291	0.253
291	0.252
292	0.251
292	0.25
292	0.249
293	0.249
293	0.248
294	0.247
294	0.246
295	0.245
295	0.245
296	0.244
296	0.243
297	0.243
297	0.243
298	0.242
298	0.242
298	0.241
299	0.241
299	0.241
300	0.241
300	0.241
301	0.24
301	0.24
302	0.24
302	0.24
303	0.24
303	0.239
304	0.239
304	0.238
305	0.238
305	0.238
305	0.238
306	0.237
306	0.237
307	0.237
307	0.236
308	0.236
308	0.236
309	0.235
309	0.235
310	0.235
310	0.235
311	0.234
311	0.234
311	0.234
312	0.234
312	0.233
313	0.233
313	0.233
314	0.233
314	0.232
315	0.232
315	0.232
316	0.231
316	0.231
317	0.231
317	0.23
318	0.23
318	0.23
318	0.229
319	0.229
319	0.229
320	0.228
320	0.228
321	0.228
321	0.228
322	0.227
322	0.227
323	0.227
323	0.226
324	0.226
324	0.226
324	0.226
325	0.225
325	0.225
326	0.225
326	0.224
327	0.224
327	0.224
328	0.223
328	0.223
329	0.222
329	0.222
330	0.221
330	0.221
330	0.221
331	0.22
331	0.22
332	0.22
332	0.219
333	0.219
333	0.219
334	0.218
334	0.218
335	0.218
335	0.217
336	0.217
336	0.216
336	0.216
337	0.216
337	0.215
338	0.215
338	0.215
339	0.214
339	0.214
340	0.214
340	0.214
341	0.213
341	0.213
342	0.213
342	0.213
342	0.212
343	0.212
343	0.212
344	0.212
344	0.211
345	0.211
345	0.211
346	0.211
346	0.21
347	0.21
347	0.21
348	0.21
348	0.21
348	0.21
349	0.209
349	0.209
350	0.209
350	0.209
351	0.209
351	0.209
352	0.209
352	0.209
353	0.209
353	0.208
354	0.208
354	0.208
354	0.208
355	0.207
355	0.207
356	0.207
356	0.207
357	0.206
357	0.206
358	0.206
358	0.206
359	0.205
359	0.206
360	0.206
360	0.206
360	0.206
361	0.206
361	0.206
362	0.206
362	0.206
363	0.206
363	0.207
364	0.207
364	0.207
365	0.207
365	0.207
366	0.207
366	0.207
366	0.207
367	0.207
367	0.207
368	0.207
368	0.207
369	0.207
369	0.207
370	0.207
370	0.207
371	0.207
371	0.207
372	0.207
372	0.207
372	0.207
373	0.207
373	0.207
374	0.207
374	0.207
375	0.207
375	0.207
376	0.207
376	0.207
377	0.207
377	0.207
378	0.207
378	0.207
378	0.207
379	0.207
379	0.207
380	0.208
380	0.208
381	0.208
381	0.208
382	0.208
382	0.208
383	0.208
383	0.207
383	0.207
384	0.207
384	0.207
385	0.207
385	0.207
386	0.207
386	0.207
387	0.208
387	0.207
388	0.207
388	0.207
389	0.207
389	0.207
389	0.207
390	0.207
390	0.207
391	0.207
391	0.207
392	0.207
392	0.207
393	0.207
393	0.207
394	0.207
394	0.207
394	0.207
395	0.208
395	0.208
396	0.207
396	0.208
397	0.208
397	0.208
398	0.208
398	0.208
399	0.208
399	0.208
400	0.208
400	0.207
400	0.207
401	0.207
401	0.207
402	0.207
402	0.207
403	0.207
403	0.207
404	0.207
404	0.207
405	0.207
405	0.207
405	0.207
406	0.207
406	0.207
407	0.208
407	0.208
408	0.207
408	0.207
409	0.207
409	0.207
410	0.207
410	0.208
411	0.208
411	0.208
411	0.207
412	0.207
412	0.207
413	0.207
413	0.207
414	0.207
414	0.207
415	0.207
415	0.207
416	0.206
416	0.206
416	0.206
417	0.206
417	0.206
418	0.206
418	0.207
419	0.207
419	0.207
420	0.207
420	0.207
421	0.208
421	0.208
421	0.208
422	0.208
422	0.208
423	0.208
423	0.208
424	0.207
424	0.207
425	0.207
425	0.207
426	0.207
426	0.207
427	0.207
427	0.207
427	0.207
428	0.207
428	0.207
429	0.208
429	0.208
430	0.208
430	0.208
431	0.208
431	0.208
432	0.208
432	0.208
432	0.207
433	0.207
433	0.207
434	0.207
434	0.207
435	0.207
435	0.207
436	0.207
436	0.207
437	0.207
437	0.207
437	0.207
438	0.207
438	0.207
439	0.207
439	0.207
440	0.206
440	0.206
441	0.207
441	0.207
442	0.207
442	0.207
442	0.207
443	0.208
443	0.208
444	0.208
444	0.208
445	0.208
445	0.208
446	0.208
446	0.208
447	0.208
447	0.208
447	0.208
448	0.208
448	0.208
449	0.208
449	0.207
450	0.207
450	0.207
451	0.207
451	0.207
452	0.207
452	0.207
452	0.208
453	0.207
453	0.207
454	0.207
454	0.207
455	0.207
455	0.207
456	0.207
456	0.207
457	0.207
457	0.206
458	0.206
458	0.207
458	0.207
459	0.207
459	0.207
460	0.207
460	0.207
461	0.208
461	0.208
462	0.208
462	0.208
463	0.208
463	0.208
463	0.209
464	0.208
464	0.208
465	0.208
465	0.208
466	0.208
466	0.208
467	0.208
467	0.209
467	0.208
468	0.208
468	0.208
469	0.209
469	0.209
470	0.21
470	0.21
471	0.21
471	0.21
472	0.21
472	0.21
472	0.21
473	0.211
473	0.211
474	0.211
474	0.211
475	0.211
475	0.211
476	0.212
476	0.212
477	0.212
477	0.212
477	0.212
478	0.213
478	0.213
479	0.213
479	0.213
480	0.213
480	0.214
481	0.214
481	0.214
482	0.214
482	0.214
482	0.215
483	0.215
483	0.216
484	0.216
484	0.216
485	0.216
485	0.217
486	0.218
486	0.218
487	0.219
487	0.219
487	0.22
488	0.221
488	0.221
489	0.222
489	0.223
490	0.224
490	0.224
491	0.225
491	0.226
492	0.226
492	0.226
492	0.227
493	0.227
493	0.228
494	0.229
494	0.23
495	0.231
495	0.231
496	0.232
496	0.233
496	0.234
497	0.235
497	0.236
498	0.237
498	0.237
499	0.238
499	0.239
500	0.24
500	0.241
501	0.242
501	0.243
501	0.243
502	0.244
502	0.245
503	0.246
503	0.247
504	0.247
504	0.248
505	0.249
505	0.25
506	0.251
506	0.252
506	0.253
507	0.254
507	0.255
508	0.256
508	0.257
509	0.258
509	0.259
510	0.26
510	0.261
511	0.261
511	0.262
511	0.263
512	0.263
512	0.264
513	0.265
513	0.266
514	0.266
514	0.267
515	0.268
515	0.268
515	0.269
516	0.269
516	0.27
517	0.271
517	0.271
518	0.271
518	0.271
519	0.272
519	0.272
520	0.272
520	0.273
520	0.274
521	0.274
521	0.274
522	0.275
522	0.275
523	0.276
523	0.277
524	0.277
524	0.278
524	0.278
525	0.278
525	0.278
526	0.279
526	0.279
527	0.279
527	0.28
528	0.28
528	0.279
529	0.28
529	0.28
529	0.28
530	0.281
530	0.281
531	0.281
531	0.281
532	0.281
532	0.281
533	0.281
533	0.281
533	0.281
534	0.281
534	0.281
535	0.281
535	0.281
536	0.281
536	0.281
537	0.281
537	0.282
538	0.282
538	0.282
538	0.282
539	0.282
539	0.282
540	0.281
540	0.281
541	0.281
541	0.281
542	0.281
542	0.281
542	0.281
543	0.281
543	0.281
544	0.281
544	0.282
545	0.282
545	0.282
546	0.281
546	0.281
547	0.28
547	0.28
547	0.279
548	0.279
548	0.279
549	0.279
549	0.279
550	0.279
550	0.279
551	0.279
551	0.279
551	0.28
552	0.28
552	0.28
553	0.28
553	0.281
554	0.281
554	0.28
555	0.28
555	0.28
556	0.279
556	0.279
556	0.279
557	0.278
557	0.278
558	0.278
558	0.278
559	0.278
559	0.279
560	0.279
560	0.279
560	0.279
561	0.28
561	0.28
562	0.28
562	0.279
563	0.278
563	0.278
564	0.277
564	0.276
564	0.276
565	0.275
565	0.275
566	0.274
566	0.274
567	0.274
567	0.274
568	0.274
568	0.274
568	0.274
569	0.274
569	0.274
570	0.274
570	0.273
571	0.273
571	0.273
572	0.272
572	0.272
573	0.271
573	0.271
573	0.27
574	0.27
574	0.27
575	0.271
575	0.271
576	0.271
576	0.27
577	0.27
577	0.27
577	0.271
578	0.271
578	0.271
579	0.272
579	0.273
580	0.272
580	0.271
581	0.27
581	0.27
581	0.27
582	0.271
582	0.271
583	0.271
583	0.27
584	0.268
584	0.267
585	0.267
585	0.268
585	0.268
586	0.268
586	0.267
587	0.266
587	0.266
588	0.265
588	0.265
589	0.266
589	0.266
590	0.266
590	0.266
590	0.267
591	0.267
591	0.266
592	0.266
592	0.265
593	0.265
593	0.264
594	0.263
594	0.263
594	0.262
595	0.263
595	0.262
596	0.263
596	0.265
597	0.266
597	0.266
598	0.267
598	0.267
598	0.268
599	0.268
599	0.267
600	0.267
600	0.266
601	0.266
601	0.265
602	0.264
602	0.264
602	0.263
603	0.263
603	0.264
604	0.263
604	0.263
605	0.263
605	0.264
606	0.263
606	0.263
606	0.262
607	0.262
607	0.262
608	0.261
608	0.26
609	0.26
609	0.26
610	0.259
610	0.258
610	0.258
611	0.259
611	0.259
612	0.259
612	0.259
613	0.26
613	0.26
614	0.259
614	0.259
614	0.259
615	0.258
615	0.258
616	0.258
616	0.257
617	0.257
617	0.256
618	0.256
618	0.257
618	0.257
619	0.258
619	0.259
620	0.259
620	0.259
621	0.26
621	0.26
622	0.26
622	0.26
622	0.259
623	0.259
623	0.26
624	0.26
624	0.259
625	0.259
625	0.259
626	0.259
626	0.259
626	0.26
627	0.26
627	0.26
628	0.26
628	0.26
629	0.26
629	0.261
630	0.261
630	0.261
630	0.263
631	0.263
631	0.264
632	0.265
632	0.266
633	0.266
633	0.268
634	0.269
634	0.27
634	0.27
635	0.271
635	0.271
636	0.271
636	0.272
637	0.272
637	0.272
638	0.273
638	0.273
638	0.274
639	0.274
639	0.275
640	0.276
640	0.277
641	0.278
641	0.279
642	0.28
642	0.281
642	0.281
643	0.281
643	0.281
644	0.282
644	0.283
645	0.284
645	0.285
646	0.286
646	0.288
646	0.29
647	0.292
647	0.294
648	0.296
648	0.298
649	0.3
649	0.302
650	0.304
650	0.306
650	0.307
651	0.308
651	0.31
652	0.311
652	0.313
653	0.315
653	0.32
653	0.31
654	0.241
654	0.195
655	0.2
655	0.201
656	0.202
656	0.203
657	0.204
657	0.206
657	0.206
658	0.203
658	0.202
659	0.259
659	0.335
660	0.34
660	0.342
661	0.344
661	0.347
661	0.35
662	0.352
662	0.355
663	0.357
663	0.359
664	0.361
664	0.363
665	0.364
665	0.366
665	0.368
666	0.371
666	0.373
667	0.375
667	0.377
668	0.38
668	0.382
669	0.384
669	0.386
669	0.389
670	0.391
670	0.392
671	0.394
671	0.395
672	0.396
672	0.397
672	0.399
673	0.4
673	0.401
674	0.402
674	0.404
675	0.405
675	0.407
676	0.409
676	0.411
676	0.412
677	0.414
677	0.415
678	0.416
678	0.417
679	0.418
679	0.419
680	0.42
680	0.42
680	0.421
681	0.421
681	0.423
682	0.424
682	0.425
683	0.426
683	0.428
684	0.429
684	0.43
684	0.43
685	0.432
685	0.433
686	0.434
686	0.434
687	0.434
687	0.435
687	0.435
688	0.435
688	0.435
689	0.436
689	0.435
690	0.435
690	0.434
691	0.434
691	0.434
691	0.434
692	0.433
692	0.433
693	0.434
693	0.434
694	0.434
694	0.434
695	0.435
695	0.436
695	0.435
696	0.434
696	0.433
697	0.432
697	0.431
698	0.429
698	0.428
698	0.426
699	0.425
699	0.423
700	0.421
700	0.42
701	0.419
701	0.418
702	0.418
702	0.418
702	0.417
703	0.416
703	0.416
704	0.415
704	0.414
705	0.413
705	0.412
705	0.41
706	0.409
706	0.408
707	0.406
707	0.405
708	0.403
708	0.402
709	0.401
709	0.4
709	0.398
710	0.397
710	0.396
711	0.396
711	0.394
712	0.393
712	0.392
713	0.391
713	0.389
713	0.388
714	0.386
714	0.384
715	0.383
715	0.381
716	0.379
716	0.377
716	0.375
717	0.373
717	0.372
718	0.37
718	0.369
719	0.368
719	0.368
720	0.366
720	0.365
720	0.364
721	0.363
721	0.361
722	0.36
722	0.358
723	0.356
723	0.354
723	0.352
724	0.35
724	0.348
725	0.346
725	0.344
726	0.343
726	0.342
727	0.34
727	0.339
727	0.338
728	0.337
728	0.337
729	0.336
729	0.335
730	0.335
730	0.334
730	0.334
731	0.333
731	0.333
732	0.332
732	0.331
733	0.33
733	0.33
734	0.329
734	0.328
734	0.327
735	0.327
735	0.325
736	0.324
736	0.323
737	0.322
737	0.321
737	0.319
738	0.318
738	0.316
739	0.314
739	0.313
740	0.312
740	0.312
741	0.312
741	0.311
741	0.31
742	0.309
742	0.309
743	0.309
743	0.308
744	0.307
744	0.307
744	0.305
745	0.303
745	0.302
746	0.3
746	0.299
747	0.298
747	0.297
748	0.295
748	0.294
748	0.293
749	0.292
749	0.291
750	0.29
750	0.289
751	0.288
751	0.287
751	0.286
752	0.285
752	0.284
753	0.284
753	0.283
754	0.283
754	0.282
754	0.282
755	0.281
755	0.28
756	0.278
756	0.277
757	0.276
757	0.276
758	0.275
758	0.273
758	0.272
759	0.271
759	0.269
760	0.268
760	0.267
761	0.267
761	0.268
761	0.267
762	0.266
762	0.266
763	0.266
763	0.265
764	0.264
764	0.263
764	0.263
765	0.263
765	0.262
766	0.262
766	0.261
767	0.26
767	0.259
768	0.258
768	0.258
768	0.257
769	0.257
769	0.256
770	0.255
770	0.254
771	0.253
771	0.252
771	0.252
772	0.252
772	0.252
773	0.252
773	0.251
774	0.251
774	0.251
775	0.251
775	0.251
775	0.25
776	0.25
776	0.249
777	0.248
777	0.248
778	0.247
778	0.246
778	0.245
779	0.244
779	0.243
780	0.242
780	0.241
781	0.24
781	0.24
781	0.239
782	0.239
782	0.239
783	0.239
783	0.238
784	0.238
784	0.238
784	0.238
785	0.237
785	0.237
786	0.236
786	0.236
787	0.235
787	0.234
788	0.233
788	0.232
788	0.231
789	0.231
789	0.23
790	0.229
790	0.228
791	0.228
791	0.227
791	0.226
792	0.226
792	0.224
793	0.224
793	0.223
794	0.223
794	0.223
794	0.223
795	0.223
795	0.223
796	0.223
796	0.223
797	0.222
797	0.223
797	0.222
798	0.222
798	0.221
799	0.221
799	0.22
800	0.219
800	0.218
801	0.217
801	0.217
801	0.216
802	0.215
802	0.214
803	0.214
803	0.213
804	0.212
804	0.211
804	0.21
805	0.21
805	0.209
806	0.209
806	0.209
807	0.209
807	0.209
807	0.209
808	0.21
808	0.21
809	0.21
809	0.211
810	0.211
810	0.211
810	0.211
811	0.211
811	0.21
812	0.21
812	0.209
813	0.208
813	0.207
813	0.207
814	0.207
814	0.207
815	0.207
815	0.206
816	0.206
816	0.205
817	0.205
817	0.205
817	0.204
818	0.204
818	0.203
819	0.202
819	0.201
820	0.201
820	0.2
820	0.2
821	0.2
821	0.199
822	0.199
822	0.198
823	0.198
823	0.197
823	0.197
824	0.197
824	0.196
825	0.196
825	0.195
826	0.194
826	0.193
826	0.192
827	0.191
827	0.191
828	0.19
828	0.19
829	0.19
829	0.19
829	0.19
830	0.19
830	0.19
831	0.191
831	0.192
832	0.192
832	0.192
832	0.192
833	0.192
833	0.192
834	0.192
834	0.191
835	0.191
835	0.19
835	0.189
836	0.188
836	0.188
837	0.187
837	0.187
838	0.186
838	0.186
839	0.185
839	0.185
839	0.185
840	0.185
840	0.184
841	0.184
841	0.184
842	0.183
842	0.183
842	0.183
843	0.183
843	0.183
844	0.182
844	0.182
845	0.182
845	0.182
845	0.182
846	0.183
846	0.183
847	0.183
847	0.183
848	0.183
848	0.183
848	0.183
849	0.183
849	0.183
850	0.183
850	0.182
851	0.182
851	0.181
851	0.181
852	0.18
852	0.18
853	0.18
853	0.18
854	0.18
854	0.18
854	0.179
855	0.179
855	0.179
856	0.179
856	0.178
857	0.178
857	0.177
857	0.176
858	0.175
858	0.174
859	0.173
859	0.171
860	0.17
860	0.169
860	0.167
861	0.166
861	0.164
862	0.162
862	0.161
863	0.16
863	0.159
863	0.159
864	0.159
864	0.159
865	0.16
865	0.16
866	0.161
866	0.162
866	0.162
867	0.163
867	0.164
868	0.164
868	0.164
869	0.164
869	0.164
869	0.163
870	0.163
870	0.162
871	0.162
871	0.161
872	0.161
872	0.16
872	0.16
873	0.159
873	0.159
874	0.159
874	0.159
875	0.16
875	0.16
875	0.16
876	0.16
876	0.16
877	0.16
877	0.159
878	0.158
878	0.157
878	0.156
879	0.155
879	0.154
880	0.153
880	0.151
881	0.15
881	0.15
881	0.149
882	0.149
882	0.149
883	0.149
883	0.149
884	0.149
884	0.15
884	0.15
885	0.15
885	0.151
886	0.151
886	0.151
887	0.151
887	0.152
887	0.151
888	0.151
888	0.151
889	0.15
889	0.15
890	0.15
890	0.15
890	0.15
891	0.149
891	0.149
892	0.148
892	0.148
893	0.148
893	0.148
893	0.148
894	0.148
894	0.148
895	0.148
895	0.148
895	0.149
896	0.149
896	0.15
897	0.15
897	0.15
898	0.151
898	0.151
898	0.151
899	0.151
899	0.151
900	0.15
900	0.15
901	0.15
901	0.15
901	0.15
902	0.15
902	0.151
903	0.151
903	0.151
904	0.151
904	0.15
904	0.15
905	0.15
905	0.149
906	0.149
906	0.148
907	0.147
907	0.146
907	0.145
908	0.145
908	0.145
909	0.145
909	0.145
910	0.145
910	0.145
910	0.145
911	0.145
911	0.145
912	0.146
912	0.146
913	0.146
913	0.146
913	0.147
914	0.147
914	0.146
915	0.146
915	0.145
916	0.145
916	0.144
916	0.143
917	0.142
917	0.141
918	0.14
918	0.139
918	0.138
919	0.138
919	0.137
920	0.137
920	0.137
921	0.137
921	0.137
921	0.137
922	0.137
922	0.137
923	0.137
923	0.137
924	0.136
924	0.136
924	0.135
925	0.134
925	0.133
926	0.131
926	0.13
927	0.129
927	0.128
927	0.127
928	0.126
928	0.125
929	0.124
929	0.124
930	0.124
930	0.124
930	0.125
931	0.126
931	0.127
932	0.128
932	0.129
933	0.13
933	0.131
933	0.132
934	0.133
934	0.133
935	0.134
935	0.134
935	0.134
936	0.135
936	0.134
937	0.134
937	0.134
938	0.134
938	0.134
938	0.134
939	0.134
939	0.134
940	0.134
940	0.134
941	0.134
941	0.134
941	0.134
942	0.133
942	0.132
943	0.131
943	0.13
944	0.13
944	0.129
944	0.129
945	0.129
945	0.129
946	0.13
946	0.13
946	0.13
947	0.13
947	0.13
948	0.13
948	0.13
949	0.13
949	0.129
949	0.129
950	0.128
950	0.127
951	0.127
951	0.126
952	0.126
952	0.126
952	0.125
953	0.125
953	0.125
954	0.126
954	0.126
955	0.126
955	0.127
955	0.127
956	0.128
956	0.128
957	0.128
957	0.128
957	0.128
958	0.128
958	0.127
959	0.127
959	0.126
960	0.125
960	0.124
960	0.123
961	0.123
961	0.122
962	0.122
962	0.122
963	0.122
963	0.122
963	0.123
964	0.123
964	0.124
965	0.125
965	0.126
966	0.127
966	0.128
966	0.128
967	0.129
967	0.129
968	0.128
968	0.128
968	0.128
969	0.127
969	0.126
970	0.125
970	0.124
971	0.123
971	0.122
971	0.121
972	0.121
972	0.121
973	0.121
973	0.121
974	0.122
974	0.122
974	0.123
975	0.123
975	0.124
976	0.125
976	0.125
976	0.125
977	0.125
977	0.124
978	0.123
978	0.122
979	0.122
979	0.121
979	0.12
980	0.119
980	0.118
981	0.118
981	0.117
982	0.117
982	0.116
982	0.117
983	0.116
983	0.116
984	0.116
984	0.115
984	0.115
985	0.115
985	0.114
986	0.113
986	0.112
987	0.111
987	0.11
987	0.109
988	0.108
988	0.107
989	0.107
989	0.106
990	0.106
990	0.106
990	0.106
991	0.106
991	0.107
992	0.108
992	0.109
992	0.109
993	0.11
993	0.111
994	0.111
994	0.111
995	0.112
995	0.112
995	0.112
996	0.112
996	0.111
997	0.111
997	0.111
997	0.11
998	0.11
998	0.111
999	0.111
999	0.111
1000	0.111
1000	0.112
1000	0.112
1001	0.113
1001	0.113
1002	0.113
1002	0.113
1003	0.113
1003	0.113
1003	0.113
1004	0.113
1004	0.112
1005	0.112
1005	0.111
1005	0.11
1006	0.11
1006	0.109
1007	0.108
1007	0.107
1008	0.106
1008	0.105
1008	0.104
1009	0.104
1009	0.103
1010	0.103
1010	0.102
1010	0.102
1011	0.102
1011	0.102
1012	0.102
1012	0.102
1013	0.102
1013	0.102
1013	0.102
1014	0.101
1014	0.101
1015	0.1
1015	0.1
1016	0.099
1016	0.099
1016	0.098
1017	0.097
1017	0.096
1018	0.095
1018	0.094
1018	0.094
1019	0.093
1019	0.093
1020	0.092
1020	0.092
1021	0.092
1021	0.091
1021	0.091
1022	0.091
1022	0.091
1023	0.091
1023	0.091
1023	0.091
1024	0.09
1024	0.09
1025	0.089
1025	0.088
1026	0.088
1026	0.087
1026	0.086
1027	0.086
1027	0.085
1028	0.084
1028	0.084
1028	0.083
1029	0.083
1029	0.083
1030	0.082
1030	0.082
1031	0.082
1031	0.082
1031	0.082
1032	0.082
1032	0.082
1033	0.082
1033	0.083
1033	0.083
1034	0.083
1034	0.082
1035	0.082
1035	0.082
1036	0.082
1036	0.082
1036	0.083
1037	0.083
1037	0.083
1038	0.083
1038	0.083
1039	0.084
1039	0.084
1039	0.085
1040	0.085
1040	0.086
1041	0.086
1041	0.086
1041	0.085
1042	0.085
1042	0.085
1043	0.085
1043	0.084
1044	0.084
1044	0.083
1044	0.082
1045	0.081
1045	0.08
1046	0.079
1046	0.078
1046	0.078
1047	0.077
1047	0.077
1048	0.076
1048	0.076
1049	0.075
1049	0.074
1049	0.073
1050	0.072
1050	0.071
1051	0.071
1051	0.07
1051	0.07
1052	0.069
1052	0.068
1053	0.068
1053	0.067
1053	0.066
1054	0.066
1054	0.066
1055	0.065
1055	0.065
1056	0.064
1056	0.064
1056	0.063
1057	0.062
1057	0.062
1058	0.061
1058	0.061
1058	0.061
1059	0.061
1059	0.061
1060	0.061
1060	0.061
1061	0.061
1061	0.062
1061	0.062
1062	0.063
1062	0.063
1063	0.063
1063	0.063
1063	0.063
1064	0.063
1064	0.063
1065	0.063
1065	0.063
1066	0.063
1066	0.063
1066	0.063
1067	0.063
1067	0.063
1068	0.063
1068	0.063
1068	0.062
1069	0.062
1069	0.062
1070	0.061
1070	0.061
1071	0.061
1071	0.061
1071	0.06
1072	0.06
1072	0.059
1073	0.059
1073	0.059
1073	0.058
1074	0.057
1074	0.057
1075	0.055
1075	0.054
1076	0.053
1076	0.052
1076	0.051
1077	0.05
1077	0.05
1078	0.049
1078	0.048
1078	0.048
1079	0.048
1079	0.048
1080	0.048
1080	0.048
1080	0.048
1081	0.048
1081	0.048
1082	0.048
1082	0.048
1083	0.048
1083	0.048
1083	0.048
1084	0.048
1084	0.048
1085	0.048
1085	0.049
1085	0.049
1086	0.049
1086	0.049
1087	0.049
1087	0.049
1088	0.049
1088	0.049
1088	0.049
1089	0.049
1089	0.049
1090	0.048
1090	0.048
1090	0.047
1091	0.046
1091	0.046
1092	0.045
1092	0.045
1092	0.044
1093	0.044
1093	0.043
1094	0.041
1094	0.04
1095	0.038
1095	0.037
1095	0.036
1096	0.034
1096	0.033
1097	0.032
1097	0.031
1097	0.03
1098	0.028
1098	0.027
1099	0.026
1099	0.025
1100	0.024
1100	0.023
1100	0.021
1101	0.019
1101	0.016
1102	0.015
1102	0.014
1102	0.014
1103	0.012
1103	0.01
1104	0.008
1104	0.007
1104	0.006
1105	0.005
1105	0.002
1106	-0
1106	-0.003
1107	-0.007
1107	-0.009
1107	-0.011
1108	-0.011
1108	-0.012
1109	-0.014
1109	-0.017
1109	-0.02
1110	-0.019
1110	-0.021
1111	-0.022
1111	-0.014
