Data from aggregation-dark_Absorbance__263__00263.txt Node

Date: Tue Jan 16 11:01:49 CET 2024
User: Marek
Spectrometer: MAYP115816
Trigger mode: 0
Integration Time (sec): 2.000000E-1
Scans to average: 10
Electric dark correction enabled: true
Nonlinearity correction enabled: true
Boxcar width: 5
XAxis mode: Wavelengths
Number of Pixels in Spectrum: 2068
>>>>>Begin Spectral Data<<<<<
199	-0.221
199	-0.165
200	-0.109
200	-0.056
201	-0.032
201	-0.016
202	0.006
202	0.01
203	0.01
203	0.014
204	0.027
204	0.037
205	0.045
205	0.048
205	0.045
206	0.047
206	0.045
207	0.046
207	0.045
208	0.047
208	0.045
209	0.046
209	0.044
210	0.044
210	0.046
211	0.045
211	0.044
212	0.041
212	0.04
213	0.038
213	0.037
213	0.037
214	0.036
214	0.038
215	0.039
215	0.038
216	0.039
216	0.037
217	0.043
217	0.044
218	0.047
218	0.052
219	0.057
219	0.059
220	0.058
220	0.057
221	0.058
221	0.057
221	0.061
222	0.062
222	0.067
223	0.072
223	0.071
224	0.074
224	0.079
225	0.088
225	0.096
226	0.099
226	0.105
227	0.113
227	0.118
228	0.125
228	0.131
229	0.143
229	0.156
229	0.169
230	0.181
230	0.194
231	0.211
231	0.228
232	0.243
232	0.26
233	0.276
233	0.291
234	0.305
234	0.318
235	0.33
235	0.339
236	0.35
236	0.359
236	0.368
237	0.375
237	0.381
238	0.387
238	0.393
239	0.399
239	0.403
240	0.408
240	0.412
241	0.416
241	0.419
242	0.422
242	0.426
243	0.429
243	0.431
243	0.433
244	0.436
244	0.438
245	0.44
245	0.442
246	0.444
246	0.446
247	0.447
247	0.449
248	0.451
248	0.453
249	0.455
249	0.457
250	0.458
250	0.46
250	0.461
251	0.462
251	0.463
252	0.465
252	0.466
253	0.467
253	0.468
254	0.469
254	0.469
255	0.47
255	0.471
256	0.472
256	0.472
257	0.473
257	0.473
258	0.473
258	0.474
258	0.473
259	0.473
259	0.473
260	0.473
260	0.473
261	0.472
261	0.472
262	0.471
262	0.471
263	0.47
263	0.469
264	0.468
264	0.467
265	0.466
265	0.464
265	0.463
266	0.462
266	0.46
267	0.459
267	0.457
268	0.456
268	0.454
269	0.452
269	0.45
270	0.448
270	0.446
271	0.444
271	0.442
272	0.44
272	0.438
272	0.435
273	0.433
273	0.431
274	0.429
274	0.426
275	0.424
275	0.422
276	0.42
276	0.417
277	0.415
277	0.412
278	0.41
278	0.407
278	0.405
279	0.403
279	0.4
280	0.397
280	0.395
281	0.393
281	0.39
282	0.388
282	0.386
283	0.383
283	0.381
284	0.379
284	0.377
285	0.375
285	0.373
285	0.371
286	0.368
286	0.367
287	0.364
287	0.363
288	0.361
288	0.359
289	0.357
289	0.355
290	0.354
290	0.352
291	0.351
291	0.349
292	0.348
292	0.346
292	0.345
293	0.344
293	0.342
294	0.341
294	0.34
295	0.339
295	0.337
296	0.336
296	0.335
297	0.334
297	0.333
298	0.332
298	0.332
298	0.331
299	0.33
299	0.329
300	0.329
300	0.328
301	0.327
301	0.327
302	0.326
302	0.325
303	0.325
303	0.324
304	0.324
304	0.323
305	0.322
305	0.322
305	0.321
306	0.321
306	0.32
307	0.319
307	0.319
308	0.318
308	0.317
309	0.317
309	0.316
310	0.315
310	0.315
311	0.314
311	0.313
311	0.313
312	0.312
312	0.312
313	0.311
313	0.31
314	0.31
314	0.309
315	0.309
315	0.308
316	0.307
316	0.307
317	0.306
317	0.305
318	0.305
318	0.304
318	0.304
319	0.303
319	0.302
320	0.302
320	0.301
321	0.3
321	0.3
322	0.299
322	0.299
323	0.298
323	0.297
324	0.297
324	0.296
324	0.296
325	0.295
325	0.295
326	0.294
326	0.294
327	0.293
327	0.292
328	0.292
328	0.291
329	0.291
329	0.29
330	0.289
330	0.289
330	0.288
331	0.287
331	0.287
332	0.286
332	0.286
333	0.285
333	0.285
334	0.284
334	0.284
335	0.283
335	0.283
336	0.282
336	0.282
336	0.281
337	0.281
337	0.28
338	0.28
338	0.279
339	0.279
339	0.278
340	0.278
340	0.277
341	0.277
341	0.277
342	0.276
342	0.276
342	0.275
343	0.275
343	0.274
344	0.274
344	0.274
345	0.274
345	0.273
346	0.273
346	0.273
347	0.272
347	0.272
348	0.272
348	0.272
348	0.272
349	0.272
349	0.272
350	0.271
350	0.271
351	0.271
351	0.271
352	0.271
352	0.27
353	0.27
353	0.27
354	0.27
354	0.269
354	0.269
355	0.269
355	0.268
356	0.268
356	0.268
357	0.268
357	0.268
358	0.267
358	0.267
359	0.267
359	0.267
360	0.267
360	0.267
360	0.267
361	0.267
361	0.267
362	0.267
362	0.267
363	0.267
363	0.267
364	0.267
364	0.267
365	0.267
365	0.267
366	0.266
366	0.266
366	0.266
367	0.266
367	0.266
368	0.266
368	0.266
369	0.266
369	0.266
370	0.266
370	0.266
371	0.266
371	0.265
372	0.265
372	0.265
372	0.265
373	0.265
373	0.265
374	0.265
374	0.264
375	0.264
375	0.264
376	0.264
376	0.264
377	0.264
377	0.264
378	0.264
378	0.264
378	0.264
379	0.264
379	0.264
380	0.264
380	0.264
381	0.264
381	0.263
382	0.263
382	0.263
383	0.263
383	0.263
383	0.262
384	0.262
384	0.262
385	0.262
385	0.262
386	0.261
386	0.261
387	0.261
387	0.261
388	0.261
388	0.261
389	0.261
389	0.26
389	0.26
390	0.26
390	0.26
391	0.26
391	0.26
392	0.259
392	0.259
393	0.259
393	0.259
394	0.259
394	0.259
394	0.259
395	0.259
395	0.259
396	0.259
396	0.259
397	0.259
397	0.259
398	0.259
398	0.258
399	0.258
399	0.258
400	0.258
400	0.258
400	0.258
401	0.258
401	0.257
402	0.257
402	0.257
403	0.257
403	0.257
404	0.256
404	0.256
405	0.256
405	0.256
405	0.256
406	0.256
406	0.256
407	0.256
407	0.256
408	0.256
408	0.256
409	0.256
409	0.256
410	0.256
410	0.256
411	0.256
411	0.256
411	0.256
412	0.256
412	0.255
413	0.255
413	0.255
414	0.255
414	0.254
415	0.254
415	0.254
416	0.254
416	0.254
416	0.254
417	0.254
417	0.254
418	0.254
418	0.254
419	0.254
419	0.254
420	0.254
420	0.254
421	0.254
421	0.254
421	0.254
422	0.254
422	0.254
423	0.254
423	0.254
424	0.254
424	0.254
425	0.254
425	0.254
426	0.253
426	0.253
427	0.253
427	0.253
427	0.253
428	0.253
428	0.253
429	0.253
429	0.253
430	0.253
430	0.253
431	0.253
431	0.252
432	0.252
432	0.252
432	0.252
433	0.252
433	0.252
434	0.252
434	0.252
435	0.252
435	0.252
436	0.252
436	0.252
437	0.252
437	0.252
437	0.252
438	0.252
438	0.252
439	0.252
439	0.252
440	0.252
440	0.252
441	0.251
441	0.251
442	0.251
442	0.252
442	0.252
443	0.252
443	0.252
444	0.252
444	0.252
445	0.252
445	0.252
446	0.253
446	0.253
447	0.253
447	0.253
447	0.253
448	0.253
448	0.253
449	0.253
449	0.253
450	0.253
450	0.253
451	0.253
451	0.253
452	0.253
452	0.253
452	0.253
453	0.253
453	0.253
454	0.253
454	0.253
455	0.253
455	0.253
456	0.253
456	0.253
457	0.253
457	0.253
458	0.253
458	0.253
458	0.254
459	0.254
459	0.254
460	0.255
460	0.255
461	0.255
461	0.255
462	0.255
462	0.255
463	0.256
463	0.256
463	0.256
464	0.256
464	0.256
465	0.257
465	0.257
466	0.257
466	0.257
467	0.257
467	0.258
467	0.258
468	0.258
468	0.258
469	0.259
469	0.259
470	0.259
470	0.26
471	0.26
471	0.26
472	0.26
472	0.26
472	0.261
473	0.261
473	0.261
474	0.261
474	0.262
475	0.262
475	0.263
476	0.263
476	0.264
477	0.265
477	0.265
477	0.266
478	0.267
478	0.267
479	0.268
479	0.269
480	0.269
480	0.27
481	0.27
481	0.271
482	0.272
482	0.272
482	0.273
483	0.273
483	0.274
484	0.275
484	0.276
485	0.277
485	0.277
486	0.278
486	0.279
487	0.28
487	0.281
487	0.282
488	0.284
488	0.285
489	0.287
489	0.288
490	0.289
490	0.291
491	0.292
491	0.293
492	0.294
492	0.295
492	0.296
493	0.298
493	0.299
494	0.301
494	0.302
495	0.304
495	0.305
496	0.307
496	0.308
496	0.31
497	0.312
497	0.313
498	0.315
498	0.316
499	0.318
499	0.32
500	0.321
500	0.323
501	0.325
501	0.326
501	0.328
502	0.33
502	0.331
503	0.333
503	0.335
504	0.336
504	0.338
505	0.34
505	0.341
506	0.343
506	0.345
506	0.347
507	0.348
507	0.35
508	0.352
508	0.354
509	0.356
509	0.358
510	0.36
510	0.362
511	0.363
511	0.365
511	0.367
512	0.369
512	0.37
513	0.372
513	0.373
514	0.374
514	0.375
515	0.377
515	0.378
515	0.379
516	0.38
516	0.381
517	0.382
517	0.383
518	0.384
518	0.385
519	0.386
519	0.387
520	0.388
520	0.388
520	0.389
521	0.39
521	0.391
522	0.392
522	0.392
523	0.393
523	0.394
524	0.394
524	0.395
524	0.396
525	0.396
525	0.396
526	0.397
526	0.396
527	0.396
527	0.396
528	0.396
528	0.396
529	0.396
529	0.396
529	0.396
530	0.396
530	0.396
531	0.396
531	0.396
532	0.396
532	0.395
533	0.395
533	0.394
533	0.394
534	0.393
534	0.392
535	0.392
535	0.391
536	0.391
536	0.39
537	0.389
537	0.389
538	0.388
538	0.387
538	0.386
539	0.385
539	0.384
540	0.383
540	0.382
541	0.381
541	0.38
542	0.379
542	0.378
542	0.377
543	0.376
543	0.375
544	0.374
544	0.373
545	0.371
545	0.37
546	0.369
546	0.367
547	0.366
547	0.364
547	0.363
548	0.362
548	0.36
549	0.359
549	0.358
550	0.356
550	0.355
551	0.353
551	0.353
551	0.351
552	0.35
552	0.349
553	0.348
553	0.347
554	0.346
554	0.344
555	0.343
555	0.342
556	0.341
556	0.339
556	0.337
557	0.336
557	0.335
558	0.333
558	0.331
559	0.329
559	0.328
560	0.327
560	0.326
560	0.324
561	0.323
561	0.322
562	0.321
562	0.319
563	0.317
563	0.316
564	0.314
564	0.313
564	0.311
565	0.309
565	0.307
566	0.304
566	0.303
567	0.301
567	0.299
568	0.298
568	0.296
568	0.294
569	0.293
569	0.292
570	0.291
570	0.289
571	0.288
571	0.287
572	0.285
572	0.283
573	0.282
573	0.28
573	0.278
574	0.277
574	0.275
575	0.274
575	0.273
576	0.271
576	0.27
577	0.269
577	0.268
577	0.268
578	0.267
578	0.266
579	0.265
579	0.264
580	0.262
580	0.261
581	0.26
581	0.259
581	0.258
582	0.257
582	0.256
583	0.255
583	0.254
584	0.252
584	0.251
585	0.25
585	0.249
585	0.248
586	0.247
586	0.246
587	0.245
587	0.244
588	0.243
588	0.242
589	0.242
589	0.241
590	0.24
590	0.239
590	0.239
591	0.238
591	0.237
592	0.236
592	0.235
593	0.234
593	0.233
594	0.232
594	0.231
594	0.23
595	0.23
595	0.229
596	0.229
596	0.229
597	0.229
597	0.228
598	0.228
598	0.228
598	0.228
599	0.227
599	0.226
600	0.225
600	0.225
601	0.224
601	0.222
602	0.221
602	0.22
602	0.219
603	0.219
603	0.218
604	0.217
604	0.217
605	0.217
605	0.216
606	0.216
606	0.216
606	0.215
607	0.215
607	0.214
608	0.214
608	0.213
609	0.213
609	0.212
610	0.211
610	0.211
610	0.21
611	0.21
611	0.209
612	0.209
612	0.209
613	0.209
613	0.209
614	0.208
614	0.207
614	0.207
615	0.207
615	0.206
616	0.206
616	0.205
617	0.205
617	0.205
618	0.205
618	0.205
618	0.206
619	0.207
619	0.207
620	0.208
620	0.208
621	0.209
621	0.209
622	0.209
622	0.21
622	0.21
623	0.21
623	0.21
624	0.211
624	0.21
625	0.211
625	0.211
626	0.211
626	0.212
626	0.212
627	0.213
627	0.213
628	0.214
628	0.214
629	0.215
629	0.215
630	0.216
630	0.218
630	0.219
631	0.22
631	0.221
632	0.222
632	0.224
633	0.225
633	0.226
634	0.227
634	0.228
634	0.229
635	0.23
635	0.231
636	0.232
636	0.232
637	0.233
637	0.234
638	0.235
638	0.236
638	0.237
639	0.238
639	0.239
640	0.241
640	0.242
641	0.244
641	0.246
642	0.247
642	0.248
642	0.25
643	0.251
643	0.252
644	0.254
644	0.255
645	0.257
645	0.258
646	0.26
646	0.262
646	0.265
647	0.268
647	0.27
648	0.272
648	0.275
649	0.278
649	0.28
650	0.282
650	0.285
650	0.287
651	0.289
651	0.291
652	0.294
652	0.296
653	0.299
653	0.303
653	0.289
654	0.226
654	0.185
655	0.192
655	0.194
656	0.195
656	0.197
657	0.198
657	0.2
657	0.201
658	0.199
658	0.203
659	0.261
659	0.333
660	0.337
660	0.339
661	0.342
661	0.346
661	0.35
662	0.353
662	0.356
663	0.36
663	0.362
664	0.365
664	0.368
665	0.37
665	0.373
665	0.375
666	0.378
666	0.38
667	0.383
667	0.385
668	0.388
668	0.391
669	0.394
669	0.396
669	0.399
670	0.401
670	0.404
671	0.406
671	0.408
672	0.41
672	0.412
672	0.413
673	0.415
673	0.417
674	0.418
674	0.42
675	0.422
675	0.424
676	0.426
676	0.427
676	0.429
677	0.431
677	0.432
678	0.434
678	0.435
679	0.437
679	0.438
680	0.439
680	0.44
680	0.441
681	0.443
681	0.444
682	0.445
682	0.446
683	0.447
683	0.448
684	0.449
684	0.45
684	0.45
685	0.451
685	0.452
686	0.452
686	0.453
687	0.453
687	0.454
687	0.454
688	0.454
688	0.454
689	0.454
689	0.453
690	0.452
690	0.452
691	0.451
691	0.451
691	0.45
692	0.45
692	0.45
693	0.45
693	0.45
694	0.449
694	0.449
695	0.449
695	0.449
695	0.447
696	0.446
696	0.445
697	0.443
697	0.441
698	0.439
698	0.437
698	0.434
699	0.432
699	0.43
700	0.428
700	0.426
701	0.424
701	0.423
702	0.421
702	0.42
702	0.419
703	0.418
703	0.417
704	0.416
704	0.415
705	0.413
705	0.411
705	0.409
706	0.407
706	0.405
707	0.403
707	0.4
708	0.398
708	0.396
709	0.394
709	0.392
709	0.39
710	0.388
710	0.387
711	0.385
711	0.383
712	0.381
712	0.379
713	0.377
713	0.375
713	0.372
714	0.37
714	0.368
715	0.365
715	0.363
716	0.36
716	0.357
716	0.355
717	0.352
717	0.35
718	0.348
718	0.346
719	0.344
719	0.342
720	0.341
720	0.339
720	0.337
721	0.335
721	0.333
722	0.331
722	0.329
723	0.327
723	0.324
723	0.321
724	0.318
724	0.315
725	0.313
725	0.31
726	0.308
726	0.306
727	0.304
727	0.302
727	0.301
728	0.299
728	0.298
729	0.297
729	0.296
730	0.295
730	0.294
730	0.293
731	0.292
731	0.29
732	0.289
732	0.287
733	0.286
733	0.284
734	0.283
734	0.281
734	0.28
735	0.279
735	0.277
736	0.275
736	0.274
737	0.272
737	0.27
737	0.268
738	0.266
738	0.264
739	0.262
739	0.261
740	0.26
740	0.259
741	0.258
741	0.256
741	0.255
742	0.254
742	0.253
743	0.252
743	0.251
744	0.25
744	0.248
744	0.246
745	0.244
745	0.242
746	0.24
746	0.238
747	0.236
747	0.234
748	0.232
748	0.231
748	0.229
749	0.227
749	0.226
750	0.224
750	0.222
751	0.221
751	0.22
751	0.218
752	0.217
752	0.216
753	0.215
753	0.214
754	0.214
754	0.213
754	0.212
755	0.211
755	0.209
756	0.208
756	0.206
757	0.205
757	0.204
758	0.202
758	0.201
758	0.199
759	0.197
759	0.196
760	0.194
760	0.193
761	0.193
761	0.192
761	0.191
762	0.19
762	0.19
763	0.189
763	0.188
764	0.187
764	0.187
764	0.186
765	0.186
765	0.185
766	0.185
766	0.185
767	0.184
767	0.183
768	0.182
768	0.181
768	0.181
769	0.18
769	0.179
770	0.178
770	0.177
771	0.176
771	0.175
771	0.174
772	0.173
772	0.172
773	0.172
773	0.171
774	0.171
774	0.171
775	0.17
775	0.17
775	0.169
776	0.169
776	0.168
777	0.168
777	0.167
778	0.166
778	0.165
778	0.164
779	0.163
779	0.162
780	0.161
780	0.16
781	0.159
781	0.159
781	0.158
782	0.158
782	0.158
783	0.158
783	0.157
784	0.157
784	0.157
784	0.157
785	0.156
785	0.155
786	0.154
786	0.154
787	0.153
787	0.152
788	0.151
788	0.15
788	0.149
789	0.149
789	0.148
790	0.147
790	0.146
791	0.146
791	0.145
791	0.144
792	0.144
792	0.142
793	0.142
793	0.141
794	0.141
794	0.141
794	0.141
795	0.141
795	0.14
796	0.14
796	0.14
797	0.139
797	0.14
797	0.14
798	0.139
798	0.139
799	0.138
799	0.137
800	0.137
800	0.136
801	0.136
801	0.135
801	0.134
802	0.134
802	0.133
803	0.132
803	0.132
804	0.131
804	0.13
804	0.129
805	0.128
805	0.128
806	0.127
806	0.127
807	0.127
807	0.127
807	0.127
808	0.128
808	0.128
809	0.128
809	0.129
810	0.129
810	0.129
810	0.129
811	0.129
811	0.129
812	0.128
812	0.128
813	0.127
813	0.127
813	0.126
814	0.126
814	0.126
815	0.125
815	0.125
816	0.125
816	0.124
817	0.124
817	0.124
817	0.123
818	0.123
818	0.122
819	0.121
819	0.121
820	0.12
820	0.12
820	0.12
821	0.12
821	0.119
822	0.119
822	0.118
823	0.118
823	0.118
823	0.118
824	0.117
824	0.117
825	0.117
825	0.116
826	0.115
826	0.115
826	0.114
827	0.113
827	0.113
828	0.112
828	0.112
829	0.112
829	0.111
829	0.111
830	0.111
830	0.112
831	0.112
831	0.113
832	0.113
832	0.114
832	0.114
833	0.114
833	0.115
834	0.115
834	0.115
835	0.114
835	0.114
835	0.114
836	0.113
836	0.112
837	0.112
837	0.111
838	0.11
838	0.11
839	0.109
839	0.109
839	0.109
840	0.108
840	0.108
841	0.108
841	0.107
842	0.108
842	0.108
842	0.108
843	0.108
843	0.107
844	0.107
844	0.107
845	0.107
845	0.107
845	0.107
846	0.107
846	0.107
847	0.107
847	0.107
848	0.108
848	0.108
848	0.108
849	0.108
849	0.108
850	0.108
850	0.108
851	0.108
851	0.108
851	0.108
852	0.108
852	0.108
853	0.108
853	0.108
854	0.108
854	0.108
854	0.107
855	0.107
855	0.107
856	0.106
856	0.106
857	0.105
857	0.105
857	0.104
858	0.103
858	0.103
859	0.102
859	0.101
860	0.1
860	0.098
860	0.097
861	0.096
861	0.095
862	0.094
862	0.093
863	0.093
863	0.092
863	0.092
864	0.093
864	0.094
865	0.095
865	0.096
866	0.097
866	0.098
866	0.099
867	0.1
867	0.1
868	0.1
868	0.1
869	0.1
869	0.099
869	0.098
870	0.097
870	0.096
871	0.095
871	0.094
872	0.093
872	0.092
872	0.091
873	0.09
873	0.089
874	0.089
874	0.089
875	0.089
875	0.089
875	0.089
876	0.089
876	0.088
877	0.088
877	0.088
878	0.088
878	0.087
878	0.087
879	0.086
879	0.085
880	0.085
880	0.084
881	0.083
881	0.083
881	0.083
882	0.083
882	0.083
883	0.084
883	0.084
884	0.084
884	0.085
884	0.085
885	0.085
885	0.085
886	0.085
886	0.085
887	0.085
887	0.085
887	0.085
888	0.085
888	0.084
889	0.084
889	0.084
890	0.084
890	0.084
890	0.084
891	0.084
891	0.083
892	0.083
892	0.082
893	0.082
893	0.082
893	0.082
894	0.082
894	0.083
895	0.083
895	0.083
895	0.084
896	0.084
896	0.085
897	0.085
897	0.086
898	0.086
898	0.086
898	0.086
899	0.086
899	0.086
900	0.086
900	0.086
901	0.086
901	0.086
901	0.086
902	0.086
902	0.087
903	0.087
903	0.087
904	0.087
904	0.087
904	0.087
905	0.087
905	0.087
906	0.087
906	0.086
907	0.086
907	0.085
907	0.085
908	0.085
908	0.084
909	0.084
909	0.084
910	0.084
910	0.084
910	0.084
911	0.084
911	0.084
912	0.085
912	0.085
913	0.085
913	0.086
913	0.086
914	0.087
914	0.087
915	0.087
915	0.087
916	0.087
916	0.086
916	0.086
917	0.085
917	0.085
918	0.084
918	0.083
918	0.083
919	0.082
919	0.082
920	0.081
920	0.081
921	0.081
921	0.08
921	0.08
922	0.079
922	0.079
923	0.079
923	0.078
924	0.078
924	0.077
924	0.076
925	0.075
925	0.074
926	0.072
926	0.071
927	0.07
927	0.069
927	0.068
928	0.067
928	0.067
929	0.067
929	0.067
930	0.067
930	0.068
930	0.069
931	0.07
931	0.071
932	0.073
932	0.074
933	0.075
933	0.077
933	0.078
934	0.079
934	0.08
935	0.08
935	0.081
935	0.081
936	0.082
936	0.082
937	0.082
937	0.081
938	0.081
938	0.081
938	0.081
939	0.081
939	0.081
940	0.08
940	0.08
941	0.08
941	0.08
941	0.079
942	0.079
942	0.078
943	0.077
943	0.077
944	0.076
944	0.076
944	0.076
945	0.076
945	0.076
946	0.076
946	0.076
946	0.076
947	0.076
947	0.076
948	0.076
948	0.076
949	0.076
949	0.075
949	0.075
950	0.075
950	0.074
951	0.074
951	0.074
952	0.074
952	0.074
952	0.074
953	0.074
953	0.074
954	0.074
954	0.074
955	0.075
955	0.075
955	0.075
956	0.076
956	0.076
957	0.076
957	0.076
957	0.076
958	0.076
958	0.075
959	0.075
959	0.074
960	0.074
960	0.073
960	0.072
961	0.072
961	0.071
962	0.071
962	0.071
963	0.071
963	0.071
963	0.071
964	0.072
964	0.072
965	0.073
965	0.074
966	0.074
966	0.075
966	0.076
967	0.077
967	0.077
968	0.077
968	0.078
968	0.078
969	0.078
969	0.077
970	0.077
970	0.076
971	0.076
971	0.075
971	0.074
972	0.074
972	0.074
973	0.073
973	0.073
974	0.074
974	0.074
974	0.074
975	0.074
975	0.075
976	0.075
976	0.076
976	0.076
977	0.076
977	0.076
978	0.076
978	0.075
979	0.075
979	0.075
979	0.074
980	0.074
980	0.073
981	0.073
981	0.073
982	0.072
982	0.072
982	0.072
983	0.072
983	0.072
984	0.072
984	0.071
984	0.071
985	0.071
985	0.07
986	0.069
986	0.069
987	0.068
987	0.067
987	0.067
988	0.066
988	0.066
989	0.065
989	0.065
990	0.064
990	0.064
990	0.064
991	0.065
991	0.065
992	0.065
992	0.066
992	0.066
993	0.066
993	0.067
994	0.067
994	0.068
995	0.068
995	0.068
995	0.068
996	0.068
996	0.068
997	0.068
997	0.068
997	0.068
998	0.069
998	0.069
999	0.069
999	0.069
1000	0.07
1000	0.07
1000	0.07
1001	0.071
1001	0.071
1002	0.071
1002	0.071
1003	0.071
1003	0.071
1003	0.07
1004	0.07
1004	0.07
1005	0.069
1005	0.069
1005	0.068
1006	0.067
1006	0.067
1007	0.066
1007	0.065
1008	0.064
1008	0.063
1008	0.063
1009	0.062
1009	0.061
1010	0.06
1010	0.06
1010	0.059
1011	0.059
1011	0.059
1012	0.059
1012	0.059
1013	0.059
1013	0.059
1013	0.058
1014	0.058
1014	0.058
1015	0.058
1015	0.058
1016	0.057
1016	0.057
1016	0.057
1017	0.056
1017	0.055
1018	0.055
1018	0.055
1018	0.054
1019	0.054
1019	0.054
1020	0.054
1020	0.054
1021	0.054
1021	0.054
1021	0.055
1022	0.055
1022	0.056
1023	0.056
1023	0.057
1023	0.057
1024	0.057
1024	0.057
1025	0.057
1025	0.057
1026	0.057
1026	0.056
1026	0.056
1027	0.055
1027	0.055
1028	0.054
1028	0.054
1028	0.053
1029	0.052
1029	0.052
1030	0.051
1030	0.051
1031	0.051
1031	0.05
1031	0.05
1032	0.049
1032	0.049
1033	0.049
1033	0.049
1033	0.049
1034	0.048
1034	0.048
1035	0.048
1035	0.048
1036	0.048
1036	0.048
1036	0.048
1037	0.048
1037	0.049
1038	0.049
1038	0.049
1039	0.05
1039	0.05
1039	0.051
1040	0.051
1040	0.052
1041	0.052
1041	0.052
1041	0.053
1042	0.053
1042	0.053
1043	0.053
1043	0.053
1044	0.053
1044	0.053
1044	0.053
1045	0.053
1045	0.052
1046	0.052
1046	0.052
1046	0.051
1047	0.051
1047	0.05
1048	0.05
1048	0.049
1049	0.049
1049	0.048
1049	0.048
1050	0.048
1050	0.047
1051	0.047
1051	0.047
1051	0.047
1052	0.047
1052	0.046
1053	0.046
1053	0.045
1053	0.045
1054	0.044
1054	0.043
1055	0.043
1055	0.043
1056	0.042
1056	0.041
1056	0.04
1057	0.04
1057	0.039
1058	0.039
1058	0.039
1058	0.038
1059	0.039
1059	0.038
1060	0.038
1060	0.038
1061	0.039
1061	0.039
1061	0.039
1062	0.04
1062	0.04
1063	0.04
1063	0.04
1063	0.04
1064	0.041
1064	0.041
1065	0.041
1065	0.041
1066	0.041
1066	0.041
1066	0.041
1067	0.04
1067	0.04
1068	0.04
1068	0.04
1068	0.039
1069	0.039
1069	0.039
1070	0.039
1070	0.039
1071	0.038
1071	0.038
1071	0.038
1072	0.038
1072	0.038
1073	0.038
1073	0.038
1073	0.037
1074	0.037
1074	0.036
1075	0.036
1075	0.035
1076	0.034
1076	0.034
1076	0.033
1077	0.033
1077	0.032
1078	0.032
1078	0.032
1078	0.031
1079	0.031
1079	0.032
1080	0.032
1080	0.032
1080	0.032
1081	0.033
1081	0.032
1082	0.032
1082	0.033
1083	0.032
1083	0.032
1083	0.033
1084	0.032
1084	0.033
1085	0.032
1085	0.033
1085	0.033
1086	0.033
1086	0.033
1087	0.034
1087	0.034
1088	0.034
1088	0.034
1088	0.034
1089	0.034
1089	0.034
1090	0.034
1090	0.034
1090	0.034
1091	0.034
1091	0.034
1092	0.034
1092	0.034
1092	0.034
1093	0.034
1093	0.033
1094	0.033
1094	0.031
1095	0.031
1095	0.03
1095	0.03
1096	0.029
1096	0.029
1097	0.028
1097	0.028
1097	0.028
1098	0.027
1098	0.026
1099	0.026
1099	0.026
1100	0.026
1100	0.026
1100	0.025
1101	0.025
1101	0.024
1102	0.023
1102	0.022
1102	0.023
1103	0.022
1103	0.021
1104	0.02
1104	0.018
1104	0.017
1105	0.016
1105	0.015
1106	0.014
1106	0.014
1107	0.012
1107	0.011
1107	0.01
1108	0.011
1108	0.012
1109	0.012
1109	0.01
1109	0.01
1110	0.011
1110	0.009
1111	0.009
1111	0.017
