Data from aggregation-dark_Absorbance__547__00547.txt Node

Date: Tue Jan 16 11:11:17 CET 2024
User: Marek
Spectrometer: MAYP115816
Trigger mode: 0
Integration Time (sec): 2.000000E-1
Scans to average: 10
Electric dark correction enabled: true
Nonlinearity correction enabled: true
Boxcar width: 5
XAxis mode: Wavelengths
Number of Pixels in Spectrum: 2068
>>>>>Begin Spectral Data<<<<<
199	-0.349
199	-0.294
200	-0.23
200	-0.168
201	-0.136
201	-0.115
202	-0.091
202	-0.087
203	-0.083
203	-0.077
204	-0.065
204	-0.054
205	-0.041
205	-0.037
205	-0.04
206	-0.04
206	-0.042
207	-0.041
207	-0.043
208	-0.043
208	-0.043
209	-0.04
209	-0.042
210	-0.045
210	-0.043
211	-0.044
211	-0.046
212	-0.048
212	-0.051
213	-0.05
213	-0.05
213	-0.055
214	-0.057
214	-0.055
215	-0.053
215	-0.057
216	-0.054
216	-0.057
217	-0.054
217	-0.052
218	-0.052
218	-0.049
219	-0.044
219	-0.044
220	-0.044
220	-0.045
221	-0.044
221	-0.045
221	-0.04
222	-0.038
222	-0.036
223	-0.031
223	-0.029
224	-0.028
224	-0.021
225	-0.015
225	-0.012
226	-0.008
226	-0.001
227	0.007
227	0.009
228	0.019
228	0.025
229	0.036
229	0.05
229	0.062
230	0.075
230	0.093
231	0.109
231	0.127
232	0.141
232	0.158
233	0.174
233	0.19
234	0.203
234	0.217
235	0.229
235	0.239
236	0.249
236	0.259
236	0.268
237	0.275
237	0.283
238	0.288
238	0.294
239	0.3
239	0.304
240	0.309
240	0.313
241	0.316
241	0.319
242	0.322
242	0.325
243	0.327
243	0.33
243	0.333
244	0.335
244	0.337
245	0.339
245	0.341
246	0.343
246	0.345
247	0.346
247	0.348
248	0.35
248	0.351
249	0.353
249	0.355
250	0.356
250	0.358
250	0.359
251	0.36
251	0.361
252	0.363
252	0.364
253	0.365
253	0.366
254	0.367
254	0.368
255	0.369
255	0.369
256	0.37
256	0.371
257	0.371
257	0.372
258	0.372
258	0.372
258	0.373
259	0.373
259	0.373
260	0.373
260	0.373
261	0.372
261	0.372
262	0.371
262	0.371
263	0.37
263	0.37
264	0.369
264	0.368
265	0.367
265	0.366
265	0.365
266	0.364
266	0.362
267	0.361
267	0.36
268	0.359
268	0.357
269	0.355
269	0.354
270	0.352
270	0.351
271	0.349
271	0.347
272	0.346
272	0.344
272	0.342
273	0.34
273	0.338
274	0.336
274	0.335
275	0.333
275	0.331
276	0.329
276	0.327
277	0.325
277	0.323
278	0.321
278	0.319
278	0.317
279	0.316
279	0.313
280	0.312
280	0.31
281	0.308
281	0.306
282	0.304
282	0.303
283	0.301
283	0.299
284	0.297
284	0.296
285	0.294
285	0.292
285	0.291
286	0.289
286	0.287
287	0.286
287	0.284
288	0.283
288	0.282
289	0.28
289	0.279
290	0.278
290	0.277
291	0.275
291	0.274
292	0.273
292	0.272
292	0.271
293	0.27
293	0.269
294	0.268
294	0.268
295	0.267
295	0.266
296	0.266
296	0.265
297	0.264
297	0.264
298	0.264
298	0.263
298	0.263
299	0.262
299	0.262
300	0.261
300	0.261
301	0.261
301	0.26
302	0.26
302	0.26
303	0.259
303	0.259
304	0.259
304	0.258
305	0.258
305	0.258
305	0.257
306	0.257
306	0.257
307	0.257
307	0.256
308	0.256
308	0.256
309	0.255
309	0.255
310	0.255
310	0.254
311	0.254
311	0.254
311	0.254
312	0.253
312	0.253
313	0.252
313	0.252
314	0.252
314	0.251
315	0.251
315	0.251
316	0.25
316	0.25
317	0.249
317	0.249
318	0.249
318	0.248
318	0.248
319	0.248
319	0.247
320	0.247
320	0.246
321	0.246
321	0.246
322	0.245
322	0.245
323	0.245
323	0.244
324	0.244
324	0.244
324	0.243
325	0.243
325	0.243
326	0.242
326	0.242
327	0.241
327	0.241
328	0.241
328	0.24
329	0.24
329	0.239
330	0.239
330	0.239
330	0.238
331	0.238
331	0.237
332	0.237
332	0.236
333	0.236
333	0.235
334	0.235
334	0.235
335	0.234
335	0.234
336	0.233
336	0.233
336	0.233
337	0.232
337	0.232
338	0.232
338	0.231
339	0.231
339	0.231
340	0.231
340	0.23
341	0.23
341	0.23
342	0.229
342	0.229
342	0.229
343	0.229
343	0.228
344	0.228
344	0.228
345	0.227
345	0.227
346	0.227
346	0.227
347	0.227
347	0.226
348	0.226
348	0.226
348	0.226
349	0.226
349	0.226
350	0.226
350	0.225
351	0.225
351	0.225
352	0.225
352	0.225
353	0.225
353	0.224
354	0.224
354	0.224
354	0.224
355	0.223
355	0.223
356	0.223
356	0.223
357	0.222
357	0.222
358	0.222
358	0.222
359	0.222
359	0.222
360	0.222
360	0.222
360	0.222
361	0.222
361	0.223
362	0.222
362	0.223
363	0.223
363	0.223
364	0.223
364	0.223
365	0.223
365	0.223
366	0.223
366	0.223
366	0.223
367	0.223
367	0.223
368	0.223
368	0.223
369	0.223
369	0.223
370	0.223
370	0.223
371	0.223
371	0.223
372	0.223
372	0.223
372	0.223
373	0.223
373	0.223
374	0.223
374	0.223
375	0.223
375	0.223
376	0.222
376	0.222
377	0.222
377	0.222
378	0.222
378	0.222
378	0.222
379	0.223
379	0.223
380	0.223
380	0.223
381	0.223
381	0.223
382	0.223
382	0.223
383	0.223
383	0.223
383	0.223
384	0.223
384	0.223
385	0.222
385	0.222
386	0.222
386	0.222
387	0.222
387	0.222
388	0.222
388	0.222
389	0.222
389	0.221
389	0.221
390	0.221
390	0.221
391	0.221
391	0.221
392	0.221
392	0.221
393	0.221
393	0.222
394	0.222
394	0.222
394	0.222
395	0.222
395	0.222
396	0.222
396	0.222
397	0.222
397	0.222
398	0.222
398	0.222
399	0.222
399	0.222
400	0.222
400	0.222
400	0.222
401	0.221
401	0.221
402	0.221
402	0.221
403	0.221
403	0.221
404	0.221
404	0.221
405	0.221
405	0.221
405	0.221
406	0.221
406	0.221
407	0.221
407	0.222
408	0.221
408	0.221
409	0.221
409	0.222
410	0.222
410	0.222
411	0.222
411	0.221
411	0.221
412	0.221
412	0.221
413	0.221
413	0.221
414	0.221
414	0.221
415	0.22
415	0.22
416	0.22
416	0.22
416	0.22
417	0.22
417	0.22
418	0.22
418	0.22
419	0.22
419	0.22
420	0.22
420	0.221
421	0.221
421	0.221
421	0.221
422	0.221
422	0.221
423	0.221
423	0.221
424	0.22
424	0.22
425	0.22
425	0.22
426	0.22
426	0.22
427	0.22
427	0.22
427	0.22
428	0.22
428	0.22
429	0.22
429	0.221
430	0.221
430	0.221
431	0.221
431	0.221
432	0.221
432	0.22
432	0.22
433	0.22
433	0.22
434	0.22
434	0.22
435	0.22
435	0.22
436	0.219
436	0.219
437	0.219
437	0.219
437	0.219
438	0.219
438	0.219
439	0.219
439	0.219
440	0.219
440	0.219
441	0.219
441	0.219
442	0.219
442	0.219
442	0.219
443	0.22
443	0.22
444	0.22
444	0.22
445	0.22
445	0.22
446	0.22
446	0.22
447	0.22
447	0.22
447	0.22
448	0.22
448	0.22
449	0.22
449	0.22
450	0.22
450	0.22
451	0.22
451	0.22
452	0.22
452	0.22
452	0.22
453	0.22
453	0.22
454	0.22
454	0.22
455	0.22
455	0.22
456	0.22
456	0.22
457	0.22
457	0.219
458	0.219
458	0.22
458	0.22
459	0.22
459	0.22
460	0.22
460	0.22
461	0.221
461	0.221
462	0.221
462	0.221
463	0.221
463	0.222
463	0.221
464	0.221
464	0.221
465	0.221
465	0.221
466	0.221
466	0.222
467	0.222
467	0.222
467	0.222
468	0.222
468	0.222
469	0.222
469	0.223
470	0.223
470	0.223
471	0.223
471	0.223
472	0.223
472	0.223
472	0.223
473	0.223
473	0.223
474	0.223
474	0.223
475	0.223
475	0.224
476	0.224
476	0.225
477	0.225
477	0.226
477	0.226
478	0.226
478	0.227
479	0.227
479	0.227
480	0.227
480	0.228
481	0.228
481	0.228
482	0.228
482	0.228
482	0.229
483	0.229
483	0.23
484	0.23
484	0.23
485	0.231
485	0.232
486	0.232
486	0.233
487	0.233
487	0.234
487	0.235
488	0.235
488	0.236
489	0.237
489	0.238
490	0.239
490	0.24
491	0.24
491	0.241
492	0.242
492	0.242
492	0.243
493	0.244
493	0.245
494	0.246
494	0.247
495	0.248
495	0.249
496	0.25
496	0.251
496	0.252
497	0.253
497	0.254
498	0.254
498	0.255
499	0.256
499	0.257
500	0.258
500	0.259
501	0.26
501	0.261
501	0.262
502	0.263
502	0.264
503	0.265
503	0.266
504	0.267
504	0.268
505	0.269
505	0.27
506	0.271
506	0.272
506	0.273
507	0.274
507	0.275
508	0.276
508	0.278
509	0.279
509	0.28
510	0.281
510	0.282
511	0.283
511	0.284
511	0.285
512	0.286
512	0.287
513	0.288
513	0.288
514	0.289
514	0.29
515	0.291
515	0.291
515	0.292
516	0.293
516	0.293
517	0.294
517	0.295
518	0.295
518	0.296
519	0.297
519	0.297
520	0.298
520	0.299
520	0.299
521	0.3
521	0.3
522	0.301
522	0.301
523	0.302
523	0.303
524	0.303
524	0.303
524	0.304
525	0.304
525	0.304
526	0.304
526	0.304
527	0.304
527	0.305
528	0.304
528	0.305
529	0.305
529	0.305
529	0.305
530	0.305
530	0.306
531	0.306
531	0.306
532	0.306
532	0.306
533	0.307
533	0.307
533	0.307
534	0.307
534	0.307
535	0.307
535	0.307
536	0.307
536	0.307
537	0.307
537	0.307
538	0.307
538	0.307
538	0.307
539	0.307
539	0.307
540	0.307
540	0.307
541	0.306
541	0.306
542	0.306
542	0.306
542	0.306
543	0.306
543	0.306
544	0.306
544	0.306
545	0.306
545	0.306
546	0.306
546	0.305
547	0.304
547	0.304
547	0.304
548	0.304
548	0.303
549	0.303
549	0.303
550	0.303
550	0.303
551	0.303
551	0.303
551	0.303
552	0.303
552	0.303
553	0.303
553	0.303
554	0.303
554	0.303
555	0.303
555	0.302
556	0.302
556	0.302
556	0.302
557	0.302
557	0.302
558	0.301
558	0.301
559	0.3
559	0.301
560	0.301
560	0.301
560	0.301
561	0.301
561	0.301
562	0.3
562	0.3
563	0.299
563	0.298
564	0.297
564	0.297
564	0.296
565	0.296
565	0.295
566	0.294
566	0.294
567	0.293
567	0.293
568	0.293
568	0.293
568	0.293
569	0.293
569	0.293
570	0.292
570	0.291
571	0.292
571	0.291
572	0.29
572	0.29
573	0.289
573	0.288
573	0.287
574	0.287
574	0.287
575	0.286
575	0.287
576	0.286
576	0.286
577	0.285
577	0.285
577	0.286
578	0.286
578	0.286
579	0.286
579	0.286
580	0.285
580	0.285
581	0.284
581	0.284
581	0.284
582	0.284
582	0.284
583	0.284
583	0.283
584	0.281
584	0.281
585	0.281
585	0.281
585	0.28
586	0.28
586	0.279
587	0.279
587	0.278
588	0.278
588	0.278
589	0.278
589	0.278
590	0.278
590	0.278
590	0.279
591	0.279
591	0.277
592	0.277
592	0.276
593	0.276
593	0.275
594	0.274
594	0.273
594	0.273
595	0.273
595	0.273
596	0.273
596	0.274
597	0.275
597	0.275
598	0.275
598	0.276
598	0.276
599	0.276
599	0.276
600	0.275
600	0.275
601	0.274
601	0.273
602	0.272
602	0.272
602	0.271
603	0.271
603	0.271
604	0.27
604	0.27
605	0.27
605	0.27
606	0.269
606	0.269
606	0.268
607	0.268
607	0.268
608	0.267
608	0.266
609	0.266
609	0.265
610	0.264
610	0.264
610	0.264
611	0.264
611	0.264
612	0.264
612	0.264
613	0.264
613	0.264
614	0.263
614	0.262
614	0.262
615	0.262
615	0.261
616	0.261
616	0.26
617	0.26
617	0.26
618	0.259
618	0.259
618	0.26
619	0.26
619	0.261
620	0.261
620	0.261
621	0.261
621	0.261
622	0.261
622	0.261
622	0.261
623	0.261
623	0.261
624	0.261
624	0.261
625	0.261
625	0.261
626	0.261
626	0.261
626	0.262
627	0.262
627	0.262
628	0.262
628	0.263
629	0.263
629	0.263
630	0.264
630	0.264
630	0.265
631	0.266
631	0.267
632	0.267
632	0.268
633	0.269
633	0.27
634	0.271
634	0.272
634	0.272
635	0.273
635	0.273
636	0.273
636	0.273
637	0.274
637	0.274
638	0.275
638	0.275
638	0.276
639	0.276
639	0.277
640	0.278
640	0.279
641	0.281
641	0.282
642	0.283
642	0.283
642	0.284
643	0.284
643	0.285
644	0.285
644	0.286
645	0.287
645	0.288
646	0.289
646	0.291
646	0.293
647	0.295
647	0.297
648	0.299
648	0.301
649	0.303
649	0.305
650	0.307
650	0.309
650	0.31
651	0.312
651	0.314
652	0.315
652	0.317
653	0.319
653	0.324
653	0.312
654	0.242
654	0.199
655	0.204
655	0.206
656	0.207
656	0.208
657	0.209
657	0.21
657	0.211
658	0.208
658	0.209
659	0.268
659	0.342
660	0.347
660	0.349
661	0.351
661	0.354
661	0.357
662	0.359
662	0.362
663	0.365
663	0.367
664	0.369
664	0.37
665	0.373
665	0.375
665	0.377
666	0.379
666	0.381
667	0.384
667	0.386
668	0.388
668	0.391
669	0.393
669	0.396
669	0.398
670	0.4
670	0.403
671	0.404
671	0.405
672	0.406
672	0.408
672	0.409
673	0.41
673	0.411
674	0.413
674	0.414
675	0.415
675	0.417
676	0.419
676	0.421
676	0.422
677	0.424
677	0.426
678	0.427
678	0.428
679	0.429
679	0.43
680	0.431
680	0.432
680	0.433
681	0.434
681	0.435
682	0.436
682	0.438
683	0.439
683	0.441
684	0.442
684	0.443
684	0.444
685	0.445
685	0.446
686	0.447
686	0.447
687	0.448
687	0.448
687	0.449
688	0.448
688	0.448
689	0.448
689	0.448
690	0.447
690	0.447
691	0.446
691	0.446
691	0.446
692	0.445
692	0.446
693	0.446
693	0.446
694	0.446
694	0.447
695	0.448
695	0.448
695	0.447
696	0.446
696	0.445
697	0.444
697	0.443
698	0.441
698	0.439
698	0.437
699	0.436
699	0.433
700	0.432
700	0.431
701	0.43
701	0.429
702	0.429
702	0.428
702	0.428
703	0.427
703	0.427
704	0.426
704	0.425
705	0.424
705	0.423
705	0.421
706	0.42
706	0.418
707	0.417
707	0.415
708	0.413
708	0.412
709	0.411
709	0.409
709	0.408
710	0.407
710	0.406
711	0.404
711	0.403
712	0.402
712	0.4
713	0.399
713	0.397
713	0.395
714	0.393
714	0.391
715	0.39
715	0.388
716	0.386
716	0.384
716	0.382
717	0.38
717	0.379
718	0.377
718	0.376
719	0.375
719	0.374
720	0.373
720	0.371
720	0.37
721	0.368
721	0.367
722	0.365
722	0.363
723	0.362
723	0.36
723	0.358
724	0.355
724	0.353
725	0.351
725	0.35
726	0.348
726	0.347
727	0.345
727	0.344
727	0.343
728	0.342
728	0.341
729	0.34
729	0.339
730	0.338
730	0.337
730	0.337
731	0.336
731	0.335
732	0.335
732	0.333
733	0.332
733	0.332
734	0.331
734	0.33
734	0.329
735	0.328
735	0.327
736	0.326
736	0.325
737	0.324
737	0.323
737	0.321
738	0.32
738	0.318
739	0.317
739	0.315
740	0.315
740	0.314
741	0.314
741	0.313
741	0.313
742	0.312
742	0.311
743	0.311
743	0.31
744	0.309
744	0.308
744	0.306
745	0.304
745	0.302
746	0.301
746	0.299
747	0.297
747	0.295
748	0.294
748	0.293
748	0.291
749	0.29
749	0.289
750	0.287
750	0.286
751	0.285
751	0.284
751	0.283
752	0.282
752	0.281
753	0.281
753	0.28
754	0.28
754	0.279
754	0.278
755	0.277
755	0.276
756	0.275
756	0.274
757	0.273
757	0.272
758	0.27
758	0.269
758	0.267
759	0.266
759	0.264
760	0.262
760	0.261
761	0.261
761	0.26
761	0.259
762	0.259
762	0.259
763	0.258
763	0.257
764	0.256
764	0.256
764	0.256
765	0.255
765	0.255
766	0.255
766	0.254
767	0.254
767	0.253
768	0.252
768	0.251
768	0.251
769	0.25
769	0.249
770	0.248
770	0.247
771	0.246
771	0.245
771	0.244
772	0.244
772	0.243
773	0.243
773	0.242
774	0.242
774	0.242
775	0.242
775	0.242
775	0.241
776	0.24
776	0.24
777	0.239
777	0.239
778	0.238
778	0.237
778	0.236
779	0.235
779	0.233
780	0.232
780	0.231
781	0.23
781	0.23
781	0.229
782	0.229
782	0.228
783	0.229
783	0.229
784	0.228
784	0.228
784	0.228
785	0.228
785	0.227
786	0.226
786	0.226
787	0.225
787	0.224
788	0.223
788	0.222
788	0.221
789	0.22
789	0.22
790	0.219
790	0.218
791	0.218
791	0.217
791	0.216
792	0.216
792	0.214
793	0.213
793	0.212
794	0.212
794	0.212
794	0.211
795	0.212
795	0.211
796	0.211
796	0.211
797	0.21
797	0.211
797	0.21
798	0.21
798	0.209
799	0.208
799	0.208
800	0.207
800	0.206
801	0.205
801	0.204
801	0.203
802	0.202
802	0.202
803	0.201
803	0.2
804	0.2
804	0.199
804	0.198
805	0.197
805	0.197
806	0.196
806	0.196
807	0.197
807	0.197
807	0.197
808	0.198
808	0.198
809	0.198
809	0.199
810	0.199
810	0.199
810	0.199
811	0.199
811	0.198
812	0.198
812	0.196
813	0.196
813	0.195
813	0.195
814	0.195
814	0.194
815	0.194
815	0.194
816	0.194
816	0.193
817	0.193
817	0.193
817	0.192
818	0.192
818	0.191
819	0.19
819	0.189
820	0.189
820	0.188
820	0.188
821	0.188
821	0.187
822	0.187
822	0.186
823	0.186
823	0.185
823	0.185
824	0.184
824	0.184
825	0.183
825	0.182
826	0.181
826	0.18
826	0.18
827	0.179
827	0.178
828	0.177
828	0.177
829	0.177
829	0.176
829	0.176
830	0.176
830	0.176
831	0.177
831	0.178
832	0.178
832	0.178
832	0.178
833	0.179
833	0.179
834	0.179
834	0.178
835	0.178
835	0.177
835	0.177
836	0.176
836	0.175
837	0.174
837	0.174
838	0.173
838	0.172
839	0.172
839	0.171
839	0.171
840	0.17
840	0.17
841	0.17
841	0.169
842	0.169
842	0.169
842	0.169
843	0.169
843	0.169
844	0.169
844	0.169
845	0.169
845	0.169
845	0.169
846	0.169
846	0.169
847	0.17
847	0.17
848	0.17
848	0.17
848	0.17
849	0.17
849	0.17
850	0.169
850	0.169
851	0.168
851	0.168
851	0.168
852	0.167
852	0.167
853	0.167
853	0.166
854	0.166
854	0.166
854	0.166
855	0.166
855	0.165
856	0.165
856	0.165
857	0.164
857	0.164
857	0.163
858	0.163
858	0.162
859	0.161
859	0.16
860	0.158
860	0.157
860	0.155
861	0.154
861	0.153
862	0.151
862	0.15
863	0.149
863	0.149
863	0.148
864	0.149
864	0.149
865	0.15
865	0.151
866	0.151
866	0.152
866	0.153
867	0.153
867	0.154
868	0.154
868	0.154
869	0.153
869	0.153
869	0.152
870	0.151
870	0.15
871	0.149
871	0.149
872	0.148
872	0.147
872	0.147
873	0.146
873	0.146
874	0.145
874	0.145
875	0.145
875	0.145
875	0.145
876	0.145
876	0.145
877	0.145
877	0.144
878	0.144
878	0.143
878	0.142
879	0.141
879	0.14
880	0.139
880	0.138
881	0.138
881	0.137
881	0.137
882	0.136
882	0.136
883	0.136
883	0.137
884	0.137
884	0.137
884	0.137
885	0.137
885	0.137
886	0.137
886	0.137
887	0.137
887	0.137
887	0.137
888	0.136
888	0.136
889	0.136
889	0.136
890	0.136
890	0.136
890	0.136
891	0.135
891	0.135
892	0.135
892	0.134
893	0.134
893	0.134
893	0.134
894	0.134
894	0.135
895	0.135
895	0.135
895	0.136
896	0.136
896	0.137
897	0.138
897	0.138
898	0.138
898	0.139
898	0.138
899	0.138
899	0.138
900	0.137
900	0.137
901	0.137
901	0.137
901	0.137
902	0.137
902	0.137
903	0.138
903	0.138
904	0.138
904	0.137
904	0.137
905	0.137
905	0.137
906	0.136
906	0.136
907	0.135
907	0.134
907	0.134
908	0.133
908	0.133
909	0.133
909	0.133
910	0.133
910	0.133
910	0.133
911	0.133
911	0.133
912	0.133
912	0.133
913	0.133
913	0.134
913	0.134
914	0.134
914	0.134
915	0.134
915	0.133
916	0.132
916	0.132
916	0.131
917	0.131
917	0.13
918	0.129
918	0.128
918	0.128
919	0.127
919	0.127
920	0.127
920	0.127
921	0.127
921	0.126
921	0.126
922	0.126
922	0.125
923	0.125
923	0.125
924	0.124
924	0.123
924	0.122
925	0.121
925	0.12
926	0.118
926	0.117
927	0.116
927	0.114
927	0.113
928	0.112
928	0.112
929	0.111
929	0.111
930	0.112
930	0.112
930	0.113
931	0.114
931	0.115
932	0.116
932	0.117
933	0.119
933	0.12
933	0.121
934	0.122
934	0.122
935	0.123
935	0.123
935	0.123
936	0.123
936	0.123
937	0.123
937	0.123
938	0.123
938	0.123
938	0.123
939	0.123
939	0.123
940	0.123
940	0.123
941	0.123
941	0.123
941	0.122
942	0.122
942	0.121
943	0.12
943	0.119
944	0.119
944	0.118
944	0.118
945	0.118
945	0.118
946	0.119
946	0.118
946	0.119
947	0.119
947	0.119
948	0.118
948	0.118
949	0.118
949	0.117
949	0.117
950	0.117
950	0.116
951	0.116
951	0.115
952	0.115
952	0.115
952	0.115
953	0.115
953	0.115
954	0.115
954	0.115
955	0.115
955	0.115
955	0.116
956	0.116
956	0.116
957	0.116
957	0.116
957	0.116
958	0.116
958	0.115
959	0.114
959	0.114
960	0.113
960	0.112
960	0.111
961	0.11
961	0.11
962	0.109
962	0.109
963	0.109
963	0.11
963	0.11
964	0.111
964	0.111
965	0.112
965	0.113
966	0.114
966	0.115
966	0.116
967	0.116
967	0.116
968	0.117
968	0.117
968	0.116
969	0.116
969	0.115
970	0.115
970	0.114
971	0.113
971	0.112
971	0.112
972	0.112
972	0.111
973	0.111
973	0.111
974	0.112
974	0.112
974	0.112
975	0.113
975	0.113
976	0.114
976	0.114
976	0.114
977	0.114
977	0.114
978	0.113
978	0.113
979	0.112
979	0.111
979	0.111
980	0.11
980	0.109
981	0.109
981	0.108
982	0.108
982	0.107
982	0.107
983	0.107
983	0.107
984	0.106
984	0.106
984	0.106
985	0.105
985	0.104
986	0.103
986	0.103
987	0.101
987	0.101
987	0.1
988	0.099
988	0.098
989	0.098
989	0.097
990	0.097
990	0.097
990	0.097
991	0.098
991	0.098
992	0.099
992	0.1
992	0.1
993	0.101
993	0.101
994	0.102
994	0.102
995	0.102
995	0.102
995	0.102
996	0.102
996	0.102
997	0.102
997	0.102
997	0.102
998	0.102
998	0.102
999	0.102
999	0.102
1000	0.103
1000	0.103
1000	0.103
1001	0.104
1001	0.104
1002	0.104
1002	0.104
1003	0.104
1003	0.104
1003	0.104
1004	0.103
1004	0.103
1005	0.102
1005	0.101
1005	0.101
1006	0.1
1006	0.099
1007	0.098
1007	0.098
1008	0.097
1008	0.096
1008	0.095
1009	0.094
1009	0.094
1010	0.093
1010	0.093
1010	0.092
1011	0.092
1011	0.092
1012	0.092
1012	0.092
1013	0.092
1013	0.092
1013	0.092
1014	0.091
1014	0.091
1015	0.091
1015	0.09
1016	0.09
1016	0.089
1016	0.089
1017	0.088
1017	0.087
1018	0.086
1018	0.086
1018	0.085
1019	0.085
1019	0.084
1020	0.084
1020	0.084
1021	0.083
1021	0.083
1021	0.084
1022	0.084
1022	0.084
1023	0.083
1023	0.083
1023	0.083
1024	0.083
1024	0.083
1025	0.082
1025	0.082
1026	0.081
1026	0.081
1026	0.08
1027	0.079
1027	0.079
1028	0.078
1028	0.078
1028	0.077
1029	0.077
1029	0.076
1030	0.076
1030	0.076
1031	0.075
1031	0.075
1031	0.075
1032	0.075
1032	0.075
1033	0.074
1033	0.074
1033	0.074
1034	0.074
1034	0.074
1035	0.074
1035	0.073
1036	0.073
1036	0.074
1036	0.074
1037	0.074
1037	0.074
1038	0.074
1038	0.075
1039	0.075
1039	0.076
1039	0.076
1040	0.077
1040	0.077
1041	0.077
1041	0.077
1041	0.077
1042	0.077
1042	0.077
1043	0.077
1043	0.077
1044	0.077
1044	0.076
1044	0.076
1045	0.075
1045	0.075
1046	0.074
1046	0.074
1046	0.074
1047	0.073
1047	0.073
1048	0.072
1048	0.072
1049	0.071
1049	0.07
1049	0.069
1050	0.069
1050	0.068
1051	0.068
1051	0.067
1051	0.067
1052	0.066
1052	0.066
1053	0.065
1053	0.065
1053	0.065
1054	0.064
1054	0.064
1055	0.064
1055	0.063
1056	0.063
1056	0.062
1056	0.061
1057	0.061
1057	0.06
1058	0.06
1058	0.059
1058	0.059
1059	0.059
1059	0.059
1060	0.059
1060	0.058
1061	0.059
1061	0.059
1061	0.06
1062	0.06
1062	0.06
1063	0.061
1063	0.061
1063	0.06
1064	0.061
1064	0.061
1065	0.061
1065	0.061
1066	0.061
1066	0.061
1066	0.061
1067	0.061
1067	0.061
1068	0.061
1068	0.06
1068	0.06
1069	0.06
1069	0.06
1070	0.059
1070	0.059
1071	0.059
1071	0.058
1071	0.058
1072	0.057
1072	0.057
1073	0.057
1073	0.056
1073	0.055
1074	0.054
1074	0.054
1075	0.053
1075	0.052
1076	0.051
1076	0.05
1076	0.049
1077	0.049
1077	0.048
1078	0.047
1078	0.047
1078	0.047
1079	0.046
1079	0.047
1080	0.046
1080	0.047
1080	0.047
1081	0.047
1081	0.047
1082	0.047
1082	0.047
1083	0.047
1083	0.046
1083	0.047
1084	0.046
1084	0.047
1085	0.047
1085	0.047
1085	0.047
1086	0.047
1086	0.047
1087	0.048
1087	0.048
1088	0.048
1088	0.049
1088	0.048
1089	0.048
1089	0.048
1090	0.048
1090	0.047
1090	0.047
1091	0.047
1091	0.046
1092	0.046
1092	0.046
1092	0.045
1093	0.045
1093	0.045
1094	0.044
1094	0.043
1095	0.042
1095	0.041
1095	0.041
1096	0.04
1096	0.039
1097	0.038
1097	0.037
1097	0.036
1098	0.034
1098	0.034
1099	0.033
1099	0.032
1100	0.031
1100	0.031
1100	0.03
1101	0.028
1101	0.027
1102	0.025
1102	0.024
1102	0.024
1103	0.023
1103	0.021
1104	0.02
1104	0.017
1104	0.016
1105	0.015
1105	0.013
1106	0.011
1106	0.01
1107	0.007
1107	0.004
1107	0.002
1108	0.003
1108	0.002
1109	0.002
1109	-0.001
1109	-0.004
1110	-0.004
1110	-0.006
1111	-0.008
1111	0
