Data from aggregation-dark_Absorbance__851__00851.txt Node

Date: Tue Jan 16 11:21:24 CET 2024
User: Marek
Spectrometer: MAYP115816
Trigger mode: 0
Integration Time (sec): 2.000000E-1
Scans to average: 10
Electric dark correction enabled: true
Nonlinearity correction enabled: true
Boxcar width: 5
XAxis mode: Wavelengths
Number of Pixels in Spectrum: 2068
>>>>>Begin Spectral Data<<<<<
199	-0.423
199	-0.354
200	-0.29
200	-0.228
201	-0.196
201	-0.175
202	-0.149
202	-0.143
203	-0.139
203	-0.131
204	-0.119
204	-0.105
205	-0.092
205	-0.087
205	-0.089
206	-0.088
206	-0.091
207	-0.091
207	-0.093
208	-0.093
208	-0.096
209	-0.092
209	-0.097
210	-0.1
210	-0.1
211	-0.1
211	-0.102
212	-0.106
212	-0.106
213	-0.107
213	-0.109
213	-0.112
214	-0.113
214	-0.111
215	-0.111
215	-0.115
216	-0.115
216	-0.118
217	-0.113
217	-0.114
218	-0.112
218	-0.108
219	-0.103
219	-0.104
220	-0.105
220	-0.107
221	-0.103
221	-0.105
221	-0.1
222	-0.098
222	-0.095
223	-0.092
223	-0.092
224	-0.092
224	-0.084
225	-0.077
225	-0.072
226	-0.069
226	-0.063
227	-0.054
227	-0.051
228	-0.041
228	-0.032
229	-0.02
229	-0.005
229	0.007
230	0.021
230	0.04
231	0.059
231	0.079
232	0.094
232	0.113
233	0.13
233	0.149
234	0.164
234	0.179
235	0.192
235	0.204
236	0.215
236	0.226
236	0.236
237	0.245
237	0.253
238	0.259
238	0.265
239	0.272
239	0.277
240	0.282
240	0.286
241	0.29
241	0.293
242	0.296
242	0.299
243	0.302
243	0.305
243	0.307
244	0.309
244	0.311
245	0.313
245	0.316
246	0.318
246	0.32
247	0.321
247	0.323
248	0.325
248	0.327
249	0.329
249	0.33
250	0.332
250	0.334
250	0.335
251	0.336
251	0.337
252	0.339
252	0.34
253	0.341
253	0.342
254	0.343
254	0.344
255	0.345
255	0.346
256	0.346
256	0.347
257	0.347
257	0.348
258	0.348
258	0.348
258	0.349
259	0.349
259	0.349
260	0.349
260	0.348
261	0.348
261	0.348
262	0.347
262	0.347
263	0.346
263	0.345
264	0.344
264	0.344
265	0.343
265	0.342
265	0.341
266	0.34
266	0.338
267	0.337
267	0.336
268	0.334
268	0.333
269	0.331
269	0.33
270	0.328
270	0.326
271	0.325
271	0.323
272	0.321
272	0.32
272	0.318
273	0.316
273	0.314
274	0.313
274	0.311
275	0.309
275	0.308
276	0.306
276	0.304
277	0.302
277	0.3
278	0.298
278	0.297
278	0.295
279	0.293
279	0.291
280	0.289
280	0.287
281	0.285
281	0.283
282	0.281
282	0.28
283	0.278
283	0.276
284	0.274
284	0.273
285	0.271
285	0.27
285	0.268
286	0.267
286	0.265
287	0.264
287	0.263
288	0.261
288	0.26
289	0.259
289	0.258
290	0.257
290	0.256
291	0.255
291	0.254
292	0.253
292	0.252
292	0.251
293	0.25
293	0.249
294	0.248
294	0.248
295	0.247
295	0.246
296	0.246
296	0.245
297	0.245
297	0.244
298	0.244
298	0.243
298	0.243
299	0.243
299	0.242
300	0.242
300	0.242
301	0.241
301	0.241
302	0.241
302	0.241
303	0.241
303	0.24
304	0.24
304	0.24
305	0.24
305	0.239
305	0.239
306	0.239
306	0.238
307	0.238
307	0.238
308	0.237
308	0.237
309	0.237
309	0.236
310	0.236
310	0.236
311	0.235
311	0.235
311	0.235
312	0.235
312	0.235
313	0.235
313	0.234
314	0.234
314	0.234
315	0.233
315	0.233
316	0.233
316	0.232
317	0.232
317	0.232
318	0.231
318	0.231
318	0.231
319	0.23
319	0.23
320	0.23
320	0.229
321	0.229
321	0.228
322	0.228
322	0.228
323	0.228
323	0.227
324	0.227
324	0.227
324	0.226
325	0.226
325	0.226
326	0.226
326	0.225
327	0.225
327	0.224
328	0.224
328	0.224
329	0.223
329	0.223
330	0.223
330	0.223
330	0.222
331	0.222
331	0.221
332	0.221
332	0.22
333	0.22
333	0.22
334	0.219
334	0.219
335	0.219
335	0.218
336	0.218
336	0.218
336	0.217
337	0.217
337	0.217
338	0.216
338	0.216
339	0.216
339	0.216
340	0.215
340	0.215
341	0.215
341	0.214
342	0.214
342	0.214
342	0.214
343	0.213
343	0.213
344	0.213
344	0.212
345	0.212
345	0.212
346	0.212
346	0.211
347	0.211
347	0.211
348	0.211
348	0.211
348	0.21
349	0.21
349	0.21
350	0.21
350	0.21
351	0.21
351	0.21
352	0.21
352	0.209
353	0.209
353	0.209
354	0.209
354	0.208
354	0.208
355	0.208
355	0.208
356	0.208
356	0.207
357	0.207
357	0.207
358	0.207
358	0.207
359	0.207
359	0.207
360	0.207
360	0.207
360	0.207
361	0.207
361	0.207
362	0.207
362	0.207
363	0.208
363	0.208
364	0.208
364	0.208
365	0.208
365	0.208
366	0.208
366	0.208
366	0.208
367	0.208
367	0.208
368	0.208
368	0.208
369	0.208
369	0.208
370	0.208
370	0.208
371	0.208
371	0.208
372	0.208
372	0.208
372	0.208
373	0.208
373	0.208
374	0.208
374	0.208
375	0.208
375	0.208
376	0.208
376	0.208
377	0.208
377	0.208
378	0.208
378	0.208
378	0.208
379	0.208
379	0.208
380	0.208
380	0.208
381	0.208
381	0.208
382	0.208
382	0.208
383	0.208
383	0.208
383	0.208
384	0.208
384	0.208
385	0.208
385	0.208
386	0.208
386	0.208
387	0.208
387	0.209
388	0.209
388	0.209
389	0.208
389	0.208
389	0.208
390	0.208
390	0.208
391	0.208
391	0.208
392	0.208
392	0.208
393	0.208
393	0.208
394	0.208
394	0.208
394	0.208
395	0.209
395	0.208
396	0.208
396	0.208
397	0.208
397	0.209
398	0.209
398	0.209
399	0.209
399	0.209
400	0.209
400	0.209
400	0.208
401	0.208
401	0.208
402	0.208
402	0.208
403	0.208
403	0.208
404	0.207
404	0.207
405	0.208
405	0.208
405	0.208
406	0.208
406	0.208
407	0.208
407	0.208
408	0.208
408	0.208
409	0.208
409	0.209
410	0.209
410	0.209
411	0.209
411	0.209
411	0.209
412	0.209
412	0.209
413	0.208
413	0.208
414	0.208
414	0.208
415	0.208
415	0.208
416	0.207
416	0.207
416	0.207
417	0.207
417	0.207
418	0.207
418	0.207
419	0.208
419	0.208
420	0.208
420	0.208
421	0.208
421	0.208
421	0.208
422	0.209
422	0.209
423	0.209
423	0.208
424	0.208
424	0.208
425	0.208
425	0.208
426	0.208
426	0.208
427	0.208
427	0.208
427	0.208
428	0.209
428	0.209
429	0.209
429	0.209
430	0.209
430	0.209
431	0.209
431	0.209
432	0.209
432	0.209
432	0.208
433	0.208
433	0.208
434	0.208
434	0.208
435	0.208
435	0.208
436	0.208
436	0.208
437	0.208
437	0.208
437	0.208
438	0.208
438	0.208
439	0.207
439	0.207
440	0.207
440	0.207
441	0.207
441	0.207
442	0.208
442	0.208
442	0.208
443	0.208
443	0.209
444	0.209
444	0.209
445	0.209
445	0.209
446	0.209
446	0.209
447	0.209
447	0.209
447	0.209
448	0.209
448	0.208
449	0.208
449	0.208
450	0.208
450	0.208
451	0.208
451	0.208
452	0.208
452	0.208
452	0.208
453	0.208
453	0.208
454	0.208
454	0.207
455	0.207
455	0.207
456	0.208
456	0.208
457	0.208
457	0.207
458	0.207
458	0.207
458	0.208
459	0.208
459	0.208
460	0.208
460	0.208
461	0.209
461	0.209
462	0.209
462	0.209
463	0.209
463	0.21
463	0.21
464	0.209
464	0.209
465	0.209
465	0.209
466	0.21
466	0.21
467	0.21
467	0.21
467	0.21
468	0.21
468	0.21
469	0.21
469	0.21
470	0.211
470	0.211
471	0.211
471	0.211
472	0.211
472	0.211
472	0.211
473	0.212
473	0.212
474	0.212
474	0.212
475	0.212
475	0.212
476	0.213
476	0.213
477	0.213
477	0.213
477	0.213
478	0.213
478	0.214
479	0.214
479	0.214
480	0.214
480	0.214
481	0.214
481	0.215
482	0.215
482	0.215
482	0.216
483	0.216
483	0.217
484	0.217
484	0.217
485	0.217
485	0.218
486	0.218
486	0.219
487	0.219
487	0.22
487	0.22
488	0.221
488	0.222
489	0.222
489	0.224
490	0.224
490	0.225
491	0.226
491	0.226
492	0.227
492	0.227
492	0.228
493	0.228
493	0.229
494	0.23
494	0.231
495	0.232
495	0.232
496	0.233
496	0.234
496	0.235
497	0.236
497	0.237
498	0.237
498	0.238
499	0.239
499	0.24
500	0.241
500	0.242
501	0.243
501	0.243
501	0.244
502	0.245
502	0.246
503	0.247
503	0.248
504	0.248
504	0.249
505	0.25
505	0.251
506	0.252
506	0.253
506	0.254
507	0.255
507	0.257
508	0.258
508	0.259
509	0.26
509	0.26
510	0.261
510	0.262
511	0.263
511	0.264
511	0.264
512	0.265
512	0.266
513	0.266
513	0.267
514	0.268
514	0.268
515	0.269
515	0.27
515	0.27
516	0.271
516	0.271
517	0.272
517	0.272
518	0.273
518	0.273
519	0.273
519	0.274
520	0.274
520	0.275
520	0.275
521	0.275
521	0.276
522	0.276
522	0.277
523	0.278
523	0.278
524	0.279
524	0.279
524	0.28
525	0.28
525	0.28
526	0.28
526	0.28
527	0.28
527	0.28
528	0.28
528	0.28
529	0.28
529	0.281
529	0.281
530	0.281
530	0.281
531	0.282
531	0.282
532	0.282
532	0.282
533	0.282
533	0.282
533	0.282
534	0.282
534	0.282
535	0.282
535	0.283
536	0.283
536	0.283
537	0.283
537	0.283
538	0.283
538	0.283
538	0.283
539	0.283
539	0.283
540	0.283
540	0.283
541	0.282
541	0.283
542	0.283
542	0.283
542	0.283
543	0.283
543	0.283
544	0.283
544	0.283
545	0.283
545	0.283
546	0.283
546	0.282
547	0.282
547	0.281
547	0.281
548	0.281
548	0.28
549	0.28
549	0.28
550	0.28
550	0.28
551	0.28
551	0.28
551	0.281
552	0.281
552	0.281
553	0.281
553	0.282
554	0.282
554	0.282
555	0.281
555	0.281
556	0.281
556	0.281
556	0.28
557	0.28
557	0.28
558	0.28
558	0.28
559	0.28
559	0.281
560	0.281
560	0.281
560	0.281
561	0.281
561	0.282
562	0.281
562	0.28
563	0.28
563	0.279
564	0.278
564	0.278
564	0.277
565	0.277
565	0.276
566	0.276
566	0.275
567	0.275
567	0.275
568	0.275
568	0.275
568	0.275
569	0.275
569	0.275
570	0.275
570	0.274
571	0.274
571	0.274
572	0.274
572	0.273
573	0.273
573	0.272
573	0.271
574	0.271
574	0.272
575	0.272
575	0.272
576	0.272
576	0.271
577	0.271
577	0.271
577	0.271
578	0.271
578	0.272
579	0.272
579	0.273
580	0.272
580	0.271
581	0.27
581	0.27
581	0.271
582	0.271
582	0.271
583	0.271
583	0.271
584	0.269
584	0.268
585	0.268
585	0.269
585	0.269
586	0.269
586	0.268
587	0.268
587	0.267
588	0.267
588	0.267
589	0.267
589	0.267
590	0.267
590	0.267
590	0.268
591	0.268
591	0.268
592	0.267
592	0.266
593	0.266
593	0.266
594	0.265
594	0.264
594	0.264
595	0.264
595	0.264
596	0.264
596	0.266
597	0.267
597	0.267
598	0.268
598	0.268
598	0.269
599	0.269
599	0.268
600	0.268
600	0.267
601	0.267
601	0.266
602	0.265
602	0.265
602	0.264
603	0.264
603	0.264
604	0.264
604	0.264
605	0.265
605	0.265
606	0.264
606	0.264
606	0.264
607	0.263
607	0.263
608	0.263
608	0.262
609	0.261
609	0.261
610	0.26
610	0.259
610	0.26
611	0.26
611	0.26
612	0.26
612	0.26
613	0.26
613	0.26
614	0.26
614	0.259
614	0.259
615	0.258
615	0.258
616	0.258
616	0.257
617	0.257
617	0.257
618	0.256
618	0.257
618	0.257
619	0.258
619	0.258
620	0.259
620	0.259
621	0.26
621	0.26
622	0.26
622	0.26
622	0.26
623	0.259
623	0.26
624	0.26
624	0.26
625	0.26
625	0.26
626	0.26
626	0.26
626	0.261
627	0.261
627	0.261
628	0.261
628	0.262
629	0.262
629	0.262
630	0.262
630	0.262
630	0.264
631	0.264
631	0.265
632	0.266
632	0.267
633	0.267
633	0.268
634	0.269
634	0.27
634	0.271
635	0.271
635	0.271
636	0.272
636	0.272
637	0.272
637	0.272
638	0.273
638	0.274
638	0.274
639	0.275
639	0.275
640	0.276
640	0.278
641	0.278
641	0.279
642	0.28
642	0.281
642	0.281
643	0.282
643	0.282
644	0.283
644	0.284
645	0.285
645	0.286
646	0.287
646	0.289
646	0.29
647	0.293
647	0.294
648	0.296
648	0.298
649	0.3
649	0.302
650	0.304
650	0.306
650	0.307
651	0.308
651	0.31
652	0.311
652	0.313
653	0.315
653	0.32
653	0.31
654	0.241
654	0.195
655	0.2
655	0.202
656	0.203
656	0.204
657	0.205
657	0.206
657	0.207
658	0.204
658	0.203
659	0.26
659	0.335
660	0.341
660	0.343
661	0.345
661	0.348
661	0.35
662	0.353
662	0.356
663	0.358
663	0.36
664	0.362
664	0.364
665	0.366
665	0.368
665	0.369
666	0.371
666	0.373
667	0.376
667	0.378
668	0.38
668	0.382
669	0.384
669	0.387
669	0.389
670	0.391
670	0.393
671	0.394
671	0.396
672	0.397
672	0.398
672	0.399
673	0.4
673	0.401
674	0.403
674	0.404
675	0.406
675	0.408
676	0.41
676	0.412
676	0.413
677	0.415
677	0.416
678	0.417
678	0.418
679	0.419
679	0.42
680	0.421
680	0.421
680	0.421
681	0.422
681	0.424
682	0.424
682	0.426
683	0.427
683	0.429
684	0.43
684	0.431
684	0.432
685	0.433
685	0.434
686	0.434
686	0.435
687	0.435
687	0.436
687	0.436
688	0.435
688	0.436
689	0.436
689	0.436
690	0.435
690	0.435
691	0.435
691	0.435
691	0.434
692	0.434
692	0.435
693	0.435
693	0.436
694	0.436
694	0.436
695	0.437
695	0.438
695	0.437
696	0.436
696	0.435
697	0.434
697	0.432
698	0.431
698	0.429
698	0.427
699	0.426
699	0.423
700	0.421
700	0.421
701	0.42
701	0.419
702	0.419
702	0.418
702	0.418
703	0.418
703	0.417
704	0.416
704	0.416
705	0.415
705	0.414
705	0.412
706	0.411
706	0.41
707	0.408
707	0.406
708	0.404
708	0.403
709	0.402
709	0.401
709	0.399
710	0.398
710	0.397
711	0.396
711	0.395
712	0.394
712	0.393
713	0.391
713	0.39
713	0.388
714	0.386
714	0.385
715	0.383
715	0.381
716	0.379
716	0.377
716	0.375
717	0.373
717	0.372
718	0.37
718	0.369
719	0.368
719	0.367
720	0.366
720	0.365
720	0.364
721	0.363
721	0.362
722	0.36
722	0.358
723	0.357
723	0.355
723	0.353
724	0.351
724	0.348
725	0.346
725	0.345
726	0.344
726	0.342
727	0.341
727	0.34
727	0.339
728	0.338
728	0.337
729	0.337
729	0.336
730	0.336
730	0.335
730	0.334
731	0.334
731	0.334
732	0.333
732	0.332
733	0.331
733	0.33
734	0.329
734	0.328
734	0.328
735	0.327
735	0.326
736	0.325
736	0.323
737	0.322
737	0.321
737	0.32
738	0.318
738	0.316
739	0.315
739	0.314
740	0.313
740	0.313
741	0.312
741	0.312
741	0.311
742	0.31
742	0.31
743	0.309
743	0.308
744	0.308
744	0.307
744	0.305
745	0.304
745	0.302
746	0.301
746	0.299
747	0.298
747	0.297
748	0.296
748	0.294
748	0.293
749	0.292
749	0.291
750	0.29
750	0.289
751	0.288
751	0.287
751	0.286
752	0.285
752	0.284
753	0.284
753	0.283
754	0.283
754	0.282
754	0.282
755	0.281
755	0.28
756	0.279
756	0.277
757	0.276
757	0.276
758	0.275
758	0.273
758	0.272
759	0.271
759	0.269
760	0.268
760	0.267
761	0.267
761	0.267
761	0.266
762	0.266
762	0.266
763	0.265
763	0.264
764	0.263
764	0.263
764	0.263
765	0.262
765	0.262
766	0.261
766	0.261
767	0.26
767	0.259
768	0.258
768	0.258
768	0.257
769	0.257
769	0.256
770	0.255
770	0.254
771	0.253
771	0.253
771	0.252
772	0.252
772	0.252
773	0.251
773	0.251
774	0.251
774	0.251
775	0.251
775	0.25
775	0.25
776	0.249
776	0.249
777	0.248
777	0.247
778	0.246
778	0.246
778	0.245
779	0.244
779	0.243
780	0.242
780	0.241
781	0.24
781	0.24
781	0.239
782	0.239
782	0.238
783	0.239
783	0.238
784	0.238
784	0.238
784	0.238
785	0.237
785	0.237
786	0.236
786	0.236
787	0.236
787	0.235
788	0.234
788	0.233
788	0.232
789	0.231
789	0.231
790	0.23
790	0.229
791	0.228
791	0.227
791	0.226
792	0.226
792	0.224
793	0.224
793	0.223
794	0.223
794	0.223
794	0.223
795	0.223
795	0.223
796	0.223
796	0.222
797	0.222
797	0.223
797	0.222
798	0.222
798	0.221
799	0.22
799	0.219
800	0.218
800	0.218
801	0.217
801	0.217
801	0.215
802	0.214
802	0.214
803	0.213
803	0.212
804	0.212
804	0.211
804	0.21
805	0.209
805	0.209
806	0.208
806	0.208
807	0.208
807	0.208
807	0.209
808	0.209
808	0.21
809	0.21
809	0.211
810	0.211
810	0.211
810	0.211
811	0.21
811	0.21
812	0.21
812	0.209
813	0.208
813	0.207
813	0.207
814	0.207
814	0.206
815	0.206
815	0.206
816	0.205
816	0.205
817	0.204
817	0.204
817	0.204
818	0.203
818	0.203
819	0.202
819	0.201
820	0.2
820	0.2
820	0.199
821	0.199
821	0.199
822	0.198
822	0.198
823	0.197
823	0.196
823	0.196
824	0.196
824	0.195
825	0.195
825	0.194
826	0.193
826	0.192
826	0.191
827	0.191
827	0.19
828	0.189
828	0.189
829	0.189
829	0.188
829	0.188
830	0.188
830	0.189
831	0.19
831	0.191
832	0.191
832	0.192
832	0.192
833	0.192
833	0.192
834	0.192
834	0.192
835	0.191
835	0.19
835	0.189
836	0.189
836	0.188
837	0.187
837	0.187
838	0.186
838	0.186
839	0.186
839	0.185
839	0.185
840	0.185
840	0.184
841	0.184
841	0.184
842	0.184
842	0.183
842	0.183
843	0.183
843	0.183
844	0.182
844	0.182
845	0.182
845	0.182
845	0.182
846	0.183
846	0.183
847	0.183
847	0.183
848	0.183
848	0.183
848	0.183
849	0.183
849	0.183
850	0.182
850	0.182
851	0.181
851	0.181
851	0.18
852	0.18
852	0.179
853	0.179
853	0.179
854	0.179
854	0.179
854	0.179
855	0.179
855	0.178
856	0.178
856	0.178
857	0.177
857	0.176
857	0.176
858	0.175
858	0.174
859	0.172
859	0.171
860	0.17
860	0.169
860	0.167
861	0.166
861	0.164
862	0.163
862	0.162
863	0.161
863	0.16
863	0.16
864	0.159
864	0.16
865	0.16
865	0.161
866	0.162
866	0.162
866	0.163
867	0.164
867	0.164
868	0.164
868	0.164
869	0.165
869	0.164
869	0.164
870	0.163
870	0.163
871	0.162
871	0.162
872	0.161
872	0.16
872	0.16
873	0.159
873	0.159
874	0.159
874	0.159
875	0.159
875	0.159
875	0.159
876	0.159
876	0.159
877	0.159
877	0.158
878	0.158
878	0.157
878	0.156
879	0.154
879	0.153
880	0.152
880	0.151
881	0.15
881	0.149
881	0.149
882	0.148
882	0.148
883	0.149
883	0.149
884	0.149
884	0.149
884	0.15
885	0.15
885	0.15
886	0.151
886	0.151
887	0.151
887	0.151
887	0.151
888	0.15
888	0.15
889	0.15
889	0.15
890	0.15
890	0.149
890	0.149
891	0.148
891	0.148
892	0.148
892	0.147
893	0.147
893	0.147
893	0.147
894	0.148
894	0.148
895	0.148
895	0.148
895	0.149
896	0.149
896	0.149
897	0.15
897	0.15
898	0.15
898	0.15
898	0.15
899	0.15
899	0.15
900	0.15
900	0.149
901	0.149
901	0.149
901	0.149
902	0.15
902	0.15
903	0.15
903	0.15
904	0.15
904	0.15
904	0.149
905	0.149
905	0.149
906	0.148
906	0.148
907	0.147
907	0.146
907	0.146
908	0.145
908	0.145
909	0.145
909	0.145
910	0.145
910	0.145
910	0.145
911	0.145
911	0.146
912	0.146
912	0.146
913	0.146
913	0.147
913	0.147
914	0.147
914	0.147
915	0.146
915	0.146
916	0.145
916	0.144
916	0.143
917	0.142
917	0.141
918	0.14
918	0.139
918	0.139
919	0.138
919	0.138
920	0.138
920	0.138
921	0.138
921	0.138
921	0.137
922	0.138
922	0.137
923	0.137
923	0.137
924	0.137
924	0.136
924	0.135
925	0.134
925	0.133
926	0.131
926	0.13
927	0.128
927	0.127
927	0.126
928	0.124
928	0.124
929	0.123
929	0.123
930	0.123
930	0.123
930	0.124
931	0.125
931	0.126
932	0.127
932	0.128
933	0.13
933	0.131
933	0.132
934	0.133
934	0.133
935	0.134
935	0.134
935	0.134
936	0.134
936	0.134
937	0.134
937	0.134
938	0.134
938	0.133
938	0.133
939	0.133
939	0.133
940	0.133
940	0.133
941	0.133
941	0.133
941	0.133
942	0.132
942	0.132
943	0.131
943	0.13
944	0.129
944	0.129
944	0.128
945	0.129
945	0.129
946	0.129
946	0.129
946	0.129
947	0.129
947	0.129
948	0.13
948	0.13
949	0.129
949	0.129
949	0.129
950	0.128
950	0.128
951	0.128
951	0.127
952	0.127
952	0.126
952	0.126
953	0.126
953	0.126
954	0.126
954	0.126
955	0.126
955	0.127
955	0.127
956	0.128
956	0.128
957	0.128
957	0.128
957	0.128
958	0.128
958	0.127
959	0.127
959	0.126
960	0.125
960	0.124
960	0.123
961	0.122
961	0.122
962	0.121
962	0.121
963	0.121
963	0.122
963	0.122
964	0.123
964	0.124
965	0.124
965	0.125
966	0.126
966	0.127
966	0.128
967	0.128
967	0.128
968	0.128
968	0.128
968	0.127
969	0.127
969	0.126
970	0.125
970	0.124
971	0.123
971	0.122
971	0.121
972	0.121
972	0.121
973	0.121
973	0.121
974	0.122
974	0.122
974	0.123
975	0.123
975	0.124
976	0.124
976	0.125
976	0.125
977	0.124
977	0.124
978	0.123
978	0.122
979	0.122
979	0.121
979	0.12
980	0.119
980	0.119
981	0.118
981	0.117
982	0.117
982	0.117
982	0.117
983	0.117
983	0.117
984	0.116
984	0.116
984	0.115
985	0.115
985	0.114
986	0.113
986	0.112
987	0.111
987	0.11
987	0.109
988	0.108
988	0.107
989	0.107
989	0.106
990	0.106
990	0.106
990	0.106
991	0.106
991	0.107
992	0.107
992	0.108
992	0.109
993	0.109
993	0.11
994	0.11
994	0.111
995	0.111
995	0.111
995	0.111
996	0.111
996	0.11
997	0.11
997	0.11
997	0.11
998	0.11
998	0.11
999	0.111
999	0.111
1000	0.111
1000	0.111
1000	0.112
1001	0.112
1001	0.113
1002	0.113
1002	0.113
1003	0.113
1003	0.113
1003	0.113
1004	0.113
1004	0.112
1005	0.112
1005	0.111
1005	0.11
1006	0.109
1006	0.109
1007	0.108
1007	0.107
1008	0.106
1008	0.105
1008	0.104
1009	0.103
1009	0.103
1010	0.102
1010	0.102
1010	0.101
1011	0.101
1011	0.101
1012	0.101
1012	0.101
1013	0.101
1013	0.101
1013	0.101
1014	0.1
1014	0.1
1015	0.099
1015	0.099
1016	0.098
1016	0.098
1016	0.097
1017	0.096
1017	0.095
1018	0.095
1018	0.094
1018	0.093
1019	0.093
1019	0.092
1020	0.092
1020	0.092
1021	0.092
1021	0.091
1021	0.091
1022	0.091
1022	0.091
1023	0.091
1023	0.091
1023	0.091
1024	0.09
1024	0.09
1025	0.089
1025	0.088
1026	0.088
1026	0.087
1026	0.086
1027	0.086
1027	0.085
1028	0.085
1028	0.084
1028	0.084
1029	0.083
1029	0.083
1030	0.082
1030	0.082
1031	0.082
1031	0.082
1031	0.082
1032	0.082
1032	0.082
1033	0.082
1033	0.082
1033	0.082
1034	0.082
1034	0.082
1035	0.081
1035	0.081
1036	0.081
1036	0.081
1036	0.082
1037	0.082
1037	0.082
1038	0.082
1038	0.083
1039	0.083
1039	0.084
1039	0.084
1040	0.085
1040	0.085
1041	0.085
1041	0.085
1041	0.085
1042	0.084
1042	0.084
1043	0.084
1043	0.083
1044	0.083
1044	0.082
1044	0.082
1045	0.081
1045	0.08
1046	0.079
1046	0.079
1046	0.078
1047	0.077
1047	0.077
1048	0.076
1048	0.076
1049	0.075
1049	0.074
1049	0.073
1050	0.072
1050	0.072
1051	0.071
1051	0.071
1051	0.07
1052	0.07
1052	0.069
1053	0.068
1053	0.068
1053	0.067
1054	0.066
1054	0.066
1055	0.066
1055	0.065
1056	0.064
1056	0.064
1056	0.063
1057	0.062
1057	0.062
1058	0.061
1058	0.061
1058	0.061
1059	0.061
1059	0.061
1060	0.061
1060	0.061
1061	0.061
1061	0.062
1061	0.062
1062	0.063
1062	0.063
1063	0.063
1063	0.063
1063	0.063
1064	0.064
1064	0.063
1065	0.064
1065	0.063
1066	0.063
1066	0.063
1066	0.063
1067	0.063
1067	0.063
1068	0.063
1068	0.063
1068	0.062
1069	0.062
1069	0.061
1070	0.061
1070	0.061
1071	0.061
1071	0.061
1071	0.06
1072	0.059
1072	0.059
1073	0.059
1073	0.058
1073	0.058
1074	0.058
1074	0.057
1075	0.056
1075	0.055
1076	0.054
1076	0.053
1076	0.052
1077	0.051
1077	0.05
1078	0.05
1078	0.049
1078	0.049
1079	0.048
1079	0.049
1080	0.049
1080	0.049
1080	0.049
1081	0.049
1081	0.049
1082	0.049
1082	0.049
1083	0.049
1083	0.049
1083	0.049
1084	0.049
1084	0.049
1085	0.049
1085	0.049
1085	0.049
1086	0.048
1086	0.048
1087	0.049
1087	0.049
1088	0.049
1088	0.048
1088	0.048
1089	0.047
1089	0.047
1090	0.047
1090	0.047
1090	0.047
1091	0.046
1091	0.046
1092	0.045
1092	0.045
1092	0.044
1093	0.043
1093	0.043
1094	0.042
1094	0.04
1095	0.038
1095	0.037
1095	0.036
1096	0.035
1096	0.033
1097	0.032
1097	0.031
1097	0.03
1098	0.028
1098	0.027
1099	0.026
1099	0.025
1100	0.024
1100	0.022
1100	0.02
1101	0.019
1101	0.017
1102	0.016
1102	0.014
1102	0.013
1103	0.011
1103	0.009
1104	0.008
1104	0.006
1104	0.004
1105	0.004
1105	0.003
1106	0
1106	-0.002
1107	-0.006
1107	-0.008
1107	-0.01
1108	-0.009
1108	-0.01
1109	-0.011
1109	-0.013
1109	-0.016
1110	-0.017
1110	-0.019
1111	-0.022
1111	-0.013
