Data from aggregation-dark_Absorbance__254__00254.txt Node

Date: Tue Jan 16 11:01:31 CET 2024
User: Marek
Spectrometer: MAYP115816
Trigger mode: 0
Integration Time (sec): 2.000000E-1
Scans to average: 10
Electric dark correction enabled: true
Nonlinearity correction enabled: true
Boxcar width: 5
XAxis mode: Wavelengths
Number of Pixels in Spectrum: 2068
>>>>>Begin Spectral Data<<<<<
199	-0.225
199	-0.168
200	-0.11
200	-0.058
201	-0.03
201	-0.017
202	0.003
202	0.009
203	0.012
203	0.018
204	0.028
204	0.041
205	0.051
205	0.054
205	0.053
206	0.052
206	0.052
207	0.052
207	0.051
208	0.052
208	0.049
209	0.052
209	0.047
210	0.047
210	0.048
211	0.046
211	0.045
212	0.044
212	0.045
213	0.043
213	0.041
213	0.039
214	0.038
214	0.041
215	0.041
215	0.039
216	0.04
216	0.04
217	0.044
217	0.046
218	0.049
218	0.053
219	0.058
219	0.059
220	0.059
220	0.059
221	0.06
221	0.06
221	0.062
222	0.066
222	0.069
223	0.075
223	0.076
224	0.078
224	0.084
225	0.09
225	0.095
226	0.099
226	0.105
227	0.117
227	0.118
228	0.127
228	0.131
229	0.142
229	0.157
229	0.169
230	0.183
230	0.199
231	0.216
231	0.233
232	0.246
232	0.264
233	0.28
233	0.297
234	0.311
234	0.323
235	0.335
235	0.345
236	0.356
236	0.364
236	0.373
237	0.381
237	0.389
238	0.394
238	0.399
239	0.405
239	0.41
240	0.414
240	0.418
241	0.422
241	0.425
242	0.428
242	0.431
243	0.434
243	0.437
243	0.44
244	0.442
244	0.444
245	0.446
245	0.449
246	0.451
246	0.453
247	0.455
247	0.457
248	0.459
248	0.461
249	0.462
249	0.464
250	0.465
250	0.467
250	0.468
251	0.47
251	0.471
252	0.472
252	0.474
253	0.475
253	0.475
254	0.476
254	0.477
255	0.478
255	0.479
256	0.479
256	0.48
257	0.48
257	0.48
258	0.481
258	0.481
258	0.481
259	0.481
259	0.481
260	0.48
260	0.48
261	0.48
261	0.479
262	0.478
262	0.478
263	0.477
263	0.476
264	0.475
264	0.474
265	0.473
265	0.471
265	0.47
266	0.469
266	0.467
267	0.466
267	0.464
268	0.463
268	0.461
269	0.459
269	0.457
270	0.455
270	0.453
271	0.451
271	0.449
272	0.447
272	0.444
272	0.442
273	0.439
273	0.437
274	0.435
274	0.433
275	0.43
275	0.428
276	0.425
276	0.423
277	0.421
277	0.418
278	0.416
278	0.413
278	0.411
279	0.408
279	0.405
280	0.403
280	0.401
281	0.398
281	0.396
282	0.393
282	0.391
283	0.389
283	0.387
284	0.385
284	0.383
285	0.38
285	0.378
285	0.376
286	0.374
286	0.372
287	0.369
287	0.367
288	0.365
288	0.364
289	0.362
289	0.36
290	0.358
290	0.356
291	0.355
291	0.353
292	0.352
292	0.35
292	0.349
293	0.348
293	0.346
294	0.345
294	0.344
295	0.343
295	0.342
296	0.341
296	0.34
297	0.339
297	0.338
298	0.337
298	0.336
298	0.336
299	0.335
299	0.334
300	0.333
300	0.332
301	0.332
301	0.331
302	0.33
302	0.33
303	0.329
303	0.328
304	0.327
304	0.327
305	0.326
305	0.326
305	0.325
306	0.325
306	0.324
307	0.323
307	0.322
308	0.322
308	0.321
309	0.32
309	0.32
310	0.319
310	0.319
311	0.318
311	0.317
311	0.317
312	0.316
312	0.316
313	0.315
313	0.314
314	0.313
314	0.313
315	0.312
315	0.312
316	0.311
316	0.31
317	0.31
317	0.309
318	0.308
318	0.308
318	0.307
319	0.307
319	0.306
320	0.305
320	0.304
321	0.304
321	0.303
322	0.303
322	0.302
323	0.301
323	0.301
324	0.3
324	0.299
324	0.299
325	0.298
325	0.298
326	0.297
326	0.297
327	0.296
327	0.295
328	0.295
328	0.294
329	0.294
329	0.293
330	0.293
330	0.292
330	0.291
331	0.291
331	0.29
332	0.289
332	0.289
333	0.288
333	0.287
334	0.287
334	0.286
335	0.286
335	0.285
336	0.285
336	0.284
336	0.284
337	0.283
337	0.283
338	0.282
338	0.282
339	0.281
339	0.281
340	0.28
340	0.28
341	0.279
341	0.279
342	0.279
342	0.278
342	0.278
343	0.277
343	0.277
344	0.277
344	0.277
345	0.276
345	0.276
346	0.276
346	0.275
347	0.275
347	0.275
348	0.274
348	0.274
348	0.274
349	0.274
349	0.274
350	0.274
350	0.273
351	0.273
351	0.273
352	0.273
352	0.273
353	0.273
353	0.272
354	0.272
354	0.271
354	0.271
355	0.271
355	0.271
356	0.27
356	0.27
357	0.27
357	0.27
358	0.27
358	0.27
359	0.269
359	0.27
360	0.269
360	0.269
360	0.269
361	0.269
361	0.27
362	0.269
362	0.269
363	0.269
363	0.269
364	0.269
364	0.269
365	0.269
365	0.269
366	0.269
366	0.269
366	0.268
367	0.269
367	0.269
368	0.268
368	0.268
369	0.268
369	0.268
370	0.268
370	0.268
371	0.268
371	0.268
372	0.268
372	0.267
372	0.267
373	0.267
373	0.267
374	0.267
374	0.267
375	0.266
375	0.266
376	0.266
376	0.266
377	0.266
377	0.266
378	0.266
378	0.266
378	0.266
379	0.266
379	0.266
380	0.266
380	0.266
381	0.266
381	0.266
382	0.266
382	0.266
383	0.265
383	0.265
383	0.265
384	0.265
384	0.264
385	0.264
385	0.264
386	0.264
386	0.263
387	0.263
387	0.263
388	0.263
388	0.263
389	0.263
389	0.263
389	0.262
390	0.262
390	0.262
391	0.262
391	0.262
392	0.261
392	0.261
393	0.261
393	0.261
394	0.261
394	0.261
394	0.261
395	0.261
395	0.261
396	0.261
396	0.261
397	0.26
397	0.26
398	0.26
398	0.26
399	0.26
399	0.26
400	0.26
400	0.26
400	0.26
401	0.259
401	0.259
402	0.259
402	0.259
403	0.259
403	0.258
404	0.258
404	0.258
405	0.258
405	0.258
405	0.258
406	0.258
406	0.258
407	0.258
407	0.258
408	0.258
408	0.258
409	0.257
409	0.257
410	0.257
410	0.257
411	0.257
411	0.257
411	0.257
412	0.257
412	0.257
413	0.257
413	0.257
414	0.256
414	0.256
415	0.256
415	0.256
416	0.256
416	0.256
416	0.256
417	0.256
417	0.255
418	0.255
418	0.255
419	0.255
419	0.255
420	0.255
420	0.255
421	0.255
421	0.255
421	0.255
422	0.255
422	0.255
423	0.255
423	0.255
424	0.255
424	0.255
425	0.255
425	0.255
426	0.255
426	0.255
427	0.255
427	0.255
427	0.254
428	0.255
428	0.255
429	0.255
429	0.255
430	0.255
430	0.255
431	0.254
431	0.254
432	0.254
432	0.254
432	0.254
433	0.254
433	0.254
434	0.254
434	0.254
435	0.253
435	0.253
436	0.253
436	0.253
437	0.253
437	0.253
437	0.253
438	0.253
438	0.253
439	0.253
439	0.253
440	0.253
440	0.253
441	0.253
441	0.253
442	0.253
442	0.253
442	0.253
443	0.253
443	0.254
444	0.254
444	0.254
445	0.254
445	0.254
446	0.255
446	0.255
447	0.255
447	0.254
447	0.254
448	0.254
448	0.254
449	0.254
449	0.254
450	0.254
450	0.254
451	0.254
451	0.254
452	0.255
452	0.255
452	0.255
453	0.255
453	0.255
454	0.255
454	0.255
455	0.255
455	0.255
456	0.255
456	0.254
457	0.254
457	0.254
458	0.254
458	0.254
458	0.255
459	0.255
459	0.256
460	0.256
460	0.256
461	0.256
461	0.257
462	0.257
462	0.257
463	0.258
463	0.258
463	0.258
464	0.258
464	0.258
465	0.258
465	0.258
466	0.259
466	0.259
467	0.259
467	0.26
467	0.26
468	0.26
468	0.26
469	0.261
469	0.261
470	0.262
470	0.262
471	0.263
471	0.263
472	0.263
472	0.263
472	0.264
473	0.264
473	0.264
474	0.264
474	0.265
475	0.265
475	0.266
476	0.266
476	0.267
477	0.268
477	0.268
477	0.269
478	0.269
478	0.27
479	0.271
479	0.271
480	0.272
480	0.272
481	0.273
481	0.273
482	0.274
482	0.275
482	0.275
483	0.276
483	0.277
484	0.278
484	0.278
485	0.28
485	0.281
486	0.281
486	0.282
487	0.283
487	0.284
487	0.286
488	0.287
488	0.288
489	0.29
489	0.292
490	0.293
490	0.294
491	0.296
491	0.297
492	0.298
492	0.299
492	0.3
493	0.302
493	0.303
494	0.305
494	0.307
495	0.308
495	0.309
496	0.311
496	0.313
496	0.314
497	0.316
497	0.318
498	0.319
498	0.321
499	0.322
499	0.324
500	0.326
500	0.327
501	0.329
501	0.331
501	0.333
502	0.334
502	0.336
503	0.338
503	0.34
504	0.341
504	0.343
505	0.345
505	0.347
506	0.348
506	0.35
506	0.352
507	0.354
507	0.356
508	0.358
508	0.359
509	0.361
509	0.363
510	0.365
510	0.367
511	0.368
511	0.37
511	0.372
512	0.374
512	0.375
513	0.377
513	0.378
514	0.38
514	0.381
515	0.382
515	0.383
515	0.385
516	0.386
516	0.387
517	0.388
517	0.389
518	0.39
518	0.391
519	0.392
519	0.393
520	0.394
520	0.395
520	0.395
521	0.396
521	0.397
522	0.398
522	0.398
523	0.399
523	0.4
524	0.401
524	0.401
524	0.402
525	0.402
525	0.402
526	0.402
526	0.402
527	0.402
527	0.402
528	0.402
528	0.402
529	0.402
529	0.401
529	0.401
530	0.401
530	0.401
531	0.401
531	0.401
532	0.4
532	0.4
533	0.4
533	0.399
533	0.398
534	0.398
534	0.397
535	0.396
535	0.396
536	0.395
536	0.394
537	0.393
537	0.393
538	0.392
538	0.391
538	0.39
539	0.389
539	0.388
540	0.387
540	0.386
541	0.385
541	0.384
542	0.383
542	0.381
542	0.38
543	0.379
543	0.378
544	0.377
544	0.376
545	0.374
545	0.373
546	0.371
546	0.369
547	0.368
547	0.366
547	0.365
548	0.363
548	0.362
549	0.36
549	0.359
550	0.357
550	0.355
551	0.354
551	0.353
551	0.352
552	0.35
552	0.349
553	0.348
553	0.347
554	0.346
554	0.344
555	0.343
555	0.341
556	0.34
556	0.338
556	0.337
557	0.335
557	0.333
558	0.331
558	0.33
559	0.327
559	0.326
560	0.324
560	0.323
560	0.322
561	0.321
561	0.319
562	0.318
562	0.316
563	0.314
563	0.313
564	0.311
564	0.309
564	0.308
565	0.305
565	0.303
566	0.301
566	0.299
567	0.297
567	0.295
568	0.293
568	0.292
568	0.29
569	0.289
569	0.287
570	0.286
570	0.285
571	0.284
571	0.282
572	0.28
572	0.278
573	0.277
573	0.275
573	0.273
574	0.272
574	0.27
575	0.269
575	0.268
576	0.266
576	0.264
577	0.263
577	0.263
577	0.262
578	0.261
578	0.26
579	0.259
579	0.258
580	0.256
580	0.255
581	0.254
581	0.253
581	0.252
582	0.251
582	0.25
583	0.249
583	0.247
584	0.246
584	0.244
585	0.244
585	0.243
585	0.241
586	0.24
586	0.239
587	0.238
587	0.237
588	0.236
588	0.235
589	0.235
589	0.234
590	0.233
590	0.232
590	0.232
591	0.23
591	0.229
592	0.228
592	0.227
593	0.226
593	0.225
594	0.224
594	0.223
594	0.223
595	0.223
595	0.222
596	0.222
596	0.222
597	0.222
597	0.221
598	0.221
598	0.221
598	0.22
599	0.22
599	0.219
600	0.218
600	0.217
601	0.216
601	0.215
602	0.214
602	0.213
602	0.212
603	0.211
603	0.211
604	0.21
604	0.209
605	0.209
605	0.209
606	0.208
606	0.208
606	0.208
607	0.207
607	0.207
608	0.206
608	0.206
609	0.206
609	0.205
610	0.204
610	0.204
610	0.203
611	0.203
611	0.203
612	0.202
612	0.202
613	0.202
613	0.202
614	0.201
614	0.2
614	0.2
615	0.2
615	0.2
616	0.199
616	0.199
617	0.199
617	0.199
618	0.199
618	0.199
618	0.2
619	0.2
619	0.201
620	0.202
620	0.202
621	0.202
621	0.203
622	0.203
622	0.204
622	0.204
623	0.204
623	0.204
624	0.205
624	0.205
625	0.205
625	0.205
626	0.206
626	0.206
626	0.206
627	0.207
627	0.207
628	0.208
628	0.208
629	0.209
629	0.21
630	0.211
630	0.212
630	0.213
631	0.215
631	0.216
632	0.217
632	0.218
633	0.22
633	0.221
634	0.222
634	0.223
634	0.224
635	0.225
635	0.226
636	0.227
636	0.227
637	0.228
637	0.229
638	0.23
638	0.231
638	0.232
639	0.234
639	0.235
640	0.237
640	0.238
641	0.24
641	0.241
642	0.243
642	0.244
642	0.246
643	0.247
643	0.248
644	0.25
644	0.251
645	0.253
645	0.255
646	0.257
646	0.259
646	0.262
647	0.264
647	0.267
648	0.269
648	0.272
649	0.275
649	0.277
650	0.28
650	0.282
650	0.284
651	0.286
651	0.289
652	0.291
652	0.294
653	0.297
653	0.301
653	0.287
654	0.224
654	0.184
655	0.19
655	0.192
656	0.194
656	0.195
657	0.196
657	0.198
657	0.199
658	0.197
658	0.202
659	0.258
659	0.33
660	0.335
660	0.337
661	0.341
661	0.344
661	0.348
662	0.352
662	0.355
663	0.358
663	0.361
664	0.364
664	0.366
665	0.369
665	0.372
665	0.375
666	0.377
666	0.38
667	0.382
667	0.385
668	0.387
668	0.39
669	0.393
669	0.396
669	0.398
670	0.401
670	0.403
671	0.405
671	0.407
672	0.409
672	0.411
672	0.412
673	0.414
673	0.416
674	0.417
674	0.419
675	0.421
675	0.423
676	0.425
676	0.427
676	0.428
677	0.43
677	0.432
678	0.433
678	0.435
679	0.436
679	0.437
680	0.438
680	0.439
680	0.44
681	0.441
681	0.442
682	0.443
682	0.444
683	0.445
683	0.447
684	0.448
684	0.449
684	0.45
685	0.45
685	0.451
686	0.452
686	0.452
687	0.453
687	0.453
687	0.453
688	0.453
688	0.453
689	0.453
689	0.452
690	0.451
690	0.451
691	0.45
691	0.45
691	0.449
692	0.448
692	0.448
693	0.449
693	0.448
694	0.448
694	0.448
695	0.448
695	0.448
695	0.446
696	0.445
696	0.443
697	0.442
697	0.44
698	0.437
698	0.435
698	0.433
699	0.43
699	0.428
700	0.425
700	0.424
701	0.422
701	0.421
702	0.419
702	0.418
702	0.417
703	0.416
703	0.415
704	0.413
704	0.412
705	0.41
705	0.408
705	0.406
706	0.404
706	0.402
707	0.4
707	0.398
708	0.396
708	0.394
709	0.392
709	0.389
709	0.388
710	0.386
710	0.384
711	0.382
711	0.38
712	0.378
712	0.376
713	0.373
713	0.371
713	0.369
714	0.366
714	0.364
715	0.361
715	0.359
716	0.356
716	0.354
716	0.351
717	0.349
717	0.346
718	0.344
718	0.342
719	0.34
719	0.339
720	0.337
720	0.335
720	0.333
721	0.331
721	0.329
722	0.327
722	0.325
723	0.322
723	0.319
723	0.317
724	0.314
724	0.311
725	0.308
725	0.306
726	0.303
726	0.301
727	0.299
727	0.297
727	0.296
728	0.294
728	0.293
729	0.292
729	0.291
730	0.29
730	0.289
730	0.288
731	0.287
731	0.285
732	0.284
732	0.282
733	0.281
733	0.279
734	0.278
734	0.276
734	0.275
735	0.273
735	0.271
736	0.27
736	0.268
737	0.266
737	0.265
737	0.263
738	0.261
738	0.259
739	0.257
739	0.255
740	0.254
740	0.253
741	0.252
741	0.251
741	0.25
742	0.249
742	0.248
743	0.247
743	0.245
744	0.244
744	0.243
744	0.241
745	0.239
745	0.236
746	0.234
746	0.232
747	0.23
747	0.228
748	0.226
748	0.225
748	0.223
749	0.221
749	0.22
750	0.218
750	0.216
751	0.215
751	0.214
751	0.213
752	0.211
752	0.21
753	0.21
753	0.209
754	0.208
754	0.207
754	0.206
755	0.205
755	0.204
756	0.202
756	0.201
757	0.2
757	0.198
758	0.197
758	0.195
758	0.193
759	0.192
759	0.19
760	0.188
760	0.187
761	0.186
761	0.186
761	0.185
762	0.184
762	0.184
763	0.183
763	0.182
764	0.181
764	0.181
764	0.18
765	0.18
765	0.179
766	0.179
766	0.178
767	0.177
767	0.176
768	0.176
768	0.175
768	0.175
769	0.174
769	0.173
770	0.172
770	0.171
771	0.17
771	0.169
771	0.168
772	0.167
772	0.166
773	0.166
773	0.165
774	0.165
774	0.165
775	0.165
775	0.164
775	0.164
776	0.163
776	0.163
777	0.162
777	0.161
778	0.161
778	0.16
778	0.159
779	0.157
779	0.156
780	0.155
780	0.154
781	0.153
781	0.153
781	0.152
782	0.152
782	0.152
783	0.152
783	0.152
784	0.151
784	0.151
784	0.151
785	0.15
785	0.15
786	0.149
786	0.148
787	0.147
787	0.146
788	0.145
788	0.144
788	0.144
789	0.143
789	0.142
790	0.141
790	0.141
791	0.14
791	0.139
791	0.139
792	0.138
792	0.137
793	0.136
793	0.136
794	0.135
794	0.135
794	0.135
795	0.135
795	0.135
796	0.135
796	0.134
797	0.134
797	0.135
797	0.134
798	0.134
798	0.133
799	0.132
799	0.132
800	0.131
800	0.13
801	0.13
801	0.129
801	0.129
802	0.128
802	0.127
803	0.127
803	0.126
804	0.125
804	0.124
804	0.123
805	0.123
805	0.122
806	0.122
806	0.121
807	0.121
807	0.122
807	0.122
808	0.123
808	0.123
809	0.123
809	0.124
810	0.124
810	0.124
810	0.124
811	0.124
811	0.124
812	0.124
812	0.123
813	0.122
813	0.122
813	0.121
814	0.121
814	0.121
815	0.121
815	0.12
816	0.12
816	0.12
817	0.119
817	0.119
817	0.119
818	0.118
818	0.118
819	0.117
819	0.116
820	0.116
820	0.116
820	0.115
821	0.115
821	0.115
822	0.114
822	0.114
823	0.113
823	0.113
823	0.113
824	0.113
824	0.112
825	0.112
825	0.111
826	0.111
826	0.11
826	0.109
827	0.109
827	0.108
828	0.108
828	0.107
829	0.107
829	0.107
829	0.107
830	0.107
830	0.107
831	0.108
831	0.109
832	0.109
832	0.11
832	0.11
833	0.11
833	0.11
834	0.11
834	0.11
835	0.11
835	0.11
835	0.109
836	0.109
836	0.108
837	0.107
837	0.107
838	0.106
838	0.105
839	0.105
839	0.104
839	0.104
840	0.104
840	0.103
841	0.103
841	0.103
842	0.103
842	0.103
842	0.103
843	0.103
843	0.103
844	0.102
844	0.102
845	0.102
845	0.102
845	0.103
846	0.103
846	0.103
847	0.103
847	0.103
848	0.103
848	0.104
848	0.104
849	0.104
849	0.104
850	0.104
850	0.104
851	0.104
851	0.104
851	0.104
852	0.104
852	0.104
853	0.104
853	0.104
854	0.104
854	0.104
854	0.103
855	0.103
855	0.103
856	0.102
856	0.102
857	0.101
857	0.1
857	0.1
858	0.099
858	0.099
859	0.098
859	0.097
860	0.096
860	0.094
860	0.093
861	0.092
861	0.091
862	0.09
862	0.089
863	0.089
863	0.088
863	0.088
864	0.089
864	0.09
865	0.091
865	0.092
866	0.093
866	0.094
866	0.095
867	0.096
867	0.096
868	0.097
868	0.096
869	0.096
869	0.095
869	0.094
870	0.093
870	0.092
871	0.091
871	0.09
872	0.089
872	0.088
872	0.087
873	0.086
873	0.086
874	0.085
874	0.085
875	0.085
875	0.085
875	0.085
876	0.085
876	0.085
877	0.085
877	0.085
878	0.085
878	0.084
878	0.083
879	0.083
879	0.082
880	0.081
880	0.081
881	0.08
881	0.08
881	0.08
882	0.08
882	0.08
883	0.08
883	0.081
884	0.081
884	0.081
884	0.081
885	0.081
885	0.082
886	0.082
886	0.082
887	0.081
887	0.081
887	0.081
888	0.081
888	0.08
889	0.08
889	0.08
890	0.08
890	0.08
890	0.08
891	0.08
891	0.08
892	0.079
892	0.079
893	0.079
893	0.079
893	0.079
894	0.079
894	0.079
895	0.08
895	0.08
895	0.081
896	0.081
896	0.082
897	0.082
897	0.083
898	0.083
898	0.083
898	0.083
899	0.083
899	0.083
900	0.082
900	0.082
901	0.082
901	0.082
901	0.083
902	0.083
902	0.083
903	0.084
903	0.084
904	0.084
904	0.084
904	0.084
905	0.084
905	0.084
906	0.084
906	0.083
907	0.083
907	0.082
907	0.082
908	0.082
908	0.081
909	0.081
909	0.081
910	0.081
910	0.081
910	0.081
911	0.081
911	0.081
912	0.082
912	0.082
913	0.082
913	0.083
913	0.083
914	0.083
914	0.083
915	0.083
915	0.083
916	0.083
916	0.083
916	0.082
917	0.082
917	0.081
918	0.081
918	0.08
918	0.079
919	0.079
919	0.078
920	0.078
920	0.078
921	0.078
921	0.077
921	0.077
922	0.077
922	0.076
923	0.076
923	0.075
924	0.075
924	0.074
924	0.073
925	0.072
925	0.071
926	0.069
926	0.068
927	0.067
927	0.066
927	0.065
928	0.064
928	0.064
929	0.063
929	0.064
930	0.064
930	0.065
930	0.066
931	0.067
931	0.068
932	0.07
932	0.071
933	0.072
933	0.074
933	0.075
934	0.076
934	0.077
935	0.077
935	0.078
935	0.078
936	0.078
936	0.079
937	0.078
937	0.078
938	0.078
938	0.078
938	0.078
939	0.078
939	0.078
940	0.078
940	0.077
941	0.077
941	0.077
941	0.077
942	0.076
942	0.075
943	0.075
943	0.074
944	0.074
944	0.073
944	0.073
945	0.074
945	0.074
946	0.074
946	0.074
946	0.074
947	0.074
947	0.074
948	0.073
948	0.073
949	0.073
949	0.073
949	0.072
950	0.072
950	0.072
951	0.071
951	0.071
952	0.071
952	0.071
952	0.071
953	0.071
953	0.072
954	0.072
954	0.072
955	0.072
955	0.073
955	0.073
956	0.074
956	0.074
957	0.074
957	0.074
957	0.074
958	0.073
958	0.073
959	0.072
959	0.072
960	0.071
960	0.071
960	0.07
961	0.069
961	0.069
962	0.069
962	0.069
963	0.069
963	0.069
963	0.069
964	0.07
964	0.07
965	0.071
965	0.071
966	0.072
966	0.073
966	0.074
967	0.075
967	0.075
968	0.075
968	0.075
968	0.076
969	0.075
969	0.075
970	0.074
970	0.074
971	0.073
971	0.073
971	0.072
972	0.071
972	0.071
973	0.071
973	0.071
974	0.071
974	0.071
974	0.072
975	0.072
975	0.072
976	0.073
976	0.073
976	0.074
977	0.074
977	0.074
978	0.073
978	0.073
979	0.073
979	0.072
979	0.072
980	0.071
980	0.071
981	0.07
981	0.07
982	0.07
982	0.07
982	0.07
983	0.069
983	0.069
984	0.069
984	0.069
984	0.068
985	0.068
985	0.067
986	0.067
986	0.066
987	0.065
987	0.065
987	0.064
988	0.064
988	0.063
989	0.063
989	0.062
990	0.062
990	0.062
990	0.062
991	0.062
991	0.063
992	0.063
992	0.064
992	0.064
993	0.065
993	0.065
994	0.065
994	0.066
995	0.066
995	0.066
995	0.066
996	0.066
996	0.066
997	0.066
997	0.066
997	0.066
998	0.066
998	0.066
999	0.067
999	0.067
1000	0.067
1000	0.067
1000	0.068
1001	0.068
1001	0.068
1002	0.068
1002	0.068
1003	0.068
1003	0.068
1003	0.068
1004	0.068
1004	0.067
1005	0.067
1005	0.066
1005	0.066
1006	0.065
1006	0.065
1007	0.064
1007	0.063
1008	0.063
1008	0.062
1008	0.061
1009	0.06
1009	0.06
1010	0.059
1010	0.058
1010	0.058
1011	0.057
1011	0.057
1012	0.057
1012	0.057
1013	0.057
1013	0.057
1013	0.057
1014	0.056
1014	0.056
1015	0.056
1015	0.056
1016	0.056
1016	0.056
1016	0.055
1017	0.054
1017	0.054
1018	0.053
1018	0.053
1018	0.053
1019	0.052
1019	0.052
1020	0.052
1020	0.052
1021	0.052
1021	0.052
1021	0.053
1022	0.053
1022	0.054
1023	0.054
1023	0.055
1023	0.055
1024	0.055
1024	0.055
1025	0.055
1025	0.055
1026	0.054
1026	0.054
1026	0.053
1027	0.053
1027	0.052
1028	0.052
1028	0.051
1028	0.051
1029	0.05
1029	0.049
1030	0.049
1030	0.048
1031	0.048
1031	0.047
1031	0.047
1032	0.047
1032	0.047
1033	0.047
1033	0.047
1033	0.047
1034	0.046
1034	0.046
1035	0.046
1035	0.046
1036	0.046
1036	0.046
1036	0.047
1037	0.047
1037	0.047
1038	0.047
1038	0.048
1039	0.048
1039	0.049
1039	0.049
1040	0.05
1040	0.05
1041	0.051
1041	0.051
1041	0.051
1042	0.051
1042	0.051
1043	0.051
1043	0.052
1044	0.052
1044	0.051
1044	0.051
1045	0.051
1045	0.051
1046	0.05
1046	0.05
1046	0.049
1047	0.049
1047	0.048
1048	0.048
1048	0.048
1049	0.047
1049	0.047
1049	0.047
1050	0.046
1050	0.046
1051	0.046
1051	0.045
1051	0.045
1052	0.045
1052	0.045
1053	0.044
1053	0.044
1053	0.043
1054	0.042
1054	0.042
1055	0.041
1055	0.041
1056	0.04
1056	0.039
1056	0.039
1057	0.038
1057	0.037
1058	0.037
1058	0.037
1058	0.036
1059	0.036
1059	0.036
1060	0.036
1060	0.036
1061	0.037
1061	0.037
1061	0.037
1062	0.038
1062	0.038
1063	0.038
1063	0.039
1063	0.038
1064	0.039
1064	0.039
1065	0.039
1065	0.039
1066	0.039
1066	0.039
1066	0.039
1067	0.039
1067	0.039
1068	0.039
1068	0.039
1068	0.039
1069	0.038
1069	0.038
1070	0.037
1070	0.037
1071	0.037
1071	0.037
1071	0.036
1072	0.036
1072	0.035
1073	0.035
1073	0.035
1073	0.035
1074	0.034
1074	0.034
1075	0.033
1075	0.033
1076	0.032
1076	0.032
1076	0.031
1077	0.031
1077	0.031
1078	0.03
1078	0.03
1078	0.03
1079	0.03
1079	0.03
1080	0.031
1080	0.031
1080	0.031
1081	0.031
1081	0.031
1082	0.031
1082	0.031
1083	0.031
1083	0.031
1083	0.032
1084	0.032
1084	0.032
1085	0.032
1085	0.032
1085	0.032
1086	0.032
1086	0.033
1087	0.033
1087	0.033
1088	0.033
1088	0.033
1088	0.033
1089	0.034
1089	0.034
1090	0.034
1090	0.034
1090	0.034
1091	0.033
1091	0.033
1092	0.033
1092	0.033
1092	0.032
1093	0.032
1093	0.032
1094	0.032
1094	0.031
1095	0.03
1095	0.03
1095	0.03
1096	0.029
1096	0.029
1097	0.029
1097	0.028
1097	0.028
1098	0.027
1098	0.027
1099	0.026
1099	0.026
1100	0.026
1100	0.026
1100	0.025
1101	0.025
1101	0.024
1102	0.022
1102	0.022
1102	0.022
1103	0.022
1103	0.021
1104	0.021
1104	0.019
1104	0.019
1105	0.019
1105	0.017
1106	0.017
1106	0.017
1107	0.015
1107	0.013
1107	0.012
1108	0.013
1108	0.012
1109	0.012
1109	0.01
1109	0.009
1110	0.009
1110	0.006
1111	0.004
1111	0.009
