Data from 15c-2-4a_Absorbance__319__00319.txt Node

Date: Thu Jan 25 10:14:48 CET 2024
User: Marek
Spectrometer: MAYP115816
Trigger mode: 0
Integration Time (sec): 2.000000E-1
Scans to average: 10
Electric dark correction enabled: true
Nonlinearity correction enabled: true
Boxcar width: 5
XAxis mode: Wavelengths
Number of Pixels in Spectrum: 2068
>>>>>Begin Spectral Data<<<<<
199	-2.106
199	-1.935
200	-1.781
200	-1.659
201	-1.581
201	-1.524
202	-1.441
202	-1.38
203	-1.327
203	-1.28
204	-1.254
204	-1.227
205	-1.206
205	-1.195
205	-1.189
206	-1.184
206	-1.181
207	-1.181
207	-1.178
208	-1.173
208	-1.17
209	-1.165
209	-1.162
210	-1.16
210	-1.157
211	-1.156
211	-1.155
212	-1.152
212	-1.149
213	-1.147
213	-1.147
213	-1.147
214	-1.146
214	-1.145
215	-1.143
215	-1.141
216	-1.139
216	-1.137
217	-1.135
217	-1.132
218	-1.131
218	-1.128
219	-1.126
219	-1.123
220	-1.122
220	-1.118
221	-1.115
221	-1.113
221	-1.11
222	-1.107
222	-1.106
223	-1.101
223	-1.095
224	-1.088
224	-1.08
225	-1.071
225	-1.062
226	-1.052
226	-1.04
227	-1.025
227	-1.012
228	-0.993
228	-0.974
229	-0.954
229	-0.931
229	-0.905
230	-0.877
230	-0.849
231	-0.815
231	-0.778
232	-0.739
232	-0.697
233	-0.654
233	-0.61
234	-0.566
234	-0.52
235	-0.476
235	-0.433
236	-0.39
236	-0.35
236	-0.312
237	-0.276
237	-0.242
238	-0.211
238	-0.181
239	-0.154
239	-0.128
240	-0.106
240	-0.084
241	-0.065
241	-0.047
242	-0.031
242	-0.016
243	-0.002
243	0.011
243	0.022
244	0.033
244	0.042
245	0.051
245	0.059
246	0.067
246	0.074
247	0.08
247	0.086
248	0.092
248	0.097
249	0.102
249	0.107
250	0.111
250	0.116
250	0.12
251	0.123
251	0.127
252	0.13
252	0.133
253	0.137
253	0.139
254	0.142
254	0.145
255	0.147
255	0.149
256	0.151
256	0.153
257	0.155
257	0.156
258	0.158
258	0.159
258	0.16
259	0.161
259	0.162
260	0.163
260	0.164
261	0.164
261	0.164
262	0.164
262	0.165
263	0.165
263	0.165
264	0.165
264	0.165
265	0.165
265	0.164
265	0.164
266	0.163
266	0.163
267	0.163
267	0.162
268	0.161
268	0.161
269	0.16
269	0.159
270	0.158
270	0.156
271	0.155
271	0.154
272	0.153
272	0.151
272	0.15
273	0.149
273	0.148
274	0.146
274	0.145
275	0.143
275	0.142
276	0.141
276	0.139
277	0.138
277	0.136
278	0.135
278	0.133
278	0.131
279	0.13
279	0.128
280	0.127
280	0.126
281	0.125
281	0.124
282	0.123
282	0.122
283	0.121
283	0.12
284	0.119
284	0.118
285	0.117
285	0.116
285	0.115
286	0.114
286	0.113
287	0.112
287	0.111
288	0.109
288	0.108
289	0.107
289	0.107
290	0.106
290	0.105
291	0.104
291	0.103
292	0.102
292	0.101
292	0.101
293	0.1
293	0.1
294	0.099
294	0.099
295	0.098
295	0.098
296	0.097
296	0.097
297	0.096
297	0.096
298	0.096
298	0.095
298	0.095
299	0.094
299	0.094
300	0.094
300	0.093
301	0.093
301	0.092
302	0.092
302	0.092
303	0.092
303	0.092
304	0.091
304	0.091
305	0.091
305	0.09
305	0.09
306	0.09
306	0.09
307	0.089
307	0.089
308	0.089
308	0.088
309	0.088
309	0.088
310	0.087
310	0.087
311	0.087
311	0.086
311	0.086
312	0.086
312	0.085
313	0.085
313	0.085
314	0.084
314	0.084
315	0.084
315	0.084
316	0.083
316	0.083
317	0.082
317	0.082
318	0.082
318	0.081
318	0.081
319	0.081
319	0.08
320	0.08
320	0.079
321	0.079
321	0.078
322	0.078
322	0.077
323	0.077
323	0.077
324	0.076
324	0.076
324	0.076
325	0.075
325	0.075
326	0.075
326	0.074
327	0.074
327	0.074
328	0.073
328	0.073
329	0.073
329	0.072
330	0.072
330	0.072
330	0.071
331	0.071
331	0.07
332	0.07
332	0.069
333	0.069
333	0.068
334	0.068
334	0.068
335	0.067
335	0.067
336	0.067
336	0.066
336	0.066
337	0.066
337	0.065
338	0.065
338	0.065
339	0.065
339	0.064
340	0.064
340	0.063
341	0.063
341	0.063
342	0.062
342	0.062
342	0.061
343	0.061
343	0.061
344	0.06
344	0.06
345	0.059
345	0.059
346	0.059
346	0.058
347	0.058
347	0.057
348	0.057
348	0.057
348	0.056
349	0.056
349	0.055
350	0.055
350	0.055
351	0.054
351	0.054
352	0.053
352	0.053
353	0.053
353	0.052
354	0.052
354	0.051
354	0.05
355	0.05
355	0.049
356	0.049
356	0.049
357	0.048
357	0.048
358	0.048
358	0.048
359	0.049
359	0.049
360	0.05
360	0.05
360	0.05
361	0.05
361	0.05
362	0.051
362	0.051
363	0.051
363	0.05
364	0.05
364	0.05
365	0.049
365	0.049
366	0.049
366	0.049
366	0.049
367	0.049
367	0.049
368	0.049
368	0.048
369	0.048
369	0.048
370	0.048
370	0.047
371	0.047
371	0.047
372	0.047
372	0.046
372	0.046
373	0.046
373	0.046
374	0.046
374	0.045
375	0.045
375	0.045
376	0.045
376	0.045
377	0.046
377	0.046
378	0.046
378	0.046
378	0.046
379	0.046
379	0.047
380	0.047
380	0.047
381	0.047
381	0.047
382	0.046
382	0.046
383	0.046
383	0.046
383	0.046
384	0.045
384	0.045
385	0.044
385	0.044
386	0.044
386	0.044
387	0.045
387	0.044
388	0.044
388	0.044
389	0.044
389	0.045
389	0.045
390	0.045
390	0.045
391	0.046
391	0.046
392	0.046
392	0.046
393	0.046
393	0.046
394	0.046
394	0.046
394	0.045
395	0.045
395	0.045
396	0.045
396	0.045
397	0.045
397	0.045
398	0.045
398	0.045
399	0.045
399	0.045
400	0.045
400	0.045
400	0.044
401	0.044
401	0.043
402	0.043
402	0.043
403	0.042
403	0.042
404	0.042
404	0.042
405	0.042
405	0.042
405	0.041
406	0.041
406	0.041
407	0.041
407	0.041
408	0.04
408	0.04
409	0.04
409	0.039
410	0.039
410	0.039
411	0.039
411	0.039
411	0.039
412	0.039
412	0.039
413	0.039
413	0.039
414	0.039
414	0.039
415	0.039
415	0.039
416	0.038
416	0.038
416	0.038
417	0.038
417	0.038
418	0.038
418	0.038
419	0.038
419	0.039
420	0.039
420	0.04
421	0.04
421	0.04
421	0.04
422	0.04
422	0.04
423	0.04
423	0.039
424	0.039
424	0.039
425	0.038
425	0.037
426	0.037
426	0.037
427	0.037
427	0.037
427	0.038
428	0.038
428	0.038
429	0.039
429	0.039
430	0.039
430	0.039
431	0.039
431	0.039
432	0.038
432	0.038
432	0.037
433	0.036
433	0.036
434	0.035
434	0.035
435	0.035
435	0.035
436	0.035
436	0.035
437	0.035
437	0.035
437	0.035
438	0.036
438	0.035
439	0.035
439	0.035
440	0.034
440	0.034
441	0.034
441	0.034
442	0.035
442	0.035
442	0.035
443	0.035
443	0.035
444	0.035
444	0.036
445	0.036
445	0.036
446	0.036
446	0.036
447	0.036
447	0.035
447	0.035
448	0.035
448	0.035
449	0.035
449	0.035
450	0.035
450	0.035
451	0.035
451	0.034
452	0.034
452	0.034
452	0.033
453	0.033
453	0.032
454	0.032
454	0.031
455	0.031
455	0.031
456	0.031
456	0.03
457	0.03
457	0.03
458	0.03
458	0.03
458	0.03
459	0.03
459	0.03
460	0.03
460	0.029
461	0.029
461	0.028
462	0.028
462	0.028
463	0.028
463	0.029
463	0.029
464	0.029
464	0.029
465	0.029
465	0.03
466	0.03
466	0.03
467	0.03
467	0.029
467	0.029
468	0.027
468	0.026
469	0.025
469	0.024
470	0.023
470	0.023
471	0.022
471	0.022
472	0.021
472	0.021
472	0.021
473	0.022
473	0.023
474	0.023
474	0.024
475	0.025
475	0.025
476	0.026
476	0.026
477	0.026
477	0.026
477	0.027
478	0.027
478	0.027
479	0.028
479	0.028
480	0.028
480	0.029
481	0.029
481	0.03
482	0.03
482	0.031
482	0.032
483	0.033
483	0.035
484	0.037
484	0.038
485	0.039
485	0.04
486	0.041
486	0.041
487	0.041
487	0.041
487	0.041
488	0.04
488	0.039
489	0.038
489	0.036
490	0.035
490	0.034
491	0.034
491	0.034
492	0.034
492	0.034
492	0.034
493	0.034
493	0.035
494	0.035
494	0.036
495	0.037
495	0.038
496	0.039
496	0.039
496	0.039
497	0.039
497	0.039
498	0.039
498	0.039
499	0.039
499	0.039
500	0.039
500	0.039
501	0.04
501	0.041
501	0.042
502	0.043
502	0.044
503	0.045
503	0.045
504	0.046
504	0.046
505	0.046
505	0.047
506	0.047
506	0.047
506	0.047
507	0.047
507	0.046
508	0.046
508	0.046
509	0.046
509	0.047
510	0.047
510	0.047
511	0.047
511	0.047
511	0.046
512	0.047
512	0.047
513	0.047
513	0.046
514	0.046
514	0.045
515	0.044
515	0.043
515	0.043
516	0.042
516	0.042
517	0.043
517	0.043
518	0.043
518	0.042
519	0.042
519	0.041
520	0.04
520	0.039
520	0.037
521	0.035
521	0.034
522	0.032
522	0.03
523	0.028
523	0.028
524	0.028
524	0.029
524	0.03
525	0.032
525	0.034
526	0.036
526	0.038
527	0.04
527	0.042
528	0.044
528	0.045
529	0.046
529	0.046
529	0.047
530	0.047
530	0.047
531	0.047
531	0.047
532	0.047
532	0.047
533	0.047
533	0.047
533	0.047
534	0.047
534	0.047
535	0.046
535	0.046
536	0.046
536	0.046
537	0.046
537	0.046
538	0.045
538	0.045
538	0.044
539	0.044
539	0.043
540	0.043
540	0.043
541	0.042
541	0.041
542	0.041
542	0.04
542	0.039
543	0.039
543	0.039
544	0.038
544	0.038
545	0.038
545	0.038
546	0.038
546	0.038
547	0.038
547	0.037
547	0.036
548	0.035
548	0.034
549	0.032
549	0.031
550	0.03
550	0.029
551	0.028
551	0.027
551	0.026
552	0.025
552	0.025
553	0.025
553	0.025
554	0.025
554	0.025
555	0.024
555	0.023
556	0.022
556	0.02
556	0.019
557	0.017
557	0.016
558	0.015
558	0.014
559	0.013
559	0.013
560	0.013
560	0.012
560	0.013
561	0.013
561	0.014
562	0.014
562	0.014
563	0.014
563	0.013
564	0.011
564	0.01
564	0.009
565	0.008
565	0.007
566	0.006
566	0.005
567	0.005
567	0.006
568	0.007
568	0.008
568	0.009
569	0.011
569	0.013
570	0.014
570	0.015
571	0.016
571	0.017
572	0.017
572	0.018
573	0.018
573	0.019
573	0.018
574	0.018
574	0.018
575	0.018
575	0.019
576	0.021
576	0.021
577	0.021
577	0.02
577	0.02
578	0.02
578	0.02
579	0.02
579	0.021
580	0.022
580	0.021
581	0.02
581	0.019
581	0.018
582	0.018
582	0.018
583	0.019
583	0.019
584	0.018
584	0.016
585	0.015
585	0.015
585	0.015
586	0.015
586	0.014
587	0.014
587	0.012
588	0.01
588	0.009
589	0.007
589	0.006
590	0.005
590	0.004
590	0.004
591	0.004
591	0.005
592	0.005
592	0.004
593	0.005
593	0.005
594	0.005
594	0.005
594	0.005
595	0.005
595	0.004
596	0.004
596	0.004
597	0.005
597	0.006
598	0.007
598	0.008
598	0.008
599	0.009
599	0.008
600	0.008
600	0.007
601	0.007
601	0.006
602	0.004
602	0.003
602	0.002
603	0.001
603	0.001
604	0.001
604	0.002
605	0.003
605	0.003
606	0.004
606	0.004
606	0.003
607	0.003
607	0.003
608	0.002
608	0.002
609	0.001
609	0
610	-0.001
610	-0.001
610	-0.002
611	-0.001
611	-0.001
612	0
612	0.001
613	0.002
613	0.004
614	0.004
614	0.004
614	0.004
615	0.004
615	0.004
616	0.003
616	0.003
617	0.002
617	0.001
618	-0
618	-0.001
618	-0.002
619	-0.003
619	-0.003
620	-0.002
620	-0.002
621	-0.001
621	-0.001
622	-0.001
622	-0.001
622	-0.001
623	-0.001
623	-0.001
624	-0.001
624	-0.001
625	-0.001
625	-0.001
626	-0.001
626	-0.001
626	-0.001
627	-0.001
627	-0.001
628	-0.001
628	-0.001
629	-0.001
629	-0.001
630	-0.002
630	-0.003
630	-0.003
631	-0.003
631	-0.003
632	-0.004
632	-0.004
633	-0.004
633	-0.003
634	-0.003
634	-0.002
634	-0
635	0.001
635	0.001
636	0.002
636	0.003
637	0.004
637	0.004
638	0.004
638	0.005
638	0.005
639	0.005
639	0.004
640	0.004
640	0.005
641	0.006
641	0.006
642	0.007
642	0.008
642	0.009
643	0.011
643	0.012
644	0.013
644	0.015
645	0.016
645	0.017
646	0.018
646	0.02
646	0.022
647	0.023
647	0.025
648	0.026
648	0.028
649	0.029
649	0.031
650	0.032
650	0.033
650	0.035
651	0.036
651	0.036
652	0.037
652	0.037
653	0.038
653	0.043
653	0.047
654	0.041
654	0.035
655	0.038
655	0.039
656	0.04
656	0.041
657	0.043
657	0.044
657	0.045
658	0.044
658	0.042
659	0.05
659	0.06
660	0.061
660	0.062
661	0.062
661	0.063
661	0.064
662	0.065
662	0.066
663	0.068
663	0.069
664	0.071
664	0.072
665	0.073
665	0.075
665	0.076
666	0.077
666	0.078
667	0.079
667	0.081
668	0.082
668	0.083
669	0.084
669	0.085
669	0.087
670	0.089
670	0.091
671	0.092
671	0.093
672	0.094
672	0.095
672	0.095
673	0.096
673	0.097
674	0.097
674	0.097
675	0.097
675	0.097
676	0.098
676	0.099
676	0.1
677	0.101
677	0.102
678	0.103
678	0.103
679	0.104
679	0.104
680	0.105
680	0.106
680	0.106
681	0.106
681	0.107
682	0.107
682	0.108
683	0.109
683	0.11
684	0.111
684	0.112
684	0.112
685	0.112
685	0.113
686	0.113
686	0.113
687	0.112
687	0.112
687	0.111
688	0.11
688	0.109
689	0.109
689	0.109
690	0.109
690	0.108
691	0.108
691	0.108
691	0.108
692	0.108
692	0.108
693	0.108
693	0.109
694	0.109
694	0.109
695	0.11
695	0.112
695	0.114
696	0.114
696	0.114
697	0.115
697	0.115
698	0.114
698	0.113
698	0.112
699	0.111
699	0.11
700	0.107
700	0.106
701	0.105
701	0.104
702	0.103
702	0.102
702	0.101
703	0.099
703	0.098
704	0.097
704	0.096
705	0.095
705	0.095
705	0.094
706	0.093
706	0.092
707	0.092
707	0.091
708	0.09
708	0.09
709	0.089
709	0.088
709	0.087
710	0.085
710	0.084
711	0.083
711	0.082
712	0.082
712	0.081
713	0.081
713	0.081
713	0.08
714	0.079
714	0.079
715	0.078
715	0.077
716	0.075
716	0.074
716	0.073
717	0.072
717	0.071
718	0.069
718	0.068
719	0.067
719	0.066
720	0.065
720	0.064
720	0.062
721	0.06
721	0.058
722	0.056
722	0.054
723	0.052
723	0.051
723	0.049
724	0.048
724	0.046
725	0.044
725	0.043
726	0.042
726	0.041
727	0.04
727	0.039
727	0.038
728	0.037
728	0.036
729	0.036
729	0.036
730	0.036
730	0.035
730	0.034
731	0.033
731	0.032
732	0.032
732	0.031
733	0.03
733	0.029
734	0.028
734	0.027
734	0.026
735	0.025
735	0.024
736	0.022
736	0.021
737	0.02
737	0.019
737	0.018
738	0.016
738	0.014
739	0.013
739	0.012
740	0.01
740	0.009
741	0.008
741	0.007
741	0.005
742	0.003
742	0
743	-0.001
743	-0.002
744	-0.004
744	-0.005
744	-0.006
745	-0.008
745	-0.009
746	-0.01
746	-0.01
747	-0.01
747	-0.011
748	-0.011
748	-0.011
748	-0.011
749	-0.012
749	-0.013
750	-0.013
750	-0.014
751	-0.014
751	-0.015
751	-0.015
752	-0.015
752	-0.016
753	-0.016
753	-0.017
754	-0.017
754	-0.018
754	-0.018
755	-0.018
755	-0.017
756	-0.017
756	-0.018
757	-0.019
757	-0.019
758	-0.02
758	-0.02
758	-0.021
759	-0.021
759	-0.023
760	-0.025
760	-0.027
761	-0.028
761	-0.029
761	-0.03
762	-0.031
762	-0.031
763	-0.031
763	-0.032
764	-0.033
764	-0.034
764	-0.035
765	-0.036
765	-0.037
766	-0.038
766	-0.038
767	-0.038
767	-0.04
768	-0.042
768	-0.044
768	-0.045
769	-0.045
769	-0.045
770	-0.046
770	-0.046
771	-0.048
771	-0.05
771	-0.052
772	-0.053
772	-0.055
773	-0.057
773	-0.059
774	-0.063
774	-0.066
775	-0.069
775	-0.072
775	-0.076
776	-0.079
776	-0.082
777	-0.085
777	-0.088
778	-0.091
778	-0.095
778	-0.098
779	-0.1
779	-0.101
780	-0.104
780	-0.108
781	-0.111
781	-0.115
781	-0.118
782	-0.122
782	-0.127
783	-0.131
783	-0.133
784	-0.136
784	-0.139
784	-0.141
785	-0.143
785	-0.145
786	-0.146
786	-0.144
787	-0.139
787	-0.136
788	-0.135
788	-0.136
788	-0.137
789	-0.14
789	-0.14
790	-0.137
790	-0.136
791	-0.137
791	-0.139
791	-0.141
792	-0.136
792	-0.125
793	-0.118
793	-0.113
794	-0.111
794	-0.112
794	-0.115
795	-0.117
795	-0.117
796	-0.117
796	-0.119
797	-0.128
797	-0.139
797	-0.146
798	-0.152
798	-0.155
799	-0.157
799	-0.157
800	-0.157
800	-0.159
801	-0.162
801	-0.163
801	-0.163
802	-0.164
802	-0.165
803	-0.165
803	-0.165
804	-0.164
804	-0.158
804	-0.151
805	-0.147
805	-0.144
806	-0.142
806	-0.141
807	-0.139
807	-0.138
807	-0.138
808	-0.137
808	-0.138
809	-0.142
809	-0.147
810	-0.15
810	-0.152
810	-0.156
811	-0.158
811	-0.159
812	-0.155
812	-0.152
813	-0.153
813	-0.154
813	-0.155
814	-0.157
814	-0.158
815	-0.156
815	-0.154
816	-0.153
816	-0.154
817	-0.159
817	-0.163
817	-0.164
818	-0.163
818	-0.16
819	-0.155
819	-0.152
820	-0.153
820	-0.155
820	-0.156
821	-0.155
821	-0.152
822	-0.149
822	-0.145
823	-0.141
823	-0.139
823	-0.139
824	-0.136
824	-0.13
825	-0.122
825	-0.113
826	-0.105
826	-0.099
826	-0.093
827	-0.087
827	-0.082
828	-0.077
828	-0.073
829	-0.069
829	-0.065
829	-0.062
830	-0.06
830	-0.058
831	-0.054
831	-0.051
832	-0.049
832	-0.047
832	-0.045
833	-0.044
833	-0.043
834	-0.042
834	-0.041
835	-0.041
835	-0.041
835	-0.042
836	-0.042
836	-0.042
837	-0.042
837	-0.042
838	-0.042
838	-0.042
839	-0.041
839	-0.041
839	-0.04
840	-0.039
840	-0.038
841	-0.037
841	-0.036
842	-0.035
842	-0.033
842	-0.032
843	-0.031
843	-0.03
844	-0.029
844	-0.028
845	-0.027
845	-0.027
845	-0.027
846	-0.026
846	-0.026
847	-0.026
847	-0.025
848	-0.024
848	-0.024
848	-0.023
849	-0.022
849	-0.021
850	-0.02
850	-0.02
851	-0.019
851	-0.019
851	-0.018
852	-0.018
852	-0.017
853	-0.017
853	-0.017
854	-0.017
854	-0.017
854	-0.017
855	-0.018
855	-0.018
856	-0.018
856	-0.018
857	-0.018
857	-0.018
857	-0.018
858	-0.018
858	-0.018
859	-0.018
859	-0.017
860	-0.016
860	-0.015
860	-0.014
861	-0.013
861	-0.012
862	-0.011
862	-0.01
863	-0.008
863	-0.007
863	-0.006
864	-0.005
864	-0.004
865	-0.003
865	-0.002
866	-0.002
866	-0.002
866	-0.001
867	-0.001
867	-0.001
868	-0.001
868	-0.001
869	-0.001
869	-0.001
869	-0.001
870	-0.002
870	-0.002
871	-0.002
871	-0.003
872	-0.004
872	-0.005
872	-0.006
873	-0.007
873	-0.007
874	-0.007
874	-0.008
875	-0.008
875	-0.008
875	-0.008
876	-0.007
876	-0.007
877	-0.006
877	-0.005
878	-0.005
878	-0.005
878	-0.004
879	-0.004
879	-0.004
880	-0.003
880	-0.003
881	-0.002
881	-0.002
881	-0.001
882	-0.001
882	-0.001
883	-0
883	0
884	0
884	0
884	0.001
885	0.001
885	0
886	0
886	-0
887	-0.001
887	-0.001
887	-0.002
888	-0.003
888	-0.003
889	-0.004
889	-0.004
890	-0.004
890	-0.004
890	-0.004
891	-0.004
891	-0.004
892	-0.003
892	-0.003
893	-0.002
893	-0.001
893	-0.001
894	-0
894	-0
895	-0
895	-0
895	-0
896	-0.001
896	-0.001
897	-0.001
897	-0.002
898	-0.003
898	-0.004
898	-0.005
899	-0.005
899	-0.006
900	-0.007
900	-0.007
901	-0.007
901	-0.008
901	-0.008
902	-0.008
902	-0.008
903	-0.008
903	-0.008
904	-0.008
904	-0.008
904	-0.008
905	-0.008
905	-0.007
906	-0.007
906	-0.006
907	-0.006
907	-0.006
907	-0.006
908	-0.006
908	-0.006
909	-0.005
909	-0.005
910	-0.005
910	-0.006
910	-0.006
911	-0.006
911	-0.005
912	-0.005
912	-0.004
913	-0.003
913	-0.002
913	-0.001
914	-0
914	0.001
915	0.002
915	0.003
916	0.003
916	0.004
916	0.004
917	0.004
917	0.004
918	0.004
918	0.004
918	0.003
919	0.003
919	0.002
920	0.001
920	0
921	-0.001
921	-0.002
921	-0.002
922	-0.003
922	-0.003
923	-0.003
923	-0.003
924	-0.003
924	-0.003
924	-0.002
925	-0.001
925	-0.001
926	0
926	0.001
927	0.001
927	0.002
927	0.002
928	0.003
928	0.003
929	0.004
929	0.004
930	0.005
930	0.005
930	0.005
931	0.004
931	0.004
932	0.004
932	0.004
933	0.004
933	0.004
933	0.004
934	0.004
934	0.004
935	0.005
935	0.005
935	0.005
936	0.005
936	0.005
937	0.005
937	0.005
938	0.004
938	0.004
938	0.003
939	0.003
939	0.002
940	0.002
940	0.002
941	0.002
941	0.003
941	0.003
942	0.003
942	0.004
943	0.004
943	0.005
944	0.005
944	0.006
944	0.006
945	0.007
945	0.008
946	0.009
946	0.009
946	0.01
947	0.01
947	0.01
948	0.01
948	0.01
949	0.009
949	0.009
949	0.009
950	0.008
950	0.007
951	0.007
951	0.007
952	0.006
952	0.006
952	0.006
953	0.006
953	0.006
954	0.006
954	0.006
955	0.005
955	0.005
955	0.005
956	0.005
956	0.005
957	0.005
957	0.005
957	0.005
958	0.005
958	0.005
959	0.005
959	0.006
960	0.006
960	0.006
960	0.006
961	0.007
961	0.007
962	0.008
962	0.008
963	0.008
963	0.009
963	0.009
964	0.009
964	0.009
965	0.009
965	0.009
966	0.008
966	0.008
966	0.007
967	0.007
967	0.006
968	0.006
968	0.005
968	0.005
969	0.005
969	0.004
970	0.004
970	0.004
971	0.004
971	0.005
971	0.005
972	0.006
972	0.006
973	0.007
973	0.008
974	0.009
974	0.009
974	0.01
975	0.01
975	0.01
976	0.01
976	0.009
976	0.009
977	0.008
977	0.007
978	0.006
978	0.005
979	0.004
979	0.003
979	0.003
980	0.002
980	0.001
981	0
981	-0
982	-0.001
982	-0.001
982	-0.001
983	-0.002
983	-0.002
984	-0.002
984	-0.002
984	-0.002
985	-0.002
985	-0.002
986	-0.002
986	-0.003
987	-0.003
987	-0.003
987	-0.003
988	-0.003
988	-0.003
989	-0.004
989	-0.004
990	-0.004
990	-0.004
990	-0.004
991	-0.004
991	-0.004
992	-0.004
992	-0.004
992	-0.005
993	-0.005
993	-0.005
994	-0.006
994	-0.006
995	-0.006
995	-0.007
995	-0.007
996	-0.008
996	-0.008
997	-0.008
997	-0.008
997	-0.008
998	-0.008
998	-0.007
999	-0.007
999	-0.006
1000	-0.005
1000	-0.004
1000	-0.003
1001	-0.002
1001	-0.001
1002	-0.001
1002	-0.001
1003	-0
1003	-0
1003	-0
1004	-0.001
1004	-0.001
1005	-0.001
1005	-0.002
1005	-0.002
1006	-0.003
1006	-0.003
1007	-0.003
1007	-0.003
1008	-0.002
1008	-0.002
1008	-0.002
1009	-0.002
1009	-0.002
1010	-0.001
1010	-0.001
1010	0
1011	0.001
1011	0.002
1012	0.003
1012	0.003
1013	0.004
1013	0.005
1013	0.006
1014	0.006
1014	0.007
1015	0.007
1015	0.007
1016	0.007
1016	0.007
1016	0.007
1017	0.008
1017	0.008
1018	0.008
1018	0.008
1018	0.008
1019	0.008
1019	0.008
1020	0.008
1020	0.007
1021	0.007
1021	0.007
1021	0.006
1022	0.006
1022	0.006
1023	0.006
1023	0.005
1023	0.005
1024	0.005
1024	0.005
1025	0.005
1025	0.005
1026	0.006
1026	0.006
1026	0.006
1027	0.006
1027	0.006
1028	0.006
1028	0.006
1028	0.006
1029	0.007
1029	0.007
1030	0.007
1030	0.007
1031	0.007
1031	0.007
1031	0.007
1032	0.008
1032	0.008
1033	0.008
1033	0.008
1033	0.008
1034	0.008
1034	0.008
1035	0.008
1035	0.008
1036	0.008
1036	0.008
1036	0.009
1037	0.009
1037	0.01
1038	0.01
1038	0.011
1039	0.012
1039	0.012
1039	0.013
1040	0.014
1040	0.014
1041	0.015
1041	0.016
1041	0.016
1042	0.017
1042	0.017
1043	0.018
1043	0.018
1044	0.019
1044	0.019
1044	0.02
1045	0.02
1045	0.021
1046	0.022
1046	0.022
1046	0.024
1047	0.025
1047	0.026
1048	0.027
1048	0.029
1049	0.029
1049	0.03
1049	0.031
1050	0.031
1050	0.032
1051	0.032
1051	0.032
1051	0.032
1052	0.032
1052	0.031
1053	0.031
1053	0.03
1053	0.029
1054	0.029
1054	0.028
1055	0.028
1055	0.027
1056	0.026
1056	0.025
1056	0.025
1057	0.024
1057	0.024
1058	0.024
1058	0.024
1058	0.024
1059	0.025
1059	0.025
1060	0.026
1060	0.027
1061	0.027
1061	0.028
1061	0.029
1062	0.03
1062	0.031
1063	0.032
1063	0.032
1063	0.033
1064	0.034
1064	0.036
1065	0.037
1065	0.039
1066	0.041
1066	0.043
1066	0.045
1067	0.047
1067	0.049
1068	0.052
1068	0.053
1068	0.055
1069	0.057
1069	0.058
1070	0.06
1070	0.061
1071	0.063
1071	0.064
1071	0.065
1072	0.066
1072	0.067
1073	0.068
1073	0.069
1073	0.07
1074	0.07
1074	0.071
1075	0.071
1075	0.071
1076	0.071
1076	0.072
1076	0.073
1077	0.074
1077	0.075
1078	0.076
1078	0.078
1078	0.08
1079	0.081
1079	0.083
1080	0.085
1080	0.087
1080	0.089
1081	0.091
1081	0.093
1082	0.094
1082	0.096
1083	0.098
1083	0.101
1083	0.104
1084	0.106
1084	0.109
1085	0.112
1085	0.114
1085	0.117
1086	0.119
1086	0.122
1087	0.125
1087	0.128
1088	0.13
1088	0.133
1088	0.137
1089	0.141
1089	0.145
1090	0.15
1090	0.155
1090	0.162
1091	0.169
1091	0.175
1092	0.184
1092	0.192
1092	0.201
1093	0.209
1093	0.218
1094	0.228
1094	0.239
1095	0.251
1095	0.264
1095	0.278
1096	0.292
1096	0.308
1097	0.326
1097	0.344
1097	0.364
1098	0.388
1098	0.415
1099	0.444
1099	0.477
1100	0.513
1100	0.558
1100	0.611
1101	0.675
1101	0.756
1102	0.87
1102	1.036
1102	1.31
1103	2.782
1103	-0
1104	-0
1104	-0
1104	-0
1105	-0
1105	-0
1106	-0
1106	-0
1107	-0
1107	-0
1107	-0
1108	-0
1108	-0
1109	-0
1109	-0
1109	-0
1110	-0
1110	-0
1111	-0
1111	-0
