Data from 15c-2-4a_Absorbance__1125__01125.txt Node

Date: Thu Jan 25 10:41:40 CET 2024
User: Marek
Spectrometer: MAYP115816
Trigger mode: 0
Integration Time (sec): 2.000000E-1
Scans to average: 10
Electric dark correction enabled: true
Nonlinearity correction enabled: true
Boxcar width: 5
XAxis mode: Wavelengths
Number of Pixels in Spectrum: 2068
>>>>>Begin Spectral Data<<<<<
199	-2.172
199	-2.001
200	-1.848
200	-1.725
201	-1.646
201	-1.589
202	-1.506
202	-1.444
203	-1.392
203	-1.345
204	-1.319
204	-1.29
205	-1.27
205	-1.258
205	-1.252
206	-1.248
206	-1.244
207	-1.244
207	-1.24
208	-1.236
208	-1.232
209	-1.227
209	-1.224
210	-1.222
210	-1.219
211	-1.218
211	-1.216
212	-1.213
212	-1.211
213	-1.209
213	-1.209
213	-1.209
214	-1.208
214	-1.207
215	-1.206
215	-1.204
216	-1.201
216	-1.2
217	-1.198
217	-1.195
218	-1.194
218	-1.191
219	-1.188
219	-1.186
220	-1.185
220	-1.18
221	-1.177
221	-1.176
221	-1.172
222	-1.169
222	-1.167
223	-1.163
223	-1.157
224	-1.15
224	-1.141
225	-1.131
225	-1.124
226	-1.112
226	-1.1
227	-1.086
227	-1.072
228	-1.053
228	-1.033
229	-1.012
229	-0.988
229	-0.961
230	-0.932
230	-0.901
231	-0.866
231	-0.826
232	-0.785
232	-0.74
233	-0.693
233	-0.645
234	-0.597
234	-0.546
235	-0.496
235	-0.447
236	-0.398
236	-0.351
236	-0.305
237	-0.261
237	-0.22
238	-0.18
238	-0.143
239	-0.107
239	-0.074
240	-0.043
240	-0.014
241	0.013
241	0.038
242	0.061
242	0.082
243	0.102
243	0.121
243	0.138
244	0.153
244	0.168
245	0.181
245	0.194
246	0.205
246	0.216
247	0.226
247	0.235
248	0.244
248	0.252
249	0.259
249	0.266
250	0.273
250	0.279
250	0.285
251	0.29
251	0.295
252	0.301
252	0.305
253	0.31
253	0.314
254	0.318
254	0.322
255	0.325
255	0.328
256	0.331
256	0.333
257	0.336
257	0.338
258	0.34
258	0.342
258	0.344
259	0.345
259	0.347
260	0.348
260	0.349
261	0.35
261	0.351
262	0.352
262	0.352
263	0.353
263	0.353
264	0.353
264	0.353
265	0.353
265	0.353
265	0.353
266	0.353
266	0.353
267	0.353
267	0.352
268	0.352
268	0.351
269	0.35
269	0.35
270	0.349
270	0.348
271	0.347
271	0.346
272	0.344
272	0.343
272	0.342
273	0.341
273	0.34
274	0.339
274	0.337
275	0.336
275	0.334
276	0.333
276	0.331
277	0.33
277	0.328
278	0.326
278	0.324
278	0.322
279	0.32
279	0.319
280	0.318
280	0.317
281	0.316
281	0.315
282	0.314
282	0.313
283	0.313
283	0.312
284	0.312
284	0.31
285	0.309
285	0.308
285	0.307
286	0.306
286	0.304
287	0.303
287	0.302
288	0.301
288	0.3
289	0.299
289	0.298
290	0.296
290	0.296
291	0.295
291	0.294
292	0.293
292	0.292
292	0.291
293	0.29
293	0.289
294	0.289
294	0.288
295	0.287
295	0.287
296	0.286
296	0.285
297	0.285
297	0.284
298	0.283
298	0.283
298	0.282
299	0.281
299	0.281
300	0.28
300	0.279
301	0.279
301	0.278
302	0.277
302	0.277
303	0.276
303	0.276
304	0.275
304	0.274
305	0.274
305	0.273
305	0.272
306	0.272
306	0.271
307	0.271
307	0.27
308	0.269
308	0.268
309	0.268
309	0.267
310	0.266
310	0.266
311	0.265
311	0.264
311	0.263
312	0.263
312	0.262
313	0.261
313	0.261
314	0.26
314	0.259
315	0.258
315	0.258
316	0.257
316	0.256
317	0.255
317	0.254
318	0.253
318	0.252
318	0.252
319	0.251
319	0.25
320	0.249
320	0.248
321	0.248
321	0.247
322	0.246
322	0.245
323	0.245
323	0.244
324	0.243
324	0.242
324	0.241
325	0.241
325	0.24
326	0.239
326	0.239
327	0.238
327	0.237
328	0.236
328	0.236
329	0.235
329	0.234
330	0.233
330	0.233
330	0.232
331	0.231
331	0.23
332	0.23
332	0.229
333	0.228
333	0.228
334	0.227
334	0.226
335	0.225
335	0.225
336	0.224
336	0.223
336	0.223
337	0.222
337	0.221
338	0.221
338	0.22
339	0.22
339	0.219
340	0.218
340	0.218
341	0.217
341	0.216
342	0.216
342	0.215
342	0.215
343	0.214
343	0.213
344	0.213
344	0.212
345	0.212
345	0.211
346	0.21
346	0.21
347	0.209
347	0.208
348	0.207
348	0.207
348	0.206
349	0.205
349	0.205
350	0.204
350	0.204
351	0.203
351	0.202
352	0.202
352	0.201
353	0.2
353	0.2
354	0.199
354	0.198
354	0.196
355	0.195
355	0.194
356	0.193
356	0.193
357	0.192
357	0.191
358	0.191
358	0.192
359	0.192
359	0.193
360	0.194
360	0.195
360	0.195
361	0.196
361	0.197
362	0.197
362	0.197
363	0.197
363	0.197
364	0.196
364	0.196
365	0.195
365	0.195
366	0.194
366	0.194
366	0.194
367	0.193
367	0.193
368	0.193
368	0.192
369	0.192
369	0.192
370	0.191
370	0.191
371	0.19
371	0.19
372	0.189
372	0.189
372	0.188
373	0.188
373	0.188
374	0.188
374	0.188
375	0.187
375	0.187
376	0.187
376	0.187
377	0.187
377	0.188
378	0.188
378	0.188
378	0.188
379	0.189
379	0.189
380	0.189
380	0.189
381	0.189
381	0.188
382	0.188
382	0.188
383	0.187
383	0.187
383	0.186
384	0.186
384	0.185
385	0.185
385	0.184
386	0.184
386	0.185
387	0.185
387	0.184
388	0.184
388	0.184
389	0.184
389	0.184
389	0.184
390	0.184
390	0.184
391	0.184
391	0.185
392	0.185
392	0.185
393	0.185
393	0.185
394	0.185
394	0.184
394	0.184
395	0.184
395	0.183
396	0.183
396	0.183
397	0.183
397	0.183
398	0.183
398	0.183
399	0.183
399	0.183
400	0.183
400	0.182
400	0.182
401	0.181
401	0.18
402	0.179
402	0.179
403	0.178
403	0.178
404	0.178
404	0.178
405	0.177
405	0.177
405	0.177
406	0.176
406	0.176
407	0.176
407	0.176
408	0.175
408	0.175
409	0.174
409	0.173
410	0.173
410	0.173
411	0.173
411	0.173
411	0.173
412	0.172
412	0.172
413	0.172
413	0.171
414	0.171
414	0.171
415	0.171
415	0.17
416	0.17
416	0.17
416	0.169
417	0.169
417	0.169
418	0.169
418	0.169
419	0.169
419	0.169
420	0.17
420	0.171
421	0.171
421	0.171
421	0.172
422	0.172
422	0.172
423	0.172
423	0.171
424	0.171
424	0.17
425	0.169
425	0.168
426	0.168
426	0.167
427	0.167
427	0.167
427	0.168
428	0.168
428	0.169
429	0.169
429	0.17
430	0.17
430	0.17
431	0.169
431	0.169
432	0.169
432	0.168
432	0.167
433	0.166
433	0.165
434	0.164
434	0.164
435	0.164
435	0.164
436	0.164
436	0.164
437	0.164
437	0.164
437	0.164
438	0.164
438	0.164
439	0.164
439	0.163
440	0.163
440	0.163
441	0.163
441	0.163
442	0.163
442	0.163
442	0.164
443	0.164
443	0.164
444	0.164
444	0.164
445	0.165
445	0.165
446	0.165
446	0.165
447	0.164
447	0.164
447	0.164
448	0.164
448	0.163
449	0.163
449	0.163
450	0.163
450	0.163
451	0.162
451	0.162
452	0.161
452	0.161
452	0.16
453	0.16
453	0.16
454	0.159
454	0.159
455	0.158
455	0.158
456	0.157
456	0.157
457	0.157
457	0.157
458	0.157
458	0.157
458	0.157
459	0.157
459	0.158
460	0.157
460	0.157
461	0.156
461	0.156
462	0.155
462	0.155
463	0.156
463	0.156
463	0.157
464	0.157
464	0.157
465	0.158
465	0.158
466	0.158
466	0.158
467	0.158
467	0.158
467	0.157
468	0.156
468	0.154
469	0.152
469	0.15
470	0.149
470	0.149
471	0.148
471	0.148
472	0.148
472	0.148
472	0.149
473	0.15
473	0.151
474	0.152
474	0.153
475	0.154
475	0.155
476	0.155
476	0.156
477	0.156
477	0.157
477	0.157
478	0.158
478	0.158
479	0.159
479	0.159
480	0.161
480	0.162
481	0.163
481	0.164
482	0.165
482	0.166
482	0.167
483	0.169
483	0.172
484	0.176
484	0.179
485	0.18
485	0.182
486	0.183
486	0.184
487	0.185
487	0.185
487	0.185
488	0.185
488	0.183
489	0.181
489	0.179
490	0.177
490	0.176
491	0.176
491	0.176
492	0.177
492	0.177
492	0.178
493	0.179
493	0.18
494	0.182
494	0.184
495	0.186
495	0.188
496	0.189
496	0.19
496	0.191
497	0.192
497	0.193
498	0.194
498	0.194
499	0.194
499	0.195
500	0.195
500	0.197
501	0.198
501	0.2
501	0.202
502	0.203
502	0.205
503	0.207
503	0.208
504	0.209
504	0.21
505	0.211
505	0.211
506	0.212
506	0.212
506	0.212
507	0.212
507	0.212
508	0.213
508	0.213
509	0.214
509	0.215
510	0.215
510	0.215
511	0.215
511	0.215
511	0.215
512	0.216
512	0.216
513	0.216
513	0.215
514	0.214
514	0.212
515	0.212
515	0.211
515	0.211
516	0.211
516	0.211
517	0.211
517	0.211
518	0.21
518	0.209
519	0.207
519	0.205
520	0.203
520	0.2
520	0.197
521	0.195
521	0.192
522	0.19
522	0.188
523	0.188
523	0.189
524	0.191
524	0.194
524	0.197
525	0.2
525	0.203
526	0.207
526	0.21
527	0.213
527	0.215
528	0.218
528	0.219
529	0.22
529	0.221
529	0.221
530	0.221
530	0.221
531	0.221
531	0.221
532	0.221
532	0.22
533	0.22
533	0.22
533	0.22
534	0.219
534	0.219
535	0.218
535	0.217
536	0.217
536	0.216
537	0.216
537	0.215
538	0.214
538	0.212
538	0.211
539	0.21
539	0.209
540	0.208
540	0.206
541	0.205
541	0.203
542	0.201
542	0.199
542	0.197
543	0.196
543	0.195
544	0.193
544	0.191
545	0.19
545	0.19
546	0.189
546	0.189
547	0.188
547	0.186
547	0.183
548	0.181
548	0.179
549	0.177
549	0.175
550	0.173
550	0.17
551	0.167
551	0.165
551	0.163
552	0.161
552	0.16
553	0.159
553	0.159
554	0.158
554	0.157
555	0.154
555	0.152
556	0.149
556	0.146
556	0.143
557	0.14
557	0.137
558	0.135
558	0.132
559	0.13
559	0.129
560	0.128
560	0.127
560	0.126
561	0.126
561	0.126
562	0.126
562	0.125
563	0.123
563	0.121
564	0.118
564	0.115
564	0.113
565	0.11
565	0.109
566	0.107
566	0.106
567	0.105
567	0.106
568	0.106
568	0.108
568	0.109
569	0.111
569	0.113
570	0.114
570	0.114
571	0.115
571	0.115
572	0.116
572	0.116
573	0.116
573	0.115
573	0.114
574	0.113
574	0.113
575	0.112
575	0.113
576	0.114
576	0.114
577	0.113
577	0.112
577	0.111
578	0.109
578	0.109
579	0.109
579	0.11
580	0.11
580	0.108
581	0.106
581	0.103
581	0.102
582	0.101
582	0.101
583	0.102
583	0.102
584	0.1
584	0.096
585	0.094
585	0.093
585	0.092
586	0.092
586	0.091
587	0.089
587	0.087
588	0.084
588	0.081
589	0.079
589	0.077
590	0.075
590	0.074
590	0.073
591	0.074
591	0.074
592	0.073
592	0.073
593	0.073
593	0.073
594	0.073
594	0.072
594	0.072
595	0.072
595	0.071
596	0.069
596	0.069
597	0.071
597	0.072
598	0.073
598	0.074
598	0.075
599	0.076
599	0.075
600	0.075
600	0.074
601	0.073
601	0.072
602	0.07
602	0.068
602	0.067
603	0.065
603	0.065
604	0.065
604	0.066
605	0.067
605	0.068
606	0.068
606	0.068
606	0.067
607	0.067
607	0.066
608	0.066
608	0.065
609	0.063
609	0.063
610	0.062
610	0.06
610	0.06
611	0.06
611	0.061
612	0.062
612	0.063
613	0.065
613	0.067
614	0.067
614	0.067
614	0.068
615	0.068
615	0.067
616	0.067
616	0.066
617	0.066
617	0.064
618	0.063
618	0.061
618	0.06
619	0.059
619	0.059
620	0.06
620	0.061
621	0.061
621	0.062
622	0.062
622	0.063
622	0.063
623	0.063
623	0.064
624	0.065
624	0.065
625	0.065
625	0.065
626	0.065
626	0.065
626	0.066
627	0.066
627	0.066
628	0.067
628	0.067
629	0.067
629	0.067
630	0.067
630	0.066
630	0.066
631	0.066
631	0.066
632	0.066
632	0.066
633	0.067
633	0.068
634	0.069
634	0.07
634	0.073
635	0.075
635	0.076
636	0.078
636	0.079
637	0.081
637	0.082
638	0.083
638	0.084
638	0.085
639	0.086
639	0.086
640	0.087
640	0.089
641	0.091
641	0.092
642	0.095
642	0.097
642	0.099
643	0.102
643	0.104
644	0.106
644	0.109
645	0.111
645	0.113
646	0.115
646	0.117
646	0.12
647	0.124
647	0.127
648	0.13
648	0.133
649	0.136
649	0.139
650	0.142
650	0.145
650	0.148
651	0.151
651	0.153
652	0.154
652	0.156
653	0.158
653	0.165
653	0.18
654	0.145
654	0.12
655	0.126
655	0.129
656	0.131
656	0.133
657	0.135
657	0.137
657	0.139
658	0.137
658	0.127
659	0.158
659	0.202
660	0.204
660	0.205
661	0.207
661	0.209
661	0.211
662	0.214
662	0.218
663	0.221
663	0.224
664	0.227
664	0.23
665	0.233
665	0.236
665	0.239
666	0.241
666	0.244
667	0.246
667	0.249
668	0.251
668	0.253
669	0.256
669	0.259
669	0.262
670	0.266
670	0.27
671	0.273
671	0.275
672	0.277
672	0.279
672	0.281
673	0.283
673	0.284
674	0.286
674	0.287
675	0.287
675	0.287
676	0.289
676	0.291
676	0.292
677	0.294
677	0.296
678	0.298
678	0.299
679	0.301
679	0.302
680	0.303
680	0.305
680	0.306
681	0.306
681	0.307
682	0.308
682	0.31
683	0.312
683	0.314
684	0.317
684	0.318
684	0.318
685	0.319
685	0.319
686	0.32
686	0.32
687	0.319
687	0.318
687	0.317
688	0.316
688	0.314
689	0.314
689	0.314
690	0.315
690	0.315
691	0.314
691	0.315
691	0.315
692	0.315
692	0.314
693	0.314
693	0.315
694	0.315
694	0.314
695	0.314
695	0.315
695	0.316
696	0.316
696	0.316
697	0.315
697	0.314
698	0.313
698	0.311
698	0.308
699	0.306
699	0.304
700	0.3
700	0.297
701	0.295
701	0.293
702	0.291
702	0.289
702	0.287
703	0.285
703	0.284
704	0.282
704	0.28
705	0.28
705	0.278
705	0.277
706	0.275
706	0.274
707	0.273
707	0.272
708	0.271
708	0.269
709	0.268
709	0.267
709	0.264
710	0.26
710	0.257
711	0.255
711	0.252
712	0.25
712	0.248
713	0.246
713	0.244
713	0.242
714	0.239
714	0.237
715	0.235
715	0.233
716	0.23
716	0.228
716	0.226
717	0.224
717	0.221
718	0.218
718	0.215
719	0.213
719	0.21
720	0.208
720	0.205
720	0.202
721	0.198
721	0.194
722	0.19
722	0.186
723	0.183
723	0.181
723	0.178
724	0.176
724	0.173
725	0.171
725	0.168
726	0.166
726	0.165
727	0.163
727	0.161
727	0.159
728	0.156
728	0.154
729	0.153
729	0.151
730	0.15
730	0.148
730	0.146
731	0.144
731	0.142
732	0.141
732	0.14
733	0.138
733	0.136
734	0.133
734	0.13
734	0.127
735	0.125
735	0.122
736	0.119
736	0.116
737	0.114
737	0.112
737	0.11
738	0.107
738	0.104
739	0.102
739	0.1
740	0.097
740	0.096
741	0.094
741	0.092
741	0.089
742	0.084
742	0.081
743	0.078
743	0.075
744	0.073
744	0.07
744	0.068
745	0.065
745	0.063
746	0.061
746	0.059
747	0.058
747	0.057
748	0.057
748	0.056
748	0.055
749	0.054
749	0.053
750	0.052
750	0.051
751	0.051
751	0.05
751	0.05
752	0.049
752	0.048
753	0.047
753	0.045
754	0.045
754	0.043
754	0.043
755	0.042
755	0.042
756	0.041
756	0.039
757	0.038
757	0.037
758	0.036
758	0.035
758	0.034
759	0.033
759	0.031
760	0.028
760	0.025
761	0.022
761	0.021
761	0.019
762	0.017
762	0.016
763	0.015
763	0.013
764	0.01
764	0.008
764	0.006
765	0.004
765	0.002
766	0.001
766	0
767	-0.001
767	-0.003
768	-0.006
768	-0.009
768	-0.01
769	-0.011
769	-0.012
770	-0.013
770	-0.014
771	-0.016
771	-0.018
771	-0.021
772	-0.023
772	-0.025
773	-0.027
773	-0.03
774	-0.033
774	-0.037
775	-0.04
775	-0.043
775	-0.047
776	-0.051
776	-0.055
777	-0.059
777	-0.063
778	-0.067
778	-0.071
778	-0.075
779	-0.078
779	-0.081
780	-0.085
780	-0.09
781	-0.094
781	-0.1
781	-0.106
782	-0.111
782	-0.117
783	-0.123
783	-0.127
784	-0.131
784	-0.134
784	-0.138
785	-0.141
785	-0.144
786	-0.144
786	-0.142
787	-0.138
787	-0.134
788	-0.133
788	-0.135
788	-0.136
789	-0.139
789	-0.139
790	-0.136
790	-0.135
791	-0.136
791	-0.138
791	-0.14
792	-0.134
792	-0.123
793	-0.117
793	-0.112
794	-0.109
794	-0.111
794	-0.114
795	-0.116
795	-0.115
796	-0.116
796	-0.118
797	-0.127
797	-0.138
797	-0.145
798	-0.151
798	-0.154
799	-0.155
799	-0.156
800	-0.156
800	-0.158
801	-0.161
801	-0.162
801	-0.162
802	-0.163
802	-0.164
803	-0.164
803	-0.164
804	-0.162
804	-0.157
804	-0.15
805	-0.146
805	-0.143
806	-0.141
806	-0.139
807	-0.138
807	-0.137
807	-0.137
808	-0.136
808	-0.137
809	-0.141
809	-0.146
810	-0.149
810	-0.151
810	-0.154
811	-0.157
811	-0.158
812	-0.154
812	-0.151
813	-0.151
813	-0.153
813	-0.154
814	-0.156
814	-0.156
815	-0.155
815	-0.153
816	-0.152
816	-0.152
817	-0.157
817	-0.161
817	-0.162
818	-0.162
818	-0.159
819	-0.153
819	-0.15
820	-0.152
820	-0.153
820	-0.155
821	-0.155
821	-0.153
822	-0.15
822	-0.147
823	-0.144
823	-0.142
823	-0.142
824	-0.139
824	-0.133
825	-0.125
825	-0.115
826	-0.106
826	-0.098
826	-0.092
827	-0.085
827	-0.079
828	-0.074
828	-0.069
829	-0.065
829	-0.06
829	-0.057
830	-0.054
830	-0.051
831	-0.047
831	-0.043
832	-0.04
832	-0.038
832	-0.035
833	-0.033
833	-0.031
834	-0.03
834	-0.029
835	-0.028
835	-0.028
835	-0.029
836	-0.029
836	-0.029
837	-0.028
837	-0.028
838	-0.027
838	-0.027
839	-0.026
839	-0.025
839	-0.024
840	-0.023
840	-0.022
841	-0.021
841	-0.019
842	-0.018
842	-0.017
842	-0.016
843	-0.015
843	-0.014
844	-0.013
844	-0.012
845	-0.012
845	-0.011
845	-0.011
846	-0.01
846	-0.01
847	-0.009
847	-0.008
848	-0.007
848	-0.007
848	-0.006
849	-0.005
849	-0.004
850	-0.003
850	-0.003
851	-0.003
851	-0.002
851	-0.002
852	-0.002
852	-0.002
853	-0.001
853	-0.001
854	-0.001
854	-0.001
854	-0
855	-0
855	-0
856	-0
856	0
857	0
857	0.001
857	0.001
858	0.001
858	0.002
859	0.002
859	0.002
860	0.003
860	0.004
860	0.005
861	0.006
861	0.007
862	0.007
862	0.008
863	0.008
863	0.009
863	0.009
864	0.01
864	0.01
865	0.011
865	0.011
866	0.011
866	0.012
866	0.013
867	0.013
867	0.014
868	0.014
868	0.015
869	0.015
869	0.015
869	0.015
870	0.015
870	0.014
871	0.014
871	0.014
872	0.013
872	0.013
872	0.012
873	0.012
873	0.011
874	0.01
874	0.009
875	0.008
875	0.006
875	0.005
876	0.005
876	0.004
877	0.004
877	0.003
878	0.003
878	0.004
878	0.004
879	0.005
879	0.006
880	0.007
880	0.008
881	0.008
881	0.009
881	0.01
882	0.011
882	0.011
883	0.012
883	0.013
884	0.014
884	0.014
884	0.014
885	0.015
885	0.015
886	0.015
886	0.015
887	0.015
887	0.015
887	0.014
888	0.014
888	0.014
889	0.014
889	0.015
890	0.015
890	0.016
890	0.016
891	0.017
891	0.017
892	0.018
892	0.019
893	0.019
893	0.02
893	0.021
894	0.021
894	0.022
895	0.022
895	0.022
895	0.022
896	0.022
896	0.022
897	0.021
897	0.021
898	0.02
898	0.019
898	0.018
899	0.017
899	0.016
900	0.015
900	0.014
901	0.013
901	0.012
901	0.011
902	0.011
902	0.01
903	0.01
903	0.01
904	0.01
904	0.01
904	0.01
905	0.011
905	0.012
906	0.012
906	0.012
907	0.013
907	0.013
907	0.013
908	0.013
908	0.012
909	0.012
909	0.013
910	0.013
910	0.013
910	0.013
911	0.013
911	0.013
912	0.014
912	0.015
913	0.016
913	0.017
913	0.018
914	0.019
914	0.02
915	0.021
915	0.021
916	0.022
916	0.023
916	0.023
917	0.023
917	0.023
918	0.023
918	0.022
918	0.022
919	0.021
919	0.02
920	0.02
920	0.018
921	0.017
921	0.016
921	0.016
922	0.015
922	0.014
923	0.013
923	0.013
924	0.012
924	0.012
924	0.012
925	0.012
925	0.012
926	0.012
926	0.013
927	0.013
927	0.013
927	0.014
928	0.015
928	0.015
929	0.016
929	0.017
930	0.017
930	0.017
930	0.017
931	0.017
931	0.017
932	0.017
932	0.017
933	0.017
933	0.017
933	0.017
934	0.017
934	0.017
935	0.018
935	0.018
935	0.018
936	0.019
936	0.019
937	0.019
937	0.018
938	0.018
938	0.017
938	0.017
939	0.016
939	0.016
940	0.015
940	0.016
941	0.016
941	0.016
941	0.017
942	0.017
942	0.018
943	0.019
943	0.019
944	0.02
944	0.021
944	0.022
945	0.023
945	0.023
946	0.024
946	0.025
946	0.025
947	0.026
947	0.026
948	0.026
948	0.026
949	0.026
949	0.025
949	0.025
950	0.024
950	0.024
951	0.023
951	0.023
952	0.022
952	0.022
952	0.022
953	0.023
953	0.023
954	0.023
954	0.023
955	0.023
955	0.023
955	0.023
956	0.023
956	0.023
957	0.023
957	0.022
957	0.022
958	0.022
958	0.021
959	0.021
959	0.021
960	0.021
960	0.021
960	0.021
961	0.021
961	0.021
962	0.021
962	0.021
963	0.021
963	0.021
963	0.021
964	0.02
964	0.02
965	0.02
965	0.019
966	0.019
966	0.018
966	0.018
967	0.017
967	0.017
968	0.016
968	0.016
968	0.016
969	0.016
969	0.016
970	0.016
970	0.016
971	0.016
971	0.017
971	0.017
972	0.018
972	0.019
973	0.019
973	0.02
974	0.021
974	0.021
974	0.022
975	0.022
975	0.023
976	0.023
976	0.023
976	0.022
977	0.021
977	0.021
978	0.019
978	0.019
979	0.018
979	0.017
979	0.016
980	0.016
980	0.015
981	0.015
981	0.015
982	0.014
982	0.014
982	0.014
983	0.014
983	0.014
984	0.014
984	0.014
984	0.013
985	0.013
985	0.013
986	0.012
986	0.012
987	0.011
987	0.011
987	0.011
988	0.011
988	0.011
989	0.011
989	0.011
990	0.011
990	0.011
990	0.011
991	0.012
991	0.012
992	0.012
992	0.012
992	0.012
993	0.011
993	0.011
994	0.011
994	0.01
995	0.009
995	0.009
995	0.008
996	0.008
996	0.007
997	0.007
997	0.006
997	0.006
998	0.006
998	0.006
999	0.006
999	0.007
1000	0.007
1000	0.007
1000	0.008
1001	0.008
1001	0.009
1002	0.009
1002	0.009
1003	0.009
1003	0.009
1003	0.008
1004	0.008
1004	0.008
1005	0.007
1005	0.007
1005	0.006
1006	0.005
1006	0.005
1007	0.005
1007	0.004
1008	0.004
1008	0.004
1008	0.004
1009	0.005
1009	0.005
1010	0.006
1010	0.007
1010	0.008
1011	0.009
1011	0.01
1012	0.011
1012	0.012
1013	0.013
1013	0.014
1013	0.014
1014	0.015
1014	0.015
1015	0.015
1015	0.015
1016	0.015
1016	0.015
1016	0.015
1017	0.016
1017	0.016
1018	0.016
1018	0.017
1018	0.017
1019	0.017
1019	0.017
1020	0.017
1020	0.017
1021	0.017
1021	0.017
1021	0.017
1022	0.017
1022	0.017
1023	0.017
1023	0.016
1023	0.016
1024	0.016
1024	0.016
1025	0.016
1025	0.016
1026	0.016
1026	0.017
1026	0.017
1027	0.017
1027	0.017
1028	0.017
1028	0.017
1028	0.018
1029	0.018
1029	0.018
1030	0.018
1030	0.018
1031	0.019
1031	0.019
1031	0.019
1032	0.018
1032	0.018
1033	0.018
1033	0.018
1033	0.018
1034	0.017
1034	0.017
1035	0.017
1035	0.016
1036	0.016
1036	0.016
1036	0.016
1037	0.016
1037	0.017
1038	0.017
1038	0.017
1039	0.017
1039	0.017
1039	0.018
1040	0.018
1040	0.018
1041	0.019
1041	0.019
1041	0.02
1042	0.02
1042	0.02
1043	0.021
1043	0.022
1044	0.023
1044	0.024
1044	0.026
1045	0.027
1045	0.028
1046	0.029
1046	0.03
1046	0.032
1047	0.034
1047	0.036
1048	0.037
1048	0.039
1049	0.04
1049	0.04
1049	0.041
1050	0.041
1050	0.042
1051	0.042
1051	0.041
1051	0.042
1052	0.041
1052	0.04
1053	0.04
1053	0.039
1053	0.038
1054	0.038
1054	0.037
1055	0.037
1055	0.036
1056	0.035
1056	0.034
1056	0.034
1057	0.033
1057	0.033
1058	0.033
1058	0.032
1058	0.033
1059	0.033
1059	0.033
1060	0.034
1060	0.034
1061	0.035
1061	0.035
1061	0.036
1062	0.036
1062	0.036
1063	0.037
1063	0.037
1063	0.038
1064	0.038
1064	0.04
1065	0.041
1065	0.042
1066	0.044
1066	0.046
1066	0.049
1067	0.051
1067	0.053
1068	0.056
1068	0.058
1068	0.06
1069	0.061
1069	0.063
1070	0.064
1070	0.065
1071	0.067
1071	0.068
1071	0.069
1072	0.07
1072	0.072
1073	0.073
1073	0.075
1073	0.077
1074	0.079
1074	0.08
1075	0.081
1075	0.082
1076	0.082
1076	0.084
1076	0.084
1077	0.085
1077	0.087
1078	0.089
1078	0.09
1078	0.092
1079	0.094
1079	0.096
1080	0.098
1080	0.101
1080	0.103
1081	0.105
1081	0.108
1082	0.11
1082	0.111
1083	0.114
1083	0.116
1083	0.119
1084	0.122
1084	0.125
1085	0.129
1085	0.132
1085	0.135
1086	0.138
1086	0.141
1087	0.144
1087	0.147
1088	0.15
1088	0.153
1088	0.157
1089	0.162
1089	0.167
1090	0.172
1090	0.178
1090	0.185
1091	0.193
1091	0.201
1092	0.21
1092	0.22
1092	0.229
1093	0.239
1093	0.251
1094	0.262
1094	0.274
1095	0.286
1095	0.3
1095	0.317
1096	0.334
1096	0.353
1097	0.375
1097	0.398
1097	0.424
1098	0.452
1098	0.484
1099	0.524
1099	0.57
1100	0.623
1100	0.689
1100	0.767
1101	0.875
1101	1.02
1102	1.286
1102	2.144
1102	-0
1103	-0
1103	-0
1104	-0
1104	-0
1104	-0
1105	-0
1105	-0
1106	-0
1106	-0
1107	-0
1107	-0
1107	-0
1108	-0
1108	-0
1109	-0
1109	-0
1109	-0
1110	-0
1110	-0
1111	-0
1111	-0
