Data from 15c-2-4a_Absorbance__2580__02580.txt Node

Date: Thu Jan 25 11:30:10 CET 2024
User: Marek
Spectrometer: MAYP115816
Trigger mode: 0
Integration Time (sec): 2.000000E-1
Scans to average: 10
Electric dark correction enabled: true
Nonlinearity correction enabled: true
Boxcar width: 5
XAxis mode: Wavelengths
Number of Pixels in Spectrum: 2068
>>>>>Begin Spectral Data<<<<<
199	-2.191
199	-2.021
200	-1.867
200	-1.744
201	-1.666
201	-1.609
202	-1.526
202	-1.465
203	-1.413
203	-1.366
204	-1.34
204	-1.312
205	-1.291
205	-1.279
205	-1.274
206	-1.269
206	-1.266
207	-1.265
207	-1.262
208	-1.257
208	-1.254
209	-1.249
209	-1.245
210	-1.243
210	-1.24
211	-1.239
211	-1.238
212	-1.234
212	-1.232
213	-1.229
213	-1.23
213	-1.23
214	-1.229
214	-1.228
215	-1.226
215	-1.225
216	-1.222
216	-1.221
217	-1.219
217	-1.216
218	-1.215
218	-1.212
219	-1.209
219	-1.207
220	-1.206
220	-1.202
221	-1.199
221	-1.197
221	-1.193
222	-1.19
222	-1.189
223	-1.183
223	-1.177
224	-1.17
224	-1.161
225	-1.151
225	-1.143
226	-1.131
226	-1.119
227	-1.104
227	-1.09
228	-1.07
228	-1.051
229	-1.03
229	-1.006
229	-0.979
230	-0.949
230	-0.918
231	-0.882
231	-0.842
232	-0.8
232	-0.755
233	-0.708
233	-0.659
234	-0.609
234	-0.558
235	-0.507
235	-0.456
236	-0.406
236	-0.358
236	-0.31
237	-0.264
237	-0.22
238	-0.179
238	-0.139
239	-0.102
239	-0.066
240	-0.033
240	-0.002
241	0.027
241	0.054
242	0.079
242	0.103
243	0.125
243	0.145
243	0.164
244	0.181
244	0.197
245	0.212
245	0.226
246	0.239
246	0.251
247	0.262
247	0.272
248	0.281
248	0.29
249	0.298
249	0.306
250	0.313
250	0.321
250	0.327
251	0.333
251	0.339
252	0.344
252	0.349
253	0.354
253	0.359
254	0.363
254	0.367
255	0.371
255	0.375
256	0.378
256	0.381
257	0.383
257	0.386
258	0.388
258	0.39
258	0.392
259	0.393
259	0.395
260	0.396
260	0.398
261	0.398
261	0.399
262	0.4
262	0.401
263	0.402
263	0.402
264	0.402
264	0.402
265	0.402
265	0.402
265	0.402
266	0.402
266	0.402
267	0.401
267	0.401
268	0.4
268	0.399
269	0.399
269	0.398
270	0.397
270	0.395
271	0.394
271	0.392
272	0.391
272	0.39
272	0.389
273	0.387
273	0.386
274	0.385
274	0.383
275	0.381
275	0.38
276	0.379
276	0.377
277	0.374
277	0.372
278	0.37
278	0.368
278	0.366
279	0.364
279	0.362
280	0.361
280	0.36
281	0.359
281	0.357
282	0.357
282	0.356
283	0.355
283	0.354
284	0.353
284	0.352
285	0.351
285	0.35
285	0.348
286	0.347
286	0.345
287	0.344
287	0.342
288	0.341
288	0.34
289	0.338
289	0.337
290	0.336
290	0.335
291	0.333
291	0.332
292	0.331
292	0.33
292	0.329
293	0.328
293	0.327
294	0.326
294	0.325
295	0.324
295	0.323
296	0.322
296	0.321
297	0.32
297	0.319
298	0.318
298	0.317
298	0.316
299	0.316
299	0.315
300	0.314
300	0.313
301	0.312
301	0.311
302	0.31
302	0.31
303	0.309
303	0.308
304	0.307
304	0.306
305	0.305
305	0.304
305	0.303
306	0.303
306	0.302
307	0.301
307	0.3
308	0.299
308	0.298
309	0.298
309	0.297
310	0.296
310	0.295
311	0.294
311	0.293
311	0.292
312	0.291
312	0.291
313	0.29
313	0.288
314	0.287
314	0.286
315	0.285
315	0.285
316	0.283
316	0.282
317	0.281
317	0.28
318	0.279
318	0.279
318	0.278
319	0.277
319	0.276
320	0.275
320	0.274
321	0.273
321	0.272
322	0.271
322	0.27
323	0.269
323	0.268
324	0.267
324	0.266
324	0.265
325	0.264
325	0.263
326	0.262
326	0.261
327	0.26
327	0.26
328	0.259
328	0.258
329	0.257
329	0.256
330	0.255
330	0.255
330	0.254
331	0.253
331	0.252
332	0.251
332	0.25
333	0.249
333	0.248
334	0.247
334	0.246
335	0.246
335	0.245
336	0.244
336	0.243
336	0.243
337	0.242
337	0.241
338	0.24
338	0.239
339	0.239
339	0.238
340	0.237
340	0.236
341	0.235
341	0.235
342	0.234
342	0.233
342	0.232
343	0.232
343	0.231
344	0.23
344	0.229
345	0.229
345	0.228
346	0.227
346	0.227
347	0.226
347	0.225
348	0.224
348	0.224
348	0.223
349	0.222
349	0.221
350	0.22
350	0.22
351	0.219
351	0.218
352	0.217
352	0.216
353	0.215
353	0.214
354	0.213
354	0.212
354	0.211
355	0.21
355	0.209
356	0.208
356	0.207
357	0.207
357	0.207
358	0.206
358	0.207
359	0.208
359	0.208
360	0.209
360	0.21
360	0.21
361	0.211
361	0.211
362	0.211
362	0.211
363	0.211
363	0.211
364	0.21
364	0.21
365	0.209
365	0.209
366	0.208
366	0.208
366	0.207
367	0.207
367	0.207
368	0.206
368	0.206
369	0.205
369	0.205
370	0.204
370	0.204
371	0.203
371	0.203
372	0.202
372	0.202
372	0.201
373	0.201
373	0.2
374	0.2
374	0.2
375	0.2
375	0.2
376	0.2
376	0.2
377	0.2
377	0.2
378	0.2
378	0.2
378	0.201
379	0.201
379	0.201
380	0.201
380	0.201
381	0.2
381	0.2
382	0.199
382	0.199
383	0.199
383	0.198
383	0.197
384	0.197
384	0.196
385	0.196
385	0.195
386	0.195
386	0.195
387	0.196
387	0.195
388	0.195
388	0.195
389	0.195
389	0.194
389	0.194
390	0.194
390	0.194
391	0.195
391	0.195
392	0.195
392	0.195
393	0.195
393	0.194
394	0.194
394	0.194
394	0.194
395	0.193
395	0.193
396	0.192
396	0.192
397	0.192
397	0.193
398	0.192
398	0.192
399	0.192
399	0.192
400	0.191
400	0.191
400	0.19
401	0.19
401	0.189
402	0.188
402	0.187
403	0.186
403	0.186
404	0.186
404	0.186
405	0.185
405	0.185
405	0.184
406	0.184
406	0.184
407	0.184
407	0.184
408	0.183
408	0.183
409	0.182
409	0.181
410	0.181
410	0.181
411	0.181
411	0.181
411	0.181
412	0.18
412	0.18
413	0.18
413	0.179
414	0.179
414	0.179
415	0.179
415	0.178
416	0.178
416	0.177
416	0.177
417	0.176
417	0.176
418	0.176
418	0.176
419	0.176
419	0.177
420	0.177
420	0.178
421	0.178
421	0.178
421	0.178
422	0.178
422	0.178
423	0.178
423	0.178
424	0.177
424	0.176
425	0.175
425	0.174
426	0.174
426	0.173
427	0.173
427	0.173
427	0.173
428	0.174
428	0.175
429	0.175
429	0.176
430	0.176
430	0.176
431	0.175
431	0.175
432	0.175
432	0.174
432	0.173
433	0.172
433	0.171
434	0.17
434	0.17
435	0.17
435	0.17
436	0.17
436	0.17
437	0.169
437	0.169
437	0.169
438	0.169
438	0.169
439	0.169
439	0.168
440	0.167
440	0.167
441	0.167
441	0.167
442	0.167
442	0.167
442	0.168
443	0.168
443	0.168
444	0.168
444	0.168
445	0.169
445	0.169
446	0.169
446	0.169
447	0.168
447	0.168
447	0.168
448	0.168
448	0.167
449	0.167
449	0.167
450	0.167
450	0.167
451	0.166
451	0.166
452	0.165
452	0.165
452	0.164
453	0.164
453	0.163
454	0.163
454	0.162
455	0.162
455	0.161
456	0.161
456	0.161
457	0.161
457	0.161
458	0.161
458	0.16
458	0.161
459	0.161
459	0.161
460	0.16
460	0.16
461	0.159
461	0.159
462	0.158
462	0.159
463	0.159
463	0.16
463	0.16
464	0.161
464	0.161
465	0.161
465	0.161
466	0.162
466	0.162
467	0.162
467	0.161
467	0.16
468	0.159
468	0.157
469	0.155
469	0.153
470	0.152
470	0.152
471	0.151
471	0.151
472	0.151
472	0.151
472	0.152
473	0.153
473	0.154
474	0.155
474	0.156
475	0.157
475	0.158
476	0.159
476	0.159
477	0.16
477	0.16
477	0.161
478	0.161
478	0.161
479	0.162
479	0.162
480	0.163
480	0.164
481	0.165
481	0.166
482	0.167
482	0.168
482	0.17
483	0.172
483	0.175
484	0.179
484	0.182
485	0.184
485	0.186
486	0.187
486	0.188
487	0.189
487	0.189
487	0.19
488	0.189
488	0.187
489	0.185
489	0.182
490	0.181
490	0.18
491	0.179
491	0.18
492	0.181
492	0.181
492	0.182
493	0.183
493	0.184
494	0.186
494	0.189
495	0.191
495	0.193
496	0.194
496	0.195
496	0.197
497	0.197
497	0.199
498	0.199
498	0.2
499	0.2
499	0.201
500	0.201
500	0.203
501	0.204
501	0.206
501	0.208
502	0.209
502	0.211
503	0.213
503	0.214
504	0.216
504	0.216
505	0.217
505	0.217
506	0.218
506	0.218
506	0.219
507	0.219
507	0.219
508	0.22
508	0.221
509	0.221
509	0.222
510	0.222
510	0.222
511	0.222
511	0.223
511	0.223
512	0.224
512	0.224
513	0.223
513	0.221
514	0.22
514	0.219
515	0.219
515	0.219
515	0.219
516	0.219
516	0.218
517	0.218
517	0.217
518	0.217
518	0.215
519	0.213
519	0.21
520	0.207
520	0.203
520	0.2
521	0.198
521	0.195
522	0.194
522	0.193
523	0.194
523	0.196
524	0.199
524	0.203
524	0.207
525	0.211
525	0.214
526	0.217
526	0.219
527	0.222
527	0.224
528	0.226
528	0.227
529	0.227
529	0.227
529	0.227
530	0.226
530	0.226
531	0.225
531	0.226
532	0.225
532	0.225
533	0.224
533	0.224
533	0.224
534	0.224
534	0.223
535	0.222
535	0.221
536	0.221
536	0.22
537	0.219
537	0.218
538	0.216
538	0.215
538	0.213
539	0.212
539	0.211
540	0.21
540	0.209
541	0.207
541	0.205
542	0.203
542	0.201
542	0.2
543	0.198
543	0.197
544	0.195
544	0.194
545	0.192
545	0.192
546	0.191
546	0.191
547	0.189
547	0.187
547	0.184
548	0.182
548	0.179
549	0.176
549	0.174
550	0.172
550	0.169
551	0.166
551	0.163
551	0.161
552	0.159
552	0.158
553	0.157
553	0.156
554	0.155
554	0.153
555	0.151
555	0.148
556	0.145
556	0.141
556	0.138
557	0.135
557	0.132
558	0.129
558	0.127
559	0.125
559	0.124
560	0.123
560	0.123
560	0.122
561	0.122
561	0.122
562	0.122
562	0.121
563	0.119
563	0.117
564	0.114
564	0.111
564	0.108
565	0.105
565	0.103
566	0.102
566	0.1
567	0.099
567	0.099
568	0.1
568	0.101
568	0.103
569	0.105
569	0.107
570	0.108
570	0.108
571	0.109
571	0.11
572	0.11
572	0.11
573	0.11
573	0.109
573	0.108
574	0.107
574	0.106
575	0.106
575	0.106
576	0.107
576	0.107
577	0.106
577	0.105
577	0.104
578	0.102
578	0.102
579	0.102
579	0.103
580	0.103
580	0.101
581	0.098
581	0.096
581	0.094
582	0.093
582	0.093
583	0.094
583	0.093
584	0.091
584	0.088
585	0.086
585	0.085
585	0.084
586	0.084
586	0.083
587	0.081
587	0.079
588	0.076
588	0.073
589	0.071
589	0.069
590	0.067
590	0.066
590	0.066
591	0.066
591	0.066
592	0.066
592	0.065
593	0.065
593	0.065
594	0.065
594	0.064
594	0.064
595	0.063
595	0.062
596	0.061
596	0.061
597	0.063
597	0.064
598	0.065
598	0.066
598	0.067
599	0.068
599	0.067
600	0.067
600	0.066
601	0.065
601	0.063
602	0.061
602	0.06
602	0.058
603	0.056
603	0.056
604	0.056
604	0.057
605	0.058
605	0.059
606	0.06
606	0.06
606	0.059
607	0.059
607	0.059
608	0.059
608	0.057
609	0.056
609	0.055
610	0.054
610	0.053
610	0.052
611	0.052
611	0.053
612	0.054
612	0.055
613	0.057
613	0.058
614	0.059
614	0.059
614	0.059
615	0.059
615	0.058
616	0.058
616	0.057
617	0.057
617	0.055
618	0.053
618	0.052
618	0.051
619	0.05
619	0.05
620	0.051
620	0.052
621	0.053
621	0.053
622	0.054
622	0.055
622	0.055
623	0.055
623	0.056
624	0.057
624	0.057
625	0.057
625	0.057
626	0.057
626	0.057
626	0.058
627	0.058
627	0.058
628	0.059
628	0.059
629	0.06
629	0.06
630	0.06
630	0.06
630	0.06
631	0.06
631	0.061
632	0.061
632	0.061
633	0.062
633	0.062
634	0.063
634	0.065
634	0.067
635	0.069
635	0.07
636	0.072
636	0.073
637	0.074
637	0.075
638	0.076
638	0.077
638	0.079
639	0.079
639	0.08
640	0.08
640	0.082
641	0.083
641	0.085
642	0.087
642	0.09
642	0.092
643	0.094
643	0.096
644	0.099
644	0.102
645	0.104
645	0.106
646	0.109
646	0.112
646	0.115
647	0.119
647	0.123
648	0.126
648	0.128
649	0.131
649	0.135
650	0.138
650	0.141
650	0.144
651	0.147
651	0.149
652	0.151
652	0.153
653	0.156
653	0.164
653	0.18
654	0.146
654	0.121
655	0.127
655	0.13
656	0.132
656	0.135
657	0.137
657	0.139
657	0.141
658	0.139
658	0.128
659	0.16
659	0.205
660	0.205
660	0.207
661	0.209
661	0.211
661	0.214
662	0.217
662	0.22
663	0.223
663	0.227
664	0.23
664	0.233
665	0.235
665	0.238
665	0.241
666	0.244
666	0.247
667	0.25
667	0.253
668	0.256
668	0.259
669	0.262
669	0.265
669	0.269
670	0.274
670	0.278
671	0.281
671	0.283
672	0.286
672	0.288
672	0.289
673	0.291
673	0.293
674	0.294
674	0.295
675	0.295
675	0.295
676	0.297
676	0.298
676	0.3
677	0.301
677	0.303
678	0.305
678	0.306
679	0.308
679	0.309
680	0.311
680	0.312
680	0.313
681	0.313
681	0.314
682	0.315
682	0.317
683	0.319
683	0.321
684	0.323
684	0.324
684	0.324
685	0.324
685	0.324
686	0.325
686	0.325
687	0.324
687	0.323
687	0.322
688	0.32
688	0.319
689	0.318
689	0.319
690	0.32
690	0.321
691	0.321
691	0.321
691	0.322
692	0.322
692	0.322
693	0.321
693	0.322
694	0.321
694	0.319
695	0.319
695	0.319
695	0.32
696	0.319
696	0.318
697	0.317
697	0.316
698	0.315
698	0.313
698	0.31
699	0.308
699	0.306
700	0.302
700	0.299
701	0.297
701	0.295
702	0.294
702	0.292
702	0.29
703	0.288
703	0.286
704	0.284
704	0.283
705	0.282
705	0.281
705	0.28
706	0.279
706	0.278
707	0.277
707	0.275
708	0.274
708	0.273
709	0.272
709	0.27
709	0.267
710	0.263
710	0.26
711	0.257
711	0.254
712	0.251
712	0.248
713	0.246
713	0.244
713	0.241
714	0.238
714	0.236
715	0.233
715	0.231
716	0.228
716	0.226
716	0.224
717	0.221
717	0.219
718	0.216
718	0.213
719	0.21
719	0.208
720	0.205
720	0.202
720	0.199
721	0.195
721	0.191
722	0.187
722	0.183
723	0.179
723	0.177
723	0.174
724	0.171
724	0.169
725	0.166
725	0.164
726	0.162
726	0.16
727	0.158
727	0.156
727	0.155
728	0.152
728	0.15
729	0.149
729	0.148
730	0.147
730	0.145
730	0.143
731	0.141
731	0.14
732	0.138
732	0.136
733	0.134
733	0.131
734	0.128
734	0.125
734	0.122
735	0.119
735	0.116
736	0.112
736	0.109
737	0.106
737	0.104
737	0.101
738	0.098
738	0.095
739	0.093
739	0.091
740	0.088
740	0.086
741	0.084
741	0.082
741	0.079
742	0.074
742	0.07
743	0.067
743	0.064
744	0.061
744	0.058
744	0.055
745	0.053
745	0.05
746	0.048
746	0.047
747	0.046
747	0.045
748	0.045
748	0.044
748	0.044
749	0.043
749	0.042
750	0.041
750	0.04
751	0.039
751	0.038
751	0.038
752	0.038
752	0.036
753	0.035
753	0.034
754	0.034
754	0.033
754	0.032
755	0.032
755	0.033
756	0.032
756	0.03
757	0.028
757	0.027
758	0.025
758	0.023
758	0.022
759	0.02
759	0.017
760	0.013
760	0.01
761	0.006
761	0.005
761	0.003
762	0.001
762	0
763	0
763	-0.001
764	-0.003
764	-0.005
764	-0.007
765	-0.008
765	-0.01
766	-0.011
766	-0.012
767	-0.013
767	-0.015
768	-0.018
768	-0.02
768	-0.022
769	-0.023
769	-0.023
770	-0.024
770	-0.026
771	-0.028
771	-0.03
771	-0.032
772	-0.034
772	-0.036
773	-0.038
773	-0.041
774	-0.044
774	-0.047
775	-0.051
775	-0.054
775	-0.058
776	-0.062
776	-0.066
777	-0.07
777	-0.073
778	-0.078
778	-0.082
778	-0.086
779	-0.089
779	-0.091
780	-0.095
780	-0.099
781	-0.104
781	-0.108
781	-0.113
782	-0.117
782	-0.123
783	-0.127
783	-0.13
784	-0.134
784	-0.137
784	-0.139
785	-0.141
785	-0.143
786	-0.144
786	-0.142
787	-0.138
787	-0.134
788	-0.133
788	-0.134
788	-0.136
789	-0.138
789	-0.138
790	-0.136
790	-0.135
791	-0.135
791	-0.137
791	-0.139
792	-0.134
792	-0.123
793	-0.116
793	-0.111
794	-0.109
794	-0.11
794	-0.113
795	-0.115
795	-0.115
796	-0.115
796	-0.118
797	-0.126
797	-0.137
797	-0.144
798	-0.15
798	-0.154
799	-0.155
799	-0.155
800	-0.155
800	-0.157
801	-0.16
801	-0.161
801	-0.161
802	-0.162
802	-0.163
803	-0.164
803	-0.163
804	-0.162
804	-0.156
804	-0.149
805	-0.145
805	-0.143
806	-0.14
806	-0.139
807	-0.138
807	-0.137
807	-0.136
808	-0.136
808	-0.136
809	-0.14
809	-0.145
810	-0.148
810	-0.151
810	-0.154
811	-0.157
811	-0.157
812	-0.153
812	-0.151
813	-0.151
813	-0.152
813	-0.154
814	-0.155
814	-0.156
815	-0.154
815	-0.152
816	-0.151
816	-0.152
817	-0.157
817	-0.161
817	-0.162
818	-0.161
818	-0.158
819	-0.153
819	-0.15
820	-0.151
820	-0.153
820	-0.154
821	-0.154
821	-0.153
822	-0.152
822	-0.15
823	-0.148
823	-0.147
823	-0.149
824	-0.148
824	-0.143
825	-0.136
825	-0.129
826	-0.121
826	-0.114
826	-0.108
827	-0.101
827	-0.095
828	-0.09
828	-0.085
829	-0.08
829	-0.075
829	-0.071
830	-0.068
830	-0.064
831	-0.06
831	-0.055
832	-0.052
832	-0.048
832	-0.045
833	-0.043
833	-0.041
834	-0.039
834	-0.038
835	-0.037
835	-0.037
835	-0.037
836	-0.037
836	-0.037
837	-0.037
837	-0.037
838	-0.037
838	-0.037
839	-0.037
839	-0.037
839	-0.036
840	-0.036
840	-0.035
841	-0.034
841	-0.034
842	-0.033
842	-0.032
842	-0.032
843	-0.031
843	-0.03
844	-0.029
844	-0.028
845	-0.027
845	-0.027
845	-0.026
846	-0.025
846	-0.024
847	-0.022
847	-0.021
848	-0.019
848	-0.018
848	-0.016
849	-0.015
849	-0.014
850	-0.013
850	-0.012
851	-0.012
851	-0.011
851	-0.011
852	-0.011
852	-0.011
853	-0.011
853	-0.011
854	-0.011
854	-0.011
854	-0.011
855	-0.011
855	-0.011
856	-0.011
856	-0.011
857	-0.01
857	-0.01
857	-0.009
858	-0.009
858	-0.009
859	-0.008
859	-0.008
860	-0.007
860	-0.006
860	-0.005
861	-0.004
861	-0.004
862	-0.004
862	-0.003
863	-0.003
863	-0.002
863	-0.002
864	-0.002
864	-0.002
865	-0.002
865	-0.002
866	-0.002
866	-0.002
866	-0.002
867	-0.002
867	-0.002
868	-0.002
868	-0.002
869	-0.002
869	-0.002
869	-0.002
870	-0.002
870	-0.002
871	-0.002
871	-0.003
872	-0.004
872	-0.004
872	-0.004
873	-0.005
873	-0.005
874	-0.006
874	-0.006
875	-0.007
875	-0.007
875	-0.008
876	-0.008
876	-0.008
877	-0.008
877	-0.008
878	-0.008
878	-0.008
878	-0.008
879	-0.007
879	-0.006
880	-0.006
880	-0.004
881	-0.004
881	-0.002
881	-0.001
882	-0
882	0.001
883	0.002
883	0.003
884	0.004
884	0.005
884	0.005
885	0.006
885	0.006
886	0.006
886	0.006
887	0.006
887	0.006
887	0.005
888	0.005
888	0.005
889	0.005
889	0.006
890	0.006
890	0.007
890	0.007
891	0.008
891	0.008
892	0.009
892	0.009
893	0.01
893	0.011
893	0.011
894	0.011
894	0.011
895	0.011
895	0.011
895	0.011
896	0.011
896	0.01
897	0.01
897	0.009
898	0.008
898	0.008
898	0.007
899	0.006
899	0.006
900	0.005
900	0.004
901	0.004
901	0.003
901	0.003
902	0.002
902	0.002
903	0.001
903	0.001
904	0.001
904	0.001
904	0.001
905	0.001
905	0.001
906	0.002
906	0.002
907	0.002
907	0.002
907	0.002
908	0.001
908	0.001
909	0.001
909	0
910	-0
910	-0
910	-0.001
911	-0.001
911	-0.001
912	-0.001
912	-0
913	0.001
913	0.002
913	0.003
914	0.004
914	0.006
915	0.007
915	0.008
916	0.01
916	0.011
916	0.011
917	0.012
917	0.013
918	0.013
918	0.013
918	0.013
919	0.013
919	0.013
920	0.012
920	0.011
921	0.011
921	0.01
921	0.009
922	0.008
922	0.007
923	0.005
923	0.004
924	0.003
924	0.003
924	0.002
925	0.002
925	0.002
926	0.002
926	0.002
927	0.002
927	0.003
927	0.003
928	0.004
928	0.005
929	0.006
929	0.006
930	0.007
930	0.007
930	0.008
931	0.008
931	0.009
932	0.009
932	0.01
933	0.01
933	0.011
933	0.011
934	0.012
934	0.012
935	0.013
935	0.013
935	0.013
936	0.013
936	0.013
937	0.013
937	0.013
938	0.013
938	0.013
938	0.013
939	0.013
939	0.013
940	0.013
940	0.014
941	0.015
941	0.015
941	0.016
942	0.017
942	0.018
943	0.019
943	0.019
944	0.02
944	0.021
944	0.022
945	0.022
945	0.023
946	0.024
946	0.024
946	0.024
947	0.025
947	0.024
948	0.024
948	0.023
949	0.023
949	0.022
949	0.021
950	0.02
950	0.019
951	0.018
951	0.018
952	0.017
952	0.017
952	0.017
953	0.016
953	0.016
954	0.016
954	0.016
955	0.017
955	0.017
955	0.017
956	0.018
956	0.018
957	0.018
957	0.018
957	0.018
958	0.018
958	0.019
959	0.019
959	0.019
960	0.019
960	0.019
960	0.019
961	0.018
961	0.018
962	0.018
962	0.018
963	0.018
963	0.018
963	0.017
964	0.017
964	0.016
965	0.016
965	0.015
966	0.015
966	0.014
966	0.014
967	0.013
967	0.012
968	0.012
968	0.012
968	0.012
969	0.012
969	0.011
970	0.011
970	0.011
971	0.011
971	0.012
971	0.012
972	0.013
972	0.013
973	0.014
973	0.014
974	0.014
974	0.015
974	0.015
975	0.015
975	0.015
976	0.015
976	0.014
976	0.013
977	0.013
977	0.012
978	0.01
978	0.009
979	0.008
979	0.007
979	0.006
980	0.006
980	0.005
981	0.004
981	0.004
982	0.004
982	0.004
982	0.004
983	0.004
983	0.004
984	0.004
984	0.004
984	0.004
985	0.004
985	0.004
986	0.003
986	0.003
987	0.002
987	0.002
987	0.001
988	0.002
988	0.002
989	0.002
989	0.002
990	0.003
990	0.003
990	0.005
991	0.006
991	0.007
992	0.008
992	0.009
992	0.009
993	0.01
993	0.01
994	0.01
994	0.01
995	0.01
995	0.01
995	0.009
996	0.009
996	0.008
997	0.007
997	0.006
997	0.005
998	0.005
998	0.004
999	0.004
999	0.004
1000	0.003
1000	0.003
1000	0.003
1001	0.003
1001	0.004
1002	0.004
1002	0.003
1003	0.003
1003	0.003
1003	0.003
1004	0.002
1004	0.002
1005	0.002
1005	0.001
1005	0.001
1006	0
1006	-0
1007	-0
1007	-0
1008	-0
1008	0
1008	0.001
1009	0.001
1009	0.002
1010	0.003
1010	0.004
1010	0.005
1011	0.006
1011	0.006
1012	0.007
1012	0.008
1013	0.008
1013	0.008
1013	0.008
1014	0.008
1014	0.008
1015	0.008
1015	0.007
1016	0.007
1016	0.006
1016	0.006
1017	0.006
1017	0.006
1018	0.006
1018	0.006
1018	0.007
1019	0.007
1019	0.008
1020	0.008
1020	0.009
1021	0.009
1021	0.009
1021	0.01
1022	0.01
1022	0.01
1023	0.01
1023	0.01
1023	0.01
1024	0.01
1024	0.01
1025	0.01
1025	0.01
1026	0.011
1026	0.011
1026	0.012
1027	0.012
1027	0.012
1028	0.012
1028	0.012
1028	0.012
1029	0.012
1029	0.012
1030	0.011
1030	0.01
1031	0.01
1031	0.009
1031	0.008
1032	0.007
1032	0.006
1033	0.006
1033	0.005
1033	0.005
1034	0.004
1034	0.003
1035	0.003
1035	0.003
1036	0.003
1036	0.003
1036	0.003
1037	0.004
1037	0.005
1038	0.005
1038	0.006
1039	0.007
1039	0.008
1039	0.009
1040	0.01
1040	0.01
1041	0.011
1041	0.012
1041	0.013
1042	0.013
1042	0.014
1043	0.015
1043	0.016
1044	0.017
1044	0.017
1044	0.018
1045	0.019
1045	0.02
1046	0.021
1046	0.023
1046	0.025
1047	0.026
1047	0.027
1048	0.029
1048	0.03
1049	0.031
1049	0.031
1049	0.032
1050	0.032
1050	0.032
1051	0.032
1051	0.032
1051	0.032
1052	0.031
1052	0.031
1053	0.03
1053	0.03
1053	0.03
1054	0.029
1054	0.029
1055	0.029
1055	0.029
1056	0.028
1056	0.027
1056	0.026
1057	0.026
1057	0.025
1058	0.025
1058	0.025
1058	0.025
1059	0.024
1059	0.024
1060	0.025
1060	0.025
1061	0.025
1061	0.026
1061	0.027
1062	0.027
1062	0.028
1063	0.028
1063	0.029
1063	0.03
1064	0.031
1064	0.033
1065	0.035
1065	0.037
1066	0.039
1066	0.041
1066	0.044
1067	0.047
1067	0.049
1068	0.052
1068	0.053
1068	0.055
1069	0.056
1069	0.057
1070	0.058
1070	0.059
1071	0.06
1071	0.061
1071	0.062
1072	0.063
1072	0.064
1073	0.066
1073	0.067
1073	0.068
1074	0.069
1074	0.07
1075	0.07
1075	0.071
1076	0.071
1076	0.073
1076	0.073
1077	0.074
1077	0.075
1078	0.076
1078	0.078
1078	0.08
1079	0.083
1079	0.085
1080	0.087
1080	0.09
1080	0.092
1081	0.095
1081	0.098
1082	0.1
1082	0.102
1083	0.104
1083	0.107
1083	0.11
1084	0.113
1084	0.117
1085	0.121
1085	0.124
1085	0.128
1086	0.131
1086	0.134
1087	0.139
1087	0.142
1088	0.146
1088	0.149
1088	0.154
1089	0.159
1089	0.164
1090	0.17
1090	0.177
1090	0.184
1091	0.192
1091	0.202
1092	0.211
1092	0.223
1092	0.234
1093	0.244
1093	0.257
1094	0.27
1094	0.284
1095	0.298
1095	0.314
1095	0.333
1096	0.353
1096	0.373
1097	0.399
1097	0.424
1097	0.453
1098	0.484
1098	0.519
1099	0.561
1099	0.609
1100	0.668
1100	0.739
1100	0.827
1101	0.954
1101	1.136
1102	1.539
1102	-0
1102	-0
1103	-0
1103	-0
1104	-0
1104	-0
1104	-0
1105	-0
1105	-0
1106	-0
1106	-0
1107	-0
1107	-0
1107	-0
1108	-0
1108	-0
1109	-0
1109	-0
1109	-0
1110	-0
1110	-0
1111	-0
1111	-0
