Data from 15c-2-4a_Absorbance__230__00230.txt Node

Date: Thu Jan 25 10:11:50 CET 2024
User: Marek
Spectrometer: MAYP115816
Trigger mode: 0
Integration Time (sec): 2.000000E-1
Scans to average: 10
Electric dark correction enabled: true
Nonlinearity correction enabled: true
Boxcar width: 5
XAxis mode: Wavelengths
Number of Pixels in Spectrum: 2068
>>>>>Begin Spectral Data<<<<<
199	-2.109
199	-1.938
200	-1.784
200	-1.661
201	-1.583
201	-1.526
202	-1.443
202	-1.381
203	-1.328
203	-1.281
204	-1.256
204	-1.228
205	-1.207
205	-1.196
205	-1.189
206	-1.185
206	-1.181
207	-1.181
207	-1.177
208	-1.172
208	-1.168
209	-1.164
209	-1.16
210	-1.158
210	-1.156
211	-1.155
211	-1.154
212	-1.15
212	-1.148
213	-1.146
213	-1.147
213	-1.147
214	-1.145
214	-1.144
215	-1.142
215	-1.141
216	-1.138
216	-1.136
217	-1.135
217	-1.132
218	-1.13
218	-1.128
219	-1.126
219	-1.123
220	-1.123
220	-1.118
221	-1.115
221	-1.113
221	-1.11
222	-1.107
222	-1.106
223	-1.101
223	-1.094
224	-1.087
224	-1.078
225	-1.069
225	-1.061
226	-1.051
226	-1.039
227	-1.025
227	-1.012
228	-0.993
228	-0.974
229	-0.954
229	-0.931
229	-0.906
230	-0.878
230	-0.849
231	-0.815
231	-0.779
232	-0.74
232	-0.698
233	-0.656
233	-0.613
234	-0.569
234	-0.525
235	-0.481
235	-0.439
236	-0.397
236	-0.358
236	-0.32
237	-0.285
237	-0.252
238	-0.221
238	-0.193
239	-0.167
239	-0.142
240	-0.12
240	-0.099
241	-0.081
241	-0.063
242	-0.048
242	-0.034
243	-0.021
243	-0.009
243	0.003
244	0.013
244	0.022
245	0.03
245	0.038
246	0.045
246	0.052
247	0.058
247	0.064
248	0.069
248	0.074
249	0.079
249	0.083
250	0.087
250	0.092
250	0.095
251	0.099
251	0.102
252	0.106
252	0.109
253	0.112
253	0.115
254	0.118
254	0.12
255	0.122
255	0.124
256	0.126
256	0.128
257	0.13
257	0.132
258	0.133
258	0.134
258	0.135
259	0.136
259	0.137
260	0.138
260	0.139
261	0.139
261	0.14
262	0.14
262	0.14
263	0.14
263	0.14
264	0.14
264	0.14
265	0.14
265	0.14
265	0.139
266	0.139
266	0.138
267	0.138
267	0.137
268	0.137
268	0.136
269	0.135
269	0.134
270	0.133
270	0.132
271	0.131
271	0.13
272	0.129
272	0.128
272	0.126
273	0.125
273	0.124
274	0.122
274	0.121
275	0.119
275	0.118
276	0.116
276	0.115
277	0.113
277	0.112
278	0.11
278	0.109
278	0.107
279	0.106
279	0.105
280	0.103
280	0.102
281	0.101
281	0.1
282	0.1
282	0.098
283	0.098
283	0.097
284	0.096
284	0.095
285	0.093
285	0.092
285	0.091
286	0.09
286	0.089
287	0.088
287	0.087
288	0.086
288	0.085
289	0.084
289	0.083
290	0.083
290	0.082
291	0.081
291	0.08
292	0.08
292	0.079
292	0.078
293	0.077
293	0.077
294	0.077
294	0.076
295	0.076
295	0.075
296	0.075
296	0.074
297	0.074
297	0.074
298	0.073
298	0.073
298	0.073
299	0.072
299	0.072
300	0.072
300	0.071
301	0.071
301	0.071
302	0.07
302	0.07
303	0.07
303	0.07
304	0.07
304	0.069
305	0.069
305	0.069
305	0.069
306	0.068
306	0.068
307	0.068
307	0.068
308	0.068
308	0.067
309	0.067
309	0.067
310	0.067
310	0.066
311	0.066
311	0.066
311	0.066
312	0.065
312	0.065
313	0.065
313	0.065
314	0.064
314	0.064
315	0.063
315	0.063
316	0.063
316	0.063
317	0.062
317	0.062
318	0.062
318	0.061
318	0.061
319	0.061
319	0.061
320	0.06
320	0.06
321	0.059
321	0.059
322	0.059
322	0.058
323	0.058
323	0.058
324	0.057
324	0.057
324	0.057
325	0.056
325	0.056
326	0.056
326	0.056
327	0.055
327	0.055
328	0.055
328	0.055
329	0.054
329	0.054
330	0.054
330	0.053
330	0.053
331	0.052
331	0.052
332	0.052
332	0.051
333	0.051
333	0.051
334	0.05
334	0.05
335	0.049
335	0.049
336	0.049
336	0.049
336	0.049
337	0.048
337	0.048
338	0.048
338	0.048
339	0.048
339	0.047
340	0.047
340	0.046
341	0.046
341	0.046
342	0.045
342	0.045
342	0.045
343	0.044
343	0.044
344	0.043
344	0.043
345	0.043
345	0.042
346	0.042
346	0.042
347	0.041
347	0.041
348	0.04
348	0.04
348	0.04
349	0.039
349	0.039
350	0.039
350	0.038
351	0.038
351	0.037
352	0.037
352	0.037
353	0.036
353	0.036
354	0.035
354	0.034
354	0.034
355	0.033
355	0.033
356	0.032
356	0.032
357	0.032
357	0.032
358	0.032
358	0.032
359	0.033
359	0.033
360	0.034
360	0.034
360	0.034
361	0.035
361	0.035
362	0.035
362	0.035
363	0.035
363	0.035
364	0.035
364	0.034
365	0.034
365	0.034
366	0.033
366	0.033
366	0.033
367	0.033
367	0.033
368	0.033
368	0.032
369	0.032
369	0.032
370	0.032
370	0.032
371	0.032
371	0.031
372	0.031
372	0.031
372	0.031
373	0.031
373	0.03
374	0.031
374	0.031
375	0.03
375	0.03
376	0.03
376	0.03
377	0.03
377	0.031
378	0.031
378	0.031
378	0.031
379	0.031
379	0.031
380	0.031
380	0.031
381	0.031
381	0.031
382	0.031
382	0.031
383	0.031
383	0.031
383	0.03
384	0.03
384	0.03
385	0.03
385	0.029
386	0.03
386	0.03
387	0.03
387	0.03
388	0.03
388	0.03
389	0.03
389	0.03
389	0.03
390	0.03
390	0.031
391	0.031
391	0.031
392	0.031
392	0.031
393	0.031
393	0.031
394	0.03
394	0.03
394	0.03
395	0.03
395	0.03
396	0.03
396	0.03
397	0.03
397	0.03
398	0.03
398	0.03
399	0.03
399	0.03
400	0.03
400	0.03
400	0.03
401	0.029
401	0.029
402	0.029
402	0.028
403	0.028
403	0.028
404	0.028
404	0.028
405	0.027
405	0.027
405	0.027
406	0.027
406	0.026
407	0.026
407	0.026
408	0.026
408	0.026
409	0.025
409	0.025
410	0.025
410	0.025
411	0.025
411	0.025
411	0.025
412	0.025
412	0.025
413	0.025
413	0.024
414	0.024
414	0.024
415	0.024
415	0.024
416	0.024
416	0.024
416	0.024
417	0.024
417	0.024
418	0.024
418	0.024
419	0.024
419	0.025
420	0.025
420	0.026
421	0.026
421	0.026
421	0.026
422	0.026
422	0.026
423	0.026
423	0.026
424	0.025
424	0.025
425	0.024
425	0.024
426	0.024
426	0.023
427	0.023
427	0.023
427	0.024
428	0.024
428	0.025
429	0.025
429	0.025
430	0.025
430	0.025
431	0.025
431	0.025
432	0.025
432	0.024
432	0.024
433	0.023
433	0.023
434	0.022
434	0.022
435	0.022
435	0.022
436	0.022
436	0.022
437	0.022
437	0.022
437	0.022
438	0.022
438	0.022
439	0.022
439	0.022
440	0.021
440	0.021
441	0.021
441	0.021
442	0.021
442	0.021
442	0.022
443	0.022
443	0.022
444	0.022
444	0.022
445	0.023
445	0.023
446	0.023
446	0.023
447	0.023
447	0.023
447	0.022
448	0.022
448	0.022
449	0.022
449	0.022
450	0.022
450	0.022
451	0.021
451	0.021
452	0.021
452	0.02
452	0.02
453	0.02
453	0.019
454	0.019
454	0.018
455	0.018
455	0.018
456	0.017
456	0.017
457	0.017
457	0.017
458	0.017
458	0.017
458	0.017
459	0.017
459	0.017
460	0.017
460	0.016
461	0.016
461	0.016
462	0.015
462	0.016
463	0.016
463	0.016
463	0.016
464	0.017
464	0.017
465	0.017
465	0.017
466	0.017
466	0.017
467	0.017
467	0.016
467	0.016
468	0.015
468	0.013
469	0.012
469	0.011
470	0.01
470	0.01
471	0.009
471	0.009
472	0.009
472	0.008
472	0.009
473	0.009
473	0.01
474	0.011
474	0.011
475	0.011
475	0.012
476	0.012
476	0.012
477	0.013
477	0.013
477	0.013
478	0.013
478	0.013
479	0.014
479	0.014
480	0.015
480	0.015
481	0.016
481	0.016
482	0.016
482	0.017
482	0.018
483	0.019
483	0.02
484	0.022
484	0.024
485	0.025
485	0.025
486	0.026
486	0.026
487	0.026
487	0.026
487	0.026
488	0.025
488	0.024
489	0.022
489	0.021
490	0.02
490	0.019
491	0.018
491	0.018
492	0.018
492	0.018
492	0.019
493	0.019
493	0.019
494	0.02
494	0.021
495	0.022
495	0.022
496	0.022
496	0.023
496	0.023
497	0.023
497	0.023
498	0.023
498	0.023
499	0.023
499	0.023
500	0.022
500	0.023
501	0.023
501	0.024
501	0.025
502	0.025
502	0.026
503	0.027
503	0.028
504	0.029
504	0.029
505	0.029
505	0.029
506	0.029
506	0.029
506	0.029
507	0.029
507	0.029
508	0.028
508	0.028
509	0.028
509	0.028
510	0.028
510	0.028
511	0.028
511	0.028
511	0.028
512	0.028
512	0.028
513	0.027
513	0.027
514	0.027
514	0.026
515	0.025
515	0.025
515	0.024
516	0.023
516	0.023
517	0.023
517	0.023
518	0.023
518	0.023
519	0.022
519	0.022
520	0.021
520	0.019
520	0.018
521	0.016
521	0.015
522	0.013
522	0.011
523	0.009
523	0.008
524	0.009
524	0.01
524	0.011
525	0.012
525	0.014
526	0.016
526	0.018
527	0.02
527	0.022
528	0.024
528	0.025
529	0.026
529	0.026
529	0.026
530	0.027
530	0.027
531	0.027
531	0.027
532	0.027
532	0.028
533	0.028
533	0.028
533	0.028
534	0.028
534	0.028
535	0.028
535	0.027
536	0.028
536	0.028
537	0.028
537	0.027
538	0.027
538	0.027
538	0.026
539	0.026
539	0.026
540	0.025
540	0.025
541	0.024
541	0.024
542	0.023
542	0.023
542	0.022
543	0.022
543	0.022
544	0.022
544	0.021
545	0.021
545	0.021
546	0.022
546	0.022
547	0.022
547	0.021
547	0.02
548	0.019
548	0.018
549	0.017
549	0.016
550	0.015
550	0.014
551	0.013
551	0.012
551	0.011
552	0.01
552	0.01
553	0.01
553	0.011
554	0.011
554	0.011
555	0.01
555	0.009
556	0.008
556	0.007
556	0.005
557	0.004
557	0.003
558	0.002
558	0.001
559	0.001
559	0
560	0
560	0
560	0.001
561	0.001
561	0.002
562	0.003
562	0.003
563	0.002
563	0.002
564	0
564	-0.001
564	-0.002
565	-0.003
565	-0.004
566	-0.004
566	-0.005
567	-0.005
567	-0.004
568	-0.003
568	-0.002
568	-0
569	0.002
569	0.003
570	0.005
570	0.006
571	0.007
571	0.008
572	0.008
572	0.009
573	0.009
573	0.01
573	0.01
574	0.01
574	0.01
575	0.01
575	0.011
576	0.012
576	0.013
577	0.013
577	0.013
577	0.012
578	0.012
578	0.012
579	0.013
579	0.014
580	0.014
580	0.014
581	0.013
581	0.012
581	0.011
582	0.011
582	0.011
583	0.012
583	0.012
584	0.011
584	0.01
585	0.009
585	0.008
585	0.008
586	0.008
586	0.008
587	0.007
587	0.006
588	0.004
588	0.002
589	0.001
589	-0
590	-0.001
590	-0.002
590	-0.002
591	-0.001
591	-0.001
592	-0.001
592	-0.001
593	-0.001
593	-0
594	-0
594	-0
594	-0
595	-0
595	-0.001
596	-0.001
596	-0.001
597	0
597	0.001
598	0.002
598	0.003
598	0.003
599	0.003
599	0.003
600	0.003
600	0.002
601	0.001
601	0.001
602	-0.001
602	-0.002
602	-0.003
603	-0.004
603	-0.004
604	-0.003
604	-0.003
605	-0.002
605	-0.001
606	-0.001
606	-0.001
606	-0.001
607	-0.002
607	-0.002
608	-0.002
608	-0.003
609	-0.003
609	-0.004
610	-0.005
610	-0.005
610	-0.006
611	-0.005
611	-0.005
612	-0.004
612	-0.003
613	-0.002
613	-0.001
614	0
614	0
614	0
615	-0
615	-0
616	-0.001
616	-0.001
617	-0.002
617	-0.003
618	-0.004
618	-0.006
618	-0.006
619	-0.007
619	-0.007
620	-0.006
620	-0.006
621	-0.005
621	-0.005
622	-0.005
622	-0.005
622	-0.005
623	-0.005
623	-0.005
624	-0.005
624	-0.005
625	-0.005
625	-0.005
626	-0.005
626	-0.005
626	-0.005
627	-0.006
627	-0.006
628	-0.006
628	-0.006
629	-0.006
629	-0.006
630	-0.006
630	-0.007
630	-0.008
631	-0.008
631	-0.008
632	-0.008
632	-0.008
633	-0.008
633	-0.008
634	-0.007
634	-0.006
634	-0.005
635	-0.004
635	-0.003
636	-0.002
636	-0.002
637	-0.001
637	-0.001
638	-0.001
638	-0
638	-0
639	-0.001
639	-0.001
640	-0.001
640	-0.001
641	-0
641	0
642	0.001
642	0.002
642	0.003
643	0.004
643	0.005
644	0.007
644	0.008
645	0.01
645	0.011
646	0.012
646	0.013
646	0.015
647	0.017
647	0.019
648	0.02
648	0.021
649	0.023
649	0.024
650	0.025
650	0.027
650	0.028
651	0.029
651	0.03
652	0.03
652	0.03
653	0.031
653	0.035
653	0.038
654	0.033
654	0.029
655	0.031
655	0.033
656	0.034
656	0.035
657	0.036
657	0.038
657	0.038
658	0.037
658	0.037
659	0.043
659	0.052
660	0.052
660	0.053
661	0.053
661	0.053
661	0.054
662	0.055
662	0.056
663	0.058
663	0.059
664	0.06
664	0.062
665	0.063
665	0.064
665	0.065
666	0.066
666	0.067
667	0.068
667	0.07
668	0.071
668	0.072
669	0.073
669	0.074
669	0.076
670	0.078
670	0.079
671	0.081
671	0.082
672	0.083
672	0.083
672	0.084
673	0.084
673	0.085
674	0.085
674	0.085
675	0.085
675	0.085
676	0.086
676	0.086
676	0.087
677	0.088
677	0.089
678	0.09
678	0.091
679	0.091
679	0.092
680	0.093
680	0.093
680	0.094
681	0.094
681	0.094
682	0.095
682	0.095
683	0.096
683	0.097
684	0.099
684	0.099
684	0.099
685	0.099
685	0.099
686	0.1
686	0.1
687	0.099
687	0.098
687	0.098
688	0.097
688	0.096
689	0.095
689	0.095
690	0.095
690	0.095
691	0.094
691	0.094
691	0.094
692	0.094
692	0.094
693	0.095
693	0.096
694	0.096
694	0.097
695	0.097
695	0.099
695	0.101
696	0.102
696	0.102
697	0.102
697	0.102
698	0.101
698	0.101
698	0.1
699	0.099
699	0.098
700	0.095
700	0.094
701	0.093
701	0.092
702	0.091
702	0.09
702	0.089
703	0.088
703	0.087
704	0.085
704	0.084
705	0.084
705	0.083
705	0.083
706	0.082
706	0.082
707	0.081
707	0.08
708	0.08
708	0.079
709	0.079
709	0.078
709	0.077
710	0.075
710	0.074
711	0.073
711	0.072
712	0.072
712	0.071
713	0.071
713	0.071
713	0.071
714	0.07
714	0.069
715	0.068
715	0.067
716	0.066
716	0.065
716	0.064
717	0.063
717	0.062
718	0.061
718	0.059
719	0.058
719	0.057
720	0.056
720	0.055
720	0.054
721	0.052
721	0.05
722	0.048
722	0.046
723	0.044
723	0.043
723	0.042
724	0.04
724	0.039
725	0.037
725	0.035
726	0.035
726	0.034
727	0.033
727	0.032
727	0.031
728	0.03
728	0.029
729	0.029
729	0.029
730	0.028
730	0.028
730	0.027
731	0.026
731	0.026
732	0.025
732	0.025
733	0.024
733	0.023
734	0.022
734	0.021
734	0.02
735	0.019
735	0.018
736	0.016
736	0.015
737	0.014
737	0.013
737	0.012
738	0.011
738	0.009
739	0.008
739	0.006
740	0.005
740	0.004
741	0.004
741	0.002
741	0.001
742	-0.002
742	-0.004
743	-0.005
743	-0.007
744	-0.008
744	-0.009
744	-0.01
745	-0.012
745	-0.013
746	-0.014
746	-0.014
747	-0.015
747	-0.015
748	-0.015
748	-0.015
748	-0.015
749	-0.016
749	-0.017
750	-0.017
750	-0.018
751	-0.018
751	-0.018
751	-0.018
752	-0.018
752	-0.018
753	-0.019
753	-0.019
754	-0.02
754	-0.02
754	-0.02
755	-0.02
755	-0.02
756	-0.02
756	-0.02
757	-0.021
757	-0.022
758	-0.022
758	-0.023
758	-0.023
759	-0.024
759	-0.025
760	-0.027
760	-0.029
761	-0.031
761	-0.032
761	-0.032
762	-0.033
762	-0.034
763	-0.034
763	-0.034
764	-0.036
764	-0.037
764	-0.038
765	-0.039
765	-0.04
766	-0.04
766	-0.04
767	-0.041
767	-0.042
768	-0.044
768	-0.046
768	-0.047
769	-0.047
769	-0.047
770	-0.047
770	-0.048
771	-0.049
771	-0.051
771	-0.053
772	-0.054
772	-0.056
773	-0.058
773	-0.06
774	-0.063
774	-0.066
775	-0.069
775	-0.072
775	-0.076
776	-0.079
776	-0.082
777	-0.085
777	-0.088
778	-0.092
778	-0.095
778	-0.098
779	-0.101
779	-0.102
780	-0.104
780	-0.108
781	-0.112
781	-0.115
781	-0.119
782	-0.122
782	-0.127
783	-0.131
783	-0.133
784	-0.136
784	-0.139
784	-0.141
785	-0.143
785	-0.145
786	-0.145
786	-0.143
787	-0.139
787	-0.135
788	-0.135
788	-0.136
788	-0.137
789	-0.14
789	-0.14
790	-0.137
790	-0.136
791	-0.137
791	-0.139
791	-0.141
792	-0.136
792	-0.125
793	-0.118
793	-0.113
794	-0.111
794	-0.112
794	-0.115
795	-0.117
795	-0.117
796	-0.117
796	-0.119
797	-0.128
797	-0.139
797	-0.146
798	-0.152
798	-0.155
799	-0.157
799	-0.157
800	-0.157
800	-0.159
801	-0.162
801	-0.163
801	-0.163
802	-0.164
802	-0.165
803	-0.165
803	-0.165
804	-0.164
804	-0.158
804	-0.151
805	-0.147
805	-0.144
806	-0.142
806	-0.141
807	-0.139
807	-0.138
807	-0.138
808	-0.137
808	-0.138
809	-0.142
809	-0.147
810	-0.15
810	-0.152
810	-0.155
811	-0.158
811	-0.159
812	-0.155
812	-0.152
813	-0.153
813	-0.154
813	-0.155
814	-0.157
814	-0.158
815	-0.156
815	-0.154
816	-0.153
816	-0.154
817	-0.159
817	-0.163
817	-0.164
818	-0.163
818	-0.16
819	-0.155
819	-0.152
820	-0.153
820	-0.155
820	-0.156
821	-0.154
821	-0.152
822	-0.148
822	-0.144
823	-0.14
823	-0.138
823	-0.138
824	-0.135
824	-0.129
825	-0.12
825	-0.112
826	-0.104
826	-0.097
826	-0.092
827	-0.086
827	-0.081
828	-0.076
828	-0.072
829	-0.068
829	-0.064
829	-0.062
830	-0.059
830	-0.057
831	-0.054
831	-0.051
832	-0.049
832	-0.046
832	-0.045
833	-0.044
833	-0.043
834	-0.042
834	-0.042
835	-0.041
835	-0.042
835	-0.042
836	-0.042
836	-0.042
837	-0.042
837	-0.042
838	-0.042
838	-0.042
839	-0.041
839	-0.04
839	-0.04
840	-0.039
840	-0.038
841	-0.037
841	-0.035
842	-0.034
842	-0.033
842	-0.032
843	-0.031
843	-0.029
844	-0.028
844	-0.028
845	-0.027
845	-0.027
845	-0.026
846	-0.026
846	-0.025
847	-0.025
847	-0.024
848	-0.024
848	-0.023
848	-0.023
849	-0.022
849	-0.021
850	-0.02
850	-0.02
851	-0.019
851	-0.018
851	-0.018
852	-0.017
852	-0.017
853	-0.017
853	-0.017
854	-0.017
854	-0.017
854	-0.017
855	-0.017
855	-0.018
856	-0.018
856	-0.018
857	-0.018
857	-0.019
857	-0.019
858	-0.018
858	-0.018
859	-0.018
859	-0.017
860	-0.016
860	-0.015
860	-0.014
861	-0.013
861	-0.012
862	-0.011
862	-0.009
863	-0.008
863	-0.007
863	-0.006
864	-0.004
864	-0.004
865	-0.003
865	-0.002
866	-0.002
866	-0.001
866	-0.001
867	-0.001
867	-0
868	-0
868	-0
869	-0
869	-0.001
869	-0.001
870	-0.001
870	-0.001
871	-0.002
871	-0.003
872	-0.003
872	-0.004
872	-0.005
873	-0.005
873	-0.006
874	-0.006
874	-0.007
875	-0.007
875	-0.007
875	-0.006
876	-0.006
876	-0.005
877	-0.005
877	-0.004
878	-0.004
878	-0.003
878	-0.003
879	-0.003
879	-0.002
880	-0.002
880	-0.002
881	-0.002
881	-0.001
881	-0.001
882	-0.001
882	-0
883	-0
883	0
884	0.001
884	0.001
884	0.001
885	0.001
885	0.001
886	0.001
886	-0
887	-0.001
887	-0.001
887	-0.002
888	-0.002
888	-0.003
889	-0.003
889	-0.003
890	-0.003
890	-0.003
890	-0.003
891	-0.003
891	-0.003
892	-0.003
892	-0.002
893	-0.002
893	-0.001
893	-0
894	0
894	0
895	0
895	0
895	0
896	-0
896	-0
897	-0.001
897	-0.002
898	-0.002
898	-0.003
898	-0.004
899	-0.005
899	-0.006
900	-0.006
900	-0.007
901	-0.007
901	-0.008
901	-0.008
902	-0.008
902	-0.008
903	-0.009
903	-0.009
904	-0.008
904	-0.008
904	-0.008
905	-0.008
905	-0.007
906	-0.007
906	-0.006
907	-0.006
907	-0.005
907	-0.005
908	-0.005
908	-0.005
909	-0.005
909	-0.005
910	-0.005
910	-0.005
910	-0.005
911	-0.005
911	-0.004
912	-0.004
912	-0.003
913	-0.002
913	-0.001
913	-0
914	0.001
914	0.001
915	0.002
915	0.003
916	0.004
916	0.005
916	0.005
917	0.005
917	0.005
918	0.005
918	0.004
918	0.004
919	0.003
919	0.002
920	0.001
920	0
921	-0.001
921	-0.001
921	-0.002
922	-0.002
922	-0.002
923	-0.002
923	-0.002
924	-0.002
924	-0.002
924	-0.001
925	-0
925	0
926	0.001
926	0.002
927	0.002
927	0.003
927	0.003
928	0.004
928	0.004
929	0.005
929	0.005
930	0.005
930	0.005
930	0.005
931	0.005
931	0.005
932	0.005
932	0.005
933	0.005
933	0.005
933	0.005
934	0.005
934	0.005
935	0.005
935	0.006
935	0.006
936	0.006
936	0.006
937	0.006
937	0.005
938	0.005
938	0.005
938	0.004
939	0.004
939	0.004
940	0.003
940	0.003
941	0.004
941	0.004
941	0.004
942	0.005
942	0.005
943	0.006
943	0.006
944	0.006
944	0.007
944	0.008
945	0.008
945	0.009
946	0.01
946	0.01
946	0.011
947	0.011
947	0.011
948	0.011
948	0.011
949	0.01
949	0.01
949	0.009
950	0.009
950	0.008
951	0.008
951	0.007
952	0.007
952	0.007
952	0.007
953	0.007
953	0.007
954	0.007
954	0.007
955	0.007
955	0.007
955	0.007
956	0.007
956	0.007
957	0.007
957	0.007
957	0.007
958	0.007
958	0.007
959	0.007
959	0.007
960	0.008
960	0.008
960	0.008
961	0.008
961	0.009
962	0.009
962	0.01
963	0.01
963	0.011
963	0.011
964	0.011
964	0.011
965	0.011
965	0.011
966	0.011
966	0.01
966	0.01
967	0.009
967	0.008
968	0.007
968	0.007
968	0.006
969	0.006
969	0.006
970	0.006
970	0.006
971	0.006
971	0.006
971	0.007
972	0.008
972	0.008
973	0.009
973	0.01
974	0.01
974	0.011
974	0.011
975	0.011
975	0.011
976	0.011
976	0.011
976	0.01
977	0.009
977	0.008
978	0.007
978	0.006
979	0.005
979	0.005
979	0.004
980	0.003
980	0.002
981	0.002
981	0.001
982	0.001
982	0
982	-0
983	-0
983	-0.001
984	-0.001
984	-0.001
984	-0.001
985	-0.001
985	-0.001
986	-0.002
986	-0.002
987	-0.002
987	-0.002
987	-0.002
988	-0.002
988	-0.002
989	-0.002
989	-0.002
990	-0.002
990	-0.002
990	-0.002
991	-0.002
991	-0.002
992	-0.002
992	-0.002
992	-0.003
993	-0.003
993	-0.003
994	-0.004
994	-0.005
995	-0.005
995	-0.005
995	-0.006
996	-0.006
996	-0.007
997	-0.007
997	-0.007
997	-0.007
998	-0.007
998	-0.006
999	-0.006
999	-0.005
1000	-0.004
1000	-0.003
1000	-0.002
1001	-0.001
1001	-0
1002	0
1002	0.001
1003	0.001
1003	0.001
1003	0.001
1004	0.001
1004	0.001
1005	0.001
1005	0
1005	0
1006	-0
1006	-0
1007	-0
1007	-0
1008	-0
1008	-0
1008	-0
1009	-0
1009	0
1010	0
1010	0.001
1010	0.002
1011	0.003
1011	0.003
1012	0.004
1012	0.005
1013	0.006
1013	0.007
1013	0.008
1014	0.008
1014	0.009
1015	0.01
1015	0.01
1016	0.01
1016	0.011
1016	0.011
1017	0.011
1017	0.011
1018	0.011
1018	0.012
1018	0.011
1019	0.011
1019	0.011
1020	0.011
1020	0.011
1021	0.01
1021	0.01
1021	0.009
1022	0.009
1022	0.009
1023	0.009
1023	0.009
1023	0.009
1024	0.008
1024	0.008
1025	0.008
1025	0.009
1026	0.009
1026	0.009
1026	0.009
1027	0.009
1027	0.009
1028	0.009
1028	0.009
1028	0.009
1029	0.009
1029	0.009
1030	0.009
1030	0.01
1031	0.01
1031	0.01
1031	0.01
1032	0.011
1032	0.01
1033	0.011
1033	0.011
1033	0.011
1034	0.011
1034	0.011
1035	0.011
1035	0.011
1036	0.011
1036	0.011
1036	0.011
1037	0.012
1037	0.012
1038	0.013
1038	0.013
1039	0.014
1039	0.015
1039	0.015
1040	0.016
1040	0.017
1041	0.017
1041	0.018
1041	0.018
1042	0.019
1042	0.019
1043	0.02
1043	0.02
1044	0.021
1044	0.021
1044	0.022
1045	0.023
1045	0.024
1046	0.024
1046	0.025
1046	0.027
1047	0.028
1047	0.029
1048	0.031
1048	0.032
1049	0.033
1049	0.033
1049	0.034
1050	0.035
1050	0.035
1051	0.035
1051	0.035
1051	0.035
1052	0.035
1052	0.034
1053	0.034
1053	0.033
1053	0.033
1054	0.032
1054	0.032
1055	0.031
1055	0.03
1056	0.03
1056	0.03
1056	0.029
1057	0.029
1057	0.029
1058	0.029
1058	0.029
1058	0.03
1059	0.03
1059	0.031
1060	0.031
1060	0.031
1061	0.032
1061	0.033
1061	0.033
1062	0.034
1062	0.035
1063	0.036
1063	0.037
1063	0.038
1064	0.039
1064	0.041
1065	0.043
1065	0.044
1066	0.046
1066	0.048
1066	0.05
1067	0.052
1067	0.054
1068	0.056
1068	0.058
1068	0.06
1069	0.061
1069	0.063
1070	0.065
1070	0.066
1071	0.068
1071	0.069
1071	0.069
1072	0.071
1072	0.072
1073	0.074
1073	0.075
1073	0.075
1074	0.076
1074	0.077
1075	0.077
1075	0.078
1076	0.078
1076	0.08
1076	0.08
1077	0.081
1077	0.083
1078	0.084
1078	0.086
1078	0.088
1079	0.09
1079	0.092
1080	0.094
1080	0.096
1080	0.098
1081	0.1
1081	0.102
1082	0.104
1082	0.105
1083	0.108
1083	0.11
1083	0.113
1084	0.116
1084	0.118
1085	0.122
1085	0.124
1085	0.126
1086	0.129
1086	0.132
1087	0.135
1087	0.137
1088	0.14
1088	0.144
1088	0.148
1089	0.152
1089	0.157
1090	0.163
1090	0.17
1090	0.176
1091	0.184
1091	0.191
1092	0.2
1092	0.208
1092	0.216
1093	0.225
1093	0.236
1094	0.246
1094	0.257
1095	0.268
1095	0.282
1095	0.297
1096	0.313
1096	0.331
1097	0.351
1097	0.373
1097	0.396
1098	0.421
1098	0.451
1099	0.484
1099	0.523
1100	0.567
1100	0.619
1100	0.679
1101	0.759
1101	0.863
1102	1.011
1102	1.255
1102	1.93
1103	-0
1103	-0
1104	-0
1104	-0
1104	-0
1105	-0
1105	-0
1106	-0
1106	-0
1107	-0
1107	-0
1107	-0
1108	-0
1108	-0
1109	-0
1109	-0
1109	-0
1110	-0
1110	-0
1111	-0
1111	-0
