Data from 15c-2-4a_Absorbance__141__00141.txt Node

Date: Thu Jan 25 10:08:52 CET 2024
User: Marek
Spectrometer: MAYP115816
Trigger mode: 0
Integration Time (sec): 2.000000E-1
Scans to average: 10
Electric dark correction enabled: true
Nonlinearity correction enabled: true
Boxcar width: 5
XAxis mode: Wavelengths
Number of Pixels in Spectrum: 2068
>>>>>Begin Spectral Data<<<<<
199	-2.106
199	-1.935
200	-1.781
200	-1.658
201	-1.58
201	-1.523
202	-1.44
202	-1.377
203	-1.324
203	-1.278
204	-1.251
204	-1.224
205	-1.203
205	-1.192
205	-1.186
206	-1.182
206	-1.178
207	-1.178
207	-1.175
208	-1.17
208	-1.166
209	-1.161
209	-1.158
210	-1.156
210	-1.153
211	-1.152
211	-1.15
212	-1.147
212	-1.144
213	-1.142
213	-1.143
213	-1.143
214	-1.142
214	-1.14
215	-1.138
215	-1.137
216	-1.134
216	-1.133
217	-1.131
217	-1.128
218	-1.127
218	-1.124
219	-1.122
219	-1.119
220	-1.119
220	-1.114
221	-1.111
221	-1.109
221	-1.105
222	-1.102
222	-1.101
223	-1.097
223	-1.09
224	-1.083
224	-1.075
225	-1.066
225	-1.058
226	-1.047
226	-1.035
227	-1.022
227	-1.009
228	-0.99
228	-0.971
229	-0.951
229	-0.928
229	-0.903
230	-0.875
230	-0.846
231	-0.813
231	-0.776
232	-0.738
232	-0.697
233	-0.655
233	-0.612
234	-0.569
234	-0.524
235	-0.481
235	-0.44
236	-0.398
236	-0.36
236	-0.323
237	-0.288
237	-0.255
238	-0.225
238	-0.197
239	-0.172
239	-0.148
240	-0.126
240	-0.106
241	-0.088
241	-0.071
242	-0.057
242	-0.043
243	-0.03
243	-0.018
243	-0.008
244	0.002
244	0.011
245	0.019
245	0.027
246	0.034
246	0.04
247	0.046
247	0.052
248	0.057
248	0.062
249	0.066
249	0.071
250	0.075
250	0.079
250	0.083
251	0.086
251	0.09
252	0.093
252	0.096
253	0.099
253	0.102
254	0.105
254	0.107
255	0.109
255	0.111
256	0.113
256	0.115
257	0.117
257	0.118
258	0.12
258	0.121
258	0.122
259	0.123
259	0.124
260	0.125
260	0.126
261	0.126
261	0.127
262	0.127
262	0.127
263	0.127
263	0.127
264	0.127
264	0.127
265	0.127
265	0.126
265	0.126
266	0.125
266	0.125
267	0.125
267	0.124
268	0.123
268	0.123
269	0.122
269	0.121
270	0.12
270	0.119
271	0.118
271	0.117
272	0.115
272	0.114
272	0.113
273	0.112
273	0.111
274	0.109
274	0.108
275	0.107
275	0.105
276	0.104
276	0.102
277	0.101
277	0.099
278	0.098
278	0.096
278	0.095
279	0.093
279	0.092
280	0.091
280	0.09
281	0.089
281	0.088
282	0.087
282	0.086
283	0.085
283	0.084
284	0.083
284	0.082
285	0.081
285	0.08
285	0.079
286	0.078
286	0.077
287	0.076
287	0.075
288	0.074
288	0.073
289	0.073
289	0.072
290	0.071
290	0.07
291	0.069
291	0.068
292	0.068
292	0.067
292	0.066
293	0.066
293	0.065
294	0.065
294	0.064
295	0.064
295	0.063
296	0.063
296	0.063
297	0.062
297	0.062
298	0.062
298	0.061
298	0.061
299	0.061
299	0.061
300	0.06
300	0.06
301	0.06
301	0.06
302	0.059
302	0.059
303	0.059
303	0.059
304	0.059
304	0.059
305	0.058
305	0.058
305	0.058
306	0.058
306	0.057
307	0.057
307	0.057
308	0.057
308	0.056
309	0.056
309	0.056
310	0.056
310	0.055
311	0.055
311	0.055
311	0.055
312	0.055
312	0.054
313	0.054
313	0.054
314	0.054
314	0.053
315	0.053
315	0.053
316	0.053
316	0.052
317	0.052
317	0.052
318	0.051
318	0.051
318	0.051
319	0.05
319	0.05
320	0.05
320	0.05
321	0.049
321	0.049
322	0.049
322	0.048
323	0.048
323	0.048
324	0.047
324	0.047
324	0.047
325	0.046
325	0.046
326	0.046
326	0.045
327	0.045
327	0.045
328	0.045
328	0.045
329	0.044
329	0.044
330	0.044
330	0.044
330	0.043
331	0.043
331	0.042
332	0.042
332	0.042
333	0.042
333	0.041
334	0.041
334	0.041
335	0.04
335	0.04
336	0.04
336	0.04
336	0.039
337	0.039
337	0.039
338	0.039
338	0.038
339	0.038
339	0.038
340	0.038
340	0.037
341	0.037
341	0.037
342	0.036
342	0.036
342	0.036
343	0.035
343	0.035
344	0.035
344	0.034
345	0.034
345	0.034
346	0.033
346	0.033
347	0.033
347	0.032
348	0.032
348	0.031
348	0.031
349	0.031
349	0.03
350	0.03
350	0.03
351	0.029
351	0.029
352	0.029
352	0.028
353	0.028
353	0.028
354	0.027
354	0.027
354	0.026
355	0.026
355	0.025
356	0.025
356	0.024
357	0.024
357	0.024
358	0.024
358	0.024
359	0.025
359	0.025
360	0.026
360	0.026
360	0.026
361	0.027
361	0.027
362	0.027
362	0.027
363	0.027
363	0.027
364	0.026
364	0.026
365	0.026
365	0.026
366	0.026
366	0.025
366	0.025
367	0.025
367	0.025
368	0.024
368	0.024
369	0.024
369	0.024
370	0.024
370	0.024
371	0.024
371	0.023
372	0.023
372	0.023
372	0.023
373	0.022
373	0.022
374	0.022
374	0.022
375	0.022
375	0.022
376	0.022
376	0.022
377	0.022
377	0.022
378	0.023
378	0.023
378	0.023
379	0.023
379	0.023
380	0.023
380	0.023
381	0.023
381	0.023
382	0.023
382	0.023
383	0.023
383	0.023
383	0.023
384	0.022
384	0.022
385	0.022
385	0.022
386	0.022
386	0.022
387	0.022
387	0.022
388	0.022
388	0.022
389	0.022
389	0.022
389	0.022
390	0.023
390	0.023
391	0.023
391	0.023
392	0.023
392	0.023
393	0.023
393	0.023
394	0.023
394	0.023
394	0.023
395	0.023
395	0.023
396	0.023
396	0.022
397	0.023
397	0.023
398	0.023
398	0.023
399	0.023
399	0.023
400	0.023
400	0.022
400	0.022
401	0.022
401	0.021
402	0.021
402	0.021
403	0.02
403	0.02
404	0.021
404	0.021
405	0.02
405	0.02
405	0.02
406	0.02
406	0.02
407	0.02
407	0.02
408	0.019
408	0.019
409	0.018
409	0.018
410	0.018
410	0.018
411	0.018
411	0.018
411	0.018
412	0.018
412	0.018
413	0.018
413	0.018
414	0.018
414	0.018
415	0.018
415	0.018
416	0.017
416	0.017
416	0.017
417	0.017
417	0.017
418	0.017
418	0.017
419	0.018
419	0.018
420	0.018
420	0.019
421	0.019
421	0.019
421	0.019
422	0.019
422	0.019
423	0.019
423	0.019
424	0.018
424	0.018
425	0.017
425	0.017
426	0.017
426	0.016
427	0.016
427	0.016
427	0.017
428	0.017
428	0.017
429	0.018
429	0.018
430	0.018
430	0.018
431	0.018
431	0.018
432	0.017
432	0.017
432	0.016
433	0.016
433	0.015
434	0.015
434	0.015
435	0.015
435	0.015
436	0.015
436	0.015
437	0.015
437	0.015
437	0.015
438	0.015
438	0.015
439	0.015
439	0.015
440	0.014
440	0.014
441	0.014
441	0.014
442	0.014
442	0.014
442	0.015
443	0.015
443	0.015
444	0.015
444	0.015
445	0.016
445	0.016
446	0.016
446	0.016
447	0.016
447	0.016
447	0.016
448	0.016
448	0.016
449	0.016
449	0.015
450	0.015
450	0.015
451	0.015
451	0.015
452	0.014
452	0.014
452	0.013
453	0.013
453	0.013
454	0.012
454	0.012
455	0.012
455	0.011
456	0.011
456	0.011
457	0.011
457	0.011
458	0.011
458	0.011
458	0.011
459	0.011
459	0.011
460	0.011
460	0.01
461	0.01
461	0.01
462	0.009
462	0.009
463	0.009
463	0.01
463	0.01
464	0.01
464	0.01
465	0.01
465	0.01
466	0.01
466	0.01
467	0.01
467	0.01
467	0.009
468	0.008
468	0.007
469	0.006
469	0.004
470	0.004
470	0.003
471	0.003
471	0.003
472	0.003
472	0.002
472	0.003
473	0.003
473	0.004
474	0.004
474	0.005
475	0.005
475	0.006
476	0.006
476	0.006
477	0.007
477	0.007
477	0.007
478	0.007
478	0.007
479	0.007
479	0.008
480	0.008
480	0.008
481	0.009
481	0.009
482	0.009
482	0.01
482	0.011
483	0.012
483	0.013
484	0.015
484	0.016
485	0.017
485	0.018
486	0.018
486	0.018
487	0.019
487	0.019
487	0.018
488	0.018
488	0.017
489	0.015
489	0.014
490	0.013
490	0.012
491	0.012
491	0.011
492	0.012
492	0.012
492	0.012
493	0.012
493	0.012
494	0.013
494	0.014
495	0.015
495	0.015
496	0.016
496	0.016
496	0.016
497	0.016
497	0.016
498	0.016
498	0.016
499	0.016
499	0.015
500	0.015
500	0.015
501	0.016
501	0.016
501	0.017
502	0.018
502	0.018
503	0.019
503	0.02
504	0.02
504	0.02
505	0.021
505	0.021
506	0.021
506	0.021
506	0.021
507	0.021
507	0.021
508	0.02
508	0.02
509	0.02
509	0.02
510	0.02
510	0.02
511	0.02
511	0.019
511	0.019
512	0.019
512	0.019
513	0.019
513	0.018
514	0.018
514	0.017
515	0.017
515	0.016
515	0.015
516	0.014
516	0.014
517	0.014
517	0.014
518	0.014
518	0.014
519	0.014
519	0.013
520	0.012
520	0.011
520	0.01
521	0.009
521	0.008
522	0.005
522	0.003
523	0.001
523	0
524	-0
524	-0
524	0
525	0.001
525	0.002
526	0.004
526	0.006
527	0.008
527	0.01
528	0.012
528	0.014
529	0.015
529	0.015
529	0.016
530	0.017
530	0.017
531	0.017
531	0.017
532	0.017
532	0.018
533	0.018
533	0.018
533	0.018
534	0.019
534	0.018
535	0.018
535	0.018
536	0.018
536	0.019
537	0.019
537	0.018
538	0.018
538	0.018
538	0.017
539	0.017
539	0.016
540	0.016
540	0.016
541	0.015
541	0.015
542	0.014
542	0.014
542	0.013
543	0.013
543	0.013
544	0.013
544	0.013
545	0.013
545	0.013
546	0.013
546	0.013
547	0.013
547	0.013
547	0.012
548	0.011
548	0.01
549	0.009
549	0.008
550	0.007
550	0.006
551	0.005
551	0.004
551	0.003
552	0.003
552	0.003
553	0.003
553	0.003
554	0.004
554	0.004
555	0.003
555	0.002
556	0.001
556	-0
556	-0.001
557	-0.002
557	-0.003
558	-0.004
558	-0.005
559	-0.006
559	-0.006
560	-0.006
560	-0.006
560	-0.005
561	-0.005
561	-0.004
562	-0.004
562	-0.003
563	-0.004
563	-0.005
564	-0.006
564	-0.007
564	-0.008
565	-0.009
565	-0.01
566	-0.01
566	-0.011
567	-0.01
567	-0.01
568	-0.009
568	-0.007
568	-0.006
569	-0.004
569	-0.002
570	-0
570	0
571	0.001
571	0.002
572	0.003
572	0.004
573	0.005
573	0.005
573	0.005
574	0.005
574	0.005
575	0.005
575	0.007
576	0.008
576	0.008
577	0.008
577	0.008
577	0.008
578	0.007
578	0.007
579	0.008
579	0.009
580	0.009
580	0.009
581	0.008
581	0.007
581	0.007
582	0.006
582	0.006
583	0.007
583	0.007
584	0.007
584	0.005
585	0.004
585	0.003
585	0.003
586	0.003
586	0.003
587	0.003
587	0.002
588	0
588	-0.001
589	-0.003
589	-0.003
590	-0.004
590	-0.005
590	-0.005
591	-0.005
591	-0.004
592	-0.004
592	-0.004
593	-0.004
593	-0.003
594	-0.003
594	-0.003
594	-0.003
595	-0.004
595	-0.004
596	-0.004
596	-0.004
597	-0.003
597	-0.003
598	-0.002
598	-0.001
598	-0.001
599	-0
599	-0
600	-0.001
600	-0.001
601	-0.002
601	-0.003
602	-0.004
602	-0.004
602	-0.006
603	-0.006
603	-0.006
604	-0.006
604	-0.006
605	-0.005
605	-0.004
606	-0.004
606	-0.004
606	-0.004
607	-0.005
607	-0.004
608	-0.005
608	-0.005
609	-0.006
609	-0.006
610	-0.007
610	-0.007
610	-0.007
611	-0.007
611	-0.007
612	-0.006
612	-0.005
613	-0.004
613	-0.003
614	-0.002
614	-0.002
614	-0.002
615	-0.002
615	-0.003
616	-0.003
616	-0.004
617	-0.005
617	-0.006
618	-0.007
618	-0.009
618	-0.009
619	-0.01
619	-0.01
620	-0.01
620	-0.009
621	-0.009
621	-0.008
622	-0.008
622	-0.008
622	-0.008
623	-0.008
623	-0.008
624	-0.008
624	-0.008
625	-0.008
625	-0.008
626	-0.008
626	-0.008
626	-0.009
627	-0.009
627	-0.009
628	-0.009
628	-0.009
629	-0.009
629	-0.009
630	-0.009
630	-0.01
630	-0.011
631	-0.011
631	-0.011
632	-0.011
632	-0.011
633	-0.011
633	-0.011
634	-0.011
634	-0.01
634	-0.008
635	-0.007
635	-0.007
636	-0.006
636	-0.005
637	-0.004
637	-0.004
638	-0.004
638	-0.004
638	-0.004
639	-0.004
639	-0.004
640	-0.005
640	-0.004
641	-0.004
641	-0.003
642	-0.002
642	-0.001
642	-0
643	0.001
643	0.002
644	0.004
644	0.005
645	0.007
645	0.008
646	0.009
646	0.01
646	0.012
647	0.014
647	0.015
648	0.017
648	0.018
649	0.019
649	0.02
650	0.022
650	0.023
650	0.024
651	0.026
651	0.026
652	0.027
652	0.027
653	0.028
653	0.031
653	0.033
654	0.029
654	0.026
655	0.028
655	0.03
656	0.031
656	0.032
657	0.033
657	0.034
657	0.035
658	0.034
658	0.034
659	0.041
659	0.049
660	0.048
660	0.049
661	0.049
661	0.049
661	0.05
662	0.051
662	0.052
663	0.053
663	0.054
664	0.056
664	0.057
665	0.058
665	0.059
665	0.06
666	0.062
666	0.063
667	0.064
667	0.065
668	0.066
668	0.067
669	0.068
669	0.07
669	0.071
670	0.073
670	0.075
671	0.076
671	0.077
672	0.078
672	0.078
672	0.079
673	0.08
673	0.08
674	0.081
674	0.081
675	0.081
675	0.081
676	0.081
676	0.082
676	0.083
677	0.084
677	0.085
678	0.086
678	0.086
679	0.087
679	0.087
680	0.088
680	0.089
680	0.089
681	0.089
681	0.09
682	0.09
682	0.091
683	0.092
683	0.093
684	0.095
684	0.095
684	0.095
685	0.095
685	0.096
686	0.096
686	0.096
687	0.096
687	0.095
687	0.094
688	0.093
688	0.092
689	0.091
689	0.091
690	0.091
690	0.091
691	0.09
691	0.09
691	0.09
692	0.09
692	0.09
693	0.09
693	0.091
694	0.092
694	0.092
695	0.093
695	0.095
695	0.096
696	0.097
696	0.097
697	0.097
697	0.097
698	0.097
698	0.096
698	0.095
699	0.095
699	0.093
700	0.091
700	0.089
701	0.088
701	0.088
702	0.087
702	0.086
702	0.085
703	0.084
703	0.083
704	0.082
704	0.081
705	0.08
705	0.08
705	0.079
706	0.079
706	0.078
707	0.077
707	0.077
708	0.076
708	0.075
709	0.075
709	0.074
709	0.073
710	0.071
710	0.07
711	0.069
711	0.068
712	0.068
712	0.067
713	0.067
713	0.067
713	0.066
714	0.066
714	0.065
715	0.064
715	0.063
716	0.062
716	0.061
716	0.06
717	0.059
717	0.058
718	0.056
718	0.055
719	0.054
719	0.053
720	0.052
720	0.051
720	0.05
721	0.048
721	0.046
722	0.044
722	0.043
723	0.041
723	0.04
723	0.038
724	0.037
724	0.035
725	0.033
725	0.032
726	0.031
726	0.03
727	0.029
727	0.028
727	0.028
728	0.027
728	0.026
729	0.026
729	0.026
730	0.026
730	0.025
730	0.024
731	0.024
731	0.023
732	0.023
732	0.022
733	0.021
733	0.021
734	0.019
734	0.018
734	0.017
735	0.016
735	0.015
736	0.013
736	0.012
737	0.011
737	0.01
737	0.009
738	0.008
738	0.006
739	0.005
739	0.004
740	0.003
740	0.002
741	0.002
741	0.001
741	-0.001
742	-0.004
742	-0.006
743	-0.007
743	-0.009
744	-0.01
744	-0.011
744	-0.012
745	-0.014
745	-0.015
746	-0.016
746	-0.016
747	-0.017
747	-0.017
748	-0.017
748	-0.018
748	-0.018
749	-0.019
749	-0.02
750	-0.02
750	-0.021
751	-0.021
751	-0.021
751	-0.02
752	-0.02
752	-0.021
753	-0.021
753	-0.021
754	-0.021
754	-0.022
754	-0.022
755	-0.022
755	-0.021
756	-0.021
756	-0.022
757	-0.023
757	-0.023
758	-0.024
758	-0.025
758	-0.025
759	-0.025
759	-0.026
760	-0.028
760	-0.03
761	-0.032
761	-0.033
761	-0.034
762	-0.034
762	-0.035
763	-0.035
763	-0.035
764	-0.037
764	-0.038
764	-0.039
765	-0.04
765	-0.041
766	-0.041
766	-0.042
767	-0.042
767	-0.043
768	-0.046
768	-0.047
768	-0.048
769	-0.048
769	-0.048
770	-0.048
770	-0.049
771	-0.05
771	-0.051
771	-0.053
772	-0.055
772	-0.056
773	-0.058
773	-0.06
774	-0.063
774	-0.067
775	-0.069
775	-0.073
775	-0.076
776	-0.08
776	-0.083
777	-0.086
777	-0.09
778	-0.093
778	-0.097
778	-0.1
779	-0.103
779	-0.103
780	-0.106
780	-0.111
781	-0.114
781	-0.117
781	-0.12
782	-0.124
782	-0.128
783	-0.132
783	-0.134
784	-0.136
784	-0.139
784	-0.141
785	-0.143
785	-0.145
786	-0.146
786	-0.144
787	-0.139
787	-0.136
788	-0.135
788	-0.136
788	-0.137
789	-0.14
789	-0.14
790	-0.138
790	-0.136
791	-0.137
791	-0.139
791	-0.141
792	-0.136
792	-0.125
793	-0.118
793	-0.113
794	-0.111
794	-0.112
794	-0.115
795	-0.117
795	-0.117
796	-0.117
796	-0.119
797	-0.128
797	-0.139
797	-0.146
798	-0.152
798	-0.156
799	-0.157
799	-0.157
800	-0.157
800	-0.159
801	-0.162
801	-0.163
801	-0.163
802	-0.164
802	-0.165
803	-0.165
803	-0.165
804	-0.164
804	-0.158
804	-0.151
805	-0.147
805	-0.144
806	-0.142
806	-0.141
807	-0.139
807	-0.138
807	-0.138
808	-0.137
808	-0.138
809	-0.142
809	-0.147
810	-0.15
810	-0.152
810	-0.156
811	-0.158
811	-0.159
812	-0.155
812	-0.152
813	-0.153
813	-0.154
813	-0.156
814	-0.157
814	-0.158
815	-0.156
815	-0.154
816	-0.153
816	-0.154
817	-0.159
817	-0.163
817	-0.164
818	-0.163
818	-0.16
819	-0.155
819	-0.152
820	-0.153
820	-0.155
820	-0.155
821	-0.153
821	-0.15
822	-0.147
822	-0.142
823	-0.138
823	-0.136
823	-0.135
824	-0.132
824	-0.125
825	-0.117
825	-0.108
826	-0.1
826	-0.094
826	-0.089
827	-0.083
827	-0.078
828	-0.073
828	-0.069
829	-0.066
829	-0.062
829	-0.06
830	-0.058
830	-0.056
831	-0.053
831	-0.05
832	-0.048
832	-0.046
832	-0.045
833	-0.044
833	-0.043
834	-0.042
834	-0.042
835	-0.042
835	-0.042
835	-0.042
836	-0.042
836	-0.042
837	-0.042
837	-0.041
838	-0.041
838	-0.041
839	-0.04
839	-0.04
839	-0.039
840	-0.038
840	-0.037
841	-0.036
841	-0.035
842	-0.034
842	-0.033
842	-0.032
843	-0.031
843	-0.03
844	-0.029
844	-0.028
845	-0.028
845	-0.027
845	-0.027
846	-0.027
846	-0.026
847	-0.026
847	-0.026
848	-0.025
848	-0.025
848	-0.024
849	-0.023
849	-0.022
850	-0.021
850	-0.021
851	-0.02
851	-0.019
851	-0.018
852	-0.018
852	-0.017
853	-0.017
853	-0.017
854	-0.017
854	-0.017
854	-0.017
855	-0.017
855	-0.018
856	-0.018
856	-0.018
857	-0.018
857	-0.018
857	-0.018
858	-0.018
858	-0.018
859	-0.017
859	-0.017
860	-0.016
860	-0.015
860	-0.014
861	-0.013
861	-0.012
862	-0.01
862	-0.009
863	-0.008
863	-0.007
863	-0.006
864	-0.005
864	-0.004
865	-0.003
865	-0.002
866	-0.002
866	-0.001
866	-0.001
867	-0.001
867	-0.001
868	-0.001
868	-0.001
869	-0.001
869	-0.001
869	-0.002
870	-0.002
870	-0.002
871	-0.003
871	-0.003
872	-0.004
872	-0.004
872	-0.005
873	-0.005
873	-0.005
874	-0.005
874	-0.005
875	-0.005
875	-0.005
875	-0.004
876	-0.004
876	-0.003
877	-0.002
877	-0.001
878	-0.001
878	-0.001
878	-0.001
879	-0
879	-0
880	-0
880	-0.001
881	-0.001
881	-0.001
881	-0
882	-0
882	-0
883	-0
883	-0
884	-0
884	-0
884	-0
885	-0
885	-0
886	-0
886	-0.001
887	-0.001
887	-0.002
887	-0.002
888	-0.003
888	-0.004
889	-0.004
889	-0.004
890	-0.004
890	-0.004
890	-0.004
891	-0.004
891	-0.004
892	-0.004
892	-0.004
893	-0.003
893	-0.003
893	-0.002
894	-0.002
894	-0.002
895	-0.002
895	-0.002
895	-0.002
896	-0.002
896	-0.003
897	-0.003
897	-0.004
898	-0.004
898	-0.005
898	-0.005
899	-0.006
899	-0.006
900	-0.007
900	-0.007
901	-0.008
901	-0.008
901	-0.008
902	-0.008
902	-0.009
903	-0.009
903	-0.009
904	-0.009
904	-0.009
904	-0.008
905	-0.008
905	-0.007
906	-0.007
906	-0.006
907	-0.005
907	-0.005
907	-0.004
908	-0.004
908	-0.004
909	-0.004
909	-0.004
910	-0.004
910	-0.004
910	-0.004
911	-0.004
911	-0.003
912	-0.003
912	-0.002
913	-0.002
913	-0.001
913	-0
914	0.001
914	0.001
915	0.002
915	0.003
916	0.003
916	0.004
916	0.004
917	0.004
917	0.004
918	0.003
918	0.003
918	0.002
919	0.002
919	0.001
920	-0
920	-0.001
921	-0.002
921	-0.002
921	-0.003
922	-0.003
922	-0.003
923	-0.003
923	-0.003
924	-0.003
924	-0.002
924	-0.002
925	-0.001
925	-0
926	0.001
926	0.001
927	0.002
927	0.002
927	0.003
928	0.004
928	0.004
929	0.005
929	0.005
930	0.005
930	0.005
930	0.005
931	0.005
931	0.004
932	0.004
932	0.004
933	0.004
933	0.004
933	0.004
934	0.004
934	0.004
935	0.005
935	0.005
935	0.006
936	0.006
936	0.006
937	0.006
937	0.006
938	0.005
938	0.005
938	0.004
939	0.004
939	0.004
940	0.004
940	0.004
941	0.004
941	0.005
941	0.005
942	0.006
942	0.006
943	0.007
943	0.008
944	0.009
944	0.01
944	0.011
945	0.011
945	0.012
946	0.013
946	0.013
946	0.013
947	0.014
947	0.014
948	0.014
948	0.013
949	0.013
949	0.012
949	0.011
950	0.011
950	0.01
951	0.009
951	0.009
952	0.008
952	0.008
952	0.008
953	0.008
953	0.008
954	0.008
954	0.008
955	0.008
955	0.008
955	0.008
956	0.009
956	0.009
957	0.009
957	0.009
957	0.009
958	0.009
958	0.009
959	0.009
959	0.01
960	0.01
960	0.01
960	0.01
961	0.01
961	0.011
962	0.011
962	0.012
963	0.012
963	0.013
963	0.013
964	0.013
964	0.013
965	0.013
965	0.013
966	0.013
966	0.012
966	0.011
967	0.011
967	0.009
968	0.008
968	0.008
968	0.007
969	0.006
969	0.006
970	0.005
970	0.005
971	0.005
971	0.005
971	0.006
972	0.006
972	0.007
973	0.008
973	0.008
974	0.009
974	0.009
974	0.01
975	0.01
975	0.01
976	0.01
976	0.009
976	0.009
977	0.008
977	0.007
978	0.006
978	0.005
979	0.004
979	0.003
979	0.003
980	0.002
980	0.002
981	0.001
981	0.001
982	0
982	0
982	-0
983	-0
983	-0
984	-0
984	-0
984	-0.001
985	-0.001
985	-0.001
986	-0.001
986	-0.001
987	-0.001
987	-0.001
987	-0.001
988	-0.001
988	-0.001
989	-0.001
989	-0.001
990	-0.001
990	-0.001
990	-0.001
991	-0.001
991	-0.001
992	-0.001
992	-0.002
992	-0.002
993	-0.003
993	-0.003
994	-0.004
994	-0.004
995	-0.005
995	-0.005
995	-0.005
996	-0.006
996	-0.006
997	-0.006
997	-0.006
997	-0.006
998	-0.006
998	-0.005
999	-0.004
999	-0.003
1000	-0.002
1000	-0.002
1000	-0.001
1001	0
1001	0.001
1002	0.002
1002	0.002
1003	0.003
1003	0.003
1003	0.002
1004	0.002
1004	0.002
1005	0.002
1005	0.002
1005	0.001
1006	0.001
1006	0.001
1007	0.001
1007	0.001
1008	0.001
1008	0.001
1008	0.001
1009	0.001
1009	0.001
1010	0.001
1010	0.002
1010	0.002
1011	0.003
1011	0.004
1012	0.004
1012	0.005
1013	0.006
1013	0.007
1013	0.008
1014	0.009
1014	0.01
1015	0.01
1015	0.011
1016	0.011
1016	0.012
1016	0.012
1017	0.012
1017	0.013
1018	0.013
1018	0.014
1018	0.014
1019	0.014
1019	0.014
1020	0.014
1020	0.013
1021	0.013
1021	0.013
1021	0.012
1022	0.012
1022	0.012
1023	0.012
1023	0.011
1023	0.011
1024	0.011
1024	0.011
1025	0.011
1025	0.011
1026	0.011
1026	0.011
1026	0.011
1027	0.01
1027	0.01
1028	0.01
1028	0.01
1028	0.01
1029	0.01
1029	0.011
1030	0.011
1030	0.011
1031	0.011
1031	0.012
1031	0.012
1032	0.012
1032	0.012
1033	0.013
1033	0.013
1033	0.013
1034	0.013
1034	0.013
1035	0.013
1035	0.013
1036	0.013
1036	0.013
1036	0.013
1037	0.013
1037	0.014
1038	0.014
1038	0.014
1039	0.015
1039	0.015
1039	0.016
1040	0.017
1040	0.017
1041	0.018
1041	0.018
1041	0.019
1042	0.019
1042	0.02
1043	0.021
1043	0.021
1044	0.022
1044	0.022
1044	0.023
1045	0.024
1045	0.025
1046	0.026
1046	0.026
1046	0.028
1047	0.029
1047	0.03
1048	0.031
1048	0.032
1049	0.032
1049	0.033
1049	0.034
1050	0.034
1050	0.034
1051	0.035
1051	0.035
1051	0.035
1052	0.035
1052	0.035
1053	0.034
1053	0.034
1053	0.034
1054	0.034
1054	0.033
1055	0.033
1055	0.033
1056	0.033
1056	0.032
1056	0.032
1057	0.032
1057	0.032
1058	0.033
1058	0.033
1058	0.034
1059	0.034
1059	0.035
1060	0.035
1060	0.036
1061	0.037
1061	0.038
1061	0.038
1062	0.039
1062	0.04
1063	0.041
1063	0.041
1063	0.042
1064	0.043
1064	0.045
1065	0.046
1065	0.048
1066	0.049
1066	0.051
1066	0.053
1067	0.055
1067	0.057
1068	0.06
1068	0.061
1068	0.062
1069	0.064
1069	0.065
1070	0.067
1070	0.068
1071	0.07
1071	0.071
1071	0.072
1072	0.074
1072	0.075
1073	0.077
1073	0.078
1073	0.079
1074	0.08
1074	0.082
1075	0.082
1075	0.083
1076	0.083
1076	0.084
1076	0.085
1077	0.087
1077	0.087
1078	0.089
1078	0.09
1078	0.092
1079	0.093
1079	0.095
1080	0.097
1080	0.099
1080	0.101
1081	0.103
1081	0.105
1082	0.107
1082	0.108
1083	0.111
1083	0.114
1083	0.117
1084	0.12
1084	0.123
1085	0.126
1085	0.129
1085	0.132
1086	0.134
1086	0.138
1087	0.141
1087	0.144
1088	0.147
1088	0.15
1088	0.154
1089	0.159
1089	0.165
1090	0.169
1090	0.176
1090	0.183
1091	0.19
1091	0.199
1092	0.208
1092	0.218
1092	0.227
1093	0.237
1093	0.247
1094	0.258
1094	0.271
1095	0.284
1095	0.298
1095	0.313
1096	0.331
1096	0.348
1097	0.367
1097	0.39
1097	0.415
1098	0.441
1098	0.472
1099	0.506
1099	0.546
1100	0.594
1100	0.653
1100	0.721
1101	0.81
1101	0.928
1102	1.106
1102	1.433
1102	-0
1103	-0
1103	-0
1104	-0
1104	-0
1104	-0
1105	-0
1105	-0
1106	-0
1106	-0
1107	-0
1107	-0
1107	-0
1108	-0
1108	-0
1109	-0
1109	-0
1109	-0
1110	-0
1110	-0
1111	-0
1111	-0
