Data from 15c-2-4a_Absorbance__745__00745.txt Node

Date: Thu Jan 25 10:29:00 CET 2024
User: Marek
Spectrometer: MAYP115816
Trigger mode: 0
Integration Time (sec): 2.000000E-1
Scans to average: 10
Electric dark correction enabled: true
Nonlinearity correction enabled: true
Boxcar width: 5
XAxis mode: Wavelengths
Number of Pixels in Spectrum: 2068
>>>>>Begin Spectral Data<<<<<
199	-2.128
199	-1.958
200	-1.804
200	-1.682
201	-1.604
201	-1.547
202	-1.464
202	-1.403
203	-1.351
203	-1.304
204	-1.279
204	-1.25
205	-1.23
205	-1.218
205	-1.213
206	-1.208
206	-1.205
207	-1.205
207	-1.201
208	-1.196
208	-1.192
209	-1.188
209	-1.185
210	-1.183
210	-1.18
211	-1.179
211	-1.177
212	-1.174
212	-1.171
213	-1.169
213	-1.17
213	-1.17
214	-1.169
214	-1.168
215	-1.166
215	-1.165
216	-1.162
216	-1.16
217	-1.158
217	-1.155
218	-1.154
218	-1.151
219	-1.149
219	-1.146
220	-1.145
220	-1.141
221	-1.138
221	-1.135
221	-1.132
222	-1.13
222	-1.128
223	-1.124
223	-1.117
224	-1.11
224	-1.102
225	-1.093
225	-1.084
226	-1.073
226	-1.062
227	-1.047
227	-1.034
228	-1.014
228	-0.995
229	-0.974
229	-0.95
229	-0.924
230	-0.895
230	-0.865
231	-0.831
231	-0.792
232	-0.752
232	-0.708
233	-0.664
233	-0.617
234	-0.571
234	-0.523
235	-0.476
235	-0.429
236	-0.384
236	-0.341
236	-0.298
237	-0.258
237	-0.221
238	-0.185
238	-0.152
239	-0.121
239	-0.092
240	-0.065
240	-0.04
241	-0.017
241	0.004
242	0.023
242	0.041
243	0.057
243	0.073
243	0.087
244	0.1
244	0.111
245	0.122
245	0.132
246	0.141
246	0.15
247	0.158
247	0.165
248	0.172
248	0.179
249	0.184
249	0.19
250	0.196
250	0.201
250	0.206
251	0.21
251	0.214
252	0.218
252	0.222
253	0.226
253	0.229
254	0.232
254	0.235
255	0.238
255	0.241
256	0.243
256	0.245
257	0.247
257	0.249
258	0.251
258	0.252
258	0.253
259	0.255
259	0.256
260	0.257
260	0.258
261	0.259
261	0.259
262	0.26
262	0.26
263	0.26
263	0.261
264	0.261
264	0.261
265	0.261
265	0.261
265	0.26
266	0.26
266	0.26
267	0.259
267	0.259
268	0.258
268	0.257
269	0.256
269	0.255
270	0.254
270	0.253
271	0.252
271	0.251
272	0.25
272	0.249
272	0.248
273	0.247
273	0.246
274	0.244
274	0.243
275	0.242
275	0.24
276	0.239
276	0.237
277	0.236
277	0.234
278	0.232
278	0.23
278	0.228
279	0.227
279	0.226
280	0.224
280	0.223
281	0.222
281	0.221
282	0.22
282	0.219
283	0.219
283	0.218
284	0.217
284	0.216
285	0.215
285	0.214
285	0.213
286	0.212
286	0.21
287	0.209
287	0.208
288	0.207
288	0.206
289	0.205
289	0.204
290	0.203
290	0.202
291	0.201
291	0.201
292	0.2
292	0.199
292	0.198
293	0.198
293	0.197
294	0.197
294	0.196
295	0.195
295	0.195
296	0.194
296	0.194
297	0.193
297	0.193
298	0.192
298	0.192
298	0.191
299	0.191
299	0.191
300	0.19
300	0.19
301	0.189
301	0.189
302	0.188
302	0.188
303	0.187
303	0.187
304	0.187
304	0.186
305	0.185
305	0.185
305	0.184
306	0.184
306	0.184
307	0.183
307	0.183
308	0.182
308	0.182
309	0.181
309	0.181
310	0.181
310	0.18
311	0.18
311	0.179
311	0.179
312	0.179
312	0.178
313	0.178
313	0.177
314	0.177
314	0.176
315	0.176
315	0.175
316	0.175
316	0.174
317	0.174
317	0.173
318	0.172
318	0.172
318	0.171
319	0.171
319	0.171
320	0.17
320	0.169
321	0.169
321	0.168
322	0.167
322	0.167
323	0.166
323	0.166
324	0.165
324	0.165
324	0.164
325	0.163
325	0.163
326	0.162
326	0.162
327	0.162
327	0.161
328	0.161
328	0.16
329	0.16
329	0.159
330	0.158
330	0.158
330	0.157
331	0.157
331	0.156
332	0.156
332	0.155
333	0.154
333	0.154
334	0.153
334	0.153
335	0.152
335	0.152
336	0.152
336	0.151
336	0.151
337	0.15
337	0.15
338	0.149
338	0.149
339	0.149
339	0.148
340	0.148
340	0.147
341	0.147
341	0.146
342	0.146
342	0.146
342	0.145
343	0.145
343	0.144
344	0.144
344	0.143
345	0.143
345	0.142
346	0.142
346	0.141
347	0.141
347	0.14
348	0.139
348	0.139
348	0.138
349	0.138
349	0.137
350	0.137
350	0.137
351	0.136
351	0.136
352	0.135
352	0.135
353	0.134
353	0.133
354	0.133
354	0.132
354	0.131
355	0.13
355	0.129
356	0.129
356	0.128
357	0.128
357	0.127
358	0.127
358	0.128
359	0.128
359	0.129
360	0.129
360	0.13
360	0.13
361	0.131
361	0.131
362	0.132
362	0.132
363	0.132
363	0.132
364	0.131
364	0.131
365	0.13
365	0.13
366	0.13
366	0.13
366	0.13
367	0.129
367	0.129
368	0.129
368	0.129
369	0.128
369	0.128
370	0.128
370	0.128
371	0.127
371	0.127
372	0.126
372	0.126
372	0.126
373	0.126
373	0.126
374	0.126
374	0.126
375	0.125
375	0.125
376	0.125
376	0.125
377	0.125
377	0.126
378	0.126
378	0.126
378	0.126
379	0.126
379	0.126
380	0.126
380	0.127
381	0.127
381	0.126
382	0.126
382	0.126
383	0.126
383	0.125
383	0.125
384	0.124
384	0.124
385	0.124
385	0.124
386	0.124
386	0.124
387	0.124
387	0.123
388	0.123
388	0.123
389	0.123
389	0.123
389	0.123
390	0.124
390	0.124
391	0.124
391	0.125
392	0.125
392	0.125
393	0.125
393	0.125
394	0.124
394	0.124
394	0.124
395	0.124
395	0.124
396	0.123
396	0.123
397	0.123
397	0.124
398	0.124
398	0.124
399	0.124
399	0.124
400	0.123
400	0.123
400	0.123
401	0.122
401	0.121
402	0.121
402	0.12
403	0.12
403	0.12
404	0.12
404	0.119
405	0.119
405	0.119
405	0.119
406	0.119
406	0.118
407	0.118
407	0.118
408	0.118
408	0.117
409	0.117
409	0.116
410	0.116
410	0.116
411	0.116
411	0.116
411	0.116
412	0.116
412	0.115
413	0.115
413	0.115
414	0.115
414	0.115
415	0.115
415	0.115
416	0.114
416	0.114
416	0.114
417	0.113
417	0.113
418	0.113
418	0.114
419	0.114
419	0.114
420	0.115
420	0.116
421	0.116
421	0.116
421	0.116
422	0.116
422	0.116
423	0.116
423	0.116
424	0.116
424	0.115
425	0.114
425	0.114
426	0.113
426	0.113
427	0.113
427	0.113
427	0.113
428	0.114
428	0.114
429	0.115
429	0.115
430	0.115
430	0.115
431	0.115
431	0.115
432	0.114
432	0.114
432	0.113
433	0.112
433	0.111
434	0.11
434	0.11
435	0.11
435	0.11
436	0.11
436	0.11
437	0.11
437	0.11
437	0.11
438	0.11
438	0.11
439	0.11
439	0.11
440	0.109
440	0.109
441	0.109
441	0.109
442	0.109
442	0.11
442	0.11
443	0.11
443	0.11
444	0.111
444	0.111
445	0.111
445	0.111
446	0.111
446	0.111
447	0.111
447	0.111
447	0.111
448	0.11
448	0.11
449	0.11
449	0.11
450	0.11
450	0.11
451	0.11
451	0.109
452	0.109
452	0.108
452	0.108
453	0.107
453	0.107
454	0.106
454	0.106
455	0.106
455	0.105
456	0.105
456	0.105
457	0.105
457	0.105
458	0.105
458	0.105
458	0.105
459	0.105
459	0.105
460	0.105
460	0.104
461	0.104
461	0.103
462	0.103
462	0.103
463	0.103
463	0.104
463	0.104
464	0.105
464	0.105
465	0.105
465	0.105
466	0.105
466	0.106
467	0.106
467	0.105
467	0.104
468	0.103
468	0.102
469	0.1
469	0.099
470	0.098
470	0.098
471	0.097
471	0.097
472	0.096
472	0.096
472	0.097
473	0.097
473	0.098
474	0.099
474	0.1
475	0.101
475	0.101
476	0.102
476	0.102
477	0.103
477	0.103
477	0.103
478	0.104
478	0.104
479	0.104
479	0.105
480	0.106
480	0.107
481	0.107
481	0.108
482	0.109
482	0.11
482	0.111
483	0.113
483	0.115
484	0.118
484	0.12
485	0.122
485	0.123
486	0.124
486	0.124
487	0.125
487	0.125
487	0.125
488	0.125
488	0.123
489	0.121
489	0.12
490	0.118
490	0.118
491	0.117
491	0.118
492	0.118
492	0.118
492	0.119
493	0.119
493	0.12
494	0.122
494	0.123
495	0.125
495	0.126
496	0.127
496	0.127
496	0.128
497	0.128
497	0.129
498	0.13
498	0.13
499	0.13
499	0.13
500	0.13
500	0.131
501	0.132
501	0.133
501	0.135
502	0.136
502	0.137
503	0.138
503	0.14
504	0.141
504	0.141
505	0.142
505	0.142
506	0.143
506	0.143
506	0.143
507	0.143
507	0.143
508	0.144
508	0.144
509	0.144
509	0.145
510	0.145
510	0.145
511	0.145
511	0.146
511	0.146
512	0.147
512	0.147
513	0.147
513	0.146
514	0.145
514	0.144
515	0.144
515	0.144
515	0.143
516	0.143
516	0.143
517	0.143
517	0.143
518	0.143
518	0.142
519	0.141
519	0.14
520	0.138
520	0.135
520	0.133
521	0.131
521	0.128
522	0.126
522	0.125
523	0.124
523	0.125
524	0.126
524	0.128
524	0.13
525	0.133
525	0.136
526	0.139
526	0.141
527	0.144
527	0.145
528	0.147
528	0.149
529	0.149
529	0.15
529	0.15
530	0.15
530	0.15
531	0.15
531	0.15
532	0.15
532	0.149
533	0.149
533	0.149
533	0.149
534	0.149
534	0.148
535	0.148
535	0.148
536	0.148
536	0.147
537	0.147
537	0.146
538	0.146
538	0.145
538	0.143
539	0.143
539	0.142
540	0.141
540	0.14
541	0.139
541	0.138
542	0.136
542	0.135
542	0.134
543	0.133
543	0.132
544	0.131
544	0.13
545	0.13
545	0.129
546	0.129
546	0.129
547	0.128
547	0.126
547	0.125
548	0.123
548	0.121
549	0.12
549	0.118
550	0.117
550	0.115
551	0.113
551	0.111
551	0.109
552	0.108
552	0.107
553	0.107
553	0.106
554	0.106
554	0.105
555	0.103
555	0.102
556	0.099
556	0.097
556	0.094
557	0.092
557	0.09
558	0.088
558	0.086
559	0.085
559	0.085
560	0.084
560	0.084
560	0.084
561	0.084
561	0.084
562	0.085
562	0.084
563	0.083
563	0.081
564	0.079
564	0.077
564	0.075
565	0.073
565	0.072
566	0.071
566	0.07
567	0.069
567	0.07
568	0.071
568	0.072
568	0.073
569	0.075
569	0.077
570	0.078
570	0.079
571	0.079
571	0.08
572	0.08
572	0.081
573	0.08
573	0.08
573	0.08
574	0.079
574	0.078
575	0.078
575	0.079
576	0.08
576	0.08
577	0.079
577	0.079
577	0.078
578	0.078
578	0.077
579	0.078
579	0.079
580	0.079
580	0.078
581	0.075
581	0.074
581	0.073
582	0.072
582	0.073
583	0.073
583	0.073
584	0.072
584	0.069
585	0.068
585	0.067
585	0.067
586	0.067
586	0.067
587	0.066
587	0.064
588	0.061
588	0.059
589	0.057
589	0.055
590	0.054
590	0.052
590	0.052
591	0.052
591	0.052
592	0.051
592	0.051
593	0.051
593	0.051
594	0.051
594	0.05
594	0.05
595	0.05
595	0.049
596	0.048
596	0.048
597	0.05
597	0.051
598	0.052
598	0.053
598	0.054
599	0.054
599	0.054
600	0.053
600	0.052
601	0.051
601	0.05
602	0.048
602	0.047
602	0.046
603	0.044
603	0.044
604	0.045
604	0.045
605	0.046
605	0.047
606	0.048
606	0.047
606	0.047
607	0.046
607	0.046
608	0.046
608	0.045
609	0.044
609	0.043
610	0.042
610	0.04
610	0.04
611	0.04
611	0.041
612	0.042
612	0.044
613	0.045
613	0.047
614	0.047
614	0.048
614	0.048
615	0.048
615	0.048
616	0.047
616	0.047
617	0.046
617	0.045
618	0.043
618	0.042
618	0.041
619	0.041
619	0.041
620	0.042
620	0.042
621	0.042
621	0.043
622	0.043
622	0.043
622	0.043
623	0.043
623	0.044
624	0.044
624	0.044
625	0.043
625	0.044
626	0.044
626	0.044
626	0.044
627	0.044
627	0.044
628	0.045
628	0.045
629	0.045
629	0.045
630	0.045
630	0.044
630	0.044
631	0.044
631	0.044
632	0.044
632	0.044
633	0.044
633	0.044
634	0.045
634	0.047
634	0.048
635	0.05
635	0.051
636	0.052
636	0.054
637	0.055
637	0.055
638	0.056
638	0.057
638	0.058
639	0.058
639	0.057
640	0.058
640	0.058
641	0.06
641	0.061
642	0.062
642	0.064
642	0.065
643	0.067
643	0.069
644	0.071
644	0.073
645	0.075
645	0.077
646	0.078
646	0.08
646	0.083
647	0.085
647	0.088
648	0.09
648	0.093
649	0.095
649	0.097
650	0.099
650	0.101
650	0.103
651	0.104
651	0.106
652	0.107
652	0.108
653	0.109
653	0.115
653	0.126
654	0.104
654	0.087
655	0.091
655	0.093
656	0.094
656	0.096
657	0.098
657	0.1
657	0.101
658	0.099
658	0.092
659	0.113
659	0.142
660	0.143
660	0.144
661	0.146
661	0.147
661	0.149
662	0.151
662	0.153
663	0.156
663	0.159
664	0.161
664	0.163
665	0.165
665	0.167
665	0.169
666	0.171
666	0.173
667	0.175
667	0.177
668	0.179
668	0.18
669	0.182
669	0.184
669	0.187
670	0.19
670	0.192
671	0.195
671	0.196
672	0.198
672	0.199
672	0.2
673	0.201
673	0.202
674	0.203
674	0.204
675	0.204
675	0.204
676	0.205
676	0.206
676	0.207
677	0.208
677	0.21
678	0.211
678	0.212
679	0.213
679	0.214
680	0.215
680	0.216
680	0.217
681	0.217
681	0.218
682	0.219
682	0.22
683	0.221
683	0.223
684	0.224
684	0.225
684	0.225
685	0.225
685	0.226
686	0.226
686	0.226
687	0.226
687	0.225
687	0.225
688	0.224
688	0.223
689	0.223
689	0.223
690	0.224
690	0.224
691	0.223
691	0.223
691	0.223
692	0.223
692	0.223
693	0.222
693	0.223
694	0.223
694	0.222
695	0.222
695	0.224
695	0.225
696	0.225
696	0.225
697	0.224
697	0.224
698	0.223
698	0.222
698	0.22
699	0.219
699	0.217
700	0.214
700	0.212
701	0.21
701	0.209
702	0.208
702	0.206
702	0.205
703	0.203
703	0.202
704	0.2
704	0.199
705	0.198
705	0.197
705	0.196
706	0.195
706	0.194
707	0.193
707	0.191
708	0.19
708	0.189
709	0.189
709	0.187
709	0.185
710	0.183
710	0.181
711	0.179
711	0.178
712	0.176
712	0.175
713	0.174
713	0.173
713	0.172
714	0.17
714	0.169
715	0.167
715	0.166
716	0.164
716	0.162
716	0.16
717	0.159
717	0.157
718	0.154
718	0.152
719	0.15
719	0.149
720	0.147
720	0.145
720	0.142
721	0.14
721	0.137
722	0.134
722	0.132
723	0.129
723	0.128
723	0.126
724	0.124
724	0.123
725	0.121
725	0.119
726	0.118
726	0.117
727	0.115
727	0.114
727	0.113
728	0.111
728	0.109
729	0.109
729	0.108
730	0.107
730	0.105
730	0.103
731	0.102
731	0.1
732	0.099
732	0.098
733	0.096
733	0.094
734	0.092
734	0.09
734	0.087
735	0.086
735	0.084
736	0.081
736	0.079
737	0.077
737	0.076
737	0.074
738	0.072
738	0.069
739	0.067
739	0.066
740	0.064
740	0.062
741	0.061
741	0.059
741	0.057
742	0.053
742	0.05
743	0.048
743	0.047
744	0.045
744	0.043
744	0.041
745	0.04
745	0.038
746	0.036
746	0.035
747	0.034
747	0.034
748	0.034
748	0.033
748	0.033
749	0.032
749	0.031
750	0.03
750	0.029
751	0.029
751	0.029
751	0.029
752	0.028
752	0.027
753	0.026
753	0.025
754	0.025
754	0.024
754	0.024
755	0.024
755	0.025
756	0.025
756	0.023
757	0.022
757	0.021
758	0.021
758	0.02
758	0.019
759	0.018
759	0.015
760	0.013
760	0.01
761	0.008
761	0.007
761	0.006
762	0.004
762	0.003
763	0.003
763	0.001
764	-0.001
764	-0.002
764	-0.004
765	-0.006
765	-0.007
766	-0.009
766	-0.009
767	-0.01
767	-0.012
768	-0.015
768	-0.017
768	-0.018
769	-0.019
769	-0.019
770	-0.02
770	-0.021
771	-0.023
771	-0.025
771	-0.027
772	-0.029
772	-0.031
773	-0.033
773	-0.035
774	-0.039
774	-0.042
775	-0.045
775	-0.049
775	-0.052
776	-0.056
776	-0.059
777	-0.063
777	-0.066
778	-0.069
778	-0.073
778	-0.076
779	-0.079
779	-0.081
780	-0.084
780	-0.088
781	-0.092
781	-0.098
781	-0.103
782	-0.109
782	-0.115
783	-0.121
783	-0.125
784	-0.129
784	-0.133
784	-0.137
785	-0.141
785	-0.144
786	-0.145
786	-0.143
787	-0.139
787	-0.135
788	-0.134
788	-0.135
788	-0.137
789	-0.14
789	-0.14
790	-0.137
790	-0.136
791	-0.137
791	-0.139
791	-0.141
792	-0.135
792	-0.124
793	-0.117
793	-0.113
794	-0.11
794	-0.112
794	-0.115
795	-0.117
795	-0.116
796	-0.116
796	-0.119
797	-0.128
797	-0.139
797	-0.146
798	-0.151
798	-0.155
799	-0.156
799	-0.156
800	-0.157
800	-0.159
801	-0.162
801	-0.163
801	-0.162
802	-0.164
802	-0.165
803	-0.165
803	-0.165
804	-0.163
804	-0.158
804	-0.151
805	-0.146
805	-0.144
806	-0.142
806	-0.14
807	-0.139
807	-0.138
807	-0.138
808	-0.137
808	-0.138
809	-0.142
809	-0.147
810	-0.15
810	-0.152
810	-0.155
811	-0.158
811	-0.158
812	-0.155
812	-0.152
813	-0.152
813	-0.154
813	-0.155
814	-0.157
814	-0.157
815	-0.156
815	-0.154
816	-0.152
816	-0.153
817	-0.158
817	-0.162
817	-0.163
818	-0.163
818	-0.16
819	-0.154
819	-0.151
820	-0.152
820	-0.154
820	-0.156
821	-0.155
821	-0.152
822	-0.149
822	-0.144
823	-0.14
823	-0.138
823	-0.137
824	-0.134
824	-0.127
825	-0.118
825	-0.108
826	-0.099
826	-0.092
826	-0.086
827	-0.079
827	-0.074
828	-0.069
828	-0.064
829	-0.06
829	-0.055
829	-0.052
830	-0.05
830	-0.047
831	-0.043
831	-0.039
832	-0.036
832	-0.034
832	-0.031
833	-0.03
833	-0.029
834	-0.027
834	-0.027
835	-0.026
835	-0.026
835	-0.026
836	-0.027
836	-0.027
837	-0.027
837	-0.027
838	-0.026
838	-0.026
839	-0.026
839	-0.026
839	-0.026
840	-0.025
840	-0.024
841	-0.023
841	-0.022
842	-0.02
842	-0.019
842	-0.017
843	-0.016
843	-0.014
844	-0.013
844	-0.012
845	-0.011
845	-0.01
845	-0.009
846	-0.009
846	-0.008
847	-0.007
847	-0.007
848	-0.006
848	-0.005
848	-0.004
849	-0.003
849	-0.002
850	-0.002
850	-0.001
851	-0.001
851	-0
851	-0
852	-0
852	0
853	0
853	-0
854	-0
854	-0
854	-0
855	-0
855	-0
856	0
856	0
857	0
857	0
857	0.001
858	0.001
858	0.001
859	0.002
859	0.002
860	0.003
860	0.004
860	0.005
861	0.006
861	0.007
862	0.008
862	0.009
863	0.009
863	0.011
863	0.012
864	0.012
864	0.013
865	0.014
865	0.014
866	0.015
866	0.015
866	0.016
867	0.016
867	0.017
868	0.017
868	0.017
869	0.017
869	0.017
869	0.017
870	0.017
870	0.017
871	0.016
871	0.016
872	0.014
872	0.013
872	0.012
873	0.011
873	0.01
874	0.009
874	0.008
875	0.007
875	0.006
875	0.005
876	0.005
876	0.005
877	0.005
877	0.005
878	0.005
878	0.006
878	0.006
879	0.006
879	0.007
880	0.008
880	0.008
881	0.009
881	0.011
881	0.012
882	0.013
882	0.014
883	0.014
883	0.015
884	0.016
884	0.016
884	0.016
885	0.016
885	0.016
886	0.016
886	0.016
887	0.016
887	0.015
887	0.015
888	0.014
888	0.014
889	0.014
889	0.014
890	0.014
890	0.014
890	0.014
891	0.014
891	0.014
892	0.015
892	0.015
893	0.015
893	0.016
893	0.017
894	0.017
894	0.017
895	0.018
895	0.018
895	0.018
896	0.018
896	0.018
897	0.018
897	0.018
898	0.017
898	0.016
898	0.015
899	0.014
899	0.013
900	0.012
900	0.012
901	0.011
901	0.01
901	0.01
902	0.01
902	0.009
903	0.009
903	0.009
904	0.009
904	0.009
904	0.009
905	0.01
905	0.01
906	0.01
906	0.011
907	0.01
907	0.01
907	0.01
908	0.01
908	0.01
909	0.01
909	0.01
910	0.01
910	0.009
910	0.009
911	0.01
911	0.01
912	0.011
912	0.012
913	0.013
913	0.014
913	0.015
914	0.016
914	0.018
915	0.019
915	0.02
916	0.021
916	0.022
916	0.023
917	0.023
917	0.023
918	0.023
918	0.023
918	0.023
919	0.022
919	0.021
920	0.02
920	0.018
921	0.016
921	0.015
921	0.014
922	0.013
922	0.012
923	0.012
923	0.011
924	0.011
924	0.012
924	0.012
925	0.013
925	0.013
926	0.014
926	0.015
927	0.016
927	0.016
927	0.017
928	0.017
928	0.018
929	0.019
929	0.019
930	0.019
930	0.019
930	0.019
931	0.019
931	0.019
932	0.019
932	0.018
933	0.018
933	0.018
933	0.017
934	0.017
934	0.017
935	0.017
935	0.017
935	0.017
936	0.017
936	0.017
937	0.017
937	0.017
938	0.017
938	0.017
938	0.016
939	0.016
939	0.016
940	0.016
940	0.016
941	0.016
941	0.016
941	0.017
942	0.017
942	0.018
943	0.018
943	0.018
944	0.019
944	0.02
944	0.021
945	0.022
945	0.023
946	0.024
946	0.024
946	0.025
947	0.025
947	0.026
948	0.026
948	0.026
949	0.025
949	0.025
949	0.024
950	0.024
950	0.023
951	0.023
951	0.023
952	0.022
952	0.022
952	0.022
953	0.022
953	0.022
954	0.022
954	0.022
955	0.022
955	0.022
955	0.021
956	0.021
956	0.021
957	0.02
957	0.02
957	0.019
958	0.019
958	0.019
959	0.019
959	0.019
960	0.019
960	0.019
960	0.02
961	0.02
961	0.02
962	0.021
962	0.021
963	0.021
963	0.021
963	0.021
964	0.021
964	0.021
965	0.021
965	0.02
966	0.02
966	0.019
966	0.019
967	0.018
967	0.017
968	0.017
968	0.016
968	0.016
969	0.016
969	0.016
970	0.016
970	0.016
971	0.016
971	0.016
971	0.017
972	0.017
972	0.018
973	0.019
973	0.019
974	0.02
974	0.02
974	0.021
975	0.021
975	0.022
976	0.022
976	0.022
976	0.022
977	0.021
977	0.021
978	0.02
978	0.019
979	0.019
979	0.018
979	0.017
980	0.017
980	0.016
981	0.015
981	0.015
982	0.014
982	0.014
982	0.014
983	0.014
983	0.013
984	0.013
984	0.013
984	0.013
985	0.013
985	0.013
986	0.012
986	0.012
987	0.011
987	0.011
987	0.011
988	0.01
988	0.01
989	0.009
989	0.008
990	0.008
990	0.008
990	0.007
991	0.007
991	0.007
992	0.007
992	0.007
992	0.006
993	0.006
993	0.006
994	0.006
994	0.005
995	0.005
995	0.005
995	0.004
996	0.004
996	0.004
997	0.004
997	0.004
997	0.004
998	0.004
998	0.004
999	0.005
999	0.005
1000	0.006
1000	0.007
1000	0.008
1001	0.008
1001	0.009
1002	0.01
1002	0.01
1003	0.01
1003	0.01
1003	0.01
1004	0.01
1004	0.01
1005	0.009
1005	0.008
1005	0.008
1006	0.007
1006	0.007
1007	0.006
1007	0.005
1008	0.005
1008	0.005
1008	0.005
1009	0.005
1009	0.006
1010	0.006
1010	0.007
1010	0.008
1011	0.009
1011	0.01
1012	0.011
1012	0.012
1013	0.013
1013	0.014
1013	0.014
1014	0.015
1014	0.016
1015	0.016
1015	0.016
1016	0.016
1016	0.016
1016	0.016
1017	0.017
1017	0.017
1018	0.017
1018	0.017
1018	0.017
1019	0.017
1019	0.017
1020	0.017
1020	0.016
1021	0.016
1021	0.016
1021	0.015
1022	0.015
1022	0.014
1023	0.014
1023	0.014
1023	0.013
1024	0.013
1024	0.013
1025	0.013
1025	0.013
1026	0.014
1026	0.014
1026	0.014
1027	0.014
1027	0.015
1028	0.015
1028	0.016
1028	0.016
1029	0.016
1029	0.017
1030	0.017
1030	0.017
1031	0.018
1031	0.018
1031	0.018
1032	0.018
1032	0.018
1033	0.018
1033	0.018
1033	0.018
1034	0.018
1034	0.018
1035	0.018
1035	0.018
1036	0.018
1036	0.018
1036	0.019
1037	0.02
1037	0.02
1038	0.021
1038	0.022
1039	0.022
1039	0.024
1039	0.024
1040	0.025
1040	0.026
1041	0.026
1041	0.027
1041	0.027
1042	0.027
1042	0.028
1043	0.028
1043	0.029
1044	0.029
1044	0.03
1044	0.031
1045	0.031
1045	0.032
1046	0.033
1046	0.035
1046	0.036
1047	0.038
1047	0.04
1048	0.041
1048	0.042
1049	0.043
1049	0.044
1049	0.045
1050	0.045
1050	0.045
1051	0.045
1051	0.045
1051	0.044
1052	0.044
1052	0.043
1053	0.042
1053	0.041
1053	0.041
1054	0.04
1054	0.039
1055	0.038
1055	0.037
1056	0.037
1056	0.036
1056	0.035
1057	0.034
1057	0.033
1058	0.033
1058	0.033
1058	0.033
1059	0.033
1059	0.033
1060	0.033
1060	0.034
1061	0.034
1061	0.035
1061	0.036
1062	0.036
1062	0.037
1063	0.038
1063	0.038
1063	0.039
1064	0.04
1064	0.041
1065	0.043
1065	0.044
1066	0.045
1066	0.047
1066	0.049
1067	0.051
1067	0.054
1068	0.056
1068	0.057
1068	0.059
1069	0.06
1069	0.061
1070	0.062
1070	0.063
1071	0.065
1071	0.065
1071	0.066
1072	0.067
1072	0.069
1073	0.07
1073	0.071
1073	0.072
1074	0.073
1074	0.074
1075	0.074
1075	0.074
1076	0.074
1076	0.075
1076	0.075
1077	0.076
1077	0.077
1078	0.078
1078	0.08
1078	0.082
1079	0.083
1079	0.086
1080	0.087
1080	0.09
1080	0.091
1081	0.093
1081	0.096
1082	0.097
1082	0.099
1083	0.101
1083	0.102
1083	0.105
1084	0.107
1084	0.11
1085	0.113
1085	0.116
1085	0.119
1086	0.121
1086	0.123
1087	0.126
1087	0.129
1088	0.132
1088	0.136
1088	0.14
1089	0.143
1089	0.148
1090	0.153
1090	0.158
1090	0.164
1091	0.171
1091	0.179
1092	0.186
1092	0.195
1092	0.202
1093	0.21
1093	0.22
1094	0.229
1094	0.239
1095	0.25
1095	0.262
1095	0.277
1096	0.291
1096	0.307
1097	0.325
1097	0.344
1097	0.367
1098	0.39
1098	0.417
1099	0.448
1099	0.483
1100	0.522
1100	0.568
1100	0.623
1101	0.688
1101	0.772
1102	0.887
1102	1.055
1102	1.343
1103	3.98
1103	-0
1104	-0
1104	-0
1104	-0
1105	-0
1105	-0
1106	-0
1106	-0
1107	-0
1107	-0
1107	-0
1108	-0
1108	-0
1109	-0
1109	-0
1109	-0
1110	-0
1110	-0
1111	-0
1111	-0
