Data from 15c-2-4a_Absorbance__118__00118.txt Node

Date: Thu Jan 25 10:08:06 CET 2024
User: Marek
Spectrometer: MAYP115816
Trigger mode: 0
Integration Time (sec): 2.000000E-1
Scans to average: 10
Electric dark correction enabled: true
Nonlinearity correction enabled: true
Boxcar width: 5
XAxis mode: Wavelengths
Number of Pixels in Spectrum: 2068
>>>>>Begin Spectral Data<<<<<
199	-2.106
199	-1.935
200	-1.781
200	-1.659
201	-1.581
201	-1.523
202	-1.44
202	-1.378
203	-1.325
203	-1.278
204	-1.252
204	-1.225
205	-1.204
205	-1.193
205	-1.187
206	-1.183
206	-1.179
207	-1.179
207	-1.175
208	-1.17
208	-1.167
209	-1.162
209	-1.159
210	-1.156
210	-1.154
211	-1.152
211	-1.15
212	-1.147
212	-1.145
213	-1.143
213	-1.143
213	-1.143
214	-1.142
214	-1.141
215	-1.139
215	-1.137
216	-1.135
216	-1.133
217	-1.131
217	-1.128
218	-1.127
218	-1.124
219	-1.122
219	-1.119
220	-1.118
220	-1.114
221	-1.111
221	-1.109
221	-1.105
222	-1.103
222	-1.102
223	-1.097
223	-1.091
224	-1.084
224	-1.075
225	-1.066
225	-1.058
226	-1.048
226	-1.036
227	-1.022
227	-1.009
228	-0.989
228	-0.971
229	-0.95
229	-0.928
229	-0.903
230	-0.874
230	-0.846
231	-0.813
231	-0.776
232	-0.738
232	-0.696
233	-0.654
233	-0.611
234	-0.569
234	-0.525
235	-0.481
235	-0.44
236	-0.398
236	-0.36
236	-0.323
237	-0.289
237	-0.257
238	-0.227
238	-0.2
239	-0.174
239	-0.15
240	-0.129
240	-0.109
241	-0.091
241	-0.074
242	-0.059
242	-0.046
243	-0.033
243	-0.021
243	-0.011
244	-0.001
244	0.008
245	0.016
245	0.024
246	0.031
246	0.037
247	0.043
247	0.049
248	0.054
248	0.059
249	0.063
249	0.068
250	0.072
250	0.076
250	0.08
251	0.083
251	0.087
252	0.09
252	0.093
253	0.096
253	0.099
254	0.101
254	0.104
255	0.106
255	0.108
256	0.11
256	0.112
257	0.114
257	0.115
258	0.117
258	0.118
258	0.119
259	0.12
259	0.121
260	0.121
260	0.122
261	0.122
261	0.123
262	0.123
262	0.123
263	0.123
263	0.123
264	0.123
264	0.123
265	0.123
265	0.123
265	0.123
266	0.122
266	0.122
267	0.121
267	0.121
268	0.12
268	0.119
269	0.118
269	0.117
270	0.116
270	0.115
271	0.114
271	0.113
272	0.112
272	0.11
272	0.109
273	0.108
273	0.107
274	0.105
274	0.104
275	0.103
275	0.101
276	0.1
276	0.098
277	0.097
277	0.096
278	0.094
278	0.093
278	0.091
279	0.09
279	0.089
280	0.087
280	0.086
281	0.085
281	0.084
282	0.083
282	0.082
283	0.081
283	0.08
284	0.079
284	0.078
285	0.077
285	0.076
285	0.075
286	0.074
286	0.073
287	0.072
287	0.071
288	0.07
288	0.069
289	0.068
289	0.068
290	0.067
290	0.066
291	0.065
291	0.065
292	0.064
292	0.063
292	0.063
293	0.062
293	0.062
294	0.061
294	0.06
295	0.06
295	0.06
296	0.059
296	0.059
297	0.058
297	0.058
298	0.058
298	0.057
298	0.057
299	0.057
299	0.057
300	0.056
300	0.056
301	0.056
301	0.055
302	0.055
302	0.055
303	0.055
303	0.055
304	0.055
304	0.054
305	0.054
305	0.054
305	0.054
306	0.053
306	0.053
307	0.053
307	0.053
308	0.052
308	0.052
309	0.052
309	0.052
310	0.052
310	0.051
311	0.051
311	0.051
311	0.051
312	0.051
312	0.05
313	0.05
313	0.05
314	0.05
314	0.049
315	0.049
315	0.049
316	0.049
316	0.048
317	0.048
317	0.048
318	0.047
318	0.047
318	0.047
319	0.046
319	0.046
320	0.046
320	0.046
321	0.045
321	0.045
322	0.045
322	0.044
323	0.044
323	0.044
324	0.044
324	0.043
324	0.043
325	0.043
325	0.043
326	0.042
326	0.042
327	0.042
327	0.042
328	0.041
328	0.041
329	0.041
329	0.041
330	0.04
330	0.04
330	0.04
331	0.039
331	0.039
332	0.039
332	0.038
333	0.038
333	0.037
334	0.037
334	0.037
335	0.036
335	0.036
336	0.036
336	0.036
336	0.035
337	0.035
337	0.035
338	0.035
338	0.035
339	0.034
339	0.034
340	0.034
340	0.034
341	0.033
341	0.033
342	0.033
342	0.032
342	0.032
343	0.032
343	0.031
344	0.031
344	0.031
345	0.03
345	0.03
346	0.03
346	0.029
347	0.029
347	0.028
348	0.028
348	0.028
348	0.027
349	0.027
349	0.027
350	0.026
350	0.026
351	0.025
351	0.025
352	0.025
352	0.024
353	0.024
353	0.024
354	0.023
354	0.023
354	0.022
355	0.022
355	0.021
356	0.021
356	0.021
357	0.021
357	0.02
358	0.02
358	0.021
359	0.021
359	0.022
360	0.022
360	0.023
360	0.023
361	0.023
361	0.023
362	0.023
362	0.023
363	0.023
363	0.023
364	0.023
364	0.022
365	0.022
365	0.022
366	0.022
366	0.022
366	0.022
367	0.021
367	0.021
368	0.021
368	0.021
369	0.021
369	0.021
370	0.02
370	0.02
371	0.02
371	0.02
372	0.02
372	0.019
372	0.019
373	0.019
373	0.019
374	0.019
374	0.019
375	0.019
375	0.019
376	0.018
376	0.018
377	0.019
377	0.019
378	0.019
378	0.019
378	0.019
379	0.019
379	0.019
380	0.02
380	0.019
381	0.02
381	0.019
382	0.019
382	0.019
383	0.019
383	0.019
383	0.019
384	0.019
384	0.018
385	0.018
385	0.018
386	0.018
386	0.018
387	0.018
387	0.018
388	0.018
388	0.018
389	0.018
389	0.018
389	0.018
390	0.018
390	0.019
391	0.019
391	0.019
392	0.019
392	0.019
393	0.02
393	0.02
394	0.019
394	0.019
394	0.019
395	0.019
395	0.019
396	0.018
396	0.018
397	0.018
397	0.019
398	0.019
398	0.019
399	0.019
399	0.019
400	0.019
400	0.019
400	0.019
401	0.018
401	0.018
402	0.017
402	0.017
403	0.017
403	0.017
404	0.017
404	0.017
405	0.016
405	0.016
405	0.016
406	0.016
406	0.016
407	0.016
407	0.015
408	0.015
408	0.015
409	0.014
409	0.014
410	0.014
410	0.014
411	0.014
411	0.014
411	0.014
412	0.014
412	0.014
413	0.013
413	0.013
414	0.013
414	0.013
415	0.013
415	0.013
416	0.013
416	0.013
416	0.013
417	0.013
417	0.013
418	0.013
418	0.013
419	0.013
419	0.014
420	0.014
420	0.015
421	0.015
421	0.015
421	0.016
422	0.015
422	0.015
423	0.015
423	0.015
424	0.015
424	0.014
425	0.014
425	0.013
426	0.013
426	0.012
427	0.012
427	0.012
427	0.013
428	0.013
428	0.013
429	0.014
429	0.014
430	0.014
430	0.014
431	0.014
431	0.013
432	0.013
432	0.013
432	0.012
433	0.012
433	0.011
434	0.011
434	0.011
435	0.011
435	0.011
436	0.011
436	0.011
437	0.011
437	0.011
437	0.011
438	0.011
438	0.011
439	0.011
439	0.01
440	0.01
440	0.01
441	0.01
441	0.01
442	0.01
442	0.01
442	0.01
443	0.01
443	0.011
444	0.011
444	0.011
445	0.011
445	0.011
446	0.011
446	0.012
447	0.012
447	0.012
447	0.011
448	0.011
448	0.011
449	0.011
449	0.011
450	0.011
450	0.011
451	0.011
451	0.01
452	0.01
452	0.009
452	0.009
453	0.009
453	0.008
454	0.008
454	0.007
455	0.007
455	0.007
456	0.007
456	0.007
457	0.006
457	0.006
458	0.006
458	0.006
458	0.006
459	0.006
459	0.006
460	0.006
460	0.006
461	0.005
461	0.005
462	0.005
462	0.005
463	0.005
463	0.005
463	0.005
464	0.006
464	0.006
465	0.005
465	0.005
466	0.005
466	0.005
467	0.005
467	0.005
467	0.004
468	0.003
468	0.002
469	0.001
469	-0
470	-0.001
470	-0.001
471	-0.001
471	-0.002
472	-0.002
472	-0.002
472	-0.002
473	-0.002
473	-0.001
474	-0.001
474	-0
475	0
475	0
476	0.001
476	0.001
477	0.001
477	0.001
477	0.002
478	0.002
478	0.002
479	0.002
479	0.002
480	0.003
480	0.003
481	0.003
481	0.004
482	0.004
482	0.005
482	0.005
483	0.006
483	0.008
484	0.009
484	0.011
485	0.012
485	0.012
486	0.013
486	0.013
487	0.013
487	0.013
487	0.013
488	0.012
488	0.011
489	0.01
489	0.009
490	0.008
490	0.007
491	0.006
491	0.006
492	0.006
492	0.006
492	0.006
493	0.006
493	0.006
494	0.007
494	0.008
495	0.008
495	0.009
496	0.009
496	0.009
496	0.009
497	0.009
497	0.009
498	0.009
498	0.009
499	0.009
499	0.009
500	0.009
500	0.009
501	0.009
501	0.01
501	0.011
502	0.011
502	0.012
503	0.013
503	0.014
504	0.014
504	0.014
505	0.014
505	0.014
506	0.014
506	0.014
506	0.014
507	0.014
507	0.014
508	0.014
508	0.013
509	0.013
509	0.013
510	0.013
510	0.014
511	0.013
511	0.013
511	0.013
512	0.012
512	0.012
513	0.012
513	0.012
514	0.011
514	0.011
515	0.01
515	0.009
515	0.008
516	0.007
516	0.007
517	0.007
517	0.007
518	0.007
518	0.007
519	0.006
519	0.006
520	0.005
520	0.004
520	0.003
521	0.001
521	-0.001
522	-0.003
522	-0.005
523	-0.007
523	-0.008
524	-0.008
524	-0.008
524	-0.007
525	-0.006
525	-0.005
526	-0.003
526	-0.001
527	0.001
527	0.004
528	0.006
528	0.007
529	0.009
529	0.01
529	0.01
530	0.011
530	0.011
531	0.012
531	0.012
532	0.012
532	0.012
533	0.012
533	0.013
533	0.013
534	0.013
534	0.013
535	0.013
535	0.013
536	0.013
536	0.013
537	0.013
537	0.013
538	0.012
538	0.012
538	0.011
539	0.011
539	0.011
540	0.011
540	0.01
541	0.01
541	0.009
542	0.009
542	0.008
542	0.008
543	0.008
543	0.008
544	0.008
544	0.007
545	0.007
545	0.007
546	0.008
546	0.008
547	0.008
547	0.007
547	0.006
548	0.005
548	0.004
549	0.003
549	0.003
550	0.002
550	0.001
551	-0
551	-0.001
551	-0.002
552	-0.002
552	-0.002
553	-0.002
553	-0.002
554	-0.001
554	-0.001
555	-0.002
555	-0.002
556	-0.003
556	-0.004
556	-0.005
557	-0.007
557	-0.008
558	-0.008
558	-0.009
559	-0.01
559	-0.01
560	-0.01
560	-0.01
560	-0.009
561	-0.009
561	-0.008
562	-0.008
562	-0.008
563	-0.008
563	-0.009
564	-0.01
564	-0.011
564	-0.012
565	-0.013
565	-0.014
566	-0.014
566	-0.014
567	-0.014
567	-0.013
568	-0.012
568	-0.011
568	-0.009
569	-0.007
569	-0.006
570	-0.004
570	-0.003
571	-0.002
571	-0.002
572	-0.001
572	-0
573	0.001
573	0.001
573	0.001
574	0.001
574	0.002
575	0.002
575	0.003
576	0.004
576	0.005
577	0.005
577	0.005
577	0.004
578	0.004
578	0.004
579	0.004
579	0.005
580	0.005
580	0.005
581	0.004
581	0.003
581	0.002
582	0.002
582	0.002
583	0.003
583	0.003
584	0.003
584	0.001
585	0
585	-0
585	-0.001
586	-0.001
586	-0.001
587	-0.001
587	-0.002
588	-0.003
588	-0.005
589	-0.006
589	-0.007
590	-0.007
590	-0.008
590	-0.008
591	-0.008
591	-0.007
592	-0.007
592	-0.007
593	-0.007
593	-0.007
594	-0.007
594	-0.007
594	-0.007
595	-0.007
595	-0.007
596	-0.008
596	-0.008
597	-0.007
597	-0.006
598	-0.005
598	-0.005
598	-0.004
599	-0.004
599	-0.004
600	-0.004
600	-0.005
601	-0.006
601	-0.006
602	-0.007
602	-0.008
602	-0.009
603	-0.01
603	-0.01
604	-0.009
604	-0.009
605	-0.008
605	-0.007
606	-0.007
606	-0.007
606	-0.007
607	-0.007
607	-0.007
608	-0.007
608	-0.008
609	-0.008
609	-0.009
610	-0.01
610	-0.01
610	-0.01
611	-0.01
611	-0.009
612	-0.008
612	-0.008
613	-0.007
613	-0.006
614	-0.005
614	-0.005
614	-0.005
615	-0.006
615	-0.006
616	-0.007
616	-0.008
617	-0.008
617	-0.01
618	-0.011
618	-0.012
618	-0.013
619	-0.013
619	-0.013
620	-0.012
620	-0.012
621	-0.011
621	-0.011
622	-0.011
622	-0.011
622	-0.011
623	-0.011
623	-0.011
624	-0.011
624	-0.011
625	-0.011
625	-0.012
626	-0.012
626	-0.012
626	-0.012
627	-0.012
627	-0.012
628	-0.012
628	-0.012
629	-0.012
629	-0.012
630	-0.013
630	-0.014
630	-0.014
631	-0.014
631	-0.014
632	-0.015
632	-0.015
633	-0.015
633	-0.014
634	-0.014
634	-0.013
634	-0.012
635	-0.011
635	-0.01
636	-0.01
636	-0.009
637	-0.008
637	-0.008
638	-0.008
638	-0.008
638	-0.007
639	-0.008
639	-0.008
640	-0.008
640	-0.008
641	-0.007
641	-0.007
642	-0.006
642	-0.005
642	-0.004
643	-0.003
643	-0.002
644	-0
644	0.001
645	0.002
645	0.003
646	0.004
646	0.005
646	0.007
647	0.008
647	0.01
648	0.011
648	0.012
649	0.013
649	0.014
650	0.016
650	0.017
650	0.018
651	0.019
651	0.02
652	0.021
652	0.021
653	0.022
653	0.025
653	0.027
654	0.024
654	0.021
655	0.024
655	0.025
656	0.026
656	0.027
657	0.028
657	0.029
657	0.03
658	0.029
658	0.03
659	0.035
659	0.041
660	0.042
660	0.042
661	0.042
661	0.042
661	0.043
662	0.043
662	0.044
663	0.045
663	0.047
664	0.048
664	0.049
665	0.05
665	0.051
665	0.052
666	0.054
666	0.055
667	0.056
667	0.057
668	0.058
668	0.059
669	0.06
669	0.062
669	0.063
670	0.065
670	0.067
671	0.068
671	0.068
672	0.069
672	0.069
672	0.07
673	0.07
673	0.071
674	0.071
674	0.071
675	0.071
675	0.071
676	0.071
676	0.072
676	0.073
677	0.074
677	0.075
678	0.076
678	0.077
679	0.077
679	0.078
680	0.078
680	0.079
680	0.08
681	0.08
681	0.08
682	0.081
682	0.082
683	0.083
683	0.084
684	0.085
684	0.086
684	0.086
685	0.086
685	0.087
686	0.087
686	0.087
687	0.086
687	0.086
687	0.085
688	0.084
688	0.083
689	0.082
689	0.082
690	0.082
690	0.081
691	0.081
691	0.081
691	0.081
692	0.081
692	0.081
693	0.081
693	0.082
694	0.082
694	0.082
695	0.083
695	0.085
695	0.087
696	0.087
696	0.088
697	0.088
697	0.088
698	0.088
698	0.087
698	0.086
699	0.085
699	0.084
700	0.082
700	0.08
701	0.079
701	0.079
702	0.078
702	0.077
702	0.076
703	0.075
703	0.074
704	0.073
704	0.072
705	0.072
705	0.071
705	0.07
706	0.07
706	0.069
707	0.069
707	0.068
708	0.067
708	0.067
709	0.067
709	0.066
709	0.064
710	0.063
710	0.062
711	0.061
711	0.06
712	0.06
712	0.059
713	0.059
713	0.059
713	0.059
714	0.058
714	0.057
715	0.056
715	0.055
716	0.054
716	0.054
716	0.053
717	0.052
717	0.051
718	0.049
718	0.048
719	0.047
719	0.046
720	0.045
720	0.044
720	0.043
721	0.041
721	0.04
722	0.038
722	0.036
723	0.034
723	0.033
723	0.032
724	0.03
724	0.029
725	0.027
725	0.026
726	0.025
726	0.024
727	0.023
727	0.022
727	0.022
728	0.021
728	0.02
729	0.02
729	0.02
730	0.02
730	0.02
730	0.019
731	0.018
731	0.018
732	0.017
732	0.017
733	0.016
733	0.015
734	0.014
734	0.013
734	0.012
735	0.011
735	0.01
736	0.008
736	0.007
737	0.006
737	0.005
737	0.005
738	0.003
738	0.002
739	0.001
739	-0
740	-0.001
740	-0.002
741	-0.002
741	-0.003
741	-0.005
742	-0.008
742	-0.01
743	-0.011
743	-0.013
744	-0.014
744	-0.015
744	-0.016
745	-0.018
745	-0.019
746	-0.02
746	-0.02
747	-0.021
747	-0.021
748	-0.021
748	-0.021
748	-0.022
749	-0.023
749	-0.023
750	-0.024
750	-0.024
751	-0.024
751	-0.024
751	-0.024
752	-0.023
752	-0.024
753	-0.024
753	-0.024
754	-0.024
754	-0.025
754	-0.025
755	-0.025
755	-0.024
756	-0.024
756	-0.025
757	-0.026
757	-0.026
758	-0.027
758	-0.027
758	-0.028
759	-0.028
759	-0.029
760	-0.031
760	-0.033
761	-0.035
761	-0.035
761	-0.036
762	-0.037
762	-0.037
763	-0.037
763	-0.038
764	-0.039
764	-0.04
764	-0.041
765	-0.042
765	-0.043
766	-0.044
766	-0.044
767	-0.044
767	-0.046
768	-0.048
768	-0.05
768	-0.051
769	-0.051
769	-0.051
770	-0.051
770	-0.051
771	-0.052
771	-0.054
771	-0.056
772	-0.057
772	-0.059
773	-0.06
773	-0.063
774	-0.065
774	-0.068
775	-0.071
775	-0.074
775	-0.077
776	-0.081
776	-0.084
777	-0.088
777	-0.091
778	-0.094
778	-0.098
778	-0.101
779	-0.104
779	-0.104
780	-0.107
780	-0.111
781	-0.114
781	-0.118
781	-0.121
782	-0.124
782	-0.128
783	-0.132
783	-0.134
784	-0.136
784	-0.139
784	-0.141
785	-0.143
785	-0.145
786	-0.146
786	-0.144
787	-0.139
787	-0.136
788	-0.135
788	-0.136
788	-0.137
789	-0.14
789	-0.14
790	-0.138
790	-0.136
791	-0.137
791	-0.139
791	-0.141
792	-0.136
792	-0.125
793	-0.118
793	-0.113
794	-0.111
794	-0.112
794	-0.115
795	-0.117
795	-0.117
796	-0.117
796	-0.119
797	-0.128
797	-0.139
797	-0.146
798	-0.152
798	-0.156
799	-0.157
799	-0.157
800	-0.157
800	-0.159
801	-0.162
801	-0.163
801	-0.163
802	-0.164
802	-0.165
803	-0.165
803	-0.165
804	-0.164
804	-0.158
804	-0.151
805	-0.147
805	-0.144
806	-0.142
806	-0.141
807	-0.139
807	-0.138
807	-0.138
808	-0.137
808	-0.138
809	-0.142
809	-0.147
810	-0.15
810	-0.152
810	-0.156
811	-0.158
811	-0.159
812	-0.155
812	-0.152
813	-0.153
813	-0.154
813	-0.156
814	-0.157
814	-0.158
815	-0.156
815	-0.154
816	-0.153
816	-0.154
817	-0.159
817	-0.163
817	-0.164
818	-0.163
818	-0.16
819	-0.155
819	-0.152
820	-0.153
820	-0.155
820	-0.155
821	-0.154
821	-0.151
822	-0.147
822	-0.143
823	-0.139
823	-0.137
823	-0.137
824	-0.133
824	-0.127
825	-0.119
825	-0.11
826	-0.102
826	-0.096
826	-0.09
827	-0.085
827	-0.08
828	-0.075
828	-0.071
829	-0.067
829	-0.064
829	-0.061
830	-0.059
830	-0.057
831	-0.055
831	-0.052
832	-0.05
832	-0.048
832	-0.046
833	-0.045
833	-0.044
834	-0.043
834	-0.043
835	-0.043
835	-0.043
835	-0.043
836	-0.043
836	-0.043
837	-0.043
837	-0.042
838	-0.042
838	-0.042
839	-0.041
839	-0.041
839	-0.04
840	-0.039
840	-0.038
841	-0.037
841	-0.036
842	-0.035
842	-0.034
842	-0.033
843	-0.032
843	-0.031
844	-0.03
844	-0.029
845	-0.029
845	-0.029
845	-0.028
846	-0.028
846	-0.028
847	-0.028
847	-0.028
848	-0.027
848	-0.027
848	-0.026
849	-0.025
849	-0.025
850	-0.024
850	-0.023
851	-0.022
851	-0.021
851	-0.02
852	-0.02
852	-0.019
853	-0.019
853	-0.018
854	-0.018
854	-0.018
854	-0.018
855	-0.018
855	-0.018
856	-0.018
856	-0.018
857	-0.019
857	-0.019
857	-0.019
858	-0.018
858	-0.018
859	-0.018
859	-0.017
860	-0.017
860	-0.016
860	-0.015
861	-0.014
861	-0.013
862	-0.012
862	-0.011
863	-0.009
863	-0.008
863	-0.007
864	-0.006
864	-0.005
865	-0.004
865	-0.003
866	-0.003
866	-0.003
866	-0.002
867	-0.002
867	-0.002
868	-0.002
868	-0.002
869	-0.003
869	-0.003
869	-0.003
870	-0.004
870	-0.004
871	-0.004
871	-0.005
872	-0.005
872	-0.006
872	-0.006
873	-0.007
873	-0.007
874	-0.007
874	-0.006
875	-0.006
875	-0.006
875	-0.005
876	-0.004
876	-0.003
877	-0.003
877	-0.002
878	-0.002
878	-0.001
878	-0.001
879	-0.001
879	-0.001
880	-0.001
880	-0.001
881	-0.002
881	-0.002
881	-0.002
882	-0.002
882	-0.002
883	-0.002
883	-0.002
884	-0.002
884	-0.002
884	-0.002
885	-0.002
885	-0.002
886	-0.002
886	-0.002
887	-0.003
887	-0.003
887	-0.003
888	-0.004
888	-0.005
889	-0.005
889	-0.005
890	-0.005
890	-0.006
890	-0.006
891	-0.005
891	-0.006
892	-0.005
892	-0.005
893	-0.005
893	-0.004
893	-0.004
894	-0.003
894	-0.003
895	-0.003
895	-0.004
895	-0.004
896	-0.004
896	-0.004
897	-0.004
897	-0.005
898	-0.006
898	-0.006
898	-0.007
899	-0.007
899	-0.007
900	-0.008
900	-0.008
901	-0.009
901	-0.009
901	-0.009
902	-0.01
902	-0.01
903	-0.01
903	-0.01
904	-0.01
904	-0.01
904	-0.009
905	-0.009
905	-0.008
906	-0.008
906	-0.007
907	-0.006
907	-0.006
907	-0.005
908	-0.005
908	-0.005
909	-0.004
909	-0.004
910	-0.004
910	-0.004
910	-0.004
911	-0.004
911	-0.004
912	-0.003
912	-0.003
913	-0.003
913	-0.002
913	-0.001
914	-0.001
914	0
915	0.001
915	0.001
916	0.002
916	0.002
916	0.002
917	0.002
917	0.002
918	0.002
918	0.001
918	0.001
919	0
919	-0.001
920	-0.002
920	-0.002
921	-0.003
921	-0.004
921	-0.004
922	-0.004
922	-0.004
923	-0.004
923	-0.004
924	-0.004
924	-0.003
924	-0.003
925	-0.002
925	-0.001
926	-0
926	0
927	0.001
927	0.001
927	0.002
928	0.002
928	0.003
929	0.003
929	0.003
930	0.003
930	0.003
930	0.003
931	0.003
931	0.003
932	0.002
932	0.002
933	0.002
933	0.002
933	0.002
934	0.003
934	0.003
935	0.003
935	0.004
935	0.004
936	0.005
936	0.005
937	0.005
937	0.005
938	0.004
938	0.004
938	0.004
939	0.003
939	0.003
940	0.003
940	0.003
941	0.003
941	0.004
941	0.004
942	0.005
942	0.006
943	0.007
943	0.008
944	0.009
944	0.009
944	0.01
945	0.011
945	0.012
946	0.012
946	0.013
946	0.013
947	0.014
947	0.013
948	0.013
948	0.013
949	0.013
949	0.012
949	0.011
950	0.01
950	0.009
951	0.009
951	0.008
952	0.008
952	0.008
952	0.007
953	0.007
953	0.007
954	0.008
954	0.008
955	0.008
955	0.008
955	0.009
956	0.009
956	0.009
957	0.009
957	0.009
957	0.009
958	0.009
958	0.009
959	0.009
959	0.009
960	0.009
960	0.009
960	0.01
961	0.01
961	0.01
962	0.011
962	0.011
963	0.012
963	0.012
963	0.012
964	0.013
964	0.013
965	0.013
965	0.013
966	0.012
966	0.012
966	0.011
967	0.01
967	0.009
968	0.008
968	0.007
968	0.006
969	0.006
969	0.005
970	0.004
970	0.004
971	0.004
971	0.004
971	0.004
972	0.005
972	0.006
973	0.006
973	0.007
974	0.008
974	0.008
974	0.008
975	0.009
975	0.008
976	0.008
976	0.008
976	0.007
977	0.007
977	0.006
978	0.005
978	0.004
979	0.003
979	0.002
979	0.002
980	0.001
980	0.001
981	0
981	-0
982	-0
982	-0.001
982	-0.001
983	-0.001
983	-0.001
984	-0.001
984	-0.001
984	-0.001
985	-0.001
985	-0.001
986	-0.001
986	-0.002
987	-0.002
987	-0.002
987	-0.002
988	-0.001
988	-0.001
989	-0.001
989	-0.001
990	-0.002
990	-0.002
990	-0.002
991	-0.001
991	-0.002
992	-0.002
992	-0.002
992	-0.002
993	-0.003
993	-0.003
994	-0.004
994	-0.004
995	-0.005
995	-0.005
995	-0.006
996	-0.006
996	-0.007
997	-0.007
997	-0.007
997	-0.006
998	-0.006
998	-0.006
999	-0.005
999	-0.004
1000	-0.003
1000	-0.002
1000	-0.001
1001	-0
1001	0.001
1002	0.001
1002	0.001
1003	0.002
1003	0.002
1003	0.002
1004	0.001
1004	0.001
1005	0.001
1005	0.001
1005	0
1006	0
1006	0
1007	0
1007	-0
1008	-0
1008	-0
1008	-0
1009	-0
1009	0
1010	0
1010	0.001
1010	0.001
1011	0.002
1011	0.003
1012	0.004
1012	0.005
1013	0.006
1013	0.007
1013	0.008
1014	0.008
1014	0.009
1015	0.01
1015	0.01
1016	0.011
1016	0.011
1016	0.012
1017	0.012
1017	0.013
1018	0.013
1018	0.013
1018	0.014
1019	0.014
1019	0.014
1020	0.014
1020	0.013
1021	0.013
1021	0.013
1021	0.012
1022	0.012
1022	0.012
1023	0.011
1023	0.011
1023	0.011
1024	0.011
1024	0.011
1025	0.011
1025	0.011
1026	0.011
1026	0.011
1026	0.011
1027	0.01
1027	0.01
1028	0.01
1028	0.01
1028	0.01
1029	0.01
1029	0.01
1030	0.01
1030	0.011
1031	0.011
1031	0.011
1031	0.011
1032	0.012
1032	0.012
1033	0.012
1033	0.012
1033	0.013
1034	0.012
1034	0.012
1035	0.012
1035	0.012
1036	0.012
1036	0.012
1036	0.012
1037	0.013
1037	0.013
1038	0.014
1038	0.014
1039	0.015
1039	0.016
1039	0.016
1040	0.017
1040	0.018
1041	0.018
1041	0.019
1041	0.019
1042	0.019
1042	0.02
1043	0.021
1043	0.021
1044	0.022
1044	0.022
1044	0.023
1045	0.023
1045	0.024
1046	0.025
1046	0.026
1046	0.027
1047	0.028
1047	0.029
1048	0.03
1048	0.031
1049	0.031
1049	0.032
1049	0.032
1050	0.033
1050	0.034
1051	0.034
1051	0.034
1051	0.034
1052	0.034
1052	0.033
1053	0.033
1053	0.033
1053	0.033
1054	0.033
1054	0.033
1055	0.032
1055	0.032
1056	0.032
1056	0.032
1056	0.032
1057	0.032
1057	0.032
1058	0.032
1058	0.033
1058	0.033
1059	0.034
1059	0.034
1060	0.035
1060	0.036
1061	0.037
1061	0.037
1061	0.038
1062	0.039
1062	0.039
1063	0.04
1063	0.041
1063	0.042
1064	0.044
1064	0.045
1065	0.046
1065	0.048
1066	0.049
1066	0.051
1066	0.053
1067	0.055
1067	0.057
1068	0.058
1068	0.06
1068	0.062
1069	0.063
1069	0.064
1070	0.066
1070	0.067
1071	0.069
1071	0.07
1071	0.071
1072	0.073
1072	0.074
1073	0.076
1073	0.077
1073	0.078
1074	0.079
1074	0.08
1075	0.08
1075	0.081
1076	0.082
1076	0.083
1076	0.084
1077	0.085
1077	0.086
1078	0.088
1078	0.09
1078	0.091
1079	0.093
1079	0.096
1080	0.097
1080	0.099
1080	0.101
1081	0.104
1081	0.105
1082	0.107
1082	0.109
1083	0.111
1083	0.114
1083	0.117
1084	0.12
1084	0.124
1085	0.127
1085	0.13
1085	0.133
1086	0.136
1086	0.138
1087	0.142
1087	0.144
1088	0.147
1088	0.15
1088	0.154
1089	0.159
1089	0.164
1090	0.17
1090	0.177
1090	0.184
1091	0.192
1091	0.2
1092	0.21
1092	0.219
1092	0.229
1093	0.239
1093	0.249
1094	0.26
1094	0.272
1095	0.285
1095	0.299
1095	0.314
1096	0.332
1096	0.35
1097	0.372
1097	0.395
1097	0.419
1098	0.447
1098	0.479
1099	0.515
1099	0.557
1100	0.605
1100	0.662
1100	0.732
1101	0.829
1101	0.953
1102	1.148
1102	1.547
1102	-0
1103	-0
1103	-0
1104	-0
1104	-0
1104	-0
1105	-0
1105	-0
1106	-0
1106	-0
1107	-0
1107	-0
1107	-0
1108	-0
1108	-0
1109	-0
1109	-0
1109	-0
1110	-0
1110	-0
1111	-0
1111	-0
