Data from 15c-2-4a_Absorbance__3079__03079.txt Node

Date: Thu Jan 25 11:46:48 CET 2024
User: Marek
Spectrometer: MAYP115816
Trigger mode: 0
Integration Time (sec): 2.000000E-1
Scans to average: 10
Electric dark correction enabled: true
Nonlinearity correction enabled: true
Boxcar width: 5
XAxis mode: Wavelengths
Number of Pixels in Spectrum: 2068
>>>>>Begin Spectral Data<<<<<
199	-2.192
199	-2.022
200	-1.868
200	-1.746
201	-1.668
201	-1.611
202	-1.528
202	-1.466
203	-1.414
203	-1.367
204	-1.341
204	-1.313
205	-1.292
205	-1.281
205	-1.274
206	-1.27
206	-1.266
207	-1.266
207	-1.263
208	-1.258
208	-1.254
209	-1.249
209	-1.246
210	-1.244
210	-1.241
211	-1.24
211	-1.238
212	-1.235
212	-1.232
213	-1.231
213	-1.231
213	-1.231
214	-1.23
214	-1.229
215	-1.227
215	-1.225
216	-1.223
216	-1.221
217	-1.22
217	-1.217
218	-1.215
218	-1.213
219	-1.211
219	-1.208
220	-1.207
220	-1.203
221	-1.2
221	-1.198
221	-1.194
222	-1.192
222	-1.19
223	-1.185
223	-1.179
224	-1.172
224	-1.163
225	-1.154
225	-1.145
226	-1.134
226	-1.122
227	-1.107
227	-1.093
228	-1.073
228	-1.054
229	-1.032
229	-1.008
229	-0.982
230	-0.952
230	-0.921
231	-0.885
231	-0.845
232	-0.803
232	-0.757
233	-0.71
233	-0.661
234	-0.611
234	-0.56
235	-0.508
235	-0.458
236	-0.407
236	-0.359
236	-0.311
237	-0.265
237	-0.221
238	-0.179
238	-0.139
239	-0.101
239	-0.065
240	-0.031
240	0
241	0.03
241	0.058
242	0.083
242	0.107
243	0.129
243	0.15
243	0.169
244	0.186
244	0.202
245	0.217
245	0.231
246	0.244
246	0.256
247	0.267
247	0.278
248	0.288
248	0.297
249	0.306
249	0.313
250	0.321
250	0.328
250	0.335
251	0.342
251	0.347
252	0.353
252	0.358
253	0.363
253	0.367
254	0.372
254	0.376
255	0.379
255	0.383
256	0.386
256	0.389
257	0.392
257	0.394
258	0.397
258	0.399
258	0.401
259	0.402
259	0.404
260	0.405
260	0.406
261	0.407
261	0.408
262	0.409
262	0.409
263	0.41
263	0.41
264	0.411
264	0.411
265	0.411
265	0.411
265	0.411
266	0.411
266	0.411
267	0.41
267	0.41
268	0.409
268	0.408
269	0.408
269	0.407
270	0.406
270	0.404
271	0.403
271	0.402
272	0.401
272	0.4
272	0.398
273	0.397
273	0.396
274	0.394
274	0.393
275	0.391
275	0.39
276	0.388
276	0.386
277	0.384
277	0.382
278	0.379
278	0.377
278	0.375
279	0.373
279	0.371
280	0.37
280	0.369
281	0.367
281	0.366
282	0.365
282	0.364
283	0.364
283	0.363
284	0.362
284	0.361
285	0.36
285	0.358
285	0.357
286	0.355
286	0.354
287	0.352
287	0.351
288	0.349
288	0.348
289	0.347
289	0.346
290	0.344
290	0.343
291	0.342
291	0.341
292	0.34
292	0.339
292	0.337
293	0.336
293	0.335
294	0.334
294	0.333
295	0.332
295	0.331
296	0.33
296	0.329
297	0.328
297	0.327
298	0.327
298	0.326
298	0.325
299	0.324
299	0.323
300	0.322
300	0.321
301	0.32
301	0.319
302	0.319
302	0.318
303	0.317
303	0.316
304	0.315
304	0.314
305	0.314
305	0.313
305	0.312
306	0.311
306	0.31
307	0.309
307	0.308
308	0.307
308	0.307
309	0.306
309	0.305
310	0.304
310	0.303
311	0.302
311	0.301
311	0.3
312	0.299
312	0.298
313	0.297
313	0.296
314	0.295
314	0.294
315	0.293
315	0.292
316	0.292
316	0.291
317	0.29
317	0.289
318	0.287
318	0.286
318	0.285
319	0.285
319	0.284
320	0.283
320	0.281
321	0.28
321	0.279
322	0.278
322	0.277
323	0.276
323	0.275
324	0.274
324	0.273
324	0.272
325	0.271
325	0.271
326	0.27
326	0.269
327	0.268
327	0.267
328	0.266
328	0.266
329	0.265
329	0.264
330	0.263
330	0.262
330	0.261
331	0.26
331	0.259
332	0.258
332	0.257
333	0.256
333	0.255
334	0.254
334	0.253
335	0.252
335	0.252
336	0.251
336	0.25
336	0.249
337	0.249
337	0.248
338	0.247
338	0.246
339	0.246
339	0.245
340	0.244
340	0.243
341	0.243
341	0.242
342	0.241
342	0.24
342	0.239
343	0.238
343	0.238
344	0.237
344	0.236
345	0.235
345	0.235
346	0.234
346	0.233
347	0.232
347	0.232
348	0.231
348	0.23
348	0.229
349	0.228
349	0.228
350	0.227
350	0.226
351	0.226
351	0.225
352	0.224
352	0.223
353	0.222
353	0.221
354	0.22
354	0.219
354	0.218
355	0.217
355	0.216
356	0.215
356	0.214
357	0.213
357	0.213
358	0.213
358	0.213
359	0.214
359	0.215
360	0.215
360	0.216
360	0.217
361	0.217
361	0.217
362	0.218
362	0.218
363	0.218
363	0.217
364	0.217
364	0.216
365	0.215
365	0.215
366	0.214
366	0.214
366	0.213
367	0.213
367	0.212
368	0.212
368	0.211
369	0.211
369	0.21
370	0.21
370	0.21
371	0.209
371	0.208
372	0.208
372	0.207
372	0.207
373	0.207
373	0.206
374	0.206
374	0.206
375	0.206
375	0.206
376	0.206
376	0.206
377	0.206
377	0.206
378	0.206
378	0.206
378	0.206
379	0.206
379	0.206
380	0.207
380	0.206
381	0.206
381	0.206
382	0.205
382	0.205
383	0.204
383	0.204
383	0.203
384	0.202
384	0.202
385	0.202
385	0.202
386	0.202
386	0.202
387	0.202
387	0.201
388	0.201
388	0.201
389	0.201
389	0.201
389	0.2
390	0.201
390	0.201
391	0.201
391	0.201
392	0.201
392	0.201
393	0.201
393	0.201
394	0.2
394	0.2
394	0.2
395	0.199
395	0.199
396	0.199
396	0.198
397	0.199
397	0.199
398	0.199
398	0.199
399	0.198
399	0.198
400	0.198
400	0.197
400	0.196
401	0.196
401	0.195
402	0.193
402	0.193
403	0.192
403	0.192
404	0.192
404	0.191
405	0.191
405	0.191
405	0.19
406	0.19
406	0.19
407	0.19
407	0.189
408	0.189
408	0.188
409	0.187
409	0.187
410	0.187
410	0.187
411	0.187
411	0.187
411	0.187
412	0.186
412	0.186
413	0.186
413	0.185
414	0.185
414	0.185
415	0.184
415	0.184
416	0.183
416	0.183
416	0.182
417	0.182
417	0.182
418	0.181
418	0.181
419	0.182
419	0.182
420	0.183
420	0.183
421	0.184
421	0.184
421	0.184
422	0.184
422	0.184
423	0.184
423	0.184
424	0.183
424	0.182
425	0.181
425	0.18
426	0.179
426	0.179
427	0.178
427	0.179
427	0.179
428	0.179
428	0.18
429	0.181
429	0.181
430	0.181
430	0.181
431	0.181
431	0.18
432	0.18
432	0.179
432	0.178
433	0.177
433	0.176
434	0.175
434	0.174
435	0.174
435	0.174
436	0.174
436	0.174
437	0.174
437	0.174
437	0.174
438	0.174
438	0.174
439	0.174
439	0.173
440	0.173
440	0.172
441	0.172
441	0.172
442	0.172
442	0.172
442	0.173
443	0.173
443	0.173
444	0.173
444	0.174
445	0.174
445	0.174
446	0.174
446	0.174
447	0.174
447	0.174
447	0.174
448	0.173
448	0.173
449	0.173
449	0.173
450	0.173
450	0.172
451	0.172
451	0.171
452	0.171
452	0.17
452	0.169
453	0.169
453	0.168
454	0.167
454	0.167
455	0.166
455	0.166
456	0.166
456	0.166
457	0.166
457	0.166
458	0.166
458	0.166
458	0.166
459	0.166
459	0.166
460	0.166
460	0.165
461	0.164
461	0.164
462	0.163
462	0.163
463	0.164
463	0.164
463	0.165
464	0.165
464	0.166
465	0.166
465	0.166
466	0.166
466	0.167
467	0.167
467	0.166
467	0.165
468	0.163
468	0.161
469	0.159
469	0.158
470	0.157
470	0.156
471	0.156
471	0.155
472	0.155
472	0.155
472	0.156
473	0.157
473	0.159
474	0.16
474	0.161
475	0.162
475	0.163
476	0.164
476	0.164
477	0.164
477	0.165
477	0.165
478	0.165
478	0.166
479	0.166
479	0.167
480	0.168
480	0.169
481	0.17
481	0.171
482	0.172
482	0.173
482	0.175
483	0.177
483	0.18
484	0.184
484	0.187
485	0.189
485	0.191
486	0.192
486	0.193
487	0.194
487	0.194
487	0.195
488	0.194
488	0.192
489	0.19
489	0.187
490	0.186
490	0.185
491	0.185
491	0.185
492	0.186
492	0.186
492	0.187
493	0.188
493	0.189
494	0.191
494	0.194
495	0.196
495	0.198
496	0.199
496	0.2
496	0.201
497	0.202
497	0.203
498	0.204
498	0.204
499	0.204
499	0.205
500	0.206
500	0.207
501	0.209
501	0.21
501	0.212
502	0.214
502	0.216
503	0.218
503	0.22
504	0.221
504	0.221
505	0.222
505	0.222
506	0.223
506	0.223
506	0.224
507	0.224
507	0.224
508	0.225
508	0.225
509	0.226
509	0.227
510	0.227
510	0.227
511	0.227
511	0.228
511	0.229
512	0.229
512	0.229
513	0.228
513	0.226
514	0.225
514	0.224
515	0.224
515	0.224
515	0.224
516	0.224
516	0.223
517	0.223
517	0.223
518	0.222
518	0.221
519	0.219
519	0.216
520	0.213
520	0.209
520	0.206
521	0.204
521	0.202
522	0.201
522	0.2
523	0.202
523	0.204
524	0.207
524	0.211
524	0.214
525	0.218
525	0.221
526	0.224
526	0.226
527	0.229
527	0.23
528	0.232
528	0.233
529	0.233
529	0.233
529	0.232
530	0.232
530	0.232
531	0.231
531	0.232
532	0.231
532	0.23
533	0.23
533	0.23
533	0.23
534	0.229
534	0.228
535	0.227
535	0.227
536	0.226
536	0.225
537	0.224
537	0.224
538	0.222
538	0.221
538	0.219
539	0.218
539	0.217
540	0.216
540	0.214
541	0.213
541	0.211
542	0.209
542	0.207
542	0.205
543	0.204
543	0.202
544	0.2
544	0.199
545	0.198
545	0.197
546	0.197
546	0.196
547	0.194
547	0.192
547	0.189
548	0.187
548	0.184
549	0.182
549	0.179
550	0.177
550	0.174
551	0.171
551	0.168
551	0.166
552	0.164
552	0.163
553	0.162
553	0.161
554	0.161
554	0.159
555	0.156
555	0.153
556	0.15
556	0.146
556	0.143
557	0.139
557	0.137
558	0.134
558	0.131
559	0.129
559	0.128
560	0.127
560	0.126
560	0.125
561	0.125
561	0.126
562	0.125
562	0.124
563	0.122
563	0.12
564	0.117
564	0.114
564	0.111
565	0.109
565	0.107
566	0.105
566	0.103
567	0.102
567	0.103
568	0.103
568	0.105
568	0.106
569	0.108
569	0.11
570	0.111
570	0.111
571	0.112
571	0.113
572	0.113
572	0.113
573	0.113
573	0.113
573	0.111
574	0.111
574	0.11
575	0.109
575	0.11
576	0.111
576	0.111
577	0.11
577	0.108
577	0.107
578	0.106
578	0.105
579	0.105
579	0.106
580	0.106
580	0.104
581	0.101
581	0.098
581	0.097
582	0.096
582	0.096
583	0.097
583	0.097
584	0.094
584	0.091
585	0.089
585	0.088
585	0.087
586	0.087
586	0.086
587	0.085
587	0.082
588	0.079
588	0.076
589	0.074
589	0.073
590	0.071
590	0.069
590	0.069
591	0.069
591	0.069
592	0.068
592	0.068
593	0.067
593	0.067
594	0.067
594	0.066
594	0.066
595	0.065
595	0.064
596	0.063
596	0.063
597	0.065
597	0.067
598	0.068
598	0.069
598	0.07
599	0.07
599	0.07
600	0.069
600	0.068
601	0.067
601	0.066
602	0.064
602	0.062
602	0.06
603	0.059
603	0.058
604	0.058
604	0.059
605	0.06
605	0.062
606	0.062
606	0.062
606	0.061
607	0.061
607	0.061
608	0.061
608	0.059
609	0.058
609	0.057
610	0.056
610	0.055
610	0.054
611	0.054
611	0.055
612	0.056
612	0.057
613	0.058
613	0.06
614	0.061
614	0.06
614	0.061
615	0.06
615	0.06
616	0.06
616	0.059
617	0.059
617	0.058
618	0.056
618	0.055
618	0.054
619	0.053
619	0.053
620	0.054
620	0.055
621	0.055
621	0.056
622	0.056
622	0.057
622	0.057
623	0.057
623	0.058
624	0.059
624	0.059
625	0.059
625	0.059
626	0.06
626	0.06
626	0.06
627	0.061
627	0.061
628	0.062
628	0.062
629	0.062
629	0.063
630	0.062
630	0.062
630	0.062
631	0.062
631	0.062
632	0.062
632	0.062
633	0.063
633	0.064
634	0.065
634	0.067
634	0.068
635	0.07
635	0.072
636	0.074
636	0.076
637	0.077
637	0.078
638	0.079
638	0.081
638	0.082
639	0.082
639	0.083
640	0.084
640	0.086
641	0.087
641	0.089
642	0.092
642	0.094
642	0.097
643	0.099
643	0.101
644	0.104
644	0.106
645	0.109
645	0.111
646	0.114
646	0.117
646	0.12
647	0.124
647	0.127
648	0.13
648	0.133
649	0.136
649	0.139
650	0.142
650	0.146
650	0.149
651	0.151
651	0.154
652	0.156
652	0.158
653	0.161
653	0.169
653	0.186
654	0.151
654	0.124
655	0.131
655	0.134
656	0.136
656	0.138
657	0.141
657	0.143
657	0.145
658	0.143
658	0.131
659	0.164
659	0.21
660	0.211
660	0.213
661	0.214
661	0.216
661	0.219
662	0.222
662	0.225
663	0.228
663	0.232
664	0.235
664	0.237
665	0.24
665	0.243
665	0.246
666	0.249
666	0.251
667	0.254
667	0.256
668	0.259
668	0.262
669	0.265
669	0.268
669	0.273
670	0.278
670	0.282
671	0.285
671	0.288
672	0.29
672	0.293
672	0.295
673	0.297
673	0.299
674	0.301
674	0.301
675	0.302
675	0.302
676	0.304
676	0.306
676	0.308
677	0.31
677	0.312
678	0.314
678	0.315
679	0.316
679	0.318
680	0.319
680	0.321
680	0.321
681	0.321
681	0.322
682	0.323
682	0.324
683	0.325
683	0.328
684	0.33
684	0.331
684	0.331
685	0.331
685	0.332
686	0.333
686	0.333
687	0.333
687	0.332
687	0.331
688	0.329
688	0.328
689	0.327
689	0.328
690	0.328
690	0.328
691	0.328
691	0.328
691	0.328
692	0.328
692	0.328
693	0.327
693	0.328
694	0.327
694	0.325
695	0.325
695	0.326
695	0.327
696	0.326
696	0.325
697	0.324
697	0.323
698	0.322
698	0.32
698	0.317
699	0.315
699	0.313
700	0.309
700	0.306
701	0.304
701	0.302
702	0.3
702	0.299
702	0.297
703	0.295
703	0.293
704	0.291
704	0.29
705	0.289
705	0.287
705	0.286
706	0.284
706	0.283
707	0.281
707	0.28
708	0.278
708	0.277
709	0.275
709	0.274
709	0.27
710	0.267
710	0.264
711	0.261
711	0.258
712	0.256
712	0.253
713	0.251
713	0.249
713	0.247
714	0.245
714	0.242
715	0.24
715	0.237
716	0.235
716	0.232
716	0.23
717	0.227
717	0.224
718	0.221
718	0.218
719	0.215
719	0.212
720	0.21
720	0.207
720	0.204
721	0.2
721	0.196
722	0.192
722	0.188
723	0.185
723	0.182
723	0.179
724	0.177
724	0.174
725	0.171
725	0.168
726	0.166
726	0.164
727	0.162
727	0.159
727	0.158
728	0.155
728	0.153
729	0.152
729	0.151
730	0.149
730	0.147
730	0.146
731	0.144
731	0.142
732	0.141
732	0.14
733	0.138
733	0.135
734	0.132
734	0.129
734	0.126
735	0.124
735	0.121
736	0.118
736	0.115
737	0.112
737	0.11
737	0.107
738	0.104
738	0.101
739	0.098
739	0.096
740	0.093
740	0.091
741	0.089
741	0.086
741	0.083
742	0.078
742	0.074
743	0.071
743	0.068
744	0.065
744	0.062
744	0.059
745	0.057
745	0.054
746	0.051
746	0.049
747	0.048
747	0.047
748	0.046
748	0.045
748	0.044
749	0.043
749	0.042
750	0.041
750	0.04
751	0.04
751	0.039
751	0.04
752	0.039
752	0.039
753	0.038
753	0.037
754	0.036
754	0.035
754	0.035
755	0.035
755	0.035
756	0.035
756	0.032
757	0.03
757	0.029
758	0.028
758	0.026
758	0.025
759	0.024
759	0.021
760	0.017
760	0.014
761	0.01
761	0.009
761	0.007
762	0.005
762	0.004
763	0.003
763	0.001
764	-0.002
764	-0.004
764	-0.006
765	-0.008
765	-0.01
766	-0.011
766	-0.012
767	-0.013
767	-0.015
768	-0.018
768	-0.021
768	-0.022
769	-0.023
769	-0.023
770	-0.024
770	-0.025
771	-0.027
771	-0.029
771	-0.032
772	-0.033
772	-0.035
773	-0.036
773	-0.039
774	-0.042
774	-0.045
775	-0.048
775	-0.051
775	-0.055
776	-0.059
776	-0.062
777	-0.066
777	-0.069
778	-0.073
778	-0.077
778	-0.081
779	-0.084
779	-0.086
780	-0.09
780	-0.095
781	-0.1
781	-0.105
781	-0.11
782	-0.115
782	-0.121
783	-0.126
783	-0.129
784	-0.133
784	-0.136
784	-0.138
785	-0.141
785	-0.143
786	-0.144
786	-0.142
787	-0.138
787	-0.134
788	-0.133
788	-0.134
788	-0.136
789	-0.138
789	-0.138
790	-0.136
790	-0.135
791	-0.135
791	-0.137
791	-0.139
792	-0.134
792	-0.123
793	-0.116
793	-0.111
794	-0.109
794	-0.11
794	-0.113
795	-0.115
795	-0.115
796	-0.115
796	-0.118
797	-0.126
797	-0.137
797	-0.144
798	-0.15
798	-0.154
799	-0.155
799	-0.155
800	-0.155
800	-0.157
801	-0.16
801	-0.161
801	-0.161
802	-0.162
802	-0.163
803	-0.164
803	-0.163
804	-0.162
804	-0.156
804	-0.149
805	-0.145
805	-0.143
806	-0.14
806	-0.139
807	-0.138
807	-0.137
807	-0.136
808	-0.136
808	-0.136
809	-0.14
809	-0.145
810	-0.148
810	-0.151
810	-0.154
811	-0.156
811	-0.157
812	-0.153
812	-0.15
813	-0.151
813	-0.152
813	-0.154
814	-0.155
814	-0.156
815	-0.154
815	-0.152
816	-0.151
816	-0.152
817	-0.157
817	-0.161
817	-0.162
818	-0.161
818	-0.158
819	-0.153
819	-0.15
820	-0.151
820	-0.153
820	-0.154
821	-0.154
821	-0.153
822	-0.152
822	-0.151
823	-0.148
823	-0.149
823	-0.15
824	-0.149
824	-0.145
825	-0.138
825	-0.13
826	-0.123
826	-0.116
826	-0.109
827	-0.102
827	-0.096
828	-0.091
828	-0.086
829	-0.081
829	-0.077
829	-0.073
830	-0.07
830	-0.067
831	-0.063
831	-0.059
832	-0.055
832	-0.052
832	-0.049
833	-0.046
833	-0.044
834	-0.043
834	-0.041
835	-0.04
835	-0.04
835	-0.04
836	-0.04
836	-0.039
837	-0.039
837	-0.039
838	-0.038
838	-0.038
839	-0.037
839	-0.037
839	-0.037
840	-0.036
840	-0.035
841	-0.034
841	-0.032
842	-0.031
842	-0.03
842	-0.03
843	-0.029
843	-0.027
844	-0.026
844	-0.025
845	-0.024
845	-0.023
845	-0.022
846	-0.022
846	-0.021
847	-0.02
847	-0.019
848	-0.018
848	-0.017
848	-0.016
849	-0.016
849	-0.015
850	-0.014
850	-0.014
851	-0.013
851	-0.013
851	-0.012
852	-0.012
852	-0.012
853	-0.012
853	-0.012
854	-0.012
854	-0.012
854	-0.012
855	-0.012
855	-0.012
856	-0.012
856	-0.011
857	-0.01
857	-0.01
857	-0.009
858	-0.008
858	-0.008
859	-0.007
859	-0.006
860	-0.005
860	-0.005
860	-0.004
861	-0.004
861	-0.004
862	-0.004
862	-0.004
863	-0.004
863	-0.004
863	-0.004
864	-0.004
864	-0.004
865	-0.004
865	-0.004
866	-0.005
866	-0.004
866	-0.004
867	-0.004
867	-0.003
868	-0.003
868	-0.003
869	-0.002
869	-0.002
869	-0.002
870	-0.002
870	-0.002
871	-0.001
871	-0.002
872	-0.002
872	-0.002
872	-0.002
873	-0.002
873	-0.002
874	-0.003
874	-0.003
875	-0.004
875	-0.004
875	-0.005
876	-0.005
876	-0.006
877	-0.006
877	-0.006
878	-0.006
878	-0.006
878	-0.005
879	-0.004
879	-0.004
880	-0.003
880	-0.002
881	-0.001
881	0
881	0.001
882	0.002
882	0.003
883	0.004
883	0.005
884	0.006
884	0.007
884	0.007
885	0.008
885	0.008
886	0.009
886	0.009
887	0.009
887	0.01
887	0.01
888	0.009
888	0.009
889	0.01
889	0.01
890	0.011
890	0.011
890	0.012
891	0.012
891	0.013
892	0.013
892	0.014
893	0.015
893	0.016
893	0.017
894	0.017
894	0.018
895	0.018
895	0.018
895	0.018
896	0.018
896	0.018
897	0.018
897	0.017
898	0.016
898	0.015
898	0.014
899	0.012
899	0.011
900	0.01
900	0.009
901	0.008
901	0.006
901	0.006
902	0.005
902	0.004
903	0.003
903	0.003
904	0.003
904	0.003
904	0.003
905	0.003
905	0.004
906	0.005
906	0.005
907	0.005
907	0.005
907	0.005
908	0.005
908	0.004
909	0.004
909	0.003
910	0.003
910	0.002
910	0.001
911	0.001
911	0.001
912	0.001
912	0.002
913	0.003
913	0.004
913	0.005
914	0.007
914	0.008
915	0.009
915	0.01
916	0.011
916	0.012
916	0.012
917	0.013
917	0.013
918	0.013
918	0.013
918	0.013
919	0.013
919	0.012
920	0.012
920	0.012
921	0.011
921	0.011
921	0.011
922	0.01
922	0.01
923	0.009
923	0.009
924	0.008
924	0.007
924	0.007
925	0.006
925	0.006
926	0.005
926	0.005
927	0.005
927	0.005
927	0.005
928	0.006
928	0.006
929	0.007
929	0.007
930	0.008
930	0.008
930	0.009
931	0.009
931	0.009
932	0.01
932	0.01
933	0.01
933	0.01
933	0.01
934	0.01
934	0.01
935	0.01
935	0.01
935	0.01
936	0.01
936	0.01
937	0.01
937	0.01
938	0.01
938	0.01
938	0.01
939	0.011
939	0.011
940	0.012
940	0.012
941	0.013
941	0.014
941	0.015
942	0.016
942	0.017
943	0.019
943	0.019
944	0.02
944	0.021
944	0.022
945	0.023
945	0.024
946	0.025
946	0.025
946	0.026
947	0.026
947	0.026
948	0.026
948	0.026
949	0.025
949	0.025
949	0.024
950	0.023
950	0.022
951	0.021
951	0.021
952	0.02
952	0.019
952	0.019
953	0.019
953	0.018
954	0.018
954	0.018
955	0.018
955	0.019
955	0.019
956	0.02
956	0.02
957	0.02
957	0.021
957	0.021
958	0.021
958	0.021
959	0.021
959	0.021
960	0.021
960	0.02
960	0.02
961	0.019
961	0.019
962	0.018
962	0.018
963	0.017
963	0.017
963	0.016
964	0.016
964	0.016
965	0.016
965	0.015
966	0.015
966	0.015
966	0.015
967	0.015
967	0.015
968	0.015
968	0.014
968	0.014
969	0.014
969	0.014
970	0.014
970	0.014
971	0.014
971	0.014
971	0.014
972	0.015
972	0.016
973	0.016
973	0.017
974	0.017
974	0.018
974	0.018
975	0.018
975	0.018
976	0.018
976	0.017
976	0.017
977	0.016
977	0.015
978	0.014
978	0.013
979	0.012
979	0.011
979	0.011
980	0.01
980	0.01
981	0.009
981	0.009
982	0.008
982	0.008
982	0.008
983	0.008
983	0.008
984	0.008
984	0.007
984	0.007
985	0.007
985	0.007
986	0.006
986	0.006
987	0.005
987	0.005
987	0.005
988	0.005
988	0.005
989	0.005
989	0.006
990	0.006
990	0.006
990	0.007
991	0.008
991	0.008
992	0.008
992	0.009
992	0.008
993	0.008
993	0.008
994	0.007
994	0.007
995	0.007
995	0.006
995	0.006
996	0.005
996	0.005
997	0.004
997	0.004
997	0.003
998	0.003
998	0.003
999	0.003
999	0.003
1000	0.003
1000	0.004
1000	0.004
1001	0.004
1001	0.005
1002	0.005
1002	0.005
1003	0.005
1003	0.005
1003	0.004
1004	0.004
1004	0.004
1005	0.003
1005	0.003
1005	0.002
1006	0.001
1006	0.001
1007	0
1007	0
1008	0
1008	0
1008	0.001
1009	0.001
1009	0.002
1010	0.003
1010	0.004
1010	0.005
1011	0.006
1011	0.007
1012	0.008
1012	0.009
1013	0.009
1013	0.01
1013	0.01
1014	0.009
1014	0.009
1015	0.009
1015	0.008
1016	0.008
1016	0.008
1016	0.007
1017	0.008
1017	0.008
1018	0.008
1018	0.009
1018	0.009
1019	0.01
1019	0.011
1020	0.011
1020	0.012
1021	0.012
1021	0.012
1021	0.012
1022	0.012
1022	0.013
1023	0.013
1023	0.012
1023	0.012
1024	0.012
1024	0.012
1025	0.012
1025	0.012
1026	0.012
1026	0.012
1026	0.012
1027	0.012
1027	0.012
1028	0.013
1028	0.013
1028	0.013
1029	0.013
1029	0.013
1030	0.013
1030	0.013
1031	0.013
1031	0.013
1031	0.012
1032	0.012
1032	0.011
1033	0.011
1033	0.011
1033	0.01
1034	0.01
1034	0.009
1035	0.009
1035	0.008
1036	0.008
1036	0.008
1036	0.008
1037	0.008
1037	0.009
1038	0.009
1038	0.009
1039	0.01
1039	0.011
1039	0.012
1040	0.013
1040	0.014
1041	0.014
1041	0.015
1041	0.016
1042	0.017
1042	0.018
1043	0.019
1043	0.02
1044	0.021
1044	0.023
1044	0.024
1045	0.024
1045	0.025
1046	0.027
1046	0.028
1046	0.03
1047	0.032
1047	0.033
1048	0.035
1048	0.036
1049	0.037
1049	0.037
1049	0.038
1050	0.038
1050	0.038
1051	0.037
1051	0.037
1051	0.036
1052	0.035
1052	0.034
1053	0.033
1053	0.032
1053	0.031
1054	0.03
1054	0.03
1055	0.03
1055	0.029
1056	0.028
1056	0.027
1056	0.026
1057	0.026
1057	0.025
1058	0.025
1058	0.025
1058	0.026
1059	0.026
1059	0.026
1060	0.026
1060	0.027
1061	0.028
1061	0.029
1061	0.03
1062	0.031
1062	0.032
1063	0.032
1063	0.033
1063	0.034
1064	0.035
1064	0.037
1065	0.039
1065	0.041
1066	0.042
1066	0.045
1066	0.047
1067	0.049
1067	0.052
1068	0.054
1068	0.055
1068	0.057
1069	0.058
1069	0.059
1070	0.06
1070	0.062
1071	0.063
1071	0.064
1071	0.064
1072	0.065
1072	0.066
1073	0.068
1073	0.069
1073	0.07
1074	0.072
1074	0.073
1075	0.073
1075	0.073
1076	0.074
1076	0.075
1076	0.075
1077	0.076
1077	0.076
1078	0.078
1078	0.079
1078	0.082
1079	0.083
1079	0.087
1080	0.089
1080	0.092
1080	0.096
1081	0.099
1081	0.103
1082	0.106
1082	0.108
1083	0.112
1083	0.115
1083	0.119
1084	0.122
1084	0.127
1085	0.131
1085	0.135
1085	0.138
1086	0.142
1086	0.145
1087	0.15
1087	0.154
1088	0.157
1088	0.161
1088	0.166
1089	0.171
1089	0.176
1090	0.182
1090	0.189
1090	0.196
1091	0.204
1091	0.213
1092	0.223
1092	0.233
1092	0.243
1093	0.253
1093	0.266
1094	0.279
1094	0.293
1095	0.306
1095	0.324
1095	0.344
1096	0.363
1096	0.384
1097	0.411
1097	0.439
1097	0.472
1098	0.505
1098	0.544
1099	0.59
1099	0.646
1100	0.709
1100	0.787
1100	0.895
1101	1.048
1101	1.307
1102	2.345
1102	-0
1102	-0
1103	-0
1103	-0
1104	-0
1104	-0
1104	-0
1105	-0
1105	-0
1106	-0
1106	-0
1107	-0
1107	-0
1107	-0
1108	-0
1108	-0
1109	-0
1109	-0
1109	-0
1110	-0
1110	-0
1111	-0
1111	-0
