Data from 15c-2-4a_Absorbance__1192__01192.txt Node

Date: Thu Jan 25 10:43:54 CET 2024
User: Marek
Spectrometer: MAYP115816
Trigger mode: 0
Integration Time (sec): 2.000000E-1
Scans to average: 10
Electric dark correction enabled: true
Nonlinearity correction enabled: true
Boxcar width: 5
XAxis mode: Wavelengths
Number of Pixels in Spectrum: 2068
>>>>>Begin Spectral Data<<<<<
199	-2.176
199	-2.006
200	-1.852
200	-1.729
201	-1.651
201	-1.594
202	-1.511
202	-1.449
203	-1.397
203	-1.35
204	-1.324
204	-1.296
205	-1.275
205	-1.264
205	-1.258
206	-1.254
206	-1.25
207	-1.25
207	-1.247
208	-1.242
208	-1.239
209	-1.234
209	-1.23
210	-1.228
210	-1.226
211	-1.224
211	-1.223
212	-1.22
212	-1.217
213	-1.215
213	-1.215
213	-1.215
214	-1.215
214	-1.214
215	-1.212
215	-1.21
216	-1.208
216	-1.207
217	-1.205
217	-1.202
218	-1.2
218	-1.198
219	-1.195
219	-1.193
220	-1.192
220	-1.187
221	-1.184
221	-1.182
221	-1.179
222	-1.176
222	-1.174
223	-1.17
223	-1.164
224	-1.157
224	-1.148
225	-1.139
225	-1.131
226	-1.119
226	-1.107
227	-1.092
227	-1.078
228	-1.059
228	-1.039
229	-1.018
229	-0.993
229	-0.966
230	-0.937
230	-0.906
231	-0.871
231	-0.831
232	-0.79
232	-0.745
233	-0.699
233	-0.651
234	-0.602
234	-0.552
235	-0.502
235	-0.453
236	-0.404
236	-0.358
236	-0.311
237	-0.267
237	-0.225
238	-0.185
238	-0.147
239	-0.112
239	-0.078
240	-0.047
240	-0.018
241	0.01
241	0.035
242	0.058
242	0.08
243	0.1
243	0.119
243	0.136
244	0.152
244	0.166
245	0.18
245	0.192
246	0.204
246	0.215
247	0.224
247	0.234
248	0.242
248	0.25
249	0.258
249	0.265
250	0.272
250	0.278
250	0.284
251	0.289
251	0.294
252	0.3
252	0.304
253	0.309
253	0.313
254	0.316
254	0.32
255	0.323
255	0.326
256	0.329
256	0.332
257	0.335
257	0.337
258	0.339
258	0.341
258	0.342
259	0.344
259	0.345
260	0.347
260	0.348
261	0.348
261	0.349
262	0.35
262	0.35
263	0.351
263	0.351
264	0.351
264	0.351
265	0.352
265	0.352
265	0.351
266	0.351
266	0.351
267	0.351
267	0.35
268	0.35
268	0.349
269	0.348
269	0.347
270	0.347
270	0.346
271	0.344
271	0.343
272	0.342
272	0.341
272	0.34
273	0.339
273	0.337
274	0.336
274	0.335
275	0.333
275	0.332
276	0.331
276	0.329
277	0.327
277	0.325
278	0.323
278	0.321
278	0.319
279	0.318
279	0.316
280	0.315
280	0.314
281	0.313
281	0.312
282	0.311
282	0.31
283	0.31
283	0.309
284	0.308
284	0.307
285	0.306
285	0.305
285	0.303
286	0.302
286	0.301
287	0.3
287	0.298
288	0.297
288	0.296
289	0.295
289	0.294
290	0.293
290	0.292
291	0.291
291	0.29
292	0.289
292	0.288
292	0.287
293	0.286
293	0.286
294	0.285
294	0.284
295	0.283
295	0.283
296	0.282
296	0.281
297	0.28
297	0.28
298	0.279
298	0.278
298	0.277
299	0.277
299	0.276
300	0.276
300	0.275
301	0.274
301	0.273
302	0.273
302	0.272
303	0.271
303	0.271
304	0.27
304	0.269
305	0.269
305	0.268
305	0.267
306	0.267
306	0.266
307	0.265
307	0.264
308	0.264
308	0.263
309	0.262
309	0.262
310	0.261
310	0.26
311	0.259
311	0.258
311	0.258
312	0.257
312	0.256
313	0.255
313	0.255
314	0.254
314	0.253
315	0.252
315	0.251
316	0.251
316	0.25
317	0.249
317	0.248
318	0.247
318	0.246
318	0.246
319	0.245
319	0.244
320	0.243
320	0.242
321	0.241
321	0.24
322	0.239
322	0.239
323	0.238
323	0.237
324	0.236
324	0.235
324	0.234
325	0.234
325	0.233
326	0.232
326	0.232
327	0.231
327	0.23
328	0.229
328	0.229
329	0.228
329	0.227
330	0.226
330	0.226
330	0.225
331	0.224
331	0.223
332	0.223
332	0.222
333	0.221
333	0.221
334	0.22
334	0.219
335	0.218
335	0.218
336	0.217
336	0.217
336	0.216
337	0.215
337	0.215
338	0.214
338	0.213
339	0.213
339	0.212
340	0.211
340	0.211
341	0.21
341	0.209
342	0.208
342	0.208
342	0.207
343	0.206
343	0.206
344	0.205
344	0.204
345	0.204
345	0.203
346	0.202
346	0.202
347	0.201
347	0.2
348	0.2
348	0.199
348	0.198
349	0.197
349	0.197
350	0.196
350	0.195
351	0.195
351	0.194
352	0.193
352	0.193
353	0.192
353	0.191
354	0.19
354	0.189
354	0.188
355	0.187
355	0.186
356	0.185
356	0.185
357	0.184
357	0.184
358	0.183
358	0.184
359	0.185
359	0.185
360	0.186
360	0.186
360	0.187
361	0.187
361	0.188
362	0.188
362	0.188
363	0.188
363	0.188
364	0.187
364	0.187
365	0.186
365	0.186
366	0.186
366	0.185
366	0.185
367	0.185
367	0.184
368	0.184
368	0.184
369	0.183
369	0.183
370	0.183
370	0.182
371	0.182
371	0.181
372	0.181
372	0.18
372	0.18
373	0.18
373	0.179
374	0.179
374	0.179
375	0.179
375	0.179
376	0.179
376	0.179
377	0.179
377	0.179
378	0.18
378	0.18
378	0.18
379	0.18
379	0.18
380	0.18
380	0.18
381	0.18
381	0.179
382	0.179
382	0.179
383	0.178
383	0.178
383	0.177
384	0.177
384	0.176
385	0.176
385	0.176
386	0.175
386	0.175
387	0.176
387	0.175
388	0.175
388	0.175
389	0.175
389	0.175
389	0.175
390	0.175
390	0.175
391	0.176
391	0.176
392	0.176
392	0.176
393	0.176
393	0.176
394	0.175
394	0.175
394	0.175
395	0.175
395	0.174
396	0.174
396	0.173
397	0.174
397	0.174
398	0.174
398	0.174
399	0.174
399	0.173
400	0.173
400	0.173
400	0.172
401	0.172
401	0.171
402	0.17
402	0.169
403	0.168
403	0.168
404	0.168
404	0.168
405	0.168
405	0.167
405	0.167
406	0.167
406	0.166
407	0.166
407	0.166
408	0.166
408	0.165
409	0.164
409	0.164
410	0.163
410	0.163
411	0.163
411	0.163
411	0.163
412	0.163
412	0.162
413	0.162
413	0.162
414	0.162
414	0.161
415	0.161
415	0.161
416	0.161
416	0.16
416	0.16
417	0.159
417	0.159
418	0.159
418	0.159
419	0.159
419	0.16
420	0.16
420	0.161
421	0.161
421	0.161
421	0.162
422	0.162
422	0.162
423	0.162
423	0.161
424	0.161
424	0.16
425	0.159
425	0.159
426	0.158
426	0.158
427	0.157
427	0.157
427	0.158
428	0.158
428	0.159
429	0.16
429	0.16
430	0.16
430	0.16
431	0.159
431	0.159
432	0.159
432	0.158
432	0.157
433	0.156
433	0.155
434	0.154
434	0.154
435	0.154
435	0.154
436	0.154
436	0.154
437	0.154
437	0.154
437	0.154
438	0.154
438	0.154
439	0.154
439	0.154
440	0.153
440	0.153
441	0.153
441	0.153
442	0.153
442	0.153
442	0.153
443	0.153
443	0.154
444	0.154
444	0.154
445	0.154
445	0.154
446	0.154
446	0.154
447	0.154
447	0.153
447	0.153
448	0.153
448	0.153
449	0.153
449	0.152
450	0.152
450	0.152
451	0.151
451	0.151
452	0.151
452	0.15
452	0.15
453	0.149
453	0.149
454	0.148
454	0.148
455	0.147
455	0.147
456	0.147
456	0.147
457	0.146
457	0.146
458	0.146
458	0.146
458	0.146
459	0.146
459	0.146
460	0.146
460	0.145
461	0.145
461	0.144
462	0.144
462	0.144
463	0.144
463	0.145
463	0.145
464	0.146
464	0.146
465	0.146
465	0.146
466	0.146
466	0.147
467	0.147
467	0.146
467	0.145
468	0.144
468	0.142
469	0.14
469	0.139
470	0.138
470	0.138
471	0.137
471	0.137
472	0.137
472	0.137
472	0.137
473	0.138
473	0.139
474	0.141
474	0.142
475	0.143
475	0.143
476	0.144
476	0.144
477	0.145
477	0.145
477	0.146
478	0.146
478	0.147
479	0.147
479	0.148
480	0.149
480	0.15
481	0.151
481	0.152
482	0.153
482	0.154
482	0.155
483	0.157
483	0.16
484	0.164
484	0.167
485	0.168
485	0.17
486	0.171
486	0.172
487	0.173
487	0.173
487	0.173
488	0.172
488	0.171
489	0.168
489	0.166
490	0.165
490	0.164
491	0.163
491	0.164
492	0.164
492	0.165
492	0.165
493	0.166
493	0.167
494	0.169
494	0.171
495	0.173
495	0.175
496	0.176
496	0.177
496	0.178
497	0.179
497	0.18
498	0.181
498	0.182
499	0.182
499	0.182
500	0.183
500	0.184
501	0.186
501	0.188
501	0.189
502	0.191
502	0.192
503	0.194
503	0.196
504	0.197
504	0.198
505	0.198
505	0.199
506	0.199
506	0.2
506	0.2
507	0.199
507	0.2
508	0.2
508	0.201
509	0.201
509	0.202
510	0.202
510	0.202
511	0.202
511	0.203
511	0.203
512	0.204
512	0.204
513	0.204
513	0.203
514	0.201
514	0.2
515	0.199
515	0.199
515	0.199
516	0.199
516	0.199
517	0.199
517	0.199
518	0.198
518	0.197
519	0.196
519	0.194
520	0.192
520	0.189
520	0.186
521	0.183
521	0.181
522	0.178
522	0.176
523	0.176
523	0.177
524	0.179
524	0.181
524	0.185
525	0.188
525	0.191
526	0.194
526	0.197
527	0.2
527	0.203
528	0.205
528	0.206
529	0.207
529	0.207
529	0.207
530	0.207
530	0.207
531	0.207
531	0.207
532	0.206
532	0.206
533	0.206
533	0.206
533	0.206
534	0.205
534	0.205
535	0.204
535	0.203
536	0.203
536	0.202
537	0.201
537	0.2
538	0.199
538	0.198
538	0.196
539	0.195
539	0.194
540	0.193
540	0.192
541	0.191
541	0.189
542	0.187
542	0.185
542	0.184
543	0.182
543	0.181
544	0.179
544	0.178
545	0.177
545	0.176
546	0.176
546	0.176
547	0.174
547	0.172
547	0.17
548	0.168
548	0.166
549	0.164
549	0.162
550	0.16
550	0.157
551	0.155
551	0.152
551	0.15
552	0.148
552	0.148
553	0.146
553	0.146
554	0.145
554	0.144
555	0.142
555	0.139
556	0.136
556	0.133
556	0.13
557	0.127
557	0.124
558	0.122
558	0.119
559	0.117
559	0.116
560	0.115
560	0.114
560	0.114
561	0.114
561	0.114
562	0.114
562	0.113
563	0.111
563	0.109
564	0.107
564	0.104
564	0.101
565	0.099
565	0.098
566	0.096
566	0.095
567	0.094
567	0.094
568	0.095
568	0.096
568	0.098
569	0.1
569	0.102
570	0.103
570	0.103
571	0.104
571	0.105
572	0.105
572	0.105
573	0.105
573	0.105
573	0.104
574	0.103
574	0.102
575	0.102
575	0.103
576	0.104
576	0.103
577	0.102
577	0.101
577	0.1
578	0.099
578	0.099
579	0.099
579	0.1
580	0.1
580	0.098
581	0.095
581	0.093
581	0.092
582	0.091
582	0.091
583	0.092
583	0.091
584	0.089
584	0.086
585	0.083
585	0.082
585	0.082
586	0.082
586	0.081
587	0.079
587	0.077
588	0.074
588	0.071
589	0.069
589	0.067
590	0.066
590	0.064
590	0.064
591	0.064
591	0.064
592	0.064
592	0.063
593	0.063
593	0.063
594	0.063
594	0.063
594	0.062
595	0.062
595	0.061
596	0.06
596	0.06
597	0.062
597	0.063
598	0.064
598	0.065
598	0.066
599	0.067
599	0.066
600	0.066
600	0.065
601	0.064
601	0.063
602	0.061
602	0.06
602	0.058
603	0.056
603	0.056
604	0.056
604	0.057
605	0.058
605	0.059
606	0.059
606	0.059
606	0.058
607	0.058
607	0.057
608	0.057
608	0.056
609	0.054
609	0.054
610	0.052
610	0.051
610	0.05
611	0.051
611	0.051
612	0.052
612	0.054
613	0.056
613	0.057
614	0.058
614	0.058
614	0.059
615	0.059
615	0.058
616	0.058
616	0.057
617	0.056
617	0.055
618	0.053
618	0.052
618	0.051
619	0.05
619	0.05
620	0.051
620	0.051
621	0.052
621	0.052
622	0.053
622	0.053
622	0.054
623	0.054
623	0.054
624	0.055
624	0.055
625	0.055
625	0.055
626	0.055
626	0.055
626	0.055
627	0.056
627	0.056
628	0.056
628	0.057
629	0.057
629	0.057
630	0.057
630	0.056
630	0.056
631	0.056
631	0.057
632	0.056
632	0.057
633	0.057
633	0.058
634	0.059
634	0.061
634	0.063
635	0.065
635	0.066
636	0.068
636	0.069
637	0.071
637	0.072
638	0.073
638	0.074
638	0.075
639	0.075
639	0.075
640	0.076
640	0.077
641	0.079
641	0.081
642	0.083
642	0.085
642	0.087
643	0.089
643	0.091
644	0.094
644	0.096
645	0.099
645	0.1
646	0.102
646	0.105
646	0.108
647	0.112
647	0.115
648	0.118
648	0.12
649	0.123
649	0.126
650	0.129
650	0.132
650	0.135
651	0.138
651	0.14
652	0.141
652	0.143
653	0.145
653	0.152
653	0.167
654	0.136
654	0.113
655	0.118
655	0.121
656	0.123
656	0.125
657	0.127
657	0.13
657	0.131
658	0.13
658	0.119
659	0.148
659	0.188
660	0.19
660	0.192
661	0.193
661	0.195
661	0.197
662	0.2
662	0.203
663	0.206
663	0.21
664	0.213
664	0.216
665	0.218
665	0.221
665	0.224
666	0.227
666	0.229
667	0.232
667	0.234
668	0.236
668	0.238
669	0.241
669	0.243
669	0.247
670	0.251
670	0.255
671	0.258
671	0.26
672	0.263
672	0.264
672	0.266
673	0.268
673	0.27
674	0.271
674	0.272
675	0.272
675	0.273
676	0.274
676	0.276
676	0.277
677	0.279
677	0.281
678	0.283
678	0.284
679	0.285
679	0.287
680	0.288
680	0.29
680	0.29
681	0.291
681	0.292
682	0.293
682	0.294
683	0.296
683	0.299
684	0.301
684	0.302
684	0.302
685	0.302
685	0.303
686	0.304
686	0.303
687	0.303
687	0.301
687	0.3
688	0.299
688	0.297
689	0.297
689	0.298
690	0.298
690	0.298
691	0.298
691	0.298
691	0.298
692	0.298
692	0.298
693	0.298
693	0.298
694	0.298
694	0.297
695	0.297
695	0.298
695	0.299
696	0.299
696	0.298
697	0.298
697	0.297
698	0.296
698	0.294
698	0.292
699	0.29
699	0.287
700	0.284
700	0.281
701	0.279
701	0.277
702	0.275
702	0.273
702	0.271
703	0.269
703	0.268
704	0.266
704	0.265
705	0.264
705	0.263
705	0.262
706	0.261
706	0.259
707	0.258
707	0.257
708	0.256
708	0.255
709	0.253
709	0.251
709	0.248
710	0.245
710	0.242
711	0.239
711	0.237
712	0.235
712	0.232
713	0.231
713	0.229
713	0.227
714	0.224
714	0.222
715	0.22
715	0.218
716	0.215
716	0.214
716	0.212
717	0.209
717	0.207
718	0.204
718	0.201
719	0.198
719	0.196
720	0.194
720	0.191
720	0.188
721	0.184
721	0.18
722	0.176
722	0.172
723	0.169
723	0.167
723	0.164
724	0.162
724	0.159
725	0.156
725	0.154
726	0.152
726	0.15
727	0.148
727	0.147
727	0.145
728	0.143
728	0.14
729	0.139
729	0.138
730	0.137
730	0.135
730	0.134
731	0.132
731	0.131
732	0.13
732	0.128
733	0.126
733	0.124
734	0.122
734	0.119
734	0.116
735	0.113
735	0.111
736	0.107
736	0.105
737	0.102
737	0.1
737	0.097
738	0.095
738	0.092
739	0.089
739	0.087
740	0.085
740	0.084
741	0.082
741	0.08
741	0.077
742	0.073
742	0.069
743	0.067
743	0.064
744	0.061
744	0.059
744	0.056
745	0.054
745	0.052
746	0.049
746	0.048
747	0.047
747	0.046
748	0.046
748	0.045
748	0.044
749	0.043
749	0.042
750	0.041
750	0.04
751	0.039
751	0.039
751	0.039
752	0.038
752	0.037
753	0.036
753	0.035
754	0.034
754	0.033
754	0.033
755	0.032
755	0.032
756	0.031
756	0.029
757	0.027
757	0.027
758	0.026
758	0.024
758	0.023
759	0.023
759	0.02
760	0.017
760	0.015
761	0.012
761	0.011
761	0.01
762	0.008
762	0.007
763	0.006
763	0.004
764	0.001
764	-0.001
764	-0.003
765	-0.005
765	-0.007
766	-0.008
766	-0.009
767	-0.01
767	-0.012
768	-0.016
768	-0.018
768	-0.02
769	-0.02
769	-0.021
770	-0.022
770	-0.023
771	-0.024
771	-0.026
771	-0.029
772	-0.03
772	-0.032
773	-0.034
773	-0.037
774	-0.04
774	-0.043
775	-0.047
775	-0.05
775	-0.054
776	-0.058
776	-0.062
777	-0.066
777	-0.07
778	-0.074
778	-0.078
778	-0.083
779	-0.086
779	-0.088
780	-0.092
780	-0.097
781	-0.102
781	-0.107
781	-0.112
782	-0.117
782	-0.122
783	-0.127
783	-0.13
784	-0.133
784	-0.136
784	-0.139
785	-0.141
785	-0.144
786	-0.144
786	-0.142
787	-0.138
787	-0.134
788	-0.133
788	-0.134
788	-0.136
789	-0.139
789	-0.139
790	-0.136
790	-0.135
791	-0.136
791	-0.138
791	-0.14
792	-0.134
792	-0.123
793	-0.116
793	-0.112
794	-0.109
794	-0.11
794	-0.114
795	-0.116
795	-0.115
796	-0.115
796	-0.118
797	-0.127
797	-0.138
797	-0.145
798	-0.15
798	-0.154
799	-0.155
799	-0.155
800	-0.156
800	-0.158
801	-0.161
801	-0.162
801	-0.161
802	-0.163
802	-0.164
803	-0.164
803	-0.164
804	-0.162
804	-0.157
804	-0.15
805	-0.145
805	-0.143
806	-0.141
806	-0.139
807	-0.138
807	-0.137
807	-0.137
808	-0.136
808	-0.137
809	-0.141
809	-0.146
810	-0.149
810	-0.151
810	-0.154
811	-0.157
811	-0.157
812	-0.154
812	-0.151
813	-0.151
813	-0.153
813	-0.154
814	-0.156
814	-0.156
815	-0.155
815	-0.153
816	-0.151
816	-0.152
817	-0.157
817	-0.161
817	-0.162
818	-0.162
818	-0.159
819	-0.153
819	-0.15
820	-0.151
820	-0.153
820	-0.155
821	-0.154
821	-0.153
822	-0.151
822	-0.148
823	-0.145
823	-0.144
823	-0.144
824	-0.142
824	-0.137
825	-0.129
825	-0.12
826	-0.111
826	-0.104
826	-0.097
827	-0.091
827	-0.085
828	-0.08
828	-0.076
829	-0.071
829	-0.067
829	-0.064
830	-0.061
830	-0.059
831	-0.054
831	-0.051
832	-0.048
832	-0.044
832	-0.042
833	-0.04
833	-0.038
834	-0.037
834	-0.036
835	-0.035
835	-0.035
835	-0.035
836	-0.035
836	-0.035
837	-0.035
837	-0.034
838	-0.034
838	-0.033
839	-0.033
839	-0.032
839	-0.031
840	-0.03
840	-0.029
841	-0.027
841	-0.026
842	-0.025
842	-0.024
842	-0.023
843	-0.022
843	-0.021
844	-0.02
844	-0.019
845	-0.018
845	-0.018
845	-0.017
846	-0.016
846	-0.016
847	-0.015
847	-0.014
848	-0.013
848	-0.012
848	-0.011
849	-0.01
849	-0.009
850	-0.008
850	-0.008
851	-0.008
851	-0.007
851	-0.007
852	-0.008
852	-0.008
853	-0.008
853	-0.008
854	-0.008
854	-0.008
854	-0.007
855	-0.007
855	-0.007
856	-0.007
856	-0.007
857	-0.007
857	-0.006
857	-0.006
858	-0.006
858	-0.006
859	-0.005
859	-0.005
860	-0.004
860	-0.003
860	-0.002
861	-0.002
861	-0.001
862	-0
862	0
863	0.001
863	0.001
863	0.002
864	0.002
864	0.003
865	0.003
865	0.004
866	0.004
866	0.005
866	0.006
867	0.007
867	0.007
868	0.008
868	0.008
869	0.009
869	0.009
869	0.008
870	0.008
870	0.008
871	0.008
871	0.007
872	0.007
872	0.006
872	0.006
873	0.005
873	0.004
874	0.004
874	0.003
875	0.002
875	0.001
875	-0
876	-0.001
876	-0.001
877	-0.002
877	-0.001
878	-0.002
878	-0.001
878	-0.001
879	0
879	0.001
880	0.002
880	0.003
881	0.003
881	0.004
881	0.004
882	0.005
882	0.005
883	0.006
883	0.007
884	0.008
884	0.008
884	0.008
885	0.009
885	0.009
886	0.01
886	0.01
887	0.01
887	0.01
887	0.01
888	0.009
888	0.009
889	0.01
889	0.01
890	0.011
890	0.011
890	0.012
891	0.012
891	0.013
892	0.013
892	0.014
893	0.015
893	0.016
893	0.016
894	0.017
894	0.017
895	0.017
895	0.017
895	0.017
896	0.017
896	0.017
897	0.017
897	0.016
898	0.015
898	0.014
898	0.013
899	0.012
899	0.011
900	0.009
900	0.008
901	0.007
901	0.006
901	0.005
902	0.004
902	0.004
903	0.003
903	0.003
904	0.003
904	0.003
904	0.004
905	0.004
905	0.005
906	0.006
906	0.006
907	0.006
907	0.007
907	0.007
908	0.007
908	0.007
909	0.007
909	0.007
910	0.007
910	0.007
910	0.007
911	0.007
911	0.008
912	0.008
912	0.009
913	0.01
913	0.011
913	0.012
914	0.013
914	0.014
915	0.014
915	0.015
916	0.016
916	0.017
916	0.017
917	0.017
917	0.017
918	0.017
918	0.016
918	0.016
919	0.016
919	0.015
920	0.014
920	0.014
921	0.013
921	0.012
921	0.011
922	0.011
922	0.01
923	0.009
923	0.008
924	0.007
924	0.007
924	0.007
925	0.006
925	0.006
926	0.007
926	0.007
927	0.007
927	0.007
927	0.008
928	0.008
928	0.009
929	0.01
929	0.01
930	0.01
930	0.01
930	0.01
931	0.01
931	0.011
932	0.011
932	0.011
933	0.012
933	0.012
933	0.012
934	0.013
934	0.013
935	0.014
935	0.014
935	0.015
936	0.015
936	0.015
937	0.015
937	0.015
938	0.014
938	0.013
938	0.012
939	0.012
939	0.011
940	0.011
940	0.01
941	0.01
941	0.01
941	0.011
942	0.011
942	0.012
943	0.013
943	0.014
944	0.014
944	0.015
944	0.016
945	0.017
945	0.018
946	0.019
946	0.02
946	0.02
947	0.021
947	0.02
948	0.02
948	0.02
949	0.02
949	0.019
949	0.019
950	0.018
950	0.018
951	0.017
951	0.016
952	0.016
952	0.016
952	0.016
953	0.016
953	0.016
954	0.016
954	0.016
955	0.016
955	0.016
955	0.016
956	0.017
956	0.017
957	0.017
957	0.017
957	0.016
958	0.016
958	0.016
959	0.016
959	0.016
960	0.016
960	0.016
960	0.016
961	0.016
961	0.016
962	0.016
962	0.016
963	0.016
963	0.016
963	0.016
964	0.015
964	0.015
965	0.014
965	0.014
966	0.014
966	0.014
966	0.013
967	0.013
967	0.012
968	0.012
968	0.012
968	0.012
969	0.012
969	0.012
970	0.012
970	0.012
971	0.013
971	0.013
971	0.014
972	0.014
972	0.015
973	0.016
973	0.017
974	0.017
974	0.018
974	0.018
975	0.019
975	0.019
976	0.019
976	0.018
976	0.018
977	0.017
977	0.016
978	0.015
978	0.014
979	0.013
979	0.012
979	0.011
980	0.011
980	0.01
981	0.009
981	0.009
982	0.009
982	0.008
982	0.008
983	0.008
983	0.008
984	0.008
984	0.008
984	0.008
985	0.008
985	0.008
986	0.007
986	0.007
987	0.006
987	0.006
987	0.006
988	0.006
988	0.006
989	0.006
989	0.006
990	0.006
990	0.006
990	0.007
991	0.008
991	0.008
992	0.008
992	0.008
992	0.008
993	0.008
993	0.008
994	0.007
994	0.007
995	0.006
995	0.006
995	0.006
996	0.005
996	0.004
997	0.004
997	0.003
997	0.003
998	0.003
998	0.003
999	0.003
999	0.003
1000	0.003
1000	0.003
1000	0.003
1001	0.004
1001	0.004
1002	0.004
1002	0.004
1003	0.004
1003	0.004
1003	0.004
1004	0.004
1004	0.004
1005	0.003
1005	0.003
1005	0.002
1006	0.002
1006	0.001
1007	0.001
1007	0
1008	0
1008	0
1008	0
1009	0
1009	0.001
1010	0.002
1010	0.002
1010	0.004
1011	0.005
1011	0.006
1012	0.007
1012	0.007
1013	0.008
1013	0.009
1013	0.009
1014	0.01
1014	0.01
1015	0.01
1015	0.01
1016	0.01
1016	0.01
1016	0.01
1017	0.01
1017	0.01
1018	0.01
1018	0.011
1018	0.011
1019	0.012
1019	0.012
1020	0.012
1020	0.012
1021	0.012
1021	0.012
1021	0.012
1022	0.012
1022	0.012
1023	0.012
1023	0.012
1023	0.012
1024	0.012
1024	0.012
1025	0.012
1025	0.013
1026	0.013
1026	0.013
1026	0.013
1027	0.013
1027	0.014
1028	0.014
1028	0.014
1028	0.014
1029	0.015
1029	0.015
1030	0.014
1030	0.014
1031	0.014
1031	0.014
1031	0.014
1032	0.014
1032	0.014
1033	0.014
1033	0.013
1033	0.013
1034	0.012
1034	0.012
1035	0.012
1035	0.011
1036	0.011
1036	0.011
1036	0.011
1037	0.011
1037	0.011
1038	0.011
1038	0.012
1039	0.012
1039	0.013
1039	0.013
1040	0.014
1040	0.014
1041	0.015
1041	0.015
1041	0.016
1042	0.016
1042	0.017
1043	0.018
1043	0.019
1044	0.02
1044	0.021
1044	0.022
1045	0.023
1045	0.024
1046	0.026
1046	0.027
1046	0.029
1047	0.031
1047	0.032
1048	0.033
1048	0.035
1049	0.036
1049	0.036
1049	0.037
1050	0.037
1050	0.037
1051	0.037
1051	0.037
1051	0.036
1052	0.036
1052	0.035
1053	0.035
1053	0.034
1053	0.033
1054	0.032
1054	0.032
1055	0.032
1055	0.031
1056	0.03
1056	0.029
1056	0.028
1057	0.027
1057	0.027
1058	0.027
1058	0.027
1058	0.027
1059	0.027
1059	0.027
1060	0.027
1060	0.028
1061	0.029
1061	0.029
1061	0.03
1062	0.031
1062	0.032
1063	0.033
1063	0.033
1063	0.034
1064	0.035
1064	0.037
1065	0.038
1065	0.039
1066	0.041
1066	0.044
1066	0.046
1067	0.048
1067	0.05
1068	0.053
1068	0.055
1068	0.056
1069	0.058
1069	0.059
1070	0.06
1070	0.062
1071	0.063
1071	0.064
1071	0.065
1072	0.066
1072	0.068
1073	0.07
1073	0.071
1073	0.073
1074	0.075
1074	0.076
1075	0.077
1075	0.078
1076	0.078
1076	0.08
1076	0.08
1077	0.082
1077	0.083
1078	0.085
1078	0.087
1078	0.089
1079	0.091
1079	0.094
1080	0.095
1080	0.099
1080	0.1
1081	0.103
1081	0.105
1082	0.107
1082	0.108
1083	0.111
1083	0.113
1083	0.116
1084	0.119
1084	0.123
1085	0.126
1085	0.129
1085	0.132
1086	0.135
1086	0.138
1087	0.142
1087	0.145
1088	0.149
1088	0.152
1088	0.156
1089	0.16
1089	0.165
1090	0.17
1090	0.176
1090	0.183
1091	0.19
1091	0.199
1092	0.209
1092	0.218
1092	0.227
1093	0.237
1093	0.249
1094	0.26
1094	0.272
1095	0.284
1095	0.298
1095	0.317
1096	0.334
1096	0.352
1097	0.374
1097	0.398
1097	0.426
1098	0.455
1098	0.489
1099	0.528
1099	0.575
1100	0.632
1100	0.698
1100	0.78
1101	0.887
1101	1.042
1102	1.313
1102	2.452
1102	-0
1103	-0
1103	-0
1104	-0
1104	-0
1104	-0
1105	-0
1105	-0
1106	-0
1106	-0
1107	-0
1107	-0
1107	-0
1108	-0
1108	-0
1109	-0
1109	-0
1109	-0
1110	-0
1110	-0
1111	-0
1111	-0
