Data from 15c-2-4a_Absorbance__1041__01041.txt Node

Date: Thu Jan 25 10:38:52 CET 2024
User: Marek
Spectrometer: MAYP115816
Trigger mode: 0
Integration Time (sec): 2.000000E-1
Scans to average: 10
Electric dark correction enabled: true
Nonlinearity correction enabled: true
Boxcar width: 5
XAxis mode: Wavelengths
Number of Pixels in Spectrum: 2068
>>>>>Begin Spectral Data<<<<<
199	-2.155
199	-1.985
200	-1.831
200	-1.709
201	-1.631
201	-1.574
202	-1.491
202	-1.43
203	-1.377
203	-1.331
204	-1.304
204	-1.276
205	-1.256
205	-1.244
205	-1.238
206	-1.233
206	-1.229
207	-1.229
207	-1.226
208	-1.221
208	-1.218
209	-1.213
209	-1.21
210	-1.208
210	-1.205
211	-1.204
211	-1.203
212	-1.2
212	-1.197
213	-1.195
213	-1.195
213	-1.195
214	-1.194
214	-1.193
215	-1.191
215	-1.189
216	-1.187
216	-1.185
217	-1.183
217	-1.18
218	-1.179
218	-1.176
219	-1.173
219	-1.171
220	-1.17
220	-1.166
221	-1.163
221	-1.161
221	-1.158
222	-1.155
222	-1.154
223	-1.149
223	-1.143
224	-1.136
224	-1.128
225	-1.118
225	-1.11
226	-1.099
226	-1.087
227	-1.072
227	-1.059
228	-1.039
228	-1.02
229	-0.998
229	-0.974
229	-0.947
230	-0.918
230	-0.887
231	-0.852
231	-0.813
232	-0.772
232	-0.728
233	-0.682
233	-0.634
234	-0.586
234	-0.536
235	-0.487
235	-0.438
236	-0.39
236	-0.344
236	-0.298
237	-0.255
237	-0.214
238	-0.175
238	-0.138
239	-0.103
239	-0.07
240	-0.04
240	-0.012
241	0.014
241	0.039
242	0.061
242	0.082
243	0.102
243	0.12
243	0.136
244	0.151
244	0.165
245	0.178
245	0.19
246	0.201
246	0.211
247	0.221
247	0.23
248	0.238
248	0.246
249	0.253
249	0.259
250	0.265
250	0.272
250	0.277
251	0.283
251	0.288
252	0.292
252	0.297
253	0.301
253	0.305
254	0.309
254	0.313
255	0.316
255	0.32
256	0.322
256	0.325
257	0.327
257	0.329
258	0.331
258	0.333
258	0.334
259	0.336
259	0.337
260	0.338
260	0.339
261	0.34
261	0.341
262	0.342
262	0.342
263	0.343
263	0.344
264	0.344
264	0.344
265	0.344
265	0.344
265	0.344
266	0.344
266	0.344
267	0.343
267	0.343
268	0.342
268	0.341
269	0.341
269	0.34
270	0.339
270	0.338
271	0.337
271	0.335
272	0.334
272	0.333
272	0.332
273	0.331
273	0.33
274	0.328
274	0.327
275	0.326
275	0.325
276	0.323
276	0.322
277	0.32
277	0.318
278	0.316
278	0.314
278	0.312
279	0.311
279	0.309
280	0.308
280	0.307
281	0.306
281	0.305
282	0.304
282	0.304
283	0.303
283	0.303
284	0.302
284	0.301
285	0.3
285	0.299
285	0.297
286	0.296
286	0.295
287	0.294
287	0.293
288	0.292
288	0.291
289	0.29
289	0.289
290	0.288
290	0.287
291	0.286
291	0.285
292	0.284
292	0.283
292	0.282
293	0.281
293	0.281
294	0.28
294	0.279
295	0.278
295	0.278
296	0.277
296	0.277
297	0.276
297	0.275
298	0.275
298	0.274
298	0.273
299	0.273
299	0.272
300	0.272
300	0.271
301	0.27
301	0.27
302	0.269
302	0.269
303	0.268
303	0.268
304	0.267
304	0.266
305	0.266
305	0.265
305	0.264
306	0.264
306	0.263
307	0.263
307	0.262
308	0.261
308	0.26
309	0.26
309	0.259
310	0.258
310	0.258
311	0.257
311	0.257
311	0.256
312	0.255
312	0.255
313	0.254
313	0.253
314	0.253
314	0.252
315	0.251
315	0.25
316	0.25
316	0.249
317	0.248
317	0.247
318	0.247
318	0.246
318	0.245
319	0.244
319	0.244
320	0.243
320	0.242
321	0.241
321	0.24
322	0.24
322	0.239
323	0.238
323	0.237
324	0.237
324	0.236
324	0.235
325	0.234
325	0.234
326	0.233
326	0.233
327	0.232
327	0.231
328	0.231
328	0.23
329	0.229
329	0.229
330	0.228
330	0.227
330	0.227
331	0.226
331	0.225
332	0.224
332	0.224
333	0.223
333	0.222
334	0.222
334	0.221
335	0.22
335	0.22
336	0.219
336	0.219
336	0.218
337	0.217
337	0.217
338	0.216
338	0.216
339	0.215
339	0.215
340	0.214
340	0.214
341	0.213
341	0.212
342	0.212
342	0.211
342	0.211
343	0.21
343	0.209
344	0.209
344	0.208
345	0.207
345	0.207
346	0.206
346	0.205
347	0.205
347	0.204
348	0.203
348	0.203
348	0.202
349	0.202
349	0.201
350	0.201
350	0.2
351	0.199
351	0.199
352	0.198
352	0.197
353	0.197
353	0.196
354	0.195
354	0.194
354	0.193
355	0.192
355	0.191
356	0.19
356	0.189
357	0.188
357	0.188
358	0.188
358	0.189
359	0.189
359	0.19
360	0.191
360	0.191
360	0.192
361	0.192
361	0.193
362	0.194
362	0.194
363	0.194
363	0.193
364	0.193
364	0.192
365	0.192
365	0.191
366	0.191
366	0.191
366	0.19
367	0.19
367	0.19
368	0.189
368	0.189
369	0.189
369	0.188
370	0.188
370	0.188
371	0.187
371	0.187
372	0.186
372	0.186
372	0.185
373	0.185
373	0.185
374	0.185
374	0.185
375	0.185
375	0.185
376	0.184
376	0.185
377	0.185
377	0.185
378	0.185
378	0.186
378	0.186
379	0.186
379	0.186
380	0.186
380	0.186
381	0.186
381	0.186
382	0.185
382	0.185
383	0.185
383	0.184
383	0.184
384	0.183
384	0.183
385	0.183
385	0.182
386	0.182
386	0.182
387	0.183
387	0.182
388	0.182
388	0.182
389	0.182
389	0.182
389	0.182
390	0.182
390	0.182
391	0.182
391	0.183
392	0.183
392	0.183
393	0.183
393	0.183
394	0.182
394	0.182
394	0.182
395	0.182
395	0.181
396	0.181
396	0.181
397	0.181
397	0.181
398	0.181
398	0.181
399	0.181
399	0.181
400	0.181
400	0.18
400	0.18
401	0.179
401	0.178
402	0.178
402	0.177
403	0.176
403	0.176
404	0.176
404	0.176
405	0.175
405	0.175
405	0.175
406	0.174
406	0.174
407	0.174
407	0.174
408	0.173
408	0.173
409	0.172
409	0.172
410	0.171
410	0.171
411	0.171
411	0.171
411	0.171
412	0.171
412	0.17
413	0.17
413	0.17
414	0.17
414	0.17
415	0.17
415	0.169
416	0.169
416	0.169
416	0.168
417	0.168
417	0.168
418	0.168
418	0.168
419	0.168
419	0.168
420	0.169
420	0.17
421	0.17
421	0.17
421	0.17
422	0.17
422	0.171
423	0.171
423	0.17
424	0.17
424	0.169
425	0.168
425	0.167
426	0.167
426	0.167
427	0.166
427	0.166
427	0.167
428	0.167
428	0.168
429	0.168
429	0.168
430	0.169
430	0.169
431	0.168
431	0.168
432	0.168
432	0.167
432	0.166
433	0.165
433	0.164
434	0.163
434	0.163
435	0.163
435	0.163
436	0.163
436	0.163
437	0.163
437	0.163
437	0.164
438	0.164
438	0.163
439	0.163
439	0.163
440	0.162
440	0.162
441	0.162
441	0.162
442	0.162
442	0.162
442	0.163
443	0.163
443	0.163
444	0.163
444	0.163
445	0.163
445	0.163
446	0.164
446	0.164
447	0.163
447	0.163
447	0.163
448	0.163
448	0.163
449	0.163
449	0.163
450	0.162
450	0.162
451	0.162
451	0.161
452	0.161
452	0.16
452	0.16
453	0.16
453	0.159
454	0.159
454	0.158
455	0.158
455	0.158
456	0.157
456	0.157
457	0.157
457	0.157
458	0.157
458	0.157
458	0.157
459	0.158
459	0.158
460	0.157
460	0.157
461	0.156
461	0.156
462	0.155
462	0.155
463	0.156
463	0.156
463	0.157
464	0.157
464	0.157
465	0.158
465	0.158
466	0.158
466	0.158
467	0.158
467	0.158
467	0.157
468	0.156
468	0.154
469	0.152
469	0.151
470	0.15
470	0.149
471	0.149
471	0.148
472	0.148
472	0.148
472	0.148
473	0.149
473	0.151
474	0.152
474	0.153
475	0.154
475	0.155
476	0.156
476	0.156
477	0.157
477	0.157
477	0.158
478	0.158
478	0.159
479	0.159
479	0.16
480	0.161
480	0.162
481	0.162
481	0.163
482	0.164
482	0.165
482	0.167
483	0.169
483	0.171
484	0.175
484	0.178
485	0.18
485	0.181
486	0.183
486	0.183
487	0.184
487	0.185
487	0.185
488	0.184
488	0.183
489	0.181
489	0.179
490	0.177
490	0.177
491	0.176
491	0.176
492	0.177
492	0.178
492	0.178
493	0.179
493	0.18
494	0.182
494	0.184
495	0.186
495	0.188
496	0.189
496	0.19
496	0.191
497	0.192
497	0.193
498	0.194
498	0.194
499	0.195
499	0.195
500	0.196
500	0.197
501	0.198
501	0.2
501	0.202
502	0.203
502	0.205
503	0.206
503	0.208
504	0.209
504	0.209
505	0.21
505	0.211
506	0.211
506	0.212
506	0.212
507	0.213
507	0.213
508	0.213
508	0.214
509	0.215
509	0.216
510	0.216
510	0.216
511	0.216
511	0.216
511	0.217
512	0.218
512	0.218
513	0.217
513	0.216
514	0.215
514	0.214
515	0.213
515	0.213
515	0.213
516	0.213
516	0.212
517	0.212
517	0.212
518	0.212
518	0.211
519	0.209
519	0.207
520	0.205
520	0.202
520	0.199
521	0.197
521	0.194
522	0.192
522	0.191
523	0.191
523	0.192
524	0.194
524	0.197
524	0.2
525	0.203
525	0.206
526	0.209
526	0.211
527	0.214
527	0.216
528	0.218
528	0.219
529	0.22
529	0.221
529	0.221
530	0.221
530	0.221
531	0.221
531	0.221
532	0.22
532	0.219
533	0.219
533	0.219
533	0.219
534	0.219
534	0.218
535	0.217
535	0.217
536	0.216
536	0.216
537	0.215
537	0.215
538	0.214
538	0.212
538	0.211
539	0.21
539	0.209
540	0.208
540	0.206
541	0.205
541	0.203
542	0.201
542	0.199
542	0.198
543	0.196
543	0.195
544	0.194
544	0.193
545	0.191
545	0.191
546	0.191
546	0.19
547	0.189
547	0.187
547	0.185
548	0.182
548	0.18
549	0.178
549	0.175
550	0.174
550	0.171
551	0.169
551	0.166
551	0.164
552	0.162
552	0.161
553	0.16
553	0.16
554	0.159
554	0.158
555	0.156
555	0.153
556	0.15
556	0.147
556	0.143
557	0.14
557	0.138
558	0.136
558	0.133
559	0.131
559	0.13
560	0.13
560	0.129
560	0.128
561	0.128
561	0.128
562	0.128
562	0.127
563	0.126
563	0.123
564	0.121
564	0.118
564	0.115
565	0.113
565	0.111
566	0.11
566	0.108
567	0.107
567	0.108
568	0.108
568	0.11
568	0.111
569	0.113
569	0.115
570	0.116
570	0.116
571	0.117
571	0.118
572	0.118
572	0.118
573	0.118
573	0.117
573	0.116
574	0.116
574	0.115
575	0.114
575	0.115
576	0.116
576	0.116
577	0.115
577	0.114
577	0.113
578	0.111
578	0.111
579	0.111
579	0.112
580	0.112
580	0.11
581	0.108
581	0.106
581	0.104
582	0.104
582	0.104
583	0.104
583	0.104
584	0.102
584	0.099
585	0.097
585	0.096
585	0.095
586	0.095
586	0.094
587	0.093
587	0.09
588	0.087
588	0.084
589	0.082
589	0.08
590	0.078
590	0.076
590	0.076
591	0.076
591	0.076
592	0.075
592	0.075
593	0.075
593	0.075
594	0.075
594	0.074
594	0.074
595	0.074
595	0.073
596	0.072
596	0.072
597	0.074
597	0.075
598	0.076
598	0.077
598	0.078
599	0.078
599	0.078
600	0.077
600	0.076
601	0.075
601	0.074
602	0.072
602	0.071
602	0.069
603	0.068
603	0.067
604	0.068
604	0.068
605	0.069
605	0.07
606	0.071
606	0.07
606	0.07
607	0.069
607	0.069
608	0.068
608	0.067
609	0.066
609	0.065
610	0.064
610	0.063
610	0.063
611	0.063
611	0.064
612	0.065
612	0.066
613	0.068
613	0.069
614	0.07
614	0.07
614	0.071
615	0.071
615	0.071
616	0.07
616	0.07
617	0.069
617	0.067
618	0.066
618	0.064
618	0.063
619	0.063
619	0.063
620	0.064
620	0.064
621	0.065
621	0.065
622	0.066
622	0.066
622	0.067
623	0.067
623	0.068
624	0.068
624	0.068
625	0.068
625	0.069
626	0.069
626	0.069
626	0.069
627	0.069
627	0.07
628	0.07
628	0.071
629	0.071
629	0.071
630	0.071
630	0.07
630	0.07
631	0.07
631	0.071
632	0.07
632	0.071
633	0.071
633	0.072
634	0.073
634	0.074
634	0.077
635	0.079
635	0.08
636	0.082
636	0.083
637	0.085
637	0.085
638	0.086
638	0.088
638	0.089
639	0.089
639	0.09
640	0.091
640	0.092
641	0.094
641	0.096
642	0.098
642	0.1
642	0.102
643	0.105
643	0.107
644	0.109
644	0.111
645	0.113
645	0.115
646	0.117
646	0.12
646	0.123
647	0.126
647	0.13
648	0.133
648	0.135
649	0.138
649	0.141
650	0.144
650	0.147
650	0.15
651	0.152
651	0.154
652	0.156
652	0.157
653	0.159
653	0.166
653	0.18
654	0.146
654	0.12
655	0.126
655	0.129
656	0.131
656	0.133
657	0.136
657	0.138
657	0.14
658	0.138
658	0.128
659	0.16
659	0.204
660	0.205
660	0.207
661	0.208
661	0.21
661	0.212
662	0.215
662	0.218
663	0.222
663	0.225
664	0.228
664	0.231
665	0.233
665	0.236
665	0.239
666	0.242
666	0.245
667	0.247
667	0.25
668	0.252
668	0.254
669	0.257
669	0.26
669	0.263
670	0.267
670	0.27
671	0.273
671	0.275
672	0.277
672	0.279
672	0.28
673	0.282
673	0.283
674	0.285
674	0.285
675	0.286
675	0.286
676	0.288
676	0.29
676	0.291
677	0.293
677	0.295
678	0.297
678	0.298
679	0.299
679	0.3
680	0.302
680	0.303
680	0.304
681	0.304
681	0.305
682	0.306
682	0.307
683	0.309
683	0.312
684	0.314
684	0.316
684	0.316
685	0.317
685	0.318
686	0.319
686	0.318
687	0.318
687	0.317
687	0.316
688	0.315
688	0.314
689	0.313
689	0.314
690	0.314
690	0.314
691	0.314
691	0.314
691	0.314
692	0.314
692	0.314
693	0.314
693	0.314
694	0.314
694	0.313
695	0.313
695	0.315
695	0.316
696	0.316
696	0.315
697	0.314
697	0.313
698	0.312
698	0.31
698	0.308
699	0.306
699	0.303
700	0.299
700	0.296
701	0.294
701	0.292
702	0.29
702	0.288
702	0.286
703	0.284
703	0.283
704	0.281
704	0.28
705	0.279
705	0.277
705	0.276
706	0.275
706	0.274
707	0.273
707	0.271
708	0.27
708	0.268
709	0.267
709	0.266
709	0.263
710	0.259
710	0.256
711	0.254
711	0.251
712	0.249
712	0.247
713	0.246
713	0.244
713	0.242
714	0.239
714	0.237
715	0.235
715	0.233
716	0.23
716	0.228
716	0.226
717	0.224
717	0.221
718	0.218
718	0.215
719	0.213
719	0.211
720	0.208
720	0.206
720	0.203
721	0.199
721	0.195
722	0.192
722	0.188
723	0.185
723	0.183
723	0.181
724	0.178
724	0.176
725	0.173
725	0.171
726	0.169
726	0.167
727	0.166
727	0.164
727	0.162
728	0.159
728	0.157
729	0.155
729	0.154
730	0.152
730	0.15
730	0.148
731	0.146
731	0.144
732	0.143
732	0.142
733	0.14
733	0.138
734	0.135
734	0.132
734	0.13
735	0.127
735	0.125
736	0.122
736	0.119
737	0.116
737	0.114
737	0.112
738	0.109
738	0.107
739	0.104
739	0.102
740	0.1
740	0.098
741	0.097
741	0.094
741	0.091
742	0.088
742	0.084
743	0.081
743	0.078
744	0.076
744	0.074
744	0.071
745	0.069
745	0.067
746	0.065
746	0.063
747	0.062
747	0.061
748	0.061
748	0.06
748	0.059
749	0.057
749	0.056
750	0.055
750	0.054
751	0.053
751	0.053
751	0.053
752	0.052
752	0.051
753	0.05
753	0.049
754	0.048
754	0.047
754	0.047
755	0.047
755	0.047
756	0.046
756	0.044
757	0.043
757	0.042
758	0.041
758	0.039
758	0.039
759	0.038
759	0.035
760	0.033
760	0.029
761	0.027
761	0.025
761	0.024
762	0.021
762	0.02
763	0.019
763	0.017
764	0.015
764	0.012
764	0.01
765	0.009
765	0.007
766	0.005
766	0.004
767	0.004
767	0.001
768	-0.002
768	-0.005
768	-0.006
769	-0.007
769	-0.008
770	-0.009
770	-0.01
771	-0.012
771	-0.015
771	-0.017
772	-0.019
772	-0.021
773	-0.023
773	-0.026
774	-0.03
774	-0.033
775	-0.037
775	-0.04
775	-0.044
776	-0.048
776	-0.052
777	-0.055
777	-0.059
778	-0.063
778	-0.067
778	-0.07
779	-0.073
779	-0.076
780	-0.079
780	-0.084
781	-0.089
781	-0.095
781	-0.101
782	-0.107
782	-0.114
783	-0.12
783	-0.124
784	-0.129
784	-0.133
784	-0.136
785	-0.14
785	-0.144
786	-0.145
786	-0.143
787	-0.138
787	-0.135
788	-0.134
788	-0.135
788	-0.136
789	-0.139
789	-0.139
790	-0.137
790	-0.135
791	-0.136
791	-0.138
791	-0.14
792	-0.135
792	-0.124
793	-0.117
793	-0.112
794	-0.11
794	-0.111
794	-0.114
795	-0.116
795	-0.116
796	-0.116
796	-0.118
797	-0.127
797	-0.138
797	-0.145
798	-0.151
798	-0.155
799	-0.156
799	-0.156
800	-0.156
800	-0.158
801	-0.161
801	-0.162
801	-0.162
802	-0.163
802	-0.164
803	-0.164
803	-0.164
804	-0.163
804	-0.157
804	-0.15
805	-0.146
805	-0.143
806	-0.141
806	-0.14
807	-0.138
807	-0.137
807	-0.137
808	-0.136
808	-0.137
809	-0.141
809	-0.146
810	-0.149
810	-0.151
810	-0.155
811	-0.157
811	-0.158
812	-0.154
812	-0.151
813	-0.152
813	-0.153
813	-0.155
814	-0.156
814	-0.157
815	-0.155
815	-0.153
816	-0.152
816	-0.153
817	-0.158
817	-0.162
817	-0.163
818	-0.162
818	-0.159
819	-0.154
819	-0.151
820	-0.152
820	-0.154
820	-0.155
821	-0.155
821	-0.153
822	-0.15
822	-0.146
823	-0.142
823	-0.14
823	-0.139
824	-0.136
824	-0.13
825	-0.121
825	-0.111
826	-0.101
826	-0.094
826	-0.087
827	-0.08
827	-0.075
828	-0.069
828	-0.065
829	-0.06
829	-0.056
829	-0.053
830	-0.05
830	-0.047
831	-0.043
831	-0.039
832	-0.036
832	-0.033
832	-0.031
833	-0.029
833	-0.027
834	-0.026
834	-0.025
835	-0.025
835	-0.024
835	-0.025
836	-0.025
836	-0.025
837	-0.024
837	-0.024
838	-0.024
838	-0.023
839	-0.023
839	-0.022
839	-0.021
840	-0.02
840	-0.019
841	-0.018
841	-0.017
842	-0.015
842	-0.014
842	-0.013
843	-0.012
843	-0.011
844	-0.01
844	-0.009
845	-0.009
845	-0.008
845	-0.007
846	-0.007
846	-0.006
847	-0.006
847	-0.005
848	-0.004
848	-0.003
848	-0.003
849	-0.002
849	-0.001
850	-0
850	-0
851	0
851	0.001
851	0.001
852	0.001
852	0.001
853	0.001
853	0.001
854	0.002
854	0.002
854	0.002
855	0.003
855	0.003
856	0.003
856	0.003
857	0.003
857	0.004
857	0.004
858	0.004
858	0.004
859	0.005
859	0.005
860	0.006
860	0.007
860	0.008
861	0.009
861	0.01
862	0.01
862	0.011
863	0.012
863	0.012
863	0.013
864	0.013
864	0.014
865	0.014
865	0.015
866	0.015
866	0.015
866	0.016
867	0.016
867	0.016
868	0.017
868	0.017
869	0.017
869	0.017
869	0.017
870	0.017
870	0.017
871	0.016
871	0.016
872	0.016
872	0.015
872	0.014
873	0.014
873	0.013
874	0.012
874	0.011
875	0.01
875	0.009
875	0.008
876	0.007
876	0.006
877	0.006
877	0.006
878	0.005
878	0.006
878	0.006
879	0.007
879	0.008
880	0.009
880	0.01
881	0.01
881	0.012
881	0.013
882	0.014
882	0.015
883	0.015
883	0.016
884	0.017
884	0.018
884	0.018
885	0.018
885	0.019
886	0.019
886	0.019
887	0.018
887	0.018
887	0.017
888	0.017
888	0.016
889	0.016
889	0.017
890	0.017
890	0.018
890	0.018
891	0.018
891	0.019
892	0.019
892	0.02
893	0.021
893	0.021
893	0.022
894	0.023
894	0.023
895	0.023
895	0.023
895	0.023
896	0.023
896	0.023
897	0.023
897	0.022
898	0.022
898	0.021
898	0.02
899	0.019
899	0.019
900	0.018
900	0.017
901	0.016
901	0.015
901	0.014
902	0.014
902	0.013
903	0.013
903	0.013
904	0.013
904	0.013
904	0.013
905	0.014
905	0.015
906	0.015
906	0.016
907	0.016
907	0.016
907	0.016
908	0.015
908	0.015
909	0.015
909	0.015
910	0.015
910	0.015
910	0.015
911	0.015
911	0.015
912	0.016
912	0.017
913	0.018
913	0.019
913	0.02
914	0.021
914	0.022
915	0.023
915	0.023
916	0.024
916	0.025
916	0.025
917	0.025
917	0.025
918	0.025
918	0.025
918	0.024
919	0.023
919	0.022
920	0.021
920	0.02
921	0.018
921	0.017
921	0.016
922	0.015
922	0.014
923	0.014
923	0.013
924	0.013
924	0.013
924	0.013
925	0.013
925	0.014
926	0.015
926	0.015
927	0.016
927	0.016
927	0.017
928	0.018
928	0.019
929	0.019
929	0.02
930	0.02
930	0.02
930	0.02
931	0.019
931	0.019
932	0.019
932	0.019
933	0.018
933	0.018
933	0.018
934	0.018
934	0.018
935	0.018
935	0.019
935	0.019
936	0.019
936	0.019
937	0.019
937	0.019
938	0.019
938	0.018
938	0.018
939	0.018
939	0.017
940	0.017
940	0.017
941	0.017
941	0.018
941	0.018
942	0.019
942	0.02
943	0.021
943	0.021
944	0.022
944	0.022
944	0.023
945	0.024
945	0.025
946	0.026
946	0.027
946	0.028
947	0.028
947	0.028
948	0.029
948	0.029
949	0.028
949	0.028
949	0.028
950	0.027
950	0.027
951	0.026
951	0.026
952	0.025
952	0.026
952	0.026
953	0.026
953	0.026
954	0.026
954	0.026
955	0.026
955	0.026
955	0.026
956	0.026
956	0.025
957	0.025
957	0.024
957	0.024
958	0.023
958	0.023
959	0.023
959	0.023
960	0.023
960	0.023
960	0.023
961	0.024
961	0.024
962	0.024
962	0.024
963	0.024
963	0.023
963	0.023
964	0.023
964	0.022
965	0.022
965	0.021
966	0.02
966	0.02
966	0.019
967	0.019
967	0.018
968	0.018
968	0.018
968	0.018
969	0.018
969	0.018
970	0.018
970	0.018
971	0.018
971	0.018
971	0.019
972	0.02
972	0.02
973	0.021
973	0.022
974	0.022
974	0.023
974	0.023
975	0.024
975	0.024
976	0.024
976	0.024
976	0.023
977	0.023
977	0.022
978	0.021
978	0.02
979	0.019
979	0.019
979	0.018
980	0.018
980	0.017
981	0.017
981	0.016
982	0.016
982	0.016
982	0.016
983	0.016
983	0.016
984	0.016
984	0.016
984	0.015
985	0.015
985	0.015
986	0.014
986	0.014
987	0.013
987	0.013
987	0.013
988	0.013
988	0.013
989	0.012
989	0.012
990	0.012
990	0.013
990	0.013
991	0.013
991	0.013
992	0.013
992	0.013
992	0.013
993	0.013
993	0.012
994	0.012
994	0.011
995	0.011
995	0.01
995	0.01
996	0.009
996	0.008
997	0.008
997	0.008
997	0.008
998	0.008
998	0.008
999	0.008
999	0.009
1000	0.009
1000	0.01
1000	0.01
1001	0.011
1001	0.011
1002	0.011
1002	0.011
1003	0.012
1003	0.011
1003	0.011
1004	0.011
1004	0.01
1005	0.01
1005	0.009
1005	0.009
1006	0.008
1006	0.007
1007	0.007
1007	0.007
1008	0.007
1008	0.007
1008	0.007
1009	0.007
1009	0.007
1010	0.008
1010	0.009
1010	0.01
1011	0.011
1011	0.012
1012	0.013
1012	0.013
1013	0.014
1013	0.015
1013	0.016
1014	0.016
1014	0.016
1015	0.017
1015	0.017
1016	0.017
1016	0.017
1016	0.017
1017	0.017
1017	0.018
1018	0.018
1018	0.018
1018	0.019
1019	0.019
1019	0.019
1020	0.019
1020	0.019
1021	0.019
1021	0.018
1021	0.018
1022	0.018
1022	0.018
1023	0.018
1023	0.018
1023	0.018
1024	0.017
1024	0.017
1025	0.017
1025	0.018
1026	0.018
1026	0.018
1026	0.018
1027	0.018
1027	0.018
1028	0.019
1028	0.019
1028	0.019
1029	0.019
1029	0.019
1030	0.019
1030	0.019
1031	0.02
1031	0.02
1031	0.02
1032	0.02
1032	0.019
1033	0.019
1033	0.019
1033	0.019
1034	0.018
1034	0.018
1035	0.018
1035	0.018
1036	0.017
1036	0.018
1036	0.018
1037	0.018
1037	0.018
1038	0.019
1038	0.019
1039	0.019
1039	0.02
1039	0.02
1040	0.02
1040	0.021
1041	0.021
1041	0.021
1041	0.021
1042	0.022
1042	0.022
1043	0.023
1043	0.024
1044	0.025
1044	0.026
1044	0.027
1045	0.028
1045	0.029
1046	0.03
1046	0.032
1046	0.034
1047	0.036
1047	0.037
1048	0.039
1048	0.041
1049	0.042
1049	0.043
1049	0.044
1050	0.044
1050	0.045
1051	0.045
1051	0.045
1051	0.044
1052	0.044
1052	0.043
1053	0.042
1053	0.041
1053	0.041
1054	0.04
1054	0.039
1055	0.039
1055	0.038
1056	0.037
1056	0.036
1056	0.036
1057	0.035
1057	0.034
1058	0.034
1058	0.034
1058	0.034
1059	0.034
1059	0.034
1060	0.034
1060	0.034
1061	0.035
1061	0.035
1061	0.036
1062	0.036
1062	0.036
1063	0.036
1063	0.036
1063	0.037
1064	0.038
1064	0.039
1065	0.041
1065	0.042
1066	0.043
1066	0.045
1066	0.048
1067	0.05
1067	0.053
1068	0.055
1068	0.057
1068	0.059
1069	0.06
1069	0.061
1070	0.063
1070	0.064
1071	0.065
1071	0.067
1071	0.068
1072	0.069
1072	0.072
1073	0.073
1073	0.075
1073	0.076
1074	0.078
1074	0.079
1075	0.079
1075	0.08
1076	0.081
1076	0.082
1076	0.082
1077	0.083
1077	0.084
1078	0.086
1078	0.088
1078	0.09
1079	0.092
1079	0.095
1080	0.097
1080	0.099
1080	0.101
1081	0.104
1081	0.106
1082	0.108
1082	0.109
1083	0.111
1083	0.113
1083	0.116
1084	0.118
1084	0.122
1085	0.125
1085	0.128
1085	0.131
1086	0.133
1086	0.136
1087	0.14
1087	0.143
1088	0.146
1088	0.15
1088	0.154
1089	0.157
1089	0.162
1090	0.167
1090	0.172
1090	0.179
1091	0.186
1091	0.193
1092	0.201
1092	0.21
1092	0.219
1093	0.227
1093	0.238
1094	0.249
1094	0.26
1095	0.272
1095	0.285
1095	0.301
1096	0.318
1096	0.336
1097	0.357
1097	0.377
1097	0.403
1098	0.428
1098	0.457
1099	0.492
1099	0.533
1100	0.581
1100	0.636
1100	0.702
1101	0.784
1101	0.889
1102	1.057
1102	1.348
1102	-0
1103	-0
1103	-0
1104	-0
1104	-0
1104	-0
1105	-0
1105	-0
1106	-0
1106	-0
1107	-0
1107	-0
1107	-0
1108	-0
1108	-0
1109	-0
1109	-0
1109	-0
1110	-0
1110	-0
1111	-0
1111	-0
