Data from 15c-2-4a_Absorbance__1110__01110.txt Node

Date: Thu Jan 25 10:41:10 CET 2024
User: Marek
Spectrometer: MAYP115816
Trigger mode: 0
Integration Time (sec): 2.000000E-1
Scans to average: 10
Electric dark correction enabled: true
Nonlinearity correction enabled: true
Boxcar width: 5
XAxis mode: Wavelengths
Number of Pixels in Spectrum: 2068
>>>>>Begin Spectral Data<<<<<
199	-2.168
199	-1.998
200	-1.843
200	-1.721
201	-1.643
201	-1.586
202	-1.503
202	-1.441
203	-1.389
203	-1.342
204	-1.316
204	-1.288
205	-1.267
205	-1.256
205	-1.25
206	-1.245
206	-1.242
207	-1.242
207	-1.239
208	-1.234
208	-1.23
209	-1.225
209	-1.223
210	-1.22
210	-1.217
211	-1.217
211	-1.215
212	-1.212
212	-1.209
213	-1.207
213	-1.208
213	-1.208
214	-1.207
214	-1.206
215	-1.204
215	-1.202
216	-1.199
216	-1.198
217	-1.196
217	-1.192
218	-1.191
218	-1.189
219	-1.186
219	-1.184
220	-1.183
220	-1.179
221	-1.176
221	-1.174
221	-1.17
222	-1.167
222	-1.166
223	-1.161
223	-1.154
224	-1.147
224	-1.138
225	-1.129
225	-1.12
226	-1.109
226	-1.097
227	-1.083
227	-1.069
228	-1.05
228	-1.031
229	-1.009
229	-0.985
229	-0.958
230	-0.929
230	-0.898
231	-0.863
231	-0.824
232	-0.782
232	-0.737
233	-0.691
233	-0.642
234	-0.594
234	-0.544
235	-0.494
235	-0.445
236	-0.396
236	-0.349
236	-0.304
237	-0.26
237	-0.218
238	-0.179
238	-0.141
239	-0.106
239	-0.073
240	-0.042
240	-0.013
241	0.015
241	0.04
242	0.063
242	0.084
243	0.104
243	0.123
243	0.14
244	0.155
244	0.17
245	0.183
245	0.195
246	0.207
246	0.217
247	0.228
247	0.237
248	0.245
248	0.253
249	0.261
249	0.267
250	0.274
250	0.281
250	0.287
251	0.292
251	0.297
252	0.302
252	0.306
253	0.311
253	0.315
254	0.319
254	0.323
255	0.326
255	0.329
256	0.332
256	0.335
257	0.337
257	0.339
258	0.342
258	0.343
258	0.345
259	0.346
259	0.348
260	0.349
260	0.35
261	0.351
261	0.352
262	0.352
262	0.353
263	0.353
263	0.354
264	0.354
264	0.354
265	0.354
265	0.355
265	0.354
266	0.354
266	0.354
267	0.354
267	0.354
268	0.353
268	0.352
269	0.352
269	0.351
270	0.35
270	0.349
271	0.348
271	0.347
272	0.345
272	0.344
272	0.343
273	0.342
273	0.341
274	0.339
274	0.338
275	0.337
275	0.335
276	0.334
276	0.332
277	0.331
277	0.329
278	0.327
278	0.325
278	0.323
279	0.322
279	0.32
280	0.319
280	0.318
281	0.317
281	0.316
282	0.315
282	0.315
283	0.314
283	0.313
284	0.313
284	0.312
285	0.31
285	0.309
285	0.308
286	0.307
286	0.306
287	0.305
287	0.303
288	0.302
288	0.301
289	0.3
289	0.299
290	0.298
290	0.297
291	0.296
291	0.295
292	0.294
292	0.294
292	0.293
293	0.292
293	0.291
294	0.29
294	0.29
295	0.289
295	0.288
296	0.288
296	0.287
297	0.286
297	0.286
298	0.285
298	0.284
298	0.284
299	0.283
299	0.282
300	0.281
300	0.281
301	0.28
301	0.279
302	0.279
302	0.278
303	0.278
303	0.277
304	0.277
304	0.276
305	0.275
305	0.275
305	0.274
306	0.274
306	0.273
307	0.272
307	0.271
308	0.271
308	0.27
309	0.269
309	0.268
310	0.268
310	0.267
311	0.266
311	0.265
311	0.265
312	0.264
312	0.263
313	0.263
313	0.262
314	0.261
314	0.26
315	0.26
315	0.259
316	0.258
316	0.258
317	0.257
317	0.256
318	0.255
318	0.254
318	0.253
319	0.253
319	0.252
320	0.251
320	0.25
321	0.25
321	0.249
322	0.248
322	0.247
323	0.246
323	0.245
324	0.245
324	0.244
324	0.243
325	0.242
325	0.242
326	0.241
326	0.24
327	0.239
327	0.239
328	0.238
328	0.237
329	0.237
329	0.236
330	0.235
330	0.234
330	0.234
331	0.233
331	0.232
332	0.231
332	0.231
333	0.23
333	0.229
334	0.228
334	0.228
335	0.227
335	0.226
336	0.226
336	0.225
336	0.225
337	0.224
337	0.224
338	0.223
338	0.222
339	0.222
339	0.221
340	0.22
340	0.22
341	0.219
341	0.218
342	0.218
342	0.217
342	0.216
343	0.216
343	0.215
344	0.215
344	0.214
345	0.214
345	0.213
346	0.212
346	0.212
347	0.211
347	0.21
348	0.21
348	0.209
348	0.208
349	0.208
349	0.207
350	0.206
350	0.206
351	0.205
351	0.204
352	0.204
352	0.203
353	0.202
353	0.201
354	0.201
354	0.2
354	0.199
355	0.197
355	0.197
356	0.196
356	0.195
357	0.194
357	0.194
358	0.193
358	0.194
359	0.195
359	0.195
360	0.196
360	0.197
360	0.198
361	0.198
361	0.199
362	0.199
362	0.199
363	0.199
363	0.199
364	0.198
364	0.198
365	0.197
365	0.197
366	0.197
366	0.196
366	0.196
367	0.195
367	0.195
368	0.195
368	0.194
369	0.194
369	0.194
370	0.193
370	0.193
371	0.192
371	0.192
372	0.191
372	0.191
372	0.191
373	0.19
373	0.19
374	0.19
374	0.19
375	0.19
375	0.19
376	0.19
376	0.19
377	0.19
377	0.19
378	0.19
378	0.191
378	0.191
379	0.191
379	0.191
380	0.191
380	0.191
381	0.191
381	0.191
382	0.19
382	0.19
383	0.189
383	0.189
383	0.188
384	0.188
384	0.187
385	0.187
385	0.187
386	0.187
386	0.187
387	0.187
387	0.187
388	0.186
388	0.186
389	0.186
389	0.186
389	0.187
390	0.187
390	0.187
391	0.187
391	0.187
392	0.187
392	0.187
393	0.187
393	0.187
394	0.187
394	0.187
394	0.187
395	0.186
395	0.186
396	0.185
396	0.185
397	0.185
397	0.185
398	0.185
398	0.186
399	0.186
399	0.185
400	0.185
400	0.185
400	0.184
401	0.184
401	0.183
402	0.182
402	0.181
403	0.181
403	0.18
404	0.18
404	0.18
405	0.18
405	0.179
405	0.179
406	0.179
406	0.178
407	0.178
407	0.178
408	0.178
408	0.177
409	0.176
409	0.176
410	0.175
410	0.175
411	0.175
411	0.175
411	0.175
412	0.175
412	0.174
413	0.174
413	0.174
414	0.174
414	0.174
415	0.173
415	0.173
416	0.173
416	0.172
416	0.172
417	0.171
417	0.171
418	0.171
418	0.171
419	0.172
419	0.172
420	0.173
420	0.173
421	0.174
421	0.174
421	0.174
422	0.174
422	0.174
423	0.174
423	0.174
424	0.173
424	0.173
425	0.172
425	0.171
426	0.17
426	0.17
427	0.17
427	0.17
427	0.17
428	0.171
428	0.171
429	0.172
429	0.172
430	0.173
430	0.173
431	0.172
431	0.172
432	0.172
432	0.171
432	0.17
433	0.169
433	0.168
434	0.167
434	0.167
435	0.167
435	0.167
436	0.167
436	0.167
437	0.167
437	0.167
437	0.167
438	0.167
438	0.167
439	0.167
439	0.166
440	0.166
440	0.166
441	0.166
441	0.166
442	0.166
442	0.166
442	0.166
443	0.167
443	0.167
444	0.167
444	0.167
445	0.167
445	0.167
446	0.167
446	0.167
447	0.167
447	0.167
447	0.166
448	0.166
448	0.166
449	0.166
449	0.166
450	0.166
450	0.165
451	0.165
451	0.165
452	0.164
452	0.164
452	0.163
453	0.163
453	0.162
454	0.162
454	0.161
455	0.161
455	0.161
456	0.161
456	0.16
457	0.16
457	0.16
458	0.16
458	0.16
458	0.16
459	0.16
459	0.16
460	0.16
460	0.159
461	0.159
461	0.158
462	0.158
462	0.158
463	0.158
463	0.159
463	0.159
464	0.16
464	0.16
465	0.16
465	0.16
466	0.16
466	0.161
467	0.161
467	0.16
467	0.159
468	0.158
468	0.156
469	0.154
469	0.153
470	0.152
470	0.151
471	0.151
471	0.15
472	0.15
472	0.151
472	0.151
473	0.152
473	0.153
474	0.155
474	0.156
475	0.157
475	0.157
476	0.158
476	0.158
477	0.159
477	0.159
477	0.16
478	0.161
478	0.161
479	0.162
479	0.162
480	0.164
480	0.165
481	0.166
481	0.167
482	0.167
482	0.169
482	0.17
483	0.172
483	0.175
484	0.178
484	0.181
485	0.183
485	0.185
486	0.186
486	0.187
487	0.187
487	0.188
487	0.188
488	0.188
488	0.186
489	0.184
489	0.182
490	0.18
490	0.18
491	0.179
491	0.179
492	0.18
492	0.18
492	0.181
493	0.182
493	0.183
494	0.185
494	0.187
495	0.189
495	0.191
496	0.192
496	0.193
496	0.194
497	0.195
497	0.196
498	0.197
498	0.197
499	0.198
499	0.198
500	0.198
500	0.2
501	0.201
501	0.203
501	0.205
502	0.207
502	0.208
503	0.21
503	0.212
504	0.213
504	0.213
505	0.214
505	0.214
506	0.215
506	0.215
506	0.215
507	0.216
507	0.216
508	0.216
508	0.217
509	0.217
509	0.218
510	0.218
510	0.218
511	0.218
511	0.219
511	0.219
512	0.22
512	0.22
513	0.219
513	0.218
514	0.217
514	0.216
515	0.215
515	0.215
515	0.215
516	0.215
516	0.214
517	0.215
517	0.214
518	0.214
518	0.213
519	0.211
519	0.209
520	0.207
520	0.204
520	0.201
521	0.199
521	0.196
522	0.194
522	0.193
523	0.193
523	0.194
524	0.197
524	0.2
524	0.203
525	0.206
525	0.209
526	0.212
526	0.214
527	0.217
527	0.219
528	0.221
528	0.223
529	0.223
529	0.224
529	0.223
530	0.223
530	0.223
531	0.223
531	0.224
532	0.223
532	0.223
533	0.222
533	0.222
533	0.222
534	0.222
534	0.221
535	0.22
535	0.22
536	0.219
536	0.218
537	0.218
537	0.217
538	0.216
538	0.215
538	0.213
539	0.212
539	0.211
540	0.21
540	0.209
541	0.207
541	0.205
542	0.203
542	0.201
542	0.2
543	0.199
543	0.197
544	0.196
544	0.194
545	0.193
545	0.193
546	0.192
546	0.192
547	0.191
547	0.189
547	0.186
548	0.184
548	0.181
549	0.179
549	0.177
550	0.175
550	0.173
551	0.17
551	0.167
551	0.165
552	0.163
552	0.162
553	0.161
553	0.161
554	0.16
554	0.159
555	0.157
555	0.154
556	0.151
556	0.148
556	0.145
557	0.141
557	0.139
558	0.136
558	0.134
559	0.132
559	0.131
560	0.13
560	0.129
560	0.129
561	0.129
561	0.129
562	0.128
562	0.127
563	0.126
563	0.124
564	0.121
564	0.118
564	0.115
565	0.113
565	0.111
566	0.11
566	0.108
567	0.108
567	0.108
568	0.109
568	0.11
568	0.111
569	0.113
569	0.115
570	0.116
570	0.116
571	0.117
571	0.118
572	0.118
572	0.118
573	0.118
573	0.117
573	0.117
574	0.116
574	0.115
575	0.114
575	0.115
576	0.116
576	0.116
577	0.115
577	0.114
577	0.113
578	0.112
578	0.111
579	0.112
579	0.113
580	0.112
580	0.11
581	0.108
581	0.106
581	0.104
582	0.104
582	0.103
583	0.104
583	0.104
584	0.102
584	0.098
585	0.096
585	0.095
585	0.095
586	0.094
586	0.093
587	0.092
587	0.09
588	0.087
588	0.084
589	0.081
589	0.079
590	0.078
590	0.076
590	0.076
591	0.076
591	0.076
592	0.075
592	0.074
593	0.074
593	0.074
594	0.074
594	0.074
594	0.074
595	0.073
595	0.073
596	0.071
596	0.071
597	0.073
597	0.075
598	0.076
598	0.077
598	0.077
599	0.078
599	0.077
600	0.077
600	0.076
601	0.075
601	0.073
602	0.072
602	0.07
602	0.068
603	0.067
603	0.067
604	0.067
604	0.068
605	0.069
605	0.07
606	0.07
606	0.07
606	0.069
607	0.069
607	0.068
608	0.068
608	0.067
609	0.066
609	0.065
610	0.064
610	0.062
610	0.062
611	0.063
611	0.063
612	0.064
612	0.066
613	0.067
613	0.069
614	0.07
614	0.07
614	0.07
615	0.07
615	0.07
616	0.07
616	0.069
617	0.068
617	0.067
618	0.065
618	0.064
618	0.063
619	0.062
619	0.062
620	0.062
620	0.063
621	0.064
621	0.064
622	0.065
622	0.066
622	0.066
623	0.066
623	0.067
624	0.068
624	0.068
625	0.068
625	0.068
626	0.068
626	0.068
626	0.068
627	0.068
627	0.068
628	0.069
628	0.069
629	0.069
629	0.069
630	0.069
630	0.068
630	0.068
631	0.068
631	0.069
632	0.069
632	0.069
633	0.07
633	0.07
634	0.071
634	0.073
634	0.075
635	0.078
635	0.079
636	0.081
636	0.082
637	0.084
637	0.085
638	0.086
638	0.087
638	0.088
639	0.089
639	0.089
640	0.09
640	0.092
641	0.093
641	0.095
642	0.097
642	0.1
642	0.102
643	0.104
643	0.107
644	0.109
644	0.112
645	0.114
645	0.116
646	0.118
646	0.12
646	0.123
647	0.127
647	0.13
648	0.133
648	0.136
649	0.139
649	0.142
650	0.145
650	0.148
650	0.151
651	0.153
651	0.155
652	0.157
652	0.158
653	0.161
653	0.168
653	0.182
654	0.148
654	0.122
655	0.128
655	0.13
656	0.133
656	0.135
657	0.137
657	0.139
657	0.141
658	0.139
658	0.129
659	0.161
659	0.206
660	0.207
660	0.209
661	0.21
661	0.212
661	0.215
662	0.218
662	0.221
663	0.225
663	0.228
664	0.231
664	0.234
665	0.236
665	0.239
665	0.242
666	0.245
666	0.248
667	0.25
667	0.253
668	0.255
668	0.257
669	0.26
669	0.262
669	0.266
670	0.27
670	0.274
671	0.277
671	0.279
672	0.281
672	0.283
672	0.284
673	0.286
673	0.288
674	0.289
674	0.29
675	0.29
675	0.291
676	0.292
676	0.295
676	0.296
677	0.298
677	0.3
678	0.302
678	0.303
679	0.305
679	0.306
680	0.307
680	0.309
680	0.309
681	0.309
681	0.31
682	0.311
682	0.313
683	0.315
683	0.318
684	0.32
684	0.321
684	0.322
685	0.322
685	0.323
686	0.324
686	0.324
687	0.323
687	0.322
687	0.321
688	0.32
688	0.318
689	0.318
689	0.319
690	0.319
690	0.319
691	0.318
691	0.319
691	0.319
692	0.319
692	0.319
693	0.319
693	0.319
694	0.319
694	0.318
695	0.318
695	0.32
695	0.321
696	0.32
696	0.32
697	0.319
697	0.318
698	0.317
698	0.315
698	0.312
699	0.311
699	0.308
700	0.304
700	0.301
701	0.299
701	0.297
702	0.295
702	0.293
702	0.292
703	0.29
703	0.288
704	0.286
704	0.284
705	0.283
705	0.282
705	0.281
706	0.279
706	0.278
707	0.277
707	0.275
708	0.274
708	0.273
709	0.272
709	0.27
709	0.267
710	0.264
710	0.261
711	0.258
711	0.256
712	0.253
712	0.252
713	0.25
713	0.248
713	0.246
714	0.243
714	0.241
715	0.239
715	0.236
716	0.234
716	0.232
716	0.23
717	0.227
717	0.225
718	0.222
718	0.219
719	0.216
719	0.214
720	0.211
720	0.209
720	0.205
721	0.201
721	0.198
722	0.194
722	0.19
723	0.187
723	0.184
723	0.182
724	0.179
724	0.177
725	0.174
725	0.172
726	0.17
726	0.168
727	0.166
727	0.164
727	0.162
728	0.159
728	0.157
729	0.156
729	0.154
730	0.152
730	0.15
730	0.148
731	0.147
731	0.145
732	0.144
732	0.142
733	0.14
733	0.138
734	0.136
734	0.133
734	0.13
735	0.128
735	0.125
736	0.122
736	0.119
737	0.116
737	0.114
737	0.112
738	0.109
738	0.106
739	0.104
739	0.102
740	0.1
740	0.098
741	0.096
741	0.094
741	0.091
742	0.087
742	0.083
743	0.08
743	0.078
744	0.075
744	0.073
744	0.07
745	0.068
745	0.065
746	0.063
746	0.062
747	0.06
747	0.06
748	0.059
748	0.058
748	0.058
749	0.056
749	0.055
750	0.054
750	0.053
751	0.053
751	0.052
751	0.052
752	0.052
752	0.05
753	0.049
753	0.048
754	0.047
754	0.046
754	0.045
755	0.045
755	0.045
756	0.044
756	0.042
757	0.04
757	0.039
758	0.038
758	0.037
758	0.036
759	0.035
759	0.033
760	0.03
760	0.027
761	0.024
761	0.023
761	0.022
762	0.02
762	0.018
763	0.018
763	0.015
764	0.013
764	0.011
764	0.008
765	0.006
765	0.004
766	0.003
766	0.002
767	0.001
767	-0.001
768	-0.005
768	-0.007
768	-0.009
769	-0.009
769	-0.01
770	-0.011
770	-0.012
771	-0.014
771	-0.017
771	-0.019
772	-0.021
772	-0.023
773	-0.025
773	-0.028
774	-0.031
774	-0.035
775	-0.038
775	-0.042
775	-0.046
776	-0.05
776	-0.054
777	-0.058
777	-0.061
778	-0.065
778	-0.07
778	-0.073
779	-0.076
779	-0.079
780	-0.083
780	-0.087
781	-0.092
781	-0.098
781	-0.104
782	-0.109
782	-0.116
783	-0.122
783	-0.126
784	-0.13
784	-0.134
784	-0.137
785	-0.141
785	-0.144
786	-0.144
786	-0.142
787	-0.138
787	-0.134
788	-0.133
788	-0.135
788	-0.136
789	-0.139
789	-0.139
790	-0.136
790	-0.135
791	-0.136
791	-0.138
791	-0.14
792	-0.135
792	-0.123
793	-0.117
793	-0.112
794	-0.109
794	-0.111
794	-0.114
795	-0.116
795	-0.115
796	-0.116
796	-0.118
797	-0.127
797	-0.138
797	-0.145
798	-0.151
798	-0.154
799	-0.155
799	-0.156
800	-0.156
800	-0.158
801	-0.161
801	-0.162
801	-0.162
802	-0.163
802	-0.164
803	-0.164
803	-0.164
804	-0.162
804	-0.157
804	-0.15
805	-0.146
805	-0.143
806	-0.141
806	-0.139
807	-0.138
807	-0.137
807	-0.137
808	-0.136
808	-0.137
809	-0.141
809	-0.146
810	-0.149
810	-0.151
810	-0.154
811	-0.157
811	-0.158
812	-0.154
812	-0.151
813	-0.151
813	-0.153
813	-0.154
814	-0.156
814	-0.156
815	-0.155
815	-0.153
816	-0.152
816	-0.153
817	-0.157
817	-0.161
817	-0.162
818	-0.162
818	-0.159
819	-0.153
819	-0.15
820	-0.152
820	-0.153
820	-0.155
821	-0.155
821	-0.153
822	-0.151
822	-0.147
823	-0.144
823	-0.142
823	-0.142
824	-0.139
824	-0.133
825	-0.125
825	-0.115
826	-0.106
826	-0.098
826	-0.091
827	-0.084
827	-0.079
828	-0.073
828	-0.069
829	-0.064
829	-0.059
829	-0.056
830	-0.054
830	-0.051
831	-0.047
831	-0.043
832	-0.04
832	-0.037
832	-0.034
833	-0.032
833	-0.03
834	-0.029
834	-0.028
835	-0.027
835	-0.027
835	-0.027
836	-0.027
836	-0.027
837	-0.027
837	-0.027
838	-0.026
838	-0.025
839	-0.025
839	-0.024
839	-0.023
840	-0.022
840	-0.021
841	-0.02
841	-0.018
842	-0.017
842	-0.016
842	-0.015
843	-0.014
843	-0.013
844	-0.012
844	-0.011
845	-0.011
845	-0.01
845	-0.01
846	-0.009
846	-0.009
847	-0.008
847	-0.007
848	-0.006
848	-0.006
848	-0.005
849	-0.004
849	-0.003
850	-0.003
850	-0.002
851	-0.002
851	-0.001
851	-0.001
852	-0.001
852	-0.001
853	-0.001
853	-0.001
854	-0
854	0
854	0.001
855	0.001
855	0.001
856	0.001
856	0.001
857	0.001
857	0.002
857	0.002
858	0.002
858	0.003
859	0.003
859	0.004
860	0.004
860	0.005
860	0.006
861	0.007
861	0.008
862	0.008
862	0.009
863	0.009
863	0.01
863	0.011
864	0.011
864	0.011
865	0.012
865	0.012
866	0.013
866	0.013
866	0.014
867	0.015
867	0.015
868	0.015
868	0.016
869	0.016
869	0.016
869	0.016
870	0.016
870	0.016
871	0.016
871	0.015
872	0.015
872	0.014
872	0.014
873	0.013
873	0.012
874	0.011
874	0.01
875	0.009
875	0.008
875	0.007
876	0.006
876	0.005
877	0.005
877	0.004
878	0.004
878	0.004
878	0.005
879	0.005
879	0.006
880	0.007
880	0.008
881	0.009
881	0.01
881	0.011
882	0.011
882	0.012
883	0.013
883	0.014
884	0.015
884	0.015
884	0.016
885	0.016
885	0.016
886	0.016
886	0.016
887	0.016
887	0.016
887	0.016
888	0.015
888	0.015
889	0.015
889	0.015
890	0.016
890	0.016
890	0.017
891	0.018
891	0.018
892	0.019
892	0.019
893	0.02
893	0.021
893	0.022
894	0.022
894	0.022
895	0.022
895	0.022
895	0.022
896	0.022
896	0.022
897	0.022
897	0.022
898	0.021
898	0.02
898	0.019
899	0.018
899	0.017
900	0.016
900	0.015
901	0.014
901	0.013
901	0.012
902	0.012
902	0.011
903	0.011
903	0.011
904	0.011
904	0.011
904	0.011
905	0.012
905	0.013
906	0.013
906	0.014
907	0.014
907	0.014
907	0.014
908	0.014
908	0.014
909	0.014
909	0.014
910	0.014
910	0.014
910	0.014
911	0.014
911	0.014
912	0.015
912	0.016
913	0.017
913	0.018
913	0.019
914	0.02
914	0.021
915	0.021
915	0.022
916	0.023
916	0.024
916	0.024
917	0.024
917	0.024
918	0.024
918	0.023
918	0.023
919	0.022
919	0.021
920	0.02
920	0.019
921	0.018
921	0.017
921	0.016
922	0.015
922	0.015
923	0.014
923	0.013
924	0.013
924	0.013
924	0.012
925	0.013
925	0.013
926	0.013
926	0.014
927	0.014
927	0.015
927	0.015
928	0.016
928	0.017
929	0.017
929	0.018
930	0.018
930	0.018
930	0.018
931	0.018
931	0.018
932	0.018
932	0.018
933	0.018
933	0.018
933	0.018
934	0.018
934	0.018
935	0.018
935	0.019
935	0.019
936	0.019
936	0.019
937	0.019
937	0.019
938	0.019
938	0.018
938	0.017
939	0.017
939	0.017
940	0.016
940	0.016
941	0.016
941	0.017
941	0.017
942	0.018
942	0.018
943	0.019
943	0.02
944	0.021
944	0.021
944	0.022
945	0.023
945	0.024
946	0.025
946	0.026
946	0.026
947	0.027
947	0.027
948	0.027
948	0.027
949	0.027
949	0.026
949	0.026
950	0.025
950	0.025
951	0.024
951	0.024
952	0.023
952	0.023
952	0.023
953	0.024
953	0.024
954	0.024
954	0.024
955	0.024
955	0.024
955	0.024
956	0.024
956	0.024
957	0.024
957	0.023
957	0.023
958	0.022
958	0.022
959	0.022
959	0.022
960	0.022
960	0.022
960	0.022
961	0.022
961	0.022
962	0.022
962	0.022
963	0.022
963	0.022
963	0.022
964	0.021
964	0.021
965	0.02
965	0.02
966	0.02
966	0.019
966	0.019
967	0.018
967	0.018
968	0.017
968	0.017
968	0.017
969	0.017
969	0.017
970	0.017
970	0.017
971	0.017
971	0.018
971	0.018
972	0.019
972	0.019
973	0.02
973	0.021
974	0.021
974	0.022
974	0.022
975	0.023
975	0.023
976	0.023
976	0.023
976	0.023
977	0.022
977	0.021
978	0.02
978	0.019
979	0.018
979	0.018
979	0.017
980	0.017
980	0.016
981	0.016
981	0.016
982	0.016
982	0.016
982	0.016
983	0.015
983	0.015
984	0.015
984	0.015
984	0.015
985	0.015
985	0.015
986	0.014
986	0.013
987	0.013
987	0.013
987	0.012
988	0.012
988	0.012
989	0.012
989	0.012
990	0.012
990	0.012
990	0.012
991	0.013
991	0.013
992	0.013
992	0.013
992	0.012
993	0.012
993	0.012
994	0.011
994	0.011
995	0.01
995	0.01
995	0.009
996	0.009
996	0.008
997	0.008
997	0.007
997	0.007
998	0.007
998	0.007
999	0.007
999	0.008
1000	0.008
1000	0.009
1000	0.009
1001	0.01
1001	0.01
1002	0.01
1002	0.01
1003	0.01
1003	0.01
1003	0.01
1004	0.009
1004	0.009
1005	0.008
1005	0.008
1005	0.007
1006	0.006
1006	0.006
1007	0.006
1007	0.005
1008	0.005
1008	0.005
1008	0.005
1009	0.005
1009	0.006
1010	0.007
1010	0.008
1010	0.009
1011	0.01
1011	0.011
1012	0.012
1012	0.013
1013	0.014
1013	0.014
1013	0.015
1014	0.015
1014	0.016
1015	0.016
1015	0.016
1016	0.016
1016	0.016
1016	0.016
1017	0.016
1017	0.017
1018	0.017
1018	0.018
1018	0.018
1019	0.018
1019	0.018
1020	0.018
1020	0.018
1021	0.018
1021	0.018
1021	0.018
1022	0.018
1022	0.018
1023	0.018
1023	0.017
1023	0.017
1024	0.017
1024	0.017
1025	0.017
1025	0.017
1026	0.017
1026	0.017
1026	0.017
1027	0.018
1027	0.018
1028	0.018
1028	0.018
1028	0.019
1029	0.019
1029	0.019
1030	0.02
1030	0.02
1031	0.02
1031	0.02
1031	0.02
1032	0.02
1032	0.019
1033	0.019
1033	0.019
1033	0.019
1034	0.018
1034	0.018
1035	0.018
1035	0.017
1036	0.017
1036	0.017
1036	0.017
1037	0.018
1037	0.018
1038	0.018
1038	0.018
1039	0.018
1039	0.018
1039	0.019
1040	0.019
1040	0.019
1041	0.019
1041	0.02
1041	0.02
1042	0.02
1042	0.021
1043	0.022
1043	0.022
1044	0.023
1044	0.024
1044	0.026
1045	0.027
1045	0.028
1046	0.029
1046	0.031
1046	0.033
1047	0.035
1047	0.036
1048	0.038
1048	0.039
1049	0.04
1049	0.041
1049	0.042
1050	0.042
1050	0.042
1051	0.042
1051	0.042
1051	0.042
1052	0.042
1052	0.041
1053	0.04
1053	0.039
1053	0.039
1054	0.038
1054	0.038
1055	0.037
1055	0.036
1056	0.036
1056	0.035
1056	0.034
1057	0.033
1057	0.033
1058	0.034
1058	0.034
1058	0.034
1059	0.033
1059	0.034
1060	0.034
1060	0.034
1061	0.035
1061	0.035
1061	0.036
1062	0.036
1062	0.036
1063	0.037
1063	0.037
1063	0.038
1064	0.039
1064	0.04
1065	0.041
1065	0.043
1066	0.045
1066	0.046
1066	0.049
1067	0.051
1067	0.054
1068	0.056
1068	0.058
1068	0.06
1069	0.062
1069	0.063
1070	0.065
1070	0.066
1071	0.068
1071	0.069
1071	0.07
1072	0.072
1072	0.073
1073	0.075
1073	0.077
1073	0.078
1074	0.079
1074	0.081
1075	0.081
1075	0.082
1076	0.083
1076	0.084
1076	0.085
1077	0.086
1077	0.087
1078	0.089
1078	0.091
1078	0.093
1079	0.095
1079	0.098
1080	0.099
1080	0.102
1080	0.103
1081	0.106
1081	0.108
1082	0.11
1082	0.112
1083	0.114
1083	0.117
1083	0.119
1084	0.122
1084	0.125
1085	0.129
1085	0.132
1085	0.135
1086	0.138
1086	0.141
1087	0.145
1087	0.148
1088	0.151
1088	0.155
1088	0.159
1089	0.163
1089	0.167
1090	0.173
1090	0.18
1090	0.187
1091	0.194
1091	0.202
1092	0.211
1092	0.221
1092	0.231
1093	0.24
1093	0.252
1094	0.264
1094	0.274
1095	0.286
1095	0.302
1095	0.318
1096	0.335
1096	0.355
1097	0.375
1097	0.399
1097	0.426
1098	0.452
1098	0.485
1099	0.525
1099	0.569
1100	0.621
1100	0.683
1100	0.758
1101	0.855
1101	0.996
1102	1.231
1102	1.83
1102	-0
1103	-0
1103	-0
1104	-0
1104	-0
1104	-0
1105	-0
1105	-0
1106	-0
1106	-0
1107	-0
1107	-0
1107	-0
1108	-0
1108	-0
1109	-0
1109	-0
1109	-0
1110	-0
1110	-0
1111	-0
1111	-0
