Data from 15c-2-4a_Absorbance__1810__01810.txt Node

Date: Thu Jan 25 11:04:30 CET 2024
User: Marek
Spectrometer: MAYP115816
Trigger mode: 0
Integration Time (sec): 2.000000E-1
Scans to average: 10
Electric dark correction enabled: true
Nonlinearity correction enabled: true
Boxcar width: 5
XAxis mode: Wavelengths
Number of Pixels in Spectrum: 2068
>>>>>Begin Spectral Data<<<<<
199	-2.187
199	-2.018
200	-1.864
200	-1.741
201	-1.663
201	-1.606
202	-1.522
202	-1.46
203	-1.408
203	-1.362
204	-1.335
204	-1.307
205	-1.286
205	-1.274
205	-1.268
206	-1.264
206	-1.261
207	-1.261
207	-1.257
208	-1.252
208	-1.249
209	-1.244
209	-1.241
210	-1.239
210	-1.236
211	-1.235
211	-1.233
212	-1.23
212	-1.228
213	-1.226
213	-1.226
213	-1.226
214	-1.225
214	-1.224
215	-1.222
215	-1.22
216	-1.218
216	-1.217
217	-1.215
217	-1.212
218	-1.211
218	-1.208
219	-1.205
219	-1.203
220	-1.202
220	-1.198
221	-1.195
221	-1.193
221	-1.189
222	-1.187
222	-1.185
223	-1.18
223	-1.174
224	-1.167
224	-1.158
225	-1.148
225	-1.14
226	-1.129
226	-1.117
227	-1.102
227	-1.088
228	-1.068
228	-1.05
229	-1.028
229	-1.004
229	-0.978
230	-0.948
230	-0.916
231	-0.881
231	-0.842
232	-0.8
232	-0.755
233	-0.708
233	-0.659
234	-0.61
234	-0.559
235	-0.508
235	-0.458
236	-0.408
236	-0.36
236	-0.313
237	-0.267
237	-0.224
238	-0.183
238	-0.143
239	-0.106
239	-0.071
240	-0.038
240	-0.007
241	0.022
241	0.048
242	0.073
242	0.096
243	0.117
243	0.137
243	0.155
244	0.172
244	0.188
245	0.202
245	0.215
246	0.227
246	0.239
247	0.25
247	0.26
248	0.269
248	0.278
249	0.286
249	0.293
250	0.301
250	0.308
250	0.314
251	0.32
251	0.325
252	0.331
252	0.336
253	0.341
253	0.345
254	0.349
254	0.353
255	0.357
255	0.36
256	0.363
256	0.366
257	0.369
257	0.371
258	0.374
258	0.375
258	0.377
259	0.379
259	0.38
260	0.381
260	0.382
261	0.383
261	0.384
262	0.385
262	0.385
263	0.386
263	0.386
264	0.386
264	0.387
265	0.387
265	0.387
265	0.387
266	0.387
266	0.387
267	0.386
267	0.386
268	0.385
268	0.385
269	0.384
269	0.383
270	0.382
270	0.381
271	0.379
271	0.378
272	0.377
272	0.376
272	0.375
273	0.373
273	0.372
274	0.371
274	0.369
275	0.368
275	0.366
276	0.365
276	0.363
277	0.361
277	0.359
278	0.357
278	0.355
278	0.353
279	0.351
279	0.35
280	0.349
280	0.347
281	0.346
281	0.345
282	0.344
282	0.343
283	0.343
283	0.342
284	0.341
284	0.34
285	0.338
285	0.337
285	0.336
286	0.334
286	0.333
287	0.332
287	0.331
288	0.329
288	0.328
289	0.327
289	0.326
290	0.325
290	0.323
291	0.322
291	0.321
292	0.32
292	0.319
292	0.318
293	0.317
293	0.316
294	0.315
294	0.314
295	0.313
295	0.313
296	0.312
296	0.311
297	0.31
297	0.309
298	0.308
298	0.307
298	0.306
299	0.306
299	0.305
300	0.304
300	0.303
301	0.303
301	0.302
302	0.301
302	0.3
303	0.299
303	0.299
304	0.298
304	0.297
305	0.296
305	0.295
305	0.294
306	0.294
306	0.293
307	0.292
307	0.291
308	0.29
308	0.289
309	0.288
309	0.287
310	0.286
310	0.286
311	0.285
311	0.284
311	0.283
312	0.282
312	0.282
313	0.281
313	0.28
314	0.279
314	0.278
315	0.277
315	0.276
316	0.275
316	0.274
317	0.273
317	0.272
318	0.271
318	0.27
318	0.269
319	0.268
319	0.268
320	0.267
320	0.266
321	0.265
321	0.264
322	0.263
322	0.262
323	0.261
323	0.26
324	0.259
324	0.258
324	0.257
325	0.256
325	0.255
326	0.255
326	0.254
327	0.253
327	0.252
328	0.251
328	0.251
329	0.25
329	0.249
330	0.248
330	0.247
330	0.246
331	0.245
331	0.244
332	0.244
332	0.243
333	0.242
333	0.241
334	0.24
334	0.239
335	0.238
335	0.237
336	0.237
336	0.236
336	0.235
337	0.234
337	0.234
338	0.233
338	0.232
339	0.232
339	0.231
340	0.23
340	0.23
341	0.229
341	0.228
342	0.227
342	0.227
342	0.226
343	0.225
343	0.224
344	0.224
344	0.223
345	0.222
345	0.222
346	0.221
346	0.22
347	0.22
347	0.219
348	0.218
348	0.217
348	0.217
349	0.216
349	0.215
350	0.214
350	0.213
351	0.212
351	0.211
352	0.211
352	0.21
353	0.209
353	0.208
354	0.207
354	0.206
354	0.205
355	0.204
355	0.203
356	0.202
356	0.201
357	0.201
357	0.2
358	0.2
358	0.201
359	0.201
359	0.202
360	0.203
360	0.203
360	0.204
361	0.205
361	0.205
362	0.205
362	0.205
363	0.205
363	0.205
364	0.204
364	0.203
365	0.203
365	0.202
366	0.202
366	0.201
366	0.201
367	0.201
367	0.2
368	0.2
368	0.199
369	0.199
369	0.198
370	0.198
370	0.198
371	0.197
371	0.196
372	0.196
372	0.195
372	0.195
373	0.195
373	0.195
374	0.195
374	0.194
375	0.194
375	0.194
376	0.194
376	0.194
377	0.194
377	0.194
378	0.194
378	0.194
378	0.195
379	0.195
379	0.194
380	0.194
380	0.194
381	0.194
381	0.194
382	0.194
382	0.193
383	0.193
383	0.192
383	0.192
384	0.191
384	0.191
385	0.19
385	0.19
386	0.19
386	0.19
387	0.19
387	0.19
388	0.189
388	0.189
389	0.189
389	0.189
389	0.189
390	0.189
390	0.189
391	0.19
391	0.19
392	0.19
392	0.19
393	0.19
393	0.19
394	0.189
394	0.189
394	0.189
395	0.188
395	0.188
396	0.187
396	0.187
397	0.187
397	0.188
398	0.188
398	0.187
399	0.187
399	0.187
400	0.187
400	0.186
400	0.186
401	0.185
401	0.184
402	0.183
402	0.182
403	0.182
403	0.181
404	0.181
404	0.181
405	0.181
405	0.18
405	0.18
406	0.179
406	0.179
407	0.179
407	0.179
408	0.178
408	0.177
409	0.177
409	0.176
410	0.176
410	0.176
411	0.176
411	0.176
411	0.176
412	0.175
412	0.175
413	0.175
413	0.174
414	0.174
414	0.174
415	0.174
415	0.173
416	0.173
416	0.172
416	0.172
417	0.171
417	0.171
418	0.171
418	0.171
419	0.171
419	0.172
420	0.172
420	0.173
421	0.173
421	0.173
421	0.174
422	0.174
422	0.174
423	0.174
423	0.173
424	0.173
424	0.172
425	0.171
425	0.17
426	0.169
426	0.169
427	0.168
427	0.169
427	0.169
428	0.169
428	0.17
429	0.171
429	0.171
430	0.171
430	0.171
431	0.171
431	0.171
432	0.17
432	0.17
432	0.169
433	0.167
433	0.166
434	0.165
434	0.165
435	0.165
435	0.165
436	0.165
436	0.165
437	0.165
437	0.165
437	0.165
438	0.165
438	0.165
439	0.164
439	0.164
440	0.163
440	0.163
441	0.163
441	0.163
442	0.163
442	0.164
442	0.164
443	0.164
443	0.164
444	0.164
444	0.165
445	0.165
445	0.165
446	0.165
446	0.165
447	0.165
447	0.164
447	0.164
448	0.164
448	0.164
449	0.163
449	0.163
450	0.163
450	0.163
451	0.162
451	0.162
452	0.161
452	0.16
452	0.16
453	0.159
453	0.159
454	0.159
454	0.158
455	0.158
455	0.157
456	0.157
456	0.157
457	0.157
457	0.157
458	0.157
458	0.157
458	0.157
459	0.157
459	0.157
460	0.156
460	0.156
461	0.155
461	0.155
462	0.154
462	0.154
463	0.155
463	0.155
463	0.156
464	0.156
464	0.157
465	0.157
465	0.157
466	0.157
466	0.157
467	0.157
467	0.157
467	0.156
468	0.155
468	0.153
469	0.151
469	0.149
470	0.148
470	0.148
471	0.147
471	0.147
472	0.147
472	0.147
472	0.147
473	0.148
473	0.15
474	0.151
474	0.152
475	0.153
475	0.154
476	0.155
476	0.155
477	0.155
477	0.156
477	0.156
478	0.157
478	0.157
479	0.158
479	0.158
480	0.159
480	0.16
481	0.161
481	0.162
482	0.163
482	0.165
482	0.166
483	0.168
483	0.171
484	0.175
484	0.178
485	0.18
485	0.181
486	0.183
486	0.184
487	0.184
487	0.185
487	0.185
488	0.184
488	0.183
489	0.18
489	0.178
490	0.177
490	0.176
491	0.175
491	0.176
492	0.176
492	0.177
492	0.177
493	0.178
493	0.179
494	0.181
494	0.184
495	0.186
495	0.188
496	0.189
496	0.19
496	0.191
497	0.192
497	0.193
498	0.194
498	0.195
499	0.195
499	0.196
500	0.196
500	0.198
501	0.199
501	0.201
501	0.203
502	0.205
502	0.206
503	0.208
503	0.21
504	0.211
504	0.211
505	0.212
505	0.213
506	0.213
506	0.214
506	0.214
507	0.214
507	0.214
508	0.215
508	0.215
509	0.216
509	0.217
510	0.217
510	0.217
511	0.217
511	0.218
511	0.218
512	0.219
512	0.219
513	0.218
513	0.216
514	0.215
514	0.214
515	0.213
515	0.214
515	0.214
516	0.213
516	0.213
517	0.213
517	0.212
518	0.211
518	0.21
519	0.209
519	0.206
520	0.203
520	0.2
520	0.197
521	0.194
521	0.192
522	0.19
522	0.189
523	0.19
523	0.191
524	0.194
524	0.197
524	0.201
525	0.204
525	0.207
526	0.21
526	0.213
527	0.216
527	0.218
528	0.219
528	0.221
529	0.221
529	0.221
529	0.221
530	0.221
530	0.221
531	0.221
531	0.221
532	0.22
532	0.22
533	0.22
533	0.219
533	0.219
534	0.219
534	0.218
535	0.217
535	0.216
536	0.216
536	0.215
537	0.214
537	0.213
538	0.212
538	0.211
538	0.209
539	0.208
539	0.207
540	0.206
540	0.204
541	0.203
541	0.201
542	0.199
542	0.197
542	0.196
543	0.194
543	0.193
544	0.191
544	0.19
545	0.188
545	0.188
546	0.187
546	0.187
547	0.185
547	0.183
547	0.18
548	0.178
548	0.175
549	0.173
549	0.17
550	0.168
550	0.166
551	0.163
551	0.16
551	0.158
552	0.156
552	0.155
553	0.154
553	0.153
554	0.152
554	0.151
555	0.149
555	0.146
556	0.142
556	0.139
556	0.136
557	0.132
557	0.13
558	0.127
558	0.125
559	0.123
559	0.121
560	0.121
560	0.119
560	0.119
561	0.119
561	0.118
562	0.118
562	0.117
563	0.115
563	0.113
564	0.11
564	0.107
564	0.105
565	0.103
565	0.101
566	0.099
566	0.098
567	0.097
567	0.097
568	0.098
568	0.099
568	0.101
569	0.103
569	0.105
570	0.106
570	0.106
571	0.107
571	0.107
572	0.107
572	0.108
573	0.107
573	0.107
573	0.106
574	0.105
574	0.104
575	0.104
575	0.105
576	0.106
576	0.105
577	0.104
577	0.103
577	0.102
578	0.101
578	0.1
579	0.1
579	0.101
580	0.101
580	0.099
581	0.096
581	0.094
581	0.093
582	0.092
582	0.092
583	0.092
583	0.092
584	0.09
584	0.086
585	0.084
585	0.083
585	0.082
586	0.082
586	0.082
587	0.08
587	0.078
588	0.075
588	0.072
589	0.07
589	0.068
590	0.066
590	0.065
590	0.064
591	0.065
591	0.065
592	0.065
592	0.064
593	0.064
593	0.064
594	0.063
594	0.063
594	0.063
595	0.062
595	0.061
596	0.06
596	0.06
597	0.061
597	0.063
598	0.064
598	0.065
598	0.065
599	0.066
599	0.066
600	0.065
600	0.064
601	0.063
601	0.062
602	0.06
602	0.058
602	0.056
603	0.055
603	0.055
604	0.055
604	0.055
605	0.056
605	0.058
606	0.058
606	0.058
606	0.058
607	0.057
607	0.057
608	0.057
608	0.056
609	0.055
609	0.054
610	0.053
610	0.052
610	0.051
611	0.051
611	0.052
612	0.053
612	0.054
613	0.055
613	0.057
614	0.058
614	0.058
614	0.058
615	0.058
615	0.058
616	0.057
616	0.057
617	0.056
617	0.055
618	0.053
618	0.052
618	0.05
619	0.049
619	0.049
620	0.05
620	0.051
621	0.051
621	0.052
622	0.052
622	0.053
622	0.054
623	0.054
623	0.055
624	0.056
624	0.056
625	0.055
625	0.056
626	0.056
626	0.056
626	0.056
627	0.057
627	0.057
628	0.058
628	0.058
629	0.059
629	0.059
630	0.058
630	0.058
630	0.058
631	0.058
631	0.059
632	0.059
632	0.059
633	0.059
633	0.06
634	0.061
634	0.063
634	0.065
635	0.067
635	0.068
636	0.07
636	0.071
637	0.073
637	0.074
638	0.075
638	0.076
638	0.077
639	0.077
639	0.078
640	0.078
640	0.08
641	0.081
641	0.083
642	0.085
642	0.087
642	0.09
643	0.092
643	0.094
644	0.097
644	0.099
645	0.102
645	0.104
646	0.107
646	0.109
646	0.113
647	0.116
647	0.12
648	0.123
648	0.126
649	0.129
649	0.132
650	0.135
650	0.139
650	0.142
651	0.144
651	0.146
652	0.148
652	0.15
653	0.153
653	0.16
653	0.175
654	0.142
654	0.118
655	0.124
655	0.127
656	0.129
656	0.132
657	0.134
657	0.136
657	0.138
658	0.137
658	0.126
659	0.158
659	0.201
660	0.202
660	0.203
661	0.205
661	0.207
661	0.21
662	0.213
662	0.216
663	0.219
663	0.222
664	0.226
664	0.228
665	0.231
665	0.234
665	0.237
666	0.24
666	0.243
667	0.245
667	0.248
668	0.251
668	0.254
669	0.257
669	0.26
669	0.264
670	0.268
670	0.272
671	0.275
671	0.278
672	0.28
672	0.282
672	0.284
673	0.286
673	0.287
674	0.289
674	0.289
675	0.289
675	0.29
676	0.291
676	0.293
676	0.295
677	0.297
677	0.299
678	0.301
678	0.303
679	0.304
679	0.305
680	0.307
680	0.309
680	0.309
681	0.309
681	0.31
682	0.311
682	0.312
683	0.313
683	0.315
684	0.318
684	0.319
684	0.319
685	0.319
685	0.319
686	0.32
686	0.32
687	0.319
687	0.318
687	0.317
688	0.316
688	0.314
689	0.314
689	0.315
690	0.316
690	0.316
691	0.316
691	0.316
691	0.317
692	0.316
692	0.316
693	0.315
693	0.316
694	0.315
694	0.314
695	0.313
695	0.314
695	0.315
696	0.314
696	0.314
697	0.313
697	0.312
698	0.311
698	0.309
698	0.307
699	0.305
699	0.303
700	0.299
700	0.296
701	0.294
701	0.292
702	0.29
702	0.288
702	0.286
703	0.284
703	0.283
704	0.281
704	0.279
705	0.278
705	0.277
705	0.276
706	0.275
706	0.274
707	0.273
707	0.271
708	0.27
708	0.269
709	0.268
709	0.266
709	0.264
710	0.26
710	0.257
711	0.254
711	0.251
712	0.248
712	0.245
713	0.243
713	0.241
713	0.238
714	0.235
714	0.233
715	0.23
715	0.228
716	0.225
716	0.223
716	0.221
717	0.219
717	0.216
718	0.213
718	0.21
719	0.207
719	0.205
720	0.202
720	0.199
720	0.196
721	0.191
721	0.187
722	0.183
722	0.18
723	0.176
723	0.174
723	0.171
724	0.169
724	0.166
725	0.164
725	0.161
726	0.159
726	0.158
727	0.156
727	0.154
727	0.152
728	0.149
728	0.147
729	0.146
729	0.145
730	0.143
730	0.141
730	0.14
731	0.138
731	0.137
732	0.135
732	0.134
733	0.132
733	0.13
734	0.127
734	0.123
734	0.12
735	0.118
735	0.114
736	0.111
736	0.108
737	0.105
737	0.103
737	0.1
738	0.098
738	0.095
739	0.092
739	0.091
740	0.089
740	0.087
741	0.085
741	0.083
741	0.08
742	0.076
742	0.072
743	0.069
743	0.066
744	0.063
744	0.061
744	0.058
745	0.055
745	0.053
746	0.05
746	0.049
747	0.048
747	0.047
748	0.047
748	0.047
748	0.046
749	0.045
749	0.044
750	0.043
750	0.041
751	0.04
751	0.039
751	0.039
752	0.038
752	0.037
753	0.035
753	0.034
754	0.033
754	0.032
754	0.031
755	0.031
755	0.031
756	0.031
756	0.028
757	0.027
757	0.026
758	0.024
758	0.023
758	0.022
759	0.02
759	0.017
760	0.014
760	0.01
761	0.007
761	0.006
761	0.004
762	0.003
762	0.002
763	0.001
763	-0.001
764	-0.003
764	-0.005
764	-0.006
765	-0.008
765	-0.01
766	-0.011
766	-0.012
767	-0.013
767	-0.015
768	-0.018
768	-0.021
768	-0.022
769	-0.023
769	-0.024
770	-0.025
770	-0.026
771	-0.027
771	-0.03
771	-0.032
772	-0.034
772	-0.035
773	-0.037
773	-0.04
774	-0.043
774	-0.047
775	-0.05
775	-0.054
775	-0.057
776	-0.062
776	-0.066
777	-0.07
777	-0.073
778	-0.078
778	-0.082
778	-0.086
779	-0.089
779	-0.091
780	-0.095
780	-0.1
781	-0.105
781	-0.109
781	-0.114
782	-0.118
782	-0.124
783	-0.128
783	-0.131
784	-0.134
784	-0.137
784	-0.139
785	-0.141
785	-0.143
786	-0.144
786	-0.142
787	-0.138
787	-0.134
788	-0.133
788	-0.134
788	-0.136
789	-0.138
789	-0.138
790	-0.136
790	-0.135
791	-0.136
791	-0.137
791	-0.14
792	-0.134
792	-0.123
793	-0.116
793	-0.112
794	-0.109
794	-0.11
794	-0.113
795	-0.115
795	-0.115
796	-0.115
796	-0.118
797	-0.126
797	-0.138
797	-0.144
798	-0.15
798	-0.154
799	-0.155
799	-0.155
800	-0.155
800	-0.157
801	-0.16
801	-0.161
801	-0.161
802	-0.162
802	-0.163
803	-0.164
803	-0.163
804	-0.162
804	-0.156
804	-0.149
805	-0.145
805	-0.143
806	-0.14
806	-0.139
807	-0.138
807	-0.137
807	-0.136
808	-0.136
808	-0.136
809	-0.14
809	-0.146
810	-0.149
810	-0.151
810	-0.154
811	-0.157
811	-0.157
812	-0.154
812	-0.151
813	-0.151
813	-0.152
813	-0.154
814	-0.155
814	-0.156
815	-0.155
815	-0.152
816	-0.151
816	-0.152
817	-0.157
817	-0.161
817	-0.162
818	-0.161
818	-0.158
819	-0.153
819	-0.15
820	-0.151
820	-0.153
820	-0.154
821	-0.154
821	-0.153
822	-0.152
822	-0.15
823	-0.147
823	-0.147
823	-0.148
824	-0.147
824	-0.142
825	-0.135
825	-0.127
826	-0.119
826	-0.113
826	-0.106
827	-0.1
827	-0.094
828	-0.088
828	-0.084
829	-0.079
829	-0.074
829	-0.07
830	-0.067
830	-0.064
831	-0.059
831	-0.055
832	-0.051
832	-0.047
832	-0.044
833	-0.042
833	-0.04
834	-0.038
834	-0.037
835	-0.036
835	-0.036
835	-0.036
836	-0.037
836	-0.037
837	-0.037
837	-0.036
838	-0.036
838	-0.036
839	-0.036
839	-0.035
839	-0.035
840	-0.034
840	-0.033
841	-0.032
841	-0.031
842	-0.031
842	-0.03
842	-0.029
843	-0.029
843	-0.028
844	-0.027
844	-0.026
845	-0.025
845	-0.025
845	-0.024
846	-0.023
846	-0.022
847	-0.021
847	-0.02
848	-0.018
848	-0.017
848	-0.015
849	-0.014
849	-0.013
850	-0.012
850	-0.011
851	-0.01
851	-0.01
851	-0.009
852	-0.009
852	-0.009
853	-0.009
853	-0.01
854	-0.01
854	-0.01
854	-0.01
855	-0.01
855	-0.009
856	-0.009
856	-0.009
857	-0.009
857	-0.008
857	-0.008
858	-0.007
858	-0.007
859	-0.007
859	-0.006
860	-0.005
860	-0.005
860	-0.004
861	-0.003
861	-0.003
862	-0.003
862	-0.003
863	-0.002
863	-0.002
863	-0.002
864	-0.002
864	-0.002
865	-0.002
865	-0.002
866	-0.002
866	-0.002
866	-0.001
867	-0.001
867	-0
868	-0
868	-0
869	-0
869	-0.001
869	-0.001
870	-0.001
870	-0.002
871	-0.002
871	-0.003
872	-0.004
872	-0.004
872	-0.004
873	-0.004
873	-0.005
874	-0.005
874	-0.005
875	-0.006
875	-0.006
875	-0.007
876	-0.007
876	-0.007
877	-0.007
877	-0.007
878	-0.007
878	-0.007
878	-0.006
879	-0.006
879	-0.005
880	-0.004
880	-0.003
881	-0.002
881	-0.001
881	-0
882	0
882	0.001
883	0.002
883	0.003
884	0.004
884	0.004
884	0.004
885	0.005
885	0.005
886	0.005
886	0.005
887	0.005
887	0.005
887	0.005
888	0.005
888	0.005
889	0.006
889	0.006
890	0.007
890	0.008
890	0.009
891	0.01
891	0.011
892	0.011
892	0.012
893	0.013
893	0.014
893	0.015
894	0.015
894	0.015
895	0.015
895	0.015
895	0.015
896	0.015
896	0.015
897	0.015
897	0.014
898	0.013
898	0.012
898	0.011
899	0.01
899	0.009
900	0.008
900	0.006
901	0.005
901	0.004
901	0.003
902	0.003
902	0.002
903	0.001
903	0.001
904	0.001
904	0.001
904	0.001
905	0.001
905	0.002
906	0.002
906	0.002
907	0.002
907	0.002
907	0.002
908	0.001
908	0.001
909	0.001
909	0.001
910	0
910	0
910	0
911	0
911	0.001
912	0.002
912	0.003
913	0.004
913	0.005
913	0.007
914	0.008
914	0.009
915	0.011
915	0.012
916	0.013
916	0.014
916	0.015
917	0.015
917	0.015
918	0.016
918	0.016
918	0.016
919	0.016
919	0.015
920	0.015
920	0.014
921	0.013
921	0.012
921	0.011
922	0.01
922	0.009
923	0.007
923	0.006
924	0.005
924	0.004
924	0.003
925	0.003
925	0.003
926	0.003
926	0.003
927	0.003
927	0.003
927	0.004
928	0.005
928	0.005
929	0.006
929	0.007
930	0.007
930	0.007
930	0.008
931	0.008
931	0.009
932	0.009
932	0.01
933	0.011
933	0.011
933	0.012
934	0.012
934	0.013
935	0.013
935	0.014
935	0.014
936	0.014
936	0.014
937	0.014
937	0.014
938	0.013
938	0.013
938	0.012
939	0.012
939	0.011
940	0.011
940	0.012
941	0.012
941	0.012
941	0.013
942	0.014
942	0.015
943	0.016
943	0.016
944	0.017
944	0.017
944	0.018
945	0.018
945	0.019
946	0.019
946	0.019
946	0.019
947	0.019
947	0.019
948	0.019
948	0.019
949	0.019
949	0.018
949	0.018
950	0.017
950	0.017
951	0.016
951	0.016
952	0.015
952	0.015
952	0.015
953	0.015
953	0.015
954	0.015
954	0.015
955	0.015
955	0.016
955	0.016
956	0.016
956	0.016
957	0.016
957	0.016
957	0.015
958	0.015
958	0.015
959	0.015
959	0.015
960	0.015
960	0.015
960	0.015
961	0.015
961	0.015
962	0.015
962	0.015
963	0.015
963	0.015
963	0.015
964	0.015
964	0.015
965	0.014
965	0.014
966	0.014
966	0.013
966	0.013
967	0.012
967	0.012
968	0.011
968	0.011
968	0.011
969	0.011
969	0.011
970	0.011
970	0.011
971	0.011
971	0.011
971	0.012
972	0.013
972	0.014
973	0.014
973	0.015
974	0.016
974	0.016
974	0.016
975	0.017
975	0.017
976	0.016
976	0.016
976	0.015
977	0.014
977	0.013
978	0.012
978	0.011
979	0.01
979	0.009
979	0.008
980	0.008
980	0.007
981	0.006
981	0.006
982	0.006
982	0.006
982	0.006
983	0.006
983	0.006
984	0.006
984	0.006
984	0.006
985	0.006
985	0.006
986	0.005
986	0.004
987	0.004
987	0.003
987	0.002
988	0.002
988	0.002
989	0.002
989	0.002
990	0.003
990	0.003
990	0.004
991	0.005
991	0.006
992	0.007
992	0.007
992	0.008
993	0.008
993	0.009
994	0.008
994	0.008
995	0.008
995	0.008
995	0.007
996	0.007
996	0.006
997	0.005
997	0.004
997	0.004
998	0.003
998	0.003
999	0.003
999	0.002
1000	0.002
1000	0.002
1000	0.002
1001	0.002
1001	0.003
1002	0.003
1002	0.003
1003	0.003
1003	0.003
1003	0.003
1004	0.003
1004	0.002
1005	0.002
1005	0.002
1005	0.001
1006	0.001
1006	0
1007	0
1007	0
1008	0
1008	0.001
1008	0.001
1009	0.001
1009	0.002
1010	0.003
1010	0.004
1010	0.005
1011	0.006
1011	0.007
1012	0.008
1012	0.008
1013	0.009
1013	0.009
1013	0.01
1014	0.01
1014	0.009
1015	0.009
1015	0.009
1016	0.009
1016	0.009
1016	0.009
1017	0.008
1017	0.008
1018	0.009
1018	0.009
1018	0.01
1019	0.01
1019	0.01
1020	0.011
1020	0.011
1021	0.011
1021	0.011
1021	0.011
1022	0.011
1022	0.011
1023	0.011
1023	0.011
1023	0.011
1024	0.01
1024	0.01
1025	0.01
1025	0.01
1026	0.011
1026	0.011
1026	0.011
1027	0.012
1027	0.012
1028	0.012
1028	0.013
1028	0.013
1029	0.013
1029	0.013
1030	0.012
1030	0.012
1031	0.011
1031	0.011
1031	0.01
1032	0.009
1032	0.009
1033	0.008
1033	0.007
1033	0.007
1034	0.006
1034	0.006
1035	0.005
1035	0.005
1036	0.005
1036	0.006
1036	0.006
1037	0.006
1037	0.007
1038	0.007
1038	0.008
1039	0.008
1039	0.009
1039	0.01
1040	0.01
1040	0.011
1041	0.012
1041	0.012
1041	0.013
1042	0.013
1042	0.014
1043	0.015
1043	0.016
1044	0.017
1044	0.018
1044	0.019
1045	0.019
1045	0.021
1046	0.022
1046	0.023
1046	0.025
1047	0.026
1047	0.028
1048	0.03
1048	0.031
1049	0.032
1049	0.033
1049	0.034
1050	0.034
1050	0.035
1051	0.035
1051	0.034
1051	0.034
1052	0.034
1052	0.034
1053	0.033
1053	0.032
1053	0.032
1054	0.031
1054	0.031
1055	0.031
1055	0.03
1056	0.03
1056	0.029
1056	0.028
1057	0.027
1057	0.027
1058	0.027
1058	0.027
1058	0.027
1059	0.027
1059	0.027
1060	0.028
1060	0.028
1061	0.029
1061	0.03
1061	0.031
1062	0.031
1062	0.032
1063	0.033
1063	0.033
1063	0.035
1064	0.036
1064	0.038
1065	0.04
1065	0.041
1066	0.043
1066	0.046
1066	0.049
1067	0.051
1067	0.053
1068	0.056
1068	0.057
1068	0.059
1069	0.06
1069	0.061
1070	0.062
1070	0.063
1071	0.064
1071	0.065
1071	0.065
1072	0.066
1072	0.067
1073	0.068
1073	0.07
1073	0.071
1074	0.072
1074	0.074
1075	0.074
1075	0.075
1076	0.075
1076	0.077
1076	0.077
1077	0.078
1077	0.08
1078	0.081
1078	0.083
1078	0.085
1079	0.087
1079	0.09
1080	0.091
1080	0.094
1080	0.097
1081	0.099
1081	0.102
1082	0.104
1082	0.107
1083	0.109
1083	0.112
1083	0.115
1084	0.118
1084	0.122
1085	0.125
1085	0.129
1085	0.133
1086	0.136
1086	0.138
1087	0.142
1087	0.147
1088	0.15
1088	0.154
1088	0.158
1089	0.163
1089	0.168
1090	0.173
1090	0.18
1090	0.187
1091	0.195
1091	0.204
1092	0.213
1092	0.224
1092	0.234
1093	0.244
1093	0.257
1094	0.269
1094	0.283
1095	0.295
1095	0.312
1095	0.331
1096	0.351
1096	0.371
1097	0.396
1097	0.419
1097	0.448
1098	0.478
1098	0.517
1099	0.559
1099	0.609
1100	0.666
1100	0.738
1100	0.827
1101	0.954
1101	1.144
1102	1.563
1102	-0
1102	-0
1103	-0
1103	-0
1104	-0
1104	-0
1104	-0
1105	-0
1105	-0
1106	-0
1106	-0
1107	-0
1107	-0
1107	-0
1108	-0
1108	-0
1109	-0
1109	-0
1109	-0
1110	-0
1110	-0
1111	-0
1111	-0
