Data from 15c-2-4a_Absorbance__3599__03599.txt Node

Date: Thu Jan 25 12:04:08 CET 2024
User: Marek
Spectrometer: MAYP115816
Trigger mode: 0
Integration Time (sec): 2.000000E-1
Scans to average: 10
Electric dark correction enabled: true
Nonlinearity correction enabled: true
Boxcar width: 5
XAxis mode: Wavelengths
Number of Pixels in Spectrum: 2068
>>>>>Begin Spectral Data<<<<<
199	-2.195
199	-2.025
200	-1.871
200	-1.748
201	-1.67
201	-1.613
202	-1.531
202	-1.469
203	-1.416
203	-1.37
204	-1.343
204	-1.315
205	-1.294
205	-1.283
205	-1.277
206	-1.272
206	-1.269
207	-1.269
207	-1.265
208	-1.26
208	-1.257
209	-1.252
209	-1.249
210	-1.246
210	-1.244
211	-1.242
211	-1.241
212	-1.237
212	-1.235
213	-1.233
213	-1.233
213	-1.233
214	-1.232
214	-1.231
215	-1.229
215	-1.228
216	-1.225
216	-1.224
217	-1.222
217	-1.219
218	-1.217
218	-1.215
219	-1.212
219	-1.21
220	-1.209
220	-1.205
221	-1.202
221	-1.2
221	-1.196
222	-1.193
222	-1.192
223	-1.187
223	-1.181
224	-1.173
224	-1.165
225	-1.156
225	-1.147
226	-1.136
226	-1.124
227	-1.109
227	-1.096
228	-1.075
228	-1.056
229	-1.034
229	-1.01
229	-0.983
230	-0.953
230	-0.922
231	-0.886
231	-0.846
232	-0.804
232	-0.758
233	-0.711
233	-0.661
234	-0.612
234	-0.56
235	-0.509
235	-0.458
236	-0.407
236	-0.358
236	-0.31
237	-0.263
237	-0.219
238	-0.177
238	-0.137
239	-0.098
239	-0.062
240	-0.028
240	0.004
241	0.034
241	0.063
242	0.089
242	0.113
243	0.136
243	0.157
243	0.177
244	0.195
244	0.212
245	0.227
245	0.241
246	0.255
246	0.267
247	0.279
247	0.29
248	0.3
248	0.309
249	0.318
249	0.326
250	0.333
250	0.341
250	0.348
251	0.354
251	0.36
252	0.366
252	0.371
253	0.377
253	0.381
254	0.386
254	0.39
255	0.394
255	0.398
256	0.401
256	0.404
257	0.407
257	0.41
258	0.412
258	0.414
258	0.416
259	0.418
259	0.419
260	0.421
260	0.422
261	0.423
261	0.424
262	0.425
262	0.425
263	0.426
263	0.427
264	0.427
264	0.427
265	0.428
265	0.428
265	0.427
266	0.427
266	0.427
267	0.426
267	0.426
268	0.425
268	0.424
269	0.424
269	0.423
270	0.421
270	0.42
271	0.419
271	0.418
272	0.417
272	0.415
272	0.414
273	0.413
273	0.411
274	0.41
274	0.408
275	0.407
275	0.405
276	0.403
276	0.402
277	0.4
277	0.397
278	0.395
278	0.393
278	0.39
279	0.389
279	0.387
280	0.386
280	0.384
281	0.383
281	0.382
282	0.381
282	0.38
283	0.379
283	0.378
284	0.377
284	0.376
285	0.375
285	0.373
285	0.372
286	0.37
286	0.369
287	0.367
287	0.366
288	0.364
288	0.363
289	0.361
289	0.36
290	0.359
290	0.358
291	0.356
291	0.355
292	0.354
292	0.353
292	0.352
293	0.351
293	0.35
294	0.349
294	0.348
295	0.347
295	0.346
296	0.345
296	0.344
297	0.343
297	0.342
298	0.341
298	0.34
298	0.339
299	0.338
299	0.337
300	0.336
300	0.335
301	0.334
301	0.333
302	0.332
302	0.331
303	0.33
303	0.33
304	0.329
304	0.328
305	0.327
305	0.326
305	0.325
306	0.324
306	0.324
307	0.323
307	0.322
308	0.321
308	0.32
309	0.319
309	0.318
310	0.317
310	0.316
311	0.315
311	0.314
311	0.313
312	0.312
312	0.311
313	0.31
313	0.309
314	0.308
314	0.307
315	0.306
315	0.305
316	0.304
316	0.303
317	0.302
317	0.301
318	0.3
318	0.299
318	0.298
319	0.297
319	0.296
320	0.295
320	0.294
321	0.293
321	0.291
322	0.29
322	0.289
323	0.288
323	0.287
324	0.286
324	0.285
324	0.284
325	0.283
325	0.282
326	0.281
326	0.281
327	0.28
327	0.279
328	0.278
328	0.277
329	0.276
329	0.275
330	0.274
330	0.273
330	0.272
331	0.271
331	0.27
332	0.269
332	0.268
333	0.267
333	0.267
334	0.266
334	0.265
335	0.264
335	0.263
336	0.262
336	0.262
336	0.261
337	0.26
337	0.259
338	0.258
338	0.257
339	0.257
339	0.256
340	0.255
340	0.255
341	0.254
341	0.253
342	0.252
342	0.251
342	0.251
343	0.25
343	0.249
344	0.248
344	0.247
345	0.247
345	0.246
346	0.245
346	0.244
347	0.244
347	0.243
348	0.242
348	0.241
348	0.24
349	0.24
349	0.239
350	0.238
350	0.237
351	0.236
351	0.235
352	0.234
352	0.233
353	0.233
353	0.232
354	0.23
354	0.229
354	0.228
355	0.227
355	0.226
356	0.225
356	0.224
357	0.223
357	0.223
358	0.223
358	0.223
359	0.224
359	0.225
360	0.226
360	0.226
360	0.227
361	0.227
361	0.228
362	0.228
362	0.228
363	0.228
363	0.228
364	0.227
364	0.226
365	0.226
365	0.225
366	0.225
366	0.224
366	0.223
367	0.223
367	0.222
368	0.222
368	0.221
369	0.221
369	0.221
370	0.22
370	0.219
371	0.219
371	0.218
372	0.218
372	0.217
372	0.217
373	0.216
373	0.216
374	0.216
374	0.216
375	0.216
375	0.215
376	0.215
376	0.215
377	0.215
377	0.216
378	0.216
378	0.216
378	0.216
379	0.216
379	0.216
380	0.216
380	0.216
381	0.216
381	0.216
382	0.215
382	0.215
383	0.214
383	0.214
383	0.213
384	0.212
384	0.212
385	0.211
385	0.211
386	0.211
386	0.211
387	0.211
387	0.211
388	0.211
388	0.21
389	0.21
389	0.21
389	0.21
390	0.21
390	0.21
391	0.21
391	0.21
392	0.21
392	0.21
393	0.21
393	0.21
394	0.21
394	0.209
394	0.209
395	0.209
395	0.208
396	0.208
396	0.208
397	0.208
397	0.208
398	0.208
398	0.207
399	0.207
399	0.207
400	0.207
400	0.206
400	0.206
401	0.205
401	0.204
402	0.203
402	0.202
403	0.201
403	0.201
404	0.201
404	0.201
405	0.2
405	0.2
405	0.199
406	0.199
406	0.199
407	0.199
407	0.198
408	0.198
408	0.197
409	0.197
409	0.196
410	0.196
410	0.196
411	0.196
411	0.196
411	0.196
412	0.195
412	0.195
413	0.194
413	0.194
414	0.193
414	0.193
415	0.193
415	0.192
416	0.192
416	0.191
416	0.191
417	0.19
417	0.19
418	0.19
418	0.19
419	0.19
419	0.191
420	0.191
420	0.192
421	0.192
421	0.192
421	0.193
422	0.193
422	0.193
423	0.193
423	0.192
424	0.191
424	0.191
425	0.19
425	0.189
426	0.188
426	0.187
427	0.187
427	0.187
427	0.188
428	0.188
428	0.189
429	0.19
429	0.19
430	0.19
430	0.19
431	0.19
431	0.19
432	0.189
432	0.188
432	0.187
433	0.186
433	0.185
434	0.184
434	0.183
435	0.183
435	0.183
436	0.183
436	0.183
437	0.183
437	0.183
437	0.183
438	0.183
438	0.183
439	0.182
439	0.182
440	0.181
440	0.181
441	0.18
441	0.18
442	0.181
442	0.181
442	0.181
443	0.181
443	0.182
444	0.182
444	0.182
445	0.182
445	0.183
446	0.183
446	0.183
447	0.183
447	0.182
447	0.182
448	0.182
448	0.182
449	0.182
449	0.181
450	0.181
450	0.18
451	0.18
451	0.179
452	0.179
452	0.178
452	0.177
453	0.177
453	0.176
454	0.176
454	0.175
455	0.175
455	0.175
456	0.175
456	0.174
457	0.174
457	0.175
458	0.175
458	0.175
458	0.175
459	0.175
459	0.175
460	0.174
460	0.173
461	0.173
461	0.172
462	0.172
462	0.172
463	0.173
463	0.173
463	0.174
464	0.174
464	0.175
465	0.175
465	0.175
466	0.175
466	0.175
467	0.175
467	0.175
467	0.174
468	0.172
468	0.17
469	0.168
469	0.167
470	0.166
470	0.165
471	0.165
471	0.164
472	0.164
472	0.164
472	0.165
473	0.166
473	0.168
474	0.169
474	0.17
475	0.171
475	0.172
476	0.173
476	0.173
477	0.173
477	0.174
477	0.174
478	0.175
478	0.175
479	0.176
479	0.177
480	0.178
480	0.179
481	0.18
481	0.181
482	0.182
482	0.183
482	0.185
483	0.187
483	0.19
484	0.194
484	0.197
485	0.199
485	0.201
486	0.202
486	0.203
487	0.204
487	0.205
487	0.205
488	0.204
488	0.202
489	0.2
489	0.198
490	0.196
490	0.195
491	0.194
491	0.195
492	0.196
492	0.196
492	0.197
493	0.198
493	0.199
494	0.201
494	0.204
495	0.207
495	0.208
496	0.21
496	0.211
496	0.212
497	0.213
497	0.214
498	0.214
498	0.215
499	0.215
499	0.216
500	0.216
500	0.218
501	0.219
501	0.221
501	0.223
502	0.225
502	0.227
503	0.228
503	0.23
504	0.231
504	0.232
505	0.233
505	0.233
506	0.234
506	0.234
506	0.234
507	0.235
507	0.235
508	0.236
508	0.236
509	0.236
509	0.237
510	0.237
510	0.237
511	0.238
511	0.239
511	0.239
512	0.239
512	0.239
513	0.238
513	0.236
514	0.235
514	0.235
515	0.235
515	0.235
515	0.235
516	0.234
516	0.233
517	0.233
517	0.232
518	0.231
518	0.23
519	0.228
519	0.225
520	0.221
520	0.218
520	0.215
521	0.212
521	0.21
522	0.209
522	0.209
523	0.21
523	0.213
524	0.217
524	0.22
524	0.224
525	0.228
525	0.231
526	0.234
526	0.236
527	0.239
527	0.241
528	0.242
528	0.243
529	0.243
529	0.243
529	0.242
530	0.242
530	0.242
531	0.241
531	0.241
532	0.241
532	0.24
533	0.24
533	0.24
533	0.24
534	0.24
534	0.239
535	0.238
535	0.237
536	0.236
536	0.235
537	0.234
537	0.234
538	0.232
538	0.231
538	0.229
539	0.228
539	0.227
540	0.226
540	0.224
541	0.222
541	0.22
542	0.218
542	0.216
542	0.214
543	0.213
543	0.211
544	0.209
544	0.208
545	0.207
545	0.206
546	0.206
546	0.205
547	0.204
547	0.201
547	0.198
548	0.196
548	0.193
549	0.191
549	0.189
550	0.186
550	0.184
551	0.181
551	0.178
551	0.175
552	0.174
552	0.172
553	0.171
553	0.17
554	0.169
554	0.167
555	0.165
555	0.162
556	0.158
556	0.155
556	0.151
557	0.148
557	0.145
558	0.142
558	0.139
559	0.137
559	0.136
560	0.135
560	0.133
560	0.133
561	0.133
561	0.132
562	0.132
562	0.131
563	0.129
563	0.127
564	0.124
564	0.121
564	0.118
565	0.115
565	0.113
566	0.111
566	0.11
567	0.109
567	0.109
568	0.11
568	0.111
568	0.113
569	0.115
569	0.117
570	0.118
570	0.119
571	0.119
571	0.12
572	0.12
572	0.12
573	0.12
573	0.119
573	0.118
574	0.117
574	0.116
575	0.115
575	0.116
576	0.117
576	0.117
577	0.116
577	0.114
577	0.113
578	0.112
578	0.111
579	0.111
579	0.112
580	0.112
580	0.11
581	0.107
581	0.104
581	0.103
582	0.102
582	0.102
583	0.102
583	0.102
584	0.1
584	0.096
585	0.094
585	0.093
585	0.092
586	0.092
586	0.091
587	0.089
587	0.087
588	0.084
588	0.081
589	0.079
589	0.077
590	0.075
590	0.074
590	0.073
591	0.073
591	0.073
592	0.073
592	0.072
593	0.071
593	0.071
594	0.071
594	0.071
594	0.07
595	0.07
595	0.069
596	0.068
596	0.068
597	0.07
597	0.071
598	0.072
598	0.073
598	0.074
599	0.075
599	0.075
600	0.074
600	0.073
601	0.072
601	0.07
602	0.068
602	0.067
602	0.065
603	0.063
603	0.063
604	0.063
604	0.064
605	0.065
605	0.066
606	0.067
606	0.067
606	0.066
607	0.066
607	0.066
608	0.065
608	0.064
609	0.063
609	0.062
610	0.061
610	0.059
610	0.059
611	0.059
611	0.059
612	0.06
612	0.062
613	0.063
613	0.064
614	0.065
614	0.065
614	0.065
615	0.065
615	0.065
616	0.064
616	0.064
617	0.063
617	0.062
618	0.06
618	0.059
618	0.058
619	0.057
619	0.057
620	0.059
620	0.06
621	0.06
621	0.06
622	0.061
622	0.062
622	0.062
623	0.062
623	0.063
624	0.064
624	0.064
625	0.064
625	0.064
626	0.065
626	0.065
626	0.065
627	0.065
627	0.065
628	0.066
628	0.066
629	0.067
629	0.067
630	0.067
630	0.066
630	0.067
631	0.067
631	0.067
632	0.068
632	0.068
633	0.069
633	0.069
634	0.07
634	0.072
634	0.074
635	0.076
635	0.077
636	0.079
636	0.081
637	0.082
637	0.083
638	0.084
638	0.085
638	0.086
639	0.087
639	0.088
640	0.089
640	0.09
641	0.092
641	0.094
642	0.097
642	0.099
642	0.102
643	0.105
643	0.107
644	0.11
644	0.112
645	0.115
645	0.118
646	0.121
646	0.124
646	0.127
647	0.131
647	0.135
648	0.138
648	0.141
649	0.144
649	0.147
650	0.15
650	0.153
650	0.156
651	0.159
651	0.161
652	0.163
652	0.165
653	0.168
653	0.176
653	0.193
654	0.156
654	0.129
655	0.136
655	0.139
656	0.141
656	0.144
657	0.147
657	0.149
657	0.151
658	0.149
658	0.137
659	0.172
659	0.221
660	0.221
660	0.223
661	0.225
661	0.227
661	0.229
662	0.233
662	0.236
663	0.24
663	0.243
664	0.247
664	0.25
665	0.253
665	0.256
665	0.259
666	0.263
666	0.265
667	0.268
667	0.271
668	0.274
668	0.277
669	0.28
669	0.283
669	0.287
670	0.292
670	0.295
671	0.299
671	0.301
672	0.303
672	0.305
672	0.307
673	0.309
673	0.311
674	0.312
674	0.313
675	0.313
675	0.314
676	0.315
676	0.317
676	0.318
677	0.321
677	0.323
678	0.325
678	0.327
679	0.328
679	0.329
680	0.331
680	0.333
680	0.333
681	0.334
681	0.335
682	0.335
682	0.337
683	0.338
683	0.341
684	0.343
684	0.344
684	0.345
685	0.345
685	0.345
686	0.346
686	0.346
687	0.346
687	0.345
687	0.344
688	0.343
688	0.341
689	0.341
689	0.342
690	0.343
690	0.343
691	0.343
691	0.344
691	0.344
692	0.344
692	0.343
693	0.343
693	0.343
694	0.342
694	0.341
695	0.34
695	0.34
695	0.341
696	0.34
696	0.339
697	0.338
697	0.336
698	0.335
698	0.333
698	0.33
699	0.328
699	0.325
700	0.321
700	0.318
701	0.316
701	0.314
702	0.312
702	0.311
702	0.309
703	0.307
703	0.305
704	0.303
704	0.302
705	0.302
705	0.301
705	0.299
706	0.298
706	0.297
707	0.296
707	0.294
708	0.292
708	0.29
709	0.289
709	0.287
709	0.284
710	0.279
710	0.276
711	0.273
711	0.27
712	0.267
712	0.264
713	0.262
713	0.26
713	0.257
714	0.254
714	0.252
715	0.249
715	0.247
716	0.244
716	0.242
716	0.239
717	0.237
717	0.234
718	0.231
718	0.228
719	0.225
719	0.223
720	0.22
720	0.218
720	0.214
721	0.21
721	0.206
722	0.202
722	0.198
723	0.195
723	0.192
723	0.189
724	0.186
724	0.183
725	0.18
725	0.177
726	0.175
726	0.173
727	0.171
727	0.169
727	0.167
728	0.164
728	0.162
729	0.161
729	0.16
730	0.158
730	0.156
730	0.154
731	0.153
731	0.151
732	0.15
732	0.148
733	0.145
733	0.143
734	0.139
734	0.136
734	0.132
735	0.129
735	0.126
736	0.122
736	0.119
737	0.115
737	0.113
737	0.11
738	0.107
738	0.104
739	0.101
739	0.099
740	0.096
740	0.094
741	0.092
741	0.089
741	0.086
742	0.081
742	0.077
743	0.074
743	0.071
744	0.068
744	0.065
744	0.062
745	0.06
745	0.057
746	0.055
746	0.053
747	0.052
747	0.051
748	0.051
748	0.05
748	0.049
749	0.048
749	0.047
750	0.046
750	0.045
751	0.044
751	0.044
751	0.044
752	0.043
752	0.042
753	0.04
753	0.039
754	0.038
754	0.037
754	0.036
755	0.036
755	0.036
756	0.036
756	0.033
757	0.031
757	0.03
758	0.029
758	0.027
758	0.026
759	0.025
759	0.022
760	0.018
760	0.015
761	0.012
761	0.01
761	0.009
762	0.007
762	0.005
763	0.005
763	0.003
764	0
764	-0.002
764	-0.003
765	-0.005
765	-0.007
766	-0.009
766	-0.009
767	-0.01
767	-0.012
768	-0.015
768	-0.018
768	-0.019
769	-0.02
769	-0.021
770	-0.022
770	-0.023
771	-0.025
771	-0.028
771	-0.03
772	-0.032
772	-0.034
773	-0.036
773	-0.038
774	-0.041
774	-0.045
775	-0.047
775	-0.051
775	-0.054
776	-0.058
776	-0.061
777	-0.065
777	-0.069
778	-0.073
778	-0.077
778	-0.081
779	-0.084
779	-0.086
780	-0.09
780	-0.095
781	-0.1
781	-0.105
781	-0.11
782	-0.115
782	-0.121
783	-0.126
783	-0.129
784	-0.133
784	-0.136
784	-0.138
785	-0.141
785	-0.143
786	-0.144
786	-0.142
787	-0.138
787	-0.134
788	-0.133
788	-0.134
788	-0.136
789	-0.138
789	-0.138
790	-0.136
790	-0.134
791	-0.135
791	-0.137
791	-0.139
792	-0.134
792	-0.123
793	-0.116
793	-0.111
794	-0.109
794	-0.11
794	-0.113
795	-0.115
795	-0.115
796	-0.115
796	-0.118
797	-0.126
797	-0.137
797	-0.144
798	-0.15
798	-0.154
799	-0.155
799	-0.155
800	-0.155
800	-0.157
801	-0.16
801	-0.161
801	-0.161
802	-0.162
802	-0.163
803	-0.163
803	-0.163
804	-0.162
804	-0.156
804	-0.149
805	-0.145
805	-0.143
806	-0.14
806	-0.139
807	-0.137
807	-0.136
807	-0.136
808	-0.136
808	-0.136
809	-0.14
809	-0.145
810	-0.148
810	-0.151
810	-0.154
811	-0.156
811	-0.157
812	-0.153
812	-0.15
813	-0.151
813	-0.152
813	-0.154
814	-0.155
814	-0.156
815	-0.154
815	-0.152
816	-0.151
816	-0.152
817	-0.157
817	-0.161
817	-0.162
818	-0.161
818	-0.158
819	-0.153
819	-0.15
820	-0.151
820	-0.153
820	-0.154
821	-0.154
821	-0.153
822	-0.152
822	-0.15
823	-0.148
823	-0.148
823	-0.149
824	-0.148
824	-0.143
825	-0.136
825	-0.128
826	-0.121
826	-0.114
826	-0.107
827	-0.1
827	-0.094
828	-0.088
828	-0.084
829	-0.079
829	-0.074
829	-0.07
830	-0.067
830	-0.064
831	-0.059
831	-0.055
832	-0.052
832	-0.049
832	-0.045
833	-0.043
833	-0.041
834	-0.039
834	-0.038
835	-0.037
835	-0.037
835	-0.037
836	-0.037
836	-0.037
837	-0.037
837	-0.037
838	-0.037
838	-0.036
839	-0.036
839	-0.036
839	-0.036
840	-0.036
840	-0.036
841	-0.035
841	-0.035
842	-0.034
842	-0.033
842	-0.033
843	-0.032
843	-0.031
844	-0.029
844	-0.028
845	-0.027
845	-0.026
845	-0.025
846	-0.023
846	-0.022
847	-0.021
847	-0.02
848	-0.019
848	-0.018
848	-0.016
849	-0.015
849	-0.014
850	-0.013
850	-0.013
851	-0.012
851	-0.012
851	-0.011
852	-0.011
852	-0.011
853	-0.011
853	-0.011
854	-0.011
854	-0.011
854	-0.011
855	-0.011
855	-0.011
856	-0.011
856	-0.011
857	-0.01
857	-0.01
857	-0.009
858	-0.009
858	-0.008
859	-0.008
859	-0.007
860	-0.006
860	-0.005
860	-0.005
861	-0.004
861	-0.004
862	-0.003
862	-0.003
863	-0.003
863	-0.002
863	-0.002
864	-0.002
864	-0.001
865	-0.001
865	-0.001
866	-0.001
866	-0.001
866	-0
867	-0
867	-0
868	-0
868	0
869	-0
869	-0
869	-0.001
870	-0.001
870	-0.001
871	-0.001
871	-0.001
872	-0.001
872	-0.001
872	-0.002
873	-0.002
873	-0.002
874	-0.002
874	-0.003
875	-0.004
875	-0.005
875	-0.006
876	-0.006
876	-0.007
877	-0.007
877	-0.007
878	-0.008
878	-0.008
878	-0.007
879	-0.007
879	-0.006
880	-0.005
880	-0.004
881	-0.003
881	-0.002
881	-0.001
882	0
882	0.001
883	0.002
883	0.004
884	0.005
884	0.006
884	0.006
885	0.007
885	0.007
886	0.008
886	0.008
887	0.008
887	0.009
887	0.009
888	0.009
888	0.009
889	0.009
889	0.01
890	0.011
890	0.011
890	0.012
891	0.012
891	0.012
892	0.013
892	0.013
893	0.013
893	0.013
893	0.013
894	0.013
894	0.013
895	0.013
895	0.013
895	0.013
896	0.012
896	0.012
897	0.012
897	0.012
898	0.011
898	0.011
898	0.01
899	0.01
899	0.009
900	0.009
900	0.008
901	0.007
901	0.007
901	0.007
902	0.006
902	0.006
903	0.006
903	0.006
904	0.005
904	0.005
904	0.005
905	0.006
905	0.006
906	0.006
906	0.007
907	0.006
907	0.006
907	0.006
908	0.005
908	0.004
909	0.003
909	0.002
910	0.001
910	0.001
910	-0
911	-0.001
911	-0.001
912	-0.001
912	-0.001
913	0
913	0.001
913	0.002
914	0.003
914	0.004
915	0.005
915	0.006
916	0.007
916	0.008
916	0.009
917	0.01
917	0.01
918	0.01
918	0.011
918	0.011
919	0.011
919	0.011
920	0.011
920	0.011
921	0.011
921	0.01
921	0.01
922	0.01
922	0.009
923	0.008
923	0.008
924	0.007
924	0.007
924	0.006
925	0.006
925	0.006
926	0.006
926	0.006
927	0.005
927	0.005
927	0.006
928	0.006
928	0.006
929	0.007
929	0.008
930	0.008
930	0.009
930	0.009
931	0.01
931	0.011
932	0.012
932	0.012
933	0.013
933	0.013
933	0.014
934	0.014
934	0.014
935	0.014
935	0.014
935	0.014
936	0.014
936	0.014
937	0.013
937	0.013
938	0.013
938	0.013
938	0.013
939	0.014
939	0.014
940	0.015
940	0.016
941	0.017
941	0.018
941	0.019
942	0.02
942	0.021
943	0.022
943	0.023
944	0.024
944	0.025
944	0.026
945	0.027
945	0.027
946	0.028
946	0.028
946	0.028
947	0.028
947	0.028
948	0.028
948	0.027
949	0.026
949	0.025
949	0.024
950	0.024
950	0.023
951	0.022
951	0.021
952	0.02
952	0.02
952	0.02
953	0.019
953	0.019
954	0.019
954	0.019
955	0.019
955	0.019
955	0.019
956	0.02
956	0.02
957	0.021
957	0.021
957	0.021
958	0.021
958	0.022
959	0.022
959	0.022
960	0.022
960	0.022
960	0.022
961	0.022
961	0.021
962	0.021
962	0.021
963	0.02
963	0.02
963	0.019
964	0.018
964	0.017
965	0.017
965	0.016
966	0.015
966	0.015
966	0.014
967	0.014
967	0.013
968	0.013
968	0.012
968	0.012
969	0.012
969	0.012
970	0.012
970	0.012
971	0.012
971	0.012
971	0.013
972	0.013
972	0.014
973	0.015
973	0.015
974	0.016
974	0.016
974	0.016
975	0.017
975	0.017
976	0.017
976	0.016
976	0.016
977	0.015
977	0.014
978	0.013
978	0.012
979	0.011
979	0.01
979	0.009
980	0.009
980	0.008
981	0.007
981	0.006
982	0.006
982	0.005
982	0.005
983	0.005
983	0.005
984	0.005
984	0.006
984	0.006
985	0.006
985	0.006
986	0.005
986	0.005
987	0.004
987	0.004
987	0.004
988	0.004
988	0.004
989	0.004
989	0.004
990	0.004
990	0.004
990	0.005
991	0.006
991	0.007
992	0.008
992	0.009
992	0.009
993	0.01
993	0.01
994	0.011
994	0.011
995	0.011
995	0.011
995	0.01
996	0.01
996	0.009
997	0.008
997	0.008
997	0.007
998	0.007
998	0.006
999	0.006
999	0.006
1000	0.006
1000	0.006
1000	0.006
1001	0.006
1001	0.006
1002	0.006
1002	0.006
1003	0.005
1003	0.005
1003	0.004
1004	0.004
1004	0.003
1005	0.003
1005	0.002
1005	0.002
1006	0.001
1006	0.001
1007	0.001
1007	0.001
1008	0.001
1008	0.002
1008	0.003
1009	0.004
1009	0.005
1010	0.006
1010	0.007
1010	0.008
1011	0.009
1011	0.01
1012	0.011
1012	0.011
1013	0.011
1013	0.011
1013	0.011
1014	0.011
1014	0.01
1015	0.01
1015	0.009
1016	0.009
1016	0.008
1016	0.008
1017	0.008
1017	0.008
1018	0.008
1018	0.008
1018	0.008
1019	0.009
1019	0.009
1020	0.009
1020	0.009
1021	0.009
1021	0.01
1021	0.01
1022	0.01
1022	0.01
1023	0.01
1023	0.01
1023	0.01
1024	0.01
1024	0.01
1025	0.011
1025	0.011
1026	0.011
1026	0.012
1026	0.012
1027	0.012
1027	0.013
1028	0.013
1028	0.013
1028	0.014
1029	0.013
1029	0.013
1030	0.013
1030	0.012
1031	0.012
1031	0.011
1031	0.01
1032	0.009
1032	0.009
1033	0.008
1033	0.007
1033	0.006
1034	0.006
1034	0.005
1035	0.004
1035	0.004
1036	0.004
1036	0.004
1036	0.005
1037	0.005
1037	0.006
1038	0.007
1038	0.008
1039	0.009
1039	0.01
1039	0.011
1040	0.012
1040	0.012
1041	0.013
1041	0.014
1041	0.015
1042	0.015
1042	0.016
1043	0.017
1043	0.018
1044	0.019
1044	0.02
1044	0.021
1045	0.022
1045	0.024
1046	0.025
1046	0.026
1046	0.028
1047	0.03
1047	0.032
1048	0.034
1048	0.035
1049	0.035
1049	0.036
1049	0.037
1050	0.037
1050	0.037
1051	0.036
1051	0.036
1051	0.036
1052	0.036
1052	0.035
1053	0.034
1053	0.034
1053	0.033
1054	0.033
1054	0.033
1055	0.032
1055	0.032
1056	0.031
1056	0.03
1056	0.029
1057	0.028
1057	0.027
1058	0.027
1058	0.027
1058	0.027
1059	0.026
1059	0.027
1060	0.027
1060	0.027
1061	0.028
1061	0.029
1061	0.03
1062	0.03
1062	0.031
1063	0.032
1063	0.032
1063	0.034
1064	0.035
1064	0.037
1065	0.039
1065	0.041
1066	0.043
1066	0.045
1066	0.048
1067	0.05
1067	0.052
1068	0.055
1068	0.056
1068	0.058
1069	0.059
1069	0.06
1070	0.061
1070	0.062
1071	0.063
1071	0.064
1071	0.065
1072	0.066
1072	0.067
1073	0.069
1073	0.07
1073	0.071
1074	0.072
1074	0.073
1075	0.073
1075	0.074
1076	0.074
1076	0.074
1076	0.074
1077	0.075
1077	0.076
1078	0.077
1078	0.079
1078	0.081
1079	0.083
1079	0.086
1080	0.088
1080	0.091
1080	0.093
1081	0.097
1081	0.1
1082	0.103
1082	0.105
1083	0.107
1083	0.111
1083	0.114
1084	0.118
1084	0.122
1085	0.126
1085	0.13
1085	0.134
1086	0.137
1086	0.141
1087	0.145
1087	0.15
1088	0.152
1088	0.156
1088	0.161
1089	0.165
1089	0.17
1090	0.177
1090	0.184
1090	0.192
1091	0.2
1091	0.21
1092	0.22
1092	0.232
1092	0.243
1093	0.255
1093	0.269
1094	0.282
1094	0.295
1095	0.309
1095	0.325
1095	0.345
1096	0.364
1096	0.386
1097	0.41
1097	0.435
1097	0.466
1098	0.497
1098	0.534
1099	0.579
1099	0.633
1100	0.699
1100	0.777
1100	0.878
1101	1.026
1101	1.265
1102	2.064
1102	-0
1102	-0
1103	-0
1103	-0
1104	-0
1104	-0
1104	-0
1105	-0
1105	-0
1106	-0
1106	-0
1107	-0
1107	-0
1107	-0
1108	-0
1108	-0
1109	-0
1109	-0
1109	-0
1110	-0
1110	-0
1111	-0
1111	-0
