Data from 15c-2-4a_Absorbance__1513__01513.txt Node

Date: Thu Jan 25 10:54:36 CET 2024
User: Marek
Spectrometer: MAYP115816
Trigger mode: 0
Integration Time (sec): 2.000000E-1
Scans to average: 10
Electric dark correction enabled: true
Nonlinearity correction enabled: true
Boxcar width: 5
XAxis mode: Wavelengths
Number of Pixels in Spectrum: 2068
>>>>>Begin Spectral Data<<<<<
199	-2.19
199	-2.019
200	-1.866
200	-1.743
201	-1.665
201	-1.608
202	-1.525
202	-1.463
203	-1.411
203	-1.364
204	-1.338
204	-1.309
205	-1.288
205	-1.276
205	-1.271
206	-1.266
206	-1.262
207	-1.262
207	-1.259
208	-1.254
208	-1.251
209	-1.246
209	-1.243
210	-1.241
210	-1.238
211	-1.237
211	-1.235
212	-1.231
212	-1.229
213	-1.227
213	-1.227
213	-1.227
214	-1.226
214	-1.225
215	-1.223
215	-1.222
216	-1.22
216	-1.218
217	-1.216
217	-1.213
218	-1.212
218	-1.208
219	-1.206
219	-1.203
220	-1.203
220	-1.198
221	-1.195
221	-1.193
221	-1.189
222	-1.186
222	-1.185
223	-1.181
223	-1.175
224	-1.168
224	-1.159
225	-1.15
225	-1.141
226	-1.13
226	-1.118
227	-1.103
227	-1.089
228	-1.069
228	-1.05
229	-1.028
229	-1.004
229	-0.977
230	-0.947
230	-0.916
231	-0.881
231	-0.841
232	-0.799
232	-0.753
233	-0.707
233	-0.658
234	-0.609
234	-0.558
235	-0.508
235	-0.458
236	-0.408
236	-0.361
236	-0.314
237	-0.268
237	-0.226
238	-0.185
238	-0.147
239	-0.11
239	-0.076
240	-0.044
240	-0.013
241	0.015
241	0.041
242	0.065
242	0.088
243	0.109
243	0.128
243	0.146
244	0.163
244	0.178
245	0.192
245	0.205
246	0.218
246	0.229
247	0.239
247	0.249
248	0.258
248	0.267
249	0.274
249	0.282
250	0.289
250	0.295
250	0.302
251	0.307
251	0.313
252	0.318
252	0.323
253	0.328
253	0.332
254	0.336
254	0.34
255	0.343
255	0.346
256	0.349
256	0.352
257	0.355
257	0.357
258	0.359
258	0.361
258	0.363
259	0.364
259	0.366
260	0.367
260	0.368
261	0.369
261	0.37
262	0.371
262	0.371
263	0.372
263	0.373
264	0.373
264	0.373
265	0.373
265	0.373
265	0.373
266	0.372
266	0.372
267	0.372
267	0.371
268	0.371
268	0.37
269	0.369
269	0.368
270	0.367
270	0.366
271	0.365
271	0.364
272	0.363
272	0.362
272	0.361
273	0.359
273	0.358
274	0.356
274	0.355
275	0.354
275	0.352
276	0.351
276	0.349
277	0.347
277	0.345
278	0.343
278	0.341
278	0.338
279	0.337
279	0.335
280	0.334
280	0.333
281	0.332
281	0.331
282	0.33
282	0.329
283	0.329
283	0.328
284	0.328
284	0.327
285	0.326
285	0.324
285	0.323
286	0.321
286	0.32
287	0.319
287	0.317
288	0.316
288	0.315
289	0.313
289	0.312
290	0.311
290	0.31
291	0.309
291	0.308
292	0.307
292	0.306
292	0.305
293	0.304
293	0.303
294	0.302
294	0.301
295	0.3
295	0.3
296	0.299
296	0.298
297	0.297
297	0.297
298	0.296
298	0.295
298	0.294
299	0.294
299	0.293
300	0.292
300	0.291
301	0.291
301	0.29
302	0.289
302	0.288
303	0.287
303	0.287
304	0.286
304	0.285
305	0.284
305	0.283
305	0.282
306	0.282
306	0.281
307	0.28
307	0.279
308	0.278
308	0.278
309	0.277
309	0.276
310	0.275
310	0.274
311	0.274
311	0.273
311	0.272
312	0.271
312	0.27
313	0.27
313	0.269
314	0.268
314	0.267
315	0.266
315	0.265
316	0.264
316	0.263
317	0.262
317	0.261
318	0.26
318	0.259
318	0.259
319	0.258
319	0.257
320	0.256
320	0.255
321	0.254
321	0.253
322	0.252
322	0.251
323	0.251
323	0.25
324	0.249
324	0.248
324	0.247
325	0.246
325	0.245
326	0.245
326	0.244
327	0.243
327	0.242
328	0.241
328	0.241
329	0.24
329	0.239
330	0.238
330	0.237
330	0.236
331	0.235
331	0.234
332	0.233
332	0.233
333	0.232
333	0.231
334	0.23
334	0.229
335	0.229
335	0.228
336	0.227
336	0.226
336	0.226
337	0.225
337	0.224
338	0.224
338	0.223
339	0.222
339	0.222
340	0.221
340	0.22
341	0.219
341	0.219
342	0.218
342	0.217
342	0.217
343	0.216
343	0.215
344	0.214
344	0.214
345	0.213
345	0.212
346	0.212
346	0.211
347	0.21
347	0.21
348	0.209
348	0.208
348	0.208
349	0.207
349	0.206
350	0.205
350	0.205
351	0.204
351	0.203
352	0.202
352	0.202
353	0.201
353	0.2
354	0.199
354	0.198
354	0.197
355	0.196
355	0.195
356	0.194
356	0.193
357	0.192
357	0.192
358	0.192
358	0.192
359	0.192
359	0.193
360	0.194
360	0.195
360	0.195
361	0.196
361	0.196
362	0.197
362	0.197
363	0.197
363	0.196
364	0.196
364	0.195
365	0.195
365	0.194
366	0.194
366	0.193
366	0.193
367	0.192
367	0.192
368	0.192
368	0.191
369	0.191
369	0.191
370	0.19
370	0.19
371	0.189
371	0.189
372	0.188
372	0.188
372	0.187
373	0.187
373	0.187
374	0.186
374	0.186
375	0.186
375	0.186
376	0.186
376	0.186
377	0.186
377	0.186
378	0.186
378	0.187
378	0.187
379	0.187
379	0.187
380	0.187
380	0.187
381	0.187
381	0.186
382	0.186
382	0.185
383	0.185
383	0.185
383	0.184
384	0.184
384	0.183
385	0.183
385	0.182
386	0.182
386	0.182
387	0.183
387	0.182
388	0.182
388	0.181
389	0.181
389	0.181
389	0.181
390	0.181
390	0.181
391	0.181
391	0.182
392	0.181
392	0.181
393	0.181
393	0.181
394	0.181
394	0.18
394	0.18
395	0.18
395	0.179
396	0.179
396	0.179
397	0.179
397	0.179
398	0.179
398	0.179
399	0.179
399	0.179
400	0.179
400	0.178
400	0.178
401	0.177
401	0.176
402	0.175
402	0.174
403	0.173
403	0.173
404	0.173
404	0.173
405	0.173
405	0.172
405	0.172
406	0.171
406	0.171
407	0.171
407	0.171
408	0.17
408	0.169
409	0.169
409	0.168
410	0.168
410	0.168
411	0.168
411	0.168
411	0.168
412	0.167
412	0.167
413	0.166
413	0.166
414	0.166
414	0.166
415	0.166
415	0.166
416	0.165
416	0.165
416	0.164
417	0.164
417	0.163
418	0.163
418	0.163
419	0.163
419	0.164
420	0.164
420	0.165
421	0.166
421	0.166
421	0.166
422	0.166
422	0.166
423	0.166
423	0.166
424	0.165
424	0.165
425	0.164
425	0.163
426	0.162
426	0.162
427	0.161
427	0.162
427	0.162
428	0.163
428	0.163
429	0.164
429	0.164
430	0.164
430	0.164
431	0.164
431	0.164
432	0.164
432	0.163
432	0.162
433	0.16
433	0.159
434	0.158
434	0.158
435	0.158
435	0.158
436	0.157
436	0.158
437	0.158
437	0.158
437	0.158
438	0.158
438	0.157
439	0.157
439	0.157
440	0.156
440	0.156
441	0.156
441	0.156
442	0.156
442	0.156
442	0.156
443	0.157
443	0.157
444	0.157
444	0.157
445	0.158
445	0.158
446	0.158
446	0.158
447	0.158
447	0.157
447	0.157
448	0.157
448	0.157
449	0.157
449	0.156
450	0.156
450	0.156
451	0.155
451	0.155
452	0.154
452	0.154
452	0.153
453	0.153
453	0.152
454	0.152
454	0.151
455	0.151
455	0.151
456	0.15
456	0.15
457	0.15
457	0.15
458	0.15
458	0.15
458	0.15
459	0.15
459	0.15
460	0.149
460	0.148
461	0.148
461	0.148
462	0.147
462	0.148
463	0.148
463	0.148
463	0.149
464	0.149
464	0.15
465	0.15
465	0.15
466	0.15
466	0.15
467	0.15
467	0.15
467	0.149
468	0.147
468	0.145
469	0.143
469	0.141
470	0.14
470	0.14
471	0.139
471	0.139
472	0.139
472	0.139
472	0.139
473	0.14
473	0.142
474	0.143
474	0.144
475	0.145
475	0.146
476	0.146
476	0.147
477	0.147
477	0.148
477	0.148
478	0.148
478	0.149
479	0.149
479	0.15
480	0.151
480	0.152
481	0.153
481	0.153
482	0.154
482	0.155
482	0.157
483	0.159
483	0.162
484	0.166
484	0.169
485	0.171
485	0.173
486	0.174
486	0.175
487	0.176
487	0.176
487	0.176
488	0.176
488	0.174
489	0.172
489	0.17
490	0.168
490	0.167
491	0.167
491	0.167
492	0.168
492	0.168
492	0.169
493	0.17
493	0.171
494	0.173
494	0.175
495	0.177
495	0.179
496	0.18
496	0.181
496	0.182
497	0.183
497	0.184
498	0.185
498	0.186
499	0.186
499	0.186
500	0.187
500	0.188
501	0.189
501	0.191
501	0.193
502	0.195
502	0.196
503	0.198
503	0.199
504	0.201
504	0.201
505	0.202
505	0.202
506	0.203
506	0.203
506	0.203
507	0.203
507	0.204
508	0.204
508	0.205
509	0.205
509	0.206
510	0.206
510	0.206
511	0.207
511	0.207
511	0.208
512	0.208
512	0.208
513	0.207
513	0.206
514	0.204
514	0.203
515	0.203
515	0.203
515	0.203
516	0.203
516	0.202
517	0.202
517	0.202
518	0.201
518	0.2
519	0.198
519	0.196
520	0.193
520	0.19
520	0.187
521	0.184
521	0.182
522	0.181
522	0.18
523	0.181
523	0.183
524	0.186
524	0.189
524	0.192
525	0.195
525	0.198
526	0.201
526	0.204
527	0.206
527	0.208
528	0.21
528	0.211
529	0.212
529	0.212
529	0.212
530	0.212
530	0.211
531	0.211
531	0.211
532	0.211
532	0.21
533	0.21
533	0.21
533	0.21
534	0.209
534	0.208
535	0.207
535	0.207
536	0.206
536	0.206
537	0.205
537	0.204
538	0.203
538	0.201
538	0.2
539	0.199
539	0.198
540	0.197
540	0.195
541	0.193
541	0.191
542	0.19
542	0.188
542	0.186
543	0.185
543	0.183
544	0.182
544	0.18
545	0.179
545	0.179
546	0.179
546	0.178
547	0.177
547	0.174
547	0.172
548	0.17
548	0.167
549	0.165
549	0.163
550	0.16
550	0.158
551	0.155
551	0.152
551	0.15
552	0.148
552	0.147
553	0.146
553	0.146
554	0.145
554	0.144
555	0.142
555	0.139
556	0.136
556	0.132
556	0.129
557	0.126
557	0.123
558	0.121
558	0.118
559	0.116
559	0.115
560	0.114
560	0.113
560	0.113
561	0.112
561	0.112
562	0.112
562	0.111
563	0.11
563	0.107
564	0.105
564	0.102
564	0.099
565	0.097
565	0.095
566	0.094
566	0.092
567	0.092
567	0.092
568	0.093
568	0.094
568	0.095
569	0.097
569	0.099
570	0.1
570	0.101
571	0.101
571	0.102
572	0.103
572	0.103
573	0.103
573	0.102
573	0.101
574	0.1
574	0.1
575	0.099
575	0.1
576	0.101
576	0.101
577	0.099
577	0.098
577	0.097
578	0.096
578	0.096
579	0.096
579	0.097
580	0.097
580	0.095
581	0.092
581	0.09
581	0.088
582	0.088
582	0.088
583	0.088
583	0.088
584	0.086
584	0.083
585	0.081
585	0.08
585	0.08
586	0.08
586	0.079
587	0.077
587	0.075
588	0.072
588	0.069
589	0.066
589	0.064
590	0.063
590	0.061
590	0.061
591	0.061
591	0.061
592	0.06
592	0.06
593	0.059
593	0.06
594	0.059
594	0.059
594	0.059
595	0.058
595	0.057
596	0.056
596	0.056
597	0.058
597	0.059
598	0.06
598	0.061
598	0.062
599	0.062
599	0.062
600	0.061
600	0.06
601	0.059
601	0.058
602	0.056
602	0.055
602	0.053
603	0.052
603	0.052
604	0.052
604	0.053
605	0.054
605	0.055
606	0.055
606	0.055
606	0.054
607	0.054
607	0.053
608	0.053
608	0.052
609	0.05
609	0.05
610	0.048
610	0.047
610	0.046
611	0.047
611	0.048
612	0.049
612	0.05
613	0.052
613	0.053
614	0.054
614	0.054
614	0.055
615	0.055
615	0.054
616	0.054
616	0.053
617	0.053
617	0.051
618	0.049
618	0.048
618	0.047
619	0.046
619	0.046
620	0.047
620	0.048
621	0.048
621	0.049
622	0.049
622	0.05
622	0.05
623	0.05
623	0.051
624	0.051
624	0.051
625	0.051
625	0.051
626	0.051
626	0.051
626	0.052
627	0.052
627	0.053
628	0.053
628	0.054
629	0.054
629	0.054
630	0.054
630	0.053
630	0.053
631	0.054
631	0.054
632	0.054
632	0.054
633	0.054
633	0.055
634	0.056
634	0.058
634	0.06
635	0.062
635	0.063
636	0.065
636	0.066
637	0.068
637	0.069
638	0.07
638	0.071
638	0.072
639	0.073
639	0.073
640	0.074
640	0.075
641	0.077
641	0.079
642	0.081
642	0.083
642	0.086
643	0.088
643	0.09
644	0.093
644	0.095
645	0.097
645	0.099
646	0.101
646	0.104
646	0.107
647	0.11
647	0.114
648	0.117
648	0.119
649	0.122
649	0.125
650	0.128
650	0.131
650	0.135
651	0.137
651	0.139
652	0.141
652	0.143
653	0.145
653	0.153
653	0.169
654	0.137
654	0.114
655	0.12
655	0.122
656	0.124
656	0.126
657	0.129
657	0.131
657	0.132
658	0.13
658	0.119
659	0.149
659	0.189
660	0.191
660	0.193
661	0.195
661	0.197
661	0.199
662	0.202
662	0.206
663	0.209
663	0.213
664	0.216
664	0.219
665	0.221
665	0.224
665	0.227
666	0.23
666	0.233
667	0.235
667	0.238
668	0.24
668	0.243
669	0.245
669	0.248
669	0.252
670	0.256
670	0.26
671	0.263
671	0.265
672	0.267
672	0.269
672	0.271
673	0.273
673	0.275
674	0.276
674	0.277
675	0.277
675	0.277
676	0.279
676	0.281
676	0.282
677	0.284
677	0.286
678	0.287
678	0.289
679	0.29
679	0.291
680	0.293
680	0.294
680	0.295
681	0.295
681	0.296
682	0.297
682	0.299
683	0.301
683	0.303
684	0.306
684	0.307
684	0.307
685	0.308
685	0.309
686	0.31
686	0.31
687	0.309
687	0.308
687	0.308
688	0.306
688	0.304
689	0.304
689	0.305
690	0.305
690	0.305
691	0.304
691	0.304
691	0.304
692	0.304
692	0.303
693	0.303
693	0.304
694	0.303
694	0.302
695	0.302
695	0.303
695	0.304
696	0.304
696	0.303
697	0.302
697	0.301
698	0.299
698	0.297
698	0.295
699	0.293
699	0.29
700	0.286
700	0.283
701	0.281
701	0.279
702	0.277
702	0.276
702	0.274
703	0.272
703	0.27
704	0.268
704	0.267
705	0.266
705	0.265
705	0.263
706	0.262
706	0.261
707	0.26
707	0.258
708	0.257
708	0.256
709	0.254
709	0.252
709	0.25
710	0.246
710	0.243
711	0.241
711	0.238
712	0.236
712	0.233
713	0.231
713	0.229
713	0.227
714	0.225
714	0.222
715	0.22
715	0.218
716	0.216
716	0.214
716	0.212
717	0.209
717	0.207
718	0.204
718	0.201
719	0.199
719	0.196
720	0.194
720	0.19
720	0.187
721	0.183
721	0.179
722	0.176
722	0.172
723	0.169
723	0.167
723	0.165
724	0.162
724	0.16
725	0.158
725	0.156
726	0.154
726	0.152
727	0.15
727	0.148
727	0.146
728	0.143
728	0.141
729	0.139
729	0.138
730	0.136
730	0.134
730	0.132
731	0.131
731	0.129
732	0.128
732	0.126
733	0.124
733	0.122
734	0.119
734	0.116
734	0.113
735	0.111
735	0.109
736	0.106
736	0.103
737	0.1
737	0.098
737	0.095
738	0.092
738	0.089
739	0.087
739	0.085
740	0.082
740	0.08
741	0.078
741	0.076
741	0.072
742	0.068
742	0.065
743	0.062
743	0.059
744	0.056
744	0.054
744	0.052
745	0.049
745	0.047
746	0.045
746	0.043
747	0.042
747	0.041
748	0.041
748	0.04
748	0.039
749	0.038
749	0.037
750	0.036
750	0.035
751	0.034
751	0.034
751	0.034
752	0.034
752	0.033
753	0.032
753	0.031
754	0.031
754	0.03
754	0.03
755	0.03
755	0.03
756	0.029
756	0.027
757	0.026
757	0.025
758	0.024
758	0.023
758	0.022
759	0.021
759	0.018
760	0.015
760	0.012
761	0.009
761	0.008
761	0.007
762	0.005
762	0.004
763	0.003
763	0.001
764	-0.002
764	-0.004
764	-0.006
765	-0.008
765	-0.01
766	-0.012
766	-0.013
767	-0.014
767	-0.017
768	-0.02
768	-0.023
768	-0.024
769	-0.025
769	-0.026
770	-0.027
770	-0.029
771	-0.031
771	-0.033
771	-0.035
772	-0.037
772	-0.039
773	-0.041
773	-0.044
774	-0.047
774	-0.051
775	-0.054
775	-0.058
775	-0.062
776	-0.066
776	-0.069
777	-0.073
777	-0.076
778	-0.08
778	-0.084
778	-0.087
779	-0.09
779	-0.092
780	-0.096
780	-0.1
781	-0.104
781	-0.109
781	-0.113
782	-0.118
782	-0.123
783	-0.128
783	-0.131
784	-0.134
784	-0.137
784	-0.139
785	-0.141
785	-0.143
786	-0.144
786	-0.142
787	-0.138
787	-0.134
788	-0.133
788	-0.134
788	-0.136
789	-0.138
789	-0.138
790	-0.136
790	-0.135
791	-0.135
791	-0.137
791	-0.139
792	-0.134
792	-0.123
793	-0.116
793	-0.111
794	-0.109
794	-0.11
794	-0.113
795	-0.115
795	-0.115
796	-0.115
796	-0.118
797	-0.126
797	-0.137
797	-0.144
798	-0.15
798	-0.154
799	-0.155
799	-0.155
800	-0.155
800	-0.157
801	-0.16
801	-0.161
801	-0.161
802	-0.162
802	-0.163
803	-0.164
803	-0.163
804	-0.162
804	-0.156
804	-0.149
805	-0.145
805	-0.143
806	-0.14
806	-0.139
807	-0.138
807	-0.137
807	-0.136
808	-0.136
808	-0.136
809	-0.14
809	-0.145
810	-0.148
810	-0.151
810	-0.154
811	-0.157
811	-0.157
812	-0.153
812	-0.15
813	-0.151
813	-0.152
813	-0.154
814	-0.155
814	-0.156
815	-0.154
815	-0.152
816	-0.151
816	-0.152
817	-0.157
817	-0.161
817	-0.162
818	-0.161
818	-0.158
819	-0.153
819	-0.15
820	-0.151
820	-0.153
820	-0.154
821	-0.154
821	-0.153
822	-0.152
822	-0.15
823	-0.148
823	-0.147
823	-0.149
824	-0.147
824	-0.143
825	-0.136
825	-0.128
826	-0.12
826	-0.113
826	-0.106
827	-0.099
827	-0.093
828	-0.088
828	-0.083
829	-0.079
829	-0.074
829	-0.071
830	-0.068
830	-0.065
831	-0.061
831	-0.057
832	-0.054
832	-0.051
832	-0.048
833	-0.046
833	-0.044
834	-0.043
834	-0.042
835	-0.041
835	-0.041
835	-0.041
836	-0.041
836	-0.041
837	-0.04
837	-0.04
838	-0.039
838	-0.039
839	-0.038
839	-0.037
839	-0.037
840	-0.036
840	-0.034
841	-0.033
841	-0.032
842	-0.03
842	-0.029
842	-0.028
843	-0.027
843	-0.025
844	-0.024
844	-0.023
845	-0.022
845	-0.021
845	-0.02
846	-0.02
846	-0.019
847	-0.018
847	-0.017
848	-0.017
848	-0.016
848	-0.015
849	-0.014
849	-0.013
850	-0.012
850	-0.012
851	-0.012
851	-0.011
851	-0.011
852	-0.012
852	-0.011
853	-0.011
853	-0.012
854	-0.012
854	-0.012
854	-0.012
855	-0.011
855	-0.011
856	-0.011
856	-0.011
857	-0.01
857	-0.01
857	-0.009
858	-0.008
858	-0.008
859	-0.007
859	-0.007
860	-0.006
860	-0.006
860	-0.005
861	-0.004
861	-0.004
862	-0.004
862	-0.004
863	-0.004
863	-0.003
863	-0.002
864	-0.002
864	-0.001
865	-0.001
865	0
866	0
866	0.001
866	0.002
867	0.003
867	0.003
868	0.004
868	0.004
869	0.004
869	0.004
869	0.003
870	0.003
870	0.003
871	0.003
871	0.003
872	0.002
872	0.001
872	0.001
873	0
873	-0.001
874	-0.002
874	-0.003
875	-0.004
875	-0.005
875	-0.006
876	-0.006
876	-0.007
877	-0.007
877	-0.006
878	-0.006
878	-0.006
878	-0.005
879	-0.004
879	-0.003
880	-0.002
880	-0.001
881	-0
881	0.001
881	0.002
882	0.003
882	0.003
883	0.004
883	0.005
884	0.006
884	0.006
884	0.006
885	0.007
885	0.007
886	0.007
886	0.007
887	0.007
887	0.007
887	0.007
888	0.006
888	0.006
889	0.007
889	0.007
890	0.008
890	0.009
890	0.01
891	0.01
891	0.011
892	0.012
892	0.012
893	0.013
893	0.014
893	0.015
894	0.015
894	0.015
895	0.015
895	0.015
895	0.015
896	0.015
896	0.015
897	0.015
897	0.014
898	0.013
898	0.012
898	0.011
899	0.009
899	0.008
900	0.007
900	0.006
901	0.005
901	0.003
901	0.003
902	0.002
902	0.001
903	0.001
903	0.001
904	0.001
904	0.001
904	0.001
905	0.002
905	0.003
906	0.003
906	0.004
907	0.004
907	0.005
907	0.005
908	0.005
908	0.005
909	0.005
909	0.005
910	0.005
910	0.005
910	0.005
911	0.005
911	0.005
912	0.006
912	0.007
913	0.007
913	0.008
913	0.009
914	0.01
914	0.011
915	0.012
915	0.013
916	0.014
916	0.015
916	0.015
917	0.015
917	0.015
918	0.014
918	0.014
918	0.013
919	0.012
919	0.011
920	0.01
920	0.009
921	0.009
921	0.008
921	0.007
922	0.007
922	0.006
923	0.005
923	0.005
924	0.004
924	0.004
924	0.004
925	0.003
925	0.004
926	0.004
926	0.004
927	0.004
927	0.005
927	0.005
928	0.006
928	0.007
929	0.008
929	0.008
930	0.009
930	0.009
930	0.009
931	0.009
931	0.009
932	0.009
932	0.009
933	0.009
933	0.008
933	0.008
934	0.008
934	0.008
935	0.008
935	0.008
935	0.008
936	0.009
936	0.009
937	0.009
937	0.009
938	0.008
938	0.008
938	0.008
939	0.008
939	0.008
940	0.008
940	0.008
941	0.008
941	0.009
941	0.009
942	0.01
942	0.011
943	0.012
943	0.013
944	0.013
944	0.014
944	0.015
945	0.016
945	0.016
946	0.017
946	0.018
946	0.019
947	0.019
947	0.02
948	0.02
948	0.02
949	0.019
949	0.019
949	0.019
950	0.018
950	0.017
951	0.016
951	0.016
952	0.015
952	0.015
952	0.014
953	0.014
953	0.014
954	0.014
954	0.014
955	0.015
955	0.015
955	0.015
956	0.015
956	0.015
957	0.015
957	0.015
957	0.015
958	0.015
958	0.014
959	0.014
959	0.014
960	0.014
960	0.014
960	0.013
961	0.013
961	0.013
962	0.013
962	0.013
963	0.013
963	0.013
963	0.013
964	0.013
964	0.013
965	0.013
965	0.013
966	0.013
966	0.013
966	0.013
967	0.012
967	0.012
968	0.012
968	0.012
968	0.012
969	0.012
969	0.012
970	0.012
970	0.012
971	0.013
971	0.013
971	0.014
972	0.015
972	0.015
973	0.016
973	0.016
974	0.017
974	0.017
974	0.017
975	0.017
975	0.017
976	0.017
976	0.016
976	0.016
977	0.015
977	0.014
978	0.013
978	0.013
979	0.012
979	0.011
979	0.011
980	0.01
980	0.01
981	0.009
981	0.009
982	0.008
982	0.008
982	0.008
983	0.008
983	0.007
984	0.007
984	0.007
984	0.007
985	0.007
985	0.006
986	0.006
986	0.005
987	0.005
987	0.005
987	0.004
988	0.004
988	0.004
989	0.004
989	0.004
990	0.004
990	0.004
990	0.005
991	0.005
991	0.005
992	0.004
992	0.004
992	0.003
993	0.003
993	0.002
994	0.001
994	0.001
995	-0
995	-0.001
995	-0.001
996	-0.001
996	-0.002
997	-0.002
997	-0.002
997	-0.002
998	-0.002
998	-0.001
999	-0.001
999	-0
1000	-0
1000	0
1000	0
1001	0.001
1001	0.001
1002	0.001
1002	0.001
1003	0.001
1003	0.001
1003	0.001
1004	0.001
1004	0
1005	0
1005	-0
1005	-0.001
1006	-0.002
1006	-0.002
1007	-0.003
1007	-0.003
1008	-0.003
1008	-0.004
1008	-0.004
1009	-0.004
1009	-0.004
1010	-0.003
1010	-0.002
1010	-0.002
1011	-0.001
1011	0
1012	0.001
1012	0.002
1013	0.002
1013	0.003
1013	0.003
1014	0.004
1014	0.004
1015	0.004
1015	0.004
1016	0.004
1016	0.004
1016	0.004
1017	0.004
1017	0.005
1018	0.005
1018	0.006
1018	0.006
1019	0.007
1019	0.007
1020	0.007
1020	0.007
1021	0.007
1021	0.007
1021	0.007
1022	0.007
1022	0.007
1023	0.007
1023	0.006
1023	0.006
1024	0.006
1024	0.006
1025	0.006
1025	0.007
1026	0.007
1026	0.007
1026	0.008
1027	0.008
1027	0.008
1028	0.009
1028	0.009
1028	0.009
1029	0.009
1029	0.01
1030	0.01
1030	0.01
1031	0.01
1031	0.01
1031	0.01
1032	0.009
1032	0.009
1033	0.009
1033	0.009
1033	0.009
1034	0.009
1034	0.008
1035	0.008
1035	0.008
1036	0.008
1036	0.009
1036	0.009
1037	0.009
1037	0.01
1038	0.01
1038	0.01
1039	0.011
1039	0.011
1039	0.012
1040	0.012
1040	0.012
1041	0.013
1041	0.013
1041	0.014
1042	0.014
1042	0.015
1043	0.016
1043	0.016
1044	0.017
1044	0.018
1044	0.02
1045	0.021
1045	0.022
1046	0.023
1046	0.024
1046	0.026
1047	0.028
1047	0.03
1048	0.032
1048	0.033
1049	0.035
1049	0.035
1049	0.036
1050	0.036
1050	0.036
1051	0.037
1051	0.036
1051	0.036
1052	0.035
1052	0.035
1053	0.034
1053	0.033
1053	0.032
1054	0.031
1054	0.031
1055	0.03
1055	0.029
1056	0.028
1056	0.027
1056	0.027
1057	0.026
1057	0.026
1058	0.026
1058	0.026
1058	0.026
1059	0.027
1059	0.027
1060	0.027
1060	0.028
1061	0.029
1061	0.03
1061	0.03
1062	0.03
1062	0.031
1063	0.031
1063	0.031
1063	0.032
1064	0.033
1064	0.034
1065	0.035
1065	0.036
1066	0.038
1066	0.04
1066	0.042
1067	0.044
1067	0.046
1068	0.048
1068	0.05
1068	0.051
1069	0.052
1069	0.053
1070	0.054
1070	0.055
1071	0.056
1071	0.057
1071	0.058
1072	0.06
1072	0.062
1073	0.064
1073	0.065
1073	0.067
1074	0.068
1074	0.071
1075	0.071
1075	0.072
1076	0.073
1076	0.074
1076	0.075
1077	0.076
1077	0.077
1078	0.079
1078	0.081
1078	0.083
1079	0.085
1079	0.088
1080	0.09
1080	0.093
1080	0.095
1081	0.098
1081	0.1
1082	0.102
1082	0.104
1083	0.107
1083	0.109
1083	0.112
1084	0.115
1084	0.119
1085	0.121
1085	0.125
1085	0.128
1086	0.131
1086	0.134
1087	0.138
1087	0.142
1088	0.145
1088	0.149
1088	0.153
1089	0.157
1089	0.162
1090	0.168
1090	0.175
1090	0.182
1091	0.189
1091	0.197
1092	0.206
1092	0.217
1092	0.227
1093	0.236
1093	0.249
1094	0.26
1094	0.272
1095	0.285
1095	0.3
1095	0.319
1096	0.337
1096	0.356
1097	0.38
1097	0.404
1097	0.434
1098	0.464
1098	0.499
1099	0.542
1099	0.592
1100	0.65
1100	0.72
1100	0.811
1101	0.936
1101	1.119
1102	1.513
1102	-0
1102	-0
1103	-0
1103	-0
1104	-0
1104	-0
1104	-0
1105	-0
1105	-0
1106	-0
1106	-0
1107	-0
1107	-0
1107	-0
1108	-0
1108	-0
1109	-0
1109	-0
1109	-0
1110	-0
1110	-0
1111	-0
1111	-0
