Data from 15c-2-4a_Absorbance__399__00399.txt Node

Date: Thu Jan 25 10:17:28 CET 2024
User: Marek
Spectrometer: MAYP115816
Trigger mode: 0
Integration Time (sec): 2.000000E-1
Scans to average: 10
Electric dark correction enabled: true
Nonlinearity correction enabled: true
Boxcar width: 5
XAxis mode: Wavelengths
Number of Pixels in Spectrum: 2068
>>>>>Begin Spectral Data<<<<<
199	-2.108
199	-1.938
200	-1.785
200	-1.662
201	-1.584
201	-1.527
202	-1.445
202	-1.383
203	-1.331
203	-1.285
204	-1.259
204	-1.231
205	-1.21
205	-1.199
205	-1.193
206	-1.188
206	-1.185
207	-1.185
207	-1.181
208	-1.176
208	-1.173
209	-1.168
209	-1.165
210	-1.163
210	-1.16
211	-1.159
211	-1.158
212	-1.154
212	-1.152
213	-1.15
213	-1.151
213	-1.151
214	-1.149
214	-1.148
215	-1.147
215	-1.145
216	-1.142
216	-1.141
217	-1.139
217	-1.136
218	-1.135
218	-1.132
219	-1.13
219	-1.127
220	-1.127
220	-1.123
221	-1.12
221	-1.118
221	-1.115
222	-1.112
222	-1.111
223	-1.106
223	-1.1
224	-1.093
224	-1.085
225	-1.076
225	-1.067
226	-1.056
226	-1.044
227	-1.03
227	-1.017
228	-0.997
228	-0.979
229	-0.959
229	-0.935
229	-0.909
230	-0.881
230	-0.852
231	-0.819
231	-0.782
232	-0.743
232	-0.701
233	-0.657
233	-0.613
234	-0.568
234	-0.523
235	-0.478
235	-0.434
236	-0.391
236	-0.351
236	-0.312
237	-0.275
237	-0.24
238	-0.208
238	-0.179
239	-0.151
239	-0.125
240	-0.102
240	-0.08
241	-0.06
241	-0.042
242	-0.026
242	-0.011
243	0.003
243	0.017
243	0.028
244	0.039
244	0.049
245	0.058
245	0.066
246	0.074
246	0.081
247	0.088
247	0.094
248	0.1
248	0.105
249	0.11
249	0.115
250	0.12
250	0.124
250	0.128
251	0.132
251	0.136
252	0.139
252	0.143
253	0.146
253	0.149
254	0.152
254	0.154
255	0.156
255	0.159
256	0.161
256	0.163
257	0.164
257	0.166
258	0.167
258	0.169
258	0.17
259	0.171
259	0.172
260	0.173
260	0.173
261	0.174
261	0.174
262	0.175
262	0.175
263	0.175
263	0.175
264	0.175
264	0.175
265	0.175
265	0.175
265	0.175
266	0.174
266	0.174
267	0.173
267	0.173
268	0.172
268	0.171
269	0.17
269	0.169
270	0.168
270	0.167
271	0.166
271	0.165
272	0.163
272	0.162
272	0.161
273	0.16
273	0.159
274	0.157
274	0.156
275	0.154
275	0.153
276	0.152
276	0.15
277	0.149
277	0.147
278	0.145
278	0.144
278	0.142
279	0.141
279	0.139
280	0.138
280	0.137
281	0.136
281	0.135
282	0.134
282	0.133
283	0.132
283	0.131
284	0.13
284	0.129
285	0.128
285	0.127
285	0.126
286	0.125
286	0.124
287	0.122
287	0.121
288	0.121
288	0.12
289	0.119
289	0.118
290	0.117
290	0.116
291	0.115
291	0.114
292	0.114
292	0.113
292	0.112
293	0.111
293	0.111
294	0.11
294	0.11
295	0.109
295	0.109
296	0.108
296	0.108
297	0.107
297	0.107
298	0.107
298	0.107
298	0.106
299	0.106
299	0.105
300	0.105
300	0.105
301	0.105
301	0.104
302	0.104
302	0.104
303	0.103
303	0.103
304	0.103
304	0.102
305	0.102
305	0.102
305	0.101
306	0.101
306	0.101
307	0.1
307	0.1
308	0.099
308	0.099
309	0.099
309	0.098
310	0.098
310	0.098
311	0.098
311	0.097
311	0.097
312	0.097
312	0.096
313	0.096
313	0.096
314	0.095
314	0.095
315	0.094
315	0.094
316	0.094
316	0.093
317	0.093
317	0.093
318	0.092
318	0.092
318	0.091
319	0.091
319	0.091
320	0.09
320	0.09
321	0.089
321	0.089
322	0.089
322	0.088
323	0.088
323	0.087
324	0.087
324	0.087
324	0.086
325	0.086
325	0.085
326	0.085
326	0.085
327	0.084
327	0.084
328	0.084
328	0.083
329	0.083
329	0.083
330	0.082
330	0.082
330	0.081
331	0.081
331	0.08
332	0.08
332	0.079
333	0.079
333	0.079
334	0.078
334	0.078
335	0.077
335	0.077
336	0.077
336	0.076
336	0.076
337	0.076
337	0.076
338	0.075
338	0.075
339	0.075
339	0.074
340	0.074
340	0.074
341	0.073
341	0.073
342	0.073
342	0.072
342	0.072
343	0.071
343	0.071
344	0.07
344	0.07
345	0.07
345	0.069
346	0.069
346	0.068
347	0.068
347	0.068
348	0.067
348	0.067
348	0.066
349	0.066
349	0.065
350	0.065
350	0.065
351	0.064
351	0.064
352	0.063
352	0.063
353	0.062
353	0.062
354	0.061
354	0.061
354	0.06
355	0.059
355	0.059
356	0.058
356	0.058
357	0.057
357	0.057
358	0.057
358	0.058
359	0.058
359	0.059
360	0.059
360	0.06
360	0.06
361	0.06
361	0.06
362	0.061
362	0.061
363	0.06
363	0.06
364	0.06
364	0.06
365	0.059
365	0.059
366	0.059
366	0.059
366	0.058
367	0.058
367	0.058
368	0.058
368	0.058
369	0.058
369	0.058
370	0.057
370	0.057
371	0.057
371	0.056
372	0.056
372	0.056
372	0.056
373	0.055
373	0.055
374	0.055
374	0.055
375	0.055
375	0.055
376	0.055
376	0.055
377	0.055
377	0.055
378	0.055
378	0.056
378	0.056
379	0.056
379	0.056
380	0.056
380	0.056
381	0.056
381	0.056
382	0.056
382	0.056
383	0.055
383	0.055
383	0.055
384	0.055
384	0.054
385	0.054
385	0.054
386	0.054
386	0.054
387	0.054
387	0.054
388	0.054
388	0.054
389	0.054
389	0.054
389	0.054
390	0.055
390	0.055
391	0.055
391	0.055
392	0.055
392	0.055
393	0.055
393	0.055
394	0.055
394	0.055
394	0.055
395	0.055
395	0.054
396	0.054
396	0.054
397	0.054
397	0.054
398	0.054
398	0.055
399	0.055
399	0.055
400	0.054
400	0.054
400	0.054
401	0.053
401	0.053
402	0.052
402	0.052
403	0.051
403	0.051
404	0.051
404	0.051
405	0.051
405	0.051
405	0.051
406	0.051
406	0.051
407	0.05
407	0.05
408	0.05
408	0.05
409	0.049
409	0.049
410	0.049
410	0.049
411	0.049
411	0.049
411	0.049
412	0.049
412	0.048
413	0.048
413	0.048
414	0.048
414	0.048
415	0.048
415	0.048
416	0.047
416	0.047
416	0.047
417	0.047
417	0.047
418	0.047
418	0.047
419	0.048
419	0.048
420	0.049
420	0.049
421	0.049
421	0.049
421	0.05
422	0.049
422	0.049
423	0.049
423	0.049
424	0.049
424	0.048
425	0.048
425	0.047
426	0.047
426	0.047
427	0.046
427	0.047
427	0.047
428	0.047
428	0.048
429	0.048
429	0.048
430	0.048
430	0.048
431	0.048
431	0.048
432	0.048
432	0.047
432	0.047
433	0.046
433	0.045
434	0.045
434	0.045
435	0.045
435	0.045
436	0.045
436	0.045
437	0.045
437	0.044
437	0.045
438	0.045
438	0.045
439	0.045
439	0.044
440	0.044
440	0.044
441	0.044
441	0.044
442	0.044
442	0.045
442	0.045
443	0.045
443	0.045
444	0.045
444	0.045
445	0.046
445	0.046
446	0.046
446	0.046
447	0.046
447	0.045
447	0.045
448	0.045
448	0.045
449	0.045
449	0.045
450	0.044
450	0.044
451	0.044
451	0.044
452	0.043
452	0.043
452	0.042
453	0.042
453	0.042
454	0.041
454	0.041
455	0.041
455	0.04
456	0.04
456	0.04
457	0.039
457	0.039
458	0.039
458	0.039
458	0.039
459	0.039
459	0.039
460	0.039
460	0.038
461	0.038
461	0.038
462	0.038
462	0.038
463	0.038
463	0.038
463	0.039
464	0.039
464	0.039
465	0.039
465	0.039
466	0.039
466	0.039
467	0.039
467	0.039
467	0.038
468	0.037
468	0.036
469	0.034
469	0.033
470	0.033
470	0.032
471	0.032
471	0.031
472	0.031
472	0.031
472	0.031
473	0.032
473	0.032
474	0.033
474	0.034
475	0.034
475	0.035
476	0.035
476	0.035
477	0.035
477	0.036
477	0.036
478	0.036
478	0.037
479	0.037
479	0.037
480	0.038
480	0.038
481	0.039
481	0.039
482	0.04
482	0.04
482	0.041
483	0.043
483	0.044
484	0.046
484	0.048
485	0.049
485	0.05
486	0.05
486	0.051
487	0.051
487	0.051
487	0.051
488	0.05
488	0.049
489	0.047
489	0.046
490	0.045
490	0.044
491	0.043
491	0.043
492	0.044
492	0.044
492	0.044
493	0.044
493	0.045
494	0.045
494	0.047
495	0.048
495	0.048
496	0.049
496	0.049
496	0.049
497	0.05
497	0.05
498	0.05
498	0.05
499	0.05
499	0.05
500	0.05
500	0.051
501	0.052
501	0.053
501	0.053
502	0.054
502	0.055
503	0.056
503	0.057
504	0.057
504	0.057
505	0.058
505	0.058
506	0.058
506	0.058
506	0.058
507	0.059
507	0.059
508	0.058
508	0.058
509	0.059
509	0.059
510	0.059
510	0.059
511	0.059
511	0.059
511	0.059
512	0.059
512	0.059
513	0.059
513	0.058
514	0.058
514	0.057
515	0.056
515	0.056
515	0.055
516	0.055
516	0.055
517	0.055
517	0.055
518	0.055
518	0.054
519	0.054
519	0.053
520	0.052
520	0.05
520	0.049
521	0.047
521	0.045
522	0.043
522	0.041
523	0.039
523	0.039
524	0.04
524	0.041
524	0.042
525	0.044
525	0.046
526	0.049
526	0.05
527	0.053
527	0.055
528	0.056
528	0.058
529	0.058
529	0.059
529	0.059
530	0.059
530	0.06
531	0.06
531	0.06
532	0.059
532	0.059
533	0.059
533	0.059
533	0.059
534	0.059
534	0.059
535	0.058
535	0.058
536	0.058
536	0.058
537	0.058
537	0.058
538	0.057
538	0.057
538	0.056
539	0.055
539	0.055
540	0.055
540	0.054
541	0.054
541	0.053
542	0.052
542	0.052
542	0.051
543	0.05
543	0.05
544	0.05
544	0.049
545	0.049
545	0.049
546	0.05
546	0.05
547	0.049
547	0.048
547	0.047
548	0.046
548	0.045
549	0.044
549	0.043
550	0.042
550	0.04
551	0.038
551	0.037
551	0.036
552	0.035
552	0.035
553	0.035
553	0.035
554	0.035
554	0.035
555	0.034
555	0.033
556	0.031
556	0.029
556	0.028
557	0.026
557	0.025
558	0.024
558	0.023
559	0.022
559	0.021
560	0.021
560	0.021
560	0.022
561	0.022
561	0.023
562	0.023
562	0.023
563	0.022
563	0.021
564	0.02
564	0.018
564	0.017
565	0.016
565	0.015
566	0.014
566	0.014
567	0.014
567	0.014
568	0.015
568	0.016
568	0.018
569	0.019
569	0.021
570	0.022
570	0.023
571	0.024
571	0.025
572	0.025
572	0.026
573	0.026
573	0.026
573	0.026
574	0.026
574	0.026
575	0.026
575	0.027
576	0.028
576	0.029
577	0.029
577	0.028
577	0.028
578	0.027
578	0.027
579	0.028
579	0.029
580	0.029
580	0.028
581	0.027
581	0.026
581	0.026
582	0.025
582	0.026
583	0.026
583	0.026
584	0.025
584	0.023
585	0.022
585	0.022
585	0.022
586	0.022
586	0.021
587	0.02
587	0.019
588	0.017
588	0.015
589	0.013
589	0.012
590	0.011
590	0.01
590	0.01
591	0.01
591	0.01
592	0.011
592	0.01
593	0.011
593	0.011
594	0.011
594	0.011
594	0.011
595	0.011
595	0.01
596	0.01
596	0.01
597	0.011
597	0.012
598	0.013
598	0.014
598	0.014
599	0.014
599	0.014
600	0.014
600	0.013
601	0.012
601	0.011
602	0.01
602	0.009
602	0.007
603	0.006
603	0.007
604	0.007
604	0.007
605	0.008
605	0.009
606	0.01
606	0.009
606	0.009
607	0.009
607	0.008
608	0.008
608	0.007
609	0.007
609	0.006
610	0.005
610	0.004
610	0.004
611	0.004
611	0.005
612	0.005
612	0.007
613	0.008
613	0.009
614	0.01
614	0.01
614	0.01
615	0.01
615	0.01
616	0.009
616	0.008
617	0.008
617	0.007
618	0.005
618	0.004
618	0.003
619	0.003
619	0.003
620	0.004
620	0.004
621	0.004
621	0.005
622	0.005
622	0.005
622	0.005
623	0.005
623	0.005
624	0.005
624	0.005
625	0.005
625	0.005
626	0.005
626	0.004
626	0.004
627	0.005
627	0.005
628	0.005
628	0.005
629	0.005
629	0.005
630	0.004
630	0.003
630	0.003
631	0.003
631	0.003
632	0.003
632	0.003
633	0.003
633	0.003
634	0.004
634	0.004
634	0.006
635	0.007
635	0.007
636	0.008
636	0.009
637	0.01
637	0.01
638	0.011
638	0.011
638	0.011
639	0.011
639	0.011
640	0.011
640	0.011
641	0.012
641	0.013
642	0.014
642	0.015
642	0.016
643	0.017
643	0.018
644	0.02
644	0.021
645	0.023
645	0.024
646	0.026
646	0.027
646	0.029
647	0.031
647	0.033
648	0.034
648	0.036
649	0.037
649	0.039
650	0.04
650	0.041
650	0.043
651	0.044
651	0.045
652	0.045
652	0.046
653	0.047
653	0.051
653	0.057
654	0.049
654	0.042
655	0.044
655	0.046
656	0.047
656	0.048
657	0.05
657	0.051
657	0.052
658	0.05
658	0.048
659	0.057
659	0.07
660	0.071
660	0.071
661	0.072
661	0.072
661	0.074
662	0.075
662	0.077
663	0.078
663	0.08
664	0.081
664	0.083
665	0.084
665	0.086
665	0.087
666	0.088
666	0.09
667	0.091
667	0.092
668	0.093
668	0.095
669	0.096
669	0.097
669	0.099
670	0.101
670	0.103
671	0.104
671	0.105
672	0.106
672	0.107
672	0.108
673	0.108
673	0.109
674	0.11
674	0.11
675	0.11
675	0.11
676	0.11
676	0.111
676	0.112
677	0.113
677	0.114
678	0.115
678	0.115
679	0.116
679	0.117
680	0.118
680	0.118
680	0.119
681	0.119
681	0.119
682	0.12
682	0.121
683	0.122
683	0.123
684	0.124
684	0.125
684	0.125
685	0.125
685	0.125
686	0.126
686	0.125
687	0.125
687	0.125
687	0.124
688	0.123
688	0.122
689	0.122
689	0.123
690	0.123
690	0.122
691	0.122
691	0.122
691	0.122
692	0.122
692	0.122
693	0.122
693	0.123
694	0.123
694	0.123
695	0.124
695	0.126
695	0.127
696	0.128
696	0.128
697	0.127
697	0.127
698	0.127
698	0.126
698	0.125
699	0.124
699	0.122
700	0.119
700	0.118
701	0.117
701	0.116
702	0.115
702	0.114
702	0.113
703	0.111
703	0.11
704	0.108
704	0.108
705	0.107
705	0.106
705	0.105
706	0.105
706	0.104
707	0.103
707	0.102
708	0.102
708	0.101
709	0.101
709	0.1
709	0.099
710	0.097
710	0.096
711	0.095
711	0.094
712	0.093
712	0.093
713	0.092
713	0.092
713	0.091
714	0.09
714	0.089
715	0.088
715	0.087
716	0.086
716	0.085
716	0.084
717	0.083
717	0.081
718	0.079
718	0.078
719	0.077
719	0.076
720	0.074
720	0.073
720	0.072
721	0.069
721	0.067
722	0.065
722	0.063
723	0.061
723	0.06
723	0.059
724	0.057
724	0.056
725	0.054
725	0.053
726	0.052
726	0.051
727	0.05
727	0.049
727	0.048
728	0.046
728	0.045
729	0.045
729	0.045
730	0.044
730	0.043
730	0.042
731	0.041
731	0.041
732	0.04
732	0.039
733	0.038
733	0.037
734	0.036
734	0.034
734	0.033
735	0.032
735	0.031
736	0.029
736	0.028
737	0.027
737	0.026
737	0.025
738	0.023
738	0.021
739	0.019
739	0.018
740	0.016
740	0.015
741	0.014
741	0.013
741	0.011
742	0.008
742	0.006
743	0.004
743	0.003
744	0.001
744	-0
744	-0.001
745	-0.003
745	-0.004
746	-0.005
746	-0.005
747	-0.006
747	-0.006
748	-0.005
748	-0.006
748	-0.006
749	-0.007
749	-0.007
750	-0.008
750	-0.008
751	-0.009
751	-0.009
751	-0.009
752	-0.01
752	-0.01
753	-0.011
753	-0.012
754	-0.012
754	-0.013
754	-0.013
755	-0.013
755	-0.012
756	-0.012
756	-0.013
757	-0.014
757	-0.014
758	-0.015
758	-0.016
758	-0.016
759	-0.017
759	-0.018
760	-0.02
760	-0.022
761	-0.024
761	-0.025
761	-0.026
762	-0.027
762	-0.027
763	-0.027
763	-0.028
764	-0.03
764	-0.031
764	-0.032
765	-0.033
765	-0.034
766	-0.035
766	-0.035
767	-0.035
767	-0.037
768	-0.039
768	-0.041
768	-0.042
769	-0.042
769	-0.042
770	-0.043
770	-0.044
771	-0.045
771	-0.047
771	-0.049
772	-0.051
772	-0.053
773	-0.054
773	-0.057
774	-0.06
774	-0.063
775	-0.067
775	-0.07
775	-0.073
776	-0.076
776	-0.08
777	-0.083
777	-0.086
778	-0.089
778	-0.092
778	-0.095
779	-0.097
779	-0.098
780	-0.101
780	-0.105
781	-0.109
781	-0.113
781	-0.117
782	-0.121
782	-0.125
783	-0.13
783	-0.133
784	-0.135
784	-0.138
784	-0.14
785	-0.143
785	-0.145
786	-0.146
786	-0.144
787	-0.139
787	-0.135
788	-0.135
788	-0.136
788	-0.137
789	-0.14
789	-0.14
790	-0.137
790	-0.136
791	-0.137
791	-0.139
791	-0.141
792	-0.136
792	-0.125
793	-0.118
793	-0.113
794	-0.111
794	-0.112
794	-0.115
795	-0.117
795	-0.117
796	-0.117
796	-0.119
797	-0.128
797	-0.139
797	-0.146
798	-0.152
798	-0.155
799	-0.157
799	-0.157
800	-0.157
800	-0.159
801	-0.162
801	-0.163
801	-0.163
802	-0.164
802	-0.165
803	-0.165
803	-0.165
804	-0.164
804	-0.158
804	-0.151
805	-0.147
805	-0.144
806	-0.142
806	-0.141
807	-0.139
807	-0.138
807	-0.138
808	-0.137
808	-0.138
809	-0.142
809	-0.147
810	-0.15
810	-0.152
810	-0.155
811	-0.158
811	-0.159
812	-0.155
812	-0.152
813	-0.153
813	-0.154
813	-0.155
814	-0.157
814	-0.158
815	-0.156
815	-0.154
816	-0.153
816	-0.154
817	-0.159
817	-0.163
817	-0.164
818	-0.163
818	-0.16
819	-0.155
819	-0.152
820	-0.153
820	-0.155
820	-0.156
821	-0.155
821	-0.152
822	-0.149
822	-0.145
823	-0.141
823	-0.139
823	-0.139
824	-0.136
824	-0.13
825	-0.122
825	-0.113
826	-0.105
826	-0.098
826	-0.093
827	-0.087
827	-0.082
828	-0.077
828	-0.073
829	-0.068
829	-0.065
829	-0.062
830	-0.059
830	-0.057
831	-0.053
831	-0.05
832	-0.047
832	-0.045
832	-0.043
833	-0.042
833	-0.041
834	-0.04
834	-0.04
835	-0.039
835	-0.04
835	-0.04
836	-0.04
836	-0.041
837	-0.041
837	-0.041
838	-0.04
838	-0.04
839	-0.04
839	-0.039
839	-0.039
840	-0.038
840	-0.037
841	-0.036
841	-0.035
842	-0.033
842	-0.032
842	-0.031
843	-0.029
843	-0.028
844	-0.027
844	-0.026
845	-0.025
845	-0.025
845	-0.024
846	-0.024
846	-0.023
847	-0.023
847	-0.022
848	-0.022
848	-0.021
848	-0.02
849	-0.019
849	-0.018
850	-0.018
850	-0.017
851	-0.017
851	-0.016
851	-0.016
852	-0.015
852	-0.015
853	-0.015
853	-0.015
854	-0.015
854	-0.015
854	-0.016
855	-0.016
855	-0.016
856	-0.017
856	-0.017
857	-0.017
857	-0.017
857	-0.017
858	-0.016
858	-0.016
859	-0.016
859	-0.015
860	-0.014
860	-0.013
860	-0.012
861	-0.011
861	-0.01
862	-0.009
862	-0.008
863	-0.006
863	-0.005
863	-0.004
864	-0.003
864	-0.002
865	-0.002
865	-0.001
866	-0.001
866	-0.001
866	-0
867	0
867	0.001
868	0.001
868	0.001
869	0.001
869	0.001
869	0.001
870	0.001
870	0
871	-0
871	-0.001
872	-0.002
872	-0.003
872	-0.004
873	-0.005
873	-0.006
874	-0.006
874	-0.007
875	-0.007
875	-0.007
875	-0.007
876	-0.007
876	-0.006
877	-0.006
877	-0.005
878	-0.005
878	-0.005
878	-0.004
879	-0.004
879	-0.003
880	-0.003
880	-0.002
881	-0.002
881	-0.001
881	-0
882	0
882	0.001
883	0.002
883	0.002
884	0.002
884	0.003
884	0.003
885	0.003
885	0.003
886	0.003
886	0.002
887	0.001
887	0.001
887	0
888	-0
888	-0.001
889	-0.001
889	-0.001
890	-0.001
890	-0.001
890	-0.001
891	-0.001
891	-0
892	-0
892	0
893	0.001
893	0.002
893	0.003
894	0.003
894	0.003
895	0.003
895	0.003
895	0.003
896	0.003
896	0.002
897	0.002
897	0.001
898	-0
898	-0.001
898	-0.002
899	-0.003
899	-0.004
900	-0.004
900	-0.005
901	-0.005
901	-0.006
901	-0.006
902	-0.006
902	-0.006
903	-0.007
903	-0.007
904	-0.007
904	-0.007
904	-0.006
905	-0.006
905	-0.006
906	-0.005
906	-0.005
907	-0.005
907	-0.005
907	-0.004
908	-0.004
908	-0.004
909	-0.004
909	-0.004
910	-0.004
910	-0.005
910	-0.005
911	-0.004
911	-0.004
912	-0.003
912	-0.002
913	-0.002
913	-0
913	0.001
914	0.002
914	0.003
915	0.004
915	0.005
916	0.006
916	0.007
916	0.007
917	0.007
917	0.007
918	0.007
918	0.007
918	0.006
919	0.006
919	0.005
920	0.004
920	0.003
921	0.002
921	0.001
921	-0
922	-0.001
922	-0.001
923	-0.001
923	-0.001
924	-0.001
924	-0.001
924	-0
925	0
925	0.001
926	0.002
926	0.003
927	0.003
927	0.003
927	0.004
928	0.005
928	0.005
929	0.006
929	0.006
930	0.006
930	0.006
930	0.006
931	0.006
931	0.006
932	0.006
932	0.006
933	0.006
933	0.006
933	0.006
934	0.006
934	0.006
935	0.006
935	0.007
935	0.007
936	0.007
936	0.007
937	0.006
937	0.006
938	0.006
938	0.005
938	0.004
939	0.004
939	0.004
940	0.004
940	0.004
941	0.004
941	0.004
941	0.005
942	0.005
942	0.005
943	0.006
943	0.006
944	0.007
944	0.007
944	0.008
945	0.009
945	0.009
946	0.01
946	0.011
946	0.011
947	0.012
947	0.011
948	0.011
948	0.011
949	0.011
949	0.01
949	0.01
950	0.009
950	0.008
951	0.008
951	0.007
952	0.007
952	0.007
952	0.007
953	0.007
953	0.007
954	0.007
954	0.007
955	0.006
955	0.006
955	0.006
956	0.006
956	0.006
957	0.006
957	0.006
957	0.006
958	0.006
958	0.006
959	0.006
959	0.006
960	0.006
960	0.007
960	0.007
961	0.007
961	0.008
962	0.008
962	0.009
963	0.009
963	0.009
963	0.01
964	0.01
964	0.01
965	0.01
965	0.01
966	0.009
966	0.009
966	0.009
967	0.008
967	0.007
968	0.007
968	0.007
968	0.006
969	0.006
969	0.006
970	0.006
970	0.006
971	0.006
971	0.006
971	0.007
972	0.007
972	0.008
973	0.009
973	0.009
974	0.01
974	0.011
974	0.011
975	0.011
975	0.012
976	0.011
976	0.011
976	0.011
977	0.01
977	0.009
978	0.008
978	0.007
979	0.006
979	0.005
979	0.004
980	0.003
980	0.002
981	0.002
981	0.001
982	0
982	-0
982	-0
983	-0.001
983	-0.001
984	-0.001
984	-0.001
984	-0.001
985	-0.001
985	-0.001
986	-0.001
986	-0.001
987	-0.001
987	-0.002
987	-0.002
988	-0.002
988	-0.002
989	-0.003
989	-0.003
990	-0.003
990	-0.003
990	-0.004
991	-0.004
991	-0.004
992	-0.004
992	-0.004
992	-0.004
993	-0.004
993	-0.004
994	-0.005
994	-0.005
995	-0.006
995	-0.006
995	-0.006
996	-0.007
996	-0.007
997	-0.008
997	-0.007
997	-0.007
998	-0.007
998	-0.007
999	-0.006
999	-0.005
1000	-0.005
1000	-0.004
1000	-0.003
1001	-0.002
1001	-0.001
1002	-0.001
1002	-0
1003	0
1003	0
1003	-0
1004	-0
1004	-0
1005	-0.001
1005	-0.001
1005	-0.001
1006	-0.002
1006	-0.002
1007	-0.002
1007	-0.002
1008	-0.002
1008	-0.002
1008	-0.002
1009	-0.002
1009	-0.002
1010	-0.001
1010	-0.001
1010	0
1011	0.001
1011	0.002
1012	0.003
1012	0.003
1013	0.004
1013	0.005
1013	0.006
1014	0.006
1014	0.007
1015	0.007
1015	0.007
1016	0.007
1016	0.008
1016	0.007
1017	0.008
1017	0.008
1018	0.008
1018	0.008
1018	0.008
1019	0.008
1019	0.007
1020	0.007
1020	0.006
1021	0.006
1021	0.006
1021	0.005
1022	0.005
1022	0.005
1023	0.005
1023	0.004
1023	0.004
1024	0.004
1024	0.004
1025	0.004
1025	0.004
1026	0.005
1026	0.005
1026	0.005
1027	0.005
1027	0.005
1028	0.005
1028	0.006
1028	0.006
1029	0.006
1029	0.006
1030	0.007
1030	0.007
1031	0.007
1031	0.007
1031	0.008
1032	0.008
1032	0.008
1033	0.008
1033	0.008
1033	0.008
1034	0.008
1034	0.008
1035	0.008
1035	0.008
1036	0.008
1036	0.008
1036	0.009
1037	0.009
1037	0.01
1038	0.011
1038	0.011
1039	0.012
1039	0.013
1039	0.014
1040	0.014
1040	0.015
1041	0.016
1041	0.016
1041	0.017
1042	0.017
1042	0.017
1043	0.018
1043	0.018
1044	0.019
1044	0.019
1044	0.02
1045	0.021
1045	0.022
1046	0.022
1046	0.023
1046	0.025
1047	0.026
1047	0.028
1048	0.029
1048	0.03
1049	0.031
1049	0.032
1049	0.032
1050	0.033
1050	0.033
1051	0.033
1051	0.033
1051	0.033
1052	0.032
1052	0.032
1053	0.031
1053	0.031
1053	0.03
1054	0.029
1054	0.029
1055	0.028
1055	0.027
1056	0.026
1056	0.026
1056	0.025
1057	0.025
1057	0.025
1058	0.025
1058	0.025
1058	0.025
1059	0.025
1059	0.025
1060	0.026
1060	0.026
1061	0.027
1061	0.028
1061	0.029
1062	0.029
1062	0.03
1063	0.031
1063	0.031
1063	0.032
1064	0.034
1064	0.035
1065	0.037
1065	0.038
1066	0.04
1066	0.042
1066	0.044
1067	0.046
1067	0.048
1068	0.051
1068	0.052
1068	0.054
1069	0.056
1069	0.057
1070	0.058
1070	0.06
1071	0.061
1071	0.062
1071	0.063
1072	0.064
1072	0.065
1073	0.066
1073	0.067
1073	0.068
1074	0.069
1074	0.07
1075	0.069
1075	0.07
1076	0.07
1076	0.071
1076	0.071
1077	0.072
1077	0.073
1078	0.075
1078	0.077
1078	0.078
1079	0.08
1079	0.082
1080	0.084
1080	0.086
1080	0.088
1081	0.09
1081	0.092
1082	0.094
1082	0.095
1083	0.097
1083	0.1
1083	0.102
1084	0.105
1084	0.107
1085	0.11
1085	0.113
1085	0.115
1086	0.117
1086	0.12
1087	0.123
1087	0.126
1088	0.128
1088	0.132
1088	0.135
1089	0.139
1089	0.143
1090	0.148
1090	0.154
1090	0.159
1091	0.166
1091	0.173
1092	0.18
1092	0.188
1092	0.196
1093	0.204
1093	0.213
1094	0.223
1094	0.233
1095	0.243
1095	0.255
1095	0.269
1096	0.283
1096	0.298
1097	0.316
1097	0.334
1097	0.355
1098	0.378
1098	0.404
1099	0.432
1099	0.465
1100	0.502
1100	0.546
1100	0.596
1101	0.661
1101	0.737
1102	0.839
1102	0.985
1102	1.218
1103	1.824
1103	-0
1104	-0
1104	-0
1104	-0
1105	-0
1105	-0
1106	-0
1106	-0
1107	-0
1107	-0
1107	-0
1108	-0
1108	-0
1109	-0
1109	-0
1109	-0
1110	-0
1110	-0
1111	-0
1111	-0
