Data from 15c-2-4a_Absorbance__43__00043.txt Node

Date: Thu Jan 25 10:05:37 CET 2024
User: Marek
Spectrometer: MAYP115816
Trigger mode: 0
Integration Time (sec): 2.000000E-1
Scans to average: 10
Electric dark correction enabled: true
Nonlinearity correction enabled: true
Boxcar width: 5
XAxis mode: Wavelengths
Number of Pixels in Spectrum: 2068
>>>>>Begin Spectral Data<<<<<
199	-2.125
199	-1.954
200	-1.799
200	-1.677
201	-1.599
201	-1.542
202	-1.459
202	-1.396
203	-1.343
203	-1.296
204	-1.27
204	-1.242
205	-1.222
205	-1.211
205	-1.204
206	-1.2
206	-1.196
207	-1.196
207	-1.192
208	-1.188
208	-1.184
209	-1.179
209	-1.176
210	-1.174
210	-1.171
211	-1.17
211	-1.168
212	-1.165
212	-1.162
213	-1.161
213	-1.161
213	-1.161
214	-1.16
214	-1.159
215	-1.157
215	-1.155
216	-1.153
216	-1.151
217	-1.15
217	-1.146
218	-1.145
218	-1.142
219	-1.14
219	-1.137
220	-1.136
220	-1.132
221	-1.128
221	-1.126
221	-1.123
222	-1.12
222	-1.119
223	-1.114
223	-1.108
224	-1.101
224	-1.093
225	-1.084
225	-1.076
226	-1.065
226	-1.053
227	-1.039
227	-1.026
228	-1.007
228	-0.989
229	-0.968
229	-0.945
229	-0.921
230	-0.892
230	-0.864
231	-0.831
231	-0.796
232	-0.757
232	-0.716
233	-0.674
233	-0.631
234	-0.588
234	-0.544
235	-0.5
235	-0.459
236	-0.418
236	-0.38
236	-0.343
237	-0.308
237	-0.276
238	-0.247
238	-0.219
239	-0.194
239	-0.17
240	-0.149
240	-0.129
241	-0.11
241	-0.094
242	-0.079
242	-0.065
243	-0.053
243	-0.041
243	-0.03
244	-0.02
244	-0.012
245	-0.004
245	0.004
246	0.011
246	0.017
247	0.024
247	0.029
248	0.035
248	0.039
249	0.044
249	0.048
250	0.052
250	0.056
250	0.06
251	0.063
251	0.067
252	0.07
252	0.073
253	0.076
253	0.079
254	0.081
254	0.084
255	0.086
255	0.088
256	0.09
256	0.092
257	0.093
257	0.095
258	0.096
258	0.098
258	0.099
259	0.1
259	0.101
260	0.101
260	0.102
261	0.102
261	0.103
262	0.103
262	0.103
263	0.103
263	0.103
264	0.103
264	0.103
265	0.103
265	0.103
265	0.102
266	0.102
266	0.102
267	0.101
267	0.101
268	0.1
268	0.099
269	0.099
269	0.098
270	0.097
270	0.096
271	0.094
271	0.094
272	0.092
272	0.091
272	0.09
273	0.089
273	0.088
274	0.086
274	0.085
275	0.084
275	0.082
276	0.081
276	0.08
277	0.078
277	0.077
278	0.075
278	0.074
278	0.072
279	0.071
279	0.07
280	0.069
280	0.068
281	0.066
281	0.065
282	0.065
282	0.064
283	0.063
283	0.062
284	0.061
284	0.06
285	0.059
285	0.058
285	0.057
286	0.056
286	0.055
287	0.054
287	0.053
288	0.052
288	0.051
289	0.05
289	0.05
290	0.049
290	0.048
291	0.048
291	0.047
292	0.046
292	0.046
292	0.045
293	0.044
293	0.044
294	0.043
294	0.043
295	0.042
295	0.042
296	0.042
296	0.042
297	0.041
297	0.041
298	0.041
298	0.04
298	0.04
299	0.04
299	0.04
300	0.039
300	0.039
301	0.039
301	0.039
302	0.038
302	0.038
303	0.038
303	0.038
304	0.038
304	0.038
305	0.038
305	0.037
305	0.037
306	0.037
306	0.037
307	0.037
307	0.036
308	0.036
308	0.036
309	0.036
309	0.036
310	0.035
310	0.035
311	0.035
311	0.035
311	0.034
312	0.034
312	0.034
313	0.034
313	0.034
314	0.034
314	0.033
315	0.033
315	0.033
316	0.033
316	0.033
317	0.032
317	0.032
318	0.032
318	0.032
318	0.031
319	0.031
319	0.031
320	0.031
320	0.03
321	0.03
321	0.03
322	0.029
322	0.029
323	0.029
323	0.029
324	0.028
324	0.028
324	0.028
325	0.027
325	0.027
326	0.027
326	0.027
327	0.027
327	0.026
328	0.026
328	0.026
329	0.026
329	0.025
330	0.025
330	0.025
330	0.024
331	0.024
331	0.024
332	0.023
332	0.023
333	0.023
333	0.022
334	0.022
334	0.022
335	0.022
335	0.021
336	0.021
336	0.021
336	0.021
337	0.021
337	0.021
338	0.02
338	0.02
339	0.02
339	0.02
340	0.019
340	0.019
341	0.019
341	0.019
342	0.018
342	0.018
342	0.017
343	0.017
343	0.017
344	0.017
344	0.016
345	0.016
345	0.016
346	0.015
346	0.015
347	0.015
347	0.014
348	0.014
348	0.014
348	0.013
349	0.013
349	0.013
350	0.012
350	0.012
351	0.011
351	0.011
352	0.011
352	0.01
353	0.01
353	0.01
354	0.009
354	0.009
354	0.008
355	0.008
355	0.007
356	0.007
356	0.007
357	0.007
357	0.007
358	0.007
358	0.007
359	0.008
359	0.008
360	0.008
360	0.009
360	0.009
361	0.009
361	0.009
362	0.009
362	0.009
363	0.009
363	0.009
364	0.008
364	0.008
365	0.008
365	0.008
366	0.007
366	0.007
366	0.007
367	0.007
367	0.007
368	0.007
368	0.007
369	0.006
369	0.006
370	0.006
370	0.006
371	0.006
371	0.005
372	0.005
372	0.005
372	0.005
373	0.005
373	0.005
374	0.005
374	0.005
375	0.004
375	0.004
376	0.004
376	0.005
377	0.005
377	0.005
378	0.005
378	0.005
378	0.005
379	0.005
379	0.006
380	0.006
380	0.006
381	0.006
381	0.006
382	0.006
382	0.006
383	0.005
383	0.005
383	0.005
384	0.005
384	0.004
385	0.004
385	0.004
386	0.004
386	0.004
387	0.004
387	0.004
388	0.004
388	0.004
389	0.005
389	0.005
389	0.005
390	0.005
390	0.005
391	0.005
391	0.005
392	0.006
392	0.006
393	0.006
393	0.006
394	0.006
394	0.005
394	0.005
395	0.005
395	0.005
396	0.005
396	0.005
397	0.005
397	0.005
398	0.005
398	0.005
399	0.005
399	0.005
400	0.005
400	0.004
400	0.004
401	0.004
401	0.004
402	0.003
402	0.003
403	0.003
403	0.003
404	0.003
404	0.003
405	0.003
405	0.002
405	0.002
406	0.002
406	0.002
407	0.002
407	0.002
408	0.001
408	0.001
409	0
409	0
410	0
410	0
411	0
411	0.001
411	0
412	0
412	0
413	-0
413	-0
414	0
414	0
415	-0
415	-0
416	-0
416	-0.001
416	-0.001
417	-0.001
417	-0.001
418	-0.001
418	-0.001
419	-0.001
419	-0
420	0
420	0.001
421	0.001
421	0.001
421	0.002
422	0.002
422	0.001
423	0.001
423	0.001
424	0.001
424	0.001
425	0
425	-0
426	-0.001
426	-0.001
427	-0.001
427	-0.001
427	-0
428	-0
428	0
429	0.001
429	0.001
430	0.001
430	0.001
431	0
431	0
432	0
432	-0
432	-0.001
433	-0.002
433	-0.002
434	-0.003
434	-0.003
435	-0.003
435	-0.003
436	-0.003
436	-0.003
437	-0.003
437	-0.003
437	-0.003
438	-0.003
438	-0.003
439	-0.003
439	-0.004
440	-0.004
440	-0.004
441	-0.004
441	-0.004
442	-0.004
442	-0.004
442	-0.003
443	-0.003
443	-0.003
444	-0.003
444	-0.002
445	-0.002
445	-0.002
446	-0.002
446	-0.002
447	-0.002
447	-0.002
447	-0.002
448	-0.003
448	-0.003
449	-0.003
449	-0.003
450	-0.003
450	-0.003
451	-0.003
451	-0.004
452	-0.004
452	-0.005
452	-0.005
453	-0.005
453	-0.006
454	-0.006
454	-0.007
455	-0.007
455	-0.007
456	-0.007
456	-0.008
457	-0.008
457	-0.008
458	-0.008
458	-0.008
458	-0.008
459	-0.008
459	-0.007
460	-0.008
460	-0.008
461	-0.008
461	-0.008
462	-0.009
462	-0.009
463	-0.009
463	-0.009
463	-0.008
464	-0.008
464	-0.008
465	-0.008
465	-0.008
466	-0.009
466	-0.008
467	-0.009
467	-0.009
467	-0.01
468	-0.011
468	-0.012
469	-0.013
469	-0.015
470	-0.015
470	-0.016
471	-0.016
471	-0.016
472	-0.017
472	-0.017
472	-0.017
473	-0.016
473	-0.016
474	-0.015
474	-0.014
475	-0.014
475	-0.013
476	-0.013
476	-0.013
477	-0.013
477	-0.013
477	-0.013
478	-0.013
478	-0.013
479	-0.013
479	-0.013
480	-0.012
480	-0.012
481	-0.012
481	-0.012
482	-0.011
482	-0.011
482	-0.01
483	-0.009
483	-0.008
484	-0.006
484	-0.005
485	-0.004
485	-0.004
486	-0.003
486	-0.003
487	-0.003
487	-0.003
487	-0.003
488	-0.004
488	-0.005
489	-0.007
489	-0.008
490	-0.009
490	-0.01
491	-0.011
491	-0.011
492	-0.011
492	-0.011
492	-0.011
493	-0.011
493	-0.011
494	-0.01
494	-0.009
495	-0.009
495	-0.008
496	-0.008
496	-0.008
496	-0.008
497	-0.008
497	-0.008
498	-0.008
498	-0.008
499	-0.009
499	-0.009
500	-0.009
500	-0.009
501	-0.008
501	-0.008
501	-0.007
502	-0.006
502	-0.006
503	-0.005
503	-0.005
504	-0.004
504	-0.004
505	-0.004
505	-0.004
506	-0.004
506	-0.004
506	-0.005
507	-0.005
507	-0.005
508	-0.005
508	-0.005
509	-0.005
509	-0.005
510	-0.005
510	-0.006
511	-0.006
511	-0.006
511	-0.006
512	-0.007
512	-0.007
513	-0.008
513	-0.008
514	-0.009
514	-0.01
515	-0.01
515	-0.011
515	-0.012
516	-0.013
516	-0.013
517	-0.013
517	-0.013
518	-0.013
518	-0.013
519	-0.014
519	-0.014
520	-0.015
520	-0.016
520	-0.018
521	-0.019
521	-0.021
522	-0.023
522	-0.025
523	-0.027
523	-0.029
524	-0.029
524	-0.03
524	-0.029
525	-0.028
525	-0.027
526	-0.025
526	-0.024
527	-0.021
527	-0.019
528	-0.017
528	-0.014
529	-0.013
529	-0.012
529	-0.011
530	-0.01
530	-0.009
531	-0.008
531	-0.008
532	-0.008
532	-0.007
533	-0.007
533	-0.006
533	-0.006
534	-0.006
534	-0.006
535	-0.006
535	-0.006
536	-0.006
536	-0.006
537	-0.006
537	-0.006
538	-0.007
538	-0.007
538	-0.007
539	-0.008
539	-0.008
540	-0.008
540	-0.008
541	-0.008
541	-0.008
542	-0.009
542	-0.009
542	-0.009
543	-0.009
543	-0.009
544	-0.009
544	-0.009
545	-0.009
545	-0.009
546	-0.008
546	-0.008
547	-0.008
547	-0.009
547	-0.01
548	-0.011
548	-0.011
549	-0.012
549	-0.013
550	-0.014
550	-0.014
551	-0.015
551	-0.016
551	-0.017
552	-0.017
552	-0.017
553	-0.017
553	-0.016
554	-0.016
554	-0.016
555	-0.016
555	-0.017
556	-0.018
556	-0.018
556	-0.019
557	-0.02
557	-0.021
558	-0.022
558	-0.022
559	-0.023
559	-0.022
560	-0.022
560	-0.022
560	-0.021
561	-0.021
561	-0.02
562	-0.019
562	-0.019
563	-0.019
563	-0.02
564	-0.021
564	-0.022
564	-0.024
565	-0.024
565	-0.025
566	-0.025
566	-0.025
567	-0.024
567	-0.023
568	-0.022
568	-0.02
568	-0.018
569	-0.016
569	-0.014
570	-0.013
570	-0.012
571	-0.011
571	-0.01
572	-0.009
572	-0.008
573	-0.007
573	-0.007
573	-0.007
574	-0.007
574	-0.006
575	-0.006
575	-0.005
576	-0.004
576	-0.003
577	-0.003
577	-0.003
577	-0.003
578	-0.003
578	-0.003
579	-0.003
579	-0.002
580	-0.001
580	-0.002
581	-0.003
581	-0.004
581	-0.004
582	-0.004
582	-0.004
583	-0.004
583	-0.003
584	-0.004
584	-0.005
585	-0.006
585	-0.007
585	-0.007
586	-0.007
586	-0.007
587	-0.007
587	-0.008
588	-0.009
588	-0.011
589	-0.012
589	-0.013
590	-0.013
590	-0.014
590	-0.014
591	-0.014
591	-0.013
592	-0.013
592	-0.013
593	-0.013
593	-0.013
594	-0.013
594	-0.013
594	-0.013
595	-0.013
595	-0.014
596	-0.014
596	-0.014
597	-0.013
597	-0.013
598	-0.012
598	-0.011
598	-0.011
599	-0.01
599	-0.01
600	-0.01
600	-0.011
601	-0.011
601	-0.012
602	-0.013
602	-0.014
602	-0.014
603	-0.015
603	-0.015
604	-0.015
604	-0.015
605	-0.014
605	-0.013
606	-0.013
606	-0.013
606	-0.013
607	-0.013
607	-0.013
608	-0.013
608	-0.013
609	-0.014
609	-0.014
610	-0.015
610	-0.016
610	-0.016
611	-0.016
611	-0.015
612	-0.014
612	-0.014
613	-0.013
613	-0.012
614	-0.012
614	-0.012
614	-0.012
615	-0.012
615	-0.013
616	-0.014
616	-0.014
617	-0.015
617	-0.016
618	-0.018
618	-0.019
618	-0.019
619	-0.02
619	-0.02
620	-0.02
620	-0.019
621	-0.019
621	-0.019
622	-0.019
622	-0.019
622	-0.019
623	-0.019
623	-0.019
624	-0.019
624	-0.019
625	-0.02
625	-0.02
626	-0.02
626	-0.02
626	-0.021
627	-0.021
627	-0.021
628	-0.021
628	-0.021
629	-0.021
629	-0.021
630	-0.021
630	-0.022
630	-0.022
631	-0.023
631	-0.022
632	-0.023
632	-0.023
633	-0.023
633	-0.023
634	-0.023
634	-0.022
634	-0.022
635	-0.021
635	-0.021
636	-0.02
636	-0.02
637	-0.019
637	-0.019
638	-0.019
638	-0.019
638	-0.019
639	-0.019
639	-0.019
640	-0.019
640	-0.019
641	-0.018
641	-0.018
642	-0.017
642	-0.016
642	-0.015
643	-0.015
643	-0.013
644	-0.012
644	-0.011
645	-0.01
645	-0.01
646	-0.009
646	-0.008
646	-0.007
647	-0.006
647	-0.004
648	-0.003
648	-0.002
649	-0.001
649	0
650	0.001
650	0.002
650	0.004
651	0.005
651	0.005
652	0.005
652	0.005
653	0.006
653	0.009
653	0.009
654	0.009
654	0.01
655	0.012
655	0.012
656	0.013
656	0.014
657	0.015
657	0.016
657	0.017
658	0.016
658	0.018
659	0.02
659	0.023
660	0.022
660	0.022
661	0.022
661	0.022
661	0.023
662	0.023
662	0.024
663	0.025
663	0.026
664	0.027
664	0.028
665	0.028
665	0.029
665	0.03
666	0.031
666	0.032
667	0.033
667	0.034
668	0.035
668	0.036
669	0.036
669	0.038
669	0.039
670	0.041
670	0.042
671	0.043
671	0.044
672	0.044
672	0.044
672	0.045
673	0.045
673	0.045
674	0.045
674	0.045
675	0.044
675	0.044
676	0.045
676	0.045
676	0.046
677	0.047
677	0.048
678	0.049
678	0.049
679	0.05
679	0.05
680	0.051
680	0.052
680	0.052
681	0.052
681	0.052
682	0.053
682	0.054
683	0.055
683	0.056
684	0.057
684	0.058
684	0.058
685	0.058
685	0.059
686	0.06
686	0.059
687	0.059
687	0.059
687	0.058
688	0.057
688	0.056
689	0.055
689	0.055
690	0.055
690	0.054
691	0.054
691	0.054
691	0.054
692	0.054
692	0.053
693	0.054
693	0.054
694	0.055
694	0.055
695	0.055
695	0.057
695	0.058
696	0.059
696	0.059
697	0.059
697	0.059
698	0.059
698	0.059
698	0.058
699	0.057
699	0.056
700	0.054
700	0.053
701	0.053
701	0.052
702	0.051
702	0.051
702	0.05
703	0.049
703	0.049
704	0.048
704	0.047
705	0.047
705	0.047
705	0.046
706	0.046
706	0.045
707	0.044
707	0.044
708	0.043
708	0.043
709	0.043
709	0.042
709	0.041
710	0.04
710	0.039
711	0.039
711	0.038
712	0.038
712	0.038
713	0.038
713	0.038
713	0.038
714	0.037
714	0.037
715	0.036
715	0.036
716	0.035
716	0.034
716	0.033
717	0.032
717	0.031
718	0.03
718	0.029
719	0.028
719	0.027
720	0.026
720	0.025
720	0.024
721	0.022
721	0.021
722	0.019
722	0.017
723	0.016
723	0.015
723	0.014
724	0.013
724	0.012
725	0.01
725	0.01
726	0.009
726	0.009
727	0.008
727	0.008
727	0.008
728	0.007
728	0.006
729	0.006
729	0.007
730	0.006
730	0.006
730	0.005
731	0.005
731	0.004
732	0.004
732	0.003
733	0.003
733	0.002
734	0.001
734	0
734	-0.001
735	-0.001
735	-0.002
736	-0.003
736	-0.004
737	-0.005
737	-0.006
737	-0.007
738	-0.008
738	-0.009
739	-0.01
739	-0.011
740	-0.012
740	-0.012
741	-0.013
741	-0.014
741	-0.016
742	-0.018
742	-0.02
743	-0.022
743	-0.023
744	-0.024
744	-0.025
744	-0.026
745	-0.027
745	-0.028
746	-0.029
746	-0.03
747	-0.03
747	-0.03
748	-0.03
748	-0.031
748	-0.031
749	-0.032
749	-0.032
750	-0.032
750	-0.032
751	-0.032
751	-0.032
751	-0.031
752	-0.031
752	-0.031
753	-0.031
753	-0.031
754	-0.031
754	-0.031
754	-0.032
755	-0.031
755	-0.031
756	-0.031
756	-0.031
757	-0.032
757	-0.033
758	-0.033
758	-0.034
758	-0.034
759	-0.035
759	-0.036
760	-0.037
760	-0.039
761	-0.041
761	-0.042
761	-0.043
762	-0.044
762	-0.044
763	-0.044
763	-0.044
764	-0.045
764	-0.047
764	-0.047
765	-0.048
765	-0.049
766	-0.05
766	-0.05
767	-0.051
767	-0.052
768	-0.054
768	-0.056
768	-0.057
769	-0.057
769	-0.057
770	-0.057
770	-0.058
771	-0.059
771	-0.06
771	-0.062
772	-0.063
772	-0.065
773	-0.067
773	-0.069
774	-0.071
774	-0.074
775	-0.077
775	-0.08
775	-0.084
776	-0.087
776	-0.091
777	-0.094
777	-0.098
778	-0.101
778	-0.105
778	-0.108
779	-0.111
779	-0.111
780	-0.113
780	-0.116
781	-0.119
781	-0.121
781	-0.123
782	-0.126
782	-0.13
783	-0.133
783	-0.135
784	-0.136
784	-0.139
784	-0.141
785	-0.143
785	-0.145
786	-0.145
786	-0.143
787	-0.139
787	-0.135
788	-0.134
788	-0.135
788	-0.137
789	-0.14
789	-0.14
790	-0.137
790	-0.136
791	-0.137
791	-0.139
791	-0.141
792	-0.135
792	-0.124
793	-0.117
793	-0.113
794	-0.11
794	-0.112
794	-0.115
795	-0.117
795	-0.116
796	-0.116
796	-0.119
797	-0.128
797	-0.139
797	-0.146
798	-0.151
798	-0.155
799	-0.156
799	-0.156
800	-0.157
800	-0.159
801	-0.162
801	-0.163
801	-0.163
802	-0.164
802	-0.165
803	-0.165
803	-0.165
804	-0.163
804	-0.158
804	-0.151
805	-0.146
805	-0.144
806	-0.142
806	-0.14
807	-0.139
807	-0.138
807	-0.138
808	-0.137
808	-0.138
809	-0.142
809	-0.147
810	-0.15
810	-0.152
810	-0.155
811	-0.158
811	-0.158
812	-0.155
812	-0.152
813	-0.152
813	-0.154
813	-0.155
814	-0.157
814	-0.157
815	-0.156
815	-0.154
816	-0.152
816	-0.153
817	-0.158
817	-0.162
817	-0.163
818	-0.163
818	-0.16
819	-0.154
819	-0.151
820	-0.152
820	-0.154
820	-0.155
821	-0.154
821	-0.151
822	-0.148
822	-0.144
823	-0.14
823	-0.138
823	-0.138
824	-0.134
824	-0.128
825	-0.12
825	-0.111
826	-0.103
826	-0.096
826	-0.09
827	-0.085
827	-0.08
828	-0.075
828	-0.071
829	-0.068
829	-0.064
829	-0.062
830	-0.06
830	-0.059
831	-0.056
831	-0.054
832	-0.051
832	-0.05
832	-0.048
833	-0.047
833	-0.046
834	-0.045
834	-0.044
835	-0.044
835	-0.043
835	-0.043
836	-0.043
836	-0.043
837	-0.043
837	-0.043
838	-0.043
838	-0.043
839	-0.042
839	-0.042
839	-0.042
840	-0.041
840	-0.04
841	-0.039
841	-0.039
842	-0.037
842	-0.036
842	-0.035
843	-0.034
843	-0.033
844	-0.032
844	-0.032
845	-0.031
845	-0.031
845	-0.03
846	-0.03
846	-0.03
847	-0.03
847	-0.029
848	-0.029
848	-0.028
848	-0.027
849	-0.027
849	-0.026
850	-0.024
850	-0.024
851	-0.023
851	-0.021
851	-0.02
852	-0.02
852	-0.019
853	-0.019
853	-0.019
854	-0.019
854	-0.019
854	-0.019
855	-0.019
855	-0.019
856	-0.019
856	-0.019
857	-0.019
857	-0.018
857	-0.018
858	-0.018
858	-0.017
859	-0.016
859	-0.016
860	-0.015
860	-0.014
860	-0.014
861	-0.013
861	-0.012
862	-0.011
862	-0.01
863	-0.009
863	-0.007
863	-0.006
864	-0.005
864	-0.004
865	-0.004
865	-0.003
866	-0.003
866	-0.002
866	-0.002
867	-0.002
867	-0.002
868	-0.003
868	-0.003
869	-0.004
869	-0.004
869	-0.004
870	-0.005
870	-0.005
871	-0.005
871	-0.006
872	-0.006
872	-0.007
872	-0.007
873	-0.007
873	-0.007
874	-0.006
874	-0.006
875	-0.006
875	-0.005
875	-0.005
876	-0.004
876	-0.003
877	-0.002
877	-0.002
878	-0.001
878	-0.001
878	-0.001
879	-0.001
879	-0.001
880	-0.002
880	-0.002
881	-0.002
881	-0.002
881	-0.003
882	-0.003
882	-0.003
883	-0.003
883	-0.003
884	-0.002
884	-0.002
884	-0.002
885	-0.002
885	-0.002
886	-0.002
886	-0.002
887	-0.003
887	-0.003
887	-0.003
888	-0.004
888	-0.004
889	-0.004
889	-0.005
890	-0.005
890	-0.005
890	-0.005
891	-0.005
891	-0.005
892	-0.005
892	-0.005
893	-0.004
893	-0.004
893	-0.003
894	-0.003
894	-0.003
895	-0.003
895	-0.004
895	-0.004
896	-0.004
896	-0.004
897	-0.004
897	-0.005
898	-0.005
898	-0.006
898	-0.006
899	-0.007
899	-0.007
900	-0.007
900	-0.007
901	-0.008
901	-0.008
901	-0.008
902	-0.009
902	-0.009
903	-0.009
903	-0.009
904	-0.009
904	-0.009
904	-0.009
905	-0.008
905	-0.007
906	-0.006
906	-0.005
907	-0.004
907	-0.003
907	-0.003
908	-0.002
908	-0.002
909	-0.001
909	-0.001
910	-0.001
910	-0.001
910	-0.001
911	-0.001
911	-0.001
912	-0.001
912	-0.001
913	-0
913	0
913	0
914	0.001
914	0.002
915	0.002
915	0.003
916	0.003
916	0.003
916	0.003
917	0.003
917	0.003
918	0.002
918	0.002
918	0.001
919	0.001
919	-0
920	-0.001
920	-0.002
921	-0.002
921	-0.003
921	-0.003
922	-0.003
922	-0.003
923	-0.003
923	-0.003
924	-0.002
924	-0.002
924	-0.001
925	-0.001
925	0
926	0.001
926	0.001
927	0.001
927	0.002
927	0.002
928	0.002
928	0.002
929	0.003
929	0.003
930	0.003
930	0.003
930	0.002
931	0.002
931	0.002
932	0.002
932	0.002
933	0.002
933	0.002
933	0.002
934	0.002
934	0.003
935	0.003
935	0.004
935	0.005
936	0.005
936	0.005
937	0.006
937	0.005
938	0.005
938	0.005
938	0.005
939	0.004
939	0.004
940	0.004
940	0.004
941	0.005
941	0.005
941	0.006
942	0.007
942	0.007
943	0.008
943	0.009
944	0.01
944	0.011
944	0.012
945	0.013
945	0.013
946	0.014
946	0.014
946	0.015
947	0.015
947	0.015
948	0.014
948	0.014
949	0.013
949	0.013
949	0.012
950	0.011
950	0.01
951	0.009
951	0.009
952	0.008
952	0.008
952	0.008
953	0.008
953	0.008
954	0.008
954	0.009
955	0.009
955	0.01
955	0.011
956	0.011
956	0.011
957	0.011
957	0.011
957	0.011
958	0.011
958	0.011
959	0.011
959	0.011
960	0.011
960	0.011
960	0.011
961	0.011
961	0.012
962	0.012
962	0.013
963	0.013
963	0.013
963	0.014
964	0.014
964	0.014
965	0.014
965	0.014
966	0.014
966	0.013
966	0.012
967	0.011
967	0.01
968	0.01
968	0.009
968	0.008
969	0.007
969	0.006
970	0.006
970	0.006
971	0.005
971	0.006
971	0.006
972	0.007
972	0.007
973	0.008
973	0.009
974	0.009
974	0.01
974	0.01
975	0.011
975	0.011
976	0.011
976	0.011
976	0.01
977	0.009
977	0.009
978	0.008
978	0.007
979	0.006
979	0.005
979	0.004
980	0.004
980	0.003
981	0.002
981	0.002
982	0.001
982	0.001
982	0
983	0
983	-0
984	-0
984	-0
984	-0
985	-0
985	-0.001
986	-0.001
986	-0.001
987	-0.001
987	-0.001
987	-0.001
988	-0.001
988	-0.001
989	-0.001
989	-0
990	-0
990	0
990	0
991	0.001
991	0.001
992	0.001
992	0
992	0
993	-0
993	-0
994	-0.001
994	-0.001
995	-0.002
995	-0.002
995	-0.003
996	-0.003
996	-0.004
997	-0.004
997	-0.004
997	-0.004
998	-0.004
998	-0.003
999	-0.003
999	-0.002
1000	-0.001
1000	-0.001
1000	0
1001	0.001
1001	0.001
1002	0.002
1002	0.002
1003	0.002
1003	0.002
1003	0.002
1004	0.002
1004	0.002
1005	0.002
1005	0.001
1005	0.001
1006	0.001
1006	0.001
1007	0.001
1007	0.002
1008	0.002
1008	0.002
1008	0.002
1009	0.002
1009	0.002
1010	0.003
1010	0.003
1010	0.004
1011	0.004
1011	0.005
1012	0.006
1012	0.007
1013	0.008
1013	0.009
1013	0.01
1014	0.011
1014	0.012
1015	0.013
1015	0.014
1016	0.014
1016	0.015
1016	0.015
1017	0.016
1017	0.017
1018	0.017
1018	0.017
1018	0.018
1019	0.018
1019	0.018
1020	0.018
1020	0.018
1021	0.018
1021	0.017
1021	0.017
1022	0.017
1022	0.016
1023	0.016
1023	0.016
1023	0.016
1024	0.016
1024	0.016
1025	0.015
1025	0.015
1026	0.015
1026	0.015
1026	0.014
1027	0.014
1027	0.014
1028	0.014
1028	0.013
1028	0.013
1029	0.013
1029	0.013
1030	0.014
1030	0.014
1031	0.014
1031	0.014
1031	0.014
1032	0.014
1032	0.014
1033	0.015
1033	0.015
1033	0.015
1034	0.015
1034	0.015
1035	0.015
1035	0.015
1036	0.016
1036	0.016
1036	0.017
1037	0.017
1037	0.018
1038	0.019
1038	0.019
1039	0.02
1039	0.021
1039	0.021
1040	0.022
1040	0.022
1041	0.023
1041	0.023
1041	0.024
1042	0.024
1042	0.025
1043	0.026
1043	0.027
1044	0.027
1044	0.028
1044	0.029
1045	0.029
1045	0.03
1046	0.031
1046	0.032
1046	0.033
1047	0.034
1047	0.034
1048	0.035
1048	0.036
1049	0.036
1049	0.037
1049	0.038
1050	0.038
1050	0.039
1051	0.039
1051	0.039
1051	0.039
1052	0.039
1052	0.039
1053	0.039
1053	0.038
1053	0.038
1054	0.038
1054	0.038
1055	0.038
1055	0.037
1056	0.037
1056	0.037
1056	0.038
1057	0.038
1057	0.038
1058	0.039
1058	0.039
1058	0.04
1059	0.041
1059	0.042
1060	0.043
1060	0.044
1061	0.045
1061	0.046
1061	0.047
1062	0.048
1062	0.049
1063	0.05
1063	0.05
1063	0.052
1064	0.054
1064	0.055
1065	0.056
1065	0.058
1066	0.059
1066	0.061
1066	0.063
1067	0.065
1067	0.067
1068	0.069
1068	0.07
1068	0.071
1069	0.073
1069	0.074
1070	0.076
1070	0.077
1071	0.078
1071	0.079
1071	0.081
1072	0.083
1072	0.085
1073	0.086
1073	0.088
1073	0.089
1074	0.091
1074	0.092
1075	0.093
1075	0.094
1076	0.095
1076	0.096
1076	0.098
1077	0.099
1077	0.1
1078	0.102
1078	0.103
1078	0.105
1079	0.106
1079	0.108
1080	0.11
1080	0.112
1080	0.113
1081	0.115
1081	0.116
1082	0.118
1082	0.12
1083	0.123
1083	0.126
1083	0.13
1084	0.133
1084	0.137
1085	0.142
1085	0.145
1085	0.149
1086	0.153
1086	0.156
1087	0.16
1087	0.163
1088	0.167
1088	0.17
1088	0.175
1089	0.18
1089	0.186
1090	0.192
1090	0.2
1090	0.208
1091	0.217
1091	0.226
1092	0.237
1092	0.247
1092	0.258
1093	0.271
1093	0.283
1094	0.296
1094	0.31
1095	0.324
1095	0.342
1095	0.36
1096	0.381
1096	0.404
1097	0.429
1097	0.455
1097	0.486
1098	0.521
1098	0.561
1099	0.607
1099	0.662
1100	0.728
1100	0.81
1100	0.918
1101	1.081
1101	1.37
1102	-0
1102	-0
1102	-0
1103	-0
1103	-0
1104	-0
1104	-0
1104	-0
1105	-0
1105	-0
1106	-0
1106	-0
1107	-0
1107	-0
1107	-0
1108	-0
1108	-0
1109	-0
1109	-0
1109	-0
1110	-0
1110	-0
1111	-0
1111	-0
