Data from 15c-2-4a_Absorbance__685__00685.txt Node

Date: Thu Jan 25 10:27:00 CET 2024
User: Marek
Spectrometer: MAYP115816
Trigger mode: 0
Integration Time (sec): 2.000000E-1
Scans to average: 10
Electric dark correction enabled: true
Nonlinearity correction enabled: true
Boxcar width: 5
XAxis mode: Wavelengths
Number of Pixels in Spectrum: 2068
>>>>>Begin Spectral Data<<<<<
199	-2.133
199	-1.963
200	-1.809
200	-1.687
201	-1.609
201	-1.552
202	-1.469
202	-1.408
203	-1.356
203	-1.309
204	-1.283
204	-1.255
205	-1.234
205	-1.223
205	-1.217
206	-1.212
206	-1.209
207	-1.209
207	-1.205
208	-1.2
208	-1.196
209	-1.192
209	-1.189
210	-1.187
210	-1.184
211	-1.183
211	-1.182
212	-1.179
212	-1.176
213	-1.174
213	-1.174
213	-1.175
214	-1.173
214	-1.172
215	-1.17
215	-1.169
216	-1.166
216	-1.165
217	-1.163
217	-1.161
218	-1.159
218	-1.156
219	-1.154
219	-1.151
220	-1.15
220	-1.146
221	-1.143
221	-1.141
221	-1.137
222	-1.134
222	-1.133
223	-1.128
223	-1.122
224	-1.116
224	-1.107
225	-1.098
225	-1.09
226	-1.079
226	-1.067
227	-1.052
227	-1.039
228	-1.019
228	-1.001
229	-0.98
229	-0.956
229	-0.93
230	-0.901
230	-0.871
231	-0.837
231	-0.798
232	-0.759
232	-0.715
233	-0.671
233	-0.624
234	-0.578
234	-0.53
235	-0.484
235	-0.438
236	-0.392
236	-0.349
236	-0.307
237	-0.267
237	-0.23
238	-0.195
238	-0.162
239	-0.131
239	-0.102
240	-0.076
240	-0.051
241	-0.029
241	-0.008
242	0.011
242	0.029
243	0.046
243	0.06
243	0.074
244	0.087
244	0.098
245	0.108
245	0.118
246	0.127
246	0.136
247	0.144
247	0.151
248	0.158
248	0.164
249	0.17
249	0.175
250	0.18
250	0.185
250	0.19
251	0.194
251	0.199
252	0.202
252	0.206
253	0.21
253	0.213
254	0.216
254	0.219
255	0.221
255	0.224
256	0.226
256	0.229
257	0.231
257	0.233
258	0.234
258	0.235
258	0.237
259	0.238
259	0.239
260	0.24
260	0.241
261	0.242
261	0.242
262	0.243
262	0.243
263	0.243
263	0.243
264	0.243
264	0.243
265	0.243
265	0.243
265	0.243
266	0.243
266	0.242
267	0.242
267	0.242
268	0.241
268	0.24
269	0.239
269	0.238
270	0.237
270	0.236
271	0.235
271	0.234
272	0.233
272	0.232
272	0.23
273	0.229
273	0.228
274	0.226
274	0.225
275	0.224
275	0.222
276	0.221
276	0.219
277	0.217
277	0.216
278	0.214
278	0.212
278	0.211
279	0.209
279	0.208
280	0.207
280	0.206
281	0.204
281	0.203
282	0.202
282	0.202
283	0.201
283	0.2
284	0.199
284	0.198
285	0.197
285	0.196
285	0.195
286	0.194
286	0.193
287	0.192
287	0.191
288	0.19
288	0.189
289	0.188
289	0.187
290	0.186
290	0.185
291	0.184
291	0.183
292	0.183
292	0.182
292	0.181
293	0.18
293	0.18
294	0.179
294	0.179
295	0.178
295	0.177
296	0.177
296	0.176
297	0.176
297	0.175
298	0.175
298	0.175
298	0.174
299	0.174
299	0.173
300	0.173
300	0.172
301	0.172
301	0.172
302	0.171
302	0.171
303	0.17
303	0.17
304	0.17
304	0.169
305	0.169
305	0.168
305	0.168
306	0.167
306	0.167
307	0.167
307	0.166
308	0.166
308	0.165
309	0.165
309	0.164
310	0.164
310	0.163
311	0.163
311	0.162
311	0.162
312	0.162
312	0.161
313	0.161
313	0.16
314	0.16
314	0.159
315	0.159
315	0.159
316	0.158
316	0.158
317	0.157
317	0.156
318	0.156
318	0.155
318	0.155
319	0.154
319	0.154
320	0.153
320	0.153
321	0.152
321	0.151
322	0.151
322	0.15
323	0.15
323	0.149
324	0.149
324	0.148
324	0.148
325	0.147
325	0.147
326	0.146
326	0.146
327	0.145
327	0.145
328	0.145
328	0.144
329	0.144
329	0.143
330	0.143
330	0.142
330	0.142
331	0.141
331	0.14
332	0.14
332	0.139
333	0.139
333	0.138
334	0.138
334	0.137
335	0.137
335	0.136
336	0.136
336	0.136
336	0.135
337	0.135
337	0.134
338	0.134
338	0.134
339	0.133
339	0.133
340	0.132
340	0.132
341	0.131
341	0.131
342	0.13
342	0.13
342	0.129
343	0.129
343	0.128
344	0.128
344	0.127
345	0.127
345	0.126
346	0.126
346	0.125
347	0.125
347	0.124
348	0.124
348	0.123
348	0.123
349	0.122
349	0.122
350	0.121
350	0.121
351	0.12
351	0.12
352	0.119
352	0.119
353	0.118
353	0.118
354	0.117
354	0.116
354	0.115
355	0.115
355	0.114
356	0.113
356	0.113
357	0.112
357	0.112
358	0.112
358	0.112
359	0.113
359	0.113
360	0.114
360	0.114
360	0.115
361	0.115
361	0.116
362	0.116
362	0.116
363	0.116
363	0.116
364	0.116
364	0.115
365	0.115
365	0.115
366	0.114
366	0.114
366	0.114
367	0.114
367	0.113
368	0.113
368	0.113
369	0.112
369	0.112
370	0.112
370	0.112
371	0.111
371	0.111
372	0.111
372	0.11
372	0.11
373	0.11
373	0.11
374	0.11
374	0.11
375	0.11
375	0.11
376	0.109
376	0.109
377	0.11
377	0.11
378	0.11
378	0.11
378	0.111
379	0.111
379	0.111
380	0.111
380	0.111
381	0.111
381	0.111
382	0.111
382	0.11
383	0.11
383	0.11
383	0.109
384	0.109
384	0.108
385	0.108
385	0.108
386	0.108
386	0.108
387	0.108
387	0.108
388	0.108
388	0.108
389	0.108
389	0.108
389	0.108
390	0.108
390	0.109
391	0.109
391	0.109
392	0.109
392	0.109
393	0.109
393	0.109
394	0.109
394	0.109
394	0.108
395	0.108
395	0.108
396	0.108
396	0.108
397	0.108
397	0.108
398	0.108
398	0.108
399	0.108
399	0.108
400	0.108
400	0.107
400	0.107
401	0.107
401	0.106
402	0.105
402	0.105
403	0.104
403	0.104
404	0.104
404	0.104
405	0.104
405	0.104
405	0.103
406	0.103
406	0.103
407	0.103
407	0.103
408	0.103
408	0.102
409	0.102
409	0.101
410	0.101
410	0.101
411	0.101
411	0.101
411	0.101
412	0.1
412	0.1
413	0.1
413	0.1
414	0.1
414	0.1
415	0.1
415	0.1
416	0.099
416	0.099
416	0.099
417	0.099
417	0.099
418	0.099
418	0.099
419	0.099
419	0.1
420	0.1
420	0.101
421	0.101
421	0.101
421	0.101
422	0.101
422	0.101
423	0.101
423	0.101
424	0.1
424	0.1
425	0.099
425	0.098
426	0.098
426	0.098
427	0.097
427	0.097
427	0.098
428	0.098
428	0.099
429	0.099
429	0.099
430	0.1
430	0.1
431	0.099
431	0.099
432	0.099
432	0.098
432	0.098
433	0.097
433	0.096
434	0.095
434	0.095
435	0.095
435	0.095
436	0.095
436	0.095
437	0.095
437	0.095
437	0.095
438	0.096
438	0.095
439	0.095
439	0.095
440	0.095
440	0.095
441	0.095
441	0.095
442	0.095
442	0.095
442	0.095
443	0.095
443	0.096
444	0.096
444	0.096
445	0.096
445	0.096
446	0.096
446	0.096
447	0.096
447	0.096
447	0.095
448	0.095
448	0.095
449	0.095
449	0.095
450	0.095
450	0.095
451	0.094
451	0.094
452	0.093
452	0.093
452	0.092
453	0.092
453	0.092
454	0.091
454	0.091
455	0.09
455	0.09
456	0.09
456	0.09
457	0.09
457	0.09
458	0.09
458	0.09
458	0.09
459	0.09
459	0.09
460	0.089
460	0.089
461	0.088
461	0.088
462	0.088
462	0.088
463	0.088
463	0.089
463	0.089
464	0.09
464	0.09
465	0.09
465	0.09
466	0.09
466	0.09
467	0.09
467	0.09
467	0.089
468	0.087
468	0.086
469	0.084
469	0.083
470	0.082
470	0.082
471	0.081
471	0.081
472	0.08
472	0.08
472	0.081
473	0.081
473	0.082
474	0.083
474	0.084
475	0.085
475	0.085
476	0.086
476	0.086
477	0.087
477	0.087
477	0.087
478	0.088
478	0.088
479	0.089
479	0.089
480	0.09
480	0.091
481	0.091
481	0.092
482	0.092
482	0.093
482	0.094
483	0.096
483	0.098
484	0.101
484	0.103
485	0.104
485	0.105
486	0.106
486	0.106
487	0.107
487	0.107
487	0.107
488	0.107
488	0.105
489	0.104
489	0.102
490	0.101
490	0.1
491	0.1
491	0.1
492	0.1
492	0.1
492	0.1
493	0.101
493	0.101
494	0.103
494	0.104
495	0.105
495	0.106
496	0.107
496	0.108
496	0.108
497	0.109
497	0.109
498	0.11
498	0.11
499	0.11
499	0.11
500	0.11
500	0.111
501	0.112
501	0.113
501	0.115
502	0.116
502	0.117
503	0.118
503	0.12
504	0.12
504	0.121
505	0.121
505	0.122
506	0.122
506	0.122
506	0.122
507	0.123
507	0.122
508	0.123
508	0.123
509	0.123
509	0.124
510	0.124
510	0.124
511	0.124
511	0.124
511	0.124
512	0.125
512	0.125
513	0.125
513	0.124
514	0.123
514	0.123
515	0.122
515	0.122
515	0.122
516	0.121
516	0.121
517	0.121
517	0.121
518	0.121
518	0.12
519	0.119
519	0.118
520	0.116
520	0.113
520	0.112
521	0.11
521	0.108
522	0.105
522	0.104
523	0.103
523	0.103
524	0.104
524	0.106
524	0.108
525	0.111
525	0.113
526	0.116
526	0.118
527	0.12
527	0.122
528	0.124
528	0.126
529	0.126
529	0.127
529	0.127
530	0.127
530	0.127
531	0.127
531	0.127
532	0.127
532	0.127
533	0.127
533	0.126
533	0.126
534	0.126
534	0.125
535	0.125
535	0.125
536	0.124
536	0.124
537	0.124
537	0.123
538	0.122
538	0.121
538	0.121
539	0.12
539	0.12
540	0.119
540	0.118
541	0.117
541	0.116
542	0.115
542	0.114
542	0.113
543	0.112
543	0.111
544	0.11
544	0.109
545	0.109
545	0.109
546	0.109
546	0.109
547	0.108
547	0.107
547	0.105
548	0.104
548	0.102
549	0.101
549	0.099
550	0.098
550	0.096
551	0.094
551	0.092
551	0.091
552	0.09
552	0.089
553	0.089
553	0.088
554	0.088
554	0.087
555	0.086
555	0.084
556	0.082
556	0.08
556	0.077
557	0.075
557	0.073
558	0.072
558	0.07
559	0.069
559	0.069
560	0.068
560	0.068
560	0.068
561	0.068
561	0.069
562	0.069
562	0.069
563	0.068
563	0.066
564	0.064
564	0.062
564	0.06
565	0.059
565	0.058
566	0.056
566	0.055
567	0.055
567	0.055
568	0.056
568	0.058
568	0.059
569	0.061
569	0.063
570	0.064
570	0.064
571	0.065
571	0.066
572	0.067
572	0.067
573	0.067
573	0.067
573	0.067
574	0.066
574	0.066
575	0.066
575	0.067
576	0.068
576	0.068
577	0.068
577	0.067
577	0.067
578	0.066
578	0.066
579	0.067
579	0.068
580	0.068
580	0.066
581	0.064
581	0.063
581	0.062
582	0.062
582	0.062
583	0.062
583	0.063
584	0.061
584	0.059
585	0.057
585	0.057
585	0.057
586	0.057
586	0.056
587	0.055
587	0.053
588	0.051
588	0.048
589	0.046
589	0.045
590	0.043
590	0.042
590	0.042
591	0.042
591	0.042
592	0.042
592	0.041
593	0.041
593	0.041
594	0.041
594	0.041
594	0.041
595	0.041
595	0.04
596	0.039
596	0.039
597	0.041
597	0.042
598	0.043
598	0.044
598	0.044
599	0.044
599	0.044
600	0.044
600	0.043
601	0.042
601	0.041
602	0.039
602	0.038
602	0.036
603	0.035
603	0.035
604	0.035
604	0.036
605	0.037
605	0.038
606	0.039
606	0.038
606	0.038
607	0.037
607	0.037
608	0.037
608	0.035
609	0.034
609	0.034
610	0.033
610	0.031
610	0.031
611	0.031
611	0.032
612	0.032
612	0.034
613	0.035
613	0.037
614	0.038
614	0.038
614	0.038
615	0.038
615	0.038
616	0.038
616	0.037
617	0.036
617	0.035
618	0.034
618	0.032
618	0.031
619	0.031
619	0.031
620	0.032
620	0.032
621	0.033
621	0.033
622	0.033
622	0.033
622	0.034
623	0.033
623	0.034
624	0.034
624	0.034
625	0.034
625	0.034
626	0.034
626	0.034
626	0.034
627	0.034
627	0.034
628	0.034
628	0.035
629	0.035
629	0.035
630	0.034
630	0.034
630	0.033
631	0.033
631	0.033
632	0.033
632	0.033
633	0.033
633	0.034
634	0.034
634	0.036
634	0.037
635	0.039
635	0.04
636	0.041
636	0.042
637	0.043
637	0.044
638	0.044
638	0.045
638	0.046
639	0.046
639	0.046
640	0.046
640	0.047
641	0.047
641	0.048
642	0.05
642	0.051
642	0.053
643	0.054
643	0.056
644	0.057
644	0.059
645	0.061
645	0.063
646	0.064
646	0.066
646	0.069
647	0.071
647	0.074
648	0.076
648	0.078
649	0.079
649	0.081
650	0.083
650	0.085
650	0.087
651	0.089
651	0.09
652	0.091
652	0.092
653	0.093
653	0.099
653	0.109
654	0.09
654	0.076
655	0.08
655	0.081
656	0.083
656	0.084
657	0.086
657	0.088
657	0.089
658	0.087
658	0.08
659	0.098
659	0.122
660	0.124
660	0.125
661	0.125
661	0.127
661	0.128
662	0.13
662	0.133
663	0.135
663	0.138
664	0.14
664	0.142
665	0.144
665	0.146
665	0.148
666	0.15
666	0.152
667	0.153
667	0.155
668	0.156
668	0.158
669	0.159
669	0.161
669	0.163
670	0.166
670	0.168
671	0.17
671	0.172
672	0.173
672	0.174
672	0.175
673	0.176
673	0.177
674	0.178
674	0.178
675	0.178
675	0.178
676	0.179
676	0.18
676	0.181
677	0.183
677	0.184
678	0.185
678	0.186
679	0.187
679	0.188
680	0.189
680	0.19
680	0.19
681	0.19
681	0.191
682	0.191
682	0.192
683	0.194
683	0.195
684	0.197
684	0.198
684	0.198
685	0.198
685	0.199
686	0.199
686	0.199
687	0.199
687	0.199
687	0.198
688	0.197
688	0.196
689	0.196
689	0.197
690	0.197
690	0.197
691	0.197
691	0.197
691	0.197
692	0.196
692	0.196
693	0.196
693	0.197
694	0.196
694	0.196
695	0.196
695	0.198
695	0.199
696	0.199
696	0.199
697	0.199
697	0.198
698	0.198
698	0.196
698	0.195
699	0.194
699	0.191
700	0.189
700	0.187
701	0.186
701	0.184
702	0.183
702	0.182
702	0.18
703	0.178
703	0.177
704	0.175
704	0.174
705	0.173
705	0.172
705	0.171
706	0.17
706	0.169
707	0.168
707	0.167
708	0.166
708	0.166
709	0.165
709	0.164
709	0.162
710	0.16
710	0.158
711	0.157
711	0.156
712	0.155
712	0.153
713	0.153
713	0.152
713	0.151
714	0.149
714	0.148
715	0.146
715	0.145
716	0.143
716	0.142
716	0.14
717	0.139
717	0.137
718	0.135
718	0.133
719	0.131
719	0.13
720	0.128
720	0.126
720	0.124
721	0.122
721	0.119
722	0.116
722	0.114
723	0.112
723	0.11
723	0.109
724	0.107
724	0.105
725	0.103
725	0.102
726	0.101
726	0.1
727	0.098
727	0.097
727	0.096
728	0.094
728	0.093
729	0.092
729	0.091
730	0.09
730	0.089
730	0.087
731	0.086
731	0.084
732	0.083
732	0.082
733	0.081
733	0.079
734	0.077
734	0.075
734	0.073
735	0.072
735	0.07
736	0.068
736	0.066
737	0.064
737	0.063
737	0.061
738	0.059
738	0.057
739	0.055
739	0.053
740	0.051
740	0.05
741	0.048
741	0.047
741	0.044
742	0.041
742	0.038
743	0.036
743	0.034
744	0.033
744	0.031
744	0.03
745	0.028
745	0.026
746	0.025
746	0.024
747	0.023
747	0.023
748	0.023
748	0.023
748	0.023
749	0.022
749	0.021
750	0.021
750	0.02
751	0.02
751	0.019
751	0.019
752	0.018
752	0.017
753	0.016
753	0.015
754	0.015
754	0.014
754	0.014
755	0.014
755	0.015
756	0.015
756	0.013
757	0.012
757	0.012
758	0.011
758	0.01
758	0.009
759	0.008
759	0.006
760	0.004
760	0.001
761	-0.001
761	-0.002
761	-0.003
762	-0.005
762	-0.005
763	-0.006
763	-0.007
764	-0.009
764	-0.011
764	-0.012
765	-0.014
765	-0.015
766	-0.017
766	-0.017
767	-0.018
767	-0.02
768	-0.022
768	-0.024
768	-0.025
769	-0.026
769	-0.026
770	-0.027
770	-0.028
771	-0.03
771	-0.032
771	-0.034
772	-0.036
772	-0.038
773	-0.04
773	-0.042
774	-0.045
774	-0.049
775	-0.052
775	-0.055
775	-0.059
776	-0.062
776	-0.065
777	-0.069
777	-0.072
778	-0.075
778	-0.079
778	-0.082
779	-0.084
779	-0.086
780	-0.09
780	-0.094
781	-0.098
781	-0.103
781	-0.108
782	-0.113
782	-0.119
783	-0.125
783	-0.128
784	-0.132
784	-0.135
784	-0.138
785	-0.142
785	-0.145
786	-0.145
786	-0.143
787	-0.139
787	-0.135
788	-0.134
788	-0.135
788	-0.137
789	-0.14
789	-0.14
790	-0.137
790	-0.136
791	-0.137
791	-0.138
791	-0.141
792	-0.135
792	-0.124
793	-0.117
793	-0.113
794	-0.11
794	-0.111
794	-0.115
795	-0.116
795	-0.116
796	-0.116
796	-0.119
797	-0.127
797	-0.139
797	-0.146
798	-0.151
798	-0.155
799	-0.156
799	-0.156
800	-0.157
800	-0.158
801	-0.161
801	-0.163
801	-0.162
802	-0.163
802	-0.164
803	-0.165
803	-0.165
804	-0.163
804	-0.157
804	-0.15
805	-0.146
805	-0.144
806	-0.141
806	-0.14
807	-0.139
807	-0.138
807	-0.137
808	-0.137
808	-0.137
809	-0.142
809	-0.147
810	-0.15
810	-0.152
810	-0.155
811	-0.158
811	-0.158
812	-0.155
812	-0.152
813	-0.152
813	-0.153
813	-0.155
814	-0.156
814	-0.157
815	-0.156
815	-0.154
816	-0.152
816	-0.153
817	-0.158
817	-0.162
817	-0.163
818	-0.163
818	-0.159
819	-0.154
819	-0.151
820	-0.152
820	-0.154
820	-0.156
821	-0.155
821	-0.152
822	-0.149
822	-0.145
823	-0.141
823	-0.139
823	-0.139
824	-0.136
824	-0.13
825	-0.121
825	-0.112
826	-0.103
826	-0.096
826	-0.089
827	-0.083
827	-0.078
828	-0.073
828	-0.068
829	-0.063
829	-0.059
829	-0.056
830	-0.053
830	-0.05
831	-0.046
831	-0.043
832	-0.04
832	-0.037
832	-0.035
833	-0.033
833	-0.032
834	-0.031
834	-0.03
835	-0.03
835	-0.03
835	-0.03
836	-0.03
836	-0.031
837	-0.031
837	-0.031
838	-0.031
838	-0.031
839	-0.031
839	-0.031
839	-0.03
840	-0.03
840	-0.029
841	-0.028
841	-0.026
842	-0.025
842	-0.024
842	-0.022
843	-0.021
843	-0.019
844	-0.018
844	-0.016
845	-0.015
845	-0.015
845	-0.014
846	-0.013
846	-0.012
847	-0.012
847	-0.011
848	-0.01
848	-0.009
848	-0.008
849	-0.007
849	-0.006
850	-0.005
850	-0.005
851	-0.005
851	-0.004
851	-0.004
852	-0.004
852	-0.003
853	-0.004
853	-0.004
854	-0.004
854	-0.004
854	-0.005
855	-0.005
855	-0.005
856	-0.005
856	-0.005
857	-0.005
857	-0.005
857	-0.004
858	-0.004
858	-0.004
859	-0.003
859	-0.002
860	-0.002
860	-0.001
860	0
861	0.002
861	0.003
862	0.003
862	0.004
863	0.005
863	0.006
863	0.007
864	0.008
864	0.009
865	0.01
865	0.01
866	0.011
866	0.011
866	0.011
867	0.012
867	0.012
868	0.012
868	0.012
869	0.012
869	0.012
869	0.012
870	0.012
870	0.012
871	0.011
871	0.01
872	0.009
872	0.008
872	0.007
873	0.006
873	0.005
874	0.004
874	0.003
875	0.002
875	0.002
875	0.001
876	0.001
876	0.001
877	0.001
877	0.001
878	0.002
878	0.002
878	0.003
879	0.003
879	0.004
880	0.005
880	0.006
881	0.007
881	0.008
881	0.009
882	0.01
882	0.011
883	0.011
883	0.012
884	0.013
884	0.013
884	0.013
885	0.013
885	0.013
886	0.013
886	0.012
887	0.012
887	0.011
887	0.011
888	0.01
888	0.01
889	0.01
889	0.01
890	0.011
890	0.011
890	0.011
891	0.012
891	0.012
892	0.012
892	0.013
893	0.014
893	0.015
893	0.015
894	0.016
894	0.016
895	0.016
895	0.016
895	0.016
896	0.016
896	0.016
897	0.016
897	0.015
898	0.014
898	0.013
898	0.012
899	0.011
899	0.01
900	0.009
900	0.008
901	0.007
901	0.006
901	0.006
902	0.005
902	0.005
903	0.005
903	0.004
904	0.004
904	0.005
904	0.005
905	0.005
905	0.005
906	0.006
906	0.006
907	0.006
907	0.006
907	0.006
908	0.006
908	0.006
909	0.006
909	0.006
910	0.006
910	0.006
910	0.006
911	0.006
911	0.007
912	0.008
912	0.008
913	0.009
913	0.011
913	0.012
914	0.013
914	0.014
915	0.015
915	0.016
916	0.017
916	0.018
916	0.019
917	0.019
917	0.019
918	0.019
918	0.019
918	0.019
919	0.018
919	0.017
920	0.016
920	0.015
921	0.013
921	0.012
921	0.011
922	0.01
922	0.01
923	0.009
923	0.009
924	0.009
924	0.009
924	0.009
925	0.01
925	0.011
926	0.011
926	0.012
927	0.012
927	0.012
927	0.013
928	0.014
928	0.014
929	0.015
929	0.016
930	0.016
930	0.016
930	0.016
931	0.016
931	0.016
932	0.016
932	0.015
933	0.015
933	0.015
933	0.015
934	0.015
934	0.014
935	0.014
935	0.014
935	0.015
936	0.015
936	0.015
937	0.015
937	0.014
938	0.014
938	0.014
938	0.013
939	0.013
939	0.013
940	0.013
940	0.013
941	0.013
941	0.013
941	0.014
942	0.014
942	0.015
943	0.015
943	0.016
944	0.016
944	0.017
944	0.018
945	0.019
945	0.02
946	0.021
946	0.022
946	0.022
947	0.023
947	0.023
948	0.023
948	0.023
949	0.022
949	0.021
949	0.021
950	0.02
950	0.019
951	0.018
951	0.018
952	0.018
952	0.017
952	0.017
953	0.017
953	0.017
954	0.017
954	0.017
955	0.017
955	0.017
955	0.017
956	0.017
956	0.016
957	0.016
957	0.016
957	0.015
958	0.015
958	0.015
959	0.015
959	0.015
960	0.016
960	0.016
960	0.016
961	0.017
961	0.017
962	0.017
962	0.018
963	0.018
963	0.018
963	0.018
964	0.018
964	0.018
965	0.018
965	0.018
966	0.018
966	0.017
966	0.017
967	0.016
967	0.016
968	0.015
968	0.015
968	0.015
969	0.015
969	0.015
970	0.015
970	0.015
971	0.015
971	0.016
971	0.016
972	0.017
972	0.018
973	0.018
973	0.019
974	0.02
974	0.02
974	0.02
975	0.02
975	0.021
976	0.02
976	0.02
976	0.02
977	0.019
977	0.018
978	0.017
978	0.016
979	0.015
979	0.015
979	0.014
980	0.013
980	0.012
981	0.011
981	0.011
982	0.01
982	0.01
982	0.01
983	0.01
983	0.009
984	0.009
984	0.009
984	0.009
985	0.009
985	0.009
986	0.008
986	0.008
987	0.008
987	0.007
987	0.007
988	0.007
988	0.007
989	0.006
989	0.006
990	0.005
990	0.005
990	0.005
991	0.005
991	0.005
992	0.005
992	0.005
992	0.004
993	0.004
993	0.004
994	0.004
994	0.003
995	0.003
995	0.003
995	0.002
996	0.002
996	0.002
997	0.001
997	0.001
997	0.001
998	0.001
998	0.001
999	0.002
999	0.002
1000	0.003
1000	0.003
1000	0.004
1001	0.005
1001	0.005
1002	0.006
1002	0.006
1003	0.006
1003	0.006
1003	0.006
1004	0.006
1004	0.006
1005	0.006
1005	0.005
1005	0.005
1006	0.004
1006	0.004
1007	0.004
1007	0.004
1008	0.004
1008	0.004
1008	0.004
1009	0.004
1009	0.005
1010	0.005
1010	0.006
1010	0.007
1011	0.008
1011	0.009
1012	0.01
1012	0.011
1013	0.012
1013	0.012
1013	0.013
1014	0.013
1014	0.014
1015	0.014
1015	0.014
1016	0.014
1016	0.014
1016	0.014
1017	0.014
1017	0.014
1018	0.014
1018	0.014
1018	0.014
1019	0.014
1019	0.013
1020	0.013
1020	0.013
1021	0.013
1021	0.012
1021	0.012
1022	0.012
1022	0.011
1023	0.011
1023	0.011
1023	0.011
1024	0.011
1024	0.01
1025	0.011
1025	0.011
1026	0.011
1026	0.011
1026	0.011
1027	0.012
1027	0.012
1028	0.012
1028	0.013
1028	0.013
1029	0.013
1029	0.014
1030	0.014
1030	0.014
1031	0.014
1031	0.015
1031	0.015
1032	0.015
1032	0.015
1033	0.015
1033	0.015
1033	0.015
1034	0.015
1034	0.015
1035	0.015
1035	0.015
1036	0.015
1036	0.015
1036	0.016
1037	0.017
1037	0.017
1038	0.018
1038	0.019
1039	0.02
1039	0.021
1039	0.022
1040	0.023
1040	0.024
1041	0.024
1041	0.025
1041	0.025
1042	0.026
1042	0.026
1043	0.027
1043	0.028
1044	0.028
1044	0.029
1044	0.029
1045	0.03
1045	0.031
1046	0.032
1046	0.033
1046	0.035
1047	0.036
1047	0.038
1048	0.039
1048	0.04
1049	0.041
1049	0.042
1049	0.042
1050	0.042
1050	0.042
1051	0.042
1051	0.042
1051	0.041
1052	0.041
1052	0.04
1053	0.039
1053	0.038
1053	0.037
1054	0.036
1054	0.035
1055	0.035
1055	0.034
1056	0.033
1056	0.032
1056	0.031
1057	0.03
1057	0.03
1058	0.029
1058	0.029
1058	0.03
1059	0.03
1059	0.03
1060	0.031
1060	0.031
1061	0.032
1061	0.033
1061	0.034
1062	0.034
1062	0.035
1063	0.036
1063	0.036
1063	0.037
1064	0.038
1064	0.04
1065	0.041
1065	0.042
1066	0.044
1066	0.046
1066	0.048
1067	0.05
1067	0.052
1068	0.054
1068	0.056
1068	0.057
1069	0.059
1069	0.06
1070	0.061
1070	0.063
1071	0.064
1071	0.065
1071	0.066
1072	0.067
1072	0.068
1073	0.069
1073	0.07
1073	0.071
1074	0.072
1074	0.073
1075	0.073
1075	0.073
1076	0.073
1076	0.074
1076	0.075
1077	0.076
1077	0.077
1078	0.079
1078	0.08
1078	0.082
1079	0.084
1079	0.087
1080	0.088
1080	0.091
1080	0.092
1081	0.095
1081	0.097
1082	0.099
1082	0.1
1083	0.102
1083	0.104
1083	0.106
1084	0.108
1084	0.111
1085	0.114
1085	0.117
1085	0.119
1086	0.122
1086	0.124
1087	0.128
1087	0.131
1088	0.133
1088	0.137
1088	0.141
1089	0.145
1089	0.15
1090	0.155
1090	0.161
1090	0.167
1091	0.174
1091	0.182
1092	0.19
1092	0.199
1092	0.207
1093	0.216
1093	0.225
1094	0.235
1094	0.245
1095	0.255
1095	0.268
1095	0.281
1096	0.296
1096	0.312
1097	0.331
1097	0.35
1097	0.373
1098	0.395
1098	0.422
1099	0.454
1099	0.49
1100	0.532
1100	0.58
1100	0.634
1101	0.703
1101	0.795
1102	0.92
1102	1.108
1102	1.485
1103	-0
1103	-0
1104	-0
1104	-0
1104	-0
1105	-0
1105	-0
1106	-0
1106	-0
1107	-0
1107	-0
1107	-0
1108	-0
1108	-0
1109	-0
1109	-0
1109	-0
1110	-0
1110	-0
1111	-0
1111	-0
