Data from 15c-2-4a_Absorbance__1635__01635.txt Node

Date: Thu Jan 25 10:58:40 CET 2024
User: Marek
Spectrometer: MAYP115816
Trigger mode: 0
Integration Time (sec): 2.000000E-1
Scans to average: 10
Electric dark correction enabled: true
Nonlinearity correction enabled: true
Boxcar width: 5
XAxis mode: Wavelengths
Number of Pixels in Spectrum: 2068
>>>>>Begin Spectral Data<<<<<
199	-2.192
199	-2.022
200	-1.869
200	-1.746
201	-1.667
201	-1.61
202	-1.527
202	-1.465
203	-1.413
203	-1.366
204	-1.34
204	-1.312
205	-1.291
205	-1.279
205	-1.274
206	-1.269
206	-1.266
207	-1.266
207	-1.263
208	-1.258
208	-1.255
209	-1.25
209	-1.246
210	-1.244
210	-1.241
211	-1.24
211	-1.238
212	-1.235
212	-1.232
213	-1.231
213	-1.231
213	-1.23
214	-1.229
214	-1.229
215	-1.227
215	-1.226
216	-1.223
216	-1.222
217	-1.22
217	-1.217
218	-1.215
218	-1.213
219	-1.211
219	-1.208
220	-1.208
220	-1.203
221	-1.2
221	-1.198
221	-1.194
222	-1.191
222	-1.19
223	-1.185
223	-1.179
224	-1.172
224	-1.162
225	-1.153
225	-1.145
226	-1.133
226	-1.121
227	-1.106
227	-1.092
228	-1.072
228	-1.053
229	-1.031
229	-1.007
229	-0.98
230	-0.951
230	-0.919
231	-0.884
231	-0.844
232	-0.803
232	-0.757
233	-0.711
233	-0.662
234	-0.613
234	-0.562
235	-0.512
235	-0.462
236	-0.412
236	-0.364
236	-0.317
237	-0.272
237	-0.229
238	-0.187
238	-0.148
239	-0.111
239	-0.076
240	-0.044
240	-0.013
241	0.015
241	0.042
242	0.067
242	0.089
243	0.111
243	0.13
243	0.148
244	0.165
244	0.181
245	0.195
245	0.208
246	0.22
246	0.232
247	0.243
247	0.253
248	0.262
248	0.271
249	0.279
249	0.286
250	0.293
250	0.3
250	0.307
251	0.312
251	0.318
252	0.323
252	0.328
253	0.333
253	0.337
254	0.341
254	0.345
255	0.348
255	0.352
256	0.355
256	0.357
257	0.36
257	0.362
258	0.365
258	0.366
258	0.368
259	0.37
259	0.371
260	0.373
260	0.374
261	0.375
261	0.376
262	0.376
262	0.377
263	0.377
263	0.378
264	0.378
264	0.378
265	0.379
265	0.378
265	0.378
266	0.378
266	0.378
267	0.378
267	0.377
268	0.377
268	0.376
269	0.375
269	0.374
270	0.373
270	0.372
271	0.371
271	0.37
272	0.369
272	0.368
272	0.366
273	0.365
273	0.364
274	0.362
274	0.361
275	0.36
275	0.358
276	0.357
276	0.355
277	0.353
277	0.351
278	0.349
278	0.347
278	0.344
279	0.343
279	0.341
280	0.34
280	0.339
281	0.338
281	0.337
282	0.336
282	0.335
283	0.335
283	0.334
284	0.333
284	0.332
285	0.331
285	0.33
285	0.328
286	0.327
286	0.326
287	0.324
287	0.323
288	0.322
288	0.321
289	0.32
289	0.318
290	0.317
290	0.316
291	0.315
291	0.314
292	0.313
292	0.312
292	0.311
293	0.31
293	0.309
294	0.308
294	0.307
295	0.306
295	0.306
296	0.305
296	0.304
297	0.303
297	0.302
298	0.301
298	0.3
298	0.3
299	0.299
299	0.298
300	0.297
300	0.296
301	0.295
301	0.295
302	0.294
302	0.293
303	0.292
303	0.292
304	0.291
304	0.29
305	0.29
305	0.289
305	0.288
306	0.287
306	0.287
307	0.286
307	0.285
308	0.284
308	0.283
309	0.282
309	0.281
310	0.28
310	0.28
311	0.279
311	0.278
311	0.277
312	0.276
312	0.276
313	0.275
313	0.274
314	0.273
314	0.272
315	0.271
315	0.27
316	0.269
316	0.268
317	0.267
317	0.266
318	0.265
318	0.264
318	0.264
319	0.263
319	0.262
320	0.261
320	0.26
321	0.259
321	0.258
322	0.257
322	0.256
323	0.255
323	0.254
324	0.253
324	0.252
324	0.251
325	0.251
325	0.25
326	0.249
326	0.248
327	0.247
327	0.247
328	0.246
328	0.245
329	0.244
329	0.243
330	0.242
330	0.241
330	0.241
331	0.24
331	0.239
332	0.238
332	0.237
333	0.236
333	0.236
334	0.235
334	0.234
335	0.233
335	0.232
336	0.232
336	0.231
336	0.23
337	0.229
337	0.229
338	0.228
338	0.227
339	0.227
339	0.226
340	0.225
340	0.225
341	0.224
341	0.223
342	0.222
342	0.221
342	0.22
343	0.22
343	0.219
344	0.218
344	0.218
345	0.217
345	0.216
346	0.215
346	0.215
347	0.214
347	0.213
348	0.213
348	0.212
348	0.211
349	0.21
349	0.21
350	0.209
350	0.208
351	0.208
351	0.207
352	0.206
352	0.205
353	0.204
353	0.203
354	0.202
354	0.201
354	0.2
355	0.199
355	0.198
356	0.197
356	0.196
357	0.195
357	0.195
358	0.195
358	0.196
359	0.196
359	0.197
360	0.198
360	0.198
360	0.199
361	0.2
361	0.2
362	0.201
362	0.201
363	0.2
363	0.2
364	0.199
364	0.199
365	0.198
365	0.198
366	0.198
366	0.197
366	0.197
367	0.196
367	0.196
368	0.195
368	0.195
369	0.194
369	0.194
370	0.193
370	0.193
371	0.192
371	0.192
372	0.191
372	0.191
372	0.19
373	0.19
373	0.19
374	0.19
374	0.19
375	0.189
375	0.189
376	0.189
376	0.189
377	0.189
377	0.189
378	0.19
378	0.19
378	0.19
379	0.19
379	0.19
380	0.19
380	0.19
381	0.19
381	0.189
382	0.189
382	0.188
383	0.188
383	0.188
383	0.187
384	0.186
384	0.186
385	0.186
385	0.186
386	0.186
386	0.186
387	0.186
387	0.186
388	0.185
388	0.185
389	0.185
389	0.185
389	0.185
390	0.185
390	0.185
391	0.185
391	0.186
392	0.185
392	0.185
393	0.185
393	0.185
394	0.185
394	0.185
394	0.184
395	0.184
395	0.184
396	0.183
396	0.183
397	0.183
397	0.183
398	0.183
398	0.183
399	0.183
399	0.182
400	0.182
400	0.182
400	0.181
401	0.18
401	0.18
402	0.178
402	0.178
403	0.177
403	0.177
404	0.177
404	0.177
405	0.176
405	0.176
405	0.175
406	0.175
406	0.175
407	0.175
407	0.174
408	0.174
408	0.173
409	0.172
409	0.172
410	0.172
410	0.172
411	0.172
411	0.172
411	0.171
412	0.171
412	0.17
413	0.17
413	0.17
414	0.17
414	0.17
415	0.169
415	0.169
416	0.169
416	0.168
416	0.168
417	0.167
417	0.167
418	0.167
418	0.167
419	0.167
419	0.167
420	0.168
420	0.169
421	0.169
421	0.169
421	0.17
422	0.17
422	0.17
423	0.17
423	0.169
424	0.169
424	0.168
425	0.167
425	0.166
426	0.165
426	0.165
427	0.164
427	0.164
427	0.165
428	0.165
428	0.166
429	0.167
429	0.167
430	0.167
430	0.167
431	0.167
431	0.167
432	0.166
432	0.166
432	0.165
433	0.163
433	0.162
434	0.162
434	0.161
435	0.161
435	0.161
436	0.161
436	0.161
437	0.161
437	0.161
437	0.161
438	0.161
438	0.161
439	0.161
439	0.16
440	0.16
440	0.159
441	0.159
441	0.16
442	0.16
442	0.16
442	0.16
443	0.16
443	0.16
444	0.161
444	0.161
445	0.161
445	0.161
446	0.161
446	0.161
447	0.161
447	0.16
447	0.16
448	0.16
448	0.16
449	0.16
449	0.159
450	0.159
450	0.159
451	0.158
451	0.158
452	0.157
452	0.157
452	0.156
453	0.156
453	0.155
454	0.155
454	0.154
455	0.154
455	0.153
456	0.153
456	0.153
457	0.153
457	0.152
458	0.152
458	0.152
458	0.152
459	0.152
459	0.152
460	0.152
460	0.151
461	0.15
461	0.15
462	0.149
462	0.15
463	0.15
463	0.15
463	0.151
464	0.152
464	0.152
465	0.152
465	0.152
466	0.153
466	0.153
467	0.153
467	0.153
467	0.152
468	0.15
468	0.148
469	0.146
469	0.145
470	0.144
470	0.143
471	0.143
471	0.142
472	0.142
472	0.142
472	0.142
473	0.144
473	0.145
474	0.146
474	0.147
475	0.148
475	0.149
476	0.15
476	0.15
477	0.151
477	0.152
477	0.152
478	0.152
478	0.153
479	0.153
479	0.154
480	0.155
480	0.156
481	0.157
481	0.157
482	0.158
482	0.159
482	0.161
483	0.163
483	0.166
484	0.17
484	0.173
485	0.175
485	0.177
486	0.178
486	0.18
487	0.18
487	0.181
487	0.181
488	0.18
488	0.178
489	0.176
489	0.174
490	0.172
490	0.171
491	0.171
491	0.171
492	0.171
492	0.172
492	0.173
493	0.174
493	0.175
494	0.177
494	0.18
495	0.182
495	0.184
496	0.185
496	0.186
496	0.187
497	0.187
497	0.189
498	0.189
498	0.19
499	0.19
499	0.19
500	0.191
500	0.192
501	0.194
501	0.196
501	0.198
502	0.2
502	0.201
503	0.203
503	0.205
504	0.206
504	0.206
505	0.207
505	0.207
506	0.208
506	0.208
506	0.208
507	0.208
507	0.208
508	0.209
508	0.209
509	0.21
509	0.21
510	0.211
510	0.211
511	0.211
511	0.212
511	0.212
512	0.213
512	0.213
513	0.212
513	0.21
514	0.209
514	0.208
515	0.208
515	0.208
515	0.208
516	0.208
516	0.207
517	0.208
517	0.208
518	0.207
518	0.206
519	0.204
519	0.202
520	0.199
520	0.195
520	0.193
521	0.19
521	0.187
522	0.185
522	0.184
523	0.184
523	0.185
524	0.188
524	0.192
524	0.195
525	0.199
525	0.202
526	0.205
526	0.208
527	0.211
527	0.213
528	0.214
528	0.216
529	0.216
529	0.217
529	0.216
530	0.216
530	0.216
531	0.216
531	0.216
532	0.215
532	0.215
533	0.215
533	0.214
533	0.214
534	0.214
534	0.213
535	0.212
535	0.211
536	0.211
536	0.21
537	0.209
537	0.208
538	0.207
538	0.206
538	0.204
539	0.203
539	0.202
540	0.201
540	0.2
541	0.198
541	0.196
542	0.194
542	0.192
542	0.191
543	0.189
543	0.188
544	0.186
544	0.185
545	0.183
545	0.183
546	0.183
546	0.182
547	0.181
547	0.179
547	0.176
548	0.174
548	0.171
549	0.169
549	0.166
550	0.164
550	0.162
551	0.159
551	0.156
551	0.154
552	0.152
552	0.151
553	0.15
553	0.149
554	0.148
554	0.147
555	0.145
555	0.142
556	0.139
556	0.135
556	0.132
557	0.129
557	0.126
558	0.123
558	0.121
559	0.119
559	0.118
560	0.117
560	0.116
560	0.116
561	0.116
561	0.116
562	0.115
562	0.115
563	0.113
563	0.111
564	0.108
564	0.105
564	0.102
565	0.1
565	0.098
566	0.096
566	0.095
567	0.094
567	0.094
568	0.095
568	0.096
568	0.098
569	0.1
569	0.102
570	0.103
570	0.103
571	0.104
571	0.105
572	0.105
572	0.105
573	0.105
573	0.105
573	0.104
574	0.103
574	0.102
575	0.101
575	0.102
576	0.103
576	0.103
577	0.102
577	0.101
577	0.1
578	0.099
578	0.098
579	0.098
579	0.099
580	0.099
580	0.097
581	0.094
581	0.092
581	0.09
582	0.09
582	0.089
583	0.09
583	0.09
584	0.088
584	0.084
585	0.082
585	0.081
585	0.081
586	0.08
586	0.08
587	0.078
587	0.076
588	0.073
588	0.07
589	0.068
589	0.066
590	0.065
590	0.063
590	0.063
591	0.063
591	0.063
592	0.063
592	0.062
593	0.062
593	0.062
594	0.062
594	0.061
594	0.061
595	0.06
595	0.059
596	0.058
596	0.058
597	0.06
597	0.061
598	0.062
598	0.063
598	0.064
599	0.064
599	0.064
600	0.064
600	0.063
601	0.062
601	0.06
602	0.058
602	0.057
602	0.055
603	0.054
603	0.053
604	0.053
604	0.054
605	0.055
605	0.056
606	0.057
606	0.056
606	0.056
607	0.056
607	0.056
608	0.055
608	0.054
609	0.053
609	0.052
610	0.051
610	0.049
610	0.049
611	0.049
611	0.05
612	0.05
612	0.052
613	0.053
613	0.055
614	0.056
614	0.056
614	0.057
615	0.056
615	0.056
616	0.056
616	0.055
617	0.054
617	0.053
618	0.051
618	0.05
618	0.049
619	0.048
619	0.048
620	0.049
620	0.049
621	0.049
621	0.05
622	0.051
622	0.051
622	0.052
623	0.052
623	0.053
624	0.054
624	0.054
625	0.054
625	0.054
626	0.054
626	0.054
626	0.055
627	0.055
627	0.055
628	0.056
628	0.056
629	0.056
629	0.057
630	0.056
630	0.056
630	0.056
631	0.056
631	0.057
632	0.057
632	0.057
633	0.057
633	0.058
634	0.059
634	0.061
634	0.062
635	0.064
635	0.066
636	0.067
636	0.069
637	0.07
637	0.071
638	0.072
638	0.073
638	0.074
639	0.074
639	0.075
640	0.075
640	0.076
641	0.078
641	0.08
642	0.082
642	0.085
642	0.087
643	0.09
643	0.092
644	0.095
644	0.097
645	0.1
645	0.102
646	0.105
646	0.107
646	0.11
647	0.114
647	0.118
648	0.12
648	0.123
649	0.126
649	0.129
650	0.133
650	0.136
650	0.139
651	0.142
651	0.144
652	0.146
652	0.147
653	0.15
653	0.157
653	0.172
654	0.14
654	0.116
655	0.122
655	0.125
656	0.127
656	0.129
657	0.132
657	0.134
657	0.136
658	0.135
658	0.124
659	0.155
659	0.198
660	0.198
660	0.2
661	0.202
661	0.203
661	0.206
662	0.209
662	0.211
663	0.214
663	0.217
664	0.22
664	0.223
665	0.226
665	0.229
665	0.232
666	0.234
666	0.237
667	0.24
667	0.243
668	0.246
668	0.249
669	0.251
669	0.255
669	0.259
670	0.263
670	0.267
671	0.271
671	0.273
672	0.275
672	0.277
672	0.279
673	0.281
673	0.282
674	0.284
674	0.284
675	0.284
675	0.284
676	0.285
676	0.287
676	0.289
677	0.291
677	0.293
678	0.295
678	0.297
679	0.298
679	0.3
680	0.302
680	0.303
680	0.304
681	0.304
681	0.305
682	0.306
682	0.307
683	0.309
683	0.311
684	0.313
684	0.314
684	0.314
685	0.314
685	0.314
686	0.315
686	0.314
687	0.313
687	0.312
687	0.311
688	0.31
688	0.308
689	0.308
689	0.309
690	0.309
690	0.31
691	0.31
691	0.31
691	0.311
692	0.311
692	0.31
693	0.31
693	0.31
694	0.31
694	0.308
695	0.308
695	0.309
695	0.31
696	0.309
696	0.309
697	0.308
697	0.307
698	0.306
698	0.303
698	0.301
699	0.3
699	0.297
700	0.293
700	0.29
701	0.288
701	0.286
702	0.284
702	0.283
702	0.281
703	0.279
703	0.277
704	0.275
704	0.274
705	0.273
705	0.272
705	0.271
706	0.27
706	0.269
707	0.268
707	0.267
708	0.265
708	0.264
709	0.263
709	0.261
709	0.258
710	0.254
710	0.251
711	0.248
711	0.245
712	0.242
712	0.24
713	0.238
713	0.235
713	0.233
714	0.23
714	0.228
715	0.226
715	0.224
716	0.221
716	0.219
716	0.217
717	0.215
717	0.212
718	0.209
718	0.206
719	0.203
719	0.201
720	0.198
720	0.195
720	0.191
721	0.187
721	0.183
722	0.179
722	0.176
723	0.172
723	0.17
723	0.167
724	0.165
724	0.163
725	0.16
725	0.158
726	0.156
726	0.154
727	0.152
727	0.15
727	0.149
728	0.146
728	0.144
729	0.143
729	0.142
730	0.141
730	0.139
730	0.137
731	0.135
731	0.134
732	0.132
732	0.131
733	0.129
733	0.127
734	0.124
734	0.12
734	0.117
735	0.115
735	0.112
736	0.108
736	0.105
737	0.102
737	0.1
737	0.097
738	0.095
738	0.092
739	0.089
739	0.087
740	0.085
740	0.083
741	0.081
741	0.079
741	0.076
742	0.072
742	0.068
743	0.065
743	0.062
744	0.06
744	0.057
744	0.054
745	0.052
745	0.05
746	0.047
746	0.046
747	0.045
747	0.045
748	0.044
748	0.044
748	0.044
749	0.042
749	0.041
750	0.04
750	0.039
751	0.038
751	0.037
751	0.037
752	0.036
752	0.035
753	0.033
753	0.032
754	0.031
754	0.03
754	0.03
755	0.03
755	0.03
756	0.03
756	0.028
757	0.026
757	0.025
758	0.023
758	0.022
758	0.021
759	0.019
759	0.016
760	0.013
760	0.01
761	0.007
761	0.005
761	0.004
762	0.002
762	0.001
763	0
763	-0.001
764	-0.004
764	-0.006
764	-0.007
765	-0.009
765	-0.011
766	-0.012
766	-0.013
767	-0.014
767	-0.016
768	-0.019
768	-0.022
768	-0.023
769	-0.024
769	-0.025
770	-0.026
770	-0.027
771	-0.028
771	-0.03
771	-0.033
772	-0.035
772	-0.036
773	-0.038
773	-0.041
774	-0.044
774	-0.048
775	-0.051
775	-0.055
775	-0.059
776	-0.063
776	-0.067
777	-0.071
777	-0.075
778	-0.079
778	-0.084
778	-0.088
779	-0.091
779	-0.093
780	-0.097
780	-0.102
781	-0.106
781	-0.111
781	-0.115
782	-0.119
782	-0.124
783	-0.129
783	-0.131
784	-0.134
784	-0.137
784	-0.139
785	-0.141
785	-0.143
786	-0.144
786	-0.142
787	-0.138
787	-0.134
788	-0.133
788	-0.134
788	-0.136
789	-0.138
789	-0.138
790	-0.136
790	-0.135
791	-0.135
791	-0.137
791	-0.139
792	-0.134
792	-0.123
793	-0.116
793	-0.111
794	-0.109
794	-0.11
794	-0.113
795	-0.115
795	-0.115
796	-0.115
796	-0.118
797	-0.126
797	-0.137
797	-0.144
798	-0.15
798	-0.154
799	-0.155
799	-0.155
800	-0.155
800	-0.157
801	-0.16
801	-0.161
801	-0.161
802	-0.162
802	-0.163
803	-0.164
803	-0.163
804	-0.162
804	-0.156
804	-0.149
805	-0.145
805	-0.143
806	-0.14
806	-0.139
807	-0.138
807	-0.137
807	-0.136
808	-0.136
808	-0.136
809	-0.14
809	-0.145
810	-0.148
810	-0.151
810	-0.154
811	-0.156
811	-0.157
812	-0.153
812	-0.15
813	-0.151
813	-0.152
813	-0.154
814	-0.155
814	-0.156
815	-0.154
815	-0.152
816	-0.151
816	-0.152
817	-0.157
817	-0.161
817	-0.162
818	-0.161
818	-0.158
819	-0.153
819	-0.15
820	-0.151
820	-0.153
820	-0.154
821	-0.154
821	-0.153
822	-0.152
822	-0.15
823	-0.147
823	-0.147
823	-0.148
824	-0.147
824	-0.142
825	-0.135
825	-0.127
826	-0.119
826	-0.113
826	-0.106
827	-0.099
827	-0.094
828	-0.088
828	-0.083
829	-0.078
829	-0.074
829	-0.07
830	-0.067
830	-0.064
831	-0.059
831	-0.055
832	-0.052
832	-0.048
832	-0.045
833	-0.043
833	-0.041
834	-0.04
834	-0.039
835	-0.038
835	-0.038
835	-0.038
836	-0.038
836	-0.038
837	-0.038
837	-0.037
838	-0.037
838	-0.036
839	-0.036
839	-0.036
839	-0.035
840	-0.035
840	-0.034
841	-0.033
841	-0.032
842	-0.031
842	-0.03
842	-0.029
843	-0.029
843	-0.028
844	-0.027
844	-0.026
845	-0.025
845	-0.025
845	-0.024
846	-0.023
846	-0.022
847	-0.021
847	-0.02
848	-0.018
848	-0.017
848	-0.016
849	-0.014
849	-0.013
850	-0.012
850	-0.012
851	-0.011
851	-0.011
851	-0.011
852	-0.011
852	-0.011
853	-0.011
853	-0.011
854	-0.012
854	-0.012
854	-0.012
855	-0.012
855	-0.012
856	-0.012
856	-0.011
857	-0.011
857	-0.011
857	-0.011
858	-0.011
858	-0.01
859	-0.01
859	-0.01
860	-0.009
860	-0.008
860	-0.008
861	-0.007
861	-0.006
862	-0.006
862	-0.005
863	-0.004
863	-0.004
863	-0.003
864	-0.003
864	-0.002
865	-0.002
865	-0.002
866	-0.002
866	-0.002
866	-0.001
867	-0
867	-0
868	-0
868	-0
869	-0
869	-0.001
869	-0.001
870	-0.001
870	-0.001
871	-0.002
871	-0.002
872	-0.003
872	-0.004
872	-0.004
873	-0.004
873	-0.005
874	-0.005
874	-0.005
875	-0.006
875	-0.006
875	-0.007
876	-0.007
876	-0.007
877	-0.006
877	-0.006
878	-0.006
878	-0.006
878	-0.005
879	-0.005
879	-0.004
880	-0.004
880	-0.003
881	-0.002
881	-0.002
881	-0.001
882	-0
882	0
883	0.001
883	0.002
884	0.003
884	0.004
884	0.004
885	0.005
885	0.006
886	0.006
886	0.006
887	0.006
887	0.006
887	0.006
888	0.005
888	0.005
889	0.005
889	0.006
890	0.006
890	0.007
890	0.007
891	0.008
891	0.009
892	0.009
892	0.01
893	0.011
893	0.012
893	0.012
894	0.013
894	0.013
895	0.014
895	0.014
895	0.014
896	0.014
896	0.014
897	0.014
897	0.013
898	0.013
898	0.012
898	0.011
899	0.01
899	0.009
900	0.008
900	0.006
901	0.005
901	0.004
901	0.004
902	0.003
902	0.002
903	0.002
903	0.001
904	0.001
904	0.001
904	0.001
905	0.001
905	0.002
906	0.002
906	0.002
907	0.002
907	0.002
907	0.002
908	0.002
908	0.001
909	0.001
909	0.001
910	0.001
910	0.001
910	0.001
911	0.001
911	0.001
912	0.001
912	0.002
913	0.003
913	0.004
913	0.005
914	0.006
914	0.007
915	0.009
915	0.01
916	0.011
916	0.012
916	0.013
917	0.013
917	0.014
918	0.014
918	0.014
918	0.014
919	0.014
919	0.014
920	0.013
920	0.012
921	0.011
921	0.01
921	0.009
922	0.008
922	0.007
923	0.005
923	0.004
924	0.003
924	0.002
924	0.002
925	0.002
925	0.002
926	0.002
926	0.002
927	0.002
927	0.003
927	0.003
928	0.004
928	0.005
929	0.005
929	0.006
930	0.006
930	0.006
930	0.006
931	0.006
931	0.007
932	0.007
932	0.008
933	0.008
933	0.009
933	0.01
934	0.01
934	0.011
935	0.012
935	0.013
935	0.013
936	0.014
936	0.014
937	0.014
937	0.013
938	0.013
938	0.012
938	0.012
939	0.011
939	0.011
940	0.011
940	0.011
941	0.012
941	0.012
941	0.013
942	0.014
942	0.015
943	0.015
943	0.016
944	0.017
944	0.017
944	0.018
945	0.018
945	0.018
946	0.019
946	0.019
946	0.019
947	0.019
947	0.019
948	0.018
948	0.018
949	0.017
949	0.017
949	0.016
950	0.016
950	0.015
951	0.015
951	0.014
952	0.014
952	0.014
952	0.014
953	0.014
953	0.014
954	0.014
954	0.014
955	0.014
955	0.014
955	0.014
956	0.015
956	0.015
957	0.015
957	0.015
957	0.014
958	0.014
958	0.014
959	0.014
959	0.013
960	0.013
960	0.013
960	0.013
961	0.012
961	0.012
962	0.013
962	0.013
963	0.013
963	0.013
963	0.013
964	0.013
964	0.013
965	0.012
965	0.012
966	0.012
966	0.011
966	0.011
967	0.01
967	0.01
968	0.009
968	0.009
968	0.009
969	0.009
969	0.009
970	0.009
970	0.009
971	0.01
971	0.01
971	0.011
972	0.012
972	0.013
973	0.014
973	0.014
974	0.015
974	0.016
974	0.016
975	0.016
975	0.016
976	0.016
976	0.015
976	0.015
977	0.014
977	0.013
978	0.012
978	0.01
979	0.009
979	0.008
979	0.008
980	0.007
980	0.006
981	0.006
981	0.005
982	0.005
982	0.005
982	0.005
983	0.005
983	0.005
984	0.005
984	0.005
984	0.005
985	0.005
985	0.004
986	0.003
986	0.002
987	0.002
987	0.001
987	0.001
988	0.001
988	0.001
989	0.001
989	0.001
990	0.002
990	0.002
990	0.003
991	0.005
991	0.005
992	0.006
992	0.007
992	0.007
993	0.007
993	0.008
994	0.008
994	0.007
995	0.007
995	0.007
995	0.007
996	0.006
996	0.005
997	0.005
997	0.004
997	0.003
998	0.003
998	0.003
999	0.002
999	0.002
1000	0.002
1000	0.002
1000	0.002
1001	0.002
1001	0.002
1002	0.002
1002	0.002
1003	0.002
1003	0.002
1003	0.002
1004	0.002
1004	0.002
1005	0.001
1005	0.001
1005	0.001
1006	0
1006	-0
1007	-0.001
1007	-0.001
1008	-0.001
1008	-0.001
1008	-0.001
1009	-0
1009	0
1010	0.001
1010	0.002
1010	0.003
1011	0.004
1011	0.005
1012	0.006
1012	0.006
1013	0.007
1013	0.007
1013	0.008
1014	0.008
1014	0.008
1015	0.008
1015	0.008
1016	0.007
1016	0.007
1016	0.007
1017	0.007
1017	0.007
1018	0.008
1018	0.008
1018	0.009
1019	0.009
1019	0.01
1020	0.01
1020	0.01
1021	0.01
1021	0.01
1021	0.01
1022	0.01
1022	0.01
1023	0.01
1023	0.009
1023	0.009
1024	0.009
1024	0.009
1025	0.009
1025	0.01
1026	0.01
1026	0.01
1026	0.011
1027	0.011
1027	0.011
1028	0.011
1028	0.012
1028	0.012
1029	0.012
1029	0.012
1030	0.011
1030	0.011
1031	0.01
1031	0.01
1031	0.009
1032	0.009
1032	0.008
1033	0.007
1033	0.006
1033	0.006
1034	0.005
1034	0.005
1035	0.005
1035	0.004
1036	0.004
1036	0.005
1036	0.005
1037	0.005
1037	0.006
1038	0.006
1038	0.007
1039	0.007
1039	0.008
1039	0.009
1040	0.009
1040	0.01
1041	0.011
1041	0.012
1041	0.012
1042	0.013
1042	0.014
1043	0.015
1043	0.016
1044	0.017
1044	0.018
1044	0.019
1045	0.02
1045	0.021
1046	0.022
1046	0.023
1046	0.025
1047	0.027
1047	0.029
1048	0.03
1048	0.032
1049	0.033
1049	0.034
1049	0.034
1050	0.034
1050	0.035
1051	0.035
1051	0.035
1051	0.035
1052	0.035
1052	0.034
1053	0.034
1053	0.033
1053	0.033
1054	0.032
1054	0.032
1055	0.031
1055	0.031
1056	0.03
1056	0.029
1056	0.028
1057	0.027
1057	0.026
1058	0.026
1058	0.026
1058	0.026
1059	0.026
1059	0.026
1060	0.026
1060	0.027
1061	0.027
1061	0.028
1061	0.029
1062	0.03
1062	0.03
1063	0.031
1063	0.032
1063	0.033
1064	0.034
1064	0.036
1065	0.038
1065	0.04
1066	0.042
1066	0.044
1066	0.046
1067	0.048
1067	0.051
1068	0.053
1068	0.055
1068	0.057
1069	0.058
1069	0.059
1070	0.06
1070	0.061
1071	0.062
1071	0.064
1071	0.064
1072	0.066
1072	0.067
1073	0.068
1073	0.069
1073	0.071
1074	0.072
1074	0.074
1075	0.074
1075	0.075
1076	0.075
1076	0.076
1076	0.076
1077	0.077
1077	0.078
1078	0.08
1078	0.081
1078	0.083
1079	0.085
1079	0.088
1080	0.089
1080	0.092
1080	0.094
1081	0.097
1081	0.1
1082	0.102
1082	0.104
1083	0.106
1083	0.109
1083	0.112
1084	0.115
1084	0.119
1085	0.122
1085	0.125
1085	0.129
1086	0.132
1086	0.134
1087	0.139
1087	0.143
1088	0.146
1088	0.15
1088	0.155
1089	0.16
1089	0.165
1090	0.17
1090	0.177
1090	0.184
1091	0.192
1091	0.202
1092	0.211
1092	0.222
1092	0.231
1093	0.242
1093	0.254
1094	0.266
1094	0.28
1095	0.293
1095	0.309
1095	0.328
1096	0.347
1096	0.368
1097	0.392
1097	0.418
1097	0.448
1098	0.479
1098	0.516
1099	0.558
1099	0.61
1100	0.671
1100	0.743
1100	0.84
1101	0.969
1101	1.169
1102	1.651
1102	-0
1102	-0
1103	-0
1103	-0
1104	-0
1104	-0
1104	-0
1105	-0
1105	-0
1106	-0
1106	-0
1107	-0
1107	-0
1107	-0
1108	-0
1108	-0
1109	-0
1109	-0
1109	-0
1110	-0
1110	-0
1111	-0
1111	-0
