Data from 15c-2-4a_Absorbance__40__00040.txt Node

Date: Thu Jan 25 10:05:31 CET 2024
User: Marek
Spectrometer: MAYP115816
Trigger mode: 0
Integration Time (sec): 2.000000E-1
Scans to average: 10
Electric dark correction enabled: true
Nonlinearity correction enabled: true
Boxcar width: 5
XAxis mode: Wavelengths
Number of Pixels in Spectrum: 2068
>>>>>Begin Spectral Data<<<<<
199	-2.132
199	-1.96
200	-1.806
200	-1.684
201	-1.605
201	-1.548
202	-1.465
202	-1.403
203	-1.35
203	-1.302
204	-1.277
204	-1.249
205	-1.228
205	-1.217
205	-1.211
206	-1.207
206	-1.202
207	-1.203
207	-1.199
208	-1.194
208	-1.19
209	-1.186
209	-1.183
210	-1.18
210	-1.177
211	-1.176
211	-1.175
212	-1.171
212	-1.168
213	-1.167
213	-1.167
213	-1.167
214	-1.165
214	-1.164
215	-1.162
215	-1.161
216	-1.158
216	-1.157
217	-1.155
217	-1.152
218	-1.151
218	-1.148
219	-1.146
219	-1.144
220	-1.143
220	-1.138
221	-1.135
221	-1.133
221	-1.13
222	-1.127
222	-1.126
223	-1.121
223	-1.115
224	-1.107
224	-1.099
225	-1.09
225	-1.083
226	-1.071
226	-1.06
227	-1.045
227	-1.032
228	-1.013
228	-0.994
229	-0.974
229	-0.951
229	-0.926
230	-0.898
230	-0.869
231	-0.837
231	-0.8
232	-0.762
232	-0.721
233	-0.679
233	-0.636
234	-0.593
234	-0.549
235	-0.506
235	-0.464
236	-0.422
236	-0.384
236	-0.347
237	-0.313
237	-0.281
238	-0.251
238	-0.223
239	-0.198
239	-0.174
240	-0.153
240	-0.133
241	-0.115
241	-0.098
242	-0.083
242	-0.069
243	-0.056
243	-0.044
243	-0.033
244	-0.023
244	-0.014
245	-0.006
245	0.002
246	0.009
246	0.015
247	0.022
247	0.027
248	0.033
248	0.037
249	0.042
249	0.046
250	0.05
250	0.054
250	0.058
251	0.061
251	0.065
252	0.068
252	0.071
253	0.074
253	0.076
254	0.079
254	0.081
255	0.084
255	0.086
256	0.088
256	0.09
257	0.091
257	0.093
258	0.094
258	0.095
258	0.096
259	0.098
259	0.098
260	0.099
260	0.1
261	0.1
261	0.101
262	0.101
262	0.101
263	0.101
263	0.101
264	0.101
264	0.101
265	0.101
265	0.101
265	0.1
266	0.1
266	0.1
267	0.099
267	0.099
268	0.098
268	0.097
269	0.097
269	0.096
270	0.095
270	0.094
271	0.093
271	0.092
272	0.091
272	0.09
272	0.089
273	0.087
273	0.086
274	0.085
274	0.084
275	0.082
275	0.081
276	0.08
276	0.078
277	0.077
277	0.076
278	0.074
278	0.072
278	0.071
279	0.07
279	0.068
280	0.067
280	0.066
281	0.065
281	0.064
282	0.063
282	0.062
283	0.062
283	0.061
284	0.06
284	0.059
285	0.058
285	0.057
285	0.056
286	0.055
286	0.054
287	0.053
287	0.052
288	0.051
288	0.05
289	0.05
289	0.049
290	0.048
290	0.047
291	0.046
291	0.046
292	0.045
292	0.044
292	0.044
293	0.043
293	0.043
294	0.042
294	0.042
295	0.041
295	0.041
296	0.041
296	0.04
297	0.04
297	0.04
298	0.04
298	0.039
298	0.039
299	0.039
299	0.039
300	0.038
300	0.038
301	0.038
301	0.038
302	0.038
302	0.038
303	0.037
303	0.037
304	0.037
304	0.037
305	0.037
305	0.037
305	0.037
306	0.036
306	0.036
307	0.036
307	0.036
308	0.036
308	0.035
309	0.035
309	0.035
310	0.035
310	0.034
311	0.034
311	0.034
311	0.034
312	0.034
312	0.034
313	0.033
313	0.033
314	0.033
314	0.032
315	0.032
315	0.032
316	0.032
316	0.032
317	0.031
317	0.031
318	0.031
318	0.031
318	0.031
319	0.03
319	0.03
320	0.03
320	0.03
321	0.029
321	0.029
322	0.029
322	0.029
323	0.028
323	0.028
324	0.028
324	0.027
324	0.027
325	0.027
325	0.027
326	0.026
326	0.026
327	0.026
327	0.026
328	0.025
328	0.025
329	0.025
329	0.025
330	0.025
330	0.024
330	0.024
331	0.023
331	0.023
332	0.023
332	0.022
333	0.022
333	0.022
334	0.021
334	0.021
335	0.021
335	0.021
336	0.021
336	0.02
336	0.02
337	0.02
337	0.02
338	0.02
338	0.019
339	0.019
339	0.019
340	0.019
340	0.018
341	0.018
341	0.018
342	0.018
342	0.017
342	0.017
343	0.017
343	0.016
344	0.016
344	0.016
345	0.016
345	0.015
346	0.015
346	0.015
347	0.014
347	0.014
348	0.014
348	0.013
348	0.013
349	0.012
349	0.012
350	0.012
350	0.011
351	0.011
351	0.011
352	0.01
352	0.01
353	0.009
353	0.009
354	0.008
354	0.008
354	0.008
355	0.007
355	0.007
356	0.006
356	0.006
357	0.006
357	0.006
358	0.006
358	0.006
359	0.007
359	0.007
360	0.008
360	0.008
360	0.008
361	0.009
361	0.009
362	0.009
362	0.009
363	0.009
363	0.008
364	0.008
364	0.008
365	0.007
365	0.007
366	0.007
366	0.007
366	0.007
367	0.006
367	0.006
368	0.006
368	0.006
369	0.006
369	0.006
370	0.006
370	0.006
371	0.005
371	0.005
372	0.005
372	0.005
372	0.005
373	0.004
373	0.004
374	0.004
374	0.004
375	0.004
375	0.004
376	0.004
376	0.004
377	0.004
377	0.004
378	0.005
378	0.005
378	0.005
379	0.005
379	0.005
380	0.005
380	0.005
381	0.005
381	0.005
382	0.005
382	0.005
383	0.005
383	0.005
383	0.005
384	0.004
384	0.004
385	0.004
385	0.004
386	0.004
386	0.004
387	0.004
387	0.004
388	0.004
388	0.004
389	0.004
389	0.004
389	0.004
390	0.004
390	0.005
391	0.005
391	0.005
392	0.005
392	0.005
393	0.005
393	0.005
394	0.005
394	0.005
394	0.005
395	0.005
395	0.005
396	0.004
396	0.004
397	0.004
397	0.005
398	0.005
398	0.004
399	0.004
399	0.005
400	0.004
400	0.004
400	0.004
401	0.004
401	0.003
402	0.003
402	0.003
403	0.002
403	0.002
404	0.002
404	0.002
405	0.002
405	0.002
405	0.002
406	0.001
406	0.001
407	0.001
407	0.001
408	0.001
408	0.001
409	0
409	-0
410	-0
410	-0
411	0
411	0
411	0
412	0
412	-0
413	-0
413	-0
414	-0
414	-0
415	-0
415	-0.001
416	-0.001
416	-0.001
416	-0.001
417	-0.001
417	-0.001
418	-0.001
418	-0.001
419	-0.001
419	-0.001
420	-0
420	0
421	0
421	0.001
421	0.001
422	0.001
422	0.001
423	0.001
423	0.001
424	0.001
424	0
425	-0
425	-0.001
426	-0.001
426	-0.001
427	-0.001
427	-0.001
427	-0.001
428	-0.001
428	-0
429	-0
429	0
430	0
430	0
431	-0
431	-0.001
432	-0.001
432	-0.001
432	-0.002
433	-0.003
433	-0.003
434	-0.004
434	-0.004
435	-0.004
435	-0.004
436	-0.004
436	-0.004
437	-0.004
437	-0.004
437	-0.003
438	-0.003
438	-0.003
439	-0.004
439	-0.004
440	-0.004
440	-0.004
441	-0.004
441	-0.004
442	-0.004
442	-0.004
442	-0.004
443	-0.003
443	-0.003
444	-0.003
444	-0.003
445	-0.003
445	-0.003
446	-0.003
446	-0.002
447	-0.003
447	-0.003
447	-0.003
448	-0.003
448	-0.003
449	-0.003
449	-0.003
450	-0.003
450	-0.004
451	-0.004
451	-0.004
452	-0.005
452	-0.005
452	-0.006
453	-0.006
453	-0.006
454	-0.007
454	-0.007
455	-0.008
455	-0.008
456	-0.008
456	-0.008
457	-0.009
457	-0.009
458	-0.009
458	-0.009
458	-0.008
459	-0.008
459	-0.008
460	-0.008
460	-0.009
461	-0.009
461	-0.009
462	-0.01
462	-0.009
463	-0.009
463	-0.009
463	-0.009
464	-0.009
464	-0.009
465	-0.009
465	-0.009
466	-0.009
466	-0.009
467	-0.009
467	-0.01
467	-0.011
468	-0.012
468	-0.013
469	-0.014
469	-0.015
470	-0.016
470	-0.016
471	-0.017
471	-0.017
472	-0.017
472	-0.017
472	-0.017
473	-0.017
473	-0.016
474	-0.015
474	-0.015
475	-0.014
475	-0.014
476	-0.014
476	-0.014
477	-0.014
477	-0.013
477	-0.013
478	-0.013
478	-0.013
479	-0.013
479	-0.013
480	-0.013
480	-0.013
481	-0.012
481	-0.012
482	-0.012
482	-0.012
482	-0.011
483	-0.01
483	-0.009
484	-0.007
484	-0.006
485	-0.005
485	-0.004
486	-0.004
486	-0.004
487	-0.003
487	-0.004
487	-0.004
488	-0.005
488	-0.006
489	-0.007
489	-0.009
490	-0.01
490	-0.011
491	-0.012
491	-0.012
492	-0.012
492	-0.012
492	-0.012
493	-0.012
493	-0.012
494	-0.011
494	-0.01
495	-0.01
495	-0.009
496	-0.009
496	-0.009
496	-0.009
497	-0.009
497	-0.009
498	-0.009
498	-0.009
499	-0.009
499	-0.01
500	-0.01
500	-0.01
501	-0.009
501	-0.009
501	-0.008
502	-0.008
502	-0.007
503	-0.007
503	-0.006
504	-0.006
504	-0.006
505	-0.005
505	-0.005
506	-0.005
506	-0.006
506	-0.006
507	-0.006
507	-0.006
508	-0.006
508	-0.006
509	-0.007
509	-0.007
510	-0.007
510	-0.007
511	-0.007
511	-0.007
511	-0.008
512	-0.008
512	-0.009
513	-0.01
513	-0.01
514	-0.011
514	-0.011
515	-0.011
515	-0.012
515	-0.013
516	-0.014
516	-0.015
517	-0.015
517	-0.015
518	-0.015
518	-0.015
519	-0.015
519	-0.016
520	-0.016
520	-0.017
520	-0.019
521	-0.02
521	-0.021
522	-0.024
522	-0.026
523	-0.028
523	-0.03
524	-0.031
524	-0.032
524	-0.032
525	-0.031
525	-0.03
526	-0.028
526	-0.026
527	-0.023
527	-0.021
528	-0.019
528	-0.016
529	-0.015
529	-0.013
529	-0.012
530	-0.011
530	-0.01
531	-0.01
531	-0.009
532	-0.009
532	-0.008
533	-0.008
533	-0.007
533	-0.007
534	-0.007
534	-0.007
535	-0.007
535	-0.007
536	-0.007
536	-0.007
537	-0.007
537	-0.007
538	-0.007
538	-0.008
538	-0.008
539	-0.008
539	-0.008
540	-0.009
540	-0.009
541	-0.009
541	-0.009
542	-0.009
542	-0.01
542	-0.01
543	-0.01
543	-0.01
544	-0.01
544	-0.01
545	-0.01
545	-0.009
546	-0.009
546	-0.009
547	-0.009
547	-0.009
547	-0.01
548	-0.011
548	-0.012
549	-0.012
549	-0.013
550	-0.014
550	-0.014
551	-0.015
551	-0.016
551	-0.017
552	-0.017
552	-0.017
553	-0.017
553	-0.017
554	-0.016
554	-0.016
555	-0.016
555	-0.016
556	-0.017
556	-0.018
556	-0.019
557	-0.02
557	-0.021
558	-0.021
558	-0.022
559	-0.022
559	-0.022
560	-0.022
560	-0.022
560	-0.021
561	-0.021
561	-0.02
562	-0.019
562	-0.019
563	-0.019
563	-0.02
564	-0.021
564	-0.022
564	-0.023
565	-0.024
565	-0.024
566	-0.025
566	-0.025
567	-0.024
567	-0.023
568	-0.022
568	-0.02
568	-0.018
569	-0.016
569	-0.014
570	-0.012
570	-0.011
571	-0.01
571	-0.009
572	-0.008
572	-0.007
573	-0.007
573	-0.006
573	-0.006
574	-0.006
574	-0.006
575	-0.005
575	-0.004
576	-0.003
576	-0.002
577	-0.002
577	-0.002
577	-0.002
578	-0.002
578	-0.002
579	-0.002
579	-0.001
580	-0
580	-0.001
581	-0.002
581	-0.002
581	-0.003
582	-0.004
582	-0.003
583	-0.003
583	-0.002
584	-0.003
584	-0.004
585	-0.005
585	-0.006
585	-0.006
586	-0.006
586	-0.006
587	-0.006
587	-0.007
588	-0.009
588	-0.01
589	-0.011
589	-0.012
590	-0.013
590	-0.013
590	-0.013
591	-0.013
591	-0.013
592	-0.012
592	-0.012
593	-0.012
593	-0.012
594	-0.012
594	-0.012
594	-0.013
595	-0.013
595	-0.013
596	-0.014
596	-0.014
597	-0.013
597	-0.012
598	-0.011
598	-0.011
598	-0.01
599	-0.01
599	-0.009
600	-0.009
600	-0.01
601	-0.011
601	-0.011
602	-0.012
602	-0.013
602	-0.014
603	-0.015
603	-0.015
604	-0.014
604	-0.014
605	-0.013
605	-0.013
606	-0.012
606	-0.012
606	-0.012
607	-0.012
607	-0.012
608	-0.012
608	-0.012
609	-0.013
609	-0.014
610	-0.014
610	-0.015
610	-0.015
611	-0.015
611	-0.014
612	-0.014
612	-0.013
613	-0.012
613	-0.011
614	-0.011
614	-0.011
614	-0.011
615	-0.012
615	-0.012
616	-0.013
616	-0.014
617	-0.014
617	-0.016
618	-0.017
618	-0.018
618	-0.019
619	-0.019
619	-0.02
620	-0.019
620	-0.019
621	-0.018
621	-0.018
622	-0.018
622	-0.018
622	-0.018
623	-0.019
623	-0.019
624	-0.019
624	-0.019
625	-0.019
625	-0.019
626	-0.019
626	-0.02
626	-0.02
627	-0.02
627	-0.02
628	-0.02
628	-0.02
629	-0.02
629	-0.02
630	-0.021
630	-0.022
630	-0.022
631	-0.022
631	-0.022
632	-0.023
632	-0.023
633	-0.023
633	-0.023
634	-0.023
634	-0.022
634	-0.022
635	-0.021
635	-0.02
636	-0.02
636	-0.019
637	-0.019
637	-0.019
638	-0.019
638	-0.018
638	-0.018
639	-0.019
639	-0.019
640	-0.019
640	-0.019
641	-0.019
641	-0.018
642	-0.017
642	-0.016
642	-0.016
643	-0.015
643	-0.014
644	-0.013
644	-0.011
645	-0.01
645	-0.01
646	-0.009
646	-0.008
646	-0.007
647	-0.006
647	-0.004
648	-0.003
648	-0.002
649	-0.001
649	0
650	0.001
650	0.002
650	0.003
651	0.004
651	0.005
652	0.005
652	0.005
653	0.006
653	0.008
653	0.009
654	0.009
654	0.009
655	0.012
655	0.012
656	0.014
656	0.014
657	0.015
657	0.016
657	0.017
658	0.016
658	0.018
659	0.02
659	0.023
660	0.022
660	0.022
661	0.022
661	0.022
661	0.022
662	0.023
662	0.024
663	0.025
663	0.026
664	0.026
664	0.027
665	0.028
665	0.029
665	0.03
666	0.031
666	0.032
667	0.033
667	0.034
668	0.034
668	0.035
669	0.036
669	0.037
669	0.038
670	0.04
670	0.041
671	0.042
671	0.043
672	0.043
672	0.044
672	0.044
673	0.044
673	0.045
674	0.045
674	0.044
675	0.044
675	0.044
676	0.044
676	0.045
676	0.046
677	0.047
677	0.047
678	0.048
678	0.049
679	0.049
679	0.05
680	0.051
680	0.051
680	0.052
681	0.052
681	0.052
682	0.053
682	0.053
683	0.054
683	0.055
684	0.057
684	0.057
684	0.058
685	0.058
685	0.059
686	0.059
686	0.059
687	0.059
687	0.058
687	0.058
688	0.057
688	0.056
689	0.055
689	0.055
690	0.055
690	0.054
691	0.054
691	0.054
691	0.054
692	0.053
692	0.053
693	0.053
693	0.054
694	0.054
694	0.054
695	0.055
695	0.057
695	0.058
696	0.058
696	0.059
697	0.059
697	0.059
698	0.059
698	0.058
698	0.058
699	0.057
699	0.056
700	0.054
700	0.053
701	0.053
701	0.052
702	0.052
702	0.051
702	0.05
703	0.049
703	0.049
704	0.048
704	0.047
705	0.047
705	0.047
705	0.046
706	0.046
706	0.045
707	0.045
707	0.044
708	0.044
708	0.043
709	0.043
709	0.042
709	0.041
710	0.04
710	0.039
711	0.039
711	0.038
712	0.038
712	0.038
713	0.039
713	0.039
713	0.038
714	0.038
714	0.037
715	0.037
715	0.036
716	0.035
716	0.035
716	0.034
717	0.033
717	0.032
718	0.03
718	0.029
719	0.028
719	0.027
720	0.026
720	0.025
720	0.024
721	0.023
721	0.021
722	0.019
722	0.018
723	0.016
723	0.015
723	0.014
724	0.013
724	0.012
725	0.011
725	0.01
726	0.009
726	0.009
727	0.009
727	0.008
727	0.008
728	0.008
728	0.007
729	0.007
729	0.007
730	0.007
730	0.006
730	0.006
731	0.005
731	0.005
732	0.004
732	0.004
733	0.004
733	0.003
734	0.002
734	0.001
734	0
735	-0.001
735	-0.001
736	-0.003
736	-0.003
737	-0.004
737	-0.005
737	-0.006
738	-0.007
738	-0.008
739	-0.009
739	-0.01
740	-0.011
740	-0.012
741	-0.013
741	-0.014
741	-0.016
742	-0.018
742	-0.02
743	-0.021
743	-0.022
744	-0.023
744	-0.024
744	-0.025
745	-0.027
745	-0.028
746	-0.029
746	-0.029
747	-0.029
747	-0.03
748	-0.03
748	-0.03
748	-0.03
749	-0.031
749	-0.031
750	-0.031
750	-0.032
751	-0.031
751	-0.031
751	-0.031
752	-0.03
752	-0.031
753	-0.031
753	-0.031
754	-0.031
754	-0.031
754	-0.031
755	-0.031
755	-0.03
756	-0.03
756	-0.031
757	-0.032
757	-0.032
758	-0.033
758	-0.033
758	-0.034
759	-0.034
759	-0.035
760	-0.036
760	-0.038
761	-0.04
761	-0.041
761	-0.042
762	-0.043
762	-0.043
763	-0.043
763	-0.043
764	-0.044
764	-0.046
764	-0.047
765	-0.048
765	-0.049
766	-0.05
766	-0.05
767	-0.051
767	-0.052
768	-0.054
768	-0.056
768	-0.057
769	-0.057
769	-0.057
770	-0.057
770	-0.058
771	-0.058
771	-0.06
771	-0.062
772	-0.063
772	-0.065
773	-0.067
773	-0.069
774	-0.071
774	-0.075
775	-0.077
775	-0.081
775	-0.084
776	-0.088
776	-0.092
777	-0.096
777	-0.099
778	-0.102
778	-0.106
778	-0.109
779	-0.112
779	-0.112
780	-0.114
780	-0.117
781	-0.12
781	-0.122
781	-0.124
782	-0.126
782	-0.13
783	-0.133
783	-0.135
784	-0.136
784	-0.139
784	-0.141
785	-0.142
785	-0.145
786	-0.145
786	-0.143
787	-0.139
787	-0.135
788	-0.134
788	-0.135
788	-0.137
789	-0.14
789	-0.14
790	-0.137
790	-0.136
791	-0.137
791	-0.139
791	-0.141
792	-0.135
792	-0.124
793	-0.117
793	-0.113
794	-0.11
794	-0.111
794	-0.115
795	-0.117
795	-0.116
796	-0.116
796	-0.119
797	-0.128
797	-0.139
797	-0.146
798	-0.151
798	-0.155
799	-0.156
799	-0.156
800	-0.157
800	-0.159
801	-0.162
801	-0.163
801	-0.162
802	-0.164
802	-0.165
803	-0.165
803	-0.165
804	-0.163
804	-0.158
804	-0.151
805	-0.146
805	-0.144
806	-0.142
806	-0.14
807	-0.139
807	-0.138
807	-0.138
808	-0.137
808	-0.138
809	-0.142
809	-0.147
810	-0.15
810	-0.152
810	-0.155
811	-0.158
811	-0.158
812	-0.155
812	-0.152
813	-0.152
813	-0.153
813	-0.155
814	-0.157
814	-0.157
815	-0.156
815	-0.154
816	-0.152
816	-0.153
817	-0.158
817	-0.162
817	-0.163
818	-0.163
818	-0.16
819	-0.154
819	-0.151
820	-0.152
820	-0.154
820	-0.155
821	-0.153
821	-0.151
822	-0.147
822	-0.143
823	-0.139
823	-0.137
823	-0.136
824	-0.133
824	-0.127
825	-0.118
825	-0.109
826	-0.101
826	-0.095
826	-0.089
827	-0.084
827	-0.079
828	-0.074
828	-0.07
829	-0.066
829	-0.063
829	-0.061
830	-0.059
830	-0.058
831	-0.055
831	-0.052
832	-0.05
832	-0.049
832	-0.047
833	-0.046
833	-0.045
834	-0.044
834	-0.043
835	-0.043
835	-0.042
835	-0.043
836	-0.043
836	-0.043
837	-0.042
837	-0.042
838	-0.042
838	-0.042
839	-0.041
839	-0.041
839	-0.041
840	-0.04
840	-0.039
841	-0.038
841	-0.038
842	-0.037
842	-0.036
842	-0.034
843	-0.034
843	-0.033
844	-0.031
844	-0.031
845	-0.03
845	-0.03
845	-0.029
846	-0.029
846	-0.029
847	-0.029
847	-0.028
848	-0.027
848	-0.027
848	-0.026
849	-0.025
849	-0.024
850	-0.023
850	-0.022
851	-0.021
851	-0.02
851	-0.019
852	-0.019
852	-0.018
853	-0.018
853	-0.018
854	-0.018
854	-0.018
854	-0.018
855	-0.018
855	-0.018
856	-0.018
856	-0.018
857	-0.017
857	-0.017
857	-0.017
858	-0.016
858	-0.016
859	-0.015
859	-0.015
860	-0.014
860	-0.013
860	-0.013
861	-0.012
861	-0.011
862	-0.01
862	-0.009
863	-0.008
863	-0.007
863	-0.005
864	-0.004
864	-0.003
865	-0.002
865	-0.002
866	-0.001
866	-0.001
866	-0
867	-0
867	-0
868	-0.001
868	-0.001
869	-0.002
869	-0.002
869	-0.003
870	-0.003
870	-0.003
871	-0.004
871	-0.004
872	-0.005
872	-0.005
872	-0.005
873	-0.005
873	-0.005
874	-0.005
874	-0.005
875	-0.004
875	-0.004
875	-0.003
876	-0.003
876	-0.002
877	-0.001
877	-0
878	-0
878	0
878	0
879	0
879	-0
880	-0
880	-0.001
881	-0.001
881	-0.001
881	-0.001
882	-0.002
882	-0.002
883	-0.002
883	-0.002
884	-0.001
884	-0.001
884	-0.001
885	-0.001
885	-0.001
886	-0.001
886	-0.001
887	-0.001
887	-0.002
887	-0.002
888	-0.003
888	-0.003
889	-0.003
889	-0.003
890	-0.003
890	-0.003
890	-0.003
891	-0.003
891	-0.003
892	-0.003
892	-0.003
893	-0.003
893	-0.002
893	-0.002
894	-0.002
894	-0.002
895	-0.002
895	-0.002
895	-0.002
896	-0.002
896	-0.003
897	-0.003
897	-0.003
898	-0.004
898	-0.004
898	-0.005
899	-0.005
899	-0.005
900	-0.006
900	-0.006
901	-0.006
901	-0.007
901	-0.007
902	-0.007
902	-0.007
903	-0.008
903	-0.008
904	-0.008
904	-0.007
904	-0.007
905	-0.007
905	-0.006
906	-0.005
906	-0.004
907	-0.003
907	-0.002
907	-0.001
908	-0.001
908	-0
909	0
909	0.001
910	0.001
910	0.001
910	0.001
911	0
911	0
912	0.001
912	0.001
913	0.001
913	0.001
913	0.002
914	0.002
914	0.003
915	0.003
915	0.004
916	0.004
916	0.004
916	0.004
917	0.004
917	0.004
918	0.003
918	0.003
918	0.003
919	0.002
919	0.001
920	0.001
920	-0
921	-0.001
921	-0.001
921	-0.002
922	-0.002
922	-0.002
923	-0.002
923	-0.001
924	-0.001
924	-0
924	0
925	0.001
925	0.001
926	0.002
926	0.003
927	0.003
927	0.003
927	0.004
928	0.004
928	0.004
929	0.004
929	0.004
930	0.004
930	0.004
930	0.004
931	0.004
931	0.004
932	0.003
932	0.003
933	0.003
933	0.003
933	0.003
934	0.004
934	0.004
935	0.005
935	0.005
935	0.006
936	0.006
936	0.006
937	0.006
937	0.006
938	0.006
938	0.006
938	0.006
939	0.005
939	0.005
940	0.005
940	0.006
941	0.006
941	0.007
941	0.007
942	0.008
942	0.009
943	0.01
943	0.011
944	0.012
944	0.013
944	0.013
945	0.014
945	0.015
946	0.015
946	0.016
946	0.016
947	0.016
947	0.016
948	0.016
948	0.015
949	0.015
949	0.014
949	0.013
950	0.012
950	0.011
951	0.01
951	0.01
952	0.009
952	0.009
952	0.009
953	0.009
953	0.009
954	0.01
954	0.01
955	0.011
955	0.011
955	0.012
956	0.012
956	0.013
957	0.013
957	0.012
957	0.012
958	0.012
958	0.012
959	0.012
959	0.012
960	0.012
960	0.012
960	0.012
961	0.013
961	0.013
962	0.014
962	0.014
963	0.015
963	0.015
963	0.015
964	0.016
964	0.016
965	0.016
965	0.015
966	0.015
966	0.014
966	0.014
967	0.013
967	0.012
968	0.011
968	0.01
968	0.009
969	0.008
969	0.007
970	0.007
970	0.007
971	0.007
971	0.007
971	0.007
972	0.008
972	0.008
973	0.009
973	0.01
974	0.011
974	0.011
974	0.012
975	0.012
975	0.012
976	0.012
976	0.012
976	0.011
977	0.011
977	0.01
978	0.009
978	0.008
979	0.007
979	0.006
979	0.005
980	0.005
980	0.004
981	0.003
981	0.003
982	0.002
982	0.002
982	0.002
983	0.002
983	0.002
984	0.002
984	0.001
984	0.001
985	0.001
985	0.001
986	0.001
986	0.001
987	0.001
987	0.001
987	0.001
988	0.001
988	0.001
989	0.001
989	0.001
990	0.001
990	0.001
990	0.002
991	0.002
991	0.002
992	0.002
992	0.002
992	0.002
993	0.001
993	0.001
994	0
994	-0
995	-0.001
995	-0.001
995	-0.001
996	-0.002
996	-0.002
997	-0.002
997	-0.002
997	-0.002
998	-0.002
998	-0.002
999	-0.001
999	-0.001
1000	0
1000	0.001
1000	0.001
1001	0.002
1001	0.003
1002	0.003
1002	0.003
1003	0.003
1003	0.003
1003	0.003
1004	0.003
1004	0.003
1005	0.003
1005	0.003
1005	0.002
1006	0.002
1006	0.002
1007	0.003
1007	0.003
1008	0.003
1008	0.003
1008	0.003
1009	0.003
1009	0.003
1010	0.004
1010	0.004
1010	0.005
1011	0.005
1011	0.006
1012	0.007
1012	0.008
1013	0.009
1013	0.01
1013	0.011
1014	0.013
1014	0.013
1015	0.014
1015	0.015
1016	0.016
1016	0.016
1016	0.017
1017	0.017
1017	0.018
1018	0.018
1018	0.019
1018	0.019
1019	0.019
1019	0.019
1020	0.019
1020	0.019
1021	0.019
1021	0.018
1021	0.018
1022	0.018
1022	0.017
1023	0.017
1023	0.017
1023	0.016
1024	0.016
1024	0.016
1025	0.016
1025	0.016
1026	0.016
1026	0.016
1026	0.016
1027	0.016
1027	0.015
1028	0.015
1028	0.015
1028	0.015
1029	0.015
1029	0.015
1030	0.014
1030	0.014
1031	0.014
1031	0.015
1031	0.015
1032	0.015
1032	0.015
1033	0.015
1033	0.016
1033	0.016
1034	0.016
1034	0.016
1035	0.016
1035	0.017
1036	0.017
1036	0.018
1036	0.018
1037	0.019
1037	0.02
1038	0.02
1038	0.021
1039	0.022
1039	0.023
1039	0.023
1040	0.023
1040	0.024
1041	0.024
1041	0.025
1041	0.025
1042	0.025
1042	0.026
1043	0.027
1043	0.027
1044	0.028
1044	0.029
1044	0.029
1045	0.03
1045	0.031
1046	0.032
1046	0.033
1046	0.034
1047	0.035
1047	0.036
1048	0.037
1048	0.037
1049	0.038
1049	0.039
1049	0.039
1050	0.04
1050	0.04
1051	0.041
1051	0.041
1051	0.041
1052	0.041
1052	0.041
1053	0.04
1053	0.04
1053	0.04
1054	0.04
1054	0.04
1055	0.04
1055	0.04
1056	0.04
1056	0.04
1056	0.04
1057	0.04
1057	0.041
1058	0.041
1058	0.042
1058	0.043
1059	0.043
1059	0.044
1060	0.045
1060	0.046
1061	0.047
1061	0.048
1061	0.049
1062	0.05
1062	0.051
1063	0.052
1063	0.053
1063	0.055
1064	0.056
1064	0.058
1065	0.059
1065	0.06
1066	0.062
1066	0.064
1066	0.066
1067	0.067
1067	0.069
1068	0.071
1068	0.072
1068	0.073
1069	0.074
1069	0.076
1070	0.077
1070	0.079
1071	0.08
1071	0.082
1071	0.084
1072	0.085
1072	0.087
1073	0.089
1073	0.091
1073	0.093
1074	0.094
1074	0.095
1075	0.096
1075	0.097
1076	0.098
1076	0.099
1076	0.1
1077	0.101
1077	0.102
1078	0.104
1078	0.105
1078	0.107
1079	0.109
1079	0.111
1080	0.113
1080	0.115
1080	0.117
1081	0.119
1081	0.121
1082	0.123
1082	0.125
1083	0.128
1083	0.131
1083	0.135
1084	0.137
1084	0.141
1085	0.145
1085	0.148
1085	0.152
1086	0.155
1086	0.159
1087	0.163
1087	0.166
1088	0.17
1088	0.175
1088	0.18
1089	0.186
1089	0.192
1090	0.199
1090	0.207
1090	0.216
1091	0.225
1091	0.234
1092	0.244
1092	0.255
1092	0.265
1093	0.277
1093	0.29
1094	0.304
1094	0.319
1095	0.335
1095	0.352
1095	0.372
1096	0.393
1096	0.417
1097	0.444
1097	0.473
1097	0.506
1098	0.541
1098	0.583
1099	0.63
1099	0.688
1100	0.759
1100	0.851
1100	0.973
1101	1.163
1101	1.541
1102	-0
1102	-0
1102	-0
1103	-0
1103	-0
1104	-0
1104	-0
1104	-0
1105	-0
1105	-0
1106	-0
1106	-0
1107	-0
1107	-0
1107	-0
1108	-0
1108	-0
1109	-0
1109	-0
1109	-0
1110	-0
1110	-0
1111	-0
1111	-0
