Data from 15c-2-4a_Absorbance__730__00730.txt Node

Date: Thu Jan 25 10:28:30 CET 2024
User: Marek
Spectrometer: MAYP115816
Trigger mode: 0
Integration Time (sec): 2.000000E-1
Scans to average: 10
Electric dark correction enabled: true
Nonlinearity correction enabled: true
Boxcar width: 5
XAxis mode: Wavelengths
Number of Pixels in Spectrum: 2068
>>>>>Begin Spectral Data<<<<<
199	-2.129
199	-1.959
200	-1.805
200	-1.683
201	-1.605
201	-1.548
202	-1.465
202	-1.403
203	-1.352
203	-1.305
204	-1.279
204	-1.251
205	-1.23
205	-1.218
205	-1.213
206	-1.208
206	-1.204
207	-1.204
207	-1.201
208	-1.196
208	-1.193
209	-1.188
209	-1.185
210	-1.183
210	-1.181
211	-1.179
211	-1.178
212	-1.175
212	-1.172
213	-1.171
213	-1.171
213	-1.171
214	-1.17
214	-1.169
215	-1.167
215	-1.166
216	-1.163
216	-1.162
217	-1.16
217	-1.157
218	-1.156
218	-1.153
219	-1.151
219	-1.148
220	-1.147
220	-1.143
221	-1.14
221	-1.138
221	-1.134
222	-1.131
222	-1.13
223	-1.125
223	-1.119
224	-1.112
224	-1.103
225	-1.093
225	-1.085
226	-1.074
226	-1.062
227	-1.047
227	-1.034
228	-1.014
228	-0.996
229	-0.975
229	-0.951
229	-0.925
230	-0.896
230	-0.867
231	-0.832
231	-0.794
232	-0.754
232	-0.711
233	-0.666
233	-0.62
234	-0.574
234	-0.526
235	-0.478
235	-0.432
236	-0.386
236	-0.344
236	-0.302
237	-0.261
237	-0.224
238	-0.189
238	-0.156
239	-0.124
239	-0.095
240	-0.069
240	-0.044
241	-0.021
241	-0
242	0.019
242	0.037
243	0.053
243	0.068
243	0.082
244	0.095
244	0.106
245	0.117
245	0.127
246	0.136
246	0.145
247	0.153
247	0.16
248	0.167
248	0.174
249	0.18
249	0.185
250	0.191
250	0.196
250	0.201
251	0.205
251	0.209
252	0.213
252	0.216
253	0.22
253	0.223
254	0.227
254	0.23
255	0.232
255	0.235
256	0.237
256	0.239
257	0.242
257	0.244
258	0.245
258	0.247
258	0.248
259	0.249
259	0.25
260	0.251
260	0.252
261	0.253
261	0.254
262	0.254
262	0.254
263	0.255
263	0.255
264	0.255
264	0.255
265	0.255
265	0.255
265	0.254
266	0.254
266	0.254
267	0.253
267	0.253
268	0.252
268	0.251
269	0.25
269	0.25
270	0.249
270	0.247
271	0.246
271	0.245
272	0.244
272	0.243
272	0.241
273	0.24
273	0.239
274	0.238
274	0.236
275	0.235
275	0.234
276	0.232
276	0.231
277	0.229
277	0.228
278	0.226
278	0.224
278	0.222
279	0.221
279	0.219
280	0.218
280	0.217
281	0.216
281	0.215
282	0.214
282	0.213
283	0.213
283	0.212
284	0.211
284	0.21
285	0.209
285	0.208
285	0.207
286	0.205
286	0.204
287	0.203
287	0.202
288	0.201
288	0.2
289	0.199
289	0.198
290	0.197
290	0.196
291	0.196
291	0.195
292	0.194
292	0.193
292	0.192
293	0.192
293	0.191
294	0.19
294	0.189
295	0.189
295	0.188
296	0.188
296	0.187
297	0.187
297	0.187
298	0.186
298	0.186
298	0.185
299	0.185
299	0.185
300	0.184
300	0.184
301	0.183
301	0.183
302	0.182
302	0.182
303	0.181
303	0.181
304	0.181
304	0.18
305	0.18
305	0.179
305	0.179
306	0.178
306	0.178
307	0.177
307	0.177
308	0.176
308	0.176
309	0.176
309	0.175
310	0.175
310	0.174
311	0.174
311	0.173
311	0.173
312	0.173
312	0.172
313	0.172
313	0.171
314	0.171
314	0.17
315	0.17
315	0.169
316	0.169
316	0.168
317	0.168
317	0.167
318	0.167
318	0.166
318	0.166
319	0.165
319	0.165
320	0.164
320	0.163
321	0.163
321	0.162
322	0.162
322	0.161
323	0.161
323	0.16
324	0.16
324	0.159
324	0.158
325	0.158
325	0.157
326	0.157
326	0.156
327	0.156
327	0.155
328	0.155
328	0.155
329	0.154
329	0.154
330	0.153
330	0.153
330	0.152
331	0.151
331	0.151
332	0.15
332	0.15
333	0.149
333	0.148
334	0.148
334	0.147
335	0.147
335	0.146
336	0.146
336	0.146
336	0.145
337	0.145
337	0.144
338	0.144
338	0.144
339	0.143
339	0.143
340	0.142
340	0.142
341	0.142
341	0.141
342	0.14
342	0.14
342	0.14
343	0.139
343	0.138
344	0.138
344	0.138
345	0.137
345	0.136
346	0.136
346	0.136
347	0.135
347	0.135
348	0.134
348	0.133
348	0.133
349	0.132
349	0.132
350	0.132
350	0.131
351	0.131
351	0.13
352	0.13
352	0.129
353	0.129
353	0.128
354	0.128
354	0.127
354	0.126
355	0.125
355	0.124
356	0.123
356	0.123
357	0.122
357	0.122
358	0.122
358	0.122
359	0.123
359	0.124
360	0.124
360	0.125
360	0.126
361	0.126
361	0.126
362	0.127
362	0.127
363	0.127
363	0.126
364	0.126
364	0.125
365	0.125
365	0.125
366	0.125
366	0.125
366	0.125
367	0.124
367	0.124
368	0.124
368	0.124
369	0.123
369	0.123
370	0.123
370	0.122
371	0.122
371	0.121
372	0.121
372	0.121
372	0.12
373	0.12
373	0.12
374	0.12
374	0.12
375	0.12
375	0.12
376	0.12
376	0.12
377	0.12
377	0.12
378	0.121
378	0.121
378	0.121
379	0.121
379	0.121
380	0.121
380	0.121
381	0.121
381	0.121
382	0.121
382	0.12
383	0.12
383	0.12
383	0.119
384	0.119
384	0.119
385	0.118
385	0.118
386	0.118
386	0.118
387	0.118
387	0.118
388	0.118
388	0.118
389	0.118
389	0.118
389	0.118
390	0.119
390	0.119
391	0.119
391	0.119
392	0.119
392	0.119
393	0.119
393	0.119
394	0.119
394	0.119
394	0.119
395	0.119
395	0.118
396	0.118
396	0.118
397	0.118
397	0.119
398	0.119
398	0.119
399	0.119
399	0.118
400	0.118
400	0.118
400	0.118
401	0.117
401	0.117
402	0.116
402	0.115
403	0.115
403	0.115
404	0.115
404	0.115
405	0.114
405	0.114
405	0.114
406	0.113
406	0.113
407	0.113
407	0.113
408	0.113
408	0.112
409	0.112
409	0.111
410	0.111
410	0.111
411	0.111
411	0.111
411	0.111
412	0.111
412	0.111
413	0.111
413	0.11
414	0.11
414	0.11
415	0.11
415	0.11
416	0.109
416	0.109
416	0.109
417	0.109
417	0.109
418	0.109
418	0.109
419	0.109
419	0.11
420	0.11
420	0.111
421	0.111
421	0.111
421	0.111
422	0.111
422	0.111
423	0.111
423	0.111
424	0.111
424	0.11
425	0.109
425	0.109
426	0.108
426	0.108
427	0.108
427	0.108
427	0.108
428	0.108
428	0.109
429	0.109
429	0.11
430	0.11
430	0.11
431	0.11
431	0.109
432	0.109
432	0.109
432	0.108
433	0.107
433	0.106
434	0.106
434	0.105
435	0.105
435	0.105
436	0.105
436	0.105
437	0.105
437	0.106
437	0.106
438	0.106
438	0.106
439	0.106
439	0.105
440	0.105
440	0.105
441	0.105
441	0.105
442	0.105
442	0.105
442	0.105
443	0.106
443	0.106
444	0.106
444	0.106
445	0.106
445	0.106
446	0.107
446	0.107
447	0.107
447	0.106
447	0.106
448	0.106
448	0.106
449	0.106
449	0.106
450	0.106
450	0.105
451	0.105
451	0.105
452	0.104
452	0.104
452	0.103
453	0.103
453	0.102
454	0.102
454	0.101
455	0.101
455	0.101
456	0.1
456	0.1
457	0.1
457	0.1
458	0.1
458	0.1
458	0.1
459	0.1
459	0.1
460	0.1
460	0.099
461	0.099
461	0.099
462	0.098
462	0.099
463	0.099
463	0.099
463	0.1
464	0.1
464	0.101
465	0.101
465	0.101
466	0.101
466	0.101
467	0.101
467	0.101
467	0.1
468	0.099
468	0.097
469	0.095
469	0.094
470	0.093
470	0.093
471	0.092
471	0.091
472	0.091
472	0.091
472	0.091
473	0.092
473	0.093
474	0.094
474	0.095
475	0.096
475	0.097
476	0.097
476	0.098
477	0.098
477	0.099
477	0.099
478	0.1
478	0.1
479	0.101
479	0.101
480	0.102
480	0.103
481	0.104
481	0.104
482	0.105
482	0.106
482	0.107
483	0.109
483	0.111
484	0.114
484	0.116
485	0.117
485	0.118
486	0.119
486	0.12
487	0.12
487	0.121
487	0.121
488	0.12
488	0.118
489	0.117
489	0.115
490	0.114
490	0.113
491	0.113
491	0.113
492	0.113
492	0.113
492	0.114
493	0.114
493	0.115
494	0.116
494	0.118
495	0.119
495	0.12
496	0.121
496	0.122
496	0.123
497	0.123
497	0.124
498	0.124
498	0.124
499	0.124
499	0.124
500	0.124
500	0.125
501	0.126
501	0.128
501	0.129
502	0.13
502	0.131
503	0.133
503	0.134
504	0.135
504	0.135
505	0.136
505	0.136
506	0.137
506	0.137
506	0.137
507	0.137
507	0.137
508	0.138
508	0.138
509	0.138
509	0.139
510	0.139
510	0.139
511	0.138
511	0.139
511	0.139
512	0.139
512	0.14
513	0.139
513	0.139
514	0.138
514	0.137
515	0.137
515	0.137
515	0.137
516	0.137
516	0.137
517	0.137
517	0.137
518	0.137
518	0.137
519	0.135
519	0.134
520	0.132
520	0.13
520	0.128
521	0.126
521	0.124
522	0.122
522	0.12
523	0.119
523	0.12
524	0.121
524	0.123
524	0.126
525	0.128
525	0.131
526	0.133
526	0.135
527	0.137
527	0.139
528	0.141
528	0.142
529	0.142
529	0.143
529	0.143
530	0.143
530	0.143
531	0.143
531	0.144
532	0.143
532	0.143
533	0.143
533	0.143
533	0.143
534	0.142
534	0.142
535	0.141
535	0.141
536	0.141
536	0.14
537	0.14
537	0.139
538	0.138
538	0.137
538	0.136
539	0.136
539	0.135
540	0.134
540	0.133
541	0.132
541	0.131
542	0.13
542	0.129
542	0.128
543	0.127
543	0.126
544	0.125
544	0.124
545	0.124
545	0.123
546	0.123
546	0.123
547	0.122
547	0.121
547	0.119
548	0.117
548	0.116
549	0.114
549	0.112
550	0.111
550	0.109
551	0.107
551	0.105
551	0.104
552	0.103
552	0.102
553	0.101
553	0.101
554	0.101
554	0.1
555	0.098
555	0.096
556	0.094
556	0.092
556	0.089
557	0.087
557	0.085
558	0.083
558	0.082
559	0.08
559	0.08
560	0.079
560	0.079
560	0.079
561	0.079
561	0.079
562	0.08
562	0.079
563	0.078
563	0.076
564	0.074
564	0.072
564	0.07
565	0.069
565	0.067
566	0.066
566	0.065
567	0.065
567	0.065
568	0.066
568	0.067
568	0.069
569	0.07
569	0.072
570	0.073
570	0.074
571	0.075
571	0.075
572	0.076
572	0.076
573	0.076
573	0.076
573	0.075
574	0.075
574	0.074
575	0.074
575	0.075
576	0.076
576	0.076
577	0.076
577	0.075
577	0.074
578	0.074
578	0.074
579	0.074
579	0.075
580	0.075
580	0.074
581	0.072
581	0.07
581	0.069
582	0.069
582	0.069
583	0.07
583	0.07
584	0.068
584	0.066
585	0.065
585	0.064
585	0.064
586	0.063
586	0.063
587	0.062
587	0.06
588	0.057
588	0.055
589	0.053
589	0.051
590	0.05
590	0.049
590	0.048
591	0.048
591	0.048
592	0.048
592	0.047
593	0.047
593	0.048
594	0.048
594	0.047
594	0.047
595	0.047
595	0.046
596	0.045
596	0.045
597	0.047
597	0.048
598	0.049
598	0.05
598	0.05
599	0.05
599	0.05
600	0.05
600	0.049
601	0.048
601	0.047
602	0.045
602	0.044
602	0.042
603	0.041
603	0.041
604	0.042
604	0.042
605	0.043
605	0.044
606	0.045
606	0.044
606	0.044
607	0.044
607	0.043
608	0.043
608	0.042
609	0.04
609	0.04
610	0.039
610	0.037
610	0.037
611	0.037
611	0.038
612	0.039
612	0.04
613	0.042
613	0.044
614	0.044
614	0.045
614	0.045
615	0.045
615	0.045
616	0.044
616	0.044
617	0.043
617	0.042
618	0.04
618	0.039
618	0.038
619	0.037
619	0.037
620	0.038
620	0.039
621	0.039
621	0.039
622	0.039
622	0.04
622	0.04
623	0.04
623	0.04
624	0.041
624	0.041
625	0.04
625	0.04
626	0.04
626	0.04
626	0.04
627	0.041
627	0.041
628	0.041
628	0.042
629	0.042
629	0.042
630	0.042
630	0.041
630	0.04
631	0.04
631	0.041
632	0.04
632	0.04
633	0.04
633	0.041
634	0.042
634	0.043
634	0.045
635	0.046
635	0.047
636	0.049
636	0.05
637	0.051
637	0.052
638	0.052
638	0.053
638	0.054
639	0.054
639	0.054
640	0.054
640	0.055
641	0.056
641	0.057
642	0.058
642	0.06
642	0.061
643	0.063
643	0.064
644	0.066
644	0.068
645	0.07
645	0.072
646	0.073
646	0.075
646	0.078
647	0.08
647	0.083
648	0.086
648	0.088
649	0.09
649	0.092
650	0.094
650	0.096
650	0.098
651	0.099
651	0.101
652	0.102
652	0.102
653	0.104
653	0.11
653	0.12
654	0.099
654	0.083
655	0.087
655	0.089
656	0.091
656	0.092
657	0.094
657	0.096
657	0.097
658	0.095
658	0.088
659	0.108
659	0.135
660	0.137
660	0.138
661	0.139
661	0.14
661	0.142
662	0.145
662	0.147
663	0.15
663	0.152
664	0.154
664	0.156
665	0.158
665	0.16
665	0.162
666	0.164
666	0.166
667	0.168
667	0.17
668	0.171
668	0.173
669	0.175
669	0.177
669	0.179
670	0.182
670	0.185
671	0.187
671	0.188
672	0.19
672	0.191
672	0.192
673	0.193
673	0.194
674	0.195
674	0.196
675	0.196
675	0.196
676	0.197
676	0.198
676	0.199
677	0.2
677	0.201
678	0.203
678	0.204
679	0.204
679	0.205
680	0.207
680	0.208
680	0.208
681	0.208
681	0.209
682	0.21
682	0.211
683	0.212
683	0.214
684	0.216
684	0.216
684	0.216
685	0.216
685	0.217
686	0.218
686	0.218
687	0.217
687	0.217
687	0.216
688	0.215
688	0.214
689	0.214
689	0.215
690	0.215
690	0.215
691	0.215
691	0.215
691	0.215
692	0.215
692	0.214
693	0.214
693	0.215
694	0.215
694	0.214
695	0.214
695	0.216
695	0.217
696	0.217
696	0.217
697	0.216
697	0.216
698	0.215
698	0.214
698	0.212
699	0.211
699	0.209
700	0.206
700	0.204
701	0.202
701	0.201
702	0.2
702	0.198
702	0.197
703	0.195
703	0.194
704	0.192
704	0.191
705	0.19
705	0.189
705	0.187
706	0.187
706	0.186
707	0.185
707	0.184
708	0.183
708	0.182
709	0.181
709	0.18
709	0.178
710	0.176
710	0.174
711	0.173
711	0.171
712	0.17
712	0.169
713	0.168
713	0.167
713	0.165
714	0.164
714	0.162
715	0.161
715	0.159
716	0.157
716	0.156
716	0.154
717	0.152
717	0.15
718	0.148
718	0.146
719	0.144
719	0.142
720	0.141
720	0.139
720	0.136
721	0.134
721	0.131
722	0.128
722	0.126
723	0.124
723	0.122
723	0.12
724	0.118
724	0.117
725	0.115
725	0.113
726	0.112
726	0.111
727	0.11
727	0.108
727	0.107
728	0.105
728	0.104
729	0.103
729	0.102
730	0.101
730	0.1
730	0.098
731	0.097
731	0.095
732	0.094
732	0.093
733	0.091
733	0.09
734	0.088
734	0.085
734	0.083
735	0.081
735	0.079
736	0.077
736	0.075
737	0.073
737	0.072
737	0.07
738	0.068
738	0.065
739	0.063
739	0.062
740	0.06
740	0.058
741	0.057
741	0.055
741	0.053
742	0.05
742	0.047
743	0.045
743	0.043
744	0.041
744	0.039
744	0.038
745	0.036
745	0.034
746	0.033
746	0.032
747	0.031
747	0.031
748	0.03
748	0.03
748	0.03
749	0.029
749	0.028
750	0.027
750	0.027
751	0.026
751	0.026
751	0.026
752	0.025
752	0.024
753	0.023
753	0.022
754	0.021
754	0.021
754	0.021
755	0.021
755	0.021
756	0.021
756	0.02
757	0.019
757	0.018
758	0.017
758	0.016
758	0.016
759	0.015
759	0.012
760	0.01
760	0.007
761	0.005
761	0.004
761	0.003
762	0.002
762	0.001
763	0
763	-0.001
764	-0.003
764	-0.005
764	-0.007
765	-0.008
765	-0.01
766	-0.011
766	-0.012
767	-0.013
767	-0.014
768	-0.017
768	-0.019
768	-0.02
769	-0.021
769	-0.022
770	-0.022
770	-0.023
771	-0.025
771	-0.027
771	-0.029
772	-0.031
772	-0.033
773	-0.035
773	-0.038
774	-0.041
774	-0.044
775	-0.047
775	-0.051
775	-0.054
776	-0.058
776	-0.061
777	-0.064
777	-0.067
778	-0.071
778	-0.075
778	-0.078
779	-0.08
779	-0.082
780	-0.085
780	-0.089
781	-0.094
781	-0.099
781	-0.104
782	-0.11
782	-0.116
783	-0.122
783	-0.126
784	-0.13
784	-0.134
784	-0.137
785	-0.141
785	-0.144
786	-0.145
786	-0.143
787	-0.139
787	-0.135
788	-0.134
788	-0.135
788	-0.137
789	-0.14
789	-0.14
790	-0.137
790	-0.136
791	-0.137
791	-0.139
791	-0.141
792	-0.135
792	-0.124
793	-0.117
793	-0.113
794	-0.11
794	-0.112
794	-0.115
795	-0.117
795	-0.116
796	-0.116
796	-0.119
797	-0.128
797	-0.139
797	-0.146
798	-0.151
798	-0.155
799	-0.156
799	-0.156
800	-0.157
800	-0.159
801	-0.162
801	-0.163
801	-0.162
802	-0.164
802	-0.165
803	-0.165
803	-0.165
804	-0.163
804	-0.158
804	-0.151
805	-0.146
805	-0.144
806	-0.142
806	-0.14
807	-0.139
807	-0.138
807	-0.138
808	-0.137
808	-0.138
809	-0.142
809	-0.147
810	-0.15
810	-0.152
810	-0.155
811	-0.158
811	-0.158
812	-0.155
812	-0.152
813	-0.152
813	-0.154
813	-0.155
814	-0.157
814	-0.157
815	-0.156
815	-0.154
816	-0.152
816	-0.153
817	-0.158
817	-0.162
817	-0.163
818	-0.163
818	-0.16
819	-0.154
819	-0.151
820	-0.152
820	-0.154
820	-0.156
821	-0.155
821	-0.152
822	-0.149
822	-0.145
823	-0.14
823	-0.138
823	-0.138
824	-0.134
824	-0.128
825	-0.119
825	-0.109
826	-0.1
826	-0.093
826	-0.087
827	-0.081
827	-0.075
828	-0.07
828	-0.065
829	-0.061
829	-0.057
829	-0.053
830	-0.051
830	-0.048
831	-0.044
831	-0.041
832	-0.038
832	-0.035
832	-0.033
833	-0.031
833	-0.03
834	-0.029
834	-0.028
835	-0.027
835	-0.028
835	-0.028
836	-0.028
836	-0.028
837	-0.028
837	-0.028
838	-0.028
838	-0.028
839	-0.028
839	-0.028
839	-0.027
840	-0.027
840	-0.025
841	-0.024
841	-0.023
842	-0.022
842	-0.02
842	-0.019
843	-0.018
843	-0.016
844	-0.015
844	-0.013
845	-0.013
845	-0.012
845	-0.011
846	-0.01
846	-0.01
847	-0.009
847	-0.008
848	-0.008
848	-0.007
848	-0.006
849	-0.005
849	-0.004
850	-0.003
850	-0.003
851	-0.003
851	-0.002
851	-0.002
852	-0.002
852	-0.002
853	-0.002
853	-0.002
854	-0.002
854	-0.002
854	-0.002
855	-0.002
855	-0.002
856	-0.002
856	-0.002
857	-0.002
857	-0.002
857	-0.001
858	-0.001
858	-0.001
859	-0.001
859	0
860	0.001
860	0.002
860	0.003
861	0.004
861	0.005
862	0.006
862	0.007
863	0.008
863	0.009
863	0.01
864	0.011
864	0.012
865	0.012
865	0.013
866	0.013
866	0.013
866	0.014
867	0.014
867	0.015
868	0.015
868	0.015
869	0.015
869	0.015
869	0.015
870	0.014
870	0.014
871	0.014
871	0.013
872	0.012
872	0.011
872	0.01
873	0.009
873	0.008
874	0.007
874	0.006
875	0.005
875	0.004
875	0.003
876	0.003
876	0.003
877	0.003
877	0.003
878	0.003
878	0.004
878	0.004
879	0.005
879	0.006
880	0.007
880	0.007
881	0.008
881	0.009
881	0.011
882	0.012
882	0.012
883	0.013
883	0.014
884	0.014
884	0.015
884	0.015
885	0.015
885	0.015
886	0.015
886	0.015
887	0.014
887	0.014
887	0.013
888	0.013
888	0.013
889	0.013
889	0.013
890	0.013
890	0.013
890	0.013
891	0.014
891	0.014
892	0.014
892	0.014
893	0.015
893	0.015
893	0.016
894	0.017
894	0.017
895	0.017
895	0.017
895	0.017
896	0.017
896	0.017
897	0.017
897	0.017
898	0.016
898	0.015
898	0.014
899	0.013
899	0.012
900	0.011
900	0.01
901	0.009
901	0.009
901	0.008
902	0.008
902	0.008
903	0.007
903	0.007
904	0.007
904	0.007
904	0.008
905	0.008
905	0.008
906	0.009
906	0.009
907	0.009
907	0.009
907	0.009
908	0.008
908	0.008
909	0.008
909	0.008
910	0.008
910	0.008
910	0.008
911	0.008
911	0.009
912	0.01
912	0.011
913	0.012
913	0.013
913	0.014
914	0.015
914	0.016
915	0.018
915	0.019
916	0.02
916	0.021
916	0.021
917	0.022
917	0.022
918	0.022
918	0.022
918	0.021
919	0.02
919	0.019
920	0.018
920	0.017
921	0.015
921	0.014
921	0.012
922	0.012
922	0.011
923	0.011
923	0.01
924	0.01
924	0.01
924	0.011
925	0.011
925	0.012
926	0.013
926	0.014
927	0.014
927	0.015
927	0.015
928	0.016
928	0.017
929	0.017
929	0.018
930	0.018
930	0.018
930	0.018
931	0.018
931	0.018
932	0.017
932	0.017
933	0.017
933	0.017
933	0.016
934	0.016
934	0.016
935	0.016
935	0.016
935	0.016
936	0.016
936	0.016
937	0.016
937	0.016
938	0.016
938	0.015
938	0.015
939	0.015
939	0.014
940	0.014
940	0.014
941	0.014
941	0.015
941	0.015
942	0.015
942	0.016
943	0.016
943	0.017
944	0.018
944	0.018
944	0.019
945	0.02
945	0.021
946	0.022
946	0.023
946	0.024
947	0.025
947	0.025
948	0.025
948	0.025
949	0.024
949	0.023
949	0.023
950	0.022
950	0.021
951	0.021
951	0.02
952	0.02
952	0.02
952	0.02
953	0.02
953	0.02
954	0.02
954	0.02
955	0.02
955	0.019
955	0.019
956	0.019
956	0.019
957	0.018
957	0.018
957	0.017
958	0.017
958	0.017
959	0.017
959	0.017
960	0.018
960	0.018
960	0.018
961	0.019
961	0.019
962	0.019
962	0.02
963	0.02
963	0.02
963	0.02
964	0.02
964	0.02
965	0.02
965	0.02
966	0.019
966	0.019
966	0.018
967	0.018
967	0.017
968	0.016
968	0.016
968	0.016
969	0.015
969	0.015
970	0.015
970	0.015
971	0.015
971	0.015
971	0.016
972	0.017
972	0.017
973	0.018
973	0.019
974	0.019
974	0.02
974	0.02
975	0.021
975	0.021
976	0.021
976	0.021
976	0.021
977	0.02
977	0.02
978	0.019
978	0.018
979	0.017
979	0.016
979	0.016
980	0.015
980	0.014
981	0.014
981	0.013
982	0.013
982	0.012
982	0.012
983	0.012
983	0.011
984	0.011
984	0.011
984	0.011
985	0.011
985	0.011
986	0.01
986	0.01
987	0.009
987	0.009
987	0.009
988	0.009
988	0.008
989	0.008
989	0.007
990	0.006
990	0.006
990	0.006
991	0.006
991	0.006
992	0.006
992	0.006
992	0.005
993	0.005
993	0.005
994	0.004
994	0.004
995	0.004
995	0.003
995	0.003
996	0.003
996	0.002
997	0.002
997	0.002
997	0.002
998	0.003
998	0.003
999	0.004
999	0.004
1000	0.005
1000	0.006
1000	0.006
1001	0.007
1001	0.008
1002	0.008
1002	0.008
1003	0.008
1003	0.008
1003	0.008
1004	0.008
1004	0.008
1005	0.007
1005	0.006
1005	0.006
1006	0.005
1006	0.005
1007	0.005
1007	0.004
1008	0.004
1008	0.004
1008	0.004
1009	0.004
1009	0.005
1010	0.005
1010	0.006
1010	0.007
1011	0.008
1011	0.009
1012	0.01
1012	0.011
1013	0.012
1013	0.013
1013	0.014
1014	0.014
1014	0.015
1015	0.015
1015	0.015
1016	0.015
1016	0.015
1016	0.015
1017	0.015
1017	0.016
1018	0.016
1018	0.016
1018	0.016
1019	0.016
1019	0.016
1020	0.015
1020	0.015
1021	0.015
1021	0.014
1021	0.014
1022	0.014
1022	0.013
1023	0.013
1023	0.013
1023	0.013
1024	0.012
1024	0.012
1025	0.012
1025	0.013
1026	0.013
1026	0.013
1026	0.013
1027	0.013
1027	0.014
1028	0.014
1028	0.015
1028	0.015
1029	0.016
1029	0.016
1030	0.016
1030	0.016
1031	0.016
1031	0.017
1031	0.017
1032	0.017
1032	0.017
1033	0.017
1033	0.017
1033	0.017
1034	0.016
1034	0.016
1035	0.016
1035	0.016
1036	0.016
1036	0.017
1036	0.017
1037	0.018
1037	0.019
1038	0.02
1038	0.02
1039	0.021
1039	0.022
1039	0.023
1040	0.024
1040	0.025
1041	0.025
1041	0.026
1041	0.026
1042	0.026
1042	0.027
1043	0.027
1043	0.028
1044	0.029
1044	0.029
1044	0.03
1045	0.03
1045	0.031
1046	0.032
1046	0.033
1046	0.035
1047	0.036
1047	0.038
1048	0.039
1048	0.041
1049	0.042
1049	0.042
1049	0.043
1050	0.043
1050	0.043
1051	0.043
1051	0.043
1051	0.042
1052	0.042
1052	0.041
1053	0.04
1053	0.039
1053	0.038
1054	0.037
1054	0.037
1055	0.036
1055	0.035
1056	0.034
1056	0.034
1056	0.033
1057	0.032
1057	0.031
1058	0.031
1058	0.031
1058	0.032
1059	0.031
1059	0.031
1060	0.032
1060	0.032
1061	0.033
1061	0.034
1061	0.035
1062	0.035
1062	0.035
1063	0.036
1063	0.036
1063	0.037
1064	0.039
1064	0.04
1065	0.041
1065	0.043
1066	0.044
1066	0.046
1066	0.048
1067	0.05
1067	0.052
1068	0.054
1068	0.055
1068	0.057
1069	0.058
1069	0.059
1070	0.06
1070	0.062
1071	0.063
1071	0.064
1071	0.065
1072	0.066
1072	0.067
1073	0.069
1073	0.07
1073	0.071
1074	0.072
1074	0.073
1075	0.073
1075	0.073
1076	0.074
1076	0.075
1076	0.075
1077	0.076
1077	0.077
1078	0.078
1078	0.08
1078	0.082
1079	0.083
1079	0.086
1080	0.087
1080	0.089
1080	0.091
1081	0.093
1081	0.095
1082	0.097
1082	0.098
1083	0.1
1083	0.102
1083	0.105
1084	0.107
1084	0.11
1085	0.112
1085	0.115
1085	0.118
1086	0.12
1086	0.123
1087	0.126
1087	0.13
1088	0.132
1088	0.135
1088	0.139
1089	0.143
1089	0.147
1090	0.152
1090	0.158
1090	0.163
1091	0.169
1091	0.177
1092	0.183
1092	0.192
1092	0.199
1093	0.208
1093	0.217
1094	0.226
1094	0.236
1095	0.246
1095	0.259
1095	0.274
1096	0.288
1096	0.304
1097	0.324
1097	0.343
1097	0.365
1098	0.387
1098	0.414
1099	0.444
1099	0.478
1100	0.518
1100	0.562
1100	0.615
1101	0.678
1101	0.758
1102	0.87
1102	1.028
1102	1.316
1103	2.616
1103	-0
1104	-0
1104	-0
1104	-0
1105	-0
1105	-0
1106	-0
1106	-0
1107	-0
1107	-0
1107	-0
1108	-0
1108	-0
1109	-0
1109	-0
1109	-0
1110	-0
1110	-0
1111	-0
1111	-0
