Data from 15c-2-4a_Absorbance__1179__01179.txt Node

Date: Thu Jan 25 10:43:28 CET 2024
User: Marek
Spectrometer: MAYP115816
Trigger mode: 0
Integration Time (sec): 2.000000E-1
Scans to average: 10
Electric dark correction enabled: true
Nonlinearity correction enabled: true
Boxcar width: 5
XAxis mode: Wavelengths
Number of Pixels in Spectrum: 2068
>>>>>Begin Spectral Data<<<<<
199	-2.173
199	-2.002
200	-1.849
200	-1.726
201	-1.647
201	-1.59
202	-1.508
202	-1.446
203	-1.394
203	-1.346
204	-1.32
204	-1.292
205	-1.271
205	-1.259
205	-1.254
206	-1.249
206	-1.246
207	-1.246
207	-1.242
208	-1.237
208	-1.234
209	-1.229
209	-1.226
210	-1.224
210	-1.221
211	-1.22
211	-1.218
212	-1.215
212	-1.212
213	-1.21
213	-1.211
213	-1.211
214	-1.21
214	-1.209
215	-1.207
215	-1.205
216	-1.203
216	-1.202
217	-1.2
217	-1.196
218	-1.195
218	-1.193
219	-1.19
219	-1.188
220	-1.187
220	-1.182
221	-1.179
221	-1.177
221	-1.174
222	-1.171
222	-1.17
223	-1.165
223	-1.159
224	-1.151
224	-1.142
225	-1.133
225	-1.125
226	-1.114
226	-1.102
227	-1.087
227	-1.074
228	-1.054
228	-1.035
229	-1.014
229	-0.989
229	-0.963
230	-0.933
230	-0.903
231	-0.867
231	-0.828
232	-0.786
232	-0.741
233	-0.694
233	-0.646
234	-0.598
234	-0.548
235	-0.498
235	-0.448
236	-0.399
236	-0.353
236	-0.307
237	-0.263
237	-0.221
238	-0.181
238	-0.144
239	-0.108
239	-0.074
240	-0.043
240	-0.015
241	0.013
241	0.038
242	0.061
242	0.083
243	0.103
243	0.122
243	0.139
244	0.155
244	0.169
245	0.183
245	0.195
246	0.207
246	0.217
247	0.227
247	0.236
248	0.245
248	0.253
249	0.26
249	0.267
250	0.274
250	0.28
250	0.286
251	0.291
251	0.297
252	0.301
252	0.306
253	0.31
253	0.314
254	0.318
254	0.322
255	0.325
255	0.328
256	0.331
256	0.334
257	0.336
257	0.338
258	0.341
258	0.342
258	0.344
259	0.345
259	0.347
260	0.348
260	0.349
261	0.35
261	0.351
262	0.351
262	0.352
263	0.352
263	0.353
264	0.353
264	0.353
265	0.353
265	0.353
265	0.353
266	0.353
266	0.353
267	0.352
267	0.352
268	0.352
268	0.351
269	0.35
269	0.349
270	0.349
270	0.347
271	0.346
271	0.345
272	0.344
272	0.343
272	0.342
273	0.34
273	0.339
274	0.338
274	0.337
275	0.335
275	0.334
276	0.332
276	0.331
277	0.329
277	0.327
278	0.325
278	0.323
278	0.321
279	0.319
279	0.318
280	0.317
280	0.316
281	0.315
281	0.314
282	0.313
282	0.312
283	0.311
283	0.311
284	0.31
284	0.309
285	0.308
285	0.306
285	0.305
286	0.304
286	0.303
287	0.301
287	0.3
288	0.299
288	0.298
289	0.297
289	0.296
290	0.295
290	0.294
291	0.293
291	0.292
292	0.291
292	0.29
292	0.289
293	0.288
293	0.287
294	0.286
294	0.286
295	0.285
295	0.284
296	0.284
296	0.283
297	0.282
297	0.281
298	0.281
298	0.28
298	0.279
299	0.279
299	0.278
300	0.277
300	0.276
301	0.276
301	0.275
302	0.274
302	0.274
303	0.273
303	0.272
304	0.272
304	0.271
305	0.27
305	0.269
305	0.269
306	0.268
306	0.268
307	0.267
307	0.266
308	0.265
308	0.265
309	0.264
309	0.263
310	0.263
310	0.262
311	0.261
311	0.26
311	0.26
312	0.259
312	0.258
313	0.257
313	0.256
314	0.255
314	0.255
315	0.254
315	0.253
316	0.252
316	0.252
317	0.251
317	0.25
318	0.249
318	0.248
318	0.247
319	0.247
319	0.246
320	0.245
320	0.244
321	0.243
321	0.242
322	0.241
322	0.241
323	0.24
323	0.239
324	0.238
324	0.237
324	0.236
325	0.236
325	0.235
326	0.234
326	0.234
327	0.233
327	0.232
328	0.232
328	0.231
329	0.23
329	0.229
330	0.229
330	0.228
330	0.227
331	0.226
331	0.226
332	0.225
332	0.224
333	0.223
333	0.223
334	0.222
334	0.221
335	0.221
335	0.22
336	0.219
336	0.219
336	0.218
337	0.217
337	0.217
338	0.216
338	0.215
339	0.215
339	0.214
340	0.213
340	0.213
341	0.212
341	0.211
342	0.211
342	0.21
342	0.209
343	0.209
343	0.208
344	0.207
344	0.207
345	0.206
345	0.205
346	0.204
346	0.204
347	0.203
347	0.203
348	0.202
348	0.201
348	0.201
349	0.2
349	0.199
350	0.199
350	0.198
351	0.197
351	0.197
352	0.196
352	0.195
353	0.195
353	0.194
354	0.193
354	0.192
354	0.191
355	0.19
355	0.189
356	0.188
356	0.187
357	0.186
357	0.186
358	0.186
358	0.186
359	0.187
359	0.187
360	0.188
360	0.189
360	0.189
361	0.19
361	0.19
362	0.191
362	0.191
363	0.191
363	0.191
364	0.19
364	0.189
365	0.189
365	0.188
366	0.188
366	0.188
366	0.188
367	0.187
367	0.187
368	0.187
368	0.186
369	0.186
369	0.186
370	0.185
370	0.185
371	0.184
371	0.184
372	0.183
372	0.183
372	0.182
373	0.182
373	0.182
374	0.182
374	0.181
375	0.181
375	0.181
376	0.181
376	0.181
377	0.181
377	0.182
378	0.182
378	0.182
378	0.182
379	0.182
379	0.182
380	0.183
380	0.182
381	0.183
381	0.182
382	0.182
382	0.181
383	0.181
383	0.18
383	0.18
384	0.179
384	0.179
385	0.178
385	0.178
386	0.178
386	0.178
387	0.178
387	0.178
388	0.178
388	0.178
389	0.178
389	0.178
389	0.178
390	0.178
390	0.178
391	0.178
391	0.178
392	0.178
392	0.178
393	0.178
393	0.178
394	0.178
394	0.178
394	0.177
395	0.177
395	0.177
396	0.176
396	0.176
397	0.176
397	0.177
398	0.177
398	0.176
399	0.176
399	0.176
400	0.176
400	0.175
400	0.175
401	0.174
401	0.173
402	0.172
402	0.172
403	0.171
403	0.171
404	0.171
404	0.171
405	0.171
405	0.17
405	0.17
406	0.169
406	0.169
407	0.169
407	0.169
408	0.168
408	0.167
409	0.167
409	0.166
410	0.166
410	0.166
411	0.166
411	0.166
411	0.165
412	0.165
412	0.165
413	0.165
413	0.164
414	0.164
414	0.164
415	0.164
415	0.163
416	0.163
416	0.163
416	0.162
417	0.162
417	0.162
418	0.162
418	0.162
419	0.162
419	0.162
420	0.163
420	0.164
421	0.164
421	0.164
421	0.164
422	0.164
422	0.164
423	0.164
423	0.164
424	0.163
424	0.163
425	0.162
425	0.161
426	0.16
426	0.16
427	0.16
427	0.16
427	0.161
428	0.161
428	0.162
429	0.163
429	0.163
430	0.163
430	0.163
431	0.162
431	0.162
432	0.162
432	0.161
432	0.16
433	0.159
433	0.158
434	0.157
434	0.156
435	0.156
435	0.156
436	0.156
436	0.157
437	0.157
437	0.157
437	0.157
438	0.157
438	0.157
439	0.157
439	0.156
440	0.156
440	0.156
441	0.156
441	0.156
442	0.156
442	0.156
442	0.156
443	0.156
443	0.156
444	0.156
444	0.157
445	0.157
445	0.157
446	0.157
446	0.157
447	0.157
447	0.156
447	0.156
448	0.156
448	0.156
449	0.156
449	0.155
450	0.155
450	0.155
451	0.155
451	0.154
452	0.154
452	0.153
452	0.153
453	0.152
453	0.152
454	0.151
454	0.151
455	0.151
455	0.15
456	0.15
456	0.15
457	0.15
457	0.15
458	0.15
458	0.149
458	0.15
459	0.15
459	0.15
460	0.149
460	0.149
461	0.148
461	0.148
462	0.147
462	0.147
463	0.148
463	0.148
463	0.149
464	0.149
464	0.15
465	0.149
465	0.15
466	0.15
466	0.15
467	0.15
467	0.149
467	0.149
468	0.147
468	0.145
469	0.143
469	0.142
470	0.141
470	0.141
471	0.14
471	0.14
472	0.14
472	0.14
472	0.14
473	0.142
473	0.143
474	0.144
474	0.145
475	0.146
475	0.147
476	0.147
476	0.148
477	0.148
477	0.149
477	0.149
478	0.15
478	0.15
479	0.151
479	0.151
480	0.153
480	0.154
481	0.155
481	0.155
482	0.156
482	0.157
482	0.159
483	0.161
483	0.163
484	0.167
484	0.17
485	0.171
485	0.173
486	0.174
486	0.175
487	0.175
487	0.176
487	0.176
488	0.175
488	0.174
489	0.171
489	0.169
490	0.168
490	0.167
491	0.167
491	0.167
492	0.168
492	0.169
492	0.169
493	0.17
493	0.171
494	0.173
494	0.175
495	0.177
495	0.179
496	0.18
496	0.181
496	0.182
497	0.183
497	0.183
498	0.184
498	0.185
499	0.186
499	0.186
500	0.187
500	0.188
501	0.189
501	0.191
501	0.193
502	0.195
502	0.196
503	0.198
503	0.199
504	0.2
504	0.201
505	0.201
505	0.202
506	0.203
506	0.203
506	0.203
507	0.203
507	0.203
508	0.203
508	0.204
509	0.204
509	0.205
510	0.206
510	0.205
511	0.206
511	0.206
511	0.207
512	0.207
512	0.207
513	0.206
513	0.205
514	0.204
514	0.203
515	0.203
515	0.203
515	0.203
516	0.202
516	0.202
517	0.202
517	0.202
518	0.201
518	0.2
519	0.198
519	0.196
520	0.193
520	0.19
520	0.188
521	0.185
521	0.183
522	0.182
522	0.181
523	0.181
523	0.183
524	0.185
524	0.189
524	0.192
525	0.195
525	0.198
526	0.201
526	0.204
527	0.206
527	0.208
528	0.21
528	0.211
529	0.211
529	0.212
529	0.211
530	0.211
530	0.211
531	0.211
531	0.211
532	0.21
532	0.21
533	0.21
533	0.209
533	0.209
534	0.209
534	0.208
535	0.207
535	0.206
536	0.206
536	0.205
537	0.205
537	0.204
538	0.203
538	0.201
538	0.2
539	0.199
539	0.198
540	0.197
540	0.196
541	0.194
541	0.192
542	0.19
542	0.188
542	0.187
543	0.186
543	0.184
544	0.183
544	0.181
545	0.18
545	0.18
546	0.18
546	0.179
547	0.178
547	0.176
547	0.173
548	0.171
548	0.169
549	0.167
549	0.165
550	0.163
550	0.16
551	0.158
551	0.155
551	0.153
552	0.151
552	0.15
553	0.149
553	0.149
554	0.148
554	0.147
555	0.145
555	0.142
556	0.139
556	0.136
556	0.133
557	0.13
557	0.127
558	0.125
558	0.123
559	0.121
559	0.119
560	0.118
560	0.117
560	0.117
561	0.117
561	0.117
562	0.117
562	0.116
563	0.114
563	0.112
564	0.109
564	0.106
564	0.103
565	0.102
565	0.1
566	0.098
566	0.097
567	0.096
567	0.096
568	0.097
568	0.099
568	0.1
569	0.102
569	0.104
570	0.105
570	0.106
571	0.106
571	0.107
572	0.107
572	0.107
573	0.107
573	0.107
573	0.106
574	0.105
574	0.105
575	0.104
575	0.105
576	0.106
576	0.105
577	0.104
577	0.103
577	0.102
578	0.101
578	0.101
579	0.101
579	0.102
580	0.102
580	0.1
581	0.097
581	0.095
581	0.094
582	0.093
582	0.093
583	0.093
583	0.093
584	0.091
584	0.088
585	0.085
585	0.085
585	0.084
586	0.084
586	0.083
587	0.081
587	0.079
588	0.076
588	0.074
589	0.071
589	0.07
590	0.068
590	0.067
590	0.066
591	0.067
591	0.067
592	0.066
592	0.066
593	0.065
593	0.065
594	0.065
594	0.065
594	0.064
595	0.064
595	0.063
596	0.062
596	0.062
597	0.064
597	0.065
598	0.066
598	0.067
598	0.068
599	0.069
599	0.068
600	0.068
600	0.067
601	0.066
601	0.065
602	0.063
602	0.061
602	0.06
603	0.058
603	0.058
604	0.058
604	0.059
605	0.06
605	0.061
606	0.061
606	0.061
606	0.06
607	0.06
607	0.06
608	0.059
608	0.058
609	0.056
609	0.056
610	0.054
610	0.053
610	0.052
611	0.053
611	0.053
612	0.054
612	0.056
613	0.057
613	0.059
614	0.06
614	0.06
614	0.06
615	0.06
615	0.06
616	0.059
616	0.059
617	0.058
617	0.057
618	0.055
618	0.053
618	0.052
619	0.052
619	0.052
620	0.053
620	0.053
621	0.054
621	0.054
622	0.055
622	0.055
622	0.056
623	0.056
623	0.057
624	0.057
624	0.057
625	0.057
625	0.057
626	0.058
626	0.057
626	0.058
627	0.058
627	0.058
628	0.058
628	0.059
629	0.059
629	0.059
630	0.058
630	0.058
630	0.058
631	0.058
631	0.058
632	0.058
632	0.059
633	0.059
633	0.06
634	0.061
634	0.063
634	0.065
635	0.067
635	0.068
636	0.07
636	0.071
637	0.073
637	0.074
638	0.075
638	0.076
638	0.077
639	0.077
639	0.077
640	0.078
640	0.08
641	0.081
641	0.083
642	0.085
642	0.087
642	0.09
643	0.092
643	0.094
644	0.096
644	0.099
645	0.101
645	0.103
646	0.105
646	0.108
646	0.111
647	0.114
647	0.118
648	0.121
648	0.123
649	0.126
649	0.129
650	0.132
650	0.135
650	0.138
651	0.141
651	0.143
652	0.144
652	0.146
653	0.148
653	0.155
653	0.17
654	0.138
654	0.114
655	0.12
655	0.122
656	0.124
656	0.126
657	0.129
657	0.131
657	0.133
658	0.131
658	0.12
659	0.15
659	0.191
660	0.193
660	0.194
661	0.196
661	0.198
661	0.2
662	0.203
662	0.206
663	0.21
663	0.213
664	0.216
664	0.219
665	0.221
665	0.224
665	0.227
666	0.229
666	0.232
667	0.234
667	0.237
668	0.239
668	0.241
669	0.243
669	0.246
669	0.25
670	0.254
670	0.258
671	0.261
671	0.263
672	0.266
672	0.268
672	0.27
673	0.271
673	0.273
674	0.274
674	0.275
675	0.275
675	0.276
676	0.277
676	0.279
676	0.28
677	0.282
677	0.284
678	0.286
678	0.287
679	0.289
679	0.29
680	0.292
680	0.293
680	0.294
681	0.294
681	0.295
682	0.296
682	0.298
683	0.3
683	0.302
684	0.304
684	0.305
684	0.306
685	0.306
685	0.307
686	0.308
686	0.307
687	0.307
687	0.305
687	0.304
688	0.303
688	0.301
689	0.301
689	0.302
690	0.302
690	0.302
691	0.302
691	0.302
691	0.302
692	0.302
692	0.301
693	0.301
693	0.302
694	0.302
694	0.3
695	0.3
695	0.302
695	0.303
696	0.303
696	0.302
697	0.301
697	0.3
698	0.299
698	0.297
698	0.295
699	0.293
699	0.291
700	0.287
700	0.284
701	0.282
701	0.28
702	0.279
702	0.277
702	0.275
703	0.273
703	0.271
704	0.27
704	0.268
705	0.268
705	0.267
705	0.265
706	0.264
706	0.263
707	0.262
707	0.261
708	0.259
708	0.258
709	0.257
709	0.255
709	0.252
710	0.248
710	0.245
711	0.243
711	0.24
712	0.238
712	0.236
713	0.234
713	0.232
713	0.23
714	0.227
714	0.225
715	0.223
715	0.221
716	0.219
716	0.217
716	0.215
717	0.212
717	0.21
718	0.207
718	0.204
719	0.202
719	0.199
720	0.197
720	0.194
720	0.191
721	0.187
721	0.183
722	0.179
722	0.175
723	0.172
723	0.17
723	0.167
724	0.165
724	0.162
725	0.16
725	0.157
726	0.156
726	0.154
727	0.152
727	0.15
727	0.148
728	0.146
728	0.143
729	0.143
729	0.142
730	0.14
730	0.138
730	0.137
731	0.135
731	0.134
732	0.133
732	0.131
733	0.13
733	0.128
734	0.125
734	0.122
734	0.119
735	0.117
735	0.114
736	0.111
736	0.108
737	0.105
737	0.103
737	0.1
738	0.097
738	0.095
739	0.092
739	0.09
740	0.088
740	0.086
741	0.085
741	0.082
741	0.08
742	0.076
742	0.072
743	0.069
743	0.066
744	0.064
744	0.061
744	0.059
745	0.056
745	0.054
746	0.052
746	0.05
747	0.049
747	0.048
748	0.048
748	0.047
748	0.046
749	0.045
749	0.044
750	0.044
750	0.042
751	0.042
751	0.041
751	0.041
752	0.041
752	0.04
753	0.038
753	0.037
754	0.037
754	0.035
754	0.035
755	0.035
755	0.035
756	0.034
756	0.032
757	0.03
757	0.029
758	0.028
758	0.027
758	0.026
759	0.025
759	0.023
760	0.02
760	0.017
761	0.015
761	0.014
761	0.012
762	0.011
762	0.009
763	0.009
763	0.006
764	0.004
764	0.002
764	-0
765	-0.002
765	-0.004
766	-0.006
766	-0.007
767	-0.008
767	-0.01
768	-0.013
768	-0.016
768	-0.017
769	-0.018
769	-0.018
770	-0.019
770	-0.02
771	-0.022
771	-0.024
771	-0.026
772	-0.028
772	-0.03
773	-0.032
773	-0.034
774	-0.038
774	-0.041
775	-0.044
775	-0.048
775	-0.052
776	-0.056
776	-0.06
777	-0.064
777	-0.067
778	-0.071
778	-0.075
778	-0.079
779	-0.082
779	-0.085
780	-0.089
780	-0.093
781	-0.098
781	-0.103
781	-0.108
782	-0.114
782	-0.12
783	-0.125
783	-0.129
784	-0.132
784	-0.135
784	-0.138
785	-0.141
785	-0.144
786	-0.144
786	-0.142
787	-0.138
787	-0.134
788	-0.133
788	-0.134
788	-0.136
789	-0.139
789	-0.139
790	-0.136
790	-0.135
791	-0.136
791	-0.138
791	-0.14
792	-0.134
792	-0.123
793	-0.116
793	-0.112
794	-0.109
794	-0.111
794	-0.114
795	-0.116
795	-0.115
796	-0.115
796	-0.118
797	-0.127
797	-0.138
797	-0.145
798	-0.15
798	-0.154
799	-0.155
799	-0.155
800	-0.156
800	-0.158
801	-0.161
801	-0.162
801	-0.161
802	-0.163
802	-0.164
803	-0.164
803	-0.164
804	-0.162
804	-0.157
804	-0.15
805	-0.145
805	-0.143
806	-0.141
806	-0.139
807	-0.138
807	-0.137
807	-0.137
808	-0.136
808	-0.137
809	-0.141
809	-0.146
810	-0.149
810	-0.151
810	-0.154
811	-0.157
811	-0.157
812	-0.154
812	-0.151
813	-0.151
813	-0.153
813	-0.154
814	-0.156
814	-0.156
815	-0.155
815	-0.153
816	-0.151
816	-0.152
817	-0.157
817	-0.161
817	-0.162
818	-0.162
818	-0.159
819	-0.153
819	-0.15
820	-0.151
820	-0.153
820	-0.155
821	-0.154
821	-0.153
822	-0.151
822	-0.149
823	-0.145
823	-0.144
823	-0.145
824	-0.143
824	-0.137
825	-0.13
825	-0.121
826	-0.112
826	-0.105
826	-0.098
827	-0.091
827	-0.086
828	-0.081
828	-0.076
829	-0.071
829	-0.067
829	-0.064
830	-0.061
830	-0.058
831	-0.054
831	-0.05
832	-0.047
832	-0.044
832	-0.041
833	-0.038
833	-0.037
834	-0.036
834	-0.034
835	-0.034
835	-0.033
835	-0.034
836	-0.034
836	-0.034
837	-0.033
837	-0.033
838	-0.033
838	-0.032
839	-0.031
839	-0.03
839	-0.03
840	-0.029
840	-0.027
841	-0.026
841	-0.025
842	-0.024
842	-0.023
842	-0.022
843	-0.021
843	-0.02
844	-0.018
844	-0.018
845	-0.017
845	-0.017
845	-0.016
846	-0.015
846	-0.014
847	-0.014
847	-0.013
848	-0.012
848	-0.011
848	-0.01
849	-0.009
849	-0.008
850	-0.007
850	-0.007
851	-0.007
851	-0.006
851	-0.006
852	-0.007
852	-0.006
853	-0.006
853	-0.007
854	-0.007
854	-0.006
854	-0.006
855	-0.006
855	-0.006
856	-0.006
856	-0.006
857	-0.005
857	-0.005
857	-0.005
858	-0.004
858	-0.004
859	-0.004
859	-0.003
860	-0.003
860	-0.002
860	-0.001
861	0
861	0.001
862	0.001
862	0.002
863	0.002
863	0.003
863	0.003
864	0.004
864	0.004
865	0.005
865	0.005
866	0.006
866	0.006
866	0.007
867	0.008
867	0.009
868	0.009
868	0.01
869	0.01
869	0.01
869	0.009
870	0.009
870	0.009
871	0.009
871	0.009
872	0.008
872	0.008
872	0.007
873	0.007
873	0.006
874	0.005
874	0.004
875	0.003
875	0.002
875	0.001
876	0.001
876	0
877	-0
877	-0
878	-0
878	0
878	0.001
879	0.001
879	0.002
880	0.003
880	0.004
881	0.004
881	0.005
881	0.006
882	0.006
882	0.007
883	0.007
883	0.008
884	0.009
884	0.01
884	0.01
885	0.01
885	0.011
886	0.011
886	0.011
887	0.011
887	0.011
887	0.011
888	0.011
888	0.011
889	0.011
889	0.011
890	0.012
890	0.012
890	0.013
891	0.013
891	0.014
892	0.014
892	0.015
893	0.016
893	0.016
893	0.017
894	0.018
894	0.018
895	0.018
895	0.018
895	0.018
896	0.018
896	0.018
897	0.018
897	0.017
898	0.016
898	0.015
898	0.014
899	0.013
899	0.011
900	0.01
900	0.009
901	0.008
901	0.007
901	0.006
902	0.005
902	0.005
903	0.005
903	0.004
904	0.005
904	0.005
904	0.005
905	0.006
905	0.006
906	0.007
906	0.007
907	0.008
907	0.008
907	0.008
908	0.008
908	0.008
909	0.008
909	0.008
910	0.008
910	0.008
910	0.008
911	0.008
911	0.009
912	0.01
912	0.01
913	0.011
913	0.012
913	0.013
914	0.014
914	0.015
915	0.016
915	0.017
916	0.017
916	0.018
916	0.018
917	0.018
917	0.018
918	0.018
918	0.018
918	0.017
919	0.017
919	0.016
920	0.015
920	0.015
921	0.014
921	0.013
921	0.012
922	0.011
922	0.011
923	0.01
923	0.009
924	0.008
924	0.008
924	0.008
925	0.008
925	0.008
926	0.008
926	0.008
927	0.008
927	0.008
927	0.009
928	0.01
928	0.01
929	0.011
929	0.011
930	0.011
930	0.011
930	0.012
931	0.011
931	0.012
932	0.012
932	0.012
933	0.013
933	0.013
933	0.013
934	0.014
934	0.014
935	0.015
935	0.015
935	0.015
936	0.016
936	0.016
937	0.016
937	0.015
938	0.015
938	0.014
938	0.013
939	0.012
939	0.012
940	0.011
940	0.011
941	0.011
941	0.011
941	0.011
942	0.012
942	0.013
943	0.014
943	0.014
944	0.015
944	0.016
944	0.017
945	0.018
945	0.019
946	0.02
946	0.021
946	0.021
947	0.022
947	0.022
948	0.022
948	0.022
949	0.021
949	0.021
949	0.02
950	0.02
950	0.019
951	0.018
951	0.017
952	0.017
952	0.017
952	0.017
953	0.017
953	0.017
954	0.017
954	0.017
955	0.017
955	0.017
955	0.018
956	0.018
956	0.018
957	0.018
957	0.018
957	0.018
958	0.017
958	0.017
959	0.017
959	0.017
960	0.017
960	0.017
960	0.017
961	0.017
961	0.017
962	0.017
962	0.017
963	0.017
963	0.017
963	0.017
964	0.016
964	0.016
965	0.016
965	0.015
966	0.015
966	0.015
966	0.014
967	0.014
967	0.013
968	0.013
968	0.013
968	0.013
969	0.013
969	0.013
970	0.013
970	0.013
971	0.013
971	0.014
971	0.014
972	0.015
972	0.016
973	0.017
973	0.017
974	0.018
974	0.019
974	0.019
975	0.02
975	0.02
976	0.02
976	0.019
976	0.019
977	0.018
977	0.017
978	0.016
978	0.015
979	0.014
979	0.013
979	0.013
980	0.012
980	0.011
981	0.011
981	0.01
982	0.01
982	0.01
982	0.01
983	0.01
983	0.009
984	0.009
984	0.009
984	0.009
985	0.009
985	0.009
986	0.008
986	0.008
987	0.007
987	0.007
987	0.007
988	0.007
988	0.007
989	0.007
989	0.007
990	0.007
990	0.007
990	0.008
991	0.008
991	0.009
992	0.009
992	0.009
992	0.009
993	0.009
993	0.009
994	0.008
994	0.008
995	0.007
995	0.007
995	0.006
996	0.006
996	0.005
997	0.004
997	0.004
997	0.004
998	0.003
998	0.003
999	0.003
999	0.003
1000	0.004
1000	0.004
1000	0.004
1001	0.004
1001	0.005
1002	0.005
1002	0.005
1003	0.005
1003	0.005
1003	0.005
1004	0.004
1004	0.004
1005	0.004
1005	0.004
1005	0.003
1006	0.002
1006	0.002
1007	0.002
1007	0.001
1008	0.001
1008	0.001
1008	0.001
1009	0.001
1009	0.002
1010	0.003
1010	0.003
1010	0.005
1011	0.006
1011	0.007
1012	0.008
1012	0.009
1013	0.009
1013	0.01
1013	0.011
1014	0.011
1014	0.011
1015	0.011
1015	0.011
1016	0.011
1016	0.011
1016	0.011
1017	0.011
1017	0.011
1018	0.012
1018	0.012
1018	0.012
1019	0.013
1019	0.013
1020	0.013
1020	0.013
1021	0.013
1021	0.013
1021	0.013
1022	0.013
1022	0.013
1023	0.013
1023	0.013
1023	0.013
1024	0.013
1024	0.012
1025	0.013
1025	0.013
1026	0.013
1026	0.013
1026	0.013
1027	0.013
1027	0.014
1028	0.014
1028	0.014
1028	0.015
1029	0.015
1029	0.015
1030	0.015
1030	0.015
1031	0.015
1031	0.015
1031	0.015
1032	0.015
1032	0.015
1033	0.015
1033	0.014
1033	0.014
1034	0.013
1034	0.013
1035	0.012
1035	0.012
1036	0.012
1036	0.012
1036	0.012
1037	0.012
1037	0.012
1038	0.013
1038	0.013
1039	0.013
1039	0.014
1039	0.014
1040	0.015
1040	0.015
1041	0.015
1041	0.016
1041	0.017
1042	0.017
1042	0.018
1043	0.019
1043	0.02
1044	0.021
1044	0.022
1044	0.023
1045	0.024
1045	0.025
1046	0.026
1046	0.027
1046	0.029
1047	0.031
1047	0.032
1048	0.034
1048	0.035
1049	0.036
1049	0.037
1049	0.038
1050	0.038
1050	0.038
1051	0.038
1051	0.038
1051	0.037
1052	0.037
1052	0.036
1053	0.035
1053	0.034
1053	0.034
1054	0.033
1054	0.033
1055	0.032
1055	0.031
1056	0.031
1056	0.03
1056	0.029
1057	0.029
1057	0.028
1058	0.029
1058	0.028
1058	0.028
1059	0.028
1059	0.029
1060	0.029
1060	0.03
1061	0.031
1061	0.031
1061	0.032
1062	0.032
1062	0.032
1063	0.033
1063	0.033
1063	0.034
1064	0.036
1064	0.037
1065	0.038
1065	0.04
1066	0.041
1066	0.044
1066	0.046
1067	0.048
1067	0.051
1068	0.053
1068	0.055
1068	0.057
1069	0.058
1069	0.059
1070	0.061
1070	0.062
1071	0.064
1071	0.065
1071	0.066
1072	0.068
1072	0.069
1073	0.071
1073	0.073
1073	0.075
1074	0.076
1074	0.078
1075	0.078
1075	0.079
1076	0.08
1076	0.082
1076	0.082
1077	0.083
1077	0.084
1078	0.086
1078	0.088
1078	0.09
1079	0.092
1079	0.095
1080	0.096
1080	0.099
1080	0.1
1081	0.102
1081	0.104
1082	0.106
1082	0.107
1083	0.109
1083	0.112
1083	0.114
1084	0.117
1084	0.12
1085	0.123
1085	0.127
1085	0.13
1086	0.133
1086	0.137
1087	0.141
1087	0.144
1088	0.147
1088	0.151
1088	0.155
1089	0.159
1089	0.164
1090	0.17
1090	0.176
1090	0.183
1091	0.189
1091	0.197
1092	0.206
1092	0.217
1092	0.226
1093	0.236
1093	0.248
1094	0.26
1094	0.271
1095	0.284
1095	0.299
1095	0.318
1096	0.338
1096	0.357
1097	0.378
1097	0.402
1097	0.428
1098	0.456
1098	0.491
1099	0.53
1099	0.575
1100	0.631
1100	0.697
1100	0.776
1101	0.887
1101	1.042
1102	1.336
1102	3.328
1102	-0
1103	-0
1103	-0
1104	-0
1104	-0
1104	-0
1105	-0
1105	-0
1106	-0
1106	-0
1107	-0
1107	-0
1107	-0
1108	-0
1108	-0
1109	-0
1109	-0
1109	-0
1110	-0
1110	-0
1111	-0
1111	-0
