Data from 15c-2-4a_Absorbance__556__00556.txt Node

Date: Thu Jan 25 10:22:42 CET 2024
User: Marek
Spectrometer: MAYP115816
Trigger mode: 0
Integration Time (sec): 2.000000E-1
Scans to average: 10
Electric dark correction enabled: true
Nonlinearity correction enabled: true
Boxcar width: 5
XAxis mode: Wavelengths
Number of Pixels in Spectrum: 2068
>>>>>Begin Spectral Data<<<<<
199	-2.113
199	-1.942
200	-1.789
200	-1.667
201	-1.588
201	-1.531
202	-1.449
202	-1.387
203	-1.335
203	-1.289
204	-1.263
204	-1.235
205	-1.214
205	-1.203
205	-1.197
206	-1.193
206	-1.189
207	-1.189
207	-1.186
208	-1.18
208	-1.177
209	-1.173
209	-1.17
210	-1.168
210	-1.165
211	-1.164
211	-1.162
212	-1.159
212	-1.157
213	-1.155
213	-1.156
213	-1.155
214	-1.154
214	-1.153
215	-1.151
215	-1.149
216	-1.147
216	-1.145
217	-1.143
217	-1.141
218	-1.139
218	-1.137
219	-1.135
219	-1.132
220	-1.132
220	-1.127
221	-1.125
221	-1.122
221	-1.119
222	-1.116
222	-1.115
223	-1.11
223	-1.104
224	-1.097
224	-1.089
225	-1.08
225	-1.072
226	-1.06
226	-1.049
227	-1.034
227	-1.021
228	-1.001
228	-0.983
229	-0.962
229	-0.938
229	-0.912
230	-0.884
230	-0.854
231	-0.82
231	-0.782
232	-0.743
232	-0.701
233	-0.657
233	-0.612
234	-0.567
234	-0.521
235	-0.475
235	-0.43
236	-0.386
236	-0.345
236	-0.305
237	-0.267
237	-0.232
238	-0.198
238	-0.167
239	-0.139
239	-0.112
240	-0.087
240	-0.064
241	-0.043
241	-0.023
242	-0.006
242	0.01
243	0.025
243	0.038
243	0.051
244	0.063
244	0.073
245	0.083
245	0.092
246	0.1
246	0.108
247	0.115
247	0.121
248	0.127
248	0.133
249	0.138
249	0.143
250	0.148
250	0.153
250	0.157
251	0.161
251	0.164
252	0.168
252	0.172
253	0.175
253	0.178
254	0.181
254	0.184
255	0.186
255	0.189
256	0.191
256	0.193
257	0.195
257	0.197
258	0.198
258	0.199
258	0.201
259	0.202
259	0.203
260	0.204
260	0.204
261	0.205
261	0.205
262	0.206
262	0.206
263	0.206
263	0.206
264	0.206
264	0.206
265	0.206
265	0.206
265	0.206
266	0.205
266	0.205
267	0.204
267	0.204
268	0.203
268	0.202
269	0.202
269	0.201
270	0.2
270	0.199
271	0.197
271	0.196
272	0.195
272	0.194
272	0.192
273	0.191
273	0.19
274	0.189
274	0.187
275	0.186
275	0.184
276	0.183
276	0.181
277	0.179
277	0.178
278	0.176
278	0.174
278	0.172
279	0.171
279	0.17
280	0.169
280	0.168
281	0.167
281	0.166
282	0.165
282	0.164
283	0.163
283	0.162
284	0.161
284	0.16
285	0.159
285	0.158
285	0.156
286	0.155
286	0.154
287	0.153
287	0.152
288	0.151
288	0.15
289	0.149
289	0.148
290	0.148
290	0.147
291	0.146
291	0.145
292	0.144
292	0.144
292	0.143
293	0.142
293	0.141
294	0.141
294	0.14
295	0.14
295	0.139
296	0.139
296	0.138
297	0.138
297	0.137
298	0.137
298	0.137
298	0.136
299	0.136
299	0.136
300	0.135
300	0.135
301	0.134
301	0.134
302	0.134
302	0.133
303	0.133
303	0.133
304	0.132
304	0.132
305	0.132
305	0.131
305	0.131
306	0.131
306	0.13
307	0.13
307	0.13
308	0.129
308	0.129
309	0.128
309	0.128
310	0.128
310	0.128
311	0.127
311	0.127
311	0.127
312	0.126
312	0.126
313	0.125
313	0.125
314	0.125
314	0.124
315	0.124
315	0.123
316	0.123
316	0.122
317	0.122
317	0.121
318	0.121
318	0.12
318	0.12
319	0.119
319	0.119
320	0.119
320	0.118
321	0.118
321	0.117
322	0.117
322	0.116
323	0.116
323	0.115
324	0.115
324	0.115
324	0.114
325	0.114
325	0.113
326	0.113
326	0.113
327	0.112
327	0.112
328	0.111
328	0.111
329	0.111
329	0.11
330	0.11
330	0.109
330	0.109
331	0.108
331	0.108
332	0.107
332	0.107
333	0.106
333	0.106
334	0.106
334	0.105
335	0.105
335	0.104
336	0.104
336	0.104
336	0.103
337	0.103
337	0.103
338	0.102
338	0.102
339	0.102
339	0.101
340	0.101
340	0.1
341	0.1
341	0.099
342	0.099
342	0.099
342	0.098
343	0.098
343	0.097
344	0.097
344	0.096
345	0.096
345	0.096
346	0.095
346	0.095
347	0.095
347	0.094
348	0.094
348	0.093
348	0.093
349	0.092
349	0.092
350	0.091
350	0.091
351	0.091
351	0.09
352	0.089
352	0.089
353	0.089
353	0.088
354	0.087
354	0.087
354	0.086
355	0.085
355	0.084
356	0.084
356	0.084
357	0.083
357	0.083
358	0.083
358	0.084
359	0.084
359	0.084
360	0.085
360	0.086
360	0.086
361	0.086
361	0.087
362	0.087
362	0.087
363	0.087
363	0.087
364	0.086
364	0.086
365	0.085
365	0.085
366	0.085
366	0.085
366	0.085
367	0.085
367	0.084
368	0.084
368	0.084
369	0.084
369	0.084
370	0.083
370	0.083
371	0.083
371	0.082
372	0.082
372	0.082
372	0.081
373	0.081
373	0.081
374	0.081
374	0.081
375	0.081
375	0.081
376	0.081
376	0.081
377	0.081
377	0.082
378	0.082
378	0.082
378	0.082
379	0.082
379	0.082
380	0.082
380	0.082
381	0.082
381	0.082
382	0.082
382	0.082
383	0.081
383	0.081
383	0.081
384	0.08
384	0.08
385	0.08
385	0.08
386	0.08
386	0.08
387	0.08
387	0.08
388	0.08
388	0.08
389	0.08
389	0.08
389	0.08
390	0.08
390	0.08
391	0.081
391	0.081
392	0.081
392	0.081
393	0.081
393	0.081
394	0.081
394	0.081
394	0.08
395	0.08
395	0.08
396	0.08
396	0.08
397	0.08
397	0.08
398	0.08
398	0.08
399	0.08
399	0.08
400	0.08
400	0.08
400	0.079
401	0.079
401	0.079
402	0.078
402	0.077
403	0.077
403	0.077
404	0.077
404	0.077
405	0.077
405	0.077
405	0.076
406	0.076
406	0.076
407	0.076
407	0.076
408	0.075
408	0.075
409	0.074
409	0.074
410	0.074
410	0.074
411	0.074
411	0.074
411	0.074
412	0.074
412	0.073
413	0.073
413	0.073
414	0.073
414	0.073
415	0.073
415	0.073
416	0.073
416	0.072
416	0.072
417	0.072
417	0.072
418	0.072
418	0.072
419	0.072
419	0.073
420	0.073
420	0.074
421	0.074
421	0.075
421	0.075
422	0.075
422	0.075
423	0.075
423	0.074
424	0.074
424	0.073
425	0.073
425	0.072
426	0.072
426	0.071
427	0.071
427	0.071
427	0.072
428	0.072
428	0.073
429	0.073
429	0.073
430	0.073
430	0.073
431	0.073
431	0.073
432	0.073
432	0.072
432	0.072
433	0.071
433	0.07
434	0.07
434	0.07
435	0.07
435	0.07
436	0.069
436	0.07
437	0.07
437	0.07
437	0.07
438	0.07
438	0.07
439	0.07
439	0.069
440	0.069
440	0.069
441	0.069
441	0.069
442	0.069
442	0.069
442	0.07
443	0.07
443	0.07
444	0.07
444	0.07
445	0.071
445	0.071
446	0.071
446	0.071
447	0.071
447	0.071
447	0.07
448	0.07
448	0.07
449	0.07
449	0.07
450	0.069
450	0.069
451	0.069
451	0.068
452	0.068
452	0.068
452	0.067
453	0.067
453	0.067
454	0.066
454	0.066
455	0.065
455	0.065
456	0.065
456	0.065
457	0.065
457	0.064
458	0.064
458	0.064
458	0.065
459	0.065
459	0.065
460	0.064
460	0.064
461	0.063
461	0.063
462	0.063
462	0.063
463	0.063
463	0.064
463	0.064
464	0.065
464	0.065
465	0.065
465	0.065
466	0.065
466	0.066
467	0.066
467	0.065
467	0.064
468	0.063
468	0.062
469	0.06
469	0.059
470	0.058
470	0.057
471	0.057
471	0.056
472	0.056
472	0.056
472	0.056
473	0.057
473	0.057
474	0.058
474	0.059
475	0.06
475	0.06
476	0.061
476	0.061
477	0.062
477	0.062
477	0.062
478	0.062
478	0.063
479	0.063
479	0.064
480	0.064
480	0.065
481	0.065
481	0.066
482	0.066
482	0.067
482	0.068
483	0.07
483	0.072
484	0.074
484	0.076
485	0.077
485	0.078
486	0.079
486	0.079
487	0.08
487	0.08
487	0.08
488	0.079
488	0.078
489	0.076
489	0.075
490	0.074
490	0.073
491	0.072
491	0.072
492	0.073
492	0.073
492	0.073
493	0.074
493	0.074
494	0.075
494	0.076
495	0.077
495	0.078
496	0.078
496	0.079
496	0.079
497	0.08
497	0.08
498	0.08
498	0.081
499	0.08
499	0.08
500	0.081
500	0.081
501	0.082
501	0.083
501	0.084
502	0.085
502	0.086
503	0.087
503	0.088
504	0.089
504	0.089
505	0.089
505	0.09
506	0.09
506	0.09
506	0.09
507	0.09
507	0.09
508	0.09
508	0.091
509	0.091
509	0.091
510	0.092
510	0.092
511	0.091
511	0.091
511	0.091
512	0.092
512	0.092
513	0.092
513	0.091
514	0.09
514	0.089
515	0.088
515	0.088
515	0.088
516	0.087
516	0.087
517	0.088
517	0.088
518	0.088
518	0.087
519	0.086
519	0.085
520	0.083
520	0.081
520	0.08
521	0.077
521	0.075
522	0.073
522	0.071
523	0.07
523	0.071
524	0.072
524	0.073
524	0.075
525	0.078
525	0.08
526	0.083
526	0.085
527	0.088
527	0.09
528	0.092
528	0.093
529	0.093
529	0.094
529	0.094
530	0.094
530	0.094
531	0.094
531	0.095
532	0.094
532	0.094
533	0.094
533	0.094
533	0.094
534	0.094
534	0.093
535	0.093
535	0.092
536	0.092
536	0.092
537	0.091
537	0.091
538	0.091
538	0.09
538	0.089
539	0.088
539	0.088
540	0.087
540	0.087
541	0.086
541	0.085
542	0.084
542	0.084
542	0.083
543	0.082
543	0.082
544	0.081
544	0.08
545	0.08
545	0.08
546	0.08
546	0.08
547	0.079
547	0.078
547	0.077
548	0.075
548	0.074
549	0.073
549	0.071
550	0.07
550	0.069
551	0.067
551	0.065
551	0.064
552	0.063
552	0.063
553	0.063
553	0.062
554	0.062
554	0.062
555	0.061
555	0.059
556	0.057
556	0.055
556	0.053
557	0.051
557	0.05
558	0.049
558	0.048
559	0.047
559	0.046
560	0.046
560	0.046
560	0.046
561	0.047
561	0.047
562	0.048
562	0.047
563	0.046
563	0.045
564	0.043
564	0.041
564	0.04
565	0.038
565	0.037
566	0.036
566	0.035
567	0.035
567	0.036
568	0.037
568	0.038
568	0.04
569	0.041
569	0.043
570	0.044
570	0.045
571	0.046
571	0.047
572	0.047
572	0.047
573	0.048
573	0.048
573	0.047
574	0.047
574	0.047
575	0.047
575	0.048
576	0.049
576	0.049
577	0.049
577	0.048
577	0.048
578	0.048
578	0.048
579	0.048
579	0.049
580	0.05
580	0.048
581	0.047
581	0.046
581	0.045
582	0.045
582	0.045
583	0.046
583	0.046
584	0.044
584	0.042
585	0.041
585	0.041
585	0.04
586	0.04
586	0.04
587	0.039
587	0.037
588	0.035
588	0.033
589	0.031
589	0.03
590	0.029
590	0.028
590	0.027
591	0.028
591	0.028
592	0.027
592	0.027
593	0.027
593	0.028
594	0.027
594	0.027
594	0.027
595	0.027
595	0.026
596	0.025
596	0.026
597	0.027
597	0.028
598	0.029
598	0.03
598	0.03
599	0.031
599	0.03
600	0.03
600	0.029
601	0.028
601	0.027
602	0.026
602	0.025
602	0.023
603	0.022
603	0.022
604	0.023
604	0.023
605	0.024
605	0.025
606	0.026
606	0.025
606	0.025
607	0.024
607	0.024
608	0.024
608	0.023
609	0.022
609	0.021
610	0.02
610	0.019
610	0.018
611	0.019
611	0.019
612	0.02
612	0.022
613	0.023
613	0.024
614	0.025
614	0.025
614	0.025
615	0.025
615	0.025
616	0.025
616	0.025
617	0.024
617	0.023
618	0.022
618	0.02
618	0.02
619	0.019
619	0.019
620	0.02
620	0.021
621	0.021
621	0.021
622	0.021
622	0.021
622	0.021
623	0.021
623	0.021
624	0.021
624	0.021
625	0.021
625	0.021
626	0.021
626	0.02
626	0.021
627	0.021
627	0.021
628	0.021
628	0.021
629	0.021
629	0.021
630	0.021
630	0.02
630	0.02
631	0.02
631	0.02
632	0.02
632	0.02
633	0.02
633	0.02
634	0.021
634	0.022
634	0.023
635	0.025
635	0.025
636	0.026
636	0.027
637	0.028
637	0.029
638	0.029
638	0.03
638	0.03
639	0.03
639	0.03
640	0.03
640	0.03
641	0.031
641	0.032
642	0.033
642	0.035
642	0.036
643	0.037
643	0.038
644	0.04
644	0.041
645	0.043
645	0.045
646	0.046
646	0.048
646	0.05
647	0.052
647	0.055
648	0.056
648	0.058
649	0.06
649	0.062
650	0.063
650	0.065
650	0.066
651	0.067
651	0.068
652	0.069
652	0.07
653	0.071
653	0.076
653	0.084
654	0.07
654	0.06
655	0.063
655	0.064
656	0.066
656	0.067
657	0.069
657	0.07
657	0.071
658	0.069
658	0.064
659	0.078
659	0.097
660	0.098
660	0.099
661	0.1
661	0.101
661	0.102
662	0.104
662	0.106
663	0.108
663	0.11
664	0.112
664	0.113
665	0.115
665	0.116
665	0.118
666	0.12
666	0.121
667	0.122
667	0.124
668	0.125
668	0.126
669	0.128
669	0.129
669	0.131
670	0.134
670	0.136
671	0.137
671	0.139
672	0.14
672	0.14
672	0.141
673	0.142
673	0.143
674	0.144
674	0.144
675	0.144
675	0.144
676	0.145
676	0.146
676	0.147
677	0.148
677	0.149
678	0.15
678	0.151
679	0.152
679	0.152
680	0.153
680	0.154
680	0.155
681	0.155
681	0.156
682	0.157
682	0.157
683	0.159
683	0.16
684	0.161
684	0.162
684	0.162
685	0.162
685	0.162
686	0.162
686	0.162
687	0.162
687	0.161
687	0.16
688	0.159
688	0.159
689	0.159
689	0.159
690	0.159
690	0.159
691	0.158
691	0.159
691	0.159
692	0.159
692	0.158
693	0.158
693	0.159
694	0.159
694	0.159
695	0.16
695	0.162
695	0.163
696	0.163
696	0.163
697	0.163
697	0.162
698	0.162
698	0.161
698	0.159
699	0.158
699	0.156
700	0.154
700	0.152
701	0.151
701	0.15
702	0.149
702	0.148
702	0.146
703	0.145
703	0.144
704	0.142
704	0.141
705	0.14
705	0.139
705	0.138
706	0.138
706	0.137
707	0.136
707	0.135
708	0.134
708	0.134
709	0.133
709	0.132
709	0.131
710	0.129
710	0.127
711	0.126
711	0.125
712	0.124
712	0.124
713	0.123
713	0.122
713	0.121
714	0.12
714	0.119
715	0.118
715	0.116
716	0.115
716	0.114
716	0.112
717	0.111
717	0.109
718	0.107
718	0.105
719	0.104
719	0.103
720	0.102
720	0.1
720	0.098
721	0.096
721	0.094
722	0.091
722	0.089
723	0.087
723	0.086
723	0.084
724	0.083
724	0.081
725	0.08
725	0.078
726	0.077
726	0.076
727	0.075
727	0.074
727	0.073
728	0.071
728	0.07
729	0.07
729	0.069
730	0.068
730	0.067
730	0.066
731	0.064
731	0.063
732	0.062
732	0.061
733	0.06
733	0.059
734	0.058
734	0.056
734	0.054
735	0.053
735	0.052
736	0.05
736	0.048
737	0.047
737	0.046
737	0.044
738	0.042
738	0.04
739	0.038
739	0.037
740	0.035
740	0.034
741	0.033
741	0.031
741	0.029
742	0.026
742	0.024
743	0.022
743	0.02
744	0.019
744	0.017
744	0.016
745	0.014
745	0.013
746	0.012
746	0.011
747	0.011
747	0.011
748	0.011
748	0.011
748	0.01
749	0.009
749	0.009
750	0.008
750	0.008
751	0.007
751	0.007
751	0.007
752	0.006
752	0.005
753	0.004
753	0.004
754	0.003
754	0.002
754	0.002
755	0.003
755	0.003
756	0.003
756	0.002
757	0.001
757	0
758	-0
758	-0.001
758	-0.002
759	-0.002
759	-0.004
760	-0.006
760	-0.009
761	-0.011
761	-0.012
761	-0.012
762	-0.014
762	-0.014
763	-0.014
763	-0.015
764	-0.017
764	-0.018
764	-0.019
765	-0.021
765	-0.022
766	-0.023
766	-0.023
767	-0.024
767	-0.026
768	-0.028
768	-0.03
768	-0.031
769	-0.032
769	-0.032
770	-0.033
770	-0.033
771	-0.035
771	-0.037
771	-0.039
772	-0.041
772	-0.043
773	-0.045
773	-0.047
774	-0.05
774	-0.054
775	-0.057
775	-0.06
775	-0.064
776	-0.067
776	-0.07
777	-0.073
777	-0.076
778	-0.079
778	-0.082
778	-0.085
779	-0.088
779	-0.089
780	-0.092
780	-0.096
781	-0.1
781	-0.105
781	-0.11
782	-0.114
782	-0.12
783	-0.125
783	-0.129
784	-0.133
784	-0.136
784	-0.139
785	-0.142
785	-0.145
786	-0.145
786	-0.143
787	-0.139
787	-0.135
788	-0.134
788	-0.136
788	-0.137
789	-0.14
789	-0.14
790	-0.137
790	-0.136
791	-0.137
791	-0.139
791	-0.141
792	-0.136
792	-0.124
793	-0.118
793	-0.113
794	-0.111
794	-0.112
794	-0.115
795	-0.117
795	-0.116
796	-0.117
796	-0.119
797	-0.128
797	-0.139
797	-0.146
798	-0.152
798	-0.155
799	-0.157
799	-0.157
800	-0.157
800	-0.159
801	-0.162
801	-0.163
801	-0.163
802	-0.164
802	-0.165
803	-0.165
803	-0.165
804	-0.163
804	-0.158
804	-0.151
805	-0.147
805	-0.144
806	-0.142
806	-0.14
807	-0.139
807	-0.138
807	-0.138
808	-0.137
808	-0.138
809	-0.142
809	-0.147
810	-0.15
810	-0.152
810	-0.155
811	-0.158
811	-0.159
812	-0.155
812	-0.152
813	-0.152
813	-0.154
813	-0.155
814	-0.157
814	-0.158
815	-0.156
815	-0.154
816	-0.153
816	-0.154
817	-0.159
817	-0.163
817	-0.163
818	-0.163
818	-0.16
819	-0.155
819	-0.152
820	-0.153
820	-0.155
820	-0.156
821	-0.154
821	-0.151
822	-0.148
822	-0.144
823	-0.139
823	-0.137
823	-0.137
824	-0.133
824	-0.127
825	-0.118
825	-0.109
826	-0.101
826	-0.094
826	-0.088
827	-0.082
827	-0.077
828	-0.072
828	-0.067
829	-0.063
829	-0.059
829	-0.056
830	-0.053
830	-0.05
831	-0.047
831	-0.043
832	-0.041
832	-0.038
832	-0.036
833	-0.035
833	-0.034
834	-0.033
834	-0.032
835	-0.032
835	-0.032
835	-0.033
836	-0.033
836	-0.033
837	-0.033
837	-0.033
838	-0.033
838	-0.033
839	-0.033
839	-0.032
839	-0.032
840	-0.031
840	-0.03
841	-0.029
841	-0.028
842	-0.026
842	-0.025
842	-0.024
843	-0.022
843	-0.021
844	-0.02
844	-0.019
845	-0.018
845	-0.018
845	-0.017
846	-0.016
846	-0.016
847	-0.015
847	-0.015
848	-0.014
848	-0.013
848	-0.013
849	-0.012
849	-0.011
850	-0.01
850	-0.01
851	-0.009
851	-0.009
851	-0.009
852	-0.009
852	-0.008
853	-0.008
853	-0.008
854	-0.008
854	-0.008
854	-0.009
855	-0.009
855	-0.009
856	-0.009
856	-0.009
857	-0.009
857	-0.009
857	-0.008
858	-0.008
858	-0.008
859	-0.008
859	-0.007
860	-0.006
860	-0.005
860	-0.004
861	-0.003
861	-0.002
862	-0.001
862	0
863	0.001
863	0.002
863	0.003
864	0.004
864	0.005
865	0.006
865	0.006
866	0.007
866	0.007
866	0.008
867	0.008
867	0.009
868	0.009
868	0.009
869	0.009
869	0.009
869	0.009
870	0.009
870	0.009
871	0.008
871	0.007
872	0.006
872	0.005
872	0.004
873	0.003
873	0.002
874	0.001
874	-0
875	-0.001
875	-0.001
875	-0.001
876	-0.001
876	-0.001
877	-0.001
877	-0
878	-0
878	0
878	0.001
879	0.001
879	0.002
880	0.003
880	0.003
881	0.004
881	0.005
881	0.006
882	0.007
882	0.008
883	0.008
883	0.009
884	0.009
884	0.01
884	0.01
885	0.01
885	0.01
886	0.009
886	0.009
887	0.008
887	0.008
887	0.007
888	0.006
888	0.006
889	0.006
889	0.006
890	0.006
890	0.006
890	0.006
891	0.007
891	0.007
892	0.007
892	0.008
893	0.008
893	0.009
893	0.01
894	0.01
894	0.01
895	0.011
895	0.011
895	0.011
896	0.011
896	0.01
897	0.01
897	0.009
898	0.008
898	0.007
898	0.006
899	0.005
899	0.004
900	0.003
900	0.002
901	0.002
901	0.001
901	0.001
902	0.001
902	0.001
903	0
903	0
904	0.001
904	0.001
904	0.001
905	0.001
905	0.002
906	0.002
906	0.002
907	0.002
907	0.002
907	0.002
908	0.002
908	0.002
909	0.002
909	0.002
910	0.002
910	0.002
910	0.002
911	0.002
911	0.003
912	0.004
912	0.005
913	0.006
913	0.007
913	0.008
914	0.009
914	0.01
915	0.011
915	0.012
916	0.013
916	0.014
916	0.014
917	0.015
917	0.015
918	0.015
918	0.015
918	0.014
919	0.013
919	0.012
920	0.011
920	0.01
921	0.009
921	0.007
921	0.006
922	0.006
922	0.005
923	0.005
923	0.005
924	0.005
924	0.005
924	0.006
925	0.006
925	0.007
926	0.008
926	0.009
927	0.009
927	0.01
927	0.01
928	0.011
928	0.011
929	0.012
929	0.012
930	0.013
930	0.013
930	0.013
931	0.012
931	0.012
932	0.012
932	0.012
933	0.012
933	0.012
933	0.011
934	0.011
934	0.011
935	0.011
935	0.011
935	0.011
936	0.011
936	0.011
937	0.011
937	0.011
938	0.011
938	0.01
938	0.01
939	0.009
939	0.009
940	0.009
940	0.009
941	0.009
941	0.009
941	0.01
942	0.01
942	0.01
943	0.011
943	0.011
944	0.012
944	0.013
944	0.013
945	0.014
945	0.015
946	0.016
946	0.016
946	0.017
947	0.018
947	0.018
948	0.018
948	0.017
949	0.017
949	0.016
949	0.016
950	0.016
950	0.015
951	0.015
951	0.014
952	0.014
952	0.014
952	0.014
953	0.014
953	0.014
954	0.013
954	0.013
955	0.013
955	0.013
955	0.013
956	0.013
956	0.012
957	0.012
957	0.012
957	0.011
958	0.011
958	0.011
959	0.011
959	0.011
960	0.012
960	0.012
960	0.012
961	0.012
961	0.013
962	0.014
962	0.014
963	0.015
963	0.015
963	0.015
964	0.015
964	0.015
965	0.015
965	0.015
966	0.014
966	0.014
966	0.013
967	0.013
967	0.012
968	0.012
968	0.011
968	0.011
969	0.011
969	0.011
970	0.011
970	0.011
971	0.011
971	0.011
971	0.012
972	0.012
972	0.013
973	0.014
973	0.014
974	0.015
974	0.016
974	0.016
975	0.017
975	0.017
976	0.017
976	0.017
976	0.016
977	0.016
977	0.015
978	0.014
978	0.013
979	0.012
979	0.011
979	0.011
980	0.01
980	0.009
981	0.008
981	0.008
982	0.007
982	0.007
982	0.006
983	0.006
983	0.006
984	0.006
984	0.006
984	0.006
985	0.006
985	0.006
986	0.005
986	0.005
987	0.005
987	0.005
987	0.004
988	0.004
988	0.004
989	0.003
989	0.003
990	0.002
990	0.002
990	0.002
991	0.002
991	0.002
992	0.001
992	0.001
992	0.001
993	0
993	0
994	-0
994	-0.001
995	-0.001
995	-0.001
995	-0.002
996	-0.002
996	-0.002
997	-0.003
997	-0.003
997	-0.003
998	-0.003
998	-0.002
999	-0.001
999	-0.001
1000	-0
1000	0.001
1000	0.002
1001	0.002
1001	0.003
1002	0.004
1002	0.004
1003	0.004
1003	0.005
1003	0.004
1004	0.004
1004	0.004
1005	0.004
1005	0.003
1005	0.003
1006	0.002
1006	0.002
1007	0.002
1007	0.002
1008	0.002
1008	0.002
1008	0.002
1009	0.002
1009	0.002
1010	0.003
1010	0.003
1010	0.004
1011	0.005
1011	0.006
1012	0.007
1012	0.008
1013	0.009
1013	0.01
1013	0.01
1014	0.011
1014	0.011
1015	0.012
1015	0.012
1016	0.012
1016	0.012
1016	0.012
1017	0.012
1017	0.012
1018	0.012
1018	0.012
1018	0.012
1019	0.012
1019	0.012
1020	0.011
1020	0.011
1021	0.011
1021	0.01
1021	0.01
1022	0.009
1022	0.009
1023	0.009
1023	0.009
1023	0.008
1024	0.008
1024	0.008
1025	0.008
1025	0.008
1026	0.009
1026	0.009
1026	0.009
1027	0.009
1027	0.009
1028	0.01
1028	0.01
1028	0.01
1029	0.01
1029	0.011
1030	0.011
1030	0.011
1031	0.012
1031	0.012
1031	0.012
1032	0.012
1032	0.012
1033	0.012
1033	0.012
1033	0.012
1034	0.012
1034	0.012
1035	0.012
1035	0.012
1036	0.012
1036	0.013
1036	0.013
1037	0.014
1037	0.015
1038	0.016
1038	0.016
1039	0.017
1039	0.018
1039	0.019
1040	0.019
1040	0.02
1041	0.02
1041	0.021
1041	0.021
1042	0.021
1042	0.022
1043	0.022
1043	0.023
1044	0.023
1044	0.024
1044	0.025
1045	0.026
1045	0.027
1046	0.027
1046	0.029
1046	0.03
1047	0.032
1047	0.033
1048	0.035
1048	0.036
1049	0.037
1049	0.037
1049	0.038
1050	0.039
1050	0.039
1051	0.039
1051	0.039
1051	0.038
1052	0.038
1052	0.037
1053	0.036
1053	0.036
1053	0.035
1054	0.034
1054	0.034
1055	0.033
1055	0.032
1056	0.031
1056	0.03
1056	0.029
1057	0.028
1057	0.028
1058	0.028
1058	0.028
1058	0.028
1059	0.028
1059	0.028
1060	0.029
1060	0.029
1061	0.03
1061	0.031
1061	0.031
1062	0.032
1062	0.033
1063	0.033
1063	0.034
1063	0.035
1064	0.036
1064	0.038
1065	0.039
1065	0.04
1066	0.042
1066	0.044
1066	0.045
1067	0.047
1067	0.049
1068	0.052
1068	0.053
1068	0.055
1069	0.056
1069	0.057
1070	0.059
1070	0.06
1071	0.061
1071	0.062
1071	0.063
1072	0.064
1072	0.065
1073	0.067
1073	0.068
1073	0.069
1074	0.07
1074	0.071
1075	0.071
1075	0.071
1076	0.071
1076	0.072
1076	0.072
1077	0.073
1077	0.074
1078	0.075
1078	0.077
1078	0.078
1079	0.08
1079	0.082
1080	0.084
1080	0.086
1080	0.088
1081	0.09
1081	0.092
1082	0.094
1082	0.095
1083	0.097
1083	0.099
1083	0.101
1084	0.104
1084	0.106
1085	0.109
1085	0.111
1085	0.114
1086	0.116
1086	0.118
1087	0.122
1087	0.124
1088	0.126
1088	0.129
1088	0.133
1089	0.137
1089	0.141
1090	0.146
1090	0.152
1090	0.157
1091	0.164
1091	0.172
1092	0.179
1092	0.188
1092	0.195
1093	0.203
1093	0.212
1094	0.221
1094	0.231
1095	0.241
1095	0.253
1095	0.266
1096	0.28
1096	0.296
1097	0.314
1097	0.333
1097	0.353
1098	0.375
1098	0.4
1099	0.428
1099	0.46
1100	0.498
1100	0.538
1100	0.587
1101	0.643
1101	0.718
1102	0.816
1102	0.951
1102	1.16
1103	1.636
1103	-0
1104	-0
1104	-0
1104	-0
1105	-0
1105	-0
1106	-0
1106	-0
1107	-0
1107	-0
1107	-0
1108	-0
1108	-0
1109	-0
1109	-0
1109	-0
1110	-0
1110	-0
1111	-0
1111	-0
