Data from 15c-2-4a_Absorbance__3471__03471.txt Node

Date: Thu Jan 25 11:59:52 CET 2024
User: Marek
Spectrometer: MAYP115816
Trigger mode: 0
Integration Time (sec): 2.000000E-1
Scans to average: 10
Electric dark correction enabled: true
Nonlinearity correction enabled: true
Boxcar width: 5
XAxis mode: Wavelengths
Number of Pixels in Spectrum: 2068
>>>>>Begin Spectral Data<<<<<
199	-2.196
199	-2.026
200	-1.872
200	-1.75
201	-1.671
201	-1.614
202	-1.532
202	-1.47
203	-1.418
203	-1.371
204	-1.345
204	-1.316
205	-1.295
205	-1.284
205	-1.278
206	-1.274
206	-1.27
207	-1.27
207	-1.266
208	-1.261
208	-1.258
209	-1.253
209	-1.25
210	-1.248
210	-1.245
211	-1.244
211	-1.242
212	-1.239
212	-1.236
213	-1.235
213	-1.235
213	-1.235
214	-1.234
214	-1.233
215	-1.231
215	-1.23
216	-1.227
216	-1.226
217	-1.224
217	-1.221
218	-1.219
218	-1.217
219	-1.214
219	-1.212
220	-1.211
220	-1.207
221	-1.204
221	-1.202
221	-1.198
222	-1.195
222	-1.194
223	-1.189
223	-1.183
224	-1.176
224	-1.167
225	-1.157
225	-1.149
226	-1.138
226	-1.126
227	-1.111
227	-1.097
228	-1.077
228	-1.057
229	-1.036
229	-1.011
229	-0.984
230	-0.955
230	-0.923
231	-0.887
231	-0.848
232	-0.806
232	-0.76
233	-0.713
233	-0.663
234	-0.614
234	-0.562
235	-0.51
235	-0.46
236	-0.409
236	-0.36
236	-0.312
237	-0.265
237	-0.221
238	-0.179
238	-0.139
239	-0.1
239	-0.064
240	-0.03
240	0.002
241	0.033
241	0.061
242	0.086
242	0.11
243	0.133
243	0.154
243	0.173
244	0.191
244	0.208
245	0.223
245	0.237
246	0.25
246	0.263
247	0.274
247	0.285
248	0.296
248	0.305
249	0.313
249	0.321
250	0.329
250	0.336
250	0.344
251	0.35
251	0.356
252	0.361
252	0.367
253	0.372
253	0.376
254	0.381
254	0.385
255	0.389
255	0.393
256	0.396
256	0.399
257	0.402
257	0.405
258	0.407
258	0.409
258	0.411
259	0.413
259	0.415
260	0.416
260	0.417
261	0.419
261	0.42
262	0.42
262	0.421
263	0.422
263	0.422
264	0.423
264	0.423
265	0.423
265	0.423
265	0.423
266	0.423
266	0.423
267	0.422
267	0.422
268	0.421
268	0.42
269	0.42
269	0.419
270	0.418
270	0.416
271	0.415
271	0.414
272	0.412
272	0.411
272	0.41
273	0.408
273	0.407
274	0.406
274	0.404
275	0.402
275	0.401
276	0.399
276	0.397
277	0.395
277	0.393
278	0.39
278	0.388
278	0.386
279	0.383
279	0.382
280	0.381
280	0.379
281	0.378
281	0.377
282	0.376
282	0.375
283	0.375
283	0.374
284	0.373
284	0.372
285	0.371
285	0.369
285	0.367
286	0.366
286	0.365
287	0.363
287	0.362
288	0.36
288	0.359
289	0.357
289	0.356
290	0.355
290	0.353
291	0.352
291	0.351
292	0.35
292	0.349
292	0.347
293	0.346
293	0.345
294	0.344
294	0.343
295	0.342
295	0.342
296	0.341
296	0.34
297	0.339
297	0.338
298	0.337
298	0.336
298	0.335
299	0.334
299	0.333
300	0.332
300	0.331
301	0.331
301	0.33
302	0.329
302	0.328
303	0.327
303	0.326
304	0.326
304	0.325
305	0.324
305	0.322
305	0.321
306	0.321
306	0.32
307	0.319
307	0.318
308	0.317
308	0.316
309	0.315
309	0.314
310	0.313
310	0.312
311	0.311
311	0.31
311	0.31
312	0.309
312	0.308
313	0.307
313	0.306
314	0.305
314	0.304
315	0.303
315	0.302
316	0.301
316	0.3
317	0.298
317	0.297
318	0.296
318	0.295
318	0.294
319	0.293
319	0.292
320	0.291
320	0.29
321	0.289
321	0.288
322	0.287
322	0.286
323	0.285
323	0.284
324	0.283
324	0.282
324	0.281
325	0.28
325	0.279
326	0.279
326	0.278
327	0.277
327	0.276
328	0.275
328	0.274
329	0.273
329	0.272
330	0.271
330	0.27
330	0.269
331	0.268
331	0.267
332	0.266
332	0.265
333	0.264
333	0.264
334	0.263
334	0.262
335	0.261
335	0.26
336	0.259
336	0.258
336	0.257
337	0.256
337	0.256
338	0.255
338	0.254
339	0.254
339	0.253
340	0.252
340	0.251
341	0.25
341	0.25
342	0.249
342	0.248
342	0.247
343	0.247
343	0.246
344	0.245
344	0.244
345	0.244
345	0.243
346	0.242
346	0.241
347	0.241
347	0.24
348	0.239
348	0.238
348	0.237
349	0.236
349	0.236
350	0.235
350	0.234
351	0.233
351	0.232
352	0.231
352	0.23
353	0.23
353	0.228
354	0.227
354	0.226
354	0.225
355	0.224
355	0.223
356	0.222
356	0.221
357	0.221
357	0.221
358	0.22
358	0.221
359	0.222
359	0.222
360	0.223
360	0.224
360	0.224
361	0.225
361	0.225
362	0.225
362	0.225
363	0.225
363	0.224
364	0.224
364	0.223
365	0.223
365	0.222
366	0.221
366	0.221
366	0.22
367	0.22
367	0.22
368	0.219
368	0.219
369	0.218
369	0.218
370	0.217
370	0.217
371	0.216
371	0.215
372	0.215
372	0.214
372	0.214
373	0.213
373	0.213
374	0.213
374	0.213
375	0.213
375	0.213
376	0.212
376	0.212
377	0.213
377	0.213
378	0.213
378	0.213
378	0.213
379	0.213
379	0.213
380	0.213
380	0.213
381	0.213
381	0.213
382	0.212
382	0.212
383	0.211
383	0.211
383	0.21
384	0.21
384	0.209
385	0.209
385	0.209
386	0.208
386	0.209
387	0.209
387	0.209
388	0.208
388	0.208
389	0.208
389	0.208
389	0.207
390	0.207
390	0.208
391	0.208
391	0.208
392	0.208
392	0.208
393	0.208
393	0.208
394	0.207
394	0.207
394	0.207
395	0.206
395	0.206
396	0.205
396	0.205
397	0.205
397	0.205
398	0.205
398	0.204
399	0.204
399	0.204
400	0.204
400	0.203
400	0.203
401	0.202
401	0.201
402	0.2
402	0.199
403	0.199
403	0.198
404	0.198
404	0.198
405	0.197
405	0.197
405	0.196
406	0.196
406	0.196
407	0.196
407	0.196
408	0.195
408	0.194
409	0.194
409	0.193
410	0.193
410	0.193
411	0.193
411	0.193
411	0.193
412	0.192
412	0.192
413	0.191
413	0.191
414	0.191
414	0.191
415	0.19
415	0.19
416	0.189
416	0.189
416	0.188
417	0.188
417	0.188
418	0.187
418	0.187
419	0.188
419	0.188
420	0.189
420	0.189
421	0.19
421	0.19
421	0.19
422	0.19
422	0.19
423	0.19
423	0.19
424	0.189
424	0.188
425	0.187
425	0.186
426	0.186
426	0.185
427	0.185
427	0.185
427	0.185
428	0.186
428	0.186
429	0.187
429	0.187
430	0.187
430	0.187
431	0.187
431	0.187
432	0.186
432	0.186
432	0.184
433	0.183
433	0.182
434	0.181
434	0.181
435	0.181
435	0.181
436	0.18
436	0.18
437	0.18
437	0.18
437	0.181
438	0.18
438	0.18
439	0.18
439	0.179
440	0.179
440	0.178
441	0.178
441	0.178
442	0.179
442	0.179
442	0.179
443	0.179
443	0.18
444	0.18
444	0.18
445	0.18
445	0.181
446	0.181
446	0.181
447	0.18
447	0.18
447	0.18
448	0.18
448	0.179
449	0.179
449	0.179
450	0.179
450	0.178
451	0.178
451	0.177
452	0.176
452	0.176
452	0.175
453	0.175
453	0.174
454	0.174
454	0.173
455	0.172
455	0.172
456	0.172
456	0.172
457	0.171
457	0.171
458	0.171
458	0.171
458	0.172
459	0.172
459	0.172
460	0.171
460	0.171
461	0.17
461	0.17
462	0.17
462	0.17
463	0.17
463	0.171
463	0.171
464	0.172
464	0.172
465	0.173
465	0.173
466	0.173
466	0.173
467	0.173
467	0.173
467	0.172
468	0.17
468	0.168
469	0.166
469	0.164
470	0.163
470	0.163
471	0.162
471	0.162
472	0.162
472	0.162
472	0.163
473	0.164
473	0.166
474	0.167
474	0.168
475	0.169
475	0.17
476	0.171
476	0.171
477	0.172
477	0.172
477	0.173
478	0.173
478	0.173
479	0.173
479	0.174
480	0.175
480	0.176
481	0.177
481	0.177
482	0.178
482	0.18
482	0.181
483	0.183
483	0.186
484	0.19
484	0.194
485	0.196
485	0.197
486	0.199
486	0.199
487	0.2
487	0.2
487	0.2
488	0.2
488	0.198
489	0.195
489	0.193
490	0.192
490	0.191
491	0.19
491	0.191
492	0.191
492	0.192
492	0.193
493	0.194
493	0.195
494	0.197
494	0.199
495	0.202
495	0.204
496	0.205
496	0.206
496	0.207
497	0.208
497	0.209
498	0.21
498	0.211
499	0.211
499	0.212
500	0.212
500	0.214
501	0.216
501	0.217
501	0.219
502	0.221
502	0.223
503	0.225
503	0.226
504	0.228
504	0.228
505	0.229
505	0.23
506	0.231
506	0.231
506	0.231
507	0.232
507	0.232
508	0.232
508	0.233
509	0.234
509	0.235
510	0.235
510	0.235
511	0.235
511	0.236
511	0.237
512	0.237
512	0.237
513	0.236
513	0.234
514	0.233
514	0.232
515	0.232
515	0.232
515	0.232
516	0.231
516	0.231
517	0.23
517	0.23
518	0.229
518	0.227
519	0.225
519	0.222
520	0.219
520	0.216
520	0.212
521	0.21
521	0.208
522	0.207
522	0.207
523	0.208
523	0.21
524	0.213
524	0.217
524	0.221
525	0.225
525	0.228
526	0.231
526	0.233
527	0.236
527	0.238
528	0.239
528	0.24
529	0.24
529	0.24
529	0.24
530	0.239
530	0.239
531	0.239
531	0.239
532	0.238
532	0.238
533	0.238
533	0.238
533	0.237
534	0.237
534	0.236
535	0.235
535	0.234
536	0.233
536	0.232
537	0.231
537	0.23
538	0.229
538	0.228
538	0.226
539	0.225
539	0.224
540	0.223
540	0.222
541	0.22
541	0.218
542	0.216
542	0.214
542	0.212
543	0.211
543	0.209
544	0.207
544	0.206
545	0.204
545	0.204
546	0.204
546	0.203
547	0.201
547	0.199
547	0.196
548	0.193
548	0.19
549	0.188
549	0.186
550	0.183
550	0.181
551	0.178
551	0.175
551	0.173
552	0.171
552	0.169
553	0.168
553	0.167
554	0.166
554	0.165
555	0.162
555	0.159
556	0.155
556	0.152
556	0.148
557	0.145
557	0.142
558	0.139
558	0.137
559	0.135
559	0.133
560	0.132
560	0.131
560	0.131
561	0.131
561	0.131
562	0.131
562	0.129
563	0.128
563	0.125
564	0.122
564	0.119
564	0.116
565	0.113
565	0.111
566	0.109
566	0.107
567	0.107
567	0.107
568	0.108
568	0.109
568	0.111
569	0.113
569	0.115
570	0.116
570	0.116
571	0.117
571	0.118
572	0.118
572	0.118
573	0.118
573	0.117
573	0.116
574	0.115
574	0.114
575	0.114
575	0.114
576	0.115
576	0.115
577	0.114
577	0.112
577	0.111
578	0.11
578	0.11
579	0.11
579	0.111
580	0.11
580	0.108
581	0.105
581	0.103
581	0.102
582	0.101
582	0.1
583	0.101
583	0.1
584	0.098
584	0.094
585	0.092
585	0.091
585	0.091
586	0.09
586	0.09
587	0.088
587	0.086
588	0.082
588	0.08
589	0.077
589	0.075
590	0.074
590	0.072
590	0.072
591	0.072
591	0.072
592	0.071
592	0.07
593	0.07
593	0.07
594	0.07
594	0.069
594	0.069
595	0.068
595	0.067
596	0.066
596	0.066
597	0.068
597	0.069
598	0.07
598	0.072
598	0.072
599	0.073
599	0.073
600	0.072
600	0.071
601	0.07
601	0.069
602	0.067
602	0.065
602	0.063
603	0.062
603	0.062
604	0.062
604	0.063
605	0.064
605	0.066
606	0.066
606	0.066
606	0.066
607	0.065
607	0.065
608	0.065
608	0.063
609	0.062
609	0.061
610	0.06
610	0.058
610	0.057
611	0.057
611	0.058
612	0.059
612	0.06
613	0.062
613	0.063
614	0.064
614	0.064
614	0.064
615	0.064
615	0.063
616	0.063
616	0.063
617	0.062
617	0.061
618	0.059
618	0.058
618	0.057
619	0.057
619	0.057
620	0.058
620	0.059
621	0.059
621	0.059
622	0.06
622	0.061
622	0.061
623	0.061
623	0.062
624	0.063
624	0.063
625	0.063
625	0.063
626	0.063
626	0.063
626	0.064
627	0.064
627	0.065
628	0.065
628	0.066
629	0.066
629	0.066
630	0.066
630	0.066
630	0.066
631	0.066
631	0.066
632	0.066
632	0.066
633	0.067
633	0.068
634	0.07
634	0.071
634	0.074
635	0.076
635	0.077
636	0.079
636	0.08
637	0.082
637	0.083
638	0.084
638	0.085
638	0.086
639	0.086
639	0.087
640	0.088
640	0.089
641	0.091
641	0.093
642	0.096
642	0.098
642	0.101
643	0.104
643	0.106
644	0.109
644	0.112
645	0.114
645	0.117
646	0.119
646	0.122
646	0.125
647	0.129
647	0.133
648	0.136
648	0.138
649	0.141
649	0.145
650	0.148
650	0.152
650	0.155
651	0.157
651	0.16
652	0.162
652	0.164
653	0.168
653	0.176
653	0.194
654	0.157
654	0.129
655	0.136
655	0.139
656	0.141
656	0.143
657	0.146
657	0.148
657	0.15
658	0.148
658	0.136
659	0.17
659	0.217
660	0.218
660	0.22
661	0.222
661	0.223
661	0.226
662	0.229
662	0.232
663	0.236
663	0.239
664	0.243
664	0.246
665	0.249
665	0.252
665	0.255
666	0.258
666	0.261
667	0.264
667	0.267
668	0.27
668	0.272
669	0.276
669	0.279
669	0.283
670	0.288
670	0.292
671	0.295
671	0.298
672	0.3
672	0.302
672	0.304
673	0.306
673	0.308
674	0.309
674	0.31
675	0.31
675	0.311
676	0.312
676	0.314
676	0.316
677	0.318
677	0.32
678	0.322
678	0.323
679	0.324
679	0.326
680	0.328
680	0.329
680	0.33
681	0.33
681	0.331
682	0.332
682	0.333
683	0.334
683	0.337
684	0.339
684	0.34
684	0.34
685	0.341
685	0.341
686	0.342
686	0.342
687	0.342
687	0.341
687	0.34
688	0.339
688	0.337
689	0.337
689	0.338
690	0.339
690	0.339
691	0.339
691	0.34
691	0.34
692	0.34
692	0.339
693	0.339
693	0.339
694	0.339
694	0.337
695	0.336
695	0.337
695	0.337
696	0.336
696	0.335
697	0.334
697	0.333
698	0.331
698	0.329
698	0.327
699	0.325
699	0.322
700	0.318
700	0.315
701	0.313
701	0.311
702	0.309
702	0.307
702	0.305
703	0.303
703	0.302
704	0.3
704	0.299
705	0.298
705	0.297
705	0.295
706	0.294
706	0.293
707	0.291
707	0.289
708	0.288
708	0.286
709	0.285
709	0.283
709	0.28
710	0.276
710	0.273
711	0.27
711	0.267
712	0.264
712	0.261
713	0.259
713	0.257
713	0.255
714	0.252
714	0.249
715	0.247
715	0.244
716	0.242
716	0.239
716	0.237
717	0.234
717	0.232
718	0.229
718	0.225
719	0.223
719	0.22
720	0.218
720	0.215
720	0.212
721	0.208
721	0.204
722	0.2
722	0.196
723	0.193
723	0.19
723	0.188
724	0.185
724	0.183
725	0.18
725	0.177
726	0.175
726	0.173
727	0.171
727	0.169
727	0.167
728	0.165
728	0.162
729	0.161
729	0.16
730	0.158
730	0.156
730	0.153
731	0.151
731	0.149
732	0.148
732	0.146
733	0.143
733	0.141
734	0.138
734	0.134
734	0.131
735	0.128
735	0.125
736	0.122
736	0.119
737	0.115
737	0.113
737	0.111
738	0.108
738	0.104
739	0.101
739	0.099
740	0.096
740	0.094
741	0.092
741	0.089
741	0.086
742	0.081
742	0.077
743	0.073
743	0.07
744	0.067
744	0.064
744	0.062
745	0.059
745	0.056
746	0.054
746	0.052
747	0.051
747	0.05
748	0.049
748	0.049
748	0.048
749	0.047
749	0.046
750	0.045
750	0.044
751	0.043
751	0.043
751	0.043
752	0.042
752	0.041
753	0.04
753	0.039
754	0.039
754	0.038
754	0.038
755	0.038
755	0.038
756	0.038
756	0.035
757	0.034
757	0.032
758	0.031
758	0.029
758	0.028
759	0.027
759	0.024
760	0.02
760	0.017
761	0.014
761	0.012
761	0.011
762	0.009
762	0.008
763	0.007
763	0.005
764	0.002
764	0
764	-0.002
765	-0.004
765	-0.006
766	-0.008
766	-0.009
767	-0.01
767	-0.012
768	-0.015
768	-0.018
768	-0.019
769	-0.02
769	-0.021
770	-0.022
770	-0.023
771	-0.025
771	-0.028
771	-0.03
772	-0.032
772	-0.034
773	-0.035
773	-0.038
774	-0.041
774	-0.045
775	-0.048
775	-0.051
775	-0.055
776	-0.058
776	-0.062
777	-0.065
777	-0.068
778	-0.072
778	-0.076
778	-0.08
779	-0.083
779	-0.085
780	-0.089
780	-0.094
781	-0.099
781	-0.104
781	-0.109
782	-0.114
782	-0.12
783	-0.126
783	-0.129
784	-0.133
784	-0.136
784	-0.138
785	-0.141
785	-0.143
786	-0.144
786	-0.142
787	-0.137
787	-0.134
788	-0.133
788	-0.134
788	-0.136
789	-0.138
789	-0.138
790	-0.136
790	-0.134
791	-0.135
791	-0.137
791	-0.139
792	-0.134
792	-0.123
793	-0.116
793	-0.111
794	-0.109
794	-0.11
794	-0.113
795	-0.115
795	-0.115
796	-0.115
796	-0.117
797	-0.126
797	-0.137
797	-0.144
798	-0.15
798	-0.154
799	-0.155
799	-0.155
800	-0.155
800	-0.157
801	-0.16
801	-0.161
801	-0.161
802	-0.162
802	-0.163
803	-0.163
803	-0.163
804	-0.162
804	-0.156
804	-0.149
805	-0.145
805	-0.142
806	-0.14
806	-0.139
807	-0.137
807	-0.136
807	-0.136
808	-0.136
808	-0.136
809	-0.14
809	-0.145
810	-0.148
810	-0.151
810	-0.154
811	-0.156
811	-0.157
812	-0.153
812	-0.15
813	-0.151
813	-0.152
813	-0.154
814	-0.155
814	-0.156
815	-0.154
815	-0.152
816	-0.151
816	-0.152
817	-0.157
817	-0.161
817	-0.162
818	-0.161
818	-0.158
819	-0.153
819	-0.15
820	-0.151
820	-0.153
820	-0.154
821	-0.154
821	-0.153
822	-0.152
822	-0.15
823	-0.148
823	-0.148
823	-0.149
824	-0.148
824	-0.143
825	-0.137
825	-0.129
826	-0.121
826	-0.115
826	-0.108
827	-0.101
827	-0.095
828	-0.09
828	-0.086
829	-0.081
829	-0.076
829	-0.072
830	-0.07
830	-0.066
831	-0.062
831	-0.058
832	-0.054
832	-0.051
832	-0.048
833	-0.046
833	-0.044
834	-0.042
834	-0.041
835	-0.041
835	-0.04
835	-0.041
836	-0.041
836	-0.041
837	-0.041
837	-0.04
838	-0.04
838	-0.039
839	-0.039
839	-0.038
839	-0.038
840	-0.037
840	-0.036
841	-0.036
841	-0.035
842	-0.034
842	-0.033
842	-0.032
843	-0.032
843	-0.031
844	-0.029
844	-0.028
845	-0.027
845	-0.026
845	-0.024
846	-0.023
846	-0.022
847	-0.021
847	-0.02
848	-0.018
848	-0.017
848	-0.016
849	-0.014
849	-0.013
850	-0.012
850	-0.012
851	-0.011
851	-0.011
851	-0.011
852	-0.011
852	-0.011
853	-0.011
853	-0.012
854	-0.012
854	-0.013
854	-0.013
855	-0.013
855	-0.013
856	-0.013
856	-0.012
857	-0.012
857	-0.011
857	-0.01
858	-0.01
858	-0.009
859	-0.009
859	-0.008
860	-0.007
860	-0.007
860	-0.006
861	-0.005
861	-0.005
862	-0.005
862	-0.005
863	-0.005
863	-0.004
863	-0.004
864	-0.003
864	-0.003
865	-0.003
865	-0.002
866	-0.003
866	-0.002
866	-0.002
867	-0.002
867	-0.001
868	-0.001
868	-0.001
869	-0.001
869	-0.002
869	-0.002
870	-0.002
870	-0.002
871	-0.002
871	-0.003
872	-0.003
872	-0.004
872	-0.004
873	-0.005
873	-0.005
874	-0.006
874	-0.007
875	-0.007
875	-0.008
875	-0.009
876	-0.009
876	-0.01
877	-0.01
877	-0.01
878	-0.01
878	-0.009
878	-0.008
879	-0.008
879	-0.007
880	-0.006
880	-0.004
881	-0.003
881	-0.002
881	-0.001
882	0.001
882	0.001
883	0.002
883	0.004
884	0.005
884	0.006
884	0.006
885	0.007
885	0.008
886	0.008
886	0.008
887	0.009
887	0.009
887	0.009
888	0.009
888	0.009
889	0.009
889	0.009
890	0.01
890	0.01
890	0.011
891	0.012
891	0.012
892	0.013
892	0.013
893	0.014
893	0.015
893	0.015
894	0.016
894	0.016
895	0.016
895	0.016
895	0.016
896	0.016
896	0.015
897	0.015
897	0.014
898	0.013
898	0.013
898	0.012
899	0.012
899	0.011
900	0.01
900	0.01
901	0.009
901	0.009
901	0.008
902	0.008
902	0.007
903	0.007
903	0.007
904	0.007
904	0.007
904	0.007
905	0.007
905	0.008
906	0.008
906	0.008
907	0.008
907	0.008
907	0.008
908	0.007
908	0.006
909	0.006
909	0.004
910	0.003
910	0.002
910	0.001
911	0.001
911	0
912	0
912	0.001
913	0.001
913	0.002
913	0.003
914	0.004
914	0.005
915	0.006
915	0.007
916	0.008
916	0.008
916	0.009
917	0.01
917	0.01
918	0.01
918	0.01
918	0.01
919	0.01
919	0.009
920	0.009
920	0.009
921	0.009
921	0.009
921	0.009
922	0.009
922	0.009
923	0.008
923	0.008
924	0.008
924	0.008
924	0.007
925	0.007
925	0.007
926	0.007
926	0.007
927	0.006
927	0.006
927	0.006
928	0.006
928	0.007
929	0.007
929	0.007
930	0.008
930	0.008
930	0.008
931	0.009
931	0.009
932	0.01
932	0.011
933	0.011
933	0.012
933	0.012
934	0.012
934	0.012
935	0.012
935	0.012
935	0.012
936	0.012
936	0.012
937	0.012
937	0.012
938	0.012
938	0.011
938	0.012
939	0.012
939	0.012
940	0.013
940	0.014
941	0.015
941	0.016
941	0.017
942	0.018
942	0.019
943	0.021
943	0.022
944	0.023
944	0.024
944	0.025
945	0.026
945	0.027
946	0.028
946	0.029
946	0.029
947	0.03
947	0.029
948	0.029
948	0.028
949	0.027
949	0.026
949	0.025
950	0.024
950	0.023
951	0.022
951	0.021
952	0.02
952	0.02
952	0.02
953	0.019
953	0.019
954	0.019
954	0.019
955	0.019
955	0.019
955	0.02
956	0.02
956	0.021
957	0.021
957	0.022
957	0.022
958	0.022
958	0.023
959	0.023
959	0.023
960	0.023
960	0.023
960	0.023
961	0.022
961	0.022
962	0.021
962	0.021
963	0.02
963	0.02
963	0.019
964	0.018
964	0.018
965	0.018
965	0.017
966	0.017
966	0.016
966	0.016
967	0.016
967	0.015
968	0.015
968	0.015
968	0.014
969	0.014
969	0.014
970	0.014
970	0.014
971	0.013
971	0.014
971	0.014
972	0.014
972	0.015
973	0.016
973	0.016
974	0.016
974	0.017
974	0.017
975	0.017
975	0.016
976	0.016
976	0.015
976	0.014
977	0.013
977	0.012
978	0.011
978	0.01
979	0.009
979	0.009
979	0.008
980	0.008
980	0.007
981	0.006
981	0.006
982	0.006
982	0.006
982	0.006
983	0.006
983	0.006
984	0.006
984	0.006
984	0.006
985	0.007
985	0.007
986	0.007
986	0.007
987	0.007
987	0.007
987	0.007
988	0.008
988	0.008
989	0.008
989	0.008
990	0.009
990	0.009
990	0.01
991	0.01
991	0.01
992	0.011
992	0.011
992	0.011
993	0.011
993	0.011
994	0.011
994	0.011
995	0.011
995	0.011
995	0.01
996	0.01
996	0.009
997	0.008
997	0.008
997	0.008
998	0.007
998	0.007
999	0.006
999	0.006
1000	0.006
1000	0.006
1000	0.006
1001	0.006
1001	0.006
1002	0.006
1002	0.006
1003	0.006
1003	0.005
1003	0.005
1004	0.005
1004	0.005
1005	0.004
1005	0.004
1005	0.004
1006	0.003
1006	0.003
1007	0.003
1007	0.003
1008	0.004
1008	0.004
1008	0.005
1009	0.006
1009	0.007
1010	0.007
1010	0.009
1010	0.01
1011	0.01
1011	0.011
1012	0.012
1012	0.012
1013	0.013
1013	0.013
1013	0.012
1014	0.012
1014	0.011
1015	0.011
1015	0.01
1016	0.01
1016	0.009
1016	0.009
1017	0.008
1017	0.008
1018	0.009
1018	0.009
1018	0.009
1019	0.01
1019	0.01
1020	0.011
1020	0.011
1021	0.011
1021	0.011
1021	0.012
1022	0.012
1022	0.012
1023	0.012
1023	0.011
1023	0.011
1024	0.011
1024	0.011
1025	0.01
1025	0.011
1026	0.011
1026	0.011
1026	0.011
1027	0.011
1027	0.011
1028	0.011
1028	0.011
1028	0.011
1029	0.011
1029	0.011
1030	0.011
1030	0.01
1031	0.01
1031	0.01
1031	0.009
1032	0.009
1032	0.008
1033	0.008
1033	0.008
1033	0.007
1034	0.006
1034	0.006
1035	0.005
1035	0.005
1036	0.005
1036	0.005
1036	0.005
1037	0.006
1037	0.006
1038	0.006
1038	0.007
1039	0.007
1039	0.008
1039	0.009
1040	0.01
1040	0.011
1041	0.012
1041	0.013
1041	0.014
1042	0.015
1042	0.016
1043	0.017
1043	0.019
1044	0.02
1044	0.022
1044	0.023
1045	0.024
1045	0.026
1046	0.027
1046	0.029
1046	0.031
1047	0.033
1047	0.035
1048	0.036
1048	0.038
1049	0.038
1049	0.039
1049	0.039
1050	0.04
1050	0.04
1051	0.04
1051	0.039
1051	0.039
1052	0.039
1052	0.038
1053	0.037
1053	0.037
1053	0.036
1054	0.036
1054	0.035
1055	0.035
1055	0.034
1056	0.033
1056	0.032
1056	0.03
1057	0.029
1057	0.028
1058	0.028
1058	0.027
1058	0.027
1059	0.026
1059	0.026
1060	0.026
1060	0.027
1061	0.027
1061	0.028
1061	0.029
1062	0.03
1062	0.031
1063	0.032
1063	0.032
1063	0.034
1064	0.035
1064	0.037
1065	0.039
1065	0.041
1066	0.043
1066	0.045
1066	0.048
1067	0.05
1067	0.052
1068	0.054
1068	0.056
1068	0.057
1069	0.058
1069	0.059
1070	0.06
1070	0.06
1071	0.061
1071	0.062
1071	0.062
1072	0.064
1072	0.065
1073	0.067
1073	0.068
1073	0.069
1074	0.07
1074	0.071
1075	0.071
1075	0.071
1076	0.072
1076	0.072
1076	0.073
1077	0.073
1077	0.074
1078	0.075
1078	0.076
1078	0.079
1079	0.081
1079	0.084
1080	0.086
1080	0.09
1080	0.093
1081	0.096
1081	0.099
1082	0.102
1082	0.104
1083	0.108
1083	0.111
1083	0.115
1084	0.119
1084	0.123
1085	0.127
1085	0.131
1085	0.134
1086	0.138
1086	0.141
1087	0.146
1087	0.15
1088	0.153
1088	0.157
1088	0.162
1089	0.166
1089	0.172
1090	0.177
1090	0.185
1090	0.192
1091	0.2
1091	0.21
1092	0.22
1092	0.231
1092	0.241
1093	0.252
1093	0.266
1094	0.279
1094	0.294
1095	0.308
1095	0.325
1095	0.344
1096	0.364
1096	0.386
1097	0.412
1097	0.438
1097	0.468
1098	0.502
1098	0.54
1099	0.584
1099	0.637
1100	0.702
1100	0.781
1100	0.881
1101	1.024
1101	1.267
1102	2.073
1102	-0
1102	-0
1103	-0
1103	-0
1104	-0
1104	-0
1104	-0
1105	-0
1105	-0
1106	-0
1106	-0
1107	-0
1107	-0
1107	-0
1108	-0
1108	-0
1109	-0
1109	-0
1109	-0
1110	-0
1110	-0
1111	-0
1111	-0
