Data from 15c-2-4a_Absorbance__825__00825.txt Node

Date: Thu Jan 25 10:31:40 CET 2024
User: Marek
Spectrometer: MAYP115816
Trigger mode: 0
Integration Time (sec): 2.000000E-1
Scans to average: 10
Electric dark correction enabled: true
Nonlinearity correction enabled: true
Boxcar width: 5
XAxis mode: Wavelengths
Number of Pixels in Spectrum: 2068
>>>>>Begin Spectral Data<<<<<
199	-2.132
199	-1.962
200	-1.809
200	-1.686
201	-1.608
201	-1.551
202	-1.469
202	-1.407
203	-1.355
203	-1.309
204	-1.282
204	-1.254
205	-1.233
205	-1.222
205	-1.216
206	-1.211
206	-1.208
207	-1.208
207	-1.204
208	-1.199
208	-1.196
209	-1.191
209	-1.188
210	-1.186
210	-1.183
211	-1.182
211	-1.181
212	-1.177
212	-1.175
213	-1.172
213	-1.173
213	-1.173
214	-1.172
214	-1.171
215	-1.169
215	-1.168
216	-1.165
216	-1.164
217	-1.162
217	-1.159
218	-1.158
218	-1.155
219	-1.153
219	-1.15
220	-1.15
220	-1.145
221	-1.143
221	-1.14
221	-1.137
222	-1.134
222	-1.133
223	-1.128
223	-1.122
224	-1.116
224	-1.107
225	-1.098
225	-1.09
226	-1.079
226	-1.067
227	-1.052
227	-1.039
228	-1.019
228	-1
229	-0.979
229	-0.955
229	-0.929
230	-0.899
230	-0.869
231	-0.834
231	-0.795
232	-0.755
232	-0.711
233	-0.667
233	-0.619
234	-0.573
234	-0.524
235	-0.477
235	-0.43
236	-0.383
236	-0.339
236	-0.297
237	-0.255
237	-0.217
238	-0.18
238	-0.146
239	-0.114
239	-0.084
240	-0.056
240	-0.031
241	-0.007
241	0.015
242	0.035
242	0.053
243	0.071
243	0.086
243	0.101
244	0.114
244	0.126
245	0.137
245	0.148
246	0.157
246	0.166
247	0.175
247	0.182
248	0.189
248	0.196
249	0.202
249	0.208
250	0.214
250	0.219
250	0.225
251	0.229
251	0.234
252	0.238
252	0.242
253	0.246
253	0.25
254	0.253
254	0.256
255	0.259
255	0.262
256	0.264
256	0.266
257	0.268
257	0.27
258	0.272
258	0.274
258	0.275
259	0.276
259	0.277
260	0.279
260	0.279
261	0.28
261	0.281
262	0.282
262	0.282
263	0.282
263	0.283
264	0.283
264	0.283
265	0.284
265	0.283
265	0.283
266	0.283
266	0.282
267	0.282
267	0.281
268	0.281
268	0.28
269	0.279
269	0.278
270	0.277
270	0.276
271	0.275
271	0.274
272	0.273
272	0.272
272	0.271
273	0.269
273	0.268
274	0.267
274	0.265
275	0.264
275	0.263
276	0.261
276	0.26
277	0.258
277	0.256
278	0.254
278	0.252
278	0.25
279	0.249
279	0.247
280	0.246
280	0.245
281	0.244
281	0.243
282	0.242
282	0.242
283	0.241
283	0.24
284	0.24
284	0.239
285	0.237
285	0.236
285	0.235
286	0.234
286	0.233
287	0.231
287	0.23
288	0.229
288	0.228
289	0.227
289	0.226
290	0.225
290	0.225
291	0.224
291	0.223
292	0.222
292	0.222
292	0.221
293	0.22
293	0.219
294	0.219
294	0.218
295	0.218
295	0.217
296	0.217
296	0.216
297	0.216
297	0.215
298	0.215
298	0.214
298	0.214
299	0.213
299	0.213
300	0.212
300	0.212
301	0.211
301	0.211
302	0.21
302	0.21
303	0.209
303	0.209
304	0.209
304	0.208
305	0.208
305	0.207
305	0.207
306	0.206
306	0.206
307	0.205
307	0.205
308	0.204
308	0.204
309	0.203
309	0.203
310	0.202
310	0.202
311	0.201
311	0.201
311	0.2
312	0.2
312	0.199
313	0.199
313	0.198
314	0.198
314	0.197
315	0.197
315	0.196
316	0.195
316	0.195
317	0.194
317	0.194
318	0.193
318	0.192
318	0.192
319	0.191
319	0.191
320	0.19
320	0.19
321	0.189
321	0.188
322	0.188
322	0.187
323	0.187
323	0.186
324	0.185
324	0.185
324	0.184
325	0.183
325	0.183
326	0.182
326	0.182
327	0.181
327	0.181
328	0.18
328	0.18
329	0.179
329	0.179
330	0.178
330	0.178
330	0.177
331	0.177
331	0.176
332	0.175
332	0.175
333	0.174
333	0.174
334	0.173
334	0.172
335	0.172
335	0.171
336	0.171
336	0.171
336	0.17
337	0.17
337	0.169
338	0.169
338	0.168
339	0.168
339	0.167
340	0.167
340	0.167
341	0.166
341	0.165
342	0.165
342	0.164
342	0.164
343	0.163
343	0.163
344	0.162
344	0.162
345	0.161
345	0.161
346	0.16
346	0.16
347	0.159
347	0.159
348	0.158
348	0.158
348	0.157
349	0.157
349	0.156
350	0.156
350	0.156
351	0.155
351	0.154
352	0.154
352	0.153
353	0.153
353	0.152
354	0.151
354	0.15
354	0.149
355	0.148
355	0.147
356	0.147
356	0.146
357	0.145
357	0.145
358	0.145
358	0.146
359	0.146
359	0.147
360	0.148
360	0.148
360	0.149
361	0.149
361	0.15
362	0.15
362	0.15
363	0.15
363	0.15
364	0.149
364	0.149
365	0.149
365	0.149
366	0.148
366	0.148
366	0.148
367	0.148
367	0.147
368	0.147
368	0.147
369	0.147
369	0.146
370	0.146
370	0.146
371	0.145
371	0.145
372	0.145
372	0.144
372	0.144
373	0.144
373	0.144
374	0.144
374	0.144
375	0.143
375	0.143
376	0.143
376	0.143
377	0.143
377	0.144
378	0.144
378	0.144
378	0.144
379	0.144
379	0.144
380	0.145
380	0.145
381	0.145
381	0.145
382	0.144
382	0.144
383	0.144
383	0.143
383	0.143
384	0.142
384	0.142
385	0.141
385	0.141
386	0.141
386	0.141
387	0.141
387	0.141
388	0.141
388	0.141
389	0.141
389	0.141
389	0.141
390	0.141
390	0.142
391	0.142
391	0.142
392	0.142
392	0.142
393	0.142
393	0.142
394	0.142
394	0.142
394	0.142
395	0.141
395	0.141
396	0.141
396	0.141
397	0.141
397	0.141
398	0.141
398	0.141
399	0.141
399	0.141
400	0.141
400	0.14
400	0.14
401	0.14
401	0.139
402	0.138
402	0.137
403	0.137
403	0.137
404	0.137
404	0.137
405	0.137
405	0.137
405	0.136
406	0.136
406	0.136
407	0.136
407	0.136
408	0.135
408	0.135
409	0.134
409	0.134
410	0.134
410	0.134
411	0.134
411	0.134
411	0.134
412	0.133
412	0.133
413	0.133
413	0.133
414	0.133
414	0.133
415	0.133
415	0.132
416	0.132
416	0.132
416	0.131
417	0.131
417	0.131
418	0.131
418	0.131
419	0.131
419	0.132
420	0.132
420	0.133
421	0.133
421	0.133
421	0.133
422	0.133
422	0.133
423	0.133
423	0.133
424	0.133
424	0.132
425	0.131
425	0.131
426	0.13
426	0.13
427	0.13
427	0.13
427	0.13
428	0.131
428	0.131
429	0.132
429	0.132
430	0.132
430	0.132
431	0.132
431	0.131
432	0.131
432	0.131
432	0.13
433	0.129
433	0.128
434	0.127
434	0.127
435	0.127
435	0.127
436	0.127
436	0.127
437	0.127
437	0.127
437	0.127
438	0.127
438	0.127
439	0.127
439	0.127
440	0.127
440	0.127
441	0.127
441	0.127
442	0.127
442	0.127
442	0.128
443	0.128
443	0.128
444	0.128
444	0.128
445	0.129
445	0.129
446	0.129
446	0.129
447	0.128
447	0.128
447	0.128
448	0.128
448	0.128
449	0.128
449	0.128
450	0.127
450	0.127
451	0.127
451	0.127
452	0.126
452	0.126
452	0.125
453	0.125
453	0.125
454	0.124
454	0.123
455	0.123
455	0.123
456	0.123
456	0.123
457	0.122
457	0.122
458	0.122
458	0.122
458	0.123
459	0.123
459	0.123
460	0.122
460	0.122
461	0.121
461	0.121
462	0.121
462	0.121
463	0.121
463	0.122
463	0.122
464	0.123
464	0.123
465	0.123
465	0.123
466	0.123
466	0.123
467	0.123
467	0.123
467	0.122
468	0.12
468	0.118
469	0.117
469	0.115
470	0.115
470	0.114
471	0.114
471	0.113
472	0.113
472	0.113
472	0.114
473	0.115
473	0.116
474	0.117
474	0.118
475	0.119
475	0.119
476	0.12
476	0.12
477	0.121
477	0.121
477	0.122
478	0.122
478	0.123
479	0.123
479	0.124
480	0.124
480	0.125
481	0.126
481	0.127
482	0.128
482	0.129
482	0.13
483	0.132
483	0.134
484	0.137
484	0.139
485	0.141
485	0.142
486	0.143
486	0.144
487	0.145
487	0.145
487	0.145
488	0.144
488	0.143
489	0.141
489	0.14
490	0.138
490	0.138
491	0.137
491	0.138
492	0.138
492	0.139
492	0.139
493	0.14
493	0.14
494	0.142
494	0.144
495	0.145
495	0.147
496	0.148
496	0.149
496	0.149
497	0.15
497	0.151
498	0.151
498	0.152
499	0.152
499	0.152
500	0.152
500	0.153
501	0.154
501	0.156
501	0.157
502	0.158
502	0.159
503	0.161
503	0.162
504	0.163
504	0.164
505	0.164
505	0.165
506	0.165
506	0.166
506	0.166
507	0.166
507	0.166
508	0.166
508	0.167
509	0.168
509	0.168
510	0.169
510	0.169
511	0.169
511	0.169
511	0.169
512	0.17
512	0.17
513	0.17
513	0.169
514	0.168
514	0.167
515	0.167
515	0.166
515	0.166
516	0.166
516	0.166
517	0.166
517	0.166
518	0.166
518	0.166
519	0.165
519	0.163
520	0.161
520	0.159
520	0.157
521	0.154
521	0.152
522	0.15
522	0.148
523	0.147
523	0.148
524	0.149
524	0.151
524	0.154
525	0.156
525	0.159
526	0.162
526	0.164
527	0.166
527	0.169
528	0.171
528	0.172
529	0.173
529	0.173
529	0.174
530	0.174
530	0.174
531	0.174
531	0.174
532	0.174
532	0.173
533	0.173
533	0.173
533	0.173
534	0.173
534	0.172
535	0.171
535	0.171
536	0.17
536	0.17
537	0.169
537	0.169
538	0.168
538	0.167
538	0.165
539	0.165
539	0.164
540	0.163
540	0.162
541	0.161
541	0.159
542	0.158
542	0.156
542	0.155
543	0.154
543	0.153
544	0.152
544	0.151
545	0.15
545	0.15
546	0.15
546	0.149
547	0.148
547	0.146
547	0.144
548	0.143
548	0.141
549	0.139
549	0.137
550	0.136
550	0.134
551	0.132
551	0.129
551	0.128
552	0.126
552	0.126
553	0.125
553	0.125
554	0.124
554	0.123
555	0.122
555	0.12
556	0.117
556	0.114
556	0.112
557	0.109
557	0.107
558	0.105
558	0.103
559	0.102
559	0.101
560	0.101
560	0.1
560	0.1
561	0.1
561	0.1
562	0.1
562	0.1
563	0.098
563	0.096
564	0.094
564	0.092
564	0.09
565	0.088
565	0.087
566	0.085
566	0.084
567	0.084
567	0.084
568	0.085
568	0.086
568	0.087
569	0.089
569	0.091
570	0.092
570	0.092
571	0.093
571	0.094
572	0.094
572	0.094
573	0.094
573	0.094
573	0.093
574	0.093
574	0.092
575	0.092
575	0.093
576	0.094
576	0.094
577	0.093
577	0.092
577	0.092
578	0.091
578	0.09
579	0.091
579	0.092
580	0.092
580	0.09
581	0.088
581	0.086
581	0.085
582	0.085
582	0.085
583	0.085
583	0.086
584	0.084
584	0.081
585	0.08
585	0.079
585	0.079
586	0.079
586	0.078
587	0.077
587	0.075
588	0.072
588	0.069
589	0.067
589	0.066
590	0.064
590	0.063
590	0.062
591	0.062
591	0.062
592	0.062
592	0.061
593	0.061
593	0.061
594	0.061
594	0.061
594	0.06
595	0.06
595	0.059
596	0.058
596	0.058
597	0.06
597	0.061
598	0.062
598	0.063
598	0.063
599	0.064
599	0.063
600	0.063
600	0.062
601	0.061
601	0.06
602	0.058
602	0.057
602	0.055
603	0.054
603	0.054
604	0.054
604	0.055
605	0.056
605	0.057
606	0.057
606	0.057
606	0.057
607	0.056
607	0.056
608	0.055
608	0.054
609	0.053
609	0.052
610	0.051
610	0.05
610	0.05
611	0.05
611	0.051
612	0.052
612	0.053
613	0.055
613	0.056
614	0.057
614	0.057
614	0.058
615	0.058
615	0.057
616	0.057
616	0.056
617	0.056
617	0.054
618	0.053
618	0.051
618	0.05
619	0.05
619	0.05
620	0.051
620	0.052
621	0.052
621	0.052
622	0.052
622	0.053
622	0.053
623	0.053
623	0.053
624	0.054
624	0.054
625	0.053
625	0.053
626	0.053
626	0.053
626	0.053
627	0.054
627	0.054
628	0.054
628	0.055
629	0.055
629	0.055
630	0.055
630	0.054
630	0.054
631	0.054
631	0.054
632	0.054
632	0.054
633	0.055
633	0.055
634	0.056
634	0.058
634	0.06
635	0.061
635	0.062
636	0.064
636	0.065
637	0.066
637	0.067
638	0.068
638	0.069
638	0.07
639	0.07
639	0.07
640	0.071
640	0.072
641	0.073
641	0.074
642	0.076
642	0.077
642	0.079
643	0.08
643	0.082
644	0.084
644	0.086
645	0.088
645	0.09
646	0.092
646	0.094
646	0.097
647	0.1
647	0.103
648	0.105
648	0.108
649	0.11
649	0.112
650	0.114
650	0.117
650	0.119
651	0.121
651	0.122
652	0.124
652	0.125
653	0.127
653	0.133
653	0.145
654	0.118
654	0.098
655	0.103
655	0.106
656	0.107
656	0.109
657	0.111
657	0.113
657	0.114
658	0.112
658	0.104
659	0.129
659	0.163
660	0.164
660	0.166
661	0.167
661	0.169
661	0.171
662	0.173
662	0.176
663	0.178
663	0.181
664	0.183
664	0.185
665	0.187
665	0.19
665	0.192
666	0.194
666	0.196
667	0.198
667	0.2
668	0.202
668	0.204
669	0.206
669	0.208
669	0.211
670	0.214
670	0.217
671	0.219
671	0.221
672	0.223
672	0.224
672	0.226
673	0.227
673	0.228
674	0.229
674	0.23
675	0.23
675	0.23
676	0.232
676	0.233
676	0.234
677	0.236
677	0.237
678	0.239
678	0.24
679	0.241
679	0.242
680	0.243
680	0.244
680	0.244
681	0.245
681	0.245
682	0.246
682	0.247
683	0.249
683	0.251
684	0.253
684	0.254
684	0.254
685	0.254
685	0.255
686	0.256
686	0.256
687	0.255
687	0.255
687	0.254
688	0.254
688	0.252
689	0.252
689	0.253
690	0.254
690	0.253
691	0.253
691	0.253
691	0.253
692	0.253
692	0.252
693	0.252
693	0.252
694	0.252
694	0.251
695	0.251
695	0.253
695	0.253
696	0.253
696	0.253
697	0.252
697	0.252
698	0.251
698	0.249
698	0.248
699	0.246
699	0.244
700	0.241
700	0.238
701	0.237
701	0.236
702	0.234
702	0.233
702	0.231
703	0.229
703	0.228
704	0.226
704	0.225
705	0.224
705	0.224
705	0.222
706	0.221
706	0.221
707	0.22
707	0.218
708	0.217
708	0.216
709	0.215
709	0.214
709	0.211
710	0.208
710	0.206
711	0.204
711	0.202
712	0.2
712	0.199
713	0.198
713	0.197
713	0.195
714	0.193
714	0.191
715	0.19
715	0.188
716	0.186
716	0.184
716	0.183
717	0.181
717	0.178
718	0.176
718	0.173
719	0.172
719	0.17
720	0.168
720	0.166
720	0.164
721	0.161
721	0.158
722	0.155
722	0.152
723	0.15
723	0.148
723	0.146
724	0.144
724	0.142
725	0.14
725	0.138
726	0.137
726	0.135
727	0.134
727	0.132
727	0.131
728	0.129
728	0.127
729	0.126
729	0.125
730	0.124
730	0.122
730	0.121
731	0.119
731	0.117
732	0.116
732	0.114
733	0.113
733	0.111
734	0.108
734	0.106
734	0.103
735	0.101
735	0.099
736	0.097
736	0.094
737	0.092
737	0.09
737	0.088
738	0.086
738	0.083
739	0.081
739	0.079
740	0.077
740	0.075
741	0.074
741	0.072
741	0.069
742	0.066
742	0.063
743	0.061
743	0.059
744	0.057
744	0.055
744	0.053
745	0.052
745	0.05
746	0.048
746	0.047
747	0.046
747	0.045
748	0.045
748	0.044
748	0.044
749	0.042
749	0.041
750	0.041
750	0.04
751	0.039
751	0.039
751	0.039
752	0.038
752	0.037
753	0.036
753	0.035
754	0.035
754	0.035
754	0.035
755	0.035
755	0.035
756	0.035
756	0.034
757	0.032
757	0.031
758	0.031
758	0.029
758	0.028
759	0.027
759	0.024
760	0.021
760	0.018
761	0.016
761	0.015
761	0.014
762	0.012
762	0.011
763	0.011
763	0.009
764	0.007
764	0.006
764	0.004
765	0.002
765	0.001
766	-0.001
766	-0.001
767	-0.002
767	-0.004
768	-0.007
768	-0.009
768	-0.011
769	-0.012
769	-0.012
770	-0.013
770	-0.015
771	-0.016
771	-0.019
771	-0.021
772	-0.023
772	-0.025
773	-0.027
773	-0.03
774	-0.033
774	-0.036
775	-0.039
775	-0.043
775	-0.046
776	-0.05
776	-0.053
777	-0.057
777	-0.06
778	-0.064
778	-0.068
778	-0.072
779	-0.074
779	-0.077
780	-0.08
780	-0.084
781	-0.089
781	-0.094
781	-0.1
782	-0.106
782	-0.113
783	-0.119
783	-0.124
784	-0.128
784	-0.132
784	-0.136
785	-0.14
785	-0.144
786	-0.145
786	-0.143
787	-0.139
787	-0.135
788	-0.134
788	-0.135
788	-0.137
789	-0.14
789	-0.14
790	-0.137
790	-0.136
791	-0.137
791	-0.139
791	-0.141
792	-0.135
792	-0.124
793	-0.117
793	-0.113
794	-0.11
794	-0.111
794	-0.115
795	-0.116
795	-0.116
796	-0.116
796	-0.119
797	-0.127
797	-0.139
797	-0.146
798	-0.151
798	-0.155
799	-0.156
799	-0.156
800	-0.157
800	-0.158
801	-0.161
801	-0.163
801	-0.162
802	-0.163
802	-0.165
803	-0.165
803	-0.165
804	-0.163
804	-0.158
804	-0.151
805	-0.146
805	-0.144
806	-0.141
806	-0.14
807	-0.139
807	-0.138
807	-0.138
808	-0.137
808	-0.138
809	-0.142
809	-0.147
810	-0.15
810	-0.152
810	-0.155
811	-0.158
811	-0.158
812	-0.155
812	-0.152
813	-0.152
813	-0.153
813	-0.155
814	-0.157
814	-0.157
815	-0.156
815	-0.154
816	-0.152
816	-0.153
817	-0.158
817	-0.162
817	-0.163
818	-0.163
818	-0.159
819	-0.154
819	-0.151
820	-0.152
820	-0.154
820	-0.155
821	-0.154
821	-0.151
822	-0.148
822	-0.143
823	-0.139
823	-0.136
823	-0.135
824	-0.131
824	-0.124
825	-0.115
825	-0.105
826	-0.096
826	-0.088
826	-0.082
827	-0.076
827	-0.07
828	-0.065
828	-0.06
829	-0.055
829	-0.051
829	-0.048
830	-0.045
830	-0.043
831	-0.039
831	-0.035
832	-0.032
832	-0.029
832	-0.027
833	-0.025
833	-0.024
834	-0.023
834	-0.022
835	-0.021
835	-0.021
835	-0.022
836	-0.022
836	-0.022
837	-0.022
837	-0.022
838	-0.022
838	-0.022
839	-0.022
839	-0.022
839	-0.022
840	-0.021
840	-0.02
841	-0.019
841	-0.018
842	-0.017
842	-0.016
842	-0.014
843	-0.013
843	-0.011
844	-0.01
844	-0.008
845	-0.008
845	-0.007
845	-0.006
846	-0.005
846	-0.004
847	-0.003
847	-0.003
848	-0.002
848	-0.001
848	-0
849	0.001
849	0.002
850	0.003
850	0.003
851	0.003
851	0.004
851	0.004
852	0.004
852	0.004
853	0.004
853	0.004
854	0.004
854	0.004
854	0.004
855	0.004
855	0.004
856	0.004
856	0.004
857	0.005
857	0.005
857	0.005
858	0.005
858	0.006
859	0.006
859	0.006
860	0.007
860	0.008
860	0.009
861	0.01
861	0.011
862	0.011
862	0.012
863	0.013
863	0.014
863	0.015
864	0.016
864	0.017
865	0.018
865	0.019
866	0.019
866	0.02
866	0.02
867	0.021
867	0.021
868	0.021
868	0.021
869	0.021
869	0.021
869	0.021
870	0.02
870	0.02
871	0.019
871	0.018
872	0.017
872	0.016
872	0.015
873	0.014
873	0.013
874	0.012
874	0.011
875	0.01
875	0.009
875	0.009
876	0.009
876	0.009
877	0.008
877	0.009
878	0.009
878	0.009
878	0.01
879	0.01
879	0.011
880	0.012
880	0.013
881	0.014
881	0.015
881	0.016
882	0.017
882	0.018
883	0.019
883	0.019
884	0.02
884	0.02
884	0.02
885	0.021
885	0.02
886	0.02
886	0.02
887	0.02
887	0.019
887	0.019
888	0.018
888	0.018
889	0.018
889	0.019
890	0.019
890	0.019
890	0.019
891	0.02
891	0.02
892	0.02
892	0.02
893	0.021
893	0.021
893	0.022
894	0.022
894	0.022
895	0.022
895	0.022
895	0.022
896	0.022
896	0.022
897	0.021
897	0.021
898	0.02
898	0.019
898	0.018
899	0.017
899	0.016
900	0.016
900	0.015
901	0.014
901	0.014
901	0.013
902	0.013
902	0.013
903	0.013
903	0.013
904	0.013
904	0.013
904	0.013
905	0.013
905	0.014
906	0.014
906	0.014
907	0.014
907	0.014
907	0.013
908	0.013
908	0.013
909	0.013
909	0.013
910	0.013
910	0.013
910	0.014
911	0.014
911	0.015
912	0.016
912	0.016
913	0.017
913	0.019
913	0.02
914	0.021
914	0.022
915	0.023
915	0.024
916	0.026
916	0.027
916	0.028
917	0.028
917	0.028
918	0.028
918	0.028
918	0.028
919	0.027
919	0.026
920	0.024
920	0.023
921	0.021
921	0.019
921	0.018
922	0.017
922	0.016
923	0.015
923	0.015
924	0.015
924	0.015
924	0.015
925	0.016
925	0.017
926	0.018
926	0.019
927	0.019
927	0.02
927	0.021
928	0.022
928	0.023
929	0.023
929	0.024
930	0.024
930	0.024
930	0.024
931	0.024
931	0.024
932	0.023
932	0.022
933	0.022
933	0.021
933	0.021
934	0.02
934	0.02
935	0.02
935	0.02
935	0.02
936	0.02
936	0.021
937	0.021
937	0.021
938	0.021
938	0.02
938	0.02
939	0.02
939	0.02
940	0.019
940	0.02
941	0.02
941	0.02
941	0.02
942	0.021
942	0.021
943	0.022
943	0.022
944	0.023
944	0.024
944	0.025
945	0.025
945	0.026
946	0.027
946	0.028
946	0.028
947	0.029
947	0.029
948	0.029
948	0.029
949	0.029
949	0.028
949	0.028
950	0.027
950	0.027
951	0.026
951	0.026
952	0.026
952	0.026
952	0.026
953	0.026
953	0.026
954	0.026
954	0.026
955	0.026
955	0.026
955	0.026
956	0.025
956	0.025
957	0.024
957	0.024
957	0.023
958	0.023
958	0.023
959	0.023
959	0.023
960	0.023
960	0.023
960	0.023
961	0.024
961	0.024
962	0.025
962	0.025
963	0.025
963	0.025
963	0.026
964	0.026
964	0.025
965	0.025
965	0.025
966	0.024
966	0.024
966	0.023
967	0.023
967	0.022
968	0.021
968	0.021
968	0.02
969	0.02
969	0.02
970	0.02
970	0.02
971	0.02
971	0.02
971	0.021
972	0.021
972	0.022
973	0.023
973	0.023
974	0.024
974	0.024
974	0.025
975	0.025
975	0.026
976	0.026
976	0.026
976	0.026
977	0.025
977	0.024
978	0.024
978	0.023
979	0.022
979	0.021
979	0.021
980	0.02
980	0.019
981	0.018
981	0.018
982	0.017
982	0.017
982	0.016
983	0.016
983	0.016
984	0.016
984	0.016
984	0.016
985	0.016
985	0.015
986	0.015
986	0.015
987	0.014
987	0.014
987	0.014
988	0.013
988	0.013
989	0.012
989	0.012
990	0.011
990	0.011
990	0.011
991	0.011
991	0.011
992	0.011
992	0.01
992	0.01
993	0.01
993	0.01
994	0.009
994	0.009
995	0.009
995	0.009
995	0.008
996	0.008
996	0.008
997	0.007
997	0.008
997	0.008
998	0.008
998	0.008
999	0.009
999	0.009
1000	0.01
1000	0.01
1000	0.011
1001	0.012
1001	0.012
1002	0.012
1002	0.012
1003	0.013
1003	0.013
1003	0.012
1004	0.012
1004	0.012
1005	0.011
1005	0.011
1005	0.01
1006	0.009
1006	0.009
1007	0.009
1007	0.008
1008	0.008
1008	0.008
1008	0.008
1009	0.008
1009	0.009
1010	0.01
1010	0.01
1010	0.011
1011	0.012
1011	0.013
1012	0.014
1012	0.015
1013	0.017
1013	0.017
1013	0.018
1014	0.019
1014	0.019
1015	0.019
1015	0.02
1016	0.02
1016	0.02
1016	0.02
1017	0.02
1017	0.02
1018	0.02
1018	0.02
1018	0.02
1019	0.02
1019	0.019
1020	0.019
1020	0.019
1021	0.018
1021	0.018
1021	0.017
1022	0.017
1022	0.017
1023	0.016
1023	0.016
1023	0.016
1024	0.016
1024	0.015
1025	0.016
1025	0.016
1026	0.016
1026	0.016
1026	0.017
1027	0.017
1027	0.017
1028	0.018
1028	0.018
1028	0.018
1029	0.019
1029	0.019
1030	0.019
1030	0.019
1031	0.019
1031	0.02
1031	0.02
1032	0.02
1032	0.02
1033	0.02
1033	0.02
1033	0.02
1034	0.02
1034	0.02
1035	0.02
1035	0.02
1036	0.02
1036	0.021
1036	0.021
1037	0.022
1037	0.022
1038	0.023
1038	0.024
1039	0.025
1039	0.025
1039	0.026
1040	0.027
1040	0.028
1041	0.028
1041	0.029
1041	0.029
1042	0.029
1042	0.03
1043	0.031
1043	0.031
1044	0.032
1044	0.033
1044	0.034
1045	0.035
1045	0.036
1046	0.037
1046	0.038
1046	0.04
1047	0.042
1047	0.044
1048	0.045
1048	0.047
1049	0.048
1049	0.048
1049	0.049
1050	0.049
1050	0.049
1051	0.049
1051	0.049
1051	0.048
1052	0.047
1052	0.046
1053	0.045
1053	0.044
1053	0.044
1054	0.043
1054	0.042
1055	0.042
1055	0.041
1056	0.04
1056	0.039
1056	0.038
1057	0.037
1057	0.037
1058	0.037
1058	0.037
1058	0.037
1059	0.037
1059	0.037
1060	0.037
1060	0.038
1061	0.038
1061	0.039
1061	0.04
1062	0.04
1062	0.04
1063	0.041
1063	0.041
1063	0.042
1064	0.043
1064	0.045
1065	0.046
1065	0.047
1066	0.048
1066	0.05
1066	0.052
1067	0.054
1067	0.055
1068	0.057
1068	0.059
1068	0.06
1069	0.061
1069	0.062
1070	0.063
1070	0.064
1071	0.066
1071	0.066
1071	0.068
1072	0.069
1072	0.07
1073	0.072
1073	0.073
1073	0.074
1074	0.075
1074	0.077
1075	0.077
1075	0.077
1076	0.078
1076	0.079
1076	0.079
1077	0.079
1077	0.08
1078	0.082
1078	0.083
1078	0.085
1079	0.086
1079	0.089
1080	0.09
1080	0.092
1080	0.093
1081	0.096
1081	0.098
1082	0.099
1082	0.1
1083	0.102
1083	0.104
1083	0.107
1084	0.109
1084	0.113
1085	0.116
1085	0.118
1085	0.121
1086	0.124
1086	0.127
1087	0.13
1087	0.133
1088	0.136
1088	0.139
1088	0.143
1089	0.147
1089	0.151
1090	0.156
1090	0.162
1090	0.168
1091	0.174
1091	0.181
1092	0.189
1092	0.198
1092	0.206
1093	0.214
1093	0.224
1094	0.233
1094	0.243
1095	0.254
1095	0.267
1095	0.282
1096	0.296
1096	0.312
1097	0.33
1097	0.348
1097	0.37
1098	0.393
1098	0.42
1099	0.45
1099	0.483
1100	0.522
1100	0.566
1100	0.618
1101	0.684
1101	0.769
1102	0.888
1102	1.053
1102	1.36
1103	-0
1103	-0
1104	-0
1104	-0
1104	-0
1105	-0
1105	-0
1106	-0
1106	-0
1107	-0
1107	-0
1107	-0
1108	-0
1108	-0
1109	-0
1109	-0
1109	-0
1110	-0
1110	-0
1111	-0
1111	-0
