Data from 15c-2-4a_Absorbance__872__00872.txt Node

Date: Thu Jan 25 10:33:14 CET 2024
User: Marek
Spectrometer: MAYP115816
Trigger mode: 0
Integration Time (sec): 2.000000E-1
Scans to average: 10
Electric dark correction enabled: true
Nonlinearity correction enabled: true
Boxcar width: 5
XAxis mode: Wavelengths
Number of Pixels in Spectrum: 2068
>>>>>Begin Spectral Data<<<<<
199	-2.141
199	-1.971
200	-1.817
200	-1.695
201	-1.617
201	-1.56
202	-1.477
202	-1.416
203	-1.363
203	-1.317
204	-1.291
204	-1.262
205	-1.242
205	-1.23
205	-1.224
206	-1.22
206	-1.216
207	-1.216
207	-1.213
208	-1.208
208	-1.204
209	-1.2
209	-1.197
210	-1.195
210	-1.192
211	-1.191
211	-1.189
212	-1.186
212	-1.184
213	-1.182
213	-1.182
213	-1.182
214	-1.181
214	-1.18
215	-1.178
215	-1.177
216	-1.174
216	-1.173
217	-1.171
217	-1.168
218	-1.167
218	-1.165
219	-1.162
219	-1.159
220	-1.159
220	-1.155
221	-1.152
221	-1.15
221	-1.146
222	-1.143
222	-1.142
223	-1.136
223	-1.13
224	-1.123
224	-1.115
225	-1.105
225	-1.097
226	-1.086
226	-1.074
227	-1.059
227	-1.046
228	-1.026
228	-1.007
229	-0.986
229	-0.962
229	-0.936
230	-0.908
230	-0.877
231	-0.842
231	-0.804
232	-0.763
232	-0.719
233	-0.674
233	-0.627
234	-0.58
234	-0.532
235	-0.484
235	-0.436
236	-0.389
236	-0.345
236	-0.302
237	-0.26
237	-0.221
238	-0.184
238	-0.149
239	-0.115
239	-0.084
240	-0.056
240	-0.03
241	-0.006
241	0.017
242	0.038
242	0.057
243	0.075
243	0.091
243	0.106
244	0.12
244	0.132
245	0.144
245	0.155
246	0.165
246	0.174
247	0.183
247	0.191
248	0.198
248	0.205
249	0.212
249	0.217
250	0.224
250	0.229
250	0.234
251	0.239
251	0.243
252	0.248
252	0.252
253	0.256
253	0.26
254	0.263
254	0.266
255	0.269
255	0.272
256	0.275
256	0.277
257	0.279
257	0.281
258	0.283
258	0.284
258	0.286
259	0.287
259	0.289
260	0.29
260	0.291
261	0.292
261	0.292
262	0.293
262	0.293
263	0.294
263	0.294
264	0.294
264	0.294
265	0.294
265	0.294
265	0.294
266	0.294
266	0.293
267	0.293
267	0.293
268	0.292
268	0.291
269	0.29
269	0.289
270	0.288
270	0.287
271	0.286
271	0.285
272	0.284
272	0.283
272	0.281
273	0.28
273	0.279
274	0.278
274	0.277
275	0.275
275	0.274
276	0.272
276	0.271
277	0.269
277	0.268
278	0.266
278	0.264
278	0.262
279	0.26
279	0.259
280	0.258
280	0.257
281	0.256
281	0.255
282	0.254
282	0.253
283	0.253
283	0.252
284	0.251
284	0.25
285	0.249
285	0.248
285	0.247
286	0.245
286	0.244
287	0.243
287	0.242
288	0.241
288	0.24
289	0.239
289	0.238
290	0.237
290	0.236
291	0.235
291	0.234
292	0.234
292	0.233
292	0.232
293	0.232
293	0.231
294	0.23
294	0.23
295	0.229
295	0.228
296	0.228
296	0.227
297	0.227
297	0.226
298	0.226
298	0.225
298	0.225
299	0.224
299	0.224
300	0.223
300	0.223
301	0.222
301	0.222
302	0.221
302	0.221
303	0.22
303	0.22
304	0.219
304	0.219
305	0.218
305	0.218
305	0.217
306	0.217
306	0.216
307	0.216
307	0.215
308	0.214
308	0.214
309	0.213
309	0.213
310	0.212
310	0.212
311	0.211
311	0.211
311	0.21
312	0.21
312	0.209
313	0.209
313	0.208
314	0.208
314	0.207
315	0.206
315	0.206
316	0.205
316	0.205
317	0.204
317	0.203
318	0.203
318	0.202
318	0.201
319	0.201
319	0.2
320	0.2
320	0.199
321	0.198
321	0.198
322	0.197
322	0.196
323	0.196
323	0.195
324	0.194
324	0.194
324	0.193
325	0.192
325	0.192
326	0.191
326	0.191
327	0.19
327	0.19
328	0.189
328	0.189
329	0.188
329	0.188
330	0.187
330	0.186
330	0.186
331	0.185
331	0.184
332	0.184
332	0.183
333	0.183
333	0.182
334	0.181
334	0.181
335	0.18
335	0.18
336	0.179
336	0.179
336	0.179
337	0.178
337	0.178
338	0.177
338	0.177
339	0.176
339	0.176
340	0.175
340	0.175
341	0.174
341	0.174
342	0.173
342	0.172
342	0.172
343	0.171
343	0.171
344	0.17
344	0.17
345	0.169
345	0.169
346	0.168
346	0.168
347	0.167
347	0.167
348	0.166
348	0.166
348	0.165
349	0.165
349	0.164
350	0.164
350	0.163
351	0.162
351	0.162
352	0.161
352	0.161
353	0.16
353	0.16
354	0.159
354	0.158
354	0.157
355	0.156
355	0.155
356	0.154
356	0.154
357	0.153
357	0.153
358	0.153
358	0.153
359	0.154
359	0.154
360	0.155
360	0.156
360	0.156
361	0.157
361	0.157
362	0.158
362	0.158
363	0.158
363	0.157
364	0.157
364	0.156
365	0.156
365	0.155
366	0.155
366	0.155
366	0.155
367	0.155
367	0.154
368	0.154
368	0.154
369	0.153
369	0.153
370	0.153
370	0.152
371	0.152
371	0.151
372	0.151
372	0.151
372	0.15
373	0.15
373	0.15
374	0.15
374	0.15
375	0.15
375	0.15
376	0.15
376	0.15
377	0.15
377	0.15
378	0.151
378	0.151
378	0.151
379	0.151
379	0.151
380	0.152
380	0.152
381	0.152
381	0.151
382	0.151
382	0.151
383	0.15
383	0.15
383	0.149
384	0.149
384	0.149
385	0.148
385	0.148
386	0.148
386	0.148
387	0.148
387	0.148
388	0.148
388	0.148
389	0.148
389	0.148
389	0.148
390	0.148
390	0.148
391	0.149
391	0.149
392	0.149
392	0.149
393	0.149
393	0.149
394	0.149
394	0.149
394	0.148
395	0.148
395	0.147
396	0.147
396	0.147
397	0.147
397	0.147
398	0.147
398	0.147
399	0.147
399	0.147
400	0.147
400	0.147
400	0.147
401	0.146
401	0.145
402	0.145
402	0.144
403	0.144
403	0.143
404	0.143
404	0.143
405	0.143
405	0.143
405	0.142
406	0.142
406	0.142
407	0.142
407	0.142
408	0.141
408	0.141
409	0.14
409	0.14
410	0.14
410	0.14
411	0.14
411	0.14
411	0.14
412	0.139
412	0.139
413	0.139
413	0.139
414	0.138
414	0.138
415	0.138
415	0.138
416	0.138
416	0.137
416	0.137
417	0.137
417	0.136
418	0.136
418	0.137
419	0.137
419	0.137
420	0.138
420	0.138
421	0.139
421	0.139
421	0.139
422	0.139
422	0.139
423	0.139
423	0.139
424	0.139
424	0.138
425	0.137
425	0.136
426	0.136
426	0.136
427	0.135
427	0.136
427	0.136
428	0.136
428	0.137
429	0.138
429	0.138
430	0.138
430	0.138
431	0.138
431	0.138
432	0.138
432	0.137
432	0.136
433	0.135
433	0.134
434	0.134
434	0.133
435	0.133
435	0.133
436	0.133
436	0.133
437	0.133
437	0.133
437	0.134
438	0.134
438	0.133
439	0.133
439	0.133
440	0.133
440	0.132
441	0.132
441	0.132
442	0.133
442	0.133
442	0.133
443	0.133
443	0.133
444	0.134
444	0.134
445	0.134
445	0.134
446	0.134
446	0.134
447	0.134
447	0.134
447	0.133
448	0.133
448	0.133
449	0.133
449	0.133
450	0.133
450	0.133
451	0.132
451	0.132
452	0.131
452	0.131
452	0.13
453	0.13
453	0.13
454	0.129
454	0.129
455	0.128
455	0.128
456	0.128
456	0.128
457	0.128
457	0.128
458	0.128
458	0.127
458	0.127
459	0.127
459	0.128
460	0.127
460	0.126
461	0.126
461	0.126
462	0.125
462	0.125
463	0.126
463	0.126
463	0.127
464	0.127
464	0.127
465	0.128
465	0.128
466	0.128
466	0.128
467	0.128
467	0.128
467	0.127
468	0.126
468	0.124
469	0.122
469	0.121
470	0.12
470	0.12
471	0.119
471	0.119
472	0.118
472	0.118
472	0.119
473	0.12
473	0.121
474	0.122
474	0.123
475	0.124
475	0.125
476	0.125
476	0.126
477	0.126
477	0.126
477	0.127
478	0.127
478	0.128
479	0.128
479	0.129
480	0.13
480	0.131
481	0.131
481	0.132
482	0.133
482	0.134
482	0.136
483	0.137
483	0.14
484	0.143
484	0.145
485	0.147
485	0.148
486	0.149
486	0.15
487	0.151
487	0.151
487	0.151
488	0.151
488	0.149
489	0.148
489	0.146
490	0.145
490	0.144
491	0.143
491	0.144
492	0.144
492	0.144
492	0.145
493	0.145
493	0.146
494	0.148
494	0.15
495	0.152
495	0.153
496	0.154
496	0.154
496	0.155
497	0.156
497	0.157
498	0.158
498	0.158
499	0.158
499	0.158
500	0.159
500	0.16
501	0.161
501	0.163
501	0.164
502	0.166
502	0.167
503	0.169
503	0.171
504	0.171
504	0.172
505	0.173
505	0.173
506	0.174
506	0.174
506	0.174
507	0.174
507	0.174
508	0.175
508	0.175
509	0.175
509	0.176
510	0.176
510	0.176
511	0.176
511	0.176
511	0.177
512	0.177
512	0.177
513	0.177
513	0.176
514	0.175
514	0.174
515	0.173
515	0.173
515	0.173
516	0.173
516	0.173
517	0.173
517	0.173
518	0.173
518	0.172
519	0.171
519	0.169
520	0.167
520	0.164
520	0.162
521	0.159
521	0.157
522	0.155
522	0.153
523	0.153
523	0.154
524	0.155
524	0.158
524	0.161
525	0.164
525	0.167
526	0.169
526	0.172
527	0.174
527	0.176
528	0.178
528	0.18
529	0.18
529	0.18
529	0.18
530	0.18
530	0.181
531	0.18
531	0.181
532	0.18
532	0.18
533	0.18
533	0.18
533	0.18
534	0.18
534	0.179
535	0.178
535	0.178
536	0.178
536	0.177
537	0.177
537	0.176
538	0.176
538	0.175
538	0.173
539	0.173
539	0.172
540	0.171
540	0.17
541	0.168
541	0.167
542	0.165
542	0.164
542	0.162
543	0.161
543	0.16
544	0.159
544	0.158
545	0.157
545	0.156
546	0.157
546	0.156
547	0.155
547	0.153
547	0.151
548	0.149
548	0.147
549	0.145
549	0.144
550	0.142
550	0.14
551	0.137
551	0.135
551	0.134
552	0.132
552	0.131
553	0.131
553	0.13
554	0.13
554	0.128
555	0.127
555	0.124
556	0.122
556	0.119
556	0.116
557	0.114
557	0.111
558	0.109
558	0.108
559	0.106
559	0.105
560	0.105
560	0.104
560	0.104
561	0.104
561	0.104
562	0.104
562	0.103
563	0.102
563	0.1
564	0.097
564	0.095
564	0.092
565	0.091
565	0.089
566	0.088
566	0.087
567	0.086
567	0.087
568	0.087
568	0.089
568	0.09
569	0.092
569	0.093
570	0.095
570	0.095
571	0.096
571	0.096
572	0.097
572	0.097
573	0.097
573	0.097
573	0.096
574	0.096
574	0.095
575	0.095
575	0.096
576	0.097
576	0.097
577	0.096
577	0.095
577	0.094
578	0.093
578	0.093
579	0.093
579	0.094
580	0.094
580	0.093
581	0.091
581	0.089
581	0.088
582	0.087
582	0.087
583	0.088
583	0.088
584	0.086
584	0.083
585	0.081
585	0.08
585	0.08
586	0.079
586	0.079
587	0.077
587	0.075
588	0.073
588	0.07
589	0.068
589	0.066
590	0.065
590	0.064
590	0.063
591	0.063
591	0.063
592	0.063
592	0.062
593	0.062
593	0.063
594	0.062
594	0.062
594	0.062
595	0.062
595	0.061
596	0.06
596	0.06
597	0.062
597	0.063
598	0.064
598	0.065
598	0.065
599	0.065
599	0.065
600	0.065
600	0.064
601	0.063
601	0.062
602	0.06
602	0.059
602	0.057
603	0.056
603	0.056
604	0.056
604	0.056
605	0.057
605	0.058
606	0.059
606	0.058
606	0.058
607	0.057
607	0.057
608	0.057
608	0.055
609	0.054
609	0.054
610	0.052
610	0.051
610	0.05
611	0.051
611	0.051
612	0.052
612	0.053
613	0.055
613	0.057
614	0.058
614	0.058
614	0.058
615	0.058
615	0.058
616	0.058
616	0.057
617	0.057
617	0.055
618	0.054
618	0.052
618	0.051
619	0.05
619	0.05
620	0.051
620	0.052
621	0.052
621	0.052
622	0.053
622	0.053
622	0.054
623	0.054
623	0.054
624	0.055
624	0.055
625	0.055
625	0.055
626	0.055
626	0.055
626	0.055
627	0.055
627	0.055
628	0.056
628	0.056
629	0.057
629	0.057
630	0.056
630	0.056
630	0.055
631	0.056
631	0.056
632	0.056
632	0.056
633	0.056
633	0.056
634	0.057
634	0.058
634	0.06
635	0.062
635	0.063
636	0.065
636	0.066
637	0.067
637	0.068
638	0.069
638	0.07
638	0.071
639	0.071
639	0.071
640	0.072
640	0.073
641	0.074
641	0.076
642	0.077
642	0.079
642	0.081
643	0.083
643	0.085
644	0.087
644	0.089
645	0.091
645	0.093
646	0.095
646	0.097
646	0.1
647	0.103
647	0.106
648	0.108
648	0.111
649	0.113
649	0.115
650	0.118
650	0.12
650	0.123
651	0.125
651	0.127
652	0.128
652	0.129
653	0.131
653	0.137
653	0.149
654	0.121
654	0.101
655	0.106
655	0.109
656	0.111
656	0.113
657	0.115
657	0.117
657	0.118
658	0.116
658	0.108
659	0.134
659	0.17
660	0.17
660	0.172
661	0.173
661	0.174
661	0.176
662	0.179
662	0.181
663	0.184
663	0.187
664	0.189
664	0.191
665	0.194
665	0.196
665	0.199
666	0.201
666	0.203
667	0.205
667	0.207
668	0.209
668	0.211
669	0.213
669	0.215
669	0.218
670	0.222
670	0.225
671	0.227
671	0.229
672	0.231
672	0.232
672	0.234
673	0.235
673	0.237
674	0.238
674	0.238
675	0.238
675	0.239
676	0.24
676	0.241
676	0.243
677	0.244
677	0.246
678	0.247
678	0.248
679	0.249
679	0.25
680	0.251
680	0.253
680	0.253
681	0.253
681	0.254
682	0.255
682	0.256
683	0.258
683	0.26
684	0.262
684	0.263
684	0.263
685	0.263
685	0.264
686	0.265
686	0.264
687	0.264
687	0.263
687	0.262
688	0.262
688	0.26
689	0.26
689	0.261
690	0.261
690	0.261
691	0.26
691	0.261
691	0.261
692	0.261
692	0.261
693	0.261
693	0.261
694	0.261
694	0.26
695	0.26
695	0.262
695	0.263
696	0.263
696	0.263
697	0.262
697	0.262
698	0.261
698	0.259
698	0.257
699	0.256
699	0.253
700	0.25
700	0.247
701	0.246
701	0.244
702	0.242
702	0.241
702	0.239
703	0.237
703	0.236
704	0.234
704	0.232
705	0.232
705	0.231
705	0.229
706	0.229
706	0.228
707	0.227
707	0.225
708	0.224
708	0.223
709	0.222
709	0.221
709	0.219
710	0.216
710	0.214
711	0.212
711	0.21
712	0.208
712	0.207
713	0.206
713	0.204
713	0.202
714	0.2
714	0.198
715	0.196
715	0.194
716	0.192
716	0.19
716	0.188
717	0.186
717	0.184
718	0.181
718	0.179
719	0.177
719	0.175
720	0.173
720	0.171
720	0.168
721	0.165
721	0.162
722	0.159
722	0.155
723	0.153
723	0.151
723	0.149
724	0.147
724	0.145
725	0.143
725	0.141
726	0.139
726	0.138
727	0.136
727	0.135
727	0.133
728	0.131
728	0.129
729	0.128
729	0.127
730	0.126
730	0.124
730	0.123
731	0.121
731	0.119
732	0.118
732	0.117
733	0.115
733	0.113
734	0.111
734	0.108
734	0.106
735	0.104
735	0.102
736	0.099
736	0.097
737	0.094
737	0.093
737	0.091
738	0.088
738	0.086
739	0.084
739	0.082
740	0.08
740	0.078
741	0.077
741	0.075
741	0.072
742	0.069
742	0.065
743	0.063
743	0.061
744	0.059
744	0.057
744	0.055
745	0.053
745	0.051
746	0.05
746	0.049
747	0.048
747	0.048
748	0.047
748	0.047
748	0.046
749	0.045
749	0.044
750	0.043
750	0.042
751	0.041
751	0.041
751	0.041
752	0.04
752	0.039
753	0.038
753	0.037
754	0.036
754	0.035
754	0.035
755	0.035
755	0.035
756	0.034
756	0.032
757	0.031
757	0.03
758	0.029
758	0.028
758	0.027
759	0.026
759	0.024
760	0.021
760	0.018
761	0.016
761	0.014
761	0.013
762	0.011
762	0.01
763	0.01
763	0.008
764	0.006
764	0.004
764	0.002
765	0.001
765	-0.001
766	-0.002
766	-0.003
767	-0.003
767	-0.005
768	-0.008
768	-0.01
768	-0.012
769	-0.013
769	-0.013
770	-0.014
770	-0.015
771	-0.017
771	-0.019
771	-0.022
772	-0.024
772	-0.025
773	-0.027
773	-0.029
774	-0.032
774	-0.036
775	-0.039
775	-0.042
775	-0.045
776	-0.049
776	-0.053
777	-0.056
777	-0.059
778	-0.063
778	-0.067
778	-0.071
779	-0.074
779	-0.076
780	-0.08
780	-0.085
781	-0.09
781	-0.096
781	-0.101
782	-0.108
782	-0.114
783	-0.121
783	-0.125
784	-0.129
784	-0.133
784	-0.137
785	-0.141
785	-0.144
786	-0.145
786	-0.143
787	-0.139
787	-0.135
788	-0.134
788	-0.135
788	-0.137
789	-0.139
789	-0.139
790	-0.137
790	-0.136
791	-0.137
791	-0.138
791	-0.14
792	-0.135
792	-0.124
793	-0.117
793	-0.113
794	-0.11
794	-0.111
794	-0.114
795	-0.116
795	-0.116
796	-0.116
796	-0.119
797	-0.127
797	-0.138
797	-0.145
798	-0.151
798	-0.155
799	-0.156
799	-0.156
800	-0.156
800	-0.158
801	-0.161
801	-0.162
801	-0.162
802	-0.163
802	-0.164
803	-0.165
803	-0.164
804	-0.163
804	-0.157
804	-0.15
805	-0.146
805	-0.144
806	-0.141
806	-0.14
807	-0.139
807	-0.138
807	-0.137
808	-0.137
808	-0.137
809	-0.141
809	-0.147
810	-0.15
810	-0.152
810	-0.155
811	-0.158
811	-0.158
812	-0.154
812	-0.152
813	-0.152
813	-0.153
813	-0.155
814	-0.156
814	-0.157
815	-0.156
815	-0.153
816	-0.152
816	-0.153
817	-0.158
817	-0.162
817	-0.163
818	-0.162
818	-0.159
819	-0.154
819	-0.151
820	-0.152
820	-0.154
820	-0.155
821	-0.154
821	-0.152
822	-0.148
822	-0.144
823	-0.139
823	-0.137
823	-0.136
824	-0.133
824	-0.126
825	-0.117
825	-0.107
826	-0.098
826	-0.091
826	-0.084
827	-0.078
827	-0.072
828	-0.067
828	-0.062
829	-0.058
829	-0.053
829	-0.05
830	-0.047
830	-0.044
831	-0.04
831	-0.036
832	-0.033
832	-0.03
832	-0.028
833	-0.026
833	-0.024
834	-0.023
834	-0.023
835	-0.022
835	-0.022
835	-0.023
836	-0.023
836	-0.024
837	-0.024
837	-0.024
838	-0.024
838	-0.024
839	-0.024
839	-0.023
839	-0.023
840	-0.022
840	-0.021
841	-0.02
841	-0.019
842	-0.018
842	-0.017
842	-0.015
843	-0.014
843	-0.012
844	-0.011
844	-0.01
845	-0.009
845	-0.008
845	-0.007
846	-0.006
846	-0.005
847	-0.004
847	-0.003
848	-0.002
848	-0.001
848	-0.001
849	0
849	0.001
850	0.002
850	0.002
851	0.002
851	0.003
851	0.003
852	0.003
852	0.003
853	0.003
853	0.003
854	0.003
854	0.003
854	0.003
855	0.003
855	0.003
856	0.003
856	0.003
857	0.003
857	0.003
857	0.004
858	0.004
858	0.004
859	0.005
859	0.006
860	0.007
860	0.008
860	0.009
861	0.01
861	0.011
862	0.012
862	0.013
863	0.014
863	0.015
863	0.016
864	0.017
864	0.018
865	0.018
865	0.019
866	0.019
866	0.019
866	0.019
867	0.019
867	0.019
868	0.018
868	0.018
869	0.018
869	0.017
869	0.016
870	0.016
870	0.015
871	0.015
871	0.014
872	0.013
872	0.012
872	0.011
873	0.01
873	0.01
874	0.009
874	0.008
875	0.008
875	0.007
875	0.007
876	0.006
876	0.006
877	0.006
877	0.007
878	0.007
878	0.007
878	0.008
879	0.008
879	0.009
880	0.01
880	0.011
881	0.011
881	0.012
881	0.014
882	0.014
882	0.015
883	0.016
883	0.017
884	0.017
884	0.018
884	0.018
885	0.018
885	0.018
886	0.018
886	0.018
887	0.017
887	0.017
887	0.016
888	0.016
888	0.016
889	0.016
889	0.016
890	0.017
890	0.017
890	0.018
891	0.019
891	0.019
892	0.02
892	0.02
893	0.021
893	0.022
893	0.023
894	0.023
894	0.023
895	0.023
895	0.023
895	0.023
896	0.023
896	0.022
897	0.022
897	0.021
898	0.02
898	0.02
898	0.019
899	0.018
899	0.017
900	0.016
900	0.015
901	0.015
901	0.014
901	0.014
902	0.014
902	0.014
903	0.014
903	0.014
904	0.014
904	0.014
904	0.014
905	0.015
905	0.015
906	0.015
906	0.015
907	0.014
907	0.014
907	0.013
908	0.013
908	0.012
909	0.012
909	0.012
910	0.012
910	0.012
910	0.013
911	0.013
911	0.014
912	0.015
912	0.016
913	0.017
913	0.018
913	0.019
914	0.02
914	0.021
915	0.022
915	0.023
916	0.025
916	0.025
916	0.026
917	0.027
917	0.027
918	0.027
918	0.027
918	0.026
919	0.026
919	0.025
920	0.024
920	0.023
921	0.021
921	0.02
921	0.019
922	0.018
922	0.018
923	0.017
923	0.017
924	0.016
924	0.016
924	0.016
925	0.016
925	0.017
926	0.017
926	0.018
927	0.018
927	0.018
927	0.019
928	0.019
928	0.02
929	0.021
929	0.021
930	0.021
930	0.021
930	0.021
931	0.021
931	0.021
932	0.021
932	0.021
933	0.021
933	0.021
933	0.021
934	0.021
934	0.021
935	0.021
935	0.021
935	0.021
936	0.021
936	0.021
937	0.021
937	0.021
938	0.02
938	0.019
938	0.019
939	0.018
939	0.018
940	0.017
940	0.017
941	0.017
941	0.018
941	0.019
942	0.019
942	0.02
943	0.021
943	0.022
944	0.023
944	0.024
944	0.025
945	0.026
945	0.027
946	0.028
946	0.029
946	0.029
947	0.03
947	0.03
948	0.03
948	0.03
949	0.029
949	0.028
949	0.028
950	0.027
950	0.026
951	0.025
951	0.025
952	0.025
952	0.024
952	0.024
953	0.025
953	0.025
954	0.025
954	0.025
955	0.025
955	0.025
955	0.025
956	0.025
956	0.024
957	0.024
957	0.024
957	0.023
958	0.023
958	0.023
959	0.023
959	0.023
960	0.024
960	0.024
960	0.024
961	0.025
961	0.025
962	0.025
962	0.025
963	0.025
963	0.025
963	0.025
964	0.025
964	0.025
965	0.024
965	0.024
966	0.023
966	0.023
966	0.023
967	0.023
967	0.022
968	0.022
968	0.022
968	0.022
969	0.022
969	0.022
970	0.022
970	0.022
971	0.022
971	0.023
971	0.023
972	0.024
972	0.025
973	0.026
973	0.026
974	0.027
974	0.028
974	0.028
975	0.028
975	0.028
976	0.028
976	0.028
976	0.027
977	0.026
977	0.024
978	0.023
978	0.021
979	0.02
979	0.019
979	0.018
980	0.017
980	0.016
981	0.015
981	0.014
982	0.014
982	0.013
982	0.013
983	0.013
983	0.013
984	0.013
984	0.013
984	0.013
985	0.013
985	0.012
986	0.012
986	0.011
987	0.011
987	0.01
987	0.01
988	0.01
988	0.01
989	0.01
989	0.01
990	0.01
990	0.01
990	0.011
991	0.011
991	0.012
992	0.012
992	0.013
992	0.013
993	0.013
993	0.013
994	0.013
994	0.012
995	0.012
995	0.011
995	0.011
996	0.01
996	0.01
997	0.009
997	0.008
997	0.008
998	0.008
998	0.008
999	0.008
999	0.008
1000	0.008
1000	0.008
1000	0.009
1001	0.01
1001	0.01
1002	0.01
1002	0.011
1003	0.011
1003	0.011
1003	0.011
1004	0.011
1004	0.011
1005	0.01
1005	0.01
1005	0.009
1006	0.009
1006	0.009
1007	0.009
1007	0.008
1008	0.008
1008	0.008
1008	0.009
1009	0.009
1009	0.01
1010	0.01
1010	0.011
1010	0.012
1011	0.013
1011	0.014
1012	0.015
1012	0.016
1013	0.017
1013	0.018
1013	0.018
1014	0.019
1014	0.019
1015	0.019
1015	0.019
1016	0.019
1016	0.019
1016	0.018
1017	0.018
1017	0.018
1018	0.018
1018	0.018
1018	0.018
1019	0.018
1019	0.018
1020	0.018
1020	0.018
1021	0.017
1021	0.017
1021	0.017
1022	0.016
1022	0.016
1023	0.016
1023	0.016
1023	0.016
1024	0.016
1024	0.016
1025	0.016
1025	0.016
1026	0.017
1026	0.017
1026	0.017
1027	0.018
1027	0.018
1028	0.018
1028	0.019
1028	0.019
1029	0.019
1029	0.02
1030	0.02
1030	0.02
1031	0.02
1031	0.02
1031	0.02
1032	0.019
1032	0.019
1033	0.019
1033	0.019
1033	0.019
1034	0.018
1034	0.018
1035	0.018
1035	0.018
1036	0.018
1036	0.019
1036	0.02
1037	0.02
1037	0.021
1038	0.022
1038	0.022
1039	0.023
1039	0.023
1039	0.024
1040	0.025
1040	0.026
1041	0.026
1041	0.027
1041	0.027
1042	0.028
1042	0.028
1043	0.029
1043	0.03
1044	0.031
1044	0.031
1044	0.032
1045	0.033
1045	0.033
1046	0.034
1046	0.035
1046	0.037
1047	0.038
1047	0.039
1048	0.041
1048	0.042
1049	0.043
1049	0.044
1049	0.045
1050	0.045
1050	0.045
1051	0.046
1051	0.046
1051	0.045
1052	0.045
1052	0.044
1053	0.044
1053	0.043
1053	0.042
1054	0.042
1054	0.041
1055	0.041
1055	0.04
1056	0.039
1056	0.038
1056	0.037
1057	0.037
1057	0.036
1058	0.036
1058	0.036
1058	0.036
1059	0.035
1059	0.035
1060	0.035
1060	0.036
1061	0.036
1061	0.037
1061	0.037
1062	0.037
1062	0.038
1063	0.038
1063	0.039
1063	0.04
1064	0.041
1064	0.043
1065	0.045
1065	0.046
1066	0.048
1066	0.05
1066	0.053
1067	0.056
1067	0.058
1068	0.06
1068	0.062
1068	0.064
1069	0.065
1069	0.067
1070	0.068
1070	0.069
1071	0.071
1071	0.072
1071	0.073
1072	0.074
1072	0.075
1073	0.077
1073	0.078
1073	0.079
1074	0.081
1074	0.082
1075	0.082
1075	0.083
1076	0.083
1076	0.084
1076	0.084
1077	0.085
1077	0.086
1078	0.087
1078	0.089
1078	0.09
1079	0.092
1079	0.095
1080	0.096
1080	0.098
1080	0.1
1081	0.102
1081	0.104
1082	0.106
1082	0.107
1083	0.11
1083	0.112
1083	0.114
1084	0.116
1084	0.119
1085	0.123
1085	0.126
1085	0.128
1086	0.131
1086	0.133
1087	0.137
1087	0.14
1088	0.142
1088	0.146
1088	0.15
1089	0.154
1089	0.158
1090	0.163
1090	0.169
1090	0.176
1091	0.183
1091	0.19
1092	0.198
1092	0.207
1092	0.215
1093	0.223
1093	0.233
1094	0.243
1094	0.254
1095	0.264
1095	0.277
1095	0.291
1096	0.306
1096	0.322
1097	0.343
1097	0.363
1097	0.386
1098	0.41
1098	0.439
1099	0.472
1099	0.507
1100	0.548
1100	0.6
1100	0.657
1101	0.731
1101	0.824
1102	0.962
1102	1.175
1102	1.676
1103	-0
1103	-0
1104	-0
1104	-0
1104	-0
1105	-0
1105	-0
1106	-0
1106	-0
1107	-0
1107	-0
1107	-0
1108	-0
1108	-0
1109	-0
1109	-0
1109	-0
1110	-0
1110	-0
1111	-0
1111	-0
