Data from 15c-2-4a_Absorbance__3056__03056.txt Node

Date: Thu Jan 25 11:46:02 CET 2024
User: Marek
Spectrometer: MAYP115816
Trigger mode: 0
Integration Time (sec): 2.000000E-1
Scans to average: 10
Electric dark correction enabled: true
Nonlinearity correction enabled: true
Boxcar width: 5
XAxis mode: Wavelengths
Number of Pixels in Spectrum: 2068
>>>>>Begin Spectral Data<<<<<
199	-2.19
199	-2.019
200	-1.866
200	-1.743
201	-1.665
201	-1.608
202	-1.525
202	-1.463
203	-1.411
203	-1.364
204	-1.337
204	-1.309
205	-1.288
205	-1.277
205	-1.271
206	-1.266
206	-1.262
207	-1.262
207	-1.258
208	-1.254
208	-1.251
209	-1.246
209	-1.243
210	-1.241
210	-1.238
211	-1.237
211	-1.236
212	-1.233
212	-1.23
213	-1.228
213	-1.229
213	-1.229
214	-1.228
214	-1.226
215	-1.224
215	-1.222
216	-1.22
216	-1.219
217	-1.217
217	-1.214
218	-1.212
218	-1.209
219	-1.207
219	-1.205
220	-1.204
220	-1.2
221	-1.197
221	-1.195
221	-1.191
222	-1.189
222	-1.187
223	-1.182
223	-1.176
224	-1.169
224	-1.16
225	-1.15
225	-1.142
226	-1.131
226	-1.118
227	-1.103
227	-1.089
228	-1.07
228	-1.05
229	-1.029
229	-1.004
229	-0.978
230	-0.947
230	-0.917
231	-0.881
231	-0.841
232	-0.799
232	-0.753
233	-0.706
233	-0.657
234	-0.608
234	-0.557
235	-0.505
235	-0.455
236	-0.404
236	-0.356
236	-0.308
237	-0.262
237	-0.219
238	-0.177
238	-0.137
239	-0.099
239	-0.063
240	-0.029
240	0.002
241	0.031
241	0.059
242	0.084
242	0.108
243	0.13
243	0.151
243	0.17
244	0.187
244	0.204
245	0.218
245	0.232
246	0.246
246	0.258
247	0.268
247	0.279
248	0.289
248	0.298
249	0.306
249	0.313
250	0.321
250	0.328
250	0.335
251	0.341
251	0.347
252	0.352
252	0.357
253	0.363
253	0.367
254	0.371
254	0.376
255	0.379
255	0.383
256	0.386
256	0.389
257	0.392
257	0.395
258	0.397
258	0.399
258	0.401
259	0.402
259	0.404
260	0.405
260	0.406
261	0.407
261	0.408
262	0.408
262	0.409
263	0.41
263	0.41
264	0.411
264	0.411
265	0.411
265	0.411
265	0.411
266	0.411
266	0.411
267	0.411
267	0.41
268	0.41
268	0.409
269	0.408
269	0.407
270	0.406
270	0.405
271	0.403
271	0.402
272	0.401
272	0.4
272	0.399
273	0.397
273	0.396
274	0.394
274	0.393
275	0.391
275	0.389
276	0.388
276	0.386
277	0.384
277	0.382
278	0.379
278	0.377
278	0.374
279	0.373
279	0.371
280	0.37
280	0.368
281	0.367
281	0.366
282	0.365
282	0.364
283	0.364
283	0.363
284	0.362
284	0.361
285	0.359
285	0.358
285	0.356
286	0.355
286	0.353
287	0.352
287	0.35
288	0.349
288	0.348
289	0.346
289	0.345
290	0.344
290	0.343
291	0.342
291	0.34
292	0.339
292	0.338
292	0.337
293	0.336
293	0.335
294	0.334
294	0.333
295	0.332
295	0.331
296	0.33
296	0.329
297	0.328
297	0.327
298	0.326
298	0.325
298	0.324
299	0.324
299	0.323
300	0.322
300	0.321
301	0.32
301	0.319
302	0.318
302	0.317
303	0.316
303	0.316
304	0.315
304	0.314
305	0.313
305	0.312
305	0.311
306	0.31
306	0.31
307	0.309
307	0.308
308	0.307
308	0.306
309	0.305
309	0.304
310	0.303
310	0.302
311	0.301
311	0.3
311	0.299
312	0.298
312	0.297
313	0.296
313	0.295
314	0.294
314	0.293
315	0.292
315	0.292
316	0.291
316	0.29
317	0.289
317	0.288
318	0.287
318	0.286
318	0.285
319	0.284
319	0.283
320	0.282
320	0.281
321	0.28
321	0.279
322	0.278
322	0.277
323	0.276
323	0.275
324	0.274
324	0.273
324	0.272
325	0.271
325	0.27
326	0.269
326	0.269
327	0.268
327	0.267
328	0.266
328	0.265
329	0.264
329	0.263
330	0.262
330	0.261
330	0.26
331	0.259
331	0.258
332	0.258
332	0.257
333	0.256
333	0.255
334	0.254
334	0.253
335	0.252
335	0.251
336	0.25
336	0.25
336	0.249
337	0.248
337	0.247
338	0.247
338	0.246
339	0.245
339	0.245
340	0.244
340	0.243
341	0.242
341	0.242
342	0.241
342	0.24
342	0.239
343	0.239
343	0.238
344	0.237
344	0.237
345	0.236
345	0.235
346	0.234
346	0.234
347	0.233
347	0.232
348	0.231
348	0.23
348	0.229
349	0.228
349	0.228
350	0.227
350	0.226
351	0.225
351	0.224
352	0.223
352	0.223
353	0.222
353	0.221
354	0.22
354	0.219
354	0.218
355	0.216
355	0.215
356	0.214
356	0.214
357	0.213
357	0.213
358	0.212
358	0.213
359	0.214
359	0.214
360	0.215
360	0.216
360	0.217
361	0.217
361	0.217
362	0.218
362	0.218
363	0.218
363	0.217
364	0.217
364	0.216
365	0.215
365	0.215
366	0.214
366	0.214
366	0.213
367	0.213
367	0.213
368	0.212
368	0.212
369	0.211
369	0.211
370	0.211
370	0.21
371	0.209
371	0.209
372	0.208
372	0.208
372	0.207
373	0.207
373	0.207
374	0.207
374	0.206
375	0.206
375	0.206
376	0.205
376	0.205
377	0.206
377	0.206
378	0.206
378	0.206
378	0.206
379	0.206
379	0.206
380	0.206
380	0.206
381	0.206
381	0.206
382	0.205
382	0.205
383	0.204
383	0.204
383	0.203
384	0.203
384	0.202
385	0.202
385	0.201
386	0.201
386	0.201
387	0.201
387	0.201
388	0.201
388	0.201
389	0.201
389	0.2
389	0.2
390	0.2
390	0.201
391	0.201
391	0.201
392	0.201
392	0.201
393	0.201
393	0.201
394	0.201
394	0.2
394	0.2
395	0.2
395	0.199
396	0.199
396	0.198
397	0.198
397	0.199
398	0.198
398	0.198
399	0.198
399	0.198
400	0.197
400	0.197
400	0.196
401	0.196
401	0.195
402	0.194
402	0.192
403	0.192
403	0.192
404	0.192
404	0.191
405	0.191
405	0.19
405	0.19
406	0.189
406	0.189
407	0.189
407	0.189
408	0.188
408	0.188
409	0.187
409	0.187
410	0.186
410	0.186
411	0.187
411	0.187
411	0.186
412	0.186
412	0.185
413	0.185
413	0.185
414	0.184
414	0.184
415	0.184
415	0.183
416	0.183
416	0.182
416	0.182
417	0.181
417	0.181
418	0.181
418	0.181
419	0.181
419	0.182
420	0.182
420	0.183
421	0.183
421	0.183
421	0.184
422	0.184
422	0.184
423	0.184
423	0.183
424	0.183
424	0.182
425	0.181
425	0.18
426	0.179
426	0.179
427	0.178
427	0.179
427	0.179
428	0.179
428	0.18
429	0.18
429	0.181
430	0.181
430	0.181
431	0.181
431	0.181
432	0.18
432	0.179
432	0.178
433	0.177
433	0.176
434	0.175
434	0.174
435	0.174
435	0.174
436	0.174
436	0.174
437	0.174
437	0.174
437	0.174
438	0.174
438	0.174
439	0.173
439	0.173
440	0.172
440	0.172
441	0.172
441	0.172
442	0.172
442	0.172
442	0.172
443	0.173
443	0.173
444	0.173
444	0.174
445	0.174
445	0.174
446	0.174
446	0.174
447	0.174
447	0.173
447	0.173
448	0.173
448	0.173
449	0.173
449	0.172
450	0.172
450	0.172
451	0.171
451	0.171
452	0.17
452	0.17
452	0.169
453	0.169
453	0.168
454	0.167
454	0.167
455	0.166
455	0.166
456	0.166
456	0.166
457	0.165
457	0.165
458	0.165
458	0.165
458	0.165
459	0.165
459	0.165
460	0.165
460	0.164
461	0.164
461	0.163
462	0.163
462	0.163
463	0.163
463	0.164
463	0.164
464	0.165
464	0.165
465	0.165
465	0.166
466	0.166
466	0.166
467	0.166
467	0.165
467	0.164
468	0.163
468	0.161
469	0.159
469	0.157
470	0.156
470	0.156
471	0.155
471	0.155
472	0.155
472	0.155
472	0.156
473	0.157
473	0.159
474	0.16
474	0.161
475	0.162
475	0.163
476	0.164
476	0.164
477	0.165
477	0.165
477	0.166
478	0.166
478	0.166
479	0.167
479	0.168
480	0.169
480	0.17
481	0.17
481	0.171
482	0.172
482	0.174
482	0.175
483	0.177
483	0.18
484	0.184
484	0.187
485	0.189
485	0.191
486	0.192
486	0.193
487	0.194
487	0.194
487	0.194
488	0.194
488	0.192
489	0.189
489	0.187
490	0.186
490	0.185
491	0.184
491	0.185
492	0.185
492	0.186
492	0.187
493	0.188
493	0.189
494	0.191
494	0.194
495	0.196
495	0.198
496	0.199
496	0.2
496	0.201
497	0.202
497	0.203
498	0.204
498	0.204
499	0.205
499	0.205
500	0.206
500	0.207
501	0.209
501	0.211
501	0.212
502	0.214
502	0.216
503	0.218
503	0.22
504	0.221
504	0.222
505	0.222
505	0.223
506	0.223
506	0.224
506	0.224
507	0.224
507	0.225
508	0.225
508	0.226
509	0.227
509	0.227
510	0.227
510	0.228
511	0.228
511	0.229
511	0.23
512	0.23
512	0.23
513	0.229
513	0.228
514	0.226
514	0.226
515	0.226
515	0.226
515	0.226
516	0.225
516	0.225
517	0.225
517	0.224
518	0.224
518	0.222
519	0.22
519	0.218
520	0.215
520	0.211
520	0.208
521	0.206
521	0.204
522	0.202
522	0.202
523	0.203
523	0.205
524	0.208
524	0.212
524	0.215
525	0.219
525	0.222
526	0.225
526	0.227
527	0.229
527	0.231
528	0.232
528	0.233
529	0.233
529	0.233
529	0.233
530	0.232
530	0.232
531	0.231
531	0.232
532	0.231
532	0.23
533	0.23
533	0.23
533	0.23
534	0.23
534	0.229
535	0.228
535	0.227
536	0.227
536	0.226
537	0.225
537	0.224
538	0.223
538	0.221
538	0.22
539	0.219
539	0.218
540	0.216
540	0.215
541	0.213
541	0.211
542	0.209
542	0.207
542	0.205
543	0.204
543	0.203
544	0.201
544	0.199
545	0.198
545	0.197
546	0.197
546	0.196
547	0.195
547	0.192
547	0.189
548	0.187
548	0.184
549	0.182
549	0.18
550	0.178
550	0.175
551	0.172
551	0.169
551	0.167
552	0.165
552	0.164
553	0.163
553	0.162
554	0.162
554	0.16
555	0.157
555	0.154
556	0.151
556	0.147
556	0.144
557	0.14
557	0.137
558	0.135
558	0.132
559	0.13
559	0.129
560	0.128
560	0.127
560	0.126
561	0.126
561	0.126
562	0.126
562	0.125
563	0.123
563	0.121
564	0.118
564	0.115
564	0.112
565	0.109
565	0.108
566	0.106
566	0.104
567	0.104
567	0.104
568	0.104
568	0.106
568	0.107
569	0.109
569	0.111
570	0.112
570	0.112
571	0.112
571	0.113
572	0.113
572	0.113
573	0.113
573	0.113
573	0.112
574	0.111
574	0.11
575	0.109
575	0.11
576	0.111
576	0.111
577	0.109
577	0.108
577	0.107
578	0.106
578	0.105
579	0.105
579	0.106
580	0.106
580	0.104
581	0.101
581	0.099
581	0.097
582	0.097
582	0.096
583	0.097
583	0.097
584	0.094
584	0.091
585	0.089
585	0.088
585	0.087
586	0.087
586	0.087
587	0.085
587	0.083
588	0.08
588	0.077
589	0.075
589	0.073
590	0.071
590	0.069
590	0.069
591	0.069
591	0.069
592	0.068
592	0.067
593	0.067
593	0.067
594	0.067
594	0.066
594	0.066
595	0.065
595	0.064
596	0.063
596	0.063
597	0.065
597	0.067
598	0.068
598	0.069
598	0.07
599	0.07
599	0.07
600	0.069
600	0.068
601	0.067
601	0.066
602	0.064
602	0.062
602	0.061
603	0.059
603	0.059
604	0.059
604	0.059
605	0.061
605	0.062
606	0.063
606	0.062
606	0.062
607	0.061
607	0.061
608	0.061
608	0.06
609	0.058
609	0.058
610	0.056
610	0.055
610	0.054
611	0.054
611	0.055
612	0.056
612	0.057
613	0.059
613	0.06
614	0.061
614	0.061
614	0.061
615	0.061
615	0.061
616	0.06
616	0.06
617	0.059
617	0.058
618	0.056
618	0.055
618	0.054
619	0.053
619	0.053
620	0.054
620	0.055
621	0.056
621	0.056
622	0.056
622	0.057
622	0.057
623	0.057
623	0.058
624	0.059
624	0.059
625	0.059
625	0.059
626	0.06
626	0.06
626	0.06
627	0.061
627	0.061
628	0.062
628	0.062
629	0.063
629	0.063
630	0.063
630	0.062
630	0.062
631	0.062
631	0.063
632	0.062
632	0.062
633	0.063
633	0.064
634	0.065
634	0.066
634	0.069
635	0.071
635	0.072
636	0.074
636	0.075
637	0.077
637	0.078
638	0.079
638	0.081
638	0.082
639	0.083
639	0.083
640	0.084
640	0.086
641	0.088
641	0.09
642	0.092
642	0.095
642	0.097
643	0.099
643	0.102
644	0.104
644	0.107
645	0.11
645	0.112
646	0.114
646	0.117
646	0.12
647	0.124
647	0.128
648	0.131
648	0.133
649	0.136
649	0.14
650	0.143
650	0.146
650	0.149
651	0.152
651	0.154
652	0.156
652	0.158
653	0.161
653	0.17
653	0.186
654	0.151
654	0.125
655	0.131
655	0.134
656	0.136
656	0.139
657	0.141
657	0.143
657	0.145
658	0.143
658	0.131
659	0.164
659	0.21
660	0.211
660	0.212
661	0.214
661	0.216
661	0.219
662	0.222
662	0.225
663	0.229
663	0.232
664	0.235
664	0.237
665	0.24
665	0.243
665	0.246
666	0.249
666	0.252
667	0.254
667	0.257
668	0.26
668	0.263
669	0.265
669	0.269
669	0.273
670	0.278
670	0.282
671	0.285
671	0.288
672	0.29
672	0.292
672	0.295
673	0.297
673	0.299
674	0.3
674	0.301
675	0.301
675	0.302
676	0.304
676	0.306
676	0.308
677	0.31
677	0.312
678	0.313
678	0.315
679	0.316
679	0.317
680	0.319
680	0.321
680	0.321
681	0.321
681	0.322
682	0.322
682	0.323
683	0.325
683	0.327
684	0.33
684	0.331
684	0.331
685	0.331
685	0.332
686	0.333
686	0.333
687	0.332
687	0.332
687	0.331
688	0.329
688	0.327
689	0.327
689	0.327
690	0.328
690	0.328
691	0.328
691	0.328
691	0.328
692	0.328
692	0.327
693	0.327
693	0.327
694	0.327
694	0.325
695	0.325
695	0.326
695	0.327
696	0.326
696	0.325
697	0.324
697	0.323
698	0.322
698	0.32
698	0.317
699	0.315
699	0.313
700	0.309
700	0.306
701	0.304
701	0.302
702	0.3
702	0.298
702	0.297
703	0.295
703	0.293
704	0.291
704	0.29
705	0.289
705	0.287
705	0.286
706	0.284
706	0.283
707	0.282
707	0.28
708	0.278
708	0.276
709	0.275
709	0.273
709	0.27
710	0.267
710	0.263
711	0.26
711	0.258
712	0.255
712	0.253
713	0.251
713	0.249
713	0.247
714	0.244
714	0.242
715	0.24
715	0.237
716	0.234
716	0.232
716	0.23
717	0.227
717	0.224
718	0.22
718	0.217
719	0.214
719	0.212
720	0.209
720	0.206
720	0.203
721	0.199
721	0.195
722	0.191
722	0.188
723	0.184
723	0.182
723	0.179
724	0.176
724	0.173
725	0.17
725	0.167
726	0.165
726	0.163
727	0.161
727	0.159
727	0.157
728	0.155
728	0.153
729	0.152
729	0.151
730	0.149
730	0.147
730	0.146
731	0.144
731	0.143
732	0.141
732	0.14
733	0.138
733	0.136
734	0.133
734	0.13
734	0.127
735	0.124
735	0.121
736	0.118
736	0.115
737	0.112
737	0.11
737	0.107
738	0.104
738	0.101
739	0.098
739	0.096
740	0.093
740	0.091
741	0.089
741	0.086
741	0.083
742	0.078
742	0.074
743	0.071
743	0.068
744	0.065
744	0.063
744	0.06
745	0.057
745	0.054
746	0.052
746	0.05
747	0.048
747	0.047
748	0.046
748	0.045
748	0.045
749	0.043
749	0.042
750	0.041
750	0.04
751	0.04
751	0.04
751	0.04
752	0.04
752	0.039
753	0.038
753	0.037
754	0.036
754	0.035
754	0.035
755	0.035
755	0.036
756	0.035
756	0.032
757	0.03
757	0.029
758	0.028
758	0.026
758	0.025
759	0.024
759	0.021
760	0.018
760	0.014
761	0.011
761	0.009
761	0.008
762	0.006
762	0.004
763	0.003
763	0.001
764	-0.002
764	-0.004
764	-0.006
765	-0.008
765	-0.01
766	-0.011
766	-0.012
767	-0.013
767	-0.015
768	-0.018
768	-0.02
768	-0.022
769	-0.023
769	-0.023
770	-0.024
770	-0.025
771	-0.027
771	-0.029
771	-0.031
772	-0.033
772	-0.034
773	-0.036
773	-0.038
774	-0.042
774	-0.045
775	-0.048
775	-0.051
775	-0.055
776	-0.059
776	-0.062
777	-0.066
777	-0.069
778	-0.073
778	-0.077
778	-0.081
779	-0.083
779	-0.086
780	-0.09
780	-0.095
781	-0.1
781	-0.105
781	-0.11
782	-0.115
782	-0.121
783	-0.126
783	-0.129
784	-0.133
784	-0.136
784	-0.138
785	-0.141
785	-0.143
786	-0.144
786	-0.142
787	-0.138
787	-0.134
788	-0.133
788	-0.134
788	-0.136
789	-0.138
789	-0.138
790	-0.136
790	-0.135
791	-0.135
791	-0.137
791	-0.139
792	-0.134
792	-0.123
793	-0.116
793	-0.111
794	-0.109
794	-0.11
794	-0.113
795	-0.115
795	-0.115
796	-0.115
796	-0.118
797	-0.126
797	-0.137
797	-0.144
798	-0.15
798	-0.154
799	-0.155
799	-0.155
800	-0.155
800	-0.157
801	-0.16
801	-0.161
801	-0.161
802	-0.162
802	-0.163
803	-0.164
803	-0.163
804	-0.162
804	-0.156
804	-0.149
805	-0.145
805	-0.143
806	-0.14
806	-0.139
807	-0.138
807	-0.137
807	-0.136
808	-0.136
808	-0.136
809	-0.14
809	-0.145
810	-0.148
810	-0.151
810	-0.154
811	-0.156
811	-0.157
812	-0.153
812	-0.15
813	-0.151
813	-0.152
813	-0.154
814	-0.155
814	-0.156
815	-0.154
815	-0.152
816	-0.151
816	-0.152
817	-0.157
817	-0.161
817	-0.162
818	-0.161
818	-0.158
819	-0.153
819	-0.15
820	-0.151
820	-0.153
820	-0.154
821	-0.154
821	-0.153
822	-0.152
822	-0.15
823	-0.148
823	-0.148
823	-0.15
824	-0.149
824	-0.144
825	-0.138
825	-0.13
826	-0.122
826	-0.116
826	-0.109
827	-0.102
827	-0.096
828	-0.091
828	-0.086
829	-0.081
829	-0.076
829	-0.073
830	-0.07
830	-0.067
831	-0.062
831	-0.058
832	-0.055
832	-0.052
832	-0.049
833	-0.046
833	-0.044
834	-0.043
834	-0.041
835	-0.04
835	-0.039
835	-0.039
836	-0.039
836	-0.039
837	-0.039
837	-0.038
838	-0.038
838	-0.037
839	-0.037
839	-0.036
839	-0.036
840	-0.035
840	-0.034
841	-0.033
841	-0.032
842	-0.031
842	-0.03
842	-0.029
843	-0.028
843	-0.027
844	-0.026
844	-0.025
845	-0.024
845	-0.024
845	-0.023
846	-0.022
846	-0.021
847	-0.021
847	-0.019
848	-0.018
848	-0.018
848	-0.017
849	-0.016
849	-0.015
850	-0.014
850	-0.014
851	-0.013
851	-0.013
851	-0.012
852	-0.012
852	-0.012
853	-0.012
853	-0.012
854	-0.012
854	-0.012
854	-0.012
855	-0.012
855	-0.012
856	-0.011
856	-0.011
857	-0.01
857	-0.009
857	-0.009
858	-0.008
858	-0.007
859	-0.007
859	-0.006
860	-0.005
860	-0.004
860	-0.003
861	-0.003
861	-0.003
862	-0.003
862	-0.003
863	-0.003
863	-0.003
863	-0.003
864	-0.003
864	-0.003
865	-0.004
865	-0.004
866	-0.004
866	-0.004
866	-0.003
867	-0.003
867	-0.003
868	-0.002
868	-0.002
869	-0.002
869	-0.002
869	-0.002
870	-0.002
870	-0.001
871	-0.001
871	-0.001
872	-0.002
872	-0.002
872	-0.002
873	-0.002
873	-0.003
874	-0.003
874	-0.003
875	-0.004
875	-0.005
875	-0.005
876	-0.006
876	-0.006
877	-0.007
877	-0.007
878	-0.007
878	-0.006
878	-0.006
879	-0.005
879	-0.004
880	-0.003
880	-0.002
881	-0.001
881	-0
881	0.001
882	0.002
882	0.003
883	0.004
883	0.005
884	0.006
884	0.007
884	0.007
885	0.008
885	0.008
886	0.009
886	0.009
887	0.009
887	0.009
887	0.009
888	0.009
888	0.009
889	0.01
889	0.01
890	0.011
890	0.011
890	0.012
891	0.013
891	0.013
892	0.014
892	0.015
893	0.016
893	0.016
893	0.017
894	0.018
894	0.018
895	0.019
895	0.019
895	0.019
896	0.019
896	0.019
897	0.018
897	0.017
898	0.016
898	0.015
898	0.014
899	0.013
899	0.011
900	0.01
900	0.009
901	0.007
901	0.006
901	0.006
902	0.005
902	0.004
903	0.003
903	0.003
904	0.003
904	0.003
904	0.003
905	0.003
905	0.004
906	0.004
906	0.004
907	0.005
907	0.005
907	0.005
908	0.004
908	0.004
909	0.003
909	0.003
910	0.002
910	0.002
910	0.001
911	0.001
911	0.001
912	0.001
912	0.002
913	0.003
913	0.004
913	0.005
914	0.007
914	0.008
915	0.01
915	0.011
916	0.012
916	0.013
916	0.013
917	0.014
917	0.014
918	0.014
918	0.014
918	0.014
919	0.014
919	0.013
920	0.013
920	0.013
921	0.012
921	0.012
921	0.011
922	0.011
922	0.011
923	0.01
923	0.009
924	0.008
924	0.008
924	0.007
925	0.006
925	0.006
926	0.006
926	0.005
927	0.005
927	0.005
927	0.005
928	0.006
928	0.006
929	0.007
929	0.007
930	0.008
930	0.008
930	0.008
931	0.008
931	0.009
932	0.01
932	0.01
933	0.01
933	0.01
933	0.01
934	0.01
934	0.01
935	0.01
935	0.01
935	0.01
936	0.01
936	0.01
937	0.01
937	0.01
938	0.01
938	0.01
938	0.01
939	0.011
939	0.011
940	0.012
940	0.013
941	0.014
941	0.014
941	0.015
942	0.017
942	0.017
943	0.019
943	0.019
944	0.02
944	0.021
944	0.022
945	0.023
945	0.024
946	0.024
946	0.025
946	0.025
947	0.026
947	0.026
948	0.026
948	0.026
949	0.025
949	0.025
949	0.024
950	0.023
950	0.022
951	0.022
951	0.021
952	0.02
952	0.02
952	0.019
953	0.019
953	0.019
954	0.019
954	0.019
955	0.019
955	0.019
955	0.019
956	0.02
956	0.02
957	0.02
957	0.02
957	0.02
958	0.02
958	0.021
959	0.021
959	0.021
960	0.02
960	0.02
960	0.019
961	0.019
961	0.018
962	0.018
962	0.017
963	0.016
963	0.016
963	0.015
964	0.015
964	0.015
965	0.014
965	0.014
966	0.014
966	0.014
966	0.014
967	0.014
967	0.014
968	0.014
968	0.014
968	0.014
969	0.013
969	0.013
970	0.013
970	0.013
971	0.013
971	0.014
971	0.014
972	0.015
972	0.016
973	0.016
973	0.017
974	0.017
974	0.018
974	0.018
975	0.018
975	0.018
976	0.018
976	0.017
976	0.017
977	0.016
977	0.015
978	0.014
978	0.013
979	0.012
979	0.011
979	0.011
980	0.01
980	0.01
981	0.009
981	0.009
982	0.008
982	0.008
982	0.008
983	0.008
983	0.008
984	0.007
984	0.007
984	0.007
985	0.007
985	0.006
986	0.006
986	0.005
987	0.005
987	0.005
987	0.005
988	0.005
988	0.005
989	0.005
989	0.005
990	0.006
990	0.006
990	0.007
991	0.007
991	0.007
992	0.008
992	0.008
992	0.008
993	0.008
993	0.007
994	0.007
994	0.007
995	0.006
995	0.006
995	0.006
996	0.005
996	0.004
997	0.004
997	0.004
997	0.003
998	0.003
998	0.003
999	0.003
999	0.003
1000	0.003
1000	0.003
1000	0.003
1001	0.004
1001	0.004
1002	0.004
1002	0.004
1003	0.005
1003	0.004
1003	0.004
1004	0.004
1004	0.003
1005	0.003
1005	0.002
1005	0.002
1006	0.001
1006	0.001
1007	0
1007	-0
1008	-0
1008	0
1008	0.001
1009	0.001
1009	0.002
1010	0.003
1010	0.004
1010	0.005
1011	0.006
1011	0.007
1012	0.008
1012	0.009
1013	0.009
1013	0.01
1013	0.01
1014	0.009
1014	0.009
1015	0.009
1015	0.009
1016	0.008
1016	0.008
1016	0.008
1017	0.008
1017	0.008
1018	0.008
1018	0.009
1018	0.01
1019	0.01
1019	0.011
1020	0.011
1020	0.012
1021	0.012
1021	0.012
1021	0.012
1022	0.012
1022	0.012
1023	0.012
1023	0.012
1023	0.012
1024	0.012
1024	0.011
1025	0.011
1025	0.012
1026	0.012
1026	0.012
1026	0.012
1027	0.012
1027	0.013
1028	0.013
1028	0.013
1028	0.013
1029	0.013
1029	0.014
1030	0.013
1030	0.013
1031	0.013
1031	0.013
1031	0.012
1032	0.012
1032	0.012
1033	0.011
1033	0.011
1033	0.011
1034	0.01
1034	0.009
1035	0.009
1035	0.008
1036	0.008
1036	0.008
1036	0.008
1037	0.008
1037	0.008
1038	0.009
1038	0.009
1039	0.01
1039	0.011
1039	0.011
1040	0.012
1040	0.013
1041	0.014
1041	0.015
1041	0.015
1042	0.016
1042	0.017
1043	0.018
1043	0.019
1044	0.021
1044	0.022
1044	0.023
1045	0.024
1045	0.026
1046	0.027
1046	0.028
1046	0.03
1047	0.032
1047	0.034
1048	0.035
1048	0.036
1049	0.037
1049	0.038
1049	0.038
1050	0.038
1050	0.038
1051	0.037
1051	0.036
1051	0.036
1052	0.035
1052	0.034
1053	0.033
1053	0.032
1053	0.031
1054	0.031
1054	0.03
1055	0.03
1055	0.029
1056	0.028
1056	0.027
1056	0.026
1057	0.025
1057	0.025
1058	0.025
1058	0.025
1058	0.025
1059	0.025
1059	0.026
1060	0.026
1060	0.027
1061	0.028
1061	0.029
1061	0.03
1062	0.031
1062	0.031
1063	0.032
1063	0.033
1063	0.034
1064	0.036
1064	0.038
1065	0.039
1065	0.04
1066	0.043
1066	0.045
1066	0.047
1067	0.05
1067	0.052
1068	0.055
1068	0.056
1068	0.058
1069	0.059
1069	0.06
1070	0.061
1070	0.061
1071	0.062
1071	0.063
1071	0.064
1072	0.065
1072	0.066
1073	0.068
1073	0.069
1073	0.07
1074	0.071
1074	0.072
1075	0.073
1075	0.073
1076	0.073
1076	0.074
1076	0.074
1077	0.074
1077	0.075
1078	0.076
1078	0.078
1078	0.08
1079	0.082
1079	0.086
1080	0.088
1080	0.092
1080	0.094
1081	0.098
1081	0.102
1082	0.105
1082	0.108
1083	0.111
1083	0.114
1083	0.118
1084	0.121
1084	0.125
1085	0.129
1085	0.133
1085	0.137
1086	0.14
1086	0.144
1087	0.149
1087	0.153
1088	0.157
1088	0.161
1088	0.167
1089	0.172
1089	0.177
1090	0.183
1090	0.19
1090	0.197
1091	0.204
1091	0.213
1092	0.222
1092	0.233
1092	0.243
1093	0.253
1093	0.265
1094	0.278
1094	0.291
1095	0.306
1095	0.322
1095	0.342
1096	0.362
1096	0.385
1097	0.411
1097	0.438
1097	0.47
1098	0.501
1098	0.54
1099	0.584
1099	0.635
1100	0.699
1100	0.776
1100	0.875
1101	1.014
1101	1.241
1102	1.872
1102	-0
1102	-0
1103	-0
1103	-0
1104	-0
1104	-0
1104	-0
1105	-0
1105	-0
1106	-0
1106	-0
1107	-0
1107	-0
1107	-0
1108	-0
1108	-0
1109	-0
1109	-0
1109	-0
1110	-0
1110	-0
1111	-0
1111	-0
