Data from 15c-2-4a_Absorbance__1040__01040.txt Node

Date: Thu Jan 25 10:38:50 CET 2024
User: Marek
Spectrometer: MAYP115816
Trigger mode: 0
Integration Time (sec): 2.000000E-1
Scans to average: 10
Electric dark correction enabled: true
Nonlinearity correction enabled: true
Boxcar width: 5
XAxis mode: Wavelengths
Number of Pixels in Spectrum: 2068
>>>>>Begin Spectral Data<<<<<
199	-2.16
199	-1.989
200	-1.835
200	-1.713
201	-1.635
201	-1.578
202	-1.495
202	-1.433
203	-1.381
203	-1.334
204	-1.308
204	-1.28
205	-1.259
205	-1.248
205	-1.242
206	-1.237
206	-1.234
207	-1.234
207	-1.23
208	-1.226
208	-1.223
209	-1.218
209	-1.215
210	-1.213
210	-1.21
211	-1.209
211	-1.208
212	-1.205
212	-1.202
213	-1.2
213	-1.201
213	-1.201
214	-1.2
214	-1.198
215	-1.196
215	-1.194
216	-1.191
216	-1.19
217	-1.188
217	-1.185
218	-1.184
218	-1.181
219	-1.179
219	-1.176
220	-1.176
220	-1.172
221	-1.169
221	-1.167
221	-1.163
222	-1.16
222	-1.159
223	-1.154
223	-1.148
224	-1.141
224	-1.132
225	-1.122
225	-1.114
226	-1.103
226	-1.091
227	-1.076
227	-1.063
228	-1.043
228	-1.024
229	-1.002
229	-0.978
229	-0.951
230	-0.922
230	-0.891
231	-0.857
231	-0.817
232	-0.776
232	-0.732
233	-0.686
233	-0.638
234	-0.589
234	-0.54
235	-0.491
235	-0.442
236	-0.393
236	-0.348
236	-0.302
237	-0.259
237	-0.218
238	-0.178
238	-0.142
239	-0.107
239	-0.074
240	-0.044
240	-0.015
241	0.011
241	0.035
242	0.058
242	0.079
243	0.098
243	0.117
243	0.133
244	0.148
244	0.162
245	0.175
245	0.187
246	0.198
246	0.209
247	0.218
247	0.227
248	0.236
248	0.243
249	0.251
249	0.257
250	0.264
250	0.27
250	0.276
251	0.281
251	0.286
252	0.291
252	0.295
253	0.3
253	0.303
254	0.307
254	0.311
255	0.314
255	0.317
256	0.32
256	0.323
257	0.326
257	0.328
258	0.33
258	0.331
258	0.333
259	0.334
259	0.336
260	0.337
260	0.338
261	0.339
261	0.339
262	0.34
262	0.34
263	0.341
263	0.341
264	0.342
264	0.342
265	0.342
265	0.342
265	0.342
266	0.342
266	0.342
267	0.342
267	0.341
268	0.341
268	0.34
269	0.34
269	0.339
270	0.338
270	0.337
271	0.335
271	0.334
272	0.333
272	0.332
272	0.331
273	0.33
273	0.329
274	0.327
274	0.326
275	0.325
275	0.324
276	0.322
276	0.321
277	0.319
277	0.317
278	0.315
278	0.313
278	0.311
279	0.31
279	0.309
280	0.307
280	0.306
281	0.305
281	0.304
282	0.303
282	0.303
283	0.302
283	0.302
284	0.301
284	0.3
285	0.298
285	0.297
285	0.296
286	0.295
286	0.294
287	0.292
287	0.291
288	0.29
288	0.289
289	0.288
289	0.287
290	0.286
290	0.286
291	0.284
291	0.284
292	0.283
292	0.282
292	0.281
293	0.28
293	0.279
294	0.279
294	0.278
295	0.278
295	0.277
296	0.276
296	0.276
297	0.275
297	0.274
298	0.274
298	0.273
298	0.273
299	0.272
299	0.272
300	0.271
300	0.27
301	0.269
301	0.269
302	0.268
302	0.268
303	0.267
303	0.266
304	0.266
304	0.265
305	0.265
305	0.264
305	0.263
306	0.263
306	0.262
307	0.262
307	0.261
308	0.26
308	0.26
309	0.259
309	0.259
310	0.258
310	0.257
311	0.257
311	0.256
311	0.255
312	0.255
312	0.254
313	0.253
313	0.253
314	0.252
314	0.251
315	0.251
315	0.25
316	0.249
316	0.248
317	0.248
317	0.247
318	0.246
318	0.245
318	0.244
319	0.244
319	0.243
320	0.242
320	0.242
321	0.241
321	0.24
322	0.239
322	0.239
323	0.238
323	0.237
324	0.236
324	0.236
324	0.235
325	0.234
325	0.233
326	0.233
326	0.232
327	0.231
327	0.231
328	0.23
328	0.229
329	0.229
329	0.228
330	0.227
330	0.227
330	0.226
331	0.225
331	0.224
332	0.224
332	0.223
333	0.222
333	0.222
334	0.221
334	0.22
335	0.22
335	0.219
336	0.218
336	0.218
336	0.217
337	0.217
337	0.216
338	0.215
338	0.215
339	0.214
339	0.214
340	0.213
340	0.213
341	0.212
341	0.212
342	0.211
342	0.21
342	0.21
343	0.209
343	0.209
344	0.208
344	0.207
345	0.207
345	0.206
346	0.205
346	0.205
347	0.204
347	0.204
348	0.203
348	0.202
348	0.202
349	0.201
349	0.2
350	0.2
350	0.199
351	0.198
351	0.198
352	0.197
352	0.197
353	0.196
353	0.195
354	0.194
354	0.194
354	0.193
355	0.192
355	0.191
356	0.19
356	0.189
357	0.188
357	0.188
358	0.188
358	0.188
359	0.189
359	0.189
360	0.19
360	0.191
360	0.191
361	0.192
361	0.192
362	0.193
362	0.193
363	0.193
363	0.193
364	0.192
364	0.192
365	0.191
365	0.191
366	0.191
366	0.19
366	0.19
367	0.189
367	0.189
368	0.189
368	0.189
369	0.188
369	0.188
370	0.188
370	0.187
371	0.187
371	0.186
372	0.186
372	0.186
372	0.185
373	0.185
373	0.185
374	0.185
374	0.184
375	0.184
375	0.184
376	0.184
376	0.184
377	0.184
377	0.185
378	0.185
378	0.185
378	0.185
379	0.185
379	0.186
380	0.186
380	0.186
381	0.186
381	0.185
382	0.185
382	0.184
383	0.184
383	0.184
383	0.183
384	0.183
384	0.182
385	0.182
385	0.182
386	0.182
386	0.182
387	0.182
387	0.182
388	0.182
388	0.181
389	0.181
389	0.181
389	0.181
390	0.181
390	0.182
391	0.182
391	0.182
392	0.182
392	0.182
393	0.182
393	0.182
394	0.182
394	0.182
394	0.181
395	0.181
395	0.181
396	0.18
396	0.18
397	0.18
397	0.181
398	0.181
398	0.181
399	0.181
399	0.18
400	0.18
400	0.18
400	0.18
401	0.179
401	0.178
402	0.177
402	0.176
403	0.176
403	0.176
404	0.176
404	0.175
405	0.175
405	0.175
405	0.174
406	0.174
406	0.174
407	0.174
407	0.173
408	0.173
408	0.172
409	0.172
409	0.171
410	0.171
410	0.171
411	0.171
411	0.171
411	0.171
412	0.171
412	0.17
413	0.17
413	0.17
414	0.17
414	0.17
415	0.169
415	0.169
416	0.168
416	0.168
416	0.168
417	0.167
417	0.167
418	0.167
418	0.167
419	0.167
419	0.168
420	0.168
420	0.169
421	0.17
421	0.17
421	0.17
422	0.17
422	0.17
423	0.17
423	0.17
424	0.169
424	0.169
425	0.168
425	0.167
426	0.166
426	0.166
427	0.166
427	0.166
427	0.166
428	0.167
428	0.167
429	0.168
429	0.168
430	0.169
430	0.168
431	0.168
431	0.168
432	0.168
432	0.167
432	0.166
433	0.165
433	0.164
434	0.163
434	0.163
435	0.163
435	0.163
436	0.163
436	0.163
437	0.163
437	0.163
437	0.163
438	0.163
438	0.163
439	0.163
439	0.163
440	0.162
440	0.162
441	0.162
441	0.162
442	0.162
442	0.163
442	0.163
443	0.163
443	0.163
444	0.163
444	0.164
445	0.164
445	0.164
446	0.164
446	0.164
447	0.164
447	0.163
447	0.163
448	0.163
448	0.163
449	0.163
449	0.163
450	0.163
450	0.162
451	0.162
451	0.162
452	0.161
452	0.16
452	0.16
453	0.16
453	0.159
454	0.159
454	0.158
455	0.157
455	0.157
456	0.157
456	0.157
457	0.157
457	0.157
458	0.157
458	0.157
458	0.157
459	0.157
459	0.157
460	0.157
460	0.156
461	0.156
461	0.155
462	0.155
462	0.155
463	0.155
463	0.156
463	0.156
464	0.157
464	0.157
465	0.157
465	0.158
466	0.158
466	0.158
467	0.158
467	0.157
467	0.157
468	0.155
468	0.153
469	0.152
469	0.15
470	0.149
470	0.148
471	0.148
471	0.148
472	0.147
472	0.148
472	0.148
473	0.149
473	0.15
474	0.151
474	0.153
475	0.154
475	0.155
476	0.155
476	0.156
477	0.156
477	0.156
477	0.157
478	0.158
478	0.158
479	0.159
479	0.159
480	0.16
480	0.161
481	0.162
481	0.163
482	0.164
482	0.165
482	0.167
483	0.168
483	0.171
484	0.175
484	0.177
485	0.179
485	0.181
486	0.182
486	0.183
487	0.183
487	0.184
487	0.184
488	0.183
488	0.182
489	0.18
489	0.178
490	0.177
490	0.176
491	0.175
491	0.176
492	0.177
492	0.177
492	0.178
493	0.178
493	0.179
494	0.181
494	0.183
495	0.185
495	0.187
496	0.188
496	0.189
496	0.19
497	0.191
497	0.192
498	0.193
498	0.193
499	0.193
499	0.194
500	0.194
500	0.195
501	0.197
501	0.198
501	0.2
502	0.202
502	0.203
503	0.205
503	0.207
504	0.208
504	0.208
505	0.209
505	0.21
506	0.21
506	0.211
506	0.211
507	0.211
507	0.211
508	0.212
508	0.213
509	0.213
509	0.214
510	0.214
510	0.214
511	0.214
511	0.215
511	0.215
512	0.216
512	0.216
513	0.215
513	0.214
514	0.212
514	0.212
515	0.211
515	0.211
515	0.211
516	0.21
516	0.21
517	0.21
517	0.21
518	0.209
518	0.208
519	0.207
519	0.205
520	0.202
520	0.2
520	0.197
521	0.194
521	0.192
522	0.19
522	0.189
523	0.189
523	0.19
524	0.192
524	0.195
524	0.198
525	0.202
525	0.205
526	0.208
526	0.21
527	0.213
527	0.215
528	0.217
528	0.219
529	0.219
529	0.22
529	0.22
530	0.22
530	0.219
531	0.219
531	0.219
532	0.219
532	0.219
533	0.218
533	0.218
533	0.218
534	0.218
534	0.217
535	0.216
535	0.216
536	0.215
536	0.215
537	0.214
537	0.213
538	0.212
538	0.211
538	0.209
539	0.209
539	0.208
540	0.207
540	0.205
541	0.204
541	0.202
542	0.2
542	0.198
542	0.197
543	0.196
543	0.194
544	0.193
544	0.191
545	0.19
545	0.19
546	0.189
546	0.189
547	0.188
547	0.186
547	0.184
548	0.181
548	0.179
549	0.177
549	0.175
550	0.173
550	0.171
551	0.168
551	0.165
551	0.163
552	0.162
552	0.16
553	0.159
553	0.159
554	0.158
554	0.157
555	0.155
555	0.152
556	0.149
556	0.146
556	0.143
557	0.14
557	0.138
558	0.135
558	0.133
559	0.131
559	0.13
560	0.129
560	0.128
560	0.128
561	0.127
561	0.127
562	0.127
562	0.126
563	0.125
563	0.123
564	0.12
564	0.117
564	0.115
565	0.113
565	0.111
566	0.11
566	0.108
567	0.108
567	0.108
568	0.108
568	0.11
568	0.111
569	0.113
569	0.115
570	0.116
570	0.116
571	0.116
571	0.117
572	0.117
572	0.117
573	0.117
573	0.117
573	0.116
574	0.115
574	0.114
575	0.114
575	0.115
576	0.116
576	0.115
577	0.114
577	0.113
577	0.112
578	0.111
578	0.111
579	0.111
579	0.112
580	0.112
580	0.11
581	0.108
581	0.105
581	0.104
582	0.103
582	0.103
583	0.104
583	0.104
584	0.102
584	0.098
585	0.096
585	0.095
585	0.095
586	0.094
586	0.094
587	0.092
587	0.09
588	0.087
588	0.084
589	0.081
589	0.079
590	0.078
590	0.076
590	0.076
591	0.076
591	0.076
592	0.076
592	0.075
593	0.075
593	0.075
594	0.075
594	0.075
594	0.074
595	0.074
595	0.073
596	0.072
596	0.072
597	0.074
597	0.075
598	0.076
598	0.077
598	0.078
599	0.078
599	0.078
600	0.077
600	0.076
601	0.075
601	0.073
602	0.071
602	0.07
602	0.069
603	0.067
603	0.067
604	0.067
604	0.068
605	0.069
605	0.07
606	0.07
606	0.07
606	0.069
607	0.069
607	0.069
608	0.068
608	0.067
609	0.066
609	0.065
610	0.064
610	0.063
610	0.062
611	0.063
611	0.064
612	0.065
612	0.066
613	0.068
613	0.069
614	0.07
614	0.07
614	0.071
615	0.071
615	0.07
616	0.07
616	0.07
617	0.069
617	0.067
618	0.066
618	0.064
618	0.063
619	0.062
619	0.062
620	0.063
620	0.064
621	0.064
621	0.065
622	0.065
622	0.066
622	0.066
623	0.066
623	0.067
624	0.068
624	0.068
625	0.068
625	0.068
626	0.069
626	0.069
626	0.069
627	0.069
627	0.069
628	0.07
628	0.07
629	0.071
629	0.071
630	0.07
630	0.07
630	0.07
631	0.07
631	0.07
632	0.07
632	0.07
633	0.071
633	0.071
634	0.072
634	0.074
634	0.076
635	0.078
635	0.08
636	0.081
636	0.083
637	0.084
637	0.085
638	0.086
638	0.088
638	0.089
639	0.089
639	0.09
640	0.091
640	0.092
641	0.094
641	0.096
642	0.098
642	0.1
642	0.102
643	0.104
643	0.106
644	0.109
644	0.111
645	0.113
645	0.115
646	0.117
646	0.12
646	0.123
647	0.126
647	0.13
648	0.132
648	0.135
649	0.138
649	0.141
650	0.144
650	0.147
650	0.149
651	0.152
651	0.154
652	0.155
652	0.157
653	0.159
653	0.166
653	0.18
654	0.146
654	0.12
655	0.126
655	0.129
656	0.131
656	0.133
657	0.136
657	0.138
657	0.139
658	0.138
658	0.128
659	0.16
659	0.204
660	0.205
660	0.206
661	0.208
661	0.21
661	0.212
662	0.215
662	0.218
663	0.221
663	0.225
664	0.228
664	0.23
665	0.233
665	0.236
665	0.239
666	0.242
666	0.244
667	0.247
667	0.249
668	0.252
668	0.254
669	0.256
669	0.259
669	0.262
670	0.266
670	0.269
671	0.272
671	0.274
672	0.276
672	0.278
672	0.279
673	0.281
673	0.283
674	0.284
674	0.285
675	0.285
675	0.285
676	0.287
676	0.289
676	0.29
677	0.292
677	0.294
678	0.296
678	0.297
679	0.298
679	0.3
680	0.301
680	0.303
680	0.303
681	0.303
681	0.304
682	0.306
682	0.307
683	0.309
683	0.312
684	0.314
684	0.315
684	0.316
685	0.316
685	0.317
686	0.318
686	0.318
687	0.317
687	0.317
687	0.315
688	0.314
688	0.313
689	0.312
689	0.313
690	0.313
690	0.313
691	0.313
691	0.313
691	0.313
692	0.313
692	0.313
693	0.313
693	0.314
694	0.313
694	0.312
695	0.312
695	0.314
695	0.315
696	0.315
696	0.314
697	0.314
697	0.313
698	0.312
698	0.31
698	0.308
699	0.306
699	0.303
700	0.299
700	0.296
701	0.294
701	0.292
702	0.29
702	0.288
702	0.286
703	0.284
703	0.283
704	0.281
704	0.279
705	0.278
705	0.277
705	0.276
706	0.274
706	0.273
707	0.272
707	0.271
708	0.269
708	0.268
709	0.267
709	0.265
709	0.262
710	0.259
710	0.256
711	0.254
711	0.251
712	0.249
712	0.247
713	0.245
713	0.244
713	0.242
714	0.239
714	0.237
715	0.235
715	0.233
716	0.23
716	0.228
716	0.226
717	0.223
717	0.221
718	0.218
718	0.215
719	0.213
719	0.21
720	0.208
720	0.205
720	0.202
721	0.199
721	0.195
722	0.191
722	0.187
723	0.185
723	0.182
723	0.18
724	0.177
724	0.175
725	0.173
725	0.171
726	0.169
726	0.167
727	0.165
727	0.163
727	0.161
728	0.159
728	0.156
729	0.155
729	0.154
730	0.152
730	0.15
730	0.148
731	0.146
731	0.144
732	0.143
732	0.141
733	0.14
733	0.138
734	0.135
734	0.132
734	0.129
735	0.127
735	0.125
736	0.121
736	0.119
737	0.116
737	0.114
737	0.111
738	0.109
738	0.106
739	0.103
739	0.101
740	0.099
740	0.098
741	0.096
741	0.094
741	0.091
742	0.087
742	0.083
743	0.08
743	0.078
744	0.076
744	0.073
744	0.071
745	0.069
745	0.066
746	0.064
746	0.063
747	0.062
747	0.061
748	0.06
748	0.059
748	0.058
749	0.057
749	0.056
750	0.055
750	0.054
751	0.053
751	0.052
751	0.052
752	0.052
752	0.051
753	0.049
753	0.048
754	0.048
754	0.047
754	0.046
755	0.046
755	0.046
756	0.045
756	0.043
757	0.042
757	0.041
758	0.04
758	0.039
758	0.038
759	0.037
759	0.035
760	0.032
760	0.029
761	0.026
761	0.025
761	0.023
762	0.021
762	0.02
763	0.019
763	0.017
764	0.015
764	0.012
764	0.01
765	0.008
765	0.007
766	0.005
766	0.004
767	0.003
767	0.001
768	-0.002
768	-0.005
768	-0.007
769	-0.008
769	-0.008
770	-0.009
770	-0.011
771	-0.013
771	-0.015
771	-0.018
772	-0.02
772	-0.022
773	-0.024
773	-0.027
774	-0.03
774	-0.034
775	-0.037
775	-0.041
775	-0.045
776	-0.049
776	-0.052
777	-0.056
777	-0.059
778	-0.063
778	-0.067
778	-0.071
779	-0.074
779	-0.076
780	-0.08
780	-0.085
781	-0.09
781	-0.096
781	-0.101
782	-0.107
782	-0.114
783	-0.121
783	-0.125
784	-0.129
784	-0.133
784	-0.137
785	-0.14
785	-0.144
786	-0.144
786	-0.142
787	-0.138
787	-0.134
788	-0.134
788	-0.135
788	-0.136
789	-0.139
789	-0.139
790	-0.136
790	-0.135
791	-0.136
791	-0.138
791	-0.14
792	-0.135
792	-0.123
793	-0.117
793	-0.112
794	-0.11
794	-0.111
794	-0.114
795	-0.116
795	-0.116
796	-0.116
796	-0.118
797	-0.127
797	-0.138
797	-0.145
798	-0.151
798	-0.154
799	-0.156
799	-0.156
800	-0.156
800	-0.158
801	-0.161
801	-0.162
801	-0.162
802	-0.163
802	-0.164
803	-0.164
803	-0.164
804	-0.162
804	-0.157
804	-0.15
805	-0.146
805	-0.143
806	-0.141
806	-0.14
807	-0.138
807	-0.137
807	-0.137
808	-0.136
808	-0.137
809	-0.141
809	-0.146
810	-0.149
810	-0.151
810	-0.154
811	-0.157
811	-0.158
812	-0.154
812	-0.151
813	-0.152
813	-0.153
813	-0.154
814	-0.156
814	-0.157
815	-0.155
815	-0.153
816	-0.152
816	-0.153
817	-0.158
817	-0.162
817	-0.162
818	-0.162
818	-0.159
819	-0.154
819	-0.151
820	-0.152
820	-0.154
820	-0.155
821	-0.155
821	-0.153
822	-0.15
822	-0.146
823	-0.142
823	-0.14
823	-0.14
824	-0.137
824	-0.13
825	-0.122
825	-0.112
826	-0.102
826	-0.094
826	-0.088
827	-0.081
827	-0.075
828	-0.07
828	-0.065
829	-0.061
829	-0.056
829	-0.053
830	-0.05
830	-0.048
831	-0.044
831	-0.04
832	-0.037
832	-0.034
832	-0.031
833	-0.029
833	-0.028
834	-0.027
834	-0.026
835	-0.025
835	-0.025
835	-0.025
836	-0.025
836	-0.025
837	-0.025
837	-0.025
838	-0.024
838	-0.023
839	-0.023
839	-0.022
839	-0.022
840	-0.021
840	-0.019
841	-0.018
841	-0.017
842	-0.016
842	-0.014
842	-0.013
843	-0.012
843	-0.011
844	-0.01
844	-0.009
845	-0.009
845	-0.008
845	-0.007
846	-0.007
846	-0.006
847	-0.006
847	-0.005
848	-0.004
848	-0.003
848	-0.003
849	-0.002
849	-0.001
850	-0
850	-0
851	0
851	0.001
851	0.001
852	0.001
852	0.001
853	0.001
853	0.001
854	0.002
854	0.002
854	0.002
855	0.003
855	0.003
856	0.003
856	0.003
857	0.004
857	0.004
857	0.004
858	0.004
858	0.005
859	0.005
859	0.005
860	0.006
860	0.007
860	0.008
861	0.009
861	0.01
862	0.01
862	0.011
863	0.012
863	0.013
863	0.013
864	0.014
864	0.014
865	0.015
865	0.015
866	0.015
866	0.015
866	0.016
867	0.016
867	0.017
868	0.017
868	0.017
869	0.017
869	0.017
869	0.017
870	0.017
870	0.017
871	0.017
871	0.016
872	0.016
872	0.015
872	0.015
873	0.014
873	0.013
874	0.012
874	0.011
875	0.01
875	0.009
875	0.008
876	0.007
876	0.006
877	0.006
877	0.006
878	0.006
878	0.006
878	0.006
879	0.007
879	0.008
880	0.009
880	0.01
881	0.011
881	0.012
881	0.013
882	0.014
882	0.015
883	0.016
883	0.017
884	0.018
884	0.018
884	0.018
885	0.019
885	0.019
886	0.019
886	0.019
887	0.018
887	0.018
887	0.017
888	0.017
888	0.016
889	0.016
889	0.017
890	0.017
890	0.018
890	0.018
891	0.019
891	0.019
892	0.02
892	0.02
893	0.021
893	0.022
893	0.023
894	0.023
894	0.023
895	0.023
895	0.023
895	0.023
896	0.023
896	0.023
897	0.023
897	0.023
898	0.022
898	0.021
898	0.02
899	0.019
899	0.018
900	0.017
900	0.016
901	0.016
901	0.015
901	0.014
902	0.014
902	0.013
903	0.013
903	0.013
904	0.013
904	0.014
904	0.014
905	0.014
905	0.015
906	0.016
906	0.016
907	0.016
907	0.016
907	0.016
908	0.016
908	0.016
909	0.015
909	0.015
910	0.015
910	0.015
910	0.015
911	0.015
911	0.015
912	0.016
912	0.017
913	0.018
913	0.019
913	0.02
914	0.021
914	0.022
915	0.023
915	0.024
916	0.024
916	0.025
916	0.025
917	0.026
917	0.026
918	0.025
918	0.025
918	0.024
919	0.023
919	0.022
920	0.021
920	0.02
921	0.019
921	0.017
921	0.016
922	0.015
922	0.015
923	0.014
923	0.014
924	0.013
924	0.013
924	0.013
925	0.013
925	0.014
926	0.015
926	0.015
927	0.016
927	0.016
927	0.017
928	0.018
928	0.018
929	0.019
929	0.02
930	0.02
930	0.02
930	0.02
931	0.019
931	0.019
932	0.019
932	0.019
933	0.019
933	0.019
933	0.018
934	0.018
934	0.019
935	0.019
935	0.019
935	0.019
936	0.02
936	0.02
937	0.02
937	0.02
938	0.019
938	0.019
938	0.018
939	0.018
939	0.018
940	0.017
940	0.017
941	0.018
941	0.018
941	0.018
942	0.019
942	0.02
943	0.021
943	0.022
944	0.022
944	0.023
944	0.024
945	0.026
945	0.026
946	0.027
946	0.028
946	0.028
947	0.029
947	0.029
948	0.029
948	0.029
949	0.029
949	0.028
949	0.028
950	0.027
950	0.027
951	0.027
951	0.026
952	0.026
952	0.026
952	0.026
953	0.026
953	0.026
954	0.026
954	0.026
955	0.026
955	0.026
955	0.026
956	0.026
956	0.026
957	0.025
957	0.025
957	0.024
958	0.024
958	0.023
959	0.023
959	0.023
960	0.023
960	0.023
960	0.024
961	0.024
961	0.024
962	0.024
962	0.024
963	0.024
963	0.024
963	0.024
964	0.023
964	0.023
965	0.022
965	0.022
966	0.021
966	0.02
966	0.02
967	0.019
967	0.018
968	0.018
968	0.018
968	0.018
969	0.018
969	0.018
970	0.018
970	0.018
971	0.018
971	0.019
971	0.019
972	0.02
972	0.021
973	0.022
973	0.022
974	0.023
974	0.023
974	0.024
975	0.024
975	0.024
976	0.024
976	0.024
976	0.024
977	0.023
977	0.022
978	0.021
978	0.021
979	0.02
979	0.019
979	0.019
980	0.018
980	0.018
981	0.017
981	0.017
982	0.017
982	0.016
982	0.016
983	0.016
983	0.016
984	0.016
984	0.015
984	0.015
985	0.015
985	0.015
986	0.014
986	0.014
987	0.013
987	0.013
987	0.013
988	0.013
988	0.013
989	0.013
989	0.013
990	0.013
990	0.013
990	0.013
991	0.014
991	0.014
992	0.014
992	0.014
992	0.013
993	0.013
993	0.013
994	0.012
994	0.011
995	0.011
995	0.01
995	0.01
996	0.009
996	0.009
997	0.008
997	0.008
997	0.008
998	0.008
998	0.009
999	0.009
999	0.009
1000	0.01
1000	0.01
1000	0.011
1001	0.012
1001	0.012
1002	0.012
1002	0.012
1003	0.012
1003	0.012
1003	0.011
1004	0.011
1004	0.01
1005	0.01
1005	0.009
1005	0.008
1006	0.008
1006	0.007
1007	0.007
1007	0.007
1008	0.007
1008	0.007
1008	0.007
1009	0.007
1009	0.008
1010	0.008
1010	0.009
1010	0.01
1011	0.011
1011	0.012
1012	0.013
1012	0.014
1013	0.015
1013	0.015
1013	0.016
1014	0.017
1014	0.017
1015	0.017
1015	0.017
1016	0.018
1016	0.018
1016	0.018
1017	0.018
1017	0.018
1018	0.019
1018	0.019
1018	0.019
1019	0.019
1019	0.019
1020	0.019
1020	0.019
1021	0.019
1021	0.019
1021	0.018
1022	0.018
1022	0.018
1023	0.018
1023	0.018
1023	0.018
1024	0.018
1024	0.017
1025	0.018
1025	0.018
1026	0.018
1026	0.018
1026	0.018
1027	0.018
1027	0.019
1028	0.019
1028	0.019
1028	0.02
1029	0.02
1029	0.02
1030	0.02
1030	0.02
1031	0.02
1031	0.02
1031	0.02
1032	0.02
1032	0.02
1033	0.02
1033	0.019
1033	0.019
1034	0.019
1034	0.019
1035	0.019
1035	0.018
1036	0.018
1036	0.019
1036	0.019
1037	0.019
1037	0.02
1038	0.02
1038	0.02
1039	0.02
1039	0.021
1039	0.021
1040	0.022
1040	0.022
1041	0.022
1041	0.022
1041	0.023
1042	0.023
1042	0.023
1043	0.024
1043	0.025
1044	0.026
1044	0.026
1044	0.028
1045	0.029
1045	0.03
1046	0.031
1046	0.032
1046	0.034
1047	0.036
1047	0.038
1048	0.039
1048	0.041
1049	0.042
1049	0.043
1049	0.044
1050	0.044
1050	0.045
1051	0.045
1051	0.044
1051	0.045
1052	0.044
1052	0.044
1053	0.043
1053	0.042
1053	0.041
1054	0.041
1054	0.04
1055	0.04
1055	0.039
1056	0.038
1056	0.037
1056	0.036
1057	0.036
1057	0.035
1058	0.035
1058	0.035
1058	0.036
1059	0.036
1059	0.036
1060	0.036
1060	0.036
1061	0.037
1061	0.037
1061	0.038
1062	0.038
1062	0.038
1063	0.038
1063	0.039
1063	0.039
1064	0.04
1064	0.041
1065	0.042
1065	0.044
1066	0.046
1066	0.047
1066	0.05
1067	0.052
1067	0.054
1068	0.056
1068	0.058
1068	0.06
1069	0.061
1069	0.063
1070	0.064
1070	0.066
1071	0.067
1071	0.069
1071	0.07
1072	0.072
1072	0.073
1073	0.075
1073	0.077
1073	0.079
1074	0.08
1074	0.082
1075	0.082
1075	0.083
1076	0.083
1076	0.084
1076	0.085
1077	0.086
1077	0.087
1078	0.088
1078	0.09
1078	0.092
1079	0.094
1079	0.097
1080	0.099
1080	0.101
1080	0.104
1081	0.106
1081	0.108
1082	0.11
1082	0.111
1083	0.114
1083	0.116
1083	0.119
1084	0.122
1084	0.124
1085	0.128
1085	0.13
1085	0.134
1086	0.137
1086	0.14
1087	0.144
1087	0.147
1088	0.149
1088	0.153
1088	0.157
1089	0.161
1089	0.165
1090	0.171
1090	0.176
1090	0.182
1091	0.189
1091	0.198
1092	0.205
1092	0.215
1092	0.224
1093	0.233
1093	0.245
1094	0.256
1094	0.267
1095	0.28
1095	0.293
1095	0.309
1096	0.325
1096	0.343
1097	0.364
1097	0.386
1097	0.411
1098	0.437
1098	0.468
1099	0.503
1099	0.544
1100	0.595
1100	0.654
1100	0.725
1101	0.819
1101	0.94
1102	1.144
1102	1.546
1102	-0
1103	-0
1103	-0
1104	-0
1104	-0
1104	-0
1105	-0
1105	-0
1106	-0
1106	-0
1107	-0
1107	-0
1107	-0
1108	-0
1108	-0
1109	-0
1109	-0
1109	-0
1110	-0
1110	-0
1111	-0
1111	-0
