Data from 15c-2-4a_Absorbance__3549__03549.txt Node

Date: Thu Jan 25 12:02:28 CET 2024
User: Marek
Spectrometer: MAYP115816
Trigger mode: 0
Integration Time (sec): 2.000000E-1
Scans to average: 10
Electric dark correction enabled: true
Nonlinearity correction enabled: true
Boxcar width: 5
XAxis mode: Wavelengths
Number of Pixels in Spectrum: 2068
>>>>>Begin Spectral Data<<<<<
199	-2.197
199	-2.026
200	-1.872
200	-1.75
201	-1.671
201	-1.614
202	-1.531
202	-1.47
203	-1.418
203	-1.371
204	-1.345
204	-1.317
205	-1.296
205	-1.285
205	-1.279
206	-1.274
206	-1.271
207	-1.271
207	-1.268
208	-1.262
208	-1.259
209	-1.254
209	-1.251
210	-1.248
210	-1.245
211	-1.244
211	-1.243
212	-1.239
212	-1.237
213	-1.235
213	-1.235
213	-1.235
214	-1.235
214	-1.234
215	-1.232
215	-1.23
216	-1.228
216	-1.227
217	-1.225
217	-1.222
218	-1.221
218	-1.218
219	-1.216
219	-1.213
220	-1.213
220	-1.208
221	-1.205
221	-1.202
221	-1.199
222	-1.196
222	-1.195
223	-1.19
223	-1.184
224	-1.177
224	-1.168
225	-1.159
225	-1.15
226	-1.139
226	-1.127
227	-1.112
227	-1.098
228	-1.078
228	-1.059
229	-1.037
229	-1.013
229	-0.986
230	-0.956
230	-0.925
231	-0.889
231	-0.849
232	-0.807
232	-0.761
233	-0.714
233	-0.664
234	-0.615
234	-0.563
235	-0.512
235	-0.461
236	-0.41
236	-0.362
236	-0.313
237	-0.267
237	-0.222
238	-0.179
238	-0.139
239	-0.101
239	-0.064
240	-0.03
240	0.002
241	0.032
241	0.061
242	0.087
242	0.111
243	0.134
243	0.155
243	0.174
244	0.193
244	0.209
245	0.224
245	0.239
246	0.252
246	0.264
247	0.276
247	0.287
248	0.297
248	0.306
249	0.315
249	0.323
250	0.331
250	0.338
250	0.345
251	0.352
251	0.357
252	0.363
252	0.369
253	0.374
253	0.378
254	0.383
254	0.387
255	0.391
255	0.395
256	0.398
256	0.401
257	0.404
257	0.407
258	0.409
258	0.411
258	0.413
259	0.415
259	0.416
260	0.418
260	0.419
261	0.42
261	0.421
262	0.421
262	0.422
263	0.423
263	0.424
264	0.424
264	0.424
265	0.425
265	0.425
265	0.424
266	0.425
266	0.424
267	0.424
267	0.423
268	0.422
268	0.422
269	0.421
269	0.42
270	0.419
270	0.418
271	0.417
271	0.415
272	0.414
272	0.413
272	0.412
273	0.41
273	0.409
274	0.407
274	0.406
275	0.404
275	0.402
276	0.401
276	0.399
277	0.397
277	0.395
278	0.392
278	0.389
278	0.387
279	0.385
279	0.384
280	0.383
280	0.381
281	0.38
281	0.379
282	0.377
282	0.377
283	0.376
283	0.375
284	0.374
284	0.373
285	0.372
285	0.37
285	0.369
286	0.367
286	0.366
287	0.365
287	0.363
288	0.362
288	0.36
289	0.359
289	0.358
290	0.357
290	0.356
291	0.354
291	0.353
292	0.352
292	0.35
292	0.349
293	0.348
293	0.347
294	0.346
294	0.344
295	0.343
295	0.342
296	0.342
296	0.341
297	0.34
297	0.339
298	0.338
298	0.337
298	0.336
299	0.335
299	0.334
300	0.333
300	0.332
301	0.331
301	0.331
302	0.33
302	0.329
303	0.328
303	0.327
304	0.326
304	0.326
305	0.325
305	0.324
305	0.323
306	0.322
306	0.321
307	0.32
307	0.319
308	0.318
308	0.317
309	0.316
309	0.315
310	0.314
310	0.313
311	0.312
311	0.312
311	0.311
312	0.31
312	0.309
313	0.308
313	0.307
314	0.306
314	0.305
315	0.304
315	0.303
316	0.302
316	0.301
317	0.3
317	0.299
318	0.298
318	0.296
318	0.296
319	0.295
319	0.294
320	0.293
320	0.292
321	0.291
321	0.289
322	0.288
322	0.287
323	0.287
323	0.286
324	0.285
324	0.284
324	0.282
325	0.281
325	0.281
326	0.28
326	0.279
327	0.278
327	0.277
328	0.276
328	0.276
329	0.275
329	0.274
330	0.273
330	0.272
330	0.271
331	0.27
331	0.269
332	0.268
332	0.267
333	0.266
333	0.265
334	0.264
334	0.263
335	0.262
335	0.261
336	0.26
336	0.26
336	0.259
337	0.258
337	0.257
338	0.256
338	0.255
339	0.255
339	0.254
340	0.253
340	0.252
341	0.252
341	0.251
342	0.25
342	0.249
342	0.249
343	0.248
343	0.247
344	0.246
344	0.246
345	0.245
345	0.244
346	0.243
346	0.243
347	0.242
347	0.241
348	0.24
348	0.239
348	0.238
349	0.237
349	0.237
350	0.236
350	0.235
351	0.234
351	0.233
352	0.232
352	0.231
353	0.231
353	0.23
354	0.228
354	0.227
354	0.226
355	0.225
355	0.223
356	0.223
356	0.222
357	0.221
357	0.221
358	0.221
358	0.221
359	0.222
359	0.223
360	0.223
360	0.224
360	0.225
361	0.225
361	0.226
362	0.226
362	0.226
363	0.226
363	0.226
364	0.225
364	0.224
365	0.224
365	0.223
366	0.223
366	0.222
366	0.222
367	0.221
367	0.221
368	0.22
368	0.22
369	0.219
369	0.219
370	0.218
370	0.218
371	0.217
371	0.216
372	0.216
372	0.215
372	0.215
373	0.214
373	0.214
374	0.214
374	0.214
375	0.214
375	0.214
376	0.214
376	0.214
377	0.214
377	0.214
378	0.214
378	0.214
378	0.214
379	0.214
379	0.214
380	0.214
380	0.214
381	0.213
381	0.213
382	0.213
382	0.212
383	0.212
383	0.211
383	0.211
384	0.21
384	0.21
385	0.209
385	0.209
386	0.209
386	0.209
387	0.209
387	0.209
388	0.208
388	0.208
389	0.208
389	0.208
389	0.208
390	0.208
390	0.208
391	0.208
391	0.209
392	0.209
392	0.209
393	0.209
393	0.209
394	0.208
394	0.208
394	0.208
395	0.207
395	0.207
396	0.206
396	0.206
397	0.206
397	0.206
398	0.206
398	0.206
399	0.205
399	0.205
400	0.205
400	0.204
400	0.204
401	0.203
401	0.202
402	0.201
402	0.2
403	0.199
403	0.199
404	0.199
404	0.199
405	0.198
405	0.198
405	0.197
406	0.197
406	0.197
407	0.197
407	0.197
408	0.196
408	0.195
409	0.195
409	0.194
410	0.194
410	0.194
411	0.194
411	0.194
411	0.194
412	0.193
412	0.192
413	0.192
413	0.192
414	0.191
414	0.191
415	0.191
415	0.19
416	0.19
416	0.189
416	0.188
417	0.188
417	0.188
418	0.188
418	0.188
419	0.188
419	0.188
420	0.189
420	0.19
421	0.19
421	0.19
421	0.191
422	0.191
422	0.191
423	0.191
423	0.19
424	0.19
424	0.189
425	0.188
425	0.187
426	0.186
426	0.186
427	0.185
427	0.185
427	0.186
428	0.186
428	0.187
429	0.187
429	0.188
430	0.188
430	0.188
431	0.188
431	0.187
432	0.187
432	0.187
432	0.185
433	0.184
433	0.183
434	0.182
434	0.182
435	0.182
435	0.182
436	0.182
436	0.182
437	0.182
437	0.182
437	0.182
438	0.182
438	0.181
439	0.181
439	0.181
440	0.18
440	0.18
441	0.18
441	0.18
442	0.18
442	0.18
442	0.18
443	0.18
443	0.18
444	0.181
444	0.181
445	0.181
445	0.181
446	0.181
446	0.181
447	0.181
447	0.181
447	0.181
448	0.181
448	0.18
449	0.18
449	0.18
450	0.179
450	0.179
451	0.178
451	0.178
452	0.177
452	0.176
452	0.176
453	0.175
453	0.175
454	0.174
454	0.173
455	0.173
455	0.173
456	0.173
456	0.172
457	0.172
457	0.172
458	0.172
458	0.172
458	0.173
459	0.173
459	0.173
460	0.173
460	0.172
461	0.171
461	0.171
462	0.171
462	0.171
463	0.171
463	0.172
463	0.172
464	0.173
464	0.173
465	0.173
465	0.173
466	0.173
466	0.174
467	0.174
467	0.173
467	0.172
468	0.17
468	0.168
469	0.166
469	0.164
470	0.163
470	0.162
471	0.162
471	0.162
472	0.162
472	0.162
472	0.163
473	0.164
473	0.165
474	0.167
474	0.168
475	0.169
475	0.17
476	0.17
476	0.171
477	0.171
477	0.171
477	0.172
478	0.172
478	0.173
479	0.173
479	0.174
480	0.175
480	0.176
481	0.177
481	0.178
482	0.179
482	0.18
482	0.182
483	0.184
483	0.187
484	0.191
484	0.194
485	0.196
485	0.198
486	0.2
486	0.201
487	0.202
487	0.202
487	0.202
488	0.202
488	0.2
489	0.198
489	0.195
490	0.194
490	0.192
491	0.192
491	0.192
492	0.193
492	0.194
492	0.194
493	0.195
493	0.196
494	0.199
494	0.201
495	0.204
495	0.206
496	0.207
496	0.208
496	0.21
497	0.211
497	0.212
498	0.212
498	0.213
499	0.213
499	0.214
500	0.215
500	0.216
501	0.218
501	0.219
501	0.221
502	0.223
502	0.225
503	0.227
503	0.228
504	0.23
504	0.23
505	0.231
505	0.232
506	0.232
506	0.233
506	0.233
507	0.233
507	0.234
508	0.234
508	0.235
509	0.235
509	0.236
510	0.236
510	0.236
511	0.236
511	0.238
511	0.238
512	0.238
512	0.238
513	0.237
513	0.235
514	0.233
514	0.233
515	0.233
515	0.233
515	0.233
516	0.232
516	0.232
517	0.232
517	0.231
518	0.23
518	0.228
519	0.226
519	0.223
520	0.22
520	0.216
520	0.212
521	0.21
521	0.208
522	0.207
522	0.207
523	0.208
523	0.21
524	0.214
524	0.218
524	0.222
525	0.226
525	0.229
526	0.232
526	0.234
527	0.237
527	0.238
528	0.24
528	0.241
529	0.241
529	0.241
529	0.24
530	0.24
530	0.24
531	0.239
531	0.239
532	0.239
532	0.238
533	0.238
533	0.238
533	0.238
534	0.237
534	0.236
535	0.235
535	0.234
536	0.234
536	0.233
537	0.232
537	0.231
538	0.23
538	0.228
538	0.226
539	0.225
539	0.225
540	0.223
540	0.222
541	0.22
541	0.218
542	0.216
542	0.214
542	0.212
543	0.211
543	0.21
544	0.208
544	0.206
545	0.204
545	0.204
546	0.204
546	0.203
547	0.201
547	0.199
547	0.196
548	0.194
548	0.191
549	0.189
549	0.186
550	0.184
550	0.181
551	0.178
551	0.175
551	0.173
552	0.171
552	0.17
553	0.168
553	0.167
554	0.166
554	0.165
555	0.162
555	0.159
556	0.156
556	0.152
556	0.149
557	0.145
557	0.142
558	0.14
558	0.137
559	0.135
559	0.134
560	0.133
560	0.132
560	0.131
561	0.131
561	0.131
562	0.131
562	0.13
563	0.128
563	0.125
564	0.122
564	0.119
564	0.116
565	0.113
565	0.112
566	0.11
566	0.108
567	0.108
567	0.108
568	0.109
568	0.11
568	0.112
569	0.114
569	0.116
570	0.117
570	0.117
571	0.118
571	0.119
572	0.119
572	0.119
573	0.119
573	0.118
573	0.117
574	0.116
574	0.115
575	0.114
575	0.115
576	0.116
576	0.116
577	0.115
577	0.113
577	0.112
578	0.111
578	0.11
579	0.111
579	0.112
580	0.111
580	0.109
581	0.106
581	0.103
581	0.102
582	0.101
582	0.101
583	0.101
583	0.101
584	0.098
584	0.095
585	0.093
585	0.091
585	0.091
586	0.09
586	0.09
587	0.088
587	0.086
588	0.083
588	0.08
589	0.077
589	0.075
590	0.073
590	0.072
590	0.071
591	0.072
591	0.072
592	0.072
592	0.071
593	0.071
593	0.071
594	0.07
594	0.07
594	0.069
595	0.069
595	0.068
596	0.067
596	0.067
597	0.069
597	0.07
598	0.071
598	0.072
598	0.073
599	0.074
599	0.074
600	0.073
600	0.072
601	0.071
601	0.069
602	0.067
602	0.066
602	0.064
603	0.062
603	0.062
604	0.062
604	0.062
605	0.064
605	0.065
606	0.066
606	0.066
606	0.065
607	0.065
607	0.065
608	0.065
608	0.063
609	0.062
609	0.061
610	0.06
610	0.058
610	0.058
611	0.058
611	0.058
612	0.059
612	0.061
613	0.062
613	0.063
614	0.064
614	0.064
614	0.064
615	0.064
615	0.064
616	0.063
616	0.063
617	0.062
617	0.06
618	0.059
618	0.058
618	0.056
619	0.056
619	0.056
620	0.057
620	0.058
621	0.058
621	0.059
622	0.06
622	0.06
622	0.061
623	0.061
623	0.062
624	0.063
624	0.063
625	0.063
625	0.063
626	0.064
626	0.064
626	0.064
627	0.065
627	0.065
628	0.066
628	0.066
629	0.066
629	0.067
630	0.067
630	0.066
630	0.066
631	0.067
631	0.067
632	0.067
632	0.068
633	0.068
633	0.069
634	0.07
634	0.072
634	0.074
635	0.076
635	0.078
636	0.079
636	0.08
637	0.082
637	0.083
638	0.084
638	0.085
638	0.086
639	0.086
639	0.087
640	0.088
640	0.089
641	0.091
641	0.093
642	0.095
642	0.098
642	0.1
643	0.103
643	0.105
644	0.108
644	0.111
645	0.113
645	0.116
646	0.119
646	0.122
646	0.125
647	0.129
647	0.133
648	0.136
648	0.139
649	0.142
649	0.146
650	0.149
650	0.152
650	0.155
651	0.158
651	0.16
652	0.162
652	0.164
653	0.167
653	0.175
653	0.192
654	0.156
654	0.128
655	0.135
655	0.138
656	0.141
656	0.143
657	0.146
657	0.148
657	0.15
658	0.148
658	0.136
659	0.17
659	0.218
660	0.219
660	0.22
661	0.222
661	0.224
661	0.227
662	0.23
662	0.233
663	0.237
663	0.24
664	0.244
664	0.246
665	0.25
665	0.253
665	0.256
666	0.259
666	0.262
667	0.265
667	0.268
668	0.271
668	0.274
669	0.276
669	0.28
669	0.284
670	0.289
670	0.293
671	0.296
671	0.299
672	0.301
672	0.303
672	0.305
673	0.307
673	0.308
674	0.31
674	0.31
675	0.31
675	0.311
676	0.312
676	0.314
676	0.316
677	0.318
677	0.32
678	0.322
678	0.324
679	0.325
679	0.327
680	0.328
680	0.33
680	0.331
681	0.331
681	0.332
682	0.333
682	0.334
683	0.336
683	0.339
684	0.342
684	0.343
684	0.343
685	0.343
685	0.344
686	0.344
686	0.344
687	0.343
687	0.343
687	0.341
688	0.34
688	0.338
689	0.338
689	0.339
690	0.34
690	0.34
691	0.34
691	0.341
691	0.341
692	0.341
692	0.341
693	0.341
693	0.341
694	0.34
694	0.338
695	0.337
695	0.338
695	0.338
696	0.337
696	0.336
697	0.335
697	0.333
698	0.332
698	0.33
698	0.327
699	0.325
699	0.322
700	0.318
700	0.315
701	0.313
701	0.312
702	0.31
702	0.308
702	0.306
703	0.305
703	0.303
704	0.301
704	0.3
705	0.299
705	0.299
705	0.297
706	0.296
706	0.295
707	0.294
707	0.292
708	0.29
708	0.289
709	0.287
709	0.285
709	0.282
710	0.278
710	0.275
711	0.272
711	0.268
712	0.266
712	0.263
713	0.261
713	0.258
713	0.256
714	0.253
714	0.251
715	0.248
715	0.245
716	0.243
716	0.24
716	0.238
717	0.235
717	0.233
718	0.229
718	0.226
719	0.223
719	0.221
720	0.218
720	0.216
720	0.212
721	0.208
721	0.205
722	0.201
722	0.197
723	0.193
723	0.19
723	0.187
724	0.184
724	0.182
725	0.179
725	0.176
726	0.174
726	0.172
727	0.17
727	0.168
727	0.167
728	0.164
728	0.162
729	0.161
729	0.16
730	0.158
730	0.156
730	0.154
731	0.152
731	0.15
732	0.149
732	0.147
733	0.145
733	0.142
734	0.139
734	0.135
734	0.131
735	0.128
735	0.125
736	0.121
736	0.118
737	0.114
737	0.112
737	0.109
738	0.106
738	0.103
739	0.1
739	0.097
740	0.095
740	0.093
741	0.091
741	0.088
741	0.085
742	0.08
742	0.076
743	0.073
743	0.069
744	0.066
744	0.064
744	0.061
745	0.058
745	0.055
746	0.053
746	0.051
747	0.05
747	0.05
748	0.049
748	0.049
748	0.048
749	0.047
749	0.046
750	0.045
750	0.044
751	0.043
751	0.043
751	0.043
752	0.042
752	0.041
753	0.039
753	0.038
754	0.037
754	0.036
754	0.036
755	0.036
755	0.036
756	0.036
756	0.034
757	0.032
757	0.03
758	0.029
758	0.027
758	0.026
759	0.025
759	0.022
760	0.019
760	0.015
761	0.012
761	0.01
761	0.009
762	0.007
762	0.006
763	0.005
763	0.003
764	0.001
764	-0.001
764	-0.002
765	-0.004
765	-0.006
766	-0.008
766	-0.009
767	-0.01
767	-0.012
768	-0.015
768	-0.018
768	-0.02
769	-0.021
769	-0.021
770	-0.023
770	-0.024
771	-0.026
771	-0.028
771	-0.031
772	-0.033
772	-0.034
773	-0.036
773	-0.039
774	-0.042
774	-0.046
775	-0.049
775	-0.052
775	-0.056
776	-0.06
776	-0.063
777	-0.067
777	-0.07
778	-0.074
778	-0.078
778	-0.082
779	-0.085
779	-0.087
780	-0.091
780	-0.096
781	-0.1
781	-0.105
781	-0.11
782	-0.115
782	-0.121
783	-0.126
783	-0.129
784	-0.133
784	-0.136
784	-0.138
785	-0.141
785	-0.143
786	-0.144
786	-0.142
787	-0.138
787	-0.134
788	-0.133
788	-0.134
788	-0.136
789	-0.138
789	-0.138
790	-0.136
790	-0.134
791	-0.135
791	-0.137
791	-0.139
792	-0.134
792	-0.123
793	-0.116
793	-0.111
794	-0.109
794	-0.11
794	-0.113
795	-0.115
795	-0.115
796	-0.115
796	-0.118
797	-0.126
797	-0.137
797	-0.144
798	-0.15
798	-0.154
799	-0.155
799	-0.155
800	-0.155
800	-0.157
801	-0.16
801	-0.161
801	-0.161
802	-0.162
802	-0.163
803	-0.163
803	-0.163
804	-0.162
804	-0.156
804	-0.149
805	-0.145
805	-0.143
806	-0.14
806	-0.139
807	-0.137
807	-0.136
807	-0.136
808	-0.136
808	-0.136
809	-0.14
809	-0.145
810	-0.148
810	-0.151
810	-0.154
811	-0.156
811	-0.157
812	-0.153
812	-0.15
813	-0.151
813	-0.152
813	-0.154
814	-0.155
814	-0.156
815	-0.154
815	-0.152
816	-0.151
816	-0.152
817	-0.157
817	-0.161
817	-0.162
818	-0.161
818	-0.158
819	-0.153
819	-0.15
820	-0.151
820	-0.153
820	-0.154
821	-0.154
821	-0.153
822	-0.152
822	-0.15
823	-0.148
823	-0.148
823	-0.149
824	-0.148
824	-0.143
825	-0.137
825	-0.129
826	-0.121
826	-0.114
826	-0.108
827	-0.101
827	-0.095
828	-0.09
828	-0.085
829	-0.08
829	-0.075
829	-0.072
830	-0.069
830	-0.065
831	-0.061
831	-0.056
832	-0.053
832	-0.049
832	-0.046
833	-0.044
833	-0.042
834	-0.04
834	-0.039
835	-0.038
835	-0.038
835	-0.038
836	-0.038
836	-0.038
837	-0.038
837	-0.038
838	-0.037
838	-0.037
839	-0.037
839	-0.037
839	-0.037
840	-0.037
840	-0.036
841	-0.035
841	-0.035
842	-0.034
842	-0.034
842	-0.033
843	-0.032
843	-0.031
844	-0.03
844	-0.029
845	-0.028
845	-0.027
845	-0.026
846	-0.025
846	-0.023
847	-0.022
847	-0.02
848	-0.019
848	-0.017
848	-0.016
849	-0.015
849	-0.013
850	-0.012
850	-0.012
851	-0.011
851	-0.011
851	-0.011
852	-0.011
852	-0.011
853	-0.011
853	-0.011
854	-0.012
854	-0.012
854	-0.012
855	-0.012
855	-0.012
856	-0.012
856	-0.012
857	-0.011
857	-0.011
857	-0.011
858	-0.01
858	-0.01
859	-0.01
859	-0.009
860	-0.008
860	-0.007
860	-0.007
861	-0.006
861	-0.005
862	-0.005
862	-0.004
863	-0.004
863	-0.003
863	-0.003
864	-0.002
864	-0.002
865	-0.001
865	-0.001
866	-0.001
866	-0.001
866	-0
867	-0
867	0
868	0
868	0
869	0
869	-0
869	-0.001
870	-0.001
870	-0.001
871	-0.001
871	-0.002
872	-0.003
872	-0.003
872	-0.003
873	-0.004
873	-0.004
874	-0.005
874	-0.005
875	-0.005
875	-0.006
875	-0.006
876	-0.006
876	-0.006
877	-0.006
877	-0.006
878	-0.006
878	-0.005
878	-0.005
879	-0.004
879	-0.004
880	-0.003
880	-0.002
881	-0.001
881	0
881	0.001
882	0.002
882	0.003
883	0.004
883	0.005
884	0.006
884	0.007
884	0.007
885	0.008
885	0.008
886	0.009
886	0.009
887	0.009
887	0.008
887	0.008
888	0.008
888	0.008
889	0.008
889	0.009
890	0.009
890	0.01
890	0.01
891	0.01
891	0.011
892	0.011
892	0.011
893	0.012
893	0.012
893	0.013
894	0.013
894	0.013
895	0.013
895	0.012
895	0.012
896	0.012
896	0.012
897	0.012
897	0.011
898	0.01
898	0.01
898	0.009
899	0.009
899	0.009
900	0.008
900	0.008
901	0.007
901	0.007
901	0.007
902	0.007
902	0.007
903	0.006
903	0.006
904	0.006
904	0.006
904	0.006
905	0.007
905	0.007
906	0.007
906	0.007
907	0.007
907	0.007
907	0.006
908	0.005
908	0.004
909	0.003
909	0.002
910	0.001
910	0
910	-0.001
911	-0.001
911	-0.002
912	-0.002
912	-0.002
913	-0.001
913	-0.001
913	0
914	0.001
914	0.002
915	0.002
915	0.003
916	0.004
916	0.005
916	0.006
917	0.006
917	0.007
918	0.007
918	0.008
918	0.008
919	0.008
919	0.008
920	0.009
920	0.009
921	0.008
921	0.008
921	0.007
922	0.007
922	0.007
923	0.006
923	0.006
924	0.005
924	0.005
924	0.004
925	0.004
925	0.004
926	0.004
926	0.004
927	0.004
927	0.004
927	0.005
928	0.005
928	0.006
929	0.006
929	0.007
930	0.007
930	0.007
930	0.008
931	0.008
931	0.009
932	0.01
932	0.01
933	0.011
933	0.012
933	0.013
934	0.013
934	0.014
935	0.014
935	0.014
935	0.015
936	0.015
936	0.015
937	0.015
937	0.015
938	0.015
938	0.014
938	0.014
939	0.015
939	0.015
940	0.015
940	0.016
941	0.017
941	0.018
941	0.019
942	0.02
942	0.021
943	0.022
943	0.023
944	0.024
944	0.025
944	0.025
945	0.026
945	0.027
946	0.027
946	0.028
946	0.028
947	0.028
947	0.027
948	0.026
948	0.026
949	0.024
949	0.024
949	0.023
950	0.022
950	0.021
951	0.02
951	0.019
952	0.018
952	0.018
952	0.018
953	0.018
953	0.017
954	0.017
954	0.017
955	0.017
955	0.018
955	0.018
956	0.019
956	0.019
957	0.02
957	0.02
957	0.021
958	0.021
958	0.021
959	0.022
959	0.022
960	0.022
960	0.022
960	0.022
961	0.022
961	0.021
962	0.021
962	0.021
963	0.021
963	0.02
963	0.02
964	0.019
964	0.018
965	0.018
965	0.018
966	0.017
966	0.017
966	0.016
967	0.016
967	0.015
968	0.015
968	0.015
968	0.014
969	0.014
969	0.014
970	0.014
970	0.014
971	0.014
971	0.014
971	0.014
972	0.014
972	0.014
973	0.015
973	0.015
974	0.015
974	0.016
974	0.016
975	0.016
975	0.016
976	0.015
976	0.015
976	0.014
977	0.013
977	0.012
978	0.011
978	0.01
979	0.01
979	0.009
979	0.008
980	0.007
980	0.007
981	0.006
981	0.005
982	0.005
982	0.005
982	0.005
983	0.005
983	0.005
984	0.005
984	0.005
984	0.005
985	0.005
985	0.005
986	0.005
986	0.004
987	0.004
987	0.004
987	0.004
988	0.004
988	0.004
989	0.004
989	0.004
990	0.004
990	0.005
990	0.006
991	0.007
991	0.007
992	0.008
992	0.008
992	0.009
993	0.009
993	0.01
994	0.01
994	0.01
995	0.01
995	0.009
995	0.009
996	0.009
996	0.008
997	0.007
997	0.007
997	0.006
998	0.006
998	0.005
999	0.005
999	0.005
1000	0.005
1000	0.005
1000	0.005
1001	0.005
1001	0.005
1002	0.005
1002	0.005
1003	0.005
1003	0.004
1003	0.004
1004	0.004
1004	0.004
1005	0.003
1005	0.003
1005	0.002
1006	0.002
1006	0.002
1007	0.002
1007	0.002
1008	0.003
1008	0.003
1008	0.004
1009	0.005
1009	0.005
1010	0.006
1010	0.008
1010	0.009
1011	0.01
1011	0.01
1012	0.011
1012	0.011
1013	0.011
1013	0.011
1013	0.01
1014	0.01
1014	0.009
1015	0.009
1015	0.008
1016	0.008
1016	0.007
1016	0.007
1017	0.006
1017	0.006
1018	0.006
1018	0.007
1018	0.007
1019	0.008
1019	0.008
1020	0.008
1020	0.009
1021	0.009
1021	0.009
1021	0.009
1022	0.01
1022	0.01
1023	0.01
1023	0.009
1023	0.009
1024	0.009
1024	0.009
1025	0.009
1025	0.01
1026	0.01
1026	0.01
1026	0.01
1027	0.011
1027	0.011
1028	0.011
1028	0.011
1028	0.011
1029	0.011
1029	0.011
1030	0.01
1030	0.01
1031	0.009
1031	0.009
1031	0.009
1032	0.008
1032	0.007
1033	0.007
1033	0.006
1033	0.006
1034	0.005
1034	0.004
1035	0.004
1035	0.004
1036	0.003
1036	0.004
1036	0.004
1037	0.005
1037	0.006
1038	0.006
1038	0.007
1039	0.008
1039	0.009
1039	0.01
1040	0.011
1040	0.013
1041	0.013
1041	0.014
1041	0.015
1042	0.016
1042	0.017
1043	0.018
1043	0.019
1044	0.02
1044	0.022
1044	0.023
1045	0.024
1045	0.025
1046	0.026
1046	0.027
1046	0.029
1047	0.031
1047	0.032
1048	0.034
1048	0.035
1049	0.035
1049	0.036
1049	0.036
1050	0.036
1050	0.036
1051	0.036
1051	0.036
1051	0.036
1052	0.035
1052	0.035
1053	0.034
1053	0.034
1053	0.034
1054	0.033
1054	0.033
1055	0.033
1055	0.032
1056	0.031
1056	0.03
1056	0.029
1057	0.028
1057	0.027
1058	0.027
1058	0.027
1058	0.026
1059	0.026
1059	0.026
1060	0.026
1060	0.027
1061	0.028
1061	0.029
1061	0.03
1062	0.03
1062	0.031
1063	0.032
1063	0.033
1063	0.034
1064	0.035
1064	0.037
1065	0.039
1065	0.041
1066	0.043
1066	0.045
1066	0.048
1067	0.051
1067	0.053
1068	0.056
1068	0.057
1068	0.059
1069	0.06
1069	0.061
1070	0.062
1070	0.063
1071	0.064
1071	0.065
1071	0.065
1072	0.066
1072	0.067
1073	0.068
1073	0.069
1073	0.07
1074	0.071
1074	0.073
1075	0.072
1075	0.073
1076	0.073
1076	0.074
1076	0.074
1077	0.075
1077	0.075
1078	0.077
1078	0.079
1078	0.081
1079	0.083
1079	0.086
1080	0.087
1080	0.09
1080	0.093
1081	0.096
1081	0.099
1082	0.102
1082	0.105
1083	0.108
1083	0.11
1083	0.114
1084	0.118
1084	0.122
1085	0.126
1085	0.131
1085	0.134
1086	0.138
1086	0.141
1087	0.145
1087	0.15
1088	0.153
1088	0.157
1088	0.162
1089	0.167
1089	0.172
1090	0.178
1090	0.185
1090	0.192
1091	0.2
1091	0.21
1092	0.22
1092	0.231
1092	0.242
1093	0.253
1093	0.265
1094	0.279
1094	0.291
1095	0.304
1095	0.321
1095	0.342
1096	0.362
1096	0.383
1097	0.41
1097	0.435
1097	0.465
1098	0.498
1098	0.536
1099	0.583
1099	0.637
1100	0.701
1100	0.779
1100	0.882
1101	1.03
1101	1.266
1102	2.018
1102	-0
1102	-0
1103	-0
1103	-0
1104	-0
1104	-0
1104	-0
1105	-0
1105	-0
1106	-0
1106	-0
1107	-0
1107	-0
1107	-0
1108	-0
1108	-0
1109	-0
1109	-0
1109	-0
1110	-0
1110	-0
1111	-0
1111	-0
