Data from 15c-2-4a_Absorbance__84__00084.txt Node

Date: Thu Jan 25 10:06:59 CET 2024
User: Marek
Spectrometer: MAYP115816
Trigger mode: 0
Integration Time (sec): 2.000000E-1
Scans to average: 10
Electric dark correction enabled: true
Nonlinearity correction enabled: true
Boxcar width: 5
XAxis mode: Wavelengths
Number of Pixels in Spectrum: 2068
>>>>>Begin Spectral Data<<<<<
199	-2.103
199	-1.932
200	-1.778
200	-1.656
201	-1.578
201	-1.521
202	-1.438
202	-1.376
203	-1.324
203	-1.277
204	-1.251
204	-1.224
205	-1.203
205	-1.192
205	-1.186
206	-1.181
206	-1.177
207	-1.177
207	-1.174
208	-1.168
208	-1.165
209	-1.16
209	-1.157
210	-1.154
210	-1.151
211	-1.15
211	-1.148
212	-1.145
212	-1.143
213	-1.141
213	-1.142
213	-1.142
214	-1.14
214	-1.14
215	-1.138
215	-1.136
216	-1.133
216	-1.132
217	-1.13
217	-1.127
218	-1.125
218	-1.123
219	-1.121
219	-1.118
220	-1.117
220	-1.113
221	-1.11
221	-1.108
221	-1.104
222	-1.101
222	-1.1
223	-1.096
223	-1.09
224	-1.083
224	-1.074
225	-1.066
225	-1.058
226	-1.047
226	-1.035
227	-1.021
227	-1.008
228	-0.989
228	-0.971
229	-0.951
229	-0.928
229	-0.902
230	-0.874
230	-0.846
231	-0.813
231	-0.777
232	-0.739
232	-0.697
233	-0.655
233	-0.612
234	-0.569
234	-0.525
235	-0.482
235	-0.441
236	-0.399
236	-0.362
236	-0.325
237	-0.291
237	-0.259
238	-0.229
238	-0.201
239	-0.176
239	-0.153
240	-0.132
240	-0.112
241	-0.094
241	-0.078
242	-0.063
242	-0.05
243	-0.037
243	-0.025
243	-0.015
244	-0.005
244	0.003
245	0.012
245	0.019
246	0.026
246	0.032
247	0.038
247	0.044
248	0.049
248	0.054
249	0.058
249	0.063
250	0.067
250	0.071
250	0.074
251	0.077
251	0.081
252	0.084
252	0.087
253	0.09
253	0.092
254	0.095
254	0.097
255	0.099
255	0.101
256	0.103
256	0.105
257	0.107
257	0.108
258	0.109
258	0.111
258	0.112
259	0.113
259	0.114
260	0.114
260	0.115
261	0.115
261	0.116
262	0.116
262	0.116
263	0.116
263	0.116
264	0.116
264	0.116
265	0.115
265	0.115
265	0.115
266	0.115
266	0.114
267	0.114
267	0.113
268	0.113
268	0.112
269	0.111
269	0.11
270	0.109
270	0.108
271	0.107
271	0.106
272	0.105
272	0.103
272	0.102
273	0.101
273	0.1
274	0.098
274	0.097
275	0.095
275	0.094
276	0.092
276	0.091
277	0.089
277	0.088
278	0.086
278	0.085
278	0.083
279	0.082
279	0.08
280	0.079
280	0.078
281	0.077
281	0.076
282	0.075
282	0.074
283	0.074
283	0.073
284	0.072
284	0.07
285	0.069
285	0.068
285	0.067
286	0.066
286	0.065
287	0.064
287	0.063
288	0.062
288	0.061
289	0.06
289	0.059
290	0.059
290	0.058
291	0.057
291	0.056
292	0.055
292	0.055
292	0.054
293	0.054
293	0.053
294	0.052
294	0.052
295	0.051
295	0.051
296	0.051
296	0.05
297	0.05
297	0.049
298	0.049
298	0.049
298	0.049
299	0.048
299	0.048
300	0.048
300	0.047
301	0.047
301	0.047
302	0.047
302	0.047
303	0.047
303	0.046
304	0.046
304	0.046
305	0.046
305	0.046
305	0.045
306	0.045
306	0.045
307	0.045
307	0.044
308	0.044
308	0.044
309	0.043
309	0.043
310	0.043
310	0.043
311	0.043
311	0.042
311	0.042
312	0.042
312	0.042
313	0.042
313	0.041
314	0.041
314	0.041
315	0.041
315	0.04
316	0.04
316	0.04
317	0.04
317	0.039
318	0.039
318	0.039
318	0.039
319	0.039
319	0.038
320	0.038
320	0.037
321	0.037
321	0.037
322	0.036
322	0.036
323	0.036
323	0.035
324	0.035
324	0.034
324	0.034
325	0.034
325	0.034
326	0.034
326	0.033
327	0.033
327	0.033
328	0.033
328	0.033
329	0.032
329	0.032
330	0.032
330	0.031
330	0.031
331	0.031
331	0.03
332	0.03
332	0.03
333	0.029
333	0.029
334	0.029
334	0.029
335	0.028
335	0.028
336	0.028
336	0.028
336	0.027
337	0.027
337	0.027
338	0.027
338	0.026
339	0.026
339	0.026
340	0.026
340	0.025
341	0.025
341	0.025
342	0.024
342	0.024
342	0.024
343	0.023
343	0.023
344	0.023
344	0.023
345	0.022
345	0.022
346	0.021
346	0.021
347	0.021
347	0.02
348	0.02
348	0.02
348	0.019
349	0.019
349	0.018
350	0.018
350	0.018
351	0.017
351	0.017
352	0.017
352	0.016
353	0.016
353	0.016
354	0.015
354	0.015
354	0.014
355	0.014
355	0.013
356	0.013
356	0.013
357	0.012
357	0.012
358	0.012
358	0.013
359	0.013
359	0.013
360	0.014
360	0.014
360	0.014
361	0.014
361	0.014
362	0.015
362	0.015
363	0.014
363	0.014
364	0.014
364	0.014
365	0.013
365	0.013
366	0.013
366	0.013
366	0.013
367	0.013
367	0.013
368	0.013
368	0.012
369	0.012
369	0.012
370	0.012
370	0.012
371	0.011
371	0.011
372	0.011
372	0.01
372	0.01
373	0.01
373	0.01
374	0.01
374	0.01
375	0.01
375	0.01
376	0.01
376	0.01
377	0.01
377	0.01
378	0.01
378	0.011
378	0.011
379	0.011
379	0.011
380	0.011
380	0.011
381	0.011
381	0.011
382	0.011
382	0.011
383	0.011
383	0.01
383	0.01
384	0.01
384	0.01
385	0.01
385	0.01
386	0.01
386	0.01
387	0.01
387	0.01
388	0.01
388	0.01
389	0.01
389	0.01
389	0.01
390	0.01
390	0.01
391	0.01
391	0.011
392	0.011
392	0.011
393	0.011
393	0.011
394	0.011
394	0.01
394	0.01
395	0.01
395	0.01
396	0.01
396	0.01
397	0.01
397	0.01
398	0.01
398	0.01
399	0.01
399	0.01
400	0.01
400	0.01
400	0.01
401	0.009
401	0.009
402	0.008
402	0.008
403	0.008
403	0.008
404	0.008
404	0.008
405	0.007
405	0.007
405	0.007
406	0.007
406	0.007
407	0.007
407	0.007
408	0.006
408	0.006
409	0.006
409	0.006
410	0.006
410	0.006
411	0.006
411	0.006
411	0.006
412	0.005
412	0.005
413	0.005
413	0.005
414	0.005
414	0.005
415	0.005
415	0.005
416	0.004
416	0.004
416	0.004
417	0.004
417	0.004
418	0.004
418	0.004
419	0.004
419	0.005
420	0.005
420	0.005
421	0.006
421	0.006
421	0.006
422	0.006
422	0.006
423	0.006
423	0.006
424	0.006
424	0.005
425	0.005
425	0.004
426	0.004
426	0.004
427	0.003
427	0.004
427	0.004
428	0.004
428	0.004
429	0.005
429	0.005
430	0.005
430	0.005
431	0.005
431	0.005
432	0.004
432	0.004
432	0.003
433	0.003
433	0.002
434	0.002
434	0.002
435	0.002
435	0.002
436	0.002
436	0.002
437	0.002
437	0.002
437	0.002
438	0.002
438	0.002
439	0.002
439	0.001
440	0.001
440	0.001
441	0.001
441	0.001
442	0.001
442	0.001
442	0.001
443	0.001
443	0.002
444	0.002
444	0.002
445	0.002
445	0.002
446	0.002
446	0.002
447	0.002
447	0.002
447	0.002
448	0.002
448	0.002
449	0.002
449	0.002
450	0.002
450	0.001
451	0.001
451	0.001
452	0
452	0
452	-0.001
453	-0.001
453	-0.001
454	-0.002
454	-0.002
455	-0.002
455	-0.003
456	-0.003
456	-0.003
457	-0.003
457	-0.003
458	-0.003
458	-0.003
458	-0.003
459	-0.003
459	-0.003
460	-0.003
460	-0.003
461	-0.004
461	-0.004
462	-0.004
462	-0.004
463	-0.004
463	-0.004
463	-0.004
464	-0.004
464	-0.004
465	-0.004
465	-0.004
466	-0.004
466	-0.004
467	-0.004
467	-0.004
467	-0.005
468	-0.006
468	-0.007
469	-0.008
469	-0.009
470	-0.01
470	-0.011
471	-0.011
471	-0.011
472	-0.012
472	-0.012
472	-0.012
473	-0.011
473	-0.01
474	-0.01
474	-0.009
475	-0.009
475	-0.008
476	-0.008
476	-0.008
477	-0.008
477	-0.007
477	-0.007
478	-0.007
478	-0.007
479	-0.007
479	-0.007
480	-0.006
480	-0.006
481	-0.006
481	-0.006
482	-0.005
482	-0.005
482	-0.004
483	-0.003
483	-0.002
484	-0
484	0.001
485	0.002
485	0.002
486	0.003
486	0.003
487	0.003
487	0.003
487	0.003
488	0.002
488	0.001
489	-0
489	-0.002
490	-0.003
490	-0.004
491	-0.004
491	-0.004
492	-0.004
492	-0.004
492	-0.004
493	-0.004
493	-0.004
494	-0.003
494	-0.002
495	-0.002
495	-0.001
496	-0.001
496	-0.001
496	-0.001
497	-0.001
497	-0.001
498	-0.001
498	-0.001
499	-0.002
499	-0.002
500	-0.002
500	-0.002
501	-0.001
501	-0.001
501	-0
502	0.001
502	0.001
503	0.002
503	0.002
504	0.003
504	0.003
505	0.003
505	0.003
506	0.003
506	0.003
506	0.003
507	0.002
507	0.002
508	0.002
508	0.002
509	0.002
509	0.002
510	0.002
510	0.002
511	0.002
511	0.001
511	0.001
512	0
512	0
513	-0
513	-0
514	-0.001
514	-0.002
515	-0.002
515	-0.003
515	-0.004
516	-0.005
516	-0.005
517	-0.005
517	-0.005
518	-0.005
518	-0.005
519	-0.006
519	-0.007
520	-0.007
520	-0.008
520	-0.01
521	-0.011
521	-0.013
522	-0.015
522	-0.017
523	-0.019
523	-0.02
524	-0.02
524	-0.02
524	-0.02
525	-0.019
525	-0.017
526	-0.015
526	-0.014
527	-0.011
527	-0.009
528	-0.007
528	-0.005
529	-0.004
529	-0.003
529	-0.002
530	-0.002
530	-0.001
531	-0.001
531	-0
532	-0
532	0
533	0
533	0
533	0.001
534	0.001
534	0
535	0
535	0
536	0
536	0
537	0
537	0
538	0
538	-0.001
538	-0.001
539	-0.001
539	-0.001
540	-0.002
540	-0.002
541	-0.002
541	-0.002
542	-0.003
542	-0.003
542	-0.004
543	-0.004
543	-0.004
544	-0.004
544	-0.004
545	-0.004
545	-0.004
546	-0.003
546	-0.003
547	-0.004
547	-0.004
547	-0.005
548	-0.006
548	-0.007
549	-0.008
549	-0.009
550	-0.009
550	-0.01
551	-0.011
551	-0.012
551	-0.013
552	-0.013
552	-0.013
553	-0.013
553	-0.012
554	-0.012
554	-0.012
555	-0.012
555	-0.013
556	-0.014
556	-0.015
556	-0.016
557	-0.017
557	-0.018
558	-0.018
558	-0.019
559	-0.019
559	-0.019
560	-0.019
560	-0.019
560	-0.018
561	-0.018
561	-0.017
562	-0.017
562	-0.017
563	-0.017
563	-0.018
564	-0.019
564	-0.02
564	-0.021
565	-0.022
565	-0.022
566	-0.023
566	-0.023
567	-0.023
567	-0.022
568	-0.021
568	-0.02
568	-0.018
569	-0.016
569	-0.014
570	-0.013
570	-0.012
571	-0.011
571	-0.01
572	-0.009
572	-0.008
573	-0.008
573	-0.007
573	-0.007
574	-0.007
574	-0.007
575	-0.006
575	-0.005
576	-0.004
576	-0.004
577	-0.003
577	-0.003
577	-0.004
578	-0.004
578	-0.004
579	-0.004
579	-0.003
580	-0.002
580	-0.003
581	-0.004
581	-0.005
581	-0.005
582	-0.006
582	-0.006
583	-0.005
583	-0.005
584	-0.005
584	-0.007
585	-0.008
585	-0.008
585	-0.008
586	-0.008
586	-0.008
587	-0.009
587	-0.009
588	-0.011
588	-0.012
589	-0.013
589	-0.014
590	-0.015
590	-0.015
590	-0.015
591	-0.015
591	-0.015
592	-0.015
592	-0.015
593	-0.015
593	-0.014
594	-0.014
594	-0.014
594	-0.014
595	-0.014
595	-0.015
596	-0.015
596	-0.015
597	-0.014
597	-0.013
598	-0.013
598	-0.012
598	-0.012
599	-0.011
599	-0.011
600	-0.012
600	-0.012
601	-0.013
601	-0.013
602	-0.014
602	-0.015
602	-0.016
603	-0.017
603	-0.017
604	-0.016
604	-0.016
605	-0.015
605	-0.015
606	-0.014
606	-0.014
606	-0.014
607	-0.014
607	-0.014
608	-0.014
608	-0.015
609	-0.015
609	-0.016
610	-0.016
610	-0.017
610	-0.017
611	-0.017
611	-0.016
612	-0.015
612	-0.015
613	-0.014
613	-0.013
614	-0.012
614	-0.012
614	-0.013
615	-0.013
615	-0.013
616	-0.014
616	-0.015
617	-0.016
617	-0.017
618	-0.018
618	-0.019
618	-0.02
619	-0.02
619	-0.02
620	-0.02
620	-0.019
621	-0.019
621	-0.019
622	-0.019
622	-0.018
622	-0.018
623	-0.019
623	-0.019
624	-0.019
624	-0.019
625	-0.019
625	-0.019
626	-0.02
626	-0.02
626	-0.02
627	-0.02
627	-0.02
628	-0.02
628	-0.02
629	-0.02
629	-0.02
630	-0.021
630	-0.022
630	-0.022
631	-0.022
631	-0.022
632	-0.022
632	-0.023
633	-0.023
633	-0.023
634	-0.022
634	-0.022
634	-0.021
635	-0.02
635	-0.019
636	-0.019
636	-0.018
637	-0.018
637	-0.017
638	-0.017
638	-0.017
638	-0.017
639	-0.018
639	-0.018
640	-0.018
640	-0.018
641	-0.017
641	-0.017
642	-0.016
642	-0.015
642	-0.014
643	-0.013
643	-0.012
644	-0.01
644	-0.009
645	-0.008
645	-0.007
646	-0.006
646	-0.005
646	-0.004
647	-0.003
647	-0.001
648	-0
648	0.001
649	0.002
649	0.003
650	0.004
650	0.005
650	0.006
651	0.007
651	0.008
652	0.008
652	0.009
653	0.009
653	0.012
653	0.013
654	0.013
654	0.012
655	0.014
655	0.015
656	0.016
656	0.017
657	0.018
657	0.019
657	0.02
658	0.019
658	0.02
659	0.023
659	0.027
660	0.027
660	0.027
661	0.027
661	0.027
661	0.027
662	0.028
662	0.028
663	0.029
663	0.03
664	0.031
664	0.032
665	0.033
665	0.035
665	0.036
666	0.037
666	0.038
667	0.039
667	0.04
668	0.041
668	0.042
669	0.043
669	0.044
669	0.046
670	0.048
670	0.049
671	0.05
671	0.051
672	0.051
672	0.051
672	0.052
673	0.052
673	0.052
674	0.053
674	0.052
675	0.052
675	0.052
676	0.052
676	0.053
676	0.054
677	0.055
677	0.056
678	0.056
678	0.057
679	0.057
679	0.058
680	0.059
680	0.06
680	0.06
681	0.06
681	0.06
682	0.061
682	0.062
683	0.062
683	0.064
684	0.065
684	0.066
684	0.066
685	0.066
685	0.066
686	0.067
686	0.067
687	0.067
687	0.066
687	0.065
688	0.064
688	0.063
689	0.063
689	0.063
690	0.062
690	0.062
691	0.061
691	0.061
691	0.061
692	0.061
692	0.061
693	0.061
693	0.062
694	0.063
694	0.063
695	0.064
695	0.066
695	0.067
696	0.068
696	0.068
697	0.068
697	0.068
698	0.068
698	0.067
698	0.067
699	0.066
699	0.065
700	0.063
700	0.062
701	0.061
701	0.06
702	0.06
702	0.059
702	0.058
703	0.057
703	0.056
704	0.055
704	0.054
705	0.054
705	0.053
705	0.053
706	0.052
706	0.052
707	0.051
707	0.051
708	0.05
708	0.05
709	0.049
709	0.049
709	0.048
710	0.046
710	0.045
711	0.044
711	0.044
712	0.044
712	0.043
713	0.044
713	0.043
713	0.043
714	0.042
714	0.042
715	0.041
715	0.04
716	0.039
716	0.039
716	0.038
717	0.037
717	0.036
718	0.035
718	0.033
719	0.033
719	0.032
720	0.031
720	0.03
720	0.029
721	0.027
721	0.025
722	0.024
722	0.022
723	0.021
723	0.019
723	0.018
724	0.017
724	0.015
725	0.014
725	0.013
726	0.012
726	0.011
727	0.01
727	0.01
727	0.01
728	0.009
728	0.008
729	0.008
729	0.008
730	0.008
730	0.008
730	0.007
731	0.007
731	0.006
732	0.006
732	0.005
733	0.005
733	0.004
734	0.003
734	0.002
734	0.001
735	-0
735	-0.001
736	-0.003
736	-0.004
737	-0.005
737	-0.005
737	-0.006
738	-0.007
738	-0.008
739	-0.009
739	-0.01
740	-0.011
740	-0.011
741	-0.012
741	-0.013
741	-0.015
742	-0.017
742	-0.019
743	-0.021
743	-0.022
744	-0.023
744	-0.024
744	-0.025
745	-0.026
745	-0.027
746	-0.028
746	-0.029
747	-0.029
747	-0.029
748	-0.029
748	-0.03
748	-0.03
749	-0.031
749	-0.031
750	-0.032
750	-0.032
751	-0.032
751	-0.032
751	-0.031
752	-0.031
752	-0.031
753	-0.032
753	-0.032
754	-0.032
754	-0.032
754	-0.032
755	-0.032
755	-0.032
756	-0.032
756	-0.032
757	-0.033
757	-0.034
758	-0.034
758	-0.035
758	-0.035
759	-0.035
759	-0.036
760	-0.038
760	-0.04
761	-0.042
761	-0.043
761	-0.044
762	-0.044
762	-0.045
763	-0.044
763	-0.045
764	-0.046
764	-0.047
764	-0.048
765	-0.049
765	-0.05
766	-0.051
766	-0.051
767	-0.051
767	-0.052
768	-0.055
768	-0.056
768	-0.057
769	-0.057
769	-0.057
770	-0.057
770	-0.058
771	-0.059
771	-0.06
771	-0.062
772	-0.063
772	-0.065
773	-0.066
773	-0.068
774	-0.071
774	-0.074
775	-0.077
775	-0.08
775	-0.083
776	-0.086
776	-0.09
777	-0.093
777	-0.096
778	-0.1
778	-0.103
778	-0.106
779	-0.109
779	-0.109
780	-0.111
780	-0.115
781	-0.118
781	-0.12
781	-0.123
782	-0.125
782	-0.129
783	-0.133
783	-0.135
784	-0.136
784	-0.139
784	-0.141
785	-0.143
785	-0.145
786	-0.146
786	-0.144
787	-0.139
787	-0.136
788	-0.135
788	-0.136
788	-0.137
789	-0.14
789	-0.14
790	-0.138
790	-0.136
791	-0.137
791	-0.139
791	-0.141
792	-0.136
792	-0.125
793	-0.118
793	-0.113
794	-0.111
794	-0.112
794	-0.115
795	-0.117
795	-0.117
796	-0.117
796	-0.119
797	-0.128
797	-0.139
797	-0.146
798	-0.152
798	-0.156
799	-0.157
799	-0.157
800	-0.157
800	-0.159
801	-0.162
801	-0.163
801	-0.163
802	-0.164
802	-0.165
803	-0.165
803	-0.165
804	-0.164
804	-0.158
804	-0.151
805	-0.147
805	-0.144
806	-0.142
806	-0.141
807	-0.139
807	-0.138
807	-0.138
808	-0.138
808	-0.138
809	-0.142
809	-0.147
810	-0.15
810	-0.152
810	-0.156
811	-0.158
811	-0.159
812	-0.155
812	-0.152
813	-0.153
813	-0.154
813	-0.156
814	-0.157
814	-0.158
815	-0.156
815	-0.154
816	-0.153
816	-0.154
817	-0.159
817	-0.163
817	-0.164
818	-0.163
818	-0.16
819	-0.155
819	-0.152
820	-0.153
820	-0.155
820	-0.156
821	-0.154
821	-0.151
822	-0.148
822	-0.144
823	-0.14
823	-0.138
823	-0.138
824	-0.135
824	-0.129
825	-0.121
825	-0.112
826	-0.104
826	-0.098
826	-0.093
827	-0.087
827	-0.082
828	-0.078
828	-0.074
829	-0.07
829	-0.067
829	-0.064
830	-0.063
830	-0.061
831	-0.058
831	-0.055
832	-0.053
832	-0.051
832	-0.05
833	-0.049
833	-0.048
834	-0.047
834	-0.047
835	-0.046
835	-0.046
835	-0.046
836	-0.047
836	-0.046
837	-0.046
837	-0.046
838	-0.046
838	-0.045
839	-0.045
839	-0.044
839	-0.044
840	-0.043
840	-0.042
841	-0.042
841	-0.041
842	-0.04
842	-0.039
842	-0.037
843	-0.036
843	-0.036
844	-0.035
844	-0.034
845	-0.033
845	-0.033
845	-0.033
846	-0.033
846	-0.032
847	-0.032
847	-0.032
848	-0.031
848	-0.031
848	-0.03
849	-0.029
849	-0.028
850	-0.027
850	-0.027
851	-0.026
851	-0.025
851	-0.024
852	-0.023
852	-0.022
853	-0.022
853	-0.022
854	-0.022
854	-0.022
854	-0.022
855	-0.022
855	-0.022
856	-0.022
856	-0.022
857	-0.022
857	-0.022
857	-0.022
858	-0.022
858	-0.022
859	-0.021
859	-0.021
860	-0.02
860	-0.019
860	-0.018
861	-0.017
861	-0.016
862	-0.015
862	-0.014
863	-0.013
863	-0.011
863	-0.01
864	-0.009
864	-0.008
865	-0.007
865	-0.006
866	-0.006
866	-0.006
866	-0.006
867	-0.006
867	-0.006
868	-0.006
868	-0.006
869	-0.007
869	-0.007
869	-0.008
870	-0.008
870	-0.008
871	-0.009
871	-0.009
872	-0.01
872	-0.01
872	-0.01
873	-0.01
873	-0.01
874	-0.01
874	-0.01
875	-0.01
875	-0.009
875	-0.009
876	-0.008
876	-0.007
877	-0.006
877	-0.005
878	-0.005
878	-0.005
878	-0.005
879	-0.005
879	-0.005
880	-0.005
880	-0.005
881	-0.005
881	-0.005
881	-0.005
882	-0.006
882	-0.006
883	-0.006
883	-0.006
884	-0.005
884	-0.006
884	-0.005
885	-0.005
885	-0.005
886	-0.005
886	-0.006
887	-0.006
887	-0.006
887	-0.007
888	-0.008
888	-0.008
889	-0.008
889	-0.009
890	-0.009
890	-0.009
890	-0.01
891	-0.01
891	-0.01
892	-0.01
892	-0.01
893	-0.009
893	-0.009
893	-0.008
894	-0.008
894	-0.008
895	-0.008
895	-0.008
895	-0.009
896	-0.009
896	-0.009
897	-0.009
897	-0.009
898	-0.01
898	-0.01
898	-0.011
899	-0.011
899	-0.011
900	-0.011
900	-0.012
901	-0.012
901	-0.012
901	-0.013
902	-0.013
902	-0.013
903	-0.013
903	-0.013
904	-0.013
904	-0.013
904	-0.013
905	-0.012
905	-0.012
906	-0.011
906	-0.01
907	-0.009
907	-0.009
907	-0.008
908	-0.008
908	-0.008
909	-0.007
909	-0.007
910	-0.007
910	-0.007
910	-0.007
911	-0.007
911	-0.007
912	-0.006
912	-0.006
913	-0.006
913	-0.005
913	-0.005
914	-0.004
914	-0.003
915	-0.003
915	-0.002
916	-0.002
916	-0.001
916	-0.001
917	-0.001
917	-0.001
918	-0.002
918	-0.002
918	-0.003
919	-0.003
919	-0.004
920	-0.005
920	-0.006
921	-0.006
921	-0.007
921	-0.007
922	-0.007
922	-0.007
923	-0.007
923	-0.007
924	-0.007
924	-0.006
924	-0.006
925	-0.005
925	-0.004
926	-0.004
926	-0.003
927	-0.003
927	-0.002
927	-0.002
928	-0.001
928	-0.001
929	-0
929	-0
930	-0
930	-0
930	-0
931	-0.001
931	-0.001
932	-0.001
932	-0.001
933	-0.001
933	-0.001
933	-0.001
934	-0.001
934	-0
935	0
935	0.001
935	0.001
936	0.001
936	0.002
937	0.002
937	0.002
938	0.002
938	0.001
938	0.001
939	0.001
939	0
940	-0
940	0
941	0
941	0.001
941	0.001
942	0.002
942	0.003
943	0.004
943	0.005
944	0.006
944	0.006
944	0.007
945	0.008
945	0.009
946	0.009
946	0.01
946	0.01
947	0.01
947	0.01
948	0.01
948	0.009
949	0.009
949	0.008
949	0.007
950	0.007
950	0.006
951	0.005
951	0.004
952	0.004
952	0.004
952	0.004
953	0.004
953	0.004
954	0.005
954	0.005
955	0.005
955	0.006
955	0.006
956	0.006
956	0.007
957	0.007
957	0.006
957	0.006
958	0.006
958	0.006
959	0.006
959	0.006
960	0.006
960	0.006
960	0.007
961	0.007
961	0.007
962	0.008
962	0.008
963	0.009
963	0.009
963	0.009
964	0.01
964	0.01
965	0.01
965	0.01
966	0.009
966	0.009
966	0.008
967	0.007
967	0.006
968	0.005
968	0.004
968	0.004
969	0.003
969	0.002
970	0.002
970	0.002
971	0.001
971	0.001
971	0.002
972	0.002
972	0.003
973	0.004
973	0.004
974	0.005
974	0.005
974	0.006
975	0.006
975	0.006
976	0.006
976	0.006
976	0.005
977	0.004
977	0.004
978	0.003
978	0.002
979	0.001
979	0
979	-0.001
980	-0.001
980	-0.002
981	-0.002
981	-0.003
982	-0.003
982	-0.004
982	-0.004
983	-0.004
983	-0.004
984	-0.005
984	-0.005
984	-0.005
985	-0.005
985	-0.005
986	-0.005
986	-0.005
987	-0.005
987	-0.005
987	-0.005
988	-0.005
988	-0.005
989	-0.005
989	-0.005
990	-0.005
990	-0.005
990	-0.005
991	-0.004
991	-0.004
992	-0.004
992	-0.004
992	-0.005
993	-0.005
993	-0.005
994	-0.006
994	-0.006
995	-0.006
995	-0.007
995	-0.007
996	-0.007
996	-0.008
997	-0.008
997	-0.008
997	-0.008
998	-0.008
998	-0.007
999	-0.007
999	-0.006
1000	-0.005
1000	-0.004
1000	-0.004
1001	-0.003
1001	-0.002
1002	-0.002
1002	-0.002
1003	-0.001
1003	-0.002
1003	-0.002
1004	-0.002
1004	-0.002
1005	-0.002
1005	-0.003
1005	-0.003
1006	-0.003
1006	-0.003
1007	-0.003
1007	-0.003
1008	-0.003
1008	-0.003
1008	-0.003
1009	-0.003
1009	-0.003
1010	-0.002
1010	-0.002
1010	-0.001
1011	-0.001
1011	0
1012	0.001
1012	0.002
1013	0.003
1013	0.004
1013	0.005
1014	0.006
1014	0.007
1015	0.007
1015	0.008
1016	0.009
1016	0.009
1016	0.01
1017	0.01
1017	0.011
1018	0.011
1018	0.011
1018	0.011
1019	0.011
1019	0.011
1020	0.011
1020	0.011
1021	0.011
1021	0.01
1021	0.01
1022	0.01
1022	0.009
1023	0.009
1023	0.009
1023	0.009
1024	0.009
1024	0.009
1025	0.009
1025	0.009
1026	0.009
1026	0.009
1026	0.009
1027	0.009
1027	0.009
1028	0.009
1028	0.008
1028	0.008
1029	0.008
1029	0.008
1030	0.008
1030	0.008
1031	0.009
1031	0.009
1031	0.009
1032	0.009
1032	0.009
1033	0.01
1033	0.01
1033	0.01
1034	0.01
1034	0.01
1035	0.01
1035	0.01
1036	0.01
1036	0.011
1036	0.011
1037	0.011
1037	0.012
1038	0.012
1038	0.013
1039	0.014
1039	0.014
1039	0.015
1040	0.015
1040	0.016
1041	0.016
1041	0.017
1041	0.017
1042	0.018
1042	0.018
1043	0.019
1043	0.02
1044	0.02
1044	0.021
1044	0.021
1045	0.022
1045	0.022
1046	0.023
1046	0.024
1046	0.025
1047	0.026
1047	0.027
1048	0.027
1048	0.028
1049	0.029
1049	0.03
1049	0.03
1050	0.031
1050	0.031
1051	0.032
1051	0.032
1051	0.032
1052	0.032
1052	0.032
1053	0.032
1053	0.032
1053	0.031
1054	0.031
1054	0.031
1055	0.03
1055	0.03
1056	0.03
1056	0.03
1056	0.03
1057	0.03
1057	0.03
1058	0.03
1058	0.031
1058	0.031
1059	0.032
1059	0.033
1060	0.033
1060	0.034
1061	0.035
1061	0.036
1061	0.037
1062	0.038
1062	0.038
1063	0.039
1063	0.04
1063	0.041
1064	0.042
1064	0.044
1065	0.045
1065	0.047
1066	0.049
1066	0.05
1066	0.052
1067	0.054
1067	0.056
1068	0.058
1068	0.06
1068	0.061
1069	0.063
1069	0.064
1070	0.065
1070	0.067
1071	0.068
1071	0.07
1071	0.071
1072	0.072
1072	0.073
1073	0.075
1073	0.076
1073	0.078
1074	0.079
1074	0.08
1075	0.08
1075	0.08
1076	0.081
1076	0.082
1076	0.084
1077	0.085
1077	0.086
1078	0.087
1078	0.089
1078	0.09
1079	0.092
1079	0.094
1080	0.096
1080	0.098
1080	0.1
1081	0.101
1081	0.102
1082	0.104
1082	0.107
1083	0.109
1083	0.112
1083	0.115
1084	0.118
1084	0.122
1085	0.125
1085	0.128
1085	0.132
1086	0.134
1086	0.138
1087	0.141
1087	0.144
1088	0.147
1088	0.15
1088	0.154
1089	0.16
1089	0.165
1090	0.171
1090	0.177
1090	0.185
1091	0.193
1091	0.201
1092	0.21
1092	0.22
1092	0.229
1093	0.239
1093	0.25
1094	0.26
1094	0.272
1095	0.286
1095	0.299
1095	0.315
1096	0.332
1096	0.351
1097	0.37
1097	0.394
1097	0.417
1098	0.445
1098	0.477
1099	0.512
1099	0.553
1100	0.603
1100	0.661
1100	0.734
1101	0.829
1101	0.96
1102	1.164
1102	1.619
1102	-0
1103	-0
1103	-0
1104	-0
1104	-0
1104	-0
1105	-0
1105	-0
1106	-0
1106	-0
1107	-0
1107	-0
1107	-0
1108	-0
1108	-0
1109	-0
1109	-0
1109	-0
1110	-0
1110	-0
1111	-0
1111	-0
