Data from 15c-2-4a_Absorbance__665__00665.txt Node

Date: Thu Jan 25 10:26:20 CET 2024
User: Marek
Spectrometer: MAYP115816
Trigger mode: 0
Integration Time (sec): 2.000000E-1
Scans to average: 10
Electric dark correction enabled: true
Nonlinearity correction enabled: true
Boxcar width: 5
XAxis mode: Wavelengths
Number of Pixels in Spectrum: 2068
>>>>>Begin Spectral Data<<<<<
199	-2.132
199	-1.962
200	-1.809
200	-1.687
201	-1.608
201	-1.552
202	-1.469
202	-1.408
203	-1.356
203	-1.309
204	-1.283
204	-1.255
205	-1.234
205	-1.222
205	-1.216
206	-1.212
206	-1.208
207	-1.208
207	-1.204
208	-1.2
208	-1.196
209	-1.192
209	-1.189
210	-1.186
210	-1.184
211	-1.183
211	-1.181
212	-1.178
212	-1.176
213	-1.173
213	-1.174
213	-1.174
214	-1.172
214	-1.171
215	-1.169
215	-1.168
216	-1.165
216	-1.164
217	-1.162
217	-1.159
218	-1.158
218	-1.155
219	-1.153
219	-1.151
220	-1.15
220	-1.146
221	-1.143
221	-1.141
221	-1.137
222	-1.134
222	-1.133
223	-1.128
223	-1.122
224	-1.115
224	-1.106
225	-1.097
225	-1.089
226	-1.078
226	-1.066
227	-1.051
227	-1.038
228	-1.018
228	-1
229	-0.979
229	-0.955
229	-0.929
230	-0.899
230	-0.87
231	-0.835
231	-0.797
232	-0.757
232	-0.714
233	-0.669
233	-0.623
234	-0.578
234	-0.53
235	-0.484
235	-0.438
236	-0.393
236	-0.351
236	-0.31
237	-0.27
237	-0.233
238	-0.198
238	-0.165
239	-0.135
239	-0.106
240	-0.08
240	-0.056
241	-0.033
241	-0.012
242	0.007
242	0.024
243	0.04
243	0.055
243	0.068
244	0.081
244	0.092
245	0.102
245	0.112
246	0.121
246	0.129
247	0.137
247	0.144
248	0.151
248	0.157
249	0.163
249	0.168
250	0.173
250	0.179
250	0.183
251	0.187
251	0.191
252	0.195
252	0.199
253	0.203
253	0.206
254	0.209
254	0.211
255	0.214
255	0.217
256	0.219
256	0.221
257	0.223
257	0.225
258	0.226
258	0.227
258	0.229
259	0.23
259	0.231
260	0.232
260	0.233
261	0.233
261	0.234
262	0.234
262	0.234
263	0.235
263	0.235
264	0.235
264	0.235
265	0.235
265	0.235
265	0.234
266	0.234
266	0.234
267	0.233
267	0.233
268	0.232
268	0.231
269	0.231
269	0.23
270	0.229
270	0.228
271	0.227
271	0.225
272	0.224
272	0.223
272	0.222
273	0.221
273	0.219
274	0.218
274	0.217
275	0.215
275	0.214
276	0.212
276	0.211
277	0.209
277	0.208
278	0.206
278	0.204
278	0.202
279	0.2
279	0.199
280	0.198
280	0.197
281	0.196
281	0.195
282	0.194
282	0.193
283	0.193
283	0.192
284	0.191
284	0.19
285	0.189
285	0.187
285	0.186
286	0.185
286	0.184
287	0.183
287	0.181
288	0.18
288	0.179
289	0.179
289	0.178
290	0.177
290	0.176
291	0.175
291	0.174
292	0.173
292	0.173
292	0.172
293	0.171
293	0.171
294	0.17
294	0.169
295	0.169
295	0.168
296	0.168
296	0.167
297	0.167
297	0.166
298	0.166
298	0.166
298	0.165
299	0.165
299	0.165
300	0.164
300	0.164
301	0.163
301	0.163
302	0.162
302	0.162
303	0.162
303	0.161
304	0.161
304	0.161
305	0.16
305	0.159
305	0.159
306	0.159
306	0.158
307	0.158
307	0.158
308	0.157
308	0.157
309	0.156
309	0.156
310	0.155
310	0.155
311	0.155
311	0.154
311	0.154
312	0.153
312	0.153
313	0.152
313	0.152
314	0.151
314	0.151
315	0.15
315	0.15
316	0.149
316	0.149
317	0.148
317	0.148
318	0.147
318	0.147
318	0.146
319	0.146
319	0.145
320	0.145
320	0.144
321	0.143
321	0.143
322	0.142
322	0.142
323	0.141
323	0.141
324	0.14
324	0.14
324	0.139
325	0.139
325	0.138
326	0.138
326	0.138
327	0.137
327	0.137
328	0.136
328	0.136
329	0.135
329	0.135
330	0.134
330	0.134
330	0.133
331	0.133
331	0.132
332	0.132
332	0.131
333	0.131
333	0.13
334	0.13
334	0.129
335	0.129
335	0.129
336	0.128
336	0.128
336	0.127
337	0.127
337	0.126
338	0.126
338	0.125
339	0.125
339	0.124
340	0.124
340	0.123
341	0.123
341	0.123
342	0.122
342	0.122
342	0.121
343	0.121
343	0.12
344	0.12
344	0.12
345	0.119
345	0.119
346	0.118
346	0.118
347	0.117
347	0.117
348	0.116
348	0.116
348	0.115
349	0.115
349	0.114
350	0.114
350	0.113
351	0.113
351	0.112
352	0.112
352	0.111
353	0.111
353	0.11
354	0.109
354	0.109
354	0.108
355	0.107
355	0.107
356	0.106
356	0.106
357	0.105
357	0.105
358	0.105
358	0.105
359	0.106
359	0.106
360	0.107
360	0.107
360	0.108
361	0.108
361	0.108
362	0.109
362	0.109
363	0.109
363	0.108
364	0.108
364	0.107
365	0.107
365	0.107
366	0.107
366	0.106
366	0.106
367	0.106
367	0.106
368	0.106
368	0.105
369	0.105
369	0.105
370	0.105
370	0.104
371	0.104
371	0.103
372	0.103
372	0.103
372	0.103
373	0.102
373	0.102
374	0.102
374	0.102
375	0.102
375	0.102
376	0.102
376	0.102
377	0.102
377	0.102
378	0.103
378	0.103
378	0.103
379	0.103
379	0.103
380	0.103
380	0.103
381	0.103
381	0.103
382	0.103
382	0.102
383	0.102
383	0.102
383	0.102
384	0.101
384	0.101
385	0.1
385	0.1
386	0.1
386	0.101
387	0.101
387	0.101
388	0.1
388	0.1
389	0.1
389	0.1
389	0.101
390	0.101
390	0.101
391	0.101
391	0.101
392	0.101
392	0.101
393	0.101
393	0.101
394	0.101
394	0.101
394	0.101
395	0.101
395	0.1
396	0.1
396	0.1
397	0.1
397	0.101
398	0.101
398	0.101
399	0.101
399	0.101
400	0.1
400	0.1
400	0.1
401	0.099
401	0.099
402	0.098
402	0.097
403	0.097
403	0.097
404	0.097
404	0.097
405	0.097
405	0.096
405	0.096
406	0.096
406	0.096
407	0.095
407	0.095
408	0.095
408	0.094
409	0.094
409	0.094
410	0.093
410	0.093
411	0.094
411	0.094
411	0.093
412	0.093
412	0.093
413	0.093
413	0.093
414	0.093
414	0.093
415	0.092
415	0.092
416	0.092
416	0.092
416	0.091
417	0.091
417	0.091
418	0.091
418	0.091
419	0.091
419	0.092
420	0.093
420	0.093
421	0.093
421	0.093
421	0.094
422	0.094
422	0.094
423	0.094
423	0.094
424	0.093
424	0.093
425	0.092
425	0.091
426	0.091
426	0.09
427	0.09
427	0.091
427	0.091
428	0.091
428	0.092
429	0.092
429	0.092
430	0.092
430	0.092
431	0.092
431	0.092
432	0.092
432	0.091
432	0.091
433	0.089
433	0.089
434	0.088
434	0.088
435	0.088
435	0.088
436	0.088
436	0.088
437	0.088
437	0.088
437	0.088
438	0.088
438	0.088
439	0.088
439	0.088
440	0.087
440	0.087
441	0.087
441	0.087
442	0.087
442	0.087
442	0.088
443	0.088
443	0.088
444	0.088
444	0.088
445	0.089
445	0.089
446	0.089
446	0.089
447	0.089
447	0.088
447	0.088
448	0.088
448	0.088
449	0.088
449	0.088
450	0.088
450	0.087
451	0.087
451	0.087
452	0.086
452	0.086
452	0.086
453	0.085
453	0.085
454	0.084
454	0.084
455	0.084
455	0.083
456	0.083
456	0.083
457	0.083
457	0.083
458	0.082
458	0.083
458	0.083
459	0.083
459	0.083
460	0.082
460	0.082
461	0.081
461	0.081
462	0.081
462	0.081
463	0.081
463	0.082
463	0.082
464	0.082
464	0.083
465	0.083
465	0.083
466	0.083
466	0.083
467	0.083
467	0.082
467	0.082
468	0.08
468	0.079
469	0.077
469	0.076
470	0.075
470	0.074
471	0.074
471	0.073
472	0.073
472	0.073
472	0.073
473	0.074
473	0.075
474	0.076
474	0.077
475	0.078
475	0.078
476	0.079
476	0.079
477	0.079
477	0.079
477	0.08
478	0.08
478	0.08
479	0.081
479	0.081
480	0.082
480	0.083
481	0.083
481	0.084
482	0.085
482	0.085
482	0.087
483	0.088
483	0.09
484	0.093
484	0.095
485	0.096
485	0.097
486	0.098
486	0.098
487	0.099
487	0.099
487	0.099
488	0.098
488	0.097
489	0.095
489	0.094
490	0.092
490	0.092
491	0.091
491	0.091
492	0.092
492	0.092
492	0.093
493	0.093
493	0.093
494	0.094
494	0.096
495	0.097
495	0.098
496	0.099
496	0.1
496	0.1
497	0.101
497	0.101
498	0.101
498	0.102
499	0.102
499	0.102
500	0.102
500	0.103
501	0.104
501	0.105
501	0.106
502	0.107
502	0.108
503	0.109
503	0.11
504	0.111
504	0.112
505	0.112
505	0.112
506	0.113
506	0.113
506	0.113
507	0.113
507	0.113
508	0.113
508	0.114
509	0.114
509	0.114
510	0.114
510	0.114
511	0.114
511	0.114
511	0.114
512	0.115
512	0.115
513	0.115
513	0.114
514	0.113
514	0.112
515	0.112
515	0.111
515	0.111
516	0.111
516	0.111
517	0.111
517	0.111
518	0.111
518	0.11
519	0.109
519	0.107
520	0.105
520	0.103
520	0.101
521	0.099
521	0.097
522	0.095
522	0.094
523	0.093
523	0.093
524	0.095
524	0.097
524	0.099
525	0.102
525	0.104
526	0.107
526	0.109
527	0.111
527	0.113
528	0.115
528	0.117
529	0.117
529	0.117
529	0.118
530	0.118
530	0.118
531	0.118
531	0.118
532	0.118
532	0.118
533	0.117
533	0.117
533	0.117
534	0.117
534	0.117
535	0.116
535	0.116
536	0.115
536	0.115
537	0.115
537	0.114
538	0.114
538	0.113
538	0.112
539	0.112
539	0.111
540	0.111
540	0.11
541	0.109
541	0.108
542	0.107
542	0.106
542	0.105
543	0.104
543	0.103
544	0.102
544	0.102
545	0.101
545	0.101
546	0.101
546	0.101
547	0.1
547	0.099
547	0.097
548	0.096
548	0.094
549	0.093
549	0.091
550	0.09
550	0.088
551	0.086
551	0.085
551	0.083
552	0.082
552	0.082
553	0.081
553	0.081
554	0.081
554	0.08
555	0.078
555	0.077
556	0.075
556	0.072
556	0.07
557	0.068
557	0.066
558	0.065
558	0.063
559	0.062
559	0.062
560	0.062
560	0.061
560	0.061
561	0.062
561	0.062
562	0.063
562	0.062
563	0.061
563	0.06
564	0.058
564	0.056
564	0.054
565	0.052
565	0.051
566	0.05
566	0.049
567	0.049
567	0.049
568	0.05
568	0.051
568	0.053
569	0.055
569	0.056
570	0.058
570	0.058
571	0.059
571	0.06
572	0.06
572	0.061
573	0.061
573	0.061
573	0.06
574	0.06
574	0.06
575	0.06
575	0.061
576	0.062
576	0.062
577	0.062
577	0.061
577	0.061
578	0.06
578	0.06
579	0.061
579	0.062
580	0.062
580	0.06
581	0.059
581	0.057
581	0.056
582	0.056
582	0.056
583	0.057
583	0.057
584	0.056
584	0.053
585	0.052
585	0.052
585	0.052
586	0.051
586	0.051
587	0.05
587	0.048
588	0.046
588	0.043
589	0.041
589	0.04
590	0.039
590	0.037
590	0.037
591	0.037
591	0.037
592	0.037
592	0.036
593	0.036
593	0.037
594	0.036
594	0.036
594	0.036
595	0.036
595	0.035
596	0.034
596	0.034
597	0.036
597	0.037
598	0.038
598	0.039
598	0.039
599	0.04
599	0.039
600	0.039
600	0.038
601	0.037
601	0.036
602	0.034
602	0.033
602	0.031
603	0.03
603	0.03
604	0.031
604	0.031
605	0.032
605	0.033
606	0.034
606	0.033
606	0.033
607	0.032
607	0.032
608	0.032
608	0.031
609	0.03
609	0.029
610	0.028
610	0.026
610	0.026
611	0.026
611	0.027
612	0.028
612	0.029
613	0.031
613	0.032
614	0.033
614	0.033
614	0.034
615	0.034
615	0.033
616	0.033
616	0.033
617	0.032
617	0.031
618	0.029
618	0.028
618	0.027
619	0.026
619	0.026
620	0.027
620	0.028
621	0.028
621	0.028
622	0.028
622	0.029
622	0.029
623	0.028
623	0.029
624	0.029
624	0.029
625	0.029
625	0.029
626	0.029
626	0.029
626	0.029
627	0.029
627	0.029
628	0.029
628	0.03
629	0.03
629	0.03
630	0.029
630	0.029
630	0.028
631	0.028
631	0.028
632	0.028
632	0.028
633	0.028
633	0.028
634	0.029
634	0.03
634	0.032
635	0.033
635	0.034
636	0.035
636	0.036
637	0.037
637	0.038
638	0.039
638	0.039
638	0.04
639	0.04
639	0.04
640	0.04
640	0.041
641	0.042
641	0.043
642	0.044
642	0.045
642	0.047
643	0.048
643	0.049
644	0.051
644	0.053
645	0.055
645	0.056
646	0.058
646	0.06
646	0.062
647	0.064
647	0.067
648	0.069
648	0.071
649	0.073
649	0.074
650	0.076
650	0.078
650	0.08
651	0.081
651	0.083
652	0.083
652	0.084
653	0.086
653	0.091
653	0.1
654	0.083
654	0.071
655	0.074
655	0.075
656	0.077
656	0.079
657	0.08
657	0.082
657	0.083
658	0.081
658	0.075
659	0.091
659	0.114
660	0.115
660	0.116
661	0.117
661	0.118
661	0.119
662	0.121
662	0.124
663	0.126
663	0.128
664	0.13
664	0.132
665	0.134
665	0.136
665	0.138
666	0.14
666	0.141
667	0.143
667	0.144
668	0.146
668	0.148
669	0.149
669	0.151
669	0.153
670	0.156
670	0.158
671	0.16
671	0.161
672	0.162
672	0.163
672	0.164
673	0.165
673	0.166
674	0.167
674	0.167
675	0.167
675	0.167
676	0.168
676	0.169
676	0.17
677	0.171
677	0.173
678	0.174
678	0.175
679	0.175
679	0.176
680	0.177
680	0.178
680	0.179
681	0.179
681	0.179
682	0.18
682	0.181
683	0.182
683	0.184
684	0.185
684	0.186
684	0.186
685	0.186
685	0.187
686	0.187
686	0.187
687	0.187
687	0.186
687	0.186
688	0.185
688	0.184
689	0.184
689	0.185
690	0.185
690	0.185
691	0.184
691	0.185
691	0.185
692	0.184
692	0.184
693	0.184
693	0.184
694	0.184
694	0.184
695	0.184
695	0.186
695	0.187
696	0.187
696	0.187
697	0.187
697	0.187
698	0.186
698	0.185
698	0.183
699	0.182
699	0.18
700	0.177
700	0.175
701	0.174
701	0.173
702	0.172
702	0.17
702	0.169
703	0.167
703	0.166
704	0.164
704	0.163
705	0.162
705	0.161
705	0.16
706	0.159
706	0.158
707	0.157
707	0.156
708	0.156
708	0.155
709	0.154
709	0.154
709	0.152
710	0.15
710	0.148
711	0.147
711	0.145
712	0.144
712	0.143
713	0.142
713	0.142
713	0.141
714	0.139
714	0.138
715	0.137
715	0.135
716	0.133
716	0.132
716	0.131
717	0.129
717	0.128
718	0.126
718	0.124
719	0.122
719	0.121
720	0.119
720	0.117
720	0.115
721	0.113
721	0.11
722	0.108
722	0.105
723	0.103
723	0.101
723	0.1
724	0.098
724	0.096
725	0.095
725	0.093
726	0.092
726	0.091
727	0.09
727	0.089
727	0.088
728	0.086
728	0.085
729	0.085
729	0.084
730	0.083
730	0.081
730	0.08
731	0.079
731	0.077
732	0.076
732	0.075
733	0.074
733	0.072
734	0.07
734	0.068
734	0.066
735	0.065
735	0.063
736	0.061
736	0.06
737	0.058
737	0.056
737	0.055
738	0.053
738	0.051
739	0.049
739	0.047
740	0.045
740	0.044
741	0.043
741	0.041
741	0.039
742	0.036
742	0.033
743	0.031
743	0.029
744	0.027
744	0.026
744	0.024
745	0.023
745	0.021
746	0.02
746	0.019
747	0.018
747	0.018
748	0.018
748	0.018
748	0.018
749	0.017
749	0.017
750	0.016
750	0.015
751	0.015
751	0.014
751	0.014
752	0.014
752	0.013
753	0.012
753	0.011
754	0.01
754	0.01
754	0.01
755	0.01
755	0.01
756	0.01
756	0.009
757	0.008
757	0.008
758	0.007
758	0.006
758	0.005
759	0.004
759	0.002
760	-0
760	-0.003
761	-0.005
761	-0.006
761	-0.007
762	-0.009
762	-0.009
763	-0.01
763	-0.011
764	-0.013
764	-0.014
764	-0.016
765	-0.017
765	-0.019
766	-0.02
766	-0.02
767	-0.021
767	-0.023
768	-0.025
768	-0.027
768	-0.029
769	-0.029
769	-0.03
770	-0.03
770	-0.031
771	-0.033
771	-0.035
771	-0.037
772	-0.039
772	-0.041
773	-0.043
773	-0.045
774	-0.048
774	-0.052
775	-0.055
775	-0.058
775	-0.061
776	-0.065
776	-0.068
777	-0.071
777	-0.074
778	-0.078
778	-0.081
778	-0.084
779	-0.086
779	-0.088
780	-0.091
780	-0.095
781	-0.1
781	-0.105
781	-0.11
782	-0.115
782	-0.12
783	-0.125
783	-0.129
784	-0.133
784	-0.136
784	-0.139
785	-0.142
785	-0.145
786	-0.145
786	-0.143
787	-0.139
787	-0.135
788	-0.134
788	-0.135
788	-0.137
789	-0.14
789	-0.14
790	-0.137
790	-0.136
791	-0.137
791	-0.138
791	-0.141
792	-0.135
792	-0.124
793	-0.117
793	-0.113
794	-0.11
794	-0.111
794	-0.115
795	-0.116
795	-0.116
796	-0.116
796	-0.119
797	-0.127
797	-0.139
797	-0.146
798	-0.151
798	-0.155
799	-0.156
799	-0.156
800	-0.157
800	-0.158
801	-0.161
801	-0.163
801	-0.162
802	-0.163
802	-0.164
803	-0.165
803	-0.165
804	-0.163
804	-0.157
804	-0.15
805	-0.146
805	-0.144
806	-0.141
806	-0.14
807	-0.139
807	-0.138
807	-0.137
808	-0.137
808	-0.138
809	-0.142
809	-0.147
810	-0.15
810	-0.152
810	-0.155
811	-0.158
811	-0.158
812	-0.155
812	-0.152
813	-0.152
813	-0.153
813	-0.155
814	-0.156
814	-0.157
815	-0.156
815	-0.154
816	-0.152
816	-0.153
817	-0.158
817	-0.162
817	-0.163
818	-0.163
818	-0.159
819	-0.154
819	-0.151
820	-0.152
820	-0.154
820	-0.156
821	-0.155
821	-0.152
822	-0.149
822	-0.146
823	-0.141
823	-0.139
823	-0.139
824	-0.136
824	-0.13
825	-0.122
825	-0.112
826	-0.103
826	-0.097
826	-0.09
827	-0.084
827	-0.079
828	-0.074
828	-0.069
829	-0.065
829	-0.061
829	-0.057
830	-0.055
830	-0.052
831	-0.048
831	-0.044
832	-0.042
832	-0.039
832	-0.037
833	-0.035
833	-0.034
834	-0.033
834	-0.032
835	-0.031
835	-0.031
835	-0.032
836	-0.032
836	-0.032
837	-0.032
837	-0.032
838	-0.032
838	-0.032
839	-0.032
839	-0.032
839	-0.031
840	-0.031
840	-0.03
841	-0.029
841	-0.027
842	-0.026
842	-0.025
842	-0.023
843	-0.022
843	-0.02
844	-0.019
844	-0.018
845	-0.017
845	-0.016
845	-0.015
846	-0.015
846	-0.014
847	-0.013
847	-0.012
848	-0.012
848	-0.011
848	-0.01
849	-0.009
849	-0.008
850	-0.007
850	-0.007
851	-0.006
851	-0.006
851	-0.006
852	-0.006
852	-0.006
853	-0.006
853	-0.006
854	-0.006
854	-0.006
854	-0.006
855	-0.006
855	-0.007
856	-0.007
856	-0.007
857	-0.007
857	-0.007
857	-0.006
858	-0.006
858	-0.006
859	-0.005
859	-0.005
860	-0.004
860	-0.003
860	-0.002
861	-0
861	0.001
862	0.001
862	0.002
863	0.003
863	0.004
863	0.005
864	0.006
864	0.007
865	0.008
865	0.008
866	0.008
866	0.009
866	0.009
867	0.01
867	0.01
868	0.01
868	0.011
869	0.011
869	0.011
869	0.01
870	0.01
870	0.01
871	0.01
871	0.009
872	0.008
872	0.006
872	0.005
873	0.004
873	0.003
874	0.002
874	0.001
875	0.001
875	-0
875	-0.001
876	-0.001
876	-0.001
877	-0.001
877	-0
878	-0
878	0
878	0.001
879	0.001
879	0.002
880	0.003
880	0.003
881	0.004
881	0.005
881	0.007
882	0.008
882	0.009
883	0.009
883	0.01
884	0.011
884	0.011
884	0.011
885	0.011
885	0.011
886	0.011
886	0.01
887	0.01
887	0.009
887	0.009
888	0.008
888	0.008
889	0.008
889	0.009
890	0.009
890	0.009
890	0.009
891	0.01
891	0.01
892	0.01
892	0.011
893	0.012
893	0.012
893	0.013
894	0.014
894	0.014
895	0.014
895	0.014
895	0.014
896	0.014
896	0.014
897	0.014
897	0.013
898	0.012
898	0.011
898	0.01
899	0.009
899	0.008
900	0.006
900	0.005
901	0.005
901	0.004
901	0.004
902	0.003
902	0.003
903	0.003
903	0.002
904	0.002
904	0.003
904	0.003
905	0.003
905	0.004
906	0.004
906	0.004
907	0.004
907	0.004
907	0.004
908	0.004
908	0.004
909	0.004
909	0.004
910	0.004
910	0.004
910	0.004
911	0.004
911	0.005
912	0.006
912	0.007
913	0.008
913	0.009
913	0.01
914	0.011
914	0.012
915	0.013
915	0.014
916	0.015
916	0.016
916	0.017
917	0.017
917	0.018
918	0.017
918	0.017
918	0.017
919	0.016
919	0.015
920	0.014
920	0.013
921	0.011
921	0.01
921	0.009
922	0.008
922	0.008
923	0.007
923	0.007
924	0.007
924	0.007
924	0.007
925	0.008
925	0.008
926	0.009
926	0.01
927	0.01
927	0.011
927	0.011
928	0.012
928	0.013
929	0.013
929	0.014
930	0.014
930	0.014
930	0.014
931	0.014
931	0.014
932	0.014
932	0.014
933	0.014
933	0.013
933	0.013
934	0.013
934	0.013
935	0.013
935	0.013
935	0.013
936	0.013
936	0.013
937	0.013
937	0.013
938	0.012
938	0.012
938	0.012
939	0.012
939	0.012
940	0.011
940	0.012
941	0.012
941	0.012
941	0.012
942	0.013
942	0.013
943	0.014
943	0.014
944	0.015
944	0.016
944	0.017
945	0.017
945	0.018
946	0.019
946	0.02
946	0.02
947	0.021
947	0.021
948	0.021
948	0.02
949	0.02
949	0.019
949	0.018
950	0.018
950	0.017
951	0.017
951	0.016
952	0.016
952	0.016
952	0.016
953	0.016
953	0.016
954	0.016
954	0.016
955	0.015
955	0.015
955	0.015
956	0.015
956	0.014
957	0.014
957	0.014
957	0.013
958	0.013
958	0.013
959	0.013
959	0.014
960	0.014
960	0.014
960	0.015
961	0.015
961	0.015
962	0.016
962	0.016
963	0.016
963	0.017
963	0.017
964	0.017
964	0.017
965	0.016
965	0.016
966	0.016
966	0.016
966	0.015
967	0.015
967	0.014
968	0.014
968	0.013
968	0.013
969	0.013
969	0.013
970	0.013
970	0.013
971	0.013
971	0.013
971	0.014
972	0.014
972	0.015
973	0.016
973	0.016
974	0.017
974	0.018
974	0.018
975	0.018
975	0.018
976	0.018
976	0.018
976	0.017
977	0.017
977	0.016
978	0.015
978	0.014
979	0.013
979	0.013
979	0.012
980	0.011
980	0.011
981	0.01
981	0.01
982	0.009
982	0.009
982	0.008
983	0.008
983	0.008
984	0.008
984	0.008
984	0.008
985	0.007
985	0.007
986	0.007
986	0.006
987	0.006
987	0.006
987	0.006
988	0.005
988	0.005
989	0.004
989	0.004
990	0.004
990	0.003
990	0.003
991	0.004
991	0.003
992	0.004
992	0.003
992	0.003
993	0.003
993	0.003
994	0.002
994	0.002
995	0.001
995	0.001
995	0
996	0
996	-0
997	-0.001
997	-0.001
997	-0.001
998	-0.001
998	-0
999	0
999	0.001
1000	0.002
1000	0.002
1000	0.003
1001	0.004
1001	0.004
1002	0.005
1002	0.005
1003	0.005
1003	0.005
1003	0.005
1004	0.005
1004	0.005
1005	0.004
1005	0.004
1005	0.004
1006	0.003
1006	0.003
1007	0.003
1007	0.002
1008	0.003
1008	0.003
1008	0.003
1009	0.003
1009	0.003
1010	0.004
1010	0.005
1010	0.005
1011	0.006
1011	0.007
1012	0.008
1012	0.009
1013	0.01
1013	0.011
1013	0.011
1014	0.012
1014	0.012
1015	0.013
1015	0.013
1016	0.013
1016	0.013
1016	0.013
1017	0.013
1017	0.013
1018	0.013
1018	0.013
1018	0.013
1019	0.013
1019	0.012
1020	0.012
1020	0.012
1021	0.011
1021	0.011
1021	0.011
1022	0.01
1022	0.01
1023	0.01
1023	0.01
1023	0.01
1024	0.009
1024	0.009
1025	0.009
1025	0.01
1026	0.01
1026	0.01
1026	0.01
1027	0.01
1027	0.01
1028	0.011
1028	0.011
1028	0.012
1029	0.012
1029	0.013
1030	0.013
1030	0.013
1031	0.014
1031	0.014
1031	0.014
1032	0.014
1032	0.014
1033	0.014
1033	0.014
1033	0.014
1034	0.013
1034	0.013
1035	0.013
1035	0.013
1036	0.013
1036	0.014
1036	0.015
1037	0.015
1037	0.016
1038	0.017
1038	0.018
1039	0.019
1039	0.02
1039	0.021
1040	0.022
1040	0.022
1041	0.023
1041	0.024
1041	0.024
1042	0.024
1042	0.025
1043	0.026
1043	0.026
1044	0.027
1044	0.027
1044	0.028
1045	0.029
1045	0.03
1046	0.031
1046	0.032
1046	0.034
1047	0.035
1047	0.037
1048	0.038
1048	0.039
1049	0.04
1049	0.041
1049	0.041
1050	0.041
1050	0.041
1051	0.041
1051	0.041
1051	0.04
1052	0.04
1052	0.039
1053	0.038
1053	0.037
1053	0.036
1054	0.035
1054	0.034
1055	0.034
1055	0.033
1056	0.032
1056	0.031
1056	0.031
1057	0.029
1057	0.029
1058	0.029
1058	0.029
1058	0.029
1059	0.029
1059	0.029
1060	0.03
1060	0.03
1061	0.031
1061	0.032
1061	0.033
1062	0.033
1062	0.034
1063	0.034
1063	0.035
1063	0.036
1064	0.037
1064	0.038
1065	0.039
1065	0.041
1066	0.043
1066	0.045
1066	0.047
1067	0.049
1067	0.051
1068	0.053
1068	0.055
1068	0.057
1069	0.058
1069	0.059
1070	0.06
1070	0.061
1071	0.062
1071	0.063
1071	0.064
1072	0.066
1072	0.067
1073	0.068
1073	0.069
1073	0.07
1074	0.071
1074	0.072
1075	0.072
1075	0.072
1076	0.072
1076	0.073
1076	0.074
1077	0.074
1077	0.075
1078	0.077
1078	0.078
1078	0.08
1079	0.082
1079	0.085
1080	0.087
1080	0.089
1080	0.091
1081	0.093
1081	0.095
1082	0.097
1082	0.098
1083	0.1
1083	0.102
1083	0.104
1084	0.106
1084	0.109
1085	0.112
1085	0.115
1085	0.117
1086	0.12
1086	0.122
1087	0.126
1087	0.13
1088	0.132
1088	0.135
1088	0.139
1089	0.144
1089	0.148
1090	0.153
1090	0.159
1090	0.165
1091	0.172
1091	0.18
1092	0.187
1092	0.196
1092	0.205
1093	0.213
1093	0.223
1094	0.233
1094	0.242
1095	0.253
1095	0.267
1095	0.281
1096	0.296
1096	0.312
1097	0.331
1097	0.35
1097	0.372
1098	0.396
1098	0.424
1099	0.456
1099	0.491
1100	0.531
1100	0.579
1100	0.635
1101	0.701
1101	0.788
1102	0.911
1102	1.097
1102	1.445
1103	-0
1103	-0
1104	-0
1104	-0
1104	-0
1105	-0
1105	-0
1106	-0
1106	-0
1107	-0
1107	-0
1107	-0
1108	-0
1108	-0
1109	-0
1109	-0
1109	-0
1110	-0
1110	-0
1111	-0
1111	-0
