Data from 15c-2-4a_Absorbance__777__00777.txt Node

Date: Thu Jan 25 10:30:04 CET 2024
User: Marek
Spectrometer: MAYP115816
Trigger mode: 0
Integration Time (sec): 2.000000E-1
Scans to average: 10
Electric dark correction enabled: true
Nonlinearity correction enabled: true
Boxcar width: 5
XAxis mode: Wavelengths
Number of Pixels in Spectrum: 2068
>>>>>Begin Spectral Data<<<<<
199	-2.13
199	-1.959
200	-1.806
200	-1.684
201	-1.605
201	-1.549
202	-1.466
202	-1.404
203	-1.352
203	-1.306
204	-1.28
204	-1.252
205	-1.231
205	-1.219
205	-1.213
206	-1.209
206	-1.205
207	-1.205
207	-1.202
208	-1.197
208	-1.193
209	-1.188
209	-1.185
210	-1.183
210	-1.18
211	-1.179
211	-1.178
212	-1.175
212	-1.172
213	-1.17
213	-1.171
213	-1.171
214	-1.17
214	-1.169
215	-1.167
215	-1.165
216	-1.163
216	-1.162
217	-1.159
217	-1.156
218	-1.155
218	-1.152
219	-1.15
219	-1.147
220	-1.146
220	-1.142
221	-1.139
221	-1.137
221	-1.134
222	-1.131
222	-1.13
223	-1.125
223	-1.118
224	-1.111
224	-1.102
225	-1.093
225	-1.085
226	-1.074
226	-1.062
227	-1.047
227	-1.034
228	-1.015
228	-0.996
229	-0.975
229	-0.951
229	-0.925
230	-0.896
230	-0.866
231	-0.832
231	-0.793
232	-0.753
232	-0.709
233	-0.664
233	-0.618
234	-0.571
234	-0.524
235	-0.476
235	-0.43
236	-0.384
236	-0.341
236	-0.298
237	-0.258
237	-0.22
238	-0.184
238	-0.15
239	-0.119
239	-0.089
240	-0.062
240	-0.037
241	-0.013
241	0.008
242	0.028
242	0.046
243	0.063
243	0.078
243	0.092
244	0.106
244	0.118
245	0.129
245	0.139
246	0.148
246	0.157
247	0.165
247	0.173
248	0.18
248	0.187
249	0.193
249	0.198
250	0.204
250	0.209
250	0.214
251	0.219
251	0.223
252	0.227
252	0.231
253	0.234
253	0.238
254	0.241
254	0.244
255	0.247
255	0.25
256	0.253
256	0.255
257	0.257
257	0.259
258	0.26
258	0.262
258	0.263
259	0.265
259	0.266
260	0.267
260	0.268
261	0.268
261	0.269
262	0.27
262	0.27
263	0.27
263	0.271
264	0.271
264	0.271
265	0.271
265	0.271
265	0.27
266	0.27
266	0.27
267	0.27
267	0.269
268	0.268
268	0.268
269	0.267
269	0.266
270	0.265
270	0.264
271	0.263
271	0.262
272	0.26
272	0.259
272	0.258
273	0.257
273	0.255
274	0.254
274	0.253
275	0.251
275	0.25
276	0.249
276	0.247
277	0.246
277	0.244
278	0.242
278	0.24
278	0.238
279	0.237
279	0.235
280	0.234
280	0.233
281	0.232
281	0.231
282	0.23
282	0.229
283	0.229
283	0.228
284	0.227
284	0.226
285	0.225
285	0.224
285	0.223
286	0.222
286	0.221
287	0.219
287	0.218
288	0.217
288	0.216
289	0.215
289	0.214
290	0.213
290	0.213
291	0.212
291	0.211
292	0.21
292	0.209
292	0.209
293	0.208
293	0.207
294	0.207
294	0.206
295	0.206
295	0.205
296	0.205
296	0.204
297	0.204
297	0.203
298	0.203
298	0.202
298	0.202
299	0.201
299	0.201
300	0.2
300	0.2
301	0.199
301	0.199
302	0.198
302	0.198
303	0.198
303	0.197
304	0.197
304	0.196
305	0.196
305	0.195
305	0.195
306	0.195
306	0.194
307	0.194
307	0.193
308	0.193
308	0.192
309	0.192
309	0.191
310	0.191
310	0.19
311	0.19
311	0.19
311	0.189
312	0.189
312	0.188
313	0.188
313	0.187
314	0.187
314	0.186
315	0.186
315	0.185
316	0.185
316	0.184
317	0.184
317	0.183
318	0.182
318	0.182
318	0.181
319	0.181
319	0.18
320	0.18
320	0.179
321	0.178
321	0.177
322	0.177
322	0.176
323	0.176
323	0.175
324	0.175
324	0.174
324	0.174
325	0.173
325	0.173
326	0.172
326	0.172
327	0.171
327	0.171
328	0.17
328	0.17
329	0.169
329	0.169
330	0.168
330	0.168
330	0.167
331	0.166
331	0.166
332	0.165
332	0.165
333	0.164
333	0.164
334	0.163
334	0.162
335	0.162
335	0.162
336	0.161
336	0.161
336	0.16
337	0.16
337	0.159
338	0.159
338	0.158
339	0.158
339	0.158
340	0.157
340	0.156
341	0.156
341	0.155
342	0.155
342	0.155
342	0.154
343	0.153
343	0.153
344	0.153
344	0.152
345	0.152
345	0.151
346	0.151
346	0.15
347	0.15
347	0.149
348	0.149
348	0.148
348	0.148
349	0.147
349	0.147
350	0.146
350	0.146
351	0.145
351	0.145
352	0.144
352	0.144
353	0.143
353	0.142
354	0.142
354	0.141
354	0.14
355	0.139
355	0.138
356	0.137
356	0.137
357	0.136
357	0.136
358	0.136
358	0.136
359	0.137
359	0.138
360	0.138
360	0.139
360	0.14
361	0.14
361	0.141
362	0.141
362	0.141
363	0.141
363	0.141
364	0.14
364	0.14
365	0.14
365	0.139
366	0.139
366	0.139
366	0.138
367	0.138
367	0.138
368	0.138
368	0.137
369	0.137
369	0.137
370	0.137
370	0.136
371	0.136
371	0.136
372	0.135
372	0.135
372	0.135
373	0.135
373	0.134
374	0.134
374	0.134
375	0.134
375	0.134
376	0.134
376	0.134
377	0.134
377	0.135
378	0.135
378	0.135
378	0.135
379	0.135
379	0.136
380	0.136
380	0.136
381	0.136
381	0.136
382	0.135
382	0.135
383	0.135
383	0.134
383	0.134
384	0.134
384	0.133
385	0.133
385	0.133
386	0.133
386	0.133
387	0.133
387	0.133
388	0.133
388	0.133
389	0.133
389	0.133
389	0.133
390	0.133
390	0.133
391	0.133
391	0.134
392	0.134
392	0.133
393	0.134
393	0.133
394	0.133
394	0.133
394	0.133
395	0.133
395	0.132
396	0.132
396	0.132
397	0.132
397	0.132
398	0.132
398	0.132
399	0.132
399	0.132
400	0.132
400	0.132
400	0.132
401	0.131
401	0.13
402	0.13
402	0.129
403	0.129
403	0.129
404	0.129
404	0.128
405	0.128
405	0.128
405	0.127
406	0.127
406	0.127
407	0.127
407	0.127
408	0.127
408	0.126
409	0.125
409	0.125
410	0.125
410	0.125
411	0.125
411	0.125
411	0.125
412	0.124
412	0.124
413	0.124
413	0.124
414	0.124
414	0.124
415	0.124
415	0.123
416	0.123
416	0.123
416	0.122
417	0.122
417	0.122
418	0.122
418	0.122
419	0.122
419	0.123
420	0.124
420	0.124
421	0.125
421	0.125
421	0.125
422	0.125
422	0.125
423	0.125
423	0.125
424	0.125
424	0.124
425	0.123
425	0.122
426	0.122
426	0.122
427	0.121
427	0.122
427	0.122
428	0.122
428	0.123
429	0.123
429	0.123
430	0.124
430	0.124
431	0.123
431	0.123
432	0.123
432	0.123
432	0.122
433	0.121
433	0.12
434	0.119
434	0.119
435	0.119
435	0.119
436	0.119
436	0.119
437	0.119
437	0.119
437	0.119
438	0.119
438	0.119
439	0.119
439	0.119
440	0.119
440	0.118
441	0.118
441	0.118
442	0.119
442	0.119
442	0.119
443	0.119
443	0.12
444	0.12
444	0.12
445	0.12
445	0.12
446	0.12
446	0.12
447	0.12
447	0.12
447	0.12
448	0.12
448	0.12
449	0.12
449	0.119
450	0.119
450	0.119
451	0.119
451	0.118
452	0.118
452	0.117
452	0.117
453	0.116
453	0.116
454	0.115
454	0.115
455	0.114
455	0.114
456	0.114
456	0.114
457	0.114
457	0.114
458	0.114
458	0.114
458	0.114
459	0.114
459	0.115
460	0.114
460	0.114
461	0.113
461	0.113
462	0.113
462	0.113
463	0.113
463	0.114
463	0.114
464	0.115
464	0.115
465	0.115
465	0.115
466	0.115
466	0.115
467	0.115
467	0.115
467	0.114
468	0.113
468	0.111
469	0.109
469	0.108
470	0.107
470	0.107
471	0.106
471	0.106
472	0.106
472	0.106
472	0.106
473	0.107
473	0.108
474	0.109
474	0.11
475	0.111
475	0.111
476	0.112
476	0.112
477	0.113
477	0.113
477	0.114
478	0.114
478	0.114
479	0.115
479	0.115
480	0.116
480	0.117
481	0.118
481	0.118
482	0.119
482	0.12
482	0.122
483	0.123
483	0.125
484	0.128
484	0.131
485	0.132
485	0.133
486	0.135
486	0.135
487	0.136
487	0.136
487	0.136
488	0.135
488	0.134
489	0.132
489	0.13
490	0.129
490	0.128
491	0.128
491	0.128
492	0.128
492	0.129
492	0.13
493	0.13
493	0.131
494	0.132
494	0.134
495	0.135
495	0.137
496	0.138
496	0.139
496	0.139
497	0.14
497	0.141
498	0.141
498	0.141
499	0.141
499	0.142
500	0.142
500	0.143
501	0.144
501	0.145
501	0.147
502	0.148
502	0.149
503	0.151
503	0.152
504	0.153
504	0.154
505	0.154
505	0.154
506	0.155
506	0.155
506	0.156
507	0.156
507	0.156
508	0.156
508	0.157
509	0.157
509	0.158
510	0.158
510	0.158
511	0.158
511	0.158
511	0.159
512	0.159
512	0.159
513	0.159
513	0.158
514	0.158
514	0.157
515	0.156
515	0.156
515	0.156
516	0.155
516	0.156
517	0.156
517	0.156
518	0.155
518	0.155
519	0.154
519	0.152
520	0.151
520	0.149
520	0.147
521	0.144
521	0.142
522	0.14
522	0.139
523	0.138
523	0.139
524	0.14
524	0.142
524	0.144
525	0.147
525	0.149
526	0.152
526	0.154
527	0.156
527	0.158
528	0.159
528	0.161
529	0.161
529	0.161
529	0.161
530	0.162
530	0.162
531	0.162
531	0.162
532	0.162
532	0.161
533	0.161
533	0.161
533	0.161
534	0.161
534	0.16
535	0.159
535	0.159
536	0.158
536	0.158
537	0.157
537	0.157
538	0.156
538	0.155
538	0.154
539	0.153
539	0.152
540	0.152
540	0.151
541	0.149
541	0.148
542	0.147
542	0.146
542	0.144
543	0.143
543	0.143
544	0.141
544	0.14
545	0.14
545	0.139
546	0.14
546	0.139
547	0.138
547	0.137
547	0.135
548	0.133
548	0.131
549	0.13
549	0.128
550	0.126
550	0.124
551	0.122
551	0.12
551	0.118
552	0.117
552	0.116
553	0.116
553	0.115
554	0.115
554	0.114
555	0.112
555	0.11
556	0.108
556	0.106
556	0.103
557	0.101
557	0.099
558	0.097
558	0.095
559	0.094
559	0.093
560	0.093
560	0.092
560	0.092
561	0.092
561	0.092
562	0.093
562	0.092
563	0.091
563	0.089
564	0.087
564	0.085
564	0.082
565	0.081
565	0.079
566	0.078
566	0.077
567	0.076
567	0.077
568	0.078
568	0.079
568	0.08
569	0.082
569	0.084
570	0.085
570	0.085
571	0.086
571	0.087
572	0.087
572	0.087
573	0.088
573	0.087
573	0.087
574	0.086
574	0.085
575	0.085
575	0.086
576	0.087
576	0.087
577	0.086
577	0.086
577	0.085
578	0.084
578	0.084
579	0.085
579	0.086
580	0.086
580	0.084
581	0.082
581	0.08
581	0.079
582	0.079
582	0.079
583	0.079
583	0.079
584	0.078
584	0.075
585	0.074
585	0.074
585	0.073
586	0.073
586	0.073
587	0.071
587	0.069
588	0.067
588	0.064
589	0.062
589	0.06
590	0.059
590	0.057
590	0.057
591	0.057
591	0.057
592	0.057
592	0.056
593	0.056
593	0.056
594	0.056
594	0.056
594	0.055
595	0.055
595	0.054
596	0.054
596	0.054
597	0.055
597	0.057
598	0.057
598	0.058
598	0.059
599	0.059
599	0.059
600	0.058
600	0.057
601	0.056
601	0.055
602	0.053
602	0.052
602	0.05
603	0.049
603	0.049
604	0.05
604	0.05
605	0.051
605	0.052
606	0.053
606	0.053
606	0.052
607	0.052
607	0.052
608	0.051
608	0.05
609	0.049
609	0.048
610	0.047
610	0.046
610	0.045
611	0.046
611	0.046
612	0.047
612	0.049
613	0.05
613	0.052
614	0.053
614	0.053
614	0.053
615	0.053
615	0.053
616	0.053
616	0.052
617	0.051
617	0.05
618	0.049
618	0.047
618	0.046
619	0.046
619	0.046
620	0.047
620	0.047
621	0.048
621	0.048
622	0.048
622	0.048
622	0.049
623	0.048
623	0.049
624	0.049
624	0.049
625	0.049
625	0.049
626	0.049
626	0.049
626	0.049
627	0.049
627	0.049
628	0.05
628	0.05
629	0.05
629	0.05
630	0.05
630	0.049
630	0.049
631	0.049
631	0.049
632	0.049
632	0.049
633	0.05
633	0.05
634	0.051
634	0.052
634	0.054
635	0.056
635	0.057
636	0.058
636	0.06
637	0.061
637	0.061
638	0.062
638	0.063
638	0.064
639	0.064
639	0.064
640	0.065
640	0.066
641	0.067
641	0.068
642	0.069
642	0.071
642	0.072
643	0.074
643	0.075
644	0.077
644	0.079
645	0.081
645	0.083
646	0.085
646	0.087
646	0.09
647	0.093
647	0.095
648	0.098
648	0.1
649	0.102
649	0.104
650	0.106
650	0.108
650	0.11
651	0.112
651	0.114
652	0.115
652	0.116
653	0.118
653	0.124
653	0.135
654	0.111
654	0.092
655	0.097
655	0.099
656	0.101
656	0.103
657	0.104
657	0.106
657	0.107
658	0.106
658	0.098
659	0.121
659	0.152
660	0.154
660	0.155
661	0.157
661	0.158
661	0.16
662	0.163
662	0.165
663	0.168
663	0.17
664	0.172
664	0.174
665	0.176
665	0.178
665	0.18
666	0.183
666	0.184
667	0.186
667	0.188
668	0.19
668	0.192
669	0.194
669	0.196
669	0.199
670	0.202
670	0.204
671	0.207
671	0.208
672	0.21
672	0.211
672	0.213
673	0.214
673	0.216
674	0.217
674	0.217
675	0.217
675	0.218
676	0.219
676	0.22
676	0.221
677	0.222
677	0.224
678	0.225
678	0.226
679	0.227
679	0.228
680	0.229
680	0.23
680	0.231
681	0.231
681	0.232
682	0.232
682	0.234
683	0.235
683	0.237
684	0.238
684	0.239
684	0.239
685	0.24
685	0.24
686	0.241
686	0.241
687	0.241
687	0.24
687	0.24
688	0.239
688	0.238
689	0.238
689	0.239
690	0.239
690	0.239
691	0.239
691	0.239
691	0.239
692	0.239
692	0.238
693	0.238
693	0.238
694	0.238
694	0.237
695	0.238
695	0.239
695	0.24
696	0.24
696	0.239
697	0.239
697	0.238
698	0.237
698	0.236
698	0.234
699	0.233
699	0.231
700	0.228
700	0.226
701	0.224
701	0.223
702	0.221
702	0.22
702	0.218
703	0.217
703	0.215
704	0.214
704	0.213
705	0.212
705	0.211
705	0.209
706	0.208
706	0.208
707	0.207
707	0.205
708	0.204
708	0.203
709	0.202
709	0.201
709	0.199
710	0.196
710	0.194
711	0.192
711	0.19
712	0.189
712	0.187
713	0.186
713	0.185
713	0.184
714	0.182
714	0.18
715	0.179
715	0.177
716	0.175
716	0.174
716	0.172
717	0.17
717	0.168
718	0.165
718	0.163
719	0.161
719	0.159
720	0.158
720	0.156
720	0.153
721	0.15
721	0.148
722	0.145
722	0.142
723	0.14
723	0.138
723	0.136
724	0.135
724	0.133
725	0.131
725	0.129
726	0.127
726	0.126
727	0.125
727	0.123
727	0.122
728	0.12
728	0.118
729	0.118
729	0.117
730	0.115
730	0.114
730	0.112
731	0.111
731	0.109
732	0.108
732	0.106
733	0.105
733	0.103
734	0.1
734	0.098
734	0.096
735	0.094
735	0.092
736	0.089
736	0.087
737	0.085
737	0.083
737	0.082
738	0.079
738	0.077
739	0.075
739	0.073
740	0.071
740	0.07
741	0.068
741	0.066
741	0.064
742	0.06
742	0.057
743	0.055
743	0.053
744	0.051
744	0.05
744	0.048
745	0.046
745	0.044
746	0.043
746	0.042
747	0.041
747	0.04
748	0.04
748	0.039
748	0.038
749	0.037
749	0.036
750	0.036
750	0.035
751	0.034
751	0.034
751	0.034
752	0.033
752	0.033
753	0.032
753	0.031
754	0.031
754	0.03
754	0.03
755	0.031
755	0.031
756	0.031
756	0.029
757	0.028
757	0.027
758	0.026
758	0.025
758	0.024
759	0.023
759	0.02
760	0.018
760	0.015
761	0.012
761	0.011
761	0.01
762	0.009
762	0.008
763	0.008
763	0.006
764	0.004
764	0.002
764	0.001
765	-0.001
765	-0.002
766	-0.004
766	-0.004
767	-0.005
767	-0.007
768	-0.01
768	-0.012
768	-0.013
769	-0.014
769	-0.015
770	-0.016
770	-0.017
771	-0.018
771	-0.021
771	-0.023
772	-0.025
772	-0.027
773	-0.029
773	-0.031
774	-0.035
774	-0.038
775	-0.041
775	-0.044
775	-0.048
776	-0.052
776	-0.055
777	-0.059
777	-0.062
778	-0.065
778	-0.069
778	-0.073
779	-0.075
779	-0.077
780	-0.081
780	-0.085
781	-0.089
781	-0.095
781	-0.101
782	-0.107
782	-0.113
783	-0.119
783	-0.124
784	-0.128
784	-0.132
784	-0.136
785	-0.14
785	-0.144
786	-0.145
786	-0.143
787	-0.139
787	-0.135
788	-0.134
788	-0.135
788	-0.137
789	-0.14
789	-0.14
790	-0.137
790	-0.136
791	-0.137
791	-0.139
791	-0.141
792	-0.135
792	-0.124
793	-0.117
793	-0.113
794	-0.11
794	-0.111
794	-0.115
795	-0.117
795	-0.116
796	-0.116
796	-0.119
797	-0.128
797	-0.139
797	-0.146
798	-0.151
798	-0.155
799	-0.156
799	-0.156
800	-0.157
800	-0.159
801	-0.162
801	-0.163
801	-0.162
802	-0.164
802	-0.165
803	-0.165
803	-0.165
804	-0.163
804	-0.158
804	-0.151
805	-0.146
805	-0.144
806	-0.142
806	-0.14
807	-0.139
807	-0.138
807	-0.138
808	-0.137
808	-0.138
809	-0.142
809	-0.147
810	-0.15
810	-0.152
810	-0.155
811	-0.158
811	-0.158
812	-0.155
812	-0.152
813	-0.152
813	-0.153
813	-0.155
814	-0.157
814	-0.157
815	-0.156
815	-0.154
816	-0.152
816	-0.153
817	-0.158
817	-0.162
817	-0.163
818	-0.163
818	-0.159
819	-0.154
819	-0.151
820	-0.152
820	-0.154
820	-0.155
821	-0.154
821	-0.151
822	-0.148
822	-0.144
823	-0.139
823	-0.136
823	-0.135
824	-0.132
824	-0.125
825	-0.116
825	-0.106
826	-0.097
826	-0.089
826	-0.083
827	-0.077
827	-0.071
828	-0.066
828	-0.061
829	-0.056
829	-0.052
829	-0.049
830	-0.046
830	-0.043
831	-0.039
831	-0.036
832	-0.033
832	-0.03
832	-0.028
833	-0.026
833	-0.025
834	-0.024
834	-0.023
835	-0.022
835	-0.022
835	-0.023
836	-0.023
836	-0.023
837	-0.023
837	-0.023
838	-0.023
838	-0.023
839	-0.023
839	-0.023
839	-0.022
840	-0.022
840	-0.021
841	-0.02
841	-0.018
842	-0.017
842	-0.016
842	-0.014
843	-0.013
843	-0.011
844	-0.01
844	-0.009
845	-0.008
845	-0.007
845	-0.007
846	-0.006
846	-0.005
847	-0.005
847	-0.004
848	-0.003
848	-0.002
848	-0.001
849	-0
849	0.001
850	0.001
850	0.002
851	0.002
851	0.002
851	0.003
852	0.003
852	0.003
853	0.003
853	0.003
854	0.003
854	0.003
854	0.003
855	0.003
855	0.003
856	0.003
856	0.003
857	0.003
857	0.004
857	0.004
858	0.004
858	0.004
859	0.005
859	0.005
860	0.006
860	0.007
860	0.008
861	0.009
861	0.01
862	0.011
862	0.012
863	0.013
863	0.014
863	0.015
864	0.016
864	0.017
865	0.017
865	0.018
866	0.018
866	0.019
866	0.019
867	0.02
867	0.02
868	0.021
868	0.021
869	0.021
869	0.021
869	0.02
870	0.02
870	0.02
871	0.019
871	0.018
872	0.017
872	0.016
872	0.015
873	0.014
873	0.013
874	0.012
874	0.011
875	0.01
875	0.009
875	0.008
876	0.008
876	0.008
877	0.008
877	0.008
878	0.008
878	0.008
878	0.009
879	0.009
879	0.01
880	0.011
880	0.012
881	0.012
881	0.013
881	0.015
882	0.016
882	0.016
883	0.017
883	0.018
884	0.019
884	0.019
884	0.019
885	0.019
885	0.019
886	0.019
886	0.019
887	0.018
887	0.018
887	0.017
888	0.017
888	0.017
889	0.017
889	0.017
890	0.017
890	0.018
890	0.018
891	0.018
891	0.018
892	0.018
892	0.018
893	0.019
893	0.02
893	0.02
894	0.02
894	0.02
895	0.021
895	0.021
895	0.021
896	0.021
896	0.021
897	0.021
897	0.02
898	0.019
898	0.018
898	0.017
899	0.017
899	0.016
900	0.015
900	0.014
901	0.013
901	0.013
901	0.012
902	0.012
902	0.012
903	0.012
903	0.012
904	0.012
904	0.012
904	0.012
905	0.013
905	0.013
906	0.013
906	0.013
907	0.013
907	0.013
907	0.013
908	0.013
908	0.013
909	0.013
909	0.013
910	0.013
910	0.012
910	0.012
911	0.013
911	0.013
912	0.014
912	0.015
913	0.016
913	0.017
913	0.018
914	0.02
914	0.021
915	0.022
915	0.023
916	0.025
916	0.026
916	0.026
917	0.027
917	0.027
918	0.027
918	0.027
918	0.026
919	0.025
919	0.024
920	0.023
920	0.021
921	0.02
921	0.018
921	0.017
922	0.016
922	0.015
923	0.015
923	0.014
924	0.014
924	0.014
924	0.015
925	0.015
925	0.016
926	0.017
926	0.018
927	0.018
927	0.019
927	0.02
928	0.02
928	0.021
929	0.022
929	0.023
930	0.023
930	0.023
930	0.023
931	0.023
931	0.022
932	0.022
932	0.022
933	0.021
933	0.021
933	0.02
934	0.02
934	0.02
935	0.02
935	0.02
935	0.02
936	0.02
936	0.02
937	0.02
937	0.02
938	0.02
938	0.02
938	0.019
939	0.019
939	0.019
940	0.019
940	0.019
941	0.019
941	0.019
941	0.02
942	0.02
942	0.021
943	0.021
943	0.022
944	0.022
944	0.023
944	0.024
945	0.025
945	0.025
946	0.026
946	0.027
946	0.027
947	0.028
947	0.028
948	0.028
948	0.028
949	0.028
949	0.027
949	0.027
950	0.026
950	0.026
951	0.026
951	0.025
952	0.025
952	0.025
952	0.025
953	0.026
953	0.026
954	0.025
954	0.025
955	0.025
955	0.025
955	0.025
956	0.025
956	0.024
957	0.023
957	0.023
957	0.022
958	0.022
958	0.022
959	0.021
959	0.022
960	0.022
960	0.022
960	0.022
961	0.022
961	0.023
962	0.023
962	0.023
963	0.024
963	0.024
963	0.024
964	0.024
964	0.024
965	0.024
965	0.024
966	0.023
966	0.023
966	0.022
967	0.021
967	0.021
968	0.02
968	0.019
968	0.019
969	0.019
969	0.018
970	0.018
970	0.018
971	0.018
971	0.019
971	0.019
972	0.02
972	0.021
973	0.021
973	0.022
974	0.023
974	0.023
974	0.023
975	0.024
975	0.024
976	0.024
976	0.024
976	0.024
977	0.024
977	0.023
978	0.023
978	0.022
979	0.021
979	0.021
979	0.02
980	0.019
980	0.019
981	0.018
981	0.018
982	0.017
982	0.017
982	0.017
983	0.016
983	0.016
984	0.016
984	0.016
984	0.016
985	0.016
985	0.016
986	0.015
986	0.015
987	0.014
987	0.014
987	0.014
988	0.013
988	0.013
989	0.012
989	0.012
990	0.011
990	0.011
990	0.011
991	0.011
991	0.011
992	0.01
992	0.01
992	0.01
993	0.009
993	0.009
994	0.009
994	0.008
995	0.008
995	0.008
995	0.007
996	0.007
996	0.007
997	0.006
997	0.006
997	0.006
998	0.007
998	0.007
999	0.007
999	0.008
1000	0.009
1000	0.009
1000	0.01
1001	0.011
1001	0.012
1002	0.012
1002	0.013
1003	0.013
1003	0.013
1003	0.012
1004	0.012
1004	0.012
1005	0.011
1005	0.011
1005	0.01
1006	0.009
1006	0.009
1007	0.008
1007	0.008
1008	0.008
1008	0.008
1008	0.008
1009	0.008
1009	0.009
1010	0.009
1010	0.01
1010	0.011
1011	0.012
1011	0.013
1012	0.014
1012	0.015
1013	0.016
1013	0.017
1013	0.017
1014	0.018
1014	0.018
1015	0.019
1015	0.019
1016	0.019
1016	0.019
1016	0.019
1017	0.02
1017	0.019
1018	0.02
1018	0.02
1018	0.02
1019	0.02
1019	0.02
1020	0.019
1020	0.019
1021	0.019
1021	0.018
1021	0.018
1022	0.017
1022	0.017
1023	0.017
1023	0.017
1023	0.016
1024	0.016
1024	0.016
1025	0.016
1025	0.016
1026	0.017
1026	0.017
1026	0.017
1027	0.017
1027	0.017
1028	0.018
1028	0.018
1028	0.018
1029	0.019
1029	0.019
1030	0.019
1030	0.019
1031	0.019
1031	0.02
1031	0.02
1032	0.02
1032	0.02
1033	0.02
1033	0.02
1033	0.02
1034	0.02
1034	0.02
1035	0.02
1035	0.02
1036	0.02
1036	0.021
1036	0.021
1037	0.022
1037	0.022
1038	0.023
1038	0.024
1039	0.025
1039	0.025
1039	0.026
1040	0.027
1040	0.028
1041	0.028
1041	0.029
1041	0.029
1042	0.03
1042	0.03
1043	0.031
1043	0.032
1044	0.032
1044	0.033
1044	0.034
1045	0.034
1045	0.035
1046	0.036
1046	0.037
1046	0.039
1047	0.041
1047	0.042
1048	0.044
1048	0.045
1049	0.046
1049	0.047
1049	0.048
1050	0.048
1050	0.048
1051	0.048
1051	0.048
1051	0.047
1052	0.047
1052	0.046
1053	0.045
1053	0.044
1053	0.043
1054	0.042
1054	0.041
1055	0.041
1055	0.04
1056	0.039
1056	0.038
1056	0.037
1057	0.036
1057	0.036
1058	0.036
1058	0.036
1058	0.036
1059	0.036
1059	0.036
1060	0.037
1060	0.037
1061	0.038
1061	0.038
1061	0.039
1062	0.039
1062	0.039
1063	0.04
1063	0.04
1063	0.041
1064	0.042
1064	0.044
1065	0.045
1065	0.046
1066	0.048
1066	0.05
1066	0.052
1067	0.054
1067	0.055
1068	0.058
1068	0.059
1068	0.06
1069	0.062
1069	0.063
1070	0.064
1070	0.065
1071	0.066
1071	0.068
1071	0.069
1072	0.07
1072	0.071
1073	0.073
1073	0.073
1073	0.074
1074	0.075
1074	0.076
1075	0.077
1075	0.077
1076	0.077
1076	0.078
1076	0.078
1077	0.08
1077	0.08
1078	0.082
1078	0.083
1078	0.085
1079	0.087
1079	0.09
1080	0.091
1080	0.094
1080	0.095
1081	0.098
1081	0.1
1082	0.102
1082	0.102
1083	0.104
1083	0.106
1083	0.109
1084	0.111
1084	0.113
1085	0.116
1085	0.119
1085	0.122
1086	0.124
1086	0.127
1087	0.13
1087	0.134
1088	0.136
1088	0.139
1088	0.142
1089	0.147
1089	0.151
1090	0.155
1090	0.162
1090	0.168
1091	0.175
1091	0.182
1092	0.19
1092	0.2
1092	0.209
1093	0.217
1093	0.227
1094	0.238
1094	0.248
1095	0.258
1095	0.271
1095	0.285
1096	0.3
1096	0.316
1097	0.335
1097	0.353
1097	0.375
1098	0.398
1098	0.425
1099	0.457
1099	0.493
1100	0.533
1100	0.58
1100	0.635
1101	0.702
1101	0.785
1102	0.909
1102	1.094
1102	1.448
1103	-0
1103	-0
1104	-0
1104	-0
1104	-0
1105	-0
1105	-0
1106	-0
1106	-0
1107	-0
1107	-0
1107	-0
1108	-0
1108	-0
1109	-0
1109	-0
1109	-0
1110	-0
1110	-0
1111	-0
1111	-0
