Data from 15c-2-4a_Absorbance__1325__01325.txt Node

Date: Thu Jan 25 10:48:20 CET 2024
User: Marek
Spectrometer: MAYP115816
Trigger mode: 0
Integration Time (sec): 2.000000E-1
Scans to average: 10
Electric dark correction enabled: true
Nonlinearity correction enabled: true
Boxcar width: 5
XAxis mode: Wavelengths
Number of Pixels in Spectrum: 2068
>>>>>Begin Spectral Data<<<<<
199	-2.19
199	-2.019
200	-1.866
200	-1.743
201	-1.664
201	-1.607
202	-1.524
202	-1.462
203	-1.41
203	-1.363
204	-1.337
204	-1.309
205	-1.287
205	-1.276
205	-1.27
206	-1.266
206	-1.262
207	-1.262
207	-1.258
208	-1.253
208	-1.25
209	-1.246
209	-1.243
210	-1.241
210	-1.238
211	-1.237
211	-1.235
212	-1.232
212	-1.23
213	-1.228
213	-1.229
213	-1.228
214	-1.227
214	-1.226
215	-1.224
215	-1.222
216	-1.22
216	-1.219
217	-1.216
217	-1.213
218	-1.212
218	-1.209
219	-1.207
219	-1.204
220	-1.204
220	-1.2
221	-1.196
221	-1.194
221	-1.191
222	-1.188
222	-1.187
223	-1.182
223	-1.176
224	-1.169
224	-1.16
225	-1.15
225	-1.142
226	-1.131
226	-1.119
227	-1.104
227	-1.09
228	-1.07
228	-1.051
229	-1.029
229	-1.006
229	-0.979
230	-0.95
230	-0.919
231	-0.883
231	-0.844
232	-0.802
232	-0.757
233	-0.71
233	-0.661
234	-0.613
234	-0.563
235	-0.512
235	-0.463
236	-0.413
236	-0.366
236	-0.319
237	-0.275
237	-0.233
238	-0.192
238	-0.154
239	-0.117
239	-0.083
240	-0.051
240	-0.021
241	0.007
241	0.033
242	0.057
242	0.079
243	0.1
243	0.119
243	0.137
244	0.153
244	0.168
245	0.182
245	0.195
246	0.207
246	0.218
247	0.228
247	0.238
248	0.247
248	0.255
249	0.263
249	0.27
250	0.277
250	0.283
250	0.289
251	0.295
251	0.3
252	0.305
252	0.31
253	0.314
253	0.318
254	0.322
254	0.326
255	0.329
255	0.333
256	0.336
256	0.338
257	0.341
257	0.343
258	0.345
258	0.347
258	0.349
259	0.35
259	0.352
260	0.353
260	0.354
261	0.355
261	0.356
262	0.356
262	0.356
263	0.357
263	0.358
264	0.358
264	0.358
265	0.358
265	0.358
265	0.358
266	0.358
266	0.358
267	0.358
267	0.358
268	0.357
268	0.356
269	0.356
269	0.355
270	0.354
270	0.353
271	0.352
271	0.351
272	0.349
272	0.348
272	0.347
273	0.346
273	0.345
274	0.343
274	0.341
275	0.34
275	0.338
276	0.337
276	0.335
277	0.333
277	0.331
278	0.329
278	0.327
278	0.325
279	0.324
279	0.322
280	0.321
280	0.32
281	0.319
281	0.318
282	0.317
282	0.316
283	0.316
283	0.315
284	0.314
284	0.313
285	0.312
285	0.311
285	0.31
286	0.308
286	0.307
287	0.306
287	0.305
288	0.303
288	0.302
289	0.301
289	0.3
290	0.299
290	0.298
291	0.297
291	0.296
292	0.295
292	0.294
292	0.293
293	0.292
293	0.291
294	0.29
294	0.289
295	0.289
295	0.288
296	0.287
296	0.286
297	0.285
297	0.285
298	0.284
298	0.283
298	0.282
299	0.282
299	0.281
300	0.28
300	0.279
301	0.278
301	0.278
302	0.277
302	0.276
303	0.276
303	0.275
304	0.274
304	0.274
305	0.273
305	0.272
305	0.271
306	0.271
306	0.27
307	0.269
307	0.268
308	0.267
308	0.267
309	0.266
309	0.265
310	0.264
310	0.263
311	0.263
311	0.262
311	0.261
312	0.26
312	0.259
313	0.259
313	0.258
314	0.257
314	0.256
315	0.255
315	0.254
316	0.253
316	0.253
317	0.252
317	0.251
318	0.25
318	0.249
318	0.248
319	0.247
319	0.247
320	0.246
320	0.245
321	0.244
321	0.243
322	0.242
322	0.241
323	0.24
323	0.239
324	0.238
324	0.238
324	0.237
325	0.236
325	0.235
326	0.234
326	0.234
327	0.233
327	0.232
328	0.231
328	0.231
329	0.23
329	0.229
330	0.228
330	0.228
330	0.227
331	0.226
331	0.225
332	0.224
332	0.223
333	0.223
333	0.222
334	0.221
334	0.22
335	0.22
335	0.219
336	0.218
336	0.218
336	0.217
337	0.216
337	0.216
338	0.215
338	0.214
339	0.214
339	0.213
340	0.212
340	0.212
341	0.211
341	0.21
342	0.209
342	0.209
342	0.208
343	0.207
343	0.207
344	0.206
344	0.205
345	0.205
345	0.204
346	0.203
346	0.202
347	0.202
347	0.201
348	0.2
348	0.2
348	0.199
349	0.198
349	0.197
350	0.196
350	0.196
351	0.195
351	0.194
352	0.194
352	0.193
353	0.192
353	0.191
354	0.19
354	0.189
354	0.188
355	0.187
355	0.186
356	0.185
356	0.185
357	0.184
357	0.183
358	0.183
358	0.184
359	0.184
359	0.185
360	0.186
360	0.187
360	0.187
361	0.188
361	0.188
362	0.189
362	0.189
363	0.189
363	0.188
364	0.188
364	0.187
365	0.187
365	0.186
366	0.186
366	0.185
366	0.185
367	0.185
367	0.184
368	0.184
368	0.183
369	0.183
369	0.182
370	0.182
370	0.182
371	0.181
371	0.18
372	0.18
372	0.179
372	0.179
373	0.179
373	0.178
374	0.178
374	0.178
375	0.178
375	0.178
376	0.178
376	0.178
377	0.178
377	0.178
378	0.179
378	0.179
378	0.179
379	0.179
379	0.179
380	0.179
380	0.179
381	0.179
381	0.179
382	0.178
382	0.178
383	0.177
383	0.177
383	0.176
384	0.176
384	0.175
385	0.175
385	0.175
386	0.175
386	0.175
387	0.175
387	0.175
388	0.174
388	0.174
389	0.174
389	0.174
389	0.174
390	0.174
390	0.175
391	0.175
391	0.175
392	0.175
392	0.175
393	0.175
393	0.175
394	0.174
394	0.174
394	0.174
395	0.174
395	0.173
396	0.173
396	0.172
397	0.173
397	0.173
398	0.173
398	0.172
399	0.172
399	0.172
400	0.172
400	0.171
400	0.171
401	0.17
401	0.169
402	0.168
402	0.168
403	0.167
403	0.167
404	0.167
404	0.166
405	0.166
405	0.166
405	0.165
406	0.165
406	0.165
407	0.165
407	0.164
408	0.164
408	0.163
409	0.163
409	0.162
410	0.162
410	0.162
411	0.162
411	0.162
411	0.162
412	0.161
412	0.161
413	0.16
413	0.16
414	0.16
414	0.16
415	0.16
415	0.159
416	0.159
416	0.158
416	0.158
417	0.157
417	0.157
418	0.157
418	0.157
419	0.157
419	0.158
420	0.159
420	0.159
421	0.159
421	0.16
421	0.16
422	0.16
422	0.16
423	0.16
423	0.16
424	0.159
424	0.159
425	0.158
425	0.157
426	0.156
426	0.155
427	0.155
427	0.155
427	0.156
428	0.156
428	0.157
429	0.157
429	0.157
430	0.158
430	0.157
431	0.157
431	0.157
432	0.157
432	0.156
432	0.155
433	0.154
433	0.153
434	0.152
434	0.152
435	0.151
435	0.151
436	0.151
436	0.152
437	0.152
437	0.152
437	0.152
438	0.152
438	0.151
439	0.151
439	0.151
440	0.15
440	0.15
441	0.15
441	0.15
442	0.15
442	0.15
442	0.15
443	0.151
443	0.151
444	0.151
444	0.151
445	0.152
445	0.152
446	0.152
446	0.152
447	0.151
447	0.151
447	0.151
448	0.151
448	0.15
449	0.15
449	0.15
450	0.15
450	0.149
451	0.149
451	0.149
452	0.148
452	0.147
452	0.147
453	0.147
453	0.146
454	0.146
454	0.145
455	0.145
455	0.145
456	0.144
456	0.144
457	0.144
457	0.144
458	0.144
458	0.144
458	0.144
459	0.144
459	0.144
460	0.143
460	0.142
461	0.142
461	0.141
462	0.141
462	0.141
463	0.142
463	0.142
463	0.143
464	0.143
464	0.144
465	0.144
465	0.144
466	0.144
466	0.144
467	0.144
467	0.144
467	0.143
468	0.141
468	0.14
469	0.138
469	0.136
470	0.135
470	0.135
471	0.134
471	0.134
472	0.134
472	0.134
472	0.134
473	0.136
473	0.137
474	0.138
474	0.139
475	0.14
475	0.141
476	0.141
476	0.142
477	0.142
477	0.143
477	0.143
478	0.144
478	0.144
479	0.145
479	0.145
480	0.146
480	0.148
481	0.148
481	0.149
482	0.15
482	0.151
482	0.153
483	0.155
483	0.158
484	0.161
484	0.164
485	0.166
485	0.167
486	0.169
486	0.17
487	0.17
487	0.171
487	0.171
488	0.17
488	0.168
489	0.166
489	0.164
490	0.162
490	0.161
491	0.161
491	0.162
492	0.162
492	0.163
492	0.163
493	0.164
493	0.165
494	0.167
494	0.169
495	0.171
495	0.173
496	0.174
496	0.175
496	0.176
497	0.176
497	0.177
498	0.178
498	0.178
499	0.179
499	0.179
500	0.18
500	0.181
501	0.183
501	0.184
501	0.186
502	0.188
502	0.189
503	0.191
503	0.192
504	0.193
504	0.193
505	0.194
505	0.194
506	0.195
506	0.195
506	0.195
507	0.195
507	0.195
508	0.196
508	0.197
509	0.197
509	0.198
510	0.198
510	0.199
511	0.199
511	0.199
511	0.2
512	0.2
512	0.2
513	0.2
513	0.198
514	0.197
514	0.196
515	0.196
515	0.196
515	0.196
516	0.195
516	0.195
517	0.195
517	0.194
518	0.194
518	0.193
519	0.191
519	0.188
520	0.186
520	0.183
520	0.18
521	0.178
521	0.176
522	0.174
522	0.174
523	0.174
523	0.176
524	0.179
524	0.182
524	0.185
525	0.189
525	0.192
526	0.195
526	0.197
527	0.199
527	0.201
528	0.203
528	0.204
529	0.205
529	0.205
529	0.205
530	0.204
530	0.204
531	0.204
531	0.204
532	0.203
532	0.203
533	0.203
533	0.202
533	0.202
534	0.202
534	0.201
535	0.2
535	0.2
536	0.199
536	0.198
537	0.198
537	0.197
538	0.196
538	0.194
538	0.193
539	0.192
539	0.191
540	0.19
540	0.188
541	0.187
541	0.185
542	0.183
542	0.181
542	0.18
543	0.179
543	0.177
544	0.176
544	0.174
545	0.173
545	0.172
546	0.172
546	0.172
547	0.17
547	0.168
547	0.165
548	0.163
548	0.161
549	0.159
549	0.157
550	0.155
550	0.152
551	0.15
551	0.147
551	0.145
552	0.143
552	0.142
553	0.141
553	0.141
554	0.14
554	0.139
555	0.137
555	0.134
556	0.131
556	0.128
556	0.125
557	0.122
557	0.119
558	0.117
558	0.115
559	0.113
559	0.111
560	0.11
560	0.109
560	0.109
561	0.109
561	0.109
562	0.108
562	0.108
563	0.106
563	0.104
564	0.101
564	0.099
564	0.096
565	0.094
565	0.092
566	0.091
566	0.089
567	0.089
567	0.089
568	0.09
568	0.091
568	0.093
569	0.094
569	0.096
570	0.098
570	0.098
571	0.098
571	0.099
572	0.1
572	0.1
573	0.1
573	0.1
573	0.099
574	0.098
574	0.097
575	0.097
575	0.098
576	0.099
576	0.098
577	0.097
577	0.096
577	0.095
578	0.094
578	0.093
579	0.094
579	0.095
580	0.095
580	0.093
581	0.09
581	0.088
581	0.086
582	0.086
582	0.085
583	0.086
583	0.086
584	0.084
584	0.08
585	0.078
585	0.077
585	0.077
586	0.077
586	0.076
587	0.074
587	0.072
588	0.069
588	0.066
589	0.064
589	0.062
590	0.061
590	0.059
590	0.059
591	0.059
591	0.059
592	0.059
592	0.058
593	0.058
593	0.058
594	0.058
594	0.058
594	0.057
595	0.057
595	0.056
596	0.055
596	0.055
597	0.057
597	0.058
598	0.059
598	0.06
598	0.061
599	0.062
599	0.061
600	0.061
600	0.06
601	0.059
601	0.057
602	0.055
602	0.054
602	0.052
603	0.051
603	0.051
604	0.051
604	0.051
605	0.052
605	0.054
606	0.054
606	0.054
606	0.053
607	0.052
607	0.052
608	0.052
608	0.051
609	0.049
609	0.048
610	0.047
610	0.046
610	0.045
611	0.045
611	0.046
612	0.047
612	0.048
613	0.05
613	0.051
614	0.052
614	0.052
614	0.053
615	0.053
615	0.052
616	0.052
616	0.051
617	0.051
617	0.049
618	0.047
618	0.046
618	0.045
619	0.044
619	0.044
620	0.045
620	0.046
621	0.046
621	0.047
622	0.047
622	0.048
622	0.048
623	0.048
623	0.049
624	0.05
624	0.05
625	0.049
625	0.05
626	0.05
626	0.05
626	0.05
627	0.05
627	0.05
628	0.051
628	0.051
629	0.051
629	0.051
630	0.051
630	0.05
630	0.05
631	0.05
631	0.051
632	0.051
632	0.051
633	0.051
633	0.052
634	0.053
634	0.055
634	0.057
635	0.059
635	0.06
636	0.062
636	0.063
637	0.064
637	0.065
638	0.066
638	0.067
638	0.068
639	0.068
639	0.069
640	0.07
640	0.071
641	0.073
641	0.074
642	0.076
642	0.079
642	0.081
643	0.083
643	0.086
644	0.088
644	0.09
645	0.093
645	0.095
646	0.097
646	0.099
646	0.103
647	0.106
647	0.109
648	0.112
648	0.115
649	0.117
649	0.12
650	0.123
650	0.127
650	0.13
651	0.132
651	0.134
652	0.136
652	0.137
653	0.14
653	0.147
653	0.163
654	0.133
654	0.11
655	0.116
655	0.118
656	0.12
656	0.122
657	0.125
657	0.127
657	0.129
658	0.127
658	0.116
659	0.144
659	0.183
660	0.185
660	0.186
661	0.188
661	0.189
661	0.192
662	0.195
662	0.198
663	0.201
663	0.204
664	0.207
664	0.209
665	0.212
665	0.215
665	0.218
666	0.22
666	0.223
667	0.225
667	0.227
668	0.23
668	0.232
669	0.234
669	0.237
669	0.241
670	0.246
670	0.249
671	0.252
671	0.255
672	0.257
672	0.259
672	0.261
673	0.263
673	0.265
674	0.266
674	0.267
675	0.267
675	0.267
676	0.269
676	0.27
676	0.271
677	0.273
677	0.275
678	0.277
678	0.279
679	0.28
679	0.281
680	0.283
680	0.285
680	0.285
681	0.285
681	0.286
682	0.287
682	0.289
683	0.291
683	0.293
684	0.295
684	0.296
684	0.296
685	0.296
685	0.296
686	0.297
686	0.297
687	0.296
687	0.295
687	0.294
688	0.292
688	0.291
689	0.291
689	0.292
690	0.292
690	0.292
691	0.292
691	0.292
691	0.292
692	0.292
692	0.292
693	0.292
693	0.292
694	0.292
694	0.291
695	0.291
695	0.292
695	0.293
696	0.293
696	0.293
697	0.292
697	0.291
698	0.29
698	0.288
698	0.286
699	0.284
699	0.281
700	0.277
700	0.274
701	0.273
701	0.271
702	0.269
702	0.266
702	0.264
703	0.262
703	0.261
704	0.259
704	0.258
705	0.257
705	0.256
705	0.255
706	0.254
706	0.253
707	0.252
707	0.251
708	0.249
708	0.248
709	0.247
709	0.245
709	0.242
710	0.238
710	0.235
711	0.233
711	0.23
712	0.228
712	0.226
713	0.224
713	0.222
713	0.22
714	0.218
714	0.216
715	0.214
715	0.212
716	0.21
716	0.208
716	0.206
717	0.204
717	0.202
718	0.198
718	0.195
719	0.192
719	0.19
720	0.187
720	0.184
720	0.181
721	0.176
721	0.173
722	0.169
722	0.165
723	0.162
723	0.16
723	0.158
724	0.156
724	0.153
725	0.151
725	0.149
726	0.147
726	0.145
727	0.143
727	0.141
727	0.139
728	0.137
728	0.134
729	0.133
729	0.132
730	0.131
730	0.129
730	0.127
731	0.126
731	0.125
732	0.124
732	0.122
733	0.12
733	0.118
734	0.116
734	0.113
734	0.11
735	0.108
735	0.105
736	0.101
736	0.098
737	0.096
737	0.093
737	0.091
738	0.088
738	0.085
739	0.083
739	0.081
740	0.079
740	0.077
741	0.076
741	0.074
741	0.071
742	0.067
742	0.063
743	0.06
743	0.057
744	0.055
744	0.052
744	0.05
745	0.047
745	0.045
746	0.042
746	0.041
747	0.04
747	0.039
748	0.039
748	0.038
748	0.037
749	0.036
749	0.035
750	0.035
750	0.034
751	0.033
751	0.033
751	0.033
752	0.032
752	0.03
753	0.029
753	0.028
754	0.028
754	0.027
754	0.027
755	0.026
755	0.026
756	0.026
756	0.024
757	0.022
757	0.021
758	0.02
758	0.019
758	0.018
759	0.017
759	0.015
760	0.012
760	0.009
761	0.007
761	0.006
761	0.004
762	0.003
762	0.002
763	0.001
763	-0.001
764	-0.004
764	-0.006
764	-0.008
765	-0.01
765	-0.012
766	-0.013
766	-0.014
767	-0.015
767	-0.018
768	-0.021
768	-0.023
768	-0.025
769	-0.026
769	-0.026
770	-0.027
770	-0.028
771	-0.03
771	-0.032
771	-0.034
772	-0.036
772	-0.037
773	-0.039
773	-0.042
774	-0.045
774	-0.048
775	-0.051
775	-0.055
775	-0.059
776	-0.063
776	-0.067
777	-0.071
777	-0.074
778	-0.078
778	-0.083
778	-0.086
779	-0.089
779	-0.091
780	-0.095
780	-0.1
781	-0.105
781	-0.109
781	-0.113
782	-0.118
782	-0.123
783	-0.128
783	-0.131
784	-0.134
784	-0.137
784	-0.139
785	-0.141
785	-0.143
786	-0.144
786	-0.142
787	-0.138
787	-0.134
788	-0.133
788	-0.134
788	-0.136
789	-0.138
789	-0.138
790	-0.136
790	-0.135
791	-0.135
791	-0.137
791	-0.139
792	-0.134
792	-0.123
793	-0.116
793	-0.111
794	-0.109
794	-0.11
794	-0.113
795	-0.115
795	-0.115
796	-0.115
796	-0.118
797	-0.126
797	-0.137
797	-0.144
798	-0.15
798	-0.154
799	-0.155
799	-0.155
800	-0.155
800	-0.157
801	-0.16
801	-0.161
801	-0.161
802	-0.162
802	-0.163
803	-0.164
803	-0.163
804	-0.162
804	-0.156
804	-0.149
805	-0.145
805	-0.143
806	-0.14
806	-0.139
807	-0.138
807	-0.137
807	-0.136
808	-0.136
808	-0.136
809	-0.14
809	-0.145
810	-0.148
810	-0.151
810	-0.154
811	-0.157
811	-0.157
812	-0.153
812	-0.15
813	-0.151
813	-0.152
813	-0.154
814	-0.155
814	-0.156
815	-0.154
815	-0.152
816	-0.151
816	-0.152
817	-0.157
817	-0.161
817	-0.162
818	-0.161
818	-0.158
819	-0.153
819	-0.15
820	-0.151
820	-0.153
820	-0.154
821	-0.154
821	-0.153
822	-0.152
822	-0.15
823	-0.148
823	-0.148
823	-0.15
824	-0.148
824	-0.144
825	-0.137
825	-0.129
826	-0.121
826	-0.115
826	-0.108
827	-0.101
827	-0.095
828	-0.089
828	-0.084
829	-0.079
829	-0.075
829	-0.071
830	-0.069
830	-0.066
831	-0.061
831	-0.057
832	-0.054
832	-0.051
832	-0.048
833	-0.045
833	-0.044
834	-0.042
834	-0.041
835	-0.04
835	-0.04
835	-0.04
836	-0.04
836	-0.04
837	-0.04
837	-0.039
838	-0.039
838	-0.038
839	-0.037
839	-0.037
839	-0.036
840	-0.035
840	-0.033
841	-0.032
841	-0.031
842	-0.03
842	-0.029
842	-0.028
843	-0.027
843	-0.026
844	-0.024
844	-0.023
845	-0.022
845	-0.022
845	-0.021
846	-0.02
846	-0.02
847	-0.019
847	-0.018
848	-0.016
848	-0.016
848	-0.015
849	-0.014
849	-0.013
850	-0.012
850	-0.012
851	-0.011
851	-0.011
851	-0.011
852	-0.011
852	-0.011
853	-0.011
853	-0.012
854	-0.012
854	-0.012
854	-0.012
855	-0.012
855	-0.012
856	-0.012
856	-0.012
857	-0.011
857	-0.011
857	-0.011
858	-0.011
858	-0.01
859	-0.01
859	-0.01
860	-0.009
860	-0.008
860	-0.008
861	-0.007
861	-0.006
862	-0.006
862	-0.005
863	-0.005
863	-0.004
863	-0.004
864	-0.003
864	-0.003
865	-0.002
865	-0.001
866	-0.001
866	-0
866	0.001
867	0.002
867	0.003
868	0.003
868	0.004
869	0.004
869	0.004
869	0.003
870	0.003
870	0.003
871	0.003
871	0.003
872	0.002
872	0.002
872	0.001
873	0.001
873	-0
874	-0.001
874	-0.001
875	-0.002
875	-0.003
875	-0.004
876	-0.004
876	-0.005
877	-0.005
877	-0.005
878	-0.004
878	-0.004
878	-0.003
879	-0.003
879	-0.002
880	-0.001
880	-0
881	0
881	0.001
881	0.001
882	0.002
882	0.002
883	0.003
883	0.003
884	0.004
884	0.004
884	0.005
885	0.005
885	0.006
886	0.006
886	0.006
887	0.006
887	0.006
887	0.006
888	0.006
888	0.006
889	0.007
889	0.007
890	0.008
890	0.008
890	0.009
891	0.01
891	0.01
892	0.011
892	0.011
893	0.012
893	0.013
893	0.014
894	0.014
894	0.015
895	0.015
895	0.015
895	0.015
896	0.015
896	0.015
897	0.015
897	0.014
898	0.013
898	0.012
898	0.011
899	0.01
899	0.008
900	0.007
900	0.006
901	0.004
901	0.003
901	0.002
902	0.002
902	0.001
903	0.001
903	0.001
904	0.001
904	0.001
904	0.001
905	0.002
905	0.003
906	0.003
906	0.004
907	0.004
907	0.004
907	0.004
908	0.004
908	0.004
909	0.004
909	0.004
910	0.004
910	0.004
910	0.004
911	0.004
911	0.004
912	0.005
912	0.006
913	0.007
913	0.008
913	0.009
914	0.01
914	0.01
915	0.011
915	0.012
916	0.013
916	0.013
916	0.014
917	0.014
917	0.014
918	0.013
918	0.013
918	0.013
919	0.013
919	0.012
920	0.011
920	0.011
921	0.01
921	0.009
921	0.008
922	0.007
922	0.007
923	0.006
923	0.005
924	0.004
924	0.003
924	0.003
925	0.002
925	0.002
926	0.002
926	0.003
927	0.003
927	0.003
927	0.003
928	0.004
928	0.005
929	0.005
929	0.006
930	0.006
930	0.006
930	0.007
931	0.007
931	0.007
932	0.008
932	0.008
933	0.009
933	0.009
933	0.009
934	0.01
934	0.011
935	0.011
935	0.012
935	0.012
936	0.013
936	0.013
937	0.013
937	0.012
938	0.012
938	0.011
938	0.01
939	0.01
939	0.009
940	0.009
940	0.008
941	0.008
941	0.008
941	0.009
942	0.01
942	0.01
943	0.011
943	0.012
944	0.012
944	0.013
944	0.014
945	0.015
945	0.015
946	0.016
946	0.017
946	0.017
947	0.017
947	0.017
948	0.017
948	0.017
949	0.016
949	0.016
949	0.015
950	0.015
950	0.014
951	0.013
951	0.013
952	0.012
952	0.012
952	0.012
953	0.012
953	0.012
954	0.013
954	0.013
955	0.013
955	0.013
955	0.014
956	0.014
956	0.015
957	0.014
957	0.014
957	0.014
958	0.014
958	0.014
959	0.014
959	0.013
960	0.013
960	0.013
960	0.013
961	0.013
961	0.013
962	0.013
962	0.013
963	0.013
963	0.013
963	0.013
964	0.013
964	0.013
965	0.013
965	0.013
966	0.012
966	0.012
966	0.012
967	0.011
967	0.011
968	0.011
968	0.01
968	0.01
969	0.01
969	0.01
970	0.011
970	0.011
971	0.011
971	0.011
971	0.012
972	0.013
972	0.014
973	0.015
973	0.015
974	0.016
974	0.016
974	0.017
975	0.017
975	0.017
976	0.017
976	0.016
976	0.016
977	0.015
977	0.014
978	0.013
978	0.012
979	0.011
979	0.01
979	0.01
980	0.009
980	0.009
981	0.008
981	0.008
982	0.008
982	0.008
982	0.008
983	0.007
983	0.007
984	0.007
984	0.007
984	0.006
985	0.006
985	0.006
986	0.005
986	0.004
987	0.004
987	0.003
987	0.003
988	0.003
988	0.003
989	0.003
989	0.003
990	0.003
990	0.004
990	0.004
991	0.005
991	0.005
992	0.006
992	0.006
992	0.006
993	0.005
993	0.005
994	0.005
994	0.004
995	0.004
995	0.004
995	0.003
996	0.003
996	0.002
997	0.001
997	0.001
997	0.001
998	0.001
998	0
999	0.001
999	0
1000	0
1000	0
1000	0.001
1001	0.001
1001	0.001
1002	0.001
1002	0.001
1003	0.001
1003	0.001
1003	0.001
1004	0.001
1004	0.001
1005	0.001
1005	0
1005	-0
1006	-0.001
1006	-0.002
1007	-0.002
1007	-0.002
1008	-0.002
1008	-0.002
1008	-0.002
1009	-0.002
1009	-0.002
1010	-0.001
1010	-0
1010	0.001
1011	0.002
1011	0.003
1012	0.004
1012	0.004
1013	0.005
1013	0.005
1013	0.006
1014	0.006
1014	0.006
1015	0.006
1015	0.006
1016	0.005
1016	0.005
1016	0.005
1017	0.005
1017	0.005
1018	0.006
1018	0.006
1018	0.007
1019	0.008
1019	0.008
1020	0.008
1020	0.009
1021	0.009
1021	0.009
1021	0.009
1022	0.009
1022	0.009
1023	0.01
1023	0.01
1023	0.01
1024	0.01
1024	0.01
1025	0.01
1025	0.01
1026	0.011
1026	0.011
1026	0.011
1027	0.011
1027	0.012
1028	0.012
1028	0.012
1028	0.013
1029	0.013
1029	0.013
1030	0.013
1030	0.013
1031	0.013
1031	0.013
1031	0.013
1032	0.012
1032	0.012
1033	0.012
1033	0.011
1033	0.011
1034	0.01
1034	0.01
1035	0.009
1035	0.009
1036	0.009
1036	0.009
1036	0.009
1037	0.009
1037	0.009
1038	0.01
1038	0.01
1039	0.01
1039	0.011
1039	0.011
1040	0.012
1040	0.012
1041	0.013
1041	0.013
1041	0.014
1042	0.015
1042	0.015
1043	0.016
1043	0.017
1044	0.018
1044	0.019
1044	0.02
1045	0.021
1045	0.023
1046	0.024
1046	0.025
1046	0.027
1047	0.029
1047	0.03
1048	0.032
1048	0.033
1049	0.034
1049	0.035
1049	0.036
1050	0.036
1050	0.036
1051	0.036
1051	0.035
1051	0.035
1052	0.035
1052	0.034
1053	0.033
1053	0.032
1053	0.032
1054	0.031
1054	0.031
1055	0.03
1055	0.029
1056	0.028
1056	0.028
1056	0.027
1057	0.026
1057	0.026
1058	0.026
1058	0.026
1058	0.026
1059	0.026
1059	0.027
1060	0.027
1060	0.028
1061	0.029
1061	0.03
1061	0.031
1062	0.031
1062	0.032
1063	0.032
1063	0.033
1063	0.034
1064	0.035
1064	0.036
1065	0.037
1065	0.038
1066	0.04
1066	0.042
1066	0.044
1067	0.046
1067	0.048
1068	0.051
1068	0.052
1068	0.054
1069	0.055
1069	0.056
1070	0.058
1070	0.059
1071	0.06
1071	0.061
1071	0.062
1072	0.064
1072	0.065
1073	0.067
1073	0.069
1073	0.07
1074	0.072
1074	0.074
1075	0.075
1075	0.076
1076	0.076
1076	0.078
1076	0.078
1077	0.079
1077	0.08
1078	0.082
1078	0.084
1078	0.086
1079	0.088
1079	0.091
1080	0.093
1080	0.096
1080	0.098
1081	0.101
1081	0.103
1082	0.106
1082	0.107
1083	0.11
1083	0.112
1083	0.116
1084	0.118
1084	0.122
1085	0.126
1085	0.129
1085	0.133
1086	0.136
1086	0.139
1087	0.143
1087	0.147
1088	0.15
1088	0.154
1088	0.159
1089	0.163
1089	0.168
1090	0.173
1090	0.18
1090	0.187
1091	0.195
1091	0.203
1092	0.212
1092	0.222
1092	0.232
1093	0.243
1093	0.256
1094	0.268
1094	0.282
1095	0.296
1095	0.311
1095	0.329
1096	0.349
1096	0.37
1097	0.395
1097	0.422
1097	0.45
1098	0.481
1098	0.518
1099	0.56
1099	0.61
1100	0.671
1100	0.75
1100	0.844
1101	0.975
1101	1.18
1102	1.635
1102	-0
1102	-0
1103	-0
1103	-0
1104	-0
1104	-0
1104	-0
1105	-0
1105	-0
1106	-0
1106	-0
1107	-0
1107	-0
1107	-0
1108	-0
1108	-0
1109	-0
1109	-0
1109	-0
1110	-0
1110	-0
1111	-0
1111	-0
