Data from 15c-2-4a_Absorbance__283__00283.txt Node

Date: Thu Jan 25 10:13:36 CET 2024
User: Marek
Spectrometer: MAYP115816
Trigger mode: 0
Integration Time (sec): 2.000000E-1
Scans to average: 10
Electric dark correction enabled: true
Nonlinearity correction enabled: true
Boxcar width: 5
XAxis mode: Wavelengths
Number of Pixels in Spectrum: 2068
>>>>>Begin Spectral Data<<<<<
199	-2.115
199	-1.944
200	-1.79
200	-1.667
201	-1.589
201	-1.532
202	-1.449
202	-1.387
203	-1.334
203	-1.288
204	-1.262
204	-1.234
205	-1.214
205	-1.202
205	-1.197
206	-1.192
206	-1.188
207	-1.189
207	-1.185
208	-1.18
208	-1.177
209	-1.172
209	-1.169
210	-1.167
210	-1.164
211	-1.163
211	-1.161
212	-1.157
212	-1.155
213	-1.153
213	-1.153
213	-1.153
214	-1.152
214	-1.151
215	-1.148
215	-1.147
216	-1.144
216	-1.143
217	-1.142
217	-1.139
218	-1.138
218	-1.135
219	-1.133
219	-1.131
220	-1.13
220	-1.126
221	-1.123
221	-1.121
221	-1.117
222	-1.114
222	-1.113
223	-1.108
223	-1.102
224	-1.095
224	-1.086
225	-1.077
225	-1.069
226	-1.058
226	-1.046
227	-1.032
227	-1.018
228	-0.999
228	-0.981
229	-0.96
229	-0.937
229	-0.912
230	-0.884
230	-0.855
231	-0.821
231	-0.784
232	-0.746
232	-0.704
233	-0.661
233	-0.617
234	-0.573
234	-0.528
235	-0.483
235	-0.44
236	-0.397
236	-0.358
236	-0.32
237	-0.284
237	-0.251
238	-0.219
238	-0.19
239	-0.163
239	-0.138
240	-0.115
240	-0.093
241	-0.074
241	-0.056
242	-0.04
242	-0.026
243	-0.012
243	0.001
243	0.012
244	0.023
244	0.032
245	0.041
245	0.049
246	0.056
246	0.063
247	0.07
247	0.076
248	0.081
248	0.087
249	0.091
249	0.096
250	0.1
250	0.105
250	0.109
251	0.113
251	0.116
252	0.12
252	0.123
253	0.126
253	0.129
254	0.132
254	0.134
255	0.137
255	0.139
256	0.141
256	0.142
257	0.144
257	0.146
258	0.147
258	0.148
258	0.15
259	0.151
259	0.152
260	0.153
260	0.153
261	0.154
261	0.154
262	0.154
262	0.155
263	0.155
263	0.155
264	0.155
264	0.155
265	0.155
265	0.154
265	0.154
266	0.154
266	0.153
267	0.153
267	0.152
268	0.151
268	0.151
269	0.15
269	0.149
270	0.148
270	0.147
271	0.146
271	0.144
272	0.143
272	0.142
272	0.141
273	0.139
273	0.138
274	0.137
274	0.136
275	0.134
275	0.133
276	0.131
276	0.13
277	0.128
277	0.127
278	0.125
278	0.123
278	0.122
279	0.12
279	0.119
280	0.118
280	0.117
281	0.116
281	0.115
282	0.114
282	0.113
283	0.112
283	0.111
284	0.11
284	0.109
285	0.108
285	0.107
285	0.106
286	0.104
286	0.103
287	0.102
287	0.101
288	0.1
288	0.099
289	0.099
289	0.098
290	0.097
290	0.096
291	0.095
291	0.095
292	0.094
292	0.093
292	0.092
293	0.092
293	0.091
294	0.09
294	0.09
295	0.089
295	0.089
296	0.089
296	0.088
297	0.088
297	0.087
298	0.087
298	0.087
298	0.086
299	0.086
299	0.086
300	0.085
300	0.085
301	0.085
301	0.084
302	0.084
302	0.084
303	0.084
303	0.083
304	0.083
304	0.083
305	0.082
305	0.082
305	0.082
306	0.082
306	0.081
307	0.081
307	0.081
308	0.08
308	0.08
309	0.08
309	0.079
310	0.079
310	0.079
311	0.079
311	0.078
311	0.078
312	0.078
312	0.077
313	0.077
313	0.077
314	0.077
314	0.076
315	0.076
315	0.076
316	0.075
316	0.075
317	0.075
317	0.074
318	0.074
318	0.073
318	0.073
319	0.073
319	0.072
320	0.072
320	0.071
321	0.071
321	0.071
322	0.07
322	0.07
323	0.07
323	0.069
324	0.069
324	0.069
324	0.068
325	0.068
325	0.068
326	0.067
326	0.067
327	0.067
327	0.066
328	0.066
328	0.066
329	0.065
329	0.065
330	0.065
330	0.064
330	0.064
331	0.063
331	0.063
332	0.063
332	0.062
333	0.062
333	0.061
334	0.061
334	0.061
335	0.06
335	0.06
336	0.06
336	0.059
336	0.059
337	0.059
337	0.058
338	0.058
338	0.058
339	0.058
339	0.057
340	0.057
340	0.057
341	0.056
341	0.056
342	0.055
342	0.055
342	0.055
343	0.054
343	0.054
344	0.054
344	0.053
345	0.053
345	0.052
346	0.052
346	0.052
347	0.051
347	0.051
348	0.05
348	0.05
348	0.049
349	0.049
349	0.049
350	0.048
350	0.048
351	0.048
351	0.047
352	0.047
352	0.046
353	0.046
353	0.045
354	0.045
354	0.044
354	0.044
355	0.043
355	0.043
356	0.042
356	0.042
357	0.042
357	0.042
358	0.042
358	0.042
359	0.043
359	0.043
360	0.044
360	0.044
360	0.044
361	0.044
361	0.044
362	0.045
362	0.044
363	0.044
363	0.044
364	0.044
364	0.043
365	0.043
365	0.043
366	0.043
366	0.042
366	0.042
367	0.042
367	0.042
368	0.042
368	0.042
369	0.042
369	0.041
370	0.041
370	0.041
371	0.041
371	0.04
372	0.04
372	0.04
372	0.04
373	0.04
373	0.039
374	0.039
374	0.039
375	0.039
375	0.039
376	0.039
376	0.039
377	0.039
377	0.04
378	0.04
378	0.04
378	0.04
379	0.04
379	0.04
380	0.04
380	0.04
381	0.04
381	0.04
382	0.04
382	0.04
383	0.04
383	0.039
383	0.039
384	0.039
384	0.039
385	0.038
385	0.038
386	0.038
386	0.038
387	0.038
387	0.038
388	0.038
388	0.038
389	0.038
389	0.038
389	0.038
390	0.039
390	0.039
391	0.039
391	0.039
392	0.039
392	0.039
393	0.04
393	0.04
394	0.04
394	0.039
394	0.039
395	0.039
395	0.039
396	0.039
396	0.039
397	0.039
397	0.039
398	0.039
398	0.039
399	0.039
399	0.039
400	0.039
400	0.038
400	0.038
401	0.038
401	0.037
402	0.037
402	0.036
403	0.036
403	0.036
404	0.036
404	0.036
405	0.036
405	0.036
405	0.035
406	0.035
406	0.035
407	0.035
407	0.035
408	0.034
408	0.034
409	0.034
409	0.033
410	0.033
410	0.033
411	0.033
411	0.033
411	0.033
412	0.033
412	0.033
413	0.033
413	0.033
414	0.033
414	0.033
415	0.033
415	0.033
416	0.033
416	0.032
416	0.032
417	0.032
417	0.032
418	0.032
418	0.032
419	0.032
419	0.033
420	0.033
420	0.034
421	0.034
421	0.034
421	0.034
422	0.034
422	0.034
423	0.034
423	0.034
424	0.033
424	0.033
425	0.032
425	0.032
426	0.031
426	0.031
427	0.031
427	0.031
427	0.032
428	0.032
428	0.032
429	0.033
429	0.033
430	0.033
430	0.033
431	0.033
431	0.033
432	0.032
432	0.032
432	0.031
433	0.031
433	0.03
434	0.03
434	0.03
435	0.03
435	0.03
436	0.03
436	0.03
437	0.03
437	0.03
437	0.03
438	0.03
438	0.03
439	0.03
439	0.03
440	0.029
440	0.029
441	0.029
441	0.029
442	0.029
442	0.029
442	0.029
443	0.029
443	0.03
444	0.03
444	0.03
445	0.03
445	0.03
446	0.031
446	0.031
447	0.031
447	0.031
447	0.03
448	0.03
448	0.03
449	0.03
449	0.03
450	0.03
450	0.03
451	0.029
451	0.029
452	0.028
452	0.028
452	0.028
453	0.027
453	0.027
454	0.027
454	0.026
455	0.026
455	0.026
456	0.025
456	0.025
457	0.025
457	0.025
458	0.025
458	0.025
458	0.025
459	0.025
459	0.025
460	0.025
460	0.024
461	0.024
461	0.023
462	0.023
462	0.023
463	0.023
463	0.024
463	0.024
464	0.025
464	0.025
465	0.025
465	0.025
466	0.025
466	0.025
467	0.025
467	0.024
467	0.024
468	0.023
468	0.021
469	0.02
469	0.019
470	0.018
470	0.017
471	0.017
471	0.017
472	0.017
472	0.016
472	0.016
473	0.017
473	0.018
474	0.018
474	0.019
475	0.02
475	0.02
476	0.02
476	0.02
477	0.021
477	0.021
477	0.021
478	0.022
478	0.022
479	0.022
479	0.022
480	0.023
480	0.023
481	0.024
481	0.024
482	0.025
482	0.025
482	0.026
483	0.027
483	0.029
484	0.031
484	0.033
485	0.034
485	0.034
486	0.035
486	0.035
487	0.035
487	0.035
487	0.035
488	0.034
488	0.033
489	0.031
489	0.03
490	0.029
490	0.028
491	0.027
491	0.027
492	0.027
492	0.027
492	0.027
493	0.028
493	0.028
494	0.029
494	0.03
495	0.031
495	0.031
496	0.032
496	0.032
496	0.032
497	0.032
497	0.033
498	0.033
498	0.033
499	0.032
499	0.032
500	0.032
500	0.033
501	0.033
501	0.034
501	0.035
502	0.036
502	0.037
503	0.038
503	0.038
504	0.039
504	0.039
505	0.04
505	0.04
506	0.04
506	0.04
506	0.04
507	0.04
507	0.04
508	0.039
508	0.039
509	0.039
509	0.04
510	0.04
510	0.04
511	0.039
511	0.039
511	0.039
512	0.039
512	0.039
513	0.039
513	0.039
514	0.038
514	0.037
515	0.037
515	0.036
515	0.035
516	0.035
516	0.035
517	0.035
517	0.035
518	0.035
518	0.034
519	0.034
519	0.033
520	0.032
520	0.031
520	0.029
521	0.028
521	0.026
522	0.024
522	0.022
523	0.02
523	0.02
524	0.02
524	0.02
524	0.021
525	0.023
525	0.025
526	0.026
526	0.029
527	0.031
527	0.033
528	0.035
528	0.036
529	0.037
529	0.038
529	0.038
530	0.038
530	0.039
531	0.039
531	0.039
532	0.039
532	0.039
533	0.039
533	0.039
533	0.039
534	0.039
534	0.039
535	0.039
535	0.039
536	0.038
536	0.038
537	0.038
537	0.038
538	0.038
538	0.037
538	0.036
539	0.036
539	0.036
540	0.035
540	0.035
541	0.034
541	0.034
542	0.033
542	0.032
542	0.032
543	0.032
543	0.032
544	0.031
544	0.031
545	0.031
545	0.031
546	0.031
546	0.031
547	0.031
547	0.03
547	0.029
548	0.028
548	0.027
549	0.026
549	0.025
550	0.024
550	0.022
551	0.021
551	0.02
551	0.019
552	0.018
552	0.018
553	0.018
553	0.018
554	0.019
554	0.018
555	0.018
555	0.017
556	0.015
556	0.014
556	0.012
557	0.011
557	0.01
558	0.009
558	0.008
559	0.007
559	0.007
560	0.007
560	0.007
560	0.007
561	0.008
561	0.009
562	0.009
562	0.009
563	0.008
563	0.007
564	0.006
564	0.005
564	0.003
565	0.002
565	0.002
566	0.001
566	0
567	0
567	0.001
568	0.002
568	0.003
568	0.005
569	0.007
569	0.008
570	0.01
570	0.01
571	0.011
571	0.013
572	0.013
572	0.014
573	0.014
573	0.015
573	0.014
574	0.014
574	0.015
575	0.015
575	0.016
576	0.017
576	0.017
577	0.017
577	0.017
577	0.016
578	0.016
578	0.016
579	0.017
579	0.018
580	0.018
580	0.017
581	0.016
581	0.016
581	0.015
582	0.015
582	0.015
583	0.016
583	0.016
584	0.015
584	0.013
585	0.012
585	0.012
585	0.011
586	0.011
586	0.011
587	0.01
587	0.009
588	0.007
588	0.006
589	0.004
589	0.003
590	0.002
590	0.001
590	0.001
591	0.001
591	0.002
592	0.002
592	0.002
593	0.002
593	0.002
594	0.002
594	0.002
594	0.002
595	0.002
595	0.002
596	0.001
596	0.001
597	0.002
597	0.003
598	0.004
598	0.005
598	0.005
599	0.006
599	0.005
600	0.005
600	0.004
601	0.004
601	0.003
602	0.001
602	0.001
602	-0.001
603	-0.002
603	-0.002
604	-0.001
604	-0.001
605	-0
605	0.001
606	0.001
606	0.001
606	0.001
607	0
607	0
608	0
608	-0.001
609	-0.001
609	-0.002
610	-0.003
610	-0.004
610	-0.004
611	-0.004
611	-0.003
612	-0.002
612	-0.001
613	-0
613	0.001
614	0.002
614	0.002
614	0.002
615	0.002
615	0.001
616	0.001
616	0
617	-0
617	-0.002
618	-0.003
618	-0.004
618	-0.005
619	-0.005
619	-0.005
620	-0.005
620	-0.004
621	-0.004
621	-0.004
622	-0.004
622	-0.003
622	-0.003
623	-0.004
623	-0.004
624	-0.003
624	-0.003
625	-0.004
625	-0.004
626	-0.004
626	-0.004
626	-0.004
627	-0.004
627	-0.004
628	-0.004
628	-0.004
629	-0.004
629	-0.004
630	-0.005
630	-0.005
630	-0.006
631	-0.006
631	-0.006
632	-0.006
632	-0.006
633	-0.006
633	-0.006
634	-0.005
634	-0.005
634	-0.003
635	-0.002
635	-0.002
636	-0.001
636	-0
637	0.001
637	0.001
638	0.001
638	0.001
638	0.002
639	0.001
639	0.001
640	0.001
640	0.002
641	0.002
641	0.003
642	0.004
642	0.005
642	0.006
643	0.007
643	0.008
644	0.009
644	0.011
645	0.012
645	0.014
646	0.015
646	0.016
646	0.018
647	0.019
647	0.021
648	0.023
648	0.024
649	0.025
649	0.027
650	0.028
650	0.029
650	0.031
651	0.032
651	0.033
652	0.033
652	0.033
653	0.034
653	0.038
653	0.042
654	0.037
654	0.032
655	0.035
655	0.036
656	0.037
656	0.038
657	0.04
657	0.041
657	0.042
658	0.041
658	0.039
659	0.046
659	0.056
660	0.056
660	0.057
661	0.057
661	0.058
661	0.058
662	0.06
662	0.061
663	0.063
663	0.064
664	0.065
664	0.067
665	0.068
665	0.069
665	0.071
666	0.072
666	0.073
667	0.074
667	0.075
668	0.076
668	0.077
669	0.078
669	0.08
669	0.081
670	0.084
670	0.085
671	0.087
671	0.088
672	0.089
672	0.089
672	0.09
673	0.09
673	0.091
674	0.092
674	0.092
675	0.091
675	0.091
676	0.092
676	0.093
676	0.094
677	0.095
677	0.096
678	0.097
678	0.097
679	0.098
679	0.098
680	0.099
680	0.1
680	0.1
681	0.1
681	0.101
682	0.101
682	0.102
683	0.103
683	0.104
684	0.105
684	0.106
684	0.106
685	0.106
685	0.106
686	0.106
686	0.106
687	0.106
687	0.105
687	0.104
688	0.103
688	0.102
689	0.102
689	0.102
690	0.102
690	0.102
691	0.101
691	0.101
691	0.101
692	0.101
692	0.101
693	0.102
693	0.102
694	0.103
694	0.103
695	0.104
695	0.106
695	0.108
696	0.108
696	0.109
697	0.109
697	0.108
698	0.108
698	0.107
698	0.106
699	0.105
699	0.104
700	0.101
700	0.1
701	0.099
701	0.098
702	0.097
702	0.096
702	0.095
703	0.094
703	0.092
704	0.091
704	0.09
705	0.09
705	0.089
705	0.088
706	0.088
706	0.087
707	0.086
707	0.086
708	0.085
708	0.084
709	0.084
709	0.083
709	0.082
710	0.08
710	0.079
711	0.078
711	0.077
712	0.077
712	0.076
713	0.076
713	0.076
713	0.076
714	0.075
714	0.074
715	0.073
715	0.072
716	0.071
716	0.07
716	0.069
717	0.068
717	0.066
718	0.065
718	0.063
719	0.062
719	0.061
720	0.06
720	0.059
720	0.057
721	0.055
721	0.053
722	0.051
722	0.049
723	0.048
723	0.046
723	0.045
724	0.043
724	0.042
725	0.04
725	0.039
726	0.038
726	0.037
727	0.036
727	0.035
727	0.034
728	0.033
728	0.032
729	0.032
729	0.032
730	0.032
730	0.031
730	0.03
731	0.03
731	0.029
732	0.028
732	0.028
733	0.027
733	0.026
734	0.025
734	0.024
734	0.022
735	0.021
735	0.02
736	0.019
736	0.017
737	0.016
737	0.015
737	0.014
738	0.013
738	0.011
739	0.01
739	0.009
740	0.007
740	0.006
741	0.006
741	0.004
741	0.003
742	0
742	-0.002
743	-0.004
743	-0.005
744	-0.007
744	-0.008
744	-0.009
745	-0.01
745	-0.012
746	-0.013
746	-0.013
747	-0.013
747	-0.013
748	-0.013
748	-0.014
748	-0.014
749	-0.015
749	-0.015
750	-0.016
750	-0.016
751	-0.017
751	-0.017
751	-0.017
752	-0.017
752	-0.017
753	-0.018
753	-0.019
754	-0.019
754	-0.019
754	-0.02
755	-0.02
755	-0.019
756	-0.019
756	-0.02
757	-0.021
757	-0.021
758	-0.022
758	-0.022
758	-0.023
759	-0.023
759	-0.024
760	-0.026
760	-0.028
761	-0.03
761	-0.031
761	-0.032
762	-0.033
762	-0.033
763	-0.033
763	-0.034
764	-0.035
764	-0.036
764	-0.037
765	-0.038
765	-0.039
766	-0.04
766	-0.04
767	-0.04
767	-0.041
768	-0.044
768	-0.045
768	-0.046
769	-0.047
769	-0.047
770	-0.047
770	-0.048
771	-0.049
771	-0.051
771	-0.053
772	-0.055
772	-0.056
773	-0.058
773	-0.061
774	-0.064
774	-0.067
775	-0.07
775	-0.073
775	-0.076
776	-0.08
776	-0.083
777	-0.086
777	-0.089
778	-0.093
778	-0.096
778	-0.099
779	-0.102
779	-0.103
780	-0.105
780	-0.109
781	-0.113
781	-0.116
781	-0.119
782	-0.123
782	-0.127
783	-0.131
783	-0.134
784	-0.136
784	-0.139
784	-0.141
785	-0.143
785	-0.145
786	-0.145
786	-0.143
787	-0.139
787	-0.135
788	-0.134
788	-0.136
788	-0.137
789	-0.14
789	-0.14
790	-0.137
790	-0.136
791	-0.137
791	-0.139
791	-0.141
792	-0.136
792	-0.124
793	-0.118
793	-0.113
794	-0.111
794	-0.112
794	-0.115
795	-0.117
795	-0.117
796	-0.117
796	-0.119
797	-0.128
797	-0.139
797	-0.146
798	-0.152
798	-0.155
799	-0.157
799	-0.157
800	-0.157
800	-0.159
801	-0.162
801	-0.163
801	-0.163
802	-0.164
802	-0.165
803	-0.165
803	-0.165
804	-0.163
804	-0.158
804	-0.151
805	-0.147
805	-0.144
806	-0.142
806	-0.14
807	-0.139
807	-0.138
807	-0.138
808	-0.137
808	-0.138
809	-0.142
809	-0.147
810	-0.15
810	-0.152
810	-0.155
811	-0.158
811	-0.159
812	-0.155
812	-0.152
813	-0.152
813	-0.154
813	-0.155
814	-0.157
814	-0.158
815	-0.156
815	-0.154
816	-0.153
816	-0.154
817	-0.159
817	-0.163
817	-0.163
818	-0.163
818	-0.16
819	-0.155
819	-0.152
820	-0.153
820	-0.155
820	-0.156
821	-0.155
821	-0.152
822	-0.149
822	-0.145
823	-0.141
823	-0.139
823	-0.139
824	-0.136
824	-0.129
825	-0.121
825	-0.112
826	-0.104
826	-0.098
826	-0.092
827	-0.086
827	-0.081
828	-0.076
828	-0.072
829	-0.068
829	-0.064
829	-0.062
830	-0.059
830	-0.057
831	-0.054
831	-0.051
832	-0.048
832	-0.046
832	-0.045
833	-0.043
833	-0.042
834	-0.042
834	-0.041
835	-0.041
835	-0.041
835	-0.042
836	-0.042
836	-0.042
837	-0.042
837	-0.042
838	-0.042
838	-0.041
839	-0.041
839	-0.04
839	-0.04
840	-0.039
840	-0.038
841	-0.037
841	-0.036
842	-0.035
842	-0.033
842	-0.032
843	-0.031
843	-0.03
844	-0.029
844	-0.028
845	-0.027
845	-0.027
845	-0.027
846	-0.026
846	-0.026
847	-0.025
847	-0.025
848	-0.024
848	-0.024
848	-0.023
849	-0.022
849	-0.021
850	-0.021
850	-0.02
851	-0.019
851	-0.019
851	-0.018
852	-0.018
852	-0.017
853	-0.017
853	-0.017
854	-0.017
854	-0.017
854	-0.017
855	-0.018
855	-0.018
856	-0.018
856	-0.018
857	-0.018
857	-0.019
857	-0.019
858	-0.018
858	-0.018
859	-0.018
859	-0.017
860	-0.016
860	-0.015
860	-0.014
861	-0.013
861	-0.012
862	-0.011
862	-0.009
863	-0.008
863	-0.007
863	-0.006
864	-0.005
864	-0.004
865	-0.003
865	-0.002
866	-0.002
866	-0.002
866	-0.001
867	-0.001
867	-0.001
868	-0.001
868	-0.001
869	-0.001
869	-0.001
869	-0.001
870	-0.001
870	-0.001
871	-0.002
871	-0.003
872	-0.004
872	-0.004
872	-0.005
873	-0.006
873	-0.006
874	-0.007
874	-0.007
875	-0.007
875	-0.007
875	-0.007
876	-0.006
876	-0.006
877	-0.005
877	-0.005
878	-0.004
878	-0.004
878	-0.004
879	-0.003
879	-0.003
880	-0.003
880	-0.003
881	-0.002
881	-0.002
881	-0.001
882	-0.001
882	-0.001
883	-0
883	-0
884	0
884	0
884	0.001
885	0.001
885	0.001
886	0
886	-0
887	-0.001
887	-0.001
887	-0.002
888	-0.003
888	-0.003
889	-0.004
889	-0.004
890	-0.004
890	-0.004
890	-0.004
891	-0.004
891	-0.004
892	-0.003
892	-0.003
893	-0.002
893	-0.001
893	-0.001
894	-0
894	-0
895	-0
895	-0
895	-0.001
896	-0.001
896	-0.001
897	-0.002
897	-0.002
898	-0.003
898	-0.004
898	-0.005
899	-0.005
899	-0.006
900	-0.007
900	-0.007
901	-0.008
901	-0.008
901	-0.008
902	-0.008
902	-0.008
903	-0.008
903	-0.008
904	-0.008
904	-0.008
904	-0.008
905	-0.007
905	-0.007
906	-0.006
906	-0.006
907	-0.006
907	-0.005
907	-0.005
908	-0.005
908	-0.005
909	-0.005
909	-0.005
910	-0.005
910	-0.005
910	-0.005
911	-0.005
911	-0.005
912	-0.004
912	-0.004
913	-0.003
913	-0.002
913	-0.001
914	-0
914	0.001
915	0.002
915	0.003
916	0.003
916	0.004
916	0.004
917	0.004
917	0.004
918	0.004
918	0.004
918	0.003
919	0.003
919	0.002
920	0.001
920	-0
921	-0.001
921	-0.002
921	-0.002
922	-0.003
922	-0.003
923	-0.003
923	-0.003
924	-0.003
924	-0.002
924	-0.002
925	-0.001
925	-0
926	0
926	0.001
927	0.001
927	0.002
927	0.002
928	0.003
928	0.004
929	0.004
929	0.005
930	0.005
930	0.005
930	0.005
931	0.004
931	0.005
932	0.004
932	0.004
933	0.004
933	0.004
933	0.004
934	0.004
934	0.005
935	0.005
935	0.005
935	0.005
936	0.005
936	0.005
937	0.005
937	0.005
938	0.005
938	0.004
938	0.004
939	0.003
939	0.003
940	0.003
940	0.003
941	0.003
941	0.003
941	0.004
942	0.004
942	0.004
943	0.005
943	0.006
944	0.006
944	0.007
944	0.007
945	0.008
945	0.009
946	0.009
946	0.01
946	0.01
947	0.011
947	0.01
948	0.01
948	0.01
949	0.01
949	0.009
949	0.009
950	0.008
950	0.008
951	0.007
951	0.007
952	0.007
952	0.007
952	0.007
953	0.007
953	0.006
954	0.006
954	0.006
955	0.006
955	0.006
955	0.006
956	0.006
956	0.006
957	0.006
957	0.006
957	0.006
958	0.006
958	0.006
959	0.006
959	0.007
960	0.007
960	0.007
960	0.007
961	0.007
961	0.008
962	0.008
962	0.009
963	0.009
963	0.009
963	0.01
964	0.01
964	0.01
965	0.01
965	0.01
966	0.009
966	0.009
966	0.008
967	0.008
967	0.007
968	0.006
968	0.006
968	0.005
969	0.005
969	0.005
970	0.005
970	0.005
971	0.005
971	0.005
971	0.006
972	0.006
972	0.007
973	0.008
973	0.008
974	0.009
974	0.009
974	0.01
975	0.01
975	0.01
976	0.01
976	0.009
976	0.009
977	0.008
977	0.007
978	0.006
978	0.005
979	0.004
979	0.004
979	0.003
980	0.002
980	0.001
981	0.001
981	0.001
982	0
982	-0
982	-0.001
983	-0.001
983	-0.001
984	-0.002
984	-0.002
984	-0.002
985	-0.002
985	-0.002
986	-0.002
986	-0.002
987	-0.002
987	-0.003
987	-0.003
988	-0.003
988	-0.003
989	-0.003
989	-0.003
990	-0.004
990	-0.004
990	-0.004
991	-0.004
991	-0.004
992	-0.004
992	-0.004
992	-0.004
993	-0.005
993	-0.005
994	-0.005
994	-0.006
995	-0.006
995	-0.006
995	-0.007
996	-0.007
996	-0.008
997	-0.008
997	-0.008
997	-0.008
998	-0.008
998	-0.007
999	-0.006
999	-0.006
1000	-0.005
1000	-0.004
1000	-0.003
1001	-0.002
1001	-0.001
1002	-0.001
1002	-0.001
1003	-0
1003	-0
1003	-0
1004	-0
1004	-0.001
1005	-0.001
1005	-0.001
1005	-0.001
1006	-0.002
1006	-0.002
1007	-0.002
1007	-0.002
1008	-0.001
1008	-0.001
1008	-0.001
1009	-0.001
1009	-0.001
1010	-0.001
1010	-0
1010	0.001
1011	0.001
1011	0.002
1012	0.003
1012	0.004
1013	0.005
1013	0.006
1013	0.007
1014	0.007
1014	0.008
1015	0.008
1015	0.008
1016	0.009
1016	0.009
1016	0.009
1017	0.009
1017	0.009
1018	0.009
1018	0.009
1018	0.009
1019	0.009
1019	0.009
1020	0.009
1020	0.009
1021	0.008
1021	0.008
1021	0.007
1022	0.007
1022	0.007
1023	0.007
1023	0.007
1023	0.007
1024	0.007
1024	0.007
1025	0.007
1025	0.007
1026	0.007
1026	0.007
1026	0.007
1027	0.007
1027	0.007
1028	0.007
1028	0.007
1028	0.008
1029	0.008
1029	0.008
1030	0.008
1030	0.008
1031	0.008
1031	0.009
1031	0.009
1032	0.009
1032	0.009
1033	0.01
1033	0.01
1033	0.01
1034	0.009
1034	0.009
1035	0.009
1035	0.009
1036	0.009
1036	0.01
1036	0.01
1037	0.011
1037	0.011
1038	0.012
1038	0.013
1039	0.014
1039	0.014
1039	0.015
1040	0.015
1040	0.016
1041	0.016
1041	0.017
1041	0.017
1042	0.018
1042	0.018
1043	0.019
1043	0.019
1044	0.02
1044	0.02
1044	0.021
1045	0.022
1045	0.022
1046	0.023
1046	0.024
1046	0.025
1047	0.027
1047	0.028
1048	0.029
1048	0.03
1049	0.03
1049	0.031
1049	0.032
1050	0.033
1050	0.033
1051	0.033
1051	0.033
1051	0.033
1052	0.033
1052	0.032
1053	0.032
1053	0.031
1053	0.031
1054	0.03
1054	0.03
1055	0.03
1055	0.029
1056	0.029
1056	0.028
1056	0.027
1057	0.027
1057	0.027
1058	0.028
1058	0.028
1058	0.028
1059	0.028
1059	0.029
1060	0.029
1060	0.03
1061	0.031
1061	0.032
1061	0.032
1062	0.033
1062	0.034
1063	0.035
1063	0.035
1063	0.037
1064	0.038
1064	0.039
1065	0.041
1065	0.042
1066	0.044
1066	0.046
1066	0.048
1067	0.05
1067	0.052
1068	0.054
1068	0.056
1068	0.058
1069	0.059
1069	0.061
1070	0.063
1070	0.064
1071	0.065
1071	0.066
1071	0.067
1072	0.069
1072	0.069
1073	0.071
1073	0.072
1073	0.073
1074	0.074
1074	0.074
1075	0.074
1075	0.074
1076	0.075
1076	0.076
1076	0.077
1077	0.078
1077	0.079
1078	0.08
1078	0.082
1078	0.084
1079	0.085
1079	0.088
1080	0.09
1080	0.092
1080	0.093
1081	0.095
1081	0.097
1082	0.1
1082	0.101
1083	0.103
1083	0.105
1083	0.108
1084	0.111
1084	0.114
1085	0.116
1085	0.119
1085	0.122
1086	0.125
1086	0.127
1087	0.131
1087	0.134
1088	0.138
1088	0.141
1088	0.144
1089	0.148
1089	0.153
1090	0.158
1090	0.164
1090	0.171
1091	0.178
1091	0.185
1092	0.192
1092	0.201
1092	0.21
1093	0.22
1093	0.23
1094	0.24
1094	0.25
1095	0.262
1095	0.276
1095	0.291
1096	0.308
1096	0.325
1097	0.343
1097	0.364
1097	0.386
1098	0.41
1098	0.438
1099	0.47
1099	0.506
1100	0.548
1100	0.598
1100	0.657
1101	0.732
1101	0.83
1102	0.966
1102	1.174
1102	1.652
1103	-0
1103	-0
1104	-0
1104	-0
1104	-0
1105	-0
1105	-0
1106	-0
1106	-0
1107	-0
1107	-0
1107	-0
1108	-0
1108	-0
1109	-0
1109	-0
1109	-0
1110	-0
1110	-0
1111	-0
1111	-0
