Data from 15c-2-4a_Absorbance__2834__02834.txt Node

Date: Thu Jan 25 11:38:38 CET 2024
User: Marek
Spectrometer: MAYP115816
Trigger mode: 0
Integration Time (sec): 2.000000E-1
Scans to average: 10
Electric dark correction enabled: true
Nonlinearity correction enabled: true
Boxcar width: 5
XAxis mode: Wavelengths
Number of Pixels in Spectrum: 2068
>>>>>Begin Spectral Data<<<<<
199	-2.19
199	-2.02
200	-1.866
200	-1.743
201	-1.665
201	-1.608
202	-1.525
202	-1.463
203	-1.411
203	-1.364
204	-1.337
204	-1.309
205	-1.288
205	-1.276
205	-1.27
206	-1.266
206	-1.262
207	-1.262
207	-1.259
208	-1.254
208	-1.25
209	-1.246
209	-1.242
210	-1.24
210	-1.238
211	-1.237
211	-1.235
212	-1.232
212	-1.229
213	-1.228
213	-1.228
213	-1.228
214	-1.227
214	-1.226
215	-1.224
215	-1.223
216	-1.22
216	-1.219
217	-1.217
217	-1.214
218	-1.213
218	-1.21
219	-1.208
219	-1.205
220	-1.205
220	-1.2
221	-1.197
221	-1.194
221	-1.191
222	-1.188
222	-1.187
223	-1.182
223	-1.176
224	-1.168
224	-1.159
225	-1.15
225	-1.142
226	-1.131
226	-1.119
227	-1.103
227	-1.09
228	-1.07
228	-1.051
229	-1.029
229	-1.005
229	-0.978
230	-0.948
230	-0.917
231	-0.881
231	-0.842
232	-0.8
232	-0.754
233	-0.707
233	-0.658
234	-0.609
234	-0.557
235	-0.506
235	-0.455
236	-0.405
236	-0.357
236	-0.309
237	-0.263
237	-0.219
238	-0.177
238	-0.138
239	-0.1
239	-0.064
240	-0.031
240	0.001
241	0.03
241	0.057
242	0.082
242	0.106
243	0.128
243	0.149
243	0.167
244	0.185
244	0.201
245	0.215
245	0.229
246	0.242
246	0.254
247	0.265
247	0.275
248	0.285
248	0.294
249	0.302
249	0.31
250	0.317
250	0.325
250	0.332
251	0.338
251	0.343
252	0.349
252	0.354
253	0.359
253	0.363
254	0.368
254	0.372
255	0.375
255	0.379
256	0.382
256	0.385
257	0.388
257	0.39
258	0.393
258	0.394
258	0.397
259	0.398
259	0.4
260	0.401
260	0.402
261	0.403
261	0.405
262	0.405
262	0.406
263	0.406
263	0.407
264	0.407
264	0.407
265	0.407
265	0.407
265	0.407
266	0.407
266	0.406
267	0.406
267	0.405
268	0.405
268	0.404
269	0.403
269	0.403
270	0.402
270	0.4
271	0.399
271	0.398
272	0.397
272	0.395
272	0.394
273	0.393
273	0.391
274	0.39
274	0.388
275	0.387
275	0.385
276	0.383
276	0.381
277	0.379
277	0.377
278	0.375
278	0.372
278	0.37
279	0.368
279	0.367
280	0.365
280	0.364
281	0.363
281	0.362
282	0.361
282	0.36
283	0.359
283	0.359
284	0.358
284	0.356
285	0.355
285	0.353
285	0.352
286	0.351
286	0.349
287	0.348
287	0.346
288	0.345
288	0.343
289	0.342
289	0.341
290	0.339
290	0.338
291	0.337
291	0.336
292	0.335
292	0.334
292	0.332
293	0.331
293	0.33
294	0.329
294	0.328
295	0.328
295	0.327
296	0.326
296	0.325
297	0.324
297	0.323
298	0.322
298	0.321
298	0.321
299	0.32
299	0.319
300	0.318
300	0.317
301	0.316
301	0.315
302	0.314
302	0.314
303	0.313
303	0.312
304	0.311
304	0.31
305	0.309
305	0.308
305	0.307
306	0.307
306	0.306
307	0.305
307	0.304
308	0.303
308	0.302
309	0.301
309	0.3
310	0.299
310	0.298
311	0.297
311	0.296
311	0.296
312	0.295
312	0.294
313	0.293
313	0.292
314	0.291
314	0.29
315	0.289
315	0.288
316	0.287
316	0.286
317	0.285
317	0.284
318	0.283
318	0.282
318	0.281
319	0.28
319	0.279
320	0.278
320	0.277
321	0.276
321	0.275
322	0.274
322	0.273
323	0.272
323	0.271
324	0.27
324	0.269
324	0.268
325	0.267
325	0.267
326	0.266
326	0.265
327	0.264
327	0.263
328	0.262
328	0.262
329	0.261
329	0.26
330	0.259
330	0.258
330	0.257
331	0.256
331	0.255
332	0.254
332	0.253
333	0.252
333	0.252
334	0.251
334	0.25
335	0.249
335	0.248
336	0.247
336	0.247
336	0.246
337	0.245
337	0.244
338	0.244
338	0.243
339	0.242
339	0.241
340	0.241
340	0.24
341	0.239
341	0.238
342	0.237
342	0.237
342	0.236
343	0.235
343	0.234
344	0.234
344	0.233
345	0.232
345	0.231
346	0.231
346	0.23
347	0.229
347	0.229
348	0.228
348	0.227
348	0.226
349	0.225
349	0.225
350	0.224
350	0.223
351	0.222
351	0.221
352	0.22
352	0.22
353	0.219
353	0.218
354	0.217
354	0.216
354	0.215
355	0.214
355	0.212
356	0.211
356	0.211
357	0.21
357	0.21
358	0.209
358	0.21
359	0.21
359	0.211
360	0.212
360	0.213
360	0.213
361	0.214
361	0.214
362	0.215
362	0.215
363	0.215
363	0.214
364	0.213
364	0.213
365	0.212
365	0.212
366	0.211
366	0.211
366	0.21
367	0.21
367	0.209
368	0.209
368	0.208
369	0.208
369	0.207
370	0.207
370	0.206
371	0.206
371	0.205
372	0.205
372	0.204
372	0.204
373	0.203
373	0.203
374	0.203
374	0.203
375	0.203
375	0.203
376	0.202
376	0.203
377	0.203
377	0.203
378	0.203
378	0.203
378	0.203
379	0.203
379	0.203
380	0.203
380	0.203
381	0.203
381	0.203
382	0.202
382	0.202
383	0.201
383	0.201
383	0.2
384	0.199
384	0.199
385	0.198
385	0.198
386	0.198
386	0.198
387	0.198
387	0.198
388	0.198
388	0.198
389	0.197
389	0.197
389	0.197
390	0.197
390	0.198
391	0.198
391	0.198
392	0.198
392	0.198
393	0.198
393	0.197
394	0.197
394	0.197
394	0.197
395	0.196
395	0.195
396	0.195
396	0.195
397	0.195
397	0.195
398	0.195
398	0.195
399	0.195
399	0.194
400	0.194
400	0.194
400	0.193
401	0.192
401	0.191
402	0.19
402	0.189
403	0.189
403	0.189
404	0.188
404	0.188
405	0.188
405	0.187
405	0.187
406	0.187
406	0.187
407	0.187
407	0.186
408	0.186
408	0.185
409	0.184
409	0.184
410	0.184
410	0.184
411	0.184
411	0.184
411	0.183
412	0.183
412	0.182
413	0.182
413	0.182
414	0.182
414	0.181
415	0.181
415	0.18
416	0.18
416	0.179
416	0.179
417	0.178
417	0.178
418	0.178
418	0.178
419	0.179
419	0.179
420	0.18
420	0.18
421	0.181
421	0.181
421	0.181
422	0.181
422	0.181
423	0.181
423	0.181
424	0.18
424	0.179
425	0.178
425	0.177
426	0.177
426	0.176
427	0.176
427	0.176
427	0.176
428	0.176
428	0.177
429	0.178
429	0.178
430	0.178
430	0.178
431	0.178
431	0.178
432	0.177
432	0.177
432	0.176
433	0.174
433	0.173
434	0.172
434	0.172
435	0.172
435	0.172
436	0.172
436	0.172
437	0.172
437	0.172
437	0.172
438	0.172
438	0.171
439	0.171
439	0.17
440	0.17
440	0.17
441	0.17
441	0.17
442	0.17
442	0.17
442	0.17
443	0.17
443	0.171
444	0.171
444	0.171
445	0.171
445	0.171
446	0.172
446	0.172
447	0.171
447	0.171
447	0.171
448	0.17
448	0.17
449	0.17
449	0.17
450	0.169
450	0.169
451	0.169
451	0.168
452	0.168
452	0.167
452	0.167
453	0.166
453	0.166
454	0.165
454	0.165
455	0.164
455	0.164
456	0.164
456	0.164
457	0.164
457	0.164
458	0.164
458	0.164
458	0.164
459	0.164
459	0.164
460	0.163
460	0.163
461	0.162
461	0.162
462	0.162
462	0.162
463	0.162
463	0.163
463	0.163
464	0.164
464	0.164
465	0.164
465	0.164
466	0.164
466	0.165
467	0.164
467	0.164
467	0.163
468	0.162
468	0.16
469	0.158
469	0.156
470	0.155
470	0.155
471	0.154
471	0.153
472	0.153
472	0.154
472	0.154
473	0.155
473	0.156
474	0.158
474	0.159
475	0.16
475	0.161
476	0.161
476	0.162
477	0.162
477	0.162
477	0.163
478	0.163
478	0.164
479	0.164
479	0.165
480	0.166
480	0.167
481	0.167
481	0.168
482	0.169
482	0.171
482	0.172
483	0.174
483	0.177
484	0.181
484	0.184
485	0.186
485	0.188
486	0.189
486	0.19
487	0.191
487	0.191
487	0.191
488	0.191
488	0.189
489	0.187
489	0.184
490	0.183
490	0.182
491	0.181
491	0.182
492	0.182
492	0.183
492	0.184
493	0.184
493	0.186
494	0.188
494	0.19
495	0.192
495	0.194
496	0.196
496	0.197
496	0.198
497	0.199
497	0.2
498	0.201
498	0.201
499	0.201
499	0.202
500	0.203
500	0.204
501	0.206
501	0.207
501	0.209
502	0.211
502	0.213
503	0.215
503	0.217
504	0.218
504	0.218
505	0.219
505	0.219
506	0.22
506	0.22
506	0.221
507	0.221
507	0.221
508	0.221
508	0.222
509	0.223
509	0.224
510	0.224
510	0.224
511	0.224
511	0.225
511	0.226
512	0.226
512	0.226
513	0.225
513	0.223
514	0.222
514	0.221
515	0.22
515	0.221
515	0.221
516	0.22
516	0.22
517	0.22
517	0.219
518	0.218
518	0.217
519	0.215
519	0.212
520	0.209
520	0.206
520	0.202
521	0.199
521	0.197
522	0.195
522	0.194
523	0.195
523	0.197
524	0.2
524	0.204
524	0.208
525	0.212
525	0.215
526	0.218
526	0.221
527	0.224
527	0.226
528	0.228
528	0.229
529	0.229
529	0.229
529	0.229
530	0.229
530	0.229
531	0.228
531	0.228
532	0.228
532	0.228
533	0.227
533	0.227
533	0.227
534	0.226
534	0.225
535	0.225
535	0.224
536	0.223
536	0.222
537	0.221
537	0.221
538	0.219
538	0.218
538	0.216
539	0.215
539	0.215
540	0.213
540	0.212
541	0.21
541	0.208
542	0.206
542	0.204
542	0.202
543	0.201
543	0.2
544	0.198
544	0.196
545	0.195
545	0.194
546	0.194
546	0.193
547	0.192
547	0.189
547	0.187
548	0.184
548	0.181
549	0.179
549	0.177
550	0.174
550	0.172
551	0.169
551	0.166
551	0.164
552	0.163
552	0.161
553	0.16
553	0.159
554	0.159
554	0.157
555	0.155
555	0.152
556	0.148
556	0.145
556	0.141
557	0.138
557	0.135
558	0.132
558	0.129
559	0.127
559	0.126
560	0.125
560	0.124
560	0.123
561	0.123
561	0.123
562	0.123
562	0.122
563	0.12
563	0.118
564	0.115
564	0.112
564	0.109
565	0.107
565	0.105
566	0.103
566	0.102
567	0.101
567	0.101
568	0.102
568	0.103
568	0.105
569	0.106
569	0.108
570	0.11
570	0.11
571	0.111
571	0.111
572	0.111
572	0.111
573	0.111
573	0.111
573	0.11
574	0.109
574	0.108
575	0.107
575	0.108
576	0.109
576	0.109
577	0.108
577	0.106
577	0.105
578	0.104
578	0.104
579	0.104
579	0.105
580	0.104
580	0.102
581	0.099
581	0.097
581	0.096
582	0.095
582	0.094
583	0.095
583	0.094
584	0.092
584	0.089
585	0.087
585	0.086
585	0.085
586	0.085
586	0.084
587	0.083
587	0.081
588	0.078
588	0.075
589	0.073
589	0.071
590	0.069
590	0.068
590	0.067
591	0.067
591	0.067
592	0.067
592	0.066
593	0.065
593	0.065
594	0.065
594	0.065
594	0.064
595	0.064
595	0.063
596	0.062
596	0.062
597	0.063
597	0.065
598	0.066
598	0.067
598	0.068
599	0.069
599	0.068
600	0.068
600	0.067
601	0.066
601	0.064
602	0.062
602	0.061
602	0.059
603	0.057
603	0.057
604	0.057
604	0.057
605	0.058
605	0.06
606	0.06
606	0.06
606	0.06
607	0.059
607	0.059
608	0.059
608	0.058
609	0.057
609	0.056
610	0.055
610	0.054
610	0.053
611	0.053
611	0.054
612	0.055
612	0.056
613	0.058
613	0.059
614	0.06
614	0.06
614	0.06
615	0.06
615	0.06
616	0.059
616	0.059
617	0.058
617	0.057
618	0.055
618	0.054
618	0.053
619	0.052
619	0.052
620	0.053
620	0.053
621	0.054
621	0.054
622	0.055
622	0.056
622	0.056
623	0.056
623	0.057
624	0.058
624	0.058
625	0.058
625	0.059
626	0.059
626	0.059
626	0.059
627	0.059
627	0.06
628	0.06
628	0.061
629	0.061
629	0.061
630	0.061
630	0.061
630	0.061
631	0.061
631	0.061
632	0.061
632	0.062
633	0.062
633	0.063
634	0.064
634	0.066
634	0.068
635	0.07
635	0.071
636	0.073
636	0.075
637	0.076
637	0.077
638	0.078
638	0.079
638	0.08
639	0.081
639	0.081
640	0.082
640	0.084
641	0.085
641	0.087
642	0.089
642	0.092
642	0.094
643	0.096
643	0.099
644	0.101
644	0.104
645	0.106
645	0.109
646	0.111
646	0.114
646	0.117
647	0.121
647	0.124
648	0.127
648	0.13
649	0.133
649	0.136
650	0.139
650	0.143
650	0.146
651	0.148
651	0.151
652	0.152
652	0.154
653	0.157
653	0.165
653	0.181
654	0.147
654	0.121
655	0.128
655	0.131
656	0.133
656	0.136
657	0.138
657	0.141
657	0.142
658	0.141
658	0.13
659	0.163
659	0.208
660	0.209
660	0.21
661	0.212
661	0.214
661	0.217
662	0.22
662	0.224
663	0.227
663	0.23
664	0.233
664	0.236
665	0.239
665	0.241
665	0.244
666	0.247
666	0.25
667	0.252
667	0.255
668	0.258
668	0.261
669	0.264
669	0.267
669	0.271
670	0.276
670	0.28
671	0.283
671	0.286
672	0.288
672	0.29
672	0.292
673	0.294
673	0.296
674	0.297
674	0.298
675	0.298
675	0.299
676	0.3
676	0.302
676	0.304
677	0.305
677	0.307
678	0.309
678	0.311
679	0.312
679	0.313
680	0.314
680	0.316
680	0.317
681	0.317
681	0.318
682	0.318
682	0.32
683	0.321
683	0.324
684	0.326
684	0.327
684	0.327
685	0.327
685	0.328
686	0.329
686	0.329
687	0.328
687	0.327
687	0.326
688	0.324
688	0.322
689	0.322
689	0.323
690	0.323
690	0.323
691	0.323
691	0.324
691	0.324
692	0.324
692	0.323
693	0.323
693	0.323
694	0.323
694	0.321
695	0.321
695	0.322
695	0.322
696	0.322
696	0.321
697	0.321
697	0.32
698	0.318
698	0.316
698	0.314
699	0.312
699	0.31
700	0.306
700	0.303
701	0.301
701	0.299
702	0.297
702	0.295
702	0.293
703	0.291
703	0.289
704	0.288
704	0.286
705	0.285
705	0.284
705	0.283
706	0.282
706	0.281
707	0.28
707	0.278
708	0.277
708	0.276
709	0.275
709	0.273
709	0.27
710	0.266
710	0.263
711	0.26
711	0.257
712	0.254
712	0.251
713	0.249
713	0.247
713	0.244
714	0.241
714	0.238
715	0.236
715	0.233
716	0.23
716	0.228
716	0.225
717	0.223
717	0.22
718	0.217
718	0.214
719	0.211
719	0.209
720	0.207
720	0.204
720	0.201
721	0.197
721	0.193
722	0.19
722	0.186
723	0.182
723	0.18
723	0.177
724	0.174
724	0.171
725	0.168
725	0.166
726	0.163
726	0.161
727	0.159
727	0.157
727	0.156
728	0.153
728	0.151
729	0.15
729	0.149
730	0.147
730	0.145
730	0.144
731	0.142
731	0.14
732	0.139
732	0.137
733	0.135
733	0.133
734	0.13
734	0.127
734	0.124
735	0.121
735	0.118
736	0.115
736	0.112
737	0.109
737	0.106
737	0.104
738	0.101
738	0.098
739	0.095
739	0.093
740	0.091
740	0.089
741	0.087
741	0.085
741	0.082
742	0.077
742	0.073
743	0.07
743	0.067
744	0.064
744	0.061
744	0.059
745	0.056
745	0.053
746	0.051
746	0.05
747	0.048
747	0.048
748	0.047
748	0.047
748	0.046
749	0.045
749	0.044
750	0.043
750	0.041
751	0.04
751	0.04
751	0.039
752	0.039
752	0.037
753	0.036
753	0.035
754	0.034
754	0.033
754	0.032
755	0.032
755	0.032
756	0.031
756	0.029
757	0.027
757	0.026
758	0.025
758	0.023
758	0.022
759	0.02
759	0.017
760	0.013
760	0.01
761	0.006
761	0.005
761	0.003
762	0.001
762	0
763	-0
763	-0.002
764	-0.004
764	-0.006
764	-0.007
765	-0.009
765	-0.01
766	-0.011
766	-0.012
767	-0.013
767	-0.015
768	-0.018
768	-0.021
768	-0.022
769	-0.023
769	-0.024
770	-0.025
770	-0.026
771	-0.028
771	-0.031
771	-0.033
772	-0.035
772	-0.036
773	-0.038
773	-0.04
774	-0.044
774	-0.047
775	-0.051
775	-0.054
775	-0.058
776	-0.062
776	-0.066
777	-0.069
777	-0.073
778	-0.077
778	-0.081
778	-0.085
779	-0.088
779	-0.09
780	-0.094
780	-0.099
781	-0.103
781	-0.108
781	-0.113
782	-0.117
782	-0.123
783	-0.128
783	-0.13
784	-0.133
784	-0.136
784	-0.139
785	-0.141
785	-0.143
786	-0.144
786	-0.142
787	-0.138
787	-0.134
788	-0.133
788	-0.134
788	-0.136
789	-0.138
789	-0.138
790	-0.136
790	-0.135
791	-0.135
791	-0.137
791	-0.139
792	-0.134
792	-0.123
793	-0.116
793	-0.111
794	-0.109
794	-0.11
794	-0.113
795	-0.115
795	-0.115
796	-0.115
796	-0.118
797	-0.126
797	-0.137
797	-0.144
798	-0.15
798	-0.154
799	-0.155
799	-0.155
800	-0.155
800	-0.157
801	-0.16
801	-0.161
801	-0.161
802	-0.162
802	-0.163
803	-0.164
803	-0.163
804	-0.162
804	-0.156
804	-0.149
805	-0.145
805	-0.143
806	-0.14
806	-0.139
807	-0.138
807	-0.137
807	-0.136
808	-0.136
808	-0.136
809	-0.14
809	-0.145
810	-0.148
810	-0.151
810	-0.154
811	-0.157
811	-0.157
812	-0.153
812	-0.15
813	-0.151
813	-0.152
813	-0.154
814	-0.155
814	-0.156
815	-0.154
815	-0.152
816	-0.151
816	-0.152
817	-0.157
817	-0.161
817	-0.162
818	-0.161
818	-0.158
819	-0.153
819	-0.15
820	-0.151
820	-0.153
820	-0.154
821	-0.154
821	-0.153
822	-0.152
822	-0.15
823	-0.147
823	-0.147
823	-0.149
824	-0.147
824	-0.143
825	-0.136
825	-0.128
826	-0.12
826	-0.114
826	-0.107
827	-0.1
827	-0.095
828	-0.089
828	-0.085
829	-0.08
829	-0.075
829	-0.072
830	-0.069
830	-0.065
831	-0.061
831	-0.056
832	-0.053
832	-0.049
832	-0.046
833	-0.043
833	-0.041
834	-0.039
834	-0.038
835	-0.037
835	-0.036
835	-0.036
836	-0.036
836	-0.036
837	-0.036
837	-0.036
838	-0.036
838	-0.035
839	-0.035
839	-0.035
839	-0.035
840	-0.035
840	-0.035
841	-0.034
841	-0.034
842	-0.033
842	-0.033
842	-0.032
843	-0.031
843	-0.03
844	-0.029
844	-0.028
845	-0.027
845	-0.026
845	-0.025
846	-0.024
846	-0.023
847	-0.021
847	-0.02
848	-0.018
848	-0.017
848	-0.016
849	-0.014
849	-0.013
850	-0.013
850	-0.012
851	-0.012
851	-0.011
851	-0.011
852	-0.012
852	-0.011
853	-0.011
853	-0.012
854	-0.012
854	-0.012
854	-0.012
855	-0.011
855	-0.011
856	-0.011
856	-0.011
857	-0.01
857	-0.009
857	-0.009
858	-0.008
858	-0.008
859	-0.007
859	-0.006
860	-0.005
860	-0.004
860	-0.004
861	-0.003
861	-0.003
862	-0.003
862	-0.003
863	-0.003
863	-0.003
863	-0.003
864	-0.003
864	-0.003
865	-0.003
865	-0.003
866	-0.003
866	-0.003
866	-0.003
867	-0.002
867	-0.002
868	-0.001
868	-0.001
869	-0.001
869	-0.001
869	-0.001
870	-0.001
870	-0.001
871	-0.001
871	-0.001
872	-0.002
872	-0.002
872	-0.002
873	-0.002
873	-0.003
874	-0.003
874	-0.003
875	-0.004
875	-0.004
875	-0.005
876	-0.005
876	-0.006
877	-0.006
877	-0.006
878	-0.006
878	-0.006
878	-0.006
879	-0.005
879	-0.005
880	-0.004
880	-0.003
881	-0.002
881	-0.001
881	0
882	0.001
882	0.002
883	0.003
883	0.004
884	0.005
884	0.005
884	0.006
885	0.006
885	0.007
886	0.007
886	0.007
887	0.007
887	0.007
887	0.007
888	0.007
888	0.008
889	0.008
889	0.009
890	0.01
890	0.01
890	0.011
891	0.012
891	0.012
892	0.013
892	0.013
893	0.014
893	0.015
893	0.015
894	0.015
894	0.015
895	0.015
895	0.014
895	0.014
896	0.013
896	0.013
897	0.012
897	0.011
898	0.01
898	0.009
898	0.008
899	0.007
899	0.006
900	0.005
900	0.004
901	0.004
901	0.003
901	0.002
902	0.002
902	0.002
903	0.001
903	0.001
904	0.001
904	0.001
904	0.002
905	0.002
905	0.003
906	0.003
906	0.004
907	0.004
907	0.004
907	0.004
908	0.003
908	0.003
909	0.002
909	0.002
910	0.001
910	0.001
910	0.001
911	0.001
911	0.001
912	0.001
912	0.002
913	0.004
913	0.005
913	0.006
914	0.007
914	0.008
915	0.01
915	0.011
916	0.012
916	0.013
916	0.013
917	0.014
917	0.014
918	0.015
918	0.015
918	0.015
919	0.015
919	0.014
920	0.014
920	0.014
921	0.013
921	0.012
921	0.011
922	0.01
922	0.009
923	0.008
923	0.007
924	0.005
924	0.004
924	0.004
925	0.003
925	0.003
926	0.003
926	0.003
927	0.002
927	0.003
927	0.003
928	0.004
928	0.005
929	0.005
929	0.006
930	0.006
930	0.007
930	0.007
931	0.008
931	0.009
932	0.01
932	0.01
933	0.011
933	0.012
933	0.012
934	0.012
934	0.013
935	0.013
935	0.013
935	0.013
936	0.013
936	0.013
937	0.013
937	0.013
938	0.013
938	0.013
938	0.013
939	0.013
939	0.013
940	0.014
940	0.014
941	0.015
941	0.016
941	0.017
942	0.018
942	0.018
943	0.019
943	0.02
944	0.02
944	0.021
944	0.021
945	0.022
945	0.023
946	0.023
946	0.023
946	0.023
947	0.024
947	0.024
948	0.023
948	0.023
949	0.023
949	0.022
949	0.022
950	0.021
950	0.02
951	0.02
951	0.019
952	0.018
952	0.018
952	0.018
953	0.018
953	0.017
954	0.017
954	0.017
955	0.017
955	0.017
955	0.018
956	0.018
956	0.018
957	0.018
957	0.019
957	0.019
958	0.019
958	0.019
959	0.019
959	0.019
960	0.019
960	0.019
960	0.019
961	0.019
961	0.019
962	0.018
962	0.018
963	0.018
963	0.017
963	0.017
964	0.016
964	0.016
965	0.015
965	0.015
966	0.014
966	0.014
966	0.013
967	0.013
967	0.013
968	0.012
968	0.012
968	0.012
969	0.012
969	0.012
970	0.012
970	0.012
971	0.012
971	0.012
971	0.012
972	0.013
972	0.014
973	0.014
973	0.014
974	0.015
974	0.015
974	0.016
975	0.016
975	0.016
976	0.016
976	0.015
976	0.015
977	0.014
977	0.013
978	0.012
978	0.011
979	0.01
979	0.009
979	0.008
980	0.008
980	0.007
981	0.006
981	0.006
982	0.006
982	0.006
982	0.006
983	0.006
983	0.006
984	0.006
984	0.007
984	0.006
985	0.006
985	0.006
986	0.005
986	0.005
987	0.004
987	0.003
987	0.003
988	0.003
988	0.003
989	0.002
989	0.003
990	0.003
990	0.003
990	0.004
991	0.005
991	0.006
992	0.006
992	0.007
992	0.008
993	0.008
993	0.008
994	0.008
994	0.009
995	0.008
995	0.008
995	0.008
996	0.008
996	0.007
997	0.006
997	0.006
997	0.005
998	0.005
998	0.005
999	0.005
999	0.005
1000	0.005
1000	0.005
1000	0.005
1001	0.005
1001	0.006
1002	0.006
1002	0.005
1003	0.005
1003	0.005
1003	0.004
1004	0.004
1004	0.003
1005	0.003
1005	0.002
1005	0.002
1006	0.001
1006	0.001
1007	0
1007	0
1008	0.001
1008	0.001
1008	0.002
1009	0.003
1009	0.003
1010	0.005
1010	0.006
1010	0.007
1011	0.008
1011	0.009
1012	0.01
1012	0.01
1013	0.011
1013	0.011
1013	0.011
1014	0.011
1014	0.01
1015	0.01
1015	0.01
1016	0.009
1016	0.009
1016	0.008
1017	0.008
1017	0.009
1018	0.009
1018	0.009
1018	0.01
1019	0.01
1019	0.011
1020	0.011
1020	0.012
1021	0.012
1021	0.012
1021	0.012
1022	0.012
1022	0.012
1023	0.012
1023	0.012
1023	0.012
1024	0.012
1024	0.011
1025	0.012
1025	0.012
1026	0.012
1026	0.012
1026	0.012
1027	0.013
1027	0.013
1028	0.013
1028	0.013
1028	0.013
1029	0.013
1029	0.013
1030	0.013
1030	0.012
1031	0.012
1031	0.011
1031	0.01
1032	0.01
1032	0.009
1033	0.008
1033	0.007
1033	0.007
1034	0.006
1034	0.005
1035	0.005
1035	0.005
1036	0.005
1036	0.005
1036	0.005
1037	0.006
1037	0.007
1038	0.007
1038	0.008
1039	0.009
1039	0.01
1039	0.011
1040	0.012
1040	0.012
1041	0.013
1041	0.014
1041	0.014
1042	0.015
1042	0.016
1043	0.016
1043	0.017
1044	0.018
1044	0.019
1044	0.02
1045	0.021
1045	0.022
1046	0.023
1046	0.024
1046	0.026
1047	0.028
1047	0.029
1048	0.031
1048	0.032
1049	0.033
1049	0.034
1049	0.034
1050	0.035
1050	0.035
1051	0.035
1051	0.035
1051	0.034
1052	0.034
1052	0.033
1053	0.033
1053	0.032
1053	0.032
1054	0.031
1054	0.031
1055	0.031
1055	0.03
1056	0.03
1056	0.029
1056	0.028
1057	0.028
1057	0.027
1058	0.027
1058	0.027
1058	0.028
1059	0.028
1059	0.028
1060	0.028
1060	0.029
1061	0.03
1061	0.031
1061	0.032
1062	0.032
1062	0.033
1063	0.034
1063	0.034
1063	0.035
1064	0.037
1064	0.039
1065	0.041
1065	0.042
1066	0.045
1066	0.047
1066	0.05
1067	0.053
1067	0.055
1068	0.057
1068	0.059
1068	0.061
1069	0.062
1069	0.063
1070	0.064
1070	0.065
1071	0.066
1071	0.067
1071	0.068
1072	0.069
1072	0.07
1073	0.072
1073	0.073
1073	0.074
1074	0.075
1074	0.076
1075	0.076
1075	0.077
1076	0.076
1076	0.077
1076	0.077
1077	0.078
1077	0.079
1078	0.08
1078	0.082
1078	0.083
1079	0.086
1079	0.089
1080	0.091
1080	0.094
1080	0.096
1081	0.1
1081	0.103
1082	0.106
1082	0.108
1083	0.111
1083	0.114
1083	0.118
1084	0.121
1084	0.126
1085	0.129
1085	0.134
1085	0.138
1086	0.141
1086	0.144
1087	0.149
1087	0.153
1088	0.156
1088	0.161
1088	0.165
1089	0.17
1089	0.176
1090	0.181
1090	0.187
1090	0.195
1091	0.203
1091	0.212
1092	0.222
1092	0.232
1092	0.243
1093	0.253
1093	0.266
1094	0.279
1094	0.293
1095	0.307
1095	0.323
1095	0.344
1096	0.363
1096	0.385
1097	0.412
1097	0.439
1097	0.471
1098	0.505
1098	0.545
1099	0.595
1099	0.649
1100	0.712
1100	0.791
1100	0.898
1101	1.045
1101	1.288
1102	2.175
1102	-0
1102	-0
1103	-0
1103	-0
1104	-0
1104	-0
1104	-0
1105	-0
1105	-0
1106	-0
1106	-0
1107	-0
1107	-0
1107	-0
1108	-0
1108	-0
1109	-0
1109	-0
1109	-0
1110	-0
1110	-0
1111	-0
1111	-0
