Data from 15c-2-4a_Absorbance__1132__01132.txt Node

Date: Thu Jan 25 10:41:54 CET 2024
User: Marek
Spectrometer: MAYP115816
Trigger mode: 0
Integration Time (sec): 2.000000E-1
Scans to average: 10
Electric dark correction enabled: true
Nonlinearity correction enabled: true
Boxcar width: 5
XAxis mode: Wavelengths
Number of Pixels in Spectrum: 2068
>>>>>Begin Spectral Data<<<<<
199	-2.169
199	-1.999
200	-1.845
200	-1.722
201	-1.644
201	-1.587
202	-1.504
202	-1.441
203	-1.389
203	-1.342
204	-1.316
204	-1.288
205	-1.267
205	-1.256
205	-1.25
206	-1.246
206	-1.242
207	-1.243
207	-1.239
208	-1.234
208	-1.231
209	-1.226
209	-1.223
210	-1.221
210	-1.218
211	-1.217
211	-1.215
212	-1.212
212	-1.209
213	-1.207
213	-1.208
213	-1.207
214	-1.206
214	-1.205
215	-1.203
215	-1.202
216	-1.199
216	-1.198
217	-1.196
217	-1.193
218	-1.192
218	-1.188
219	-1.186
219	-1.184
220	-1.183
220	-1.179
221	-1.176
221	-1.174
221	-1.17
222	-1.167
222	-1.166
223	-1.161
223	-1.155
224	-1.148
224	-1.139
225	-1.13
225	-1.121
226	-1.11
226	-1.099
227	-1.084
227	-1.07
228	-1.051
228	-1.032
229	-1.011
229	-0.986
229	-0.96
230	-0.93
230	-0.9
231	-0.864
231	-0.825
232	-0.783
232	-0.738
233	-0.692
233	-0.644
234	-0.596
234	-0.546
235	-0.496
235	-0.447
236	-0.397
236	-0.351
236	-0.305
237	-0.26
237	-0.219
238	-0.179
238	-0.142
239	-0.106
239	-0.073
240	-0.042
240	-0.013
241	0.014
241	0.04
242	0.062
242	0.084
243	0.104
243	0.122
243	0.139
244	0.155
244	0.169
245	0.182
245	0.195
246	0.206
246	0.217
247	0.227
247	0.236
248	0.244
248	0.252
249	0.26
249	0.266
250	0.273
250	0.279
250	0.285
251	0.29
251	0.296
252	0.3
252	0.305
253	0.309
253	0.313
254	0.317
254	0.321
255	0.324
255	0.327
256	0.33
256	0.333
257	0.336
257	0.338
258	0.34
258	0.342
258	0.343
259	0.345
259	0.346
260	0.347
260	0.348
261	0.35
261	0.35
262	0.351
262	0.351
263	0.352
263	0.353
264	0.353
264	0.353
265	0.354
265	0.353
265	0.353
266	0.353
266	0.353
267	0.352
267	0.352
268	0.351
268	0.351
269	0.35
269	0.349
270	0.348
270	0.347
271	0.346
271	0.345
272	0.344
272	0.343
272	0.342
273	0.34
273	0.339
274	0.338
274	0.337
275	0.336
275	0.334
276	0.333
276	0.331
277	0.329
277	0.328
278	0.325
278	0.324
278	0.322
279	0.32
279	0.319
280	0.318
280	0.316
281	0.316
281	0.315
282	0.314
282	0.313
283	0.313
283	0.312
284	0.311
284	0.31
285	0.309
285	0.307
285	0.306
286	0.305
286	0.304
287	0.303
287	0.301
288	0.3
288	0.299
289	0.298
289	0.297
290	0.296
290	0.295
291	0.294
291	0.293
292	0.292
292	0.291
292	0.291
293	0.29
293	0.289
294	0.288
294	0.288
295	0.287
295	0.286
296	0.286
296	0.285
297	0.284
297	0.284
298	0.283
298	0.282
298	0.281
299	0.281
299	0.28
300	0.28
300	0.279
301	0.278
301	0.277
302	0.277
302	0.276
303	0.276
303	0.275
304	0.275
304	0.274
305	0.273
305	0.272
305	0.272
306	0.271
306	0.27
307	0.27
307	0.269
308	0.268
308	0.268
309	0.267
309	0.266
310	0.265
310	0.265
311	0.264
311	0.263
311	0.263
312	0.262
312	0.261
313	0.261
313	0.26
314	0.259
314	0.258
315	0.258
315	0.257
316	0.256
316	0.255
317	0.254
317	0.254
318	0.253
318	0.252
318	0.251
319	0.25
319	0.25
320	0.249
320	0.248
321	0.247
321	0.246
322	0.245
322	0.245
323	0.244
323	0.243
324	0.242
324	0.241
324	0.24
325	0.24
325	0.239
326	0.238
326	0.238
327	0.237
327	0.236
328	0.236
328	0.235
329	0.234
329	0.233
330	0.233
330	0.232
330	0.231
331	0.23
331	0.23
332	0.229
332	0.228
333	0.227
333	0.227
334	0.226
334	0.225
335	0.225
335	0.224
336	0.223
336	0.223
336	0.222
337	0.221
337	0.221
338	0.22
338	0.22
339	0.219
339	0.219
340	0.218
340	0.217
341	0.217
341	0.216
342	0.215
342	0.215
342	0.214
343	0.214
343	0.213
344	0.212
344	0.212
345	0.211
345	0.21
346	0.209
346	0.209
347	0.208
347	0.207
348	0.207
348	0.206
348	0.205
349	0.205
349	0.204
350	0.203
350	0.203
351	0.202
351	0.202
352	0.201
352	0.2
353	0.2
353	0.199
354	0.198
354	0.197
354	0.196
355	0.195
355	0.194
356	0.193
356	0.192
357	0.191
357	0.191
358	0.191
358	0.191
359	0.192
359	0.193
360	0.193
360	0.194
360	0.194
361	0.195
361	0.195
362	0.196
362	0.196
363	0.196
363	0.196
364	0.195
364	0.194
365	0.194
365	0.194
366	0.194
366	0.193
366	0.193
367	0.193
367	0.192
368	0.192
368	0.191
369	0.191
369	0.191
370	0.19
370	0.19
371	0.189
371	0.189
372	0.189
372	0.188
372	0.188
373	0.188
373	0.188
374	0.187
374	0.187
375	0.187
375	0.187
376	0.187
376	0.187
377	0.187
377	0.187
378	0.188
378	0.188
378	0.188
379	0.188
379	0.188
380	0.188
380	0.188
381	0.188
381	0.188
382	0.187
382	0.187
383	0.187
383	0.186
383	0.186
384	0.185
384	0.185
385	0.184
385	0.184
386	0.184
386	0.184
387	0.184
387	0.184
388	0.184
388	0.183
389	0.183
389	0.183
389	0.183
390	0.183
390	0.184
391	0.184
391	0.184
392	0.184
392	0.184
393	0.184
393	0.184
394	0.184
394	0.184
394	0.183
395	0.183
395	0.183
396	0.182
396	0.182
397	0.182
397	0.182
398	0.182
398	0.182
399	0.182
399	0.182
400	0.182
400	0.182
400	0.181
401	0.181
401	0.18
402	0.179
402	0.178
403	0.177
403	0.177
404	0.177
404	0.177
405	0.177
405	0.176
405	0.176
406	0.175
406	0.175
407	0.175
407	0.175
408	0.175
408	0.174
409	0.173
409	0.173
410	0.173
410	0.173
411	0.173
411	0.172
411	0.172
412	0.172
412	0.171
413	0.171
413	0.171
414	0.171
414	0.17
415	0.17
415	0.17
416	0.17
416	0.169
416	0.169
417	0.168
417	0.168
418	0.168
418	0.168
419	0.168
419	0.169
420	0.17
420	0.17
421	0.171
421	0.171
421	0.171
422	0.171
422	0.171
423	0.171
423	0.171
424	0.17
424	0.17
425	0.169
425	0.168
426	0.167
426	0.167
427	0.167
427	0.167
427	0.167
428	0.168
428	0.168
429	0.169
429	0.169
430	0.169
430	0.169
431	0.169
431	0.169
432	0.168
432	0.168
432	0.167
433	0.165
433	0.164
434	0.164
434	0.163
435	0.163
435	0.163
436	0.163
436	0.163
437	0.163
437	0.163
437	0.164
438	0.164
438	0.163
439	0.163
439	0.163
440	0.163
440	0.162
441	0.162
441	0.162
442	0.163
442	0.163
442	0.163
443	0.163
443	0.163
444	0.163
444	0.163
445	0.164
445	0.164
446	0.164
446	0.164
447	0.163
447	0.163
447	0.163
448	0.163
448	0.162
449	0.162
449	0.162
450	0.162
450	0.162
451	0.162
451	0.161
452	0.161
452	0.16
452	0.16
453	0.159
453	0.159
454	0.158
454	0.158
455	0.157
455	0.157
456	0.157
456	0.156
457	0.156
457	0.156
458	0.156
458	0.156
458	0.156
459	0.156
459	0.156
460	0.156
460	0.155
461	0.155
461	0.154
462	0.154
462	0.154
463	0.154
463	0.155
463	0.155
464	0.156
464	0.156
465	0.156
465	0.157
466	0.157
466	0.157
467	0.157
467	0.156
467	0.155
468	0.154
468	0.152
469	0.15
469	0.149
470	0.148
470	0.147
471	0.147
471	0.147
472	0.147
472	0.147
472	0.148
473	0.149
473	0.15
474	0.151
474	0.152
475	0.153
475	0.154
476	0.154
476	0.155
477	0.155
477	0.156
477	0.156
478	0.157
478	0.157
479	0.158
479	0.159
480	0.16
480	0.161
481	0.162
481	0.163
482	0.164
482	0.165
482	0.166
483	0.168
483	0.171
484	0.175
484	0.178
485	0.18
485	0.181
486	0.183
486	0.183
487	0.184
487	0.185
487	0.185
488	0.184
488	0.183
489	0.18
489	0.178
490	0.177
490	0.176
491	0.175
491	0.176
492	0.176
492	0.177
492	0.177
493	0.178
493	0.179
494	0.181
494	0.183
495	0.185
495	0.187
496	0.188
496	0.189
496	0.19
497	0.191
497	0.192
498	0.193
498	0.193
499	0.194
499	0.194
500	0.195
500	0.196
501	0.198
501	0.2
501	0.201
502	0.203
502	0.204
503	0.206
503	0.207
504	0.208
504	0.209
505	0.209
505	0.21
506	0.21
506	0.21
506	0.211
507	0.211
507	0.211
508	0.211
508	0.212
509	0.213
509	0.213
510	0.214
510	0.214
511	0.214
511	0.214
511	0.215
512	0.215
512	0.215
513	0.215
513	0.214
514	0.212
514	0.211
515	0.21
515	0.21
515	0.21
516	0.21
516	0.21
517	0.21
517	0.21
518	0.209
518	0.208
519	0.206
519	0.204
520	0.201
520	0.198
520	0.196
521	0.193
521	0.19
522	0.188
522	0.187
523	0.186
523	0.188
524	0.19
524	0.193
524	0.197
525	0.2
525	0.203
526	0.207
526	0.209
527	0.213
527	0.215
528	0.217
528	0.219
529	0.22
529	0.22
529	0.22
530	0.22
530	0.22
531	0.22
531	0.22
532	0.22
532	0.219
533	0.219
533	0.219
533	0.219
534	0.218
534	0.217
535	0.217
535	0.216
536	0.216
536	0.215
537	0.214
537	0.213
538	0.212
538	0.211
538	0.209
539	0.208
539	0.207
540	0.206
540	0.205
541	0.203
541	0.201
542	0.199
542	0.198
542	0.196
543	0.195
543	0.194
544	0.192
544	0.191
545	0.189
545	0.189
546	0.189
546	0.188
547	0.187
547	0.185
547	0.183
548	0.18
548	0.178
549	0.176
549	0.174
550	0.172
550	0.169
551	0.166
551	0.164
551	0.162
552	0.16
552	0.159
553	0.158
553	0.157
554	0.157
554	0.155
555	0.153
555	0.151
556	0.148
556	0.144
556	0.141
557	0.138
557	0.136
558	0.133
558	0.131
559	0.129
559	0.128
560	0.126
560	0.126
560	0.125
561	0.125
561	0.125
562	0.124
562	0.124
563	0.122
563	0.12
564	0.117
564	0.115
564	0.112
565	0.11
565	0.108
566	0.107
566	0.105
567	0.105
567	0.105
568	0.106
568	0.107
568	0.108
569	0.11
569	0.112
570	0.113
570	0.114
571	0.114
571	0.115
572	0.115
572	0.115
573	0.115
573	0.115
573	0.114
574	0.113
574	0.112
575	0.111
575	0.112
576	0.113
576	0.113
577	0.112
577	0.111
577	0.11
578	0.108
578	0.108
579	0.108
579	0.11
580	0.109
580	0.107
581	0.105
581	0.103
581	0.101
582	0.101
582	0.1
583	0.101
583	0.101
584	0.099
584	0.095
585	0.093
585	0.092
585	0.091
586	0.091
586	0.09
587	0.089
587	0.086
588	0.083
588	0.08
589	0.078
589	0.076
590	0.075
590	0.073
590	0.073
591	0.073
591	0.073
592	0.073
592	0.072
593	0.072
593	0.072
594	0.072
594	0.071
594	0.071
595	0.071
595	0.07
596	0.068
596	0.069
597	0.07
597	0.071
598	0.072
598	0.074
598	0.074
599	0.075
599	0.075
600	0.074
600	0.073
601	0.072
601	0.071
602	0.069
602	0.068
602	0.066
603	0.065
603	0.064
604	0.065
604	0.065
605	0.066
605	0.067
606	0.068
606	0.067
606	0.067
607	0.066
607	0.066
608	0.065
608	0.064
609	0.063
609	0.062
610	0.061
610	0.059
610	0.059
611	0.059
611	0.06
612	0.061
612	0.062
613	0.064
613	0.066
614	0.066
614	0.067
614	0.067
615	0.067
615	0.067
616	0.066
616	0.066
617	0.065
617	0.063
618	0.061
618	0.06
618	0.059
619	0.058
619	0.058
620	0.059
620	0.06
621	0.06
621	0.061
622	0.061
622	0.062
622	0.063
623	0.063
623	0.064
624	0.064
624	0.064
625	0.064
625	0.064
626	0.064
626	0.064
626	0.065
627	0.065
627	0.065
628	0.066
628	0.066
629	0.066
629	0.066
630	0.066
630	0.065
630	0.065
631	0.065
631	0.066
632	0.066
632	0.066
633	0.066
633	0.067
634	0.068
634	0.07
634	0.072
635	0.074
635	0.076
636	0.077
636	0.079
637	0.08
637	0.081
638	0.083
638	0.084
638	0.085
639	0.085
639	0.086
640	0.087
640	0.088
641	0.09
641	0.091
642	0.093
642	0.096
642	0.098
643	0.1
643	0.103
644	0.105
644	0.107
645	0.11
645	0.112
646	0.114
646	0.116
646	0.12
647	0.123
647	0.127
648	0.129
648	0.132
649	0.135
649	0.138
650	0.141
650	0.145
650	0.147
651	0.15
651	0.152
652	0.153
652	0.154
653	0.157
653	0.164
653	0.179
654	0.145
654	0.119
655	0.125
655	0.128
656	0.13
656	0.132
657	0.135
657	0.137
657	0.139
658	0.137
658	0.126
659	0.157
659	0.201
660	0.202
660	0.204
661	0.205
661	0.207
661	0.21
662	0.213
662	0.216
663	0.219
663	0.223
664	0.226
664	0.229
665	0.231
665	0.234
665	0.237
666	0.24
666	0.243
667	0.245
667	0.248
668	0.25
668	0.252
669	0.255
669	0.258
669	0.261
670	0.265
670	0.269
671	0.272
671	0.274
672	0.276
672	0.278
672	0.28
673	0.282
673	0.283
674	0.285
674	0.286
675	0.286
675	0.287
676	0.288
676	0.29
676	0.292
677	0.294
677	0.296
678	0.297
678	0.299
679	0.3
679	0.301
680	0.302
680	0.304
680	0.304
681	0.305
681	0.306
682	0.307
682	0.308
683	0.31
683	0.313
684	0.315
684	0.317
684	0.317
685	0.317
685	0.318
686	0.319
686	0.319
687	0.318
687	0.317
687	0.316
688	0.314
688	0.312
689	0.312
689	0.313
690	0.313
690	0.313
691	0.313
691	0.313
691	0.314
692	0.313
692	0.313
693	0.313
693	0.314
694	0.314
694	0.313
695	0.312
695	0.314
695	0.315
696	0.315
696	0.314
697	0.314
697	0.313
698	0.311
698	0.309
698	0.307
699	0.305
699	0.303
700	0.299
700	0.296
701	0.294
701	0.292
702	0.29
702	0.288
702	0.286
703	0.284
703	0.282
704	0.281
704	0.279
705	0.278
705	0.277
705	0.275
706	0.274
706	0.273
707	0.272
707	0.27
708	0.269
708	0.268
709	0.267
709	0.265
709	0.262
710	0.259
710	0.256
711	0.253
711	0.251
712	0.249
712	0.247
713	0.245
713	0.243
713	0.241
714	0.238
714	0.236
715	0.234
715	0.231
716	0.229
716	0.227
716	0.225
717	0.222
717	0.22
718	0.217
718	0.214
719	0.211
719	0.209
720	0.206
720	0.203
720	0.2
721	0.196
721	0.192
722	0.189
722	0.185
723	0.182
723	0.179
723	0.177
724	0.174
724	0.172
725	0.169
725	0.167
726	0.165
726	0.163
727	0.161
727	0.159
727	0.157
728	0.155
728	0.152
729	0.151
729	0.15
730	0.148
730	0.146
730	0.144
731	0.143
731	0.141
732	0.14
732	0.139
733	0.137
733	0.135
734	0.132
734	0.129
734	0.126
735	0.124
735	0.122
736	0.118
736	0.116
737	0.113
737	0.111
737	0.108
738	0.106
738	0.103
739	0.1
739	0.098
740	0.096
740	0.094
741	0.093
741	0.091
741	0.088
742	0.084
742	0.08
743	0.077
743	0.074
744	0.072
744	0.069
744	0.067
745	0.064
745	0.062
746	0.06
746	0.058
747	0.057
747	0.056
748	0.056
748	0.055
748	0.054
749	0.053
749	0.052
750	0.051
750	0.05
751	0.049
751	0.049
751	0.049
752	0.048
752	0.047
753	0.046
753	0.045
754	0.044
754	0.043
754	0.042
755	0.042
755	0.041
756	0.041
756	0.038
757	0.037
757	0.036
758	0.035
758	0.034
758	0.033
759	0.032
759	0.03
760	0.027
760	0.024
761	0.022
761	0.02
761	0.019
762	0.017
762	0.015
763	0.015
763	0.012
764	0.01
764	0.007
764	0.005
765	0.003
765	0.002
766	0
766	-0.001
767	-0.002
767	-0.004
768	-0.007
768	-0.01
768	-0.011
769	-0.012
769	-0.012
770	-0.013
770	-0.015
771	-0.016
771	-0.019
771	-0.021
772	-0.023
772	-0.025
773	-0.027
773	-0.03
774	-0.033
774	-0.037
775	-0.04
775	-0.044
775	-0.048
776	-0.052
776	-0.056
777	-0.06
777	-0.063
778	-0.067
778	-0.072
778	-0.076
779	-0.079
779	-0.081
780	-0.085
780	-0.09
781	-0.095
781	-0.1
781	-0.106
782	-0.111
782	-0.118
783	-0.123
783	-0.127
784	-0.131
784	-0.135
784	-0.137
785	-0.141
785	-0.144
786	-0.144
786	-0.142
787	-0.138
787	-0.134
788	-0.133
788	-0.135
788	-0.136
789	-0.139
789	-0.139
790	-0.136
790	-0.135
791	-0.136
791	-0.138
791	-0.14
792	-0.134
792	-0.123
793	-0.117
793	-0.112
794	-0.109
794	-0.111
794	-0.114
795	-0.116
795	-0.115
796	-0.116
796	-0.118
797	-0.127
797	-0.138
797	-0.145
798	-0.151
798	-0.154
799	-0.155
799	-0.156
800	-0.156
800	-0.158
801	-0.161
801	-0.162
801	-0.162
802	-0.163
802	-0.164
803	-0.164
803	-0.164
804	-0.162
804	-0.157
804	-0.15
805	-0.146
805	-0.143
806	-0.141
806	-0.139
807	-0.138
807	-0.137
807	-0.137
808	-0.136
808	-0.137
809	-0.141
809	-0.146
810	-0.149
810	-0.151
810	-0.154
811	-0.157
811	-0.158
812	-0.154
812	-0.151
813	-0.151
813	-0.153
813	-0.154
814	-0.156
814	-0.156
815	-0.155
815	-0.153
816	-0.152
816	-0.152
817	-0.157
817	-0.161
817	-0.162
818	-0.162
818	-0.159
819	-0.153
819	-0.15
820	-0.152
820	-0.153
820	-0.155
821	-0.155
821	-0.153
822	-0.151
822	-0.147
823	-0.144
823	-0.142
823	-0.142
824	-0.14
824	-0.134
825	-0.126
825	-0.116
826	-0.107
826	-0.099
826	-0.093
827	-0.086
827	-0.08
828	-0.075
828	-0.07
829	-0.065
829	-0.061
829	-0.058
830	-0.055
830	-0.052
831	-0.048
831	-0.044
832	-0.041
832	-0.039
832	-0.036
833	-0.034
833	-0.032
834	-0.031
834	-0.03
835	-0.029
835	-0.029
835	-0.029
836	-0.029
836	-0.029
837	-0.029
837	-0.028
838	-0.028
838	-0.027
839	-0.027
839	-0.026
839	-0.025
840	-0.024
840	-0.023
841	-0.021
841	-0.02
842	-0.019
842	-0.018
842	-0.017
843	-0.016
843	-0.015
844	-0.014
844	-0.013
845	-0.012
845	-0.012
845	-0.011
846	-0.011
846	-0.01
847	-0.009
847	-0.009
848	-0.008
848	-0.007
848	-0.006
849	-0.005
849	-0.005
850	-0.004
850	-0.004
851	-0.003
851	-0.003
851	-0.002
852	-0.003
852	-0.002
853	-0.002
853	-0.002
854	-0.002
854	-0.002
854	-0.001
855	-0.001
855	-0.001
856	-0.001
856	-0.001
857	-0
857	-0
857	-0
858	0
858	0.001
859	0.001
859	0.002
860	0.002
860	0.003
860	0.004
861	0.005
861	0.006
862	0.006
862	0.007
863	0.007
863	0.008
863	0.008
864	0.009
864	0.009
865	0.01
865	0.01
866	0.01
866	0.011
866	0.012
867	0.012
867	0.013
868	0.013
868	0.014
869	0.014
869	0.014
869	0.014
870	0.014
870	0.013
871	0.013
871	0.013
872	0.013
872	0.012
872	0.012
873	0.011
873	0.01
874	0.009
874	0.008
875	0.007
875	0.006
875	0.005
876	0.004
876	0.004
877	0.003
877	0.003
878	0.003
878	0.003
878	0.004
879	0.004
879	0.005
880	0.006
880	0.007
881	0.008
881	0.009
881	0.009
882	0.01
882	0.011
883	0.012
883	0.012
884	0.013
884	0.014
884	0.014
885	0.014
885	0.015
886	0.015
886	0.015
887	0.015
887	0.014
887	0.014
888	0.014
888	0.014
889	0.014
889	0.014
890	0.015
890	0.015
890	0.016
891	0.016
891	0.017
892	0.017
892	0.018
893	0.019
893	0.02
893	0.02
894	0.021
894	0.021
895	0.021
895	0.021
895	0.021
896	0.021
896	0.021
897	0.021
897	0.02
898	0.02
898	0.019
898	0.018
899	0.017
899	0.015
900	0.014
900	0.013
901	0.012
901	0.011
901	0.01
902	0.01
902	0.009
903	0.009
903	0.009
904	0.009
904	0.009
904	0.009
905	0.01
905	0.011
906	0.011
906	0.012
907	0.012
907	0.012
907	0.012
908	0.012
908	0.012
909	0.012
909	0.012
910	0.012
910	0.012
910	0.012
911	0.012
911	0.013
912	0.014
912	0.014
913	0.015
913	0.016
913	0.017
914	0.018
914	0.019
915	0.02
915	0.021
916	0.022
916	0.022
916	0.022
917	0.022
917	0.022
918	0.022
918	0.022
918	0.021
919	0.021
919	0.02
920	0.019
920	0.018
921	0.017
921	0.016
921	0.015
922	0.014
922	0.014
923	0.013
923	0.012
924	0.012
924	0.011
924	0.011
925	0.011
925	0.012
926	0.012
926	0.012
927	0.013
927	0.013
927	0.014
928	0.014
928	0.015
929	0.016
929	0.016
930	0.016
930	0.016
930	0.016
931	0.016
931	0.016
932	0.016
932	0.016
933	0.016
933	0.016
933	0.016
934	0.016
934	0.017
935	0.017
935	0.018
935	0.018
936	0.018
936	0.018
937	0.018
937	0.018
938	0.017
938	0.017
938	0.016
939	0.016
939	0.015
940	0.015
940	0.015
941	0.015
941	0.015
941	0.015
942	0.016
942	0.017
943	0.018
943	0.018
944	0.019
944	0.02
944	0.021
945	0.022
945	0.023
946	0.024
946	0.024
946	0.025
947	0.025
947	0.026
948	0.026
948	0.025
949	0.025
949	0.025
949	0.024
950	0.024
950	0.023
951	0.023
951	0.022
952	0.022
952	0.022
952	0.022
953	0.022
953	0.022
954	0.022
954	0.022
955	0.022
955	0.022
955	0.022
956	0.022
956	0.022
957	0.022
957	0.021
957	0.021
958	0.021
958	0.021
959	0.02
959	0.021
960	0.021
960	0.021
960	0.021
961	0.021
961	0.021
962	0.021
962	0.021
963	0.021
963	0.021
963	0.02
964	0.02
964	0.02
965	0.019
965	0.019
966	0.018
966	0.018
966	0.017
967	0.017
967	0.016
968	0.016
968	0.016
968	0.016
969	0.016
969	0.016
970	0.016
970	0.016
971	0.016
971	0.016
971	0.016
972	0.017
972	0.018
973	0.019
973	0.02
974	0.02
974	0.021
974	0.021
975	0.022
975	0.022
976	0.022
976	0.022
976	0.021
977	0.021
977	0.02
978	0.019
978	0.018
979	0.017
979	0.016
979	0.016
980	0.015
980	0.015
981	0.014
981	0.014
982	0.014
982	0.014
982	0.014
983	0.014
983	0.013
984	0.013
984	0.013
984	0.013
985	0.013
985	0.012
986	0.012
986	0.011
987	0.011
987	0.01
987	0.01
988	0.01
988	0.01
989	0.01
989	0.01
990	0.01
990	0.011
990	0.011
991	0.011
991	0.012
992	0.012
992	0.012
992	0.011
993	0.011
993	0.011
994	0.01
994	0.01
995	0.009
995	0.009
995	0.008
996	0.008
996	0.007
997	0.006
997	0.006
997	0.006
998	0.005
998	0.006
999	0.006
999	0.006
1000	0.006
1000	0.006
1000	0.007
1001	0.007
1001	0.008
1002	0.008
1002	0.008
1003	0.008
1003	0.008
1003	0.008
1004	0.008
1004	0.007
1005	0.007
1005	0.006
1005	0.006
1006	0.005
1006	0.005
1007	0.004
1007	0.004
1008	0.004
1008	0.004
1008	0.004
1009	0.004
1009	0.005
1010	0.005
1010	0.006
1010	0.007
1011	0.008
1011	0.009
1012	0.01
1012	0.011
1013	0.012
1013	0.013
1013	0.013
1014	0.014
1014	0.014
1015	0.014
1015	0.014
1016	0.014
1016	0.014
1016	0.015
1017	0.015
1017	0.015
1018	0.015
1018	0.016
1018	0.016
1019	0.016
1019	0.017
1020	0.017
1020	0.017
1021	0.017
1021	0.016
1021	0.016
1022	0.016
1022	0.016
1023	0.016
1023	0.016
1023	0.016
1024	0.015
1024	0.015
1025	0.015
1025	0.015
1026	0.015
1026	0.016
1026	0.016
1027	0.016
1027	0.016
1028	0.016
1028	0.017
1028	0.017
1029	0.018
1029	0.018
1030	0.018
1030	0.018
1031	0.018
1031	0.018
1031	0.018
1032	0.018
1032	0.018
1033	0.018
1033	0.017
1033	0.017
1034	0.017
1034	0.016
1035	0.016
1035	0.016
1036	0.016
1036	0.016
1036	0.016
1037	0.016
1037	0.016
1038	0.016
1038	0.016
1039	0.017
1039	0.017
1039	0.017
1040	0.017
1040	0.018
1041	0.018
1041	0.019
1041	0.019
1042	0.019
1042	0.02
1043	0.021
1043	0.022
1044	0.023
1044	0.024
1044	0.025
1045	0.026
1045	0.027
1046	0.028
1046	0.03
1046	0.032
1047	0.033
1047	0.035
1048	0.036
1048	0.038
1049	0.039
1049	0.039
1049	0.04
1050	0.041
1050	0.041
1051	0.041
1051	0.041
1051	0.041
1052	0.04
1052	0.04
1053	0.039
1053	0.039
1053	0.038
1054	0.037
1054	0.036
1055	0.036
1055	0.035
1056	0.034
1056	0.033
1056	0.033
1057	0.032
1057	0.032
1058	0.031
1058	0.032
1058	0.032
1059	0.032
1059	0.032
1060	0.032
1060	0.033
1061	0.033
1061	0.034
1061	0.034
1062	0.035
1062	0.035
1063	0.035
1063	0.036
1063	0.037
1064	0.038
1064	0.039
1065	0.04
1065	0.042
1066	0.044
1066	0.045
1066	0.048
1067	0.05
1067	0.052
1068	0.055
1068	0.056
1068	0.058
1069	0.059
1069	0.061
1070	0.062
1070	0.064
1071	0.065
1071	0.067
1071	0.068
1072	0.07
1072	0.071
1073	0.073
1073	0.075
1073	0.076
1074	0.078
1074	0.079
1075	0.08
1075	0.081
1076	0.081
1076	0.083
1076	0.083
1077	0.084
1077	0.085
1078	0.088
1078	0.09
1078	0.091
1079	0.093
1079	0.097
1080	0.098
1080	0.101
1080	0.103
1081	0.105
1081	0.108
1082	0.11
1082	0.111
1083	0.113
1083	0.116
1083	0.119
1084	0.122
1084	0.126
1085	0.129
1085	0.131
1085	0.134
1086	0.137
1086	0.14
1087	0.144
1087	0.148
1088	0.151
1088	0.154
1088	0.158
1089	0.162
1089	0.167
1090	0.173
1090	0.179
1090	0.185
1091	0.193
1091	0.201
1092	0.209
1092	0.219
1092	0.228
1093	0.238
1093	0.249
1094	0.261
1094	0.272
1095	0.284
1095	0.299
1095	0.315
1096	0.333
1096	0.352
1097	0.374
1097	0.396
1097	0.424
1098	0.451
1098	0.484
1099	0.523
1099	0.566
1100	0.621
1100	0.685
1100	0.76
1101	0.863
1101	1
1102	1.238
1102	1.873
1102	-0
1103	-0
1103	-0
1104	-0
1104	-0
1104	-0
1105	-0
1105	-0
1106	-0
1106	-0
1107	-0
1107	-0
1107	-0
1108	-0
1108	-0
1109	-0
1109	-0
1109	-0
1110	-0
1110	-0
1111	-0
1111	-0
