Data from 15c-2-4a_Absorbance__210__00210.txt Node

Date: Thu Jan 25 10:11:10 CET 2024
User: Marek
Spectrometer: MAYP115816
Trigger mode: 0
Integration Time (sec): 2.000000E-1
Scans to average: 10
Electric dark correction enabled: true
Nonlinearity correction enabled: true
Boxcar width: 5
XAxis mode: Wavelengths
Number of Pixels in Spectrum: 2068
>>>>>Begin Spectral Data<<<<<
199	-2.099
199	-1.928
200	-1.774
200	-1.652
201	-1.573
201	-1.517
202	-1.434
202	-1.372
203	-1.319
203	-1.272
204	-1.246
204	-1.219
205	-1.198
205	-1.187
205	-1.181
206	-1.176
206	-1.173
207	-1.173
207	-1.169
208	-1.164
208	-1.161
209	-1.156
209	-1.153
210	-1.151
210	-1.148
211	-1.147
211	-1.146
212	-1.142
212	-1.14
213	-1.138
213	-1.139
213	-1.138
214	-1.137
214	-1.136
215	-1.134
215	-1.132
216	-1.13
216	-1.128
217	-1.127
217	-1.124
218	-1.122
218	-1.119
219	-1.117
219	-1.115
220	-1.114
220	-1.11
221	-1.107
221	-1.105
221	-1.101
222	-1.098
222	-1.097
223	-1.092
223	-1.087
224	-1.08
224	-1.071
225	-1.062
225	-1.054
226	-1.044
226	-1.032
227	-1.018
227	-1.005
228	-0.986
228	-0.967
229	-0.947
229	-0.924
229	-0.898
230	-0.87
230	-0.842
231	-0.809
231	-0.772
232	-0.733
232	-0.692
233	-0.65
233	-0.606
234	-0.563
234	-0.519
235	-0.475
235	-0.434
236	-0.392
236	-0.354
236	-0.317
237	-0.281
237	-0.25
238	-0.219
238	-0.192
239	-0.166
239	-0.142
240	-0.12
240	-0.1
241	-0.082
241	-0.064
242	-0.05
242	-0.036
243	-0.023
243	-0.011
243	0
244	0.01
244	0.019
245	0.027
245	0.035
246	0.042
246	0.048
247	0.054
247	0.06
248	0.066
248	0.071
249	0.075
249	0.079
250	0.084
250	0.088
250	0.092
251	0.095
251	0.099
252	0.102
252	0.105
253	0.108
253	0.111
254	0.113
254	0.116
255	0.118
255	0.12
256	0.122
256	0.124
257	0.125
257	0.127
258	0.128
258	0.129
258	0.131
259	0.132
259	0.133
260	0.133
260	0.134
261	0.135
261	0.135
262	0.135
262	0.136
263	0.136
263	0.136
264	0.136
264	0.136
265	0.135
265	0.135
265	0.135
266	0.134
266	0.134
267	0.134
267	0.133
268	0.132
268	0.131
269	0.131
269	0.13
270	0.129
270	0.128
271	0.127
271	0.125
272	0.124
272	0.123
272	0.122
273	0.12
273	0.119
274	0.118
274	0.116
275	0.115
275	0.113
276	0.112
276	0.111
277	0.109
277	0.108
278	0.106
278	0.105
278	0.103
279	0.102
279	0.1
280	0.099
280	0.098
281	0.097
281	0.096
282	0.095
282	0.094
283	0.093
283	0.092
284	0.091
284	0.09
285	0.089
285	0.088
285	0.087
286	0.086
286	0.085
287	0.084
287	0.083
288	0.082
288	0.081
289	0.08
289	0.079
290	0.078
290	0.077
291	0.076
291	0.076
292	0.075
292	0.074
292	0.074
293	0.073
293	0.073
294	0.072
294	0.072
295	0.071
295	0.071
296	0.071
296	0.07
297	0.07
297	0.07
298	0.069
298	0.069
298	0.069
299	0.068
299	0.068
300	0.068
300	0.067
301	0.067
301	0.067
302	0.066
302	0.066
303	0.066
303	0.066
304	0.066
304	0.065
305	0.065
305	0.065
305	0.065
306	0.065
306	0.065
307	0.064
307	0.064
308	0.064
308	0.064
309	0.063
309	0.063
310	0.063
310	0.063
311	0.062
311	0.062
311	0.062
312	0.061
312	0.061
313	0.061
313	0.061
314	0.06
314	0.06
315	0.06
315	0.06
316	0.059
316	0.059
317	0.059
317	0.058
318	0.058
318	0.058
318	0.057
319	0.057
319	0.057
320	0.057
320	0.056
321	0.056
321	0.056
322	0.055
322	0.055
323	0.055
323	0.054
324	0.054
324	0.054
324	0.054
325	0.053
325	0.053
326	0.053
326	0.052
327	0.052
327	0.052
328	0.051
328	0.051
329	0.051
329	0.051
330	0.05
330	0.05
330	0.05
331	0.049
331	0.049
332	0.049
332	0.048
333	0.048
333	0.047
334	0.047
334	0.047
335	0.047
335	0.046
336	0.046
336	0.046
336	0.045
337	0.045
337	0.045
338	0.045
338	0.044
339	0.044
339	0.044
340	0.043
340	0.043
341	0.043
341	0.043
342	0.042
342	0.042
342	0.041
343	0.041
343	0.041
344	0.04
344	0.04
345	0.04
345	0.039
346	0.039
346	0.039
347	0.038
347	0.038
348	0.038
348	0.037
348	0.037
349	0.037
349	0.036
350	0.036
350	0.036
351	0.035
351	0.035
352	0.034
352	0.034
353	0.034
353	0.033
354	0.033
354	0.032
354	0.032
355	0.031
355	0.031
356	0.03
356	0.03
357	0.029
357	0.029
358	0.029
358	0.03
359	0.03
359	0.031
360	0.031
360	0.032
360	0.032
361	0.032
361	0.032
362	0.033
362	0.033
363	0.033
363	0.032
364	0.032
364	0.032
365	0.031
365	0.031
366	0.031
366	0.031
366	0.031
367	0.031
367	0.03
368	0.03
368	0.03
369	0.03
369	0.03
370	0.03
370	0.03
371	0.029
371	0.029
372	0.029
372	0.029
372	0.028
373	0.028
373	0.028
374	0.028
374	0.028
375	0.028
375	0.028
376	0.028
376	0.028
377	0.028
377	0.028
378	0.028
378	0.029
378	0.029
379	0.029
379	0.029
380	0.029
380	0.029
381	0.029
381	0.029
382	0.029
382	0.028
383	0.028
383	0.028
383	0.028
384	0.028
384	0.028
385	0.027
385	0.027
386	0.027
386	0.028
387	0.028
387	0.028
388	0.028
388	0.028
389	0.028
389	0.028
389	0.028
390	0.028
390	0.028
391	0.029
391	0.029
392	0.029
392	0.029
393	0.029
393	0.029
394	0.029
394	0.029
394	0.028
395	0.028
395	0.028
396	0.028
396	0.028
397	0.028
397	0.028
398	0.028
398	0.028
399	0.028
399	0.028
400	0.028
400	0.028
400	0.028
401	0.027
401	0.027
402	0.026
402	0.026
403	0.026
403	0.026
404	0.026
404	0.026
405	0.026
405	0.025
405	0.025
406	0.025
406	0.025
407	0.025
407	0.025
408	0.024
408	0.024
409	0.024
409	0.023
410	0.023
410	0.023
411	0.023
411	0.023
411	0.023
412	0.023
412	0.023
413	0.023
413	0.023
414	0.023
414	0.023
415	0.023
415	0.023
416	0.022
416	0.022
416	0.022
417	0.022
417	0.022
418	0.022
418	0.022
419	0.022
419	0.023
420	0.023
420	0.024
421	0.024
421	0.024
421	0.025
422	0.025
422	0.024
423	0.024
423	0.024
424	0.024
424	0.023
425	0.023
425	0.022
426	0.022
426	0.021
427	0.021
427	0.022
427	0.022
428	0.022
428	0.023
429	0.023
429	0.023
430	0.023
430	0.023
431	0.023
431	0.023
432	0.023
432	0.022
432	0.022
433	0.021
433	0.021
434	0.02
434	0.02
435	0.02
435	0.02
436	0.02
436	0.02
437	0.02
437	0.02
437	0.02
438	0.021
438	0.02
439	0.02
439	0.02
440	0.02
440	0.019
441	0.019
441	0.02
442	0.02
442	0.02
442	0.02
443	0.02
443	0.02
444	0.02
444	0.02
445	0.021
445	0.021
446	0.021
446	0.021
447	0.021
447	0.021
447	0.02
448	0.02
448	0.02
449	0.02
449	0.02
450	0.02
450	0.02
451	0.02
451	0.019
452	0.019
452	0.019
452	0.018
453	0.018
453	0.018
454	0.017
454	0.017
455	0.016
455	0.016
456	0.016
456	0.016
457	0.016
457	0.016
458	0.015
458	0.015
458	0.015
459	0.016
459	0.015
460	0.015
460	0.015
461	0.014
461	0.014
462	0.014
462	0.014
463	0.014
463	0.014
463	0.015
464	0.015
464	0.015
465	0.015
465	0.015
466	0.015
466	0.015
467	0.015
467	0.014
467	0.014
468	0.013
468	0.011
469	0.01
469	0.009
470	0.008
470	0.008
471	0.007
471	0.007
472	0.007
472	0.006
472	0.007
473	0.007
473	0.008
474	0.008
474	0.009
475	0.01
475	0.01
476	0.01
476	0.011
477	0.011
477	0.011
477	0.011
478	0.012
478	0.012
479	0.012
479	0.012
480	0.013
480	0.013
481	0.014
481	0.014
482	0.014
482	0.015
482	0.016
483	0.017
483	0.018
484	0.02
484	0.022
485	0.022
485	0.023
486	0.024
486	0.024
487	0.024
487	0.024
487	0.024
488	0.023
488	0.022
489	0.02
489	0.019
490	0.018
490	0.017
491	0.017
491	0.016
492	0.016
492	0.016
492	0.016
493	0.017
493	0.017
494	0.018
494	0.019
495	0.019
495	0.02
496	0.02
496	0.021
496	0.021
497	0.021
497	0.021
498	0.021
498	0.021
499	0.02
499	0.02
500	0.02
500	0.021
501	0.021
501	0.022
501	0.023
502	0.023
502	0.024
503	0.025
503	0.026
504	0.026
504	0.027
505	0.027
505	0.027
506	0.027
506	0.027
506	0.027
507	0.027
507	0.027
508	0.026
508	0.026
509	0.026
509	0.026
510	0.026
510	0.026
511	0.026
511	0.025
511	0.025
512	0.025
512	0.025
513	0.025
513	0.024
514	0.024
514	0.023
515	0.022
515	0.022
515	0.021
516	0.02
516	0.02
517	0.02
517	0.02
518	0.02
518	0.02
519	0.019
519	0.019
520	0.018
520	0.017
520	0.015
521	0.014
521	0.012
522	0.01
522	0.008
523	0.006
523	0.005
524	0.005
524	0.006
524	0.007
525	0.008
525	0.01
526	0.012
526	0.014
527	0.016
527	0.019
528	0.02
528	0.022
529	0.023
529	0.023
529	0.024
530	0.024
530	0.025
531	0.025
531	0.025
532	0.025
532	0.025
533	0.025
533	0.025
533	0.026
534	0.026
534	0.025
535	0.025
535	0.025
536	0.025
536	0.025
537	0.025
537	0.025
538	0.025
538	0.024
538	0.023
539	0.023
539	0.023
540	0.023
540	0.023
541	0.022
541	0.022
542	0.021
542	0.02
542	0.02
543	0.02
543	0.02
544	0.019
544	0.019
545	0.019
545	0.019
546	0.019
546	0.02
547	0.019
547	0.019
547	0.018
548	0.017
548	0.016
549	0.015
549	0.014
550	0.014
550	0.013
551	0.011
551	0.01
551	0.01
552	0.009
552	0.009
553	0.009
553	0.009
554	0.009
554	0.009
555	0.009
555	0.008
556	0.006
556	0.005
556	0.004
557	0.003
557	0.002
558	0.001
558	0
559	-0.001
559	-0.001
560	-0.001
560	-0
560	0
561	0.001
561	0.001
562	0.002
562	0.002
563	0.001
563	0.001
564	-0.001
564	-0.002
564	-0.003
565	-0.004
565	-0.005
566	-0.006
566	-0.006
567	-0.006
567	-0.005
568	-0.004
568	-0.003
568	-0.001
569	0
569	0.002
570	0.004
570	0.004
571	0.005
571	0.006
572	0.007
572	0.008
573	0.008
573	0.009
573	0.009
574	0.009
574	0.009
575	0.009
575	0.01
576	0.011
576	0.012
577	0.012
577	0.011
577	0.011
578	0.011
578	0.011
579	0.011
579	0.013
580	0.013
580	0.012
581	0.012
581	0.011
581	0.01
582	0.01
582	0.01
583	0.011
583	0.011
584	0.01
584	0.009
585	0.008
585	0.007
585	0.007
586	0.007
586	0.007
587	0.006
587	0.005
588	0.004
588	0.002
589	0
589	-0.001
590	-0.001
590	-0.002
590	-0.002
591	-0.002
591	-0.002
592	-0.001
592	-0.001
593	-0.001
593	-0.001
594	-0
594	-0.001
594	-0.001
595	-0.001
595	-0.001
596	-0.002
596	-0.001
597	-0
597	0
598	0.001
598	0.002
598	0.002
599	0.003
599	0.003
600	0.002
600	0.002
601	0.001
601	0
602	-0.001
602	-0.002
602	-0.003
603	-0.003
603	-0.003
604	-0.003
604	-0.003
605	-0.002
605	-0.001
606	-0.001
606	-0.001
606	-0.001
607	-0.002
607	-0.002
608	-0.002
608	-0.003
609	-0.003
609	-0.004
610	-0.004
610	-0.005
610	-0.006
611	-0.005
611	-0.005
612	-0.004
612	-0.003
613	-0.002
613	-0
614	0
614	0
614	0
615	0
615	-0
616	-0.001
616	-0.001
617	-0.002
617	-0.003
618	-0.004
618	-0.005
618	-0.006
619	-0.007
619	-0.007
620	-0.006
620	-0.006
621	-0.006
621	-0.005
622	-0.005
622	-0.005
622	-0.005
623	-0.005
623	-0.005
624	-0.005
624	-0.005
625	-0.005
625	-0.005
626	-0.005
626	-0.005
626	-0.005
627	-0.005
627	-0.005
628	-0.005
628	-0.005
629	-0.006
629	-0.006
630	-0.006
630	-0.007
630	-0.008
631	-0.008
631	-0.008
632	-0.008
632	-0.008
633	-0.008
633	-0.008
634	-0.007
634	-0.006
634	-0.005
635	-0.004
635	-0.003
636	-0.003
636	-0.002
637	-0.001
637	-0.001
638	-0.001
638	-0.001
638	-0.001
639	-0.001
639	-0.001
640	-0.001
640	-0.001
641	-0.001
641	0
642	0.001
642	0.002
642	0.003
643	0.004
643	0.006
644	0.007
644	0.009
645	0.01
645	0.011
646	0.012
646	0.014
646	0.015
647	0.017
647	0.019
648	0.02
648	0.021
649	0.022
649	0.024
650	0.025
650	0.026
650	0.027
651	0.028
651	0.029
652	0.03
652	0.03
653	0.031
653	0.034
653	0.037
654	0.032
654	0.028
655	0.031
655	0.032
656	0.033
656	0.034
657	0.035
657	0.037
657	0.038
658	0.037
658	0.036
659	0.043
659	0.051
660	0.052
660	0.052
661	0.052
661	0.053
661	0.053
662	0.055
662	0.056
663	0.057
663	0.059
664	0.06
664	0.061
665	0.062
665	0.063
665	0.065
666	0.066
666	0.067
667	0.068
667	0.069
668	0.07
668	0.071
669	0.072
669	0.073
669	0.075
670	0.077
670	0.078
671	0.08
671	0.081
672	0.081
672	0.082
672	0.083
673	0.083
673	0.084
674	0.084
674	0.084
675	0.084
675	0.084
676	0.085
676	0.085
676	0.086
677	0.087
677	0.088
678	0.089
678	0.09
679	0.09
679	0.091
680	0.092
680	0.092
680	0.093
681	0.093
681	0.093
682	0.094
682	0.095
683	0.096
683	0.097
684	0.098
684	0.098
684	0.098
685	0.098
685	0.098
686	0.099
686	0.098
687	0.098
687	0.097
687	0.097
688	0.096
688	0.095
689	0.094
689	0.094
690	0.094
690	0.094
691	0.093
691	0.093
691	0.094
692	0.093
692	0.094
693	0.094
693	0.095
694	0.095
694	0.096
695	0.097
695	0.098
695	0.1
696	0.101
696	0.101
697	0.101
697	0.101
698	0.1
698	0.1
698	0.099
699	0.098
699	0.096
700	0.094
700	0.093
701	0.092
701	0.091
702	0.09
702	0.089
702	0.088
703	0.087
703	0.085
704	0.084
704	0.083
705	0.083
705	0.082
705	0.082
706	0.081
706	0.081
707	0.08
707	0.079
708	0.079
708	0.078
709	0.078
709	0.077
709	0.076
710	0.074
710	0.073
711	0.072
711	0.072
712	0.071
712	0.071
713	0.071
713	0.07
713	0.07
714	0.069
714	0.068
715	0.067
715	0.066
716	0.065
716	0.065
716	0.064
717	0.063
717	0.061
718	0.06
718	0.058
719	0.057
719	0.056
720	0.056
720	0.055
720	0.053
721	0.051
721	0.049
722	0.047
722	0.045
723	0.044
723	0.043
723	0.041
724	0.04
724	0.038
725	0.036
725	0.035
726	0.034
726	0.033
727	0.032
727	0.031
727	0.03
728	0.029
728	0.029
729	0.028
729	0.028
730	0.028
730	0.027
730	0.027
731	0.026
731	0.025
732	0.025
732	0.025
733	0.024
733	0.023
734	0.022
734	0.021
734	0.02
735	0.019
735	0.018
736	0.016
736	0.015
737	0.014
737	0.013
737	0.012
738	0.011
738	0.009
739	0.008
739	0.007
740	0.005
740	0.004
741	0.004
741	0.002
741	0.001
742	-0.002
742	-0.004
743	-0.005
743	-0.007
744	-0.008
744	-0.009
744	-0.01
745	-0.012
745	-0.013
746	-0.014
746	-0.014
747	-0.014
747	-0.014
748	-0.014
748	-0.014
748	-0.015
749	-0.016
749	-0.016
750	-0.016
750	-0.017
751	-0.017
751	-0.017
751	-0.017
752	-0.017
752	-0.018
753	-0.019
753	-0.019
754	-0.019
754	-0.02
754	-0.02
755	-0.02
755	-0.019
756	-0.019
756	-0.02
757	-0.021
757	-0.021
758	-0.022
758	-0.023
758	-0.023
759	-0.024
759	-0.025
760	-0.026
760	-0.028
761	-0.03
761	-0.031
761	-0.032
762	-0.033
762	-0.033
763	-0.033
763	-0.034
764	-0.035
764	-0.036
764	-0.037
765	-0.038
765	-0.039
766	-0.04
766	-0.04
767	-0.04
767	-0.042
768	-0.044
768	-0.045
768	-0.046
769	-0.046
769	-0.046
770	-0.047
770	-0.047
771	-0.048
771	-0.05
771	-0.051
772	-0.053
772	-0.055
773	-0.057
773	-0.059
774	-0.062
774	-0.066
775	-0.069
775	-0.072
775	-0.075
776	-0.079
776	-0.082
777	-0.085
777	-0.088
778	-0.092
778	-0.095
778	-0.098
779	-0.101
779	-0.102
780	-0.104
780	-0.109
781	-0.112
781	-0.116
781	-0.119
782	-0.123
782	-0.127
783	-0.131
783	-0.134
784	-0.136
784	-0.139
784	-0.141
785	-0.143
785	-0.145
786	-0.146
786	-0.144
787	-0.14
787	-0.136
788	-0.135
788	-0.136
788	-0.138
789	-0.14
789	-0.14
790	-0.138
790	-0.136
791	-0.137
791	-0.139
791	-0.141
792	-0.136
792	-0.125
793	-0.118
793	-0.113
794	-0.111
794	-0.112
794	-0.115
795	-0.117
795	-0.117
796	-0.117
796	-0.12
797	-0.128
797	-0.139
797	-0.146
798	-0.152
798	-0.156
799	-0.157
799	-0.157
800	-0.157
800	-0.159
801	-0.162
801	-0.163
801	-0.163
802	-0.164
802	-0.165
803	-0.165
803	-0.165
804	-0.164
804	-0.158
804	-0.151
805	-0.147
805	-0.145
806	-0.142
806	-0.141
807	-0.139
807	-0.138
807	-0.138
808	-0.138
808	-0.138
809	-0.142
809	-0.147
810	-0.15
810	-0.153
810	-0.156
811	-0.158
811	-0.159
812	-0.155
812	-0.152
813	-0.153
813	-0.154
813	-0.156
814	-0.157
814	-0.158
815	-0.156
815	-0.154
816	-0.153
816	-0.154
817	-0.159
817	-0.163
817	-0.164
818	-0.163
818	-0.16
819	-0.155
819	-0.152
820	-0.153
820	-0.155
820	-0.155
821	-0.154
821	-0.151
822	-0.147
822	-0.143
823	-0.138
823	-0.136
823	-0.136
824	-0.133
824	-0.126
825	-0.117
825	-0.109
826	-0.101
826	-0.095
826	-0.089
827	-0.084
827	-0.079
828	-0.074
828	-0.07
829	-0.067
829	-0.063
829	-0.061
830	-0.059
830	-0.056
831	-0.053
831	-0.05
832	-0.048
832	-0.046
832	-0.044
833	-0.043
833	-0.042
834	-0.042
834	-0.041
835	-0.041
835	-0.041
835	-0.042
836	-0.042
836	-0.042
837	-0.042
837	-0.041
838	-0.041
838	-0.041
839	-0.04
839	-0.04
839	-0.039
840	-0.038
840	-0.037
841	-0.036
841	-0.035
842	-0.034
842	-0.032
842	-0.031
843	-0.03
843	-0.029
844	-0.028
844	-0.027
845	-0.026
845	-0.026
845	-0.026
846	-0.025
846	-0.025
847	-0.024
847	-0.024
848	-0.023
848	-0.023
848	-0.022
849	-0.022
849	-0.021
850	-0.02
850	-0.019
851	-0.019
851	-0.018
851	-0.018
852	-0.017
852	-0.017
853	-0.017
853	-0.017
854	-0.017
854	-0.017
854	-0.017
855	-0.017
855	-0.018
856	-0.018
856	-0.018
857	-0.018
857	-0.019
857	-0.019
858	-0.019
858	-0.018
859	-0.018
859	-0.017
860	-0.017
860	-0.016
860	-0.015
861	-0.013
861	-0.012
862	-0.011
862	-0.01
863	-0.008
863	-0.007
863	-0.006
864	-0.005
864	-0.004
865	-0.003
865	-0.002
866	-0.002
866	-0.002
866	-0.001
867	-0.001
867	-0
868	-0
868	-0
869	-0
869	-0
869	-0.001
870	-0.001
870	-0.001
871	-0.002
871	-0.002
872	-0.003
872	-0.004
872	-0.005
873	-0.005
873	-0.006
874	-0.006
874	-0.006
875	-0.007
875	-0.007
875	-0.006
876	-0.006
876	-0.005
877	-0.004
877	-0.004
878	-0.003
878	-0.003
878	-0.003
879	-0.002
879	-0.002
880	-0.002
880	-0.001
881	-0.001
881	-0.001
881	-0
882	-0
882	0
883	0
883	0.001
884	0.001
884	0.001
884	0.001
885	0.001
885	0.001
886	0.001
886	0
887	-0
887	-0.001
887	-0.002
888	-0.002
888	-0.003
889	-0.003
889	-0.003
890	-0.003
890	-0.004
890	-0.003
891	-0.003
891	-0.003
892	-0.003
892	-0.002
893	-0.002
893	-0.001
893	-0
894	0
894	0
895	0
895	0
895	0
896	0
896	-0
897	-0.001
897	-0.002
898	-0.002
898	-0.003
898	-0.004
899	-0.005
899	-0.005
900	-0.006
900	-0.006
901	-0.007
901	-0.007
901	-0.008
902	-0.008
902	-0.008
903	-0.008
903	-0.008
904	-0.008
904	-0.008
904	-0.008
905	-0.007
905	-0.007
906	-0.006
906	-0.006
907	-0.005
907	-0.005
907	-0.005
908	-0.005
908	-0.005
909	-0.005
909	-0.004
910	-0.005
910	-0.005
910	-0.005
911	-0.004
911	-0.004
912	-0.004
912	-0.003
913	-0.002
913	-0.001
913	-0
914	0
914	0.001
915	0.002
915	0.003
916	0.004
916	0.004
916	0.005
917	0.005
917	0.005
918	0.005
918	0.005
918	0.004
919	0.003
919	0.003
920	0.002
920	0.001
921	-0
921	-0.001
921	-0.002
922	-0.002
922	-0.002
923	-0.002
923	-0.002
924	-0.002
924	-0.002
924	-0.001
925	-0.001
925	0
926	0.001
926	0.002
927	0.002
927	0.002
927	0.003
928	0.004
928	0.004
929	0.005
929	0.005
930	0.005
930	0.005
930	0.005
931	0.005
931	0.005
932	0.004
932	0.004
933	0.004
933	0.004
933	0.004
934	0.004
934	0.005
935	0.005
935	0.005
935	0.005
936	0.006
936	0.006
937	0.006
937	0.005
938	0.005
938	0.005
938	0.004
939	0.004
939	0.003
940	0.003
940	0.003
941	0.003
941	0.004
941	0.004
942	0.005
942	0.005
943	0.006
943	0.006
944	0.007
944	0.008
944	0.008
945	0.009
945	0.01
946	0.01
946	0.011
946	0.011
947	0.012
947	0.012
948	0.012
948	0.011
949	0.011
949	0.01
949	0.01
950	0.009
950	0.009
951	0.008
951	0.007
952	0.007
952	0.007
952	0.007
953	0.007
953	0.007
954	0.007
954	0.007
955	0.007
955	0.007
955	0.007
956	0.007
956	0.007
957	0.007
957	0.007
957	0.007
958	0.007
958	0.007
959	0.007
959	0.008
960	0.008
960	0.008
960	0.008
961	0.009
961	0.009
962	0.01
962	0.01
963	0.011
963	0.011
963	0.011
964	0.011
964	0.011
965	0.011
965	0.011
966	0.011
966	0.01
966	0.01
967	0.009
967	0.008
968	0.007
968	0.007
968	0.006
969	0.006
969	0.006
970	0.005
970	0.005
971	0.005
971	0.006
971	0.006
972	0.007
972	0.008
973	0.008
973	0.009
974	0.01
974	0.01
974	0.011
975	0.011
975	0.011
976	0.011
976	0.011
976	0.01
977	0.009
977	0.008
978	0.007
978	0.006
979	0.005
979	0.004
979	0.004
980	0.003
980	0.002
981	0.002
981	0.001
982	0.001
982	0
982	-0
983	-0
983	-0.001
984	-0.001
984	-0.001
984	-0.001
985	-0.001
985	-0.001
986	-0.001
986	-0.001
987	-0.001
987	-0.001
987	-0.001
988	-0.001
988	-0.001
989	-0.001
989	-0.001
990	-0.001
990	-0.002
990	-0.002
991	-0.002
991	-0.002
992	-0.002
992	-0.002
992	-0.003
993	-0.003
993	-0.004
994	-0.004
994	-0.005
995	-0.005
995	-0.006
995	-0.006
996	-0.007
996	-0.007
997	-0.007
997	-0.007
997	-0.007
998	-0.007
998	-0.007
999	-0.006
999	-0.005
1000	-0.004
1000	-0.003
1000	-0.002
1001	-0.001
1001	-0
1002	0
1002	0.001
1003	0.001
1003	0.001
1003	0.001
1004	0.001
1004	0.001
1005	0.001
1005	0.001
1005	0
1006	0
1006	0
1007	0
1007	0
1008	0
1008	0
1008	0
1009	0
1009	0
1010	0
1010	0.001
1010	0.002
1011	0.002
1011	0.003
1012	0.004
1012	0.005
1013	0.006
1013	0.007
1013	0.007
1014	0.008
1014	0.009
1015	0.009
1015	0.01
1016	0.01
1016	0.01
1016	0.01
1017	0.011
1017	0.011
1018	0.011
1018	0.011
1018	0.011
1019	0.011
1019	0.011
1020	0.011
1020	0.011
1021	0.01
1021	0.01
1021	0.009
1022	0.009
1022	0.009
1023	0.009
1023	0.009
1023	0.008
1024	0.008
1024	0.008
1025	0.008
1025	0.009
1026	0.009
1026	0.009
1026	0.009
1027	0.009
1027	0.009
1028	0.009
1028	0.009
1028	0.009
1029	0.009
1029	0.009
1030	0.009
1030	0.01
1031	0.01
1031	0.01
1031	0.011
1032	0.011
1032	0.011
1033	0.011
1033	0.011
1033	0.011
1034	0.011
1034	0.011
1035	0.011
1035	0.011
1036	0.011
1036	0.011
1036	0.012
1037	0.012
1037	0.012
1038	0.013
1038	0.013
1039	0.014
1039	0.015
1039	0.015
1040	0.016
1040	0.016
1041	0.017
1041	0.017
1041	0.018
1042	0.018
1042	0.019
1043	0.019
1043	0.02
1044	0.02
1044	0.021
1044	0.022
1045	0.023
1045	0.023
1046	0.024
1046	0.025
1046	0.026
1047	0.027
1047	0.029
1048	0.03
1048	0.031
1049	0.032
1049	0.032
1049	0.033
1050	0.034
1050	0.034
1051	0.034
1051	0.035
1051	0.034
1052	0.034
1052	0.034
1053	0.033
1053	0.033
1053	0.032
1054	0.032
1054	0.031
1055	0.031
1055	0.03
1056	0.03
1056	0.029
1056	0.029
1057	0.029
1057	0.028
1058	0.029
1058	0.029
1058	0.029
1059	0.029
1059	0.03
1060	0.03
1060	0.031
1061	0.032
1061	0.033
1061	0.033
1062	0.034
1062	0.035
1063	0.036
1063	0.036
1063	0.037
1064	0.039
1064	0.04
1065	0.042
1065	0.043
1066	0.045
1066	0.047
1066	0.049
1067	0.051
1067	0.053
1068	0.055
1068	0.057
1068	0.059
1069	0.06
1069	0.061
1070	0.063
1070	0.064
1071	0.066
1071	0.067
1071	0.068
1072	0.07
1072	0.071
1073	0.072
1073	0.073
1073	0.075
1074	0.076
1074	0.077
1075	0.077
1075	0.078
1076	0.078
1076	0.079
1076	0.079
1077	0.081
1077	0.082
1078	0.083
1078	0.084
1078	0.086
1079	0.088
1079	0.09
1080	0.091
1080	0.094
1080	0.095
1081	0.097
1081	0.099
1082	0.101
1082	0.103
1083	0.105
1083	0.107
1083	0.11
1084	0.113
1084	0.116
1085	0.119
1085	0.122
1085	0.124
1086	0.127
1086	0.13
1087	0.133
1087	0.136
1088	0.138
1088	0.142
1088	0.145
1089	0.15
1089	0.154
1090	0.159
1090	0.165
1090	0.171
1091	0.178
1091	0.186
1092	0.194
1092	0.203
1092	0.211
1093	0.22
1093	0.23
1094	0.241
1094	0.253
1095	0.264
1095	0.278
1095	0.291
1096	0.306
1096	0.323
1097	0.341
1097	0.361
1097	0.384
1098	0.407
1098	0.433
1099	0.461
1099	0.496
1100	0.537
1100	0.585
1100	0.64
1101	0.706
1101	0.793
1102	0.917
1102	1.09
1102	1.416
1103	-0
1103	-0
1104	-0
1104	-0
1104	-0
1105	-0
1105	-0
1106	-0
1106	-0
1107	-0
1107	-0
1107	-0
1108	-0
1108	-0
1109	-0
1109	-0
1109	-0
1110	-0
1110	-0
1111	-0
1111	-0
