Data from 15c-2-4a_Absorbance__702__00702.txt Node

Date: Thu Jan 25 10:27:34 CET 2024
User: Marek
Spectrometer: MAYP115816
Trigger mode: 0
Integration Time (sec): 2.000000E-1
Scans to average: 10
Electric dark correction enabled: true
Nonlinearity correction enabled: true
Boxcar width: 5
XAxis mode: Wavelengths
Number of Pixels in Spectrum: 2068
>>>>>Begin Spectral Data<<<<<
199	-2.126
199	-1.956
200	-1.802
200	-1.679
201	-1.602
201	-1.545
202	-1.462
202	-1.401
203	-1.349
203	-1.302
204	-1.276
204	-1.249
205	-1.228
205	-1.216
205	-1.211
206	-1.206
206	-1.203
207	-1.203
207	-1.199
208	-1.195
208	-1.191
209	-1.186
209	-1.183
210	-1.181
210	-1.179
211	-1.177
211	-1.176
212	-1.173
212	-1.17
213	-1.168
213	-1.169
213	-1.169
214	-1.168
214	-1.166
215	-1.164
215	-1.163
216	-1.16
216	-1.159
217	-1.157
217	-1.154
218	-1.153
218	-1.15
219	-1.147
219	-1.145
220	-1.144
220	-1.14
221	-1.137
221	-1.135
221	-1.132
222	-1.129
222	-1.128
223	-1.123
223	-1.117
224	-1.11
224	-1.101
225	-1.092
225	-1.084
226	-1.073
226	-1.061
227	-1.046
227	-1.033
228	-1.014
228	-0.995
229	-0.974
229	-0.951
229	-0.925
230	-0.896
230	-0.866
231	-0.832
231	-0.794
232	-0.753
232	-0.71
233	-0.665
233	-0.619
234	-0.573
234	-0.526
235	-0.479
235	-0.433
236	-0.387
236	-0.344
236	-0.302
237	-0.262
237	-0.225
238	-0.19
238	-0.157
239	-0.126
239	-0.097
240	-0.07
240	-0.046
241	-0.024
241	-0.002
242	0.016
242	0.034
243	0.05
243	0.065
243	0.078
244	0.091
244	0.102
245	0.113
245	0.123
246	0.132
246	0.141
247	0.148
247	0.156
248	0.163
248	0.169
249	0.175
249	0.18
250	0.185
250	0.19
250	0.195
251	0.199
251	0.203
252	0.207
252	0.211
253	0.214
253	0.218
254	0.221
254	0.224
255	0.226
255	0.229
256	0.231
256	0.233
257	0.236
257	0.237
258	0.239
258	0.24
258	0.242
259	0.243
259	0.244
260	0.245
260	0.246
261	0.246
261	0.247
262	0.248
262	0.248
263	0.248
263	0.249
264	0.249
264	0.249
265	0.249
265	0.249
265	0.248
266	0.248
266	0.248
267	0.247
267	0.247
268	0.246
268	0.245
269	0.244
269	0.244
270	0.243
270	0.242
271	0.24
271	0.239
272	0.238
272	0.237
272	0.236
273	0.234
273	0.233
274	0.232
274	0.23
275	0.229
275	0.227
276	0.226
276	0.224
277	0.223
277	0.221
278	0.219
278	0.217
278	0.216
279	0.214
279	0.213
280	0.212
280	0.211
281	0.209
281	0.208
282	0.207
282	0.207
283	0.206
283	0.205
284	0.204
284	0.203
285	0.202
285	0.201
285	0.2
286	0.199
286	0.198
287	0.196
287	0.195
288	0.194
288	0.193
289	0.192
289	0.191
290	0.19
290	0.189
291	0.188
291	0.188
292	0.187
292	0.186
292	0.185
293	0.185
293	0.184
294	0.184
294	0.183
295	0.183
295	0.182
296	0.181
296	0.181
297	0.18
297	0.18
298	0.18
298	0.179
298	0.178
299	0.178
299	0.178
300	0.177
300	0.177
301	0.176
301	0.176
302	0.176
302	0.175
303	0.175
303	0.174
304	0.174
304	0.174
305	0.173
305	0.172
305	0.172
306	0.172
306	0.171
307	0.171
307	0.17
308	0.17
308	0.169
309	0.169
309	0.168
310	0.168
310	0.168
311	0.167
311	0.167
311	0.166
312	0.166
312	0.166
313	0.165
313	0.165
314	0.164
314	0.164
315	0.163
315	0.163
316	0.162
316	0.162
317	0.161
317	0.161
318	0.16
318	0.159
318	0.159
319	0.158
319	0.158
320	0.157
320	0.157
321	0.156
321	0.156
322	0.155
322	0.154
323	0.154
323	0.153
324	0.153
324	0.152
324	0.152
325	0.151
325	0.151
326	0.15
326	0.15
327	0.149
327	0.149
328	0.148
328	0.148
329	0.147
329	0.147
330	0.146
330	0.146
330	0.145
331	0.145
331	0.144
332	0.144
332	0.143
333	0.143
333	0.142
334	0.142
334	0.141
335	0.141
335	0.14
336	0.14
336	0.139
336	0.139
337	0.138
337	0.138
338	0.138
338	0.137
339	0.137
339	0.137
340	0.136
340	0.136
341	0.135
341	0.135
342	0.134
342	0.134
342	0.133
343	0.133
343	0.132
344	0.132
344	0.131
345	0.131
345	0.13
346	0.13
346	0.129
347	0.129
347	0.128
348	0.128
348	0.127
348	0.127
349	0.126
349	0.126
350	0.126
350	0.125
351	0.125
351	0.124
352	0.123
352	0.123
353	0.123
353	0.122
354	0.121
354	0.121
354	0.12
355	0.119
355	0.118
356	0.117
356	0.117
357	0.116
357	0.116
358	0.116
358	0.116
359	0.117
359	0.117
360	0.118
360	0.118
360	0.119
361	0.119
361	0.12
362	0.12
362	0.12
363	0.12
363	0.12
364	0.119
364	0.119
365	0.119
365	0.119
366	0.118
366	0.118
366	0.118
367	0.118
367	0.117
368	0.117
368	0.117
369	0.116
369	0.116
370	0.116
370	0.116
371	0.115
371	0.115
372	0.115
372	0.114
372	0.114
373	0.114
373	0.114
374	0.114
374	0.114
375	0.113
375	0.113
376	0.113
376	0.113
377	0.114
377	0.114
378	0.114
378	0.114
378	0.114
379	0.115
379	0.115
380	0.115
380	0.115
381	0.115
381	0.115
382	0.115
382	0.114
383	0.114
383	0.113
383	0.113
384	0.113
384	0.112
385	0.112
385	0.112
386	0.112
386	0.112
387	0.112
387	0.112
388	0.112
388	0.112
389	0.112
389	0.112
389	0.112
390	0.112
390	0.113
391	0.113
391	0.113
392	0.113
392	0.113
393	0.113
393	0.113
394	0.113
394	0.113
394	0.113
395	0.112
395	0.112
396	0.112
396	0.112
397	0.112
397	0.112
398	0.112
398	0.112
399	0.112
399	0.112
400	0.112
400	0.111
400	0.111
401	0.111
401	0.11
402	0.109
402	0.109
403	0.109
403	0.108
404	0.108
404	0.108
405	0.108
405	0.108
405	0.107
406	0.107
406	0.107
407	0.107
407	0.106
408	0.106
408	0.105
409	0.105
409	0.105
410	0.104
410	0.104
411	0.104
411	0.104
411	0.104
412	0.104
412	0.104
413	0.104
413	0.104
414	0.104
414	0.104
415	0.103
415	0.103
416	0.103
416	0.103
416	0.102
417	0.102
417	0.102
418	0.102
418	0.103
419	0.103
419	0.103
420	0.104
420	0.104
421	0.105
421	0.105
421	0.105
422	0.105
422	0.105
423	0.105
423	0.104
424	0.104
424	0.104
425	0.103
425	0.102
426	0.102
426	0.102
427	0.102
427	0.102
427	0.102
428	0.102
428	0.103
429	0.103
429	0.104
430	0.104
430	0.104
431	0.103
431	0.103
432	0.103
432	0.102
432	0.102
433	0.1
433	0.1
434	0.099
434	0.099
435	0.099
435	0.099
436	0.099
436	0.099
437	0.099
437	0.099
437	0.099
438	0.099
438	0.099
439	0.099
439	0.098
440	0.098
440	0.098
441	0.098
441	0.098
442	0.098
442	0.098
442	0.099
443	0.099
443	0.099
444	0.099
444	0.099
445	0.1
445	0.1
446	0.1
446	0.1
447	0.099
447	0.099
447	0.099
448	0.099
448	0.099
449	0.099
449	0.099
450	0.098
450	0.098
451	0.098
451	0.098
452	0.097
452	0.097
452	0.096
453	0.096
453	0.096
454	0.095
454	0.095
455	0.094
455	0.094
456	0.094
456	0.094
457	0.094
457	0.094
458	0.094
458	0.094
458	0.094
459	0.094
459	0.094
460	0.094
460	0.093
461	0.093
461	0.092
462	0.092
462	0.092
463	0.092
463	0.093
463	0.093
464	0.094
464	0.094
465	0.094
465	0.094
466	0.094
466	0.095
467	0.095
467	0.094
467	0.093
468	0.092
468	0.09
469	0.089
469	0.087
470	0.086
470	0.086
471	0.085
471	0.085
472	0.085
472	0.085
472	0.085
473	0.086
473	0.087
474	0.088
474	0.089
475	0.089
475	0.09
476	0.09
476	0.091
477	0.091
477	0.092
477	0.092
478	0.092
478	0.093
479	0.093
479	0.094
480	0.095
480	0.096
481	0.096
481	0.097
482	0.097
482	0.098
482	0.099
483	0.101
483	0.103
484	0.106
484	0.108
485	0.109
485	0.11
486	0.111
486	0.112
487	0.112
487	0.113
487	0.113
488	0.112
488	0.111
489	0.109
489	0.108
490	0.107
490	0.106
491	0.105
491	0.106
492	0.106
492	0.107
492	0.107
493	0.108
493	0.108
494	0.109
494	0.111
495	0.112
495	0.113
496	0.114
496	0.115
496	0.115
497	0.116
497	0.117
498	0.117
498	0.117
499	0.117
499	0.117
500	0.117
500	0.118
501	0.12
501	0.121
501	0.122
502	0.123
502	0.124
503	0.125
503	0.127
504	0.128
504	0.128
505	0.129
505	0.129
506	0.129
506	0.129
506	0.13
507	0.13
507	0.13
508	0.13
508	0.13
509	0.131
509	0.131
510	0.131
510	0.131
511	0.131
511	0.131
511	0.131
512	0.132
512	0.132
513	0.132
513	0.131
514	0.13
514	0.129
515	0.129
515	0.128
515	0.128
516	0.128
516	0.128
517	0.128
517	0.128
518	0.128
518	0.128
519	0.126
519	0.125
520	0.123
520	0.121
520	0.119
521	0.117
521	0.115
522	0.112
522	0.111
523	0.11
523	0.11
524	0.112
524	0.114
524	0.116
525	0.119
525	0.121
526	0.123
526	0.126
527	0.128
527	0.13
528	0.132
528	0.133
529	0.134
529	0.134
529	0.134
530	0.134
530	0.135
531	0.135
531	0.135
532	0.134
532	0.134
533	0.134
533	0.133
533	0.133
534	0.133
534	0.133
535	0.132
535	0.132
536	0.132
536	0.131
537	0.131
537	0.131
538	0.13
538	0.129
538	0.128
539	0.127
539	0.127
540	0.126
540	0.125
541	0.124
541	0.123
542	0.121
542	0.12
542	0.119
543	0.118
543	0.118
544	0.117
544	0.116
545	0.115
545	0.115
546	0.115
546	0.115
547	0.114
547	0.113
547	0.111
548	0.11
548	0.108
549	0.106
549	0.105
550	0.103
550	0.102
551	0.1
551	0.098
551	0.097
552	0.096
552	0.095
553	0.094
553	0.094
554	0.094
554	0.093
555	0.091
555	0.09
556	0.087
556	0.085
556	0.083
557	0.08
557	0.078
558	0.077
558	0.075
559	0.074
559	0.073
560	0.073
560	0.073
560	0.073
561	0.073
561	0.073
562	0.074
562	0.073
563	0.072
563	0.07
564	0.068
564	0.066
564	0.064
565	0.063
565	0.061
566	0.06
566	0.059
567	0.059
567	0.06
568	0.06
568	0.061
568	0.063
569	0.065
569	0.066
570	0.068
570	0.068
571	0.069
571	0.07
572	0.07
572	0.07
573	0.07
573	0.07
573	0.069
574	0.069
574	0.069
575	0.069
575	0.07
576	0.071
576	0.071
577	0.07
577	0.07
577	0.069
578	0.068
578	0.068
579	0.069
579	0.07
580	0.07
580	0.069
581	0.067
581	0.065
581	0.064
582	0.064
582	0.064
583	0.065
583	0.065
584	0.064
584	0.061
585	0.06
585	0.059
585	0.059
586	0.059
586	0.058
587	0.057
587	0.055
588	0.053
588	0.05
589	0.048
589	0.046
590	0.045
590	0.044
590	0.044
591	0.044
591	0.044
592	0.043
592	0.043
593	0.043
593	0.043
594	0.043
594	0.043
594	0.043
595	0.042
595	0.042
596	0.041
596	0.041
597	0.043
597	0.044
598	0.044
598	0.045
598	0.046
599	0.046
599	0.046
600	0.045
600	0.044
601	0.044
601	0.042
602	0.041
602	0.04
602	0.038
603	0.037
603	0.037
604	0.038
604	0.038
605	0.039
605	0.04
606	0.04
606	0.04
606	0.039
607	0.039
607	0.039
608	0.038
608	0.037
609	0.036
609	0.035
610	0.034
610	0.033
610	0.033
611	0.033
611	0.034
612	0.035
612	0.036
613	0.038
613	0.039
614	0.04
614	0.04
614	0.041
615	0.041
615	0.04
616	0.04
616	0.039
617	0.039
617	0.037
618	0.036
618	0.035
618	0.034
619	0.033
619	0.033
620	0.034
620	0.034
621	0.035
621	0.035
622	0.035
622	0.035
622	0.036
623	0.035
623	0.036
624	0.036
624	0.036
625	0.036
625	0.036
626	0.036
626	0.036
626	0.036
627	0.036
627	0.036
628	0.036
628	0.037
629	0.037
629	0.037
630	0.036
630	0.035
630	0.035
631	0.035
631	0.036
632	0.035
632	0.035
633	0.036
633	0.036
634	0.037
634	0.038
634	0.04
635	0.041
635	0.042
636	0.043
636	0.044
637	0.045
637	0.046
638	0.047
638	0.048
638	0.048
639	0.048
639	0.048
640	0.049
640	0.049
641	0.05
641	0.051
642	0.053
642	0.054
642	0.056
643	0.057
643	0.059
644	0.06
644	0.062
645	0.064
645	0.066
646	0.067
646	0.07
646	0.072
647	0.075
647	0.077
648	0.079
648	0.081
649	0.083
649	0.085
650	0.087
650	0.089
650	0.091
651	0.092
651	0.094
652	0.095
652	0.095
653	0.097
653	0.103
653	0.113
654	0.093
654	0.078
655	0.082
655	0.084
656	0.086
656	0.087
657	0.089
657	0.091
657	0.092
658	0.09
658	0.083
659	0.102
659	0.128
660	0.129
660	0.13
661	0.131
661	0.132
661	0.134
662	0.136
662	0.138
663	0.141
663	0.143
664	0.145
664	0.147
665	0.149
665	0.152
665	0.154
666	0.156
666	0.157
667	0.159
667	0.161
668	0.162
668	0.164
669	0.166
669	0.168
669	0.17
670	0.173
670	0.175
671	0.177
671	0.179
672	0.18
672	0.181
672	0.183
673	0.184
673	0.185
674	0.185
674	0.186
675	0.186
675	0.186
676	0.187
676	0.188
676	0.189
677	0.19
677	0.191
678	0.192
678	0.193
679	0.194
679	0.195
680	0.196
680	0.197
680	0.197
681	0.198
681	0.198
682	0.199
682	0.2
683	0.201
683	0.203
684	0.205
684	0.206
684	0.206
685	0.206
685	0.207
686	0.207
686	0.207
687	0.207
687	0.206
687	0.206
688	0.205
688	0.204
689	0.204
689	0.204
690	0.205
690	0.205
691	0.204
691	0.204
691	0.204
692	0.204
692	0.204
693	0.204
693	0.204
694	0.204
694	0.203
695	0.204
695	0.205
695	0.207
696	0.207
696	0.206
697	0.206
697	0.206
698	0.205
698	0.203
698	0.202
699	0.201
699	0.198
700	0.195
700	0.193
701	0.192
701	0.19
702	0.189
702	0.188
702	0.186
703	0.185
703	0.183
704	0.181
704	0.18
705	0.18
705	0.179
705	0.177
706	0.176
706	0.176
707	0.175
707	0.174
708	0.173
708	0.172
709	0.171
709	0.17
709	0.168
710	0.166
710	0.164
711	0.163
711	0.161
712	0.16
712	0.159
713	0.158
713	0.157
713	0.156
714	0.154
714	0.153
715	0.151
715	0.15
716	0.148
716	0.147
716	0.145
717	0.143
717	0.142
718	0.14
718	0.137
719	0.136
719	0.134
720	0.133
720	0.131
720	0.129
721	0.126
721	0.123
722	0.12
722	0.118
723	0.116
723	0.114
723	0.112
724	0.111
724	0.109
725	0.107
725	0.106
726	0.104
726	0.103
727	0.102
727	0.101
727	0.1
728	0.098
728	0.096
729	0.096
729	0.095
730	0.094
730	0.092
730	0.091
731	0.089
731	0.087
732	0.086
732	0.085
733	0.084
733	0.082
734	0.08
734	0.078
734	0.076
735	0.074
735	0.073
736	0.071
736	0.069
737	0.067
737	0.065
737	0.064
738	0.062
738	0.059
739	0.057
739	0.056
740	0.054
740	0.052
741	0.051
741	0.049
741	0.047
742	0.044
742	0.041
743	0.039
743	0.036
744	0.035
744	0.033
744	0.032
745	0.03
745	0.029
746	0.027
746	0.026
747	0.026
747	0.026
748	0.026
748	0.026
748	0.025
749	0.024
749	0.023
750	0.023
750	0.022
751	0.022
751	0.021
751	0.021
752	0.02
752	0.02
753	0.019
753	0.018
754	0.017
754	0.017
754	0.017
755	0.017
755	0.017
756	0.017
756	0.016
757	0.014
757	0.014
758	0.013
758	0.012
758	0.011
759	0.01
759	0.008
760	0.006
760	0.003
761	0.001
761	0
761	-0.001
762	-0.002
762	-0.003
763	-0.004
763	-0.005
764	-0.007
764	-0.009
764	-0.01
765	-0.012
765	-0.014
766	-0.015
766	-0.015
767	-0.016
767	-0.018
768	-0.021
768	-0.023
768	-0.024
769	-0.025
769	-0.025
770	-0.026
770	-0.027
771	-0.028
771	-0.03
771	-0.033
772	-0.034
772	-0.036
773	-0.038
773	-0.04
774	-0.044
774	-0.047
775	-0.05
775	-0.054
775	-0.057
776	-0.061
776	-0.064
777	-0.067
777	-0.07
778	-0.074
778	-0.077
778	-0.08
779	-0.083
779	-0.085
780	-0.088
780	-0.092
781	-0.096
781	-0.102
781	-0.107
782	-0.112
782	-0.118
783	-0.124
783	-0.128
784	-0.132
784	-0.135
784	-0.138
785	-0.142
785	-0.145
786	-0.145
786	-0.143
787	-0.139
787	-0.135
788	-0.134
788	-0.135
788	-0.137
789	-0.14
789	-0.14
790	-0.137
790	-0.136
791	-0.137
791	-0.139
791	-0.141
792	-0.135
792	-0.124
793	-0.117
793	-0.113
794	-0.11
794	-0.112
794	-0.115
795	-0.117
795	-0.116
796	-0.116
796	-0.119
797	-0.128
797	-0.139
797	-0.146
798	-0.151
798	-0.155
799	-0.156
799	-0.156
800	-0.157
800	-0.159
801	-0.162
801	-0.163
801	-0.163
802	-0.164
802	-0.165
803	-0.165
803	-0.165
804	-0.163
804	-0.158
804	-0.151
805	-0.146
805	-0.144
806	-0.142
806	-0.14
807	-0.139
807	-0.138
807	-0.138
808	-0.137
808	-0.138
809	-0.142
809	-0.147
810	-0.15
810	-0.152
810	-0.155
811	-0.158
811	-0.158
812	-0.155
812	-0.152
813	-0.152
813	-0.154
813	-0.155
814	-0.157
814	-0.157
815	-0.156
815	-0.154
816	-0.152
816	-0.153
817	-0.158
817	-0.162
817	-0.163
818	-0.163
818	-0.16
819	-0.154
819	-0.151
820	-0.152
820	-0.154
820	-0.156
821	-0.155
821	-0.152
822	-0.148
822	-0.144
823	-0.14
823	-0.138
823	-0.137
824	-0.134
824	-0.128
825	-0.119
825	-0.109
826	-0.101
826	-0.094
826	-0.088
827	-0.082
827	-0.076
828	-0.071
828	-0.067
829	-0.062
829	-0.058
829	-0.055
830	-0.052
830	-0.049
831	-0.045
831	-0.042
832	-0.039
832	-0.036
832	-0.034
833	-0.033
833	-0.031
834	-0.03
834	-0.03
835	-0.029
835	-0.029
835	-0.03
836	-0.03
836	-0.03
837	-0.03
837	-0.03
838	-0.03
838	-0.03
839	-0.03
839	-0.03
839	-0.029
840	-0.029
840	-0.027
841	-0.026
841	-0.025
842	-0.024
842	-0.022
842	-0.021
843	-0.02
843	-0.018
844	-0.017
844	-0.016
845	-0.015
845	-0.014
845	-0.013
846	-0.012
846	-0.012
847	-0.011
847	-0.01
848	-0.009
848	-0.009
848	-0.008
849	-0.007
849	-0.006
850	-0.005
850	-0.005
851	-0.004
851	-0.004
851	-0.004
852	-0.004
852	-0.003
853	-0.003
853	-0.004
854	-0.004
854	-0.004
854	-0.004
855	-0.004
855	-0.004
856	-0.004
856	-0.004
857	-0.004
857	-0.004
857	-0.004
858	-0.004
858	-0.003
859	-0.003
859	-0.003
860	-0.002
860	-0.001
860	0
861	0.001
861	0.003
862	0.003
862	0.004
863	0.005
863	0.006
863	0.007
864	0.008
864	0.009
865	0.01
865	0.01
866	0.011
866	0.011
866	0.012
867	0.012
867	0.012
868	0.012
868	0.013
869	0.012
869	0.012
869	0.012
870	0.012
870	0.011
871	0.011
871	0.01
872	0.009
872	0.008
872	0.007
873	0.006
873	0.004
874	0.004
874	0.003
875	0.002
875	0.001
875	0.001
876	0.001
876	0.001
877	0.001
877	0.001
878	0.002
878	0.002
878	0.002
879	0.003
879	0.004
880	0.004
880	0.005
881	0.006
881	0.007
881	0.008
882	0.009
882	0.01
883	0.011
883	0.012
884	0.012
884	0.012
884	0.013
885	0.013
885	0.013
886	0.012
886	0.012
887	0.012
887	0.011
887	0.011
888	0.01
888	0.01
889	0.01
889	0.01
890	0.011
890	0.011
890	0.011
891	0.012
891	0.012
892	0.013
892	0.013
893	0.014
893	0.015
893	0.015
894	0.016
894	0.016
895	0.016
895	0.016
895	0.016
896	0.016
896	0.016
897	0.016
897	0.015
898	0.014
898	0.013
898	0.012
899	0.01
899	0.009
900	0.008
900	0.007
901	0.006
901	0.006
901	0.005
902	0.005
902	0.004
903	0.004
903	0.004
904	0.004
904	0.004
904	0.004
905	0.005
905	0.005
906	0.005
906	0.006
907	0.006
907	0.006
907	0.006
908	0.005
908	0.005
909	0.005
909	0.005
910	0.005
910	0.005
910	0.005
911	0.006
911	0.006
912	0.007
912	0.008
913	0.009
913	0.01
913	0.011
914	0.013
914	0.014
915	0.015
915	0.016
916	0.017
916	0.018
916	0.019
917	0.019
917	0.02
918	0.02
918	0.019
918	0.019
919	0.018
919	0.017
920	0.016
920	0.014
921	0.013
921	0.011
921	0.01
922	0.01
922	0.009
923	0.009
923	0.008
924	0.008
924	0.008
924	0.009
925	0.009
925	0.01
926	0.011
926	0.011
927	0.012
927	0.012
927	0.012
928	0.013
928	0.014
929	0.014
929	0.015
930	0.015
930	0.015
930	0.015
931	0.015
931	0.015
932	0.015
932	0.014
933	0.014
933	0.014
933	0.014
934	0.014
934	0.014
935	0.014
935	0.014
935	0.014
936	0.014
936	0.014
937	0.014
937	0.014
938	0.013
938	0.013
938	0.013
939	0.012
939	0.012
940	0.012
940	0.012
941	0.012
941	0.012
941	0.013
942	0.013
942	0.014
943	0.014
943	0.015
944	0.015
944	0.016
944	0.017
945	0.018
945	0.019
946	0.02
946	0.021
946	0.021
947	0.022
947	0.022
948	0.022
948	0.021
949	0.021
949	0.02
949	0.019
950	0.018
950	0.018
951	0.017
951	0.017
952	0.016
952	0.016
952	0.016
953	0.016
953	0.017
954	0.016
954	0.016
955	0.016
955	0.016
955	0.016
956	0.016
956	0.016
957	0.016
957	0.015
957	0.015
958	0.015
958	0.015
959	0.015
959	0.015
960	0.015
960	0.016
960	0.016
961	0.016
961	0.017
962	0.017
962	0.017
963	0.018
963	0.018
963	0.018
964	0.018
964	0.017
965	0.017
965	0.017
966	0.017
966	0.017
966	0.016
967	0.016
967	0.015
968	0.015
968	0.015
968	0.014
969	0.014
969	0.014
970	0.014
970	0.014
971	0.014
971	0.015
971	0.016
972	0.016
972	0.017
973	0.018
973	0.018
974	0.019
974	0.019
974	0.02
975	0.02
975	0.02
976	0.02
976	0.02
976	0.019
977	0.018
977	0.018
978	0.017
978	0.016
979	0.015
979	0.014
979	0.013
980	0.012
980	0.011
981	0.011
981	0.01
982	0.009
982	0.009
982	0.009
983	0.008
983	0.008
984	0.008
984	0.008
984	0.008
985	0.008
985	0.008
986	0.007
986	0.007
987	0.007
987	0.007
987	0.006
988	0.006
988	0.006
989	0.005
989	0.005
990	0.005
990	0.004
990	0.004
991	0.004
991	0.004
992	0.004
992	0.004
992	0.004
993	0.004
993	0.003
994	0.003
994	0.003
995	0.003
995	0.002
995	0.002
996	0.002
996	0.001
997	0.001
997	0.001
997	0.001
998	0
998	0.001
999	0.001
999	0.001
1000	0.002
1000	0.003
1000	0.003
1001	0.004
1001	0.005
1002	0.005
1002	0.006
1003	0.006
1003	0.006
1003	0.006
1004	0.006
1004	0.006
1005	0.005
1005	0.005
1005	0.004
1006	0.004
1006	0.003
1007	0.003
1007	0.003
1008	0.003
1008	0.003
1008	0.003
1009	0.003
1009	0.004
1010	0.005
1010	0.006
1010	0.007
1011	0.008
1011	0.008
1012	0.01
1012	0.01
1013	0.011
1013	0.012
1013	0.013
1014	0.013
1014	0.013
1015	0.014
1015	0.014
1016	0.014
1016	0.014
1016	0.014
1017	0.014
1017	0.013
1018	0.013
1018	0.013
1018	0.013
1019	0.013
1019	0.013
1020	0.012
1020	0.012
1021	0.012
1021	0.011
1021	0.011
1022	0.011
1022	0.011
1023	0.01
1023	0.01
1023	0.01
1024	0.01
1024	0.01
1025	0.01
1025	0.01
1026	0.01
1026	0.01
1026	0.011
1027	0.011
1027	0.011
1028	0.011
1028	0.012
1028	0.012
1029	0.012
1029	0.013
1030	0.013
1030	0.013
1031	0.013
1031	0.014
1031	0.014
1032	0.014
1032	0.014
1033	0.014
1033	0.014
1033	0.014
1034	0.014
1034	0.014
1035	0.014
1035	0.014
1036	0.014
1036	0.014
1036	0.014
1037	0.015
1037	0.016
1038	0.017
1038	0.018
1039	0.019
1039	0.019
1039	0.02
1040	0.021
1040	0.022
1041	0.022
1041	0.023
1041	0.024
1042	0.024
1042	0.024
1043	0.025
1043	0.026
1044	0.027
1044	0.027
1044	0.028
1045	0.029
1045	0.03
1046	0.031
1046	0.032
1046	0.033
1047	0.035
1047	0.036
1048	0.038
1048	0.039
1049	0.04
1049	0.04
1049	0.041
1050	0.041
1050	0.042
1051	0.041
1051	0.041
1051	0.04
1052	0.04
1052	0.039
1053	0.038
1053	0.037
1053	0.036
1054	0.035
1054	0.034
1055	0.033
1055	0.032
1056	0.032
1056	0.031
1056	0.03
1057	0.029
1057	0.028
1058	0.028
1058	0.028
1058	0.028
1059	0.028
1059	0.028
1060	0.028
1060	0.029
1061	0.03
1061	0.031
1061	0.032
1062	0.032
1062	0.033
1063	0.034
1063	0.034
1063	0.035
1064	0.037
1064	0.038
1065	0.039
1065	0.041
1066	0.043
1066	0.044
1066	0.046
1067	0.048
1067	0.05
1068	0.052
1068	0.054
1068	0.055
1069	0.056
1069	0.058
1070	0.059
1070	0.06
1071	0.061
1071	0.062
1071	0.063
1072	0.064
1072	0.065
1073	0.066
1073	0.067
1073	0.068
1074	0.068
1074	0.069
1075	0.069
1075	0.07
1076	0.07
1076	0.071
1076	0.071
1077	0.072
1077	0.073
1078	0.075
1078	0.077
1078	0.079
1079	0.08
1079	0.083
1080	0.085
1080	0.087
1080	0.089
1081	0.091
1081	0.093
1082	0.094
1082	0.095
1083	0.097
1083	0.099
1083	0.101
1084	0.103
1084	0.106
1085	0.109
1085	0.111
1085	0.114
1086	0.117
1086	0.12
1087	0.123
1087	0.126
1088	0.129
1088	0.132
1088	0.136
1089	0.14
1089	0.144
1090	0.149
1090	0.155
1090	0.16
1091	0.166
1091	0.174
1092	0.181
1092	0.19
1092	0.198
1093	0.206
1093	0.216
1094	0.226
1094	0.236
1095	0.247
1095	0.26
1095	0.274
1096	0.288
1096	0.305
1097	0.322
1097	0.341
1097	0.362
1098	0.384
1098	0.411
1099	0.44
1099	0.473
1100	0.512
1100	0.555
1100	0.607
1101	0.669
1101	0.749
1102	0.854
1102	0.998
1102	1.241
1103	1.944
1103	-0
1104	-0
1104	-0
1104	-0
1105	-0
1105	-0
1106	-0
1106	-0
1107	-0
1107	-0
1107	-0
1108	-0
1108	-0
1109	-0
1109	-0
1109	-0
1110	-0
1110	-0
1111	-0
1111	-0
