Data from 15c-2-4a_Absorbance__2021__02021.txt Node

Date: Thu Jan 25 11:11:32 CET 2024
User: Marek
Spectrometer: MAYP115816
Trigger mode: 0
Integration Time (sec): 2.000000E-1
Scans to average: 10
Electric dark correction enabled: true
Nonlinearity correction enabled: true
Boxcar width: 5
XAxis mode: Wavelengths
Number of Pixels in Spectrum: 2068
>>>>>Begin Spectral Data<<<<<
199	-2.188
199	-2.018
200	-1.864
200	-1.742
201	-1.663
201	-1.606
202	-1.524
202	-1.462
203	-1.409
203	-1.362
204	-1.336
204	-1.308
205	-1.287
205	-1.275
205	-1.27
206	-1.265
206	-1.262
207	-1.262
207	-1.258
208	-1.253
208	-1.249
209	-1.245
209	-1.242
210	-1.24
210	-1.237
211	-1.236
211	-1.234
212	-1.231
212	-1.228
213	-1.226
213	-1.227
213	-1.227
214	-1.226
214	-1.225
215	-1.222
215	-1.221
216	-1.218
216	-1.217
217	-1.215
217	-1.212
218	-1.21
218	-1.208
219	-1.205
219	-1.203
220	-1.203
220	-1.199
221	-1.196
221	-1.194
221	-1.19
222	-1.187
222	-1.186
223	-1.181
223	-1.175
224	-1.168
224	-1.159
225	-1.149
225	-1.141
226	-1.13
226	-1.117
227	-1.102
227	-1.089
228	-1.069
228	-1.05
229	-1.028
229	-1.004
229	-0.977
230	-0.948
230	-0.917
231	-0.881
231	-0.841
232	-0.8
232	-0.754
233	-0.707
233	-0.658
234	-0.609
234	-0.558
235	-0.507
235	-0.457
236	-0.407
236	-0.359
236	-0.311
237	-0.266
237	-0.222
238	-0.181
238	-0.142
239	-0.104
239	-0.069
240	-0.036
240	-0.005
241	0.024
241	0.051
242	0.075
242	0.098
243	0.12
243	0.14
243	0.158
244	0.175
244	0.191
245	0.205
245	0.218
246	0.231
246	0.242
247	0.253
247	0.263
248	0.273
248	0.282
249	0.29
249	0.297
250	0.304
250	0.311
250	0.318
251	0.324
251	0.329
252	0.334
252	0.339
253	0.344
253	0.348
254	0.353
254	0.357
255	0.36
255	0.364
256	0.367
256	0.37
257	0.373
257	0.375
258	0.378
258	0.38
258	0.381
259	0.383
259	0.384
260	0.386
260	0.386
261	0.387
261	0.388
262	0.389
262	0.389
263	0.39
263	0.39
264	0.39
264	0.39
265	0.39
265	0.391
265	0.391
266	0.391
266	0.391
267	0.39
267	0.39
268	0.39
268	0.389
269	0.388
269	0.387
270	0.386
270	0.385
271	0.384
271	0.383
272	0.381
272	0.38
272	0.379
273	0.377
273	0.376
274	0.375
274	0.373
275	0.372
275	0.37
276	0.369
276	0.367
277	0.365
277	0.363
278	0.361
278	0.358
278	0.357
279	0.355
279	0.353
280	0.352
280	0.351
281	0.349
281	0.348
282	0.347
282	0.346
283	0.346
283	0.345
284	0.344
284	0.343
285	0.342
285	0.34
285	0.339
286	0.338
286	0.336
287	0.335
287	0.334
288	0.332
288	0.331
289	0.33
289	0.329
290	0.327
290	0.326
291	0.325
291	0.324
292	0.323
292	0.322
292	0.321
293	0.319
293	0.318
294	0.318
294	0.317
295	0.316
295	0.315
296	0.314
296	0.313
297	0.312
297	0.312
298	0.311
298	0.31
298	0.309
299	0.308
299	0.308
300	0.307
300	0.306
301	0.305
301	0.304
302	0.303
302	0.303
303	0.302
303	0.301
304	0.3
304	0.299
305	0.298
305	0.297
305	0.297
306	0.296
306	0.295
307	0.294
307	0.293
308	0.292
308	0.292
309	0.291
309	0.29
310	0.289
310	0.288
311	0.287
311	0.286
311	0.286
312	0.285
312	0.284
313	0.283
313	0.282
314	0.281
314	0.28
315	0.279
315	0.278
316	0.277
316	0.276
317	0.275
317	0.274
318	0.273
318	0.272
318	0.272
319	0.271
319	0.27
320	0.269
320	0.268
321	0.267
321	0.266
322	0.265
322	0.264
323	0.263
323	0.262
324	0.261
324	0.26
324	0.259
325	0.258
325	0.257
326	0.257
326	0.256
327	0.255
327	0.254
328	0.253
328	0.252
329	0.252
329	0.251
330	0.25
330	0.249
330	0.248
331	0.247
331	0.246
332	0.245
332	0.244
333	0.243
333	0.242
334	0.241
334	0.241
335	0.24
335	0.239
336	0.238
336	0.238
336	0.237
337	0.236
337	0.236
338	0.235
338	0.234
339	0.233
339	0.233
340	0.232
340	0.231
341	0.23
341	0.23
342	0.229
342	0.228
342	0.227
343	0.227
343	0.226
344	0.225
344	0.225
345	0.224
345	0.223
346	0.222
346	0.222
347	0.221
347	0.22
348	0.22
348	0.219
348	0.218
349	0.218
349	0.217
350	0.216
350	0.215
351	0.215
351	0.214
352	0.213
352	0.212
353	0.211
353	0.21
354	0.209
354	0.208
354	0.207
355	0.206
355	0.205
356	0.204
356	0.203
357	0.202
357	0.202
358	0.202
358	0.202
359	0.203
359	0.204
360	0.204
360	0.205
360	0.206
361	0.206
361	0.207
362	0.207
362	0.207
363	0.207
363	0.207
364	0.206
364	0.205
365	0.205
365	0.204
366	0.204
366	0.203
366	0.203
367	0.203
367	0.202
368	0.202
368	0.201
369	0.201
369	0.2
370	0.2
370	0.199
371	0.199
371	0.198
372	0.198
372	0.198
372	0.197
373	0.196
373	0.196
374	0.196
374	0.196
375	0.196
375	0.195
376	0.195
376	0.195
377	0.196
377	0.196
378	0.196
378	0.196
378	0.196
379	0.196
379	0.196
380	0.196
380	0.196
381	0.196
381	0.196
382	0.196
382	0.195
383	0.194
383	0.194
383	0.193
384	0.193
384	0.192
385	0.192
385	0.191
386	0.191
386	0.191
387	0.191
387	0.192
388	0.191
388	0.191
389	0.191
389	0.191
389	0.191
390	0.191
390	0.191
391	0.191
391	0.191
392	0.191
392	0.191
393	0.191
393	0.191
394	0.191
394	0.19
394	0.19
395	0.19
395	0.189
396	0.189
396	0.188
397	0.188
397	0.189
398	0.188
398	0.188
399	0.188
399	0.188
400	0.187
400	0.187
400	0.186
401	0.186
401	0.185
402	0.184
402	0.183
403	0.182
403	0.182
404	0.182
404	0.182
405	0.182
405	0.181
405	0.181
406	0.181
406	0.181
407	0.18
407	0.18
408	0.179
408	0.179
409	0.178
409	0.177
410	0.177
410	0.177
411	0.177
411	0.177
411	0.176
412	0.176
412	0.176
413	0.175
413	0.175
414	0.175
414	0.175
415	0.174
415	0.174
416	0.173
416	0.173
416	0.173
417	0.172
417	0.172
418	0.172
418	0.172
419	0.172
419	0.173
420	0.173
420	0.174
421	0.174
421	0.175
421	0.175
422	0.175
422	0.175
423	0.174
423	0.174
424	0.174
424	0.173
425	0.172
425	0.171
426	0.17
426	0.17
427	0.17
427	0.17
427	0.17
428	0.171
428	0.171
429	0.172
429	0.172
430	0.172
430	0.172
431	0.172
431	0.171
432	0.171
432	0.17
432	0.169
433	0.168
433	0.167
434	0.166
434	0.165
435	0.165
435	0.165
436	0.165
436	0.165
437	0.165
437	0.165
437	0.165
438	0.165
438	0.165
439	0.165
439	0.165
440	0.164
440	0.164
441	0.164
441	0.164
442	0.164
442	0.164
442	0.165
443	0.165
443	0.165
444	0.165
444	0.166
445	0.166
445	0.166
446	0.166
446	0.166
447	0.166
447	0.165
447	0.165
448	0.165
448	0.165
449	0.165
449	0.164
450	0.164
450	0.164
451	0.163
451	0.163
452	0.162
452	0.162
452	0.161
453	0.161
453	0.16
454	0.16
454	0.159
455	0.159
455	0.159
456	0.158
456	0.158
457	0.158
457	0.158
458	0.158
458	0.158
458	0.158
459	0.158
459	0.158
460	0.157
460	0.156
461	0.156
461	0.155
462	0.155
462	0.155
463	0.155
463	0.156
463	0.156
464	0.157
464	0.157
465	0.158
465	0.158
466	0.158
466	0.158
467	0.158
467	0.157
467	0.157
468	0.155
468	0.154
469	0.152
469	0.15
470	0.149
470	0.148
471	0.148
471	0.148
472	0.148
472	0.148
472	0.148
473	0.15
473	0.151
474	0.152
474	0.153
475	0.154
475	0.155
476	0.156
476	0.156
477	0.156
477	0.157
477	0.157
478	0.158
478	0.158
479	0.159
479	0.159
480	0.16
480	0.161
481	0.162
481	0.163
482	0.164
482	0.165
482	0.167
483	0.169
483	0.172
484	0.176
484	0.179
485	0.181
485	0.182
486	0.184
486	0.185
487	0.186
487	0.186
487	0.186
488	0.186
488	0.184
489	0.182
489	0.18
490	0.178
490	0.177
491	0.177
491	0.177
492	0.178
492	0.178
492	0.179
493	0.179
493	0.181
494	0.183
494	0.185
495	0.187
495	0.189
496	0.19
496	0.191
496	0.192
497	0.193
497	0.194
498	0.195
498	0.196
499	0.196
499	0.196
500	0.197
500	0.198
501	0.2
501	0.202
501	0.204
502	0.206
502	0.207
503	0.209
503	0.211
504	0.212
504	0.212
505	0.213
505	0.214
506	0.214
506	0.215
506	0.215
507	0.215
507	0.215
508	0.215
508	0.216
509	0.217
509	0.217
510	0.218
510	0.217
511	0.217
511	0.218
511	0.219
512	0.22
512	0.22
513	0.219
513	0.217
514	0.216
514	0.214
515	0.214
515	0.214
515	0.214
516	0.214
516	0.214
517	0.214
517	0.213
518	0.212
518	0.211
519	0.209
519	0.207
520	0.203
520	0.2
520	0.197
521	0.194
521	0.192
522	0.19
522	0.189
523	0.19
523	0.192
524	0.195
524	0.199
524	0.202
525	0.206
525	0.21
526	0.213
526	0.215
527	0.218
527	0.22
528	0.222
528	0.223
529	0.223
529	0.223
529	0.223
530	0.223
530	0.223
531	0.222
531	0.223
532	0.222
532	0.222
533	0.221
533	0.221
533	0.221
534	0.221
534	0.22
535	0.219
535	0.219
536	0.218
536	0.217
537	0.216
537	0.215
538	0.214
538	0.212
538	0.211
539	0.21
539	0.209
540	0.208
540	0.206
541	0.204
541	0.202
542	0.2
542	0.199
542	0.197
543	0.195
543	0.194
544	0.192
544	0.19
545	0.189
545	0.189
546	0.188
546	0.188
547	0.186
547	0.184
547	0.181
548	0.179
548	0.176
549	0.174
549	0.172
550	0.169
550	0.167
551	0.164
551	0.161
551	0.159
552	0.157
552	0.156
553	0.155
553	0.154
554	0.153
554	0.152
555	0.149
555	0.147
556	0.143
556	0.14
556	0.137
557	0.133
557	0.131
558	0.128
558	0.126
559	0.124
559	0.122
560	0.121
560	0.12
560	0.12
561	0.12
561	0.12
562	0.12
562	0.119
563	0.117
563	0.115
564	0.112
564	0.109
564	0.106
565	0.104
565	0.103
566	0.101
566	0.099
567	0.098
567	0.098
568	0.099
568	0.1
568	0.102
569	0.103
569	0.105
570	0.107
570	0.107
571	0.107
571	0.108
572	0.108
572	0.108
573	0.108
573	0.108
573	0.107
574	0.106
574	0.105
575	0.104
575	0.105
576	0.106
576	0.106
577	0.105
577	0.103
577	0.102
578	0.101
578	0.1
579	0.101
579	0.102
580	0.101
580	0.099
581	0.096
581	0.094
581	0.093
582	0.092
582	0.092
583	0.093
583	0.092
584	0.09
584	0.087
585	0.085
585	0.084
585	0.083
586	0.083
586	0.083
587	0.081
587	0.079
588	0.076
588	0.073
589	0.07
589	0.069
590	0.067
590	0.065
590	0.065
591	0.065
591	0.065
592	0.065
592	0.064
593	0.064
593	0.064
594	0.063
594	0.063
594	0.062
595	0.062
595	0.061
596	0.059
596	0.06
597	0.062
597	0.063
598	0.064
598	0.065
598	0.066
599	0.067
599	0.066
600	0.066
600	0.065
601	0.063
601	0.062
602	0.06
602	0.059
602	0.057
603	0.055
603	0.055
604	0.055
604	0.056
605	0.057
605	0.058
606	0.059
606	0.059
606	0.058
607	0.058
607	0.058
608	0.058
608	0.056
609	0.055
609	0.054
610	0.053
610	0.052
610	0.051
611	0.051
611	0.052
612	0.053
612	0.054
613	0.056
613	0.057
614	0.058
614	0.058
614	0.058
615	0.058
615	0.058
616	0.057
616	0.056
617	0.056
617	0.054
618	0.052
618	0.051
618	0.05
619	0.049
619	0.049
620	0.05
620	0.051
621	0.051
621	0.052
622	0.052
622	0.053
622	0.054
623	0.054
623	0.055
624	0.056
624	0.056
625	0.056
625	0.056
626	0.057
626	0.057
626	0.057
627	0.057
627	0.058
628	0.058
628	0.059
629	0.059
629	0.059
630	0.059
630	0.058
630	0.058
631	0.058
631	0.059
632	0.058
632	0.059
633	0.059
633	0.06
634	0.061
634	0.063
634	0.065
635	0.067
635	0.068
636	0.07
636	0.071
637	0.073
637	0.074
638	0.075
638	0.076
638	0.078
639	0.078
639	0.079
640	0.08
640	0.081
641	0.083
641	0.085
642	0.087
642	0.09
642	0.092
643	0.094
643	0.097
644	0.099
644	0.102
645	0.104
645	0.106
646	0.108
646	0.111
646	0.114
647	0.118
647	0.122
648	0.124
648	0.127
649	0.13
649	0.133
650	0.137
650	0.14
650	0.143
651	0.145
651	0.148
652	0.15
652	0.151
653	0.154
653	0.162
653	0.178
654	0.145
654	0.12
655	0.126
655	0.128
656	0.131
656	0.133
657	0.135
657	0.137
657	0.139
658	0.137
658	0.126
659	0.157
659	0.2
660	0.201
660	0.203
661	0.205
661	0.207
661	0.209
662	0.213
662	0.216
663	0.22
663	0.223
664	0.226
664	0.229
665	0.232
665	0.235
665	0.238
666	0.24
666	0.243
667	0.245
667	0.248
668	0.251
668	0.253
669	0.256
669	0.259
669	0.264
670	0.268
670	0.272
671	0.276
671	0.278
672	0.281
672	0.283
672	0.285
673	0.286
673	0.288
674	0.29
674	0.291
675	0.291
675	0.291
676	0.293
676	0.295
676	0.297
677	0.299
677	0.301
678	0.303
678	0.304
679	0.305
679	0.307
680	0.308
680	0.31
680	0.31
681	0.31
681	0.311
682	0.312
682	0.313
683	0.315
683	0.317
684	0.32
684	0.32
684	0.321
685	0.321
685	0.321
686	0.322
686	0.322
687	0.322
687	0.321
687	0.32
688	0.318
688	0.317
689	0.316
689	0.317
690	0.317
690	0.317
691	0.317
691	0.317
691	0.317
692	0.317
692	0.316
693	0.316
693	0.316
694	0.316
694	0.314
695	0.314
695	0.315
695	0.316
696	0.316
696	0.315
697	0.314
697	0.313
698	0.312
698	0.31
698	0.307
699	0.306
699	0.303
700	0.299
700	0.296
701	0.294
701	0.292
702	0.29
702	0.288
702	0.287
703	0.285
703	0.283
704	0.281
704	0.279
705	0.278
705	0.277
705	0.276
706	0.274
706	0.273
707	0.272
707	0.27
708	0.268
708	0.267
709	0.266
709	0.264
709	0.261
710	0.257
710	0.254
711	0.251
711	0.249
712	0.246
712	0.244
713	0.242
713	0.24
713	0.238
714	0.235
714	0.233
715	0.231
715	0.229
716	0.226
716	0.224
716	0.222
717	0.22
717	0.217
718	0.214
718	0.211
719	0.208
719	0.206
720	0.203
720	0.199
720	0.196
721	0.192
721	0.188
722	0.184
722	0.18
723	0.176
723	0.174
723	0.172
724	0.169
724	0.167
725	0.164
725	0.161
726	0.159
726	0.157
727	0.155
727	0.153
727	0.151
728	0.149
728	0.146
729	0.145
729	0.144
730	0.143
730	0.141
730	0.139
731	0.138
731	0.136
732	0.135
732	0.133
733	0.131
733	0.129
734	0.127
734	0.124
734	0.121
735	0.118
735	0.115
736	0.112
736	0.109
737	0.106
737	0.104
737	0.102
738	0.099
738	0.096
739	0.093
739	0.091
740	0.088
740	0.086
741	0.085
741	0.082
741	0.079
742	0.075
742	0.071
743	0.068
743	0.065
744	0.062
744	0.06
744	0.057
745	0.054
745	0.052
746	0.049
746	0.048
747	0.047
747	0.046
748	0.045
748	0.045
748	0.044
749	0.043
749	0.042
750	0.041
750	0.04
751	0.039
751	0.038
751	0.038
752	0.038
752	0.037
753	0.036
753	0.035
754	0.034
754	0.033
754	0.033
755	0.033
755	0.033
756	0.033
756	0.03
757	0.029
757	0.028
758	0.027
758	0.025
758	0.024
759	0.023
759	0.02
760	0.017
760	0.013
761	0.01
761	0.009
761	0.007
762	0.005
762	0.004
763	0.003
763	0.001
764	-0.002
764	-0.004
764	-0.006
765	-0.007
765	-0.009
766	-0.011
766	-0.012
767	-0.013
767	-0.015
768	-0.019
768	-0.021
768	-0.023
769	-0.024
769	-0.024
770	-0.025
770	-0.026
771	-0.028
771	-0.03
771	-0.032
772	-0.034
772	-0.035
773	-0.037
773	-0.04
774	-0.043
774	-0.046
775	-0.05
775	-0.053
775	-0.057
776	-0.061
776	-0.065
777	-0.069
777	-0.072
778	-0.076
778	-0.08
778	-0.084
779	-0.087
779	-0.09
780	-0.094
780	-0.098
781	-0.103
781	-0.108
781	-0.112
782	-0.117
782	-0.123
783	-0.127
783	-0.13
784	-0.134
784	-0.137
784	-0.139
785	-0.141
785	-0.143
786	-0.144
786	-0.142
787	-0.138
787	-0.134
788	-0.133
788	-0.134
788	-0.136
789	-0.138
789	-0.138
790	-0.136
790	-0.135
791	-0.136
791	-0.137
791	-0.139
792	-0.134
792	-0.123
793	-0.116
793	-0.111
794	-0.109
794	-0.11
794	-0.113
795	-0.115
795	-0.115
796	-0.115
796	-0.118
797	-0.126
797	-0.137
797	-0.144
798	-0.15
798	-0.154
799	-0.155
799	-0.155
800	-0.155
800	-0.157
801	-0.16
801	-0.161
801	-0.161
802	-0.162
802	-0.163
803	-0.164
803	-0.163
804	-0.162
804	-0.156
804	-0.149
805	-0.145
805	-0.143
806	-0.14
806	-0.139
807	-0.138
807	-0.137
807	-0.136
808	-0.136
808	-0.136
809	-0.14
809	-0.146
810	-0.148
810	-0.151
810	-0.154
811	-0.157
811	-0.157
812	-0.153
812	-0.151
813	-0.151
813	-0.152
813	-0.154
814	-0.155
814	-0.156
815	-0.154
815	-0.152
816	-0.151
816	-0.152
817	-0.157
817	-0.161
817	-0.162
818	-0.161
818	-0.158
819	-0.153
819	-0.15
820	-0.151
820	-0.153
820	-0.154
821	-0.154
821	-0.153
822	-0.152
822	-0.15
823	-0.148
823	-0.148
823	-0.149
824	-0.148
824	-0.143
825	-0.137
825	-0.128
826	-0.121
826	-0.114
826	-0.107
827	-0.1
827	-0.094
828	-0.089
828	-0.084
829	-0.079
829	-0.075
829	-0.071
830	-0.068
830	-0.065
831	-0.061
831	-0.057
832	-0.054
832	-0.05
832	-0.047
833	-0.044
833	-0.043
834	-0.041
834	-0.04
835	-0.039
835	-0.039
835	-0.039
836	-0.039
836	-0.039
837	-0.038
837	-0.038
838	-0.038
838	-0.037
839	-0.036
839	-0.036
839	-0.035
840	-0.034
840	-0.033
841	-0.032
841	-0.031
842	-0.029
842	-0.028
842	-0.027
843	-0.026
843	-0.025
844	-0.024
844	-0.023
845	-0.022
845	-0.022
845	-0.021
846	-0.021
846	-0.02
847	-0.019
847	-0.018
848	-0.017
848	-0.016
848	-0.015
849	-0.014
849	-0.014
850	-0.013
850	-0.013
851	-0.012
851	-0.011
851	-0.011
852	-0.011
852	-0.011
853	-0.011
853	-0.011
854	-0.011
854	-0.011
854	-0.011
855	-0.011
855	-0.01
856	-0.01
856	-0.01
857	-0.009
857	-0.009
857	-0.008
858	-0.008
858	-0.007
859	-0.007
859	-0.006
860	-0.005
860	-0.004
860	-0.004
861	-0.003
861	-0.003
862	-0.003
862	-0.003
863	-0.003
863	-0.003
863	-0.003
864	-0.003
864	-0.003
865	-0.003
865	-0.003
866	-0.003
866	-0.003
866	-0.002
867	-0.001
867	-0.001
868	-0
868	-0
869	0
869	0
869	-0
870	0
870	0
871	0
871	0
872	-0
872	-0.001
872	-0.001
873	-0.001
873	-0.001
874	-0.002
874	-0.002
875	-0.003
875	-0.004
875	-0.004
876	-0.005
876	-0.005
877	-0.005
877	-0.005
878	-0.005
878	-0.005
878	-0.004
879	-0.003
879	-0.003
880	-0.002
880	-0.001
881	0
881	0.001
881	0.002
882	0.003
882	0.004
883	0.004
883	0.005
884	0.006
884	0.007
884	0.007
885	0.007
885	0.008
886	0.008
886	0.008
887	0.008
887	0.008
887	0.008
888	0.007
888	0.007
889	0.008
889	0.008
890	0.009
890	0.009
890	0.01
891	0.01
891	0.011
892	0.012
892	0.013
893	0.014
893	0.015
893	0.016
894	0.017
894	0.017
895	0.018
895	0.018
895	0.018
896	0.018
896	0.018
897	0.018
897	0.017
898	0.016
898	0.015
898	0.014
899	0.013
899	0.011
900	0.01
900	0.009
901	0.007
901	0.006
901	0.005
902	0.005
902	0.004
903	0.003
903	0.003
904	0.002
904	0.002
904	0.003
905	0.003
905	0.004
906	0.004
906	0.005
907	0.005
907	0.005
907	0.005
908	0.005
908	0.005
909	0.004
909	0.004
910	0.004
910	0.003
910	0.003
911	0.003
911	0.003
912	0.003
912	0.004
913	0.005
913	0.006
913	0.007
914	0.009
914	0.01
915	0.011
915	0.012
916	0.013
916	0.014
916	0.014
917	0.014
917	0.015
918	0.014
918	0.014
918	0.014
919	0.013
919	0.013
920	0.012
920	0.012
921	0.011
921	0.01
921	0.01
922	0.009
922	0.008
923	0.007
923	0.007
924	0.006
924	0.005
924	0.005
925	0.004
925	0.004
926	0.004
926	0.004
927	0.004
927	0.004
927	0.005
928	0.005
928	0.006
929	0.007
929	0.007
930	0.008
930	0.008
930	0.008
931	0.008
931	0.009
932	0.009
932	0.009
933	0.009
933	0.009
933	0.009
934	0.009
934	0.01
935	0.01
935	0.01
935	0.01
936	0.01
936	0.01
937	0.01
937	0.01
938	0.01
938	0.01
938	0.01
939	0.01
939	0.011
940	0.011
940	0.011
941	0.012
941	0.013
941	0.014
942	0.015
942	0.015
943	0.016
943	0.017
944	0.017
944	0.018
944	0.018
945	0.019
945	0.02
946	0.021
946	0.021
946	0.021
947	0.022
947	0.022
948	0.022
948	0.022
949	0.021
949	0.02
949	0.02
950	0.019
950	0.018
951	0.017
951	0.016
952	0.015
952	0.015
952	0.015
953	0.015
953	0.015
954	0.015
954	0.015
955	0.015
955	0.015
955	0.015
956	0.016
956	0.017
957	0.017
957	0.017
957	0.017
958	0.017
958	0.017
959	0.017
959	0.017
960	0.017
960	0.017
960	0.017
961	0.016
961	0.016
962	0.016
962	0.016
963	0.015
963	0.015
963	0.015
964	0.014
964	0.014
965	0.014
965	0.014
966	0.014
966	0.013
966	0.013
967	0.013
967	0.013
968	0.013
968	0.012
968	0.012
969	0.013
969	0.013
970	0.013
970	0.013
971	0.013
971	0.013
971	0.014
972	0.015
972	0.016
973	0.016
973	0.017
974	0.018
974	0.018
974	0.018
975	0.018
975	0.018
976	0.018
976	0.018
976	0.017
977	0.016
977	0.015
978	0.014
978	0.012
979	0.012
979	0.011
979	0.01
980	0.01
980	0.009
981	0.009
981	0.009
982	0.009
982	0.009
982	0.009
983	0.009
983	0.008
984	0.008
984	0.008
984	0.008
985	0.008
985	0.007
986	0.006
986	0.006
987	0.005
987	0.005
987	0.005
988	0.005
988	0.005
989	0.005
989	0.005
990	0.005
990	0.005
990	0.006
991	0.007
991	0.007
992	0.007
992	0.007
992	0.007
993	0.007
993	0.006
994	0.006
994	0.005
995	0.005
995	0.005
995	0.004
996	0.003
996	0.003
997	0.002
997	0.002
997	0.001
998	0.001
998	0.001
999	0.001
999	0.002
1000	0.002
1000	0.002
1000	0.002
1001	0.002
1001	0.003
1002	0.003
1002	0.003
1003	0.003
1003	0.002
1003	0.002
1004	0.002
1004	0.002
1005	0.001
1005	0.001
1005	0
1006	-0
1006	-0.001
1007	-0.001
1007	-0.002
1008	-0.002
1008	-0.002
1008	-0.002
1009	-0.001
1009	-0.001
1010	-0
1010	0.001
1010	0.002
1011	0.003
1011	0.004
1012	0.004
1012	0.005
1013	0.006
1013	0.006
1013	0.006
1014	0.006
1014	0.006
1015	0.006
1015	0.006
1016	0.006
1016	0.006
1016	0.006
1017	0.006
1017	0.007
1018	0.007
1018	0.008
1018	0.009
1019	0.01
1019	0.01
1020	0.011
1020	0.011
1021	0.012
1021	0.012
1021	0.012
1022	0.012
1022	0.013
1023	0.013
1023	0.013
1023	0.012
1024	0.012
1024	0.012
1025	0.012
1025	0.013
1026	0.013
1026	0.013
1026	0.013
1027	0.013
1027	0.013
1028	0.014
1028	0.014
1028	0.014
1029	0.014
1029	0.014
1030	0.014
1030	0.014
1031	0.014
1031	0.014
1031	0.013
1032	0.012
1032	0.012
1033	0.012
1033	0.011
1033	0.011
1034	0.01
1034	0.009
1035	0.009
1035	0.009
1036	0.008
1036	0.008
1036	0.008
1037	0.009
1037	0.009
1038	0.009
1038	0.009
1039	0.01
1039	0.011
1039	0.011
1040	0.012
1040	0.012
1041	0.013
1041	0.013
1041	0.014
1042	0.015
1042	0.016
1043	0.017
1043	0.017
1044	0.018
1044	0.02
1044	0.021
1045	0.022
1045	0.023
1046	0.024
1046	0.026
1046	0.028
1047	0.03
1047	0.031
1048	0.033
1048	0.034
1049	0.035
1049	0.035
1049	0.036
1050	0.036
1050	0.036
1051	0.035
1051	0.035
1051	0.034
1052	0.033
1052	0.032
1053	0.031
1053	0.03
1053	0.03
1054	0.029
1054	0.029
1055	0.028
1055	0.028
1056	0.027
1056	0.027
1056	0.026
1057	0.026
1057	0.026
1058	0.026
1058	0.026
1058	0.026
1059	0.026
1059	0.026
1060	0.027
1060	0.028
1061	0.029
1061	0.03
1061	0.031
1062	0.031
1062	0.032
1063	0.033
1063	0.034
1063	0.035
1064	0.036
1064	0.038
1065	0.039
1065	0.04
1066	0.042
1066	0.045
1066	0.047
1067	0.049
1067	0.051
1068	0.053
1068	0.054
1068	0.056
1069	0.057
1069	0.057
1070	0.058
1070	0.059
1071	0.059
1071	0.06
1071	0.061
1072	0.063
1072	0.064
1073	0.066
1073	0.067
1073	0.068
1074	0.07
1074	0.071
1075	0.071
1075	0.072
1076	0.073
1076	0.074
1076	0.075
1077	0.076
1077	0.077
1078	0.078
1078	0.081
1078	0.083
1079	0.085
1079	0.088
1080	0.091
1080	0.094
1080	0.096
1081	0.099
1081	0.103
1082	0.106
1082	0.108
1083	0.11
1083	0.114
1083	0.118
1084	0.121
1084	0.125
1085	0.128
1085	0.132
1085	0.136
1086	0.139
1086	0.142
1087	0.147
1087	0.15
1088	0.153
1088	0.157
1088	0.161
1089	0.166
1089	0.171
1090	0.177
1090	0.184
1090	0.191
1091	0.198
1091	0.207
1092	0.216
1092	0.227
1092	0.236
1093	0.246
1093	0.259
1094	0.27
1094	0.283
1095	0.296
1095	0.312
1095	0.331
1096	0.351
1096	0.373
1097	0.398
1097	0.424
1097	0.454
1098	0.485
1098	0.522
1099	0.568
1099	0.619
1100	0.682
1100	0.759
1100	0.855
1101	0.987
1101	1.199
1102	1.73
1102	-0
1102	-0
1103	-0
1103	-0
1104	-0
1104	-0
1104	-0
1105	-0
1105	-0
1106	-0
1106	-0
1107	-0
1107	-0
1107	-0
1108	-0
1108	-0
1109	-0
1109	-0
1109	-0
1110	-0
1110	-0
1111	-0
1111	-0
