Data from 15c-2-4a_Absorbance__177__00177.txt Node

Date: Thu Jan 25 10:10:04 CET 2024
User: Marek
Spectrometer: MAYP115816
Trigger mode: 0
Integration Time (sec): 2.000000E-1
Scans to average: 10
Electric dark correction enabled: true
Nonlinearity correction enabled: true
Boxcar width: 5
XAxis mode: Wavelengths
Number of Pixels in Spectrum: 2068
>>>>>Begin Spectral Data<<<<<
199	-2.106
199	-1.934
200	-1.781
200	-1.659
201	-1.581
201	-1.524
202	-1.44
202	-1.378
203	-1.326
203	-1.279
204	-1.253
204	-1.225
205	-1.205
205	-1.193
205	-1.187
206	-1.183
206	-1.179
207	-1.179
207	-1.176
208	-1.171
208	-1.168
209	-1.163
209	-1.16
210	-1.158
210	-1.155
211	-1.154
211	-1.152
212	-1.149
212	-1.147
213	-1.145
213	-1.145
213	-1.145
214	-1.144
214	-1.143
215	-1.141
215	-1.14
216	-1.138
216	-1.136
217	-1.135
217	-1.131
218	-1.13
218	-1.127
219	-1.125
219	-1.122
220	-1.121
220	-1.116
221	-1.113
221	-1.111
221	-1.108
222	-1.105
222	-1.105
223	-1.1
223	-1.094
224	-1.087
224	-1.078
225	-1.07
225	-1.062
226	-1.051
226	-1.039
227	-1.025
227	-1.011
228	-0.992
228	-0.974
229	-0.953
229	-0.931
229	-0.905
230	-0.878
230	-0.849
231	-0.816
231	-0.78
232	-0.741
232	-0.7
233	-0.658
233	-0.614
234	-0.571
234	-0.527
235	-0.483
235	-0.441
236	-0.4
236	-0.361
236	-0.324
237	-0.289
237	-0.257
238	-0.227
238	-0.198
239	-0.173
239	-0.149
240	-0.127
240	-0.107
241	-0.088
241	-0.071
242	-0.056
242	-0.042
243	-0.029
243	-0.017
243	-0.007
244	0.003
244	0.012
245	0.02
245	0.028
246	0.035
246	0.041
247	0.048
247	0.053
248	0.058
248	0.063
249	0.068
249	0.072
250	0.077
250	0.081
250	0.084
251	0.088
251	0.091
252	0.094
252	0.098
253	0.101
253	0.103
254	0.106
254	0.108
255	0.111
255	0.113
256	0.115
256	0.117
257	0.119
257	0.12
258	0.122
258	0.123
258	0.124
259	0.125
259	0.126
260	0.127
260	0.127
261	0.128
261	0.128
262	0.128
262	0.128
263	0.129
263	0.129
264	0.129
264	0.129
265	0.129
265	0.128
265	0.128
266	0.127
266	0.127
267	0.127
267	0.126
268	0.126
268	0.125
269	0.124
269	0.123
270	0.122
270	0.121
271	0.12
271	0.119
272	0.118
272	0.117
272	0.115
273	0.114
273	0.113
274	0.111
274	0.11
275	0.108
275	0.107
276	0.106
276	0.104
277	0.103
277	0.101
278	0.099
278	0.098
278	0.096
279	0.095
279	0.094
280	0.093
280	0.092
281	0.091
281	0.09
282	0.089
282	0.088
283	0.087
283	0.086
284	0.085
284	0.084
285	0.083
285	0.082
285	0.081
286	0.08
286	0.079
287	0.078
287	0.077
288	0.076
288	0.075
289	0.074
289	0.073
290	0.073
290	0.072
291	0.071
291	0.07
292	0.069
292	0.069
292	0.068
293	0.067
293	0.067
294	0.066
294	0.066
295	0.065
295	0.065
296	0.065
296	0.064
297	0.064
297	0.064
298	0.064
298	0.063
298	0.063
299	0.063
299	0.062
300	0.062
300	0.062
301	0.061
301	0.061
302	0.061
302	0.061
303	0.061
303	0.06
304	0.06
304	0.06
305	0.06
305	0.059
305	0.059
306	0.059
306	0.059
307	0.059
307	0.058
308	0.058
308	0.058
309	0.058
309	0.057
310	0.057
310	0.057
311	0.057
311	0.057
311	0.057
312	0.056
312	0.056
313	0.056
313	0.056
314	0.055
314	0.055
315	0.055
315	0.055
316	0.054
316	0.054
317	0.053
317	0.053
318	0.053
318	0.052
318	0.052
319	0.052
319	0.052
320	0.051
320	0.051
321	0.051
321	0.05
322	0.05
322	0.05
323	0.05
323	0.049
324	0.049
324	0.049
324	0.048
325	0.048
325	0.048
326	0.048
326	0.047
327	0.047
327	0.047
328	0.047
328	0.046
329	0.046
329	0.046
330	0.046
330	0.045
330	0.045
331	0.044
331	0.044
332	0.044
332	0.044
333	0.043
333	0.043
334	0.042
334	0.042
335	0.041
335	0.041
336	0.041
336	0.041
336	0.041
337	0.04
337	0.04
338	0.04
338	0.04
339	0.04
339	0.039
340	0.039
340	0.039
341	0.038
341	0.038
342	0.038
342	0.037
342	0.037
343	0.037
343	0.036
344	0.036
344	0.036
345	0.035
345	0.035
346	0.034
346	0.034
347	0.034
347	0.033
348	0.033
348	0.033
348	0.032
349	0.032
349	0.032
350	0.031
350	0.031
351	0.031
351	0.03
352	0.03
352	0.029
353	0.029
353	0.029
354	0.028
354	0.028
354	0.027
355	0.027
355	0.026
356	0.026
356	0.025
357	0.025
357	0.025
358	0.025
358	0.026
359	0.026
359	0.026
360	0.027
360	0.027
360	0.028
361	0.028
361	0.028
362	0.028
362	0.028
363	0.028
363	0.028
364	0.027
364	0.027
365	0.027
365	0.027
366	0.027
366	0.026
366	0.026
367	0.026
367	0.026
368	0.026
368	0.026
369	0.026
369	0.025
370	0.025
370	0.025
371	0.025
371	0.024
372	0.024
372	0.024
372	0.024
373	0.024
373	0.023
374	0.024
374	0.023
375	0.023
375	0.023
376	0.023
376	0.023
377	0.023
377	0.024
378	0.024
378	0.024
378	0.024
379	0.024
379	0.024
380	0.025
380	0.024
381	0.025
381	0.025
382	0.024
382	0.024
383	0.024
383	0.024
383	0.024
384	0.023
384	0.023
385	0.023
385	0.023
386	0.023
386	0.023
387	0.023
387	0.023
388	0.023
388	0.023
389	0.023
389	0.023
389	0.023
390	0.023
390	0.024
391	0.024
391	0.024
392	0.024
392	0.024
393	0.024
393	0.024
394	0.024
394	0.024
394	0.024
395	0.023
395	0.023
396	0.023
396	0.023
397	0.023
397	0.024
398	0.024
398	0.024
399	0.024
399	0.024
400	0.024
400	0.024
400	0.023
401	0.023
401	0.022
402	0.022
402	0.021
403	0.021
403	0.021
404	0.021
404	0.021
405	0.021
405	0.021
405	0.021
406	0.02
406	0.02
407	0.02
407	0.02
408	0.02
408	0.019
409	0.019
409	0.019
410	0.019
410	0.019
411	0.019
411	0.019
411	0.019
412	0.019
412	0.019
413	0.019
413	0.018
414	0.018
414	0.018
415	0.018
415	0.018
416	0.018
416	0.018
416	0.018
417	0.018
417	0.018
418	0.018
418	0.018
419	0.018
419	0.019
420	0.019
420	0.02
421	0.02
421	0.02
421	0.02
422	0.02
422	0.02
423	0.02
423	0.02
424	0.019
424	0.019
425	0.018
425	0.018
426	0.017
426	0.017
427	0.017
427	0.017
427	0.017
428	0.018
428	0.018
429	0.019
429	0.019
430	0.019
430	0.019
431	0.018
431	0.018
432	0.018
432	0.018
432	0.017
433	0.016
433	0.016
434	0.016
434	0.015
435	0.016
435	0.016
436	0.016
436	0.016
437	0.016
437	0.016
437	0.016
438	0.016
438	0.016
439	0.016
439	0.015
440	0.015
440	0.015
441	0.015
441	0.015
442	0.015
442	0.015
442	0.015
443	0.016
443	0.016
444	0.016
444	0.016
445	0.016
445	0.017
446	0.017
446	0.017
447	0.017
447	0.016
447	0.016
448	0.016
448	0.016
449	0.016
449	0.016
450	0.016
450	0.016
451	0.015
451	0.015
452	0.015
452	0.014
452	0.014
453	0.014
453	0.013
454	0.013
454	0.012
455	0.012
455	0.012
456	0.012
456	0.012
457	0.011
457	0.011
458	0.011
458	0.011
458	0.011
459	0.011
459	0.011
460	0.011
460	0.011
461	0.01
461	0.01
462	0.01
462	0.01
463	0.01
463	0.01
463	0.011
464	0.011
464	0.011
465	0.011
465	0.011
466	0.011
466	0.011
467	0.011
467	0.01
467	0.01
468	0.009
468	0.007
469	0.006
469	0.005
470	0.005
470	0.004
471	0.004
471	0.003
472	0.003
472	0.003
472	0.003
473	0.003
473	0.004
474	0.004
474	0.005
475	0.005
475	0.006
476	0.006
476	0.006
477	0.006
477	0.007
477	0.007
478	0.007
478	0.007
479	0.007
479	0.008
480	0.008
480	0.009
481	0.009
481	0.009
482	0.01
482	0.01
482	0.011
483	0.012
483	0.014
484	0.015
484	0.017
485	0.018
485	0.018
486	0.019
486	0.019
487	0.019
487	0.019
487	0.019
488	0.018
488	0.017
489	0.016
489	0.014
490	0.013
490	0.012
491	0.012
491	0.012
492	0.011
492	0.012
492	0.012
493	0.012
493	0.012
494	0.013
494	0.014
495	0.015
495	0.015
496	0.015
496	0.016
496	0.016
497	0.016
497	0.016
498	0.016
498	0.016
499	0.016
499	0.016
500	0.016
500	0.016
501	0.016
501	0.017
501	0.018
502	0.019
502	0.019
503	0.02
503	0.021
504	0.021
504	0.022
505	0.022
505	0.022
506	0.022
506	0.022
506	0.022
507	0.022
507	0.021
508	0.021
508	0.021
509	0.021
509	0.021
510	0.021
510	0.021
511	0.02
511	0.02
511	0.02
512	0.02
512	0.019
513	0.019
513	0.019
514	0.019
514	0.018
515	0.017
515	0.017
515	0.016
516	0.015
516	0.015
517	0.015
517	0.015
518	0.015
518	0.015
519	0.015
519	0.014
520	0.013
520	0.012
520	0.011
521	0.009
521	0.008
522	0.006
522	0.004
523	0.002
523	0.001
524	0.001
524	0.001
524	0.002
525	0.003
525	0.004
526	0.006
526	0.008
527	0.01
527	0.012
528	0.013
528	0.015
529	0.016
529	0.016
529	0.017
530	0.017
530	0.018
531	0.018
531	0.018
532	0.018
532	0.018
533	0.018
533	0.019
533	0.019
534	0.019
534	0.019
535	0.019
535	0.019
536	0.019
536	0.019
537	0.019
537	0.019
538	0.018
538	0.018
538	0.017
539	0.017
539	0.017
540	0.017
540	0.016
541	0.016
541	0.015
542	0.015
542	0.014
542	0.014
543	0.014
543	0.014
544	0.013
544	0.013
545	0.013
545	0.013
546	0.013
546	0.013
547	0.013
547	0.013
547	0.012
548	0.011
548	0.01
549	0.009
549	0.008
550	0.008
550	0.007
551	0.006
551	0.005
551	0.004
552	0.003
552	0.003
553	0.003
553	0.003
554	0.004
554	0.004
555	0.003
555	0.002
556	0.001
556	0
556	-0.001
557	-0.002
557	-0.003
558	-0.004
558	-0.005
559	-0.006
559	-0.006
560	-0.006
560	-0.005
560	-0.005
561	-0.004
561	-0.004
562	-0.003
562	-0.003
563	-0.003
563	-0.004
564	-0.005
564	-0.007
564	-0.008
565	-0.009
565	-0.009
566	-0.01
566	-0.01
567	-0.01
567	-0.009
568	-0.008
568	-0.007
568	-0.005
569	-0.003
569	-0.002
570	-0
570	0.001
571	0.002
571	0.003
572	0.003
572	0.004
573	0.005
573	0.005
573	0.005
574	0.005
574	0.005
575	0.006
575	0.007
576	0.008
576	0.008
577	0.008
577	0.008
577	0.008
578	0.008
578	0.008
579	0.008
579	0.009
580	0.01
580	0.009
581	0.008
581	0.008
581	0.007
582	0.007
582	0.007
583	0.008
583	0.008
584	0.007
584	0.006
585	0.005
585	0.004
585	0.004
586	0.004
586	0.004
587	0.003
587	0.002
588	0
588	-0.001
589	-0.002
589	-0.003
590	-0.004
590	-0.005
590	-0.005
591	-0.005
591	-0.004
592	-0.004
592	-0.004
593	-0.003
593	-0.003
594	-0.003
594	-0.003
594	-0.003
595	-0.003
595	-0.003
596	-0.004
596	-0.004
597	-0.003
597	-0.002
598	-0.002
598	-0.001
598	-0
599	-0
599	-0
600	-0
600	-0.001
601	-0.002
601	-0.003
602	-0.004
602	-0.004
602	-0.005
603	-0.006
603	-0.006
604	-0.006
604	-0.006
605	-0.005
605	-0.004
606	-0.004
606	-0.004
606	-0.004
607	-0.004
607	-0.004
608	-0.004
608	-0.005
609	-0.006
609	-0.006
610	-0.007
610	-0.007
610	-0.008
611	-0.007
611	-0.007
612	-0.006
612	-0.005
613	-0.004
613	-0.003
614	-0.002
614	-0.002
614	-0.002
615	-0.002
615	-0.003
616	-0.003
616	-0.004
617	-0.005
617	-0.006
618	-0.007
618	-0.008
618	-0.009
619	-0.009
619	-0.01
620	-0.009
620	-0.008
621	-0.008
621	-0.008
622	-0.008
622	-0.008
622	-0.007
623	-0.008
623	-0.008
624	-0.007
624	-0.008
625	-0.008
625	-0.008
626	-0.008
626	-0.008
626	-0.008
627	-0.008
627	-0.008
628	-0.008
628	-0.008
629	-0.008
629	-0.009
630	-0.009
630	-0.01
630	-0.011
631	-0.011
631	-0.011
632	-0.011
632	-0.011
633	-0.011
633	-0.011
634	-0.01
634	-0.009
634	-0.008
635	-0.007
635	-0.007
636	-0.006
636	-0.005
637	-0.005
637	-0.005
638	-0.004
638	-0.004
638	-0.004
639	-0.004
639	-0.005
640	-0.005
640	-0.004
641	-0.004
641	-0.003
642	-0.002
642	-0.001
642	-0
643	0.001
643	0.002
644	0.004
644	0.005
645	0.007
645	0.008
646	0.009
646	0.01
646	0.011
647	0.013
647	0.015
648	0.016
648	0.017
649	0.019
649	0.02
650	0.021
650	0.022
650	0.024
651	0.025
651	0.026
652	0.026
652	0.027
653	0.027
653	0.031
653	0.033
654	0.029
654	0.026
655	0.028
655	0.029
656	0.03
656	0.032
657	0.033
657	0.034
657	0.035
658	0.034
658	0.034
659	0.04
659	0.047
660	0.047
660	0.048
661	0.048
661	0.048
661	0.049
662	0.05
662	0.051
663	0.052
663	0.053
664	0.055
664	0.056
665	0.057
665	0.058
665	0.059
666	0.061
666	0.062
667	0.063
667	0.064
668	0.065
668	0.066
669	0.068
669	0.069
669	0.071
670	0.072
670	0.074
671	0.076
671	0.076
672	0.077
672	0.078
672	0.078
673	0.079
673	0.079
674	0.079
674	0.08
675	0.079
675	0.079
676	0.08
676	0.08
676	0.081
677	0.082
677	0.083
678	0.084
678	0.084
679	0.085
679	0.086
680	0.086
680	0.087
680	0.088
681	0.088
681	0.089
682	0.089
682	0.09
683	0.091
683	0.092
684	0.094
684	0.094
684	0.094
685	0.094
685	0.095
686	0.095
686	0.095
687	0.094
687	0.093
687	0.093
688	0.092
688	0.09
689	0.09
689	0.09
690	0.09
690	0.089
691	0.089
691	0.088
691	0.088
692	0.088
692	0.088
693	0.089
693	0.09
694	0.09
694	0.091
695	0.091
695	0.093
695	0.095
696	0.096
696	0.096
697	0.096
697	0.096
698	0.096
698	0.095
698	0.094
699	0.094
699	0.092
700	0.09
700	0.088
701	0.087
701	0.087
702	0.086
702	0.085
702	0.084
703	0.082
703	0.081
704	0.08
704	0.079
705	0.079
705	0.078
705	0.078
706	0.077
706	0.077
707	0.076
707	0.075
708	0.075
708	0.074
709	0.074
709	0.073
709	0.071
710	0.07
710	0.068
711	0.068
711	0.067
712	0.066
712	0.066
713	0.066
713	0.066
713	0.066
714	0.065
714	0.064
715	0.063
715	0.062
716	0.061
716	0.061
716	0.06
717	0.059
717	0.058
718	0.056
718	0.054
719	0.053
719	0.052
720	0.052
720	0.051
720	0.049
721	0.047
721	0.046
722	0.044
722	0.042
723	0.04
723	0.039
723	0.038
724	0.036
724	0.035
725	0.033
725	0.031
726	0.03
726	0.029
727	0.028
727	0.028
727	0.027
728	0.026
728	0.025
729	0.025
729	0.025
730	0.025
730	0.024
730	0.024
731	0.023
731	0.022
732	0.022
732	0.021
733	0.021
733	0.02
734	0.019
734	0.018
734	0.016
735	0.016
735	0.014
736	0.013
736	0.012
737	0.011
737	0.01
737	0.009
738	0.008
738	0.006
739	0.005
739	0.004
740	0.003
740	0.002
741	0.001
741	-0
741	-0.002
742	-0.004
742	-0.006
743	-0.008
743	-0.009
744	-0.011
744	-0.012
744	-0.013
745	-0.014
745	-0.015
746	-0.016
746	-0.016
747	-0.017
747	-0.017
748	-0.017
748	-0.017
748	-0.018
749	-0.019
749	-0.019
750	-0.019
750	-0.02
751	-0.02
751	-0.02
751	-0.02
752	-0.02
752	-0.02
753	-0.021
753	-0.021
754	-0.021
754	-0.021
754	-0.022
755	-0.021
755	-0.021
756	-0.021
756	-0.022
757	-0.023
757	-0.023
758	-0.024
758	-0.025
758	-0.025
759	-0.026
759	-0.027
760	-0.028
760	-0.031
761	-0.032
761	-0.033
761	-0.034
762	-0.035
762	-0.035
763	-0.035
763	-0.036
764	-0.037
764	-0.038
764	-0.039
765	-0.04
765	-0.041
766	-0.042
766	-0.042
767	-0.042
767	-0.043
768	-0.045
768	-0.047
768	-0.048
769	-0.048
769	-0.048
770	-0.048
770	-0.049
771	-0.05
771	-0.051
771	-0.053
772	-0.055
772	-0.056
773	-0.058
773	-0.061
774	-0.063
774	-0.067
775	-0.07
775	-0.073
775	-0.077
776	-0.08
776	-0.083
777	-0.087
777	-0.09
778	-0.094
778	-0.097
778	-0.1
779	-0.103
779	-0.103
780	-0.106
780	-0.11
781	-0.113
781	-0.117
781	-0.12
782	-0.123
782	-0.128
783	-0.132
783	-0.134
784	-0.136
784	-0.139
784	-0.141
785	-0.143
785	-0.145
786	-0.146
786	-0.144
787	-0.139
787	-0.136
788	-0.135
788	-0.136
788	-0.137
789	-0.14
789	-0.14
790	-0.138
790	-0.136
791	-0.137
791	-0.139
791	-0.141
792	-0.136
792	-0.125
793	-0.118
793	-0.113
794	-0.111
794	-0.112
794	-0.115
795	-0.117
795	-0.117
796	-0.117
796	-0.119
797	-0.128
797	-0.139
797	-0.146
798	-0.152
798	-0.156
799	-0.157
799	-0.157
800	-0.157
800	-0.159
801	-0.162
801	-0.163
801	-0.163
802	-0.164
802	-0.165
803	-0.165
803	-0.165
804	-0.164
804	-0.158
804	-0.151
805	-0.147
805	-0.144
806	-0.142
806	-0.141
807	-0.139
807	-0.138
807	-0.138
808	-0.138
808	-0.138
809	-0.142
809	-0.147
810	-0.15
810	-0.152
810	-0.156
811	-0.158
811	-0.159
812	-0.155
812	-0.152
813	-0.153
813	-0.154
813	-0.156
814	-0.157
814	-0.158
815	-0.156
815	-0.154
816	-0.153
816	-0.154
817	-0.159
817	-0.163
817	-0.164
818	-0.163
818	-0.16
819	-0.155
819	-0.152
820	-0.153
820	-0.155
820	-0.155
821	-0.154
821	-0.151
822	-0.147
822	-0.143
823	-0.138
823	-0.136
823	-0.136
824	-0.133
824	-0.126
825	-0.117
825	-0.109
826	-0.101
826	-0.095
826	-0.089
827	-0.084
827	-0.079
828	-0.074
828	-0.07
829	-0.066
829	-0.063
829	-0.06
830	-0.058
830	-0.056
831	-0.053
831	-0.05
832	-0.048
832	-0.046
832	-0.045
833	-0.044
833	-0.043
834	-0.042
834	-0.042
835	-0.041
835	-0.041
835	-0.042
836	-0.042
836	-0.042
837	-0.042
837	-0.041
838	-0.041
838	-0.041
839	-0.04
839	-0.04
839	-0.039
840	-0.038
840	-0.037
841	-0.036
841	-0.035
842	-0.034
842	-0.033
842	-0.032
843	-0.031
843	-0.03
844	-0.029
844	-0.028
845	-0.027
845	-0.027
845	-0.026
846	-0.026
846	-0.026
847	-0.026
847	-0.025
848	-0.025
848	-0.024
848	-0.023
849	-0.022
849	-0.022
850	-0.021
850	-0.02
851	-0.019
851	-0.019
851	-0.018
852	-0.018
852	-0.017
853	-0.017
853	-0.017
854	-0.017
854	-0.017
854	-0.017
855	-0.017
855	-0.018
856	-0.018
856	-0.018
857	-0.018
857	-0.019
857	-0.019
858	-0.019
858	-0.018
859	-0.018
859	-0.017
860	-0.017
860	-0.016
860	-0.015
861	-0.013
861	-0.012
862	-0.011
862	-0.01
863	-0.008
863	-0.007
863	-0.006
864	-0.005
864	-0.004
865	-0.003
865	-0.002
866	-0.002
866	-0.001
866	-0.001
867	-0.001
867	-0
868	-0
868	-0
869	-0
869	-0.001
869	-0.001
870	-0.001
870	-0.002
871	-0.002
871	-0.003
872	-0.004
872	-0.004
872	-0.005
873	-0.005
873	-0.006
874	-0.006
874	-0.006
875	-0.006
875	-0.006
875	-0.005
876	-0.004
876	-0.004
877	-0.003
877	-0.003
878	-0.002
878	-0.002
878	-0.002
879	-0.002
879	-0.001
880	-0.001
880	-0.001
881	-0.001
881	-0.001
881	-0.001
882	-0
882	-0
883	-0
883	0
884	0
884	0
884	0
885	0
885	0
886	0
886	-0
887	-0.001
887	-0.001
887	-0.002
888	-0.003
888	-0.003
889	-0.003
889	-0.004
890	-0.004
890	-0.004
890	-0.004
891	-0.004
891	-0.004
892	-0.003
892	-0.003
893	-0.002
893	-0.002
893	-0.001
894	-0.001
894	-0.001
895	-0.001
895	-0.001
895	-0.001
896	-0.001
896	-0.001
897	-0.002
897	-0.002
898	-0.003
898	-0.004
898	-0.005
899	-0.005
899	-0.006
900	-0.007
900	-0.007
901	-0.008
901	-0.008
901	-0.008
902	-0.008
902	-0.009
903	-0.009
903	-0.009
904	-0.009
904	-0.009
904	-0.008
905	-0.008
905	-0.007
906	-0.006
906	-0.006
907	-0.005
907	-0.005
907	-0.005
908	-0.004
908	-0.004
909	-0.004
909	-0.004
910	-0.004
910	-0.004
910	-0.004
911	-0.004
911	-0.004
912	-0.003
912	-0.003
913	-0.002
913	-0.001
913	-0
914	0
914	0.001
915	0.002
915	0.003
916	0.004
916	0.004
916	0.004
917	0.004
917	0.004
918	0.004
918	0.004
918	0.003
919	0.002
919	0.002
920	0.001
920	-0
921	-0.001
921	-0.002
921	-0.002
922	-0.003
922	-0.003
923	-0.003
923	-0.003
924	-0.003
924	-0.002
924	-0.001
925	-0.001
925	0
926	0.001
926	0.002
927	0.002
927	0.003
927	0.003
928	0.004
928	0.004
929	0.005
929	0.005
930	0.005
930	0.005
930	0.005
931	0.005
931	0.005
932	0.004
932	0.004
933	0.004
933	0.004
933	0.004
934	0.004
934	0.004
935	0.005
935	0.005
935	0.005
936	0.006
936	0.006
937	0.006
937	0.006
938	0.005
938	0.005
938	0.005
939	0.004
939	0.004
940	0.004
940	0.004
941	0.004
941	0.005
941	0.005
942	0.005
942	0.006
943	0.007
943	0.007
944	0.008
944	0.008
944	0.009
945	0.01
945	0.01
946	0.011
946	0.011
946	0.012
947	0.012
947	0.012
948	0.012
948	0.012
949	0.011
949	0.011
949	0.01
950	0.01
950	0.009
951	0.009
951	0.008
952	0.008
952	0.008
952	0.008
953	0.008
953	0.008
954	0.008
954	0.008
955	0.008
955	0.008
955	0.008
956	0.008
956	0.008
957	0.008
957	0.008
957	0.008
958	0.008
958	0.008
959	0.008
959	0.009
960	0.009
960	0.009
960	0.009
961	0.009
961	0.009
962	0.01
962	0.01
963	0.011
963	0.011
963	0.011
964	0.012
964	0.012
965	0.012
965	0.012
966	0.012
966	0.011
966	0.01
967	0.01
967	0.009
968	0.008
968	0.007
968	0.007
969	0.006
969	0.006
970	0.005
970	0.005
971	0.005
971	0.006
971	0.006
972	0.007
972	0.007
973	0.008
973	0.009
974	0.01
974	0.01
974	0.01
975	0.011
975	0.011
976	0.01
976	0.01
976	0.009
977	0.009
977	0.008
978	0.007
978	0.006
979	0.005
979	0.004
979	0.003
980	0.003
980	0.002
981	0.002
981	0.001
982	0.001
982	0
982	0
983	-0
983	-0
984	-0
984	-0
984	-0.001
985	-0
985	-0
986	-0.001
986	-0.001
987	-0.001
987	-0.001
987	-0.001
988	-0.001
988	-0.001
989	-0.001
989	-0.001
990	-0.001
990	-0.001
990	-0.001
991	-0.001
991	-0.001
992	-0.002
992	-0.002
992	-0.002
993	-0.003
993	-0.003
994	-0.004
994	-0.005
995	-0.005
995	-0.005
995	-0.006
996	-0.006
996	-0.007
997	-0.007
997	-0.007
997	-0.007
998	-0.007
998	-0.006
999	-0.005
999	-0.004
1000	-0.003
1000	-0.002
1000	-0.001
1001	-0
1001	0.001
1002	0.001
1002	0.002
1003	0.002
1003	0.002
1003	0.002
1004	0.002
1004	0.002
1005	0.002
1005	0.001
1005	0.001
1006	0.001
1006	0.001
1007	0.001
1007	0.001
1008	0.001
1008	0.001
1008	0.001
1009	0.001
1009	0.001
1010	0.002
1010	0.002
1010	0.002
1011	0.003
1011	0.004
1012	0.004
1012	0.005
1013	0.006
1013	0.007
1013	0.008
1014	0.009
1014	0.01
1015	0.01
1015	0.011
1016	0.011
1016	0.012
1016	0.012
1017	0.012
1017	0.013
1018	0.013
1018	0.013
1018	0.013
1019	0.013
1019	0.013
1020	0.012
1020	0.012
1021	0.012
1021	0.011
1021	0.011
1022	0.011
1022	0.01
1023	0.01
1023	0.01
1023	0.01
1024	0.01
1024	0.01
1025	0.01
1025	0.01
1026	0.01
1026	0.01
1026	0.01
1027	0.01
1027	0.01
1028	0.01
1028	0.01
1028	0.01
1029	0.01
1029	0.01
1030	0.01
1030	0.01
1031	0.011
1031	0.011
1031	0.011
1032	0.011
1032	0.012
1033	0.012
1033	0.012
1033	0.012
1034	0.012
1034	0.012
1035	0.012
1035	0.012
1036	0.012
1036	0.012
1036	0.012
1037	0.013
1037	0.013
1038	0.014
1038	0.014
1039	0.014
1039	0.015
1039	0.015
1040	0.016
1040	0.017
1041	0.017
1041	0.018
1041	0.018
1042	0.018
1042	0.019
1043	0.019
1043	0.02
1044	0.021
1044	0.021
1044	0.022
1045	0.023
1045	0.024
1046	0.025
1046	0.026
1046	0.027
1047	0.028
1047	0.029
1048	0.031
1048	0.032
1049	0.032
1049	0.033
1049	0.034
1050	0.034
1050	0.035
1051	0.035
1051	0.035
1051	0.035
1052	0.035
1052	0.034
1053	0.034
1053	0.034
1053	0.034
1054	0.033
1054	0.033
1055	0.033
1055	0.032
1056	0.032
1056	0.031
1056	0.031
1057	0.031
1057	0.031
1058	0.031
1058	0.031
1058	0.031
1059	0.032
1059	0.032
1060	0.033
1060	0.034
1061	0.034
1061	0.035
1061	0.035
1062	0.036
1062	0.037
1063	0.037
1063	0.038
1063	0.039
1064	0.041
1064	0.042
1065	0.043
1065	0.045
1066	0.047
1066	0.049
1066	0.051
1067	0.053
1067	0.055
1068	0.058
1068	0.059
1068	0.061
1069	0.063
1069	0.064
1070	0.065
1070	0.067
1071	0.068
1071	0.069
1071	0.07
1072	0.072
1072	0.073
1073	0.075
1073	0.076
1073	0.078
1074	0.078
1074	0.08
1075	0.08
1075	0.081
1076	0.081
1076	0.082
1076	0.083
1077	0.084
1077	0.085
1078	0.087
1078	0.088
1078	0.089
1079	0.091
1079	0.093
1080	0.095
1080	0.097
1080	0.099
1081	0.101
1081	0.103
1082	0.105
1082	0.107
1083	0.11
1083	0.112
1083	0.115
1084	0.117
1084	0.121
1085	0.124
1085	0.127
1085	0.129
1086	0.132
1086	0.135
1087	0.138
1087	0.14
1088	0.144
1088	0.147
1088	0.151
1089	0.154
1089	0.159
1090	0.164
1090	0.17
1090	0.177
1091	0.185
1091	0.192
1092	0.201
1092	0.21
1092	0.219
1093	0.229
1093	0.239
1094	0.25
1094	0.262
1095	0.274
1095	0.289
1095	0.304
1096	0.321
1096	0.339
1097	0.358
1097	0.38
1097	0.402
1098	0.428
1098	0.457
1099	0.49
1099	0.529
1100	0.569
1100	0.62
1100	0.68
1101	0.758
1101	0.862
1102	1.012
1102	1.266
1102	2.034
1103	-0
1103	-0
1104	-0
1104	-0
1104	-0
1105	-0
1105	-0
1106	-0
1106	-0
1107	-0
1107	-0
1107	-0
1108	-0
1108	-0
1109	-0
1109	-0
1109	-0
1110	-0
1110	-0
1111	-0
1111	-0
