Data from 15c-2-4a_Absorbance__1621__01621.txt Node

Date: Thu Jan 25 10:58:12 CET 2024
User: Marek
Spectrometer: MAYP115816
Trigger mode: 0
Integration Time (sec): 2.000000E-1
Scans to average: 10
Electric dark correction enabled: true
Nonlinearity correction enabled: true
Boxcar width: 5
XAxis mode: Wavelengths
Number of Pixels in Spectrum: 2068
>>>>>Begin Spectral Data<<<<<
199	-2.19
199	-2.02
200	-1.867
200	-1.745
201	-1.666
201	-1.609
202	-1.526
202	-1.464
203	-1.412
203	-1.365
204	-1.339
204	-1.31
205	-1.289
205	-1.277
205	-1.271
206	-1.266
206	-1.263
207	-1.263
207	-1.26
208	-1.255
208	-1.252
209	-1.247
209	-1.244
210	-1.242
210	-1.239
211	-1.238
211	-1.237
212	-1.233
212	-1.23
213	-1.229
213	-1.229
213	-1.229
214	-1.228
214	-1.227
215	-1.225
215	-1.224
216	-1.222
216	-1.221
217	-1.22
217	-1.216
218	-1.215
218	-1.212
219	-1.21
219	-1.207
220	-1.206
220	-1.202
221	-1.199
221	-1.197
221	-1.193
222	-1.19
222	-1.188
223	-1.184
223	-1.178
224	-1.17
224	-1.161
225	-1.152
225	-1.144
226	-1.133
226	-1.12
227	-1.105
227	-1.091
228	-1.071
228	-1.052
229	-1.031
229	-1.007
229	-0.98
230	-0.95
230	-0.919
231	-0.883
231	-0.844
232	-0.802
232	-0.757
233	-0.71
233	-0.661
234	-0.612
234	-0.561
235	-0.51
235	-0.46
236	-0.41
236	-0.363
236	-0.316
237	-0.27
237	-0.228
238	-0.186
238	-0.148
239	-0.111
239	-0.076
240	-0.043
240	-0.012
241	0.016
241	0.043
242	0.067
242	0.09
243	0.112
243	0.131
243	0.15
244	0.167
244	0.182
245	0.196
245	0.21
246	0.222
246	0.233
247	0.244
247	0.254
248	0.263
248	0.272
249	0.279
249	0.286
250	0.293
250	0.3
250	0.306
251	0.312
251	0.318
252	0.323
252	0.328
253	0.332
253	0.337
254	0.341
254	0.345
255	0.348
255	0.352
256	0.355
256	0.358
257	0.36
257	0.363
258	0.365
258	0.367
258	0.369
259	0.37
259	0.371
260	0.373
260	0.374
261	0.375
261	0.375
262	0.376
262	0.376
263	0.377
263	0.378
264	0.378
264	0.378
265	0.379
265	0.378
265	0.378
266	0.378
266	0.378
267	0.378
267	0.377
268	0.377
268	0.376
269	0.375
269	0.374
270	0.373
270	0.372
271	0.371
271	0.37
272	0.369
272	0.368
272	0.366
273	0.365
273	0.364
274	0.363
274	0.361
275	0.36
275	0.358
276	0.357
276	0.355
277	0.353
277	0.351
278	0.349
278	0.347
278	0.345
279	0.343
279	0.342
280	0.341
280	0.339
281	0.338
281	0.337
282	0.336
282	0.336
283	0.335
283	0.334
284	0.333
284	0.332
285	0.331
285	0.33
285	0.328
286	0.327
286	0.326
287	0.325
287	0.323
288	0.322
288	0.321
289	0.32
289	0.319
290	0.318
290	0.317
291	0.316
291	0.314
292	0.313
292	0.313
292	0.311
293	0.311
293	0.31
294	0.309
294	0.308
295	0.307
295	0.306
296	0.305
296	0.304
297	0.303
297	0.302
298	0.302
298	0.301
298	0.3
299	0.299
299	0.298
300	0.298
300	0.297
301	0.296
301	0.295
302	0.294
302	0.294
303	0.293
303	0.292
304	0.292
304	0.291
305	0.29
305	0.289
305	0.288
306	0.287
306	0.286
307	0.286
307	0.285
308	0.284
308	0.283
309	0.282
309	0.281
310	0.28
310	0.28
311	0.279
311	0.278
311	0.277
312	0.276
312	0.276
313	0.275
313	0.274
314	0.273
314	0.272
315	0.271
315	0.27
316	0.269
316	0.268
317	0.267
317	0.266
318	0.266
318	0.265
318	0.264
319	0.263
319	0.262
320	0.261
320	0.26
321	0.259
321	0.258
322	0.257
322	0.256
323	0.256
323	0.254
324	0.254
324	0.253
324	0.252
325	0.251
325	0.25
326	0.249
326	0.249
327	0.248
327	0.247
328	0.246
328	0.245
329	0.244
329	0.243
330	0.243
330	0.242
330	0.241
331	0.24
331	0.239
332	0.238
332	0.237
333	0.236
333	0.236
334	0.235
334	0.234
335	0.233
335	0.232
336	0.232
336	0.231
336	0.23
337	0.229
337	0.229
338	0.228
338	0.227
339	0.227
339	0.226
340	0.225
340	0.224
341	0.224
341	0.223
342	0.222
342	0.222
342	0.221
343	0.22
343	0.22
344	0.219
344	0.218
345	0.218
345	0.217
346	0.216
346	0.215
347	0.215
347	0.214
348	0.213
348	0.212
348	0.212
349	0.211
349	0.21
350	0.209
350	0.209
351	0.208
351	0.207
352	0.206
352	0.205
353	0.205
353	0.204
354	0.203
354	0.202
354	0.2
355	0.199
355	0.198
356	0.197
356	0.196
357	0.196
357	0.195
358	0.195
358	0.196
359	0.196
359	0.197
360	0.198
360	0.199
360	0.199
361	0.2
361	0.2
362	0.201
362	0.201
363	0.201
363	0.2
364	0.2
364	0.199
365	0.199
365	0.198
366	0.198
366	0.197
366	0.197
367	0.196
367	0.196
368	0.195
368	0.195
369	0.195
369	0.194
370	0.194
370	0.193
371	0.193
371	0.192
372	0.191
372	0.191
372	0.19
373	0.19
373	0.19
374	0.19
374	0.19
375	0.189
375	0.189
376	0.189
376	0.189
377	0.189
377	0.19
378	0.19
378	0.19
378	0.19
379	0.19
379	0.19
380	0.191
380	0.19
381	0.19
381	0.19
382	0.189
382	0.189
383	0.188
383	0.188
383	0.187
384	0.187
384	0.186
385	0.186
385	0.186
386	0.186
386	0.186
387	0.186
387	0.186
388	0.185
388	0.185
389	0.185
389	0.185
389	0.185
390	0.185
390	0.185
391	0.185
391	0.185
392	0.185
392	0.185
393	0.185
393	0.185
394	0.185
394	0.185
394	0.184
395	0.184
395	0.183
396	0.183
396	0.183
397	0.183
397	0.183
398	0.183
398	0.183
399	0.182
399	0.182
400	0.182
400	0.181
400	0.181
401	0.18
401	0.179
402	0.178
402	0.177
403	0.177
403	0.177
404	0.177
404	0.176
405	0.176
405	0.176
405	0.175
406	0.175
406	0.175
407	0.175
407	0.174
408	0.174
408	0.173
409	0.173
409	0.172
410	0.172
410	0.172
411	0.172
411	0.172
411	0.172
412	0.171
412	0.171
413	0.171
413	0.17
414	0.17
414	0.17
415	0.169
415	0.169
416	0.169
416	0.168
416	0.167
417	0.167
417	0.167
418	0.167
418	0.167
419	0.167
419	0.167
420	0.168
420	0.168
421	0.169
421	0.169
421	0.169
422	0.169
422	0.169
423	0.169
423	0.169
424	0.168
424	0.168
425	0.167
425	0.166
426	0.165
426	0.165
427	0.164
427	0.165
427	0.165
428	0.165
428	0.166
429	0.167
429	0.167
430	0.168
430	0.167
431	0.167
431	0.167
432	0.166
432	0.166
432	0.165
433	0.163
433	0.162
434	0.161
434	0.161
435	0.161
435	0.161
436	0.161
436	0.161
437	0.161
437	0.161
437	0.161
438	0.161
438	0.161
439	0.161
439	0.16
440	0.16
440	0.159
441	0.159
441	0.16
442	0.16
442	0.16
442	0.16
443	0.16
443	0.16
444	0.16
444	0.161
445	0.161
445	0.161
446	0.161
446	0.161
447	0.16
447	0.16
447	0.16
448	0.16
448	0.16
449	0.16
449	0.159
450	0.159
450	0.159
451	0.159
451	0.158
452	0.158
452	0.157
452	0.156
453	0.156
453	0.155
454	0.155
454	0.154
455	0.154
455	0.154
456	0.153
456	0.153
457	0.153
457	0.153
458	0.153
458	0.153
458	0.153
459	0.153
459	0.153
460	0.153
460	0.152
461	0.151
461	0.15
462	0.15
462	0.15
463	0.15
463	0.151
463	0.151
464	0.152
464	0.152
465	0.152
465	0.153
466	0.153
466	0.153
467	0.153
467	0.153
467	0.152
468	0.151
468	0.149
469	0.147
469	0.145
470	0.144
470	0.144
471	0.144
471	0.143
472	0.143
472	0.143
472	0.143
473	0.144
473	0.146
474	0.147
474	0.148
475	0.149
475	0.15
476	0.15
476	0.151
477	0.151
477	0.152
477	0.152
478	0.153
478	0.153
479	0.154
479	0.155
480	0.156
480	0.157
481	0.157
481	0.158
482	0.159
482	0.16
482	0.161
483	0.164
483	0.167
484	0.171
484	0.174
485	0.176
485	0.177
486	0.179
486	0.18
487	0.181
487	0.181
487	0.181
488	0.181
488	0.179
489	0.176
489	0.174
490	0.173
490	0.172
491	0.171
491	0.171
492	0.172
492	0.173
492	0.174
493	0.175
493	0.176
494	0.178
494	0.18
495	0.182
495	0.184
496	0.185
496	0.186
496	0.187
497	0.188
497	0.189
498	0.19
498	0.19
499	0.191
499	0.191
500	0.192
500	0.193
501	0.195
501	0.196
501	0.198
502	0.2
502	0.202
503	0.204
503	0.205
504	0.206
504	0.207
505	0.207
505	0.208
506	0.208
506	0.209
506	0.209
507	0.209
507	0.209
508	0.209
508	0.21
509	0.211
509	0.211
510	0.211
510	0.211
511	0.211
511	0.212
511	0.212
512	0.213
512	0.213
513	0.212
513	0.211
514	0.209
514	0.208
515	0.208
515	0.208
515	0.208
516	0.208
516	0.208
517	0.208
517	0.208
518	0.208
518	0.207
519	0.205
519	0.202
520	0.199
520	0.196
520	0.193
521	0.191
521	0.188
522	0.187
522	0.186
523	0.186
523	0.187
524	0.19
524	0.193
524	0.196
525	0.2
525	0.203
526	0.206
526	0.208
527	0.211
527	0.213
528	0.214
528	0.216
529	0.216
529	0.216
529	0.216
530	0.216
530	0.216
531	0.215
531	0.215
532	0.215
532	0.214
533	0.214
533	0.214
533	0.213
534	0.213
534	0.212
535	0.211
535	0.21
536	0.21
536	0.209
537	0.209
537	0.208
538	0.207
538	0.206
538	0.204
539	0.204
539	0.203
540	0.202
540	0.2
541	0.199
541	0.197
542	0.195
542	0.193
542	0.191
543	0.19
543	0.188
544	0.186
544	0.184
545	0.183
545	0.183
546	0.183
546	0.182
547	0.181
547	0.178
547	0.176
548	0.173
548	0.171
549	0.169
549	0.167
550	0.164
550	0.162
551	0.159
551	0.156
551	0.154
552	0.152
552	0.151
553	0.15
553	0.149
554	0.148
554	0.147
555	0.145
555	0.142
556	0.139
556	0.135
556	0.132
557	0.129
557	0.126
558	0.124
558	0.121
559	0.119
559	0.118
560	0.117
560	0.116
560	0.115
561	0.115
561	0.115
562	0.115
562	0.114
563	0.112
563	0.11
564	0.107
564	0.105
564	0.102
565	0.1
565	0.098
566	0.097
566	0.095
567	0.094
567	0.095
568	0.095
568	0.096
568	0.098
569	0.1
569	0.102
570	0.103
570	0.103
571	0.104
571	0.105
572	0.105
572	0.106
573	0.106
573	0.105
573	0.104
574	0.103
574	0.103
575	0.102
575	0.103
576	0.103
576	0.103
577	0.102
577	0.101
577	0.1
578	0.099
578	0.098
579	0.098
579	0.099
580	0.099
580	0.097
581	0.094
581	0.092
581	0.091
582	0.09
582	0.09
583	0.09
583	0.09
584	0.088
584	0.085
585	0.083
585	0.081
585	0.081
586	0.08
586	0.08
587	0.078
587	0.076
588	0.073
588	0.07
589	0.068
589	0.066
590	0.065
590	0.063
590	0.063
591	0.063
591	0.063
592	0.063
592	0.062
593	0.062
593	0.062
594	0.062
594	0.061
594	0.061
595	0.061
595	0.059
596	0.058
596	0.058
597	0.06
597	0.061
598	0.062
598	0.063
598	0.064
599	0.065
599	0.064
600	0.064
600	0.063
601	0.062
601	0.061
602	0.058
602	0.057
602	0.055
603	0.054
603	0.053
604	0.053
604	0.054
605	0.055
605	0.056
606	0.056
606	0.056
606	0.056
607	0.055
607	0.055
608	0.055
608	0.054
609	0.052
609	0.052
610	0.051
610	0.049
610	0.049
611	0.049
611	0.049
612	0.05
612	0.052
613	0.053
613	0.055
614	0.056
614	0.056
614	0.056
615	0.056
615	0.056
616	0.056
616	0.055
617	0.054
617	0.053
618	0.051
618	0.05
618	0.048
619	0.048
619	0.047
620	0.048
620	0.049
621	0.049
621	0.05
622	0.051
622	0.051
622	0.052
623	0.052
623	0.053
624	0.054
624	0.054
625	0.054
625	0.054
626	0.054
626	0.055
626	0.055
627	0.055
627	0.056
628	0.056
628	0.057
629	0.057
629	0.057
630	0.057
630	0.056
630	0.056
631	0.057
631	0.057
632	0.057
632	0.057
633	0.058
633	0.058
634	0.06
634	0.061
634	0.063
635	0.065
635	0.066
636	0.068
636	0.069
637	0.071
637	0.071
638	0.072
638	0.073
638	0.074
639	0.075
639	0.075
640	0.076
640	0.077
641	0.078
641	0.08
642	0.082
642	0.085
642	0.087
643	0.089
643	0.092
644	0.094
644	0.097
645	0.099
645	0.102
646	0.104
646	0.107
646	0.11
647	0.114
647	0.117
648	0.12
648	0.123
649	0.126
649	0.129
650	0.133
650	0.136
650	0.139
651	0.141
651	0.144
652	0.145
652	0.147
653	0.149
653	0.157
653	0.172
654	0.14
654	0.115
655	0.122
655	0.125
656	0.127
656	0.129
657	0.132
657	0.134
657	0.136
658	0.134
658	0.124
659	0.154
659	0.197
660	0.197
660	0.199
661	0.201
661	0.202
661	0.205
662	0.208
662	0.211
663	0.214
663	0.217
664	0.22
664	0.223
665	0.225
665	0.228
665	0.231
666	0.234
666	0.237
667	0.24
667	0.243
668	0.245
668	0.248
669	0.251
669	0.254
669	0.258
670	0.263
670	0.267
671	0.27
671	0.273
672	0.275
672	0.277
672	0.279
673	0.281
673	0.282
674	0.284
674	0.284
675	0.284
675	0.284
676	0.286
676	0.288
676	0.289
677	0.291
677	0.293
678	0.295
678	0.297
679	0.298
679	0.3
680	0.301
680	0.303
680	0.304
681	0.304
681	0.304
682	0.305
682	0.306
683	0.308
683	0.31
684	0.312
684	0.313
684	0.313
685	0.313
685	0.313
686	0.314
686	0.314
687	0.313
687	0.312
687	0.311
688	0.309
688	0.308
689	0.308
689	0.308
690	0.309
690	0.309
691	0.309
691	0.31
691	0.31
692	0.31
692	0.31
693	0.31
693	0.31
694	0.31
694	0.308
695	0.307
695	0.309
695	0.309
696	0.309
696	0.308
697	0.307
697	0.306
698	0.305
698	0.303
698	0.301
699	0.299
699	0.297
700	0.293
700	0.29
701	0.288
701	0.286
702	0.284
702	0.282
702	0.28
703	0.278
703	0.277
704	0.275
704	0.274
705	0.273
705	0.272
705	0.27
706	0.269
706	0.269
707	0.267
707	0.266
708	0.265
708	0.264
709	0.262
709	0.261
709	0.258
710	0.254
710	0.251
711	0.248
711	0.245
712	0.242
712	0.24
713	0.238
713	0.235
713	0.233
714	0.231
714	0.228
715	0.226
715	0.224
716	0.221
716	0.219
716	0.217
717	0.215
717	0.212
718	0.209
718	0.206
719	0.203
719	0.201
720	0.198
720	0.195
720	0.191
721	0.187
721	0.183
722	0.179
722	0.175
723	0.172
723	0.17
723	0.168
724	0.165
724	0.163
725	0.16
725	0.158
726	0.156
726	0.155
727	0.153
727	0.151
727	0.149
728	0.146
728	0.144
729	0.143
729	0.142
730	0.141
730	0.139
730	0.137
731	0.135
731	0.134
732	0.132
732	0.131
733	0.129
733	0.127
734	0.124
734	0.121
734	0.117
735	0.115
735	0.112
736	0.109
736	0.106
737	0.103
737	0.1
737	0.098
738	0.095
738	0.092
739	0.09
739	0.087
740	0.085
740	0.083
741	0.082
741	0.079
741	0.076
742	0.072
742	0.068
743	0.065
743	0.062
744	0.06
744	0.057
744	0.054
745	0.052
745	0.05
746	0.048
746	0.046
747	0.045
747	0.044
748	0.044
748	0.044
748	0.043
749	0.042
749	0.041
750	0.04
750	0.039
751	0.038
751	0.037
751	0.037
752	0.036
752	0.035
753	0.033
753	0.032
754	0.031
754	0.03
754	0.03
755	0.03
755	0.03
756	0.03
756	0.028
757	0.026
757	0.025
758	0.024
758	0.022
758	0.021
759	0.02
759	0.017
760	0.014
760	0.01
761	0.007
761	0.006
761	0.004
762	0.002
762	0.001
763	0.001
763	-0.001
764	-0.004
764	-0.006
764	-0.007
765	-0.009
765	-0.011
766	-0.012
766	-0.013
767	-0.014
767	-0.016
768	-0.02
768	-0.022
768	-0.023
769	-0.024
769	-0.025
770	-0.026
770	-0.027
771	-0.028
771	-0.03
771	-0.033
772	-0.034
772	-0.036
773	-0.038
773	-0.04
774	-0.044
774	-0.047
775	-0.051
775	-0.054
775	-0.058
776	-0.062
776	-0.066
777	-0.07
777	-0.074
778	-0.078
778	-0.083
778	-0.087
779	-0.09
779	-0.093
780	-0.096
780	-0.101
781	-0.106
781	-0.11
781	-0.114
782	-0.119
782	-0.124
783	-0.129
783	-0.131
784	-0.134
784	-0.137
784	-0.139
785	-0.141
785	-0.143
786	-0.144
786	-0.142
787	-0.138
787	-0.134
788	-0.133
788	-0.134
788	-0.136
789	-0.138
789	-0.138
790	-0.136
790	-0.135
791	-0.135
791	-0.137
791	-0.139
792	-0.134
792	-0.123
793	-0.116
793	-0.111
794	-0.109
794	-0.11
794	-0.113
795	-0.115
795	-0.115
796	-0.115
796	-0.118
797	-0.126
797	-0.137
797	-0.144
798	-0.15
798	-0.154
799	-0.155
799	-0.155
800	-0.155
800	-0.157
801	-0.16
801	-0.161
801	-0.161
802	-0.162
802	-0.163
803	-0.164
803	-0.163
804	-0.162
804	-0.156
804	-0.149
805	-0.145
805	-0.143
806	-0.14
806	-0.139
807	-0.138
807	-0.137
807	-0.136
808	-0.136
808	-0.136
809	-0.14
809	-0.145
810	-0.148
810	-0.151
810	-0.154
811	-0.157
811	-0.157
812	-0.153
812	-0.151
813	-0.151
813	-0.152
813	-0.154
814	-0.155
814	-0.156
815	-0.154
815	-0.152
816	-0.151
816	-0.152
817	-0.157
817	-0.161
817	-0.162
818	-0.161
818	-0.158
819	-0.153
819	-0.15
820	-0.151
820	-0.153
820	-0.154
821	-0.154
821	-0.153
822	-0.152
822	-0.15
823	-0.147
823	-0.147
823	-0.148
824	-0.147
824	-0.142
825	-0.135
825	-0.127
826	-0.119
826	-0.112
826	-0.105
827	-0.099
827	-0.093
828	-0.088
828	-0.083
829	-0.078
829	-0.073
829	-0.07
830	-0.067
830	-0.063
831	-0.059
831	-0.055
832	-0.051
832	-0.048
832	-0.045
833	-0.042
833	-0.041
834	-0.039
834	-0.038
835	-0.037
835	-0.037
835	-0.038
836	-0.038
836	-0.038
837	-0.037
837	-0.037
838	-0.037
838	-0.036
839	-0.036
839	-0.036
839	-0.035
840	-0.034
840	-0.033
841	-0.032
841	-0.031
842	-0.031
842	-0.03
842	-0.029
843	-0.028
843	-0.027
844	-0.026
844	-0.026
845	-0.025
845	-0.025
845	-0.024
846	-0.023
846	-0.022
847	-0.021
847	-0.019
848	-0.018
848	-0.017
848	-0.016
849	-0.014
849	-0.013
850	-0.012
850	-0.012
851	-0.011
851	-0.011
851	-0.011
852	-0.011
852	-0.011
853	-0.011
853	-0.011
854	-0.012
854	-0.012
854	-0.012
855	-0.012
855	-0.011
856	-0.011
856	-0.011
857	-0.011
857	-0.011
857	-0.01
858	-0.01
858	-0.01
859	-0.01
859	-0.009
860	-0.009
860	-0.008
860	-0.007
861	-0.007
861	-0.006
862	-0.006
862	-0.005
863	-0.005
863	-0.004
863	-0.003
864	-0.003
864	-0.002
865	-0.002
865	-0.002
866	-0.002
866	-0.001
866	-0.001
867	-0
867	-0
868	-0
868	-0
869	-0
869	-0.001
869	-0.001
870	-0.001
870	-0.002
871	-0.002
871	-0.003
872	-0.003
872	-0.004
872	-0.004
873	-0.005
873	-0.005
874	-0.005
874	-0.005
875	-0.006
875	-0.006
875	-0.007
876	-0.007
876	-0.007
877	-0.007
877	-0.006
878	-0.006
878	-0.006
878	-0.006
879	-0.005
879	-0.004
880	-0.004
880	-0.003
881	-0.002
881	-0.002
881	-0.001
882	-0
882	0
883	0.001
883	0.002
884	0.003
884	0.004
884	0.004
885	0.005
885	0.005
886	0.006
886	0.006
887	0.006
887	0.006
887	0.006
888	0.005
888	0.005
889	0.005
889	0.006
890	0.006
890	0.007
890	0.008
891	0.008
891	0.009
892	0.01
892	0.01
893	0.011
893	0.012
893	0.012
894	0.013
894	0.013
895	0.014
895	0.014
895	0.014
896	0.014
896	0.014
897	0.014
897	0.013
898	0.013
898	0.012
898	0.011
899	0.01
899	0.009
900	0.008
900	0.006
901	0.005
901	0.004
901	0.003
902	0.003
902	0.002
903	0.002
903	0.001
904	0.001
904	0.001
904	0.001
905	0.001
905	0.002
906	0.002
906	0.002
907	0.002
907	0.002
907	0.002
908	0.002
908	0.002
909	0.002
909	0.002
910	0.001
910	0.001
910	0.001
911	0.001
911	0.001
912	0.001
912	0.002
913	0.003
913	0.004
913	0.005
914	0.006
914	0.007
915	0.008
915	0.01
916	0.011
916	0.012
916	0.013
917	0.013
917	0.014
918	0.014
918	0.014
918	0.014
919	0.014
919	0.013
920	0.013
920	0.012
921	0.011
921	0.01
921	0.008
922	0.007
922	0.006
923	0.005
923	0.004
924	0.003
924	0.002
924	0.001
925	0.001
925	0.001
926	0.001
926	0.002
927	0.002
927	0.002
927	0.003
928	0.004
928	0.004
929	0.005
929	0.005
930	0.006
930	0.006
930	0.006
931	0.006
931	0.007
932	0.007
932	0.008
933	0.008
933	0.009
933	0.01
934	0.01
934	0.011
935	0.012
935	0.012
935	0.013
936	0.013
936	0.014
937	0.014
937	0.013
938	0.013
938	0.012
938	0.012
939	0.011
939	0.011
940	0.011
940	0.011
941	0.011
941	0.012
941	0.012
942	0.013
942	0.014
943	0.015
943	0.016
944	0.016
944	0.017
944	0.017
945	0.018
945	0.018
946	0.019
946	0.019
946	0.019
947	0.019
947	0.019
948	0.018
948	0.018
949	0.018
949	0.017
949	0.017
950	0.016
950	0.015
951	0.015
951	0.014
952	0.014
952	0.014
952	0.014
953	0.014
953	0.014
954	0.014
954	0.014
955	0.014
955	0.014
955	0.014
956	0.015
956	0.015
957	0.014
957	0.014
957	0.014
958	0.013
958	0.013
959	0.013
959	0.013
960	0.013
960	0.013
960	0.013
961	0.013
961	0.013
962	0.013
962	0.013
963	0.013
963	0.013
963	0.013
964	0.013
964	0.012
965	0.012
965	0.012
966	0.012
966	0.011
966	0.011
967	0.01
967	0.009
968	0.009
968	0.009
968	0.009
969	0.009
969	0.009
970	0.009
970	0.009
971	0.009
971	0.01
971	0.011
972	0.012
972	0.013
973	0.014
973	0.014
974	0.015
974	0.016
974	0.016
975	0.016
975	0.016
976	0.016
976	0.015
976	0.015
977	0.014
977	0.013
978	0.012
978	0.01
979	0.009
979	0.008
979	0.008
980	0.007
980	0.006
981	0.006
981	0.005
982	0.005
982	0.005
982	0.005
983	0.005
983	0.005
984	0.005
984	0.005
984	0.005
985	0.004
985	0.004
986	0.003
986	0.002
987	0.001
987	0.001
987	0.001
988	0
988	0
989	0.001
989	0.001
990	0.002
990	0.002
990	0.003
991	0.004
991	0.005
992	0.006
992	0.007
992	0.007
993	0.007
993	0.007
994	0.007
994	0.007
995	0.007
995	0.007
995	0.006
996	0.006
996	0.005
997	0.004
997	0.004
997	0.003
998	0.002
998	0.002
999	0.002
999	0.002
1000	0.002
1000	0.001
1000	0.001
1001	0.001
1001	0.002
1002	0.002
1002	0.002
1003	0.002
1003	0.002
1003	0.002
1004	0.002
1004	0.001
1005	0.001
1005	0.001
1005	0.001
1006	0
1006	-0
1007	-0.001
1007	-0.001
1008	-0.001
1008	-0.001
1008	-0.001
1009	-0.001
1009	-0
1010	0
1010	0.001
1010	0.002
1011	0.003
1011	0.004
1012	0.005
1012	0.006
1013	0.007
1013	0.007
1013	0.007
1014	0.008
1014	0.007
1015	0.007
1015	0.007
1016	0.007
1016	0.007
1016	0.006
1017	0.006
1017	0.007
1018	0.007
1018	0.007
1018	0.008
1019	0.008
1019	0.009
1020	0.009
1020	0.009
1021	0.009
1021	0.009
1021	0.009
1022	0.009
1022	0.009
1023	0.009
1023	0.009
1023	0.009
1024	0.009
1024	0.009
1025	0.009
1025	0.01
1026	0.01
1026	0.01
1026	0.01
1027	0.011
1027	0.011
1028	0.011
1028	0.011
1028	0.011
1029	0.011
1029	0.011
1030	0.011
1030	0.01
1031	0.01
1031	0.01
1031	0.009
1032	0.008
1032	0.007
1033	0.007
1033	0.006
1033	0.006
1034	0.005
1034	0.004
1035	0.004
1035	0.004
1036	0.004
1036	0.004
1036	0.004
1037	0.005
1037	0.005
1038	0.006
1038	0.006
1039	0.007
1039	0.008
1039	0.009
1040	0.009
1040	0.01
1041	0.011
1041	0.011
1041	0.012
1042	0.013
1042	0.014
1043	0.015
1043	0.016
1044	0.016
1044	0.017
1044	0.018
1045	0.019
1045	0.02
1046	0.021
1046	0.022
1046	0.024
1047	0.026
1047	0.027
1048	0.029
1048	0.031
1049	0.032
1049	0.033
1049	0.034
1050	0.034
1050	0.034
1051	0.035
1051	0.034
1051	0.034
1052	0.034
1052	0.034
1053	0.033
1053	0.033
1053	0.032
1054	0.032
1054	0.031
1055	0.031
1055	0.03
1056	0.03
1056	0.029
1056	0.028
1057	0.026
1057	0.026
1058	0.026
1058	0.026
1058	0.026
1059	0.026
1059	0.026
1060	0.026
1060	0.027
1061	0.027
1061	0.028
1061	0.029
1062	0.03
1062	0.03
1063	0.031
1063	0.032
1063	0.033
1064	0.034
1064	0.036
1065	0.037
1065	0.039
1066	0.041
1066	0.043
1066	0.046
1067	0.048
1067	0.05
1068	0.053
1068	0.054
1068	0.056
1069	0.057
1069	0.058
1070	0.06
1070	0.061
1071	0.062
1071	0.063
1071	0.063
1072	0.065
1072	0.066
1073	0.067
1073	0.069
1073	0.07
1074	0.072
1074	0.073
1075	0.073
1075	0.074
1076	0.075
1076	0.076
1076	0.077
1077	0.078
1077	0.079
1078	0.081
1078	0.082
1078	0.084
1079	0.086
1079	0.088
1080	0.09
1080	0.092
1080	0.094
1081	0.097
1081	0.1
1082	0.103
1082	0.104
1083	0.106
1083	0.109
1083	0.112
1084	0.115
1084	0.119
1085	0.122
1085	0.125
1085	0.127
1086	0.13
1086	0.133
1087	0.137
1087	0.141
1088	0.144
1088	0.148
1088	0.153
1089	0.157
1089	0.162
1090	0.168
1090	0.176
1090	0.183
1091	0.19
1091	0.199
1092	0.209
1092	0.22
1092	0.23
1093	0.241
1093	0.253
1094	0.265
1094	0.278
1095	0.29
1095	0.306
1095	0.325
1096	0.342
1096	0.363
1097	0.387
1097	0.411
1097	0.438
1098	0.469
1098	0.506
1099	0.545
1099	0.596
1100	0.654
1100	0.728
1100	0.817
1101	0.941
1101	1.124
1102	1.529
1102	-0
1102	-0
1103	-0
1103	-0
1104	-0
1104	-0
1104	-0
1105	-0
1105	-0
1106	-0
1106	-0
1107	-0
1107	-0
1107	-0
1108	-0
1108	-0
1109	-0
1109	-0
1109	-0
1110	-0
1110	-0
1111	-0
1111	-0
