Data from 15c-2-4a_Absorbance__2735__02735.txt Node

Date: Thu Jan 25 11:35:20 CET 2024
User: Marek
Spectrometer: MAYP115816
Trigger mode: 0
Integration Time (sec): 2.000000E-1
Scans to average: 10
Electric dark correction enabled: true
Nonlinearity correction enabled: true
Boxcar width: 5
XAxis mode: Wavelengths
Number of Pixels in Spectrum: 2068
>>>>>Begin Spectral Data<<<<<
199	-2.192
199	-2.022
200	-1.868
200	-1.746
201	-1.667
201	-1.61
202	-1.527
202	-1.466
203	-1.414
203	-1.367
204	-1.341
204	-1.313
205	-1.292
205	-1.28
205	-1.274
206	-1.27
206	-1.266
207	-1.266
207	-1.263
208	-1.258
208	-1.254
209	-1.25
209	-1.247
210	-1.244
210	-1.242
211	-1.241
211	-1.24
212	-1.236
212	-1.233
213	-1.231
213	-1.232
213	-1.232
214	-1.231
214	-1.229
215	-1.228
215	-1.226
216	-1.223
216	-1.222
217	-1.22
217	-1.217
218	-1.216
218	-1.213
219	-1.211
219	-1.208
220	-1.208
220	-1.203
221	-1.2
221	-1.198
221	-1.195
222	-1.192
222	-1.191
223	-1.186
223	-1.18
224	-1.173
224	-1.164
225	-1.155
225	-1.147
226	-1.135
226	-1.123
227	-1.108
227	-1.094
228	-1.075
228	-1.055
229	-1.033
229	-1.009
229	-0.982
230	-0.952
230	-0.921
231	-0.885
231	-0.845
232	-0.803
232	-0.757
233	-0.71
233	-0.661
234	-0.612
234	-0.561
235	-0.509
235	-0.459
236	-0.408
236	-0.36
236	-0.313
237	-0.267
237	-0.223
238	-0.182
238	-0.141
239	-0.103
239	-0.068
240	-0.035
240	-0.003
241	0.026
241	0.054
242	0.079
242	0.103
243	0.125
243	0.145
243	0.164
244	0.182
244	0.198
245	0.212
245	0.226
246	0.239
246	0.251
247	0.262
247	0.272
248	0.282
248	0.291
249	0.299
249	0.306
250	0.314
250	0.321
250	0.328
251	0.334
251	0.34
252	0.346
252	0.351
253	0.356
253	0.361
254	0.365
254	0.369
255	0.373
255	0.377
256	0.38
256	0.383
257	0.386
257	0.388
258	0.39
258	0.392
258	0.394
259	0.396
259	0.397
260	0.399
260	0.4
261	0.401
261	0.402
262	0.402
262	0.403
263	0.404
263	0.404
264	0.404
264	0.405
265	0.405
265	0.405
265	0.404
266	0.404
266	0.404
267	0.403
267	0.403
268	0.402
268	0.402
269	0.401
269	0.4
270	0.399
270	0.398
271	0.396
271	0.395
272	0.394
272	0.393
272	0.392
273	0.39
273	0.389
274	0.387
274	0.386
275	0.384
275	0.383
276	0.381
276	0.379
277	0.377
277	0.375
278	0.372
278	0.37
278	0.367
279	0.365
279	0.364
280	0.363
280	0.361
281	0.36
281	0.359
282	0.358
282	0.357
283	0.357
283	0.356
284	0.355
284	0.354
285	0.353
285	0.352
285	0.35
286	0.349
286	0.347
287	0.346
287	0.345
288	0.343
288	0.342
289	0.34
289	0.339
290	0.338
290	0.337
291	0.335
291	0.334
292	0.333
292	0.332
292	0.331
293	0.33
293	0.329
294	0.328
294	0.327
295	0.326
295	0.325
296	0.324
296	0.323
297	0.322
297	0.321
298	0.32
298	0.319
298	0.318
299	0.317
299	0.317
300	0.316
300	0.315
301	0.314
301	0.313
302	0.312
302	0.311
303	0.31
303	0.31
304	0.309
304	0.308
305	0.307
305	0.306
305	0.306
306	0.305
306	0.304
307	0.303
307	0.302
308	0.301
308	0.3
309	0.299
309	0.299
310	0.297
310	0.297
311	0.296
311	0.295
311	0.294
312	0.293
312	0.293
313	0.292
313	0.291
314	0.29
314	0.289
315	0.288
315	0.287
316	0.286
316	0.285
317	0.284
317	0.283
318	0.282
318	0.281
318	0.28
319	0.279
319	0.278
320	0.277
320	0.276
321	0.275
321	0.273
322	0.272
322	0.271
323	0.271
323	0.269
324	0.269
324	0.268
324	0.267
325	0.266
325	0.265
326	0.264
326	0.264
327	0.263
327	0.262
328	0.261
328	0.26
329	0.259
329	0.258
330	0.257
330	0.257
330	0.256
331	0.255
331	0.254
332	0.253
332	0.252
333	0.251
333	0.25
334	0.249
334	0.248
335	0.247
335	0.247
336	0.246
336	0.245
336	0.244
337	0.243
337	0.243
338	0.242
338	0.241
339	0.24
339	0.24
340	0.239
340	0.238
341	0.238
341	0.237
342	0.236
342	0.235
342	0.235
343	0.234
343	0.233
344	0.232
344	0.232
345	0.231
345	0.23
346	0.229
346	0.229
347	0.228
347	0.227
348	0.227
348	0.226
348	0.225
349	0.224
349	0.223
350	0.223
350	0.222
351	0.221
351	0.22
352	0.219
352	0.218
353	0.218
353	0.217
354	0.216
354	0.215
354	0.214
355	0.212
355	0.211
356	0.21
356	0.21
357	0.209
357	0.209
358	0.209
358	0.209
359	0.21
359	0.211
360	0.211
360	0.212
360	0.213
361	0.213
361	0.213
362	0.213
362	0.213
363	0.213
363	0.213
364	0.212
364	0.211
365	0.211
365	0.21
366	0.21
366	0.209
366	0.209
367	0.209
367	0.208
368	0.208
368	0.207
369	0.207
369	0.206
370	0.206
370	0.205
371	0.205
371	0.204
372	0.204
372	0.203
372	0.203
373	0.202
373	0.202
374	0.202
374	0.202
375	0.201
375	0.201
376	0.201
376	0.201
377	0.201
377	0.201
378	0.202
378	0.202
378	0.202
379	0.202
379	0.202
380	0.202
380	0.202
381	0.202
381	0.201
382	0.201
382	0.2
383	0.2
383	0.2
383	0.199
384	0.198
384	0.198
385	0.198
385	0.197
386	0.197
386	0.197
387	0.197
387	0.197
388	0.197
388	0.197
389	0.197
389	0.197
389	0.196
390	0.196
390	0.196
391	0.197
391	0.197
392	0.197
392	0.197
393	0.196
393	0.196
394	0.196
394	0.196
394	0.196
395	0.195
395	0.195
396	0.194
396	0.194
397	0.194
397	0.194
398	0.194
398	0.194
399	0.194
399	0.193
400	0.193
400	0.193
400	0.192
401	0.191
401	0.19
402	0.189
402	0.188
403	0.188
403	0.188
404	0.188
404	0.187
405	0.187
405	0.186
405	0.186
406	0.186
406	0.186
407	0.185
407	0.185
408	0.185
408	0.184
409	0.183
409	0.183
410	0.182
410	0.182
411	0.183
411	0.182
411	0.182
412	0.182
412	0.181
413	0.181
413	0.18
414	0.18
414	0.18
415	0.18
415	0.179
416	0.179
416	0.178
416	0.178
417	0.177
417	0.177
418	0.177
418	0.177
419	0.177
419	0.178
420	0.178
420	0.179
421	0.179
421	0.179
421	0.18
422	0.18
422	0.18
423	0.18
423	0.18
424	0.179
424	0.178
425	0.177
425	0.176
426	0.175
426	0.175
427	0.174
427	0.175
427	0.175
428	0.175
428	0.176
429	0.177
429	0.177
430	0.177
430	0.177
431	0.177
431	0.177
432	0.176
432	0.176
432	0.174
433	0.173
433	0.172
434	0.171
434	0.17
435	0.17
435	0.17
436	0.17
436	0.17
437	0.17
437	0.17
437	0.17
438	0.17
438	0.17
439	0.169
439	0.169
440	0.169
440	0.168
441	0.168
441	0.168
442	0.168
442	0.169
442	0.169
443	0.169
443	0.169
444	0.169
444	0.17
445	0.17
445	0.17
446	0.17
446	0.17
447	0.17
447	0.169
447	0.169
448	0.169
448	0.169
449	0.169
449	0.168
450	0.168
450	0.168
451	0.168
451	0.167
452	0.166
452	0.166
452	0.165
453	0.165
453	0.164
454	0.164
454	0.163
455	0.163
455	0.163
456	0.162
456	0.162
457	0.162
457	0.162
458	0.162
458	0.162
458	0.162
459	0.162
459	0.162
460	0.162
460	0.161
461	0.16
461	0.16
462	0.16
462	0.16
463	0.16
463	0.16
463	0.161
464	0.162
464	0.162
465	0.162
465	0.162
466	0.163
466	0.163
467	0.163
467	0.162
467	0.161
468	0.16
468	0.158
469	0.156
469	0.154
470	0.153
470	0.152
471	0.152
471	0.151
472	0.151
472	0.151
472	0.152
473	0.153
473	0.154
474	0.156
474	0.157
475	0.158
475	0.159
476	0.16
476	0.16
477	0.16
477	0.161
477	0.162
478	0.162
478	0.162
479	0.163
479	0.164
480	0.164
480	0.166
481	0.167
481	0.167
482	0.168
482	0.17
482	0.171
483	0.173
483	0.176
484	0.18
484	0.183
485	0.185
485	0.187
486	0.188
486	0.189
487	0.19
487	0.19
487	0.19
488	0.19
488	0.188
489	0.186
489	0.184
490	0.182
490	0.181
491	0.181
491	0.181
492	0.182
492	0.183
492	0.183
493	0.184
493	0.185
494	0.187
494	0.19
495	0.192
495	0.194
496	0.195
496	0.196
496	0.197
497	0.198
497	0.199
498	0.2
498	0.201
499	0.201
499	0.201
500	0.202
500	0.203
501	0.205
501	0.207
501	0.209
502	0.211
502	0.212
503	0.214
503	0.215
504	0.216
504	0.217
505	0.218
505	0.219
506	0.219
506	0.22
506	0.22
507	0.22
507	0.22
508	0.22
508	0.221
509	0.222
509	0.223
510	0.223
510	0.223
511	0.223
511	0.223
511	0.224
512	0.225
512	0.225
513	0.224
513	0.223
514	0.221
514	0.22
515	0.22
515	0.22
515	0.22
516	0.22
516	0.219
517	0.219
517	0.219
518	0.218
518	0.217
519	0.215
519	0.213
520	0.21
520	0.207
520	0.204
521	0.201
521	0.199
522	0.197
522	0.196
523	0.196
523	0.198
524	0.201
524	0.204
524	0.208
525	0.212
525	0.215
526	0.218
526	0.22
527	0.223
527	0.224
528	0.226
528	0.227
529	0.227
529	0.227
529	0.227
530	0.227
530	0.227
531	0.227
531	0.227
532	0.227
532	0.226
533	0.226
533	0.226
533	0.225
534	0.225
534	0.224
535	0.223
535	0.222
536	0.221
536	0.22
537	0.22
537	0.219
538	0.218
538	0.216
538	0.215
539	0.214
539	0.213
540	0.212
540	0.21
541	0.209
541	0.207
542	0.205
542	0.203
542	0.201
543	0.2
543	0.198
544	0.196
544	0.195
545	0.193
545	0.193
546	0.193
546	0.192
547	0.191
547	0.188
547	0.185
548	0.183
548	0.18
549	0.178
549	0.176
550	0.173
550	0.171
551	0.167
551	0.164
551	0.162
552	0.16
552	0.159
553	0.158
553	0.157
554	0.156
554	0.155
555	0.152
555	0.149
556	0.146
556	0.143
556	0.139
557	0.136
557	0.133
558	0.13
558	0.128
559	0.126
559	0.124
560	0.123
560	0.122
560	0.122
561	0.122
561	0.122
562	0.121
562	0.121
563	0.119
563	0.116
564	0.114
564	0.111
564	0.108
565	0.105
565	0.104
566	0.102
566	0.1
567	0.1
567	0.1
568	0.1
568	0.102
568	0.103
569	0.105
569	0.107
570	0.108
570	0.108
571	0.109
571	0.11
572	0.11
572	0.11
573	0.11
573	0.109
573	0.108
574	0.108
574	0.107
575	0.106
575	0.107
576	0.108
576	0.108
577	0.107
577	0.105
577	0.104
578	0.103
578	0.102
579	0.102
579	0.103
580	0.103
580	0.101
581	0.098
581	0.096
581	0.094
582	0.094
582	0.093
583	0.094
583	0.094
584	0.092
584	0.089
585	0.087
585	0.085
585	0.085
586	0.084
586	0.084
587	0.082
587	0.08
588	0.077
588	0.074
589	0.072
589	0.07
590	0.068
590	0.067
590	0.066
591	0.066
591	0.066
592	0.066
592	0.065
593	0.064
593	0.064
594	0.064
594	0.064
594	0.063
595	0.063
595	0.062
596	0.06
596	0.06
597	0.062
597	0.063
598	0.065
598	0.066
598	0.067
599	0.067
599	0.067
600	0.066
600	0.065
601	0.064
601	0.063
602	0.061
602	0.06
602	0.058
603	0.056
603	0.056
604	0.056
604	0.057
605	0.058
605	0.06
606	0.06
606	0.06
606	0.06
607	0.059
607	0.059
608	0.059
608	0.058
609	0.057
609	0.056
610	0.055
610	0.053
610	0.053
611	0.053
611	0.053
612	0.054
612	0.055
613	0.057
613	0.059
614	0.059
614	0.059
614	0.06
615	0.06
615	0.059
616	0.059
616	0.058
617	0.057
617	0.056
618	0.054
618	0.053
618	0.052
619	0.051
619	0.051
620	0.052
620	0.053
621	0.053
621	0.054
622	0.054
622	0.055
622	0.056
623	0.056
623	0.057
624	0.058
624	0.058
625	0.058
625	0.058
626	0.057
626	0.057
626	0.057
627	0.058
627	0.058
628	0.058
628	0.059
629	0.059
629	0.06
630	0.059
630	0.059
630	0.059
631	0.06
631	0.06
632	0.06
632	0.06
633	0.061
633	0.062
634	0.063
634	0.064
634	0.066
635	0.068
635	0.07
636	0.071
636	0.073
637	0.075
637	0.075
638	0.076
638	0.077
638	0.079
639	0.079
639	0.08
640	0.081
640	0.082
641	0.084
641	0.086
642	0.087
642	0.09
642	0.092
643	0.095
643	0.097
644	0.099
644	0.102
645	0.104
645	0.107
646	0.109
646	0.111
646	0.115
647	0.118
647	0.122
648	0.125
648	0.128
649	0.131
649	0.134
650	0.137
650	0.141
650	0.144
651	0.147
651	0.149
652	0.151
652	0.153
653	0.156
653	0.164
653	0.179
654	0.146
654	0.12
655	0.127
655	0.13
656	0.132
656	0.135
657	0.137
657	0.14
657	0.141
658	0.14
658	0.129
659	0.161
659	0.206
660	0.206
660	0.208
661	0.21
661	0.212
661	0.215
662	0.218
662	0.221
663	0.224
663	0.228
664	0.231
664	0.234
665	0.237
665	0.24
665	0.243
666	0.246
666	0.248
667	0.251
667	0.254
668	0.257
668	0.26
669	0.263
669	0.266
669	0.27
670	0.274
670	0.278
671	0.281
671	0.284
672	0.286
672	0.288
672	0.29
673	0.292
673	0.293
674	0.295
674	0.296
675	0.296
675	0.296
676	0.298
676	0.3
676	0.301
677	0.303
677	0.305
678	0.306
678	0.308
679	0.309
679	0.31
680	0.312
680	0.313
680	0.314
681	0.314
681	0.315
682	0.315
682	0.317
683	0.319
683	0.321
684	0.323
684	0.324
684	0.325
685	0.325
685	0.325
686	0.326
686	0.326
687	0.325
687	0.325
687	0.324
688	0.323
688	0.321
689	0.32
689	0.321
690	0.322
690	0.322
691	0.322
691	0.323
691	0.323
692	0.323
692	0.322
693	0.322
693	0.322
694	0.322
694	0.32
695	0.319
695	0.32
695	0.321
696	0.321
696	0.32
697	0.319
697	0.318
698	0.317
698	0.315
698	0.313
699	0.311
699	0.308
700	0.305
700	0.301
701	0.299
701	0.297
702	0.295
702	0.293
702	0.291
703	0.289
703	0.287
704	0.285
704	0.284
705	0.283
705	0.282
705	0.281
706	0.28
706	0.279
707	0.278
707	0.276
708	0.275
708	0.274
709	0.273
709	0.271
709	0.268
710	0.264
710	0.261
711	0.258
711	0.255
712	0.252
712	0.25
713	0.247
713	0.245
713	0.242
714	0.239
714	0.236
715	0.234
715	0.231
716	0.229
716	0.227
716	0.224
717	0.222
717	0.22
718	0.217
718	0.214
719	0.212
719	0.209
720	0.207
720	0.204
720	0.201
721	0.197
721	0.193
722	0.189
722	0.185
723	0.181
723	0.178
723	0.175
724	0.172
724	0.169
725	0.166
725	0.164
726	0.162
726	0.16
727	0.158
727	0.156
727	0.154
728	0.152
728	0.15
729	0.148
729	0.147
730	0.146
730	0.144
730	0.142
731	0.14
731	0.139
732	0.138
732	0.136
733	0.134
733	0.132
734	0.129
734	0.125
734	0.122
735	0.12
735	0.117
736	0.113
736	0.11
737	0.107
737	0.105
737	0.103
738	0.1
738	0.097
739	0.094
739	0.092
740	0.09
740	0.088
741	0.086
741	0.084
741	0.081
742	0.077
742	0.073
743	0.069
743	0.066
744	0.063
744	0.061
744	0.058
745	0.055
745	0.053
746	0.051
746	0.049
747	0.048
747	0.047
748	0.047
748	0.046
748	0.046
749	0.044
749	0.044
750	0.043
750	0.041
751	0.041
751	0.04
751	0.039
752	0.039
752	0.037
753	0.036
753	0.035
754	0.034
754	0.033
754	0.032
755	0.032
755	0.032
756	0.032
756	0.029
757	0.028
757	0.026
758	0.025
758	0.023
758	0.022
759	0.02
759	0.017
760	0.013
760	0.009
761	0.006
761	0.005
761	0.003
762	0.001
762	0
763	-0.001
763	-0.002
764	-0.004
764	-0.006
764	-0.008
765	-0.009
765	-0.01
766	-0.012
766	-0.012
767	-0.013
767	-0.015
768	-0.018
768	-0.02
768	-0.022
769	-0.022
769	-0.023
770	-0.024
770	-0.026
771	-0.028
771	-0.03
771	-0.033
772	-0.035
772	-0.036
773	-0.038
773	-0.041
774	-0.044
774	-0.048
775	-0.051
775	-0.054
775	-0.058
776	-0.062
776	-0.066
777	-0.07
777	-0.074
778	-0.078
778	-0.082
778	-0.086
779	-0.089
779	-0.091
780	-0.095
780	-0.1
781	-0.104
781	-0.109
781	-0.113
782	-0.117
782	-0.123
783	-0.128
783	-0.13
784	-0.133
784	-0.136
784	-0.139
785	-0.141
785	-0.143
786	-0.144
786	-0.142
787	-0.138
787	-0.134
788	-0.133
788	-0.134
788	-0.136
789	-0.138
789	-0.138
790	-0.136
790	-0.135
791	-0.135
791	-0.137
791	-0.139
792	-0.134
792	-0.123
793	-0.116
793	-0.111
794	-0.109
794	-0.11
794	-0.113
795	-0.115
795	-0.115
796	-0.115
796	-0.118
797	-0.126
797	-0.137
797	-0.144
798	-0.15
798	-0.154
799	-0.155
799	-0.155
800	-0.155
800	-0.157
801	-0.16
801	-0.161
801	-0.161
802	-0.162
802	-0.163
803	-0.164
803	-0.163
804	-0.162
804	-0.156
804	-0.149
805	-0.145
805	-0.143
806	-0.14
806	-0.139
807	-0.138
807	-0.137
807	-0.136
808	-0.136
808	-0.136
809	-0.14
809	-0.145
810	-0.148
810	-0.151
810	-0.154
811	-0.156
811	-0.157
812	-0.153
812	-0.15
813	-0.151
813	-0.152
813	-0.154
814	-0.155
814	-0.156
815	-0.154
815	-0.152
816	-0.151
816	-0.152
817	-0.157
817	-0.161
817	-0.162
818	-0.161
818	-0.158
819	-0.153
819	-0.15
820	-0.151
820	-0.153
820	-0.154
821	-0.154
821	-0.153
822	-0.152
822	-0.15
823	-0.148
823	-0.147
823	-0.149
824	-0.148
824	-0.143
825	-0.137
825	-0.129
826	-0.121
826	-0.114
826	-0.107
827	-0.101
827	-0.095
828	-0.089
828	-0.084
829	-0.079
829	-0.074
829	-0.071
830	-0.067
830	-0.064
831	-0.06
831	-0.055
832	-0.052
832	-0.049
832	-0.046
833	-0.043
833	-0.041
834	-0.04
834	-0.038
835	-0.037
835	-0.037
835	-0.037
836	-0.036
836	-0.036
837	-0.036
837	-0.036
838	-0.035
838	-0.035
839	-0.035
839	-0.035
839	-0.035
840	-0.034
840	-0.034
841	-0.033
841	-0.033
842	-0.032
842	-0.031
842	-0.03
843	-0.03
843	-0.029
844	-0.028
844	-0.027
845	-0.026
845	-0.025
845	-0.024
846	-0.023
846	-0.022
847	-0.021
847	-0.02
848	-0.019
848	-0.018
848	-0.016
849	-0.015
849	-0.014
850	-0.013
850	-0.013
851	-0.012
851	-0.012
851	-0.011
852	-0.011
852	-0.011
853	-0.011
853	-0.011
854	-0.011
854	-0.011
854	-0.011
855	-0.011
855	-0.01
856	-0.01
856	-0.01
857	-0.009
857	-0.009
857	-0.008
858	-0.007
858	-0.007
859	-0.006
859	-0.005
860	-0.004
860	-0.003
860	-0.003
861	-0.002
861	-0.001
862	-0.002
862	-0.002
863	-0.001
863	-0.001
863	-0.001
864	-0.001
864	-0.002
865	-0.002
865	-0.002
866	-0.003
866	-0.003
866	-0.002
867	-0.002
867	-0.002
868	-0.002
868	-0.002
869	-0.001
869	-0.001
869	-0.001
870	-0.001
870	-0.001
871	-0.001
871	-0.001
872	-0.001
872	-0.001
872	-0.001
873	-0.001
873	-0.002
874	-0.002
874	-0.003
875	-0.004
875	-0.005
875	-0.006
876	-0.006
876	-0.007
877	-0.007
877	-0.008
878	-0.008
878	-0.008
878	-0.007
879	-0.007
879	-0.006
880	-0.005
880	-0.003
881	-0.002
881	-0.001
881	0
882	0.001
882	0.002
883	0.003
883	0.004
884	0.005
884	0.005
884	0.006
885	0.006
885	0.006
886	0.006
886	0.007
887	0.007
887	0.007
887	0.007
888	0.007
888	0.007
889	0.008
889	0.009
890	0.009
890	0.01
890	0.011
891	0.012
891	0.012
892	0.013
892	0.013
893	0.014
893	0.014
893	0.015
894	0.015
894	0.015
895	0.015
895	0.015
895	0.014
896	0.014
896	0.013
897	0.013
897	0.012
898	0.011
898	0.01
898	0.009
899	0.008
899	0.008
900	0.007
900	0.006
901	0.005
901	0.004
901	0.003
902	0.003
902	0.002
903	0.002
903	0.002
904	0.001
904	0.001
904	0.002
905	0.002
905	0.002
906	0.002
906	0.003
907	0.003
907	0.003
907	0.003
908	0.002
908	0.002
909	0.002
909	0.002
910	0.001
910	0.001
910	0.001
911	0.001
911	0.002
912	0.002
912	0.003
913	0.005
913	0.006
913	0.008
914	0.009
914	0.01
915	0.012
915	0.013
916	0.014
916	0.015
916	0.016
917	0.016
917	0.016
918	0.016
918	0.016
918	0.016
919	0.015
919	0.015
920	0.014
920	0.014
921	0.013
921	0.012
921	0.011
922	0.01
922	0.01
923	0.009
923	0.008
924	0.007
924	0.006
924	0.005
925	0.005
925	0.005
926	0.005
926	0.005
927	0.005
927	0.005
927	0.005
928	0.006
928	0.007
929	0.008
929	0.008
930	0.009
930	0.009
930	0.01
931	0.01
931	0.011
932	0.012
932	0.012
933	0.013
933	0.013
933	0.014
934	0.014
934	0.014
935	0.014
935	0.014
935	0.014
936	0.014
936	0.014
937	0.014
937	0.014
938	0.014
938	0.014
938	0.014
939	0.014
939	0.014
940	0.014
940	0.015
941	0.016
941	0.017
941	0.017
942	0.018
942	0.019
943	0.02
943	0.02
944	0.021
944	0.021
944	0.022
945	0.023
945	0.023
946	0.024
946	0.024
946	0.024
947	0.025
947	0.024
948	0.024
948	0.024
949	0.023
949	0.023
949	0.023
950	0.022
950	0.022
951	0.021
951	0.02
952	0.02
952	0.02
952	0.02
953	0.02
953	0.019
954	0.019
954	0.019
955	0.019
955	0.019
955	0.019
956	0.019
956	0.019
957	0.019
957	0.019
957	0.019
958	0.019
958	0.019
959	0.019
959	0.019
960	0.019
960	0.019
960	0.019
961	0.018
961	0.018
962	0.018
962	0.017
963	0.017
963	0.016
963	0.016
964	0.015
964	0.014
965	0.013
965	0.013
966	0.012
966	0.012
966	0.011
967	0.011
967	0.011
968	0.01
968	0.01
968	0.01
969	0.01
969	0.01
970	0.01
970	0.01
971	0.01
971	0.01
971	0.011
972	0.011
972	0.012
973	0.013
973	0.013
974	0.014
974	0.014
974	0.014
975	0.015
975	0.015
976	0.015
976	0.015
976	0.014
977	0.013
977	0.012
978	0.012
978	0.011
979	0.01
979	0.009
979	0.008
980	0.008
980	0.007
981	0.006
981	0.006
982	0.006
982	0.006
982	0.006
983	0.006
983	0.007
984	0.007
984	0.007
984	0.007
985	0.007
985	0.006
986	0.006
986	0.005
987	0.004
987	0.004
987	0.003
988	0.003
988	0.003
989	0.003
989	0.003
990	0.003
990	0.004
990	0.005
991	0.006
991	0.006
992	0.007
992	0.008
992	0.009
993	0.009
993	0.01
994	0.01
994	0.01
995	0.01
995	0.01
995	0.009
996	0.009
996	0.008
997	0.007
997	0.006
997	0.005
998	0.005
998	0.005
999	0.004
999	0.004
1000	0.004
1000	0.005
1000	0.005
1001	0.005
1001	0.005
1002	0.005
1002	0.005
1003	0.005
1003	0.004
1003	0.004
1004	0.003
1004	0.003
1005	0.002
1005	0.002
1005	0.001
1006	0
1006	0
1007	-0
1007	-0
1008	0
1008	0
1008	0.001
1009	0.002
1009	0.002
1010	0.003
1010	0.005
1010	0.006
1011	0.007
1011	0.008
1012	0.009
1012	0.01
1013	0.01
1013	0.011
1013	0.011
1014	0.011
1014	0.011
1015	0.01
1015	0.01
1016	0.01
1016	0.009
1016	0.009
1017	0.009
1017	0.009
1018	0.009
1018	0.009
1018	0.009
1019	0.01
1019	0.01
1020	0.01
1020	0.011
1021	0.011
1021	0.011
1021	0.011
1022	0.012
1022	0.012
1023	0.012
1023	0.012
1023	0.012
1024	0.012
1024	0.012
1025	0.012
1025	0.013
1026	0.013
1026	0.013
1026	0.013
1027	0.013
1027	0.014
1028	0.014
1028	0.014
1028	0.014
1029	0.013
1029	0.013
1030	0.013
1030	0.012
1031	0.011
1031	0.011
1031	0.01
1032	0.009
1032	0.008
1033	0.007
1033	0.007
1033	0.006
1034	0.005
1034	0.005
1035	0.005
1035	0.005
1036	0.004
1036	0.005
1036	0.005
1037	0.006
1037	0.007
1038	0.007
1038	0.008
1039	0.009
1039	0.01
1039	0.011
1040	0.012
1040	0.013
1041	0.013
1041	0.014
1041	0.014
1042	0.015
1042	0.015
1043	0.016
1043	0.017
1044	0.017
1044	0.018
1044	0.019
1045	0.02
1045	0.021
1046	0.023
1046	0.024
1046	0.026
1047	0.028
1047	0.03
1048	0.031
1048	0.033
1049	0.034
1049	0.034
1049	0.035
1050	0.035
1050	0.035
1051	0.036
1051	0.035
1051	0.035
1052	0.034
1052	0.034
1053	0.033
1053	0.032
1053	0.032
1054	0.031
1054	0.031
1055	0.03
1055	0.03
1056	0.029
1056	0.028
1056	0.027
1057	0.027
1057	0.027
1058	0.027
1058	0.026
1058	0.026
1059	0.026
1059	0.027
1060	0.027
1060	0.028
1061	0.028
1061	0.029
1061	0.03
1062	0.031
1062	0.031
1063	0.032
1063	0.033
1063	0.034
1064	0.035
1064	0.037
1065	0.039
1065	0.041
1066	0.043
1066	0.045
1066	0.048
1067	0.05
1067	0.053
1068	0.056
1068	0.057
1068	0.059
1069	0.061
1069	0.062
1070	0.063
1070	0.064
1071	0.065
1071	0.066
1071	0.066
1072	0.067
1072	0.068
1073	0.07
1073	0.07
1073	0.072
1074	0.073
1074	0.074
1075	0.074
1075	0.075
1076	0.075
1076	0.076
1076	0.076
1077	0.077
1077	0.078
1078	0.08
1078	0.081
1078	0.083
1079	0.085
1079	0.088
1080	0.09
1080	0.094
1080	0.097
1081	0.1
1081	0.103
1082	0.106
1082	0.108
1083	0.111
1083	0.114
1083	0.117
1084	0.12
1084	0.124
1085	0.128
1085	0.131
1085	0.135
1086	0.138
1086	0.141
1087	0.146
1087	0.15
1088	0.154
1088	0.158
1088	0.163
1089	0.168
1089	0.173
1090	0.18
1090	0.187
1090	0.195
1091	0.204
1091	0.213
1092	0.222
1092	0.234
1092	0.244
1093	0.254
1093	0.267
1094	0.28
1094	0.294
1095	0.307
1095	0.323
1095	0.342
1096	0.362
1096	0.385
1097	0.41
1097	0.438
1097	0.468
1098	0.501
1098	0.539
1099	0.582
1099	0.633
1100	0.698
1100	0.778
1100	0.876
1101	1.017
1101	1.242
1102	1.887
1102	-0
1102	-0
1103	-0
1103	-0
1104	-0
1104	-0
1104	-0
1105	-0
1105	-0
1106	-0
1106	-0
1107	-0
1107	-0
1107	-0
1108	-0
1108	-0
1109	-0
1109	-0
1109	-0
1110	-0
1110	-0
1111	-0
1111	-0
