Data from 15c-2-4a_Absorbance__670__00670.txt Node

Date: Thu Jan 25 10:26:30 CET 2024
User: Marek
Spectrometer: MAYP115816
Trigger mode: 0
Integration Time (sec): 2.000000E-1
Scans to average: 10
Electric dark correction enabled: true
Nonlinearity correction enabled: true
Boxcar width: 5
XAxis mode: Wavelengths
Number of Pixels in Spectrum: 2068
>>>>>Begin Spectral Data<<<<<
199	-2.132
199	-1.962
200	-1.808
200	-1.686
201	-1.608
201	-1.551
202	-1.468
202	-1.406
203	-1.354
203	-1.307
204	-1.282
204	-1.254
205	-1.233
205	-1.221
205	-1.215
206	-1.211
206	-1.207
207	-1.207
207	-1.204
208	-1.199
208	-1.196
209	-1.191
209	-1.188
210	-1.186
210	-1.183
211	-1.182
211	-1.18
212	-1.177
212	-1.174
213	-1.172
213	-1.173
213	-1.173
214	-1.172
214	-1.171
215	-1.169
215	-1.167
216	-1.165
216	-1.163
217	-1.162
217	-1.159
218	-1.157
218	-1.154
219	-1.152
219	-1.149
220	-1.148
220	-1.144
221	-1.141
221	-1.139
221	-1.135
222	-1.132
222	-1.131
223	-1.127
223	-1.12
224	-1.113
224	-1.105
225	-1.096
225	-1.088
226	-1.077
226	-1.065
227	-1.05
227	-1.037
228	-1.017
228	-0.998
229	-0.977
229	-0.954
229	-0.928
230	-0.899
230	-0.869
231	-0.835
231	-0.797
232	-0.757
232	-0.713
233	-0.669
233	-0.623
234	-0.577
234	-0.53
235	-0.482
235	-0.436
236	-0.391
236	-0.348
236	-0.307
237	-0.267
237	-0.23
238	-0.195
238	-0.163
239	-0.132
239	-0.104
240	-0.078
240	-0.053
241	-0.031
241	-0.01
242	0.009
242	0.026
243	0.042
243	0.057
243	0.07
244	0.083
244	0.094
245	0.104
245	0.114
246	0.123
246	0.131
247	0.139
247	0.146
248	0.153
248	0.159
249	0.164
249	0.17
250	0.175
250	0.18
250	0.184
251	0.189
251	0.193
252	0.197
252	0.2
253	0.204
253	0.207
254	0.21
254	0.213
255	0.216
255	0.218
256	0.22
256	0.223
257	0.225
257	0.227
258	0.228
258	0.23
258	0.231
259	0.232
259	0.233
260	0.234
260	0.235
261	0.236
261	0.236
262	0.236
262	0.236
263	0.237
263	0.237
264	0.237
264	0.237
265	0.237
265	0.237
265	0.237
266	0.236
266	0.236
267	0.236
267	0.235
268	0.235
268	0.234
269	0.233
269	0.232
270	0.231
270	0.23
271	0.229
271	0.228
272	0.227
272	0.225
272	0.224
273	0.223
273	0.221
274	0.22
274	0.219
275	0.217
275	0.216
276	0.214
276	0.213
277	0.211
277	0.21
278	0.208
278	0.206
278	0.204
279	0.203
279	0.202
280	0.201
280	0.199
281	0.198
281	0.197
282	0.196
282	0.195
283	0.195
283	0.194
284	0.193
284	0.192
285	0.191
285	0.19
285	0.189
286	0.188
286	0.187
287	0.185
287	0.184
288	0.183
288	0.182
289	0.181
289	0.18
290	0.179
290	0.178
291	0.178
291	0.177
292	0.176
292	0.175
292	0.174
293	0.174
293	0.173
294	0.172
294	0.172
295	0.171
295	0.171
296	0.17
296	0.17
297	0.169
297	0.169
298	0.169
298	0.168
298	0.168
299	0.167
299	0.167
300	0.167
300	0.166
301	0.165
301	0.165
302	0.165
302	0.164
303	0.164
303	0.163
304	0.163
304	0.162
305	0.162
305	0.161
305	0.161
306	0.161
306	0.161
307	0.16
307	0.16
308	0.159
308	0.159
309	0.158
309	0.158
310	0.157
310	0.157
311	0.157
311	0.156
311	0.156
312	0.155
312	0.155
313	0.155
313	0.154
314	0.154
314	0.153
315	0.153
315	0.152
316	0.152
316	0.151
317	0.151
317	0.15
318	0.15
318	0.149
318	0.149
319	0.148
319	0.148
320	0.147
320	0.146
321	0.146
321	0.145
322	0.145
322	0.144
323	0.144
323	0.143
324	0.143
324	0.142
324	0.142
325	0.141
325	0.141
326	0.14
326	0.14
327	0.139
327	0.139
328	0.138
328	0.138
329	0.137
329	0.137
330	0.136
330	0.136
330	0.135
331	0.135
331	0.134
332	0.134
332	0.133
333	0.133
333	0.132
334	0.132
334	0.131
335	0.131
335	0.13
336	0.13
336	0.13
336	0.129
337	0.129
337	0.128
338	0.128
338	0.127
339	0.127
339	0.127
340	0.126
340	0.126
341	0.125
341	0.125
342	0.124
342	0.124
342	0.124
343	0.123
343	0.123
344	0.122
344	0.122
345	0.121
345	0.121
346	0.12
346	0.12
347	0.119
347	0.119
348	0.118
348	0.118
348	0.117
349	0.117
349	0.116
350	0.116
350	0.115
351	0.115
351	0.114
352	0.114
352	0.113
353	0.113
353	0.112
354	0.111
354	0.111
354	0.11
355	0.109
355	0.108
356	0.107
356	0.107
357	0.107
357	0.107
358	0.107
358	0.107
359	0.108
359	0.108
360	0.109
360	0.109
360	0.11
361	0.11
361	0.11
362	0.111
362	0.111
363	0.11
363	0.11
364	0.11
364	0.109
365	0.109
365	0.109
366	0.109
366	0.108
366	0.108
367	0.108
367	0.108
368	0.108
368	0.107
369	0.107
369	0.107
370	0.107
370	0.106
371	0.106
371	0.106
372	0.105
372	0.105
372	0.105
373	0.104
373	0.104
374	0.104
374	0.104
375	0.104
375	0.104
376	0.104
376	0.104
377	0.104
377	0.104
378	0.104
378	0.105
378	0.105
379	0.105
379	0.105
380	0.105
380	0.105
381	0.105
381	0.105
382	0.105
382	0.104
383	0.104
383	0.104
383	0.104
384	0.103
384	0.103
385	0.103
385	0.103
386	0.103
386	0.103
387	0.103
387	0.103
388	0.102
388	0.102
389	0.102
389	0.102
389	0.102
390	0.102
390	0.103
391	0.103
391	0.103
392	0.103
392	0.103
393	0.104
393	0.103
394	0.103
394	0.103
394	0.103
395	0.103
395	0.102
396	0.102
396	0.102
397	0.102
397	0.103
398	0.103
398	0.103
399	0.103
399	0.102
400	0.102
400	0.102
400	0.102
401	0.101
401	0.1
402	0.1
402	0.099
403	0.099
403	0.099
404	0.099
404	0.098
405	0.098
405	0.098
405	0.098
406	0.098
406	0.097
407	0.097
407	0.097
408	0.097
408	0.096
409	0.096
409	0.096
410	0.096
410	0.096
411	0.096
411	0.096
411	0.096
412	0.095
412	0.095
413	0.095
413	0.095
414	0.095
414	0.094
415	0.094
415	0.094
416	0.094
416	0.093
416	0.093
417	0.093
417	0.093
418	0.093
418	0.093
419	0.093
419	0.094
420	0.094
420	0.095
421	0.095
421	0.095
421	0.095
422	0.095
422	0.095
423	0.095
423	0.095
424	0.095
424	0.094
425	0.094
425	0.093
426	0.092
426	0.092
427	0.092
427	0.092
427	0.092
428	0.093
428	0.093
429	0.094
429	0.094
430	0.094
430	0.094
431	0.094
431	0.094
432	0.093
432	0.093
432	0.092
433	0.091
433	0.091
434	0.09
434	0.09
435	0.09
435	0.09
436	0.09
436	0.09
437	0.09
437	0.09
437	0.09
438	0.09
438	0.09
439	0.09
439	0.09
440	0.089
440	0.089
441	0.089
441	0.089
442	0.089
442	0.089
442	0.09
443	0.09
443	0.09
444	0.09
444	0.09
445	0.091
445	0.091
446	0.091
446	0.091
447	0.091
447	0.09
447	0.09
448	0.09
448	0.09
449	0.09
449	0.09
450	0.09
450	0.089
451	0.089
451	0.089
452	0.088
452	0.088
452	0.087
453	0.087
453	0.086
454	0.086
454	0.085
455	0.085
455	0.085
456	0.085
456	0.084
457	0.084
457	0.084
458	0.084
458	0.084
458	0.084
459	0.084
459	0.084
460	0.084
460	0.083
461	0.083
461	0.083
462	0.082
462	0.083
463	0.083
463	0.083
463	0.084
464	0.084
464	0.084
465	0.084
465	0.085
466	0.085
466	0.085
467	0.084
467	0.084
467	0.083
468	0.082
468	0.08
469	0.079
469	0.077
470	0.076
470	0.076
471	0.075
471	0.075
472	0.075
472	0.075
472	0.075
473	0.075
473	0.076
474	0.077
474	0.078
475	0.079
475	0.08
476	0.08
476	0.08
477	0.081
477	0.081
477	0.081
478	0.082
478	0.082
479	0.082
479	0.083
480	0.084
480	0.084
481	0.085
481	0.085
482	0.086
482	0.087
482	0.088
483	0.09
483	0.092
484	0.094
484	0.096
485	0.098
485	0.099
486	0.1
486	0.1
487	0.101
487	0.101
487	0.101
488	0.1
488	0.099
489	0.097
489	0.095
490	0.094
490	0.093
491	0.092
491	0.093
492	0.093
492	0.094
492	0.094
493	0.094
493	0.095
494	0.096
494	0.097
495	0.099
495	0.1
496	0.101
496	0.102
496	0.102
497	0.103
497	0.103
498	0.103
498	0.104
499	0.104
499	0.104
500	0.104
500	0.105
501	0.106
501	0.107
501	0.108
502	0.109
502	0.11
503	0.111
503	0.112
504	0.113
504	0.114
505	0.114
505	0.114
506	0.115
506	0.115
506	0.115
507	0.115
507	0.115
508	0.115
508	0.115
509	0.116
509	0.116
510	0.117
510	0.117
511	0.116
511	0.117
511	0.117
512	0.117
512	0.117
513	0.117
513	0.117
514	0.116
514	0.115
515	0.114
515	0.114
515	0.113
516	0.113
516	0.113
517	0.113
517	0.113
518	0.113
518	0.112
519	0.111
519	0.11
520	0.108
520	0.106
520	0.104
521	0.102
521	0.1
522	0.098
522	0.097
523	0.096
523	0.096
524	0.098
524	0.1
524	0.102
525	0.105
525	0.107
526	0.11
526	0.112
527	0.114
527	0.116
528	0.118
528	0.119
529	0.119
529	0.119
529	0.12
530	0.12
530	0.12
531	0.12
531	0.12
532	0.12
532	0.12
533	0.12
533	0.12
533	0.12
534	0.119
534	0.119
535	0.118
535	0.118
536	0.118
536	0.117
537	0.117
537	0.117
538	0.116
538	0.115
538	0.114
539	0.114
539	0.113
540	0.112
540	0.112
541	0.111
541	0.11
542	0.108
542	0.107
542	0.106
543	0.106
543	0.105
544	0.104
544	0.103
545	0.103
545	0.103
546	0.103
546	0.103
547	0.102
547	0.101
547	0.099
548	0.098
548	0.096
549	0.095
549	0.093
550	0.092
550	0.09
551	0.088
551	0.086
551	0.085
552	0.084
552	0.083
553	0.083
553	0.083
554	0.083
554	0.082
555	0.08
555	0.079
556	0.077
556	0.074
556	0.072
557	0.07
557	0.068
558	0.066
558	0.065
559	0.064
559	0.063
560	0.063
560	0.062
560	0.063
561	0.063
561	0.064
562	0.064
562	0.063
563	0.062
563	0.061
564	0.059
564	0.057
564	0.055
565	0.054
565	0.053
566	0.051
566	0.051
567	0.05
567	0.051
568	0.052
568	0.053
568	0.055
569	0.057
569	0.058
570	0.06
570	0.06
571	0.061
571	0.062
572	0.062
572	0.062
573	0.063
573	0.062
573	0.062
574	0.061
574	0.061
575	0.061
575	0.062
576	0.064
576	0.064
577	0.063
577	0.063
577	0.062
578	0.062
578	0.062
579	0.062
579	0.063
580	0.063
580	0.062
581	0.06
581	0.058
581	0.058
582	0.057
582	0.058
583	0.058
583	0.058
584	0.057
584	0.055
585	0.053
585	0.053
585	0.053
586	0.053
586	0.052
587	0.051
587	0.049
588	0.047
588	0.045
589	0.043
589	0.041
590	0.04
590	0.038
590	0.038
591	0.038
591	0.038
592	0.038
592	0.037
593	0.037
593	0.038
594	0.038
594	0.038
594	0.037
595	0.037
595	0.037
596	0.036
596	0.036
597	0.037
597	0.039
598	0.039
598	0.04
598	0.04
599	0.041
599	0.04
600	0.04
600	0.039
601	0.038
601	0.037
602	0.035
602	0.034
602	0.033
603	0.032
603	0.032
604	0.032
604	0.033
605	0.033
605	0.035
606	0.035
606	0.035
606	0.034
607	0.034
607	0.034
608	0.033
608	0.032
609	0.031
609	0.03
610	0.029
610	0.028
610	0.028
611	0.028
611	0.029
612	0.029
612	0.031
613	0.032
613	0.034
614	0.035
614	0.035
614	0.035
615	0.035
615	0.035
616	0.035
616	0.034
617	0.033
617	0.032
618	0.03
618	0.029
618	0.028
619	0.027
619	0.027
620	0.028
620	0.029
621	0.029
621	0.029
622	0.03
622	0.03
622	0.03
623	0.03
623	0.03
624	0.031
624	0.03
625	0.03
625	0.03
626	0.03
626	0.03
626	0.03
627	0.03
627	0.03
628	0.031
628	0.031
629	0.031
629	0.031
630	0.031
630	0.03
630	0.03
631	0.03
631	0.03
632	0.029
632	0.029
633	0.029
633	0.03
634	0.031
634	0.032
634	0.033
635	0.035
635	0.036
636	0.037
636	0.038
637	0.039
637	0.04
638	0.04
638	0.041
638	0.041
639	0.041
639	0.041
640	0.042
640	0.042
641	0.043
641	0.044
642	0.045
642	0.047
642	0.048
643	0.049
643	0.051
644	0.053
644	0.054
645	0.056
645	0.058
646	0.059
646	0.061
646	0.064
647	0.066
647	0.069
648	0.071
648	0.073
649	0.074
649	0.076
650	0.078
650	0.08
650	0.082
651	0.083
651	0.084
652	0.085
652	0.086
653	0.088
653	0.093
653	0.102
654	0.085
654	0.072
655	0.075
655	0.077
656	0.079
656	0.08
657	0.082
657	0.083
657	0.084
658	0.082
658	0.076
659	0.093
659	0.116
660	0.117
660	0.118
661	0.119
661	0.12
661	0.121
662	0.124
662	0.126
663	0.128
663	0.13
664	0.132
664	0.134
665	0.136
665	0.138
665	0.14
666	0.142
666	0.144
667	0.145
667	0.147
668	0.148
668	0.15
669	0.151
669	0.153
669	0.156
670	0.158
670	0.161
671	0.162
671	0.164
672	0.165
672	0.166
672	0.167
673	0.168
673	0.169
674	0.17
674	0.17
675	0.17
675	0.17
676	0.171
676	0.172
676	0.173
677	0.174
677	0.175
678	0.176
678	0.177
679	0.178
679	0.179
680	0.18
680	0.181
680	0.181
681	0.181
681	0.182
682	0.182
682	0.183
683	0.185
683	0.187
684	0.188
684	0.189
684	0.189
685	0.189
685	0.19
686	0.19
686	0.19
687	0.19
687	0.189
687	0.189
688	0.188
688	0.187
689	0.187
689	0.188
690	0.188
690	0.188
691	0.188
691	0.188
691	0.188
692	0.188
692	0.187
693	0.187
693	0.188
694	0.187
694	0.187
695	0.187
695	0.189
695	0.19
696	0.19
696	0.19
697	0.19
697	0.19
698	0.189
698	0.188
698	0.186
699	0.185
699	0.183
700	0.18
700	0.178
701	0.177
701	0.176
702	0.174
702	0.173
702	0.172
703	0.17
703	0.169
704	0.167
704	0.166
705	0.165
705	0.164
705	0.163
706	0.162
706	0.161
707	0.16
707	0.159
708	0.158
708	0.158
709	0.157
709	0.156
709	0.154
710	0.152
710	0.151
711	0.149
711	0.148
712	0.147
712	0.146
713	0.145
713	0.144
713	0.143
714	0.142
714	0.14
715	0.139
715	0.138
716	0.136
716	0.135
716	0.133
717	0.132
717	0.13
718	0.128
718	0.126
719	0.125
719	0.123
720	0.122
720	0.12
720	0.118
721	0.115
721	0.113
722	0.11
722	0.108
723	0.106
723	0.104
723	0.102
724	0.101
724	0.099
725	0.097
725	0.096
726	0.094
726	0.093
727	0.092
727	0.091
727	0.09
728	0.088
728	0.087
729	0.086
729	0.086
730	0.085
730	0.083
730	0.082
731	0.08
731	0.079
732	0.078
732	0.077
733	0.075
733	0.074
734	0.072
734	0.07
734	0.068
735	0.067
735	0.065
736	0.063
736	0.061
737	0.06
737	0.058
737	0.057
738	0.054
738	0.052
739	0.05
739	0.048
740	0.047
740	0.045
741	0.044
741	0.042
741	0.04
742	0.037
742	0.034
743	0.033
743	0.031
744	0.029
744	0.027
744	0.026
745	0.024
745	0.023
746	0.021
746	0.02
747	0.02
747	0.02
748	0.02
748	0.02
748	0.019
749	0.018
749	0.018
750	0.017
750	0.016
751	0.016
751	0.016
751	0.016
752	0.015
752	0.014
753	0.013
753	0.012
754	0.011
754	0.011
754	0.011
755	0.011
755	0.012
756	0.011
756	0.01
757	0.009
757	0.009
758	0.008
758	0.007
758	0.006
759	0.006
759	0.004
760	0.001
760	-0.002
761	-0.004
761	-0.004
761	-0.005
762	-0.007
762	-0.008
763	-0.008
763	-0.009
764	-0.011
764	-0.013
764	-0.014
765	-0.016
765	-0.017
766	-0.019
766	-0.019
767	-0.02
767	-0.022
768	-0.024
768	-0.026
768	-0.028
769	-0.028
769	-0.028
770	-0.029
770	-0.03
771	-0.032
771	-0.034
771	-0.036
772	-0.038
772	-0.04
773	-0.042
773	-0.044
774	-0.047
774	-0.051
775	-0.054
775	-0.057
775	-0.06
776	-0.064
776	-0.067
777	-0.07
777	-0.073
778	-0.077
778	-0.08
778	-0.083
779	-0.085
779	-0.087
780	-0.091
780	-0.094
781	-0.099
781	-0.104
781	-0.109
782	-0.114
782	-0.12
783	-0.125
783	-0.128
784	-0.132
784	-0.135
784	-0.138
785	-0.142
785	-0.145
786	-0.145
786	-0.143
787	-0.139
787	-0.135
788	-0.134
788	-0.135
788	-0.137
789	-0.14
789	-0.14
790	-0.137
790	-0.136
791	-0.137
791	-0.139
791	-0.141
792	-0.135
792	-0.124
793	-0.117
793	-0.113
794	-0.11
794	-0.111
794	-0.115
795	-0.116
795	-0.116
796	-0.116
796	-0.119
797	-0.127
797	-0.139
797	-0.146
798	-0.151
798	-0.155
799	-0.156
799	-0.156
800	-0.157
800	-0.158
801	-0.161
801	-0.163
801	-0.162
802	-0.163
802	-0.164
803	-0.165
803	-0.165
804	-0.163
804	-0.158
804	-0.151
805	-0.146
805	-0.144
806	-0.141
806	-0.14
807	-0.139
807	-0.138
807	-0.138
808	-0.137
808	-0.138
809	-0.142
809	-0.147
810	-0.15
810	-0.152
810	-0.155
811	-0.158
811	-0.158
812	-0.155
812	-0.152
813	-0.152
813	-0.153
813	-0.155
814	-0.157
814	-0.157
815	-0.156
815	-0.154
816	-0.152
816	-0.153
817	-0.158
817	-0.162
817	-0.163
818	-0.163
818	-0.159
819	-0.154
819	-0.151
820	-0.152
820	-0.154
820	-0.156
821	-0.155
821	-0.153
822	-0.15
822	-0.146
823	-0.142
823	-0.14
823	-0.139
824	-0.136
824	-0.13
825	-0.122
825	-0.112
826	-0.104
826	-0.097
826	-0.09
827	-0.084
827	-0.079
828	-0.074
828	-0.069
829	-0.065
829	-0.06
829	-0.057
830	-0.055
830	-0.052
831	-0.048
831	-0.044
832	-0.041
832	-0.039
832	-0.036
833	-0.034
833	-0.033
834	-0.032
834	-0.031
835	-0.031
835	-0.031
835	-0.031
836	-0.031
836	-0.032
837	-0.032
837	-0.032
838	-0.032
838	-0.032
839	-0.032
839	-0.031
839	-0.031
840	-0.03
840	-0.029
841	-0.028
841	-0.027
842	-0.026
842	-0.024
842	-0.023
843	-0.021
843	-0.02
844	-0.018
844	-0.017
845	-0.016
845	-0.016
845	-0.015
846	-0.014
846	-0.014
847	-0.013
847	-0.012
848	-0.011
848	-0.011
848	-0.01
849	-0.009
849	-0.008
850	-0.007
850	-0.007
851	-0.006
851	-0.005
851	-0.005
852	-0.005
852	-0.005
853	-0.005
853	-0.005
854	-0.005
854	-0.005
854	-0.006
855	-0.006
855	-0.006
856	-0.006
856	-0.006
857	-0.006
857	-0.006
857	-0.006
858	-0.005
858	-0.005
859	-0.005
859	-0.004
860	-0.003
860	-0.002
860	-0.001
861	-0
861	0.001
862	0.002
862	0.002
863	0.003
863	0.004
863	0.005
864	0.007
864	0.007
865	0.008
865	0.009
866	0.009
866	0.009
866	0.01
867	0.01
867	0.011
868	0.011
868	0.011
869	0.011
869	0.011
869	0.011
870	0.011
870	0.01
871	0.01
871	0.009
872	0.008
872	0.007
872	0.006
873	0.005
873	0.004
874	0.003
874	0.002
875	0.001
875	0
875	-0
876	-0
876	-0
877	0
877	0
878	0.001
878	0.001
878	0.001
879	0.002
879	0.003
880	0.003
880	0.004
881	0.005
881	0.006
881	0.007
882	0.008
882	0.009
883	0.01
883	0.011
884	0.011
884	0.011
884	0.011
885	0.012
885	0.012
886	0.011
886	0.011
887	0.011
887	0.01
887	0.01
888	0.009
888	0.009
889	0.009
889	0.009
890	0.009
890	0.01
890	0.01
891	0.01
891	0.01
892	0.011
892	0.011
893	0.012
893	0.013
893	0.014
894	0.014
894	0.015
895	0.015
895	0.015
895	0.015
896	0.015
896	0.015
897	0.014
897	0.014
898	0.013
898	0.012
898	0.01
899	0.009
899	0.008
900	0.007
900	0.006
901	0.005
901	0.005
901	0.004
902	0.004
902	0.004
903	0.003
903	0.003
904	0.003
904	0.003
904	0.004
905	0.004
905	0.004
906	0.004
906	0.005
907	0.005
907	0.005
907	0.005
908	0.005
908	0.004
909	0.004
909	0.004
910	0.004
910	0.004
910	0.004
911	0.005
911	0.005
912	0.006
912	0.007
913	0.008
913	0.009
913	0.01
914	0.011
914	0.012
915	0.014
915	0.015
916	0.016
916	0.017
916	0.017
917	0.018
917	0.018
918	0.018
918	0.018
918	0.017
919	0.017
919	0.016
920	0.015
920	0.013
921	0.012
921	0.01
921	0.009
922	0.009
922	0.008
923	0.008
923	0.007
924	0.007
924	0.007
924	0.007
925	0.008
925	0.009
926	0.009
926	0.01
927	0.01
927	0.011
927	0.011
928	0.012
928	0.013
929	0.014
929	0.014
930	0.014
930	0.015
930	0.015
931	0.014
931	0.014
932	0.014
932	0.014
933	0.014
933	0.013
933	0.013
934	0.013
934	0.013
935	0.013
935	0.013
935	0.013
936	0.013
936	0.013
937	0.013
937	0.013
938	0.013
938	0.013
938	0.012
939	0.012
939	0.012
940	0.012
940	0.012
941	0.012
941	0.012
941	0.012
942	0.013
942	0.013
943	0.014
943	0.014
944	0.015
944	0.016
944	0.017
945	0.018
945	0.019
946	0.02
946	0.021
946	0.021
947	0.022
947	0.022
948	0.022
948	0.021
949	0.02
949	0.02
949	0.019
950	0.018
950	0.018
951	0.017
951	0.016
952	0.016
952	0.016
952	0.016
953	0.016
953	0.016
954	0.016
954	0.016
955	0.016
955	0.015
955	0.015
956	0.015
956	0.015
957	0.015
957	0.014
957	0.014
958	0.014
958	0.014
959	0.014
959	0.014
960	0.015
960	0.015
960	0.015
961	0.015
961	0.016
962	0.016
962	0.016
963	0.017
963	0.017
963	0.017
964	0.017
964	0.017
965	0.017
965	0.017
966	0.016
966	0.016
966	0.016
967	0.015
967	0.015
968	0.014
968	0.014
968	0.014
969	0.014
969	0.013
970	0.013
970	0.013
971	0.013
971	0.014
971	0.014
972	0.015
972	0.016
973	0.017
973	0.017
974	0.018
974	0.018
974	0.019
975	0.019
975	0.019
976	0.019
976	0.019
976	0.018
977	0.018
977	0.017
978	0.016
978	0.015
979	0.014
979	0.013
979	0.013
980	0.012
980	0.011
981	0.011
981	0.01
982	0.01
982	0.009
982	0.009
983	0.009
983	0.008
984	0.008
984	0.008
984	0.008
985	0.008
985	0.008
986	0.007
986	0.007
987	0.006
987	0.006
987	0.006
988	0.005
988	0.005
989	0.005
989	0.004
990	0.004
990	0.004
990	0.004
991	0.004
991	0.003
992	0.003
992	0.003
992	0.003
993	0.003
993	0.003
994	0.002
994	0.002
995	0.002
995	0.001
995	0.001
996	0.001
996	0
997	-0
997	-0
997	-0
998	-0
998	0
999	0.001
999	0.001
1000	0.002
1000	0.003
1000	0.003
1001	0.004
1001	0.005
1002	0.005
1002	0.006
1003	0.006
1003	0.006
1003	0.006
1004	0.006
1004	0.006
1005	0.005
1005	0.005
1005	0.004
1006	0.004
1006	0.003
1007	0.003
1007	0.003
1008	0.003
1008	0.003
1008	0.003
1009	0.003
1009	0.003
1010	0.004
1010	0.005
1010	0.006
1011	0.007
1011	0.008
1012	0.009
1012	0.01
1013	0.011
1013	0.011
1013	0.012
1014	0.012
1014	0.012
1015	0.013
1015	0.013
1016	0.013
1016	0.013
1016	0.012
1017	0.013
1017	0.013
1018	0.013
1018	0.013
1018	0.013
1019	0.013
1019	0.012
1020	0.012
1020	0.012
1021	0.011
1021	0.011
1021	0.011
1022	0.011
1022	0.01
1023	0.01
1023	0.01
1023	0.01
1024	0.01
1024	0.01
1025	0.01
1025	0.01
1026	0.01
1026	0.01
1026	0.01
1027	0.01
1027	0.011
1028	0.011
1028	0.012
1028	0.012
1029	0.012
1029	0.013
1030	0.013
1030	0.013
1031	0.014
1031	0.014
1031	0.014
1032	0.014
1032	0.014
1033	0.014
1033	0.014
1033	0.014
1034	0.014
1034	0.014
1035	0.014
1035	0.014
1036	0.014
1036	0.014
1036	0.015
1037	0.016
1037	0.016
1038	0.017
1038	0.018
1039	0.019
1039	0.02
1039	0.021
1040	0.022
1040	0.023
1041	0.023
1041	0.024
1041	0.025
1042	0.025
1042	0.025
1043	0.026
1043	0.026
1044	0.027
1044	0.027
1044	0.028
1045	0.029
1045	0.03
1046	0.031
1046	0.032
1046	0.034
1047	0.035
1047	0.036
1048	0.038
1048	0.039
1049	0.04
1049	0.041
1049	0.041
1050	0.042
1050	0.042
1051	0.042
1051	0.041
1051	0.041
1052	0.04
1052	0.039
1053	0.038
1053	0.037
1053	0.036
1054	0.035
1054	0.035
1055	0.034
1055	0.033
1056	0.032
1056	0.031
1056	0.03
1057	0.03
1057	0.029
1058	0.029
1058	0.029
1058	0.029
1059	0.029
1059	0.029
1060	0.03
1060	0.03
1061	0.031
1061	0.032
1061	0.033
1062	0.034
1062	0.034
1063	0.034
1063	0.035
1063	0.036
1064	0.037
1064	0.039
1065	0.04
1065	0.041
1066	0.043
1066	0.045
1066	0.047
1067	0.049
1067	0.051
1068	0.053
1068	0.055
1068	0.056
1069	0.057
1069	0.059
1070	0.059
1070	0.061
1071	0.062
1071	0.064
1071	0.064
1072	0.066
1072	0.067
1073	0.068
1073	0.069
1073	0.07
1074	0.071
1074	0.072
1075	0.072
1075	0.072
1076	0.072
1076	0.074
1076	0.074
1077	0.075
1077	0.076
1078	0.078
1078	0.08
1078	0.082
1079	0.084
1079	0.086
1080	0.088
1080	0.09
1080	0.092
1081	0.093
1081	0.095
1082	0.097
1082	0.098
1083	0.1
1083	0.102
1083	0.104
1084	0.107
1084	0.109
1085	0.112
1085	0.115
1085	0.118
1086	0.12
1086	0.123
1087	0.127
1087	0.129
1088	0.131
1088	0.135
1088	0.139
1089	0.143
1089	0.147
1090	0.152
1090	0.159
1090	0.165
1091	0.171
1091	0.178
1092	0.187
1092	0.196
1092	0.204
1093	0.213
1093	0.222
1094	0.232
1094	0.243
1095	0.253
1095	0.265
1095	0.28
1096	0.295
1096	0.311
1097	0.331
1097	0.35
1097	0.371
1098	0.395
1098	0.42
1099	0.451
1099	0.486
1100	0.526
1100	0.575
1100	0.629
1101	0.698
1101	0.785
1102	0.912
1102	1.105
1102	1.481
1103	-0
1103	-0
1104	-0
1104	-0
1104	-0
1105	-0
1105	-0
1106	-0
1106	-0
1107	-0
1107	-0
1107	-0
1108	-0
1108	-0
1109	-0
1109	-0
1109	-0
1110	-0
1110	-0
1111	-0
1111	-0
