Data from 15c-2-4a_Absorbance__3556__03556.txt Node

Date: Thu Jan 25 12:02:42 CET 2024
User: Marek
Spectrometer: MAYP115816
Trigger mode: 0
Integration Time (sec): 2.000000E-1
Scans to average: 10
Electric dark correction enabled: true
Nonlinearity correction enabled: true
Boxcar width: 5
XAxis mode: Wavelengths
Number of Pixels in Spectrum: 2068
>>>>>Begin Spectral Data<<<<<
199	-2.198
199	-2.028
200	-1.875
200	-1.752
201	-1.674
201	-1.616
202	-1.534
202	-1.472
203	-1.419
203	-1.373
204	-1.346
204	-1.318
205	-1.297
205	-1.285
205	-1.28
206	-1.275
206	-1.272
207	-1.272
207	-1.268
208	-1.264
208	-1.26
209	-1.256
209	-1.253
210	-1.25
210	-1.247
211	-1.246
211	-1.245
212	-1.241
212	-1.239
213	-1.237
213	-1.237
213	-1.237
214	-1.236
214	-1.235
215	-1.233
215	-1.232
216	-1.229
216	-1.228
217	-1.226
217	-1.223
218	-1.222
218	-1.219
219	-1.216
219	-1.214
220	-1.213
220	-1.209
221	-1.206
221	-1.204
221	-1.2
222	-1.197
222	-1.196
223	-1.191
223	-1.185
224	-1.179
224	-1.17
225	-1.16
225	-1.152
226	-1.14
226	-1.128
227	-1.113
227	-1.099
228	-1.08
228	-1.06
229	-1.039
229	-1.014
229	-0.987
230	-0.957
230	-0.926
231	-0.89
231	-0.85
232	-0.808
232	-0.762
233	-0.714
233	-0.665
234	-0.615
234	-0.563
235	-0.512
235	-0.461
236	-0.41
236	-0.362
236	-0.313
237	-0.267
237	-0.223
238	-0.18
238	-0.14
239	-0.101
239	-0.065
240	-0.03
240	0.002
241	0.032
241	0.061
242	0.086
242	0.11
243	0.133
243	0.154
243	0.173
244	0.192
244	0.208
245	0.223
245	0.238
246	0.251
246	0.264
247	0.275
247	0.286
248	0.296
248	0.306
249	0.314
249	0.322
250	0.33
250	0.338
250	0.345
251	0.351
251	0.357
252	0.363
252	0.368
253	0.374
253	0.378
254	0.383
254	0.387
255	0.391
255	0.395
256	0.398
256	0.401
257	0.404
257	0.406
258	0.408
258	0.411
258	0.413
259	0.414
259	0.416
260	0.417
260	0.418
261	0.419
261	0.42
262	0.421
262	0.422
263	0.423
263	0.423
264	0.423
264	0.424
265	0.424
265	0.424
265	0.424
266	0.424
266	0.424
267	0.424
267	0.423
268	0.422
268	0.421
269	0.421
269	0.42
270	0.419
270	0.418
271	0.416
271	0.415
272	0.414
272	0.413
272	0.411
273	0.41
273	0.409
274	0.407
274	0.406
275	0.404
275	0.403
276	0.401
276	0.399
277	0.397
277	0.395
278	0.392
278	0.39
278	0.388
279	0.386
279	0.384
280	0.383
280	0.382
281	0.38
281	0.379
282	0.378
282	0.377
283	0.377
283	0.376
284	0.375
284	0.374
285	0.373
285	0.371
285	0.37
286	0.368
286	0.367
287	0.365
287	0.364
288	0.362
288	0.361
289	0.36
289	0.358
290	0.357
290	0.355
291	0.354
291	0.353
292	0.352
292	0.35
292	0.349
293	0.348
293	0.347
294	0.346
294	0.345
295	0.344
295	0.343
296	0.342
296	0.341
297	0.34
297	0.339
298	0.338
298	0.337
298	0.336
299	0.336
299	0.335
300	0.334
300	0.333
301	0.332
301	0.331
302	0.33
302	0.329
303	0.328
303	0.328
304	0.327
304	0.326
305	0.325
305	0.324
305	0.323
306	0.322
306	0.321
307	0.32
307	0.32
308	0.319
308	0.318
309	0.316
309	0.316
310	0.314
310	0.314
311	0.313
311	0.312
311	0.311
312	0.31
312	0.309
313	0.308
313	0.307
314	0.306
314	0.305
315	0.304
315	0.303
316	0.302
316	0.301
317	0.3
317	0.299
318	0.298
318	0.297
318	0.296
319	0.295
319	0.294
320	0.293
320	0.292
321	0.291
321	0.29
322	0.288
322	0.287
323	0.286
323	0.285
324	0.284
324	0.283
324	0.282
325	0.281
325	0.281
326	0.279
326	0.279
327	0.278
327	0.277
328	0.276
328	0.275
329	0.274
329	0.273
330	0.272
330	0.271
330	0.271
331	0.27
331	0.269
332	0.268
332	0.267
333	0.266
333	0.265
334	0.264
334	0.263
335	0.262
335	0.261
336	0.26
336	0.26
336	0.259
337	0.258
337	0.257
338	0.256
338	0.255
339	0.255
339	0.254
340	0.253
340	0.252
341	0.252
341	0.251
342	0.25
342	0.249
342	0.248
343	0.247
343	0.247
344	0.246
344	0.245
345	0.245
345	0.244
346	0.243
346	0.242
347	0.242
347	0.241
348	0.24
348	0.239
348	0.238
349	0.237
349	0.236
350	0.236
350	0.235
351	0.234
351	0.233
352	0.232
352	0.231
353	0.231
353	0.229
354	0.228
354	0.227
354	0.226
355	0.225
355	0.224
356	0.223
356	0.222
357	0.221
357	0.221
358	0.221
358	0.222
359	0.222
359	0.223
360	0.224
360	0.225
360	0.225
361	0.226
361	0.226
362	0.227
362	0.227
363	0.226
363	0.226
364	0.225
364	0.225
365	0.224
365	0.223
366	0.223
366	0.222
366	0.222
367	0.222
367	0.221
368	0.221
368	0.22
369	0.22
369	0.219
370	0.219
370	0.218
371	0.217
371	0.217
372	0.216
372	0.216
372	0.215
373	0.215
373	0.215
374	0.215
374	0.214
375	0.214
375	0.214
376	0.214
376	0.214
377	0.214
377	0.214
378	0.214
378	0.214
378	0.214
379	0.214
379	0.214
380	0.214
380	0.214
381	0.214
381	0.214
382	0.213
382	0.213
383	0.212
383	0.212
383	0.211
384	0.211
384	0.21
385	0.21
385	0.209
386	0.209
386	0.209
387	0.209
387	0.209
388	0.209
388	0.209
389	0.209
389	0.209
389	0.209
390	0.209
390	0.209
391	0.209
391	0.209
392	0.209
392	0.209
393	0.209
393	0.209
394	0.209
394	0.208
394	0.208
395	0.208
395	0.207
396	0.207
396	0.206
397	0.206
397	0.206
398	0.206
398	0.206
399	0.205
399	0.205
400	0.205
400	0.205
400	0.204
401	0.203
401	0.202
402	0.201
402	0.201
403	0.2
403	0.2
404	0.2
404	0.199
405	0.199
405	0.199
405	0.198
406	0.198
406	0.198
407	0.197
407	0.197
408	0.197
408	0.196
409	0.195
409	0.195
410	0.194
410	0.194
411	0.194
411	0.194
411	0.194
412	0.194
412	0.193
413	0.192
413	0.192
414	0.192
414	0.192
415	0.191
415	0.191
416	0.19
416	0.19
416	0.189
417	0.189
417	0.188
418	0.188
418	0.188
419	0.189
419	0.189
420	0.19
420	0.191
421	0.191
421	0.191
421	0.191
422	0.191
422	0.191
423	0.191
423	0.191
424	0.19
424	0.19
425	0.189
425	0.187
426	0.187
426	0.186
427	0.186
427	0.186
427	0.186
428	0.187
428	0.187
429	0.188
429	0.188
430	0.188
430	0.188
431	0.188
431	0.188
432	0.187
432	0.187
432	0.186
433	0.184
433	0.183
434	0.182
434	0.182
435	0.182
435	0.182
436	0.182
436	0.182
437	0.182
437	0.182
437	0.182
438	0.182
438	0.181
439	0.181
439	0.181
440	0.18
440	0.18
441	0.179
441	0.179
442	0.18
442	0.18
442	0.18
443	0.18
443	0.18
444	0.181
444	0.181
445	0.181
445	0.181
446	0.181
446	0.181
447	0.181
447	0.181
447	0.18
448	0.18
448	0.18
449	0.18
449	0.18
450	0.179
450	0.179
451	0.179
451	0.178
452	0.178
452	0.177
452	0.176
453	0.176
453	0.175
454	0.175
454	0.174
455	0.174
455	0.173
456	0.173
456	0.173
457	0.173
457	0.172
458	0.173
458	0.172
458	0.173
459	0.173
459	0.173
460	0.172
460	0.172
461	0.171
461	0.17
462	0.17
462	0.171
463	0.171
463	0.172
463	0.172
464	0.173
464	0.173
465	0.173
465	0.174
466	0.174
466	0.174
467	0.174
467	0.173
467	0.172
468	0.17
468	0.168
469	0.166
469	0.165
470	0.164
470	0.163
471	0.163
471	0.162
472	0.162
472	0.163
472	0.164
473	0.165
473	0.166
474	0.167
474	0.169
475	0.17
475	0.171
476	0.171
476	0.172
477	0.172
477	0.172
477	0.173
478	0.173
478	0.174
479	0.174
479	0.175
480	0.176
480	0.177
481	0.177
481	0.178
482	0.179
482	0.181
482	0.182
483	0.184
483	0.187
484	0.191
484	0.195
485	0.197
485	0.199
486	0.2
486	0.201
487	0.202
487	0.203
487	0.203
488	0.202
488	0.201
489	0.198
489	0.196
490	0.194
490	0.193
491	0.193
491	0.193
492	0.194
492	0.195
492	0.196
493	0.196
493	0.198
494	0.2
494	0.202
495	0.205
495	0.207
496	0.208
496	0.209
496	0.21
497	0.211
497	0.212
498	0.212
498	0.213
499	0.213
499	0.214
500	0.214
500	0.215
501	0.217
501	0.219
501	0.221
502	0.223
502	0.224
503	0.226
503	0.228
504	0.229
504	0.23
505	0.231
505	0.231
506	0.232
506	0.232
506	0.233
507	0.233
507	0.233
508	0.233
508	0.234
509	0.234
509	0.235
510	0.235
510	0.236
511	0.236
511	0.237
511	0.237
512	0.237
512	0.237
513	0.236
513	0.235
514	0.234
514	0.233
515	0.233
515	0.233
515	0.232
516	0.232
516	0.231
517	0.231
517	0.231
518	0.23
518	0.228
519	0.226
519	0.223
520	0.22
520	0.216
520	0.213
521	0.211
521	0.209
522	0.208
522	0.208
523	0.21
523	0.212
524	0.216
524	0.219
524	0.223
525	0.227
525	0.23
526	0.233
526	0.235
527	0.237
527	0.239
528	0.24
528	0.241
529	0.241
529	0.241
529	0.241
530	0.24
530	0.24
531	0.239
531	0.239
532	0.239
532	0.238
533	0.238
533	0.238
533	0.238
534	0.237
534	0.236
535	0.235
535	0.234
536	0.234
536	0.233
537	0.232
537	0.231
538	0.23
538	0.228
538	0.226
539	0.225
539	0.224
540	0.223
540	0.222
541	0.22
541	0.218
542	0.216
542	0.214
542	0.212
543	0.211
543	0.21
544	0.208
544	0.207
545	0.205
545	0.205
546	0.204
546	0.204
547	0.202
547	0.199
547	0.197
548	0.194
548	0.191
549	0.189
549	0.186
550	0.184
550	0.182
551	0.179
551	0.176
551	0.173
552	0.172
552	0.17
553	0.169
553	0.168
554	0.167
554	0.166
555	0.163
555	0.16
556	0.156
556	0.153
556	0.149
557	0.146
557	0.143
558	0.14
558	0.137
559	0.135
559	0.134
560	0.133
560	0.132
560	0.131
561	0.131
561	0.131
562	0.131
562	0.13
563	0.128
563	0.126
564	0.123
564	0.119
564	0.116
565	0.114
565	0.112
566	0.11
566	0.109
567	0.108
567	0.108
568	0.109
568	0.111
568	0.112
569	0.114
569	0.116
570	0.118
570	0.118
571	0.119
571	0.119
572	0.119
572	0.119
573	0.119
573	0.118
573	0.117
574	0.116
574	0.115
575	0.114
575	0.115
576	0.116
576	0.116
577	0.114
577	0.113
577	0.112
578	0.111
578	0.11
579	0.111
579	0.111
580	0.111
580	0.109
581	0.106
581	0.104
581	0.102
582	0.101
582	0.101
583	0.102
583	0.101
584	0.099
584	0.095
585	0.093
585	0.092
585	0.091
586	0.091
586	0.09
587	0.088
587	0.086
588	0.083
588	0.08
589	0.077
589	0.075
590	0.074
590	0.072
590	0.072
591	0.072
591	0.072
592	0.072
592	0.071
593	0.071
593	0.071
594	0.07
594	0.07
594	0.069
595	0.069
595	0.068
596	0.067
596	0.067
597	0.069
597	0.07
598	0.071
598	0.073
598	0.074
599	0.074
599	0.074
600	0.073
600	0.072
601	0.071
601	0.07
602	0.068
602	0.066
602	0.064
603	0.062
603	0.062
604	0.062
604	0.063
605	0.064
605	0.065
606	0.066
606	0.066
606	0.065
607	0.065
607	0.065
608	0.064
608	0.063
609	0.062
609	0.061
610	0.06
610	0.059
610	0.058
611	0.058
611	0.058
612	0.059
612	0.061
613	0.062
613	0.064
614	0.064
614	0.064
614	0.064
615	0.064
615	0.063
616	0.063
616	0.063
617	0.062
617	0.06
618	0.059
618	0.058
618	0.057
619	0.056
619	0.056
620	0.057
620	0.058
621	0.059
621	0.059
622	0.06
622	0.061
622	0.061
623	0.061
623	0.062
624	0.063
624	0.063
625	0.063
625	0.063
626	0.064
626	0.064
626	0.064
627	0.065
627	0.065
628	0.066
628	0.066
629	0.067
629	0.067
630	0.067
630	0.067
630	0.067
631	0.067
631	0.068
632	0.068
632	0.068
633	0.069
633	0.07
634	0.071
634	0.073
634	0.075
635	0.077
635	0.078
636	0.079
636	0.081
637	0.082
637	0.083
638	0.084
638	0.085
638	0.086
639	0.086
639	0.087
640	0.088
640	0.089
641	0.091
641	0.093
642	0.095
642	0.098
642	0.101
643	0.103
643	0.106
644	0.108
644	0.111
645	0.114
645	0.116
646	0.119
646	0.122
646	0.126
647	0.129
647	0.133
648	0.136
648	0.139
649	0.142
649	0.145
650	0.149
650	0.152
650	0.155
651	0.158
651	0.16
652	0.162
652	0.164
653	0.167
653	0.175
653	0.193
654	0.156
654	0.128
655	0.135
655	0.138
656	0.141
656	0.143
657	0.146
657	0.148
657	0.15
658	0.148
658	0.136
659	0.17
659	0.218
660	0.219
660	0.22
661	0.222
661	0.224
661	0.227
662	0.23
662	0.234
663	0.237
663	0.241
664	0.244
664	0.247
665	0.25
665	0.253
665	0.257
666	0.26
666	0.262
667	0.265
667	0.268
668	0.271
668	0.274
669	0.277
669	0.28
669	0.285
670	0.289
670	0.293
671	0.297
671	0.299
672	0.302
672	0.304
672	0.305
673	0.307
673	0.309
674	0.31
674	0.311
675	0.311
675	0.312
676	0.313
676	0.315
676	0.316
677	0.318
677	0.321
678	0.323
678	0.324
679	0.326
679	0.327
680	0.329
680	0.331
680	0.331
681	0.332
681	0.333
682	0.334
682	0.335
683	0.337
683	0.339
684	0.342
684	0.343
684	0.343
685	0.343
685	0.344
686	0.344
686	0.344
687	0.344
687	0.342
687	0.341
688	0.34
688	0.338
689	0.338
689	0.339
690	0.34
690	0.34
691	0.34
691	0.341
691	0.342
692	0.342
692	0.341
693	0.341
693	0.341
694	0.34
694	0.339
695	0.338
695	0.338
695	0.339
696	0.338
696	0.336
697	0.335
697	0.334
698	0.332
698	0.33
698	0.328
699	0.325
699	0.323
700	0.318
700	0.315
701	0.314
701	0.312
702	0.31
702	0.308
702	0.307
703	0.305
703	0.303
704	0.302
704	0.301
705	0.3
705	0.299
705	0.297
706	0.296
706	0.295
707	0.294
707	0.292
708	0.291
708	0.289
709	0.288
709	0.286
709	0.282
710	0.278
710	0.275
711	0.272
711	0.269
712	0.266
712	0.263
713	0.261
713	0.258
713	0.256
714	0.253
714	0.251
715	0.248
715	0.246
716	0.243
716	0.24
716	0.238
717	0.235
717	0.232
718	0.229
718	0.226
719	0.223
719	0.221
720	0.219
720	0.216
720	0.213
721	0.209
721	0.205
722	0.201
722	0.197
723	0.194
723	0.191
723	0.188
724	0.185
724	0.182
725	0.179
725	0.176
726	0.174
726	0.172
727	0.17
727	0.168
727	0.167
728	0.164
728	0.162
729	0.161
729	0.16
730	0.158
730	0.156
730	0.154
731	0.152
731	0.151
732	0.149
732	0.147
733	0.145
733	0.142
734	0.139
734	0.135
734	0.131
735	0.128
735	0.125
736	0.121
736	0.118
737	0.114
737	0.112
737	0.109
738	0.106
738	0.103
739	0.1
739	0.097
740	0.095
740	0.093
741	0.091
741	0.088
741	0.085
742	0.08
742	0.076
743	0.073
743	0.069
744	0.066
744	0.064
744	0.061
745	0.058
745	0.055
746	0.053
746	0.051
747	0.05
747	0.049
748	0.049
748	0.049
748	0.048
749	0.046
749	0.046
750	0.045
750	0.044
751	0.043
751	0.042
751	0.042
752	0.042
752	0.04
753	0.039
753	0.038
754	0.037
754	0.036
754	0.036
755	0.036
755	0.036
756	0.035
756	0.033
757	0.031
757	0.03
758	0.029
758	0.027
758	0.026
759	0.025
759	0.022
760	0.018
760	0.015
761	0.012
761	0.01
761	0.009
762	0.007
762	0.006
763	0.005
763	0.003
764	0.001
764	-0.001
764	-0.003
765	-0.005
765	-0.007
766	-0.008
766	-0.009
767	-0.01
767	-0.013
768	-0.016
768	-0.019
768	-0.02
769	-0.021
769	-0.022
770	-0.023
770	-0.024
771	-0.026
771	-0.028
771	-0.031
772	-0.033
772	-0.034
773	-0.036
773	-0.039
774	-0.042
774	-0.045
775	-0.049
775	-0.052
775	-0.056
776	-0.059
776	-0.063
777	-0.067
777	-0.07
778	-0.074
778	-0.078
778	-0.082
779	-0.084
779	-0.087
780	-0.091
780	-0.095
781	-0.1
781	-0.105
781	-0.11
782	-0.115
782	-0.121
783	-0.126
783	-0.129
784	-0.133
784	-0.136
784	-0.138
785	-0.141
785	-0.143
786	-0.144
786	-0.142
787	-0.137
787	-0.134
788	-0.133
788	-0.134
788	-0.136
789	-0.138
789	-0.138
790	-0.136
790	-0.134
791	-0.135
791	-0.137
791	-0.139
792	-0.134
792	-0.123
793	-0.116
793	-0.111
794	-0.109
794	-0.11
794	-0.113
795	-0.115
795	-0.115
796	-0.115
796	-0.117
797	-0.126
797	-0.137
797	-0.144
798	-0.15
798	-0.154
799	-0.155
799	-0.155
800	-0.155
800	-0.157
801	-0.16
801	-0.161
801	-0.161
802	-0.162
802	-0.163
803	-0.163
803	-0.163
804	-0.162
804	-0.156
804	-0.149
805	-0.145
805	-0.142
806	-0.14
806	-0.139
807	-0.137
807	-0.136
807	-0.136
808	-0.136
808	-0.136
809	-0.14
809	-0.145
810	-0.148
810	-0.151
810	-0.154
811	-0.156
811	-0.157
812	-0.153
812	-0.15
813	-0.151
813	-0.152
813	-0.154
814	-0.155
814	-0.156
815	-0.154
815	-0.152
816	-0.151
816	-0.152
817	-0.157
817	-0.161
817	-0.162
818	-0.161
818	-0.158
819	-0.153
819	-0.15
820	-0.151
820	-0.153
820	-0.154
821	-0.154
821	-0.153
822	-0.152
822	-0.15
823	-0.148
823	-0.148
823	-0.15
824	-0.148
824	-0.144
825	-0.137
825	-0.129
826	-0.122
826	-0.115
826	-0.108
827	-0.101
827	-0.095
828	-0.09
828	-0.085
829	-0.08
829	-0.075
829	-0.072
830	-0.069
830	-0.065
831	-0.061
831	-0.057
832	-0.053
832	-0.05
832	-0.047
833	-0.044
833	-0.042
834	-0.04
834	-0.039
835	-0.038
835	-0.038
835	-0.038
836	-0.038
836	-0.038
837	-0.038
837	-0.038
838	-0.038
838	-0.038
839	-0.037
839	-0.037
839	-0.037
840	-0.037
840	-0.036
841	-0.036
841	-0.035
842	-0.034
842	-0.034
842	-0.033
843	-0.032
843	-0.031
844	-0.03
844	-0.029
845	-0.028
845	-0.027
845	-0.026
846	-0.024
846	-0.023
847	-0.022
847	-0.02
848	-0.019
848	-0.018
848	-0.016
849	-0.015
849	-0.014
850	-0.013
850	-0.012
851	-0.012
851	-0.011
851	-0.011
852	-0.011
852	-0.011
853	-0.011
853	-0.012
854	-0.012
854	-0.012
854	-0.012
855	-0.012
855	-0.012
856	-0.012
856	-0.012
857	-0.012
857	-0.011
857	-0.011
858	-0.01
858	-0.01
859	-0.01
859	-0.009
860	-0.008
860	-0.007
860	-0.007
861	-0.006
861	-0.005
862	-0.005
862	-0.004
863	-0.004
863	-0.003
863	-0.003
864	-0.002
864	-0.002
865	-0.001
865	-0.001
866	-0.001
866	-0.001
866	-0
867	-0
867	0
868	0
868	0
869	0
869	0
869	-0
870	-0.001
870	-0.001
871	-0.001
871	-0.002
872	-0.002
872	-0.003
872	-0.003
873	-0.003
873	-0.004
874	-0.004
874	-0.005
875	-0.005
875	-0.006
875	-0.006
876	-0.006
876	-0.006
877	-0.006
877	-0.006
878	-0.006
878	-0.006
878	-0.005
879	-0.005
879	-0.004
880	-0.003
880	-0.002
881	-0.001
881	-0
881	0.001
882	0.001
882	0.002
883	0.003
883	0.005
884	0.006
884	0.006
884	0.007
885	0.008
885	0.008
886	0.008
886	0.008
887	0.008
887	0.008
887	0.008
888	0.008
888	0.008
889	0.008
889	0.009
890	0.009
890	0.009
890	0.01
891	0.011
891	0.011
892	0.011
892	0.011
893	0.012
893	0.012
893	0.012
894	0.012
894	0.012
895	0.012
895	0.012
895	0.012
896	0.012
896	0.011
897	0.011
897	0.011
898	0.01
898	0.01
898	0.009
899	0.009
899	0.008
900	0.008
900	0.007
901	0.007
901	0.007
901	0.007
902	0.007
902	0.006
903	0.006
903	0.006
904	0.006
904	0.006
904	0.006
905	0.006
905	0.007
906	0.007
906	0.007
907	0.007
907	0.006
907	0.006
908	0.005
908	0.004
909	0.003
909	0.002
910	0.001
910	0
910	-0.001
911	-0.001
911	-0.001
912	-0.001
912	-0.001
913	-0.001
913	-0
913	0
914	0.001
914	0.002
915	0.003
915	0.004
916	0.004
916	0.005
916	0.006
917	0.007
917	0.007
918	0.008
918	0.008
918	0.008
919	0.009
919	0.009
920	0.009
920	0.009
921	0.008
921	0.008
921	0.007
922	0.007
922	0.007
923	0.006
923	0.005
924	0.005
924	0.004
924	0.004
925	0.004
925	0.004
926	0.004
926	0.004
927	0.004
927	0.004
927	0.005
928	0.005
928	0.006
929	0.006
929	0.007
930	0.007
930	0.008
930	0.008
931	0.009
931	0.01
932	0.01
932	0.011
933	0.012
933	0.012
933	0.013
934	0.013
934	0.014
935	0.014
935	0.014
935	0.015
936	0.015
936	0.015
937	0.015
937	0.015
938	0.015
938	0.015
938	0.015
939	0.015
939	0.015
940	0.016
940	0.016
941	0.017
941	0.018
941	0.019
942	0.02
942	0.021
943	0.022
943	0.023
944	0.024
944	0.024
944	0.025
945	0.026
945	0.027
946	0.027
946	0.027
946	0.027
947	0.027
947	0.027
948	0.026
948	0.025
949	0.024
949	0.023
949	0.022
950	0.021
950	0.021
951	0.02
951	0.019
952	0.018
952	0.018
952	0.018
953	0.018
953	0.018
954	0.017
954	0.017
955	0.018
955	0.018
955	0.018
956	0.019
956	0.019
957	0.02
957	0.02
957	0.021
958	0.021
958	0.022
959	0.022
959	0.022
960	0.022
960	0.022
960	0.022
961	0.022
961	0.022
962	0.022
962	0.021
963	0.021
963	0.021
963	0.02
964	0.02
964	0.019
965	0.019
965	0.018
966	0.017
966	0.017
966	0.016
967	0.016
967	0.015
968	0.015
968	0.014
968	0.014
969	0.014
969	0.014
970	0.014
970	0.013
971	0.013
971	0.013
971	0.014
972	0.014
972	0.014
973	0.015
973	0.015
974	0.015
974	0.016
974	0.016
975	0.016
975	0.016
976	0.015
976	0.015
976	0.015
977	0.014
977	0.013
978	0.012
978	0.011
979	0.01
979	0.009
979	0.009
980	0.008
980	0.007
981	0.006
981	0.006
982	0.005
982	0.005
982	0.005
983	0.005
983	0.005
984	0.005
984	0.005
984	0.005
985	0.005
985	0.005
986	0.005
986	0.004
987	0.004
987	0.004
987	0.004
988	0.004
988	0.004
989	0.004
989	0.004
990	0.005
990	0.005
990	0.006
991	0.007
991	0.008
992	0.008
992	0.009
992	0.009
993	0.01
993	0.01
994	0.01
994	0.01
995	0.01
995	0.01
995	0.01
996	0.009
996	0.009
997	0.008
997	0.007
997	0.007
998	0.006
998	0.006
999	0.006
999	0.006
1000	0.005
1000	0.005
1000	0.005
1001	0.006
1001	0.006
1002	0.006
1002	0.005
1003	0.005
1003	0.005
1003	0.004
1004	0.004
1004	0.004
1005	0.003
1005	0.003
1005	0.002
1006	0.002
1006	0.002
1007	0.002
1007	0.002
1008	0.003
1008	0.003
1008	0.004
1009	0.005
1009	0.006
1010	0.007
1010	0.008
1010	0.009
1011	0.01
1011	0.01
1012	0.011
1012	0.011
1013	0.011
1013	0.011
1013	0.011
1014	0.01
1014	0.01
1015	0.009
1015	0.008
1016	0.008
1016	0.007
1016	0.007
1017	0.006
1017	0.006
1018	0.007
1018	0.007
1018	0.007
1019	0.007
1019	0.008
1020	0.008
1020	0.008
1021	0.009
1021	0.009
1021	0.009
1022	0.009
1022	0.009
1023	0.009
1023	0.009
1023	0.009
1024	0.009
1024	0.009
1025	0.009
1025	0.01
1026	0.01
1026	0.01
1026	0.01
1027	0.011
1027	0.011
1028	0.011
1028	0.011
1028	0.012
1029	0.012
1029	0.011
1030	0.011
1030	0.011
1031	0.01
1031	0.01
1031	0.009
1032	0.008
1032	0.008
1033	0.007
1033	0.006
1033	0.006
1034	0.005
1034	0.004
1035	0.004
1035	0.004
1036	0.003
1036	0.004
1036	0.004
1037	0.005
1037	0.006
1038	0.007
1038	0.008
1039	0.009
1039	0.01
1039	0.011
1040	0.012
1040	0.013
1041	0.013
1041	0.014
1041	0.015
1042	0.016
1042	0.016
1043	0.017
1043	0.018
1044	0.02
1044	0.021
1044	0.022
1045	0.023
1045	0.024
1046	0.025
1046	0.027
1046	0.029
1047	0.03
1047	0.032
1048	0.033
1048	0.034
1049	0.035
1049	0.036
1049	0.036
1050	0.036
1050	0.036
1051	0.036
1051	0.036
1051	0.036
1052	0.035
1052	0.035
1053	0.035
1053	0.034
1053	0.034
1054	0.033
1054	0.033
1055	0.033
1055	0.032
1056	0.031
1056	0.031
1056	0.03
1057	0.029
1057	0.028
1058	0.028
1058	0.027
1058	0.027
1059	0.027
1059	0.027
1060	0.027
1060	0.027
1061	0.028
1061	0.029
1061	0.03
1062	0.031
1062	0.031
1063	0.032
1063	0.032
1063	0.034
1064	0.036
1064	0.037
1065	0.039
1065	0.041
1066	0.043
1066	0.045
1066	0.048
1067	0.05
1067	0.053
1068	0.055
1068	0.057
1068	0.058
1069	0.059
1069	0.06
1070	0.062
1070	0.063
1071	0.064
1071	0.065
1071	0.065
1072	0.066
1072	0.068
1073	0.069
1073	0.07
1073	0.071
1074	0.072
1074	0.073
1075	0.073
1075	0.074
1076	0.074
1076	0.075
1076	0.075
1077	0.076
1077	0.077
1078	0.079
1078	0.081
1078	0.083
1079	0.085
1079	0.088
1080	0.09
1080	0.093
1080	0.096
1081	0.099
1081	0.102
1082	0.105
1082	0.107
1083	0.11
1083	0.112
1083	0.115
1084	0.119
1084	0.123
1085	0.127
1085	0.131
1085	0.134
1086	0.137
1086	0.141
1087	0.145
1087	0.149
1088	0.152
1088	0.157
1088	0.161
1089	0.165
1089	0.171
1090	0.177
1090	0.185
1090	0.192
1091	0.2
1091	0.21
1092	0.22
1092	0.232
1092	0.243
1093	0.254
1093	0.268
1094	0.281
1094	0.296
1095	0.309
1095	0.327
1095	0.346
1096	0.366
1096	0.388
1097	0.414
1097	0.44
1097	0.471
1098	0.502
1098	0.542
1099	0.588
1099	0.641
1100	0.704
1100	0.787
1100	0.89
1101	1.04
1101	1.289
1102	2.251
1102	-0
1102	-0
1103	-0
1103	-0
1104	-0
1104	-0
1104	-0
1105	-0
1105	-0
1106	-0
1106	-0
1107	-0
1107	-0
1107	-0
1108	-0
1108	-0
1109	-0
1109	-0
1109	-0
1110	-0
1110	-0
1111	-0
1111	-0
