Data from 15c-2-4a_Absorbance__37__00037.txt Node

Date: Thu Jan 25 10:05:25 CET 2024
User: Marek
Spectrometer: MAYP115816
Trigger mode: 0
Integration Time (sec): 2.000000E-1
Scans to average: 10
Electric dark correction enabled: true
Nonlinearity correction enabled: true
Boxcar width: 5
XAxis mode: Wavelengths
Number of Pixels in Spectrum: 2068
>>>>>Begin Spectral Data<<<<<
199	-2.137
199	-1.966
200	-1.812
200	-1.689
201	-1.611
201	-1.554
202	-1.47
202	-1.408
203	-1.355
203	-1.308
204	-1.282
204	-1.255
205	-1.234
205	-1.222
205	-1.216
206	-1.211
206	-1.207
207	-1.207
207	-1.204
208	-1.199
208	-1.195
209	-1.19
209	-1.187
210	-1.185
210	-1.182
211	-1.181
211	-1.18
212	-1.176
212	-1.174
213	-1.172
213	-1.172
213	-1.172
214	-1.171
214	-1.169
215	-1.168
215	-1.165
216	-1.163
216	-1.161
217	-1.16
217	-1.156
218	-1.155
218	-1.152
219	-1.15
219	-1.148
220	-1.147
220	-1.143
221	-1.14
221	-1.137
221	-1.134
222	-1.131
222	-1.13
223	-1.126
223	-1.12
224	-1.112
224	-1.104
225	-1.095
225	-1.087
226	-1.076
226	-1.064
227	-1.05
227	-1.036
228	-1.017
228	-0.999
229	-0.978
229	-0.955
229	-0.93
230	-0.902
230	-0.873
231	-0.84
231	-0.804
232	-0.766
232	-0.725
233	-0.683
233	-0.64
234	-0.597
234	-0.553
235	-0.509
235	-0.467
236	-0.426
236	-0.388
236	-0.351
237	-0.316
237	-0.284
238	-0.254
238	-0.226
239	-0.201
239	-0.176
240	-0.155
240	-0.135
241	-0.117
241	-0.1
242	-0.086
242	-0.072
243	-0.059
243	-0.047
243	-0.037
244	-0.027
244	-0.018
245	-0.01
245	-0.002
246	0.005
246	0.012
247	0.018
247	0.024
248	0.029
248	0.034
249	0.039
249	0.043
250	0.047
250	0.051
250	0.055
251	0.059
251	0.062
252	0.065
252	0.068
253	0.072
253	0.074
254	0.077
254	0.08
255	0.082
255	0.084
256	0.086
256	0.088
257	0.089
257	0.091
258	0.092
258	0.093
258	0.094
259	0.095
259	0.096
260	0.097
260	0.098
261	0.098
261	0.098
262	0.099
262	0.099
263	0.099
263	0.099
264	0.099
264	0.099
265	0.099
265	0.099
265	0.098
266	0.098
266	0.098
267	0.097
267	0.097
268	0.096
268	0.095
269	0.095
269	0.094
270	0.093
270	0.092
271	0.091
271	0.09
272	0.089
272	0.087
272	0.086
273	0.085
273	0.084
274	0.082
274	0.081
275	0.08
275	0.078
276	0.077
276	0.076
277	0.074
277	0.073
278	0.072
278	0.07
278	0.069
279	0.067
279	0.066
280	0.065
280	0.064
281	0.063
281	0.062
282	0.061
282	0.061
283	0.06
283	0.059
284	0.058
284	0.057
285	0.056
285	0.055
285	0.054
286	0.053
286	0.052
287	0.051
287	0.05
288	0.049
288	0.049
289	0.048
289	0.047
290	0.046
290	0.045
291	0.045
291	0.044
292	0.043
292	0.043
292	0.042
293	0.042
293	0.041
294	0.041
294	0.04
295	0.04
295	0.04
296	0.039
296	0.039
297	0.038
297	0.038
298	0.038
298	0.038
298	0.037
299	0.037
299	0.037
300	0.037
300	0.036
301	0.036
301	0.036
302	0.036
302	0.036
303	0.036
303	0.036
304	0.036
304	0.036
305	0.035
305	0.035
305	0.035
306	0.035
306	0.035
307	0.034
307	0.034
308	0.034
308	0.034
309	0.034
309	0.033
310	0.033
310	0.033
311	0.033
311	0.033
311	0.032
312	0.032
312	0.032
313	0.032
313	0.032
314	0.032
314	0.031
315	0.031
315	0.031
316	0.031
316	0.031
317	0.03
317	0.03
318	0.03
318	0.03
318	0.029
319	0.029
319	0.029
320	0.029
320	0.028
321	0.028
321	0.028
322	0.027
322	0.027
323	0.027
323	0.027
324	0.027
324	0.026
324	0.026
325	0.026
325	0.026
326	0.025
326	0.025
327	0.025
327	0.025
328	0.024
328	0.024
329	0.024
329	0.024
330	0.023
330	0.023
330	0.023
331	0.022
331	0.022
332	0.022
332	0.021
333	0.021
333	0.021
334	0.02
334	0.02
335	0.02
335	0.02
336	0.019
336	0.019
336	0.019
337	0.019
337	0.019
338	0.019
338	0.018
339	0.018
339	0.018
340	0.018
340	0.018
341	0.017
341	0.017
342	0.017
342	0.016
342	0.016
343	0.016
343	0.015
344	0.015
344	0.015
345	0.014
345	0.014
346	0.014
346	0.013
347	0.013
347	0.013
348	0.012
348	0.012
348	0.011
349	0.011
349	0.011
350	0.01
350	0.01
351	0.01
351	0.009
352	0.009
352	0.009
353	0.008
353	0.008
354	0.007
354	0.007
354	0.006
355	0.006
355	0.006
356	0.005
356	0.005
357	0.005
357	0.005
358	0.005
358	0.005
359	0.006
359	0.006
360	0.006
360	0.007
360	0.007
361	0.007
361	0.007
362	0.007
362	0.007
363	0.007
363	0.007
364	0.007
364	0.006
365	0.006
365	0.006
366	0.006
366	0.006
366	0.005
367	0.005
367	0.005
368	0.005
368	0.005
369	0.005
369	0.005
370	0.005
370	0.005
371	0.004
371	0.004
372	0.004
372	0.004
372	0.003
373	0.003
373	0.003
374	0.003
374	0.003
375	0.003
375	0.003
376	0.003
376	0.003
377	0.003
377	0.003
378	0.003
378	0.004
378	0.004
379	0.004
379	0.004
380	0.004
380	0.004
381	0.004
381	0.004
382	0.004
382	0.004
383	0.004
383	0.004
383	0.004
384	0.003
384	0.003
385	0.003
385	0.003
386	0.003
386	0.003
387	0.003
387	0.003
388	0.003
388	0.003
389	0.003
389	0.003
389	0.003
390	0.004
390	0.004
391	0.004
391	0.004
392	0.004
392	0.004
393	0.004
393	0.004
394	0.004
394	0.004
394	0.004
395	0.004
395	0.004
396	0.003
396	0.003
397	0.004
397	0.004
398	0.004
398	0.004
399	0.004
399	0.004
400	0.004
400	0.003
400	0.003
401	0.003
401	0.002
402	0.002
402	0.001
403	0.001
403	0.001
404	0.001
404	0.001
405	0.001
405	0.001
405	0.001
406	0.001
406	0.001
407	0.001
407	0
408	0
408	-0
409	-0.001
409	-0.001
410	-0.001
410	-0.001
411	-0.001
411	-0.001
411	-0.001
412	-0.001
412	-0.001
413	-0.001
413	-0.001
414	-0.001
414	-0.001
415	-0.001
415	-0.002
416	-0.002
416	-0.002
416	-0.002
417	-0.002
417	-0.002
418	-0.002
418	-0.002
419	-0.002
419	-0.002
420	-0.001
420	-0.001
421	-0
421	-0
421	0
422	0
422	0
423	0
423	0
424	-0
424	-0.001
425	-0.001
425	-0.002
426	-0.002
426	-0.002
427	-0.003
427	-0.002
427	-0.002
428	-0.002
428	-0.001
429	-0.001
429	-0.001
430	-0.001
430	-0.001
431	-0.001
431	-0.001
432	-0.001
432	-0.002
432	-0.003
433	-0.003
433	-0.004
434	-0.004
434	-0.004
435	-0.005
435	-0.004
436	-0.004
436	-0.004
437	-0.004
437	-0.004
437	-0.004
438	-0.004
438	-0.005
439	-0.005
439	-0.005
440	-0.005
440	-0.006
441	-0.006
441	-0.006
442	-0.005
442	-0.005
442	-0.005
443	-0.005
443	-0.005
444	-0.004
444	-0.004
445	-0.004
445	-0.004
446	-0.004
446	-0.003
447	-0.003
447	-0.004
447	-0.004
448	-0.004
448	-0.004
449	-0.004
449	-0.004
450	-0.004
450	-0.004
451	-0.004
451	-0.005
452	-0.005
452	-0.006
452	-0.006
453	-0.006
453	-0.007
454	-0.007
454	-0.008
455	-0.008
455	-0.009
456	-0.009
456	-0.009
457	-0.009
457	-0.009
458	-0.009
458	-0.009
458	-0.009
459	-0.009
459	-0.009
460	-0.009
460	-0.01
461	-0.01
461	-0.01
462	-0.01
462	-0.01
463	-0.01
463	-0.01
463	-0.01
464	-0.01
464	-0.01
465	-0.01
465	-0.01
466	-0.01
466	-0.01
467	-0.01
467	-0.011
467	-0.012
468	-0.013
468	-0.014
469	-0.015
469	-0.016
470	-0.017
470	-0.018
471	-0.018
471	-0.018
472	-0.019
472	-0.019
472	-0.018
473	-0.018
473	-0.017
474	-0.017
474	-0.016
475	-0.016
475	-0.015
476	-0.015
476	-0.015
477	-0.015
477	-0.015
477	-0.015
478	-0.015
478	-0.015
479	-0.015
479	-0.015
480	-0.014
480	-0.014
481	-0.014
481	-0.013
482	-0.013
482	-0.013
482	-0.012
483	-0.011
483	-0.01
484	-0.008
484	-0.007
485	-0.006
485	-0.006
486	-0.005
486	-0.005
487	-0.005
487	-0.005
487	-0.005
488	-0.006
488	-0.007
489	-0.009
489	-0.01
490	-0.011
490	-0.012
491	-0.013
491	-0.013
492	-0.013
492	-0.013
492	-0.013
493	-0.013
493	-0.013
494	-0.012
494	-0.011
495	-0.011
495	-0.01
496	-0.01
496	-0.01
496	-0.01
497	-0.01
497	-0.01
498	-0.01
498	-0.01
499	-0.011
499	-0.011
500	-0.011
500	-0.011
501	-0.011
501	-0.01
501	-0.009
502	-0.009
502	-0.008
503	-0.008
503	-0.007
504	-0.007
504	-0.007
505	-0.007
505	-0.007
506	-0.007
506	-0.007
506	-0.007
507	-0.007
507	-0.007
508	-0.007
508	-0.008
509	-0.008
509	-0.008
510	-0.008
510	-0.008
511	-0.009
511	-0.009
511	-0.01
512	-0.01
512	-0.011
513	-0.011
513	-0.012
514	-0.012
514	-0.013
515	-0.014
515	-0.015
515	-0.015
516	-0.016
516	-0.017
517	-0.017
517	-0.017
518	-0.017
518	-0.017
519	-0.018
519	-0.018
520	-0.019
520	-0.021
520	-0.022
521	-0.023
521	-0.025
522	-0.027
522	-0.03
523	-0.032
523	-0.033
524	-0.034
524	-0.034
524	-0.034
525	-0.032
525	-0.031
526	-0.029
526	-0.027
527	-0.024
527	-0.022
528	-0.019
528	-0.017
529	-0.015
529	-0.014
529	-0.013
530	-0.013
530	-0.012
531	-0.011
531	-0.011
532	-0.01
532	-0.01
533	-0.01
533	-0.009
533	-0.009
534	-0.009
534	-0.009
535	-0.009
535	-0.009
536	-0.009
536	-0.008
537	-0.008
537	-0.008
538	-0.009
538	-0.009
538	-0.01
539	-0.01
539	-0.009
540	-0.01
540	-0.01
541	-0.01
541	-0.01
542	-0.011
542	-0.011
542	-0.011
543	-0.011
543	-0.011
544	-0.011
544	-0.011
545	-0.011
545	-0.01
546	-0.01
546	-0.009
547	-0.01
547	-0.01
547	-0.011
548	-0.012
548	-0.013
549	-0.013
549	-0.014
550	-0.015
550	-0.015
551	-0.016
551	-0.017
551	-0.018
552	-0.018
552	-0.018
553	-0.018
553	-0.017
554	-0.016
554	-0.016
555	-0.016
555	-0.017
556	-0.018
556	-0.019
556	-0.019
557	-0.021
557	-0.021
558	-0.022
558	-0.022
559	-0.023
559	-0.023
560	-0.022
560	-0.022
560	-0.021
561	-0.021
561	-0.02
562	-0.019
562	-0.019
563	-0.019
563	-0.02
564	-0.021
564	-0.022
564	-0.023
565	-0.024
565	-0.024
566	-0.024
566	-0.024
567	-0.024
567	-0.023
568	-0.022
568	-0.02
568	-0.018
569	-0.016
569	-0.014
570	-0.012
570	-0.011
571	-0.01
571	-0.009
572	-0.008
572	-0.007
573	-0.006
573	-0.006
573	-0.005
574	-0.005
574	-0.005
575	-0.005
575	-0.003
576	-0.002
576	-0.001
577	-0.001
577	-0.001
577	-0.001
578	-0.001
578	-0.001
579	-0.001
579	0
580	0.001
580	0
581	-0.001
581	-0.002
581	-0.002
582	-0.003
582	-0.002
583	-0.002
583	-0.001
584	-0.002
584	-0.003
585	-0.004
585	-0.005
585	-0.005
586	-0.005
586	-0.005
587	-0.005
587	-0.006
588	-0.007
588	-0.009
589	-0.01
589	-0.011
590	-0.011
590	-0.012
590	-0.012
591	-0.012
591	-0.011
592	-0.011
592	-0.011
593	-0.011
593	-0.011
594	-0.011
594	-0.011
594	-0.011
595	-0.012
595	-0.012
596	-0.013
596	-0.013
597	-0.012
597	-0.011
598	-0.01
598	-0.009
598	-0.009
599	-0.008
599	-0.008
600	-0.008
600	-0.009
601	-0.009
601	-0.01
602	-0.011
602	-0.012
602	-0.013
603	-0.013
603	-0.014
604	-0.013
604	-0.013
605	-0.012
605	-0.011
606	-0.011
606	-0.011
606	-0.011
607	-0.011
607	-0.011
608	-0.011
608	-0.012
609	-0.012
609	-0.013
610	-0.013
610	-0.014
610	-0.014
611	-0.014
611	-0.014
612	-0.013
612	-0.012
613	-0.011
613	-0.01
614	-0.01
614	-0.01
614	-0.01
615	-0.011
615	-0.011
616	-0.012
616	-0.013
617	-0.014
617	-0.015
618	-0.016
618	-0.017
618	-0.018
619	-0.019
619	-0.019
620	-0.018
620	-0.018
621	-0.017
621	-0.018
622	-0.017
622	-0.017
622	-0.017
623	-0.018
623	-0.018
624	-0.018
624	-0.018
625	-0.019
625	-0.019
626	-0.019
626	-0.019
626	-0.02
627	-0.02
627	-0.02
628	-0.02
628	-0.02
629	-0.02
629	-0.02
630	-0.02
630	-0.021
630	-0.022
631	-0.022
631	-0.021
632	-0.022
632	-0.022
633	-0.022
633	-0.023
634	-0.022
634	-0.022
634	-0.021
635	-0.02
635	-0.02
636	-0.02
636	-0.019
637	-0.019
637	-0.019
638	-0.019
638	-0.018
638	-0.018
639	-0.019
639	-0.019
640	-0.019
640	-0.019
641	-0.018
641	-0.018
642	-0.017
642	-0.016
642	-0.015
643	-0.014
643	-0.013
644	-0.012
644	-0.011
645	-0.01
645	-0.01
646	-0.009
646	-0.008
646	-0.007
647	-0.006
647	-0.005
648	-0.003
648	-0.002
649	-0.001
649	-0
650	0.001
650	0.002
650	0.003
651	0.004
651	0.004
652	0.005
652	0.005
653	0.005
653	0.008
653	0.009
654	0.009
654	0.009
655	0.011
655	0.012
656	0.013
656	0.014
657	0.015
657	0.016
657	0.017
658	0.016
658	0.018
659	0.02
659	0.022
660	0.021
660	0.021
661	0.021
661	0.021
661	0.021
662	0.022
662	0.023
663	0.023
663	0.024
664	0.025
664	0.026
665	0.027
665	0.028
665	0.029
666	0.03
666	0.031
667	0.032
667	0.033
668	0.033
668	0.034
669	0.035
669	0.036
669	0.038
670	0.039
670	0.041
671	0.042
671	0.042
672	0.043
672	0.043
672	0.043
673	0.043
673	0.044
674	0.044
674	0.043
675	0.043
675	0.043
676	0.043
676	0.044
676	0.044
677	0.045
677	0.046
678	0.047
678	0.048
679	0.048
679	0.049
680	0.049
680	0.05
680	0.051
681	0.051
681	0.051
682	0.052
682	0.052
683	0.053
683	0.055
684	0.056
684	0.057
684	0.057
685	0.057
685	0.057
686	0.058
686	0.058
687	0.058
687	0.057
687	0.057
688	0.056
688	0.055
689	0.054
689	0.054
690	0.054
690	0.053
691	0.053
691	0.052
691	0.052
692	0.052
692	0.052
693	0.052
693	0.053
694	0.053
694	0.053
695	0.054
695	0.055
695	0.057
696	0.057
696	0.058
697	0.058
697	0.058
698	0.058
698	0.057
698	0.057
699	0.056
699	0.055
700	0.053
700	0.052
701	0.052
701	0.051
702	0.051
702	0.05
702	0.049
703	0.049
703	0.048
704	0.047
704	0.047
705	0.047
705	0.046
705	0.046
706	0.045
706	0.045
707	0.044
707	0.044
708	0.043
708	0.043
709	0.043
709	0.042
709	0.041
710	0.04
710	0.039
711	0.038
711	0.038
712	0.038
712	0.038
713	0.038
713	0.038
713	0.038
714	0.038
714	0.037
715	0.037
715	0.036
716	0.035
716	0.035
716	0.034
717	0.033
717	0.032
718	0.031
718	0.03
719	0.028
719	0.028
720	0.027
720	0.026
720	0.025
721	0.023
721	0.021
722	0.019
722	0.018
723	0.016
723	0.016
723	0.015
724	0.013
724	0.012
725	0.011
725	0.011
726	0.01
726	0.01
727	0.01
727	0.009
727	0.009
728	0.008
728	0.008
729	0.008
729	0.008
730	0.008
730	0.007
730	0.007
731	0.006
731	0.006
732	0.005
732	0.005
733	0.004
733	0.004
734	0.003
734	0.002
734	0.001
735	0
735	-0
736	-0.002
736	-0.003
737	-0.003
737	-0.004
737	-0.005
738	-0.006
738	-0.007
739	-0.008
739	-0.009
740	-0.01
740	-0.011
741	-0.012
741	-0.013
741	-0.015
742	-0.017
742	-0.019
743	-0.02
743	-0.022
744	-0.023
744	-0.024
744	-0.025
745	-0.026
745	-0.027
746	-0.028
746	-0.029
747	-0.029
747	-0.029
748	-0.03
748	-0.03
748	-0.03
749	-0.031
749	-0.031
750	-0.031
750	-0.031
751	-0.03
751	-0.03
751	-0.03
752	-0.029
752	-0.029
753	-0.029
753	-0.029
754	-0.029
754	-0.03
754	-0.03
755	-0.03
755	-0.029
756	-0.029
756	-0.03
757	-0.031
757	-0.031
758	-0.031
758	-0.032
758	-0.033
759	-0.033
759	-0.034
760	-0.035
760	-0.037
761	-0.039
761	-0.04
761	-0.041
762	-0.042
762	-0.042
763	-0.042
763	-0.042
764	-0.044
764	-0.045
764	-0.046
765	-0.047
765	-0.048
766	-0.049
766	-0.049
767	-0.05
767	-0.051
768	-0.053
768	-0.055
768	-0.056
769	-0.056
769	-0.056
770	-0.056
770	-0.056
771	-0.057
771	-0.059
771	-0.06
772	-0.062
772	-0.064
773	-0.065
773	-0.068
774	-0.07
774	-0.073
775	-0.076
775	-0.079
775	-0.083
776	-0.087
776	-0.09
777	-0.094
777	-0.097
778	-0.101
778	-0.105
778	-0.108
779	-0.111
779	-0.111
780	-0.113
780	-0.116
781	-0.119
781	-0.121
781	-0.123
782	-0.126
782	-0.13
783	-0.133
783	-0.134
784	-0.136
784	-0.139
784	-0.141
785	-0.142
785	-0.144
786	-0.145
786	-0.143
787	-0.139
787	-0.135
788	-0.134
788	-0.135
788	-0.137
789	-0.139
789	-0.14
790	-0.137
790	-0.136
791	-0.137
791	-0.138
791	-0.141
792	-0.135
792	-0.124
793	-0.117
793	-0.113
794	-0.11
794	-0.111
794	-0.115
795	-0.116
795	-0.116
796	-0.116
796	-0.119
797	-0.127
797	-0.139
797	-0.145
798	-0.151
798	-0.155
799	-0.156
799	-0.156
800	-0.156
800	-0.158
801	-0.161
801	-0.162
801	-0.162
802	-0.163
802	-0.164
803	-0.165
803	-0.165
804	-0.163
804	-0.157
804	-0.15
805	-0.146
805	-0.144
806	-0.141
806	-0.14
807	-0.139
807	-0.138
807	-0.137
808	-0.137
808	-0.137
809	-0.141
809	-0.147
810	-0.15
810	-0.152
810	-0.155
811	-0.158
811	-0.158
812	-0.155
812	-0.152
813	-0.152
813	-0.153
813	-0.155
814	-0.156
814	-0.157
815	-0.156
815	-0.153
816	-0.152
816	-0.153
817	-0.158
817	-0.162
817	-0.163
818	-0.162
818	-0.159
819	-0.154
819	-0.151
820	-0.152
820	-0.154
820	-0.155
821	-0.154
821	-0.151
822	-0.148
822	-0.144
823	-0.14
823	-0.138
823	-0.138
824	-0.135
824	-0.128
825	-0.12
825	-0.111
826	-0.103
826	-0.096
826	-0.09
827	-0.084
827	-0.079
828	-0.074
828	-0.07
829	-0.067
829	-0.064
829	-0.061
830	-0.06
830	-0.058
831	-0.055
831	-0.052
832	-0.05
832	-0.048
832	-0.047
833	-0.045
833	-0.044
834	-0.043
834	-0.042
835	-0.042
835	-0.042
835	-0.042
836	-0.042
836	-0.041
837	-0.041
837	-0.041
838	-0.041
838	-0.04
839	-0.04
839	-0.04
839	-0.039
840	-0.039
840	-0.038
841	-0.038
841	-0.037
842	-0.036
842	-0.035
842	-0.034
843	-0.033
843	-0.032
844	-0.031
844	-0.03
845	-0.029
845	-0.029
845	-0.028
846	-0.028
846	-0.028
847	-0.027
847	-0.027
848	-0.026
848	-0.026
848	-0.025
849	-0.024
849	-0.023
850	-0.022
850	-0.021
851	-0.02
851	-0.019
851	-0.018
852	-0.017
852	-0.017
853	-0.016
853	-0.016
854	-0.016
854	-0.016
854	-0.016
855	-0.016
855	-0.016
856	-0.016
856	-0.016
857	-0.016
857	-0.016
857	-0.015
858	-0.015
858	-0.014
859	-0.014
859	-0.013
860	-0.013
860	-0.012
860	-0.012
861	-0.011
861	-0.01
862	-0.009
862	-0.008
863	-0.006
863	-0.005
863	-0.004
864	-0.003
864	-0.002
865	-0.001
865	-0
866	0
866	0.001
866	0.001
867	0.001
867	0.001
868	0
868	-0
869	-0.001
869	-0.001
869	-0.002
870	-0.002
870	-0.002
871	-0.002
871	-0.003
872	-0.003
872	-0.004
872	-0.004
873	-0.004
873	-0.004
874	-0.004
874	-0.003
875	-0.003
875	-0.003
875	-0.002
876	-0.001
876	-0
877	0
877	0.001
878	0.001
878	0.001
878	0.001
879	0.001
879	0.001
880	0.001
880	0.001
881	0
881	-0
881	-0
882	-0
882	-0
883	-0
883	0
884	0
884	0
884	0
885	0.001
885	0.001
886	0.001
886	0
887	0
887	-0
887	-0.001
888	-0.001
888	-0.002
889	-0.002
889	-0.002
890	-0.002
890	-0.002
890	-0.002
891	-0.002
891	-0.002
892	-0.002
892	-0.001
893	-0.001
893	-0
893	-0
894	0
894	-0
895	-0
895	-0
895	-0.001
896	-0.001
896	-0.001
897	-0.002
897	-0.002
898	-0.003
898	-0.003
898	-0.003
899	-0.004
899	-0.004
900	-0.004
900	-0.004
901	-0.005
901	-0.005
901	-0.005
902	-0.006
902	-0.006
903	-0.006
903	-0.006
904	-0.006
904	-0.006
904	-0.006
905	-0.005
905	-0.004
906	-0.003
906	-0.002
907	-0.001
907	-0
907	0
908	0.001
908	0.001
909	0.002
909	0.002
910	0.002
910	0.002
910	0.002
911	0.002
911	0.002
912	0.002
912	0.002
913	0.002
913	0.003
913	0.003
914	0.003
914	0.004
915	0.004
915	0.005
916	0.005
916	0.005
916	0.005
917	0.005
917	0.005
918	0.005
918	0.004
918	0.004
919	0.003
919	0.003
920	0.002
920	0.001
921	0
921	-0
921	-0.001
922	-0.001
922	-0.001
923	-0
923	-0
924	-0
924	0.001
924	0.001
925	0.002
925	0.003
926	0.003
926	0.004
927	0.004
927	0.005
927	0.005
928	0.005
928	0.006
929	0.006
929	0.006
930	0.006
930	0.006
930	0.005
931	0.005
931	0.005
932	0.005
932	0.005
933	0.005
933	0.005
933	0.005
934	0.005
934	0.005
935	0.006
935	0.006
935	0.007
936	0.007
936	0.008
937	0.008
937	0.008
938	0.008
938	0.007
938	0.007
939	0.007
939	0.007
940	0.007
940	0.007
941	0.007
941	0.008
941	0.009
942	0.009
942	0.01
943	0.011
943	0.012
944	0.013
944	0.014
944	0.015
945	0.016
945	0.016
946	0.017
946	0.017
946	0.017
947	0.018
947	0.017
948	0.017
948	0.017
949	0.016
949	0.016
949	0.015
950	0.014
950	0.013
951	0.012
951	0.011
952	0.011
952	0.011
952	0.011
953	0.011
953	0.011
954	0.011
954	0.012
955	0.012
955	0.013
955	0.014
956	0.014
956	0.014
957	0.014
957	0.014
957	0.014
958	0.014
958	0.014
959	0.014
959	0.014
960	0.014
960	0.014
960	0.014
961	0.014
961	0.014
962	0.015
962	0.015
963	0.016
963	0.016
963	0.017
964	0.017
964	0.017
965	0.017
965	0.016
966	0.016
966	0.015
966	0.015
967	0.014
967	0.013
968	0.012
968	0.011
968	0.01
969	0.01
969	0.009
970	0.008
970	0.008
971	0.008
971	0.008
971	0.009
972	0.009
972	0.01
973	0.01
973	0.011
974	0.012
974	0.013
974	0.013
975	0.014
975	0.014
976	0.014
976	0.014
976	0.013
977	0.012
977	0.012
978	0.011
978	0.01
979	0.009
979	0.008
979	0.007
980	0.006
980	0.006
981	0.005
981	0.005
982	0.004
982	0.004
982	0.003
983	0.003
983	0.003
984	0.003
984	0.003
984	0.002
985	0.002
985	0.002
986	0.002
986	0.002
987	0.002
987	0.002
987	0.002
988	0.002
988	0.002
989	0.002
989	0.002
990	0.003
990	0.003
990	0.003
991	0.003
991	0.003
992	0.003
992	0.003
992	0.003
993	0.002
993	0.002
994	0.002
994	0.001
995	0.001
995	0
995	-0
996	-0.001
996	-0.001
997	-0.001
997	-0.001
997	-0.001
998	-0.001
998	-0
999	0
999	0.001
1000	0.001
1000	0.002
1000	0.003
1001	0.003
1001	0.004
1002	0.004
1002	0.004
1003	0.004
1003	0.004
1003	0.004
1004	0.004
1004	0.004
1005	0.004
1005	0.004
1005	0.003
1006	0.003
1006	0.003
1007	0.004
1007	0.004
1008	0.004
1008	0.004
1008	0.004
1009	0.004
1009	0.005
1010	0.005
1010	0.005
1010	0.006
1011	0.007
1011	0.008
1012	0.009
1012	0.01
1013	0.011
1013	0.012
1013	0.013
1014	0.014
1014	0.015
1015	0.016
1015	0.017
1016	0.017
1016	0.018
1016	0.019
1017	0.019
1017	0.02
1018	0.02
1018	0.021
1018	0.021
1019	0.021
1019	0.021
1020	0.021
1020	0.021
1021	0.021
1021	0.02
1021	0.02
1022	0.02
1022	0.019
1023	0.019
1023	0.019
1023	0.018
1024	0.018
1024	0.018
1025	0.018
1025	0.018
1026	0.018
1026	0.018
1026	0.017
1027	0.017
1027	0.017
1028	0.017
1028	0.016
1028	0.016
1029	0.016
1029	0.016
1030	0.016
1030	0.016
1031	0.016
1031	0.017
1031	0.017
1032	0.017
1032	0.017
1033	0.017
1033	0.017
1033	0.017
1034	0.017
1034	0.018
1035	0.018
1035	0.018
1036	0.018
1036	0.019
1036	0.02
1037	0.021
1037	0.022
1038	0.023
1038	0.023
1039	0.024
1039	0.025
1039	0.025
1040	0.026
1040	0.026
1041	0.027
1041	0.027
1041	0.027
1042	0.028
1042	0.028
1043	0.029
1043	0.03
1044	0.03
1044	0.031
1044	0.032
1045	0.033
1045	0.034
1046	0.035
1046	0.036
1046	0.037
1047	0.038
1047	0.038
1048	0.039
1048	0.04
1049	0.04
1049	0.041
1049	0.041
1050	0.042
1050	0.042
1051	0.043
1051	0.042
1051	0.042
1052	0.043
1052	0.043
1053	0.043
1053	0.042
1053	0.042
1054	0.042
1054	0.042
1055	0.042
1055	0.042
1056	0.042
1056	0.042
1056	0.042
1057	0.043
1057	0.043
1058	0.044
1058	0.044
1058	0.045
1059	0.046
1059	0.047
1060	0.048
1060	0.049
1061	0.05
1061	0.051
1061	0.052
1062	0.053
1062	0.054
1063	0.055
1063	0.056
1063	0.057
1064	0.058
1064	0.06
1065	0.061
1065	0.063
1066	0.065
1066	0.067
1066	0.068
1067	0.07
1067	0.072
1068	0.074
1068	0.075
1068	0.077
1069	0.078
1069	0.079
1070	0.081
1070	0.082
1071	0.083
1071	0.085
1071	0.086
1072	0.088
1072	0.09
1073	0.092
1073	0.094
1073	0.096
1074	0.097
1074	0.099
1075	0.099
1075	0.1
1076	0.102
1076	0.103
1076	0.105
1077	0.106
1077	0.107
1078	0.109
1078	0.11
1078	0.112
1079	0.113
1079	0.115
1080	0.117
1080	0.119
1080	0.121
1081	0.122
1081	0.124
1082	0.126
1082	0.128
1083	0.131
1083	0.135
1083	0.138
1084	0.142
1084	0.145
1085	0.149
1085	0.153
1085	0.156
1086	0.161
1086	0.165
1087	0.169
1087	0.173
1088	0.177
1088	0.181
1088	0.186
1089	0.192
1089	0.198
1090	0.206
1090	0.214
1090	0.222
1091	0.23
1091	0.239
1092	0.25
1092	0.261
1092	0.273
1093	0.285
1093	0.298
1094	0.312
1094	0.325
1095	0.342
1095	0.361
1095	0.38
1096	0.402
1096	0.428
1097	0.454
1097	0.484
1097	0.521
1098	0.558
1098	0.604
1099	0.659
1099	0.721
1100	0.797
1100	0.901
1100	1.05
1101	1.276
1101	1.967
1102	-0
1102	-0
1102	-0
1103	-0
1103	-0
1104	-0
1104	-0
1104	-0
1105	-0
1105	-0
1106	-0
1106	-0
1107	-0
1107	-0
1107	-0
1108	-0
1108	-0
1109	-0
1109	-0
1109	-0
1110	-0
1110	-0
1111	-0
1111	-0
