Data from 15c-2-4a_Absorbance__1177__01177.txt Node

Date: Thu Jan 25 10:43:24 CET 2024
User: Marek
Spectrometer: MAYP115816
Trigger mode: 0
Integration Time (sec): 2.000000E-1
Scans to average: 10
Electric dark correction enabled: true
Nonlinearity correction enabled: true
Boxcar width: 5
XAxis mode: Wavelengths
Number of Pixels in Spectrum: 2068
>>>>>Begin Spectral Data<<<<<
199	-2.171
199	-2.001
200	-1.847
200	-1.724
201	-1.646
201	-1.589
202	-1.506
202	-1.444
203	-1.392
203	-1.345
204	-1.319
204	-1.29
205	-1.269
205	-1.257
205	-1.252
206	-1.247
206	-1.244
207	-1.244
207	-1.24
208	-1.236
208	-1.232
209	-1.228
209	-1.225
210	-1.223
210	-1.22
211	-1.219
211	-1.218
212	-1.214
212	-1.212
213	-1.21
213	-1.21
213	-1.21
214	-1.209
214	-1.208
215	-1.206
215	-1.204
216	-1.202
216	-1.2
217	-1.199
217	-1.196
218	-1.195
218	-1.192
219	-1.189
219	-1.187
220	-1.186
220	-1.182
221	-1.179
221	-1.177
221	-1.173
222	-1.17
222	-1.169
223	-1.164
223	-1.158
224	-1.15
224	-1.141
225	-1.132
225	-1.124
226	-1.113
226	-1.1
227	-1.085
227	-1.072
228	-1.052
228	-1.033
229	-1.012
229	-0.988
229	-0.961
230	-0.931
230	-0.9
231	-0.865
231	-0.826
232	-0.784
232	-0.739
233	-0.693
233	-0.645
234	-0.596
234	-0.546
235	-0.497
235	-0.447
236	-0.399
236	-0.352
236	-0.306
237	-0.262
237	-0.22
238	-0.181
238	-0.143
239	-0.107
239	-0.074
240	-0.043
240	-0.013
241	0.014
241	0.039
242	0.062
242	0.084
243	0.104
243	0.122
243	0.139
244	0.155
244	0.17
245	0.183
245	0.195
246	0.206
246	0.217
247	0.227
247	0.236
248	0.245
248	0.253
249	0.26
249	0.267
250	0.274
250	0.28
250	0.286
251	0.292
251	0.297
252	0.302
252	0.306
253	0.311
253	0.315
254	0.319
254	0.322
255	0.326
255	0.329
256	0.332
256	0.334
257	0.337
257	0.339
258	0.341
258	0.342
258	0.344
259	0.346
259	0.347
260	0.349
260	0.35
261	0.35
261	0.351
262	0.352
262	0.352
263	0.353
263	0.353
264	0.353
264	0.354
265	0.354
265	0.354
265	0.353
266	0.354
266	0.353
267	0.353
267	0.353
268	0.352
268	0.351
269	0.351
269	0.35
270	0.349
270	0.348
271	0.347
271	0.346
272	0.345
272	0.343
272	0.342
273	0.341
273	0.34
274	0.338
274	0.337
275	0.336
275	0.334
276	0.332
276	0.331
277	0.329
277	0.327
278	0.325
278	0.323
278	0.321
279	0.319
279	0.318
280	0.317
280	0.315
281	0.315
281	0.314
282	0.313
282	0.312
283	0.311
283	0.311
284	0.31
284	0.309
285	0.308
285	0.306
285	0.305
286	0.304
286	0.303
287	0.302
287	0.3
288	0.299
288	0.298
289	0.297
289	0.296
290	0.295
290	0.294
291	0.293
291	0.292
292	0.291
292	0.29
292	0.289
293	0.288
293	0.288
294	0.287
294	0.286
295	0.285
295	0.285
296	0.284
296	0.283
297	0.282
297	0.282
298	0.281
298	0.28
298	0.279
299	0.279
299	0.278
300	0.277
300	0.277
301	0.276
301	0.275
302	0.274
302	0.274
303	0.273
303	0.273
304	0.272
304	0.271
305	0.271
305	0.27
305	0.269
306	0.269
306	0.268
307	0.267
307	0.266
308	0.266
308	0.265
309	0.264
309	0.263
310	0.263
310	0.262
311	0.261
311	0.26
311	0.259
312	0.259
312	0.258
313	0.257
313	0.256
314	0.256
314	0.255
315	0.254
315	0.253
316	0.253
316	0.252
317	0.251
317	0.25
318	0.249
318	0.248
318	0.248
319	0.247
319	0.246
320	0.245
320	0.244
321	0.243
321	0.243
322	0.242
322	0.241
323	0.24
323	0.24
324	0.239
324	0.238
324	0.237
325	0.236
325	0.235
326	0.235
326	0.234
327	0.233
327	0.233
328	0.232
328	0.231
329	0.23
329	0.23
330	0.229
330	0.228
330	0.227
331	0.226
331	0.226
332	0.225
332	0.224
333	0.224
333	0.223
334	0.222
334	0.221
335	0.221
335	0.22
336	0.219
336	0.219
336	0.218
337	0.218
337	0.217
338	0.216
338	0.216
339	0.215
339	0.214
340	0.214
340	0.213
341	0.212
341	0.212
342	0.211
342	0.21
342	0.21
343	0.209
343	0.208
344	0.208
344	0.207
345	0.207
345	0.206
346	0.205
346	0.204
347	0.204
347	0.203
348	0.202
348	0.202
348	0.201
349	0.2
349	0.2
350	0.199
350	0.199
351	0.198
351	0.197
352	0.196
352	0.196
353	0.195
353	0.194
354	0.193
354	0.192
354	0.191
355	0.19
355	0.189
356	0.188
356	0.188
357	0.187
357	0.187
358	0.186
358	0.187
359	0.187
359	0.188
360	0.188
360	0.189
360	0.19
361	0.19
361	0.191
362	0.191
362	0.191
363	0.191
363	0.191
364	0.19
364	0.19
365	0.189
365	0.189
366	0.188
366	0.188
366	0.188
367	0.187
367	0.187
368	0.187
368	0.187
369	0.186
369	0.186
370	0.185
370	0.185
371	0.185
371	0.184
372	0.184
372	0.183
372	0.183
373	0.183
373	0.182
374	0.182
374	0.182
375	0.182
375	0.182
376	0.181
376	0.181
377	0.182
377	0.182
378	0.182
378	0.182
378	0.183
379	0.183
379	0.183
380	0.183
380	0.183
381	0.183
381	0.182
382	0.182
382	0.181
383	0.181
383	0.181
383	0.18
384	0.179
384	0.179
385	0.179
385	0.178
386	0.178
386	0.178
387	0.178
387	0.178
388	0.178
388	0.178
389	0.178
389	0.178
389	0.178
390	0.178
390	0.178
391	0.178
391	0.178
392	0.178
392	0.178
393	0.178
393	0.178
394	0.178
394	0.178
394	0.177
395	0.177
395	0.176
396	0.176
396	0.176
397	0.176
397	0.177
398	0.177
398	0.176
399	0.176
399	0.176
400	0.176
400	0.176
400	0.175
401	0.175
401	0.174
402	0.172
402	0.172
403	0.171
403	0.171
404	0.171
404	0.171
405	0.17
405	0.17
405	0.169
406	0.169
406	0.169
407	0.169
407	0.169
408	0.168
408	0.168
409	0.167
409	0.167
410	0.166
410	0.166
411	0.166
411	0.166
411	0.166
412	0.166
412	0.165
413	0.165
413	0.165
414	0.165
414	0.164
415	0.164
415	0.164
416	0.163
416	0.163
416	0.163
417	0.162
417	0.162
418	0.162
418	0.162
419	0.162
419	0.163
420	0.164
420	0.164
421	0.164
421	0.165
421	0.165
422	0.165
422	0.165
423	0.165
423	0.164
424	0.164
424	0.163
425	0.162
425	0.161
426	0.161
426	0.16
427	0.16
427	0.161
427	0.161
428	0.162
428	0.162
429	0.163
429	0.163
430	0.163
430	0.163
431	0.163
431	0.162
432	0.162
432	0.161
432	0.16
433	0.159
433	0.158
434	0.157
434	0.157
435	0.157
435	0.157
436	0.157
436	0.157
437	0.157
437	0.157
437	0.157
438	0.157
438	0.157
439	0.157
439	0.157
440	0.156
440	0.156
441	0.156
441	0.156
442	0.156
442	0.157
442	0.157
443	0.157
443	0.157
444	0.157
444	0.157
445	0.158
445	0.158
446	0.158
446	0.158
447	0.157
447	0.157
447	0.157
448	0.157
448	0.156
449	0.156
449	0.156
450	0.156
450	0.156
451	0.155
451	0.155
452	0.155
452	0.154
452	0.153
453	0.153
453	0.153
454	0.152
454	0.152
455	0.151
455	0.151
456	0.151
456	0.15
457	0.15
457	0.15
458	0.15
458	0.15
458	0.15
459	0.15
459	0.15
460	0.15
460	0.149
461	0.149
461	0.148
462	0.148
462	0.148
463	0.148
463	0.148
463	0.149
464	0.15
464	0.15
465	0.15
465	0.15
466	0.151
466	0.151
467	0.151
467	0.15
467	0.149
468	0.148
468	0.146
469	0.144
469	0.143
470	0.142
470	0.141
471	0.141
471	0.141
472	0.14
472	0.141
472	0.141
473	0.142
473	0.143
474	0.144
474	0.146
475	0.147
475	0.148
476	0.148
476	0.148
477	0.149
477	0.149
477	0.15
478	0.15
478	0.151
479	0.152
479	0.152
480	0.153
480	0.154
481	0.155
481	0.156
482	0.156
482	0.158
482	0.159
483	0.161
483	0.164
484	0.167
484	0.17
485	0.172
485	0.173
486	0.175
486	0.175
487	0.176
487	0.177
487	0.177
488	0.176
488	0.174
489	0.172
489	0.17
490	0.169
490	0.168
491	0.167
491	0.167
492	0.168
492	0.169
492	0.169
493	0.17
493	0.171
494	0.173
494	0.175
495	0.178
495	0.179
496	0.181
496	0.182
496	0.183
497	0.183
497	0.184
498	0.185
498	0.186
499	0.186
499	0.187
500	0.187
500	0.188
501	0.19
501	0.191
501	0.193
502	0.195
502	0.196
503	0.198
503	0.199
504	0.201
504	0.201
505	0.201
505	0.202
506	0.203
506	0.203
506	0.203
507	0.203
507	0.204
508	0.204
508	0.205
509	0.205
509	0.206
510	0.206
510	0.206
511	0.207
511	0.207
511	0.208
512	0.208
512	0.208
513	0.208
513	0.206
514	0.205
514	0.204
515	0.204
515	0.204
515	0.204
516	0.204
516	0.203
517	0.203
517	0.203
518	0.202
518	0.201
519	0.199
519	0.197
520	0.194
520	0.191
520	0.188
521	0.186
521	0.183
522	0.182
522	0.181
523	0.181
523	0.183
524	0.185
524	0.188
524	0.192
525	0.195
525	0.199
526	0.202
526	0.204
527	0.207
527	0.209
528	0.211
528	0.212
529	0.213
529	0.213
529	0.213
530	0.212
530	0.212
531	0.212
531	0.212
532	0.212
532	0.211
533	0.211
533	0.211
533	0.211
534	0.21
534	0.209
535	0.208
535	0.208
536	0.207
536	0.207
537	0.206
537	0.205
538	0.204
538	0.203
538	0.201
539	0.2
539	0.2
540	0.198
540	0.197
541	0.195
541	0.193
542	0.191
542	0.189
542	0.188
543	0.186
543	0.185
544	0.184
544	0.182
545	0.181
545	0.18
546	0.18
546	0.18
547	0.178
547	0.176
547	0.174
548	0.172
548	0.17
549	0.167
549	0.165
550	0.164
550	0.161
551	0.158
551	0.156
551	0.154
552	0.152
552	0.151
553	0.15
553	0.15
554	0.149
554	0.148
555	0.146
555	0.143
556	0.14
556	0.137
556	0.134
557	0.131
557	0.128
558	0.126
558	0.123
559	0.121
559	0.12
560	0.119
560	0.118
560	0.117
561	0.117
561	0.117
562	0.117
562	0.116
563	0.115
563	0.113
564	0.11
564	0.107
564	0.105
565	0.103
565	0.101
566	0.1
566	0.099
567	0.098
567	0.098
568	0.099
568	0.1
568	0.101
569	0.103
569	0.105
570	0.106
570	0.106
571	0.107
571	0.107
572	0.108
572	0.108
573	0.108
573	0.108
573	0.107
574	0.106
574	0.105
575	0.105
575	0.106
576	0.107
576	0.106
577	0.105
577	0.104
577	0.103
578	0.102
578	0.101
579	0.102
579	0.103
580	0.102
580	0.1
581	0.098
581	0.096
581	0.094
582	0.094
582	0.094
583	0.094
583	0.094
584	0.092
584	0.088
585	0.086
585	0.085
585	0.085
586	0.084
586	0.084
587	0.082
587	0.08
588	0.077
588	0.074
589	0.072
589	0.07
590	0.068
590	0.067
590	0.067
591	0.067
591	0.067
592	0.067
592	0.066
593	0.066
593	0.066
594	0.066
594	0.065
594	0.065
595	0.065
595	0.064
596	0.062
596	0.062
597	0.064
597	0.065
598	0.066
598	0.067
598	0.068
599	0.069
599	0.069
600	0.068
600	0.067
601	0.066
601	0.065
602	0.063
602	0.062
602	0.06
603	0.059
603	0.059
604	0.059
604	0.059
605	0.06
605	0.061
606	0.062
606	0.061
606	0.06
607	0.06
607	0.06
608	0.059
608	0.058
609	0.057
609	0.056
610	0.055
610	0.053
610	0.053
611	0.053
611	0.054
612	0.055
612	0.056
613	0.058
613	0.06
614	0.06
614	0.06
614	0.061
615	0.061
615	0.06
616	0.06
616	0.059
617	0.058
617	0.057
618	0.055
618	0.054
618	0.053
619	0.052
619	0.052
620	0.053
620	0.054
621	0.054
621	0.055
622	0.055
622	0.056
622	0.056
623	0.056
623	0.057
624	0.058
624	0.058
625	0.058
625	0.058
626	0.058
626	0.058
626	0.058
627	0.058
627	0.059
628	0.059
628	0.06
629	0.06
629	0.06
630	0.06
630	0.059
630	0.059
631	0.059
631	0.059
632	0.059
632	0.059
633	0.06
633	0.06
634	0.062
634	0.063
634	0.065
635	0.067
635	0.069
636	0.07
636	0.072
637	0.073
637	0.074
638	0.075
638	0.076
638	0.077
639	0.078
639	0.078
640	0.079
640	0.08
641	0.082
641	0.083
642	0.086
642	0.088
642	0.09
643	0.093
643	0.095
644	0.097
644	0.1
645	0.102
645	0.104
646	0.106
646	0.109
646	0.112
647	0.116
647	0.119
648	0.122
648	0.124
649	0.127
649	0.13
650	0.133
650	0.137
650	0.139
651	0.142
651	0.143
652	0.145
652	0.147
653	0.149
653	0.156
653	0.17
654	0.139
654	0.115
655	0.12
655	0.123
656	0.125
656	0.127
657	0.129
657	0.132
657	0.133
658	0.132
658	0.121
659	0.151
659	0.192
660	0.194
660	0.195
661	0.197
661	0.199
661	0.201
662	0.204
662	0.207
663	0.21
663	0.213
664	0.217
664	0.219
665	0.222
665	0.225
665	0.228
666	0.23
666	0.233
667	0.235
667	0.237
668	0.24
668	0.242
669	0.244
669	0.247
669	0.251
670	0.255
670	0.259
671	0.262
671	0.264
672	0.267
672	0.269
672	0.271
673	0.272
673	0.274
674	0.276
674	0.276
675	0.276
675	0.277
676	0.278
676	0.28
676	0.282
677	0.283
677	0.285
678	0.287
678	0.289
679	0.29
679	0.291
680	0.293
680	0.294
680	0.295
681	0.295
681	0.296
682	0.297
682	0.299
683	0.301
683	0.303
684	0.306
684	0.307
684	0.307
685	0.307
685	0.308
686	0.308
686	0.308
687	0.307
687	0.306
687	0.305
688	0.304
688	0.302
689	0.302
689	0.302
690	0.303
690	0.303
691	0.303
691	0.303
691	0.303
692	0.303
692	0.302
693	0.302
693	0.303
694	0.303
694	0.302
695	0.302
695	0.303
695	0.304
696	0.304
696	0.303
697	0.303
697	0.302
698	0.3
698	0.298
698	0.296
699	0.294
699	0.292
700	0.288
700	0.285
701	0.283
701	0.282
702	0.28
702	0.278
702	0.276
703	0.274
703	0.272
704	0.271
704	0.269
705	0.269
705	0.267
705	0.266
706	0.265
706	0.264
707	0.263
707	0.261
708	0.26
708	0.259
709	0.258
709	0.256
709	0.253
710	0.249
710	0.246
711	0.244
711	0.241
712	0.239
712	0.237
713	0.235
713	0.233
713	0.231
714	0.228
714	0.226
715	0.224
715	0.222
716	0.219
716	0.217
716	0.215
717	0.213
717	0.211
718	0.208
718	0.205
719	0.202
719	0.2
720	0.197
720	0.195
720	0.192
721	0.188
721	0.184
722	0.18
722	0.176
723	0.173
723	0.171
723	0.168
724	0.166
724	0.163
725	0.161
725	0.158
726	0.156
726	0.154
727	0.153
727	0.151
727	0.149
728	0.146
728	0.144
729	0.143
729	0.142
730	0.141
730	0.139
730	0.137
731	0.136
731	0.134
732	0.133
732	0.132
733	0.13
733	0.128
734	0.126
734	0.123
734	0.12
735	0.117
735	0.115
736	0.111
736	0.109
737	0.106
737	0.103
737	0.101
738	0.098
738	0.095
739	0.093
739	0.091
740	0.089
740	0.087
741	0.085
741	0.083
741	0.08
742	0.076
742	0.073
743	0.07
743	0.067
744	0.065
744	0.063
744	0.06
745	0.057
745	0.055
746	0.053
746	0.051
747	0.05
747	0.05
748	0.049
748	0.048
748	0.048
749	0.046
749	0.045
750	0.044
750	0.043
751	0.043
751	0.042
751	0.042
752	0.041
752	0.04
753	0.039
753	0.038
754	0.037
754	0.036
754	0.036
755	0.035
755	0.035
756	0.035
756	0.032
757	0.031
757	0.03
758	0.029
758	0.028
758	0.027
759	0.026
759	0.024
760	0.021
760	0.018
761	0.016
761	0.014
761	0.013
762	0.011
762	0.01
763	0.009
763	0.007
764	0.004
764	0.002
764	0
765	-0.002
765	-0.004
766	-0.005
766	-0.006
767	-0.007
767	-0.01
768	-0.013
768	-0.015
768	-0.017
769	-0.017
769	-0.018
770	-0.019
770	-0.02
771	-0.022
771	-0.024
771	-0.026
772	-0.028
772	-0.029
773	-0.031
773	-0.034
774	-0.037
774	-0.041
775	-0.044
775	-0.048
775	-0.052
776	-0.056
776	-0.06
777	-0.063
777	-0.067
778	-0.071
778	-0.075
778	-0.079
779	-0.082
779	-0.084
780	-0.089
780	-0.093
781	-0.098
781	-0.103
781	-0.108
782	-0.113
782	-0.12
783	-0.125
783	-0.128
784	-0.132
784	-0.135
784	-0.138
785	-0.141
785	-0.144
786	-0.144
786	-0.142
787	-0.138
787	-0.134
788	-0.133
788	-0.135
788	-0.136
789	-0.139
789	-0.139
790	-0.136
790	-0.135
791	-0.136
791	-0.138
791	-0.14
792	-0.134
792	-0.123
793	-0.117
793	-0.112
794	-0.109
794	-0.111
794	-0.114
795	-0.116
795	-0.115
796	-0.116
796	-0.118
797	-0.127
797	-0.138
797	-0.145
798	-0.151
798	-0.154
799	-0.155
799	-0.156
800	-0.156
800	-0.158
801	-0.161
801	-0.162
801	-0.162
802	-0.163
802	-0.164
803	-0.164
803	-0.164
804	-0.162
804	-0.157
804	-0.15
805	-0.145
805	-0.143
806	-0.141
806	-0.139
807	-0.138
807	-0.137
807	-0.137
808	-0.136
808	-0.137
809	-0.141
809	-0.146
810	-0.149
810	-0.151
810	-0.154
811	-0.157
811	-0.157
812	-0.154
812	-0.151
813	-0.151
813	-0.153
813	-0.154
814	-0.156
814	-0.156
815	-0.155
815	-0.153
816	-0.151
816	-0.152
817	-0.157
817	-0.161
817	-0.162
818	-0.162
818	-0.159
819	-0.153
819	-0.15
820	-0.152
820	-0.153
820	-0.155
821	-0.154
821	-0.153
822	-0.151
822	-0.148
823	-0.145
823	-0.144
823	-0.144
824	-0.142
824	-0.137
825	-0.129
825	-0.12
826	-0.111
826	-0.104
826	-0.097
827	-0.09
827	-0.085
828	-0.08
828	-0.075
829	-0.07
829	-0.066
829	-0.063
830	-0.06
830	-0.057
831	-0.053
831	-0.049
832	-0.046
832	-0.043
832	-0.04
833	-0.038
833	-0.036
834	-0.035
834	-0.034
835	-0.033
835	-0.033
835	-0.033
836	-0.033
836	-0.033
837	-0.033
837	-0.033
838	-0.032
838	-0.032
839	-0.031
839	-0.03
839	-0.029
840	-0.028
840	-0.027
841	-0.026
841	-0.024
842	-0.023
842	-0.022
842	-0.021
843	-0.02
843	-0.019
844	-0.018
844	-0.017
845	-0.017
845	-0.016
845	-0.015
846	-0.015
846	-0.014
847	-0.013
847	-0.012
848	-0.011
848	-0.01
848	-0.01
849	-0.008
849	-0.008
850	-0.007
850	-0.007
851	-0.006
851	-0.006
851	-0.006
852	-0.006
852	-0.006
853	-0.006
853	-0.006
854	-0.006
854	-0.006
854	-0.006
855	-0.006
855	-0.006
856	-0.006
856	-0.005
857	-0.005
857	-0.005
857	-0.005
858	-0.004
858	-0.004
859	-0.004
859	-0.003
860	-0.002
860	-0.001
860	-0.001
861	0
861	0.001
862	0.001
862	0.002
863	0.003
863	0.003
863	0.004
864	0.004
864	0.005
865	0.005
865	0.006
866	0.006
866	0.006
866	0.007
867	0.008
867	0.009
868	0.009
868	0.01
869	0.01
869	0.01
869	0.009
870	0.009
870	0.009
871	0.009
871	0.009
872	0.008
872	0.008
872	0.007
873	0.007
873	0.006
874	0.005
874	0.004
875	0.003
875	0.002
875	0.001
876	0.001
876	0
877	0
877	-0
878	-0
878	0
878	0.001
879	0.002
879	0.002
880	0.003
880	0.004
881	0.004
881	0.005
881	0.006
882	0.006
882	0.007
883	0.008
883	0.009
884	0.009
884	0.01
884	0.01
885	0.011
885	0.011
886	0.011
886	0.012
887	0.012
887	0.011
887	0.011
888	0.011
888	0.011
889	0.011
889	0.011
890	0.012
890	0.012
890	0.013
891	0.014
891	0.014
892	0.015
892	0.015
893	0.016
893	0.017
893	0.017
894	0.018
894	0.018
895	0.018
895	0.018
895	0.018
896	0.018
896	0.018
897	0.018
897	0.017
898	0.016
898	0.015
898	0.014
899	0.013
899	0.012
900	0.01
900	0.009
901	0.008
901	0.007
901	0.006
902	0.005
902	0.005
903	0.005
903	0.005
904	0.005
904	0.005
904	0.005
905	0.006
905	0.007
906	0.007
906	0.008
907	0.008
907	0.008
907	0.008
908	0.008
908	0.008
909	0.008
909	0.008
910	0.008
910	0.008
910	0.008
911	0.009
911	0.009
912	0.01
912	0.011
913	0.012
913	0.013
913	0.014
914	0.015
914	0.015
915	0.016
915	0.017
916	0.018
916	0.018
916	0.018
917	0.018
917	0.018
918	0.018
918	0.018
918	0.017
919	0.017
919	0.016
920	0.016
920	0.015
921	0.014
921	0.013
921	0.012
922	0.011
922	0.011
923	0.01
923	0.009
924	0.008
924	0.008
924	0.007
925	0.007
925	0.007
926	0.008
926	0.008
927	0.008
927	0.008
927	0.009
928	0.009
928	0.01
929	0.011
929	0.011
930	0.011
930	0.012
930	0.012
931	0.012
931	0.012
932	0.012
932	0.012
933	0.013
933	0.013
933	0.013
934	0.014
934	0.014
935	0.015
935	0.015
935	0.016
936	0.016
936	0.016
937	0.016
937	0.015
938	0.015
938	0.014
938	0.013
939	0.012
939	0.012
940	0.011
940	0.011
941	0.011
941	0.011
941	0.012
942	0.012
942	0.013
943	0.014
943	0.015
944	0.015
944	0.016
944	0.017
945	0.018
945	0.019
946	0.02
946	0.021
946	0.021
947	0.022
947	0.022
948	0.022
948	0.022
949	0.021
949	0.021
949	0.02
950	0.02
950	0.019
951	0.019
951	0.018
952	0.017
952	0.017
952	0.017
953	0.017
953	0.017
954	0.017
954	0.017
955	0.017
955	0.017
955	0.017
956	0.018
956	0.018
957	0.018
957	0.017
957	0.017
958	0.017
958	0.017
959	0.017
959	0.017
960	0.017
960	0.017
960	0.017
961	0.017
961	0.017
962	0.017
962	0.017
963	0.017
963	0.017
963	0.017
964	0.016
964	0.016
965	0.015
965	0.015
966	0.015
966	0.014
966	0.014
967	0.013
967	0.013
968	0.013
968	0.012
968	0.012
969	0.013
969	0.013
970	0.013
970	0.013
971	0.013
971	0.014
971	0.014
972	0.015
972	0.016
973	0.017
973	0.017
974	0.018
974	0.018
974	0.019
975	0.019
975	0.019
976	0.019
976	0.019
976	0.018
977	0.018
977	0.017
978	0.016
978	0.015
979	0.014
979	0.013
979	0.013
980	0.012
980	0.011
981	0.011
981	0.01
982	0.01
982	0.01
982	0.01
983	0.01
983	0.01
984	0.01
984	0.01
984	0.009
985	0.009
985	0.009
986	0.008
986	0.008
987	0.007
987	0.007
987	0.007
988	0.007
988	0.007
989	0.007
989	0.007
990	0.007
990	0.007
990	0.008
991	0.008
991	0.009
992	0.009
992	0.009
992	0.009
993	0.009
993	0.009
994	0.008
994	0.008
995	0.007
995	0.007
995	0.006
996	0.006
996	0.005
997	0.004
997	0.004
997	0.004
998	0.003
998	0.004
999	0.004
999	0.004
1000	0.004
1000	0.004
1000	0.004
1001	0.004
1001	0.005
1002	0.005
1002	0.005
1003	0.005
1003	0.005
1003	0.005
1004	0.004
1004	0.004
1005	0.004
1005	0.003
1005	0.003
1006	0.002
1006	0.002
1007	0.001
1007	0.001
1008	0.001
1008	0.001
1008	0.001
1009	0.001
1009	0.002
1010	0.002
1010	0.003
1010	0.004
1011	0.005
1011	0.006
1012	0.008
1012	0.008
1013	0.009
1013	0.01
1013	0.01
1014	0.011
1014	0.011
1015	0.011
1015	0.011
1016	0.011
1016	0.011
1016	0.011
1017	0.011
1017	0.011
1018	0.012
1018	0.012
1018	0.012
1019	0.013
1019	0.013
1020	0.013
1020	0.013
1021	0.013
1021	0.013
1021	0.013
1022	0.013
1022	0.013
1023	0.013
1023	0.013
1023	0.013
1024	0.013
1024	0.012
1025	0.013
1025	0.013
1026	0.013
1026	0.013
1026	0.013
1027	0.013
1027	0.013
1028	0.014
1028	0.014
1028	0.014
1029	0.015
1029	0.015
1030	0.015
1030	0.015
1031	0.015
1031	0.015
1031	0.015
1032	0.015
1032	0.015
1033	0.014
1033	0.014
1033	0.014
1034	0.013
1034	0.013
1035	0.012
1035	0.012
1036	0.012
1036	0.012
1036	0.012
1037	0.012
1037	0.012
1038	0.012
1038	0.012
1039	0.013
1039	0.013
1039	0.014
1040	0.014
1040	0.014
1041	0.015
1041	0.016
1041	0.016
1042	0.017
1042	0.018
1043	0.019
1043	0.02
1044	0.021
1044	0.022
1044	0.023
1045	0.024
1045	0.025
1046	0.026
1046	0.027
1046	0.029
1047	0.03
1047	0.032
1048	0.033
1048	0.035
1049	0.036
1049	0.036
1049	0.037
1050	0.037
1050	0.037
1051	0.037
1051	0.037
1051	0.037
1052	0.036
1052	0.035
1053	0.034
1053	0.034
1053	0.033
1054	0.032
1054	0.032
1055	0.032
1055	0.031
1056	0.03
1056	0.03
1056	0.029
1057	0.028
1057	0.028
1058	0.028
1058	0.028
1058	0.028
1059	0.028
1059	0.028
1060	0.029
1060	0.029
1061	0.03
1061	0.03
1061	0.031
1062	0.031
1062	0.032
1063	0.032
1063	0.033
1063	0.034
1064	0.035
1064	0.036
1065	0.038
1065	0.039
1066	0.041
1066	0.043
1066	0.046
1067	0.048
1067	0.05
1068	0.052
1068	0.054
1068	0.056
1069	0.057
1069	0.059
1070	0.06
1070	0.061
1071	0.063
1071	0.064
1071	0.065
1072	0.067
1072	0.068
1073	0.07
1073	0.071
1073	0.073
1074	0.074
1074	0.076
1075	0.076
1075	0.077
1076	0.078
1076	0.079
1076	0.079
1077	0.08
1077	0.081
1078	0.083
1078	0.085
1078	0.087
1079	0.089
1079	0.092
1080	0.093
1080	0.096
1080	0.097
1081	0.1
1081	0.103
1082	0.105
1082	0.106
1083	0.108
1083	0.111
1083	0.114
1084	0.117
1084	0.12
1085	0.123
1085	0.127
1085	0.13
1086	0.133
1086	0.136
1087	0.139
1087	0.143
1088	0.146
1088	0.149
1088	0.153
1089	0.157
1089	0.162
1090	0.167
1090	0.174
1090	0.18
1091	0.187
1091	0.196
1092	0.204
1092	0.214
1092	0.224
1093	0.234
1093	0.245
1094	0.256
1094	0.268
1095	0.279
1095	0.294
1095	0.311
1096	0.329
1096	0.348
1097	0.37
1097	0.391
1097	0.417
1098	0.445
1098	0.477
1099	0.515
1099	0.559
1100	0.612
1100	0.675
1100	0.749
1101	0.842
1101	0.974
1102	1.203
1102	1.72
1102	-0
1103	-0
1103	-0
1104	-0
1104	-0
1104	-0
1105	-0
1105	-0
1106	-0
1106	-0
1107	-0
1107	-0
1107	-0
1108	-0
1108	-0
1109	-0
1109	-0
1109	-0
1110	-0
1110	-0
1111	-0
1111	-0
