Data from 15c-2-4a_Absorbance__2763__02763.txt Node

Date: Thu Jan 25 11:36:16 CET 2024
User: Marek
Spectrometer: MAYP115816
Trigger mode: 0
Integration Time (sec): 2.000000E-1
Scans to average: 10
Electric dark correction enabled: true
Nonlinearity correction enabled: true
Boxcar width: 5
XAxis mode: Wavelengths
Number of Pixels in Spectrum: 2068
>>>>>Begin Spectral Data<<<<<
199	-2.192
199	-2.022
200	-1.868
200	-1.745
201	-1.667
201	-1.609
202	-1.526
202	-1.464
203	-1.412
203	-1.366
204	-1.339
204	-1.311
205	-1.29
205	-1.278
205	-1.272
206	-1.268
206	-1.265
207	-1.265
207	-1.261
208	-1.257
208	-1.253
209	-1.248
209	-1.245
210	-1.243
210	-1.24
211	-1.239
211	-1.238
212	-1.234
212	-1.232
213	-1.23
213	-1.23
213	-1.23
214	-1.229
214	-1.228
215	-1.226
215	-1.224
216	-1.222
216	-1.221
217	-1.219
217	-1.216
218	-1.215
218	-1.212
219	-1.21
219	-1.207
220	-1.207
220	-1.202
221	-1.199
221	-1.197
221	-1.193
222	-1.19
222	-1.189
223	-1.184
223	-1.178
224	-1.17
224	-1.161
225	-1.152
225	-1.143
226	-1.133
226	-1.12
227	-1.105
227	-1.091
228	-1.071
228	-1.052
229	-1.03
229	-1.007
229	-0.98
230	-0.949
230	-0.919
231	-0.883
231	-0.843
232	-0.801
232	-0.756
233	-0.709
233	-0.659
234	-0.61
234	-0.559
235	-0.508
235	-0.457
236	-0.407
236	-0.359
236	-0.312
237	-0.265
237	-0.222
238	-0.18
238	-0.141
239	-0.103
239	-0.067
240	-0.034
240	-0.003
241	0.026
241	0.054
242	0.08
242	0.103
243	0.125
243	0.146
243	0.165
244	0.182
244	0.198
245	0.213
245	0.227
246	0.24
246	0.252
247	0.263
247	0.274
248	0.283
248	0.292
249	0.3
249	0.308
250	0.315
250	0.323
250	0.329
251	0.335
251	0.341
252	0.347
252	0.352
253	0.357
253	0.361
254	0.365
254	0.369
255	0.373
255	0.376
256	0.379
256	0.382
257	0.385
257	0.388
258	0.39
258	0.392
258	0.394
259	0.396
259	0.397
260	0.399
260	0.4
261	0.401
261	0.402
262	0.403
262	0.403
263	0.404
263	0.404
264	0.405
264	0.405
265	0.405
265	0.405
265	0.405
266	0.405
266	0.405
267	0.405
267	0.404
268	0.403
268	0.402
269	0.402
269	0.401
270	0.4
270	0.398
271	0.397
271	0.396
272	0.394
272	0.393
272	0.392
273	0.391
273	0.389
274	0.388
274	0.386
275	0.385
275	0.383
276	0.382
276	0.38
277	0.378
277	0.375
278	0.373
278	0.371
278	0.368
279	0.367
279	0.365
280	0.364
280	0.363
281	0.361
281	0.36
282	0.359
282	0.359
283	0.358
283	0.357
284	0.356
284	0.355
285	0.354
285	0.352
285	0.351
286	0.349
286	0.348
287	0.347
287	0.345
288	0.344
288	0.342
289	0.341
289	0.34
290	0.339
290	0.337
291	0.336
291	0.335
292	0.334
292	0.333
292	0.332
293	0.33
293	0.329
294	0.329
294	0.328
295	0.327
295	0.326
296	0.325
296	0.324
297	0.323
297	0.322
298	0.321
298	0.32
298	0.319
299	0.318
299	0.317
300	0.316
300	0.315
301	0.314
301	0.314
302	0.313
302	0.312
303	0.311
303	0.31
304	0.31
304	0.309
305	0.308
305	0.307
305	0.306
306	0.306
306	0.305
307	0.304
307	0.303
308	0.302
308	0.301
309	0.3
309	0.299
310	0.298
310	0.297
311	0.296
311	0.295
311	0.294
312	0.294
312	0.293
313	0.292
313	0.291
314	0.29
314	0.289
315	0.288
315	0.287
316	0.286
316	0.285
317	0.284
317	0.283
318	0.282
318	0.281
318	0.28
319	0.279
319	0.278
320	0.278
320	0.277
321	0.275
321	0.274
322	0.273
322	0.272
323	0.271
323	0.27
324	0.269
324	0.268
324	0.267
325	0.266
325	0.266
326	0.265
326	0.264
327	0.263
327	0.262
328	0.261
328	0.261
329	0.26
329	0.259
330	0.258
330	0.257
330	0.256
331	0.255
331	0.254
332	0.253
332	0.253
333	0.252
333	0.251
334	0.25
334	0.249
335	0.248
335	0.247
336	0.246
336	0.246
336	0.245
337	0.244
337	0.243
338	0.243
338	0.242
339	0.241
339	0.24
340	0.24
340	0.239
341	0.238
341	0.237
342	0.237
342	0.236
342	0.235
343	0.234
343	0.234
344	0.233
344	0.232
345	0.231
345	0.231
346	0.23
346	0.229
347	0.229
347	0.228
348	0.227
348	0.226
348	0.225
349	0.225
349	0.224
350	0.223
350	0.222
351	0.221
351	0.221
352	0.219
352	0.219
353	0.218
353	0.217
354	0.216
354	0.215
354	0.214
355	0.212
355	0.211
356	0.211
356	0.21
357	0.209
357	0.208
358	0.208
358	0.209
359	0.21
359	0.21
360	0.211
360	0.212
360	0.212
361	0.213
361	0.213
362	0.214
362	0.214
363	0.213
363	0.213
364	0.212
364	0.212
365	0.211
365	0.211
366	0.21
366	0.21
366	0.209
367	0.209
367	0.209
368	0.208
368	0.208
369	0.207
369	0.207
370	0.206
370	0.206
371	0.205
371	0.204
372	0.204
372	0.203
372	0.203
373	0.203
373	0.202
374	0.202
374	0.202
375	0.202
375	0.201
376	0.201
376	0.201
377	0.201
377	0.202
378	0.202
378	0.202
378	0.202
379	0.202
379	0.202
380	0.202
380	0.202
381	0.202
381	0.202
382	0.201
382	0.201
383	0.2
383	0.2
383	0.199
384	0.199
384	0.198
385	0.198
385	0.198
386	0.198
386	0.198
387	0.198
387	0.198
388	0.197
388	0.197
389	0.197
389	0.197
389	0.197
390	0.197
390	0.197
391	0.197
391	0.197
392	0.197
392	0.197
393	0.197
393	0.197
394	0.196
394	0.196
394	0.196
395	0.196
395	0.195
396	0.194
396	0.194
397	0.194
397	0.194
398	0.194
398	0.194
399	0.194
399	0.194
400	0.193
400	0.193
400	0.192
401	0.192
401	0.19
402	0.189
402	0.189
403	0.188
403	0.188
404	0.188
404	0.187
405	0.187
405	0.187
405	0.186
406	0.186
406	0.186
407	0.186
407	0.185
408	0.185
408	0.184
409	0.183
409	0.183
410	0.183
410	0.183
411	0.183
411	0.183
411	0.182
412	0.182
412	0.182
413	0.181
413	0.181
414	0.181
414	0.181
415	0.18
415	0.18
416	0.179
416	0.179
416	0.178
417	0.178
417	0.178
418	0.177
418	0.177
419	0.178
419	0.178
420	0.179
420	0.18
421	0.18
421	0.18
421	0.18
422	0.18
422	0.18
423	0.18
423	0.18
424	0.179
424	0.178
425	0.177
425	0.176
426	0.176
426	0.175
427	0.175
427	0.175
427	0.175
428	0.176
428	0.176
429	0.177
429	0.178
430	0.178
430	0.178
431	0.177
431	0.177
432	0.177
432	0.176
432	0.175
433	0.174
433	0.172
434	0.172
434	0.171
435	0.171
435	0.171
436	0.171
436	0.171
437	0.171
437	0.171
437	0.171
438	0.171
438	0.17
439	0.17
439	0.17
440	0.169
440	0.169
441	0.169
441	0.169
442	0.169
442	0.169
442	0.169
443	0.17
443	0.17
444	0.17
444	0.17
445	0.171
445	0.171
446	0.171
446	0.171
447	0.171
447	0.17
447	0.17
448	0.17
448	0.17
449	0.17
449	0.17
450	0.169
450	0.169
451	0.168
451	0.168
452	0.167
452	0.167
452	0.166
453	0.166
453	0.165
454	0.165
454	0.164
455	0.164
455	0.163
456	0.163
456	0.163
457	0.163
457	0.163
458	0.163
458	0.163
458	0.163
459	0.163
459	0.163
460	0.162
460	0.161
461	0.161
461	0.161
462	0.16
462	0.16
463	0.161
463	0.161
463	0.162
464	0.162
464	0.162
465	0.163
465	0.163
466	0.163
466	0.163
467	0.163
467	0.162
467	0.162
468	0.16
468	0.158
469	0.156
469	0.154
470	0.153
470	0.153
471	0.152
471	0.152
472	0.152
472	0.152
472	0.153
473	0.154
473	0.155
474	0.156
474	0.158
475	0.159
475	0.159
476	0.16
476	0.16
477	0.161
477	0.161
477	0.162
478	0.162
478	0.163
479	0.163
479	0.164
480	0.165
480	0.166
481	0.167
481	0.168
482	0.168
482	0.17
482	0.171
483	0.173
483	0.176
484	0.18
484	0.183
485	0.185
485	0.187
486	0.188
486	0.19
487	0.19
487	0.191
487	0.191
488	0.19
488	0.189
489	0.186
489	0.184
490	0.183
490	0.182
491	0.181
491	0.182
492	0.183
492	0.183
492	0.184
493	0.185
493	0.186
494	0.188
494	0.191
495	0.193
495	0.195
496	0.196
496	0.197
496	0.198
497	0.199
497	0.2
498	0.201
498	0.201
499	0.201
499	0.202
500	0.202
500	0.203
501	0.205
501	0.207
501	0.209
502	0.21
502	0.212
503	0.214
503	0.216
504	0.217
504	0.218
505	0.218
505	0.219
506	0.22
506	0.22
506	0.22
507	0.22
507	0.221
508	0.221
508	0.222
509	0.222
509	0.223
510	0.223
510	0.224
511	0.224
511	0.224
511	0.225
512	0.226
512	0.226
513	0.225
513	0.223
514	0.222
514	0.221
515	0.221
515	0.221
515	0.221
516	0.22
516	0.22
517	0.22
517	0.22
518	0.219
518	0.218
519	0.217
519	0.214
520	0.211
520	0.208
520	0.205
521	0.202
521	0.2
522	0.198
522	0.197
523	0.197
523	0.199
524	0.201
524	0.205
524	0.208
525	0.212
525	0.215
526	0.218
526	0.22
527	0.223
527	0.225
528	0.226
528	0.228
529	0.228
529	0.228
529	0.228
530	0.228
530	0.228
531	0.228
531	0.228
532	0.227
532	0.227
533	0.227
533	0.226
533	0.226
534	0.226
534	0.225
535	0.224
535	0.223
536	0.222
536	0.221
537	0.221
537	0.22
538	0.218
538	0.217
538	0.216
539	0.215
539	0.214
540	0.213
540	0.211
541	0.21
541	0.208
542	0.205
542	0.204
542	0.202
543	0.2
543	0.199
544	0.197
544	0.195
545	0.194
545	0.193
546	0.193
546	0.192
547	0.191
547	0.189
547	0.186
548	0.184
548	0.181
549	0.179
549	0.176
550	0.174
550	0.172
551	0.169
551	0.166
551	0.164
552	0.162
552	0.161
553	0.159
553	0.159
554	0.158
554	0.156
555	0.153
555	0.15
556	0.147
556	0.143
556	0.14
557	0.137
557	0.134
558	0.131
558	0.129
559	0.127
559	0.125
560	0.124
560	0.124
560	0.123
561	0.123
561	0.123
562	0.123
562	0.122
563	0.12
563	0.118
564	0.115
564	0.112
564	0.109
565	0.106
565	0.105
566	0.103
566	0.101
567	0.1
567	0.1
568	0.101
568	0.102
568	0.104
569	0.106
569	0.108
570	0.109
570	0.109
571	0.11
571	0.11
572	0.11
572	0.11
573	0.111
573	0.11
573	0.109
574	0.108
574	0.107
575	0.107
575	0.108
576	0.109
576	0.108
577	0.107
577	0.106
577	0.105
578	0.103
578	0.103
579	0.103
579	0.104
580	0.104
580	0.102
581	0.099
581	0.097
581	0.095
582	0.094
582	0.094
583	0.095
583	0.094
584	0.092
584	0.089
585	0.087
585	0.086
585	0.085
586	0.085
586	0.084
587	0.083
587	0.08
588	0.077
588	0.075
589	0.072
589	0.07
590	0.069
590	0.067
590	0.067
591	0.067
591	0.067
592	0.066
592	0.066
593	0.065
593	0.065
594	0.065
594	0.065
594	0.064
595	0.064
595	0.063
596	0.062
596	0.062
597	0.064
597	0.065
598	0.066
598	0.067
598	0.068
599	0.068
599	0.068
600	0.067
600	0.066
601	0.065
601	0.064
602	0.062
602	0.06
602	0.058
603	0.057
603	0.057
604	0.057
604	0.058
605	0.059
605	0.06
606	0.061
606	0.061
606	0.06
607	0.06
607	0.06
608	0.06
608	0.058
609	0.057
609	0.056
610	0.055
610	0.054
610	0.053
611	0.053
611	0.054
612	0.055
612	0.056
613	0.057
613	0.059
614	0.06
614	0.06
614	0.06
615	0.06
615	0.059
616	0.059
616	0.059
617	0.058
617	0.057
618	0.055
618	0.054
618	0.052
619	0.052
619	0.052
620	0.053
620	0.053
621	0.054
621	0.054
622	0.055
622	0.056
622	0.056
623	0.056
623	0.057
624	0.058
624	0.058
625	0.058
625	0.058
626	0.058
626	0.058
626	0.058
627	0.058
627	0.059
628	0.059
628	0.06
629	0.06
629	0.06
630	0.06
630	0.059
630	0.06
631	0.06
631	0.06
632	0.06
632	0.06
633	0.061
633	0.062
634	0.063
634	0.064
634	0.066
635	0.068
635	0.07
636	0.072
636	0.073
637	0.075
637	0.076
638	0.077
638	0.078
638	0.079
639	0.08
639	0.08
640	0.081
640	0.082
641	0.084
641	0.085
642	0.088
642	0.09
642	0.092
643	0.095
643	0.097
644	0.1
644	0.103
645	0.105
645	0.107
646	0.11
646	0.113
646	0.116
647	0.12
647	0.123
648	0.126
648	0.129
649	0.132
649	0.135
650	0.138
650	0.142
650	0.145
651	0.148
651	0.15
652	0.152
652	0.154
653	0.157
653	0.165
653	0.181
654	0.147
654	0.121
655	0.128
655	0.131
656	0.133
656	0.135
657	0.138
657	0.14
657	0.142
658	0.14
658	0.129
659	0.161
659	0.206
660	0.207
660	0.208
661	0.21
661	0.212
661	0.215
662	0.218
662	0.222
663	0.225
663	0.228
664	0.231
664	0.234
665	0.237
665	0.24
665	0.243
666	0.246
666	0.249
667	0.251
667	0.254
668	0.257
668	0.26
669	0.263
669	0.266
669	0.271
670	0.275
670	0.279
671	0.282
671	0.285
672	0.287
672	0.289
672	0.291
673	0.293
673	0.294
674	0.296
674	0.297
675	0.297
675	0.297
676	0.299
676	0.301
676	0.302
677	0.304
677	0.306
678	0.308
678	0.309
679	0.31
679	0.312
680	0.313
680	0.315
680	0.316
681	0.316
681	0.317
682	0.318
682	0.319
683	0.321
683	0.323
684	0.325
684	0.326
684	0.326
685	0.326
685	0.327
686	0.327
686	0.327
687	0.327
687	0.326
687	0.325
688	0.324
688	0.322
689	0.322
689	0.323
690	0.324
690	0.324
691	0.324
691	0.324
691	0.325
692	0.324
692	0.324
693	0.323
693	0.324
694	0.323
694	0.322
695	0.321
695	0.322
695	0.323
696	0.322
696	0.321
697	0.321
697	0.32
698	0.318
698	0.316
698	0.314
699	0.312
699	0.309
700	0.305
700	0.302
701	0.3
701	0.298
702	0.296
702	0.294
702	0.292
703	0.29
703	0.288
704	0.287
704	0.285
705	0.285
705	0.284
705	0.282
706	0.281
706	0.28
707	0.279
707	0.278
708	0.276
708	0.275
709	0.274
709	0.272
709	0.269
710	0.266
710	0.262
711	0.259
711	0.256
712	0.253
712	0.251
713	0.248
713	0.246
713	0.243
714	0.24
714	0.237
715	0.235
715	0.232
716	0.23
716	0.228
716	0.225
717	0.223
717	0.221
718	0.218
718	0.215
719	0.212
719	0.21
720	0.207
720	0.205
720	0.201
721	0.197
721	0.193
722	0.189
722	0.185
723	0.182
723	0.179
723	0.176
724	0.173
724	0.17
725	0.167
725	0.165
726	0.163
726	0.16
727	0.158
727	0.156
727	0.154
728	0.152
728	0.15
729	0.149
729	0.147
730	0.146
730	0.144
730	0.142
731	0.141
731	0.139
732	0.138
732	0.137
733	0.135
733	0.132
734	0.129
734	0.126
734	0.123
735	0.12
735	0.117
736	0.114
736	0.111
737	0.108
737	0.106
737	0.103
738	0.1
738	0.097
739	0.095
739	0.093
740	0.091
740	0.089
741	0.087
741	0.085
741	0.082
742	0.077
742	0.073
743	0.07
743	0.067
744	0.064
744	0.062
744	0.059
745	0.056
745	0.053
746	0.051
746	0.049
747	0.048
747	0.047
748	0.047
748	0.046
748	0.045
749	0.044
749	0.043
750	0.042
750	0.041
751	0.04
751	0.039
751	0.039
752	0.038
752	0.037
753	0.036
753	0.035
754	0.034
754	0.033
754	0.033
755	0.033
755	0.033
756	0.032
756	0.03
757	0.028
757	0.026
758	0.025
758	0.023
758	0.022
759	0.02
759	0.017
760	0.014
760	0.01
761	0.007
761	0.005
761	0.003
762	0.001
762	0
763	-0.001
763	-0.002
764	-0.004
764	-0.006
764	-0.008
765	-0.009
765	-0.01
766	-0.011
766	-0.012
767	-0.013
767	-0.015
768	-0.018
768	-0.02
768	-0.022
769	-0.023
769	-0.024
770	-0.025
770	-0.026
771	-0.028
771	-0.03
771	-0.033
772	-0.035
772	-0.036
773	-0.038
773	-0.041
774	-0.044
774	-0.047
775	-0.05
775	-0.054
775	-0.058
776	-0.062
776	-0.066
777	-0.07
777	-0.073
778	-0.078
778	-0.082
778	-0.086
779	-0.089
779	-0.092
780	-0.095
780	-0.1
781	-0.104
781	-0.109
781	-0.113
782	-0.118
782	-0.123
783	-0.128
783	-0.131
784	-0.134
784	-0.137
784	-0.139
785	-0.141
785	-0.143
786	-0.144
786	-0.142
787	-0.138
787	-0.134
788	-0.133
788	-0.134
788	-0.136
789	-0.138
789	-0.138
790	-0.136
790	-0.135
791	-0.135
791	-0.137
791	-0.139
792	-0.134
792	-0.123
793	-0.116
793	-0.111
794	-0.109
794	-0.11
794	-0.113
795	-0.115
795	-0.115
796	-0.115
796	-0.118
797	-0.126
797	-0.137
797	-0.144
798	-0.15
798	-0.154
799	-0.155
799	-0.155
800	-0.155
800	-0.157
801	-0.16
801	-0.161
801	-0.161
802	-0.162
802	-0.163
803	-0.164
803	-0.163
804	-0.162
804	-0.156
804	-0.149
805	-0.145
805	-0.143
806	-0.14
806	-0.139
807	-0.138
807	-0.137
807	-0.136
808	-0.136
808	-0.136
809	-0.14
809	-0.145
810	-0.148
810	-0.151
810	-0.154
811	-0.157
811	-0.157
812	-0.153
812	-0.15
813	-0.151
813	-0.152
813	-0.154
814	-0.155
814	-0.156
815	-0.154
815	-0.152
816	-0.151
816	-0.152
817	-0.157
817	-0.161
817	-0.162
818	-0.161
818	-0.158
819	-0.153
819	-0.15
820	-0.151
820	-0.153
820	-0.154
821	-0.154
821	-0.153
822	-0.152
822	-0.15
823	-0.147
823	-0.147
823	-0.148
824	-0.147
824	-0.142
825	-0.135
825	-0.127
826	-0.119
826	-0.113
826	-0.106
827	-0.1
827	-0.094
828	-0.088
828	-0.084
829	-0.079
829	-0.074
829	-0.07
830	-0.067
830	-0.064
831	-0.059
831	-0.055
832	-0.052
832	-0.048
832	-0.045
833	-0.043
833	-0.041
834	-0.039
834	-0.038
835	-0.037
835	-0.037
835	-0.037
836	-0.037
836	-0.036
837	-0.036
837	-0.036
838	-0.036
838	-0.036
839	-0.036
839	-0.036
839	-0.036
840	-0.035
840	-0.035
841	-0.034
841	-0.033
842	-0.033
842	-0.032
842	-0.031
843	-0.03
843	-0.029
844	-0.028
844	-0.027
845	-0.026
845	-0.025
845	-0.024
846	-0.023
846	-0.022
847	-0.021
847	-0.02
848	-0.019
848	-0.017
848	-0.016
849	-0.015
849	-0.014
850	-0.013
850	-0.013
851	-0.012
851	-0.012
851	-0.012
852	-0.012
852	-0.011
853	-0.011
853	-0.011
854	-0.011
854	-0.011
854	-0.011
855	-0.01
855	-0.01
856	-0.01
856	-0.009
857	-0.009
857	-0.008
857	-0.008
858	-0.007
858	-0.006
859	-0.006
859	-0.005
860	-0.004
860	-0.003
860	-0.003
861	-0.002
861	-0.002
862	-0.002
862	-0.003
863	-0.003
863	-0.002
863	-0.002
864	-0.002
864	-0.002
865	-0.003
865	-0.003
866	-0.003
866	-0.003
866	-0.002
867	-0.002
867	-0.002
868	-0.001
868	-0.001
869	-0.001
869	-0.001
869	-0.001
870	-0.001
870	-0.001
871	-0.001
871	-0.001
872	-0.001
872	-0.001
872	-0.002
873	-0.002
873	-0.002
874	-0.003
874	-0.003
875	-0.004
875	-0.005
875	-0.006
876	-0.006
876	-0.007
877	-0.007
877	-0.007
878	-0.007
878	-0.007
878	-0.007
879	-0.006
879	-0.005
880	-0.004
880	-0.003
881	-0.002
881	-0.001
881	0.001
882	0.001
882	0.002
883	0.003
883	0.004
884	0.005
884	0.005
884	0.006
885	0.006
885	0.006
886	0.006
886	0.006
887	0.007
887	0.007
887	0.007
888	0.007
888	0.007
889	0.008
889	0.009
890	0.01
890	0.01
890	0.011
891	0.012
891	0.013
892	0.013
892	0.014
893	0.015
893	0.015
893	0.015
894	0.016
894	0.015
895	0.015
895	0.015
895	0.014
896	0.014
896	0.013
897	0.013
897	0.012
898	0.011
898	0.01
898	0.009
899	0.008
899	0.007
900	0.006
900	0.005
901	0.004
901	0.003
901	0.003
902	0.002
902	0.002
903	0.001
903	0.001
904	0.001
904	0.001
904	0.001
905	0.001
905	0.002
906	0.002
906	0.002
907	0.003
907	0.003
907	0.003
908	0.002
908	0.002
909	0.002
909	0.002
910	0.002
910	0.001
910	0.001
911	0.001
911	0.001
912	0.002
912	0.003
913	0.004
913	0.005
913	0.007
914	0.008
914	0.01
915	0.011
915	0.012
916	0.013
916	0.014
916	0.015
917	0.015
917	0.015
918	0.015
918	0.015
918	0.015
919	0.015
919	0.014
920	0.014
920	0.013
921	0.013
921	0.012
921	0.011
922	0.01
922	0.009
923	0.008
923	0.007
924	0.005
924	0.005
924	0.004
925	0.003
925	0.003
926	0.003
926	0.003
927	0.003
927	0.004
927	0.004
928	0.005
928	0.006
929	0.007
929	0.007
930	0.008
930	0.009
930	0.009
931	0.01
931	0.011
932	0.011
932	0.012
933	0.012
933	0.013
933	0.013
934	0.013
934	0.014
935	0.014
935	0.014
935	0.014
936	0.014
936	0.014
937	0.014
937	0.014
938	0.014
938	0.013
938	0.013
939	0.013
939	0.013
940	0.014
940	0.014
941	0.015
941	0.016
941	0.017
942	0.018
942	0.019
943	0.019
943	0.02
944	0.021
944	0.021
944	0.022
945	0.023
945	0.023
946	0.024
946	0.024
946	0.024
947	0.025
947	0.025
948	0.025
948	0.024
949	0.024
949	0.023
949	0.023
950	0.022
950	0.021
951	0.021
951	0.02
952	0.019
952	0.019
952	0.019
953	0.018
953	0.018
954	0.018
954	0.018
955	0.018
955	0.018
955	0.018
956	0.018
956	0.019
957	0.019
957	0.019
957	0.019
958	0.019
958	0.019
959	0.019
959	0.019
960	0.019
960	0.019
960	0.019
961	0.019
961	0.018
962	0.018
962	0.018
963	0.018
963	0.017
963	0.016
964	0.016
964	0.015
965	0.015
965	0.014
966	0.014
966	0.013
966	0.013
967	0.013
967	0.012
968	0.012
968	0.012
968	0.012
969	0.012
969	0.012
970	0.012
970	0.012
971	0.012
971	0.012
971	0.012
972	0.013
972	0.014
973	0.014
973	0.015
974	0.015
974	0.015
974	0.016
975	0.016
975	0.016
976	0.016
976	0.015
976	0.015
977	0.014
977	0.013
978	0.012
978	0.011
979	0.01
979	0.01
979	0.009
980	0.008
980	0.008
981	0.007
981	0.007
982	0.007
982	0.006
982	0.007
983	0.007
983	0.007
984	0.007
984	0.007
984	0.007
985	0.007
985	0.007
986	0.006
986	0.005
987	0.005
987	0.004
987	0.004
988	0.004
988	0.004
989	0.003
989	0.004
990	0.004
990	0.004
990	0.005
991	0.006
991	0.007
992	0.008
992	0.008
992	0.009
993	0.009
993	0.01
994	0.01
994	0.01
995	0.009
995	0.009
995	0.009
996	0.008
996	0.007
997	0.007
997	0.006
997	0.006
998	0.005
998	0.005
999	0.005
999	0.005
1000	0.005
1000	0.005
1000	0.005
1001	0.005
1001	0.005
1002	0.005
1002	0.005
1003	0.005
1003	0.004
1003	0.004
1004	0.004
1004	0.003
1005	0.003
1005	0.002
1005	0.001
1006	0.001
1006	0.001
1007	0
1007	0
1008	0.001
1008	0.001
1008	0.002
1009	0.002
1009	0.003
1010	0.004
1010	0.005
1010	0.006
1011	0.007
1011	0.008
1012	0.009
1012	0.01
1013	0.01
1013	0.01
1013	0.011
1014	0.011
1014	0.01
1015	0.01
1015	0.01
1016	0.009
1016	0.009
1016	0.009
1017	0.009
1017	0.008
1018	0.009
1018	0.009
1018	0.009
1019	0.01
1019	0.01
1020	0.01
1020	0.011
1021	0.011
1021	0.011
1021	0.012
1022	0.012
1022	0.012
1023	0.012
1023	0.012
1023	0.012
1024	0.012
1024	0.012
1025	0.012
1025	0.013
1026	0.013
1026	0.013
1026	0.013
1027	0.013
1027	0.013
1028	0.014
1028	0.014
1028	0.014
1029	0.014
1029	0.014
1030	0.013
1030	0.012
1031	0.012
1031	0.011
1031	0.011
1032	0.01
1032	0.009
1033	0.008
1033	0.007
1033	0.007
1034	0.006
1034	0.005
1035	0.005
1035	0.005
1036	0.005
1036	0.005
1036	0.006
1037	0.007
1037	0.007
1038	0.008
1038	0.009
1039	0.01
1039	0.011
1039	0.012
1040	0.012
1040	0.013
1041	0.013
1041	0.014
1041	0.014
1042	0.015
1042	0.015
1043	0.016
1043	0.017
1044	0.018
1044	0.019
1044	0.02
1045	0.021
1045	0.022
1046	0.023
1046	0.024
1046	0.026
1047	0.028
1047	0.029
1048	0.031
1048	0.032
1049	0.033
1049	0.034
1049	0.034
1050	0.035
1050	0.035
1051	0.035
1051	0.034
1051	0.034
1052	0.034
1052	0.033
1053	0.032
1053	0.031
1053	0.031
1054	0.031
1054	0.031
1055	0.03
1055	0.029
1056	0.029
1056	0.028
1056	0.027
1057	0.026
1057	0.026
1058	0.026
1058	0.026
1058	0.026
1059	0.026
1059	0.026
1060	0.027
1060	0.027
1061	0.028
1061	0.029
1061	0.03
1062	0.031
1062	0.031
1063	0.032
1063	0.033
1063	0.034
1064	0.036
1064	0.038
1065	0.04
1065	0.041
1066	0.043
1066	0.046
1066	0.048
1067	0.051
1067	0.053
1068	0.056
1068	0.058
1068	0.059
1069	0.06
1069	0.061
1070	0.062
1070	0.063
1071	0.064
1071	0.065
1071	0.065
1072	0.066
1072	0.067
1073	0.069
1073	0.07
1073	0.071
1074	0.072
1074	0.073
1075	0.073
1075	0.074
1076	0.074
1076	0.076
1076	0.076
1077	0.077
1077	0.078
1078	0.079
1078	0.081
1078	0.082
1079	0.085
1079	0.088
1080	0.09
1080	0.093
1080	0.095
1081	0.098
1081	0.101
1082	0.104
1082	0.106
1083	0.109
1083	0.112
1083	0.115
1084	0.119
1084	0.123
1085	0.127
1085	0.13
1085	0.134
1086	0.138
1086	0.141
1087	0.145
1087	0.149
1088	0.152
1088	0.157
1088	0.161
1089	0.165
1089	0.171
1090	0.177
1090	0.184
1090	0.191
1091	0.199
1091	0.209
1092	0.219
1092	0.23
1092	0.241
1093	0.251
1093	0.265
1094	0.278
1094	0.291
1095	0.305
1095	0.322
1095	0.342
1096	0.361
1096	0.383
1097	0.408
1097	0.434
1097	0.465
1098	0.495
1098	0.533
1099	0.578
1099	0.63
1100	0.692
1100	0.768
1100	0.863
1101	0.997
1101	1.215
1102	1.8
1102	-0
1102	-0
1103	-0
1103	-0
1104	-0
1104	-0
1104	-0
1105	-0
1105	-0
1106	-0
1106	-0
1107	-0
1107	-0
1107	-0
1108	-0
1108	-0
1109	-0
1109	-0
1109	-0
1110	-0
1110	-0
1111	-0
1111	-0
