Data from 15c-2-4a_Absorbance__1011__01011.txt Node

Date: Thu Jan 25 10:37:52 CET 2024
User: Marek
Spectrometer: MAYP115816
Trigger mode: 0
Integration Time (sec): 2.000000E-1
Scans to average: 10
Electric dark correction enabled: true
Nonlinearity correction enabled: true
Boxcar width: 5
XAxis mode: Wavelengths
Number of Pixels in Spectrum: 2068
>>>>>Begin Spectral Data<<<<<
199	-2.155
199	-1.985
200	-1.831
200	-1.708
201	-1.63
201	-1.573
202	-1.49
202	-1.429
203	-1.376
203	-1.33
204	-1.303
204	-1.275
205	-1.254
205	-1.242
205	-1.236
206	-1.232
206	-1.229
207	-1.228
207	-1.225
208	-1.22
208	-1.216
209	-1.212
209	-1.209
210	-1.206
210	-1.204
211	-1.203
211	-1.201
212	-1.198
212	-1.195
213	-1.193
213	-1.194
213	-1.194
214	-1.193
214	-1.192
215	-1.19
215	-1.188
216	-1.185
216	-1.184
217	-1.182
217	-1.179
218	-1.178
218	-1.175
219	-1.173
219	-1.17
220	-1.17
220	-1.166
221	-1.163
221	-1.161
221	-1.157
222	-1.154
222	-1.152
223	-1.148
223	-1.142
224	-1.134
224	-1.125
225	-1.116
225	-1.108
226	-1.096
226	-1.084
227	-1.069
227	-1.056
228	-1.036
228	-1.018
229	-0.996
229	-0.972
229	-0.946
230	-0.917
230	-0.886
231	-0.851
231	-0.812
232	-0.771
232	-0.727
233	-0.681
233	-0.633
234	-0.585
234	-0.535
235	-0.486
235	-0.437
236	-0.389
236	-0.343
236	-0.299
237	-0.255
237	-0.215
238	-0.176
238	-0.14
239	-0.105
239	-0.073
240	-0.043
240	-0.015
241	0.011
241	0.035
242	0.057
242	0.078
243	0.097
243	0.114
243	0.131
244	0.146
244	0.159
245	0.172
245	0.183
246	0.194
246	0.204
247	0.214
247	0.223
248	0.231
248	0.238
249	0.245
249	0.252
250	0.258
250	0.264
250	0.27
251	0.275
251	0.28
252	0.285
252	0.289
253	0.293
253	0.297
254	0.301
254	0.304
255	0.307
255	0.311
256	0.313
256	0.316
257	0.318
257	0.32
258	0.322
258	0.324
258	0.326
259	0.327
259	0.329
260	0.33
260	0.331
261	0.332
261	0.333
262	0.333
262	0.334
263	0.334
263	0.335
264	0.335
264	0.335
265	0.335
265	0.335
265	0.335
266	0.335
266	0.334
267	0.334
267	0.334
268	0.333
268	0.332
269	0.332
269	0.331
270	0.33
270	0.329
271	0.328
271	0.327
272	0.326
272	0.325
272	0.324
273	0.323
273	0.322
274	0.32
274	0.319
275	0.318
275	0.316
276	0.315
276	0.313
277	0.312
277	0.31
278	0.308
278	0.306
278	0.304
279	0.303
279	0.301
280	0.3
280	0.299
281	0.298
281	0.297
282	0.296
282	0.295
283	0.295
283	0.295
284	0.294
284	0.293
285	0.291
285	0.29
285	0.289
286	0.288
286	0.287
287	0.286
287	0.284
288	0.283
288	0.282
289	0.281
289	0.28
290	0.279
290	0.278
291	0.277
291	0.276
292	0.276
292	0.275
292	0.274
293	0.273
293	0.273
294	0.272
294	0.272
295	0.271
295	0.27
296	0.27
296	0.269
297	0.268
297	0.268
298	0.267
298	0.267
298	0.266
299	0.265
299	0.265
300	0.264
300	0.263
301	0.263
301	0.262
302	0.262
302	0.261
303	0.261
303	0.26
304	0.26
304	0.259
305	0.258
305	0.258
305	0.257
306	0.257
306	0.256
307	0.256
307	0.255
308	0.254
308	0.254
309	0.253
309	0.252
310	0.252
310	0.251
311	0.25
311	0.25
311	0.249
312	0.249
312	0.248
313	0.248
313	0.247
314	0.246
314	0.246
315	0.245
315	0.244
316	0.243
316	0.243
317	0.242
317	0.241
318	0.24
318	0.239
318	0.239
319	0.238
319	0.237
320	0.237
320	0.236
321	0.235
321	0.234
322	0.234
322	0.233
323	0.232
323	0.232
324	0.231
324	0.23
324	0.229
325	0.229
325	0.228
326	0.228
326	0.227
327	0.226
327	0.226
328	0.225
328	0.224
329	0.224
329	0.223
330	0.222
330	0.222
330	0.221
331	0.22
331	0.219
332	0.219
332	0.218
333	0.217
333	0.217
334	0.216
334	0.215
335	0.215
335	0.214
336	0.214
336	0.213
336	0.213
337	0.212
337	0.211
338	0.211
338	0.21
339	0.21
339	0.209
340	0.209
340	0.208
341	0.207
341	0.207
342	0.206
342	0.206
342	0.205
343	0.204
343	0.204
344	0.203
344	0.203
345	0.202
345	0.201
346	0.201
346	0.2
347	0.2
347	0.199
348	0.198
348	0.198
348	0.197
349	0.196
349	0.196
350	0.196
350	0.195
351	0.194
351	0.194
352	0.193
352	0.193
353	0.192
353	0.191
354	0.19
354	0.189
354	0.189
355	0.187
355	0.187
356	0.186
356	0.185
357	0.184
357	0.184
358	0.184
358	0.184
359	0.185
359	0.185
360	0.186
360	0.186
360	0.187
361	0.188
361	0.188
362	0.189
362	0.189
363	0.189
363	0.188
364	0.188
364	0.187
365	0.187
365	0.187
366	0.187
366	0.186
366	0.186
367	0.186
367	0.185
368	0.185
368	0.185
369	0.184
369	0.184
370	0.184
370	0.183
371	0.183
371	0.182
372	0.182
372	0.182
372	0.181
373	0.181
373	0.181
374	0.181
374	0.181
375	0.181
375	0.181
376	0.181
376	0.181
377	0.181
377	0.181
378	0.181
378	0.182
378	0.182
379	0.182
379	0.182
380	0.182
380	0.182
381	0.182
381	0.182
382	0.182
382	0.181
383	0.181
383	0.181
383	0.18
384	0.18
384	0.179
385	0.179
385	0.178
386	0.178
386	0.178
387	0.179
387	0.178
388	0.178
388	0.178
389	0.178
389	0.178
389	0.178
390	0.178
390	0.178
391	0.178
391	0.179
392	0.179
392	0.179
393	0.179
393	0.179
394	0.178
394	0.178
394	0.178
395	0.178
395	0.177
396	0.177
396	0.177
397	0.177
397	0.177
398	0.177
398	0.177
399	0.177
399	0.177
400	0.177
400	0.177
400	0.176
401	0.176
401	0.175
402	0.174
402	0.173
403	0.172
403	0.172
404	0.172
404	0.172
405	0.172
405	0.171
405	0.171
406	0.171
406	0.171
407	0.171
407	0.17
408	0.17
408	0.17
409	0.169
409	0.169
410	0.168
410	0.168
411	0.168
411	0.168
411	0.168
412	0.168
412	0.167
413	0.167
413	0.167
414	0.166
414	0.166
415	0.166
415	0.166
416	0.165
416	0.165
416	0.164
417	0.164
417	0.164
418	0.164
418	0.164
419	0.164
419	0.165
420	0.165
420	0.166
421	0.166
421	0.167
421	0.167
422	0.167
422	0.167
423	0.167
423	0.167
424	0.166
424	0.166
425	0.165
425	0.164
426	0.164
426	0.163
427	0.163
427	0.163
427	0.163
428	0.164
428	0.164
429	0.165
429	0.165
430	0.165
430	0.165
431	0.165
431	0.165
432	0.164
432	0.164
432	0.163
433	0.161
433	0.16
434	0.16
434	0.159
435	0.159
435	0.159
436	0.159
436	0.159
437	0.159
437	0.16
437	0.16
438	0.16
438	0.16
439	0.16
439	0.159
440	0.159
440	0.159
441	0.159
441	0.159
442	0.159
442	0.159
442	0.159
443	0.16
443	0.16
444	0.16
444	0.16
445	0.161
445	0.161
446	0.161
446	0.161
447	0.161
447	0.161
447	0.16
448	0.16
448	0.16
449	0.16
449	0.16
450	0.16
450	0.159
451	0.159
451	0.159
452	0.158
452	0.158
452	0.157
453	0.157
453	0.156
454	0.156
454	0.155
455	0.155
455	0.154
456	0.154
456	0.154
457	0.154
457	0.154
458	0.154
458	0.154
458	0.154
459	0.154
459	0.154
460	0.154
460	0.153
461	0.153
461	0.152
462	0.152
462	0.152
463	0.152
463	0.153
463	0.154
464	0.154
464	0.154
465	0.155
465	0.155
466	0.155
466	0.155
467	0.155
467	0.155
467	0.154
468	0.152
468	0.151
469	0.149
469	0.147
470	0.146
470	0.146
471	0.145
471	0.145
472	0.145
472	0.145
472	0.145
473	0.147
473	0.148
474	0.149
474	0.15
475	0.151
475	0.152
476	0.153
476	0.153
477	0.154
477	0.154
477	0.155
478	0.155
478	0.155
479	0.156
479	0.157
480	0.158
480	0.159
481	0.159
481	0.16
482	0.161
482	0.163
482	0.164
483	0.166
483	0.169
484	0.172
484	0.175
485	0.177
485	0.178
486	0.179
486	0.18
487	0.181
487	0.181
487	0.181
488	0.18
488	0.179
489	0.177
489	0.175
490	0.174
490	0.172
491	0.172
491	0.172
492	0.172
492	0.173
492	0.174
493	0.175
493	0.176
494	0.177
494	0.179
495	0.181
495	0.183
496	0.184
496	0.185
496	0.186
497	0.187
497	0.188
498	0.188
498	0.189
499	0.189
499	0.189
500	0.19
500	0.191
501	0.193
501	0.194
501	0.196
502	0.198
502	0.199
503	0.201
503	0.203
504	0.204
504	0.205
505	0.205
505	0.206
506	0.206
506	0.207
506	0.208
507	0.208
507	0.208
508	0.208
508	0.208
509	0.209
509	0.21
510	0.21
510	0.21
511	0.21
511	0.211
511	0.211
512	0.211
512	0.212
513	0.211
513	0.21
514	0.209
514	0.208
515	0.208
515	0.207
515	0.207
516	0.207
516	0.207
517	0.207
517	0.207
518	0.206
518	0.205
519	0.204
519	0.202
520	0.199
520	0.196
520	0.194
521	0.191
521	0.189
522	0.187
522	0.185
523	0.185
523	0.186
524	0.188
524	0.191
524	0.194
525	0.197
525	0.2
526	0.203
526	0.206
527	0.208
527	0.211
528	0.212
528	0.214
529	0.214
529	0.215
529	0.215
530	0.215
530	0.215
531	0.215
531	0.216
532	0.215
532	0.215
533	0.215
533	0.215
533	0.215
534	0.215
534	0.214
535	0.213
535	0.212
536	0.212
536	0.211
537	0.211
537	0.21
538	0.209
538	0.208
538	0.206
539	0.205
539	0.204
540	0.203
540	0.202
541	0.2
541	0.198
542	0.197
542	0.195
542	0.193
543	0.192
543	0.191
544	0.189
544	0.188
545	0.187
545	0.186
546	0.186
546	0.186
547	0.185
547	0.183
547	0.18
548	0.178
548	0.176
549	0.174
549	0.172
550	0.17
550	0.168
551	0.165
551	0.162
551	0.161
552	0.159
552	0.158
553	0.157
553	0.156
554	0.156
554	0.155
555	0.153
555	0.15
556	0.147
556	0.144
556	0.141
557	0.138
557	0.135
558	0.133
558	0.131
559	0.129
559	0.128
560	0.127
560	0.126
560	0.126
561	0.126
561	0.126
562	0.126
562	0.125
563	0.123
563	0.121
564	0.118
564	0.116
564	0.113
565	0.111
565	0.109
566	0.108
566	0.106
567	0.106
567	0.106
568	0.107
568	0.108
568	0.109
569	0.111
569	0.113
570	0.114
570	0.114
571	0.114
571	0.115
572	0.115
572	0.116
573	0.116
573	0.115
573	0.114
574	0.114
574	0.113
575	0.113
575	0.114
576	0.115
576	0.114
577	0.113
577	0.112
577	0.111
578	0.11
578	0.11
579	0.11
579	0.111
580	0.111
580	0.109
581	0.107
581	0.105
581	0.103
582	0.103
582	0.103
583	0.103
583	0.103
584	0.101
584	0.098
585	0.096
585	0.095
585	0.094
586	0.094
586	0.093
587	0.092
587	0.089
588	0.086
588	0.083
589	0.081
589	0.079
590	0.077
590	0.076
590	0.075
591	0.075
591	0.075
592	0.075
592	0.074
593	0.074
593	0.074
594	0.074
594	0.074
594	0.074
595	0.073
595	0.073
596	0.071
596	0.071
597	0.073
597	0.074
598	0.075
598	0.076
598	0.077
599	0.077
599	0.077
600	0.076
600	0.075
601	0.074
601	0.073
602	0.071
602	0.07
602	0.068
603	0.067
603	0.067
604	0.067
604	0.067
605	0.068
605	0.069
606	0.07
606	0.069
606	0.069
607	0.068
607	0.068
608	0.067
608	0.066
609	0.065
609	0.064
610	0.063
610	0.062
610	0.062
611	0.062
611	0.063
612	0.064
612	0.065
613	0.067
613	0.069
614	0.07
614	0.07
614	0.07
615	0.07
615	0.07
616	0.07
616	0.069
617	0.068
617	0.067
618	0.065
618	0.064
618	0.063
619	0.062
619	0.062
620	0.063
620	0.064
621	0.064
621	0.064
622	0.065
622	0.065
622	0.066
623	0.066
623	0.067
624	0.068
624	0.068
625	0.067
625	0.068
626	0.068
626	0.068
626	0.068
627	0.068
627	0.069
628	0.07
628	0.07
629	0.071
629	0.071
630	0.071
630	0.07
630	0.07
631	0.07
631	0.071
632	0.07
632	0.07
633	0.071
633	0.071
634	0.072
634	0.074
634	0.076
635	0.078
635	0.079
636	0.081
636	0.083
637	0.084
637	0.085
638	0.086
638	0.087
638	0.088
639	0.089
639	0.089
640	0.09
640	0.091
641	0.093
641	0.094
642	0.096
642	0.099
642	0.101
643	0.103
643	0.105
644	0.107
644	0.109
645	0.112
645	0.114
646	0.116
646	0.118
646	0.121
647	0.124
647	0.128
648	0.131
648	0.133
649	0.136
649	0.139
650	0.142
650	0.145
650	0.148
651	0.15
651	0.152
652	0.154
652	0.155
653	0.157
653	0.164
653	0.178
654	0.144
654	0.119
655	0.125
655	0.128
656	0.13
656	0.132
657	0.134
657	0.136
657	0.138
658	0.136
658	0.126
659	0.158
659	0.202
660	0.202
660	0.204
661	0.205
661	0.207
661	0.209
662	0.212
662	0.215
663	0.219
663	0.222
664	0.224
664	0.227
665	0.23
665	0.232
665	0.235
666	0.238
666	0.241
667	0.243
667	0.246
668	0.248
668	0.25
669	0.253
669	0.255
669	0.259
670	0.263
670	0.266
671	0.269
671	0.271
672	0.272
672	0.274
672	0.276
673	0.277
673	0.279
674	0.28
674	0.281
675	0.281
675	0.282
676	0.283
676	0.285
676	0.286
677	0.288
677	0.29
678	0.292
678	0.293
679	0.294
679	0.295
680	0.296
680	0.298
680	0.298
681	0.299
681	0.3
682	0.301
682	0.303
683	0.304
683	0.307
684	0.309
684	0.311
684	0.311
685	0.311
685	0.312
686	0.313
686	0.313
687	0.312
687	0.311
687	0.311
688	0.309
688	0.308
689	0.308
689	0.308
690	0.309
690	0.309
691	0.308
691	0.309
691	0.309
692	0.309
692	0.308
693	0.308
693	0.309
694	0.309
694	0.308
695	0.308
695	0.309
695	0.31
696	0.31
696	0.31
697	0.309
697	0.308
698	0.307
698	0.305
698	0.303
699	0.301
699	0.298
700	0.294
700	0.291
701	0.289
701	0.287
702	0.286
702	0.284
702	0.282
703	0.28
703	0.278
704	0.276
704	0.275
705	0.274
705	0.273
705	0.272
706	0.271
706	0.27
707	0.268
707	0.267
708	0.265
708	0.264
709	0.263
709	0.262
709	0.259
710	0.256
710	0.253
711	0.25
711	0.248
712	0.246
712	0.244
713	0.242
713	0.241
713	0.239
714	0.236
714	0.234
715	0.232
715	0.23
716	0.228
716	0.226
716	0.223
717	0.221
717	0.219
718	0.216
718	0.213
719	0.21
719	0.208
720	0.206
720	0.203
720	0.2
721	0.196
721	0.193
722	0.189
722	0.186
723	0.183
723	0.181
723	0.178
724	0.176
724	0.174
725	0.171
725	0.169
726	0.167
726	0.166
727	0.164
727	0.162
727	0.16
728	0.157
728	0.155
729	0.154
729	0.152
730	0.15
730	0.148
730	0.146
731	0.144
731	0.143
732	0.141
732	0.14
733	0.138
733	0.136
734	0.134
734	0.131
734	0.128
735	0.126
735	0.124
736	0.121
736	0.118
737	0.115
737	0.113
737	0.111
738	0.108
738	0.105
739	0.103
739	0.101
740	0.099
740	0.097
741	0.095
741	0.093
741	0.09
742	0.086
742	0.083
743	0.08
743	0.077
744	0.075
744	0.073
744	0.071
745	0.068
745	0.066
746	0.064
746	0.063
747	0.061
747	0.061
748	0.06
748	0.059
748	0.058
749	0.057
749	0.055
750	0.054
750	0.053
751	0.052
751	0.052
751	0.052
752	0.051
752	0.05
753	0.049
753	0.048
754	0.047
754	0.046
754	0.046
755	0.046
755	0.046
756	0.046
756	0.044
757	0.042
757	0.041
758	0.041
758	0.039
758	0.039
759	0.038
759	0.035
760	0.032
760	0.029
761	0.026
761	0.025
761	0.023
762	0.021
762	0.02
763	0.019
763	0.017
764	0.015
764	0.012
764	0.011
765	0.009
765	0.007
766	0.005
766	0.005
767	0.004
767	0.001
768	-0.002
768	-0.005
768	-0.006
769	-0.007
769	-0.008
770	-0.009
770	-0.011
771	-0.012
771	-0.015
771	-0.017
772	-0.02
772	-0.022
773	-0.024
773	-0.027
774	-0.03
774	-0.034
775	-0.037
775	-0.041
775	-0.045
776	-0.048
776	-0.052
777	-0.056
777	-0.059
778	-0.063
778	-0.067
778	-0.07
779	-0.073
779	-0.076
780	-0.08
780	-0.084
781	-0.089
781	-0.095
781	-0.101
782	-0.107
782	-0.114
783	-0.12
783	-0.125
784	-0.129
784	-0.133
784	-0.137
785	-0.14
785	-0.144
786	-0.145
786	-0.143
787	-0.138
787	-0.135
788	-0.134
788	-0.135
788	-0.136
789	-0.139
789	-0.139
790	-0.136
790	-0.135
791	-0.136
791	-0.138
791	-0.14
792	-0.135
792	-0.124
793	-0.117
793	-0.112
794	-0.11
794	-0.111
794	-0.114
795	-0.116
795	-0.116
796	-0.116
796	-0.118
797	-0.127
797	-0.138
797	-0.145
798	-0.151
798	-0.154
799	-0.156
799	-0.156
800	-0.156
800	-0.158
801	-0.161
801	-0.162
801	-0.162
802	-0.163
802	-0.164
803	-0.164
803	-0.164
804	-0.163
804	-0.157
804	-0.15
805	-0.146
805	-0.143
806	-0.141
806	-0.14
807	-0.138
807	-0.137
807	-0.137
808	-0.136
808	-0.137
809	-0.141
809	-0.146
810	-0.149
810	-0.151
810	-0.155
811	-0.157
811	-0.158
812	-0.154
812	-0.151
813	-0.152
813	-0.153
813	-0.154
814	-0.156
814	-0.157
815	-0.155
815	-0.153
816	-0.152
816	-0.153
817	-0.158
817	-0.162
817	-0.163
818	-0.162
818	-0.159
819	-0.154
819	-0.151
820	-0.152
820	-0.154
820	-0.155
821	-0.155
821	-0.152
822	-0.149
822	-0.146
823	-0.141
823	-0.139
823	-0.139
824	-0.136
824	-0.129
825	-0.12
825	-0.11
826	-0.101
826	-0.093
826	-0.087
827	-0.081
827	-0.075
828	-0.07
828	-0.065
829	-0.06
829	-0.056
829	-0.053
830	-0.05
830	-0.047
831	-0.043
831	-0.039
832	-0.036
832	-0.033
832	-0.031
833	-0.029
833	-0.027
834	-0.026
834	-0.025
835	-0.024
835	-0.024
835	-0.025
836	-0.025
836	-0.025
837	-0.024
837	-0.024
838	-0.024
838	-0.023
839	-0.023
839	-0.022
839	-0.021
840	-0.021
840	-0.019
841	-0.018
841	-0.017
842	-0.016
842	-0.014
842	-0.013
843	-0.012
843	-0.011
844	-0.01
844	-0.009
845	-0.008
845	-0.008
845	-0.007
846	-0.006
846	-0.006
847	-0.005
847	-0.004
848	-0.004
848	-0.003
848	-0.002
849	-0.001
849	-0.001
850	-0
850	0
851	0
851	0.001
851	0.001
852	0.001
852	0.002
853	0.002
853	0.002
854	0.002
854	0.002
854	0.003
855	0.003
855	0.003
856	0.003
856	0.003
857	0.003
857	0.003
857	0.004
858	0.004
858	0.004
859	0.005
859	0.005
860	0.006
860	0.007
860	0.008
861	0.009
861	0.01
862	0.01
862	0.011
863	0.012
863	0.013
863	0.014
864	0.014
864	0.015
865	0.015
865	0.015
866	0.015
866	0.016
866	0.016
867	0.016
867	0.016
868	0.016
868	0.016
869	0.016
869	0.016
869	0.016
870	0.016
870	0.015
871	0.015
871	0.015
872	0.014
872	0.014
872	0.013
873	0.013
873	0.012
874	0.011
874	0.01
875	0.009
875	0.008
875	0.008
876	0.007
876	0.007
877	0.006
877	0.006
878	0.006
878	0.007
878	0.007
879	0.008
879	0.008
880	0.009
880	0.01
881	0.012
881	0.013
881	0.014
882	0.015
882	0.016
883	0.017
883	0.018
884	0.019
884	0.019
884	0.019
885	0.02
885	0.02
886	0.02
886	0.019
887	0.019
887	0.018
887	0.018
888	0.017
888	0.017
889	0.017
889	0.017
890	0.018
890	0.018
890	0.019
891	0.019
891	0.02
892	0.02
892	0.021
893	0.022
893	0.022
893	0.023
894	0.024
894	0.023
895	0.023
895	0.023
895	0.023
896	0.023
896	0.023
897	0.023
897	0.022
898	0.022
898	0.021
898	0.02
899	0.019
899	0.018
900	0.017
900	0.016
901	0.015
901	0.014
901	0.014
902	0.014
902	0.013
903	0.013
903	0.014
904	0.014
904	0.014
904	0.015
905	0.015
905	0.016
906	0.016
906	0.016
907	0.016
907	0.016
907	0.016
908	0.016
908	0.016
909	0.016
909	0.015
910	0.015
910	0.015
910	0.015
911	0.015
911	0.016
912	0.017
912	0.017
913	0.018
913	0.019
913	0.02
914	0.021
914	0.022
915	0.023
915	0.024
916	0.025
916	0.026
916	0.026
917	0.026
917	0.026
918	0.026
918	0.026
918	0.025
919	0.024
919	0.023
920	0.022
920	0.02
921	0.019
921	0.018
921	0.017
922	0.016
922	0.015
923	0.014
923	0.014
924	0.013
924	0.013
924	0.014
925	0.014
925	0.015
926	0.015
926	0.016
927	0.016
927	0.017
927	0.017
928	0.018
928	0.019
929	0.02
929	0.02
930	0.02
930	0.02
930	0.02
931	0.02
931	0.02
932	0.019
932	0.019
933	0.019
933	0.019
933	0.019
934	0.019
934	0.019
935	0.019
935	0.019
935	0.02
936	0.02
936	0.02
937	0.02
937	0.019
938	0.019
938	0.018
938	0.018
939	0.017
939	0.017
940	0.017
940	0.017
941	0.017
941	0.018
941	0.018
942	0.019
942	0.02
943	0.021
943	0.022
944	0.022
944	0.023
944	0.024
945	0.025
945	0.026
946	0.027
946	0.028
946	0.029
947	0.029
947	0.029
948	0.03
948	0.029
949	0.029
949	0.029
949	0.028
950	0.028
950	0.027
951	0.027
951	0.026
952	0.026
952	0.026
952	0.026
953	0.026
953	0.026
954	0.026
954	0.026
955	0.026
955	0.026
955	0.026
956	0.026
956	0.026
957	0.025
957	0.025
957	0.024
958	0.024
958	0.024
959	0.024
959	0.024
960	0.024
960	0.024
960	0.024
961	0.024
961	0.025
962	0.025
962	0.025
963	0.025
963	0.024
963	0.024
964	0.024
964	0.023
965	0.023
965	0.022
966	0.021
966	0.021
966	0.02
967	0.02
967	0.019
968	0.019
968	0.018
968	0.018
969	0.018
969	0.018
970	0.018
970	0.018
971	0.019
971	0.019
971	0.02
972	0.021
972	0.021
973	0.022
973	0.023
974	0.023
974	0.024
974	0.024
975	0.025
975	0.025
976	0.025
976	0.025
976	0.024
977	0.023
977	0.022
978	0.021
978	0.021
979	0.02
979	0.019
979	0.018
980	0.018
980	0.017
981	0.016
981	0.016
982	0.016
982	0.016
982	0.015
983	0.015
983	0.015
984	0.015
984	0.015
984	0.015
985	0.015
985	0.014
986	0.014
986	0.013
987	0.013
987	0.013
987	0.013
988	0.013
988	0.013
989	0.013
989	0.013
990	0.013
990	0.013
990	0.013
991	0.013
991	0.013
992	0.014
992	0.013
992	0.013
993	0.013
993	0.012
994	0.012
994	0.012
995	0.011
995	0.011
995	0.01
996	0.01
996	0.009
997	0.009
997	0.009
997	0.009
998	0.008
998	0.009
999	0.009
999	0.009
1000	0.01
1000	0.01
1000	0.011
1001	0.011
1001	0.012
1002	0.012
1002	0.012
1003	0.012
1003	0.012
1003	0.012
1004	0.011
1004	0.011
1005	0.01
1005	0.01
1005	0.009
1006	0.008
1006	0.008
1007	0.008
1007	0.007
1008	0.007
1008	0.007
1008	0.007
1009	0.007
1009	0.008
1010	0.008
1010	0.009
1010	0.01
1011	0.011
1011	0.012
1012	0.013
1012	0.014
1013	0.015
1013	0.016
1013	0.016
1014	0.017
1014	0.017
1015	0.017
1015	0.017
1016	0.017
1016	0.017
1016	0.017
1017	0.017
1017	0.018
1018	0.018
1018	0.018
1018	0.019
1019	0.019
1019	0.019
1020	0.019
1020	0.019
1021	0.018
1021	0.018
1021	0.018
1022	0.018
1022	0.018
1023	0.018
1023	0.018
1023	0.018
1024	0.018
1024	0.018
1025	0.018
1025	0.018
1026	0.019
1026	0.019
1026	0.019
1027	0.019
1027	0.019
1028	0.019
1028	0.019
1028	0.02
1029	0.02
1029	0.02
1030	0.02
1030	0.019
1031	0.02
1031	0.02
1031	0.02
1032	0.02
1032	0.019
1033	0.019
1033	0.019
1033	0.019
1034	0.018
1034	0.018
1035	0.018
1035	0.018
1036	0.018
1036	0.018
1036	0.018
1037	0.019
1037	0.019
1038	0.019
1038	0.02
1039	0.02
1039	0.021
1039	0.021
1040	0.021
1040	0.022
1041	0.022
1041	0.022
1041	0.023
1042	0.023
1042	0.024
1043	0.024
1043	0.025
1044	0.026
1044	0.027
1044	0.028
1045	0.029
1045	0.03
1046	0.031
1046	0.033
1046	0.035
1047	0.036
1047	0.038
1048	0.04
1048	0.042
1049	0.043
1049	0.044
1049	0.045
1050	0.045
1050	0.045
1051	0.046
1051	0.046
1051	0.045
1052	0.045
1052	0.044
1053	0.044
1053	0.043
1053	0.042
1054	0.042
1054	0.041
1055	0.041
1055	0.04
1056	0.039
1056	0.038
1056	0.038
1057	0.037
1057	0.037
1058	0.037
1058	0.036
1058	0.037
1059	0.036
1059	0.036
1060	0.037
1060	0.037
1061	0.038
1061	0.038
1061	0.039
1062	0.039
1062	0.039
1063	0.039
1063	0.039
1063	0.04
1064	0.041
1064	0.042
1065	0.043
1065	0.044
1066	0.045
1066	0.047
1066	0.05
1067	0.052
1067	0.054
1068	0.056
1068	0.058
1068	0.06
1069	0.062
1069	0.063
1070	0.065
1070	0.066
1071	0.068
1071	0.069
1071	0.07
1072	0.072
1072	0.074
1073	0.075
1073	0.077
1073	0.078
1074	0.08
1074	0.081
1075	0.081
1075	0.082
1076	0.082
1076	0.083
1076	0.084
1077	0.085
1077	0.086
1078	0.088
1078	0.089
1078	0.091
1079	0.093
1079	0.096
1080	0.098
1080	0.101
1080	0.102
1081	0.105
1081	0.107
1082	0.109
1082	0.111
1083	0.113
1083	0.115
1083	0.118
1084	0.12
1084	0.123
1085	0.126
1085	0.13
1085	0.132
1086	0.135
1086	0.137
1087	0.141
1087	0.145
1088	0.148
1088	0.151
1088	0.155
1089	0.159
1089	0.163
1090	0.167
1090	0.173
1090	0.179
1091	0.186
1091	0.194
1092	0.202
1092	0.211
1092	0.22
1093	0.229
1093	0.239
1094	0.25
1094	0.262
1095	0.273
1095	0.288
1095	0.305
1096	0.321
1096	0.339
1097	0.36
1097	0.382
1097	0.407
1098	0.434
1098	0.467
1099	0.502
1099	0.543
1100	0.589
1100	0.645
1100	0.713
1101	0.8
1101	0.916
1102	1.107
1102	1.461
1102	-0
1103	-0
1103	-0
1104	-0
1104	-0
1104	-0
1105	-0
1105	-0
1106	-0
1106	-0
1107	-0
1107	-0
1107	-0
1108	-0
1108	-0
1109	-0
1109	-0
1109	-0
1110	-0
1110	-0
1111	-0
1111	-0
