Data from 15c-2-4a_Absorbance__1818__01818.txt Node

Date: Thu Jan 25 11:04:46 CET 2024
User: Marek
Spectrometer: MAYP115816
Trigger mode: 0
Integration Time (sec): 2.000000E-1
Scans to average: 10
Electric dark correction enabled: true
Nonlinearity correction enabled: true
Boxcar width: 5
XAxis mode: Wavelengths
Number of Pixels in Spectrum: 2068
>>>>>Begin Spectral Data<<<<<
199	-2.191
199	-2.02
200	-1.867
200	-1.744
201	-1.665
201	-1.608
202	-1.526
202	-1.464
203	-1.411
203	-1.365
204	-1.339
204	-1.31
205	-1.29
205	-1.278
205	-1.272
206	-1.268
206	-1.264
207	-1.264
207	-1.26
208	-1.256
208	-1.252
209	-1.247
209	-1.245
210	-1.242
210	-1.24
211	-1.239
211	-1.237
212	-1.233
212	-1.231
213	-1.23
213	-1.23
213	-1.23
214	-1.229
214	-1.228
215	-1.226
215	-1.225
216	-1.222
216	-1.221
217	-1.219
217	-1.216
218	-1.214
218	-1.211
219	-1.209
219	-1.207
220	-1.206
220	-1.201
221	-1.198
221	-1.196
221	-1.192
222	-1.19
222	-1.189
223	-1.184
223	-1.178
224	-1.171
224	-1.162
225	-1.153
225	-1.144
226	-1.133
226	-1.121
227	-1.106
227	-1.092
228	-1.073
228	-1.054
229	-1.032
229	-1.008
229	-0.981
230	-0.951
230	-0.92
231	-0.885
231	-0.845
232	-0.803
232	-0.758
233	-0.711
233	-0.662
234	-0.612
234	-0.561
235	-0.51
235	-0.46
236	-0.41
236	-0.362
236	-0.315
237	-0.269
237	-0.226
238	-0.185
238	-0.146
239	-0.108
239	-0.073
240	-0.041
240	-0.01
241	0.019
241	0.046
242	0.07
242	0.094
243	0.115
243	0.135
243	0.153
244	0.17
244	0.186
245	0.2
245	0.214
246	0.227
246	0.238
247	0.249
247	0.259
248	0.268
248	0.277
249	0.285
249	0.292
250	0.299
250	0.306
250	0.312
251	0.318
251	0.323
252	0.329
252	0.334
253	0.339
253	0.343
254	0.348
254	0.352
255	0.355
255	0.359
256	0.362
256	0.365
257	0.368
257	0.37
258	0.372
258	0.374
258	0.376
259	0.378
259	0.379
260	0.38
260	0.381
261	0.382
261	0.383
262	0.383
262	0.384
263	0.385
263	0.385
264	0.385
264	0.386
265	0.386
265	0.386
265	0.386
266	0.386
266	0.385
267	0.385
267	0.385
268	0.384
268	0.383
269	0.383
269	0.382
270	0.381
270	0.379
271	0.378
271	0.377
272	0.376
272	0.375
272	0.373
273	0.372
273	0.371
274	0.37
274	0.368
275	0.367
275	0.365
276	0.364
276	0.362
277	0.36
277	0.358
278	0.356
278	0.354
278	0.351
279	0.35
279	0.348
280	0.347
280	0.346
281	0.345
281	0.344
282	0.343
282	0.342
283	0.342
283	0.341
284	0.34
284	0.339
285	0.338
285	0.336
285	0.335
286	0.334
286	0.332
287	0.331
287	0.33
288	0.328
288	0.327
289	0.326
289	0.325
290	0.324
290	0.322
291	0.321
291	0.32
292	0.319
292	0.318
292	0.317
293	0.316
293	0.315
294	0.314
294	0.313
295	0.312
295	0.311
296	0.311
296	0.31
297	0.309
297	0.308
298	0.307
298	0.306
298	0.305
299	0.305
299	0.304
300	0.303
300	0.302
301	0.302
301	0.301
302	0.3
302	0.299
303	0.299
303	0.298
304	0.297
304	0.296
305	0.295
305	0.294
305	0.293
306	0.293
306	0.292
307	0.291
307	0.29
308	0.289
308	0.288
309	0.287
309	0.287
310	0.286
310	0.285
311	0.284
311	0.283
311	0.282
312	0.282
312	0.281
313	0.28
313	0.279
314	0.278
314	0.277
315	0.276
315	0.275
316	0.274
316	0.273
317	0.272
317	0.271
318	0.27
318	0.269
318	0.268
319	0.268
319	0.267
320	0.266
320	0.265
321	0.264
321	0.263
322	0.262
322	0.261
323	0.26
323	0.259
324	0.258
324	0.258
324	0.257
325	0.256
325	0.255
326	0.254
326	0.253
327	0.253
327	0.252
328	0.251
328	0.25
329	0.249
329	0.248
330	0.247
330	0.247
330	0.246
331	0.245
331	0.244
332	0.243
332	0.242
333	0.241
333	0.24
334	0.239
334	0.238
335	0.238
335	0.237
336	0.236
336	0.235
336	0.235
337	0.234
337	0.233
338	0.232
338	0.232
339	0.231
339	0.23
340	0.23
340	0.229
341	0.228
341	0.227
342	0.227
342	0.226
342	0.225
343	0.224
343	0.224
344	0.223
344	0.222
345	0.222
345	0.221
346	0.22
346	0.219
347	0.219
347	0.218
348	0.217
348	0.217
348	0.216
349	0.215
349	0.214
350	0.214
350	0.213
351	0.212
351	0.211
352	0.21
352	0.21
353	0.209
353	0.208
354	0.207
354	0.206
354	0.205
355	0.204
355	0.202
356	0.202
356	0.201
357	0.2
357	0.2
358	0.2
358	0.2
359	0.201
359	0.202
360	0.202
360	0.203
360	0.204
361	0.204
361	0.204
362	0.205
362	0.205
363	0.205
363	0.204
364	0.204
364	0.203
365	0.203
365	0.202
366	0.202
366	0.201
366	0.201
367	0.201
367	0.2
368	0.2
368	0.199
369	0.199
369	0.198
370	0.198
370	0.197
371	0.197
371	0.196
372	0.195
372	0.195
372	0.194
373	0.194
373	0.194
374	0.194
374	0.194
375	0.193
375	0.193
376	0.193
376	0.193
377	0.193
377	0.194
378	0.194
378	0.194
378	0.194
379	0.194
379	0.194
380	0.194
380	0.194
381	0.194
381	0.194
382	0.193
382	0.193
383	0.192
383	0.192
383	0.191
384	0.191
384	0.19
385	0.19
385	0.19
386	0.189
386	0.189
387	0.19
387	0.189
388	0.189
388	0.189
389	0.189
389	0.189
389	0.189
390	0.189
390	0.189
391	0.189
391	0.189
392	0.189
392	0.189
393	0.189
393	0.189
394	0.189
394	0.189
394	0.188
395	0.188
395	0.187
396	0.187
396	0.187
397	0.187
397	0.187
398	0.187
398	0.187
399	0.187
399	0.186
400	0.186
400	0.186
400	0.185
401	0.184
401	0.183
402	0.182
402	0.181
403	0.181
403	0.18
404	0.18
404	0.18
405	0.18
405	0.179
405	0.179
406	0.179
406	0.179
407	0.178
407	0.178
408	0.178
408	0.177
409	0.176
409	0.176
410	0.176
410	0.175
411	0.176
411	0.175
411	0.175
412	0.175
412	0.174
413	0.174
413	0.174
414	0.174
414	0.174
415	0.173
415	0.173
416	0.172
416	0.172
416	0.171
417	0.171
417	0.171
418	0.171
418	0.171
419	0.171
419	0.171
420	0.172
420	0.173
421	0.173
421	0.173
421	0.173
422	0.173
422	0.173
423	0.173
423	0.173
424	0.173
424	0.172
425	0.171
425	0.17
426	0.169
426	0.169
427	0.169
427	0.169
427	0.169
428	0.169
428	0.17
429	0.171
429	0.171
430	0.171
430	0.171
431	0.171
431	0.17
432	0.17
432	0.17
432	0.169
433	0.167
433	0.166
434	0.165
434	0.165
435	0.165
435	0.165
436	0.165
436	0.165
437	0.165
437	0.164
437	0.165
438	0.165
438	0.164
439	0.164
439	0.164
440	0.163
440	0.163
441	0.163
441	0.163
442	0.163
442	0.163
442	0.164
443	0.164
443	0.164
444	0.164
444	0.165
445	0.165
445	0.165
446	0.165
446	0.165
447	0.164
447	0.164
447	0.164
448	0.164
448	0.164
449	0.163
449	0.163
450	0.163
450	0.163
451	0.162
451	0.162
452	0.161
452	0.161
452	0.16
453	0.16
453	0.159
454	0.159
454	0.158
455	0.158
455	0.157
456	0.157
456	0.157
457	0.157
457	0.157
458	0.157
458	0.156
458	0.156
459	0.157
459	0.157
460	0.156
460	0.155
461	0.155
461	0.154
462	0.154
462	0.154
463	0.154
463	0.155
463	0.155
464	0.156
464	0.156
465	0.157
465	0.157
466	0.157
466	0.157
467	0.157
467	0.157
467	0.156
468	0.155
468	0.153
469	0.151
469	0.149
470	0.148
470	0.148
471	0.147
471	0.147
472	0.147
472	0.147
472	0.147
473	0.148
473	0.15
474	0.151
474	0.152
475	0.153
475	0.154
476	0.154
476	0.154
477	0.155
477	0.155
477	0.156
478	0.156
478	0.157
479	0.157
479	0.158
480	0.159
480	0.16
481	0.161
481	0.162
482	0.163
482	0.164
482	0.165
483	0.167
483	0.17
484	0.174
484	0.177
485	0.18
485	0.181
486	0.182
486	0.183
487	0.184
487	0.185
487	0.185
488	0.184
488	0.183
489	0.18
489	0.178
490	0.176
490	0.175
491	0.175
491	0.175
492	0.176
492	0.176
492	0.177
493	0.178
493	0.179
494	0.181
494	0.184
495	0.186
495	0.188
496	0.189
496	0.19
496	0.191
497	0.192
497	0.193
498	0.194
498	0.195
499	0.195
499	0.195
500	0.196
500	0.197
501	0.199
501	0.201
501	0.203
502	0.205
502	0.206
503	0.208
503	0.209
504	0.21
504	0.211
505	0.212
505	0.212
506	0.213
506	0.213
506	0.213
507	0.213
507	0.213
508	0.214
508	0.214
509	0.215
509	0.216
510	0.216
510	0.216
511	0.216
511	0.216
511	0.217
512	0.218
512	0.218
513	0.217
513	0.215
514	0.214
514	0.213
515	0.213
515	0.213
515	0.213
516	0.212
516	0.212
517	0.212
517	0.212
518	0.211
518	0.21
519	0.209
519	0.206
520	0.203
520	0.2
520	0.197
521	0.194
521	0.192
522	0.19
522	0.189
523	0.189
523	0.19
524	0.192
524	0.195
524	0.199
525	0.202
525	0.206
526	0.209
526	0.212
527	0.214
527	0.217
528	0.219
528	0.22
529	0.22
529	0.22
529	0.22
530	0.22
530	0.22
531	0.22
531	0.22
532	0.219
532	0.219
533	0.219
533	0.219
533	0.219
534	0.218
534	0.217
535	0.217
535	0.216
536	0.215
536	0.215
537	0.214
537	0.213
538	0.212
538	0.21
538	0.209
539	0.208
539	0.207
540	0.206
540	0.204
541	0.202
541	0.2
542	0.198
542	0.197
542	0.195
543	0.193
543	0.192
544	0.19
544	0.188
545	0.187
545	0.187
546	0.186
546	0.186
547	0.184
547	0.182
547	0.179
548	0.177
548	0.175
549	0.172
549	0.17
550	0.168
550	0.165
551	0.162
551	0.159
551	0.157
552	0.155
552	0.154
553	0.153
553	0.152
554	0.151
554	0.15
555	0.148
555	0.145
556	0.142
556	0.138
556	0.135
557	0.132
557	0.129
558	0.126
558	0.124
559	0.122
559	0.121
560	0.12
560	0.119
560	0.118
561	0.118
561	0.118
562	0.118
562	0.117
563	0.116
563	0.114
564	0.111
564	0.108
564	0.105
565	0.103
565	0.101
566	0.099
566	0.098
567	0.097
567	0.097
568	0.098
568	0.099
568	0.1
569	0.102
569	0.104
570	0.105
570	0.106
571	0.106
571	0.107
572	0.107
572	0.107
573	0.107
573	0.107
573	0.106
574	0.105
574	0.104
575	0.103
575	0.104
576	0.105
576	0.105
577	0.104
577	0.103
577	0.101
578	0.1
578	0.1
579	0.1
579	0.101
580	0.101
580	0.099
581	0.096
581	0.094
581	0.092
582	0.092
582	0.091
583	0.092
583	0.092
584	0.09
584	0.086
585	0.084
585	0.083
585	0.082
586	0.082
586	0.082
587	0.08
587	0.078
588	0.075
588	0.072
589	0.069
589	0.068
590	0.066
590	0.065
590	0.064
591	0.064
591	0.064
592	0.064
592	0.063
593	0.063
593	0.063
594	0.063
594	0.063
594	0.062
595	0.062
595	0.061
596	0.059
596	0.059
597	0.061
597	0.062
598	0.063
598	0.064
598	0.065
599	0.065
599	0.065
600	0.064
600	0.063
601	0.062
601	0.061
602	0.059
602	0.058
602	0.056
603	0.055
603	0.054
604	0.054
604	0.055
605	0.056
605	0.057
606	0.058
606	0.058
606	0.057
607	0.057
607	0.057
608	0.056
608	0.055
609	0.054
609	0.053
610	0.052
610	0.051
610	0.051
611	0.051
611	0.051
612	0.052
612	0.054
613	0.055
613	0.057
614	0.058
614	0.058
614	0.058
615	0.058
615	0.057
616	0.057
616	0.057
617	0.056
617	0.054
618	0.053
618	0.051
618	0.05
619	0.049
619	0.049
620	0.05
620	0.051
621	0.051
621	0.051
622	0.052
622	0.052
622	0.053
623	0.053
623	0.054
624	0.055
624	0.055
625	0.055
625	0.055
626	0.055
626	0.056
626	0.056
627	0.056
627	0.057
628	0.057
628	0.058
629	0.058
629	0.058
630	0.058
630	0.057
630	0.057
631	0.058
631	0.058
632	0.058
632	0.058
633	0.059
633	0.059
634	0.06
634	0.062
634	0.064
635	0.066
635	0.068
636	0.069
636	0.071
637	0.072
637	0.073
638	0.074
638	0.075
638	0.076
639	0.077
639	0.077
640	0.078
640	0.079
641	0.08
641	0.082
642	0.084
642	0.087
642	0.089
643	0.091
643	0.094
644	0.096
644	0.099
645	0.101
645	0.104
646	0.106
646	0.109
646	0.112
647	0.116
647	0.119
648	0.122
648	0.125
649	0.128
649	0.132
650	0.135
650	0.138
650	0.141
651	0.144
651	0.146
652	0.148
652	0.15
653	0.152
653	0.16
653	0.175
654	0.142
654	0.118
655	0.124
655	0.127
656	0.129
656	0.131
657	0.134
657	0.136
657	0.138
658	0.136
658	0.126
659	0.157
659	0.2
660	0.201
660	0.203
661	0.205
661	0.207
661	0.209
662	0.212
662	0.215
663	0.219
663	0.222
664	0.225
664	0.228
665	0.23
665	0.233
665	0.236
666	0.239
666	0.242
667	0.244
667	0.247
668	0.25
668	0.253
669	0.256
669	0.259
669	0.263
670	0.268
670	0.271
671	0.275
671	0.277
672	0.279
672	0.281
672	0.283
673	0.285
673	0.287
674	0.288
674	0.288
675	0.288
675	0.289
676	0.29
676	0.292
676	0.293
677	0.295
677	0.297
678	0.299
678	0.301
679	0.302
679	0.304
680	0.306
680	0.307
680	0.308
681	0.308
681	0.309
682	0.31
682	0.311
683	0.312
683	0.314
684	0.317
684	0.318
684	0.318
685	0.318
685	0.318
686	0.319
686	0.319
687	0.318
687	0.317
687	0.316
688	0.315
688	0.313
689	0.313
689	0.314
690	0.314
690	0.315
691	0.315
691	0.315
691	0.315
692	0.315
692	0.315
693	0.314
693	0.314
694	0.314
694	0.312
695	0.312
695	0.313
695	0.314
696	0.314
696	0.313
697	0.312
697	0.311
698	0.31
698	0.308
698	0.306
699	0.304
699	0.302
700	0.298
700	0.295
701	0.293
701	0.291
702	0.289
702	0.287
702	0.286
703	0.284
703	0.282
704	0.28
704	0.279
705	0.278
705	0.277
705	0.275
706	0.274
706	0.273
707	0.272
707	0.271
708	0.269
708	0.268
709	0.267
709	0.266
709	0.263
710	0.259
710	0.256
711	0.253
711	0.25
712	0.247
712	0.245
713	0.242
713	0.24
713	0.237
714	0.235
714	0.232
715	0.23
715	0.228
716	0.225
716	0.223
716	0.22
717	0.218
717	0.215
718	0.212
718	0.209
719	0.207
719	0.204
720	0.201
720	0.198
720	0.195
721	0.191
721	0.187
722	0.183
722	0.179
723	0.176
723	0.174
723	0.171
724	0.168
724	0.166
725	0.163
725	0.161
726	0.159
726	0.157
727	0.155
727	0.153
727	0.151
728	0.149
728	0.147
729	0.146
729	0.144
730	0.143
730	0.141
730	0.139
731	0.138
731	0.136
732	0.135
732	0.133
733	0.131
733	0.129
734	0.126
734	0.123
734	0.12
735	0.117
735	0.114
736	0.11
736	0.107
737	0.104
737	0.102
737	0.1
738	0.097
738	0.094
739	0.092
739	0.09
740	0.088
740	0.086
741	0.085
741	0.083
741	0.08
742	0.076
742	0.072
743	0.068
743	0.065
744	0.063
744	0.06
744	0.057
745	0.055
745	0.052
746	0.05
746	0.048
747	0.047
747	0.047
748	0.046
748	0.046
748	0.045
749	0.044
749	0.043
750	0.042
750	0.04
751	0.04
751	0.039
751	0.038
752	0.037
752	0.036
753	0.035
753	0.033
754	0.032
754	0.031
754	0.031
755	0.031
755	0.031
756	0.03
756	0.028
757	0.027
757	0.025
758	0.024
758	0.023
758	0.021
759	0.02
759	0.017
760	0.014
760	0.01
761	0.007
761	0.005
761	0.004
762	0.002
762	0.001
763	0.001
763	-0.001
764	-0.003
764	-0.005
764	-0.007
765	-0.008
765	-0.01
766	-0.011
766	-0.012
767	-0.013
767	-0.015
768	-0.018
768	-0.021
768	-0.022
769	-0.023
769	-0.024
770	-0.025
770	-0.026
771	-0.028
771	-0.03
771	-0.032
772	-0.034
772	-0.036
773	-0.038
773	-0.04
774	-0.044
774	-0.047
775	-0.051
775	-0.054
775	-0.058
776	-0.062
776	-0.066
777	-0.07
777	-0.074
778	-0.078
778	-0.083
778	-0.087
779	-0.09
779	-0.092
780	-0.096
780	-0.101
781	-0.105
781	-0.11
781	-0.114
782	-0.119
782	-0.124
783	-0.128
783	-0.131
784	-0.134
784	-0.137
784	-0.139
785	-0.141
785	-0.143
786	-0.144
786	-0.142
787	-0.138
787	-0.134
788	-0.133
788	-0.134
788	-0.136
789	-0.138
789	-0.138
790	-0.136
790	-0.135
791	-0.136
791	-0.137
791	-0.139
792	-0.134
792	-0.123
793	-0.116
793	-0.111
794	-0.109
794	-0.11
794	-0.113
795	-0.115
795	-0.115
796	-0.115
796	-0.118
797	-0.126
797	-0.137
797	-0.144
798	-0.15
798	-0.154
799	-0.155
799	-0.155
800	-0.155
800	-0.157
801	-0.16
801	-0.161
801	-0.161
802	-0.162
802	-0.163
803	-0.164
803	-0.163
804	-0.162
804	-0.156
804	-0.149
805	-0.145
805	-0.143
806	-0.14
806	-0.139
807	-0.138
807	-0.137
807	-0.136
808	-0.136
808	-0.136
809	-0.14
809	-0.146
810	-0.148
810	-0.151
810	-0.154
811	-0.157
811	-0.157
812	-0.153
812	-0.151
813	-0.151
813	-0.152
813	-0.154
814	-0.155
814	-0.156
815	-0.154
815	-0.152
816	-0.151
816	-0.152
817	-0.157
817	-0.161
817	-0.162
818	-0.161
818	-0.158
819	-0.153
819	-0.15
820	-0.151
820	-0.153
820	-0.154
821	-0.154
821	-0.153
822	-0.151
822	-0.149
823	-0.147
823	-0.146
823	-0.147
824	-0.146
824	-0.141
825	-0.134
825	-0.126
826	-0.118
826	-0.112
826	-0.105
827	-0.099
827	-0.093
828	-0.088
828	-0.083
829	-0.078
829	-0.074
829	-0.07
830	-0.067
830	-0.064
831	-0.059
831	-0.055
832	-0.051
832	-0.047
832	-0.044
833	-0.041
833	-0.039
834	-0.038
834	-0.036
835	-0.036
835	-0.036
835	-0.036
836	-0.036
836	-0.036
837	-0.036
837	-0.036
838	-0.036
838	-0.036
839	-0.036
839	-0.036
839	-0.035
840	-0.034
840	-0.033
841	-0.032
841	-0.031
842	-0.031
842	-0.03
842	-0.029
843	-0.028
843	-0.028
844	-0.027
844	-0.026
845	-0.025
845	-0.025
845	-0.024
846	-0.023
846	-0.022
847	-0.021
847	-0.02
848	-0.018
848	-0.017
848	-0.016
849	-0.014
849	-0.013
850	-0.012
850	-0.011
851	-0.011
851	-0.01
851	-0.01
852	-0.01
852	-0.009
853	-0.009
853	-0.01
854	-0.01
854	-0.01
854	-0.01
855	-0.01
855	-0.01
856	-0.009
856	-0.009
857	-0.009
857	-0.009
857	-0.008
858	-0.008
858	-0.007
859	-0.007
859	-0.006
860	-0.005
860	-0.004
860	-0.004
861	-0.003
861	-0.003
862	-0.003
862	-0.002
863	-0.002
863	-0.002
863	-0.001
864	-0.001
864	-0.001
865	-0.001
865	-0.001
866	-0.001
866	-0.001
866	-0.001
867	-0
867	-0
868	-0
868	-0
869	-0
869	-0.001
869	-0.001
870	-0.001
870	-0.001
871	-0.002
871	-0.003
872	-0.003
872	-0.004
872	-0.004
873	-0.004
873	-0.005
874	-0.005
874	-0.006
875	-0.006
875	-0.006
875	-0.007
876	-0.007
876	-0.007
877	-0.007
877	-0.007
878	-0.007
878	-0.007
878	-0.006
879	-0.006
879	-0.005
880	-0.004
880	-0.003
881	-0.003
881	-0.001
881	-0
882	0
882	0.001
883	0.002
883	0.003
884	0.004
884	0.004
884	0.005
885	0.005
885	0.005
886	0.005
886	0.005
887	0.005
887	0.005
887	0.005
888	0.005
888	0.005
889	0.006
889	0.006
890	0.007
890	0.008
890	0.009
891	0.01
891	0.011
892	0.011
892	0.012
893	0.013
893	0.014
893	0.015
894	0.015
894	0.016
895	0.016
895	0.016
895	0.016
896	0.016
896	0.015
897	0.015
897	0.014
898	0.013
898	0.012
898	0.011
899	0.01
899	0.009
900	0.008
900	0.007
901	0.006
901	0.005
901	0.004
902	0.003
902	0.002
903	0.001
903	0.001
904	0.001
904	0.001
904	0.001
905	0.002
905	0.002
906	0.002
906	0.002
907	0.002
907	0.002
907	0.002
908	0.001
908	0.001
909	0.001
909	0.001
910	0.001
910	0
910	0
911	0.001
911	0.001
912	0.002
912	0.003
913	0.004
913	0.005
913	0.007
914	0.008
914	0.009
915	0.01
915	0.012
916	0.013
916	0.014
916	0.014
917	0.015
917	0.015
918	0.015
918	0.015
918	0.015
919	0.015
919	0.015
920	0.014
920	0.014
921	0.013
921	0.012
921	0.011
922	0.01
922	0.009
923	0.007
923	0.006
924	0.005
924	0.004
924	0.004
925	0.003
925	0.003
926	0.003
926	0.003
927	0.003
927	0.004
927	0.004
928	0.005
928	0.005
929	0.006
929	0.007
930	0.007
930	0.007
930	0.008
931	0.008
931	0.008
932	0.009
932	0.009
933	0.01
933	0.011
933	0.011
934	0.012
934	0.012
935	0.013
935	0.013
935	0.013
936	0.014
936	0.014
937	0.014
937	0.013
938	0.013
938	0.013
938	0.012
939	0.012
939	0.012
940	0.012
940	0.012
941	0.012
941	0.013
941	0.014
942	0.014
942	0.015
943	0.016
943	0.016
944	0.017
944	0.018
944	0.018
945	0.019
945	0.019
946	0.019
946	0.02
946	0.02
947	0.02
947	0.02
948	0.02
948	0.019
949	0.019
949	0.018
949	0.018
950	0.018
950	0.017
951	0.017
951	0.016
952	0.016
952	0.016
952	0.016
953	0.016
953	0.016
954	0.016
954	0.016
955	0.016
955	0.016
955	0.016
956	0.016
956	0.017
957	0.016
957	0.016
957	0.016
958	0.016
958	0.016
959	0.016
959	0.016
960	0.016
960	0.015
960	0.015
961	0.015
961	0.015
962	0.015
962	0.016
963	0.016
963	0.016
963	0.015
964	0.015
964	0.015
965	0.015
965	0.014
966	0.014
966	0.013
966	0.013
967	0.012
967	0.012
968	0.011
968	0.011
968	0.011
969	0.011
969	0.011
970	0.011
970	0.011
971	0.012
971	0.012
971	0.013
972	0.014
972	0.014
973	0.015
973	0.016
974	0.016
974	0.017
974	0.017
975	0.017
975	0.017
976	0.017
976	0.016
976	0.015
977	0.014
977	0.013
978	0.012
978	0.011
979	0.01
979	0.009
979	0.009
980	0.008
980	0.007
981	0.007
981	0.007
982	0.006
982	0.006
982	0.006
983	0.007
983	0.007
984	0.007
984	0.006
984	0.006
985	0.006
985	0.006
986	0.005
986	0.004
987	0.003
987	0.003
987	0.002
988	0.002
988	0.002
989	0.002
989	0.003
990	0.003
990	0.003
990	0.004
991	0.005
991	0.006
992	0.007
992	0.008
992	0.008
993	0.008
993	0.008
994	0.008
994	0.008
995	0.008
995	0.008
995	0.007
996	0.007
996	0.006
997	0.005
997	0.004
997	0.003
998	0.003
998	0.002
999	0.002
999	0.002
1000	0.002
1000	0.002
1000	0.002
1001	0.002
1001	0.003
1002	0.003
1002	0.003
1003	0.003
1003	0.003
1003	0.003
1004	0.003
1004	0.003
1005	0.003
1005	0.002
1005	0.002
1006	0.001
1006	0.001
1007	0.001
1007	0.001
1008	0.001
1008	0.001
1008	0.001
1009	0.002
1009	0.002
1010	0.003
1010	0.004
1010	0.005
1011	0.006
1011	0.007
1012	0.008
1012	0.008
1013	0.009
1013	0.009
1013	0.01
1014	0.01
1014	0.01
1015	0.009
1015	0.009
1016	0.009
1016	0.009
1016	0.009
1017	0.009
1017	0.009
1018	0.009
1018	0.01
1018	0.01
1019	0.011
1019	0.011
1020	0.011
1020	0.011
1021	0.011
1021	0.011
1021	0.011
1022	0.011
1022	0.011
1023	0.011
1023	0.01
1023	0.01
1024	0.01
1024	0.01
1025	0.01
1025	0.011
1026	0.011
1026	0.011
1026	0.012
1027	0.012
1027	0.012
1028	0.013
1028	0.013
1028	0.013
1029	0.013
1029	0.013
1030	0.013
1030	0.012
1031	0.011
1031	0.011
1031	0.01
1032	0.009
1032	0.009
1033	0.008
1033	0.008
1033	0.007
1034	0.006
1034	0.006
1035	0.006
1035	0.006
1036	0.006
1036	0.006
1036	0.006
1037	0.007
1037	0.007
1038	0.008
1038	0.008
1039	0.009
1039	0.009
1039	0.01
1040	0.01
1040	0.011
1041	0.012
1041	0.012
1041	0.013
1042	0.013
1042	0.014
1043	0.015
1043	0.016
1044	0.017
1044	0.018
1044	0.019
1045	0.02
1045	0.021
1046	0.022
1046	0.024
1046	0.026
1047	0.027
1047	0.029
1048	0.031
1048	0.032
1049	0.033
1049	0.034
1049	0.034
1050	0.035
1050	0.035
1051	0.035
1051	0.035
1051	0.035
1052	0.034
1052	0.034
1053	0.033
1053	0.033
1053	0.032
1054	0.032
1054	0.031
1055	0.031
1055	0.031
1056	0.03
1056	0.029
1056	0.028
1057	0.028
1057	0.027
1058	0.027
1058	0.027
1058	0.027
1059	0.027
1059	0.027
1060	0.028
1060	0.029
1061	0.029
1061	0.03
1061	0.031
1062	0.032
1062	0.032
1063	0.033
1063	0.034
1063	0.035
1064	0.037
1064	0.039
1065	0.04
1065	0.042
1066	0.044
1066	0.047
1066	0.049
1067	0.052
1067	0.054
1068	0.057
1068	0.059
1068	0.06
1069	0.062
1069	0.063
1070	0.064
1070	0.065
1071	0.066
1071	0.067
1071	0.067
1072	0.068
1072	0.07
1073	0.071
1073	0.072
1073	0.073
1074	0.074
1074	0.075
1075	0.075
1075	0.076
1076	0.076
1076	0.077
1076	0.077
1077	0.078
1077	0.079
1078	0.081
1078	0.082
1078	0.084
1079	0.086
1079	0.089
1080	0.091
1080	0.094
1080	0.096
1081	0.099
1081	0.102
1082	0.105
1082	0.107
1083	0.11
1083	0.113
1083	0.116
1084	0.119
1084	0.123
1085	0.127
1085	0.13
1085	0.133
1086	0.137
1086	0.14
1087	0.144
1087	0.148
1088	0.151
1088	0.155
1088	0.16
1089	0.165
1089	0.17
1090	0.176
1090	0.183
1090	0.19
1091	0.197
1091	0.207
1092	0.217
1092	0.227
1092	0.237
1093	0.247
1093	0.26
1094	0.273
1094	0.286
1095	0.3
1095	0.316
1095	0.335
1096	0.354
1096	0.375
1097	0.4
1097	0.426
1097	0.456
1098	0.488
1098	0.527
1099	0.569
1099	0.621
1100	0.681
1100	0.759
1100	0.854
1101	0.995
1101	1.209
1102	1.763
1102	-0
1102	-0
1103	-0
1103	-0
1104	-0
1104	-0
1104	-0
1105	-0
1105	-0
1106	-0
1106	-0
1107	-0
1107	-0
1107	-0
1108	-0
1108	-0
1109	-0
1109	-0
1109	-0
1110	-0
1110	-0
1111	-0
1111	-0
