Data from 15c-2-4a_Absorbance__2119__02119.txt Node

Date: Thu Jan 25 11:14:48 CET 2024
User: Marek
Spectrometer: MAYP115816
Trigger mode: 0
Integration Time (sec): 2.000000E-1
Scans to average: 10
Electric dark correction enabled: true
Nonlinearity correction enabled: true
Boxcar width: 5
XAxis mode: Wavelengths
Number of Pixels in Spectrum: 2068
>>>>>Begin Spectral Data<<<<<
199	-2.19
199	-2.02
200	-1.866
200	-1.743
201	-1.665
201	-1.608
202	-1.524
202	-1.463
203	-1.41
203	-1.364
204	-1.337
204	-1.309
205	-1.288
205	-1.276
205	-1.27
206	-1.266
206	-1.262
207	-1.263
207	-1.259
208	-1.254
208	-1.251
209	-1.246
209	-1.243
210	-1.241
210	-1.238
211	-1.237
211	-1.235
212	-1.232
212	-1.229
213	-1.228
213	-1.228
213	-1.228
214	-1.227
214	-1.226
215	-1.224
215	-1.222
216	-1.219
216	-1.218
217	-1.216
217	-1.213
218	-1.211
218	-1.209
219	-1.206
219	-1.204
220	-1.204
220	-1.2
221	-1.197
221	-1.194
221	-1.191
222	-1.188
222	-1.187
223	-1.183
223	-1.177
224	-1.17
224	-1.16
225	-1.151
225	-1.143
226	-1.131
226	-1.119
227	-1.104
227	-1.09
228	-1.07
228	-1.051
229	-1.029
229	-1.005
229	-0.978
230	-0.948
230	-0.917
231	-0.882
231	-0.842
232	-0.801
232	-0.756
233	-0.708
233	-0.66
234	-0.611
234	-0.56
235	-0.509
235	-0.459
236	-0.408
236	-0.36
236	-0.313
237	-0.267
237	-0.224
238	-0.182
238	-0.143
239	-0.105
239	-0.07
240	-0.037
240	-0.006
241	0.023
241	0.05
242	0.075
242	0.098
243	0.12
243	0.14
243	0.158
244	0.176
244	0.191
245	0.205
245	0.219
246	0.232
246	0.243
247	0.254
247	0.264
248	0.274
248	0.283
249	0.291
249	0.298
250	0.306
250	0.313
250	0.319
251	0.325
251	0.33
252	0.336
252	0.341
253	0.346
253	0.35
254	0.354
254	0.358
255	0.362
255	0.365
256	0.368
256	0.371
257	0.374
257	0.377
258	0.379
258	0.381
258	0.382
259	0.384
259	0.386
260	0.387
260	0.388
261	0.389
261	0.39
262	0.39
262	0.391
263	0.392
263	0.392
264	0.393
264	0.393
265	0.393
265	0.393
265	0.393
266	0.393
266	0.393
267	0.392
267	0.392
268	0.391
268	0.39
269	0.39
269	0.389
270	0.388
270	0.387
271	0.386
271	0.384
272	0.383
272	0.382
272	0.381
273	0.379
273	0.378
274	0.377
274	0.375
275	0.373
275	0.372
276	0.37
276	0.368
277	0.366
277	0.364
278	0.362
278	0.36
278	0.358
279	0.356
279	0.355
280	0.354
280	0.352
281	0.351
281	0.35
282	0.349
282	0.348
283	0.348
283	0.347
284	0.346
284	0.345
285	0.344
285	0.342
285	0.341
286	0.339
286	0.338
287	0.336
287	0.335
288	0.334
288	0.332
289	0.331
289	0.33
290	0.329
290	0.328
291	0.327
291	0.326
292	0.324
292	0.323
292	0.322
293	0.321
293	0.32
294	0.319
294	0.318
295	0.317
295	0.316
296	0.316
296	0.315
297	0.314
297	0.313
298	0.312
298	0.311
298	0.31
299	0.31
299	0.309
300	0.308
300	0.307
301	0.306
301	0.305
302	0.304
302	0.303
303	0.302
303	0.302
304	0.301
304	0.3
305	0.299
305	0.298
305	0.297
306	0.297
306	0.296
307	0.295
307	0.294
308	0.294
308	0.293
309	0.292
309	0.291
310	0.29
310	0.289
311	0.288
311	0.287
311	0.287
312	0.285
312	0.285
313	0.284
313	0.283
314	0.282
314	0.281
315	0.28
315	0.279
316	0.278
316	0.277
317	0.276
317	0.275
318	0.274
318	0.273
318	0.272
319	0.271
319	0.27
320	0.269
320	0.268
321	0.267
321	0.266
322	0.265
322	0.264
323	0.263
323	0.262
324	0.261
324	0.261
324	0.26
325	0.259
325	0.258
326	0.257
326	0.257
327	0.256
327	0.255
328	0.254
328	0.253
329	0.252
329	0.251
330	0.25
330	0.25
330	0.249
331	0.248
331	0.247
332	0.246
332	0.245
333	0.244
333	0.243
334	0.243
334	0.242
335	0.241
335	0.24
336	0.239
336	0.238
336	0.237
337	0.237
337	0.236
338	0.235
338	0.234
339	0.234
339	0.233
340	0.232
340	0.232
341	0.231
341	0.23
342	0.23
342	0.229
342	0.228
343	0.228
343	0.227
344	0.226
344	0.225
345	0.224
345	0.224
346	0.223
346	0.222
347	0.221
347	0.22
348	0.22
348	0.219
348	0.218
349	0.217
349	0.217
350	0.216
350	0.215
351	0.214
351	0.214
352	0.213
352	0.212
353	0.211
353	0.21
354	0.209
354	0.208
354	0.207
355	0.206
355	0.205
356	0.204
356	0.203
357	0.202
357	0.202
358	0.202
358	0.203
359	0.203
359	0.204
360	0.204
360	0.205
360	0.206
361	0.206
361	0.207
362	0.207
362	0.207
363	0.207
363	0.207
364	0.206
364	0.205
365	0.205
365	0.204
366	0.204
366	0.203
366	0.203
367	0.202
367	0.202
368	0.202
368	0.201
369	0.201
369	0.2
370	0.2
370	0.199
371	0.199
371	0.198
372	0.198
372	0.197
372	0.197
373	0.197
373	0.196
374	0.196
374	0.196
375	0.196
375	0.196
376	0.196
376	0.196
377	0.196
377	0.196
378	0.196
378	0.196
378	0.196
379	0.196
379	0.196
380	0.197
380	0.196
381	0.196
381	0.196
382	0.196
382	0.195
383	0.195
383	0.194
383	0.193
384	0.193
384	0.192
385	0.192
385	0.192
386	0.192
386	0.192
387	0.192
387	0.192
388	0.191
388	0.191
389	0.191
389	0.191
389	0.191
390	0.191
390	0.191
391	0.191
391	0.191
392	0.191
392	0.191
393	0.191
393	0.191
394	0.191
394	0.19
394	0.19
395	0.19
395	0.189
396	0.189
396	0.189
397	0.189
397	0.189
398	0.189
398	0.189
399	0.188
399	0.188
400	0.188
400	0.187
400	0.187
401	0.186
401	0.185
402	0.184
402	0.183
403	0.183
403	0.183
404	0.183
404	0.182
405	0.182
405	0.182
405	0.181
406	0.181
406	0.18
407	0.18
407	0.18
408	0.179
408	0.179
409	0.178
409	0.178
410	0.177
410	0.177
411	0.177
411	0.177
411	0.177
412	0.176
412	0.176
413	0.176
413	0.176
414	0.175
414	0.175
415	0.175
415	0.174
416	0.174
416	0.173
416	0.172
417	0.172
417	0.172
418	0.172
418	0.172
419	0.172
419	0.172
420	0.173
420	0.174
421	0.174
421	0.174
421	0.174
422	0.174
422	0.174
423	0.175
423	0.174
424	0.174
424	0.173
425	0.172
425	0.171
426	0.17
426	0.17
427	0.17
427	0.17
427	0.17
428	0.171
428	0.171
429	0.172
429	0.172
430	0.172
430	0.172
431	0.172
431	0.172
432	0.171
432	0.171
432	0.17
433	0.168
433	0.167
434	0.166
434	0.166
435	0.166
435	0.166
436	0.165
436	0.166
437	0.166
437	0.166
437	0.166
438	0.166
438	0.166
439	0.165
439	0.165
440	0.164
440	0.164
441	0.164
441	0.164
442	0.164
442	0.164
442	0.165
443	0.165
443	0.165
444	0.165
444	0.165
445	0.166
445	0.166
446	0.166
446	0.166
447	0.165
447	0.165
447	0.165
448	0.165
448	0.164
449	0.164
449	0.164
450	0.164
450	0.163
451	0.163
451	0.162
452	0.162
452	0.161
452	0.16
453	0.16
453	0.16
454	0.159
454	0.159
455	0.158
455	0.158
456	0.158
456	0.158
457	0.157
457	0.157
458	0.158
458	0.157
458	0.158
459	0.158
459	0.158
460	0.157
460	0.156
461	0.156
461	0.155
462	0.155
462	0.155
463	0.155
463	0.156
463	0.156
464	0.157
464	0.157
465	0.157
465	0.157
466	0.157
466	0.158
467	0.158
467	0.157
467	0.156
468	0.154
468	0.153
469	0.15
469	0.149
470	0.148
470	0.147
471	0.147
471	0.147
472	0.147
472	0.147
472	0.147
473	0.148
473	0.15
474	0.151
474	0.153
475	0.154
475	0.154
476	0.155
476	0.155
477	0.156
477	0.156
477	0.157
478	0.157
478	0.158
479	0.158
479	0.158
480	0.159
480	0.16
481	0.161
481	0.162
482	0.163
482	0.164
482	0.166
483	0.168
483	0.171
484	0.175
484	0.178
485	0.18
485	0.182
486	0.183
486	0.184
487	0.185
487	0.185
487	0.185
488	0.184
488	0.182
489	0.18
489	0.178
490	0.176
490	0.175
491	0.175
491	0.175
492	0.176
492	0.177
492	0.177
493	0.178
493	0.179
494	0.181
494	0.184
495	0.186
495	0.188
496	0.189
496	0.19
496	0.191
497	0.192
497	0.193
498	0.194
498	0.194
499	0.195
499	0.195
500	0.196
500	0.197
501	0.199
501	0.2
501	0.202
502	0.204
502	0.206
503	0.208
503	0.209
504	0.21
504	0.211
505	0.211
505	0.212
506	0.212
506	0.213
506	0.213
507	0.213
507	0.213
508	0.214
508	0.214
509	0.215
509	0.216
510	0.216
510	0.216
511	0.216
511	0.217
511	0.217
512	0.218
512	0.218
513	0.217
513	0.215
514	0.214
514	0.213
515	0.212
515	0.213
515	0.212
516	0.212
516	0.212
517	0.211
517	0.211
518	0.21
518	0.209
519	0.207
519	0.205
520	0.202
520	0.199
520	0.196
521	0.193
521	0.191
522	0.19
522	0.189
523	0.19
523	0.192
524	0.195
524	0.198
524	0.202
525	0.206
525	0.209
526	0.212
526	0.215
527	0.217
527	0.219
528	0.221
528	0.222
529	0.223
529	0.223
529	0.222
530	0.222
530	0.222
531	0.221
531	0.222
532	0.221
532	0.22
533	0.22
533	0.22
533	0.22
534	0.219
534	0.218
535	0.217
535	0.217
536	0.216
536	0.215
537	0.215
537	0.214
538	0.213
538	0.211
538	0.209
539	0.209
539	0.208
540	0.207
540	0.205
541	0.204
541	0.202
542	0.199
542	0.198
542	0.196
543	0.195
543	0.193
544	0.191
544	0.19
545	0.188
545	0.188
546	0.187
546	0.187
547	0.185
547	0.183
547	0.18
548	0.178
548	0.175
549	0.173
549	0.171
550	0.168
550	0.166
551	0.163
551	0.16
551	0.158
552	0.157
552	0.155
553	0.154
553	0.154
554	0.153
554	0.151
555	0.149
555	0.146
556	0.143
556	0.139
556	0.136
557	0.132
557	0.13
558	0.127
558	0.125
559	0.123
559	0.121
560	0.121
560	0.119
560	0.119
561	0.119
561	0.119
562	0.119
562	0.118
563	0.116
563	0.114
564	0.111
564	0.108
564	0.105
565	0.103
565	0.102
566	0.1
566	0.098
567	0.098
567	0.098
568	0.098
568	0.1
568	0.101
569	0.103
569	0.105
570	0.106
570	0.106
571	0.107
571	0.108
572	0.108
572	0.108
573	0.108
573	0.108
573	0.107
574	0.106
574	0.105
575	0.104
575	0.105
576	0.106
576	0.106
577	0.105
577	0.103
577	0.102
578	0.101
578	0.1
579	0.101
579	0.102
580	0.101
580	0.099
581	0.096
581	0.094
581	0.092
582	0.092
582	0.092
583	0.093
583	0.092
584	0.09
584	0.086
585	0.085
585	0.084
585	0.083
586	0.083
586	0.082
587	0.081
587	0.078
588	0.075
588	0.072
589	0.07
589	0.068
590	0.067
590	0.065
590	0.065
591	0.066
591	0.065
592	0.065
592	0.064
593	0.064
593	0.064
594	0.064
594	0.063
594	0.062
595	0.062
595	0.061
596	0.06
596	0.06
597	0.062
597	0.063
598	0.064
598	0.066
598	0.066
599	0.067
599	0.067
600	0.066
600	0.065
601	0.064
601	0.063
602	0.06
602	0.059
602	0.057
603	0.055
603	0.055
604	0.055
604	0.056
605	0.057
605	0.058
606	0.059
606	0.059
606	0.058
607	0.058
607	0.058
608	0.057
608	0.056
609	0.055
609	0.054
610	0.053
610	0.051
610	0.051
611	0.051
611	0.052
612	0.052
612	0.054
613	0.055
613	0.057
614	0.058
614	0.057
614	0.058
615	0.058
615	0.057
616	0.057
616	0.056
617	0.055
617	0.054
618	0.052
618	0.051
618	0.05
619	0.049
619	0.049
620	0.05
620	0.051
621	0.051
621	0.051
622	0.052
622	0.053
622	0.053
623	0.053
623	0.054
624	0.055
624	0.055
625	0.055
625	0.056
626	0.056
626	0.056
626	0.056
627	0.057
627	0.057
628	0.058
628	0.059
629	0.059
629	0.059
630	0.059
630	0.058
630	0.058
631	0.058
631	0.059
632	0.058
632	0.058
633	0.059
633	0.059
634	0.06
634	0.062
634	0.064
635	0.066
635	0.067
636	0.069
636	0.07
637	0.072
637	0.073
638	0.074
638	0.075
638	0.077
639	0.077
639	0.078
640	0.079
640	0.08
641	0.082
641	0.084
642	0.086
642	0.088
642	0.09
643	0.093
643	0.095
644	0.097
644	0.1
645	0.102
645	0.104
646	0.106
646	0.109
646	0.113
647	0.116
647	0.12
648	0.123
648	0.126
649	0.129
649	0.133
650	0.136
650	0.139
650	0.142
651	0.145
651	0.147
652	0.149
652	0.151
653	0.154
653	0.162
653	0.179
654	0.146
654	0.12
655	0.126
655	0.129
656	0.131
656	0.134
657	0.136
657	0.138
657	0.14
658	0.138
658	0.126
659	0.157
659	0.2
660	0.202
660	0.204
661	0.205
661	0.207
661	0.209
662	0.212
662	0.216
663	0.219
663	0.222
664	0.225
664	0.228
665	0.231
665	0.233
665	0.236
666	0.239
666	0.242
667	0.244
667	0.247
668	0.249
668	0.252
669	0.255
669	0.258
669	0.263
670	0.267
670	0.271
671	0.275
671	0.277
672	0.28
672	0.282
672	0.284
673	0.286
673	0.288
674	0.29
674	0.291
675	0.291
675	0.291
676	0.293
676	0.295
676	0.297
677	0.299
677	0.301
678	0.303
678	0.304
679	0.305
679	0.307
680	0.308
680	0.31
680	0.311
681	0.311
681	0.312
682	0.313
682	0.314
683	0.315
683	0.318
684	0.32
684	0.321
684	0.321
685	0.32
685	0.321
686	0.321
686	0.321
687	0.32
687	0.319
687	0.318
688	0.317
688	0.315
689	0.314
689	0.315
690	0.315
690	0.315
691	0.315
691	0.315
691	0.316
692	0.316
692	0.315
693	0.315
693	0.315
694	0.315
694	0.314
695	0.313
695	0.315
695	0.316
696	0.315
696	0.314
697	0.313
697	0.312
698	0.311
698	0.309
698	0.306
699	0.304
699	0.302
700	0.298
700	0.295
701	0.293
701	0.291
702	0.289
702	0.287
702	0.286
703	0.284
703	0.282
704	0.28
704	0.279
705	0.278
705	0.277
705	0.275
706	0.274
706	0.273
707	0.272
707	0.27
708	0.269
708	0.267
709	0.266
709	0.264
709	0.261
710	0.258
710	0.255
711	0.252
711	0.25
712	0.247
712	0.245
713	0.243
713	0.241
713	0.238
714	0.236
714	0.233
715	0.231
715	0.229
716	0.226
716	0.224
716	0.222
717	0.219
717	0.217
718	0.214
718	0.21
719	0.208
719	0.205
720	0.203
720	0.2
720	0.196
721	0.192
721	0.188
722	0.184
722	0.18
723	0.177
723	0.175
723	0.172
724	0.17
724	0.167
725	0.164
725	0.162
726	0.16
726	0.158
727	0.156
727	0.154
727	0.152
728	0.149
728	0.147
729	0.146
729	0.145
730	0.144
730	0.142
730	0.14
731	0.139
731	0.137
732	0.136
732	0.134
733	0.132
733	0.13
734	0.127
734	0.124
734	0.121
735	0.119
735	0.115
736	0.112
736	0.109
737	0.106
737	0.103
737	0.101
738	0.098
738	0.095
739	0.092
739	0.09
740	0.088
740	0.086
741	0.085
741	0.083
741	0.08
742	0.075
742	0.071
743	0.068
743	0.065
744	0.062
744	0.059
744	0.057
745	0.054
745	0.051
746	0.049
746	0.047
747	0.045
747	0.045
748	0.044
748	0.044
748	0.043
749	0.041
749	0.04
750	0.039
750	0.038
751	0.037
751	0.037
751	0.037
752	0.036
752	0.035
753	0.034
753	0.033
754	0.032
754	0.031
754	0.031
755	0.031
755	0.032
756	0.032
756	0.03
757	0.028
757	0.027
758	0.026
758	0.024
758	0.023
759	0.022
759	0.019
760	0.016
760	0.012
761	0.009
761	0.007
761	0.006
762	0.004
762	0.003
763	0.002
763	0
764	-0.002
764	-0.004
764	-0.006
765	-0.008
765	-0.009
766	-0.011
766	-0.012
767	-0.013
767	-0.015
768	-0.019
768	-0.021
768	-0.023
769	-0.023
769	-0.024
770	-0.025
770	-0.026
771	-0.027
771	-0.029
771	-0.032
772	-0.033
772	-0.035
773	-0.037
773	-0.039
774	-0.043
774	-0.046
775	-0.049
775	-0.053
775	-0.057
776	-0.061
776	-0.065
777	-0.069
777	-0.072
778	-0.076
778	-0.081
778	-0.085
779	-0.087
779	-0.09
780	-0.094
780	-0.098
781	-0.103
781	-0.108
781	-0.112
782	-0.117
782	-0.122
783	-0.127
783	-0.13
784	-0.133
784	-0.136
784	-0.139
785	-0.141
785	-0.143
786	-0.144
786	-0.142
787	-0.138
787	-0.134
788	-0.133
788	-0.134
788	-0.136
789	-0.138
789	-0.138
790	-0.136
790	-0.135
791	-0.135
791	-0.137
791	-0.139
792	-0.134
792	-0.123
793	-0.116
793	-0.111
794	-0.109
794	-0.11
794	-0.113
795	-0.115
795	-0.115
796	-0.115
796	-0.118
797	-0.126
797	-0.137
797	-0.144
798	-0.15
798	-0.154
799	-0.155
799	-0.155
800	-0.155
800	-0.157
801	-0.16
801	-0.161
801	-0.161
802	-0.162
802	-0.163
803	-0.164
803	-0.163
804	-0.162
804	-0.156
804	-0.149
805	-0.145
805	-0.143
806	-0.14
806	-0.139
807	-0.138
807	-0.137
807	-0.136
808	-0.136
808	-0.136
809	-0.14
809	-0.145
810	-0.148
810	-0.151
810	-0.154
811	-0.156
811	-0.157
812	-0.153
812	-0.15
813	-0.151
813	-0.152
813	-0.154
814	-0.155
814	-0.156
815	-0.154
815	-0.152
816	-0.151
816	-0.152
817	-0.157
817	-0.161
817	-0.162
818	-0.161
818	-0.158
819	-0.153
819	-0.15
820	-0.151
820	-0.153
820	-0.154
821	-0.154
821	-0.153
822	-0.152
822	-0.15
823	-0.148
823	-0.148
823	-0.149
824	-0.148
824	-0.144
825	-0.137
825	-0.129
826	-0.121
826	-0.115
826	-0.108
827	-0.101
827	-0.095
828	-0.09
828	-0.085
829	-0.08
829	-0.075
829	-0.071
830	-0.068
830	-0.065
831	-0.061
831	-0.057
832	-0.053
832	-0.05
832	-0.047
833	-0.044
833	-0.043
834	-0.041
834	-0.04
835	-0.039
835	-0.039
835	-0.039
836	-0.039
836	-0.039
837	-0.039
837	-0.038
838	-0.038
838	-0.038
839	-0.037
839	-0.037
839	-0.036
840	-0.036
840	-0.034
841	-0.033
841	-0.032
842	-0.031
842	-0.03
842	-0.028
843	-0.027
843	-0.026
844	-0.025
844	-0.024
845	-0.023
845	-0.022
845	-0.021
846	-0.021
846	-0.02
847	-0.019
847	-0.018
848	-0.017
848	-0.016
848	-0.015
849	-0.014
849	-0.013
850	-0.012
850	-0.012
851	-0.011
851	-0.011
851	-0.011
852	-0.011
852	-0.01
853	-0.01
853	-0.011
854	-0.011
854	-0.011
854	-0.011
855	-0.01
855	-0.01
856	-0.01
856	-0.01
857	-0.01
857	-0.01
857	-0.009
858	-0.009
858	-0.009
859	-0.009
859	-0.008
860	-0.007
860	-0.007
860	-0.006
861	-0.005
861	-0.005
862	-0.005
862	-0.005
863	-0.005
863	-0.005
863	-0.005
864	-0.004
864	-0.004
865	-0.004
865	-0.004
866	-0.005
866	-0.004
866	-0.004
867	-0.003
867	-0.003
868	-0.003
868	-0.003
869	-0.002
869	-0.002
869	-0.002
870	-0.002
870	-0.002
871	-0.002
871	-0.002
872	-0.003
872	-0.003
872	-0.003
873	-0.003
873	-0.003
874	-0.004
874	-0.004
875	-0.005
875	-0.005
875	-0.006
876	-0.006
876	-0.006
877	-0.006
877	-0.006
878	-0.005
878	-0.005
878	-0.004
879	-0.003
879	-0.003
880	-0.002
880	-0.001
881	0
881	0.001
881	0.002
882	0.002
882	0.003
883	0.004
883	0.005
884	0.005
884	0.006
884	0.006
885	0.006
885	0.007
886	0.007
886	0.007
887	0.007
887	0.006
887	0.006
888	0.006
888	0.006
889	0.006
889	0.006
890	0.007
890	0.008
890	0.008
891	0.009
891	0.01
892	0.011
892	0.012
893	0.013
893	0.014
893	0.015
894	0.015
894	0.016
895	0.016
895	0.017
895	0.017
896	0.017
896	0.017
897	0.016
897	0.016
898	0.015
898	0.014
898	0.013
899	0.012
899	0.011
900	0.01
900	0.008
901	0.007
901	0.006
901	0.005
902	0.004
902	0.004
903	0.003
903	0.002
904	0.002
904	0.002
904	0.003
905	0.003
905	0.004
906	0.004
906	0.005
907	0.005
907	0.005
907	0.006
908	0.005
908	0.005
909	0.005
909	0.004
910	0.004
910	0.003
910	0.003
911	0.002
911	0.002
912	0.003
912	0.003
913	0.004
913	0.005
913	0.006
914	0.008
914	0.009
915	0.01
915	0.011
916	0.012
916	0.013
916	0.013
917	0.013
917	0.014
918	0.014
918	0.014
918	0.013
919	0.013
919	0.013
920	0.012
920	0.012
921	0.011
921	0.011
921	0.01
922	0.009
922	0.009
923	0.008
923	0.007
924	0.006
924	0.005
924	0.004
925	0.004
925	0.003
926	0.003
926	0.003
927	0.003
927	0.003
927	0.004
928	0.004
928	0.005
929	0.006
929	0.006
930	0.007
930	0.007
930	0.008
931	0.008
931	0.009
932	0.009
932	0.01
933	0.01
933	0.011
933	0.011
934	0.011
934	0.012
935	0.012
935	0.012
935	0.012
936	0.012
936	0.012
937	0.012
937	0.012
938	0.012
938	0.012
938	0.011
939	0.011
939	0.011
940	0.011
940	0.011
941	0.012
941	0.012
941	0.013
942	0.014
942	0.015
943	0.016
943	0.016
944	0.017
944	0.018
944	0.019
945	0.02
945	0.02
946	0.021
946	0.022
946	0.022
947	0.022
947	0.022
948	0.022
948	0.021
949	0.02
949	0.019
949	0.018
950	0.018
950	0.017
951	0.016
951	0.015
952	0.014
952	0.014
952	0.013
953	0.013
953	0.014
954	0.014
954	0.014
955	0.014
955	0.015
955	0.015
956	0.016
956	0.017
957	0.017
957	0.018
957	0.018
958	0.018
958	0.018
959	0.018
959	0.018
960	0.018
960	0.017
960	0.017
961	0.017
961	0.017
962	0.017
962	0.017
963	0.017
963	0.017
963	0.017
964	0.016
964	0.016
965	0.016
965	0.016
966	0.016
966	0.015
966	0.015
967	0.014
967	0.014
968	0.013
968	0.013
968	0.013
969	0.013
969	0.012
970	0.012
970	0.012
971	0.013
971	0.013
971	0.013
972	0.014
972	0.015
973	0.016
973	0.016
974	0.017
974	0.017
974	0.017
975	0.017
975	0.017
976	0.017
976	0.016
976	0.015
977	0.014
977	0.013
978	0.012
978	0.011
979	0.011
979	0.01
979	0.01
980	0.009
980	0.009
981	0.008
981	0.008
982	0.008
982	0.008
982	0.008
983	0.008
983	0.008
984	0.008
984	0.008
984	0.007
985	0.007
985	0.006
986	0.006
986	0.005
987	0.005
987	0.004
987	0.004
988	0.004
988	0.005
989	0.005
989	0.005
990	0.006
990	0.007
990	0.008
991	0.008
991	0.009
992	0.01
992	0.01
992	0.01
993	0.01
993	0.01
994	0.009
994	0.009
995	0.008
995	0.008
995	0.007
996	0.007
996	0.006
997	0.005
997	0.005
997	0.004
998	0.004
998	0.004
999	0.004
999	0.004
1000	0.003
1000	0.004
1000	0.004
1001	0.004
1001	0.004
1002	0.004
1002	0.005
1003	0.005
1003	0.005
1003	0.004
1004	0.004
1004	0.004
1005	0.004
1005	0.003
1005	0.003
1006	0.002
1006	0.002
1007	0.001
1007	0.001
1008	0.001
1008	0.001
1008	0.001
1009	0.001
1009	0.001
1010	0.002
1010	0.002
1010	0.003
1011	0.004
1011	0.004
1012	0.005
1012	0.005
1013	0.006
1013	0.006
1013	0.006
1014	0.006
1014	0.006
1015	0.006
1015	0.005
1016	0.005
1016	0.005
1016	0.005
1017	0.005
1017	0.005
1018	0.006
1018	0.007
1018	0.008
1019	0.009
1019	0.009
1020	0.01
1020	0.01
1021	0.011
1021	0.011
1021	0.012
1022	0.012
1022	0.012
1023	0.012
1023	0.012
1023	0.012
1024	0.012
1024	0.012
1025	0.012
1025	0.013
1026	0.013
1026	0.014
1026	0.014
1027	0.014
1027	0.015
1028	0.015
1028	0.015
1028	0.016
1029	0.016
1029	0.016
1030	0.015
1030	0.015
1031	0.014
1031	0.014
1031	0.014
1032	0.013
1032	0.012
1033	0.011
1033	0.011
1033	0.01
1034	0.009
1034	0.009
1035	0.009
1035	0.008
1036	0.008
1036	0.008
1036	0.008
1037	0.009
1037	0.009
1038	0.009
1038	0.01
1039	0.01
1039	0.011
1039	0.012
1040	0.012
1040	0.013
1041	0.013
1041	0.014
1041	0.015
1042	0.015
1042	0.016
1043	0.017
1043	0.018
1044	0.019
1044	0.02
1044	0.022
1045	0.023
1045	0.024
1046	0.026
1046	0.027
1046	0.029
1047	0.03
1047	0.032
1048	0.033
1048	0.034
1049	0.035
1049	0.035
1049	0.036
1050	0.036
1050	0.035
1051	0.035
1051	0.035
1051	0.034
1052	0.033
1052	0.032
1053	0.032
1053	0.031
1053	0.031
1054	0.03
1054	0.03
1055	0.03
1055	0.029
1056	0.029
1056	0.028
1056	0.027
1057	0.026
1057	0.026
1058	0.026
1058	0.026
1058	0.027
1059	0.026
1059	0.027
1060	0.027
1060	0.028
1061	0.029
1061	0.03
1061	0.031
1062	0.031
1062	0.032
1063	0.033
1063	0.033
1063	0.034
1064	0.036
1064	0.037
1065	0.038
1065	0.04
1066	0.042
1066	0.044
1066	0.046
1067	0.048
1067	0.05
1068	0.053
1068	0.054
1068	0.055
1069	0.057
1069	0.058
1070	0.059
1070	0.059
1071	0.06
1071	0.061
1071	0.063
1072	0.064
1072	0.065
1073	0.067
1073	0.068
1073	0.07
1074	0.072
1074	0.073
1075	0.074
1075	0.075
1076	0.075
1076	0.077
1076	0.077
1077	0.078
1077	0.079
1078	0.081
1078	0.083
1078	0.085
1079	0.087
1079	0.091
1080	0.092
1080	0.096
1080	0.098
1081	0.101
1081	0.104
1082	0.106
1082	0.108
1083	0.111
1083	0.114
1083	0.117
1084	0.12
1084	0.124
1085	0.128
1085	0.132
1085	0.135
1086	0.139
1086	0.141
1087	0.146
1087	0.151
1088	0.154
1088	0.159
1088	0.163
1089	0.168
1089	0.173
1090	0.178
1090	0.185
1090	0.191
1091	0.2
1091	0.209
1092	0.217
1092	0.228
1092	0.237
1093	0.248
1093	0.26
1094	0.273
1094	0.287
1095	0.301
1095	0.316
1095	0.336
1096	0.354
1096	0.377
1097	0.402
1097	0.429
1097	0.459
1098	0.492
1098	0.529
1099	0.575
1099	0.627
1100	0.695
1100	0.772
1100	0.871
1101	1.009
1101	1.227
1102	1.803
1102	-0
1102	-0
1103	-0
1103	-0
1104	-0
1104	-0
1104	-0
1105	-0
1105	-0
1106	-0
1106	-0
1107	-0
1107	-0
1107	-0
1108	-0
1108	-0
1109	-0
1109	-0
1109	-0
1110	-0
1110	-0
1111	-0
1111	-0
