Data from 15c-2-4a_Absorbance__2566__02566.txt Node

Date: Thu Jan 25 11:29:42 CET 2024
User: Marek
Spectrometer: MAYP115816
Trigger mode: 0
Integration Time (sec): 2.000000E-1
Scans to average: 10
Electric dark correction enabled: true
Nonlinearity correction enabled: true
Boxcar width: 5
XAxis mode: Wavelengths
Number of Pixels in Spectrum: 2068
>>>>>Begin Spectral Data<<<<<
199	-2.196
199	-2.026
200	-1.872
200	-1.749
201	-1.671
201	-1.614
202	-1.531
202	-1.469
203	-1.417
203	-1.37
204	-1.344
204	-1.316
205	-1.295
205	-1.283
205	-1.277
206	-1.272
206	-1.269
207	-1.269
207	-1.266
208	-1.261
208	-1.257
209	-1.253
209	-1.25
210	-1.248
210	-1.245
211	-1.244
211	-1.242
212	-1.239
212	-1.237
213	-1.235
213	-1.235
213	-1.235
214	-1.234
214	-1.233
215	-1.231
215	-1.23
216	-1.227
216	-1.226
217	-1.224
217	-1.22
218	-1.219
218	-1.216
219	-1.214
219	-1.212
220	-1.212
220	-1.207
221	-1.204
221	-1.202
221	-1.198
222	-1.196
222	-1.195
223	-1.19
223	-1.184
224	-1.176
224	-1.167
225	-1.158
225	-1.149
226	-1.138
226	-1.126
227	-1.111
227	-1.097
228	-1.077
228	-1.058
229	-1.036
229	-1.012
229	-0.985
230	-0.955
230	-0.924
231	-0.888
231	-0.848
232	-0.806
232	-0.761
233	-0.714
233	-0.664
234	-0.615
234	-0.564
235	-0.513
235	-0.462
236	-0.412
236	-0.364
236	-0.316
237	-0.27
237	-0.226
238	-0.184
238	-0.145
239	-0.107
239	-0.071
240	-0.038
240	-0.006
241	0.023
241	0.051
242	0.076
242	0.099
243	0.121
243	0.141
243	0.16
244	0.178
244	0.194
245	0.208
245	0.222
246	0.235
246	0.247
247	0.258
247	0.268
248	0.278
248	0.287
249	0.295
249	0.303
250	0.31
250	0.317
250	0.324
251	0.33
251	0.335
252	0.341
252	0.346
253	0.351
253	0.355
254	0.36
254	0.364
255	0.367
255	0.371
256	0.374
256	0.377
257	0.38
257	0.383
258	0.385
258	0.387
258	0.389
259	0.39
259	0.392
260	0.393
260	0.394
261	0.395
261	0.396
262	0.396
262	0.397
263	0.398
263	0.398
264	0.399
264	0.399
265	0.399
265	0.399
265	0.399
266	0.399
266	0.399
267	0.399
267	0.398
268	0.398
268	0.397
269	0.396
269	0.395
270	0.394
270	0.393
271	0.392
271	0.39
272	0.389
272	0.388
272	0.387
273	0.385
273	0.384
274	0.383
274	0.381
275	0.379
275	0.378
276	0.376
276	0.374
277	0.372
277	0.37
278	0.368
278	0.365
278	0.363
279	0.362
279	0.36
280	0.359
280	0.358
281	0.357
281	0.356
282	0.355
282	0.354
283	0.353
283	0.352
284	0.351
284	0.35
285	0.349
285	0.347
285	0.346
286	0.345
286	0.343
287	0.342
287	0.34
288	0.339
288	0.338
289	0.337
289	0.335
290	0.334
290	0.333
291	0.332
291	0.33
292	0.329
292	0.328
292	0.327
293	0.326
293	0.325
294	0.324
294	0.323
295	0.322
295	0.321
296	0.321
296	0.32
297	0.319
297	0.318
298	0.317
298	0.316
298	0.315
299	0.314
299	0.313
300	0.312
300	0.312
301	0.311
301	0.31
302	0.309
302	0.308
303	0.307
303	0.307
304	0.306
304	0.305
305	0.304
305	0.303
305	0.302
306	0.302
306	0.301
307	0.3
307	0.299
308	0.298
308	0.297
309	0.296
309	0.295
310	0.294
310	0.293
311	0.293
311	0.292
311	0.291
312	0.29
312	0.289
313	0.288
313	0.287
314	0.286
314	0.285
315	0.284
315	0.283
316	0.282
316	0.281
317	0.28
317	0.279
318	0.278
318	0.277
318	0.276
319	0.275
319	0.275
320	0.274
320	0.272
321	0.271
321	0.27
322	0.269
322	0.268
323	0.267
323	0.266
324	0.265
324	0.264
324	0.263
325	0.263
325	0.262
326	0.261
326	0.26
327	0.259
327	0.259
328	0.258
328	0.257
329	0.256
329	0.255
330	0.254
330	0.253
330	0.252
331	0.251
331	0.251
332	0.25
332	0.249
333	0.248
333	0.247
334	0.246
334	0.245
335	0.244
335	0.244
336	0.243
336	0.242
336	0.241
337	0.24
337	0.239
338	0.239
338	0.238
339	0.237
339	0.237
340	0.236
340	0.235
341	0.235
341	0.234
342	0.233
342	0.232
342	0.232
343	0.231
343	0.23
344	0.229
344	0.229
345	0.228
345	0.227
346	0.226
346	0.225
347	0.225
347	0.224
348	0.223
348	0.223
348	0.222
349	0.221
349	0.22
350	0.219
350	0.219
351	0.218
351	0.217
352	0.216
352	0.215
353	0.214
353	0.213
354	0.212
354	0.211
354	0.21
355	0.209
355	0.207
356	0.207
356	0.206
357	0.205
357	0.205
358	0.205
358	0.205
359	0.206
359	0.206
360	0.207
360	0.208
360	0.209
361	0.209
361	0.21
362	0.21
362	0.21
363	0.21
363	0.21
364	0.209
364	0.208
365	0.208
365	0.207
366	0.207
366	0.207
366	0.206
367	0.206
367	0.205
368	0.205
368	0.204
369	0.204
369	0.203
370	0.203
370	0.202
371	0.202
371	0.201
372	0.201
372	0.2
372	0.2
373	0.199
373	0.199
374	0.199
374	0.199
375	0.199
375	0.198
376	0.198
376	0.198
377	0.198
377	0.198
378	0.198
378	0.199
378	0.199
379	0.199
379	0.199
380	0.199
380	0.199
381	0.199
381	0.199
382	0.198
382	0.198
383	0.197
383	0.197
383	0.196
384	0.196
384	0.195
385	0.195
385	0.195
386	0.194
386	0.194
387	0.195
387	0.194
388	0.194
388	0.194
389	0.194
389	0.194
389	0.193
390	0.193
390	0.194
391	0.194
391	0.194
392	0.194
392	0.194
393	0.194
393	0.193
394	0.193
394	0.193
394	0.193
395	0.192
395	0.192
396	0.191
396	0.191
397	0.191
397	0.191
398	0.191
398	0.191
399	0.191
399	0.191
400	0.191
400	0.19
400	0.189
401	0.189
401	0.188
402	0.187
402	0.186
403	0.185
403	0.185
404	0.185
404	0.185
405	0.185
405	0.184
405	0.184
406	0.183
406	0.183
407	0.183
407	0.183
408	0.182
408	0.182
409	0.181
409	0.18
410	0.18
410	0.18
411	0.18
411	0.18
411	0.18
412	0.179
412	0.179
413	0.178
413	0.178
414	0.178
414	0.178
415	0.177
415	0.177
416	0.176
416	0.176
416	0.175
417	0.175
417	0.174
418	0.174
418	0.174
419	0.174
419	0.175
420	0.176
420	0.176
421	0.177
421	0.177
421	0.177
422	0.177
422	0.177
423	0.177
423	0.177
424	0.176
424	0.175
425	0.174
425	0.173
426	0.173
426	0.172
427	0.172
427	0.172
427	0.173
428	0.173
428	0.174
429	0.174
429	0.175
430	0.175
430	0.175
431	0.174
431	0.174
432	0.174
432	0.173
432	0.172
433	0.171
433	0.17
434	0.169
434	0.169
435	0.169
435	0.169
436	0.168
436	0.169
437	0.168
437	0.168
437	0.168
438	0.168
438	0.168
439	0.168
439	0.167
440	0.167
440	0.166
441	0.166
441	0.166
442	0.166
442	0.167
442	0.167
443	0.167
443	0.167
444	0.167
444	0.168
445	0.168
445	0.168
446	0.168
446	0.168
447	0.168
447	0.167
447	0.167
448	0.167
448	0.166
449	0.166
449	0.166
450	0.166
450	0.165
451	0.165
451	0.165
452	0.164
452	0.163
452	0.163
453	0.163
453	0.162
454	0.162
454	0.161
455	0.161
455	0.161
456	0.16
456	0.16
457	0.16
457	0.16
458	0.16
458	0.16
458	0.16
459	0.16
459	0.16
460	0.159
460	0.159
461	0.158
461	0.158
462	0.157
462	0.158
463	0.158
463	0.158
463	0.159
464	0.16
464	0.16
465	0.16
465	0.161
466	0.161
466	0.161
467	0.161
467	0.161
467	0.16
468	0.158
468	0.156
469	0.154
469	0.152
470	0.152
470	0.151
471	0.151
471	0.15
472	0.15
472	0.15
472	0.151
473	0.152
473	0.154
474	0.155
474	0.156
475	0.157
475	0.158
476	0.158
476	0.159
477	0.159
477	0.159
477	0.16
478	0.16
478	0.16
479	0.161
479	0.161
480	0.162
480	0.163
481	0.164
481	0.165
482	0.166
482	0.167
482	0.169
483	0.171
483	0.174
484	0.178
484	0.181
485	0.183
485	0.185
486	0.186
486	0.187
487	0.188
487	0.189
487	0.189
488	0.188
488	0.186
489	0.184
489	0.181
490	0.18
490	0.179
491	0.178
491	0.178
492	0.179
492	0.18
492	0.181
493	0.181
493	0.183
494	0.185
494	0.187
495	0.189
495	0.191
496	0.192
496	0.193
496	0.194
497	0.195
497	0.196
498	0.197
498	0.197
499	0.198
499	0.198
500	0.198
500	0.2
501	0.201
501	0.203
501	0.205
502	0.207
502	0.209
503	0.211
503	0.212
504	0.213
504	0.214
505	0.215
505	0.215
506	0.216
506	0.216
506	0.216
507	0.216
507	0.217
508	0.217
508	0.218
509	0.219
509	0.219
510	0.219
510	0.219
511	0.219
511	0.22
511	0.221
512	0.221
512	0.221
513	0.22
513	0.219
514	0.217
514	0.216
515	0.216
515	0.216
515	0.216
516	0.216
516	0.216
517	0.215
517	0.215
518	0.214
518	0.213
519	0.211
519	0.209
520	0.206
520	0.202
520	0.199
521	0.196
521	0.194
522	0.192
522	0.192
523	0.192
523	0.195
524	0.198
524	0.201
524	0.205
525	0.209
525	0.212
526	0.216
526	0.218
527	0.221
527	0.222
528	0.224
528	0.225
529	0.225
529	0.225
529	0.225
530	0.225
530	0.225
531	0.224
531	0.224
532	0.224
532	0.223
533	0.223
533	0.223
533	0.223
534	0.222
534	0.221
535	0.22
535	0.22
536	0.219
536	0.218
537	0.218
537	0.217
538	0.216
538	0.214
538	0.213
539	0.212
539	0.211
540	0.21
540	0.208
541	0.206
541	0.204
542	0.202
542	0.2
542	0.199
543	0.197
543	0.196
544	0.194
544	0.192
545	0.191
545	0.19
546	0.19
546	0.19
547	0.188
547	0.186
547	0.183
548	0.18
548	0.178
549	0.176
549	0.173
550	0.171
550	0.169
551	0.166
551	0.163
551	0.16
552	0.159
552	0.157
553	0.156
553	0.155
554	0.154
554	0.153
555	0.15
555	0.147
556	0.144
556	0.141
556	0.137
557	0.134
557	0.131
558	0.129
558	0.126
559	0.124
559	0.123
560	0.122
560	0.121
560	0.121
561	0.121
561	0.121
562	0.121
562	0.12
563	0.118
563	0.116
564	0.113
564	0.11
564	0.107
565	0.105
565	0.103
566	0.101
566	0.099
567	0.099
567	0.099
568	0.1
568	0.101
568	0.103
569	0.105
569	0.107
570	0.108
570	0.108
571	0.109
571	0.11
572	0.11
572	0.11
573	0.109
573	0.109
573	0.108
574	0.107
574	0.106
575	0.105
575	0.106
576	0.107
576	0.107
577	0.106
577	0.104
577	0.103
578	0.102
578	0.101
579	0.102
579	0.103
580	0.102
580	0.1
581	0.097
581	0.095
581	0.094
582	0.093
582	0.093
583	0.093
583	0.093
584	0.091
584	0.087
585	0.085
585	0.084
585	0.084
586	0.083
586	0.083
587	0.081
587	0.079
588	0.076
588	0.073
589	0.07
589	0.068
590	0.067
590	0.065
590	0.065
591	0.065
591	0.065
592	0.065
592	0.065
593	0.065
593	0.065
594	0.064
594	0.064
594	0.064
595	0.063
595	0.062
596	0.06
596	0.06
597	0.062
597	0.064
598	0.065
598	0.066
598	0.067
599	0.067
599	0.067
600	0.066
600	0.065
601	0.064
601	0.063
602	0.061
602	0.059
602	0.058
603	0.056
603	0.056
604	0.056
604	0.057
605	0.058
605	0.059
606	0.06
606	0.06
606	0.059
607	0.059
607	0.059
608	0.059
608	0.057
609	0.056
609	0.055
610	0.054
610	0.053
610	0.052
611	0.052
611	0.053
612	0.053
612	0.055
613	0.056
613	0.058
614	0.058
614	0.058
614	0.059
615	0.059
615	0.058
616	0.058
616	0.057
617	0.056
617	0.055
618	0.053
618	0.052
618	0.05
619	0.05
619	0.049
620	0.051
620	0.051
621	0.052
621	0.053
622	0.053
622	0.054
622	0.055
623	0.055
623	0.056
624	0.057
624	0.057
625	0.057
625	0.057
626	0.057
626	0.057
626	0.057
627	0.058
627	0.058
628	0.059
628	0.059
629	0.059
629	0.06
630	0.06
630	0.059
630	0.059
631	0.06
631	0.06
632	0.06
632	0.06
633	0.061
633	0.061
634	0.062
634	0.064
634	0.066
635	0.068
635	0.069
636	0.071
636	0.072
637	0.073
637	0.074
638	0.075
638	0.076
638	0.077
639	0.078
639	0.079
640	0.079
640	0.081
641	0.082
641	0.084
642	0.086
642	0.089
642	0.091
643	0.093
643	0.096
644	0.098
644	0.101
645	0.103
645	0.106
646	0.108
646	0.111
646	0.114
647	0.118
647	0.122
648	0.125
648	0.128
649	0.13
649	0.134
650	0.137
650	0.14
650	0.143
651	0.146
651	0.148
652	0.15
652	0.152
653	0.155
653	0.163
653	0.179
654	0.145
654	0.12
655	0.127
655	0.13
656	0.132
656	0.134
657	0.137
657	0.139
657	0.141
658	0.139
658	0.128
659	0.16
659	0.204
660	0.204
660	0.206
661	0.208
661	0.21
661	0.212
662	0.216
662	0.219
663	0.222
663	0.225
664	0.229
664	0.231
665	0.234
665	0.237
665	0.24
666	0.243
666	0.246
667	0.248
667	0.252
668	0.255
668	0.257
669	0.26
669	0.264
669	0.268
670	0.273
670	0.276
671	0.28
671	0.282
672	0.284
672	0.286
672	0.288
673	0.29
673	0.292
674	0.293
674	0.294
675	0.293
675	0.294
676	0.295
676	0.297
676	0.298
677	0.3
677	0.302
678	0.304
678	0.305
679	0.307
679	0.308
680	0.31
680	0.311
680	0.312
681	0.312
681	0.313
682	0.314
682	0.315
683	0.317
683	0.32
684	0.322
684	0.323
684	0.323
685	0.322
685	0.323
686	0.323
686	0.323
687	0.322
687	0.321
687	0.32
688	0.319
688	0.317
689	0.317
689	0.317
690	0.318
690	0.319
691	0.319
691	0.32
691	0.32
692	0.32
692	0.32
693	0.319
693	0.32
694	0.319
694	0.318
695	0.317
695	0.318
695	0.318
696	0.318
696	0.316
697	0.315
697	0.314
698	0.313
698	0.311
698	0.308
699	0.307
699	0.304
700	0.3
700	0.297
701	0.296
701	0.294
702	0.292
702	0.291
702	0.289
703	0.287
703	0.286
704	0.284
704	0.283
705	0.282
705	0.28
705	0.279
706	0.278
706	0.277
707	0.276
707	0.274
708	0.273
708	0.272
709	0.271
709	0.269
709	0.266
710	0.262
710	0.259
711	0.256
711	0.253
712	0.25
712	0.247
713	0.245
713	0.242
713	0.24
714	0.237
714	0.234
715	0.232
715	0.229
716	0.227
716	0.225
716	0.222
717	0.22
717	0.218
718	0.215
718	0.212
719	0.209
719	0.207
720	0.204
720	0.201
720	0.198
721	0.194
721	0.19
722	0.186
722	0.182
723	0.178
723	0.176
723	0.173
724	0.17
724	0.168
725	0.165
725	0.163
726	0.161
726	0.159
727	0.157
727	0.155
727	0.154
728	0.152
728	0.15
729	0.149
729	0.148
730	0.146
730	0.144
730	0.142
731	0.141
731	0.139
732	0.138
732	0.136
733	0.134
733	0.131
734	0.128
734	0.124
734	0.121
735	0.118
735	0.115
736	0.111
736	0.108
737	0.105
737	0.103
737	0.1
738	0.097
738	0.094
739	0.092
739	0.09
740	0.087
740	0.085
741	0.083
741	0.081
741	0.078
742	0.074
742	0.069
743	0.066
743	0.063
744	0.06
744	0.057
744	0.054
745	0.052
745	0.049
746	0.047
746	0.046
747	0.045
747	0.044
748	0.044
748	0.043
748	0.043
749	0.042
749	0.041
750	0.04
750	0.039
751	0.038
751	0.038
751	0.037
752	0.037
752	0.036
753	0.035
753	0.034
754	0.033
754	0.032
754	0.032
755	0.032
755	0.032
756	0.032
756	0.03
757	0.028
757	0.027
758	0.025
758	0.023
758	0.022
759	0.02
759	0.017
760	0.013
760	0.009
761	0.006
761	0.005
761	0.003
762	0.001
762	0
763	-0
763	-0.002
764	-0.004
764	-0.005
764	-0.007
765	-0.009
765	-0.01
766	-0.011
766	-0.012
767	-0.013
767	-0.015
768	-0.019
768	-0.021
768	-0.023
769	-0.023
769	-0.024
770	-0.025
770	-0.026
771	-0.028
771	-0.031
771	-0.033
772	-0.035
772	-0.036
773	-0.038
773	-0.041
774	-0.044
774	-0.048
775	-0.051
775	-0.055
775	-0.059
776	-0.063
776	-0.067
777	-0.071
777	-0.074
778	-0.078
778	-0.083
778	-0.087
779	-0.089
779	-0.092
780	-0.095
780	-0.1
781	-0.104
781	-0.109
781	-0.113
782	-0.118
782	-0.123
783	-0.128
783	-0.131
784	-0.134
784	-0.137
784	-0.139
785	-0.141
785	-0.143
786	-0.144
786	-0.142
787	-0.137
787	-0.134
788	-0.133
788	-0.134
788	-0.136
789	-0.138
789	-0.138
790	-0.136
790	-0.134
791	-0.135
791	-0.137
791	-0.139
792	-0.134
792	-0.123
793	-0.116
793	-0.111
794	-0.109
794	-0.11
794	-0.113
795	-0.115
795	-0.115
796	-0.115
796	-0.117
797	-0.126
797	-0.137
797	-0.144
798	-0.15
798	-0.154
799	-0.155
799	-0.155
800	-0.155
800	-0.157
801	-0.16
801	-0.161
801	-0.161
802	-0.162
802	-0.163
803	-0.163
803	-0.163
804	-0.162
804	-0.156
804	-0.149
805	-0.145
805	-0.142
806	-0.14
806	-0.139
807	-0.137
807	-0.136
807	-0.136
808	-0.136
808	-0.136
809	-0.14
809	-0.145
810	-0.148
810	-0.151
810	-0.154
811	-0.156
811	-0.157
812	-0.153
812	-0.15
813	-0.151
813	-0.152
813	-0.154
814	-0.155
814	-0.156
815	-0.154
815	-0.152
816	-0.151
816	-0.152
817	-0.157
817	-0.161
817	-0.162
818	-0.161
818	-0.158
819	-0.153
819	-0.15
820	-0.151
820	-0.153
820	-0.154
821	-0.154
821	-0.153
822	-0.152
822	-0.15
823	-0.148
823	-0.148
823	-0.149
824	-0.148
824	-0.143
825	-0.137
825	-0.129
826	-0.121
826	-0.115
826	-0.108
827	-0.101
827	-0.095
828	-0.09
828	-0.085
829	-0.08
829	-0.075
829	-0.071
830	-0.068
830	-0.065
831	-0.06
831	-0.056
832	-0.052
832	-0.049
832	-0.046
833	-0.043
833	-0.041
834	-0.04
834	-0.038
835	-0.037
835	-0.037
835	-0.037
836	-0.037
836	-0.037
837	-0.037
837	-0.037
838	-0.037
838	-0.037
839	-0.037
839	-0.037
839	-0.037
840	-0.036
840	-0.036
841	-0.035
841	-0.034
842	-0.033
842	-0.032
842	-0.032
843	-0.031
843	-0.03
844	-0.029
844	-0.028
845	-0.027
845	-0.026
845	-0.025
846	-0.024
846	-0.023
847	-0.022
847	-0.02
848	-0.019
848	-0.018
848	-0.016
849	-0.015
849	-0.014
850	-0.013
850	-0.012
851	-0.012
851	-0.011
851	-0.011
852	-0.011
852	-0.01
853	-0.01
853	-0.011
854	-0.011
854	-0.011
854	-0.011
855	-0.011
855	-0.011
856	-0.011
856	-0.01
857	-0.01
857	-0.01
857	-0.009
858	-0.009
858	-0.009
859	-0.009
859	-0.008
860	-0.007
860	-0.006
860	-0.005
861	-0.004
861	-0.004
862	-0.003
862	-0.003
863	-0.003
863	-0.002
863	-0.002
864	-0.002
864	-0.001
865	-0.002
865	-0.002
866	-0.002
866	-0.002
866	-0.002
867	-0.002
867	-0.002
868	-0.001
868	-0.001
869	-0.001
869	-0.002
869	-0.002
870	-0.002
870	-0.002
871	-0.002
871	-0.003
872	-0.003
872	-0.004
872	-0.004
873	-0.005
873	-0.005
874	-0.006
874	-0.006
875	-0.007
875	-0.007
875	-0.008
876	-0.008
876	-0.008
877	-0.008
877	-0.008
878	-0.008
878	-0.008
878	-0.007
879	-0.007
879	-0.006
880	-0.005
880	-0.004
881	-0.003
881	-0.002
881	-0.001
882	-0
882	0.001
883	0.002
883	0.003
884	0.004
884	0.005
884	0.006
885	0.006
885	0.006
886	0.006
886	0.006
887	0.006
887	0.006
887	0.005
888	0.005
888	0.005
889	0.005
889	0.006
890	0.006
890	0.007
890	0.007
891	0.008
891	0.009
892	0.009
892	0.01
893	0.01
893	0.011
893	0.011
894	0.012
894	0.012
895	0.012
895	0.011
895	0.011
896	0.011
896	0.011
897	0.01
897	0.01
898	0.009
898	0.008
898	0.007
899	0.007
899	0.006
900	0.006
900	0.005
901	0.004
901	0.004
901	0.003
902	0.003
902	0.002
903	0.002
903	0.002
904	0.001
904	0.001
904	0.001
905	0.001
905	0.002
906	0.002
906	0.003
907	0.003
907	0.003
907	0.003
908	0.002
908	0.002
909	0.001
909	0.001
910	0
910	-0
910	-0
911	-0.001
911	-0.001
912	-0
912	0
913	0.001
913	0.002
913	0.003
914	0.004
914	0.006
915	0.007
915	0.008
916	0.009
916	0.011
916	0.011
917	0.012
917	0.013
918	0.013
918	0.013
918	0.013
919	0.013
919	0.013
920	0.012
920	0.011
921	0.011
921	0.009
921	0.008
922	0.007
922	0.006
923	0.005
923	0.004
924	0.003
924	0.003
924	0.002
925	0.002
925	0.002
926	0.002
926	0.002
927	0.003
927	0.003
927	0.004
928	0.005
928	0.005
929	0.006
929	0.007
930	0.007
930	0.007
930	0.008
931	0.008
931	0.009
932	0.009
932	0.01
933	0.01
933	0.011
933	0.011
934	0.012
934	0.012
935	0.013
935	0.013
935	0.013
936	0.013
936	0.014
937	0.014
937	0.014
938	0.014
938	0.014
938	0.013
939	0.014
939	0.014
940	0.014
940	0.014
941	0.015
941	0.016
941	0.017
942	0.018
942	0.019
943	0.02
943	0.02
944	0.021
944	0.022
944	0.023
945	0.023
945	0.024
946	0.025
946	0.025
946	0.025
947	0.025
947	0.025
948	0.024
948	0.024
949	0.023
949	0.022
949	0.021
950	0.02
950	0.019
951	0.019
951	0.018
952	0.017
952	0.017
952	0.017
953	0.016
953	0.016
954	0.016
954	0.016
955	0.016
955	0.017
955	0.017
956	0.018
956	0.018
957	0.018
957	0.019
957	0.019
958	0.019
958	0.019
959	0.019
959	0.019
960	0.019
960	0.019
960	0.019
961	0.019
961	0.019
962	0.019
962	0.019
963	0.018
963	0.018
963	0.018
964	0.017
964	0.017
965	0.016
965	0.016
966	0.015
966	0.015
966	0.014
967	0.014
967	0.013
968	0.013
968	0.012
968	0.012
969	0.012
969	0.012
970	0.012
970	0.012
971	0.012
971	0.012
971	0.012
972	0.013
972	0.014
973	0.014
973	0.015
974	0.015
974	0.015
974	0.016
975	0.016
975	0.016
976	0.015
976	0.015
976	0.014
977	0.013
977	0.012
978	0.011
978	0.01
979	0.009
979	0.008
979	0.007
980	0.007
980	0.006
981	0.006
981	0.005
982	0.005
982	0.005
982	0.005
983	0.005
983	0.005
984	0.005
984	0.005
984	0.005
985	0.005
985	0.004
986	0.004
986	0.003
987	0.003
987	0.002
987	0.002
988	0.003
988	0.003
989	0.003
989	0.003
990	0.004
990	0.005
990	0.006
991	0.007
991	0.008
992	0.009
992	0.009
992	0.01
993	0.01
993	0.011
994	0.011
994	0.011
995	0.01
995	0.01
995	0.009
996	0.009
996	0.008
997	0.007
997	0.006
997	0.006
998	0.005
998	0.005
999	0.004
999	0.004
1000	0.004
1000	0.004
1000	0.004
1001	0.004
1001	0.005
1002	0.004
1002	0.004
1003	0.004
1003	0.004
1003	0.004
1004	0.004
1004	0.003
1005	0.003
1005	0.002
1005	0.002
1006	0.001
1006	0.001
1007	0.001
1007	0
1008	0.001
1008	0.001
1008	0.001
1009	0.002
1009	0.003
1010	0.003
1010	0.004
1010	0.005
1011	0.006
1011	0.007
1012	0.008
1012	0.008
1013	0.008
1013	0.009
1013	0.009
1014	0.008
1014	0.008
1015	0.008
1015	0.007
1016	0.007
1016	0.006
1016	0.006
1017	0.006
1017	0.006
1018	0.007
1018	0.007
1018	0.007
1019	0.008
1019	0.008
1020	0.009
1020	0.009
1021	0.009
1021	0.01
1021	0.01
1022	0.01
1022	0.01
1023	0.01
1023	0.01
1023	0.01
1024	0.01
1024	0.01
1025	0.011
1025	0.011
1026	0.011
1026	0.012
1026	0.012
1027	0.012
1027	0.013
1028	0.013
1028	0.013
1028	0.013
1029	0.013
1029	0.013
1030	0.012
1030	0.011
1031	0.01
1031	0.01
1031	0.009
1032	0.008
1032	0.007
1033	0.006
1033	0.006
1033	0.005
1034	0.004
1034	0.004
1035	0.004
1035	0.004
1036	0.004
1036	0.004
1036	0.005
1037	0.006
1037	0.007
1038	0.007
1038	0.008
1039	0.009
1039	0.009
1039	0.01
1040	0.011
1040	0.012
1041	0.012
1041	0.013
1041	0.013
1042	0.014
1042	0.014
1043	0.015
1043	0.016
1044	0.017
1044	0.018
1044	0.019
1045	0.02
1045	0.021
1046	0.022
1046	0.024
1046	0.025
1047	0.027
1047	0.029
1048	0.03
1048	0.031
1049	0.032
1049	0.033
1049	0.033
1050	0.033
1050	0.033
1051	0.033
1051	0.033
1051	0.033
1052	0.032
1052	0.032
1053	0.032
1053	0.031
1053	0.031
1054	0.031
1054	0.031
1055	0.03
1055	0.03
1056	0.029
1056	0.029
1056	0.028
1057	0.027
1057	0.026
1058	0.026
1058	0.026
1058	0.026
1059	0.026
1059	0.025
1060	0.026
1060	0.026
1061	0.026
1061	0.027
1061	0.028
1062	0.029
1062	0.03
1063	0.03
1063	0.031
1063	0.032
1064	0.034
1064	0.036
1065	0.038
1065	0.039
1066	0.041
1066	0.044
1066	0.046
1067	0.049
1067	0.051
1068	0.054
1068	0.055
1068	0.057
1069	0.058
1069	0.059
1070	0.06
1070	0.061
1071	0.062
1071	0.063
1071	0.064
1072	0.065
1072	0.066
1073	0.068
1073	0.069
1073	0.07
1074	0.072
1074	0.073
1075	0.073
1075	0.074
1076	0.075
1076	0.076
1076	0.076
1077	0.077
1077	0.078
1078	0.08
1078	0.081
1078	0.083
1079	0.085
1079	0.088
1080	0.089
1080	0.092
1080	0.094
1081	0.097
1081	0.1
1082	0.102
1082	0.105
1083	0.108
1083	0.11
1083	0.114
1084	0.117
1084	0.121
1085	0.125
1085	0.128
1085	0.132
1086	0.136
1086	0.139
1087	0.144
1087	0.148
1088	0.151
1088	0.156
1088	0.16
1089	0.165
1089	0.17
1090	0.178
1090	0.185
1090	0.192
1091	0.2
1091	0.21
1092	0.219
1092	0.232
1092	0.243
1093	0.254
1093	0.268
1094	0.281
1094	0.294
1095	0.308
1095	0.325
1095	0.344
1096	0.365
1096	0.387
1097	0.412
1097	0.437
1097	0.469
1098	0.501
1098	0.541
1099	0.586
1099	0.643
1100	0.712
1100	0.795
1100	0.899
1101	1.05
1101	1.299
1102	2.387
1102	-0
1102	-0
1103	-0
1103	-0
1104	-0
1104	-0
1104	-0
1105	-0
1105	-0
1106	-0
1106	-0
1107	-0
1107	-0
1107	-0
1108	-0
1108	-0
1109	-0
1109	-0
1109	-0
1110	-0
1110	-0
1111	-0
1111	-0
