Data from 15c-2-4a_Absorbance__534__00534.txt Node

Date: Thu Jan 25 10:21:58 CET 2024
User: Marek
Spectrometer: MAYP115816
Trigger mode: 0
Integration Time (sec): 2.000000E-1
Scans to average: 10
Electric dark correction enabled: true
Nonlinearity correction enabled: true
Boxcar width: 5
XAxis mode: Wavelengths
Number of Pixels in Spectrum: 2068
>>>>>Begin Spectral Data<<<<<
199	-2.113
199	-1.942
200	-1.788
200	-1.666
201	-1.589
201	-1.532
202	-1.45
202	-1.388
203	-1.336
203	-1.289
204	-1.263
204	-1.235
205	-1.215
205	-1.203
205	-1.197
206	-1.192
206	-1.188
207	-1.188
207	-1.184
208	-1.179
208	-1.176
209	-1.172
209	-1.169
210	-1.167
210	-1.164
211	-1.163
211	-1.161
212	-1.159
212	-1.156
213	-1.155
213	-1.155
213	-1.155
214	-1.153
214	-1.152
215	-1.151
215	-1.149
216	-1.147
216	-1.146
217	-1.144
217	-1.141
218	-1.14
218	-1.137
219	-1.135
219	-1.132
220	-1.132
220	-1.127
221	-1.125
221	-1.122
221	-1.119
222	-1.116
222	-1.114
223	-1.11
223	-1.104
224	-1.097
224	-1.088
225	-1.078
225	-1.071
226	-1.059
226	-1.047
227	-1.033
227	-1.019
228	-1
228	-0.982
229	-0.961
229	-0.938
229	-0.912
230	-0.884
230	-0.854
231	-0.821
231	-0.783
232	-0.743
232	-0.701
233	-0.657
233	-0.611
234	-0.567
234	-0.52
235	-0.475
235	-0.43
236	-0.386
236	-0.345
236	-0.306
237	-0.268
237	-0.233
238	-0.2
238	-0.169
239	-0.14
239	-0.113
240	-0.089
240	-0.066
241	-0.045
241	-0.026
242	-0.009
242	0.008
243	0.022
243	0.036
243	0.048
244	0.06
244	0.07
245	0.08
245	0.089
246	0.097
246	0.104
247	0.112
247	0.118
248	0.125
248	0.13
249	0.135
249	0.14
250	0.145
250	0.15
250	0.154
251	0.158
251	0.162
252	0.165
252	0.168
253	0.172
253	0.175
254	0.178
254	0.18
255	0.183
255	0.185
256	0.188
256	0.189
257	0.191
257	0.193
258	0.195
258	0.196
258	0.197
259	0.198
259	0.199
260	0.2
260	0.201
261	0.201
261	0.202
262	0.202
262	0.202
263	0.202
263	0.203
264	0.203
264	0.203
265	0.203
265	0.202
265	0.202
266	0.202
266	0.201
267	0.201
267	0.2
268	0.2
268	0.199
269	0.198
269	0.197
270	0.196
270	0.195
271	0.194
271	0.192
272	0.191
272	0.19
272	0.189
273	0.187
273	0.186
274	0.185
274	0.183
275	0.182
275	0.18
276	0.179
276	0.177
277	0.176
277	0.174
278	0.172
278	0.171
278	0.169
279	0.168
279	0.167
280	0.166
280	0.165
281	0.163
281	0.162
282	0.161
282	0.16
283	0.16
283	0.159
284	0.158
284	0.157
285	0.156
285	0.155
285	0.153
286	0.152
286	0.151
287	0.15
287	0.149
288	0.148
288	0.147
289	0.146
289	0.145
290	0.144
290	0.143
291	0.142
291	0.142
292	0.141
292	0.14
292	0.139
293	0.139
293	0.138
294	0.138
294	0.137
295	0.137
295	0.136
296	0.136
296	0.135
297	0.135
297	0.134
298	0.134
298	0.134
298	0.133
299	0.133
299	0.133
300	0.132
300	0.132
301	0.131
301	0.131
302	0.131
302	0.13
303	0.13
303	0.13
304	0.129
304	0.129
305	0.129
305	0.128
305	0.128
306	0.128
306	0.127
307	0.127
307	0.127
308	0.126
308	0.126
309	0.125
309	0.125
310	0.125
310	0.124
311	0.124
311	0.124
311	0.123
312	0.123
312	0.122
313	0.122
313	0.122
314	0.121
314	0.121
315	0.12
315	0.12
316	0.12
316	0.119
317	0.119
317	0.119
318	0.118
318	0.118
318	0.117
319	0.117
319	0.116
320	0.116
320	0.115
321	0.115
321	0.114
322	0.114
322	0.113
323	0.113
323	0.113
324	0.112
324	0.112
324	0.111
325	0.111
325	0.11
326	0.11
326	0.11
327	0.109
327	0.109
328	0.109
328	0.108
329	0.108
329	0.107
330	0.107
330	0.107
330	0.106
331	0.106
331	0.105
332	0.105
332	0.104
333	0.104
333	0.103
334	0.103
334	0.102
335	0.102
335	0.101
336	0.101
336	0.101
336	0.1
337	0.1
337	0.1
338	0.099
338	0.099
339	0.099
339	0.099
340	0.098
340	0.098
341	0.097
341	0.097
342	0.097
342	0.096
342	0.096
343	0.095
343	0.095
344	0.094
344	0.094
345	0.093
345	0.093
346	0.092
346	0.092
347	0.092
347	0.091
348	0.091
348	0.09
348	0.09
349	0.089
349	0.089
350	0.089
350	0.088
351	0.088
351	0.087
352	0.087
352	0.087
353	0.086
353	0.086
354	0.085
354	0.084
354	0.084
355	0.083
355	0.082
356	0.082
356	0.081
357	0.081
357	0.081
358	0.08
358	0.081
359	0.081
359	0.082
360	0.082
360	0.083
360	0.083
361	0.083
361	0.084
362	0.084
362	0.084
363	0.084
363	0.084
364	0.083
364	0.083
365	0.083
365	0.083
366	0.083
366	0.083
366	0.082
367	0.082
367	0.082
368	0.082
368	0.082
369	0.081
369	0.081
370	0.081
370	0.081
371	0.08
371	0.08
372	0.079
372	0.079
372	0.079
373	0.079
373	0.079
374	0.079
374	0.079
375	0.079
375	0.079
376	0.079
376	0.079
377	0.079
377	0.079
378	0.079
378	0.079
378	0.079
379	0.079
379	0.08
380	0.08
380	0.08
381	0.08
381	0.079
382	0.079
382	0.079
383	0.079
383	0.079
383	0.078
384	0.078
384	0.078
385	0.077
385	0.077
386	0.077
386	0.077
387	0.077
387	0.077
388	0.077
388	0.077
389	0.077
389	0.077
389	0.078
390	0.078
390	0.078
391	0.078
391	0.079
392	0.079
392	0.079
393	0.079
393	0.079
394	0.079
394	0.078
394	0.078
395	0.078
395	0.077
396	0.077
396	0.077
397	0.077
397	0.078
398	0.078
398	0.078
399	0.078
399	0.078
400	0.078
400	0.077
400	0.077
401	0.077
401	0.076
402	0.076
402	0.075
403	0.075
403	0.075
404	0.075
404	0.075
405	0.074
405	0.074
405	0.074
406	0.074
406	0.074
407	0.073
407	0.073
408	0.073
408	0.073
409	0.072
409	0.072
410	0.072
410	0.072
411	0.072
411	0.072
411	0.072
412	0.071
412	0.071
413	0.071
413	0.071
414	0.071
414	0.071
415	0.071
415	0.07
416	0.07
416	0.07
416	0.07
417	0.07
417	0.07
418	0.07
418	0.07
419	0.07
419	0.071
420	0.072
420	0.072
421	0.072
421	0.072
421	0.073
422	0.072
422	0.072
423	0.072
423	0.072
424	0.071
424	0.071
425	0.07
425	0.07
426	0.069
426	0.069
427	0.069
427	0.07
427	0.07
428	0.07
428	0.071
429	0.071
429	0.071
430	0.072
430	0.071
431	0.071
431	0.071
432	0.071
432	0.07
432	0.069
433	0.069
433	0.068
434	0.067
434	0.067
435	0.067
435	0.067
436	0.067
436	0.067
437	0.067
437	0.067
437	0.067
438	0.068
438	0.067
439	0.067
439	0.067
440	0.067
440	0.067
441	0.067
441	0.067
442	0.067
442	0.067
442	0.067
443	0.068
443	0.068
444	0.068
444	0.068
445	0.068
445	0.068
446	0.068
446	0.068
447	0.068
447	0.068
447	0.068
448	0.068
448	0.068
449	0.068
449	0.067
450	0.067
450	0.067
451	0.067
451	0.066
452	0.066
452	0.066
452	0.065
453	0.065
453	0.065
454	0.064
454	0.064
455	0.063
455	0.063
456	0.063
456	0.063
457	0.063
457	0.063
458	0.062
458	0.062
458	0.062
459	0.062
459	0.062
460	0.062
460	0.061
461	0.061
461	0.061
462	0.06
462	0.061
463	0.061
463	0.061
463	0.062
464	0.062
464	0.062
465	0.062
465	0.063
466	0.063
466	0.063
467	0.063
467	0.062
467	0.061
468	0.06
468	0.059
469	0.057
469	0.056
470	0.055
470	0.055
471	0.054
471	0.054
472	0.053
472	0.053
472	0.053
473	0.054
473	0.055
474	0.056
474	0.056
475	0.057
475	0.058
476	0.058
476	0.058
477	0.059
477	0.059
477	0.059
478	0.06
478	0.06
479	0.06
479	0.061
480	0.062
480	0.063
481	0.063
481	0.064
482	0.064
482	0.065
482	0.066
483	0.067
483	0.069
484	0.071
484	0.073
485	0.074
485	0.075
486	0.076
486	0.076
487	0.077
487	0.077
487	0.077
488	0.076
488	0.075
489	0.074
489	0.072
490	0.071
490	0.07
491	0.07
491	0.07
492	0.07
492	0.071
492	0.071
493	0.071
493	0.071
494	0.072
494	0.074
495	0.075
495	0.076
496	0.076
496	0.077
496	0.077
497	0.078
497	0.078
498	0.078
498	0.078
499	0.078
499	0.078
500	0.078
500	0.079
501	0.08
501	0.081
501	0.082
502	0.082
502	0.083
503	0.085
503	0.085
504	0.086
504	0.087
505	0.087
505	0.087
506	0.088
506	0.088
506	0.088
507	0.088
507	0.088
508	0.088
508	0.088
509	0.089
509	0.089
510	0.089
510	0.089
511	0.089
511	0.089
511	0.089
512	0.089
512	0.09
513	0.089
513	0.089
514	0.088
514	0.088
515	0.087
515	0.087
515	0.086
516	0.086
516	0.086
517	0.086
517	0.087
518	0.086
518	0.086
519	0.085
519	0.084
520	0.082
520	0.081
520	0.079
521	0.077
521	0.075
522	0.073
522	0.072
523	0.071
523	0.071
524	0.072
524	0.073
524	0.075
525	0.077
525	0.08
526	0.082
526	0.084
527	0.086
527	0.088
528	0.089
528	0.09
529	0.091
529	0.091
529	0.092
530	0.092
530	0.092
531	0.092
531	0.092
532	0.091
532	0.091
533	0.091
533	0.091
533	0.091
534	0.091
534	0.09
535	0.09
535	0.09
536	0.09
536	0.089
537	0.089
537	0.089
538	0.088
538	0.087
538	0.086
539	0.086
539	0.086
540	0.085
540	0.084
541	0.083
541	0.082
542	0.081
542	0.081
542	0.08
543	0.08
543	0.079
544	0.078
544	0.078
545	0.077
545	0.077
546	0.078
546	0.077
547	0.077
547	0.076
547	0.074
548	0.073
548	0.072
549	0.07
549	0.069
550	0.068
550	0.066
551	0.064
551	0.063
551	0.062
552	0.061
552	0.061
553	0.06
553	0.06
554	0.06
554	0.06
555	0.059
555	0.057
556	0.055
556	0.054
556	0.052
557	0.05
557	0.048
558	0.047
558	0.046
559	0.045
559	0.045
560	0.044
560	0.044
560	0.044
561	0.045
561	0.045
562	0.046
562	0.045
563	0.044
563	0.043
564	0.041
564	0.039
564	0.038
565	0.037
565	0.036
566	0.035
566	0.034
567	0.034
567	0.034
568	0.035
568	0.037
568	0.038
569	0.04
569	0.041
570	0.043
570	0.043
571	0.044
571	0.045
572	0.045
572	0.046
573	0.046
573	0.046
573	0.046
574	0.045
574	0.045
575	0.045
575	0.046
576	0.047
576	0.047
577	0.047
577	0.046
577	0.046
578	0.046
578	0.046
579	0.046
579	0.048
580	0.048
580	0.047
581	0.045
581	0.044
581	0.043
582	0.043
582	0.043
583	0.044
583	0.044
584	0.043
584	0.04
585	0.039
585	0.039
585	0.039
586	0.038
586	0.038
587	0.037
587	0.035
588	0.033
588	0.031
589	0.029
589	0.028
590	0.027
590	0.026
590	0.026
591	0.026
591	0.026
592	0.026
592	0.026
593	0.026
593	0.026
594	0.026
594	0.026
594	0.026
595	0.025
595	0.025
596	0.024
596	0.024
597	0.026
597	0.027
598	0.028
598	0.029
598	0.029
599	0.029
599	0.029
600	0.029
600	0.028
601	0.027
601	0.026
602	0.024
602	0.023
602	0.022
603	0.021
603	0.021
604	0.021
604	0.022
605	0.023
605	0.024
606	0.024
606	0.024
606	0.024
607	0.023
607	0.023
608	0.023
608	0.021
609	0.02
609	0.02
610	0.019
610	0.018
610	0.017
611	0.017
611	0.018
612	0.019
612	0.02
613	0.022
613	0.023
614	0.024
614	0.024
614	0.024
615	0.024
615	0.024
616	0.024
616	0.023
617	0.023
617	0.021
618	0.02
618	0.019
618	0.018
619	0.018
619	0.018
620	0.018
620	0.019
621	0.019
621	0.019
622	0.019
622	0.02
622	0.02
623	0.019
623	0.019
624	0.02
624	0.02
625	0.019
625	0.019
626	0.019
626	0.019
626	0.019
627	0.019
627	0.019
628	0.02
628	0.02
629	0.02
629	0.02
630	0.02
630	0.019
630	0.018
631	0.018
631	0.019
632	0.018
632	0.018
633	0.018
633	0.019
634	0.019
634	0.02
634	0.022
635	0.023
635	0.024
636	0.025
636	0.026
637	0.027
637	0.027
638	0.028
638	0.028
638	0.029
639	0.029
639	0.028
640	0.028
640	0.029
641	0.03
641	0.031
642	0.032
642	0.033
642	0.034
643	0.036
643	0.037
644	0.038
644	0.04
645	0.042
645	0.043
646	0.045
646	0.047
646	0.049
647	0.051
647	0.053
648	0.055
648	0.057
649	0.058
649	0.06
650	0.061
650	0.063
650	0.065
651	0.066
651	0.067
652	0.067
652	0.068
653	0.069
653	0.074
653	0.082
654	0.069
654	0.059
655	0.061
655	0.063
656	0.064
656	0.065
657	0.067
657	0.068
657	0.069
658	0.068
658	0.063
659	0.077
659	0.095
660	0.096
660	0.098
661	0.098
661	0.099
661	0.1
662	0.102
662	0.104
663	0.106
663	0.108
664	0.11
664	0.111
665	0.113
665	0.114
665	0.116
666	0.118
666	0.119
667	0.12
667	0.121
668	0.123
668	0.124
669	0.125
669	0.127
669	0.129
670	0.131
670	0.133
671	0.135
671	0.136
672	0.138
672	0.139
672	0.139
673	0.14
673	0.141
674	0.142
674	0.142
675	0.142
675	0.143
676	0.143
676	0.144
676	0.145
677	0.146
677	0.147
678	0.148
678	0.149
679	0.15
679	0.15
680	0.151
680	0.152
680	0.153
681	0.153
681	0.154
682	0.154
682	0.155
683	0.156
683	0.157
684	0.159
684	0.159
684	0.159
685	0.159
685	0.16
686	0.16
686	0.16
687	0.159
687	0.159
687	0.158
688	0.157
688	0.156
689	0.156
689	0.157
690	0.157
690	0.157
691	0.156
691	0.157
691	0.157
692	0.157
692	0.156
693	0.156
693	0.157
694	0.157
694	0.157
695	0.157
695	0.159
695	0.16
696	0.16
696	0.161
697	0.16
697	0.16
698	0.159
698	0.158
698	0.157
699	0.156
699	0.154
700	0.152
700	0.15
701	0.149
701	0.148
702	0.147
702	0.146
702	0.144
703	0.143
703	0.141
704	0.14
704	0.139
705	0.138
705	0.137
705	0.136
706	0.136
706	0.135
707	0.134
707	0.133
708	0.133
708	0.132
709	0.132
709	0.131
709	0.129
710	0.127
710	0.126
711	0.124
711	0.123
712	0.122
712	0.122
713	0.121
713	0.12
713	0.119
714	0.118
714	0.117
715	0.116
715	0.115
716	0.113
716	0.112
716	0.111
717	0.11
717	0.108
718	0.106
718	0.104
719	0.103
719	0.102
720	0.1
720	0.099
720	0.097
721	0.094
721	0.092
722	0.09
722	0.088
723	0.086
723	0.084
723	0.083
724	0.081
724	0.08
725	0.078
725	0.077
726	0.076
726	0.075
727	0.074
727	0.073
727	0.072
728	0.07
728	0.069
729	0.069
729	0.068
730	0.067
730	0.066
730	0.065
731	0.063
731	0.062
732	0.061
732	0.06
733	0.059
733	0.058
734	0.056
734	0.055
734	0.053
735	0.052
735	0.05
736	0.049
736	0.047
737	0.045
737	0.044
737	0.043
738	0.041
738	0.039
739	0.037
739	0.035
740	0.034
740	0.033
741	0.032
741	0.03
741	0.028
742	0.025
742	0.023
743	0.021
743	0.019
744	0.018
744	0.016
744	0.015
745	0.013
745	0.012
746	0.011
746	0.01
747	0.01
747	0.009
748	0.009
748	0.009
748	0.009
749	0.008
749	0.008
750	0.007
750	0.006
751	0.006
751	0.005
751	0.005
752	0.005
752	0.004
753	0.003
753	0.002
754	0.002
754	0.001
754	0.001
755	0.001
755	0.002
756	0.002
756	0.001
757	-0
757	-0.001
758	-0.001
758	-0.002
758	-0.003
759	-0.004
759	-0.005
760	-0.007
760	-0.01
761	-0.012
761	-0.012
761	-0.013
762	-0.014
762	-0.015
763	-0.015
763	-0.016
764	-0.018
764	-0.019
764	-0.02
765	-0.022
765	-0.023
766	-0.024
766	-0.024
767	-0.025
767	-0.026
768	-0.029
768	-0.031
768	-0.032
769	-0.032
769	-0.033
770	-0.033
770	-0.034
771	-0.035
771	-0.038
771	-0.04
772	-0.042
772	-0.043
773	-0.045
773	-0.047
774	-0.051
774	-0.054
775	-0.057
775	-0.061
775	-0.064
776	-0.067
776	-0.07
777	-0.073
777	-0.076
778	-0.079
778	-0.083
778	-0.086
779	-0.088
779	-0.09
780	-0.093
780	-0.096
781	-0.1
781	-0.105
781	-0.11
782	-0.115
782	-0.121
783	-0.126
783	-0.129
784	-0.133
784	-0.136
784	-0.139
785	-0.142
785	-0.145
786	-0.145
786	-0.143
787	-0.139
787	-0.135
788	-0.135
788	-0.136
788	-0.137
789	-0.14
789	-0.14
790	-0.137
790	-0.136
791	-0.137
791	-0.139
791	-0.141
792	-0.136
792	-0.124
793	-0.118
793	-0.113
794	-0.111
794	-0.112
794	-0.115
795	-0.117
795	-0.117
796	-0.117
796	-0.119
797	-0.128
797	-0.139
797	-0.146
798	-0.152
798	-0.155
799	-0.157
799	-0.157
800	-0.157
800	-0.159
801	-0.162
801	-0.163
801	-0.163
802	-0.164
802	-0.165
803	-0.165
803	-0.165
804	-0.163
804	-0.158
804	-0.151
805	-0.147
805	-0.144
806	-0.142
806	-0.141
807	-0.139
807	-0.138
807	-0.138
808	-0.137
808	-0.138
809	-0.142
809	-0.147
810	-0.15
810	-0.152
810	-0.155
811	-0.158
811	-0.159
812	-0.155
812	-0.152
813	-0.153
813	-0.154
813	-0.155
814	-0.157
814	-0.158
815	-0.156
815	-0.154
816	-0.153
816	-0.154
817	-0.159
817	-0.163
817	-0.163
818	-0.163
818	-0.16
819	-0.155
819	-0.152
820	-0.153
820	-0.155
820	-0.156
821	-0.155
821	-0.152
822	-0.149
822	-0.145
823	-0.14
823	-0.138
823	-0.138
824	-0.135
824	-0.128
825	-0.12
825	-0.11
826	-0.102
826	-0.095
826	-0.089
827	-0.083
827	-0.078
828	-0.073
828	-0.068
829	-0.064
829	-0.06
829	-0.057
830	-0.054
830	-0.051
831	-0.048
831	-0.044
832	-0.042
832	-0.039
832	-0.037
833	-0.036
833	-0.035
834	-0.034
834	-0.033
835	-0.033
835	-0.033
835	-0.034
836	-0.034
836	-0.034
837	-0.034
837	-0.034
838	-0.034
838	-0.033
839	-0.033
839	-0.033
839	-0.032
840	-0.032
840	-0.031
841	-0.029
841	-0.028
842	-0.027
842	-0.026
842	-0.025
843	-0.023
843	-0.022
844	-0.02
844	-0.02
845	-0.019
845	-0.018
845	-0.018
846	-0.017
846	-0.017
847	-0.016
847	-0.016
848	-0.015
848	-0.014
848	-0.014
849	-0.013
849	-0.012
850	-0.011
850	-0.011
851	-0.01
851	-0.01
851	-0.009
852	-0.01
852	-0.009
853	-0.009
853	-0.009
854	-0.009
854	-0.009
854	-0.009
855	-0.009
855	-0.01
856	-0.01
856	-0.01
857	-0.009
857	-0.009
857	-0.009
858	-0.009
858	-0.009
859	-0.008
859	-0.008
860	-0.007
860	-0.006
860	-0.005
861	-0.003
861	-0.002
862	-0.001
862	-0
863	0.001
863	0.002
863	0.003
864	0.004
864	0.004
865	0.005
865	0.006
866	0.006
866	0.006
866	0.007
867	0.007
867	0.008
868	0.008
868	0.008
869	0.008
869	0.008
869	0.008
870	0.008
870	0.007
871	0.007
871	0.006
872	0.005
872	0.004
872	0.003
873	0.002
873	0.001
874	-0
874	-0.001
875	-0.002
875	-0.002
875	-0.002
876	-0.002
876	-0.002
877	-0.002
877	-0.001
878	-0.001
878	-0
878	0
879	0.001
879	0.001
880	0.002
880	0.002
881	0.003
881	0.004
881	0.005
882	0.006
882	0.007
883	0.007
883	0.008
884	0.008
884	0.008
884	0.008
885	0.008
885	0.008
886	0.008
886	0.008
887	0.007
887	0.007
887	0.006
888	0.005
888	0.005
889	0.005
889	0.005
890	0.005
890	0.005
890	0.005
891	0.005
891	0.005
892	0.006
892	0.006
893	0.007
893	0.008
893	0.008
894	0.009
894	0.009
895	0.009
895	0.009
895	0.009
896	0.009
896	0.009
897	0.009
897	0.008
898	0.007
898	0.006
898	0.005
899	0.004
899	0.003
900	0.002
900	0.001
901	0.001
901	0.001
901	0
902	0
902	-0
903	-0
903	-0
904	-0
904	-0
904	0
905	0
905	0.001
906	0.001
906	0.001
907	0.001
907	0.001
907	0.001
908	0.001
908	0.001
909	0.001
909	0.001
910	0.001
910	0.001
910	0.001
911	0.001
911	0.002
912	0.003
912	0.004
913	0.005
913	0.006
913	0.007
914	0.008
914	0.009
915	0.01
915	0.011
916	0.012
916	0.013
916	0.013
917	0.014
917	0.014
918	0.014
918	0.014
918	0.013
919	0.012
919	0.011
920	0.01
920	0.009
921	0.008
921	0.006
921	0.005
922	0.005
922	0.004
923	0.004
923	0.004
924	0.004
924	0.004
924	0.005
925	0.005
925	0.006
926	0.007
926	0.008
927	0.008
927	0.009
927	0.01
928	0.01
928	0.011
929	0.011
929	0.012
930	0.012
930	0.012
930	0.012
931	0.011
931	0.012
932	0.012
932	0.011
933	0.011
933	0.011
933	0.011
934	0.011
934	0.011
935	0.011
935	0.011
935	0.011
936	0.011
936	0.011
937	0.011
937	0.01
938	0.01
938	0.009
938	0.009
939	0.008
939	0.008
940	0.008
940	0.008
941	0.008
941	0.008
941	0.009
942	0.009
942	0.01
943	0.01
943	0.011
944	0.011
944	0.012
944	0.013
945	0.014
945	0.014
946	0.015
946	0.016
946	0.016
947	0.017
947	0.017
948	0.017
948	0.017
949	0.016
949	0.016
949	0.015
950	0.015
950	0.014
951	0.014
951	0.013
952	0.013
952	0.013
952	0.013
953	0.013
953	0.013
954	0.013
954	0.012
955	0.012
955	0.012
955	0.012
956	0.012
956	0.011
957	0.011
957	0.011
957	0.011
958	0.01
958	0.01
959	0.01
959	0.011
960	0.011
960	0.011
960	0.011
961	0.011
961	0.012
962	0.012
962	0.013
963	0.013
963	0.014
963	0.014
964	0.014
964	0.014
965	0.014
965	0.014
966	0.013
966	0.013
966	0.012
967	0.012
967	0.011
968	0.011
968	0.01
968	0.01
969	0.01
969	0.01
970	0.01
970	0.01
971	0.01
971	0.011
971	0.011
972	0.012
972	0.013
973	0.013
973	0.014
974	0.014
974	0.015
974	0.016
975	0.016
975	0.016
976	0.016
976	0.016
976	0.016
977	0.015
977	0.015
978	0.014
978	0.013
979	0.012
979	0.011
979	0.01
980	0.009
980	0.008
981	0.007
981	0.007
982	0.006
982	0.006
982	0.006
983	0.005
983	0.005
984	0.005
984	0.005
984	0.005
985	0.005
985	0.005
986	0.004
986	0.004
987	0.004
987	0.004
987	0.003
988	0.003
988	0.003
989	0.003
989	0.002
990	0.002
990	0.002
990	0.001
991	0.001
991	0.001
992	0.001
992	0.001
992	0
993	-0
993	-0
994	-0.001
994	-0.001
995	-0.001
995	-0.002
995	-0.002
996	-0.002
996	-0.003
997	-0.003
997	-0.003
997	-0.003
998	-0.003
998	-0.002
999	-0.002
999	-0.001
1000	-0
1000	0.001
1000	0.001
1001	0.002
1001	0.003
1002	0.004
1002	0.004
1003	0.004
1003	0.004
1003	0.004
1004	0.004
1004	0.004
1005	0.003
1005	0.003
1005	0.002
1006	0.002
1006	0.001
1007	0.001
1007	0.001
1008	0.001
1008	0.001
1008	0.001
1009	0.001
1009	0.002
1010	0.002
1010	0.003
1010	0.004
1011	0.005
1011	0.006
1012	0.007
1012	0.008
1013	0.009
1013	0.009
1013	0.01
1014	0.011
1014	0.011
1015	0.011
1015	0.011
1016	0.011
1016	0.011
1016	0.011
1017	0.011
1017	0.011
1018	0.011
1018	0.011
1018	0.011
1019	0.011
1019	0.011
1020	0.01
1020	0.01
1021	0.01
1021	0.009
1021	0.009
1022	0.009
1022	0.009
1023	0.009
1023	0.008
1023	0.008
1024	0.008
1024	0.008
1025	0.008
1025	0.008
1026	0.008
1026	0.008
1026	0.008
1027	0.008
1027	0.008
1028	0.009
1028	0.009
1028	0.009
1029	0.01
1029	0.01
1030	0.01
1030	0.01
1031	0.011
1031	0.011
1031	0.011
1032	0.011
1032	0.011
1033	0.011
1033	0.011
1033	0.011
1034	0.011
1034	0.011
1035	0.011
1035	0.011
1036	0.011
1036	0.012
1036	0.012
1037	0.013
1037	0.014
1038	0.014
1038	0.015
1039	0.016
1039	0.017
1039	0.017
1040	0.018
1040	0.019
1041	0.019
1041	0.02
1041	0.02
1042	0.021
1042	0.021
1043	0.021
1043	0.022
1044	0.022
1044	0.023
1044	0.024
1045	0.024
1045	0.025
1046	0.026
1046	0.027
1046	0.029
1047	0.03
1047	0.032
1048	0.033
1048	0.034
1049	0.035
1049	0.036
1049	0.037
1050	0.037
1050	0.037
1051	0.038
1051	0.037
1051	0.037
1052	0.036
1052	0.036
1053	0.035
1053	0.034
1053	0.033
1054	0.032
1054	0.032
1055	0.031
1055	0.03
1056	0.03
1056	0.028
1056	0.028
1057	0.027
1057	0.027
1058	0.027
1058	0.027
1058	0.027
1059	0.027
1059	0.027
1060	0.028
1060	0.028
1061	0.029
1061	0.03
1061	0.03
1062	0.031
1062	0.032
1063	0.032
1063	0.033
1063	0.034
1064	0.036
1064	0.037
1065	0.039
1065	0.04
1066	0.041
1066	0.044
1066	0.046
1067	0.047
1067	0.049
1068	0.051
1068	0.053
1068	0.054
1069	0.055
1069	0.057
1070	0.058
1070	0.059
1071	0.06
1071	0.061
1071	0.062
1072	0.064
1072	0.065
1073	0.066
1073	0.067
1073	0.068
1074	0.069
1074	0.07
1075	0.069
1075	0.07
1076	0.07
1076	0.071
1076	0.071
1077	0.072
1077	0.073
1078	0.075
1078	0.076
1078	0.077
1079	0.079
1079	0.082
1080	0.083
1080	0.086
1080	0.088
1081	0.09
1081	0.091
1082	0.093
1082	0.094
1083	0.096
1083	0.098
1083	0.1
1084	0.103
1084	0.106
1085	0.108
1085	0.111
1085	0.113
1086	0.115
1086	0.118
1087	0.121
1087	0.124
1088	0.126
1088	0.13
1088	0.133
1089	0.136
1089	0.141
1090	0.145
1090	0.151
1090	0.156
1091	0.162
1091	0.169
1092	0.176
1092	0.184
1092	0.192
1093	0.2
1093	0.21
1094	0.219
1094	0.229
1095	0.239
1095	0.252
1095	0.266
1096	0.28
1096	0.295
1097	0.312
1097	0.329
1097	0.35
1098	0.371
1098	0.395
1099	0.422
1099	0.454
1100	0.49
1100	0.53
1100	0.579
1101	0.637
1101	0.71
1102	0.808
1102	0.937
1102	1.139
1103	1.554
1103	-0
1104	-0
1104	-0
1104	-0
1105	-0
1105	-0
1106	-0
1106	-0
1107	-0
1107	-0
1107	-0
1108	-0
1108	-0
1109	-0
1109	-0
1109	-0
1110	-0
1110	-0
1111	-0
1111	-0
