Data from 15c-2-4a_Absorbance__1565__01565.txt Node

Date: Thu Jan 25 10:56:20 CET 2024
User: Marek
Spectrometer: MAYP115816
Trigger mode: 0
Integration Time (sec): 2.000000E-1
Scans to average: 10
Electric dark correction enabled: true
Nonlinearity correction enabled: true
Boxcar width: 5
XAxis mode: Wavelengths
Number of Pixels in Spectrum: 2068
>>>>>Begin Spectral Data<<<<<
199	-2.187
199	-2.017
200	-1.863
200	-1.74
201	-1.662
201	-1.605
202	-1.522
202	-1.46
203	-1.408
203	-1.362
204	-1.335
204	-1.306
205	-1.285
205	-1.274
205	-1.268
206	-1.263
206	-1.26
207	-1.26
207	-1.256
208	-1.251
208	-1.248
209	-1.243
209	-1.24
210	-1.238
210	-1.236
211	-1.235
211	-1.233
212	-1.23
212	-1.227
213	-1.226
213	-1.226
213	-1.226
214	-1.225
214	-1.224
215	-1.222
215	-1.221
216	-1.218
216	-1.216
217	-1.214
217	-1.211
218	-1.21
218	-1.207
219	-1.205
219	-1.202
220	-1.202
220	-1.197
221	-1.194
221	-1.192
221	-1.189
222	-1.186
222	-1.185
223	-1.18
223	-1.174
224	-1.167
224	-1.158
225	-1.148
225	-1.14
226	-1.129
226	-1.117
227	-1.102
227	-1.089
228	-1.069
228	-1.049
229	-1.027
229	-1.003
229	-0.976
230	-0.947
230	-0.916
231	-0.88
231	-0.84
232	-0.799
232	-0.754
233	-0.707
233	-0.658
234	-0.609
234	-0.559
235	-0.508
235	-0.458
236	-0.408
236	-0.361
236	-0.314
237	-0.268
237	-0.226
238	-0.185
238	-0.146
239	-0.109
239	-0.074
240	-0.042
240	-0.012
241	0.016
241	0.043
242	0.068
242	0.09
243	0.111
243	0.131
243	0.149
244	0.166
244	0.181
245	0.195
245	0.208
246	0.22
246	0.231
247	0.242
247	0.252
248	0.261
248	0.269
249	0.277
249	0.285
250	0.292
250	0.299
250	0.305
251	0.311
251	0.317
252	0.322
252	0.327
253	0.331
253	0.335
254	0.34
254	0.343
255	0.347
255	0.35
256	0.353
256	0.356
257	0.359
257	0.361
258	0.363
258	0.365
258	0.367
259	0.368
259	0.369
260	0.371
260	0.372
261	0.372
261	0.373
262	0.374
262	0.374
263	0.375
263	0.375
264	0.376
264	0.376
265	0.376
265	0.376
265	0.376
266	0.376
266	0.376
267	0.375
267	0.375
268	0.374
268	0.374
269	0.373
269	0.372
270	0.371
270	0.37
271	0.369
271	0.368
272	0.366
272	0.365
272	0.364
273	0.363
273	0.361
274	0.36
274	0.359
275	0.357
275	0.356
276	0.354
276	0.352
277	0.35
277	0.349
278	0.346
278	0.344
278	0.342
279	0.34
279	0.339
280	0.338
280	0.337
281	0.336
281	0.335
282	0.334
282	0.333
283	0.332
283	0.332
284	0.331
284	0.33
285	0.328
285	0.327
285	0.326
286	0.324
286	0.323
287	0.322
287	0.32
288	0.319
288	0.318
289	0.317
289	0.316
290	0.315
290	0.314
291	0.313
291	0.312
292	0.311
292	0.31
292	0.309
293	0.307
293	0.307
294	0.306
294	0.305
295	0.304
295	0.303
296	0.302
296	0.301
297	0.301
297	0.3
298	0.299
298	0.298
298	0.297
299	0.296
299	0.296
300	0.295
300	0.294
301	0.293
301	0.292
302	0.292
302	0.291
303	0.29
303	0.29
304	0.289
304	0.288
305	0.287
305	0.286
305	0.285
306	0.285
306	0.284
307	0.283
307	0.282
308	0.281
308	0.28
309	0.279
309	0.279
310	0.278
310	0.277
311	0.276
311	0.275
311	0.275
312	0.274
312	0.273
313	0.272
313	0.272
314	0.271
314	0.27
315	0.269
315	0.268
316	0.267
316	0.266
317	0.265
317	0.264
318	0.263
318	0.262
318	0.261
319	0.261
319	0.26
320	0.259
320	0.258
321	0.257
321	0.256
322	0.255
322	0.254
323	0.253
323	0.252
324	0.251
324	0.25
324	0.25
325	0.249
325	0.248
326	0.247
326	0.246
327	0.246
327	0.245
328	0.244
328	0.243
329	0.242
329	0.241
330	0.24
330	0.239
330	0.238
331	0.238
331	0.237
332	0.236
332	0.235
333	0.234
333	0.233
334	0.232
334	0.232
335	0.231
335	0.23
336	0.23
336	0.229
336	0.228
337	0.227
337	0.227
338	0.226
338	0.225
339	0.225
339	0.224
340	0.223
340	0.223
341	0.222
341	0.221
342	0.22
342	0.22
342	0.219
343	0.218
343	0.218
344	0.217
344	0.216
345	0.215
345	0.215
346	0.214
346	0.213
347	0.212
347	0.212
348	0.211
348	0.21
348	0.209
349	0.208
349	0.208
350	0.207
350	0.206
351	0.206
351	0.205
352	0.204
352	0.203
353	0.203
353	0.202
354	0.201
354	0.2
354	0.199
355	0.198
355	0.197
356	0.196
356	0.195
357	0.195
357	0.194
358	0.194
358	0.194
359	0.195
359	0.196
360	0.196
360	0.197
360	0.198
361	0.198
361	0.199
362	0.199
362	0.199
363	0.199
363	0.198
364	0.198
364	0.197
365	0.197
365	0.196
366	0.196
366	0.195
366	0.195
367	0.195
367	0.194
368	0.194
368	0.193
369	0.193
369	0.192
370	0.192
370	0.192
371	0.191
371	0.19
372	0.19
372	0.19
372	0.189
373	0.189
373	0.189
374	0.188
374	0.188
375	0.188
375	0.188
376	0.188
376	0.188
377	0.188
377	0.188
378	0.189
378	0.189
378	0.189
379	0.189
379	0.189
380	0.189
380	0.189
381	0.189
381	0.188
382	0.188
382	0.187
383	0.187
383	0.186
383	0.186
384	0.185
384	0.185
385	0.184
385	0.184
386	0.184
386	0.184
387	0.184
387	0.184
388	0.183
388	0.183
389	0.183
389	0.183
389	0.183
390	0.183
390	0.183
391	0.184
391	0.184
392	0.184
392	0.184
393	0.184
393	0.184
394	0.183
394	0.183
394	0.183
395	0.183
395	0.182
396	0.182
396	0.182
397	0.182
397	0.182
398	0.182
398	0.182
399	0.182
399	0.182
400	0.181
400	0.181
400	0.18
401	0.18
401	0.179
402	0.178
402	0.177
403	0.176
403	0.176
404	0.176
404	0.176
405	0.175
405	0.175
405	0.175
406	0.174
406	0.174
407	0.174
407	0.173
408	0.173
408	0.172
409	0.171
409	0.171
410	0.171
410	0.171
411	0.171
411	0.171
411	0.171
412	0.17
412	0.17
413	0.169
413	0.169
414	0.169
414	0.169
415	0.168
415	0.168
416	0.167
416	0.167
416	0.166
417	0.166
417	0.166
418	0.166
418	0.166
419	0.166
419	0.166
420	0.167
420	0.167
421	0.168
421	0.168
421	0.168
422	0.168
422	0.168
423	0.168
423	0.168
424	0.168
424	0.167
425	0.166
425	0.165
426	0.164
426	0.164
427	0.163
427	0.164
427	0.164
428	0.164
428	0.165
429	0.166
429	0.166
430	0.166
430	0.166
431	0.166
431	0.165
432	0.165
432	0.164
432	0.163
433	0.162
433	0.161
434	0.16
434	0.16
435	0.16
435	0.16
436	0.159
436	0.16
437	0.16
437	0.159
437	0.16
438	0.16
438	0.159
439	0.159
439	0.159
440	0.158
440	0.158
441	0.158
441	0.158
442	0.158
442	0.159
442	0.159
443	0.159
443	0.159
444	0.159
444	0.16
445	0.16
445	0.16
446	0.16
446	0.16
447	0.16
447	0.159
447	0.159
448	0.159
448	0.159
449	0.159
449	0.158
450	0.158
450	0.158
451	0.158
451	0.157
452	0.156
452	0.156
452	0.155
453	0.155
453	0.154
454	0.154
454	0.153
455	0.153
455	0.153
456	0.152
456	0.152
457	0.152
457	0.152
458	0.152
458	0.152
458	0.152
459	0.152
459	0.152
460	0.152
460	0.151
461	0.15
461	0.15
462	0.15
462	0.15
463	0.15
463	0.151
463	0.151
464	0.152
464	0.152
465	0.152
465	0.152
466	0.153
466	0.153
467	0.153
467	0.152
467	0.151
468	0.15
468	0.148
469	0.146
469	0.144
470	0.143
470	0.143
471	0.142
471	0.142
472	0.142
472	0.142
472	0.142
473	0.143
473	0.145
474	0.146
474	0.147
475	0.148
475	0.149
476	0.149
476	0.149
477	0.15
477	0.15
477	0.151
478	0.151
478	0.152
479	0.152
479	0.153
480	0.154
480	0.155
481	0.156
481	0.157
482	0.157
482	0.159
482	0.16
483	0.162
483	0.165
484	0.169
484	0.172
485	0.174
485	0.175
486	0.177
486	0.178
487	0.179
487	0.179
487	0.179
488	0.179
488	0.177
489	0.175
489	0.172
490	0.171
490	0.17
491	0.17
491	0.17
492	0.171
492	0.172
492	0.172
493	0.173
493	0.174
494	0.176
494	0.178
495	0.181
495	0.182
496	0.184
496	0.185
496	0.186
497	0.187
497	0.188
498	0.189
498	0.189
499	0.19
499	0.19
500	0.191
500	0.192
501	0.193
501	0.195
501	0.197
502	0.198
502	0.2
503	0.202
503	0.204
504	0.205
504	0.205
505	0.206
505	0.207
506	0.207
506	0.208
506	0.208
507	0.208
507	0.208
508	0.208
508	0.209
509	0.209
509	0.21
510	0.21
510	0.21
511	0.21
511	0.21
511	0.211
512	0.211
512	0.211
513	0.211
513	0.209
514	0.208
514	0.207
515	0.207
515	0.207
515	0.207
516	0.206
516	0.206
517	0.206
517	0.206
518	0.205
518	0.204
519	0.202
519	0.2
520	0.197
520	0.193
520	0.191
521	0.188
521	0.186
522	0.184
522	0.183
523	0.183
523	0.185
524	0.188
524	0.191
524	0.195
525	0.198
525	0.201
526	0.204
526	0.207
527	0.209
527	0.211
528	0.213
528	0.215
529	0.215
529	0.215
529	0.215
530	0.215
530	0.215
531	0.215
531	0.215
532	0.214
532	0.214
533	0.213
533	0.213
533	0.213
534	0.213
534	0.212
535	0.211
535	0.21
536	0.209
536	0.209
537	0.208
537	0.208
538	0.206
538	0.205
538	0.203
539	0.202
539	0.201
540	0.2
540	0.199
541	0.197
541	0.195
542	0.193
542	0.191
542	0.189
543	0.188
543	0.186
544	0.185
544	0.183
545	0.182
545	0.182
546	0.181
546	0.181
547	0.179
547	0.177
547	0.174
548	0.172
548	0.17
549	0.168
549	0.166
550	0.164
550	0.161
551	0.158
551	0.156
551	0.154
552	0.152
552	0.151
553	0.15
553	0.149
554	0.148
554	0.147
555	0.144
555	0.141
556	0.138
556	0.135
556	0.132
557	0.128
557	0.126
558	0.123
558	0.121
559	0.119
559	0.117
560	0.116
560	0.115
560	0.115
561	0.114
561	0.114
562	0.114
562	0.113
563	0.112
563	0.109
564	0.106
564	0.104
564	0.101
565	0.099
565	0.097
566	0.095
566	0.094
567	0.093
567	0.094
568	0.094
568	0.095
568	0.097
569	0.099
569	0.101
570	0.102
570	0.102
571	0.103
571	0.104
572	0.104
572	0.104
573	0.104
573	0.104
573	0.103
574	0.102
574	0.101
575	0.101
575	0.102
576	0.102
576	0.102
577	0.101
577	0.1
577	0.099
578	0.098
578	0.097
579	0.097
579	0.098
580	0.098
580	0.096
581	0.093
581	0.091
581	0.09
582	0.089
582	0.089
583	0.09
583	0.089
584	0.087
584	0.084
585	0.082
585	0.081
585	0.08
586	0.08
586	0.079
587	0.078
587	0.076
588	0.073
588	0.07
589	0.067
589	0.066
590	0.064
590	0.062
590	0.062
591	0.062
591	0.062
592	0.061
592	0.061
593	0.06
593	0.061
594	0.06
594	0.06
594	0.059
595	0.059
595	0.058
596	0.057
596	0.057
597	0.059
597	0.06
598	0.061
598	0.062
598	0.063
599	0.063
599	0.063
600	0.062
600	0.061
601	0.06
601	0.059
602	0.057
602	0.056
602	0.054
603	0.053
603	0.052
604	0.053
604	0.053
605	0.054
605	0.055
606	0.056
606	0.055
606	0.055
607	0.054
607	0.054
608	0.054
608	0.052
609	0.051
609	0.05
610	0.049
610	0.048
610	0.047
611	0.048
611	0.048
612	0.05
612	0.051
613	0.053
613	0.055
614	0.055
614	0.056
614	0.056
615	0.056
615	0.056
616	0.055
616	0.055
617	0.054
617	0.052
618	0.051
618	0.049
618	0.048
619	0.047
619	0.047
620	0.048
620	0.049
621	0.049
621	0.049
622	0.05
622	0.051
622	0.051
623	0.051
623	0.052
624	0.053
624	0.053
625	0.052
625	0.053
626	0.053
626	0.053
626	0.053
627	0.054
627	0.054
628	0.055
628	0.055
629	0.055
629	0.056
630	0.055
630	0.055
630	0.054
631	0.055
631	0.055
632	0.055
632	0.055
633	0.056
633	0.057
634	0.058
634	0.06
634	0.062
635	0.064
635	0.065
636	0.067
636	0.068
637	0.069
637	0.07
638	0.071
638	0.072
638	0.073
639	0.073
639	0.074
640	0.074
640	0.076
641	0.077
641	0.079
642	0.081
642	0.084
642	0.086
643	0.088
643	0.091
644	0.093
644	0.095
645	0.098
645	0.1
646	0.102
646	0.105
646	0.108
647	0.111
647	0.115
648	0.118
648	0.121
649	0.124
649	0.127
650	0.13
650	0.134
650	0.137
651	0.14
651	0.142
652	0.144
652	0.146
653	0.148
653	0.156
653	0.171
654	0.139
654	0.115
655	0.121
655	0.124
656	0.126
656	0.128
657	0.13
657	0.133
657	0.134
658	0.133
658	0.122
659	0.152
659	0.194
660	0.195
660	0.196
661	0.198
661	0.2
661	0.202
662	0.205
662	0.208
663	0.211
663	0.214
664	0.217
664	0.22
665	0.223
665	0.226
665	0.229
666	0.232
666	0.235
667	0.238
667	0.241
668	0.244
668	0.246
669	0.249
669	0.252
669	0.256
670	0.26
670	0.264
671	0.267
671	0.269
672	0.272
672	0.273
672	0.275
673	0.277
673	0.279
674	0.28
674	0.281
675	0.281
675	0.281
676	0.283
676	0.284
676	0.286
677	0.288
677	0.29
678	0.291
678	0.293
679	0.294
679	0.295
680	0.297
680	0.299
680	0.3
681	0.3
681	0.301
682	0.302
682	0.303
683	0.305
683	0.307
684	0.309
684	0.31
684	0.31
685	0.31
685	0.311
686	0.312
686	0.312
687	0.311
687	0.31
687	0.309
688	0.308
688	0.306
689	0.306
689	0.307
690	0.307
690	0.307
691	0.307
691	0.307
691	0.307
692	0.307
692	0.306
693	0.306
693	0.307
694	0.306
694	0.305
695	0.304
695	0.306
695	0.307
696	0.306
696	0.305
697	0.304
697	0.303
698	0.302
698	0.3
698	0.298
699	0.296
699	0.293
700	0.29
700	0.286
701	0.284
701	0.283
702	0.281
702	0.279
702	0.277
703	0.275
703	0.274
704	0.272
704	0.27
705	0.269
705	0.268
705	0.267
706	0.266
706	0.265
707	0.264
707	0.262
708	0.26
708	0.259
709	0.258
709	0.257
709	0.254
710	0.25
710	0.247
711	0.245
711	0.242
712	0.24
712	0.237
713	0.235
713	0.233
713	0.231
714	0.228
714	0.226
715	0.224
715	0.222
716	0.219
716	0.217
716	0.215
717	0.213
717	0.21
718	0.207
718	0.204
719	0.201
719	0.199
720	0.196
720	0.193
720	0.189
721	0.185
721	0.181
722	0.177
722	0.174
723	0.171
723	0.168
723	0.166
724	0.164
724	0.162
725	0.159
725	0.157
726	0.155
726	0.154
727	0.152
727	0.15
727	0.148
728	0.145
728	0.143
729	0.142
729	0.141
730	0.139
730	0.137
730	0.135
731	0.134
731	0.132
732	0.131
732	0.129
733	0.127
733	0.125
734	0.122
734	0.119
734	0.116
735	0.114
735	0.111
736	0.108
736	0.105
737	0.102
737	0.1
737	0.097
738	0.094
738	0.091
739	0.089
739	0.086
740	0.084
740	0.082
741	0.08
741	0.078
741	0.075
742	0.07
742	0.067
743	0.064
743	0.061
744	0.058
744	0.056
744	0.053
745	0.051
745	0.049
746	0.047
746	0.045
747	0.044
747	0.043
748	0.043
748	0.043
748	0.042
749	0.041
749	0.04
750	0.039
750	0.037
751	0.037
751	0.036
751	0.036
752	0.035
752	0.034
753	0.033
753	0.031
754	0.031
754	0.03
754	0.029
755	0.029
755	0.029
756	0.029
756	0.027
757	0.025
757	0.024
758	0.023
758	0.021
758	0.02
759	0.019
759	0.016
760	0.013
760	0.01
761	0.008
761	0.006
761	0.005
762	0.003
762	0.002
763	0.002
763	-0
764	-0.003
764	-0.005
764	-0.007
765	-0.008
765	-0.01
766	-0.012
766	-0.013
767	-0.014
767	-0.016
768	-0.02
768	-0.022
768	-0.024
769	-0.025
769	-0.025
770	-0.026
770	-0.027
771	-0.029
771	-0.031
771	-0.034
772	-0.035
772	-0.037
773	-0.039
773	-0.042
774	-0.045
774	-0.048
775	-0.051
775	-0.055
775	-0.059
776	-0.063
776	-0.066
777	-0.07
777	-0.074
778	-0.078
778	-0.082
778	-0.086
779	-0.089
779	-0.092
780	-0.096
780	-0.101
781	-0.105
781	-0.11
781	-0.114
782	-0.119
782	-0.124
783	-0.129
783	-0.131
784	-0.134
784	-0.137
784	-0.139
785	-0.141
785	-0.143
786	-0.144
786	-0.142
787	-0.138
787	-0.134
788	-0.133
788	-0.134
788	-0.136
789	-0.138
789	-0.138
790	-0.136
790	-0.135
791	-0.136
791	-0.137
791	-0.14
792	-0.134
792	-0.123
793	-0.116
793	-0.112
794	-0.109
794	-0.11
794	-0.113
795	-0.115
795	-0.115
796	-0.115
796	-0.118
797	-0.126
797	-0.138
797	-0.144
798	-0.15
798	-0.154
799	-0.155
799	-0.155
800	-0.155
800	-0.157
801	-0.16
801	-0.161
801	-0.161
802	-0.162
802	-0.163
803	-0.164
803	-0.163
804	-0.162
804	-0.156
804	-0.149
805	-0.145
805	-0.143
806	-0.14
806	-0.139
807	-0.138
807	-0.137
807	-0.136
808	-0.136
808	-0.136
809	-0.14
809	-0.146
810	-0.149
810	-0.151
810	-0.154
811	-0.157
811	-0.157
812	-0.154
812	-0.151
813	-0.151
813	-0.152
813	-0.154
814	-0.155
814	-0.156
815	-0.155
815	-0.152
816	-0.151
816	-0.152
817	-0.157
817	-0.161
817	-0.162
818	-0.161
818	-0.158
819	-0.153
819	-0.15
820	-0.151
820	-0.153
820	-0.154
821	-0.154
821	-0.153
822	-0.152
822	-0.15
823	-0.147
823	-0.147
823	-0.148
824	-0.146
824	-0.142
825	-0.135
825	-0.127
826	-0.119
826	-0.112
826	-0.105
827	-0.099
827	-0.093
828	-0.088
828	-0.083
829	-0.078
829	-0.074
829	-0.07
830	-0.068
830	-0.064
831	-0.06
831	-0.056
832	-0.052
832	-0.049
832	-0.046
833	-0.044
833	-0.042
834	-0.04
834	-0.039
835	-0.039
835	-0.038
835	-0.039
836	-0.039
836	-0.039
837	-0.039
837	-0.039
838	-0.038
838	-0.038
839	-0.037
839	-0.037
839	-0.036
840	-0.036
840	-0.034
841	-0.033
841	-0.032
842	-0.031
842	-0.03
842	-0.029
843	-0.028
843	-0.027
844	-0.026
844	-0.025
845	-0.024
845	-0.024
845	-0.023
846	-0.022
846	-0.021
847	-0.02
847	-0.019
848	-0.017
848	-0.016
848	-0.015
849	-0.014
849	-0.013
850	-0.012
850	-0.012
851	-0.012
851	-0.011
851	-0.011
852	-0.011
852	-0.011
853	-0.012
853	-0.012
854	-0.012
854	-0.012
854	-0.012
855	-0.012
855	-0.012
856	-0.012
856	-0.011
857	-0.011
857	-0.01
857	-0.009
858	-0.009
858	-0.008
859	-0.008
859	-0.007
860	-0.007
860	-0.006
860	-0.005
861	-0.004
861	-0.004
862	-0.004
862	-0.003
863	-0.003
863	-0.002
863	-0.002
864	-0.001
864	-0.001
865	-0
865	0
866	0.001
866	0.001
866	0.002
867	0.003
867	0.003
868	0.003
868	0.003
869	0.003
869	0.002
869	0.001
870	0.001
870	0
871	-0
871	-0.001
872	-0.003
872	-0.004
872	-0.004
873	-0.005
873	-0.006
874	-0.006
874	-0.007
875	-0.008
875	-0.009
875	-0.009
876	-0.009
876	-0.009
877	-0.009
877	-0.009
878	-0.009
878	-0.008
878	-0.008
879	-0.007
879	-0.006
880	-0.005
880	-0.005
881	-0.004
881	-0.003
881	-0.002
882	-0.001
882	-0.001
883	0
883	0.001
884	0.002
884	0.003
884	0.004
885	0.004
885	0.005
886	0.005
886	0.005
887	0.006
887	0.006
887	0.006
888	0.005
888	0.005
889	0.006
889	0.006
890	0.007
890	0.008
890	0.009
891	0.01
891	0.01
892	0.011
892	0.012
893	0.013
893	0.014
893	0.015
894	0.015
894	0.015
895	0.015
895	0.015
895	0.015
896	0.015
896	0.015
897	0.014
897	0.014
898	0.013
898	0.011
898	0.01
899	0.009
899	0.008
900	0.006
900	0.005
901	0.004
901	0.003
901	0.002
902	0.001
902	0.001
903	0
903	-0
904	-0
904	-0
904	0
905	0.001
905	0.001
906	0.001
906	0.002
907	0.002
907	0.002
907	0.002
908	0.002
908	0.001
909	0.001
909	0.001
910	0.001
910	0.001
910	0.001
911	0.001
911	0.001
912	0.002
912	0.002
913	0.003
913	0.005
913	0.006
914	0.007
914	0.008
915	0.009
915	0.011
916	0.012
916	0.012
916	0.013
917	0.014
917	0.014
918	0.014
918	0.014
918	0.013
919	0.013
919	0.012
920	0.012
920	0.011
921	0.01
921	0.009
921	0.008
922	0.008
922	0.007
923	0.006
923	0.005
924	0.004
924	0.003
924	0.003
925	0.003
925	0.003
926	0.003
926	0.003
927	0.003
927	0.004
927	0.004
928	0.005
928	0.006
929	0.006
929	0.007
930	0.007
930	0.007
930	0.007
931	0.008
931	0.008
932	0.008
932	0.008
933	0.009
933	0.009
933	0.009
934	0.01
934	0.01
935	0.01
935	0.011
935	0.011
936	0.011
936	0.011
937	0.011
937	0.011
938	0.01
938	0.01
938	0.009
939	0.009
939	0.009
940	0.009
940	0.009
941	0.009
941	0.009
941	0.01
942	0.011
942	0.012
943	0.013
943	0.014
944	0.014
944	0.015
944	0.016
945	0.016
945	0.017
946	0.017
946	0.018
946	0.018
947	0.018
947	0.018
948	0.018
948	0.018
949	0.018
949	0.017
949	0.017
950	0.017
950	0.016
951	0.016
951	0.015
952	0.015
952	0.015
952	0.015
953	0.015
953	0.015
954	0.015
954	0.015
955	0.014
955	0.014
955	0.014
956	0.015
956	0.015
957	0.014
957	0.014
957	0.014
958	0.014
958	0.013
959	0.013
959	0.013
960	0.013
960	0.013
960	0.013
961	0.013
961	0.013
962	0.013
962	0.013
963	0.013
963	0.012
963	0.012
964	0.012
964	0.012
965	0.011
965	0.011
966	0.011
966	0.011
966	0.011
967	0.01
967	0.01
968	0.01
968	0.01
968	0.01
969	0.01
969	0.011
970	0.011
970	0.011
971	0.012
971	0.012
971	0.013
972	0.014
972	0.015
973	0.016
973	0.017
974	0.017
974	0.018
974	0.018
975	0.018
975	0.018
976	0.017
976	0.017
976	0.016
977	0.015
977	0.014
978	0.013
978	0.012
979	0.011
979	0.01
979	0.009
980	0.008
980	0.007
981	0.007
981	0.006
982	0.006
982	0.006
982	0.005
983	0.005
983	0.005
984	0.005
984	0.005
984	0.005
985	0.005
985	0.004
986	0.003
986	0.003
987	0.002
987	0.002
987	0.002
988	0.002
988	0.002
989	0.002
989	0.002
990	0.003
990	0.003
990	0.004
991	0.005
991	0.005
992	0.005
992	0.005
992	0.005
993	0.005
993	0.004
994	0.004
994	0.004
995	0.003
995	0.003
995	0.003
996	0.002
996	0.002
997	0.001
997	0.001
997	0
998	0
998	-0
999	-0
999	-0
1000	-0.001
1000	-0.001
1000	-0.001
1001	-0
1001	-0
1002	-0
1002	0
1003	0
1003	0
1003	0
1004	0
1004	0
1005	-0
1005	-0
1005	-0.001
1006	-0.002
1006	-0.002
1007	-0.003
1007	-0.003
1008	-0.003
1008	-0.004
1008	-0.004
1009	-0.003
1009	-0.003
1010	-0.002
1010	-0.001
1010	-0
1011	0.001
1011	0.001
1012	0.003
1012	0.003
1013	0.004
1013	0.005
1013	0.005
1014	0.006
1014	0.005
1015	0.005
1015	0.005
1016	0.005
1016	0.005
1016	0.004
1017	0.004
1017	0.005
1018	0.005
1018	0.005
1018	0.005
1019	0.006
1019	0.006
1020	0.006
1020	0.007
1021	0.007
1021	0.007
1021	0.007
1022	0.007
1022	0.007
1023	0.007
1023	0.007
1023	0.007
1024	0.006
1024	0.006
1025	0.007
1025	0.007
1026	0.007
1026	0.008
1026	0.008
1027	0.008
1027	0.009
1028	0.009
1028	0.009
1028	0.01
1029	0.01
1029	0.01
1030	0.01
1030	0.01
1031	0.009
1031	0.009
1031	0.009
1032	0.008
1032	0.008
1033	0.007
1033	0.007
1033	0.006
1034	0.006
1034	0.005
1035	0.005
1035	0.005
1036	0.005
1036	0.005
1036	0.005
1037	0.006
1037	0.006
1038	0.007
1038	0.007
1039	0.008
1039	0.009
1039	0.009
1040	0.01
1040	0.01
1041	0.011
1041	0.012
1041	0.012
1042	0.013
1042	0.013
1043	0.014
1043	0.015
1044	0.016
1044	0.017
1044	0.018
1045	0.019
1045	0.021
1046	0.022
1046	0.023
1046	0.025
1047	0.027
1047	0.029
1048	0.03
1048	0.032
1049	0.033
1049	0.034
1049	0.035
1050	0.035
1050	0.035
1051	0.035
1051	0.035
1051	0.035
1052	0.034
1052	0.034
1053	0.033
1053	0.032
1053	0.032
1054	0.031
1054	0.031
1055	0.03
1055	0.029
1056	0.029
1056	0.028
1056	0.027
1057	0.026
1057	0.026
1058	0.026
1058	0.026
1058	0.026
1059	0.026
1059	0.026
1060	0.027
1060	0.027
1061	0.028
1061	0.029
1061	0.029
1062	0.03
1062	0.03
1063	0.031
1063	0.031
1063	0.032
1064	0.033
1064	0.034
1065	0.036
1065	0.037
1066	0.039
1066	0.042
1066	0.044
1067	0.046
1067	0.048
1068	0.051
1068	0.052
1068	0.054
1069	0.055
1069	0.056
1070	0.058
1070	0.059
1071	0.059
1071	0.061
1071	0.062
1072	0.063
1072	0.065
1073	0.066
1073	0.067
1073	0.068
1074	0.07
1074	0.072
1075	0.071
1075	0.072
1076	0.072
1076	0.073
1076	0.073
1077	0.074
1077	0.076
1078	0.078
1078	0.079
1078	0.081
1079	0.083
1079	0.086
1080	0.087
1080	0.09
1080	0.093
1081	0.095
1081	0.097
1082	0.1
1082	0.101
1083	0.104
1083	0.106
1083	0.109
1084	0.112
1084	0.116
1085	0.12
1085	0.123
1085	0.126
1086	0.129
1086	0.132
1087	0.136
1087	0.14
1088	0.143
1088	0.147
1088	0.152
1089	0.155
1089	0.16
1090	0.165
1090	0.172
1090	0.179
1091	0.187
1091	0.195
1092	0.203
1092	0.213
1092	0.223
1093	0.232
1093	0.244
1094	0.255
1094	0.268
1095	0.28
1095	0.295
1095	0.312
1096	0.33
1096	0.351
1097	0.374
1097	0.398
1097	0.426
1098	0.455
1098	0.489
1099	0.529
1099	0.576
1100	0.63
1100	0.697
1100	0.779
1101	0.889
1101	1.043
1102	1.316
1102	2.594
1102	-0
1103	-0
1103	-0
1104	-0
1104	-0
1104	-0
1105	-0
1105	-0
1106	-0
1106	-0
1107	-0
1107	-0
1107	-0
1108	-0
1108	-0
1109	-0
1109	-0
1109	-0
1110	-0
1110	-0
1111	-0
1111	-0
