Data from 15c-2-4a_Absorbance__2123__02123.txt Node

Date: Thu Jan 25 11:14:56 CET 2024
User: Marek
Spectrometer: MAYP115816
Trigger mode: 0
Integration Time (sec): 2.000000E-1
Scans to average: 10
Electric dark correction enabled: true
Nonlinearity correction enabled: true
Boxcar width: 5
XAxis mode: Wavelengths
Number of Pixels in Spectrum: 2068
>>>>>Begin Spectral Data<<<<<
199	-2.19
199	-2.019
200	-1.866
200	-1.743
201	-1.665
201	-1.608
202	-1.525
202	-1.463
203	-1.411
203	-1.365
204	-1.338
204	-1.31
205	-1.289
205	-1.277
205	-1.271
206	-1.267
206	-1.263
207	-1.263
207	-1.26
208	-1.255
208	-1.251
209	-1.246
209	-1.244
210	-1.241
210	-1.239
211	-1.238
211	-1.236
212	-1.233
212	-1.23
213	-1.229
213	-1.229
213	-1.229
214	-1.228
214	-1.227
215	-1.225
215	-1.223
216	-1.221
216	-1.219
217	-1.218
217	-1.215
218	-1.213
218	-1.211
219	-1.209
219	-1.206
220	-1.205
220	-1.201
221	-1.198
221	-1.195
221	-1.192
222	-1.189
222	-1.187
223	-1.182
223	-1.176
224	-1.169
224	-1.16
225	-1.151
225	-1.142
226	-1.131
226	-1.119
227	-1.104
227	-1.09
228	-1.07
228	-1.051
229	-1.029
229	-1.005
229	-0.979
230	-0.949
230	-0.918
231	-0.883
231	-0.843
232	-0.801
232	-0.756
233	-0.709
233	-0.66
234	-0.611
234	-0.56
235	-0.509
235	-0.458
236	-0.408
236	-0.36
236	-0.313
237	-0.267
237	-0.224
238	-0.182
238	-0.143
239	-0.106
239	-0.071
240	-0.038
240	-0.007
241	0.022
241	0.049
242	0.074
242	0.097
243	0.119
243	0.139
243	0.158
244	0.175
244	0.191
245	0.205
245	0.219
246	0.232
246	0.244
247	0.254
247	0.264
248	0.274
248	0.282
249	0.29
249	0.298
250	0.305
250	0.312
250	0.318
251	0.324
251	0.33
252	0.335
252	0.34
253	0.345
253	0.35
254	0.354
254	0.358
255	0.361
255	0.365
256	0.368
256	0.371
257	0.374
257	0.377
258	0.379
258	0.38
258	0.382
259	0.384
259	0.385
260	0.387
260	0.388
261	0.389
261	0.39
262	0.39
262	0.391
263	0.391
263	0.392
264	0.392
264	0.393
265	0.393
265	0.393
265	0.393
266	0.393
266	0.392
267	0.392
267	0.392
268	0.391
268	0.39
269	0.39
269	0.389
270	0.388
270	0.386
271	0.385
271	0.384
272	0.383
272	0.382
272	0.38
273	0.379
273	0.377
274	0.376
274	0.374
275	0.373
275	0.371
276	0.37
276	0.368
277	0.366
277	0.364
278	0.361
278	0.359
278	0.357
279	0.356
279	0.354
280	0.353
280	0.352
281	0.351
281	0.35
282	0.349
282	0.348
283	0.347
283	0.347
284	0.346
284	0.345
285	0.343
285	0.342
285	0.341
286	0.339
286	0.338
287	0.337
287	0.335
288	0.334
288	0.332
289	0.331
289	0.33
290	0.329
290	0.328
291	0.326
291	0.325
292	0.324
292	0.323
292	0.322
293	0.321
293	0.32
294	0.319
294	0.318
295	0.318
295	0.317
296	0.316
296	0.315
297	0.314
297	0.313
298	0.312
298	0.311
298	0.31
299	0.309
299	0.309
300	0.308
300	0.307
301	0.306
301	0.305
302	0.304
302	0.304
303	0.303
303	0.302
304	0.302
304	0.301
305	0.3
305	0.299
305	0.298
306	0.297
306	0.296
307	0.295
307	0.294
308	0.294
308	0.293
309	0.292
309	0.291
310	0.29
310	0.289
311	0.288
311	0.287
311	0.287
312	0.286
312	0.285
313	0.284
313	0.283
314	0.282
314	0.281
315	0.28
315	0.279
316	0.278
316	0.277
317	0.276
317	0.275
318	0.274
318	0.273
318	0.272
319	0.271
319	0.27
320	0.27
320	0.269
321	0.267
321	0.267
322	0.266
322	0.265
323	0.264
323	0.263
324	0.262
324	0.261
324	0.26
325	0.259
325	0.258
326	0.257
326	0.256
327	0.255
327	0.255
328	0.254
328	0.253
329	0.252
329	0.251
330	0.251
330	0.25
330	0.249
331	0.248
331	0.247
332	0.246
332	0.245
333	0.244
333	0.243
334	0.242
334	0.242
335	0.241
335	0.24
336	0.239
336	0.238
336	0.238
337	0.237
337	0.236
338	0.236
338	0.235
339	0.234
339	0.234
340	0.233
340	0.232
341	0.231
341	0.23
342	0.23
342	0.229
342	0.228
343	0.227
343	0.227
344	0.226
344	0.225
345	0.225
345	0.224
346	0.223
346	0.222
347	0.222
347	0.221
348	0.22
348	0.22
348	0.219
349	0.218
349	0.217
350	0.216
350	0.216
351	0.215
351	0.214
352	0.213
352	0.213
353	0.212
353	0.211
354	0.21
354	0.209
354	0.208
355	0.206
355	0.205
356	0.204
356	0.204
357	0.203
357	0.202
358	0.202
358	0.203
359	0.203
359	0.204
360	0.205
360	0.205
360	0.206
361	0.207
361	0.207
362	0.208
362	0.208
363	0.207
363	0.207
364	0.206
364	0.206
365	0.205
365	0.205
366	0.204
366	0.204
366	0.204
367	0.203
367	0.203
368	0.202
368	0.202
369	0.201
369	0.201
370	0.201
370	0.2
371	0.199
371	0.199
372	0.198
372	0.198
372	0.198
373	0.197
373	0.197
374	0.197
374	0.197
375	0.196
375	0.196
376	0.196
376	0.196
377	0.196
377	0.197
378	0.197
378	0.197
378	0.197
379	0.197
379	0.197
380	0.197
380	0.197
381	0.197
381	0.196
382	0.196
382	0.196
383	0.195
383	0.195
383	0.194
384	0.194
384	0.193
385	0.193
385	0.192
386	0.192
386	0.192
387	0.192
387	0.192
388	0.192
388	0.192
389	0.192
389	0.191
389	0.191
390	0.192
390	0.192
391	0.192
391	0.192
392	0.192
392	0.192
393	0.192
393	0.192
394	0.192
394	0.191
394	0.191
395	0.19
395	0.19
396	0.189
396	0.189
397	0.189
397	0.189
398	0.189
398	0.189
399	0.189
399	0.188
400	0.188
400	0.188
400	0.187
401	0.187
401	0.186
402	0.185
402	0.184
403	0.183
403	0.183
404	0.183
404	0.183
405	0.182
405	0.182
405	0.182
406	0.181
406	0.181
407	0.181
407	0.181
408	0.18
408	0.18
409	0.179
409	0.178
410	0.178
410	0.178
411	0.178
411	0.178
411	0.178
412	0.177
412	0.176
413	0.176
413	0.176
414	0.176
414	0.176
415	0.175
415	0.175
416	0.174
416	0.174
416	0.173
417	0.172
417	0.172
418	0.172
418	0.172
419	0.173
419	0.173
420	0.174
420	0.175
421	0.175
421	0.175
421	0.175
422	0.176
422	0.175
423	0.176
423	0.175
424	0.175
424	0.174
425	0.173
425	0.172
426	0.171
426	0.171
427	0.17
427	0.17
427	0.171
428	0.171
428	0.172
429	0.172
429	0.173
430	0.173
430	0.173
431	0.173
431	0.172
432	0.172
432	0.171
432	0.17
433	0.169
433	0.168
434	0.167
434	0.167
435	0.166
435	0.166
436	0.166
436	0.166
437	0.167
437	0.167
437	0.167
438	0.166
438	0.166
439	0.166
439	0.166
440	0.165
440	0.165
441	0.165
441	0.165
442	0.165
442	0.165
442	0.165
443	0.165
443	0.166
444	0.166
444	0.166
445	0.166
445	0.166
446	0.166
446	0.166
447	0.166
447	0.165
447	0.165
448	0.165
448	0.165
449	0.165
449	0.164
450	0.164
450	0.164
451	0.163
451	0.163
452	0.163
452	0.162
452	0.161
453	0.161
453	0.16
454	0.16
454	0.159
455	0.159
455	0.159
456	0.159
456	0.158
457	0.158
457	0.158
458	0.158
458	0.158
458	0.158
459	0.158
459	0.158
460	0.158
460	0.157
461	0.156
461	0.156
462	0.156
462	0.156
463	0.156
463	0.157
463	0.158
464	0.158
464	0.158
465	0.159
465	0.159
466	0.159
466	0.159
467	0.159
467	0.158
467	0.157
468	0.156
468	0.154
469	0.152
469	0.15
470	0.149
470	0.149
471	0.148
471	0.148
472	0.148
472	0.148
472	0.149
473	0.15
473	0.151
474	0.152
474	0.154
475	0.155
475	0.156
476	0.156
476	0.157
477	0.157
477	0.157
477	0.158
478	0.158
478	0.159
479	0.159
479	0.16
480	0.161
480	0.162
481	0.162
481	0.163
482	0.164
482	0.165
482	0.167
483	0.169
483	0.172
484	0.176
484	0.179
485	0.181
485	0.183
486	0.184
486	0.185
487	0.186
487	0.187
487	0.187
488	0.186
488	0.184
489	0.182
489	0.18
490	0.178
490	0.177
491	0.176
491	0.177
492	0.178
492	0.178
492	0.179
493	0.18
493	0.181
494	0.183
494	0.186
495	0.188
495	0.189
496	0.191
496	0.192
496	0.193
497	0.194
497	0.195
498	0.196
498	0.196
499	0.196
499	0.196
500	0.197
500	0.199
501	0.2
501	0.202
501	0.204
502	0.206
502	0.208
503	0.209
503	0.211
504	0.212
504	0.212
505	0.213
505	0.214
506	0.214
506	0.215
506	0.215
507	0.215
507	0.215
508	0.216
508	0.216
509	0.217
509	0.218
510	0.219
510	0.218
511	0.218
511	0.219
511	0.219
512	0.22
512	0.22
513	0.219
513	0.218
514	0.216
514	0.215
515	0.215
515	0.215
515	0.215
516	0.214
516	0.214
517	0.214
517	0.213
518	0.212
518	0.211
519	0.209
519	0.207
520	0.204
520	0.201
520	0.198
521	0.196
521	0.194
522	0.192
522	0.192
523	0.193
523	0.195
524	0.198
524	0.201
524	0.205
525	0.208
525	0.212
526	0.215
526	0.217
527	0.22
527	0.222
528	0.223
528	0.224
529	0.225
529	0.225
529	0.225
530	0.224
530	0.224
531	0.224
531	0.224
532	0.223
532	0.223
533	0.223
533	0.222
533	0.222
534	0.222
534	0.221
535	0.22
535	0.219
536	0.218
536	0.218
537	0.217
537	0.216
538	0.214
538	0.213
538	0.211
539	0.21
539	0.209
540	0.208
540	0.207
541	0.205
541	0.203
542	0.201
542	0.199
542	0.197
543	0.196
543	0.195
544	0.193
544	0.191
545	0.19
545	0.19
546	0.19
546	0.189
547	0.187
547	0.185
547	0.182
548	0.18
548	0.177
549	0.175
549	0.173
550	0.17
550	0.168
551	0.165
551	0.162
551	0.16
552	0.158
552	0.157
553	0.156
553	0.155
554	0.154
554	0.153
555	0.15
555	0.148
556	0.144
556	0.141
556	0.137
557	0.134
557	0.131
558	0.128
558	0.126
559	0.124
559	0.123
560	0.122
560	0.121
560	0.12
561	0.12
561	0.12
562	0.12
562	0.119
563	0.118
563	0.115
564	0.112
564	0.109
564	0.106
565	0.104
565	0.103
566	0.101
566	0.099
567	0.099
567	0.099
568	0.099
568	0.101
568	0.102
569	0.104
569	0.106
570	0.107
570	0.108
571	0.108
571	0.109
572	0.109
572	0.109
573	0.109
573	0.109
573	0.108
574	0.106
574	0.106
575	0.105
575	0.106
576	0.107
576	0.107
577	0.105
577	0.104
577	0.103
578	0.102
578	0.101
579	0.102
579	0.103
580	0.102
580	0.1
581	0.097
581	0.095
581	0.093
582	0.093
582	0.092
583	0.093
583	0.093
584	0.091
584	0.087
585	0.085
585	0.084
585	0.084
586	0.083
586	0.083
587	0.081
587	0.079
588	0.076
588	0.073
589	0.071
589	0.069
590	0.067
590	0.066
590	0.066
591	0.066
591	0.066
592	0.066
592	0.065
593	0.065
593	0.065
594	0.065
594	0.064
594	0.063
595	0.063
595	0.062
596	0.06
596	0.061
597	0.063
597	0.064
598	0.065
598	0.066
598	0.067
599	0.068
599	0.068
600	0.067
600	0.066
601	0.065
601	0.063
602	0.061
602	0.06
602	0.058
603	0.056
603	0.056
604	0.056
604	0.057
605	0.058
605	0.059
606	0.06
606	0.059
606	0.059
607	0.058
607	0.058
608	0.058
608	0.057
609	0.056
609	0.055
610	0.054
610	0.052
610	0.052
611	0.052
611	0.053
612	0.054
612	0.055
613	0.056
613	0.058
614	0.059
614	0.059
614	0.059
615	0.059
615	0.058
616	0.058
616	0.057
617	0.056
617	0.055
618	0.053
618	0.052
618	0.051
619	0.05
619	0.05
620	0.051
620	0.052
621	0.052
621	0.053
622	0.053
622	0.054
622	0.054
623	0.054
623	0.055
624	0.057
624	0.057
625	0.057
625	0.057
626	0.057
626	0.057
626	0.058
627	0.058
627	0.059
628	0.06
628	0.06
629	0.06
629	0.06
630	0.06
630	0.059
630	0.059
631	0.06
631	0.06
632	0.06
632	0.06
633	0.06
633	0.061
634	0.062
634	0.063
634	0.065
635	0.067
635	0.069
636	0.07
636	0.072
637	0.073
637	0.074
638	0.076
638	0.077
638	0.078
639	0.079
639	0.079
640	0.08
640	0.082
641	0.084
641	0.085
642	0.087
642	0.09
642	0.092
643	0.094
643	0.096
644	0.098
644	0.101
645	0.103
645	0.106
646	0.108
646	0.111
646	0.114
647	0.118
647	0.122
648	0.125
648	0.128
649	0.131
649	0.134
650	0.137
650	0.14
650	0.143
651	0.146
651	0.148
652	0.15
652	0.152
653	0.155
653	0.163
653	0.18
654	0.146
654	0.121
655	0.127
655	0.129
656	0.132
656	0.134
657	0.137
657	0.139
657	0.14
658	0.138
658	0.126
659	0.158
659	0.201
660	0.203
660	0.205
661	0.207
661	0.208
661	0.211
662	0.214
662	0.217
663	0.221
663	0.224
664	0.227
664	0.23
665	0.232
665	0.235
665	0.238
666	0.24
666	0.243
667	0.245
667	0.248
668	0.25
668	0.253
669	0.256
669	0.259
669	0.264
670	0.268
670	0.272
671	0.276
671	0.278
672	0.281
672	0.283
672	0.285
673	0.287
673	0.288
674	0.29
674	0.291
675	0.291
675	0.292
676	0.293
676	0.296
676	0.297
677	0.299
677	0.301
678	0.303
678	0.305
679	0.306
679	0.307
680	0.309
680	0.311
680	0.312
681	0.312
681	0.313
682	0.314
682	0.315
683	0.316
683	0.318
684	0.321
684	0.321
684	0.321
685	0.321
685	0.322
686	0.322
686	0.322
687	0.321
687	0.32
687	0.319
688	0.317
688	0.315
689	0.315
689	0.316
690	0.316
690	0.316
691	0.316
691	0.316
691	0.317
692	0.316
692	0.316
693	0.315
693	0.316
694	0.315
694	0.314
695	0.314
695	0.315
695	0.316
696	0.315
696	0.315
697	0.314
697	0.313
698	0.311
698	0.309
698	0.307
699	0.305
699	0.302
700	0.298
700	0.295
701	0.293
701	0.292
702	0.29
702	0.288
702	0.286
703	0.285
703	0.283
704	0.281
704	0.28
705	0.279
705	0.278
705	0.276
706	0.275
706	0.274
707	0.272
707	0.271
708	0.269
708	0.268
709	0.267
709	0.265
709	0.262
710	0.259
710	0.256
711	0.253
711	0.25
712	0.248
712	0.246
713	0.244
713	0.242
713	0.239
714	0.237
714	0.234
715	0.232
715	0.23
716	0.227
716	0.225
716	0.223
717	0.22
717	0.217
718	0.214
718	0.211
719	0.208
719	0.206
720	0.203
720	0.2
720	0.197
721	0.193
721	0.189
722	0.185
722	0.181
723	0.178
723	0.175
723	0.173
724	0.17
724	0.167
725	0.165
725	0.162
726	0.16
726	0.158
727	0.156
727	0.154
727	0.152
728	0.15
728	0.148
729	0.147
729	0.146
730	0.144
730	0.142
730	0.141
731	0.139
731	0.137
732	0.136
732	0.135
733	0.133
733	0.13
734	0.128
734	0.124
734	0.121
735	0.119
735	0.116
736	0.112
736	0.109
737	0.106
737	0.104
737	0.102
738	0.099
738	0.096
739	0.093
739	0.091
740	0.088
740	0.087
741	0.085
741	0.083
741	0.08
742	0.075
742	0.071
743	0.068
743	0.065
744	0.062
744	0.059
744	0.057
745	0.054
745	0.051
746	0.049
746	0.047
747	0.046
747	0.045
748	0.044
748	0.044
748	0.043
749	0.042
749	0.041
750	0.04
750	0.038
751	0.037
751	0.037
751	0.037
752	0.036
752	0.035
753	0.034
753	0.033
754	0.032
754	0.031
754	0.031
755	0.032
755	0.032
756	0.032
756	0.03
757	0.028
757	0.027
758	0.026
758	0.024
758	0.023
759	0.022
759	0.019
760	0.016
760	0.012
761	0.009
761	0.007
761	0.006
762	0.004
762	0.003
763	0.002
763	0
764	-0.002
764	-0.004
764	-0.006
765	-0.008
765	-0.009
766	-0.011
766	-0.012
767	-0.013
767	-0.015
768	-0.019
768	-0.021
768	-0.022
769	-0.023
769	-0.023
770	-0.024
770	-0.025
771	-0.027
771	-0.029
771	-0.031
772	-0.033
772	-0.035
773	-0.037
773	-0.039
774	-0.042
774	-0.046
775	-0.049
775	-0.053
775	-0.057
776	-0.061
776	-0.065
777	-0.068
777	-0.072
778	-0.076
778	-0.08
778	-0.084
779	-0.087
779	-0.089
780	-0.093
780	-0.098
781	-0.102
781	-0.107
781	-0.112
782	-0.117
782	-0.122
783	-0.127
783	-0.13
784	-0.133
784	-0.136
784	-0.138
785	-0.141
785	-0.143
786	-0.144
786	-0.142
787	-0.138
787	-0.134
788	-0.133
788	-0.134
788	-0.136
789	-0.138
789	-0.138
790	-0.136
790	-0.135
791	-0.135
791	-0.137
791	-0.139
792	-0.134
792	-0.123
793	-0.116
793	-0.111
794	-0.109
794	-0.11
794	-0.113
795	-0.115
795	-0.115
796	-0.115
796	-0.118
797	-0.126
797	-0.137
797	-0.144
798	-0.15
798	-0.154
799	-0.155
799	-0.155
800	-0.155
800	-0.157
801	-0.16
801	-0.161
801	-0.161
802	-0.162
802	-0.163
803	-0.164
803	-0.163
804	-0.162
804	-0.156
804	-0.149
805	-0.145
805	-0.143
806	-0.14
806	-0.139
807	-0.138
807	-0.137
807	-0.136
808	-0.136
808	-0.136
809	-0.14
809	-0.145
810	-0.148
810	-0.151
810	-0.154
811	-0.157
811	-0.157
812	-0.153
812	-0.15
813	-0.151
813	-0.152
813	-0.154
814	-0.155
814	-0.156
815	-0.154
815	-0.152
816	-0.151
816	-0.152
817	-0.157
817	-0.161
817	-0.162
818	-0.161
818	-0.158
819	-0.153
819	-0.15
820	-0.151
820	-0.153
820	-0.154
821	-0.154
821	-0.153
822	-0.152
822	-0.15
823	-0.148
823	-0.148
823	-0.15
824	-0.149
824	-0.144
825	-0.137
825	-0.129
826	-0.122
826	-0.115
826	-0.108
827	-0.101
827	-0.095
828	-0.09
828	-0.085
829	-0.08
829	-0.076
829	-0.072
830	-0.069
830	-0.066
831	-0.061
831	-0.057
832	-0.054
832	-0.05
832	-0.047
833	-0.044
833	-0.043
834	-0.041
834	-0.04
835	-0.039
835	-0.039
835	-0.039
836	-0.039
836	-0.039
837	-0.039
837	-0.039
838	-0.038
838	-0.038
839	-0.038
839	-0.037
839	-0.037
840	-0.036
840	-0.035
841	-0.033
841	-0.032
842	-0.031
842	-0.03
842	-0.029
843	-0.027
843	-0.026
844	-0.025
844	-0.024
845	-0.023
845	-0.022
845	-0.021
846	-0.021
846	-0.02
847	-0.019
847	-0.018
848	-0.017
848	-0.016
848	-0.015
849	-0.014
849	-0.013
850	-0.012
850	-0.012
851	-0.011
851	-0.011
851	-0.011
852	-0.011
852	-0.01
853	-0.01
853	-0.011
854	-0.011
854	-0.011
854	-0.011
855	-0.01
855	-0.01
856	-0.01
856	-0.01
857	-0.01
857	-0.01
857	-0.01
858	-0.009
858	-0.009
859	-0.009
859	-0.008
860	-0.008
860	-0.007
860	-0.007
861	-0.006
861	-0.005
862	-0.005
862	-0.005
863	-0.005
863	-0.005
863	-0.004
864	-0.004
864	-0.004
865	-0.004
865	-0.004
866	-0.004
866	-0.004
866	-0.004
867	-0.003
867	-0.003
868	-0.002
868	-0.002
869	-0.002
869	-0.002
869	-0.002
870	-0.002
870	-0.002
871	-0.002
871	-0.002
872	-0.003
872	-0.003
872	-0.003
873	-0.003
873	-0.004
874	-0.004
874	-0.004
875	-0.005
875	-0.006
875	-0.006
876	-0.006
876	-0.006
877	-0.006
877	-0.006
878	-0.005
878	-0.005
878	-0.004
879	-0.003
879	-0.003
880	-0.002
880	-0.001
881	-0
881	0.001
881	0.002
882	0.002
882	0.003
883	0.004
883	0.004
884	0.005
884	0.006
884	0.006
885	0.006
885	0.006
886	0.007
886	0.007
887	0.007
887	0.006
887	0.006
888	0.006
888	0.006
889	0.006
889	0.006
890	0.007
890	0.008
890	0.008
891	0.009
891	0.01
892	0.011
892	0.011
893	0.013
893	0.014
893	0.015
894	0.015
894	0.016
895	0.016
895	0.016
895	0.016
896	0.016
896	0.016
897	0.016
897	0.015
898	0.014
898	0.014
898	0.013
899	0.012
899	0.011
900	0.01
900	0.009
901	0.007
901	0.007
901	0.006
902	0.005
902	0.004
903	0.003
903	0.003
904	0.003
904	0.003
904	0.003
905	0.003
905	0.004
906	0.005
906	0.005
907	0.005
907	0.006
907	0.006
908	0.005
908	0.005
909	0.004
909	0.004
910	0.003
910	0.003
910	0.002
911	0.002
911	0.002
912	0.003
912	0.003
913	0.004
913	0.005
913	0.006
914	0.007
914	0.008
915	0.01
915	0.011
916	0.012
916	0.013
916	0.013
917	0.013
917	0.014
918	0.014
918	0.014
918	0.013
919	0.013
919	0.013
920	0.012
920	0.012
921	0.011
921	0.01
921	0.01
922	0.009
922	0.008
923	0.007
923	0.006
924	0.005
924	0.004
924	0.004
925	0.003
925	0.003
926	0.003
926	0.003
927	0.003
927	0.003
927	0.003
928	0.004
928	0.005
929	0.006
929	0.006
930	0.007
930	0.007
930	0.008
931	0.008
931	0.009
932	0.009
932	0.009
933	0.01
933	0.01
933	0.011
934	0.011
934	0.011
935	0.012
935	0.012
935	0.012
936	0.012
936	0.012
937	0.012
937	0.012
938	0.012
938	0.012
938	0.012
939	0.011
939	0.011
940	0.011
940	0.011
941	0.011
941	0.012
941	0.013
942	0.014
942	0.015
943	0.015
943	0.016
944	0.017
944	0.018
944	0.019
945	0.02
945	0.02
946	0.021
946	0.022
946	0.022
947	0.022
947	0.022
948	0.022
948	0.021
949	0.02
949	0.019
949	0.019
950	0.018
950	0.017
951	0.016
951	0.015
952	0.014
952	0.014
952	0.014
953	0.013
953	0.014
954	0.014
954	0.014
955	0.014
955	0.015
955	0.016
956	0.016
956	0.017
957	0.017
957	0.018
957	0.018
958	0.018
958	0.018
959	0.018
959	0.018
960	0.018
960	0.018
960	0.017
961	0.017
961	0.017
962	0.017
962	0.017
963	0.017
963	0.017
963	0.017
964	0.016
964	0.016
965	0.016
965	0.016
966	0.015
966	0.015
966	0.014
967	0.014
967	0.013
968	0.013
968	0.012
968	0.012
969	0.012
969	0.012
970	0.012
970	0.012
971	0.012
971	0.013
971	0.013
972	0.014
972	0.015
973	0.015
973	0.016
974	0.016
974	0.017
974	0.017
975	0.017
975	0.017
976	0.016
976	0.016
976	0.015
977	0.014
977	0.013
978	0.012
978	0.011
979	0.011
979	0.01
979	0.01
980	0.009
980	0.009
981	0.008
981	0.008
982	0.008
982	0.008
982	0.008
983	0.008
983	0.008
984	0.008
984	0.008
984	0.007
985	0.007
985	0.007
986	0.006
986	0.005
987	0.005
987	0.005
987	0.005
988	0.005
988	0.005
989	0.005
989	0.006
990	0.006
990	0.007
990	0.008
991	0.009
991	0.009
992	0.01
992	0.01
992	0.01
993	0.01
993	0.01
994	0.01
994	0.009
995	0.009
995	0.008
995	0.008
996	0.007
996	0.006
997	0.005
997	0.005
997	0.004
998	0.004
998	0.004
999	0.004
999	0.004
1000	0.004
1000	0.004
1000	0.004
1001	0.004
1001	0.004
1002	0.004
1002	0.004
1003	0.005
1003	0.004
1003	0.004
1004	0.004
1004	0.004
1005	0.003
1005	0.003
1005	0.002
1006	0.002
1006	0.001
1007	0.001
1007	0.001
1008	0.001
1008	0.001
1008	0.001
1009	0.001
1009	0.001
1010	0.002
1010	0.002
1010	0.003
1011	0.004
1011	0.004
1012	0.005
1012	0.005
1013	0.006
1013	0.006
1013	0.006
1014	0.006
1014	0.006
1015	0.006
1015	0.005
1016	0.005
1016	0.005
1016	0.005
1017	0.005
1017	0.005
1018	0.006
1018	0.007
1018	0.008
1019	0.008
1019	0.009
1020	0.01
1020	0.01
1021	0.011
1021	0.011
1021	0.011
1022	0.011
1022	0.012
1023	0.012
1023	0.012
1023	0.012
1024	0.012
1024	0.012
1025	0.012
1025	0.012
1026	0.012
1026	0.013
1026	0.013
1027	0.013
1027	0.014
1028	0.014
1028	0.015
1028	0.015
1029	0.015
1029	0.015
1030	0.015
1030	0.015
1031	0.015
1031	0.014
1031	0.014
1032	0.013
1032	0.012
1033	0.011
1033	0.011
1033	0.01
1034	0.009
1034	0.008
1035	0.008
1035	0.008
1036	0.008
1036	0.008
1036	0.008
1037	0.008
1037	0.009
1038	0.009
1038	0.01
1039	0.01
1039	0.011
1039	0.012
1040	0.012
1040	0.013
1041	0.013
1041	0.014
1041	0.015
1042	0.015
1042	0.016
1043	0.017
1043	0.018
1044	0.019
1044	0.02
1044	0.021
1045	0.023
1045	0.024
1046	0.025
1046	0.026
1046	0.028
1047	0.03
1047	0.031
1048	0.032
1048	0.034
1049	0.034
1049	0.035
1049	0.035
1050	0.035
1050	0.035
1051	0.035
1051	0.034
1051	0.034
1052	0.033
1052	0.032
1053	0.032
1053	0.031
1053	0.03
1054	0.03
1054	0.03
1055	0.029
1055	0.029
1056	0.028
1056	0.028
1056	0.027
1057	0.026
1057	0.026
1058	0.026
1058	0.026
1058	0.026
1059	0.026
1059	0.026
1060	0.027
1060	0.028
1061	0.028
1061	0.029
1061	0.031
1062	0.031
1062	0.032
1063	0.033
1063	0.034
1063	0.035
1064	0.036
1064	0.038
1065	0.039
1065	0.041
1066	0.043
1066	0.045
1066	0.048
1067	0.05
1067	0.052
1068	0.054
1068	0.056
1068	0.057
1069	0.058
1069	0.059
1070	0.06
1070	0.061
1071	0.061
1071	0.062
1071	0.063
1072	0.064
1072	0.065
1073	0.067
1073	0.068
1073	0.07
1074	0.071
1074	0.073
1075	0.073
1075	0.075
1076	0.075
1076	0.077
1076	0.077
1077	0.078
1077	0.079
1078	0.081
1078	0.083
1078	0.085
1079	0.087
1079	0.09
1080	0.092
1080	0.095
1080	0.097
1081	0.1
1081	0.103
1082	0.105
1082	0.107
1083	0.109
1083	0.112
1083	0.116
1084	0.119
1084	0.123
1085	0.127
1085	0.131
1085	0.135
1086	0.139
1086	0.142
1087	0.146
1087	0.15
1088	0.153
1088	0.157
1088	0.162
1089	0.166
1089	0.17
1090	0.176
1090	0.183
1090	0.19
1091	0.198
1091	0.207
1092	0.216
1092	0.228
1092	0.238
1093	0.248
1093	0.262
1094	0.274
1094	0.287
1095	0.3
1095	0.317
1095	0.335
1096	0.354
1096	0.375
1097	0.4
1097	0.425
1097	0.456
1098	0.489
1098	0.529
1099	0.574
1099	0.629
1100	0.693
1100	0.772
1100	0.873
1101	1.019
1101	1.241
1102	1.899
1102	-0
1102	-0
1103	-0
1103	-0
1104	-0
1104	-0
1104	-0
1105	-0
1105	-0
1106	-0
1106	-0
1107	-0
1107	-0
1107	-0
1108	-0
1108	-0
1109	-0
1109	-0
1109	-0
1110	-0
1110	-0
1111	-0
1111	-0
