Data from 15c-2-4a_Absorbance__974__00974.txt Node

Date: Thu Jan 25 10:36:38 CET 2024
User: Marek
Spectrometer: MAYP115816
Trigger mode: 0
Integration Time (sec): 2.000000E-1
Scans to average: 10
Electric dark correction enabled: true
Nonlinearity correction enabled: true
Boxcar width: 5
XAxis mode: Wavelengths
Number of Pixels in Spectrum: 2068
>>>>>Begin Spectral Data<<<<<
199	-2.154
199	-1.984
200	-1.83
200	-1.707
201	-1.629
201	-1.572
202	-1.489
202	-1.428
203	-1.375
203	-1.329
204	-1.302
204	-1.274
205	-1.253
205	-1.242
205	-1.236
206	-1.231
206	-1.228
207	-1.228
207	-1.224
208	-1.219
208	-1.216
209	-1.211
209	-1.208
210	-1.206
210	-1.203
211	-1.202
211	-1.201
212	-1.197
212	-1.194
213	-1.193
213	-1.193
213	-1.193
214	-1.192
214	-1.191
215	-1.189
215	-1.188
216	-1.185
216	-1.184
217	-1.182
217	-1.179
218	-1.178
218	-1.175
219	-1.173
219	-1.17
220	-1.169
220	-1.165
221	-1.162
221	-1.16
221	-1.156
222	-1.154
222	-1.152
223	-1.147
223	-1.141
224	-1.134
224	-1.125
225	-1.116
225	-1.108
226	-1.097
226	-1.085
227	-1.07
227	-1.056
228	-1.037
228	-1.018
229	-0.997
229	-0.973
229	-0.947
230	-0.917
230	-0.886
231	-0.851
231	-0.812
232	-0.771
232	-0.727
233	-0.681
233	-0.633
234	-0.585
234	-0.536
235	-0.487
235	-0.439
236	-0.391
236	-0.345
236	-0.301
237	-0.258
237	-0.218
238	-0.179
238	-0.143
239	-0.109
239	-0.077
240	-0.048
240	-0.02
241	0.006
241	0.03
242	0.052
242	0.072
243	0.091
243	0.108
243	0.124
244	0.139
244	0.152
245	0.165
245	0.177
246	0.188
246	0.198
247	0.207
247	0.215
248	0.223
248	0.231
249	0.238
249	0.244
250	0.25
250	0.256
250	0.262
251	0.267
251	0.272
252	0.276
252	0.281
253	0.285
253	0.289
254	0.293
254	0.296
255	0.299
255	0.302
256	0.305
256	0.308
257	0.31
257	0.312
258	0.314
258	0.315
258	0.317
259	0.319
259	0.32
260	0.322
260	0.322
261	0.323
261	0.324
262	0.325
262	0.325
263	0.326
263	0.326
264	0.326
264	0.326
265	0.326
265	0.326
265	0.326
266	0.326
266	0.325
267	0.325
267	0.325
268	0.324
268	0.324
269	0.323
269	0.322
270	0.321
270	0.32
271	0.319
271	0.318
272	0.317
272	0.316
272	0.315
273	0.313
273	0.312
274	0.311
274	0.31
275	0.309
275	0.307
276	0.306
276	0.304
277	0.303
277	0.301
278	0.299
278	0.297
278	0.295
279	0.293
279	0.292
280	0.291
280	0.29
281	0.289
281	0.288
282	0.287
282	0.287
283	0.286
283	0.286
284	0.285
284	0.284
285	0.283
285	0.282
285	0.28
286	0.279
286	0.278
287	0.277
287	0.276
288	0.275
288	0.274
289	0.273
289	0.272
290	0.271
290	0.27
291	0.269
291	0.269
292	0.268
292	0.267
292	0.266
293	0.265
293	0.265
294	0.264
294	0.264
295	0.263
295	0.262
296	0.262
296	0.261
297	0.26
297	0.26
298	0.259
298	0.259
298	0.258
299	0.258
299	0.257
300	0.257
300	0.256
301	0.255
301	0.255
302	0.254
302	0.254
303	0.254
303	0.253
304	0.253
304	0.252
305	0.252
305	0.251
305	0.25
306	0.25
306	0.249
307	0.249
307	0.248
308	0.247
308	0.247
309	0.246
309	0.245
310	0.245
310	0.244
311	0.244
311	0.243
311	0.243
312	0.242
312	0.241
313	0.241
313	0.24
314	0.239
314	0.239
315	0.238
315	0.237
316	0.237
316	0.236
317	0.235
317	0.235
318	0.234
318	0.233
318	0.232
319	0.232
319	0.231
320	0.23
320	0.229
321	0.229
321	0.228
322	0.227
322	0.227
323	0.226
323	0.225
324	0.224
324	0.224
324	0.223
325	0.222
325	0.222
326	0.221
326	0.221
327	0.22
327	0.22
328	0.219
328	0.218
329	0.218
329	0.217
330	0.216
330	0.216
330	0.215
331	0.215
331	0.214
332	0.213
332	0.212
333	0.212
333	0.211
334	0.211
334	0.21
335	0.209
335	0.209
336	0.208
336	0.208
336	0.207
337	0.206
337	0.206
338	0.205
338	0.205
339	0.204
339	0.204
340	0.203
340	0.203
341	0.202
341	0.202
342	0.201
342	0.2
342	0.2
343	0.199
343	0.199
344	0.198
344	0.198
345	0.197
345	0.197
346	0.196
346	0.195
347	0.195
347	0.194
348	0.194
348	0.193
348	0.192
349	0.192
349	0.191
350	0.191
350	0.19
351	0.189
351	0.188
352	0.188
352	0.187
353	0.187
353	0.186
354	0.185
354	0.184
354	0.183
355	0.182
355	0.181
356	0.18
356	0.18
357	0.179
357	0.179
358	0.179
358	0.179
359	0.18
359	0.181
360	0.182
360	0.182
360	0.183
361	0.184
361	0.184
362	0.185
362	0.185
363	0.185
363	0.184
364	0.184
364	0.183
365	0.183
365	0.182
366	0.182
366	0.181
366	0.181
367	0.181
367	0.181
368	0.18
368	0.18
369	0.18
369	0.18
370	0.179
370	0.179
371	0.178
371	0.178
372	0.178
372	0.177
372	0.177
373	0.177
373	0.177
374	0.177
374	0.176
375	0.176
375	0.176
376	0.176
376	0.176
377	0.176
377	0.177
378	0.177
378	0.177
378	0.177
379	0.177
379	0.177
380	0.178
380	0.178
381	0.178
381	0.177
382	0.177
382	0.177
383	0.176
383	0.176
383	0.175
384	0.175
384	0.175
385	0.174
385	0.174
386	0.174
386	0.174
387	0.175
387	0.174
388	0.174
388	0.174
389	0.174
389	0.174
389	0.174
390	0.174
390	0.174
391	0.174
391	0.175
392	0.175
392	0.175
393	0.175
393	0.175
394	0.175
394	0.174
394	0.174
395	0.174
395	0.173
396	0.173
396	0.173
397	0.173
397	0.173
398	0.173
398	0.173
399	0.173
399	0.173
400	0.173
400	0.173
400	0.172
401	0.172
401	0.171
402	0.17
402	0.169
403	0.169
403	0.169
404	0.168
404	0.168
405	0.168
405	0.168
405	0.167
406	0.167
406	0.167
407	0.167
407	0.167
408	0.166
408	0.166
409	0.165
409	0.165
410	0.165
410	0.165
411	0.165
411	0.165
411	0.164
412	0.164
412	0.164
413	0.163
413	0.163
414	0.163
414	0.163
415	0.163
415	0.162
416	0.162
416	0.162
416	0.161
417	0.161
417	0.161
418	0.161
418	0.161
419	0.161
419	0.162
420	0.162
420	0.163
421	0.163
421	0.163
421	0.164
422	0.164
422	0.164
423	0.164
423	0.163
424	0.163
424	0.162
425	0.161
425	0.16
426	0.16
426	0.159
427	0.159
427	0.159
427	0.16
428	0.16
428	0.161
429	0.161
429	0.162
430	0.162
430	0.162
431	0.162
431	0.162
432	0.161
432	0.161
432	0.16
433	0.159
433	0.158
434	0.157
434	0.156
435	0.156
435	0.156
436	0.157
436	0.157
437	0.157
437	0.157
437	0.157
438	0.158
438	0.157
439	0.157
439	0.157
440	0.157
440	0.156
441	0.156
441	0.156
442	0.156
442	0.157
442	0.157
443	0.157
443	0.157
444	0.157
444	0.158
445	0.158
445	0.158
446	0.158
446	0.158
447	0.158
447	0.158
447	0.158
448	0.157
448	0.157
449	0.157
449	0.157
450	0.157
450	0.157
451	0.157
451	0.156
452	0.156
452	0.155
452	0.155
453	0.155
453	0.154
454	0.154
454	0.153
455	0.153
455	0.153
456	0.152
456	0.152
457	0.152
457	0.152
458	0.152
458	0.151
458	0.152
459	0.152
459	0.152
460	0.152
460	0.151
461	0.15
461	0.15
462	0.15
462	0.15
463	0.15
463	0.151
463	0.151
464	0.152
464	0.152
465	0.152
465	0.152
466	0.152
466	0.153
467	0.153
467	0.152
467	0.151
468	0.15
468	0.148
469	0.146
469	0.145
470	0.144
470	0.143
471	0.143
471	0.143
472	0.143
472	0.143
472	0.143
473	0.144
473	0.145
474	0.146
474	0.147
475	0.148
475	0.149
476	0.149
476	0.15
477	0.15
477	0.151
477	0.151
478	0.152
478	0.152
479	0.152
479	0.153
480	0.154
480	0.155
481	0.156
481	0.157
482	0.157
482	0.159
482	0.16
483	0.162
483	0.164
484	0.168
484	0.171
485	0.172
485	0.174
486	0.175
486	0.176
487	0.177
487	0.177
487	0.177
488	0.177
488	0.175
489	0.173
489	0.171
490	0.17
490	0.169
491	0.168
491	0.169
492	0.169
492	0.169
492	0.17
493	0.171
493	0.171
494	0.173
494	0.175
495	0.177
495	0.179
496	0.18
496	0.181
496	0.182
497	0.183
497	0.184
498	0.185
498	0.186
499	0.186
499	0.186
500	0.187
500	0.188
501	0.189
501	0.191
501	0.192
502	0.194
502	0.195
503	0.197
503	0.198
504	0.199
504	0.2
505	0.201
505	0.201
506	0.202
506	0.202
506	0.203
507	0.203
507	0.203
508	0.203
508	0.204
509	0.204
509	0.205
510	0.206
510	0.206
511	0.205
511	0.206
511	0.206
512	0.206
512	0.207
513	0.206
513	0.205
514	0.204
514	0.203
515	0.202
515	0.202
515	0.202
516	0.201
516	0.201
517	0.201
517	0.201
518	0.201
518	0.2
519	0.199
519	0.197
520	0.195
520	0.192
520	0.189
521	0.186
521	0.184
522	0.182
522	0.18
523	0.179
523	0.18
524	0.182
524	0.184
524	0.187
525	0.19
525	0.193
526	0.196
526	0.199
527	0.202
527	0.205
528	0.207
528	0.208
529	0.209
529	0.21
529	0.21
530	0.21
530	0.21
531	0.21
531	0.211
532	0.21
532	0.21
533	0.21
533	0.21
533	0.21
534	0.21
534	0.209
535	0.208
535	0.208
536	0.207
536	0.206
537	0.206
537	0.205
538	0.205
538	0.203
538	0.202
539	0.201
539	0.2
540	0.199
540	0.198
541	0.196
541	0.195
542	0.193
542	0.191
542	0.19
543	0.188
543	0.187
544	0.186
544	0.184
545	0.183
545	0.183
546	0.183
546	0.183
547	0.181
547	0.179
547	0.177
548	0.175
548	0.173
549	0.171
549	0.169
550	0.167
550	0.165
551	0.162
551	0.16
551	0.158
552	0.156
552	0.155
553	0.154
553	0.154
554	0.153
554	0.152
555	0.15
555	0.148
556	0.145
556	0.142
556	0.139
557	0.136
557	0.133
558	0.131
558	0.129
559	0.127
559	0.126
560	0.125
560	0.125
560	0.124
561	0.124
561	0.124
562	0.124
562	0.123
563	0.122
563	0.12
564	0.117
564	0.114
564	0.112
565	0.11
565	0.108
566	0.106
566	0.105
567	0.104
567	0.104
568	0.105
568	0.106
568	0.108
569	0.109
569	0.111
570	0.112
570	0.113
571	0.113
571	0.114
572	0.115
572	0.115
573	0.115
573	0.115
573	0.114
574	0.113
574	0.113
575	0.112
575	0.113
576	0.114
576	0.114
577	0.113
577	0.112
577	0.111
578	0.11
578	0.109
579	0.109
579	0.11
580	0.11
580	0.108
581	0.106
581	0.104
581	0.103
582	0.102
582	0.102
583	0.103
583	0.102
584	0.101
584	0.098
585	0.096
585	0.094
585	0.094
586	0.093
586	0.093
587	0.091
587	0.089
588	0.086
588	0.083
589	0.081
589	0.079
590	0.077
590	0.076
590	0.075
591	0.075
591	0.075
592	0.075
592	0.074
593	0.074
593	0.074
594	0.074
594	0.074
594	0.074
595	0.073
595	0.072
596	0.071
596	0.071
597	0.073
597	0.075
598	0.076
598	0.076
598	0.077
599	0.078
599	0.077
600	0.077
600	0.076
601	0.075
601	0.073
602	0.071
602	0.07
602	0.068
603	0.067
603	0.067
604	0.067
604	0.067
605	0.068
605	0.069
606	0.07
606	0.069
606	0.069
607	0.068
607	0.068
608	0.068
608	0.066
609	0.065
609	0.064
610	0.063
610	0.062
610	0.062
611	0.062
611	0.062
612	0.063
612	0.065
613	0.066
613	0.068
614	0.069
614	0.069
614	0.07
615	0.07
615	0.07
616	0.07
616	0.069
617	0.068
617	0.067
618	0.066
618	0.064
618	0.063
619	0.062
619	0.062
620	0.063
620	0.064
621	0.064
621	0.064
622	0.065
622	0.065
622	0.066
623	0.066
623	0.066
624	0.067
624	0.067
625	0.067
625	0.067
626	0.067
626	0.067
626	0.067
627	0.067
627	0.068
628	0.069
628	0.069
629	0.07
629	0.07
630	0.07
630	0.069
630	0.07
631	0.07
631	0.07
632	0.07
632	0.07
633	0.071
633	0.071
634	0.072
634	0.074
634	0.076
635	0.078
635	0.079
636	0.081
636	0.082
637	0.083
637	0.084
638	0.085
638	0.086
638	0.087
639	0.087
639	0.087
640	0.088
640	0.09
641	0.091
641	0.093
642	0.095
642	0.097
642	0.099
643	0.101
643	0.104
644	0.106
644	0.109
645	0.111
645	0.113
646	0.115
646	0.117
646	0.12
647	0.123
647	0.127
648	0.129
648	0.132
649	0.135
649	0.137
650	0.14
650	0.143
650	0.146
651	0.148
651	0.15
652	0.152
652	0.153
653	0.156
653	0.162
653	0.175
654	0.142
654	0.117
655	0.124
655	0.126
656	0.128
656	0.131
657	0.133
657	0.135
657	0.136
658	0.135
658	0.125
659	0.157
659	0.2
660	0.2
660	0.202
661	0.203
661	0.205
661	0.207
662	0.21
662	0.213
663	0.216
663	0.219
664	0.222
664	0.224
665	0.227
665	0.23
665	0.232
666	0.235
666	0.238
667	0.24
667	0.242
668	0.245
668	0.247
669	0.249
669	0.251
669	0.255
670	0.259
670	0.262
671	0.264
671	0.266
672	0.268
672	0.27
672	0.271
673	0.273
673	0.274
674	0.276
674	0.276
675	0.276
675	0.277
676	0.278
676	0.28
676	0.281
677	0.283
677	0.285
678	0.287
678	0.288
679	0.289
679	0.29
680	0.292
680	0.293
680	0.294
681	0.294
681	0.295
682	0.296
682	0.297
683	0.299
683	0.301
684	0.304
684	0.305
684	0.305
685	0.306
685	0.306
686	0.307
686	0.307
687	0.307
687	0.306
687	0.305
688	0.304
688	0.302
689	0.302
689	0.302
690	0.303
690	0.303
691	0.303
691	0.303
691	0.304
692	0.303
692	0.303
693	0.303
693	0.304
694	0.304
694	0.303
695	0.303
695	0.304
695	0.305
696	0.305
696	0.304
697	0.304
697	0.303
698	0.301
698	0.299
698	0.297
699	0.295
699	0.292
700	0.289
700	0.286
701	0.283
701	0.282
702	0.28
702	0.278
702	0.277
703	0.275
703	0.273
704	0.271
704	0.27
705	0.269
705	0.269
705	0.268
706	0.267
706	0.266
707	0.265
707	0.263
708	0.262
708	0.261
709	0.26
709	0.259
709	0.256
710	0.253
710	0.25
711	0.248
711	0.245
712	0.243
712	0.241
713	0.24
713	0.238
713	0.236
714	0.234
714	0.231
715	0.229
715	0.227
716	0.225
716	0.223
716	0.221
717	0.218
717	0.216
718	0.213
718	0.21
719	0.208
719	0.205
720	0.203
720	0.201
720	0.198
721	0.194
721	0.191
722	0.187
722	0.184
723	0.181
723	0.179
723	0.177
724	0.175
724	0.172
725	0.17
725	0.168
726	0.166
726	0.164
727	0.163
727	0.161
727	0.159
728	0.156
728	0.154
729	0.152
729	0.151
730	0.149
730	0.147
730	0.145
731	0.143
731	0.141
732	0.14
732	0.139
733	0.137
733	0.135
734	0.133
734	0.13
734	0.127
735	0.125
735	0.123
736	0.12
736	0.117
737	0.114
737	0.112
737	0.11
738	0.107
738	0.104
739	0.102
739	0.1
740	0.098
740	0.096
741	0.094
741	0.092
741	0.089
742	0.085
742	0.082
743	0.079
743	0.076
744	0.074
744	0.072
744	0.07
745	0.067
745	0.065
746	0.064
746	0.062
747	0.061
747	0.061
748	0.06
748	0.06
748	0.059
749	0.057
749	0.056
750	0.055
750	0.054
751	0.053
751	0.052
751	0.052
752	0.051
752	0.05
753	0.049
753	0.048
754	0.047
754	0.047
754	0.046
755	0.046
755	0.046
756	0.046
756	0.044
757	0.043
757	0.042
758	0.041
758	0.04
758	0.039
759	0.038
759	0.035
760	0.032
760	0.029
761	0.026
761	0.024
761	0.023
762	0.021
762	0.02
763	0.019
763	0.017
764	0.015
764	0.013
764	0.011
765	0.009
765	0.007
766	0.006
766	0.006
767	0.005
767	0.002
768	-0.001
768	-0.003
768	-0.005
769	-0.006
769	-0.007
770	-0.008
770	-0.009
771	-0.011
771	-0.013
771	-0.016
772	-0.018
772	-0.02
773	-0.022
773	-0.025
774	-0.028
774	-0.032
775	-0.035
775	-0.039
775	-0.043
776	-0.047
776	-0.05
777	-0.054
777	-0.057
778	-0.061
778	-0.066
778	-0.069
779	-0.072
779	-0.075
780	-0.079
780	-0.084
781	-0.089
781	-0.095
781	-0.101
782	-0.107
782	-0.114
783	-0.121
783	-0.125
784	-0.129
784	-0.134
784	-0.137
785	-0.141
785	-0.144
786	-0.145
786	-0.143
787	-0.138
787	-0.135
788	-0.134
788	-0.135
788	-0.136
789	-0.139
789	-0.139
790	-0.137
790	-0.135
791	-0.136
791	-0.138
791	-0.14
792	-0.135
792	-0.124
793	-0.117
793	-0.112
794	-0.11
794	-0.111
794	-0.114
795	-0.116
795	-0.116
796	-0.116
796	-0.118
797	-0.127
797	-0.138
797	-0.145
798	-0.151
798	-0.155
799	-0.156
799	-0.156
800	-0.156
800	-0.158
801	-0.161
801	-0.162
801	-0.162
802	-0.163
802	-0.164
803	-0.164
803	-0.164
804	-0.163
804	-0.157
804	-0.15
805	-0.146
805	-0.143
806	-0.141
806	-0.14
807	-0.138
807	-0.137
807	-0.137
808	-0.137
808	-0.137
809	-0.141
809	-0.146
810	-0.149
810	-0.151
810	-0.155
811	-0.157
811	-0.158
812	-0.154
812	-0.151
813	-0.152
813	-0.153
813	-0.155
814	-0.156
814	-0.157
815	-0.155
815	-0.153
816	-0.152
816	-0.153
817	-0.158
817	-0.162
817	-0.163
818	-0.162
818	-0.159
819	-0.154
819	-0.151
820	-0.152
820	-0.154
820	-0.155
821	-0.154
821	-0.151
822	-0.148
822	-0.144
823	-0.139
823	-0.137
823	-0.136
824	-0.132
824	-0.126
825	-0.117
825	-0.107
826	-0.097
826	-0.09
826	-0.084
827	-0.078
827	-0.072
828	-0.067
828	-0.062
829	-0.058
829	-0.054
829	-0.05
830	-0.048
830	-0.045
831	-0.04
831	-0.037
832	-0.033
832	-0.03
832	-0.028
833	-0.026
833	-0.024
834	-0.023
834	-0.022
835	-0.021
835	-0.021
835	-0.022
836	-0.022
836	-0.023
837	-0.023
837	-0.023
838	-0.023
838	-0.022
839	-0.022
839	-0.021
839	-0.021
840	-0.02
840	-0.018
841	-0.017
841	-0.016
842	-0.014
842	-0.013
842	-0.012
843	-0.011
843	-0.009
844	-0.008
844	-0.007
845	-0.006
845	-0.006
845	-0.005
846	-0.004
846	-0.004
847	-0.003
847	-0.002
848	-0.001
848	-0.001
848	-0
849	0
849	0.001
850	0.002
850	0.002
851	0.002
851	0.002
851	0.002
852	0.002
852	0.003
853	0.003
853	0.003
854	0.003
854	0.003
854	0.003
855	0.003
855	0.003
856	0.004
856	0.004
857	0.004
857	0.004
857	0.004
858	0.005
858	0.005
859	0.005
859	0.006
860	0.007
860	0.007
860	0.008
861	0.009
861	0.01
862	0.011
862	0.012
863	0.013
863	0.014
863	0.015
864	0.015
864	0.016
865	0.017
865	0.017
866	0.017
866	0.017
866	0.017
867	0.017
867	0.017
868	0.017
868	0.016
869	0.016
869	0.015
869	0.015
870	0.014
870	0.014
871	0.014
871	0.013
872	0.013
872	0.012
872	0.011
873	0.011
873	0.01
874	0.01
874	0.009
875	0.008
875	0.007
875	0.007
876	0.007
876	0.007
877	0.007
877	0.007
878	0.007
878	0.008
878	0.009
879	0.009
879	0.01
880	0.011
880	0.012
881	0.013
881	0.014
881	0.015
882	0.016
882	0.017
883	0.018
883	0.018
884	0.019
884	0.02
884	0.02
885	0.02
885	0.02
886	0.02
886	0.02
887	0.019
887	0.019
887	0.018
888	0.018
888	0.017
889	0.018
889	0.018
890	0.018
890	0.019
890	0.02
891	0.02
891	0.021
892	0.022
892	0.022
893	0.023
893	0.024
893	0.025
894	0.025
894	0.025
895	0.025
895	0.025
895	0.024
896	0.024
896	0.024
897	0.024
897	0.023
898	0.022
898	0.021
898	0.02
899	0.019
899	0.018
900	0.017
900	0.016
901	0.015
901	0.014
901	0.014
902	0.013
902	0.013
903	0.013
903	0.014
904	0.014
904	0.014
904	0.015
905	0.016
905	0.016
906	0.017
906	0.017
907	0.017
907	0.017
907	0.017
908	0.017
908	0.016
909	0.016
909	0.016
910	0.016
910	0.016
910	0.016
911	0.016
911	0.017
912	0.017
912	0.018
913	0.019
913	0.02
913	0.021
914	0.022
914	0.023
915	0.023
915	0.024
916	0.025
916	0.026
916	0.026
917	0.027
917	0.027
918	0.026
918	0.026
918	0.026
919	0.025
919	0.024
920	0.023
920	0.021
921	0.02
921	0.019
921	0.017
922	0.017
922	0.016
923	0.015
923	0.014
924	0.014
924	0.014
924	0.013
925	0.014
925	0.014
926	0.014
926	0.015
927	0.015
927	0.015
927	0.016
928	0.017
928	0.018
929	0.019
929	0.019
930	0.019
930	0.02
930	0.019
931	0.019
931	0.019
932	0.019
932	0.019
933	0.019
933	0.019
933	0.019
934	0.019
934	0.02
935	0.02
935	0.021
935	0.021
936	0.021
936	0.021
937	0.021
937	0.021
938	0.02
938	0.019
938	0.018
939	0.018
939	0.017
940	0.017
940	0.017
941	0.017
941	0.018
941	0.018
942	0.019
942	0.02
943	0.021
943	0.022
944	0.023
944	0.024
944	0.025
945	0.026
945	0.027
946	0.028
946	0.028
946	0.029
947	0.029
947	0.03
948	0.03
948	0.029
949	0.029
949	0.028
949	0.028
950	0.027
950	0.026
951	0.026
951	0.025
952	0.025
952	0.025
952	0.025
953	0.025
953	0.025
954	0.025
954	0.025
955	0.026
955	0.026
955	0.026
956	0.026
956	0.026
957	0.026
957	0.025
957	0.025
958	0.025
958	0.025
959	0.026
959	0.026
960	0.026
960	0.026
960	0.026
961	0.026
961	0.027
962	0.027
962	0.027
963	0.027
963	0.026
963	0.026
964	0.025
964	0.025
965	0.024
965	0.023
966	0.023
966	0.022
966	0.022
967	0.021
967	0.02
968	0.02
968	0.02
968	0.02
969	0.02
969	0.02
970	0.021
970	0.021
971	0.021
971	0.022
971	0.022
972	0.023
972	0.024
973	0.025
973	0.026
974	0.026
974	0.027
974	0.027
975	0.028
975	0.028
976	0.027
976	0.027
976	0.026
977	0.025
977	0.024
978	0.023
978	0.022
979	0.021
979	0.019
979	0.019
980	0.018
980	0.017
981	0.016
981	0.016
982	0.015
982	0.015
982	0.015
983	0.014
983	0.014
984	0.014
984	0.014
984	0.014
985	0.014
985	0.014
986	0.013
986	0.013
987	0.013
987	0.013
987	0.013
988	0.013
988	0.013
989	0.013
989	0.013
990	0.014
990	0.014
990	0.015
991	0.015
991	0.015
992	0.016
992	0.016
992	0.016
993	0.016
993	0.015
994	0.015
994	0.014
995	0.013
995	0.013
995	0.012
996	0.012
996	0.011
997	0.01
997	0.01
997	0.009
998	0.009
998	0.009
999	0.009
999	0.009
1000	0.009
1000	0.01
1000	0.01
1001	0.011
1001	0.011
1002	0.011
1002	0.012
1003	0.012
1003	0.012
1003	0.012
1004	0.012
1004	0.011
1005	0.011
1005	0.01
1005	0.01
1006	0.009
1006	0.009
1007	0.008
1007	0.008
1008	0.008
1008	0.008
1008	0.008
1009	0.009
1009	0.009
1010	0.01
1010	0.011
1010	0.012
1011	0.013
1011	0.014
1012	0.015
1012	0.015
1013	0.016
1013	0.017
1013	0.017
1014	0.018
1014	0.018
1015	0.018
1015	0.018
1016	0.018
1016	0.018
1016	0.018
1017	0.018
1017	0.018
1018	0.018
1018	0.018
1018	0.018
1019	0.019
1019	0.019
1020	0.019
1020	0.019
1021	0.018
1021	0.018
1021	0.018
1022	0.018
1022	0.018
1023	0.018
1023	0.018
1023	0.018
1024	0.018
1024	0.018
1025	0.018
1025	0.018
1026	0.018
1026	0.019
1026	0.019
1027	0.019
1027	0.019
1028	0.019
1028	0.019
1028	0.02
1029	0.02
1029	0.02
1030	0.02
1030	0.02
1031	0.02
1031	0.02
1031	0.02
1032	0.019
1032	0.019
1033	0.019
1033	0.019
1033	0.018
1034	0.018
1034	0.018
1035	0.018
1035	0.018
1036	0.017
1036	0.018
1036	0.018
1037	0.018
1037	0.019
1038	0.019
1038	0.02
1039	0.02
1039	0.021
1039	0.021
1040	0.022
1040	0.022
1041	0.023
1041	0.023
1041	0.024
1042	0.024
1042	0.025
1043	0.025
1043	0.026
1044	0.027
1044	0.028
1044	0.029
1045	0.03
1045	0.031
1046	0.032
1046	0.034
1046	0.035
1047	0.037
1047	0.039
1048	0.04
1048	0.042
1049	0.043
1049	0.044
1049	0.045
1050	0.046
1050	0.046
1051	0.046
1051	0.046
1051	0.046
1052	0.046
1052	0.045
1053	0.045
1053	0.044
1053	0.044
1054	0.043
1054	0.043
1055	0.042
1055	0.041
1056	0.04
1056	0.04
1056	0.039
1057	0.038
1057	0.038
1058	0.038
1058	0.037
1058	0.038
1059	0.038
1059	0.037
1060	0.037
1060	0.038
1061	0.038
1061	0.039
1061	0.039
1062	0.04
1062	0.04
1063	0.04
1063	0.041
1063	0.041
1064	0.042
1064	0.044
1065	0.045
1065	0.047
1066	0.048
1066	0.05
1066	0.053
1067	0.055
1067	0.057
1068	0.06
1068	0.062
1068	0.063
1069	0.065
1069	0.066
1070	0.067
1070	0.069
1071	0.07
1071	0.071
1071	0.072
1072	0.073
1072	0.074
1073	0.076
1073	0.077
1073	0.079
1074	0.08
1074	0.081
1075	0.081
1075	0.082
1076	0.083
1076	0.084
1076	0.084
1077	0.086
1077	0.087
1078	0.088
1078	0.09
1078	0.092
1079	0.095
1079	0.097
1080	0.099
1080	0.101
1080	0.103
1081	0.106
1081	0.107
1082	0.109
1082	0.11
1083	0.112
1083	0.114
1083	0.116
1084	0.119
1084	0.122
1085	0.125
1085	0.128
1085	0.131
1086	0.134
1086	0.137
1087	0.14
1087	0.144
1088	0.147
1088	0.15
1088	0.154
1089	0.159
1089	0.163
1090	0.168
1090	0.175
1090	0.181
1091	0.188
1091	0.196
1092	0.204
1092	0.214
1092	0.222
1093	0.231
1093	0.242
1094	0.253
1094	0.265
1095	0.276
1095	0.29
1095	0.307
1096	0.323
1096	0.34
1097	0.361
1097	0.383
1097	0.408
1098	0.435
1098	0.466
1099	0.501
1099	0.542
1100	0.589
1100	0.645
1100	0.714
1101	0.804
1101	0.921
1102	1.101
1102	1.433
1102	-0
1103	-0
1103	-0
1104	-0
1104	-0
1104	-0
1105	-0
1105	-0
1106	-0
1106	-0
1107	-0
1107	-0
1107	-0
1108	-0
1108	-0
1109	-0
1109	-0
1109	-0
1110	-0
1110	-0
1111	-0
1111	-0
