Data from 17C_3.4A_30min_2sec_int_Absorbance__99__00099.txt Node

Date: Mon Jun 19 16:08:55 CEST 2023
User: Marek
Spectrometer: MAYP115816
Trigger mode: 0
Integration Time (sec): 2.500000E-1
Scans to average: 10
Electric dark correction enabled: true
Nonlinearity correction enabled: true
Boxcar width: 5
XAxis mode: Wavelengths
Number of Pixels in Spectrum: 2068
>>>>>Begin Spectral Data<<<<<
199	-0.301
199	-0.307
200	-0.225
200	-0.177
201	-0.162
201	-0.158
202	-0.138
202	-0.126
203	-0.118
203	-0.121
204	-0.115
204	-0.108
205	-0.093
205	-0.092
205	-0.093
206	-0.092
206	-0.093
207	-0.084
207	-0.087
208	-0.089
208	-0.083
209	-0.079
209	-0.075
210	-0.079
210	-0.082
211	-0.081
211	-0.078
212	-0.078
212	-0.089
213	-0.089
213	-0.087
213	-0.089
214	-0.085
214	-0.084
215	-0.083
215	-0.089
216	-0.093
216	-0.098
217	-0.096
217	-0.097
218	-0.098
218	-0.103
219	-0.107
219	-0.115
220	-0.119
220	-0.12
221	-0.117
221	-0.114
221	-0.11
222	-0.106
222	-0.104
223	-0.104
223	-0.105
224	-0.108
224	-0.109
225	-0.106
225	-0.101
226	-0.101
226	-0.106
227	-0.11
227	-0.115
228	-0.116
228	-0.117
229	-0.115
229	-0.106
229	-0.101
230	-0.102
230	-0.112
231	-0.11
231	-0.101
232	-0.096
232	-0.101
233	-0.097
233	-0.099
234	-0.093
234	-0.093
235	-0.098
235	-0.1
236	-0.096
236	-0.097
236	-0.104
237	-0.112
237	-0.106
238	-0.111
238	-0.105
239	-0.11
239	-0.118
240	-0.113
240	-0.11
241	-0.112
241	-0.111
242	-0.114
242	-0.105
243	-0.102
243	-0.106
243	-0.116
244	-0.116
244	-0.116
245	-0.122
245	-0.119
246	-0.12
246	-0.122
247	-0.12
247	-0.123
248	-0.131
248	-0.125
249	-0.125
249	-0.13
250	-0.125
250	-0.127
250	-0.13
251	-0.131
251	-0.133
252	-0.137
252	-0.133
253	-0.133
253	-0.138
254	-0.138
254	-0.14
255	-0.15
255	-0.146
256	-0.142
256	-0.151
257	-0.149
257	-0.147
258	-0.16
258	-0.159
258	-0.159
259	-0.154
259	-0.156
260	-0.153
260	-0.155
261	-0.162
261	-0.155
262	-0.155
262	-0.155
263	-0.143
263	-0.142
264	-0.139
264	-0.146
265	-0.141
265	-0.147
265	-0.15
266	-0.152
266	-0.151
267	-0.157
267	-0.156
268	-0.167
268	-0.169
269	-0.167
269	-0.16
270	-0.163
270	-0.163
271	-0.158
271	-0.157
272	-0.153
272	-0.146
272	-0.148
273	-0.145
273	-0.151
274	-0.158
274	-0.165
275	-0.163
275	-0.159
276	-0.164
276	-0.163
277	-0.169
277	-0.185
278	-0.189
278	-0.185
278	-0.176
279	-0.175
279	-0.18
280	-0.18
280	-0.175
281	-0.176
281	-0.173
282	-0.167
282	-0.16
283	-0.15
283	-0.144
284	-0.142
284	-0.137
285	-0.134
285	-0.131
285	-0.131
286	-0.132
286	-0.128
287	-0.127
287	-0.122
288	-0.12
288	-0.131
289	-0.14
289	-0.141
290	-0.129
290	-0.127
291	-0.12
291	-0.116
292	-0.119
292	-0.124
292	-0.118
293	-0.125
293	-0.121
294	-0.112
294	-0.107
295	-0.108
295	-0.112
296	-0.109
296	-0.105
297	-0.101
297	-0.091
298	-0.095
298	-0.098
298	-0.088
299	-0.084
299	-0.088
300	-0.082
300	-0.075
301	-0.076
301	-0.075
302	-0.085
302	-0.092
303	-0.082
303	-0.073
304	-0.073
304	-0.073
305	-0.074
305	-0.075
305	-0.071
306	-0.059
306	-0.053
307	-0.047
307	-0.04
308	-0.044
308	-0.038
309	-0.045
309	-0.039
310	-0.026
310	-0.023
311	-0.02
311	-0.023
311	-0.026
312	-0.017
312	-0.022
313	-0.014
313	-0.018
314	-0.012
314	-0.012
315	-0.016
315	-0.017
316	-0.016
316	-0.012
317	-0.008
317	-0.011
318	0.002
318	-0
318	0.002
319	0.009
319	0.012
320	0.017
320	0.018
321	0.019
321	0.019
322	0.023
322	0.027
323	0.026
323	0.03
324	0.035
324	0.042
324	0.048
325	0.057
325	0.068
326	0.075
326	0.08
327	0.094
327	0.107
328	0.125
328	0.138
329	0.148
329	0.163
330	0.179
330	0.195
330	0.207
331	0.224
331	0.24
332	0.25
332	0.262
333	0.268
333	0.277
334	0.287
334	0.294
335	0.3
335	0.305
336	0.31
336	0.314
336	0.317
337	0.321
337	0.323
338	0.327
338	0.328
339	0.331
339	0.332
340	0.333
340	0.334
341	0.335
341	0.336
342	0.337
342	0.337
342	0.339
343	0.339
343	0.34
344	0.34
344	0.34
345	0.341
345	0.341
346	0.341
346	0.341
347	0.341
347	0.341
348	0.341
348	0.341
348	0.341
349	0.34
349	0.34
350	0.34
350	0.34
351	0.339
351	0.339
352	0.34
352	0.339
353	0.339
353	0.339
354	0.339
354	0.338
354	0.338
355	0.338
355	0.338
356	0.338
356	0.338
357	0.337
357	0.337
358	0.336
358	0.336
359	0.336
359	0.336
360	0.335
360	0.335
360	0.334
361	0.334
361	0.334
362	0.333
362	0.333
363	0.333
363	0.333
364	0.333
364	0.332
365	0.332
365	0.332
366	0.332
366	0.331
366	0.331
367	0.331
367	0.331
368	0.331
368	0.33
369	0.33
369	0.33
370	0.33
370	0.329
371	0.329
371	0.329
372	0.328
372	0.328
372	0.327
373	0.327
373	0.327
374	0.327
374	0.326
375	0.326
375	0.326
376	0.326
376	0.326
377	0.326
377	0.326
378	0.325
378	0.325
378	0.325
379	0.325
379	0.324
380	0.324
380	0.324
381	0.323
381	0.323
382	0.322
382	0.322
383	0.321
383	0.321
383	0.321
384	0.32
384	0.32
385	0.32
385	0.32
386	0.32
386	0.32
387	0.319
387	0.319
388	0.319
388	0.319
389	0.318
389	0.318
389	0.318
390	0.318
390	0.318
391	0.318
391	0.317
392	0.317
392	0.316
393	0.316
393	0.316
394	0.316
394	0.315
394	0.315
395	0.315
395	0.314
396	0.314
396	0.314
397	0.314
397	0.314
398	0.313
398	0.313
399	0.313
399	0.312
400	0.312
400	0.311
400	0.311
401	0.31
401	0.31
402	0.31
402	0.309
403	0.309
403	0.309
404	0.308
404	0.308
405	0.308
405	0.308
405	0.307
406	0.307
406	0.307
407	0.306
407	0.306
408	0.306
408	0.306
409	0.306
409	0.306
410	0.306
410	0.305
411	0.305
411	0.305
411	0.305
412	0.305
412	0.305
413	0.304
413	0.304
414	0.304
414	0.304
415	0.303
415	0.303
416	0.303
416	0.303
416	0.302
417	0.302
417	0.302
418	0.302
418	0.301
419	0.301
419	0.301
420	0.301
420	0.301
421	0.301
421	0.301
421	0.301
422	0.301
422	0.3
423	0.3
423	0.3
424	0.3
424	0.3
425	0.3
425	0.299
426	0.299
426	0.299
427	0.299
427	0.298
427	0.298
428	0.298
428	0.298
429	0.297
429	0.297
430	0.297
430	0.297
431	0.297
431	0.297
432	0.297
432	0.297
432	0.297
433	0.296
433	0.296
434	0.296
434	0.295
435	0.295
435	0.295
436	0.295
436	0.295
437	0.295
437	0.295
437	0.295
438	0.295
438	0.295
439	0.295
439	0.295
440	0.294
440	0.294
441	0.294
441	0.294
442	0.293
442	0.293
442	0.293
443	0.293
443	0.293
444	0.293
444	0.293
445	0.293
445	0.293
446	0.294
446	0.294
447	0.294
447	0.294
447	0.294
448	0.294
448	0.294
449	0.293
449	0.294
450	0.294
450	0.294
451	0.294
451	0.294
452	0.295
452	0.295
452	0.294
453	0.294
453	0.294
454	0.294
454	0.294
455	0.294
455	0.294
456	0.294
456	0.294
457	0.294
457	0.294
458	0.294
458	0.294
458	0.294
459	0.294
459	0.294
460	0.295
460	0.295
461	0.295
461	0.295
462	0.295
462	0.295
463	0.296
463	0.296
463	0.296
464	0.297
464	0.297
465	0.297
465	0.297
466	0.298
466	0.298
467	0.299
467	0.299
467	0.299
468	0.3
468	0.3
469	0.301
469	0.301
470	0.302
470	0.302
471	0.303
471	0.303
472	0.304
472	0.304
472	0.304
473	0.305
473	0.305
474	0.306
474	0.306
475	0.307
475	0.307
476	0.308
476	0.308
477	0.309
477	0.31
477	0.31
478	0.311
478	0.312
479	0.313
479	0.313
480	0.314
480	0.315
481	0.316
481	0.317
482	0.318
482	0.319
482	0.32
483	0.321
483	0.321
484	0.322
484	0.322
485	0.323
485	0.324
486	0.325
486	0.326
487	0.328
487	0.329
487	0.33
488	0.332
488	0.333
489	0.335
489	0.337
490	0.339
490	0.341
491	0.342
491	0.344
492	0.345
492	0.347
492	0.348
493	0.35
493	0.352
494	0.354
494	0.355
495	0.357
495	0.359
496	0.361
496	0.363
496	0.365
497	0.368
497	0.37
498	0.372
498	0.375
499	0.377
499	0.379
500	0.382
500	0.384
501	0.386
501	0.389
501	0.391
502	0.393
502	0.395
503	0.397
503	0.399
504	0.401
504	0.404
505	0.406
505	0.409
506	0.411
506	0.414
506	0.417
507	0.42
507	0.422
508	0.425
508	0.428
509	0.43
509	0.433
510	0.436
510	0.438
511	0.44
511	0.443
511	0.445
512	0.447
512	0.45
513	0.452
513	0.454
514	0.457
514	0.459
515	0.461
515	0.464
515	0.466
516	0.468
516	0.471
517	0.473
517	0.475
518	0.477
518	0.479
519	0.481
519	0.482
520	0.484
520	0.486
520	0.489
521	0.491
521	0.492
522	0.494
522	0.496
523	0.498
523	0.499
524	0.5
524	0.502
524	0.503
525	0.504
525	0.505
526	0.505
526	0.507
527	0.507
527	0.508
528	0.509
528	0.509
529	0.51
529	0.511
529	0.511
530	0.512
530	0.512
531	0.512
531	0.512
532	0.512
532	0.512
533	0.512
533	0.512
533	0.511
534	0.511
534	0.511
535	0.51
535	0.51
536	0.509
536	0.509
537	0.508
537	0.508
538	0.507
538	0.507
538	0.506
539	0.505
539	0.504
540	0.503
540	0.502
541	0.501
541	0.5
542	0.499
542	0.497
542	0.495
543	0.494
543	0.492
544	0.49
544	0.488
545	0.487
545	0.485
546	0.484
546	0.482
547	0.48
547	0.479
547	0.478
548	0.477
548	0.475
549	0.474
549	0.472
550	0.47
550	0.469
551	0.467
551	0.465
551	0.464
552	0.462
552	0.46
553	0.458
553	0.456
554	0.454
554	0.453
555	0.451
555	0.449
556	0.447
556	0.445
556	0.444
557	0.442
557	0.44
558	0.439
558	0.437
559	0.435
559	0.433
560	0.431
560	0.43
560	0.428
561	0.426
561	0.424
562	0.422
562	0.42
563	0.418
563	0.416
564	0.415
564	0.413
564	0.411
565	0.409
565	0.407
566	0.405
566	0.403
567	0.4
567	0.398
568	0.396
568	0.393
568	0.391
569	0.389
569	0.387
570	0.385
570	0.383
571	0.382
571	0.38
572	0.378
572	0.376
573	0.374
573	0.372
573	0.371
574	0.369
574	0.368
575	0.366
575	0.364
576	0.363
576	0.361
577	0.36
577	0.359
577	0.358
578	0.356
578	0.355
579	0.354
579	0.352
580	0.35
580	0.349
581	0.347
581	0.346
581	0.344
582	0.343
582	0.341
583	0.34
583	0.338
584	0.337
584	0.335
585	0.334
585	0.332
585	0.331
586	0.33
586	0.328
587	0.328
587	0.327
588	0.326
588	0.325
589	0.323
589	0.322
590	0.32
590	0.319
590	0.318
591	0.317
591	0.315
592	0.313
592	0.312
593	0.311
593	0.309
594	0.308
594	0.307
594	0.306
595	0.305
595	0.304
596	0.303
596	0.302
597	0.3
597	0.299
598	0.297
598	0.296
598	0.295
599	0.294
599	0.293
600	0.292
600	0.29
601	0.289
601	0.287
602	0.286
602	0.285
602	0.284
603	0.283
603	0.282
604	0.281
604	0.28
605	0.279
605	0.278
606	0.277
606	0.276
606	0.275
607	0.273
607	0.272
608	0.271
608	0.269
609	0.268
609	0.267
610	0.266
610	0.265
610	0.264
611	0.263
611	0.262
612	0.262
612	0.261
613	0.26
613	0.259
614	0.257
614	0.256
614	0.255
615	0.254
615	0.253
616	0.252
616	0.25
617	0.249
617	0.247
618	0.246
618	0.244
618	0.243
619	0.242
619	0.241
620	0.239
620	0.238
621	0.237
621	0.235
622	0.234
622	0.233
622	0.231
623	0.23
623	0.229
624	0.228
624	0.227
625	0.226
625	0.225
626	0.224
626	0.223
626	0.222
627	0.221
627	0.22
628	0.218
628	0.216
629	0.214
629	0.212
630	0.21
630	0.208
630	0.206
631	0.203
631	0.201
632	0.198
632	0.195
633	0.192
633	0.189
634	0.186
634	0.183
634	0.179
635	0.176
635	0.172
636	0.168
636	0.164
637	0.159
637	0.155
638	0.15
638	0.146
638	0.141
639	0.136
639	0.131
640	0.126
640	0.121
641	0.116
641	0.111
642	0.106
642	0.101
642	0.096
643	0.091
643	0.085
644	0.08
644	0.074
645	0.068
645	0.062
646	0.056
646	0.05
646	0.044
647	0.037
647	0.031
648	0.026
648	0.02
649	0.013
649	0.007
650	0.001
650	-0.004
650	-0.011
651	-0.019
651	-0.029
652	-0.04
652	-0.052
653	-0.062
653	-0.071
653	-0.068
654	-0.049
654	-0.036
655	-0.037
655	-0.039
656	-0.042
656	-0.045
657	-0.047
657	-0.049
657	-0.052
658	-0.056
658	-0.077
659	-0.145
659	-0.234
660	-0.272
660	-0.296
661	-0.323
661	-0.355
661	-0.39
662	-0.427
662	-0.466
663	-0.511
663	-0.56
664	-0.612
664	-0.669
665	-0.73
665	-0.797
665	-0.861
666	-0.926
666	-0.997
667	-1.069
667	-1.142
668	-1.223
668	-1.305
669	-1.391
669	-1.481
669	-1.589
670	-1.754
670	-2.004
671	-2.124
671	-2.25
672	-2.406
672	-2.554
672	-2.655
673	-2.727
673	-2.754
674	-2.771
674	-2.782
675	-2.792
675	-2.88
676	-3.03
676	-2.966
676	-2.719
677	-2.477
677	-2.242
678	-1.874
678	-1.649
679	-1.52
679	-1.422
680	-1.34
680	-1.27
680	-1.208
681	-1.167
681	-1.11
682	-1.069
682	-1.029
683	-0.993
683	-0.97
684	-0.943
684	-0.919
684	-0.892
685	-0.861
685	-0.832
686	-0.805
686	-0.781
687	-0.75
687	-0.733
687	-0.706
688	-0.677
688	-0.652
689	-0.627
689	-0.61
690	-0.586
690	-0.568
691	-0.554
691	-0.554
691	-0.564
692	-0.552
692	-0.54
693	-0.533
693	-0.533
694	-0.525
694	-0.514
695	-0.516
695	-0.513
695	-0.493
696	-0.487
696	-0.461
697	-0.455
697	-0.463
698	-0.457
698	-0.445
698	-0.448
699	-0.446
699	-0.436
700	-0.421
700	-0.431
701	-0.429
701	-0.435
702	-0.435
702	-0.424
702	-0.415
703	-0.409
703	-0.4
704	-0.395
704	-0.398
705	-0.409
705	-0.402
705	-0.387
706	-0.387
706	-0.381
707	-0.383
707	-0.375
708	-0.372
708	-0.366
709	-0.368
709	-0.366
709	-0.355
710	-0.359
710	-0.367
711	-0.358
711	-0.354
712	-0.351
712	-0.361
713	-0.356
713	-0.362
713	-0.35
714	-0.347
714	-0.348
715	-0.338
715	-0.327
716	-0.331
716	-0.332
716	-0.323
717	-0.327
717	-0.336
718	-0.327
718	-0.329
719	-0.331
719	-0.332
720	-0.326
720	-0.33
720	-0.321
721	-0.314
721	-0.316
722	-0.298
722	-0.281
723	-0.278
723	-0.282
723	-0.27
724	-0.271
724	-0.274
725	-0.273
725	-0.28
726	-0.292
726	-0.296
727	-0.303
727	-0.314
727	-0.32
728	-0.318
728	-0.323
729	-0.318
729	-0.32
730	-0.324
730	-0.317
730	-0.307
731	-0.293
731	-0.302
732	-0.314
732	-0.311
733	-0.31
733	-0.315
734	-0.314
734	-0.312
734	-0.304
735	-0.305
735	-0.301
736	-0.313
736	-0.301
737	-0.291
737	-0.292
737	-0.3
738	-0.296
738	-0.295
739	-0.293
739	-0.299
740	-0.301
740	-0.295
741	-0.29
741	-0.286
741	-0.284
742	-0.286
742	-0.284
743	-0.287
743	-0.289
744	-0.284
744	-0.276
744	-0.279
745	-0.29
745	-0.279
746	-0.282
746	-0.281
747	-0.281
747	-0.27
748	-0.26
748	-0.262
748	-0.268
749	-0.264
749	-0.26
750	-0.249
750	-0.254
751	-0.259
751	-0.26
751	-0.261
752	-0.263
752	-0.267
753	-0.266
753	-0.263
754	-0.273
754	-0.266
754	-0.28
755	-0.287
755	-0.295
756	-0.291
756	-0.29
757	-0.29
757	-0.292
758	-0.292
758	-0.284
758	-0.281
759	-0.293
759	-0.281
760	-0.274
760	-0.268
761	-0.279
761	-0.273
761	-0.274
762	-0.276
762	-0.278
763	-0.289
763	-0.289
764	-0.284
764	-0.286
764	-0.292
765	-0.285
765	-0.27
766	-0.28
766	-0.287
767	-0.298
767	-0.289
768	-0.28
768	-0.286
768	-0.289
769	-0.308
769	-0.312
770	-0.314
770	-0.324
771	-0.314
771	-0.311
771	-0.316
772	-0.321
772	-0.318
773	-0.323
773	-0.315
774	-0.307
774	-0.307
775	-0.31
775	-0.309
775	-0.317
776	-0.323
776	-0.311
777	-0.32
777	-0.342
778	-0.344
778	-0.367
778	-0.359
779	-0.375
779	-0.379
780	-0.384
780	-0.381
781	-0.391
781	-0.388
781	-0.404
782	-0.41
782	-0.406
783	-0.394
783	-0.393
784	-0.39
784	-0.385
784	-0.404
785	-0.414
785	-0.399
786	-0.407
786	-0.386
787	-0.361
787	-0.357
788	-0.359
788	-0.361
788	-0.358
789	-0.354
789	-0.328
790	-0.304
790	-0.305
791	-0.297
791	-0.307
791	-0.315
792	-0.314
792	-0.294
793	-0.285
793	-0.263
794	-0.27
794	-0.267
794	-0.276
795	-0.274
795	-0.271
796	-0.255
796	-0.26
797	-0.249
797	-0.252
797	-0.261
798	-0.272
798	-0.261
799	-0.263
799	-0.257
800	-0.257
800	-0.25
801	-0.256
801	-0.245
801	-0.259
802	-0.274
802	-0.279
803	-0.282
803	-0.294
804	-0.292
804	-0.302
804	-0.293
805	-0.3
805	-0.293
806	-0.294
806	-0.279
807	-0.28
807	-0.264
807	-0.257
808	-0.25
808	-0.251
809	-0.239
809	-0.25
810	-0.251
810	-0.246
810	-0.243
811	-0.25
811	-0.239
812	-0.242
812	-0.241
813	-0.248
813	-0.238
813	-0.242
814	-0.245
814	-0.245
815	-0.247
815	-0.251
816	-0.246
816	-0.251
817	-0.256
817	-0.27
817	-0.274
818	-0.286
818	-0.289
819	-0.276
819	-0.282
820	-0.292
820	-0.291
820	-0.298
821	-0.298
821	-0.287
822	-0.264
822	-0.245
823	-0.238
823	-0.236
823	-0.235
824	-0.225
824	-0.225
825	-0.22
825	-0.211
826	-0.202
826	-0.205
826	-0.217
827	-0.218
827	-0.215
828	-0.204
828	-0.207
829	-0.201
829	-0.19
829	-0.18
830	-0.188
830	-0.187
831	-0.185
831	-0.175
832	-0.174
832	-0.173
832	-0.18
833	-0.178
833	-0.183
834	-0.186
834	-0.195
835	-0.185
835	-0.188
835	-0.186
836	-0.184
836	-0.182
837	-0.183
837	-0.179
838	-0.173
838	-0.168
839	-0.162
839	-0.151
839	-0.144
840	-0.133
840	-0.132
841	-0.12
841	-0.118
842	-0.112
842	-0.109
842	-0.106
843	-0.102
843	-0.101
844	-0.099
844	-0.1
845	-0.101
845	-0.095
845	-0.093
846	-0.087
846	-0.08
847	-0.074
847	-0.07
848	-0.068
848	-0.063
848	-0.054
849	-0.05
849	-0.045
850	-0.04
850	-0.042
851	-0.043
851	-0.041
851	-0.037
852	-0.03
852	-0.023
853	-0.019
853	-0.021
854	-0.018
854	-0.013
854	-0.009
855	-0.002
855	-0.001
856	0.003
856	0.006
857	0.008
857	0.011
857	0.015
858	0.019
858	0.021
859	0.023
859	0.025
860	0.027
860	0.031
860	0.032
861	0.033
861	0.035
862	0.035
862	0.037
863	0.037
863	0.039
863	0.04
864	0.04
864	0.041
865	0.042
865	0.043
866	0.043
866	0.044
866	0.044
867	0.044
867	0.046
868	0.046
868	0.047
869	0.048
869	0.048
869	0.048
870	0.049
870	0.049
871	0.05
871	0.051
872	0.051
872	0.051
872	0.051
873	0.051
873	0.052
874	0.052
874	0.052
875	0.052
875	0.052
875	0.051
876	0.051
876	0.051
877	0.051
877	0.051
878	0.05
878	0.05
878	0.049
879	0.048
879	0.048
880	0.048
880	0.048
881	0.048
881	0.048
881	0.047
882	0.046
882	0.046
883	0.045
883	0.045
884	0.045
884	0.044
884	0.044
885	0.043
885	0.043
886	0.042
886	0.042
887	0.043
887	0.043
887	0.043
888	0.044
888	0.045
889	0.046
889	0.047
890	0.048
890	0.048
890	0.049
891	0.049
891	0.049
892	0.05
892	0.05
893	0.049
893	0.049
893	0.048
894	0.048
894	0.047
895	0.046
895	0.045
895	0.044
896	0.043
896	0.042
897	0.04
897	0.039
898	0.038
898	0.037
898	0.037
899	0.037
899	0.037
900	0.037
900	0.037
901	0.037
901	0.037
901	0.037
902	0.037
902	0.037
903	0.037
903	0.036
904	0.037
904	0.037
904	0.037
905	0.038
905	0.038
906	0.038
906	0.037
907	0.037
907	0.036
907	0.036
908	0.035
908	0.034
909	0.033
909	0.032
910	0.031
910	0.031
910	0.03
911	0.03
911	0.03
912	0.03
912	0.03
913	0.03
913	0.031
913	0.031
914	0.032
914	0.033
915	0.034
915	0.034
916	0.035
916	0.035
916	0.036
917	0.036
917	0.036
918	0.036
918	0.036
918	0.035
919	0.035
919	0.035
920	0.035
920	0.035
921	0.036
921	0.036
921	0.036
922	0.037
922	0.037
923	0.038
923	0.038
924	0.039
924	0.04
924	0.04
925	0.039
925	0.039
926	0.039
926	0.038
927	0.038
927	0.038
927	0.037
928	0.037
928	0.036
929	0.036
929	0.035
930	0.035
930	0.035
930	0.035
931	0.035
931	0.035
932	0.035
932	0.035
933	0.035
933	0.035
933	0.035
934	0.034
934	0.034
935	0.033
935	0.033
935	0.033
936	0.033
936	0.032
937	0.032
937	0.032
938	0.032
938	0.032
938	0.033
939	0.033
939	0.033
940	0.033
940	0.033
941	0.033
941	0.033
941	0.033
942	0.033
942	0.033
943	0.032
943	0.032
944	0.031
944	0.031
944	0.03
945	0.029
945	0.028
946	0.028
946	0.027
946	0.027
947	0.027
947	0.027
948	0.028
948	0.028
949	0.028
949	0.028
949	0.029
950	0.029
950	0.03
951	0.03
951	0.031
952	0.031
952	0.032
952	0.033
953	0.033
953	0.034
954	0.034
954	0.035
955	0.036
955	0.036
955	0.036
956	0.036
956	0.037
957	0.037
957	0.036
957	0.036
958	0.037
958	0.037
959	0.037
959	0.037
960	0.037
960	0.037
960	0.038
961	0.037
961	0.037
962	0.037
962	0.037
963	0.038
963	0.037
963	0.037
964	0.037
964	0.037
965	0.037
965	0.037
966	0.037
966	0.037
966	0.037
967	0.036
967	0.036
968	0.035
968	0.035
968	0.034
969	0.034
969	0.033
970	0.033
970	0.032
971	0.032
971	0.032
971	0.031
972	0.031
972	0.031
973	0.03
973	0.03
974	0.029
974	0.028
974	0.028
975	0.027
975	0.026
976	0.025
976	0.025
976	0.024
977	0.024
977	0.024
978	0.024
978	0.024
979	0.024
979	0.024
979	0.024
980	0.024
980	0.025
981	0.025
981	0.026
982	0.026
982	0.025
982	0.025
983	0.025
983	0.024
984	0.024
984	0.024
984	0.024
985	0.024
985	0.024
986	0.024
986	0.024
987	0.025
987	0.026
987	0.026
988	0.026
988	0.027
989	0.027
989	0.026
990	0.026
990	0.025
990	0.024
991	0.024
991	0.023
992	0.023
992	0.023
992	0.022
993	0.022
993	0.022
994	0.022
994	0.022
995	0.022
995	0.022
995	0.022
996	0.022
996	0.022
997	0.023
997	0.023
997	0.023
998	0.023
998	0.024
999	0.024
999	0.024
1000	0.024
1000	0.024
1000	0.024
1001	0.024
1001	0.024
1002	0.023
1002	0.023
1003	0.022
1003	0.022
1003	0.021
1004	0.021
1004	0.02
1005	0.019
1005	0.018
1005	0.017
1006	0.017
1006	0.016
1007	0.015
1007	0.015
1008	0.015
1008	0.014
1008	0.014
1009	0.014
1009	0.014
1010	0.014
1010	0.014
1010	0.014
1011	0.014
1011	0.013
1012	0.012
1012	0.011
1013	0.01
1013	0.009
1013	0.008
1014	0.007
1014	0.006
1015	0.005
1015	0.005
1016	0.004
1016	0.003
1016	0.003
1017	0.003
1017	0.003
1018	0.003
1018	0.002
1018	0.002
1019	0.001
1019	0
1020	-0.001
1020	-0.001
1021	-0.002
1021	-0.003
1021	-0.004
1022	-0.005
1022	-0.006
1023	-0.007
1023	-0.007
1023	-0.007
1024	-0.007
1024	-0.008
1025	-0.007
1025	-0.007
1026	-0.006
1026	-0.005
1026	-0.005
1027	-0.004
1027	-0.004
1028	-0.003
1028	-0.003
1028	-0.003
1029	-0.003
1029	-0.003
1030	-0.003
1030	-0.003
1031	-0.003
1031	-0.003
1031	-0.002
1032	-0.002
1032	-0.001
1033	-0.001
1033	0
1033	0.001
1034	0.002
1034	0.002
1035	0.003
1035	0.003
1036	0.003
1036	0.003
1036	0.003
1037	0.003
1037	0.003
1038	0.003
1038	0.002
1039	0.002
1039	0.002
1039	0.002
1040	0.003
1040	0.003
1041	0.004
1041	0.004
1041	0.005
1042	0.006
1042	0.006
1043	0.006
1043	0.007
1044	0.007
1044	0.007
1044	0.007
1045	0.007
1045	0.007
1046	0.007
1046	0.007
1046	0.007
1047	0.007
1047	0.008
1048	0.008
1048	0.009
1049	0.009
1049	0.009
1049	0.009
1050	0.01
1050	0.01
1051	0.01
1051	0.01
1051	0.01
1052	0.01
1052	0.01
1053	0.01
1053	0.01
1053	0.01
1054	0.009
1054	0.009
1055	0.008
1055	0.008
1056	0.007
1056	0.006
1056	0.005
1057	0.004
1057	0.003
1058	0.003
1058	0.002
1058	0.001
1059	0.001
1059	0
1060	0
1060	0
1061	0
1061	0
1061	0.001
1062	0.001
1062	0.001
1063	0.001
1063	0.001
1063	0.001
1064	0.001
1064	0.001
1065	0.001
1065	0
1066	-0
1066	-0.001
1066	-0.001
1067	-0.001
1067	-0.002
1068	-0.002
1068	-0.002
1068	-0.002
1069	-0.002
1069	-0.002
1070	-0.002
1070	-0.002
1071	-0.002
1071	-0.002
1071	-0.002
1072	-0.002
1072	-0.002
1073	-0.002
1073	-0.003
1073	-0.003
1074	-0.003
1074	-0.003
1075	-0.004
1075	-0.004
1076	-0.005
1076	-0.005
1076	-0.006
1077	-0.006
1077	-0.006
1078	-0.007
1078	-0.007
1078	-0.008
1079	-0.009
1079	-0.009
1080	-0.01
1080	-0.011
1080	-0.011
1081	-0.012
1081	-0.012
1082	-0.013
1082	-0.014
1083	-0.014
1083	-0.014
1083	-0.014
1084	-0.014
1084	-0.014
1085	-0.014
1085	-0.015
1085	-0.015
1086	-0.015
1086	-0.015
1087	-0.015
1087	-0.014
1088	-0.015
1088	-0.014
1088	-0.015
1089	-0.015
1089	-0.014
1090	-0.014
1090	-0.014
1090	-0.013
1091	-0.013
1091	-0.013
1092	-0.013
1092	-0.012
1092	-0.012
1093	-0.012
1093	-0.012
1094	-0.012
1094	-0.012
1095	-0.012
1095	-0.012
1095	-0.011
1096	-0.011
1096	-0.011
1097	-0.011
1097	-0.01
1097	-0.01
1098	-0.009
1098	-0.009
1099	-0.009
1099	-0.008
1100	-0.009
1100	-0.009
1100	-0.009
1101	-0.009
1101	-0.01
1102	-0.011
1102	-0.011
1102	-0.01
1103	-0.01
1103	-0.01
1104	-0.012
1104	-0.012
1104	-0.013
1105	-0.014
1105	-0.015
1106	-0.016
1106	-0.017
1107	-0.018
1107	-0.02
1107	-0.022
1108	-0.024
1108	-0.024
1109	-0.025
1109	-0.027
1109	-0.026
1110	-0.025
1110	-0.026
1111	-0.026
1111	-0.031
