Data from 17C_3.4A_30min_2sec_int_Absorbance__294__00294.txt Node

Date: Mon Jun 19 16:17:03 CEST 2023
User: Marek
Spectrometer: MAYP115816
Trigger mode: 0
Integration Time (sec): 2.500000E-1
Scans to average: 10
Electric dark correction enabled: true
Nonlinearity correction enabled: true
Boxcar width: 5
XAxis mode: Wavelengths
Number of Pixels in Spectrum: 2068
>>>>>Begin Spectral Data<<<<<
199	-0.493
199	-0.478
200	-0.385
200	-0.341
201	-0.311
201	-0.299
202	-0.281
202	-0.269
203	-0.261
203	-0.258
204	-0.249
204	-0.232
205	-0.217
205	-0.214
205	-0.21
206	-0.208
206	-0.208
207	-0.199
207	-0.2
208	-0.2
208	-0.2
209	-0.194
209	-0.195
210	-0.196
210	-0.201
211	-0.201
211	-0.203
212	-0.206
212	-0.215
213	-0.21
213	-0.214
213	-0.214
214	-0.21
214	-0.211
215	-0.211
215	-0.215
216	-0.219
216	-0.224
217	-0.221
217	-0.224
218	-0.227
218	-0.224
219	-0.229
219	-0.236
220	-0.238
220	-0.246
221	-0.243
221	-0.243
221	-0.24
222	-0.236
222	-0.236
223	-0.24
223	-0.242
224	-0.244
224	-0.244
225	-0.239
225	-0.233
226	-0.237
226	-0.241
227	-0.245
227	-0.25
228	-0.249
228	-0.251
229	-0.254
229	-0.251
229	-0.25
230	-0.254
230	-0.258
231	-0.252
231	-0.244
232	-0.239
232	-0.242
233	-0.235
233	-0.234
234	-0.23
234	-0.226
235	-0.229
235	-0.229
236	-0.229
236	-0.235
236	-0.238
237	-0.243
237	-0.239
238	-0.249
238	-0.247
239	-0.25
239	-0.259
240	-0.257
240	-0.258
241	-0.26
241	-0.256
242	-0.263
242	-0.262
243	-0.261
243	-0.259
243	-0.266
244	-0.264
244	-0.259
245	-0.267
245	-0.268
246	-0.272
246	-0.279
247	-0.278
247	-0.277
248	-0.283
248	-0.281
249	-0.286
249	-0.291
250	-0.292
250	-0.29
250	-0.292
251	-0.289
251	-0.287
252	-0.292
252	-0.288
253	-0.288
253	-0.296
254	-0.292
254	-0.294
255	-0.301
255	-0.295
256	-0.289
256	-0.297
257	-0.294
257	-0.289
258	-0.304
258	-0.301
258	-0.301
259	-0.299
259	-0.306
260	-0.306
260	-0.312
261	-0.322
261	-0.317
262	-0.317
262	-0.316
263	-0.302
263	-0.302
264	-0.3
264	-0.305
265	-0.301
265	-0.302
265	-0.304
266	-0.302
266	-0.298
267	-0.306
267	-0.311
268	-0.323
268	-0.33
269	-0.327
269	-0.325
270	-0.33
270	-0.338
271	-0.335
271	-0.335
272	-0.34
272	-0.333
272	-0.332
273	-0.33
273	-0.335
274	-0.338
274	-0.34
275	-0.338
275	-0.327
276	-0.334
276	-0.33
277	-0.334
277	-0.351
278	-0.355
278	-0.35
278	-0.341
279	-0.341
279	-0.349
280	-0.349
280	-0.352
281	-0.348
281	-0.356
282	-0.348
282	-0.349
283	-0.342
283	-0.349
284	-0.346
284	-0.339
285	-0.335
285	-0.325
285	-0.321
286	-0.324
286	-0.322
287	-0.322
287	-0.309
288	-0.305
288	-0.307
289	-0.317
289	-0.324
290	-0.317
290	-0.321
291	-0.316
291	-0.313
292	-0.312
292	-0.315
292	-0.316
293	-0.318
293	-0.315
294	-0.307
294	-0.305
295	-0.303
295	-0.302
296	-0.304
296	-0.301
297	-0.295
297	-0.281
298	-0.275
298	-0.286
298	-0.272
299	-0.265
299	-0.267
300	-0.258
300	-0.251
301	-0.247
301	-0.246
302	-0.258
302	-0.268
303	-0.26
303	-0.244
304	-0.249
304	-0.248
305	-0.249
305	-0.25
305	-0.246
306	-0.236
306	-0.23
307	-0.216
307	-0.212
308	-0.223
308	-0.22
309	-0.225
309	-0.217
310	-0.203
310	-0.202
311	-0.198
311	-0.202
311	-0.2
312	-0.198
312	-0.198
313	-0.187
313	-0.19
314	-0.183
314	-0.185
315	-0.185
315	-0.183
316	-0.178
316	-0.172
317	-0.165
317	-0.161
318	-0.153
318	-0.152
318	-0.15
319	-0.141
319	-0.135
320	-0.135
320	-0.135
321	-0.141
321	-0.139
322	-0.139
322	-0.131
323	-0.129
323	-0.125
324	-0.116
324	-0.109
324	-0.102
325	-0.094
325	-0.079
326	-0.066
326	-0.054
327	-0.042
327	-0.028
328	-0.008
328	0.007
329	0.021
329	0.04
330	0.06
330	0.085
330	0.103
331	0.123
331	0.143
332	0.161
332	0.176
333	0.189
333	0.204
334	0.218
334	0.226
335	0.237
335	0.244
336	0.251
336	0.259
336	0.263
337	0.269
337	0.273
338	0.277
338	0.28
339	0.284
339	0.287
340	0.289
340	0.291
341	0.293
341	0.294
342	0.296
342	0.298
342	0.3
343	0.3
343	0.302
344	0.303
344	0.303
345	0.304
345	0.305
346	0.305
346	0.305
347	0.305
347	0.305
348	0.305
348	0.305
348	0.305
349	0.305
349	0.305
350	0.305
350	0.305
351	0.304
351	0.305
352	0.305
352	0.304
353	0.304
353	0.304
354	0.304
354	0.303
354	0.303
355	0.303
355	0.303
356	0.302
356	0.302
357	0.301
357	0.301
358	0.301
358	0.3
359	0.3
359	0.3
360	0.299
360	0.299
360	0.299
361	0.298
361	0.298
362	0.298
362	0.298
363	0.298
363	0.298
364	0.298
364	0.298
365	0.298
365	0.297
366	0.298
366	0.297
366	0.297
367	0.297
367	0.297
368	0.297
368	0.296
369	0.296
369	0.296
370	0.296
370	0.295
371	0.295
371	0.295
372	0.294
372	0.294
372	0.294
373	0.293
373	0.293
374	0.293
374	0.292
375	0.292
375	0.292
376	0.292
376	0.292
377	0.292
377	0.292
378	0.292
378	0.292
378	0.291
379	0.291
379	0.291
380	0.291
380	0.29
381	0.29
381	0.29
382	0.289
382	0.289
383	0.288
383	0.288
383	0.288
384	0.287
384	0.287
385	0.287
385	0.287
386	0.287
386	0.286
387	0.286
387	0.286
388	0.286
388	0.285
389	0.285
389	0.285
389	0.285
390	0.285
390	0.285
391	0.285
391	0.284
392	0.284
392	0.284
393	0.284
393	0.284
394	0.284
394	0.283
394	0.283
395	0.282
395	0.282
396	0.282
396	0.282
397	0.281
397	0.281
398	0.281
398	0.281
399	0.281
399	0.28
400	0.28
400	0.28
400	0.279
401	0.279
401	0.279
402	0.278
402	0.278
403	0.278
403	0.277
404	0.277
404	0.277
405	0.277
405	0.276
405	0.276
406	0.276
406	0.276
407	0.275
407	0.275
408	0.275
408	0.275
409	0.275
409	0.275
410	0.274
410	0.274
411	0.274
411	0.274
411	0.274
412	0.275
412	0.274
413	0.274
413	0.274
414	0.273
414	0.273
415	0.273
415	0.273
416	0.272
416	0.272
416	0.272
417	0.272
417	0.272
418	0.271
418	0.271
419	0.271
419	0.271
420	0.271
420	0.271
421	0.271
421	0.271
421	0.271
422	0.271
422	0.271
423	0.271
423	0.271
424	0.271
424	0.27
425	0.27
425	0.27
426	0.27
426	0.269
427	0.269
427	0.269
427	0.269
428	0.269
428	0.269
429	0.269
429	0.268
430	0.268
430	0.268
431	0.268
431	0.268
432	0.268
432	0.268
432	0.267
433	0.267
433	0.267
434	0.267
434	0.267
435	0.267
435	0.266
436	0.266
436	0.266
437	0.266
437	0.266
437	0.266
438	0.266
438	0.266
439	0.266
439	0.266
440	0.266
440	0.266
441	0.265
441	0.265
442	0.265
442	0.265
442	0.264
443	0.264
443	0.264
444	0.264
444	0.264
445	0.264
445	0.264
446	0.265
446	0.265
447	0.265
447	0.265
447	0.265
448	0.265
448	0.265
449	0.265
449	0.265
450	0.266
450	0.266
451	0.266
451	0.266
452	0.266
452	0.266
452	0.266
453	0.266
453	0.265
454	0.265
454	0.265
455	0.265
455	0.265
456	0.265
456	0.265
457	0.265
457	0.265
458	0.265
458	0.265
458	0.266
459	0.266
459	0.266
460	0.266
460	0.266
461	0.266
461	0.266
462	0.267
462	0.267
463	0.267
463	0.268
463	0.268
464	0.268
464	0.268
465	0.269
465	0.269
466	0.269
466	0.269
467	0.27
467	0.27
467	0.27
468	0.271
468	0.271
469	0.272
469	0.272
470	0.273
470	0.273
471	0.274
471	0.274
472	0.274
472	0.275
472	0.275
473	0.275
473	0.276
474	0.276
474	0.277
475	0.277
475	0.278
476	0.278
476	0.279
477	0.279
477	0.28
477	0.28
478	0.281
478	0.282
479	0.283
479	0.283
480	0.284
480	0.285
481	0.286
481	0.286
482	0.287
482	0.288
482	0.289
483	0.29
483	0.291
484	0.291
484	0.291
485	0.292
485	0.293
486	0.294
486	0.295
487	0.296
487	0.297
487	0.297
488	0.298
488	0.3
489	0.302
489	0.304
490	0.305
490	0.307
491	0.308
491	0.31
492	0.311
492	0.313
492	0.314
493	0.316
493	0.317
494	0.319
494	0.32
495	0.322
495	0.323
496	0.325
496	0.327
496	0.329
497	0.331
497	0.333
498	0.335
498	0.338
499	0.34
499	0.342
500	0.345
500	0.347
501	0.349
501	0.351
501	0.353
502	0.354
502	0.356
503	0.358
503	0.36
504	0.362
504	0.364
505	0.366
505	0.368
506	0.37
506	0.373
506	0.375
507	0.377
507	0.38
508	0.382
508	0.385
509	0.387
509	0.389
510	0.391
510	0.393
511	0.396
511	0.398
511	0.4
512	0.402
512	0.404
513	0.406
513	0.408
514	0.41
514	0.412
515	0.414
515	0.416
515	0.418
516	0.42
516	0.422
517	0.424
517	0.425
518	0.427
518	0.429
519	0.43
519	0.432
520	0.434
520	0.435
520	0.437
521	0.439
521	0.441
522	0.442
522	0.443
523	0.445
523	0.446
524	0.446
524	0.447
524	0.448
525	0.449
525	0.45
526	0.45
526	0.45
527	0.451
527	0.452
528	0.452
528	0.453
529	0.454
529	0.454
529	0.454
530	0.454
530	0.454
531	0.454
531	0.454
532	0.454
532	0.454
533	0.454
533	0.454
533	0.453
534	0.453
534	0.452
535	0.452
535	0.451
536	0.451
536	0.45
537	0.448
537	0.447
538	0.446
538	0.445
538	0.444
539	0.443
539	0.442
540	0.441
540	0.439
541	0.438
541	0.437
542	0.435
542	0.434
542	0.432
543	0.43
543	0.429
544	0.427
544	0.425
545	0.424
545	0.422
546	0.421
546	0.419
547	0.417
547	0.416
547	0.415
548	0.413
548	0.412
549	0.41
549	0.409
550	0.407
550	0.405
551	0.403
551	0.401
551	0.4
552	0.398
552	0.396
553	0.394
553	0.393
554	0.391
554	0.389
555	0.387
555	0.386
556	0.384
556	0.382
556	0.381
557	0.379
557	0.377
558	0.375
558	0.373
559	0.371
559	0.369
560	0.368
560	0.366
560	0.365
561	0.363
561	0.361
562	0.359
562	0.357
563	0.355
563	0.354
564	0.352
564	0.351
564	0.349
565	0.347
565	0.346
566	0.344
566	0.342
567	0.34
567	0.338
568	0.336
568	0.333
568	0.332
569	0.33
569	0.328
570	0.326
570	0.324
571	0.322
571	0.321
572	0.319
572	0.318
573	0.316
573	0.315
573	0.313
574	0.312
574	0.311
575	0.309
575	0.308
576	0.307
576	0.305
577	0.304
577	0.303
577	0.303
578	0.302
578	0.301
579	0.3
579	0.299
580	0.297
580	0.296
581	0.294
581	0.293
581	0.292
582	0.291
582	0.29
583	0.289
583	0.288
584	0.287
584	0.285
585	0.285
585	0.284
585	0.283
586	0.282
586	0.281
587	0.281
587	0.28
588	0.279
588	0.279
589	0.278
589	0.277
590	0.277
590	0.276
590	0.276
591	0.275
591	0.273
592	0.272
592	0.271
593	0.27
593	0.269
594	0.268
594	0.268
594	0.267
595	0.266
595	0.265
596	0.265
596	0.265
597	0.264
597	0.263
598	0.262
598	0.262
598	0.261
599	0.261
599	0.26
600	0.259
600	0.258
601	0.257
601	0.256
602	0.255
602	0.254
602	0.254
603	0.254
603	0.253
604	0.253
604	0.252
605	0.252
605	0.252
606	0.251
606	0.25
606	0.249
607	0.249
607	0.248
608	0.247
608	0.246
609	0.245
609	0.245
610	0.244
610	0.243
610	0.243
611	0.243
611	0.243
612	0.243
612	0.242
613	0.242
613	0.241
614	0.24
614	0.239
614	0.238
615	0.237
615	0.236
616	0.235
616	0.234
617	0.233
617	0.232
618	0.231
618	0.23
618	0.229
619	0.229
619	0.229
620	0.228
620	0.227
621	0.227
621	0.226
622	0.226
622	0.225
622	0.224
623	0.223
623	0.223
624	0.222
624	0.222
625	0.221
625	0.22
626	0.22
626	0.219
626	0.219
627	0.218
627	0.217
628	0.216
628	0.215
629	0.213
629	0.212
630	0.21
630	0.209
630	0.207
631	0.205
631	0.203
632	0.201
632	0.199
633	0.196
633	0.194
634	0.192
634	0.189
634	0.187
635	0.184
635	0.181
636	0.178
636	0.174
637	0.171
637	0.167
638	0.164
638	0.16
638	0.156
639	0.152
639	0.147
640	0.143
640	0.139
641	0.135
641	0.131
642	0.127
642	0.123
642	0.119
643	0.114
643	0.109
644	0.105
644	0.1
645	0.095
645	0.09
646	0.085
646	0.079
646	0.073
647	0.067
647	0.062
648	0.056
648	0.051
649	0.044
649	0.038
650	0.032
650	0.026
650	0.019
651	0.012
651	0.002
652	-0.009
652	-0.021
653	-0.032
653	-0.041
653	-0.038
654	-0.021
654	-0.011
655	-0.013
655	-0.016
656	-0.019
656	-0.023
657	-0.026
657	-0.029
657	-0.033
658	-0.037
658	-0.059
659	-0.127
659	-0.212
660	-0.25
660	-0.273
661	-0.299
661	-0.328
661	-0.361
662	-0.393
662	-0.43
663	-0.472
663	-0.517
664	-0.562
664	-0.616
665	-0.67
665	-0.733
665	-0.792
666	-0.853
666	-0.919
667	-0.987
667	-1.057
668	-1.132
668	-1.209
669	-1.288
669	-1.368
669	-1.452
670	-1.531
670	-1.588
671	-1.789
671	-2.026
672	-2.238
672	-2.42
672	-2.544
673	-2.633
673	-2.708
674	-2.735
674	-2.75
675	-2.773
675	-2.91
676	-3.091
676	-3.038
676	-2.807
677	-2.593
677	-2.413
678	-2.2
678	-1.803
679	-1.595
679	-1.477
680	-1.387
680	-1.307
680	-1.24
681	-1.195
681	-1.136
682	-1.093
682	-1.055
683	-1.017
683	-0.997
684	-0.972
684	-0.947
684	-0.922
685	-0.894
685	-0.869
686	-0.842
686	-0.822
687	-0.792
687	-0.776
687	-0.753
688	-0.722
688	-0.699
689	-0.677
689	-0.661
690	-0.638
690	-0.62
691	-0.61
691	-0.611
691	-0.623
692	-0.608
692	-0.597
693	-0.589
693	-0.594
694	-0.588
694	-0.58
695	-0.582
695	-0.579
695	-0.563
696	-0.558
696	-0.535
697	-0.533
697	-0.544
698	-0.547
698	-0.535
698	-0.544
699	-0.545
699	-0.542
700	-0.531
700	-0.542
701	-0.54
701	-0.543
702	-0.546
702	-0.534
702	-0.525
703	-0.521
703	-0.513
704	-0.509
704	-0.506
705	-0.519
705	-0.509
705	-0.496
706	-0.495
706	-0.49
707	-0.492
707	-0.486
708	-0.478
708	-0.471
709	-0.471
709	-0.475
709	-0.465
710	-0.473
710	-0.48
711	-0.471
711	-0.466
712	-0.466
712	-0.476
713	-0.477
713	-0.481
713	-0.473
714	-0.468
714	-0.468
715	-0.458
715	-0.446
716	-0.456
716	-0.457
716	-0.45
717	-0.454
717	-0.458
718	-0.45
718	-0.448
719	-0.456
719	-0.455
720	-0.45
720	-0.457
720	-0.452
721	-0.445
721	-0.44
722	-0.425
722	-0.414
723	-0.414
723	-0.417
723	-0.401
724	-0.402
724	-0.406
725	-0.407
725	-0.409
726	-0.421
726	-0.432
727	-0.437
727	-0.449
727	-0.454
728	-0.454
728	-0.458
729	-0.464
729	-0.468
730	-0.472
730	-0.467
730	-0.459
731	-0.439
731	-0.447
732	-0.449
732	-0.449
733	-0.446
733	-0.455
734	-0.443
734	-0.442
734	-0.43
735	-0.429
735	-0.426
736	-0.434
736	-0.423
737	-0.418
737	-0.419
737	-0.428
738	-0.421
738	-0.424
739	-0.421
739	-0.433
740	-0.433
740	-0.434
741	-0.432
741	-0.43
741	-0.43
742	-0.43
742	-0.43
743	-0.438
743	-0.439
744	-0.439
744	-0.428
744	-0.427
745	-0.429
745	-0.425
746	-0.423
746	-0.423
747	-0.422
747	-0.412
748	-0.4
748	-0.405
748	-0.404
749	-0.405
749	-0.408
750	-0.396
750	-0.393
751	-0.402
751	-0.41
751	-0.41
752	-0.412
752	-0.419
753	-0.415
753	-0.414
754	-0.418
754	-0.411
754	-0.428
755	-0.443
755	-0.449
756	-0.439
756	-0.438
757	-0.438
757	-0.434
758	-0.437
758	-0.434
758	-0.437
759	-0.444
759	-0.428
760	-0.426
760	-0.424
761	-0.434
761	-0.429
761	-0.426
762	-0.435
762	-0.429
763	-0.439
763	-0.433
764	-0.429
764	-0.434
764	-0.435
765	-0.425
765	-0.411
766	-0.422
766	-0.431
767	-0.443
767	-0.438
768	-0.426
768	-0.435
768	-0.438
769	-0.456
769	-0.456
770	-0.46
770	-0.471
771	-0.462
771	-0.462
771	-0.466
772	-0.47
772	-0.473
773	-0.474
773	-0.471
774	-0.468
774	-0.47
775	-0.472
775	-0.465
775	-0.47
776	-0.467
776	-0.456
777	-0.466
777	-0.485
778	-0.485
778	-0.502
778	-0.492
779	-0.508
779	-0.515
780	-0.529
780	-0.531
781	-0.545
781	-0.544
781	-0.561
782	-0.562
782	-0.565
783	-0.555
783	-0.555
784	-0.545
784	-0.539
784	-0.548
785	-0.559
785	-0.548
786	-0.549
786	-0.522
787	-0.504
787	-0.502
788	-0.502
788	-0.506
788	-0.505
789	-0.503
789	-0.486
790	-0.465
790	-0.467
791	-0.462
791	-0.481
791	-0.488
792	-0.479
792	-0.46
793	-0.451
793	-0.435
794	-0.439
794	-0.433
794	-0.439
795	-0.433
795	-0.43
796	-0.416
796	-0.422
797	-0.417
797	-0.423
797	-0.43
798	-0.442
798	-0.435
799	-0.442
799	-0.429
800	-0.432
800	-0.426
801	-0.43
801	-0.413
801	-0.424
802	-0.434
802	-0.436
803	-0.436
803	-0.446
804	-0.444
804	-0.456
804	-0.448
805	-0.455
805	-0.447
806	-0.451
806	-0.437
807	-0.437
807	-0.422
807	-0.409
808	-0.397
808	-0.394
809	-0.38
809	-0.392
810	-0.39
810	-0.385
810	-0.384
811	-0.388
811	-0.379
812	-0.379
812	-0.382
813	-0.391
813	-0.38
813	-0.389
814	-0.388
814	-0.391
815	-0.396
815	-0.4
816	-0.392
816	-0.4
817	-0.407
817	-0.426
817	-0.435
818	-0.451
818	-0.448
819	-0.439
819	-0.442
820	-0.449
820	-0.442
820	-0.455
821	-0.452
821	-0.44
822	-0.41
822	-0.39
823	-0.384
823	-0.389
823	-0.386
824	-0.376
824	-0.38
825	-0.377
825	-0.36
826	-0.352
826	-0.359
826	-0.371
827	-0.367
827	-0.362
828	-0.345
828	-0.345
829	-0.341
829	-0.326
829	-0.316
830	-0.324
830	-0.322
831	-0.318
831	-0.307
832	-0.311
832	-0.31
832	-0.315
833	-0.311
833	-0.313
834	-0.311
834	-0.322
835	-0.311
835	-0.309
835	-0.307
836	-0.304
836	-0.297
837	-0.293
837	-0.286
838	-0.279
838	-0.27
839	-0.263
839	-0.252
839	-0.245
840	-0.235
840	-0.235
841	-0.227
841	-0.223
842	-0.219
842	-0.211
842	-0.209
843	-0.206
843	-0.202
844	-0.2
844	-0.196
845	-0.193
845	-0.18
845	-0.174
846	-0.166
846	-0.156
847	-0.149
847	-0.14
848	-0.133
848	-0.126
848	-0.113
849	-0.107
849	-0.101
850	-0.096
850	-0.091
851	-0.087
851	-0.082
851	-0.076
852	-0.067
852	-0.061
853	-0.056
853	-0.055
854	-0.047
854	-0.04
854	-0.033
855	-0.027
855	-0.024
856	-0.017
856	-0.013
857	-0.009
857	-0.003
857	0.004
858	0.011
858	0.013
859	0.016
859	0.021
860	0.025
860	0.032
860	0.034
861	0.037
861	0.041
862	0.043
862	0.045
863	0.047
863	0.05
863	0.053
864	0.054
864	0.055
865	0.058
865	0.061
866	0.063
866	0.064
866	0.066
867	0.068
867	0.07
868	0.071
868	0.073
869	0.075
869	0.076
869	0.076
870	0.077
870	0.078
871	0.078
871	0.079
872	0.079
872	0.079
872	0.079
873	0.079
873	0.079
874	0.079
874	0.079
875	0.079
875	0.079
875	0.078
876	0.077
876	0.077
877	0.076
877	0.076
878	0.075
878	0.074
878	0.074
879	0.072
879	0.072
880	0.071
880	0.071
881	0.071
881	0.071
881	0.071
882	0.07
882	0.069
883	0.068
883	0.067
884	0.067
884	0.066
884	0.066
885	0.065
885	0.065
886	0.064
886	0.064
887	0.063
887	0.063
887	0.064
888	0.064
888	0.064
889	0.065
889	0.066
890	0.067
890	0.068
890	0.068
891	0.068
891	0.069
892	0.069
892	0.069
893	0.069
893	0.069
893	0.068
894	0.067
894	0.066
895	0.066
895	0.065
895	0.065
896	0.064
896	0.063
897	0.062
897	0.062
898	0.061
898	0.06
898	0.06
899	0.06
899	0.06
900	0.06
900	0.06
901	0.06
901	0.06
901	0.06
902	0.061
902	0.06
903	0.06
903	0.06
904	0.06
904	0.06
904	0.06
905	0.06
905	0.06
906	0.06
906	0.059
907	0.059
907	0.058
907	0.057
908	0.057
908	0.056
909	0.056
909	0.055
910	0.054
910	0.053
910	0.053
911	0.052
911	0.052
912	0.053
912	0.053
913	0.053
913	0.054
913	0.054
914	0.055
914	0.056
915	0.057
915	0.057
916	0.058
916	0.059
916	0.059
917	0.06
917	0.06
918	0.06
918	0.06
918	0.06
919	0.059
919	0.059
920	0.06
920	0.06
921	0.06
921	0.061
921	0.061
922	0.061
922	0.062
923	0.062
923	0.063
924	0.063
924	0.064
924	0.064
925	0.063
925	0.063
926	0.062
926	0.061
927	0.061
927	0.06
927	0.06
928	0.059
928	0.059
929	0.058
929	0.057
930	0.057
930	0.057
930	0.057
931	0.057
931	0.057
932	0.058
932	0.057
933	0.057
933	0.057
933	0.056
934	0.056
934	0.055
935	0.054
935	0.054
935	0.053
936	0.053
936	0.052
937	0.051
937	0.051
938	0.05
938	0.051
938	0.051
939	0.051
939	0.051
940	0.05
940	0.05
941	0.05
941	0.05
941	0.05
942	0.05
942	0.05
943	0.049
943	0.049
944	0.048
944	0.048
944	0.047
945	0.047
945	0.046
946	0.046
946	0.045
946	0.045
947	0.045
947	0.046
948	0.046
948	0.047
949	0.047
949	0.047
949	0.047
950	0.048
950	0.048
951	0.049
951	0.05
952	0.051
952	0.052
952	0.052
953	0.052
953	0.053
954	0.054
954	0.054
955	0.055
955	0.056
955	0.056
956	0.057
956	0.057
957	0.057
957	0.057
957	0.057
958	0.058
958	0.059
959	0.059
959	0.059
960	0.059
960	0.059
960	0.059
961	0.059
961	0.059
962	0.058
962	0.058
963	0.057
963	0.056
963	0.056
964	0.055
964	0.055
965	0.055
965	0.054
966	0.054
966	0.053
966	0.053
967	0.053
967	0.053
968	0.052
968	0.052
968	0.052
969	0.051
969	0.051
970	0.051
970	0.051
971	0.051
971	0.051
971	0.051
972	0.051
972	0.05
973	0.05
973	0.049
974	0.049
974	0.049
974	0.048
975	0.047
975	0.046
976	0.045
976	0.045
976	0.044
977	0.044
977	0.044
978	0.043
978	0.043
979	0.043
979	0.043
979	0.043
980	0.044
980	0.044
981	0.045
981	0.045
982	0.045
982	0.045
982	0.045
983	0.045
983	0.045
984	0.044
984	0.044
984	0.044
985	0.044
985	0.044
986	0.044
986	0.045
987	0.045
987	0.046
987	0.046
988	0.046
988	0.046
989	0.047
989	0.046
990	0.046
990	0.046
990	0.046
991	0.045
991	0.044
992	0.044
992	0.043
992	0.043
993	0.043
993	0.042
994	0.042
994	0.042
995	0.042
995	0.041
995	0.041
996	0.041
996	0.041
997	0.042
997	0.042
997	0.042
998	0.042
998	0.042
999	0.042
999	0.043
1000	0.043
1000	0.043
1000	0.043
1001	0.043
1001	0.042
1002	0.042
1002	0.042
1003	0.041
1003	0.041
1003	0.041
1004	0.04
1004	0.039
1005	0.038
1005	0.037
1005	0.037
1006	0.036
1006	0.035
1007	0.034
1007	0.034
1008	0.033
1008	0.033
1008	0.033
1009	0.033
1009	0.033
1010	0.033
1010	0.033
1010	0.033
1011	0.032
1011	0.032
1012	0.031
1012	0.03
1013	0.029
1013	0.028
1013	0.027
1014	0.026
1014	0.025
1015	0.024
1015	0.024
1016	0.022
1016	0.022
1016	0.021
1017	0.021
1017	0.021
1018	0.02
1018	0.02
1018	0.019
1019	0.019
1019	0.018
1020	0.017
1020	0.017
1021	0.016
1021	0.015
1021	0.014
1022	0.013
1022	0.012
1023	0.011
1023	0.011
1023	0.01
1024	0.01
1024	0.01
1025	0.01
1025	0.01
1026	0.01
1026	0.011
1026	0.011
1027	0.012
1027	0.012
1028	0.012
1028	0.013
1028	0.013
1029	0.013
1029	0.013
1030	0.012
1030	0.012
1031	0.012
1031	0.012
1031	0.012
1032	0.013
1032	0.013
1033	0.014
1033	0.014
1033	0.015
1034	0.016
1034	0.016
1035	0.017
1035	0.017
1036	0.017
1036	0.017
1036	0.016
1037	0.016
1037	0.016
1038	0.016
1038	0.015
1039	0.015
1039	0.015
1039	0.015
1040	0.016
1040	0.016
1041	0.017
1041	0.017
1041	0.017
1042	0.018
1042	0.018
1043	0.018
1043	0.018
1044	0.018
1044	0.018
1044	0.018
1045	0.018
1045	0.018
1046	0.018
1046	0.018
1046	0.018
1047	0.019
1047	0.019
1048	0.02
1048	0.02
1049	0.02
1049	0.021
1049	0.021
1050	0.021
1050	0.022
1051	0.022
1051	0.022
1051	0.022
1052	0.023
1052	0.023
1053	0.023
1053	0.023
1053	0.023
1054	0.023
1054	0.022
1055	0.022
1055	0.021
1056	0.02
1056	0.019
1056	0.018
1057	0.017
1057	0.017
1058	0.016
1058	0.015
1058	0.015
1059	0.014
1059	0.013
1060	0.013
1060	0.013
1061	0.013
1061	0.013
1061	0.013
1062	0.013
1062	0.013
1063	0.013
1063	0.013
1063	0.013
1064	0.013
1064	0.013
1065	0.013
1065	0.013
1066	0.012
1066	0.012
1066	0.011
1067	0.011
1067	0.01
1068	0.009
1068	0.009
1068	0.008
1069	0.008
1069	0.008
1070	0.008
1070	0.008
1071	0.008
1071	0.008
1071	0.008
1072	0.008
1072	0.008
1073	0.008
1073	0.008
1073	0.008
1074	0.008
1074	0.008
1075	0.008
1075	0.008
1076	0.008
1076	0.008
1076	0.007
1077	0.007
1077	0.007
1078	0.006
1078	0.006
1078	0.005
1079	0.004
1079	0.004
1080	0.003
1080	0.002
1080	0.002
1081	0.001
1081	0
1082	-0
1082	-0.001
1083	-0.001
1083	-0.002
1083	-0.003
1084	-0.003
1084	-0.003
1085	-0.004
1085	-0.004
1085	-0.004
1086	-0.004
1086	-0.005
1087	-0.005
1087	-0.005
1088	-0.005
1088	-0.005
1088	-0.005
1089	-0.005
1089	-0.005
1090	-0.006
1090	-0.006
1090	-0.006
1091	-0.005
1091	-0.005
1092	-0.006
1092	-0.005
1092	-0.006
1093	-0.007
1093	-0.006
1094	-0.006
1094	-0.007
1095	-0.007
1095	-0.007
1095	-0.008
1096	-0.008
1096	-0.007
1097	-0.007
1097	-0.007
1097	-0.007
1098	-0.007
1098	-0.008
1099	-0.007
1099	-0.007
1100	-0.007
1100	-0.006
1100	-0.007
1101	-0.008
1101	-0.01
1102	-0.011
1102	-0.012
1102	-0.011
1103	-0.012
1103	-0.013
1104	-0.014
1104	-0.015
1104	-0.016
1105	-0.017
1105	-0.019
1106	-0.02
1106	-0.022
1107	-0.023
1107	-0.026
1107	-0.03
1108	-0.03
1108	-0.032
1109	-0.034
1109	-0.037
1109	-0.039
1110	-0.036
1110	-0.04
1111	-0.041
1111	-0.045
