Data from 17C_3.4A_30min_2sec_int_Absorbance__93__00093.txt Node

Date: Mon Jun 19 16:08:40 CEST 2023
User: Marek
Spectrometer: MAYP115816
Trigger mode: 0
Integration Time (sec): 2.500000E-1
Scans to average: 10
Electric dark correction enabled: true
Nonlinearity correction enabled: true
Boxcar width: 5
XAxis mode: Wavelengths
Number of Pixels in Spectrum: 2068
>>>>>Begin Spectral Data<<<<<
199	-0.271
199	-0.263
200	-0.191
200	-0.158
201	-0.135
201	-0.124
202	-0.112
202	-0.105
203	-0.101
203	-0.096
204	-0.091
204	-0.083
205	-0.07
205	-0.071
205	-0.068
206	-0.067
206	-0.07
207	-0.06
207	-0.063
208	-0.067
208	-0.066
209	-0.061
209	-0.059
210	-0.064
210	-0.066
211	-0.067
211	-0.072
212	-0.072
212	-0.082
213	-0.079
213	-0.079
213	-0.081
214	-0.075
214	-0.076
215	-0.078
215	-0.08
216	-0.083
216	-0.083
217	-0.077
217	-0.082
218	-0.087
218	-0.082
219	-0.092
219	-0.097
220	-0.101
220	-0.105
221	-0.105
221	-0.108
221	-0.106
222	-0.106
222	-0.106
223	-0.108
223	-0.11
224	-0.108
224	-0.112
225	-0.105
225	-0.097
226	-0.102
226	-0.102
227	-0.106
227	-0.109
228	-0.109
228	-0.103
229	-0.105
229	-0.097
229	-0.093
230	-0.102
230	-0.108
231	-0.097
231	-0.088
232	-0.079
232	-0.086
233	-0.08
233	-0.08
234	-0.078
234	-0.081
235	-0.083
235	-0.081
236	-0.08
236	-0.086
236	-0.096
237	-0.102
237	-0.1
238	-0.108
238	-0.106
239	-0.107
239	-0.113
240	-0.112
240	-0.117
241	-0.111
241	-0.108
242	-0.107
242	-0.105
243	-0.098
243	-0.096
243	-0.1
244	-0.097
244	-0.096
245	-0.1
245	-0.094
246	-0.105
246	-0.114
247	-0.117
247	-0.119
248	-0.129
248	-0.13
249	-0.131
249	-0.139
250	-0.134
250	-0.135
250	-0.132
251	-0.13
251	-0.121
252	-0.122
252	-0.115
253	-0.11
253	-0.117
254	-0.119
254	-0.121
255	-0.127
255	-0.122
256	-0.121
256	-0.127
257	-0.134
257	-0.131
258	-0.151
258	-0.148
258	-0.146
259	-0.145
259	-0.15
260	-0.151
260	-0.15
261	-0.16
261	-0.155
262	-0.145
262	-0.142
263	-0.124
263	-0.124
264	-0.119
264	-0.125
265	-0.115
265	-0.128
265	-0.138
266	-0.136
266	-0.134
267	-0.145
267	-0.152
268	-0.166
268	-0.172
269	-0.165
269	-0.157
270	-0.159
270	-0.153
271	-0.14
271	-0.138
272	-0.14
272	-0.135
272	-0.131
273	-0.121
273	-0.128
274	-0.135
274	-0.139
275	-0.138
275	-0.128
276	-0.134
276	-0.136
277	-0.134
277	-0.144
278	-0.146
278	-0.148
278	-0.139
279	-0.142
279	-0.145
280	-0.152
280	-0.157
281	-0.159
281	-0.155
282	-0.152
282	-0.152
283	-0.147
283	-0.139
284	-0.137
284	-0.126
285	-0.126
285	-0.117
285	-0.114
286	-0.111
286	-0.11
287	-0.111
287	-0.105
288	-0.105
288	-0.118
289	-0.127
289	-0.132
290	-0.12
290	-0.118
291	-0.108
291	-0.112
292	-0.112
292	-0.116
292	-0.115
293	-0.111
293	-0.106
294	-0.102
294	-0.099
295	-0.099
295	-0.1
296	-0.103
296	-0.098
297	-0.094
297	-0.083
298	-0.076
298	-0.085
298	-0.072
299	-0.068
299	-0.072
300	-0.067
300	-0.061
301	-0.06
301	-0.057
302	-0.065
302	-0.072
303	-0.065
303	-0.052
304	-0.054
304	-0.048
305	-0.047
305	-0.054
305	-0.054
306	-0.039
306	-0.037
307	-0.031
307	-0.026
308	-0.035
308	-0.035
309	-0.041
309	-0.035
310	-0.023
310	-0.016
311	-0.007
311	-0.013
311	-0.016
312	-0.009
312	-0.006
313	0.004
313	0.005
314	0.012
314	0.007
315	0.003
315	0.006
316	0.005
316	0.006
317	0.013
317	0.018
318	0.019
318	0.018
318	0.021
319	0.027
319	0.034
320	0.038
320	0.036
321	0.032
321	0.039
322	0.044
322	0.043
323	0.049
323	0.054
324	0.058
324	0.063
324	0.065
325	0.074
325	0.081
326	0.088
326	0.095
327	0.103
327	0.118
328	0.133
328	0.145
329	0.159
329	0.171
330	0.186
330	0.203
330	0.217
331	0.233
331	0.245
332	0.256
332	0.265
333	0.274
333	0.283
334	0.29
334	0.296
335	0.304
335	0.308
336	0.313
336	0.316
336	0.319
337	0.323
337	0.326
338	0.329
338	0.33
339	0.332
339	0.334
340	0.334
340	0.335
341	0.337
341	0.338
342	0.339
342	0.339
342	0.34
343	0.341
343	0.342
344	0.342
344	0.342
345	0.342
345	0.342
346	0.342
346	0.342
347	0.342
347	0.342
348	0.342
348	0.342
348	0.341
349	0.341
349	0.341
350	0.341
350	0.34
351	0.34
351	0.34
352	0.34
352	0.339
353	0.339
353	0.339
354	0.339
354	0.338
354	0.338
355	0.338
355	0.338
356	0.338
356	0.337
357	0.337
357	0.337
358	0.337
358	0.336
359	0.336
359	0.336
360	0.335
360	0.335
360	0.335
361	0.334
361	0.334
362	0.334
362	0.333
363	0.333
363	0.333
364	0.333
364	0.333
365	0.333
365	0.333
366	0.332
366	0.332
366	0.332
367	0.332
367	0.332
368	0.331
368	0.331
369	0.331
369	0.33
370	0.33
370	0.329
371	0.329
371	0.329
372	0.329
372	0.328
372	0.328
373	0.328
373	0.327
374	0.327
374	0.327
375	0.327
375	0.327
376	0.326
376	0.326
377	0.326
377	0.326
378	0.325
378	0.325
378	0.325
379	0.325
379	0.324
380	0.324
380	0.324
381	0.323
381	0.323
382	0.323
382	0.322
383	0.322
383	0.322
383	0.321
384	0.321
384	0.321
385	0.321
385	0.321
386	0.321
386	0.321
387	0.32
387	0.32
388	0.32
388	0.32
389	0.319
389	0.319
389	0.319
390	0.319
390	0.318
391	0.318
391	0.318
392	0.317
392	0.317
393	0.317
393	0.316
394	0.316
394	0.316
394	0.315
395	0.315
395	0.315
396	0.315
396	0.314
397	0.314
397	0.314
398	0.314
398	0.313
399	0.313
399	0.313
400	0.312
400	0.312
400	0.311
401	0.311
401	0.311
402	0.31
402	0.31
403	0.309
403	0.309
404	0.309
404	0.309
405	0.308
405	0.308
405	0.308
406	0.308
406	0.307
407	0.307
407	0.306
408	0.306
408	0.306
409	0.306
409	0.306
410	0.306
410	0.306
411	0.305
411	0.305
411	0.305
412	0.305
412	0.305
413	0.305
413	0.304
414	0.304
414	0.304
415	0.304
415	0.303
416	0.303
416	0.303
416	0.303
417	0.302
417	0.302
418	0.302
418	0.302
419	0.302
419	0.302
420	0.302
420	0.302
421	0.302
421	0.302
421	0.301
422	0.301
422	0.301
423	0.301
423	0.301
424	0.3
424	0.3
425	0.3
425	0.3
426	0.3
426	0.299
427	0.299
427	0.299
427	0.299
428	0.299
428	0.298
429	0.298
429	0.298
430	0.298
430	0.298
431	0.298
431	0.298
432	0.298
432	0.297
432	0.297
433	0.297
433	0.297
434	0.297
434	0.296
435	0.296
435	0.296
436	0.296
436	0.296
437	0.296
437	0.296
437	0.296
438	0.296
438	0.296
439	0.295
439	0.295
440	0.295
440	0.295
441	0.294
441	0.294
442	0.294
442	0.294
442	0.293
443	0.293
443	0.293
444	0.293
444	0.294
445	0.294
445	0.294
446	0.294
446	0.294
447	0.294
447	0.294
447	0.294
448	0.294
448	0.294
449	0.294
449	0.294
450	0.295
450	0.295
451	0.295
451	0.295
452	0.295
452	0.295
452	0.295
453	0.295
453	0.295
454	0.295
454	0.295
455	0.294
455	0.294
456	0.294
456	0.294
457	0.294
457	0.294
458	0.294
458	0.294
458	0.295
459	0.295
459	0.295
460	0.295
460	0.295
461	0.295
461	0.296
462	0.296
462	0.296
463	0.296
463	0.297
463	0.297
464	0.297
464	0.297
465	0.297
465	0.297
466	0.298
466	0.298
467	0.298
467	0.299
467	0.299
468	0.3
468	0.301
469	0.301
469	0.302
470	0.302
470	0.303
471	0.303
471	0.303
472	0.304
472	0.304
472	0.305
473	0.305
473	0.305
474	0.306
474	0.306
475	0.307
475	0.307
476	0.308
476	0.309
477	0.309
477	0.31
477	0.31
478	0.311
478	0.312
479	0.313
479	0.314
480	0.314
480	0.315
481	0.316
481	0.317
482	0.318
482	0.319
482	0.32
483	0.321
483	0.321
484	0.322
484	0.322
485	0.323
485	0.324
486	0.325
486	0.327
487	0.328
487	0.329
487	0.33
488	0.331
488	0.333
489	0.335
489	0.337
490	0.338
490	0.34
491	0.342
491	0.343
492	0.345
492	0.346
492	0.348
493	0.35
493	0.352
494	0.353
494	0.355
495	0.357
495	0.359
496	0.361
496	0.362
496	0.365
497	0.367
497	0.369
498	0.371
498	0.373
499	0.375
499	0.378
500	0.381
500	0.383
501	0.386
501	0.388
501	0.39
502	0.392
502	0.394
503	0.397
503	0.399
504	0.401
504	0.404
505	0.406
505	0.408
506	0.411
506	0.413
506	0.416
507	0.419
507	0.422
508	0.424
508	0.427
509	0.429
509	0.432
510	0.435
510	0.437
511	0.44
511	0.442
511	0.444
512	0.446
512	0.449
513	0.451
513	0.453
514	0.455
514	0.458
515	0.46
515	0.462
515	0.464
516	0.467
516	0.469
517	0.471
517	0.473
518	0.475
518	0.477
519	0.479
519	0.481
520	0.483
520	0.485
520	0.487
521	0.49
521	0.492
522	0.493
522	0.495
523	0.497
523	0.498
524	0.499
524	0.501
524	0.502
525	0.503
525	0.504
526	0.505
526	0.506
527	0.507
527	0.508
528	0.509
528	0.509
529	0.51
529	0.51
529	0.511
530	0.511
530	0.511
531	0.511
531	0.511
532	0.511
532	0.511
533	0.511
533	0.511
533	0.511
534	0.511
534	0.511
535	0.511
535	0.51
536	0.51
536	0.509
537	0.509
537	0.508
538	0.507
538	0.507
538	0.506
539	0.505
539	0.504
540	0.503
540	0.502
541	0.501
541	0.5
542	0.499
542	0.497
542	0.496
543	0.494
543	0.493
544	0.491
544	0.489
545	0.488
545	0.487
546	0.486
546	0.484
547	0.482
547	0.481
547	0.48
548	0.478
548	0.477
549	0.475
549	0.474
550	0.472
550	0.471
551	0.469
551	0.467
551	0.465
552	0.464
552	0.462
553	0.461
553	0.459
554	0.457
554	0.455
555	0.454
555	0.452
556	0.451
556	0.449
556	0.447
557	0.446
557	0.444
558	0.442
558	0.44
559	0.439
559	0.437
560	0.435
560	0.433
560	0.432
561	0.43
561	0.428
562	0.426
562	0.424
563	0.422
563	0.42
564	0.419
564	0.417
564	0.415
565	0.413
565	0.411
566	0.409
566	0.407
567	0.405
567	0.402
568	0.4
568	0.398
568	0.396
569	0.394
569	0.392
570	0.39
570	0.388
571	0.387
571	0.385
572	0.383
572	0.381
573	0.38
573	0.378
573	0.376
574	0.375
574	0.373
575	0.371
575	0.37
576	0.368
576	0.366
577	0.365
577	0.364
577	0.363
578	0.361
578	0.36
579	0.359
579	0.357
580	0.356
580	0.354
581	0.353
581	0.351
581	0.35
582	0.349
582	0.347
583	0.345
583	0.344
584	0.342
584	0.341
585	0.339
585	0.338
585	0.336
586	0.335
586	0.334
587	0.333
587	0.332
588	0.331
588	0.33
589	0.329
589	0.328
590	0.326
590	0.326
590	0.325
591	0.323
591	0.321
592	0.319
592	0.318
593	0.317
593	0.315
594	0.314
594	0.313
594	0.311
595	0.31
595	0.309
596	0.308
596	0.307
597	0.305
597	0.304
598	0.302
598	0.301
598	0.3
599	0.299
599	0.298
600	0.297
600	0.296
601	0.294
601	0.293
602	0.291
602	0.29
602	0.289
603	0.288
603	0.287
604	0.286
604	0.285
605	0.284
605	0.283
606	0.282
606	0.281
606	0.28
607	0.278
607	0.277
608	0.276
608	0.274
609	0.273
609	0.272
610	0.271
610	0.269
610	0.269
611	0.268
611	0.267
612	0.266
612	0.265
613	0.264
613	0.264
614	0.262
614	0.261
614	0.26
615	0.258
615	0.257
616	0.256
616	0.254
617	0.253
617	0.251
618	0.25
618	0.248
618	0.247
619	0.246
619	0.245
620	0.243
620	0.242
621	0.241
621	0.239
622	0.238
622	0.237
622	0.235
623	0.234
623	0.233
624	0.232
624	0.231
625	0.23
625	0.228
626	0.227
626	0.226
626	0.225
627	0.224
627	0.223
628	0.221
628	0.219
629	0.217
629	0.216
630	0.214
630	0.212
630	0.209
631	0.207
631	0.204
632	0.201
632	0.199
633	0.196
633	0.193
634	0.189
634	0.186
634	0.182
635	0.178
635	0.174
636	0.17
636	0.166
637	0.162
637	0.157
638	0.152
638	0.148
638	0.143
639	0.138
639	0.132
640	0.127
640	0.122
641	0.117
641	0.112
642	0.107
642	0.101
642	0.096
643	0.091
643	0.086
644	0.08
644	0.074
645	0.068
645	0.062
646	0.056
646	0.05
646	0.043
647	0.037
647	0.031
648	0.025
648	0.019
649	0.012
649	0.006
650	0
650	-0.005
650	-0.012
651	-0.02
651	-0.03
652	-0.042
652	-0.054
653	-0.065
653	-0.074
653	-0.071
654	-0.051
654	-0.038
655	-0.038
655	-0.041
656	-0.043
656	-0.046
657	-0.048
657	-0.05
657	-0.053
658	-0.057
658	-0.078
659	-0.148
659	-0.238
660	-0.278
660	-0.302
661	-0.33
661	-0.361
661	-0.399
662	-0.436
662	-0.477
663	-0.522
663	-0.573
664	-0.625
664	-0.684
665	-0.744
665	-0.812
665	-0.875
666	-0.941
666	-1.011
667	-1.083
667	-1.156
668	-1.237
668	-1.32
669	-1.407
669	-1.499
669	-1.61
670	-1.779
670	-2.017
671	-2.132
671	-2.256
672	-2.411
672	-2.558
672	-2.658
673	-2.729
673	-2.757
674	-2.774
674	-2.784
675	-2.794
675	-2.881
676	-3.032
676	-2.968
676	-2.721
677	-2.481
677	-2.248
678	-1.888
678	-1.658
679	-1.529
679	-1.431
680	-1.35
680	-1.279
680	-1.217
681	-1.176
681	-1.119
682	-1.077
682	-1.038
683	-1.001
683	-0.978
684	-0.951
684	-0.926
684	-0.898
685	-0.87
685	-0.841
686	-0.811
686	-0.788
687	-0.756
687	-0.736
687	-0.709
688	-0.679
688	-0.652
689	-0.624
689	-0.607
690	-0.581
690	-0.563
691	-0.553
691	-0.554
691	-0.563
692	-0.552
692	-0.538
693	-0.528
693	-0.529
694	-0.521
694	-0.509
695	-0.509
695	-0.504
695	-0.483
696	-0.475
696	-0.449
697	-0.442
697	-0.452
698	-0.449
698	-0.435
698	-0.442
699	-0.442
699	-0.437
700	-0.427
700	-0.435
701	-0.432
701	-0.437
702	-0.435
702	-0.421
702	-0.414
703	-0.41
703	-0.4
704	-0.39
704	-0.386
705	-0.393
705	-0.386
705	-0.374
706	-0.375
706	-0.372
707	-0.374
707	-0.368
708	-0.362
708	-0.355
709	-0.358
709	-0.361
709	-0.352
710	-0.355
710	-0.36
711	-0.348
711	-0.345
712	-0.347
712	-0.352
713	-0.353
713	-0.36
713	-0.35
714	-0.343
714	-0.342
715	-0.335
715	-0.321
716	-0.328
716	-0.327
716	-0.315
717	-0.319
717	-0.319
718	-0.311
718	-0.314
719	-0.318
719	-0.319
720	-0.314
720	-0.321
720	-0.316
721	-0.309
721	-0.307
722	-0.292
722	-0.28
723	-0.275
723	-0.279
723	-0.265
724	-0.269
724	-0.272
725	-0.272
725	-0.272
726	-0.282
726	-0.288
727	-0.292
727	-0.305
727	-0.311
728	-0.307
728	-0.308
729	-0.305
729	-0.308
730	-0.312
730	-0.306
730	-0.296
731	-0.282
731	-0.286
732	-0.29
732	-0.287
733	-0.283
733	-0.293
734	-0.285
734	-0.283
734	-0.275
735	-0.277
735	-0.276
736	-0.281
736	-0.274
737	-0.267
737	-0.27
737	-0.28
738	-0.273
738	-0.273
739	-0.269
739	-0.273
740	-0.27
740	-0.27
741	-0.271
741	-0.264
741	-0.265
742	-0.264
742	-0.262
743	-0.267
743	-0.275
744	-0.278
744	-0.274
744	-0.273
745	-0.273
745	-0.267
746	-0.271
746	-0.27
747	-0.273
747	-0.266
748	-0.252
748	-0.249
748	-0.248
749	-0.244
749	-0.248
750	-0.244
750	-0.241
751	-0.237
751	-0.241
751	-0.24
752	-0.238
752	-0.248
753	-0.244
753	-0.242
754	-0.247
754	-0.244
754	-0.257
755	-0.269
755	-0.284
756	-0.278
756	-0.274
757	-0.28
757	-0.283
758	-0.284
758	-0.274
758	-0.274
759	-0.276
759	-0.26
760	-0.254
760	-0.249
761	-0.256
761	-0.258
761	-0.254
762	-0.26
762	-0.268
763	-0.282
763	-0.28
764	-0.274
764	-0.276
764	-0.281
765	-0.273
765	-0.263
766	-0.272
766	-0.277
767	-0.286
767	-0.27
768	-0.265
768	-0.276
768	-0.284
769	-0.299
769	-0.301
770	-0.303
770	-0.315
771	-0.298
771	-0.297
771	-0.297
772	-0.3
772	-0.29
773	-0.284
773	-0.277
774	-0.279
774	-0.281
775	-0.29
775	-0.282
775	-0.295
776	-0.3
776	-0.293
777	-0.304
777	-0.332
778	-0.336
778	-0.353
778	-0.347
779	-0.36
779	-0.361
780	-0.376
780	-0.378
781	-0.382
781	-0.38
781	-0.394
782	-0.395
782	-0.395
783	-0.388
783	-0.384
784	-0.38
784	-0.378
784	-0.388
785	-0.395
785	-0.382
786	-0.384
786	-0.362
787	-0.343
787	-0.337
788	-0.337
788	-0.342
788	-0.337
789	-0.33
789	-0.309
790	-0.289
790	-0.294
791	-0.286
791	-0.298
791	-0.303
792	-0.302
792	-0.284
793	-0.275
793	-0.26
794	-0.269
794	-0.261
794	-0.263
795	-0.264
795	-0.267
796	-0.26
796	-0.265
797	-0.256
797	-0.256
797	-0.259
798	-0.271
798	-0.256
799	-0.268
799	-0.261
800	-0.262
800	-0.252
801	-0.254
801	-0.243
801	-0.26
802	-0.274
802	-0.277
803	-0.276
803	-0.295
804	-0.287
804	-0.299
804	-0.29
805	-0.296
805	-0.29
806	-0.287
806	-0.27
807	-0.273
807	-0.259
807	-0.248
808	-0.24
808	-0.239
809	-0.225
809	-0.236
810	-0.233
810	-0.229
810	-0.23
811	-0.234
811	-0.222
812	-0.217
812	-0.224
813	-0.226
813	-0.222
813	-0.224
814	-0.226
814	-0.231
815	-0.229
815	-0.226
816	-0.225
816	-0.231
817	-0.241
817	-0.251
817	-0.26
818	-0.268
818	-0.268
819	-0.252
819	-0.25
820	-0.266
820	-0.268
820	-0.272
821	-0.27
821	-0.261
822	-0.235
822	-0.217
823	-0.21
823	-0.217
823	-0.226
824	-0.227
824	-0.226
825	-0.227
825	-0.213
826	-0.208
826	-0.215
826	-0.227
827	-0.226
827	-0.228
828	-0.216
828	-0.214
829	-0.205
829	-0.191
829	-0.179
830	-0.187
830	-0.186
831	-0.178
831	-0.174
832	-0.175
832	-0.172
832	-0.178
833	-0.171
833	-0.174
834	-0.179
834	-0.188
835	-0.181
835	-0.185
835	-0.183
836	-0.18
836	-0.175
837	-0.174
837	-0.165
838	-0.158
838	-0.152
839	-0.143
839	-0.14
839	-0.129
840	-0.118
840	-0.12
841	-0.114
841	-0.11
842	-0.108
842	-0.103
842	-0.104
843	-0.1
843	-0.098
844	-0.092
844	-0.093
845	-0.094
845	-0.088
845	-0.08
846	-0.075
846	-0.067
847	-0.063
847	-0.058
848	-0.057
848	-0.054
848	-0.048
849	-0.048
849	-0.043
850	-0.039
850	-0.04
851	-0.04
851	-0.038
851	-0.036
852	-0.03
852	-0.023
853	-0.019
853	-0.018
854	-0.012
854	-0.007
854	-0.002
855	0.001
855	0.002
856	0.007
856	0.01
857	0.011
857	0.014
857	0.018
858	0.021
858	0.022
859	0.024
859	0.026
860	0.028
860	0.033
860	0.035
861	0.036
861	0.038
862	0.038
862	0.039
863	0.039
863	0.04
863	0.041
864	0.041
864	0.042
865	0.043
865	0.043
866	0.044
866	0.044
866	0.044
867	0.045
867	0.046
868	0.046
868	0.047
869	0.048
869	0.048
869	0.049
870	0.049
870	0.049
871	0.05
871	0.051
872	0.052
872	0.052
872	0.052
873	0.052
873	0.052
874	0.053
874	0.053
875	0.053
875	0.053
875	0.052
876	0.052
876	0.052
877	0.051
877	0.051
878	0.051
878	0.05
878	0.05
879	0.049
879	0.048
880	0.048
880	0.048
881	0.048
881	0.048
881	0.048
882	0.047
882	0.047
883	0.046
883	0.046
884	0.045
884	0.045
884	0.044
885	0.043
885	0.043
886	0.043
886	0.043
887	0.043
887	0.044
887	0.044
888	0.045
888	0.045
889	0.047
889	0.047
890	0.048
890	0.049
890	0.05
891	0.05
891	0.05
892	0.05
892	0.051
893	0.05
893	0.05
893	0.05
894	0.049
894	0.048
895	0.047
895	0.046
895	0.045
896	0.044
896	0.042
897	0.041
897	0.04
898	0.039
898	0.038
898	0.038
899	0.038
899	0.037
900	0.037
900	0.037
901	0.038
901	0.038
901	0.038
902	0.037
902	0.037
903	0.037
903	0.037
904	0.037
904	0.037
904	0.037
905	0.038
905	0.038
906	0.038
906	0.038
907	0.037
907	0.037
907	0.036
908	0.036
908	0.035
909	0.034
909	0.033
910	0.033
910	0.032
910	0.031
911	0.031
911	0.031
912	0.031
912	0.031
913	0.031
913	0.032
913	0.032
914	0.033
914	0.033
915	0.034
915	0.035
916	0.035
916	0.036
916	0.036
917	0.036
917	0.037
918	0.037
918	0.036
918	0.036
919	0.036
919	0.036
920	0.036
920	0.036
921	0.036
921	0.037
921	0.037
922	0.037
922	0.038
923	0.038
923	0.039
924	0.04
924	0.04
924	0.04
925	0.04
925	0.04
926	0.039
926	0.039
927	0.039
927	0.038
927	0.038
928	0.037
928	0.037
929	0.036
929	0.036
930	0.035
930	0.035
930	0.036
931	0.036
931	0.036
932	0.036
932	0.036
933	0.036
933	0.036
933	0.035
934	0.035
934	0.035
935	0.034
935	0.034
935	0.034
936	0.034
936	0.033
937	0.033
937	0.033
938	0.033
938	0.033
938	0.033
939	0.033
939	0.034
940	0.034
940	0.034
941	0.033
941	0.033
941	0.034
942	0.033
942	0.033
943	0.033
943	0.032
944	0.032
944	0.032
944	0.031
945	0.03
945	0.03
946	0.029
946	0.029
946	0.028
947	0.028
947	0.028
948	0.029
948	0.029
949	0.029
949	0.03
949	0.03
950	0.031
950	0.031
951	0.031
951	0.032
952	0.032
952	0.033
952	0.034
953	0.034
953	0.035
954	0.034
954	0.035
955	0.036
955	0.036
955	0.037
956	0.037
956	0.037
957	0.036
957	0.036
957	0.037
958	0.037
958	0.037
959	0.038
959	0.038
960	0.038
960	0.038
960	0.038
961	0.038
961	0.038
962	0.038
962	0.038
963	0.038
963	0.038
963	0.038
964	0.038
964	0.038
965	0.038
965	0.038
966	0.037
966	0.037
966	0.037
967	0.036
967	0.036
968	0.035
968	0.035
968	0.034
969	0.034
969	0.033
970	0.033
970	0.033
971	0.033
971	0.033
971	0.032
972	0.032
972	0.032
973	0.031
973	0.03
974	0.03
974	0.029
974	0.029
975	0.027
975	0.027
976	0.025
976	0.025
976	0.024
977	0.024
977	0.024
978	0.024
978	0.024
979	0.024
979	0.024
979	0.025
980	0.025
980	0.026
981	0.026
981	0.026
982	0.026
982	0.026
982	0.025
983	0.025
983	0.024
984	0.024
984	0.024
984	0.023
985	0.023
985	0.024
986	0.024
986	0.024
987	0.025
987	0.025
987	0.026
988	0.026
988	0.027
989	0.027
989	0.026
990	0.026
990	0.025
990	0.025
991	0.024
991	0.024
992	0.023
992	0.023
992	0.023
993	0.023
993	0.022
994	0.022
994	0.022
995	0.023
995	0.023
995	0.023
996	0.023
996	0.023
997	0.023
997	0.024
997	0.024
998	0.024
998	0.024
999	0.024
999	0.025
1000	0.025
1000	0.025
1000	0.025
1001	0.025
1001	0.024
1002	0.024
1002	0.023
1003	0.023
1003	0.023
1003	0.022
1004	0.021
1004	0.02
1005	0.019
1005	0.019
1005	0.018
1006	0.017
1006	0.017
1007	0.016
1007	0.016
1008	0.015
1008	0.015
1008	0.015
1009	0.015
1009	0.015
1010	0.015
1010	0.014
1010	0.014
1011	0.014
1011	0.013
1012	0.013
1012	0.012
1013	0.01
1013	0.009
1013	0.008
1014	0.007
1014	0.006
1015	0.005
1015	0.005
1016	0.004
1016	0.003
1016	0.003
1017	0.003
1017	0.003
1018	0.003
1018	0.002
1018	0.002
1019	0.001
1019	0.001
1020	-0
1020	-0.001
1021	-0.002
1021	-0.003
1021	-0.004
1022	-0.005
1022	-0.006
1023	-0.006
1023	-0.007
1023	-0.007
1024	-0.007
1024	-0.007
1025	-0.007
1025	-0.006
1026	-0.005
1026	-0.005
1026	-0.004
1027	-0.003
1027	-0.003
1028	-0.002
1028	-0.002
1028	-0.002
1029	-0.002
1029	-0.002
1030	-0.002
1030	-0.002
1031	-0.002
1031	-0.001
1031	-0.001
1032	-0.001
1032	-0
1033	0
1033	0.001
1033	0.002
1034	0.002
1034	0.003
1035	0.004
1035	0.004
1036	0.004
1036	0.004
1036	0.005
1037	0.004
1037	0.004
1038	0.004
1038	0.004
1039	0.004
1039	0.004
1039	0.004
1040	0.004
1040	0.005
1041	0.005
1041	0.006
1041	0.006
1042	0.007
1042	0.007
1043	0.007
1043	0.007
1044	0.007
1044	0.007
1044	0.007
1045	0.007
1045	0.007
1046	0.007
1046	0.008
1046	0.008
1047	0.008
1047	0.008
1048	0.009
1048	0.009
1049	0.009
1049	0.009
1049	0.009
1050	0.01
1050	0.01
1051	0.01
1051	0.01
1051	0.01
1052	0.01
1052	0.01
1053	0.011
1053	0.011
1053	0.01
1054	0.01
1054	0.009
1055	0.009
1055	0.008
1056	0.007
1056	0.006
1056	0.005
1057	0.004
1057	0.004
1058	0.003
1058	0.003
1058	0.002
1059	0.002
1059	0.001
1060	0.001
1060	0.001
1061	0.001
1061	0.001
1061	0.001
1062	0.001
1062	0.001
1063	0.001
1063	0.001
1063	0.001
1064	0.002
1064	0.001
1065	0.001
1065	0.001
1066	0
1066	-0
1066	-0
1067	-0
1067	-0
1068	-0.001
1068	-0.001
1068	-0.001
1069	-0.001
1069	-0.001
1070	-0.001
1070	-0.001
1071	-0.001
1071	-0.001
1071	-0.001
1072	-0.001
1072	-0.002
1073	-0.002
1073	-0.003
1073	-0.003
1074	-0.003
1074	-0.003
1075	-0.004
1075	-0.004
1076	-0.004
1076	-0.004
1076	-0.005
1077	-0.005
1077	-0.005
1078	-0.006
1078	-0.006
1078	-0.007
1079	-0.008
1079	-0.008
1080	-0.009
1080	-0.01
1080	-0.01
1081	-0.011
1081	-0.011
1082	-0.012
1082	-0.013
1083	-0.013
1083	-0.013
1083	-0.013
1084	-0.014
1084	-0.014
1085	-0.014
1085	-0.014
1085	-0.014
1086	-0.014
1086	-0.014
1087	-0.014
1087	-0.014
1088	-0.014
1088	-0.014
1088	-0.014
1089	-0.014
1089	-0.013
1090	-0.013
1090	-0.013
1090	-0.013
1091	-0.012
1091	-0.012
1092	-0.012
1092	-0.011
1092	-0.011
1093	-0.01
1093	-0.01
1094	-0.01
1094	-0.01
1095	-0.01
1095	-0.01
1095	-0.01
1096	-0.01
1096	-0.01
1097	-0.01
1097	-0.01
1097	-0.01
1098	-0.01
1098	-0.01
1099	-0.01
1099	-0.009
1100	-0.01
1100	-0.01
1100	-0.011
1101	-0.011
1101	-0.011
1102	-0.011
1102	-0.011
1102	-0.011
1103	-0.011
1103	-0.011
1104	-0.012
1104	-0.011
1104	-0.012
1105	-0.013
1105	-0.014
1106	-0.016
1106	-0.016
1107	-0.017
1107	-0.018
1107	-0.02
1108	-0.021
1108	-0.021
1109	-0.023
1109	-0.024
1109	-0.022
1110	-0.021
1110	-0.021
1111	-0.022
1111	-0.026
