Data from 17C_3.4A_30min_2sec_int_Absorbance__167__00167.txt Node

Date: Mon Jun 19 16:11:45 CEST 2023
User: Marek
Spectrometer: MAYP115816
Trigger mode: 0
Integration Time (sec): 2.500000E-1
Scans to average: 10
Electric dark correction enabled: true
Nonlinearity correction enabled: true
Boxcar width: 5
XAxis mode: Wavelengths
Number of Pixels in Spectrum: 2068
>>>>>Begin Spectral Data<<<<<
199	-0.356
199	-0.369
200	-0.273
200	-0.241
201	-0.213
201	-0.207
202	-0.189
202	-0.177
203	-0.169
203	-0.166
204	-0.16
204	-0.146
205	-0.125
205	-0.123
205	-0.115
206	-0.117
206	-0.117
207	-0.111
207	-0.111
208	-0.117
208	-0.116
209	-0.111
209	-0.113
210	-0.12
210	-0.127
211	-0.128
211	-0.128
212	-0.128
212	-0.136
213	-0.139
213	-0.134
213	-0.139
214	-0.134
214	-0.133
215	-0.135
215	-0.141
216	-0.145
216	-0.149
217	-0.148
217	-0.149
218	-0.152
218	-0.155
219	-0.156
219	-0.165
220	-0.163
220	-0.167
221	-0.165
221	-0.164
221	-0.163
222	-0.159
222	-0.157
223	-0.159
223	-0.158
224	-0.165
224	-0.166
225	-0.164
225	-0.162
226	-0.163
226	-0.164
227	-0.169
227	-0.173
228	-0.176
228	-0.174
229	-0.173
229	-0.164
229	-0.157
230	-0.166
230	-0.168
231	-0.165
231	-0.159
232	-0.15
232	-0.155
233	-0.152
233	-0.153
234	-0.155
234	-0.152
235	-0.155
235	-0.153
236	-0.149
236	-0.15
236	-0.152
237	-0.158
237	-0.155
238	-0.16
238	-0.159
239	-0.161
239	-0.168
240	-0.168
240	-0.168
241	-0.17
241	-0.17
242	-0.176
242	-0.172
243	-0.169
243	-0.17
243	-0.175
244	-0.171
244	-0.168
245	-0.177
245	-0.174
246	-0.179
246	-0.183
247	-0.185
247	-0.188
248	-0.195
248	-0.19
249	-0.187
249	-0.195
250	-0.199
250	-0.196
250	-0.203
251	-0.201
251	-0.201
252	-0.2
252	-0.189
253	-0.19
253	-0.203
254	-0.206
254	-0.205
255	-0.209
255	-0.203
256	-0.196
256	-0.207
257	-0.199
257	-0.198
258	-0.214
258	-0.207
258	-0.201
259	-0.2
259	-0.204
260	-0.206
260	-0.21
261	-0.219
261	-0.208
262	-0.206
262	-0.207
263	-0.197
263	-0.198
264	-0.199
264	-0.208
265	-0.207
265	-0.212
265	-0.216
266	-0.213
266	-0.208
267	-0.223
267	-0.23
268	-0.243
268	-0.249
269	-0.245
269	-0.234
270	-0.23
270	-0.229
271	-0.228
271	-0.234
272	-0.239
272	-0.232
272	-0.228
273	-0.222
273	-0.228
274	-0.23
274	-0.234
275	-0.24
275	-0.235
276	-0.238
276	-0.228
277	-0.228
277	-0.242
278	-0.247
278	-0.241
278	-0.229
279	-0.232
279	-0.238
280	-0.236
280	-0.237
281	-0.231
281	-0.236
282	-0.234
282	-0.235
283	-0.228
283	-0.232
284	-0.232
284	-0.223
285	-0.222
285	-0.215
285	-0.214
286	-0.217
286	-0.213
287	-0.208
287	-0.192
288	-0.188
288	-0.191
289	-0.2
289	-0.205
290	-0.196
290	-0.203
291	-0.195
291	-0.193
292	-0.198
292	-0.2
292	-0.204
293	-0.203
293	-0.196
294	-0.19
294	-0.188
295	-0.183
295	-0.177
296	-0.175
296	-0.17
297	-0.167
297	-0.154
298	-0.143
298	-0.152
298	-0.146
299	-0.139
299	-0.137
300	-0.138
300	-0.136
301	-0.132
301	-0.139
302	-0.145
302	-0.151
303	-0.146
303	-0.134
304	-0.135
304	-0.136
305	-0.139
305	-0.133
305	-0.125
306	-0.116
306	-0.109
307	-0.098
307	-0.101
308	-0.115
308	-0.114
309	-0.117
309	-0.107
310	-0.096
310	-0.096
311	-0.095
311	-0.099
311	-0.097
312	-0.091
312	-0.091
313	-0.079
313	-0.08
314	-0.077
314	-0.077
315	-0.081
315	-0.081
316	-0.075
316	-0.069
317	-0.064
317	-0.066
318	-0.058
318	-0.056
318	-0.054
319	-0.042
319	-0.042
320	-0.04
320	-0.042
321	-0.049
321	-0.051
322	-0.044
322	-0.038
323	-0.035
323	-0.029
324	-0.026
324	-0.024
324	-0.021
325	-0.013
325	-0.001
326	0.01
326	0.025
327	0.033
327	0.049
328	0.064
328	0.079
329	0.095
329	0.109
330	0.132
330	0.152
330	0.169
331	0.187
331	0.202
332	0.215
332	0.228
333	0.239
333	0.25
334	0.262
334	0.271
335	0.278
335	0.285
336	0.293
336	0.298
336	0.301
337	0.307
337	0.31
338	0.314
338	0.316
339	0.319
339	0.322
340	0.323
340	0.324
341	0.325
341	0.326
342	0.328
342	0.329
342	0.33
343	0.33
343	0.332
344	0.332
344	0.332
345	0.333
345	0.333
346	0.333
346	0.333
347	0.333
347	0.333
348	0.333
348	0.333
348	0.333
349	0.332
349	0.332
350	0.332
350	0.332
351	0.332
351	0.332
352	0.331
352	0.331
353	0.331
353	0.331
354	0.331
354	0.33
354	0.33
355	0.33
355	0.33
356	0.329
356	0.329
357	0.328
357	0.328
358	0.328
358	0.327
359	0.327
359	0.327
360	0.326
360	0.326
360	0.326
361	0.325
361	0.325
362	0.325
362	0.325
363	0.324
363	0.324
364	0.324
364	0.324
365	0.324
365	0.324
366	0.323
366	0.323
366	0.323
367	0.323
367	0.323
368	0.323
368	0.322
369	0.322
369	0.321
370	0.321
370	0.321
371	0.321
371	0.32
372	0.32
372	0.32
372	0.319
373	0.319
373	0.319
374	0.318
374	0.318
375	0.318
375	0.318
376	0.318
376	0.318
377	0.317
377	0.317
378	0.317
378	0.317
378	0.317
379	0.316
379	0.316
380	0.315
380	0.315
381	0.315
381	0.314
382	0.314
382	0.314
383	0.313
383	0.313
383	0.313
384	0.313
384	0.312
385	0.312
385	0.312
386	0.312
386	0.312
387	0.312
387	0.311
388	0.311
388	0.311
389	0.31
389	0.31
389	0.31
390	0.31
390	0.31
391	0.309
391	0.309
392	0.309
392	0.308
393	0.308
393	0.308
394	0.307
394	0.307
394	0.307
395	0.306
395	0.306
396	0.306
396	0.306
397	0.305
397	0.305
398	0.305
398	0.305
399	0.304
399	0.304
400	0.303
400	0.303
400	0.303
401	0.302
401	0.302
402	0.302
402	0.301
403	0.301
403	0.3
404	0.3
404	0.3
405	0.3
405	0.3
405	0.299
406	0.299
406	0.299
407	0.298
407	0.298
408	0.298
408	0.298
409	0.298
409	0.298
410	0.297
410	0.297
411	0.297
411	0.297
411	0.297
412	0.297
412	0.297
413	0.297
413	0.297
414	0.296
414	0.296
415	0.296
415	0.295
416	0.295
416	0.295
416	0.295
417	0.295
417	0.294
418	0.294
418	0.294
419	0.294
419	0.294
420	0.293
420	0.293
421	0.293
421	0.293
421	0.293
422	0.293
422	0.293
423	0.293
423	0.292
424	0.292
424	0.292
425	0.292
425	0.292
426	0.291
426	0.291
427	0.291
427	0.291
427	0.291
428	0.29
428	0.29
429	0.29
429	0.29
430	0.29
430	0.29
431	0.29
431	0.29
432	0.29
432	0.289
432	0.289
433	0.289
433	0.289
434	0.289
434	0.288
435	0.288
435	0.288
436	0.288
436	0.288
437	0.288
437	0.288
437	0.288
438	0.288
438	0.288
439	0.288
439	0.287
440	0.287
440	0.287
441	0.286
441	0.286
442	0.286
442	0.286
442	0.286
443	0.286
443	0.286
444	0.286
444	0.286
445	0.286
445	0.286
446	0.286
446	0.286
447	0.286
447	0.286
447	0.287
448	0.286
448	0.286
449	0.286
449	0.287
450	0.287
450	0.287
451	0.287
451	0.287
452	0.287
452	0.287
452	0.287
453	0.287
453	0.287
454	0.287
454	0.287
455	0.287
455	0.287
456	0.287
456	0.287
457	0.287
457	0.287
458	0.287
458	0.287
458	0.287
459	0.287
459	0.288
460	0.288
460	0.288
461	0.288
461	0.288
462	0.289
462	0.289
463	0.289
463	0.29
463	0.29
464	0.29
464	0.29
465	0.291
465	0.291
466	0.291
466	0.292
467	0.292
467	0.293
467	0.293
468	0.294
468	0.294
469	0.295
469	0.295
470	0.296
470	0.296
471	0.296
471	0.297
472	0.297
472	0.298
472	0.298
473	0.298
473	0.299
474	0.299
474	0.3
475	0.301
475	0.301
476	0.302
476	0.303
477	0.303
477	0.304
477	0.304
478	0.305
478	0.306
479	0.307
479	0.308
480	0.308
480	0.309
481	0.31
481	0.311
482	0.312
482	0.313
482	0.314
483	0.315
483	0.316
484	0.316
484	0.317
485	0.317
485	0.319
486	0.32
486	0.321
487	0.322
487	0.323
487	0.324
488	0.325
488	0.327
489	0.329
489	0.331
490	0.333
490	0.334
491	0.336
491	0.338
492	0.339
492	0.341
492	0.343
493	0.344
493	0.346
494	0.348
494	0.35
495	0.351
495	0.353
496	0.355
496	0.357
496	0.36
497	0.362
497	0.364
498	0.366
498	0.369
499	0.371
499	0.374
500	0.377
500	0.379
501	0.381
501	0.384
501	0.386
502	0.388
502	0.39
503	0.392
503	0.394
504	0.396
504	0.399
505	0.401
505	0.404
506	0.406
506	0.409
506	0.412
507	0.414
507	0.417
508	0.42
508	0.422
509	0.425
509	0.428
510	0.43
510	0.432
511	0.435
511	0.437
511	0.439
512	0.442
512	0.444
513	0.446
513	0.448
514	0.45
514	0.453
515	0.455
515	0.457
515	0.459
516	0.462
516	0.464
517	0.466
517	0.468
518	0.47
518	0.472
519	0.474
519	0.476
520	0.478
520	0.48
520	0.482
521	0.484
521	0.485
522	0.487
522	0.488
523	0.49
523	0.491
524	0.492
524	0.493
524	0.494
525	0.495
525	0.496
526	0.496
526	0.497
527	0.498
527	0.499
528	0.499
528	0.5
529	0.501
529	0.501
529	0.501
530	0.501
530	0.501
531	0.501
531	0.501
532	0.501
532	0.501
533	0.5
533	0.5
533	0.5
534	0.499
534	0.499
535	0.498
535	0.498
536	0.497
536	0.496
537	0.495
537	0.494
538	0.493
538	0.492
538	0.491
539	0.49
539	0.49
540	0.488
540	0.486
541	0.485
541	0.483
542	0.482
542	0.48
542	0.478
543	0.476
543	0.474
544	0.473
544	0.471
545	0.469
545	0.467
546	0.466
546	0.464
547	0.462
547	0.46
547	0.459
548	0.457
548	0.455
549	0.453
549	0.451
550	0.449
550	0.447
551	0.445
551	0.443
551	0.441
552	0.439
552	0.437
553	0.435
553	0.433
554	0.431
554	0.429
555	0.428
555	0.426
556	0.424
556	0.422
556	0.42
557	0.418
557	0.416
558	0.414
558	0.412
559	0.41
559	0.408
560	0.406
560	0.404
560	0.402
561	0.4
561	0.398
562	0.396
562	0.393
563	0.391
563	0.39
564	0.388
564	0.386
564	0.383
565	0.382
565	0.38
566	0.377
566	0.375
567	0.373
567	0.37
568	0.368
568	0.365
568	0.363
569	0.361
569	0.359
570	0.357
570	0.355
571	0.353
571	0.351
572	0.349
572	0.348
573	0.346
573	0.344
573	0.342
574	0.341
574	0.339
575	0.338
575	0.336
576	0.334
576	0.332
577	0.331
577	0.33
577	0.329
578	0.328
578	0.327
579	0.325
579	0.324
580	0.322
580	0.321
581	0.319
581	0.318
581	0.316
582	0.315
582	0.314
583	0.312
583	0.31
584	0.309
584	0.307
585	0.306
585	0.305
585	0.304
586	0.303
586	0.302
587	0.301
587	0.3
588	0.299
588	0.298
589	0.298
589	0.297
590	0.295
590	0.295
590	0.294
591	0.292
591	0.29
592	0.289
592	0.288
593	0.287
593	0.286
594	0.284
594	0.283
594	0.282
595	0.281
595	0.28
596	0.279
596	0.278
597	0.277
597	0.276
598	0.275
598	0.274
598	0.273
599	0.272
599	0.271
600	0.27
600	0.269
601	0.268
601	0.266
602	0.265
602	0.264
602	0.263
603	0.262
603	0.262
604	0.261
604	0.26
605	0.259
605	0.258
606	0.257
606	0.256
606	0.256
607	0.255
607	0.254
608	0.252
608	0.251
609	0.25
609	0.25
610	0.248
610	0.248
610	0.247
611	0.246
611	0.246
612	0.245
612	0.245
613	0.244
613	0.243
614	0.242
614	0.241
614	0.24
615	0.239
615	0.238
616	0.236
616	0.235
617	0.234
617	0.232
618	0.231
618	0.23
618	0.229
619	0.228
619	0.227
620	0.226
620	0.225
621	0.224
621	0.223
622	0.222
622	0.221
622	0.22
623	0.219
623	0.219
624	0.218
624	0.217
625	0.216
625	0.215
626	0.214
626	0.214
626	0.213
627	0.212
627	0.211
628	0.21
628	0.208
629	0.206
629	0.205
630	0.203
630	0.201
630	0.199
631	0.197
631	0.195
632	0.192
632	0.19
633	0.187
633	0.185
634	0.182
634	0.179
634	0.176
635	0.173
635	0.17
636	0.166
636	0.162
637	0.159
637	0.155
638	0.151
638	0.146
638	0.142
639	0.138
639	0.133
640	0.129
640	0.124
641	0.12
641	0.116
642	0.112
642	0.107
642	0.103
643	0.098
643	0.094
644	0.089
644	0.084
645	0.078
645	0.073
646	0.068
646	0.062
646	0.056
647	0.05
647	0.044
648	0.039
648	0.033
649	0.026
649	0.021
650	0.015
650	0.009
650	0.003
651	-0.005
651	-0.014
652	-0.025
652	-0.036
653	-0.047
653	-0.056
653	-0.052
654	-0.035
654	-0.024
655	-0.025
655	-0.028
656	-0.031
656	-0.033
657	-0.036
657	-0.038
657	-0.042
658	-0.046
658	-0.066
659	-0.131
659	-0.215
660	-0.252
660	-0.275
661	-0.3
661	-0.329
661	-0.363
662	-0.396
662	-0.432
663	-0.476
663	-0.523
664	-0.571
664	-0.627
665	-0.686
665	-0.75
665	-0.811
666	-0.875
666	-0.943
667	-1.014
667	-1.085
668	-1.162
668	-1.242
669	-1.324
669	-1.408
669	-1.501
670	-1.603
670	-1.741
671	-1.968
671	-2.139
672	-2.32
672	-2.484
672	-2.597
673	-2.677
673	-2.716
674	-2.736
674	-2.749
675	-2.769
675	-2.892
676	-3.045
676	-2.983
676	-2.74
677	-2.505
677	-2.286
678	-1.97
678	-1.676
679	-1.527
679	-1.424
680	-1.339
680	-1.265
680	-1.201
681	-1.159
681	-1.102
682	-1.061
682	-1.023
683	-0.986
683	-0.964
684	-0.938
684	-0.915
684	-0.888
685	-0.858
685	-0.83
686	-0.799
686	-0.778
687	-0.749
687	-0.73
687	-0.706
688	-0.677
688	-0.651
689	-0.626
689	-0.609
690	-0.587
690	-0.572
691	-0.563
691	-0.561
691	-0.571
692	-0.558
692	-0.545
693	-0.537
693	-0.54
694	-0.532
694	-0.522
695	-0.524
695	-0.516
695	-0.5
696	-0.494
696	-0.471
697	-0.469
697	-0.479
698	-0.481
698	-0.47
698	-0.475
699	-0.473
699	-0.467
700	-0.459
700	-0.471
701	-0.467
701	-0.467
702	-0.468
702	-0.456
702	-0.446
703	-0.44
703	-0.433
704	-0.432
704	-0.434
705	-0.442
705	-0.429
705	-0.417
706	-0.417
706	-0.414
707	-0.416
707	-0.413
708	-0.409
708	-0.404
709	-0.403
709	-0.401
709	-0.39
710	-0.399
710	-0.405
711	-0.399
711	-0.398
712	-0.399
712	-0.407
713	-0.404
713	-0.407
713	-0.396
714	-0.391
714	-0.392
715	-0.382
715	-0.371
716	-0.375
716	-0.37
716	-0.362
717	-0.36
717	-0.366
718	-0.36
718	-0.361
719	-0.367
719	-0.368
720	-0.362
720	-0.368
720	-0.36
721	-0.352
721	-0.352
722	-0.341
722	-0.33
723	-0.327
723	-0.331
723	-0.318
724	-0.319
724	-0.326
725	-0.323
725	-0.33
726	-0.34
726	-0.342
727	-0.348
727	-0.357
727	-0.36
728	-0.36
728	-0.367
729	-0.366
729	-0.368
730	-0.374
730	-0.367
730	-0.355
731	-0.342
731	-0.348
732	-0.356
732	-0.357
733	-0.354
733	-0.359
734	-0.354
734	-0.348
734	-0.337
735	-0.34
735	-0.343
736	-0.352
736	-0.338
737	-0.33
737	-0.331
737	-0.337
738	-0.33
738	-0.332
739	-0.331
739	-0.343
740	-0.338
740	-0.339
741	-0.331
741	-0.331
741	-0.332
742	-0.328
742	-0.331
743	-0.34
743	-0.342
744	-0.341
744	-0.335
744	-0.338
745	-0.342
745	-0.337
746	-0.339
746	-0.337
747	-0.338
747	-0.329
748	-0.317
748	-0.32
748	-0.319
749	-0.314
749	-0.312
750	-0.303
750	-0.303
751	-0.305
751	-0.312
751	-0.315
752	-0.314
752	-0.319
753	-0.314
753	-0.313
754	-0.319
754	-0.311
754	-0.326
755	-0.343
755	-0.353
756	-0.345
756	-0.343
757	-0.346
757	-0.343
758	-0.341
758	-0.338
758	-0.339
759	-0.348
759	-0.332
760	-0.322
760	-0.316
761	-0.323
761	-0.321
761	-0.322
762	-0.331
762	-0.333
763	-0.34
763	-0.336
764	-0.335
764	-0.338
764	-0.339
765	-0.334
765	-0.325
766	-0.332
766	-0.335
767	-0.348
767	-0.342
768	-0.333
768	-0.349
768	-0.353
769	-0.369
769	-0.375
770	-0.382
770	-0.392
771	-0.381
771	-0.383
771	-0.381
772	-0.387
772	-0.387
773	-0.385
773	-0.381
774	-0.379
774	-0.378
775	-0.375
775	-0.371
775	-0.38
776	-0.378
776	-0.367
777	-0.374
777	-0.396
778	-0.393
778	-0.411
778	-0.399
779	-0.42
779	-0.429
780	-0.441
780	-0.443
781	-0.457
781	-0.453
781	-0.469
782	-0.472
782	-0.473
783	-0.463
783	-0.467
784	-0.45
784	-0.442
784	-0.451
785	-0.461
785	-0.445
786	-0.455
786	-0.433
787	-0.412
787	-0.408
788	-0.413
788	-0.416
788	-0.421
789	-0.419
789	-0.396
790	-0.369
790	-0.371
791	-0.358
791	-0.373
791	-0.378
792	-0.373
792	-0.347
793	-0.34
793	-0.319
794	-0.324
794	-0.32
794	-0.33
795	-0.329
795	-0.33
796	-0.315
796	-0.323
797	-0.319
797	-0.329
797	-0.333
798	-0.343
798	-0.337
799	-0.35
799	-0.336
800	-0.337
800	-0.328
801	-0.336
801	-0.325
801	-0.338
802	-0.346
802	-0.349
803	-0.357
803	-0.367
804	-0.36
804	-0.374
804	-0.365
805	-0.378
805	-0.368
806	-0.367
806	-0.352
807	-0.35
807	-0.329
807	-0.318
808	-0.308
808	-0.306
809	-0.295
809	-0.307
810	-0.303
810	-0.297
810	-0.294
811	-0.294
811	-0.288
812	-0.289
812	-0.292
813	-0.295
813	-0.29
813	-0.292
814	-0.29
814	-0.29
815	-0.291
815	-0.299
816	-0.293
816	-0.301
817	-0.311
817	-0.32
817	-0.336
818	-0.345
818	-0.345
819	-0.337
819	-0.335
820	-0.348
820	-0.342
820	-0.355
821	-0.347
821	-0.336
822	-0.312
822	-0.293
823	-0.289
823	-0.293
823	-0.296
824	-0.293
824	-0.291
825	-0.286
825	-0.264
826	-0.263
826	-0.269
826	-0.279
827	-0.276
827	-0.271
828	-0.255
828	-0.253
829	-0.248
829	-0.24
829	-0.237
830	-0.249
830	-0.246
831	-0.237
831	-0.231
832	-0.233
832	-0.231
832	-0.241
833	-0.236
833	-0.237
834	-0.235
834	-0.239
835	-0.231
835	-0.229
835	-0.231
836	-0.231
836	-0.225
837	-0.224
837	-0.213
838	-0.21
838	-0.204
839	-0.197
839	-0.193
839	-0.19
840	-0.183
840	-0.183
841	-0.173
841	-0.17
842	-0.164
842	-0.162
842	-0.162
843	-0.156
843	-0.153
844	-0.143
844	-0.138
845	-0.135
845	-0.129
845	-0.124
846	-0.115
846	-0.109
847	-0.101
847	-0.09
848	-0.088
848	-0.085
848	-0.076
849	-0.074
849	-0.069
850	-0.062
850	-0.059
851	-0.057
851	-0.053
851	-0.051
852	-0.045
852	-0.039
853	-0.033
853	-0.034
854	-0.027
854	-0.02
854	-0.014
855	-0.01
855	-0.008
856	-0.003
856	0.001
857	0.004
857	0.007
857	0.01
858	0.014
858	0.015
859	0.018
859	0.021
860	0.023
860	0.027
860	0.029
861	0.03
861	0.032
862	0.034
862	0.036
863	0.038
863	0.041
863	0.042
864	0.043
864	0.044
865	0.045
865	0.047
866	0.049
866	0.05
866	0.051
867	0.052
867	0.053
868	0.053
868	0.055
869	0.056
869	0.056
869	0.057
870	0.057
870	0.057
871	0.058
871	0.059
872	0.059
872	0.059
872	0.059
873	0.059
873	0.06
874	0.06
874	0.06
875	0.06
875	0.059
875	0.059
876	0.058
876	0.058
877	0.058
877	0.058
878	0.057
878	0.056
878	0.056
879	0.055
879	0.054
880	0.054
880	0.054
881	0.054
881	0.054
881	0.053
882	0.053
882	0.052
883	0.051
883	0.051
884	0.05
884	0.049
884	0.049
885	0.048
885	0.048
886	0.048
886	0.047
887	0.047
887	0.047
887	0.048
888	0.049
888	0.049
889	0.05
889	0.051
890	0.052
890	0.053
890	0.053
891	0.053
891	0.054
892	0.054
892	0.054
893	0.054
893	0.054
893	0.053
894	0.052
894	0.052
895	0.051
895	0.05
895	0.049
896	0.048
896	0.048
897	0.046
897	0.045
898	0.045
898	0.044
898	0.044
899	0.043
899	0.043
900	0.043
900	0.043
901	0.043
901	0.044
901	0.044
902	0.044
902	0.043
903	0.043
903	0.043
904	0.043
904	0.043
904	0.044
905	0.044
905	0.044
906	0.043
906	0.043
907	0.042
907	0.041
907	0.041
908	0.04
908	0.039
909	0.038
909	0.038
910	0.037
910	0.036
910	0.035
911	0.035
911	0.035
912	0.036
912	0.036
913	0.036
913	0.037
913	0.037
914	0.038
914	0.039
915	0.04
915	0.041
916	0.041
916	0.042
916	0.042
917	0.042
917	0.043
918	0.043
918	0.043
918	0.042
919	0.042
919	0.042
920	0.042
920	0.042
921	0.043
921	0.043
921	0.044
922	0.044
922	0.044
923	0.045
923	0.045
924	0.046
924	0.046
924	0.046
925	0.046
925	0.046
926	0.045
926	0.045
927	0.044
927	0.044
927	0.044
928	0.043
928	0.042
929	0.042
929	0.041
930	0.041
930	0.041
930	0.041
931	0.041
931	0.041
932	0.042
932	0.041
933	0.042
933	0.042
933	0.041
934	0.041
934	0.04
935	0.04
935	0.039
935	0.039
936	0.038
936	0.038
937	0.037
937	0.037
938	0.037
938	0.037
938	0.037
939	0.037
939	0.037
940	0.037
940	0.037
941	0.037
941	0.037
941	0.037
942	0.037
942	0.036
943	0.036
943	0.036
944	0.035
944	0.035
944	0.034
945	0.034
945	0.033
946	0.033
946	0.032
946	0.032
947	0.032
947	0.032
948	0.032
948	0.033
949	0.033
949	0.034
949	0.034
950	0.035
950	0.035
951	0.036
951	0.036
952	0.037
952	0.038
952	0.038
953	0.039
953	0.039
954	0.04
954	0.04
955	0.041
955	0.042
955	0.042
956	0.042
956	0.043
957	0.043
957	0.043
957	0.043
958	0.044
958	0.044
959	0.044
959	0.045
960	0.045
960	0.045
960	0.045
961	0.045
961	0.045
962	0.044
962	0.044
963	0.044
963	0.043
963	0.043
964	0.042
964	0.042
965	0.042
965	0.041
966	0.041
966	0.04
966	0.04
967	0.04
967	0.039
968	0.039
968	0.039
968	0.038
969	0.038
969	0.037
970	0.037
970	0.037
971	0.037
971	0.037
971	0.037
972	0.037
972	0.036
973	0.036
973	0.035
974	0.034
974	0.034
974	0.034
975	0.033
975	0.032
976	0.031
976	0.031
976	0.03
977	0.03
977	0.03
978	0.03
978	0.029
979	0.029
979	0.029
979	0.029
980	0.03
980	0.03
981	0.031
981	0.031
982	0.031
982	0.031
982	0.031
983	0.031
983	0.03
984	0.03
984	0.03
984	0.03
985	0.03
985	0.03
986	0.03
986	0.031
987	0.031
987	0.032
987	0.032
988	0.033
988	0.033
989	0.033
989	0.033
990	0.033
990	0.032
990	0.032
991	0.031
991	0.031
992	0.03
992	0.03
992	0.029
993	0.029
993	0.029
994	0.028
994	0.028
995	0.028
995	0.028
995	0.028
996	0.028
996	0.028
997	0.028
997	0.029
997	0.029
998	0.029
998	0.029
999	0.029
999	0.03
1000	0.03
1000	0.03
1000	0.03
1001	0.03
1001	0.029
1002	0.029
1002	0.028
1003	0.028
1003	0.028
1003	0.027
1004	0.026
1004	0.025
1005	0.025
1005	0.024
1005	0.023
1006	0.022
1006	0.022
1007	0.021
1007	0.021
1008	0.02
1008	0.02
1008	0.02
1009	0.02
1009	0.02
1010	0.02
1010	0.02
1010	0.02
1011	0.02
1011	0.019
1012	0.018
1012	0.017
1013	0.016
1013	0.015
1013	0.014
1014	0.013
1014	0.011
1015	0.011
1015	0.01
1016	0.009
1016	0.009
1016	0.009
1017	0.008
1017	0.008
1018	0.008
1018	0.007
1018	0.007
1019	0.007
1019	0.006
1020	0.005
1020	0.005
1021	0.004
1021	0.002
1021	0.001
1022	0
1022	-0.001
1023	-0.001
1023	-0.002
1023	-0.002
1024	-0.002
1024	-0.003
1025	-0.003
1025	-0.002
1026	-0.002
1026	-0.001
1026	-0
1027	0
1027	0.001
1028	0.001
1028	0.001
1028	0.001
1029	0.001
1029	0.002
1030	0.001
1030	0.001
1031	0.001
1031	0.001
1031	0.001
1032	0.001
1032	0.002
1033	0.002
1033	0.004
1033	0.004
1034	0.005
1034	0.006
1035	0.006
1035	0.007
1036	0.007
1036	0.007
1036	0.007
1037	0.007
1037	0.007
1038	0.006
1038	0.006
1039	0.006
1039	0.006
1039	0.006
1040	0.006
1040	0.007
1041	0.008
1041	0.008
1041	0.008
1042	0.009
1042	0.009
1043	0.009
1043	0.009
1044	0.01
1044	0.01
1044	0.01
1045	0.009
1045	0.009
1046	0.009
1046	0.009
1046	0.01
1047	0.01
1047	0.011
1048	0.011
1048	0.011
1049	0.011
1049	0.011
1049	0.012
1050	0.012
1050	0.012
1051	0.012
1051	0.013
1051	0.013
1052	0.013
1052	0.013
1053	0.013
1053	0.013
1053	0.013
1054	0.012
1054	0.012
1055	0.011
1055	0.011
1056	0.01
1056	0.009
1056	0.008
1057	0.007
1057	0.006
1058	0.006
1058	0.005
1058	0.005
1059	0.004
1059	0.004
1060	0.004
1060	0.004
1061	0.004
1061	0.004
1061	0.004
1062	0.004
1062	0.004
1063	0.004
1063	0.004
1063	0.004
1064	0.004
1064	0.004
1065	0.004
1065	0.003
1066	0.003
1066	0.002
1066	0.002
1067	0.002
1067	0.002
1068	0.001
1068	0.001
1068	0.001
1069	0.001
1069	0.001
1070	0
1070	0.001
1071	0
1071	0.001
1071	0
1072	0
1072	0
1073	0
1073	-0
1073	-0
1074	-0
1074	-0
1075	-0.001
1075	-0.001
1076	-0.002
1076	-0.002
1076	-0.002
1077	-0.002
1077	-0.003
1078	-0.004
1078	-0.004
1078	-0.005
1079	-0.006
1079	-0.006
1080	-0.007
1080	-0.007
1080	-0.008
1081	-0.009
1081	-0.009
1082	-0.01
1082	-0.01
1083	-0.01
1083	-0.011
1083	-0.011
1084	-0.011
1084	-0.012
1085	-0.012
1085	-0.012
1085	-0.012
1086	-0.011
1086	-0.011
1087	-0.011
1087	-0.011
1088	-0.011
1088	-0.011
1088	-0.011
1089	-0.011
1089	-0.01
1090	-0.011
1090	-0.01
1090	-0.011
1091	-0.011
1091	-0.011
1092	-0.011
1092	-0.01
1092	-0.011
1093	-0.011
1093	-0.01
1094	-0.01
1094	-0.01
1095	-0.01
1095	-0.009
1095	-0.009
1096	-0.009
1096	-0.009
1097	-0.009
1097	-0.008
1097	-0.008
1098	-0.008
1098	-0.009
1099	-0.008
1099	-0.008
1100	-0.008
1100	-0.008
1100	-0.008
1101	-0.009
1101	-0.011
1102	-0.012
1102	-0.013
1102	-0.013
1103	-0.013
1103	-0.015
1104	-0.015
1104	-0.016
1104	-0.017
1105	-0.017
1105	-0.018
1106	-0.019
1106	-0.019
1107	-0.02
1107	-0.021
1107	-0.024
1108	-0.025
1108	-0.025
1109	-0.027
1109	-0.028
1109	-0.03
1110	-0.029
1110	-0.03
1111	-0.033
1111	-0.035
