Data from 17C_3.4A_30min_2sec_int_Absorbance__702__00702.txt Node

Date: Mon Jun 19 16:34:02 CEST 2023
User: Marek
Spectrometer: MAYP115816
Trigger mode: 0
Integration Time (sec): 2.500000E-1
Scans to average: 10
Electric dark correction enabled: true
Nonlinearity correction enabled: true
Boxcar width: 5
XAxis mode: Wavelengths
Number of Pixels in Spectrum: 2068
>>>>>Begin Spectral Data<<<<<
199	-0.579
199	-0.586
200	-0.502
200	-0.458
201	-0.425
201	-0.414
202	-0.401
202	-0.385
203	-0.373
203	-0.372
204	-0.362
204	-0.352
205	-0.333
205	-0.328
205	-0.324
206	-0.327
206	-0.328
207	-0.316
207	-0.317
208	-0.324
208	-0.323
209	-0.319
209	-0.319
210	-0.321
210	-0.328
211	-0.329
211	-0.329
212	-0.33
212	-0.338
213	-0.337
213	-0.336
213	-0.339
214	-0.333
214	-0.331
215	-0.333
215	-0.334
216	-0.337
216	-0.345
217	-0.343
217	-0.349
218	-0.354
218	-0.353
219	-0.355
219	-0.365
220	-0.371
220	-0.378
221	-0.377
221	-0.381
221	-0.374
222	-0.371
222	-0.37
223	-0.371
223	-0.373
224	-0.378
224	-0.379
225	-0.374
225	-0.368
226	-0.374
226	-0.375
227	-0.379
227	-0.388
228	-0.39
228	-0.392
229	-0.395
229	-0.389
229	-0.383
230	-0.387
230	-0.391
231	-0.386
231	-0.376
232	-0.371
232	-0.37
233	-0.364
233	-0.363
234	-0.361
234	-0.358
235	-0.361
235	-0.365
236	-0.363
236	-0.366
236	-0.375
237	-0.383
237	-0.383
238	-0.39
238	-0.386
239	-0.387
239	-0.396
240	-0.397
240	-0.397
241	-0.402
241	-0.401
242	-0.404
242	-0.399
243	-0.394
243	-0.395
243	-0.404
244	-0.402
244	-0.403
245	-0.413
245	-0.411
246	-0.416
246	-0.422
247	-0.424
247	-0.427
248	-0.435
248	-0.435
249	-0.438
249	-0.448
250	-0.444
250	-0.445
250	-0.445
251	-0.443
251	-0.439
252	-0.442
252	-0.435
253	-0.437
253	-0.445
254	-0.44
254	-0.438
255	-0.449
255	-0.441
256	-0.439
256	-0.45
257	-0.447
257	-0.441
258	-0.456
258	-0.453
258	-0.451
259	-0.452
259	-0.46
260	-0.455
260	-0.457
261	-0.47
261	-0.461
262	-0.459
262	-0.459
263	-0.448
263	-0.445
264	-0.444
264	-0.451
265	-0.444
265	-0.454
265	-0.458
266	-0.452
266	-0.451
267	-0.463
267	-0.472
268	-0.486
268	-0.494
269	-0.492
269	-0.487
270	-0.492
270	-0.493
271	-0.494
271	-0.501
272	-0.502
272	-0.497
272	-0.489
273	-0.486
273	-0.496
274	-0.499
274	-0.5
275	-0.5
275	-0.496
276	-0.498
276	-0.488
277	-0.496
277	-0.512
278	-0.524
278	-0.521
278	-0.512
279	-0.517
279	-0.527
280	-0.525
280	-0.527
281	-0.522
281	-0.527
282	-0.52
282	-0.524
283	-0.513
283	-0.512
284	-0.507
284	-0.495
285	-0.491
285	-0.487
285	-0.483
286	-0.493
286	-0.489
287	-0.486
287	-0.469
288	-0.461
288	-0.471
289	-0.482
289	-0.493
290	-0.484
290	-0.483
291	-0.479
291	-0.468
292	-0.474
292	-0.481
292	-0.482
293	-0.489
293	-0.476
294	-0.467
294	-0.457
295	-0.456
295	-0.454
296	-0.451
296	-0.45
297	-0.442
297	-0.427
298	-0.421
298	-0.43
298	-0.421
299	-0.414
299	-0.417
300	-0.411
300	-0.409
301	-0.404
301	-0.405
302	-0.415
302	-0.423
303	-0.414
303	-0.398
304	-0.401
304	-0.402
305	-0.404
305	-0.402
305	-0.399
306	-0.388
306	-0.384
307	-0.37
307	-0.371
308	-0.38
308	-0.378
309	-0.382
309	-0.371
310	-0.358
310	-0.358
311	-0.35
311	-0.358
311	-0.353
312	-0.348
312	-0.344
313	-0.332
313	-0.335
314	-0.332
314	-0.335
315	-0.335
315	-0.333
316	-0.331
316	-0.322
317	-0.319
317	-0.315
318	-0.309
318	-0.308
318	-0.304
319	-0.292
319	-0.291
320	-0.289
320	-0.289
321	-0.292
321	-0.293
322	-0.287
322	-0.282
323	-0.279
323	-0.273
324	-0.265
324	-0.259
324	-0.248
325	-0.238
325	-0.225
326	-0.212
326	-0.197
327	-0.183
327	-0.164
328	-0.143
328	-0.127
329	-0.108
329	-0.088
330	-0.065
330	-0.039
330	-0.018
331	0.006
331	0.028
332	0.05
332	0.067
333	0.086
333	0.105
334	0.121
334	0.133
335	0.147
335	0.158
336	0.169
336	0.179
336	0.186
337	0.194
337	0.2
338	0.206
338	0.208
339	0.213
339	0.217
340	0.22
340	0.222
341	0.225
341	0.227
342	0.229
342	0.23
342	0.232
343	0.233
343	0.235
344	0.237
344	0.238
345	0.239
345	0.239
346	0.24
346	0.24
347	0.241
347	0.242
348	0.242
348	0.242
348	0.242
349	0.242
349	0.243
350	0.243
350	0.243
351	0.243
351	0.242
352	0.243
352	0.242
353	0.242
353	0.242
354	0.242
354	0.241
354	0.241
355	0.241
355	0.241
356	0.24
356	0.24
357	0.239
357	0.238
358	0.238
358	0.238
359	0.238
359	0.238
360	0.238
360	0.238
360	0.237
361	0.237
361	0.237
362	0.237
362	0.237
363	0.237
363	0.237
364	0.237
364	0.237
365	0.237
365	0.237
366	0.237
366	0.236
366	0.236
367	0.236
367	0.236
368	0.236
368	0.236
369	0.236
369	0.235
370	0.235
370	0.235
371	0.234
371	0.234
372	0.234
372	0.234
372	0.234
373	0.233
373	0.233
374	0.233
374	0.233
375	0.233
375	0.233
376	0.233
376	0.233
377	0.233
377	0.233
378	0.233
378	0.233
378	0.233
379	0.233
379	0.232
380	0.232
380	0.232
381	0.232
381	0.232
382	0.231
382	0.231
383	0.231
383	0.231
383	0.23
384	0.23
384	0.23
385	0.23
385	0.23
386	0.23
386	0.23
387	0.23
387	0.229
388	0.229
388	0.229
389	0.229
389	0.229
389	0.229
390	0.229
390	0.229
391	0.228
391	0.228
392	0.228
392	0.228
393	0.228
393	0.228
394	0.228
394	0.227
394	0.227
395	0.227
395	0.227
396	0.227
396	0.227
397	0.227
397	0.226
398	0.226
398	0.226
399	0.226
399	0.226
400	0.225
400	0.225
400	0.225
401	0.225
401	0.225
402	0.224
402	0.224
403	0.224
403	0.224
404	0.224
404	0.224
405	0.224
405	0.224
405	0.223
406	0.223
406	0.223
407	0.223
407	0.222
408	0.222
408	0.222
409	0.222
409	0.222
410	0.222
410	0.222
411	0.222
411	0.222
411	0.222
412	0.222
412	0.222
413	0.222
413	0.222
414	0.222
414	0.221
415	0.221
415	0.221
416	0.22
416	0.22
416	0.22
417	0.22
417	0.22
418	0.22
418	0.219
419	0.219
419	0.219
420	0.219
420	0.22
421	0.22
421	0.22
421	0.219
422	0.22
422	0.22
423	0.22
423	0.22
424	0.219
424	0.219
425	0.219
425	0.219
426	0.219
426	0.218
427	0.218
427	0.218
427	0.218
428	0.218
428	0.218
429	0.218
429	0.217
430	0.217
430	0.217
431	0.217
431	0.217
432	0.217
432	0.217
432	0.216
433	0.216
433	0.216
434	0.216
434	0.216
435	0.216
435	0.216
436	0.216
436	0.216
437	0.216
437	0.216
437	0.216
438	0.216
438	0.216
439	0.216
439	0.216
440	0.216
440	0.216
441	0.215
441	0.215
442	0.215
442	0.215
442	0.215
443	0.214
443	0.214
444	0.214
444	0.214
445	0.214
445	0.214
446	0.215
446	0.215
447	0.215
447	0.215
447	0.215
448	0.215
448	0.215
449	0.215
449	0.215
450	0.215
450	0.215
451	0.215
451	0.215
452	0.215
452	0.215
452	0.215
453	0.215
453	0.215
454	0.215
454	0.215
455	0.215
455	0.215
456	0.215
456	0.215
457	0.215
457	0.215
458	0.215
458	0.215
458	0.215
459	0.215
459	0.215
460	0.215
460	0.215
461	0.215
461	0.215
462	0.216
462	0.216
463	0.216
463	0.216
463	0.216
464	0.216
464	0.216
465	0.217
465	0.217
466	0.217
466	0.218
467	0.218
467	0.218
467	0.219
468	0.219
468	0.219
469	0.22
469	0.22
470	0.221
470	0.221
471	0.221
471	0.221
472	0.221
472	0.221
472	0.222
473	0.222
473	0.222
474	0.222
474	0.222
475	0.223
475	0.223
476	0.224
476	0.224
477	0.224
477	0.224
477	0.225
478	0.225
478	0.225
479	0.226
479	0.226
480	0.227
480	0.228
481	0.228
481	0.229
482	0.229
482	0.23
482	0.231
483	0.231
483	0.232
484	0.232
484	0.232
485	0.232
485	0.233
486	0.233
486	0.234
487	0.235
487	0.235
487	0.236
488	0.237
488	0.237
489	0.239
489	0.241
490	0.242
490	0.243
491	0.244
491	0.245
492	0.247
492	0.248
492	0.249
493	0.25
493	0.251
494	0.252
494	0.253
495	0.255
495	0.256
496	0.257
496	0.258
496	0.26
497	0.261
497	0.262
498	0.264
498	0.265
499	0.266
499	0.268
500	0.27
500	0.271
501	0.272
501	0.273
501	0.275
502	0.275
502	0.277
503	0.278
503	0.279
504	0.281
504	0.282
505	0.284
505	0.285
506	0.287
506	0.289
506	0.29
507	0.292
507	0.294
508	0.295
508	0.297
509	0.299
509	0.301
510	0.302
510	0.304
511	0.305
511	0.307
511	0.308
512	0.31
512	0.311
513	0.312
513	0.313
514	0.315
514	0.316
515	0.317
515	0.319
515	0.32
516	0.321
516	0.323
517	0.324
517	0.325
518	0.327
518	0.328
519	0.329
519	0.331
520	0.332
520	0.333
520	0.335
521	0.336
521	0.337
522	0.338
522	0.339
523	0.34
523	0.341
524	0.342
524	0.342
524	0.342
525	0.343
525	0.343
526	0.344
526	0.344
527	0.345
527	0.345
528	0.346
528	0.346
529	0.347
529	0.347
529	0.348
530	0.348
530	0.348
531	0.348
531	0.348
532	0.348
532	0.348
533	0.347
533	0.347
533	0.346
534	0.346
534	0.345
535	0.345
535	0.344
536	0.344
536	0.343
537	0.342
537	0.342
538	0.341
538	0.341
538	0.34
539	0.34
539	0.339
540	0.338
540	0.337
541	0.336
541	0.335
542	0.334
542	0.333
542	0.332
543	0.331
543	0.33
544	0.328
544	0.327
545	0.326
545	0.325
546	0.325
546	0.324
547	0.322
547	0.321
547	0.32
548	0.319
548	0.318
549	0.317
549	0.316
550	0.315
550	0.313
551	0.312
551	0.311
551	0.31
552	0.309
552	0.308
553	0.307
553	0.306
554	0.305
554	0.303
555	0.302
555	0.301
556	0.3
556	0.299
556	0.298
557	0.297
557	0.296
558	0.294
558	0.293
559	0.291
559	0.29
560	0.289
560	0.288
560	0.287
561	0.286
561	0.284
562	0.283
562	0.282
563	0.281
563	0.28
564	0.279
564	0.278
564	0.277
565	0.276
565	0.275
566	0.273
566	0.272
567	0.27
567	0.269
568	0.267
568	0.266
568	0.264
569	0.263
569	0.262
570	0.26
570	0.259
571	0.258
571	0.257
572	0.256
572	0.255
573	0.254
573	0.252
573	0.251
574	0.25
574	0.249
575	0.249
575	0.248
576	0.248
576	0.247
577	0.246
577	0.246
577	0.246
578	0.246
578	0.246
579	0.246
579	0.246
580	0.245
580	0.244
581	0.242
581	0.242
581	0.242
582	0.241
582	0.241
583	0.24
583	0.239
584	0.237
584	0.236
585	0.236
585	0.236
585	0.236
586	0.236
586	0.235
587	0.235
587	0.234
588	0.234
588	0.234
589	0.234
589	0.234
590	0.233
590	0.233
590	0.233
591	0.233
591	0.232
592	0.231
592	0.23
593	0.229
593	0.229
594	0.229
594	0.228
594	0.227
595	0.227
595	0.227
596	0.227
596	0.228
597	0.228
597	0.228
598	0.228
598	0.227
598	0.227
599	0.227
599	0.226
600	0.225
600	0.225
601	0.224
601	0.223
602	0.222
602	0.222
602	0.222
603	0.222
603	0.222
604	0.223
604	0.223
605	0.224
605	0.224
606	0.224
606	0.223
606	0.223
607	0.223
607	0.223
608	0.222
608	0.222
609	0.221
609	0.221
610	0.221
610	0.221
610	0.221
611	0.221
611	0.221
612	0.222
612	0.222
613	0.221
613	0.221
614	0.22
614	0.219
614	0.219
615	0.218
615	0.217
616	0.217
616	0.216
617	0.216
617	0.215
618	0.214
618	0.214
618	0.214
619	0.214
619	0.214
620	0.214
620	0.214
621	0.214
621	0.214
622	0.214
622	0.214
622	0.213
623	0.213
623	0.213
624	0.212
624	0.212
625	0.211
625	0.211
626	0.211
626	0.21
626	0.21
627	0.21
627	0.209
628	0.208
628	0.208
629	0.207
629	0.205
630	0.204
630	0.203
630	0.202
631	0.2
631	0.199
632	0.197
632	0.195
633	0.194
633	0.193
634	0.191
634	0.189
634	0.187
635	0.185
635	0.182
636	0.179
636	0.177
637	0.174
637	0.171
638	0.168
638	0.165
638	0.161
639	0.158
639	0.155
640	0.151
640	0.148
641	0.145
641	0.141
642	0.138
642	0.135
642	0.131
643	0.127
643	0.123
644	0.119
644	0.114
645	0.11
645	0.105
646	0.1
646	0.095
646	0.09
647	0.085
647	0.079
648	0.074
648	0.068
649	0.061
649	0.056
650	0.049
650	0.043
650	0.036
651	0.028
651	0.018
652	0.007
652	-0.006
653	-0.017
653	-0.027
653	-0.024
654	-0.009
654	-0.001
655	-0.004
655	-0.009
656	-0.014
656	-0.02
657	-0.023
657	-0.026
657	-0.032
658	-0.038
658	-0.062
659	-0.133
659	-0.221
660	-0.261
660	-0.284
661	-0.311
661	-0.34
661	-0.373
662	-0.403
662	-0.437
663	-0.475
663	-0.518
664	-0.562
664	-0.613
665	-0.665
665	-0.724
665	-0.78
666	-0.837
666	-0.9
667	-0.966
667	-1.033
668	-1.106
668	-1.181
669	-1.255
669	-1.33
669	-1.407
670	-1.472
670	-1.496
671	-1.625
671	-1.938
672	-2.179
672	-2.376
672	-2.509
673	-2.604
673	-2.686
674	-2.731
674	-2.75
675	-2.776
675	-2.917
676	-3.117
676	-3.068
676	-2.844
677	-2.64
677	-2.477
678	-2.3
678	-2
679	-1.698
679	-1.554
680	-1.456
680	-1.37
680	-1.298
681	-1.251
681	-1.19
682	-1.148
682	-1.109
683	-1.071
683	-1.05
684	-1.027
684	-1.006
684	-0.982
685	-0.956
685	-0.931
686	-0.904
686	-0.886
687	-0.86
687	-0.845
687	-0.822
688	-0.796
688	-0.773
689	-0.75
689	-0.735
690	-0.716
690	-0.703
691	-0.696
691	-0.698
691	-0.71
692	-0.702
692	-0.691
693	-0.685
693	-0.689
694	-0.683
694	-0.673
695	-0.675
695	-0.671
695	-0.652
696	-0.65
696	-0.63
697	-0.628
697	-0.643
698	-0.645
698	-0.636
698	-0.648
699	-0.652
699	-0.652
700	-0.644
700	-0.658
701	-0.654
701	-0.659
702	-0.659
702	-0.648
702	-0.639
703	-0.633
703	-0.623
704	-0.619
704	-0.617
705	-0.628
705	-0.621
705	-0.611
706	-0.611
706	-0.604
707	-0.605
707	-0.601
708	-0.597
708	-0.591
709	-0.593
709	-0.594
709	-0.585
710	-0.591
710	-0.597
711	-0.589
711	-0.591
712	-0.593
712	-0.604
713	-0.6
713	-0.604
713	-0.593
714	-0.589
714	-0.589
715	-0.581
715	-0.57
716	-0.576
716	-0.576
716	-0.57
717	-0.573
717	-0.579
718	-0.572
718	-0.572
719	-0.578
719	-0.578
720	-0.572
720	-0.581
720	-0.574
721	-0.564
721	-0.564
722	-0.547
722	-0.535
723	-0.531
723	-0.536
723	-0.522
724	-0.527
724	-0.532
725	-0.533
725	-0.542
726	-0.554
726	-0.56
727	-0.567
727	-0.581
727	-0.59
728	-0.591
728	-0.599
729	-0.596
729	-0.598
730	-0.604
730	-0.596
730	-0.587
731	-0.569
731	-0.578
732	-0.584
732	-0.583
733	-0.58
733	-0.589
734	-0.585
734	-0.584
734	-0.57
735	-0.57
735	-0.572
736	-0.583
736	-0.571
737	-0.564
737	-0.565
737	-0.574
738	-0.564
738	-0.563
739	-0.564
739	-0.577
740	-0.573
740	-0.57
741	-0.566
741	-0.567
741	-0.568
742	-0.566
742	-0.567
743	-0.574
743	-0.578
744	-0.573
744	-0.561
744	-0.565
745	-0.572
745	-0.563
746	-0.56
746	-0.56
747	-0.56
747	-0.549
748	-0.537
748	-0.545
748	-0.546
749	-0.544
749	-0.544
750	-0.532
750	-0.534
751	-0.539
751	-0.547
751	-0.548
752	-0.552
752	-0.561
753	-0.555
753	-0.553
754	-0.559
754	-0.554
754	-0.567
755	-0.584
755	-0.596
756	-0.588
756	-0.584
757	-0.581
757	-0.577
758	-0.579
758	-0.575
758	-0.578
759	-0.585
759	-0.57
760	-0.561
760	-0.556
761	-0.563
761	-0.565
761	-0.566
762	-0.572
762	-0.569
763	-0.58
763	-0.574
764	-0.572
764	-0.58
764	-0.586
765	-0.574
765	-0.56
766	-0.565
766	-0.57
767	-0.583
767	-0.578
768	-0.572
768	-0.583
768	-0.588
769	-0.603
769	-0.603
770	-0.61
770	-0.624
771	-0.62
771	-0.621
771	-0.623
772	-0.626
772	-0.624
773	-0.622
773	-0.619
774	-0.619
774	-0.621
775	-0.624
775	-0.618
775	-0.624
776	-0.625
776	-0.614
777	-0.623
777	-0.642
778	-0.639
778	-0.657
778	-0.642
779	-0.663
779	-0.672
780	-0.684
780	-0.685
781	-0.699
781	-0.697
781	-0.711
782	-0.713
782	-0.718
783	-0.706
783	-0.705
784	-0.686
784	-0.677
784	-0.685
785	-0.694
785	-0.678
786	-0.684
786	-0.663
787	-0.645
787	-0.642
788	-0.643
788	-0.651
788	-0.66
789	-0.661
789	-0.642
790	-0.621
790	-0.622
791	-0.62
791	-0.638
791	-0.646
792	-0.643
792	-0.621
793	-0.613
793	-0.593
794	-0.597
794	-0.592
794	-0.601
795	-0.597
795	-0.589
796	-0.572
796	-0.575
797	-0.568
797	-0.58
797	-0.589
798	-0.6
798	-0.59
799	-0.599
799	-0.585
800	-0.592
800	-0.586
801	-0.592
801	-0.582
801	-0.592
802	-0.602
802	-0.6
803	-0.599
803	-0.608
804	-0.603
804	-0.613
804	-0.6
805	-0.603
805	-0.591
806	-0.592
806	-0.577
807	-0.572
807	-0.553
807	-0.541
808	-0.533
808	-0.528
809	-0.514
809	-0.525
810	-0.523
810	-0.518
810	-0.515
811	-0.52
811	-0.513
812	-0.515
812	-0.522
813	-0.527
813	-0.524
813	-0.529
814	-0.531
814	-0.535
815	-0.541
815	-0.547
816	-0.541
816	-0.545
817	-0.555
817	-0.571
817	-0.583
818	-0.59
818	-0.591
819	-0.583
819	-0.585
820	-0.592
820	-0.587
820	-0.599
821	-0.597
821	-0.581
822	-0.551
822	-0.531
823	-0.528
823	-0.531
823	-0.528
824	-0.521
824	-0.52
825	-0.513
825	-0.496
826	-0.491
826	-0.501
826	-0.511
827	-0.506
827	-0.506
828	-0.488
828	-0.488
829	-0.481
829	-0.471
829	-0.463
830	-0.47
830	-0.47
831	-0.462
831	-0.452
832	-0.449
832	-0.438
832	-0.447
833	-0.44
833	-0.442
834	-0.44
834	-0.448
835	-0.435
835	-0.429
835	-0.427
836	-0.424
836	-0.421
837	-0.422
837	-0.412
838	-0.407
838	-0.395
839	-0.384
839	-0.373
839	-0.363
840	-0.353
840	-0.347
841	-0.336
841	-0.329
842	-0.322
842	-0.315
842	-0.307
843	-0.301
843	-0.297
844	-0.289
844	-0.285
845	-0.278
845	-0.267
845	-0.255
846	-0.245
846	-0.231
847	-0.218
847	-0.21
848	-0.201
848	-0.191
848	-0.178
849	-0.169
849	-0.16
850	-0.15
850	-0.147
851	-0.142
851	-0.134
851	-0.127
852	-0.113
852	-0.103
853	-0.096
853	-0.092
854	-0.082
854	-0.072
854	-0.064
855	-0.055
855	-0.051
856	-0.043
856	-0.036
857	-0.031
857	-0.024
857	-0.012
858	-0.004
858	0
859	0.007
859	0.014
860	0.021
860	0.032
860	0.037
861	0.041
861	0.047
862	0.053
862	0.057
863	0.061
863	0.067
863	0.071
864	0.074
864	0.078
865	0.082
865	0.085
866	0.089
866	0.092
866	0.094
867	0.096
867	0.099
868	0.101
868	0.103
869	0.105
869	0.107
869	0.109
870	0.11
870	0.112
871	0.113
871	0.115
872	0.115
872	0.116
872	0.116
873	0.116
873	0.116
874	0.115
874	0.115
875	0.114
875	0.113
875	0.112
876	0.111
876	0.11
877	0.109
877	0.108
878	0.107
878	0.106
878	0.105
879	0.103
879	0.102
880	0.102
880	0.102
881	0.102
881	0.102
881	0.102
882	0.101
882	0.101
883	0.1
883	0.1
884	0.099
884	0.099
884	0.098
885	0.098
885	0.098
886	0.097
886	0.097
887	0.096
887	0.096
887	0.096
888	0.097
888	0.097
889	0.097
889	0.097
890	0.098
890	0.098
890	0.098
891	0.098
891	0.099
892	0.099
892	0.099
893	0.098
893	0.098
893	0.098
894	0.097
894	0.097
895	0.096
895	0.096
895	0.096
896	0.095
896	0.094
897	0.093
897	0.092
898	0.091
898	0.09
898	0.09
899	0.089
899	0.089
900	0.089
900	0.089
901	0.089
901	0.089
901	0.089
902	0.089
902	0.09
903	0.089
903	0.089
904	0.09
904	0.09
904	0.091
905	0.091
905	0.092
906	0.092
906	0.092
907	0.091
907	0.091
907	0.091
908	0.091
908	0.09
909	0.089
909	0.088
910	0.088
910	0.087
910	0.087
911	0.086
911	0.087
912	0.087
912	0.087
913	0.087
913	0.087
913	0.087
914	0.088
914	0.088
915	0.089
915	0.089
916	0.09
916	0.09
916	0.09
917	0.091
917	0.091
918	0.091
918	0.091
918	0.091
919	0.091
919	0.091
920	0.091
920	0.092
921	0.092
921	0.092
921	0.092
922	0.092
922	0.093
923	0.093
923	0.093
924	0.094
924	0.094
924	0.094
925	0.094
925	0.093
926	0.093
926	0.092
927	0.092
927	0.091
927	0.09
928	0.089
928	0.088
929	0.088
929	0.087
930	0.086
930	0.086
930	0.086
931	0.087
931	0.087
932	0.088
932	0.088
933	0.088
933	0.088
933	0.087
934	0.087
934	0.086
935	0.086
935	0.085
935	0.084
936	0.083
936	0.082
937	0.081
937	0.08
938	0.08
938	0.079
938	0.079
939	0.079
939	0.079
940	0.079
940	0.079
941	0.079
941	0.079
941	0.079
942	0.079
942	0.079
943	0.078
943	0.078
944	0.078
944	0.078
944	0.077
945	0.076
945	0.076
946	0.075
946	0.074
946	0.074
947	0.074
947	0.074
948	0.074
948	0.074
949	0.073
949	0.074
949	0.074
950	0.075
950	0.075
951	0.075
951	0.076
952	0.076
952	0.077
952	0.077
953	0.078
953	0.079
954	0.079
954	0.079
955	0.08
955	0.081
955	0.081
956	0.082
956	0.082
957	0.082
957	0.082
957	0.082
958	0.083
958	0.083
959	0.084
959	0.084
960	0.084
960	0.084
960	0.085
961	0.085
961	0.085
962	0.085
962	0.085
963	0.085
963	0.085
963	0.084
964	0.084
964	0.084
965	0.083
965	0.082
966	0.082
966	0.082
966	0.082
967	0.081
967	0.08
968	0.08
968	0.079
968	0.079
969	0.079
969	0.078
970	0.078
970	0.078
971	0.078
971	0.078
971	0.078
972	0.077
972	0.077
973	0.077
973	0.076
974	0.076
974	0.076
974	0.076
975	0.075
975	0.075
976	0.074
976	0.074
976	0.074
977	0.073
977	0.073
978	0.073
978	0.073
979	0.073
979	0.073
979	0.073
980	0.073
980	0.074
981	0.074
981	0.074
982	0.074
982	0.074
982	0.073
983	0.073
983	0.073
984	0.073
984	0.073
984	0.073
985	0.073
985	0.073
986	0.073
986	0.073
987	0.074
987	0.074
987	0.075
988	0.075
988	0.075
989	0.075
989	0.075
990	0.075
990	0.075
990	0.074
991	0.074
991	0.073
992	0.073
992	0.072
992	0.072
993	0.072
993	0.071
994	0.071
994	0.07
995	0.07
995	0.07
995	0.07
996	0.069
996	0.069
997	0.069
997	0.069
997	0.069
998	0.069
998	0.069
999	0.069
999	0.069
1000	0.069
1000	0.069
1000	0.068
1001	0.068
1001	0.068
1002	0.068
1002	0.067
1003	0.067
1003	0.066
1003	0.066
1004	0.065
1004	0.064
1005	0.063
1005	0.062
1005	0.06
1006	0.059
1006	0.059
1007	0.058
1007	0.057
1008	0.057
1008	0.056
1008	0.056
1009	0.056
1009	0.056
1010	0.057
1010	0.057
1010	0.057
1011	0.057
1011	0.056
1012	0.055
1012	0.054
1013	0.053
1013	0.052
1013	0.05
1014	0.049
1014	0.048
1015	0.047
1015	0.046
1016	0.045
1016	0.044
1016	0.044
1017	0.043
1017	0.043
1018	0.043
1018	0.042
1018	0.042
1019	0.042
1019	0.041
1020	0.04
1020	0.039
1021	0.038
1021	0.037
1021	0.036
1022	0.035
1022	0.034
1023	0.034
1023	0.034
1023	0.033
1024	0.033
1024	0.033
1025	0.033
1025	0.033
1026	0.034
1026	0.034
1026	0.034
1027	0.035
1027	0.035
1028	0.035
1028	0.036
1028	0.036
1029	0.036
1029	0.036
1030	0.036
1030	0.036
1031	0.036
1031	0.036
1031	0.036
1032	0.036
1032	0.037
1033	0.037
1033	0.038
1033	0.038
1034	0.039
1034	0.04
1035	0.04
1035	0.04
1036	0.041
1036	0.041
1036	0.04
1037	0.04
1037	0.04
1038	0.04
1038	0.04
1039	0.04
1039	0.04
1039	0.04
1040	0.04
1040	0.04
1041	0.041
1041	0.041
1041	0.042
1042	0.042
1042	0.041
1043	0.042
1043	0.042
1044	0.042
1044	0.042
1044	0.042
1045	0.042
1045	0.042
1046	0.042
1046	0.042
1046	0.042
1047	0.043
1047	0.043
1048	0.043
1048	0.044
1049	0.044
1049	0.044
1049	0.044
1050	0.044
1050	0.045
1051	0.045
1051	0.045
1051	0.045
1052	0.045
1052	0.045
1053	0.045
1053	0.045
1053	0.044
1054	0.044
1054	0.044
1055	0.043
1055	0.042
1056	0.041
1056	0.04
1056	0.039
1057	0.038
1057	0.037
1058	0.037
1058	0.036
1058	0.035
1059	0.035
1059	0.034
1060	0.034
1060	0.034
1061	0.034
1061	0.034
1061	0.034
1062	0.035
1062	0.034
1063	0.034
1063	0.034
1063	0.035
1064	0.035
1064	0.034
1065	0.034
1065	0.033
1066	0.033
1066	0.032
1066	0.031
1067	0.031
1067	0.031
1068	0.03
1068	0.03
1068	0.029
1069	0.029
1069	0.028
1070	0.028
1070	0.028
1071	0.028
1071	0.028
1071	0.027
1072	0.027
1072	0.027
1073	0.027
1073	0.026
1073	0.026
1074	0.027
1074	0.027
1075	0.027
1075	0.026
1076	0.026
1076	0.026
1076	0.025
1077	0.025
1077	0.024
1078	0.023
1078	0.023
1078	0.022
1079	0.021
1079	0.021
1080	0.02
1080	0.02
1080	0.019
1081	0.018
1081	0.018
1082	0.017
1082	0.016
1083	0.016
1083	0.015
1083	0.014
1084	0.014
1084	0.013
1085	0.012
1085	0.012
1085	0.012
1086	0.011
1086	0.011
1087	0.011
1087	0.01
1088	0.01
1088	0.009
1088	0.009
1089	0.009
1089	0.009
1090	0.008
1090	0.007
1090	0.007
1091	0.006
1091	0.006
1092	0.005
1092	0.006
1092	0.005
1093	0.005
1093	0.005
1094	0.005
1094	0.005
1095	0.004
1095	0.003
1095	0.004
1096	0.003
1096	0.003
1097	0.003
1097	0.002
1097	0.002
1098	0
1098	-0
1099	-0
1099	0
1100	-0.001
1100	-0.002
1100	-0.004
1101	-0.005
1101	-0.007
1102	-0.008
1102	-0.01
1102	-0.01
1103	-0.012
1103	-0.014
1104	-0.016
1104	-0.017
1104	-0.02
1105	-0.021
1105	-0.022
1106	-0.025
1106	-0.028
1107	-0.03
1107	-0.034
1107	-0.038
1108	-0.04
1108	-0.042
1109	-0.044
1109	-0.047
1109	-0.05
1110	-0.051
1110	-0.055
1111	-0.055
1111	-0.056
