Data from 17C_3.4A_30min_2sec_int_Absorbance__508__00508.txt Node

Date: Mon Jun 19 16:25:57 CEST 2023
User: Marek
Spectrometer: MAYP115816
Trigger mode: 0
Integration Time (sec): 2.500000E-1
Scans to average: 10
Electric dark correction enabled: true
Nonlinearity correction enabled: true
Boxcar width: 5
XAxis mode: Wavelengths
Number of Pixels in Spectrum: 2068
>>>>>Begin Spectral Data<<<<<
199	-0.528
199	-0.549
200	-0.463
200	-0.417
201	-0.388
201	-0.375
202	-0.358
202	-0.345
203	-0.337
203	-0.331
204	-0.323
204	-0.31
205	-0.291
205	-0.285
205	-0.284
206	-0.285
206	-0.288
207	-0.281
207	-0.284
208	-0.286
208	-0.286
209	-0.279
209	-0.28
210	-0.283
210	-0.288
211	-0.287
211	-0.286
212	-0.289
212	-0.297
213	-0.295
213	-0.295
213	-0.3
214	-0.297
214	-0.296
215	-0.296
215	-0.3
216	-0.304
216	-0.314
217	-0.308
217	-0.312
218	-0.316
218	-0.317
219	-0.319
219	-0.327
220	-0.332
220	-0.338
221	-0.338
221	-0.339
221	-0.33
222	-0.328
222	-0.33
223	-0.331
223	-0.33
224	-0.335
224	-0.335
225	-0.331
225	-0.329
226	-0.332
226	-0.331
227	-0.337
227	-0.346
228	-0.344
228	-0.346
229	-0.348
229	-0.341
229	-0.337
230	-0.341
230	-0.345
231	-0.34
231	-0.334
232	-0.326
232	-0.324
233	-0.319
233	-0.321
234	-0.32
234	-0.318
235	-0.32
235	-0.323
236	-0.319
236	-0.321
236	-0.329
237	-0.337
237	-0.335
238	-0.342
238	-0.338
239	-0.338
239	-0.349
240	-0.347
240	-0.346
241	-0.351
241	-0.35
242	-0.352
242	-0.348
243	-0.347
243	-0.348
243	-0.354
244	-0.353
244	-0.349
245	-0.359
245	-0.358
246	-0.363
246	-0.37
247	-0.37
247	-0.374
248	-0.378
248	-0.376
249	-0.383
249	-0.39
250	-0.389
250	-0.391
250	-0.392
251	-0.387
251	-0.387
252	-0.392
252	-0.382
253	-0.387
253	-0.4
254	-0.395
254	-0.397
255	-0.405
255	-0.398
256	-0.394
256	-0.404
257	-0.402
257	-0.4
258	-0.414
258	-0.411
258	-0.407
259	-0.402
259	-0.408
260	-0.409
260	-0.412
261	-0.424
261	-0.417
262	-0.411
262	-0.411
263	-0.402
263	-0.401
264	-0.396
264	-0.405
265	-0.4
265	-0.408
265	-0.412
266	-0.409
266	-0.406
267	-0.419
267	-0.428
268	-0.442
268	-0.445
269	-0.441
269	-0.437
270	-0.44
270	-0.442
271	-0.442
271	-0.448
272	-0.451
272	-0.446
272	-0.439
273	-0.437
273	-0.45
274	-0.461
274	-0.466
275	-0.47
275	-0.462
276	-0.466
276	-0.454
277	-0.46
277	-0.476
278	-0.485
278	-0.479
278	-0.471
279	-0.47
279	-0.475
280	-0.472
280	-0.475
281	-0.47
281	-0.476
282	-0.465
282	-0.464
283	-0.453
283	-0.454
284	-0.447
284	-0.44
285	-0.433
285	-0.43
285	-0.425
286	-0.432
286	-0.429
287	-0.429
287	-0.415
288	-0.412
288	-0.421
289	-0.432
289	-0.436
290	-0.43
290	-0.43
291	-0.424
291	-0.415
292	-0.42
292	-0.425
292	-0.432
293	-0.437
293	-0.427
294	-0.418
294	-0.414
295	-0.411
295	-0.408
296	-0.407
296	-0.406
297	-0.4
297	-0.386
298	-0.377
298	-0.382
298	-0.372
299	-0.366
299	-0.366
300	-0.362
300	-0.355
301	-0.351
301	-0.349
302	-0.355
302	-0.364
303	-0.355
303	-0.341
304	-0.343
304	-0.345
305	-0.346
305	-0.346
305	-0.343
306	-0.331
306	-0.328
307	-0.316
307	-0.319
308	-0.332
308	-0.333
309	-0.337
309	-0.329
310	-0.318
310	-0.318
311	-0.311
311	-0.32
311	-0.32
312	-0.317
312	-0.313
313	-0.298
313	-0.299
314	-0.293
314	-0.293
315	-0.295
315	-0.292
316	-0.291
316	-0.282
317	-0.271
317	-0.267
318	-0.259
318	-0.258
318	-0.252
319	-0.243
319	-0.238
320	-0.232
320	-0.234
321	-0.239
321	-0.238
322	-0.235
322	-0.231
323	-0.229
323	-0.222
324	-0.22
324	-0.214
324	-0.206
325	-0.198
325	-0.181
326	-0.168
326	-0.154
327	-0.14
327	-0.122
328	-0.102
328	-0.085
329	-0.062
329	-0.041
330	-0.02
330	0.007
330	0.027
331	0.05
331	0.071
332	0.09
332	0.106
333	0.122
333	0.139
334	0.154
334	0.166
335	0.178
335	0.187
336	0.197
336	0.206
336	0.212
337	0.219
337	0.225
338	0.231
338	0.234
339	0.239
339	0.243
340	0.245
340	0.248
341	0.251
341	0.253
342	0.255
342	0.256
342	0.258
343	0.259
343	0.261
344	0.262
344	0.263
345	0.264
345	0.264
346	0.265
346	0.265
347	0.265
347	0.266
348	0.266
348	0.267
348	0.267
349	0.267
349	0.267
350	0.267
350	0.267
351	0.267
351	0.267
352	0.267
352	0.267
353	0.267
353	0.266
354	0.266
354	0.266
354	0.265
355	0.265
355	0.265
356	0.264
356	0.264
357	0.264
357	0.263
358	0.263
358	0.263
359	0.262
359	0.262
360	0.262
360	0.262
360	0.262
361	0.261
361	0.261
362	0.261
362	0.261
363	0.261
363	0.261
364	0.261
364	0.261
365	0.261
365	0.26
366	0.26
366	0.26
366	0.26
367	0.26
367	0.26
368	0.259
368	0.259
369	0.259
369	0.259
370	0.259
370	0.258
371	0.258
371	0.258
372	0.258
372	0.258
372	0.257
373	0.257
373	0.257
374	0.257
374	0.257
375	0.257
375	0.257
376	0.256
376	0.256
377	0.256
377	0.256
378	0.256
378	0.256
378	0.256
379	0.256
379	0.256
380	0.255
380	0.255
381	0.255
381	0.254
382	0.254
382	0.254
383	0.254
383	0.253
383	0.253
384	0.253
384	0.253
385	0.253
385	0.253
386	0.253
386	0.253
387	0.253
387	0.252
388	0.252
388	0.252
389	0.252
389	0.252
389	0.251
390	0.251
390	0.251
391	0.251
391	0.25
392	0.25
392	0.25
393	0.25
393	0.25
394	0.249
394	0.249
394	0.249
395	0.249
395	0.248
396	0.248
396	0.248
397	0.248
397	0.248
398	0.248
398	0.248
399	0.247
399	0.247
400	0.247
400	0.247
400	0.246
401	0.246
401	0.246
402	0.245
402	0.245
403	0.245
403	0.245
404	0.244
404	0.244
405	0.244
405	0.244
405	0.244
406	0.244
406	0.244
407	0.243
407	0.243
408	0.243
408	0.243
409	0.243
409	0.243
410	0.243
410	0.243
411	0.243
411	0.243
411	0.243
412	0.243
412	0.243
413	0.243
413	0.242
414	0.242
414	0.242
415	0.242
415	0.241
416	0.241
416	0.241
416	0.241
417	0.241
417	0.24
418	0.24
418	0.24
419	0.24
419	0.24
420	0.24
420	0.24
421	0.24
421	0.24
421	0.24
422	0.24
422	0.24
423	0.24
423	0.24
424	0.24
424	0.24
425	0.24
425	0.239
426	0.239
426	0.239
427	0.239
427	0.239
427	0.239
428	0.238
428	0.238
429	0.238
429	0.238
430	0.238
430	0.238
431	0.238
431	0.238
432	0.237
432	0.237
432	0.237
433	0.237
433	0.236
434	0.236
434	0.236
435	0.236
435	0.236
436	0.236
436	0.236
437	0.236
437	0.236
437	0.236
438	0.236
438	0.236
439	0.236
439	0.236
440	0.236
440	0.236
441	0.236
441	0.235
442	0.235
442	0.235
442	0.235
443	0.234
443	0.234
444	0.234
444	0.235
445	0.235
445	0.235
446	0.235
446	0.235
447	0.235
447	0.235
447	0.235
448	0.235
448	0.235
449	0.235
449	0.235
450	0.235
450	0.235
451	0.236
451	0.236
452	0.236
452	0.236
452	0.236
453	0.236
453	0.236
454	0.235
454	0.235
455	0.235
455	0.235
456	0.235
456	0.235
457	0.235
457	0.235
458	0.235
458	0.235
458	0.235
459	0.236
459	0.236
460	0.235
460	0.235
461	0.235
461	0.236
462	0.236
462	0.236
463	0.236
463	0.237
463	0.237
464	0.237
464	0.237
465	0.237
465	0.237
466	0.238
466	0.238
467	0.238
467	0.238
467	0.239
468	0.239
468	0.24
469	0.24
469	0.241
470	0.241
470	0.242
471	0.242
471	0.242
472	0.242
472	0.242
472	0.243
473	0.243
473	0.243
474	0.244
474	0.244
475	0.244
475	0.245
476	0.245
476	0.245
477	0.246
477	0.246
477	0.247
478	0.247
478	0.248
479	0.249
479	0.249
480	0.25
480	0.25
481	0.251
481	0.252
482	0.253
482	0.253
482	0.254
483	0.254
483	0.255
484	0.255
484	0.255
485	0.256
485	0.257
486	0.257
486	0.258
487	0.259
487	0.26
487	0.26
488	0.261
488	0.262
489	0.264
489	0.266
490	0.267
490	0.268
491	0.27
491	0.271
492	0.272
492	0.273
492	0.274
493	0.276
493	0.277
494	0.278
494	0.279
495	0.281
495	0.282
496	0.283
496	0.285
496	0.286
497	0.288
497	0.29
498	0.292
498	0.293
499	0.295
499	0.297
500	0.299
500	0.301
501	0.302
501	0.304
501	0.305
502	0.307
502	0.308
503	0.31
503	0.311
504	0.313
504	0.314
505	0.316
505	0.318
506	0.32
506	0.322
506	0.323
507	0.325
507	0.327
508	0.329
508	0.331
509	0.333
509	0.335
510	0.337
510	0.338
511	0.34
511	0.342
511	0.343
512	0.345
512	0.346
513	0.348
513	0.349
514	0.351
514	0.353
515	0.354
515	0.356
515	0.358
516	0.359
516	0.361
517	0.363
517	0.364
518	0.366
518	0.367
519	0.369
519	0.37
520	0.371
520	0.373
520	0.374
521	0.376
521	0.377
522	0.378
522	0.379
523	0.38
523	0.381
524	0.382
524	0.383
524	0.383
525	0.384
525	0.384
526	0.385
526	0.385
527	0.386
527	0.386
528	0.386
528	0.387
529	0.387
529	0.387
529	0.388
530	0.388
530	0.388
531	0.388
531	0.388
532	0.388
532	0.387
533	0.388
533	0.387
533	0.387
534	0.386
534	0.386
535	0.386
535	0.385
536	0.385
536	0.384
537	0.383
537	0.383
538	0.382
538	0.381
538	0.381
539	0.38
539	0.379
540	0.378
540	0.377
541	0.376
541	0.375
542	0.373
542	0.372
542	0.37
543	0.369
543	0.368
544	0.366
544	0.365
545	0.364
545	0.363
546	0.361
546	0.36
547	0.358
547	0.357
547	0.356
548	0.355
548	0.354
549	0.352
549	0.351
550	0.35
550	0.348
551	0.347
551	0.345
551	0.344
552	0.343
552	0.342
553	0.341
553	0.339
554	0.338
554	0.337
555	0.335
555	0.334
556	0.333
556	0.331
556	0.33
557	0.329
557	0.328
558	0.326
558	0.325
559	0.323
559	0.322
560	0.321
560	0.319
560	0.318
561	0.317
561	0.315
562	0.314
562	0.312
563	0.311
563	0.309
564	0.308
564	0.307
564	0.305
565	0.304
565	0.303
566	0.301
566	0.3
567	0.298
567	0.296
568	0.295
568	0.293
568	0.291
569	0.29
569	0.288
570	0.287
570	0.285
571	0.284
571	0.283
572	0.281
572	0.28
573	0.279
573	0.278
573	0.276
574	0.275
574	0.274
575	0.273
575	0.273
576	0.272
576	0.271
577	0.27
577	0.27
577	0.269
578	0.269
578	0.268
579	0.268
579	0.268
580	0.266
580	0.265
581	0.264
581	0.263
581	0.262
582	0.261
582	0.261
583	0.26
583	0.259
584	0.258
584	0.256
585	0.256
585	0.256
585	0.255
586	0.255
586	0.255
587	0.254
587	0.254
588	0.253
588	0.253
589	0.252
589	0.252
590	0.251
590	0.251
590	0.251
591	0.251
591	0.25
592	0.249
592	0.248
593	0.248
593	0.247
594	0.247
594	0.246
594	0.246
595	0.246
595	0.245
596	0.245
596	0.246
597	0.246
597	0.245
598	0.244
598	0.244
598	0.243
599	0.243
599	0.242
600	0.241
600	0.24
601	0.24
601	0.239
602	0.238
602	0.237
602	0.237
603	0.237
603	0.237
604	0.237
604	0.238
605	0.238
605	0.238
606	0.237
606	0.236
606	0.236
607	0.235
607	0.235
608	0.234
608	0.233
609	0.232
609	0.232
610	0.231
610	0.231
610	0.231
611	0.232
611	0.232
612	0.232
612	0.232
613	0.232
613	0.232
614	0.231
614	0.23
614	0.229
615	0.228
615	0.228
616	0.227
616	0.226
617	0.225
617	0.224
618	0.224
618	0.223
618	0.223
619	0.223
619	0.223
620	0.224
620	0.223
621	0.223
621	0.223
622	0.222
622	0.222
622	0.221
623	0.221
623	0.221
624	0.22
624	0.22
625	0.219
625	0.219
626	0.219
626	0.218
626	0.218
627	0.218
627	0.217
628	0.216
628	0.216
629	0.214
629	0.213
630	0.212
630	0.211
630	0.21
631	0.208
631	0.207
632	0.205
632	0.203
633	0.201
633	0.199
634	0.197
634	0.196
634	0.193
635	0.191
635	0.188
636	0.185
636	0.182
637	0.179
637	0.175
638	0.172
638	0.168
638	0.165
639	0.161
639	0.157
640	0.153
640	0.149
641	0.145
641	0.142
642	0.138
642	0.134
642	0.131
643	0.127
643	0.122
644	0.118
644	0.113
645	0.109
645	0.104
646	0.099
646	0.094
646	0.088
647	0.083
647	0.077
648	0.072
648	0.066
649	0.059
649	0.053
650	0.046
650	0.04
650	0.034
651	0.025
651	0.015
652	0.003
652	-0.009
653	-0.02
653	-0.03
653	-0.027
654	-0.011
654	-0.002
655	-0.004
655	-0.009
656	-0.013
656	-0.018
657	-0.022
657	-0.025
657	-0.03
658	-0.035
658	-0.059
659	-0.13
659	-0.216
660	-0.256
660	-0.28
661	-0.306
661	-0.336
661	-0.369
662	-0.401
662	-0.435
663	-0.476
663	-0.519
664	-0.564
664	-0.616
665	-0.669
665	-0.729
665	-0.786
666	-0.845
666	-0.91
667	-0.977
667	-1.045
668	-1.12
668	-1.195
669	-1.271
669	-1.347
669	-1.428
670	-1.499
670	-1.548
671	-1.753
671	-2.006
672	-2.224
672	-2.41
672	-2.536
673	-2.626
673	-2.705
674	-2.741
674	-2.758
675	-2.783
675	-2.921
676	-3.106
676	-3.056
676	-2.829
677	-2.621
677	-2.451
678	-2.261
678	-1.919
679	-1.656
679	-1.526
680	-1.432
680	-1.348
680	-1.278
681	-1.232
681	-1.171
682	-1.129
682	-1.09
683	-1.053
683	-1.033
684	-1.009
684	-0.987
684	-0.962
685	-0.934
685	-0.909
686	-0.883
686	-0.865
687	-0.835
687	-0.82
687	-0.797
688	-0.769
688	-0.746
689	-0.725
689	-0.709
690	-0.69
690	-0.675
691	-0.667
691	-0.669
691	-0.684
692	-0.673
692	-0.663
693	-0.655
693	-0.66
694	-0.651
694	-0.644
695	-0.647
695	-0.643
695	-0.626
696	-0.622
696	-0.598
697	-0.597
697	-0.611
698	-0.613
698	-0.603
698	-0.615
699	-0.618
699	-0.615
700	-0.606
700	-0.618
701	-0.614
701	-0.621
702	-0.621
702	-0.61
702	-0.601
703	-0.596
703	-0.585
704	-0.581
704	-0.58
705	-0.59
705	-0.582
705	-0.572
706	-0.568
706	-0.562
707	-0.565
707	-0.562
708	-0.561
708	-0.552
709	-0.555
709	-0.557
709	-0.55
710	-0.558
710	-0.567
711	-0.561
711	-0.563
712	-0.563
712	-0.574
713	-0.567
713	-0.573
713	-0.564
714	-0.561
714	-0.56
715	-0.55
715	-0.537
716	-0.544
716	-0.543
716	-0.535
717	-0.537
717	-0.542
718	-0.535
718	-0.536
719	-0.54
719	-0.541
720	-0.534
720	-0.543
720	-0.539
721	-0.53
721	-0.531
722	-0.518
722	-0.51
723	-0.506
723	-0.506
723	-0.494
724	-0.496
724	-0.503
725	-0.498
725	-0.502
726	-0.513
726	-0.516
727	-0.519
727	-0.533
727	-0.539
728	-0.541
728	-0.547
729	-0.545
729	-0.546
730	-0.556
730	-0.55
730	-0.542
731	-0.525
731	-0.536
732	-0.541
732	-0.544
733	-0.54
733	-0.548
734	-0.544
734	-0.544
734	-0.529
735	-0.527
735	-0.526
736	-0.535
736	-0.524
737	-0.514
737	-0.514
737	-0.527
738	-0.518
738	-0.516
739	-0.515
739	-0.529
740	-0.527
740	-0.525
741	-0.523
741	-0.521
741	-0.524
742	-0.523
742	-0.521
743	-0.53
743	-0.536
744	-0.532
744	-0.522
744	-0.525
745	-0.532
745	-0.523
746	-0.523
746	-0.519
747	-0.519
747	-0.508
748	-0.495
748	-0.499
748	-0.504
749	-0.502
749	-0.502
750	-0.491
750	-0.492
751	-0.496
751	-0.507
751	-0.511
752	-0.516
752	-0.527
753	-0.521
753	-0.519
754	-0.521
754	-0.514
754	-0.524
755	-0.541
755	-0.55
756	-0.538
756	-0.531
757	-0.527
757	-0.52
758	-0.522
758	-0.515
758	-0.52
759	-0.528
759	-0.516
760	-0.508
760	-0.504
761	-0.513
761	-0.512
761	-0.513
762	-0.522
762	-0.521
763	-0.529
763	-0.525
764	-0.526
764	-0.532
764	-0.538
765	-0.526
765	-0.513
766	-0.523
766	-0.528
767	-0.544
767	-0.54
768	-0.532
768	-0.541
768	-0.543
769	-0.56
769	-0.56
770	-0.567
770	-0.58
771	-0.575
771	-0.579
771	-0.574
772	-0.58
772	-0.576
773	-0.577
773	-0.574
774	-0.57
774	-0.571
775	-0.575
775	-0.567
775	-0.576
776	-0.573
776	-0.567
777	-0.573
777	-0.596
778	-0.595
778	-0.613
778	-0.6
779	-0.618
779	-0.625
780	-0.638
780	-0.637
781	-0.65
781	-0.646
781	-0.661
782	-0.662
782	-0.664
783	-0.652
783	-0.653
784	-0.634
784	-0.627
784	-0.635
785	-0.644
785	-0.628
786	-0.633
786	-0.611
787	-0.595
787	-0.591
788	-0.592
788	-0.6
788	-0.61
789	-0.609
789	-0.594
790	-0.573
790	-0.574
791	-0.571
791	-0.59
791	-0.598
792	-0.596
792	-0.573
793	-0.564
793	-0.544
794	-0.547
794	-0.535
794	-0.544
795	-0.543
795	-0.538
796	-0.523
796	-0.527
797	-0.519
797	-0.532
797	-0.54
798	-0.551
798	-0.546
799	-0.559
799	-0.543
800	-0.547
800	-0.537
801	-0.54
801	-0.529
801	-0.542
802	-0.551
802	-0.55
803	-0.553
803	-0.564
804	-0.559
804	-0.572
804	-0.561
805	-0.571
805	-0.562
806	-0.564
806	-0.548
807	-0.543
807	-0.527
807	-0.514
808	-0.504
808	-0.5
809	-0.485
809	-0.494
810	-0.488
810	-0.481
810	-0.478
811	-0.485
811	-0.476
812	-0.474
812	-0.478
813	-0.478
813	-0.475
813	-0.482
814	-0.481
814	-0.485
815	-0.488
815	-0.492
816	-0.484
816	-0.489
817	-0.5
817	-0.516
817	-0.532
818	-0.538
818	-0.54
819	-0.531
819	-0.533
820	-0.542
820	-0.535
820	-0.545
821	-0.545
821	-0.531
822	-0.503
822	-0.483
823	-0.479
823	-0.48
823	-0.48
824	-0.475
824	-0.476
825	-0.47
825	-0.453
826	-0.448
826	-0.456
826	-0.466
827	-0.46
827	-0.458
828	-0.439
828	-0.436
829	-0.425
829	-0.416
829	-0.409
830	-0.419
830	-0.418
831	-0.411
831	-0.401
832	-0.4
832	-0.391
832	-0.401
833	-0.399
833	-0.401
834	-0.401
834	-0.409
835	-0.396
835	-0.391
835	-0.389
836	-0.385
836	-0.38
837	-0.38
837	-0.369
838	-0.363
838	-0.353
839	-0.339
839	-0.329
839	-0.321
840	-0.311
840	-0.309
841	-0.3
841	-0.294
842	-0.291
842	-0.284
842	-0.278
843	-0.272
843	-0.27
844	-0.262
844	-0.258
845	-0.251
845	-0.24
845	-0.229
846	-0.221
846	-0.208
847	-0.198
847	-0.189
848	-0.182
848	-0.174
848	-0.162
849	-0.153
849	-0.145
850	-0.136
850	-0.132
851	-0.126
851	-0.118
851	-0.111
852	-0.1
852	-0.088
853	-0.081
853	-0.077
854	-0.069
854	-0.06
854	-0.052
855	-0.043
855	-0.038
856	-0.031
856	-0.025
857	-0.02
857	-0.015
857	-0.007
858	0.002
858	0.006
859	0.012
859	0.018
860	0.024
860	0.032
860	0.037
861	0.041
861	0.046
862	0.051
862	0.054
863	0.057
863	0.063
863	0.066
864	0.068
864	0.071
865	0.075
865	0.077
866	0.081
866	0.083
866	0.085
867	0.087
867	0.089
868	0.091
868	0.094
869	0.096
869	0.097
869	0.099
870	0.1
870	0.101
871	0.102
871	0.103
872	0.103
872	0.104
872	0.104
873	0.104
873	0.104
874	0.104
874	0.103
875	0.103
875	0.102
875	0.102
876	0.101
876	0.1
877	0.099
877	0.099
878	0.098
878	0.097
878	0.096
879	0.095
879	0.094
880	0.094
880	0.093
881	0.093
881	0.093
881	0.093
882	0.092
882	0.091
883	0.09
883	0.089
884	0.088
884	0.087
884	0.086
885	0.085
885	0.085
886	0.085
886	0.084
887	0.084
887	0.084
887	0.084
888	0.085
888	0.086
889	0.087
889	0.088
890	0.089
890	0.09
890	0.09
891	0.09
891	0.091
892	0.091
892	0.091
893	0.091
893	0.091
893	0.091
894	0.09
894	0.089
895	0.088
895	0.088
895	0.087
896	0.086
896	0.085
897	0.084
897	0.083
898	0.082
898	0.081
898	0.081
899	0.081
899	0.081
900	0.082
900	0.082
901	0.082
901	0.083
901	0.083
902	0.083
902	0.082
903	0.082
903	0.082
904	0.082
904	0.082
904	0.082
905	0.082
905	0.082
906	0.082
906	0.082
907	0.081
907	0.081
907	0.08
908	0.08
908	0.079
909	0.078
909	0.077
910	0.076
910	0.075
910	0.074
911	0.074
911	0.074
912	0.074
912	0.075
913	0.075
913	0.076
913	0.077
914	0.078
914	0.078
915	0.079
915	0.08
916	0.081
916	0.081
916	0.082
917	0.082
917	0.083
918	0.083
918	0.083
918	0.083
919	0.083
919	0.083
920	0.084
920	0.084
921	0.085
921	0.085
921	0.085
922	0.086
922	0.086
923	0.086
923	0.086
924	0.087
924	0.087
924	0.087
925	0.086
925	0.085
926	0.085
926	0.084
927	0.083
927	0.083
927	0.082
928	0.081
928	0.08
929	0.08
929	0.079
930	0.078
930	0.078
930	0.078
931	0.078
931	0.078
932	0.078
932	0.077
933	0.077
933	0.077
933	0.076
934	0.075
934	0.075
935	0.074
935	0.074
935	0.073
936	0.072
936	0.072
937	0.071
937	0.07
938	0.07
938	0.07
938	0.07
939	0.07
939	0.07
940	0.07
940	0.07
941	0.07
941	0.07
941	0.07
942	0.07
942	0.069
943	0.069
943	0.068
944	0.067
944	0.067
944	0.066
945	0.066
945	0.065
946	0.064
946	0.064
946	0.063
947	0.064
947	0.064
948	0.064
948	0.065
949	0.065
949	0.066
949	0.067
950	0.067
950	0.068
951	0.069
951	0.07
952	0.07
952	0.071
952	0.072
953	0.072
953	0.073
954	0.073
954	0.074
955	0.075
955	0.076
955	0.076
956	0.076
956	0.077
957	0.077
957	0.077
957	0.077
958	0.077
958	0.078
959	0.078
959	0.078
960	0.078
960	0.078
960	0.078
961	0.078
961	0.078
962	0.078
962	0.077
963	0.077
963	0.076
963	0.076
964	0.075
964	0.075
965	0.075
965	0.074
966	0.074
966	0.074
966	0.073
967	0.073
967	0.072
968	0.072
968	0.072
968	0.071
969	0.071
969	0.071
970	0.07
970	0.071
971	0.071
971	0.071
971	0.071
972	0.07
972	0.07
973	0.07
973	0.069
974	0.068
974	0.068
974	0.067
975	0.067
975	0.066
976	0.065
976	0.064
976	0.064
977	0.064
977	0.063
978	0.063
978	0.063
979	0.063
979	0.063
979	0.063
980	0.063
980	0.064
981	0.064
981	0.064
982	0.064
982	0.064
982	0.064
983	0.064
983	0.064
984	0.064
984	0.063
984	0.063
985	0.063
985	0.063
986	0.063
986	0.063
987	0.064
987	0.064
987	0.065
988	0.065
988	0.065
989	0.065
989	0.065
990	0.065
990	0.065
990	0.065
991	0.064
991	0.064
992	0.063
992	0.063
992	0.063
993	0.062
993	0.062
994	0.062
994	0.062
995	0.062
995	0.061
995	0.061
996	0.061
996	0.061
997	0.061
997	0.061
997	0.061
998	0.061
998	0.061
999	0.061
999	0.061
1000	0.061
1000	0.061
1000	0.061
1001	0.061
1001	0.061
1002	0.061
1002	0.061
1003	0.06
1003	0.06
1003	0.059
1004	0.059
1004	0.058
1005	0.057
1005	0.056
1005	0.055
1006	0.054
1006	0.053
1007	0.051
1007	0.051
1008	0.05
1008	0.05
1008	0.049
1009	0.049
1009	0.049
1010	0.049
1010	0.049
1010	0.049
1011	0.049
1011	0.048
1012	0.047
1012	0.047
1013	0.046
1013	0.045
1013	0.043
1014	0.042
1014	0.042
1015	0.041
1015	0.04
1016	0.04
1016	0.039
1016	0.039
1017	0.039
1017	0.039
1018	0.038
1018	0.038
1018	0.038
1019	0.037
1019	0.037
1020	0.036
1020	0.035
1021	0.034
1021	0.033
1021	0.032
1022	0.03
1022	0.029
1023	0.029
1023	0.028
1023	0.027
1024	0.027
1024	0.027
1025	0.027
1025	0.027
1026	0.028
1026	0.028
1026	0.029
1027	0.029
1027	0.03
1028	0.03
1028	0.03
1028	0.03
1029	0.03
1029	0.03
1030	0.03
1030	0.029
1031	0.029
1031	0.029
1031	0.03
1032	0.03
1032	0.03
1033	0.03
1033	0.031
1033	0.032
1034	0.032
1034	0.033
1035	0.033
1035	0.033
1036	0.034
1036	0.033
1036	0.033
1037	0.033
1037	0.033
1038	0.032
1038	0.032
1039	0.031
1039	0.031
1039	0.031
1040	0.031
1040	0.032
1041	0.032
1041	0.032
1041	0.033
1042	0.033
1042	0.033
1043	0.033
1043	0.033
1044	0.033
1044	0.033
1044	0.033
1045	0.033
1045	0.032
1046	0.032
1046	0.032
1046	0.032
1047	0.033
1047	0.033
1048	0.034
1048	0.034
1049	0.034
1049	0.035
1049	0.036
1050	0.036
1050	0.036
1051	0.036
1051	0.037
1051	0.037
1052	0.037
1052	0.037
1053	0.037
1053	0.037
1053	0.037
1054	0.037
1054	0.036
1055	0.036
1055	0.035
1056	0.035
1056	0.033
1056	0.032
1057	0.031
1057	0.031
1058	0.03
1058	0.029
1058	0.029
1059	0.028
1059	0.027
1060	0.027
1060	0.027
1061	0.027
1061	0.027
1061	0.027
1062	0.027
1062	0.027
1063	0.027
1063	0.027
1063	0.027
1064	0.027
1064	0.027
1065	0.027
1065	0.026
1066	0.025
1066	0.025
1066	0.025
1067	0.025
1067	0.024
1068	0.024
1068	0.023
1068	0.023
1069	0.023
1069	0.022
1070	0.022
1070	0.022
1071	0.022
1071	0.022
1071	0.022
1072	0.022
1072	0.022
1073	0.021
1073	0.022
1073	0.021
1074	0.021
1074	0.022
1075	0.021
1075	0.021
1076	0.02
1076	0.02
1076	0.019
1077	0.019
1077	0.018
1078	0.018
1078	0.017
1078	0.017
1079	0.016
1079	0.016
1080	0.015
1080	0.014
1080	0.013
1081	0.012
1081	0.011
1082	0.011
1082	0.009
1083	0.009
1083	0.008
1083	0.007
1084	0.006
1084	0.007
1085	0.006
1085	0.006
1085	0.006
1086	0.006
1086	0.005
1087	0.006
1087	0.006
1088	0.005
1088	0.006
1088	0.006
1089	0.005
1089	0.005
1090	0.004
1090	0.004
1090	0.004
1091	0.003
1091	0.003
1092	0.002
1092	0.003
1092	0.001
1093	0.001
1093	0.001
1094	0.001
1094	0
1095	0.001
1095	0.001
1095	0.001
1096	-0
1096	-0.001
1097	-0.001
1097	-0.001
1097	-0
1098	-0.002
1098	-0.002
1099	-0.002
1099	-0.002
1100	-0.003
1100	-0.004
1100	-0.005
1101	-0.006
1101	-0.008
1102	-0.009
1102	-0.01
1102	-0.01
1103	-0.011
1103	-0.012
1104	-0.014
1104	-0.015
1104	-0.016
1105	-0.016
1105	-0.019
1106	-0.022
1106	-0.023
1107	-0.026
1107	-0.029
1107	-0.033
1108	-0.034
1108	-0.037
1109	-0.04
1109	-0.043
1109	-0.045
1110	-0.045
1110	-0.045
1111	-0.05
1111	-0.054
