Data from 17C_3.4A_30min_2sec_int_Absorbance__452__00452.txt Node

Date: Mon Jun 19 16:23:37 CEST 2023
User: Marek
Spectrometer: MAYP115816
Trigger mode: 0
Integration Time (sec): 2.500000E-1
Scans to average: 10
Electric dark correction enabled: true
Nonlinearity correction enabled: true
Boxcar width: 5
XAxis mode: Wavelengths
Number of Pixels in Spectrum: 2068
>>>>>Begin Spectral Data<<<<<
199	-0.516
199	-0.531
200	-0.444
200	-0.399
201	-0.36
201	-0.354
202	-0.338
202	-0.324
203	-0.319
203	-0.315
204	-0.306
204	-0.296
205	-0.276
205	-0.271
205	-0.266
206	-0.271
206	-0.269
207	-0.261
207	-0.265
208	-0.264
208	-0.264
209	-0.258
209	-0.256
210	-0.26
210	-0.265
211	-0.266
211	-0.269
212	-0.27
212	-0.278
213	-0.277
213	-0.278
213	-0.285
214	-0.281
214	-0.281
215	-0.278
215	-0.284
216	-0.287
216	-0.293
217	-0.29
217	-0.293
218	-0.294
218	-0.295
219	-0.296
219	-0.302
220	-0.307
220	-0.313
221	-0.312
221	-0.315
221	-0.307
222	-0.304
222	-0.304
223	-0.308
223	-0.311
224	-0.314
224	-0.316
225	-0.311
225	-0.31
226	-0.313
226	-0.314
227	-0.32
227	-0.329
228	-0.326
228	-0.326
229	-0.324
229	-0.319
229	-0.312
230	-0.317
230	-0.321
231	-0.316
231	-0.308
232	-0.301
232	-0.298
233	-0.298
233	-0.296
234	-0.299
234	-0.295
235	-0.302
235	-0.304
236	-0.3
236	-0.305
236	-0.311
237	-0.319
237	-0.321
238	-0.329
238	-0.33
239	-0.326
239	-0.335
240	-0.334
240	-0.334
241	-0.338
241	-0.334
242	-0.337
242	-0.331
243	-0.327
243	-0.326
243	-0.332
244	-0.333
244	-0.33
245	-0.341
245	-0.339
246	-0.345
246	-0.353
247	-0.355
247	-0.362
248	-0.369
248	-0.365
249	-0.369
249	-0.373
250	-0.375
250	-0.371
250	-0.371
251	-0.366
251	-0.363
252	-0.364
252	-0.353
253	-0.358
253	-0.368
254	-0.364
254	-0.367
255	-0.373
255	-0.365
256	-0.363
256	-0.376
257	-0.373
257	-0.369
258	-0.388
258	-0.385
258	-0.38
259	-0.378
259	-0.386
260	-0.386
260	-0.391
261	-0.403
261	-0.395
262	-0.389
262	-0.392
263	-0.378
263	-0.371
264	-0.372
264	-0.379
265	-0.372
265	-0.378
265	-0.38
266	-0.378
266	-0.377
267	-0.392
267	-0.4
268	-0.414
268	-0.424
269	-0.422
269	-0.416
270	-0.424
270	-0.425
271	-0.427
271	-0.431
272	-0.431
272	-0.426
272	-0.419
273	-0.418
273	-0.429
274	-0.433
274	-0.439
275	-0.434
275	-0.428
276	-0.434
276	-0.426
277	-0.433
277	-0.449
278	-0.46
278	-0.454
278	-0.441
279	-0.441
279	-0.447
280	-0.446
280	-0.448
281	-0.44
281	-0.447
282	-0.439
282	-0.44
283	-0.428
283	-0.428
284	-0.425
284	-0.418
285	-0.416
285	-0.415
285	-0.412
286	-0.417
286	-0.41
287	-0.406
287	-0.393
288	-0.389
288	-0.399
289	-0.413
289	-0.42
290	-0.409
290	-0.407
291	-0.403
291	-0.394
292	-0.396
292	-0.404
292	-0.404
293	-0.407
293	-0.395
294	-0.384
294	-0.379
295	-0.376
295	-0.376
296	-0.373
296	-0.375
297	-0.369
297	-0.354
298	-0.349
298	-0.358
298	-0.351
299	-0.346
299	-0.345
300	-0.342
300	-0.336
301	-0.332
301	-0.331
302	-0.341
302	-0.349
303	-0.336
303	-0.322
304	-0.321
304	-0.32
305	-0.321
305	-0.318
305	-0.316
306	-0.305
306	-0.303
307	-0.29
307	-0.291
308	-0.304
308	-0.303
309	-0.305
309	-0.295
310	-0.285
310	-0.284
311	-0.276
311	-0.285
311	-0.282
312	-0.278
312	-0.277
313	-0.263
313	-0.264
314	-0.259
314	-0.263
315	-0.264
315	-0.264
316	-0.263
316	-0.254
317	-0.247
317	-0.243
318	-0.233
318	-0.231
318	-0.227
319	-0.219
319	-0.215
320	-0.211
320	-0.209
321	-0.213
321	-0.212
322	-0.208
322	-0.204
323	-0.202
323	-0.199
324	-0.192
324	-0.187
324	-0.18
325	-0.171
325	-0.156
326	-0.142
326	-0.128
327	-0.114
327	-0.098
328	-0.079
328	-0.063
329	-0.044
329	-0.026
330	-0.005
330	0.023
330	0.043
331	0.063
331	0.085
332	0.104
332	0.12
333	0.137
333	0.154
334	0.169
334	0.179
335	0.191
335	0.2
336	0.209
336	0.218
336	0.224
337	0.231
337	0.236
338	0.242
338	0.244
339	0.249
339	0.253
340	0.257
340	0.259
341	0.261
341	0.263
342	0.265
342	0.267
342	0.269
343	0.27
343	0.272
344	0.272
344	0.273
345	0.273
345	0.274
346	0.274
346	0.275
347	0.275
347	0.275
348	0.275
348	0.275
348	0.275
349	0.275
349	0.275
350	0.275
350	0.275
351	0.275
351	0.275
352	0.275
352	0.275
353	0.275
353	0.274
354	0.274
354	0.274
354	0.274
355	0.273
355	0.273
356	0.273
356	0.273
357	0.271
357	0.271
358	0.271
358	0.271
359	0.27
359	0.27
360	0.27
360	0.27
360	0.27
361	0.27
361	0.269
362	0.27
362	0.27
363	0.27
363	0.269
364	0.269
364	0.269
365	0.269
365	0.269
366	0.269
366	0.269
366	0.268
367	0.269
367	0.268
368	0.268
368	0.268
369	0.268
369	0.267
370	0.267
370	0.267
371	0.266
371	0.266
372	0.266
372	0.266
372	0.266
373	0.265
373	0.265
374	0.265
374	0.265
375	0.264
375	0.264
376	0.264
376	0.264
377	0.264
377	0.264
378	0.264
378	0.264
378	0.264
379	0.264
379	0.263
380	0.263
380	0.263
381	0.262
381	0.262
382	0.262
382	0.261
383	0.261
383	0.261
383	0.26
384	0.26
384	0.26
385	0.26
385	0.26
386	0.26
386	0.26
387	0.26
387	0.26
388	0.26
388	0.259
389	0.259
389	0.259
389	0.259
390	0.259
390	0.259
391	0.258
391	0.258
392	0.258
392	0.258
393	0.257
393	0.257
394	0.257
394	0.257
394	0.256
395	0.256
395	0.256
396	0.256
396	0.255
397	0.255
397	0.255
398	0.255
398	0.255
399	0.255
399	0.254
400	0.254
400	0.254
400	0.254
401	0.253
401	0.253
402	0.253
402	0.253
403	0.252
403	0.252
404	0.252
404	0.252
405	0.252
405	0.251
405	0.251
406	0.251
406	0.251
407	0.25
407	0.25
408	0.25
408	0.25
409	0.25
409	0.25
410	0.25
410	0.25
411	0.25
411	0.25
411	0.25
412	0.25
412	0.25
413	0.25
413	0.25
414	0.249
414	0.249
415	0.249
415	0.249
416	0.248
416	0.248
416	0.248
417	0.248
417	0.248
418	0.248
418	0.247
419	0.247
419	0.247
420	0.247
420	0.247
421	0.247
421	0.247
421	0.247
422	0.247
422	0.247
423	0.247
423	0.247
424	0.247
424	0.246
425	0.247
425	0.246
426	0.246
426	0.246
427	0.246
427	0.246
427	0.245
428	0.245
428	0.245
429	0.245
429	0.245
430	0.245
430	0.245
431	0.245
431	0.245
432	0.245
432	0.244
432	0.244
433	0.244
433	0.243
434	0.243
434	0.243
435	0.243
435	0.243
436	0.243
436	0.243
437	0.243
437	0.243
437	0.243
438	0.243
438	0.243
439	0.243
439	0.243
440	0.242
440	0.242
441	0.242
441	0.242
442	0.241
442	0.241
442	0.241
443	0.241
443	0.241
444	0.241
444	0.241
445	0.241
445	0.241
446	0.241
446	0.241
447	0.242
447	0.242
447	0.242
448	0.242
448	0.242
449	0.242
449	0.242
450	0.242
450	0.242
451	0.242
451	0.242
452	0.243
452	0.243
452	0.243
453	0.243
453	0.242
454	0.242
454	0.242
455	0.242
455	0.242
456	0.242
456	0.242
457	0.242
457	0.242
458	0.242
458	0.242
458	0.242
459	0.242
459	0.242
460	0.242
460	0.242
461	0.243
461	0.243
462	0.243
462	0.243
463	0.244
463	0.244
463	0.244
464	0.244
464	0.244
465	0.244
465	0.245
466	0.245
466	0.245
467	0.245
467	0.246
467	0.246
468	0.246
468	0.247
469	0.247
469	0.248
470	0.248
470	0.249
471	0.249
471	0.249
472	0.25
472	0.25
472	0.25
473	0.25
473	0.251
474	0.251
474	0.251
475	0.252
475	0.252
476	0.253
476	0.253
477	0.254
477	0.254
477	0.255
478	0.255
478	0.256
479	0.256
479	0.257
480	0.258
480	0.258
481	0.259
481	0.26
482	0.26
482	0.261
482	0.262
483	0.263
483	0.263
484	0.264
484	0.264
485	0.264
485	0.265
486	0.265
486	0.266
487	0.267
487	0.268
487	0.269
488	0.27
488	0.271
489	0.272
489	0.274
490	0.276
490	0.277
491	0.278
491	0.28
492	0.281
492	0.282
492	0.283
493	0.285
493	0.286
494	0.287
494	0.288
495	0.29
495	0.291
496	0.293
496	0.294
496	0.296
497	0.298
497	0.3
498	0.301
498	0.303
499	0.305
499	0.307
500	0.309
500	0.311
501	0.313
501	0.314
501	0.316
502	0.317
502	0.318
503	0.32
503	0.322
504	0.323
504	0.325
505	0.327
505	0.329
506	0.331
506	0.333
506	0.335
507	0.337
507	0.339
508	0.341
508	0.343
509	0.345
509	0.347
510	0.349
510	0.351
511	0.353
511	0.355
511	0.356
512	0.358
512	0.36
513	0.361
513	0.363
514	0.364
514	0.366
515	0.368
515	0.369
515	0.371
516	0.373
516	0.375
517	0.376
517	0.378
518	0.379
518	0.381
519	0.382
519	0.384
520	0.386
520	0.387
520	0.389
521	0.39
521	0.391
522	0.393
522	0.394
523	0.395
523	0.396
524	0.397
524	0.397
524	0.397
525	0.398
525	0.398
526	0.399
526	0.399
527	0.4
527	0.4
528	0.401
528	0.401
529	0.402
529	0.402
529	0.402
530	0.403
530	0.403
531	0.403
531	0.402
532	0.403
532	0.403
533	0.402
533	0.402
533	0.402
534	0.401
534	0.401
535	0.4
535	0.4
536	0.399
536	0.398
537	0.398
537	0.397
538	0.396
538	0.395
538	0.394
539	0.394
539	0.393
540	0.391
540	0.39
541	0.389
541	0.388
542	0.386
542	0.385
542	0.383
543	0.382
543	0.38
544	0.379
544	0.378
545	0.377
545	0.375
546	0.374
546	0.373
547	0.371
547	0.37
547	0.369
548	0.368
548	0.367
549	0.365
549	0.364
550	0.362
550	0.361
551	0.359
551	0.358
551	0.357
552	0.355
552	0.354
553	0.353
553	0.351
554	0.35
554	0.348
555	0.347
555	0.345
556	0.344
556	0.342
556	0.341
557	0.34
557	0.338
558	0.337
558	0.335
559	0.334
559	0.332
560	0.331
560	0.329
560	0.328
561	0.327
561	0.325
562	0.324
562	0.322
563	0.32
563	0.319
564	0.318
564	0.317
564	0.315
565	0.314
565	0.313
566	0.311
566	0.309
567	0.307
567	0.305
568	0.304
568	0.302
568	0.3
569	0.299
569	0.297
570	0.295
570	0.293
571	0.292
571	0.291
572	0.29
572	0.288
573	0.287
573	0.286
573	0.285
574	0.284
574	0.283
575	0.282
575	0.281
576	0.28
576	0.278
577	0.278
577	0.277
577	0.277
578	0.276
578	0.276
579	0.275
579	0.275
580	0.273
580	0.272
581	0.271
581	0.27
581	0.269
582	0.268
582	0.268
583	0.267
583	0.266
584	0.264
584	0.263
585	0.263
585	0.263
585	0.262
586	0.262
586	0.261
587	0.261
587	0.26
588	0.259
588	0.259
589	0.259
589	0.259
590	0.258
590	0.258
590	0.258
591	0.257
591	0.256
592	0.255
592	0.254
593	0.254
593	0.253
594	0.252
594	0.252
594	0.251
595	0.251
595	0.25
596	0.25
596	0.251
597	0.251
597	0.25
598	0.249
598	0.249
598	0.248
599	0.248
599	0.247
600	0.246
600	0.245
601	0.244
601	0.243
602	0.242
602	0.242
602	0.241
603	0.241
603	0.241
604	0.241
604	0.241
605	0.241
605	0.241
606	0.241
606	0.24
606	0.239
607	0.239
607	0.238
608	0.238
608	0.237
609	0.236
609	0.236
610	0.236
610	0.235
610	0.236
611	0.236
611	0.236
612	0.236
612	0.236
613	0.236
613	0.235
614	0.234
614	0.233
614	0.232
615	0.231
615	0.23
616	0.23
616	0.229
617	0.228
617	0.227
618	0.226
618	0.226
618	0.226
619	0.226
619	0.226
620	0.226
620	0.225
621	0.225
621	0.225
622	0.224
622	0.223
622	0.223
623	0.222
623	0.222
624	0.221
624	0.221
625	0.22
625	0.22
626	0.22
626	0.219
626	0.219
627	0.219
627	0.218
628	0.217
628	0.216
629	0.215
629	0.213
630	0.212
630	0.211
630	0.21
631	0.208
631	0.206
632	0.204
632	0.202
633	0.201
633	0.199
634	0.197
634	0.195
634	0.192
635	0.19
635	0.187
636	0.184
636	0.181
637	0.178
637	0.174
638	0.171
638	0.167
638	0.164
639	0.159
639	0.155
640	0.151
640	0.148
641	0.144
641	0.14
642	0.136
642	0.132
642	0.129
643	0.125
643	0.12
644	0.116
644	0.111
645	0.106
645	0.101
646	0.096
646	0.091
646	0.085
647	0.08
647	0.074
648	0.069
648	0.063
649	0.056
649	0.05
650	0.044
650	0.038
650	0.031
651	0.023
651	0.013
652	0.002
652	-0.011
653	-0.022
653	-0.032
653	-0.03
654	-0.013
654	-0.005
655	-0.007
655	-0.011
656	-0.016
656	-0.021
657	-0.024
657	-0.027
657	-0.032
658	-0.037
658	-0.06
659	-0.131
659	-0.216
660	-0.256
660	-0.279
661	-0.305
661	-0.333
661	-0.365
662	-0.397
662	-0.433
663	-0.473
663	-0.517
664	-0.562
664	-0.616
665	-0.669
665	-0.731
665	-0.79
666	-0.85
666	-0.914
667	-0.982
667	-1.05
668	-1.126
668	-1.201
669	-1.277
669	-1.355
669	-1.438
670	-1.519
670	-1.629
671	-1.894
671	-2.091
672	-2.285
672	-2.456
672	-2.574
673	-2.658
673	-2.732
674	-2.765
674	-2.782
675	-2.805
675	-2.938
676	-3.104
676	-3.053
676	-2.825
677	-2.616
677	-2.445
678	-2.251
678	-1.896
679	-1.645
679	-1.517
680	-1.424
680	-1.341
680	-1.272
681	-1.225
681	-1.165
682	-1.124
682	-1.086
683	-1.048
683	-1.026
684	-1.003
684	-0.98
684	-0.954
685	-0.926
685	-0.901
686	-0.874
686	-0.855
687	-0.825
687	-0.807
687	-0.784
688	-0.758
688	-0.733
689	-0.708
689	-0.693
690	-0.672
690	-0.657
691	-0.648
691	-0.65
691	-0.663
692	-0.655
692	-0.644
693	-0.636
693	-0.641
694	-0.635
694	-0.625
695	-0.629
695	-0.626
695	-0.61
696	-0.604
696	-0.582
697	-0.58
697	-0.592
698	-0.592
698	-0.58
698	-0.591
699	-0.593
699	-0.588
700	-0.58
700	-0.591
701	-0.589
701	-0.594
702	-0.593
702	-0.581
702	-0.573
703	-0.567
703	-0.558
704	-0.557
704	-0.557
705	-0.567
705	-0.561
705	-0.552
706	-0.551
706	-0.546
707	-0.552
707	-0.547
708	-0.543
708	-0.538
709	-0.538
709	-0.536
709	-0.524
710	-0.531
710	-0.54
711	-0.533
711	-0.534
712	-0.53
712	-0.541
713	-0.542
713	-0.548
713	-0.54
714	-0.538
714	-0.544
715	-0.534
715	-0.521
716	-0.525
716	-0.525
716	-0.518
717	-0.521
717	-0.523
718	-0.511
718	-0.512
719	-0.517
719	-0.517
720	-0.512
720	-0.517
720	-0.513
721	-0.503
721	-0.506
722	-0.493
722	-0.482
723	-0.479
723	-0.48
723	-0.465
724	-0.468
724	-0.472
725	-0.475
725	-0.481
726	-0.494
726	-0.499
727	-0.505
727	-0.519
727	-0.529
728	-0.532
728	-0.539
729	-0.535
729	-0.538
730	-0.543
730	-0.536
730	-0.524
731	-0.505
731	-0.513
732	-0.516
732	-0.516
733	-0.512
733	-0.517
734	-0.512
734	-0.511
734	-0.496
735	-0.494
735	-0.493
736	-0.505
736	-0.495
737	-0.485
737	-0.484
737	-0.493
738	-0.484
738	-0.488
739	-0.486
739	-0.5
740	-0.498
740	-0.495
741	-0.491
741	-0.488
741	-0.496
742	-0.496
742	-0.497
743	-0.506
743	-0.507
744	-0.505
744	-0.496
744	-0.499
745	-0.51
745	-0.504
746	-0.504
746	-0.498
747	-0.497
747	-0.483
748	-0.472
748	-0.477
748	-0.479
749	-0.477
749	-0.478
750	-0.465
750	-0.465
751	-0.466
751	-0.475
751	-0.477
752	-0.485
752	-0.491
753	-0.489
753	-0.485
754	-0.492
754	-0.486
754	-0.499
755	-0.513
755	-0.523
756	-0.513
756	-0.509
757	-0.507
757	-0.503
758	-0.503
758	-0.499
758	-0.501
759	-0.509
759	-0.497
760	-0.49
760	-0.488
761	-0.496
761	-0.494
761	-0.493
762	-0.501
762	-0.499
763	-0.508
763	-0.505
764	-0.503
764	-0.51
764	-0.518
765	-0.509
765	-0.497
766	-0.506
766	-0.512
767	-0.529
767	-0.523
768	-0.515
768	-0.523
768	-0.528
769	-0.545
769	-0.543
770	-0.544
770	-0.556
771	-0.552
771	-0.552
771	-0.551
772	-0.555
772	-0.554
773	-0.554
773	-0.55
774	-0.545
774	-0.548
775	-0.553
775	-0.546
775	-0.553
776	-0.555
776	-0.543
777	-0.555
777	-0.573
778	-0.57
778	-0.589
778	-0.579
779	-0.597
779	-0.604
780	-0.616
780	-0.618
781	-0.628
781	-0.626
781	-0.638
782	-0.638
782	-0.643
783	-0.629
783	-0.627
784	-0.611
784	-0.604
784	-0.613
785	-0.622
785	-0.607
786	-0.614
786	-0.591
787	-0.578
787	-0.575
788	-0.575
788	-0.585
788	-0.594
789	-0.591
789	-0.573
790	-0.548
790	-0.549
791	-0.547
791	-0.561
791	-0.564
792	-0.56
792	-0.539
793	-0.527
793	-0.506
794	-0.51
794	-0.51
794	-0.521
795	-0.518
795	-0.513
796	-0.502
796	-0.51
797	-0.505
797	-0.516
797	-0.524
798	-0.535
798	-0.528
799	-0.534
799	-0.518
800	-0.526
800	-0.521
801	-0.524
801	-0.512
801	-0.519
802	-0.525
802	-0.521
803	-0.521
803	-0.53
804	-0.525
804	-0.538
804	-0.521
805	-0.524
805	-0.517
806	-0.515
806	-0.503
807	-0.505
807	-0.493
807	-0.482
808	-0.473
808	-0.464
809	-0.45
809	-0.462
810	-0.465
810	-0.457
810	-0.456
811	-0.462
811	-0.449
812	-0.45
812	-0.454
813	-0.459
813	-0.456
813	-0.462
814	-0.465
814	-0.462
815	-0.465
815	-0.466
816	-0.461
816	-0.469
817	-0.475
817	-0.493
817	-0.504
818	-0.515
818	-0.516
819	-0.509
819	-0.511
820	-0.52
820	-0.52
820	-0.531
821	-0.529
821	-0.517
822	-0.487
822	-0.468
823	-0.463
823	-0.465
823	-0.462
824	-0.458
824	-0.461
825	-0.457
825	-0.434
826	-0.43
826	-0.439
826	-0.451
827	-0.445
827	-0.443
828	-0.422
828	-0.423
829	-0.414
829	-0.401
829	-0.39
830	-0.402
830	-0.399
831	-0.395
831	-0.385
832	-0.385
832	-0.379
832	-0.39
833	-0.383
833	-0.383
834	-0.382
834	-0.392
835	-0.383
835	-0.379
835	-0.373
836	-0.372
836	-0.368
837	-0.366
837	-0.357
838	-0.349
838	-0.34
839	-0.329
839	-0.316
839	-0.306
840	-0.297
840	-0.296
841	-0.285
841	-0.278
842	-0.272
842	-0.264
842	-0.263
843	-0.258
843	-0.255
844	-0.249
844	-0.243
845	-0.236
845	-0.223
845	-0.213
846	-0.206
846	-0.197
847	-0.188
847	-0.178
848	-0.169
848	-0.16
848	-0.15
849	-0.143
849	-0.135
850	-0.129
850	-0.126
851	-0.12
851	-0.11
851	-0.105
852	-0.094
852	-0.085
853	-0.078
853	-0.075
854	-0.067
854	-0.058
854	-0.05
855	-0.042
855	-0.037
856	-0.03
856	-0.023
857	-0.018
857	-0.011
857	-0.004
858	0.004
858	0.008
859	0.013
859	0.02
860	0.026
860	0.033
860	0.036
861	0.04
861	0.045
862	0.048
862	0.052
863	0.056
863	0.061
863	0.064
864	0.065
864	0.068
865	0.072
865	0.075
866	0.078
866	0.079
866	0.082
867	0.084
867	0.086
868	0.088
868	0.09
869	0.092
869	0.093
869	0.094
870	0.095
870	0.096
871	0.098
871	0.099
872	0.099
872	0.099
872	0.099
873	0.099
873	0.099
874	0.099
874	0.099
875	0.098
875	0.098
875	0.097
876	0.096
876	0.095
877	0.095
877	0.094
878	0.093
878	0.093
878	0.091
879	0.09
879	0.09
880	0.089
880	0.089
881	0.089
881	0.088
881	0.088
882	0.087
882	0.087
883	0.086
883	0.085
884	0.085
884	0.084
884	0.083
885	0.082
885	0.082
886	0.082
886	0.081
887	0.081
887	0.081
887	0.081
888	0.082
888	0.082
889	0.083
889	0.084
890	0.085
890	0.085
890	0.086
891	0.086
891	0.087
892	0.087
892	0.086
893	0.085
893	0.085
893	0.085
894	0.084
894	0.084
895	0.083
895	0.083
895	0.082
896	0.081
896	0.08
897	0.079
897	0.079
898	0.078
898	0.077
898	0.077
899	0.076
899	0.076
900	0.076
900	0.077
901	0.077
901	0.078
901	0.078
902	0.079
902	0.078
903	0.078
903	0.078
904	0.078
904	0.078
904	0.078
905	0.078
905	0.078
906	0.078
906	0.077
907	0.077
907	0.076
907	0.076
908	0.075
908	0.074
909	0.073
909	0.072
910	0.072
910	0.071
910	0.07
911	0.07
911	0.07
912	0.07
912	0.07
913	0.071
913	0.071
913	0.072
914	0.073
914	0.073
915	0.074
915	0.075
916	0.076
916	0.076
916	0.077
917	0.077
917	0.078
918	0.078
918	0.078
918	0.078
919	0.078
919	0.078
920	0.078
920	0.079
921	0.079
921	0.079
921	0.08
922	0.08
922	0.08
923	0.081
923	0.081
924	0.081
924	0.082
924	0.082
925	0.081
925	0.081
926	0.08
926	0.079
927	0.079
927	0.078
927	0.077
928	0.077
928	0.076
929	0.075
929	0.075
930	0.074
930	0.074
930	0.074
931	0.074
931	0.074
932	0.074
932	0.074
933	0.074
933	0.073
933	0.073
934	0.072
934	0.071
935	0.071
935	0.07
935	0.07
936	0.069
936	0.068
937	0.067
937	0.066
938	0.066
938	0.066
938	0.066
939	0.066
939	0.066
940	0.066
940	0.066
941	0.066
941	0.066
941	0.066
942	0.066
942	0.066
943	0.065
943	0.065
944	0.064
944	0.063
944	0.063
945	0.062
945	0.061
946	0.061
946	0.06
946	0.06
947	0.06
947	0.06
948	0.06
948	0.061
949	0.061
949	0.062
949	0.062
950	0.063
950	0.063
951	0.064
951	0.065
952	0.066
952	0.067
952	0.067
953	0.068
953	0.069
954	0.069
954	0.07
955	0.071
955	0.072
955	0.072
956	0.072
956	0.073
957	0.073
957	0.073
957	0.073
958	0.073
958	0.074
959	0.074
959	0.074
960	0.074
960	0.074
960	0.074
961	0.073
961	0.073
962	0.073
962	0.072
963	0.072
963	0.071
963	0.071
964	0.07
964	0.07
965	0.07
965	0.069
966	0.069
966	0.069
966	0.068
967	0.068
967	0.068
968	0.067
968	0.067
968	0.067
969	0.066
969	0.066
970	0.066
970	0.066
971	0.066
971	0.066
971	0.066
972	0.066
972	0.065
973	0.065
973	0.065
974	0.064
974	0.064
974	0.063
975	0.063
975	0.062
976	0.061
976	0.06
976	0.059
977	0.059
977	0.059
978	0.059
978	0.058
979	0.058
979	0.058
979	0.059
980	0.059
980	0.059
981	0.06
981	0.06
982	0.06
982	0.06
982	0.06
983	0.06
983	0.06
984	0.059
984	0.059
984	0.059
985	0.059
985	0.059
986	0.059
986	0.06
987	0.06
987	0.061
987	0.061
988	0.061
988	0.062
989	0.062
989	0.062
990	0.061
990	0.061
990	0.061
991	0.06
991	0.06
992	0.059
992	0.059
992	0.059
993	0.058
993	0.058
994	0.058
994	0.058
995	0.058
995	0.057
995	0.057
996	0.057
996	0.057
997	0.057
997	0.057
997	0.057
998	0.057
998	0.057
999	0.058
999	0.058
1000	0.058
1000	0.058
1000	0.057
1001	0.058
1001	0.057
1002	0.057
1002	0.057
1003	0.056
1003	0.056
1003	0.055
1004	0.055
1004	0.054
1005	0.053
1005	0.052
1005	0.051
1006	0.05
1006	0.049
1007	0.048
1007	0.047
1008	0.047
1008	0.046
1008	0.046
1009	0.046
1009	0.045
1010	0.046
1010	0.046
1010	0.046
1011	0.046
1011	0.045
1012	0.044
1012	0.044
1013	0.043
1013	0.042
1013	0.04
1014	0.04
1014	0.038
1015	0.037
1015	0.037
1016	0.036
1016	0.035
1016	0.035
1017	0.034
1017	0.034
1018	0.034
1018	0.034
1018	0.033
1019	0.033
1019	0.032
1020	0.032
1020	0.031
1021	0.03
1021	0.029
1021	0.027
1022	0.026
1022	0.025
1023	0.025
1023	0.024
1023	0.023
1024	0.023
1024	0.023
1025	0.023
1025	0.023
1026	0.024
1026	0.025
1026	0.025
1027	0.025
1027	0.026
1028	0.026
1028	0.026
1028	0.026
1029	0.026
1029	0.026
1030	0.025
1030	0.025
1031	0.025
1031	0.025
1031	0.025
1032	0.025
1032	0.026
1033	0.026
1033	0.027
1033	0.028
1034	0.028
1034	0.029
1035	0.03
1035	0.03
1036	0.03
1036	0.03
1036	0.03
1037	0.03
1037	0.029
1038	0.029
1038	0.029
1039	0.028
1039	0.028
1039	0.028
1040	0.028
1040	0.029
1041	0.029
1041	0.03
1041	0.03
1042	0.03
1042	0.03
1043	0.03
1043	0.03
1044	0.031
1044	0.03
1044	0.03
1045	0.03
1045	0.03
1046	0.03
1046	0.03
1046	0.03
1047	0.031
1047	0.031
1048	0.032
1048	0.032
1049	0.033
1049	0.033
1049	0.033
1050	0.033
1050	0.034
1051	0.034
1051	0.034
1051	0.034
1052	0.034
1052	0.034
1053	0.034
1053	0.034
1053	0.034
1054	0.034
1054	0.033
1055	0.033
1055	0.032
1056	0.032
1056	0.03
1056	0.029
1057	0.028
1057	0.027
1058	0.027
1058	0.026
1058	0.025
1059	0.025
1059	0.024
1060	0.024
1060	0.024
1061	0.024
1061	0.024
1061	0.024
1062	0.024
1062	0.024
1063	0.024
1063	0.024
1063	0.024
1064	0.024
1064	0.024
1065	0.024
1065	0.023
1066	0.023
1066	0.022
1066	0.022
1067	0.022
1067	0.022
1068	0.021
1068	0.02
1068	0.02
1069	0.02
1069	0.02
1070	0.019
1070	0.02
1071	0.019
1071	0.02
1071	0.019
1072	0.019
1072	0.019
1073	0.019
1073	0.019
1073	0.018
1074	0.019
1074	0.019
1075	0.019
1075	0.019
1076	0.018
1076	0.018
1076	0.018
1077	0.017
1077	0.017
1078	0.016
1078	0.016
1078	0.015
1079	0.015
1079	0.014
1080	0.013
1080	0.012
1080	0.011
1081	0.01
1081	0.01
1082	0.009
1082	0.008
1083	0.008
1083	0.007
1083	0.006
1084	0.005
1084	0.005
1085	0.004
1085	0.004
1085	0.004
1086	0.004
1086	0.003
1087	0.004
1087	0.004
1088	0.003
1088	0.003
1088	0.003
1089	0.003
1089	0.003
1090	0.002
1090	0.002
1090	0.002
1091	0.001
1091	0.001
1092	0
1092	0.001
1092	0.001
1093	0.001
1093	0.001
1094	0.001
1094	0.001
1095	0.001
1095	0.001
1095	0
1096	-0
1096	-0
1097	-0.001
1097	-0.002
1097	-0.002
1098	-0.002
1098	-0.003
1099	-0.004
1099	-0.004
1100	-0.005
1100	-0.004
1100	-0.006
1101	-0.007
1101	-0.009
1102	-0.01
1102	-0.011
1102	-0.011
1103	-0.012
1103	-0.013
1104	-0.014
1104	-0.015
1104	-0.016
1105	-0.018
1105	-0.019
1106	-0.022
1106	-0.022
1107	-0.025
1107	-0.028
1107	-0.032
1108	-0.033
1108	-0.034
1109	-0.037
1109	-0.039
1109	-0.039
1110	-0.039
1110	-0.039
1111	-0.043
1111	-0.045
