Data from 17C_3.4A_30min_2sec_int_Absorbance__380__00380.txt Node

Date: Mon Jun 19 16:20:38 CEST 2023
User: Marek
Spectrometer: MAYP115816
Trigger mode: 0
Integration Time (sec): 2.500000E-1
Scans to average: 10
Electric dark correction enabled: true
Nonlinearity correction enabled: true
Boxcar width: 5
XAxis mode: Wavelengths
Number of Pixels in Spectrum: 2068
>>>>>Begin Spectral Data<<<<<
199	-0.493
199	-0.501
200	-0.411
200	-0.365
201	-0.328
201	-0.32
202	-0.307
202	-0.299
203	-0.289
203	-0.286
204	-0.275
204	-0.265
205	-0.243
205	-0.241
205	-0.238
206	-0.244
206	-0.247
207	-0.237
207	-0.236
208	-0.239
208	-0.238
209	-0.232
209	-0.231
210	-0.239
210	-0.242
211	-0.245
211	-0.245
212	-0.246
212	-0.252
213	-0.249
213	-0.25
213	-0.254
214	-0.251
214	-0.251
215	-0.251
215	-0.255
216	-0.256
216	-0.261
217	-0.258
217	-0.262
218	-0.264
218	-0.265
219	-0.266
219	-0.277
220	-0.28
220	-0.286
221	-0.287
221	-0.289
221	-0.285
222	-0.281
222	-0.281
223	-0.284
223	-0.287
224	-0.29
224	-0.292
225	-0.288
225	-0.279
226	-0.282
226	-0.279
227	-0.284
227	-0.293
228	-0.293
228	-0.294
229	-0.295
229	-0.289
229	-0.285
230	-0.287
230	-0.294
231	-0.291
231	-0.288
232	-0.281
232	-0.278
233	-0.273
233	-0.273
234	-0.271
234	-0.271
235	-0.272
235	-0.278
236	-0.274
236	-0.272
236	-0.278
237	-0.286
237	-0.286
238	-0.295
238	-0.291
239	-0.292
239	-0.3
240	-0.302
240	-0.298
241	-0.302
241	-0.299
242	-0.303
242	-0.298
243	-0.293
243	-0.291
243	-0.3
244	-0.298
244	-0.293
245	-0.301
245	-0.301
246	-0.307
246	-0.318
247	-0.316
247	-0.322
248	-0.327
248	-0.324
249	-0.327
249	-0.335
250	-0.335
250	-0.33
250	-0.331
251	-0.329
251	-0.327
252	-0.33
252	-0.319
253	-0.325
253	-0.336
254	-0.334
254	-0.332
255	-0.337
255	-0.332
256	-0.331
256	-0.337
257	-0.334
257	-0.333
258	-0.351
258	-0.347
258	-0.341
259	-0.341
259	-0.349
260	-0.352
260	-0.357
261	-0.367
261	-0.362
262	-0.358
262	-0.357
263	-0.343
263	-0.339
264	-0.34
264	-0.342
265	-0.337
265	-0.345
265	-0.349
266	-0.34
266	-0.341
267	-0.353
267	-0.36
268	-0.377
268	-0.385
269	-0.38
269	-0.38
270	-0.383
270	-0.386
271	-0.384
271	-0.392
272	-0.391
272	-0.386
272	-0.381
273	-0.378
273	-0.386
274	-0.392
274	-0.395
275	-0.395
275	-0.385
276	-0.391
276	-0.385
277	-0.389
277	-0.405
278	-0.413
278	-0.408
278	-0.401
279	-0.406
279	-0.413
280	-0.411
280	-0.41
281	-0.406
281	-0.409
282	-0.402
282	-0.401
283	-0.39
283	-0.39
284	-0.384
284	-0.37
285	-0.367
285	-0.365
285	-0.364
286	-0.368
286	-0.365
287	-0.364
287	-0.351
288	-0.348
288	-0.358
289	-0.37
289	-0.381
290	-0.368
290	-0.369
291	-0.363
291	-0.362
292	-0.363
292	-0.368
292	-0.368
293	-0.369
293	-0.358
294	-0.35
294	-0.345
295	-0.346
295	-0.342
296	-0.344
296	-0.337
297	-0.336
297	-0.322
298	-0.319
298	-0.331
298	-0.32
299	-0.314
299	-0.314
300	-0.309
300	-0.304
301	-0.302
301	-0.303
302	-0.308
302	-0.315
303	-0.303
303	-0.286
304	-0.286
304	-0.286
305	-0.287
305	-0.287
305	-0.287
306	-0.27
306	-0.266
307	-0.254
307	-0.255
308	-0.266
308	-0.267
309	-0.271
309	-0.264
310	-0.251
310	-0.249
311	-0.241
311	-0.248
311	-0.243
312	-0.24
312	-0.242
313	-0.229
313	-0.231
314	-0.228
314	-0.228
315	-0.231
315	-0.228
316	-0.225
316	-0.221
317	-0.215
317	-0.215
318	-0.205
318	-0.205
318	-0.2
319	-0.189
319	-0.187
320	-0.18
320	-0.181
321	-0.186
321	-0.18
322	-0.178
322	-0.165
323	-0.165
323	-0.159
324	-0.154
324	-0.15
324	-0.141
325	-0.133
325	-0.118
326	-0.105
326	-0.094
327	-0.078
327	-0.064
328	-0.044
328	-0.029
329	-0.013
329	0.006
330	0.028
330	0.053
330	0.072
331	0.092
331	0.113
332	0.13
332	0.145
333	0.159
333	0.176
334	0.19
334	0.201
335	0.212
335	0.22
336	0.229
336	0.237
336	0.242
337	0.249
337	0.253
338	0.258
338	0.261
339	0.265
339	0.269
340	0.271
340	0.273
341	0.275
341	0.277
342	0.279
342	0.28
342	0.282
343	0.283
343	0.285
344	0.286
344	0.286
345	0.287
345	0.288
346	0.288
346	0.288
347	0.289
347	0.289
348	0.289
348	0.289
348	0.289
349	0.289
349	0.289
350	0.289
350	0.288
351	0.288
351	0.288
352	0.288
352	0.288
353	0.287
353	0.287
354	0.287
354	0.287
354	0.286
355	0.286
355	0.286
356	0.286
356	0.286
357	0.284
357	0.284
358	0.284
358	0.284
359	0.283
359	0.283
360	0.283
360	0.283
360	0.283
361	0.282
361	0.282
362	0.282
362	0.282
363	0.282
363	0.282
364	0.282
364	0.281
365	0.281
365	0.281
366	0.281
366	0.281
366	0.281
367	0.281
367	0.281
368	0.28
368	0.28
369	0.28
369	0.28
370	0.279
370	0.279
371	0.279
371	0.278
372	0.278
372	0.278
372	0.278
373	0.278
373	0.277
374	0.277
374	0.277
375	0.277
375	0.277
376	0.276
376	0.276
377	0.276
377	0.276
378	0.276
378	0.276
378	0.276
379	0.276
379	0.276
380	0.275
380	0.275
381	0.275
381	0.275
382	0.274
382	0.274
383	0.274
383	0.273
383	0.273
384	0.273
384	0.273
385	0.273
385	0.272
386	0.272
386	0.272
387	0.272
387	0.272
388	0.271
388	0.271
389	0.271
389	0.271
389	0.271
390	0.27
390	0.27
391	0.27
391	0.27
392	0.27
392	0.269
393	0.269
393	0.269
394	0.269
394	0.268
394	0.268
395	0.268
395	0.268
396	0.268
396	0.267
397	0.267
397	0.267
398	0.267
398	0.267
399	0.267
399	0.266
400	0.266
400	0.266
400	0.265
401	0.265
401	0.265
402	0.265
402	0.264
403	0.264
403	0.263
404	0.263
404	0.263
405	0.263
405	0.263
405	0.262
406	0.262
406	0.262
407	0.261
407	0.261
408	0.261
408	0.261
409	0.261
409	0.261
410	0.261
410	0.261
411	0.261
411	0.261
411	0.261
412	0.261
412	0.261
413	0.261
413	0.26
414	0.26
414	0.26
415	0.26
415	0.259
416	0.259
416	0.259
416	0.259
417	0.258
417	0.258
418	0.258
418	0.258
419	0.258
419	0.258
420	0.258
420	0.258
421	0.258
421	0.258
421	0.258
422	0.258
422	0.257
423	0.257
423	0.257
424	0.257
424	0.257
425	0.257
425	0.257
426	0.256
426	0.256
427	0.256
427	0.256
427	0.256
428	0.256
428	0.256
429	0.256
429	0.256
430	0.256
430	0.256
431	0.255
431	0.255
432	0.255
432	0.255
432	0.255
433	0.254
433	0.254
434	0.254
434	0.254
435	0.254
435	0.253
436	0.253
436	0.253
437	0.253
437	0.254
437	0.254
438	0.254
438	0.254
439	0.254
439	0.253
440	0.253
440	0.253
441	0.253
441	0.252
442	0.252
442	0.252
442	0.252
443	0.252
443	0.252
444	0.252
444	0.252
445	0.252
445	0.252
446	0.252
446	0.252
447	0.252
447	0.252
447	0.252
448	0.252
448	0.252
449	0.252
449	0.252
450	0.253
450	0.253
451	0.253
451	0.253
452	0.253
452	0.253
452	0.253
453	0.253
453	0.253
454	0.253
454	0.253
455	0.252
455	0.252
456	0.252
456	0.252
457	0.252
457	0.252
458	0.253
458	0.253
458	0.253
459	0.253
459	0.253
460	0.253
460	0.253
461	0.253
461	0.253
462	0.253
462	0.254
463	0.254
463	0.254
463	0.255
464	0.255
464	0.255
465	0.255
465	0.255
466	0.256
466	0.256
467	0.256
467	0.257
467	0.257
468	0.257
468	0.258
469	0.258
469	0.259
470	0.26
470	0.26
471	0.26
471	0.26
472	0.261
472	0.261
472	0.262
473	0.262
473	0.262
474	0.262
474	0.263
475	0.263
475	0.264
476	0.264
476	0.265
477	0.265
477	0.266
477	0.266
478	0.267
478	0.268
479	0.269
479	0.269
480	0.27
480	0.27
481	0.271
481	0.272
482	0.272
482	0.273
482	0.274
483	0.274
483	0.275
484	0.275
484	0.275
485	0.276
485	0.277
486	0.278
486	0.279
487	0.279
487	0.28
487	0.281
488	0.282
488	0.283
489	0.285
489	0.287
490	0.289
490	0.29
491	0.292
491	0.293
492	0.294
492	0.296
492	0.297
493	0.298
493	0.3
494	0.301
494	0.303
495	0.304
495	0.306
496	0.308
496	0.309
496	0.311
497	0.313
497	0.315
498	0.317
498	0.318
499	0.32
499	0.322
500	0.324
500	0.327
501	0.329
501	0.33
501	0.332
502	0.334
502	0.335
503	0.337
503	0.339
504	0.341
504	0.343
505	0.345
505	0.346
506	0.348
506	0.35
506	0.353
507	0.355
507	0.357
508	0.359
508	0.361
509	0.363
509	0.365
510	0.367
510	0.369
511	0.371
511	0.373
511	0.375
512	0.377
512	0.379
513	0.381
513	0.382
514	0.384
514	0.386
515	0.388
515	0.39
515	0.392
516	0.394
516	0.396
517	0.397
517	0.399
518	0.401
518	0.402
519	0.404
519	0.405
520	0.407
520	0.408
520	0.41
521	0.411
521	0.413
522	0.414
522	0.415
523	0.416
523	0.417
524	0.418
524	0.419
524	0.42
525	0.42
525	0.421
526	0.422
526	0.422
527	0.423
527	0.423
528	0.424
528	0.424
529	0.425
529	0.425
529	0.425
530	0.425
530	0.425
531	0.425
531	0.425
532	0.425
532	0.425
533	0.425
533	0.424
533	0.424
534	0.423
534	0.423
535	0.422
535	0.422
536	0.421
536	0.42
537	0.42
537	0.419
538	0.418
538	0.417
538	0.416
539	0.415
539	0.414
540	0.413
540	0.412
541	0.41
541	0.409
542	0.408
542	0.407
542	0.405
543	0.404
543	0.402
544	0.4
544	0.399
545	0.398
545	0.396
546	0.395
546	0.393
547	0.391
547	0.39
547	0.389
548	0.387
548	0.386
549	0.385
549	0.383
550	0.382
550	0.38
551	0.378
551	0.377
551	0.376
552	0.374
552	0.373
553	0.371
553	0.37
554	0.368
554	0.366
555	0.365
555	0.363
556	0.362
556	0.36
556	0.359
557	0.357
557	0.355
558	0.354
558	0.352
559	0.35
559	0.348
560	0.347
560	0.346
560	0.344
561	0.343
561	0.341
562	0.339
562	0.338
563	0.336
563	0.335
564	0.333
564	0.332
564	0.33
565	0.329
565	0.327
566	0.325
566	0.324
567	0.322
567	0.32
568	0.318
568	0.316
568	0.314
569	0.313
569	0.311
570	0.309
570	0.307
571	0.306
571	0.304
572	0.303
572	0.301
573	0.3
573	0.299
573	0.297
574	0.296
574	0.295
575	0.294
575	0.293
576	0.292
576	0.291
577	0.29
577	0.289
577	0.289
578	0.288
578	0.288
579	0.287
579	0.286
580	0.285
580	0.283
581	0.282
581	0.281
581	0.28
582	0.279
582	0.278
583	0.277
583	0.276
584	0.275
584	0.273
585	0.273
585	0.272
585	0.271
586	0.271
586	0.27
587	0.27
587	0.269
588	0.269
588	0.268
589	0.268
589	0.267
590	0.267
590	0.266
590	0.266
591	0.266
591	0.264
592	0.263
592	0.262
593	0.262
593	0.261
594	0.26
594	0.26
594	0.259
595	0.258
595	0.258
596	0.258
596	0.258
597	0.258
597	0.257
598	0.256
598	0.255
598	0.255
599	0.254
599	0.253
600	0.252
600	0.252
601	0.251
601	0.25
602	0.249
602	0.248
602	0.248
603	0.248
603	0.248
604	0.247
604	0.247
605	0.247
605	0.247
606	0.246
606	0.245
606	0.245
607	0.244
607	0.243
608	0.242
608	0.241
609	0.241
609	0.241
610	0.24
610	0.24
610	0.24
611	0.24
611	0.24
612	0.24
612	0.24
613	0.24
613	0.239
614	0.238
614	0.237
614	0.236
615	0.235
615	0.234
616	0.234
616	0.233
617	0.231
617	0.23
618	0.23
618	0.229
618	0.228
619	0.228
619	0.228
620	0.228
620	0.227
621	0.227
621	0.227
622	0.226
622	0.225
622	0.225
623	0.224
623	0.224
624	0.223
624	0.223
625	0.222
625	0.222
626	0.221
626	0.221
626	0.221
627	0.22
627	0.219
628	0.218
628	0.217
629	0.216
629	0.214
630	0.213
630	0.212
630	0.21
631	0.208
631	0.206
632	0.204
632	0.202
633	0.2
633	0.198
634	0.196
634	0.194
634	0.191
635	0.189
635	0.185
636	0.182
636	0.179
637	0.176
637	0.173
638	0.169
638	0.165
638	0.162
639	0.157
639	0.153
640	0.149
640	0.145
641	0.141
641	0.138
642	0.133
642	0.129
642	0.125
643	0.121
643	0.116
644	0.112
644	0.107
645	0.102
645	0.097
646	0.092
646	0.087
646	0.082
647	0.076
647	0.071
648	0.065
648	0.06
649	0.053
649	0.048
650	0.041
650	0.035
650	0.028
651	0.021
651	0.011
652	-0.001
652	-0.013
653	-0.025
653	-0.035
653	-0.032
654	-0.015
654	-0.006
655	-0.008
655	-0.012
656	-0.016
656	-0.02
657	-0.023
657	-0.026
657	-0.03
658	-0.034
658	-0.057
659	-0.125
659	-0.211
660	-0.249
660	-0.273
661	-0.299
661	-0.328
661	-0.361
662	-0.393
662	-0.427
663	-0.469
663	-0.513
664	-0.561
664	-0.614
665	-0.669
665	-0.731
665	-0.79
666	-0.85
666	-0.915
667	-0.983
667	-1.052
668	-1.127
668	-1.204
669	-1.282
669	-1.36
669	-1.443
670	-1.521
670	-1.597
671	-1.831
671	-2.051
672	-2.256
672	-2.434
672	-2.556
673	-2.643
673	-2.719
674	-2.747
674	-2.763
675	-2.787
675	-2.922
676	-3.097
676	-3.045
676	-2.816
677	-2.605
677	-2.429
678	-2.225
678	-1.836
679	-1.619
679	-1.499
680	-1.408
680	-1.327
680	-1.258
681	-1.212
681	-1.152
682	-1.11
682	-1.071
683	-1.032
683	-1.011
684	-0.986
684	-0.962
684	-0.936
685	-0.908
685	-0.883
686	-0.856
686	-0.837
687	-0.81
687	-0.794
687	-0.772
688	-0.743
688	-0.72
689	-0.697
689	-0.681
690	-0.66
690	-0.645
691	-0.638
691	-0.638
691	-0.648
692	-0.637
692	-0.626
693	-0.62
693	-0.626
694	-0.62
694	-0.61
695	-0.611
695	-0.607
695	-0.586
696	-0.583
696	-0.56
697	-0.557
697	-0.57
698	-0.568
698	-0.557
698	-0.568
699	-0.571
699	-0.57
700	-0.562
700	-0.575
701	-0.573
701	-0.581
702	-0.582
702	-0.569
702	-0.56
703	-0.551
703	-0.542
704	-0.534
704	-0.534
705	-0.544
705	-0.538
705	-0.524
706	-0.521
706	-0.514
707	-0.516
707	-0.513
708	-0.511
708	-0.503
709	-0.506
709	-0.506
709	-0.5
710	-0.503
710	-0.513
711	-0.507
711	-0.508
712	-0.51
712	-0.519
713	-0.518
713	-0.524
713	-0.515
714	-0.511
714	-0.508
715	-0.5
715	-0.484
716	-0.491
716	-0.491
716	-0.481
717	-0.481
717	-0.486
718	-0.478
718	-0.477
719	-0.482
719	-0.481
720	-0.477
720	-0.489
720	-0.482
721	-0.473
721	-0.474
722	-0.462
722	-0.448
723	-0.444
723	-0.45
723	-0.436
724	-0.44
724	-0.444
725	-0.44
725	-0.444
726	-0.456
726	-0.461
727	-0.471
727	-0.487
727	-0.497
728	-0.494
728	-0.499
729	-0.497
729	-0.5
730	-0.506
730	-0.502
730	-0.495
731	-0.475
731	-0.481
732	-0.484
732	-0.482
733	-0.483
733	-0.489
734	-0.484
734	-0.486
734	-0.475
735	-0.474
735	-0.468
736	-0.48
736	-0.47
737	-0.463
737	-0.463
737	-0.471
738	-0.467
738	-0.469
739	-0.464
739	-0.472
740	-0.472
740	-0.472
741	-0.469
741	-0.468
741	-0.472
742	-0.468
742	-0.469
743	-0.474
743	-0.477
744	-0.476
744	-0.469
744	-0.468
745	-0.474
745	-0.466
746	-0.464
746	-0.457
747	-0.458
747	-0.446
748	-0.438
748	-0.443
748	-0.442
749	-0.444
749	-0.447
750	-0.441
750	-0.444
751	-0.448
751	-0.456
751	-0.46
752	-0.462
752	-0.468
753	-0.462
753	-0.46
754	-0.464
754	-0.454
754	-0.465
755	-0.48
755	-0.491
756	-0.48
756	-0.476
757	-0.479
757	-0.476
758	-0.48
758	-0.476
758	-0.478
759	-0.484
759	-0.47
760	-0.46
760	-0.457
761	-0.469
761	-0.468
761	-0.467
762	-0.473
762	-0.473
763	-0.484
763	-0.481
764	-0.479
764	-0.486
764	-0.495
765	-0.481
765	-0.468
766	-0.476
766	-0.478
767	-0.492
767	-0.489
768	-0.482
768	-0.487
768	-0.492
769	-0.506
769	-0.505
770	-0.51
770	-0.521
771	-0.512
771	-0.515
771	-0.517
772	-0.518
772	-0.514
773	-0.515
773	-0.511
774	-0.509
774	-0.51
775	-0.514
775	-0.51
775	-0.52
776	-0.523
776	-0.513
777	-0.524
777	-0.545
778	-0.545
778	-0.561
778	-0.547
779	-0.567
779	-0.571
780	-0.583
780	-0.584
781	-0.596
781	-0.594
781	-0.603
782	-0.606
782	-0.61
783	-0.6
783	-0.604
784	-0.587
784	-0.583
784	-0.594
785	-0.603
785	-0.586
786	-0.59
786	-0.571
787	-0.552
787	-0.553
788	-0.554
788	-0.561
788	-0.568
789	-0.565
789	-0.544
790	-0.525
790	-0.525
791	-0.523
791	-0.535
791	-0.543
792	-0.532
792	-0.508
793	-0.499
793	-0.476
794	-0.478
794	-0.467
794	-0.469
795	-0.471
795	-0.463
796	-0.455
796	-0.465
797	-0.46
797	-0.472
797	-0.479
798	-0.49
798	-0.484
799	-0.499
799	-0.489
800	-0.493
800	-0.49
801	-0.49
801	-0.474
801	-0.485
802	-0.494
802	-0.494
803	-0.496
803	-0.507
804	-0.497
804	-0.51
804	-0.498
805	-0.5
805	-0.492
806	-0.492
806	-0.479
807	-0.476
807	-0.456
807	-0.445
808	-0.435
808	-0.436
809	-0.421
809	-0.43
810	-0.429
810	-0.422
810	-0.42
811	-0.425
811	-0.42
812	-0.424
812	-0.425
813	-0.432
813	-0.428
813	-0.432
814	-0.435
814	-0.439
815	-0.444
815	-0.445
816	-0.439
816	-0.443
817	-0.451
817	-0.468
817	-0.48
818	-0.486
818	-0.489
819	-0.478
819	-0.478
820	-0.489
820	-0.485
820	-0.492
821	-0.487
821	-0.473
822	-0.447
822	-0.427
823	-0.424
823	-0.428
823	-0.424
824	-0.422
824	-0.421
825	-0.418
825	-0.404
826	-0.4
826	-0.407
826	-0.418
827	-0.413
827	-0.409
828	-0.39
828	-0.393
829	-0.381
829	-0.37
829	-0.36
830	-0.368
830	-0.365
831	-0.359
831	-0.349
832	-0.348
832	-0.343
832	-0.354
833	-0.348
833	-0.351
834	-0.349
834	-0.36
835	-0.35
835	-0.35
835	-0.348
836	-0.346
836	-0.341
837	-0.339
837	-0.328
838	-0.322
838	-0.313
839	-0.304
839	-0.295
839	-0.286
840	-0.275
840	-0.273
841	-0.263
841	-0.259
842	-0.256
842	-0.249
842	-0.243
843	-0.238
843	-0.233
844	-0.225
844	-0.22
845	-0.215
845	-0.205
845	-0.196
846	-0.189
846	-0.178
847	-0.171
847	-0.162
848	-0.155
848	-0.149
848	-0.136
849	-0.13
849	-0.123
850	-0.114
850	-0.111
851	-0.105
851	-0.097
851	-0.091
852	-0.082
852	-0.075
853	-0.069
853	-0.068
854	-0.061
854	-0.052
854	-0.044
855	-0.036
855	-0.032
856	-0.025
856	-0.02
857	-0.014
857	-0.007
857	0.001
858	0.008
858	0.011
859	0.015
859	0.02
860	0.024
860	0.031
860	0.035
861	0.04
861	0.043
862	0.046
862	0.049
863	0.052
863	0.056
863	0.059
864	0.061
864	0.064
865	0.066
865	0.069
866	0.071
866	0.073
866	0.075
867	0.076
867	0.079
868	0.08
868	0.083
869	0.085
869	0.086
869	0.086
870	0.087
870	0.088
871	0.089
871	0.09
872	0.09
872	0.091
872	0.091
873	0.091
873	0.091
874	0.091
874	0.091
875	0.09
875	0.09
875	0.089
876	0.089
876	0.088
877	0.087
877	0.087
878	0.086
878	0.085
878	0.085
879	0.083
879	0.083
880	0.082
880	0.082
881	0.082
881	0.082
881	0.081
882	0.08
882	0.08
883	0.079
883	0.078
884	0.077
884	0.076
884	0.076
885	0.075
885	0.074
886	0.074
886	0.074
887	0.073
887	0.073
887	0.073
888	0.074
888	0.074
889	0.076
889	0.076
890	0.077
890	0.078
890	0.078
891	0.079
891	0.079
892	0.08
892	0.08
893	0.08
893	0.08
893	0.079
894	0.078
894	0.078
895	0.077
895	0.076
895	0.076
896	0.075
896	0.074
897	0.073
897	0.072
898	0.071
898	0.07
898	0.07
899	0.07
899	0.07
900	0.07
900	0.07
901	0.071
901	0.071
901	0.071
902	0.071
902	0.071
903	0.071
903	0.07
904	0.071
904	0.071
904	0.071
905	0.071
905	0.071
906	0.07
906	0.07
907	0.07
907	0.069
907	0.069
908	0.068
908	0.067
909	0.066
909	0.065
910	0.065
910	0.064
910	0.063
911	0.063
911	0.063
912	0.063
912	0.063
913	0.063
913	0.064
913	0.065
914	0.066
914	0.066
915	0.067
915	0.068
916	0.069
916	0.069
916	0.07
917	0.07
917	0.071
918	0.071
918	0.071
918	0.07
919	0.07
919	0.071
920	0.071
920	0.071
921	0.072
921	0.072
921	0.073
922	0.073
922	0.073
923	0.074
923	0.074
924	0.075
924	0.075
924	0.075
925	0.074
925	0.074
926	0.073
926	0.072
927	0.072
927	0.071
927	0.071
928	0.07
928	0.069
929	0.069
929	0.068
930	0.068
930	0.067
930	0.067
931	0.067
931	0.067
932	0.067
932	0.067
933	0.067
933	0.067
933	0.066
934	0.065
934	0.065
935	0.064
935	0.063
935	0.063
936	0.062
936	0.061
937	0.061
937	0.06
938	0.06
938	0.06
938	0.06
939	0.06
939	0.06
940	0.06
940	0.06
941	0.06
941	0.061
941	0.061
942	0.061
942	0.06
943	0.06
943	0.059
944	0.059
944	0.058
944	0.057
945	0.057
945	0.056
946	0.055
946	0.054
946	0.054
947	0.054
947	0.055
948	0.055
948	0.056
949	0.056
949	0.057
949	0.057
950	0.058
950	0.058
951	0.059
951	0.06
952	0.06
952	0.061
952	0.062
953	0.062
953	0.063
954	0.063
954	0.064
955	0.064
955	0.065
955	0.066
956	0.066
956	0.067
957	0.066
957	0.067
957	0.067
958	0.067
958	0.068
959	0.068
959	0.068
960	0.068
960	0.068
960	0.068
961	0.068
961	0.067
962	0.067
962	0.066
963	0.066
963	0.065
963	0.065
964	0.064
964	0.064
965	0.064
965	0.063
966	0.063
966	0.063
966	0.063
967	0.062
967	0.062
968	0.062
968	0.061
968	0.061
969	0.06
969	0.06
970	0.06
970	0.06
971	0.06
971	0.06
971	0.06
972	0.06
972	0.059
973	0.059
973	0.058
974	0.058
974	0.057
974	0.057
975	0.056
975	0.055
976	0.054
976	0.054
976	0.053
977	0.053
977	0.052
978	0.052
978	0.052
979	0.052
979	0.052
979	0.052
980	0.053
980	0.053
981	0.054
981	0.054
982	0.054
982	0.054
982	0.053
983	0.053
983	0.053
984	0.053
984	0.053
984	0.053
985	0.053
985	0.053
986	0.053
986	0.053
987	0.054
987	0.054
987	0.055
988	0.055
988	0.055
989	0.055
989	0.055
990	0.055
990	0.055
990	0.054
991	0.054
991	0.053
992	0.053
992	0.053
992	0.052
993	0.052
993	0.052
994	0.052
994	0.051
995	0.051
995	0.051
995	0.051
996	0.051
996	0.051
997	0.051
997	0.051
997	0.051
998	0.052
998	0.051
999	0.052
999	0.052
1000	0.052
1000	0.052
1000	0.052
1001	0.052
1001	0.052
1002	0.051
1002	0.051
1003	0.05
1003	0.05
1003	0.049
1004	0.049
1004	0.048
1005	0.047
1005	0.046
1005	0.045
1006	0.044
1006	0.044
1007	0.043
1007	0.042
1008	0.041
1008	0.041
1008	0.041
1009	0.041
1009	0.041
1010	0.041
1010	0.041
1010	0.041
1011	0.041
1011	0.04
1012	0.039
1012	0.039
1013	0.038
1013	0.036
1013	0.035
1014	0.034
1014	0.033
1015	0.032
1015	0.032
1016	0.031
1016	0.03
1016	0.03
1017	0.029
1017	0.029
1018	0.029
1018	0.029
1018	0.028
1019	0.028
1019	0.027
1020	0.026
1020	0.026
1021	0.024
1021	0.023
1021	0.022
1022	0.021
1022	0.02
1023	0.019
1023	0.019
1023	0.018
1024	0.018
1024	0.018
1025	0.018
1025	0.018
1026	0.019
1026	0.019
1026	0.02
1027	0.02
1027	0.02
1028	0.02
1028	0.02
1028	0.02
1029	0.021
1029	0.021
1030	0.02
1030	0.02
1031	0.02
1031	0.02
1031	0.02
1032	0.02
1032	0.021
1033	0.021
1033	0.022
1033	0.023
1034	0.023
1034	0.024
1035	0.024
1035	0.025
1036	0.025
1036	0.025
1036	0.025
1037	0.025
1037	0.025
1038	0.024
1038	0.024
1039	0.024
1039	0.023
1039	0.023
1040	0.024
1040	0.024
1041	0.024
1041	0.025
1041	0.025
1042	0.025
1042	0.026
1043	0.026
1043	0.026
1044	0.026
1044	0.026
1044	0.026
1045	0.026
1045	0.025
1046	0.025
1046	0.026
1046	0.026
1047	0.026
1047	0.027
1048	0.027
1048	0.027
1049	0.027
1049	0.028
1049	0.028
1050	0.028
1050	0.028
1051	0.028
1051	0.029
1051	0.029
1052	0.029
1052	0.029
1053	0.029
1053	0.029
1053	0.029
1054	0.029
1054	0.029
1055	0.028
1055	0.028
1056	0.027
1056	0.026
1056	0.025
1057	0.024
1057	0.023
1058	0.022
1058	0.022
1058	0.021
1059	0.02
1059	0.02
1060	0.019
1060	0.019
1061	0.019
1061	0.019
1061	0.019
1062	0.019
1062	0.019
1063	0.019
1063	0.019
1063	0.02
1064	0.02
1064	0.02
1065	0.02
1065	0.019
1066	0.019
1066	0.018
1066	0.018
1067	0.018
1067	0.018
1068	0.017
1068	0.016
1068	0.016
1069	0.016
1069	0.015
1070	0.015
1070	0.015
1071	0.015
1071	0.015
1071	0.015
1072	0.015
1072	0.015
1073	0.015
1073	0.015
1073	0.014
1074	0.015
1074	0.015
1075	0.014
1075	0.014
1076	0.013
1076	0.014
1076	0.013
1077	0.013
1077	0.013
1078	0.012
1078	0.011
1078	0.01
1079	0.009
1079	0.009
1080	0.008
1080	0.008
1080	0.007
1081	0.006
1081	0.006
1082	0.005
1082	0.004
1083	0.004
1083	0.004
1083	0.003
1084	0.003
1084	0.002
1085	0.002
1085	0.002
1085	0.002
1086	0.002
1086	0.002
1087	0.002
1087	0.002
1088	0.001
1088	0.001
1088	0.001
1089	0
1089	0
1090	-0.001
1090	-0.001
1090	-0.001
1091	-0.001
1091	-0.001
1092	-0.001
1092	-0.001
1092	-0.002
1093	-0.002
1093	-0.002
1094	-0.002
1094	-0.002
1095	-0.002
1095	-0.002
1095	-0.002
1096	-0.003
1096	-0.003
1097	-0.003
1097	-0.004
1097	-0.003
1098	-0.003
1098	-0.005
1099	-0.004
1099	-0.004
1100	-0.005
1100	-0.005
1100	-0.007
1101	-0.008
1101	-0.009
1102	-0.01
1102	-0.011
1102	-0.012
1103	-0.012
1103	-0.015
1104	-0.015
1104	-0.016
1104	-0.017
1105	-0.018
1105	-0.02
1106	-0.023
1106	-0.024
1107	-0.025
1107	-0.029
1107	-0.032
1108	-0.032
1108	-0.035
1109	-0.036
1109	-0.039
1109	-0.04
1110	-0.039
1110	-0.04
1111	-0.044
1111	-0.048
