Data from 17C_3.4A_30min_2sec_int_Absorbance__79__00079.txt Node

Date: Mon Jun 19 16:08:05 CEST 2023
User: Marek
Spectrometer: MAYP115816
Trigger mode: 0
Integration Time (sec): 2.500000E-1
Scans to average: 10
Electric dark correction enabled: true
Nonlinearity correction enabled: true
Boxcar width: 5
XAxis mode: Wavelengths
Number of Pixels in Spectrum: 2068
>>>>>Begin Spectral Data<<<<<
199	-0.238
199	-0.264
200	-0.171
200	-0.14
201	-0.124
201	-0.116
202	-0.099
202	-0.093
203	-0.091
203	-0.092
204	-0.086
204	-0.081
205	-0.063
205	-0.065
205	-0.058
206	-0.059
206	-0.059
207	-0.056
207	-0.053
208	-0.055
208	-0.055
209	-0.05
209	-0.048
210	-0.054
210	-0.061
211	-0.066
211	-0.067
212	-0.069
212	-0.077
213	-0.077
213	-0.073
213	-0.072
214	-0.07
214	-0.076
215	-0.072
215	-0.077
216	-0.081
216	-0.083
217	-0.081
217	-0.083
218	-0.089
218	-0.092
219	-0.097
219	-0.102
220	-0.099
220	-0.107
221	-0.1
221	-0.1
221	-0.098
222	-0.094
222	-0.091
223	-0.091
223	-0.091
224	-0.094
224	-0.097
225	-0.098
225	-0.091
226	-0.097
226	-0.095
227	-0.096
227	-0.1
228	-0.099
228	-0.096
229	-0.095
229	-0.089
229	-0.082
230	-0.082
230	-0.082
231	-0.078
231	-0.074
232	-0.068
232	-0.072
233	-0.068
233	-0.073
234	-0.07
234	-0.068
235	-0.07
235	-0.071
236	-0.072
236	-0.071
236	-0.076
237	-0.081
237	-0.077
238	-0.084
238	-0.077
239	-0.081
239	-0.086
240	-0.089
240	-0.088
241	-0.086
241	-0.081
242	-0.084
242	-0.082
243	-0.079
243	-0.081
243	-0.089
244	-0.089
244	-0.085
245	-0.089
245	-0.09
246	-0.098
246	-0.105
247	-0.103
247	-0.108
248	-0.119
248	-0.113
249	-0.117
249	-0.121
250	-0.12
250	-0.117
250	-0.114
251	-0.112
251	-0.112
252	-0.115
252	-0.103
253	-0.103
253	-0.114
254	-0.114
254	-0.114
255	-0.118
255	-0.114
256	-0.108
256	-0.113
257	-0.112
257	-0.108
258	-0.127
258	-0.12
258	-0.113
259	-0.109
259	-0.111
260	-0.116
260	-0.119
261	-0.126
261	-0.126
262	-0.118
262	-0.121
263	-0.106
263	-0.106
264	-0.105
264	-0.108
265	-0.111
265	-0.115
265	-0.115
266	-0.115
266	-0.106
267	-0.121
267	-0.123
268	-0.133
268	-0.133
269	-0.129
269	-0.125
270	-0.121
270	-0.128
271	-0.128
271	-0.133
272	-0.133
272	-0.123
272	-0.123
273	-0.118
273	-0.126
274	-0.135
274	-0.136
275	-0.138
275	-0.122
276	-0.125
276	-0.116
277	-0.121
277	-0.138
278	-0.142
278	-0.144
278	-0.14
279	-0.137
279	-0.135
280	-0.135
280	-0.136
281	-0.129
281	-0.133
282	-0.134
282	-0.129
283	-0.12
283	-0.118
284	-0.114
284	-0.108
285	-0.113
285	-0.103
285	-0.099
286	-0.102
286	-0.104
287	-0.098
287	-0.09
288	-0.088
288	-0.09
289	-0.098
289	-0.097
290	-0.088
290	-0.09
291	-0.09
291	-0.092
292	-0.086
292	-0.085
292	-0.081
293	-0.082
293	-0.074
294	-0.068
294	-0.071
295	-0.074
295	-0.079
296	-0.081
296	-0.074
297	-0.075
297	-0.066
298	-0.064
298	-0.067
298	-0.066
299	-0.062
299	-0.059
300	-0.052
300	-0.042
301	-0.031
301	-0.034
302	-0.039
302	-0.045
303	-0.04
303	-0.034
304	-0.033
304	-0.032
305	-0.031
305	-0.033
305	-0.024
306	-0.022
306	-0.016
307	-0.009
307	-0.013
308	-0.021
308	-0.017
309	-0.017
309	-0.008
310	0.003
310	0.005
311	-0
311	-0.005
311	-0.001
312	-0.001
312	-0.002
313	0.01
313	0.013
314	0.015
314	0.018
315	0.012
315	0.011
316	0.016
316	0.02
317	0.024
317	0.029
318	0.039
318	0.04
318	0.041
319	0.051
319	0.052
320	0.056
320	0.055
321	0.048
321	0.054
322	0.053
322	0.061
323	0.065
323	0.064
324	0.068
324	0.071
324	0.069
325	0.074
325	0.086
326	0.094
326	0.1
327	0.108
327	0.116
328	0.129
328	0.141
329	0.151
329	0.162
330	0.182
330	0.198
330	0.21
331	0.229
331	0.242
332	0.255
332	0.264
333	0.272
333	0.283
334	0.292
334	0.297
335	0.304
335	0.31
336	0.314
336	0.318
336	0.321
337	0.325
337	0.326
338	0.329
338	0.33
339	0.331
339	0.333
340	0.334
340	0.334
341	0.335
341	0.336
342	0.337
342	0.337
342	0.339
343	0.339
343	0.34
344	0.341
344	0.341
345	0.341
345	0.341
346	0.342
346	0.341
347	0.342
347	0.341
348	0.341
348	0.341
348	0.341
349	0.34
349	0.341
350	0.34
350	0.34
351	0.34
351	0.339
352	0.339
352	0.339
353	0.339
353	0.339
354	0.338
354	0.338
354	0.338
355	0.338
355	0.338
356	0.337
356	0.337
357	0.336
357	0.336
358	0.336
358	0.336
359	0.335
359	0.335
360	0.335
360	0.334
360	0.334
361	0.333
361	0.333
362	0.333
362	0.332
363	0.332
363	0.332
364	0.332
364	0.332
365	0.332
365	0.331
366	0.331
366	0.331
366	0.331
367	0.331
367	0.331
368	0.33
368	0.33
369	0.33
369	0.329
370	0.329
370	0.329
371	0.329
371	0.328
372	0.328
372	0.328
372	0.327
373	0.327
373	0.327
374	0.326
374	0.326
375	0.326
375	0.326
376	0.326
376	0.325
377	0.325
377	0.325
378	0.325
378	0.325
378	0.325
379	0.325
379	0.324
380	0.324
380	0.323
381	0.323
381	0.323
382	0.322
382	0.322
383	0.322
383	0.321
383	0.321
384	0.321
384	0.321
385	0.321
385	0.321
386	0.321
386	0.32
387	0.32
387	0.32
388	0.319
388	0.319
389	0.319
389	0.319
389	0.318
390	0.318
390	0.318
391	0.318
391	0.317
392	0.317
392	0.317
393	0.316
393	0.316
394	0.316
394	0.316
394	0.315
395	0.315
395	0.315
396	0.314
396	0.314
397	0.314
397	0.314
398	0.313
398	0.313
399	0.313
399	0.312
400	0.312
400	0.312
400	0.311
401	0.311
401	0.31
402	0.31
402	0.31
403	0.309
403	0.309
404	0.309
404	0.308
405	0.308
405	0.308
405	0.308
406	0.308
406	0.307
407	0.307
407	0.307
408	0.307
408	0.307
409	0.307
409	0.306
410	0.306
410	0.306
411	0.306
411	0.306
411	0.306
412	0.306
412	0.305
413	0.305
413	0.304
414	0.304
414	0.304
415	0.304
415	0.303
416	0.303
416	0.303
416	0.303
417	0.303
417	0.302
418	0.302
418	0.302
419	0.302
419	0.302
420	0.302
420	0.302
421	0.301
421	0.301
421	0.301
422	0.301
422	0.301
423	0.301
423	0.301
424	0.301
424	0.3
425	0.3
425	0.3
426	0.3
426	0.3
427	0.299
427	0.299
427	0.299
428	0.298
428	0.298
429	0.298
429	0.298
430	0.298
430	0.298
431	0.297
431	0.297
432	0.297
432	0.297
432	0.297
433	0.297
433	0.296
434	0.296
434	0.296
435	0.296
435	0.296
436	0.296
436	0.296
437	0.296
437	0.296
437	0.296
438	0.296
438	0.295
439	0.295
439	0.295
440	0.295
440	0.295
441	0.294
441	0.294
442	0.294
442	0.294
442	0.293
443	0.293
443	0.293
444	0.293
444	0.293
445	0.293
445	0.293
446	0.294
446	0.294
447	0.294
447	0.294
447	0.294
448	0.294
448	0.294
449	0.294
449	0.294
450	0.294
450	0.294
451	0.294
451	0.294
452	0.294
452	0.295
452	0.294
453	0.294
453	0.294
454	0.294
454	0.294
455	0.294
455	0.294
456	0.294
456	0.294
457	0.294
457	0.294
458	0.294
458	0.294
458	0.294
459	0.294
459	0.295
460	0.295
460	0.295
461	0.295
461	0.295
462	0.295
462	0.296
463	0.296
463	0.296
463	0.297
464	0.297
464	0.297
465	0.297
465	0.298
466	0.298
466	0.298
467	0.299
467	0.299
467	0.3
468	0.3
468	0.3
469	0.301
469	0.301
470	0.302
470	0.302
471	0.303
471	0.303
472	0.303
472	0.303
472	0.304
473	0.304
473	0.304
474	0.305
474	0.305
475	0.306
475	0.306
476	0.307
476	0.307
477	0.308
477	0.309
477	0.309
478	0.31
478	0.311
479	0.312
479	0.312
480	0.313
480	0.314
481	0.315
481	0.316
482	0.316
482	0.317
482	0.318
483	0.319
483	0.319
484	0.32
484	0.32
485	0.321
485	0.322
486	0.323
486	0.324
487	0.325
487	0.326
487	0.327
488	0.328
488	0.33
489	0.332
489	0.334
490	0.336
490	0.337
491	0.339
491	0.34
492	0.342
492	0.343
492	0.345
493	0.347
493	0.348
494	0.35
494	0.351
495	0.353
495	0.355
496	0.357
496	0.359
496	0.361
497	0.363
497	0.365
498	0.367
498	0.37
499	0.372
499	0.374
500	0.377
500	0.379
501	0.382
501	0.384
501	0.386
502	0.387
502	0.389
503	0.392
503	0.394
504	0.396
504	0.398
505	0.401
505	0.403
506	0.406
506	0.408
506	0.411
507	0.414
507	0.416
508	0.419
508	0.422
509	0.424
509	0.427
510	0.429
510	0.431
511	0.433
511	0.436
511	0.438
512	0.44
512	0.442
513	0.445
513	0.447
514	0.449
514	0.451
515	0.454
515	0.456
515	0.458
516	0.46
516	0.463
517	0.465
517	0.467
518	0.469
518	0.471
519	0.473
519	0.475
520	0.477
520	0.479
520	0.481
521	0.483
521	0.485
522	0.487
522	0.488
523	0.49
523	0.492
524	0.493
524	0.494
524	0.495
525	0.496
525	0.497
526	0.498
526	0.499
527	0.5
527	0.501
528	0.502
528	0.503
529	0.503
529	0.504
529	0.505
530	0.505
530	0.505
531	0.506
531	0.506
532	0.506
532	0.507
533	0.507
533	0.507
533	0.507
534	0.507
534	0.507
535	0.507
535	0.507
536	0.507
536	0.507
537	0.506
537	0.506
538	0.505
538	0.505
538	0.504
539	0.504
539	0.503
540	0.503
540	0.502
541	0.501
541	0.5
542	0.499
542	0.497
542	0.496
543	0.495
543	0.493
544	0.492
544	0.491
545	0.489
545	0.488
546	0.487
546	0.486
547	0.485
547	0.484
547	0.483
548	0.482
548	0.48
549	0.479
549	0.478
550	0.476
550	0.475
551	0.474
551	0.472
551	0.471
552	0.469
552	0.468
553	0.466
553	0.465
554	0.464
554	0.462
555	0.461
555	0.459
556	0.458
556	0.456
556	0.455
557	0.453
557	0.452
558	0.45
558	0.449
559	0.447
559	0.445
560	0.444
560	0.442
560	0.441
561	0.439
561	0.438
562	0.436
562	0.434
563	0.433
563	0.431
564	0.43
564	0.428
564	0.426
565	0.424
565	0.423
566	0.421
566	0.419
567	0.417
567	0.414
568	0.412
568	0.41
568	0.408
569	0.407
569	0.405
570	0.403
570	0.401
571	0.4
571	0.398
572	0.397
572	0.395
573	0.393
573	0.392
573	0.39
574	0.389
574	0.387
575	0.386
575	0.384
576	0.383
576	0.381
577	0.38
577	0.379
577	0.378
578	0.377
578	0.375
579	0.374
579	0.372
580	0.371
580	0.369
581	0.368
581	0.367
581	0.365
582	0.364
582	0.362
583	0.361
583	0.359
584	0.358
584	0.357
585	0.355
585	0.353
585	0.352
586	0.351
586	0.35
587	0.349
587	0.348
588	0.347
588	0.346
589	0.345
589	0.344
590	0.343
590	0.341
590	0.34
591	0.338
591	0.336
592	0.335
592	0.333
593	0.332
593	0.331
594	0.329
594	0.328
594	0.327
595	0.326
595	0.325
596	0.324
596	0.323
597	0.321
597	0.319
598	0.318
598	0.317
598	0.316
599	0.314
599	0.313
600	0.312
600	0.311
601	0.309
601	0.308
602	0.306
602	0.305
602	0.304
603	0.303
603	0.302
604	0.301
604	0.3
605	0.299
605	0.298
606	0.296
606	0.295
606	0.294
607	0.293
607	0.292
608	0.29
608	0.289
609	0.288
609	0.287
610	0.285
610	0.284
610	0.283
611	0.282
611	0.281
612	0.28
612	0.279
613	0.278
613	0.277
614	0.276
614	0.274
614	0.273
615	0.272
615	0.271
616	0.269
616	0.268
617	0.266
617	0.265
618	0.263
618	0.261
618	0.26
619	0.259
619	0.257
620	0.256
620	0.254
621	0.253
621	0.252
622	0.25
622	0.249
622	0.247
623	0.246
623	0.245
624	0.244
624	0.242
625	0.241
625	0.24
626	0.239
626	0.238
626	0.237
627	0.235
627	0.234
628	0.232
628	0.23
629	0.228
629	0.226
630	0.224
630	0.222
630	0.219
631	0.216
631	0.213
632	0.21
632	0.207
633	0.204
633	0.201
634	0.197
634	0.193
634	0.19
635	0.186
635	0.181
636	0.177
636	0.173
637	0.168
637	0.163
638	0.158
638	0.153
638	0.148
639	0.142
639	0.137
640	0.131
640	0.125
641	0.12
641	0.115
642	0.109
642	0.104
642	0.099
643	0.093
643	0.087
644	0.081
644	0.074
645	0.068
645	0.062
646	0.055
646	0.048
646	0.041
647	0.035
647	0.028
648	0.022
648	0.016
649	0.009
649	0.002
650	-0.004
650	-0.011
650	-0.017
651	-0.025
651	-0.036
652	-0.048
652	-0.06
653	-0.072
653	-0.081
653	-0.078
654	-0.057
654	-0.042
655	-0.042
655	-0.045
656	-0.048
656	-0.051
657	-0.053
657	-0.055
657	-0.059
658	-0.062
658	-0.084
659	-0.157
659	-0.249
660	-0.29
660	-0.316
661	-0.344
661	-0.377
661	-0.414
662	-0.453
662	-0.495
663	-0.542
663	-0.594
664	-0.647
664	-0.707
665	-0.769
665	-0.839
665	-0.903
666	-0.97
666	-1.04
667	-1.114
667	-1.188
668	-1.269
668	-1.353
669	-1.44
669	-1.533
669	-1.648
670	-1.83
670	-2.043
671	-2.149
671	-2.269
672	-2.421
672	-2.566
672	-2.664
673	-2.735
673	-2.76
674	-2.776
674	-2.785
675	-2.792
675	-2.878
676	-3.029
676	-2.964
676	-2.717
677	-2.475
677	-2.24
678	-1.869
678	-1.666
679	-1.541
679	-1.444
680	-1.364
680	-1.294
680	-1.234
681	-1.193
681	-1.136
682	-1.093
682	-1.055
683	-1.018
683	-0.996
684	-0.968
684	-0.942
684	-0.914
685	-0.884
685	-0.855
686	-0.825
686	-0.801
687	-0.769
687	-0.749
687	-0.722
688	-0.691
688	-0.664
689	-0.639
689	-0.621
690	-0.596
690	-0.577
691	-0.565
691	-0.565
691	-0.574
692	-0.562
692	-0.548
693	-0.537
693	-0.539
694	-0.53
694	-0.517
695	-0.514
695	-0.507
695	-0.49
696	-0.482
696	-0.456
697	-0.453
697	-0.463
698	-0.464
698	-0.449
698	-0.451
699	-0.45
699	-0.447
700	-0.438
700	-0.446
701	-0.444
701	-0.448
702	-0.444
702	-0.43
702	-0.421
703	-0.416
703	-0.41
704	-0.405
704	-0.404
705	-0.411
705	-0.402
705	-0.388
706	-0.387
706	-0.38
707	-0.381
707	-0.373
708	-0.369
708	-0.359
709	-0.359
709	-0.357
709	-0.345
710	-0.347
710	-0.353
711	-0.346
711	-0.345
712	-0.345
712	-0.353
713	-0.348
713	-0.356
713	-0.349
714	-0.342
714	-0.344
715	-0.338
715	-0.323
716	-0.322
716	-0.321
716	-0.31
717	-0.311
717	-0.319
718	-0.31
718	-0.312
719	-0.318
719	-0.316
720	-0.311
720	-0.318
720	-0.313
721	-0.309
721	-0.311
722	-0.295
722	-0.283
723	-0.277
723	-0.275
723	-0.263
724	-0.263
724	-0.261
725	-0.259
725	-0.269
726	-0.274
726	-0.277
727	-0.281
727	-0.287
727	-0.293
728	-0.295
728	-0.302
729	-0.301
729	-0.309
730	-0.315
730	-0.309
730	-0.299
731	-0.281
731	-0.293
732	-0.302
732	-0.303
733	-0.295
733	-0.298
734	-0.291
734	-0.29
734	-0.278
735	-0.27
735	-0.269
736	-0.276
736	-0.268
737	-0.258
737	-0.26
737	-0.272
738	-0.262
738	-0.258
739	-0.254
739	-0.263
740	-0.264
740	-0.263
741	-0.264
741	-0.256
741	-0.256
742	-0.254
742	-0.253
743	-0.261
743	-0.271
744	-0.272
744	-0.269
744	-0.273
745	-0.282
745	-0.269
746	-0.268
746	-0.269
747	-0.266
747	-0.251
748	-0.241
748	-0.237
748	-0.233
749	-0.229
749	-0.224
750	-0.213
750	-0.219
751	-0.224
751	-0.229
751	-0.233
752	-0.238
752	-0.244
753	-0.247
753	-0.244
754	-0.245
754	-0.244
754	-0.256
755	-0.262
755	-0.271
756	-0.261
756	-0.262
757	-0.266
757	-0.264
758	-0.27
758	-0.272
758	-0.278
759	-0.279
759	-0.266
760	-0.259
760	-0.255
761	-0.268
761	-0.259
761	-0.254
762	-0.258
762	-0.248
763	-0.253
763	-0.248
764	-0.248
764	-0.254
764	-0.262
765	-0.255
765	-0.241
766	-0.246
766	-0.253
767	-0.264
767	-0.259
768	-0.254
768	-0.264
768	-0.272
769	-0.282
769	-0.284
770	-0.286
770	-0.295
771	-0.291
771	-0.292
771	-0.295
772	-0.301
772	-0.292
773	-0.284
773	-0.276
774	-0.27
774	-0.271
775	-0.271
775	-0.266
775	-0.274
776	-0.276
776	-0.266
777	-0.277
777	-0.306
778	-0.312
778	-0.324
778	-0.32
779	-0.342
779	-0.354
780	-0.363
780	-0.363
781	-0.373
781	-0.374
781	-0.384
782	-0.384
782	-0.385
783	-0.386
783	-0.388
784	-0.374
784	-0.366
784	-0.383
785	-0.398
785	-0.386
786	-0.387
786	-0.366
787	-0.35
787	-0.344
788	-0.342
788	-0.339
788	-0.339
789	-0.329
789	-0.304
790	-0.276
790	-0.272
791	-0.264
791	-0.275
791	-0.276
792	-0.275
792	-0.253
793	-0.245
793	-0.227
794	-0.236
794	-0.228
794	-0.236
795	-0.231
795	-0.233
796	-0.223
796	-0.229
797	-0.225
797	-0.229
797	-0.242
798	-0.255
798	-0.246
799	-0.256
799	-0.249
800	-0.257
800	-0.243
801	-0.244
801	-0.23
801	-0.24
802	-0.247
802	-0.244
803	-0.245
803	-0.257
804	-0.25
804	-0.255
804	-0.244
805	-0.257
805	-0.254
806	-0.258
806	-0.245
807	-0.245
807	-0.233
807	-0.223
808	-0.218
808	-0.215
809	-0.206
809	-0.223
810	-0.22
810	-0.217
810	-0.216
811	-0.221
811	-0.218
812	-0.217
812	-0.221
813	-0.222
813	-0.221
813	-0.228
814	-0.221
814	-0.225
815	-0.225
815	-0.224
816	-0.216
816	-0.217
817	-0.225
817	-0.237
817	-0.245
818	-0.254
818	-0.253
819	-0.242
819	-0.245
820	-0.252
820	-0.252
820	-0.259
821	-0.259
821	-0.243
822	-0.217
822	-0.207
823	-0.204
823	-0.199
823	-0.203
824	-0.199
824	-0.204
825	-0.203
825	-0.19
826	-0.181
826	-0.193
826	-0.211
827	-0.204
827	-0.2
828	-0.193
828	-0.194
829	-0.182
829	-0.176
829	-0.166
830	-0.18
830	-0.184
831	-0.181
831	-0.167
832	-0.165
832	-0.16
832	-0.169
833	-0.161
833	-0.171
834	-0.168
834	-0.178
835	-0.162
835	-0.162
835	-0.16
836	-0.16
836	-0.164
837	-0.165
837	-0.156
838	-0.152
838	-0.143
839	-0.138
839	-0.133
839	-0.131
840	-0.121
840	-0.121
841	-0.115
841	-0.108
842	-0.102
842	-0.101
842	-0.101
843	-0.099
843	-0.095
844	-0.092
844	-0.092
845	-0.09
845	-0.081
845	-0.075
846	-0.067
846	-0.066
847	-0.059
847	-0.056
848	-0.052
848	-0.049
848	-0.04
849	-0.036
849	-0.033
850	-0.029
850	-0.028
851	-0.029
851	-0.026
851	-0.022
852	-0.015
852	-0.011
853	-0.009
853	-0.008
854	-0.003
854	0.001
854	0.003
855	0.007
855	0.009
856	0.013
856	0.015
857	0.016
857	0.02
857	0.024
858	0.026
858	0.027
859	0.03
859	0.032
860	0.035
860	0.036
860	0.037
861	0.038
861	0.04
862	0.039
862	0.041
863	0.041
863	0.043
863	0.043
864	0.043
864	0.044
865	0.045
865	0.046
866	0.047
866	0.047
866	0.047
867	0.047
867	0.048
868	0.048
868	0.049
869	0.05
869	0.05
869	0.05
870	0.05
870	0.051
871	0.052
871	0.053
872	0.053
872	0.053
872	0.053
873	0.054
873	0.054
874	0.054
874	0.054
875	0.054
875	0.054
875	0.054
876	0.053
876	0.053
877	0.053
877	0.053
878	0.053
878	0.052
878	0.051
879	0.051
879	0.051
880	0.05
880	0.05
881	0.05
881	0.05
881	0.05
882	0.049
882	0.049
883	0.048
883	0.048
884	0.047
884	0.047
884	0.046
885	0.046
885	0.046
886	0.046
886	0.045
887	0.045
887	0.046
887	0.047
888	0.047
888	0.048
889	0.048
889	0.049
890	0.05
890	0.05
890	0.051
891	0.051
891	0.051
892	0.051
892	0.051
893	0.051
893	0.051
893	0.051
894	0.05
894	0.049
895	0.048
895	0.047
895	0.046
896	0.045
896	0.044
897	0.043
897	0.041
898	0.041
898	0.04
898	0.039
899	0.039
899	0.039
900	0.039
900	0.038
901	0.039
901	0.039
901	0.039
902	0.039
902	0.039
903	0.039
903	0.039
904	0.039
904	0.04
904	0.04
905	0.04
905	0.04
906	0.04
906	0.04
907	0.039
907	0.038
907	0.038
908	0.037
908	0.036
909	0.036
909	0.035
910	0.034
910	0.033
910	0.033
911	0.032
911	0.032
912	0.033
912	0.033
913	0.033
913	0.033
913	0.034
914	0.034
914	0.035
915	0.036
915	0.036
916	0.037
916	0.037
916	0.038
917	0.038
917	0.038
918	0.038
918	0.038
918	0.037
919	0.037
919	0.037
920	0.037
920	0.037
921	0.038
921	0.038
921	0.038
922	0.039
922	0.039
923	0.039
923	0.04
924	0.041
924	0.041
924	0.041
925	0.041
925	0.041
926	0.04
926	0.04
927	0.04
927	0.039
927	0.039
928	0.038
928	0.038
929	0.037
929	0.037
930	0.037
930	0.037
930	0.037
931	0.037
931	0.037
932	0.037
932	0.037
933	0.037
933	0.037
933	0.037
934	0.036
934	0.036
935	0.036
935	0.036
935	0.035
936	0.035
936	0.034
937	0.034
937	0.034
938	0.034
938	0.034
938	0.035
939	0.035
939	0.035
940	0.035
940	0.035
941	0.035
941	0.035
941	0.035
942	0.035
942	0.035
943	0.034
943	0.034
944	0.033
944	0.033
944	0.032
945	0.032
945	0.031
946	0.031
946	0.03
946	0.03
947	0.029
947	0.029
948	0.029
948	0.03
949	0.03
949	0.031
949	0.031
950	0.031
950	0.031
951	0.032
951	0.033
952	0.033
952	0.034
952	0.034
953	0.035
953	0.035
954	0.035
954	0.036
955	0.037
955	0.037
955	0.038
956	0.038
956	0.039
957	0.038
957	0.038
957	0.039
958	0.039
958	0.039
959	0.04
959	0.04
960	0.04
960	0.04
960	0.04
961	0.039
961	0.04
962	0.04
962	0.039
963	0.039
963	0.039
963	0.039
964	0.039
964	0.039
965	0.039
965	0.039
966	0.038
966	0.038
966	0.038
967	0.037
967	0.037
968	0.036
968	0.036
968	0.035
969	0.034
969	0.034
970	0.034
970	0.034
971	0.033
971	0.033
971	0.033
972	0.033
972	0.032
973	0.032
973	0.031
974	0.03
974	0.03
974	0.029
975	0.028
975	0.027
976	0.026
976	0.026
976	0.025
977	0.025
977	0.025
978	0.025
978	0.025
979	0.025
979	0.025
979	0.025
980	0.026
980	0.026
981	0.027
981	0.027
982	0.027
982	0.026
982	0.026
983	0.025
983	0.025
984	0.025
984	0.025
984	0.025
985	0.024
985	0.025
986	0.025
986	0.025
987	0.026
987	0.026
987	0.027
988	0.027
988	0.028
989	0.028
989	0.027
990	0.027
990	0.026
990	0.026
991	0.025
991	0.025
992	0.024
992	0.024
992	0.024
993	0.023
993	0.023
994	0.023
994	0.023
995	0.023
995	0.023
995	0.024
996	0.024
996	0.024
997	0.024
997	0.024
997	0.025
998	0.025
998	0.025
999	0.025
999	0.025
1000	0.025
1000	0.025
1000	0.025
1001	0.025
1001	0.024
1002	0.024
1002	0.024
1003	0.023
1003	0.023
1003	0.022
1004	0.022
1004	0.021
1005	0.02
1005	0.019
1005	0.018
1006	0.017
1006	0.017
1007	0.016
1007	0.016
1008	0.015
1008	0.015
1008	0.015
1009	0.015
1009	0.015
1010	0.015
1010	0.015
1010	0.015
1011	0.015
1011	0.014
1012	0.014
1012	0.013
1013	0.011
1013	0.01
1013	0.009
1014	0.008
1014	0.007
1015	0.006
1015	0.006
1016	0.005
1016	0.004
1016	0.004
1017	0.004
1017	0.003
1018	0.003
1018	0.003
1018	0.002
1019	0.002
1019	0.001
1020	-0
1020	-0.001
1021	-0.002
1021	-0.003
1021	-0.004
1022	-0.004
1022	-0.005
1023	-0.006
1023	-0.006
1023	-0.006
1024	-0.006
1024	-0.006
1025	-0.006
1025	-0.005
1026	-0.005
1026	-0.004
1026	-0.003
1027	-0.003
1027	-0.002
1028	-0.001
1028	-0.001
1028	-0.001
1029	-0.001
1029	-0
1030	-0.001
1030	-0.001
1031	-0.001
1031	-0
1031	-0
1032	0
1032	0.001
1033	0.001
1033	0.002
1033	0.003
1034	0.004
1034	0.004
1035	0.005
1035	0.005
1036	0.005
1036	0.006
1036	0.006
1037	0.005
1037	0.005
1038	0.005
1038	0.005
1039	0.005
1039	0.005
1039	0.005
1040	0.005
1040	0.006
1041	0.006
1041	0.007
1041	0.007
1042	0.008
1042	0.008
1043	0.008
1043	0.008
1044	0.009
1044	0.009
1044	0.009
1045	0.008
1045	0.008
1046	0.008
1046	0.009
1046	0.009
1047	0.009
1047	0.01
1048	0.01
1048	0.01
1049	0.011
1049	0.011
1049	0.011
1050	0.011
1050	0.012
1051	0.012
1051	0.012
1051	0.012
1052	0.012
1052	0.012
1053	0.012
1053	0.012
1053	0.012
1054	0.012
1054	0.011
1055	0.01
1055	0.01
1056	0.009
1056	0.007
1056	0.006
1057	0.005
1057	0.004
1058	0.004
1058	0.003
1058	0.002
1059	0.002
1059	0.002
1060	0.002
1060	0.002
1061	0.002
1061	0.002
1061	0.002
1062	0.002
1062	0.002
1063	0.002
1063	0.002
1063	0.002
1064	0.003
1064	0.002
1065	0.002
1065	0.002
1066	0.001
1066	0.001
1066	0.001
1067	0.001
1067	0
1068	-0
1068	-0
1068	-0
1069	-0
1069	-0
1070	-0
1070	0
1071	-0
1071	0
1071	0
1072	0
1072	-0
1073	-0
1073	-0.001
1073	-0.002
1074	-0.002
1074	-0.002
1075	-0.002
1075	-0.003
1076	-0.003
1076	-0.004
1076	-0.004
1077	-0.005
1077	-0.005
1078	-0.006
1078	-0.006
1078	-0.007
1079	-0.008
1079	-0.008
1080	-0.009
1080	-0.01
1080	-0.01
1081	-0.011
1081	-0.011
1082	-0.012
1082	-0.013
1083	-0.013
1083	-0.013
1083	-0.013
1084	-0.013
1084	-0.013
1085	-0.014
1085	-0.013
1085	-0.013
1086	-0.013
1086	-0.013
1087	-0.012
1087	-0.012
1088	-0.012
1088	-0.011
1088	-0.012
1089	-0.011
1089	-0.011
1090	-0.012
1090	-0.012
1090	-0.012
1091	-0.012
1091	-0.011
1092	-0.012
1092	-0.011
1092	-0.011
1093	-0.01
1093	-0.01
1094	-0.01
1094	-0.01
1095	-0.009
1095	-0.009
1095	-0.009
1096	-0.009
1096	-0.008
1097	-0.009
1097	-0.009
1097	-0.009
1098	-0.009
1098	-0.008
1099	-0.008
1099	-0.007
1100	-0.007
1100	-0.007
1100	-0.007
1101	-0.008
1101	-0.009
1102	-0.009
1102	-0.01
1102	-0.01
1103	-0.011
1103	-0.011
1104	-0.012
1104	-0.011
1104	-0.012
1105	-0.013
1105	-0.013
1106	-0.015
1106	-0.016
1107	-0.016
1107	-0.017
1107	-0.018
1108	-0.019
1108	-0.02
1109	-0.021
1109	-0.023
1109	-0.022
1110	-0.023
1110	-0.023
1111	-0.022
1111	-0.026
