Data from 17C_3.4A_30min_2sec_int_Absorbance__48__00048.txt Node

Date: Mon Jun 19 16:06:48 CEST 2023
User: Marek
Spectrometer: MAYP115816
Trigger mode: 0
Integration Time (sec): 2.500000E-1
Scans to average: 10
Electric dark correction enabled: true
Nonlinearity correction enabled: true
Boxcar width: 5
XAxis mode: Wavelengths
Number of Pixels in Spectrum: 2068
>>>>>Begin Spectral Data<<<<<
199	-0.213
199	-0.215
200	-0.133
200	-0.105
201	-0.079
201	-0.078
202	-0.062
202	-0.059
203	-0.056
203	-0.053
204	-0.043
204	-0.038
205	-0.025
205	-0.028
205	-0.023
206	-0.026
206	-0.024
207	-0.019
207	-0.02
208	-0.018
208	-0.014
209	-0.015
209	-0.013
210	-0.017
210	-0.019
211	-0.021
211	-0.022
212	-0.025
212	-0.031
213	-0.027
213	-0.025
213	-0.029
214	-0.021
214	-0.021
215	-0.022
215	-0.025
216	-0.026
216	-0.029
217	-0.023
217	-0.029
218	-0.039
218	-0.04
219	-0.046
219	-0.053
220	-0.051
220	-0.055
221	-0.053
221	-0.056
221	-0.051
222	-0.05
222	-0.046
223	-0.04
223	-0.039
224	-0.043
224	-0.043
225	-0.044
225	-0.036
226	-0.038
226	-0.038
227	-0.043
227	-0.048
228	-0.049
228	-0.047
229	-0.051
229	-0.044
229	-0.037
230	-0.047
230	-0.051
231	-0.047
231	-0.041
232	-0.03
232	-0.033
233	-0.03
233	-0.035
234	-0.04
234	-0.036
235	-0.041
235	-0.033
236	-0.035
236	-0.039
236	-0.046
237	-0.056
237	-0.053
238	-0.058
238	-0.051
239	-0.047
239	-0.06
240	-0.062
240	-0.063
241	-0.058
241	-0.056
242	-0.055
242	-0.047
243	-0.042
243	-0.042
243	-0.05
244	-0.045
244	-0.04
245	-0.043
245	-0.039
246	-0.046
246	-0.046
247	-0.048
247	-0.061
248	-0.07
248	-0.065
249	-0.066
249	-0.064
250	-0.064
250	-0.066
250	-0.073
251	-0.07
251	-0.074
252	-0.075
252	-0.064
253	-0.064
253	-0.076
254	-0.072
254	-0.083
255	-0.088
255	-0.077
256	-0.072
256	-0.088
257	-0.083
257	-0.082
258	-0.09
258	-0.083
258	-0.082
259	-0.082
259	-0.086
260	-0.082
260	-0.091
261	-0.096
261	-0.084
262	-0.076
262	-0.07
263	-0.061
263	-0.066
264	-0.057
264	-0.065
265	-0.061
265	-0.065
265	-0.065
266	-0.064
266	-0.062
267	-0.074
267	-0.085
268	-0.095
268	-0.1
269	-0.103
269	-0.094
270	-0.091
270	-0.095
271	-0.089
271	-0.091
272	-0.083
272	-0.085
272	-0.082
273	-0.08
273	-0.085
274	-0.084
274	-0.087
275	-0.089
275	-0.082
276	-0.087
276	-0.079
277	-0.092
277	-0.102
278	-0.097
278	-0.093
278	-0.08
279	-0.08
279	-0.083
280	-0.081
280	-0.083
281	-0.077
281	-0.078
282	-0.073
282	-0.075
283	-0.073
283	-0.077
284	-0.071
284	-0.068
285	-0.057
285	-0.052
285	-0.051
286	-0.056
286	-0.054
287	-0.052
287	-0.032
288	-0.033
288	-0.035
289	-0.05
289	-0.051
290	-0.051
290	-0.055
291	-0.043
291	-0.042
292	-0.043
292	-0.044
292	-0.043
293	-0.035
293	-0.028
294	-0.019
294	-0.016
295	-0.015
295	-0.009
296	-0.016
296	-0.014
297	-0.012
297	-0
298	-0.003
298	-0.01
298	-0.006
299	-0.001
299	0.003
300	0.005
300	0.008
301	0.01
301	0.011
302	0
302	-0.001
303	0.004
303	0.009
304	0.007
304	0.009
305	0.007
305	0.004
305	0.004
306	0.015
306	0.016
307	0.022
307	0.019
308	0.017
308	0.014
309	0.015
309	0.02
310	0.028
310	0.027
311	0.025
311	0.024
311	0.023
312	0.028
312	0.025
313	0.034
313	0.041
314	0.04
314	0.04
315	0.038
315	0.044
316	0.053
316	0.053
317	0.06
317	0.065
318	0.072
318	0.073
318	0.075
319	0.087
319	0.09
320	0.098
320	0.096
321	0.087
321	0.091
322	0.096
322	0.093
323	0.092
323	0.09
324	0.097
324	0.099
324	0.103
325	0.105
325	0.115
326	0.122
326	0.128
327	0.135
327	0.148
328	0.167
328	0.175
329	0.182
329	0.196
330	0.208
330	0.222
330	0.235
331	0.249
331	0.259
332	0.268
332	0.275
333	0.28
333	0.288
334	0.293
334	0.298
335	0.303
335	0.307
336	0.309
336	0.312
336	0.316
337	0.32
337	0.323
338	0.325
338	0.326
339	0.328
339	0.329
340	0.33
340	0.331
341	0.332
341	0.333
342	0.333
342	0.333
342	0.334
343	0.334
343	0.335
344	0.336
344	0.335
345	0.335
345	0.335
346	0.335
346	0.335
347	0.336
347	0.335
348	0.335
348	0.335
348	0.335
349	0.334
349	0.334
350	0.334
350	0.334
351	0.333
351	0.333
352	0.333
352	0.333
353	0.333
353	0.333
354	0.332
354	0.332
354	0.332
355	0.332
355	0.332
356	0.332
356	0.331
357	0.331
357	0.331
358	0.33
358	0.33
359	0.33
359	0.329
360	0.329
360	0.328
360	0.328
361	0.328
361	0.327
362	0.327
362	0.327
363	0.327
363	0.327
364	0.327
364	0.327
365	0.327
365	0.326
366	0.327
366	0.326
366	0.326
367	0.326
367	0.326
368	0.326
368	0.326
369	0.325
369	0.325
370	0.325
370	0.324
371	0.324
371	0.324
372	0.324
372	0.323
372	0.323
373	0.323
373	0.323
374	0.322
374	0.322
375	0.322
375	0.322
376	0.322
376	0.321
377	0.321
377	0.321
378	0.321
378	0.321
378	0.321
379	0.321
379	0.321
380	0.32
380	0.32
381	0.319
381	0.319
382	0.319
382	0.319
383	0.318
383	0.318
383	0.318
384	0.317
384	0.317
385	0.317
385	0.317
386	0.317
386	0.317
387	0.317
387	0.316
388	0.316
388	0.316
389	0.316
389	0.316
389	0.316
390	0.315
390	0.315
391	0.315
391	0.314
392	0.314
392	0.314
393	0.314
393	0.313
394	0.313
394	0.313
394	0.312
395	0.312
395	0.312
396	0.312
396	0.312
397	0.311
397	0.311
398	0.311
398	0.311
399	0.311
399	0.31
400	0.31
400	0.31
400	0.31
401	0.309
401	0.309
402	0.309
402	0.308
403	0.308
403	0.307
404	0.307
404	0.307
405	0.307
405	0.306
405	0.306
406	0.306
406	0.305
407	0.305
407	0.305
408	0.305
408	0.305
409	0.304
409	0.304
410	0.304
410	0.304
411	0.304
411	0.304
411	0.304
412	0.304
412	0.304
413	0.303
413	0.303
414	0.302
414	0.302
415	0.302
415	0.302
416	0.302
416	0.301
416	0.301
417	0.301
417	0.301
418	0.301
418	0.301
419	0.301
419	0.3
420	0.3
420	0.3
421	0.3
421	0.3
421	0.299
422	0.299
422	0.299
423	0.299
423	0.299
424	0.299
424	0.299
425	0.299
425	0.298
426	0.298
426	0.298
427	0.298
427	0.298
427	0.297
428	0.297
428	0.297
429	0.297
429	0.297
430	0.297
430	0.297
431	0.296
431	0.296
432	0.296
432	0.296
432	0.296
433	0.296
433	0.295
434	0.295
434	0.295
435	0.295
435	0.294
436	0.294
436	0.294
437	0.294
437	0.294
437	0.294
438	0.294
438	0.294
439	0.294
439	0.293
440	0.293
440	0.293
441	0.293
441	0.292
442	0.292
442	0.292
442	0.292
443	0.292
443	0.292
444	0.292
444	0.292
445	0.291
445	0.291
446	0.292
446	0.292
447	0.291
447	0.291
447	0.291
448	0.291
448	0.291
449	0.291
449	0.291
450	0.292
450	0.292
451	0.292
451	0.292
452	0.292
452	0.292
452	0.292
453	0.291
453	0.291
454	0.291
454	0.291
455	0.291
455	0.291
456	0.29
456	0.29
457	0.29
457	0.29
458	0.29
458	0.29
458	0.29
459	0.29
459	0.29
460	0.29
460	0.291
461	0.291
461	0.291
462	0.291
462	0.291
463	0.291
463	0.292
463	0.292
464	0.292
464	0.292
465	0.292
465	0.292
466	0.292
466	0.293
467	0.293
467	0.293
467	0.294
468	0.294
468	0.294
469	0.295
469	0.295
470	0.295
470	0.296
471	0.296
471	0.296
472	0.297
472	0.297
472	0.297
473	0.297
473	0.298
474	0.298
474	0.298
475	0.299
475	0.299
476	0.3
476	0.3
477	0.3
477	0.301
477	0.301
478	0.302
478	0.303
479	0.303
479	0.304
480	0.304
480	0.305
481	0.305
481	0.306
482	0.307
482	0.307
482	0.308
483	0.308
483	0.309
484	0.309
484	0.309
485	0.31
485	0.311
486	0.312
486	0.313
487	0.313
487	0.314
487	0.315
488	0.316
488	0.318
489	0.32
489	0.321
490	0.323
490	0.324
491	0.325
491	0.327
492	0.328
492	0.329
492	0.331
493	0.332
493	0.334
494	0.335
494	0.336
495	0.338
495	0.339
496	0.341
496	0.343
496	0.344
497	0.346
497	0.348
498	0.35
498	0.352
499	0.354
499	0.356
500	0.358
500	0.36
501	0.362
501	0.364
501	0.366
502	0.368
502	0.369
503	0.371
503	0.373
504	0.374
504	0.377
505	0.379
505	0.381
506	0.383
506	0.385
506	0.387
507	0.389
507	0.392
508	0.394
508	0.397
509	0.399
509	0.401
510	0.403
510	0.405
511	0.407
511	0.41
511	0.412
512	0.414
512	0.416
513	0.418
513	0.42
514	0.422
514	0.424
515	0.426
515	0.428
515	0.43
516	0.432
516	0.434
517	0.436
517	0.438
518	0.44
518	0.442
519	0.444
519	0.446
520	0.448
520	0.45
520	0.452
521	0.454
521	0.456
522	0.458
522	0.46
523	0.462
523	0.463
524	0.465
524	0.466
524	0.468
525	0.469
525	0.47
526	0.471
526	0.472
527	0.473
527	0.474
528	0.475
528	0.477
529	0.478
529	0.479
529	0.48
530	0.481
530	0.481
531	0.482
531	0.483
532	0.484
532	0.484
533	0.485
533	0.486
533	0.486
534	0.487
534	0.488
535	0.489
535	0.49
536	0.49
536	0.491
537	0.491
537	0.492
538	0.492
538	0.492
538	0.493
539	0.493
539	0.493
540	0.493
540	0.493
541	0.493
541	0.492
542	0.492
542	0.492
542	0.491
543	0.491
543	0.49
544	0.49
544	0.49
545	0.489
545	0.489
546	0.489
546	0.489
547	0.488
547	0.488
547	0.488
548	0.488
548	0.488
549	0.488
549	0.487
550	0.487
550	0.486
551	0.486
551	0.485
551	0.485
552	0.484
552	0.484
553	0.483
553	0.482
554	0.482
554	0.481
555	0.481
555	0.48
556	0.48
556	0.479
556	0.479
557	0.478
557	0.478
558	0.477
558	0.476
559	0.476
559	0.475
560	0.474
560	0.474
560	0.473
561	0.472
561	0.471
562	0.47
562	0.469
563	0.468
563	0.467
564	0.467
564	0.466
564	0.465
565	0.464
565	0.463
566	0.462
566	0.461
567	0.46
567	0.458
568	0.457
568	0.455
568	0.454
569	0.453
569	0.451
570	0.45
570	0.449
571	0.448
571	0.447
572	0.446
572	0.444
573	0.443
573	0.442
573	0.441
574	0.44
574	0.439
575	0.438
575	0.437
576	0.436
576	0.435
577	0.434
577	0.433
577	0.433
578	0.432
578	0.431
579	0.43
579	0.428
580	0.427
580	0.426
581	0.425
581	0.424
581	0.423
582	0.422
582	0.42
583	0.419
583	0.417
584	0.416
584	0.416
585	0.415
585	0.413
585	0.411
586	0.41
586	0.409
587	0.408
587	0.408
588	0.407
588	0.406
589	0.405
589	0.404
590	0.403
590	0.402
590	0.401
591	0.399
591	0.397
592	0.396
592	0.394
593	0.393
593	0.391
594	0.39
594	0.389
594	0.387
595	0.386
595	0.385
596	0.384
596	0.383
597	0.381
597	0.38
598	0.378
598	0.377
598	0.376
599	0.375
599	0.374
600	0.373
600	0.371
601	0.37
601	0.368
602	0.367
602	0.366
602	0.364
603	0.363
603	0.362
604	0.36
604	0.359
605	0.358
605	0.356
606	0.355
606	0.354
606	0.353
607	0.351
607	0.35
608	0.348
608	0.347
609	0.346
609	0.344
610	0.343
610	0.342
610	0.341
611	0.339
611	0.338
612	0.337
612	0.336
613	0.335
613	0.333
614	0.332
614	0.33
614	0.329
615	0.327
615	0.326
616	0.324
616	0.323
617	0.321
617	0.319
618	0.317
618	0.315
618	0.314
619	0.312
619	0.31
620	0.308
620	0.307
621	0.305
621	0.304
622	0.302
622	0.3
622	0.299
623	0.297
623	0.296
624	0.294
624	0.292
625	0.291
625	0.289
626	0.287
626	0.286
626	0.284
627	0.282
627	0.28
628	0.277
628	0.275
629	0.273
629	0.27
630	0.267
630	0.264
630	0.261
631	0.258
631	0.254
632	0.25
632	0.246
633	0.242
633	0.238
634	0.233
634	0.228
634	0.224
635	0.219
635	0.214
636	0.208
636	0.203
637	0.197
637	0.191
638	0.184
638	0.178
638	0.172
639	0.165
639	0.158
640	0.15
640	0.143
641	0.137
641	0.13
642	0.124
642	0.117
642	0.11
643	0.103
643	0.096
644	0.088
644	0.081
645	0.073
645	0.066
646	0.058
646	0.05
646	0.042
647	0.034
647	0.027
648	0.019
648	0.012
649	0.003
649	-0.004
650	-0.012
650	-0.019
650	-0.026
651	-0.035
651	-0.048
652	-0.062
652	-0.077
653	-0.09
653	-0.101
653	-0.097
654	-0.072
654	-0.055
655	-0.055
655	-0.059
656	-0.062
656	-0.065
657	-0.067
657	-0.07
657	-0.073
658	-0.078
658	-0.104
659	-0.186
659	-0.29
660	-0.336
660	-0.363
661	-0.395
661	-0.432
661	-0.474
662	-0.517
662	-0.562
663	-0.614
663	-0.669
664	-0.727
664	-0.79
665	-0.855
665	-0.927
665	-0.995
666	-1.064
666	-1.138
667	-1.213
667	-1.289
668	-1.373
668	-1.458
669	-1.549
669	-1.649
669	-1.784
670	-2.042
670	-2.166
671	-2.236
671	-2.336
672	-2.475
672	-2.61
672	-2.702
673	-2.767
673	-2.792
674	-2.808
674	-2.813
675	-2.798
675	-2.886
676	-3.038
676	-2.976
676	-2.732
677	-2.496
677	-2.272
678	-1.942
678	-1.737
679	-1.612
679	-1.516
680	-1.437
680	-1.368
680	-1.308
681	-1.267
681	-1.209
682	-1.166
682	-1.127
683	-1.09
683	-1.066
684	-1.036
684	-1.009
684	-0.979
685	-0.946
685	-0.914
686	-0.881
686	-0.856
687	-0.822
687	-0.802
687	-0.774
688	-0.743
688	-0.717
689	-0.691
689	-0.671
690	-0.647
690	-0.63
691	-0.616
691	-0.616
691	-0.624
692	-0.609
692	-0.594
693	-0.581
693	-0.581
694	-0.571
694	-0.559
695	-0.556
695	-0.548
695	-0.529
696	-0.52
696	-0.496
697	-0.491
697	-0.499
698	-0.499
698	-0.484
698	-0.487
699	-0.487
699	-0.483
700	-0.472
700	-0.479
701	-0.472
701	-0.47
702	-0.471
702	-0.457
702	-0.441
703	-0.434
703	-0.425
704	-0.415
704	-0.412
705	-0.418
705	-0.411
705	-0.398
706	-0.399
706	-0.387
707	-0.387
707	-0.381
708	-0.378
708	-0.367
709	-0.366
709	-0.362
709	-0.355
710	-0.353
710	-0.358
711	-0.347
711	-0.342
712	-0.344
712	-0.354
713	-0.343
713	-0.347
713	-0.337
714	-0.331
714	-0.324
715	-0.322
715	-0.304
716	-0.31
716	-0.312
716	-0.305
717	-0.306
717	-0.311
718	-0.31
718	-0.31
719	-0.312
719	-0.317
720	-0.306
720	-0.311
720	-0.304
721	-0.295
721	-0.29
722	-0.273
722	-0.265
723	-0.253
723	-0.255
723	-0.246
724	-0.245
724	-0.249
725	-0.253
725	-0.256
726	-0.267
726	-0.277
727	-0.283
727	-0.288
727	-0.293
728	-0.292
728	-0.294
729	-0.287
729	-0.288
730	-0.291
730	-0.285
730	-0.276
731	-0.26
731	-0.263
732	-0.274
732	-0.272
733	-0.267
733	-0.267
734	-0.266
734	-0.266
734	-0.254
735	-0.252
735	-0.245
736	-0.251
736	-0.244
737	-0.233
737	-0.233
737	-0.244
738	-0.242
738	-0.242
739	-0.237
739	-0.244
740	-0.246
740	-0.245
741	-0.24
741	-0.234
741	-0.243
742	-0.245
742	-0.243
743	-0.247
743	-0.249
744	-0.253
744	-0.251
744	-0.248
745	-0.255
745	-0.243
746	-0.245
746	-0.237
747	-0.237
747	-0.229
748	-0.218
748	-0.214
748	-0.208
749	-0.2
749	-0.2
750	-0.192
750	-0.191
751	-0.191
751	-0.193
751	-0.193
752	-0.197
752	-0.204
753	-0.206
753	-0.207
754	-0.218
754	-0.216
754	-0.226
755	-0.239
755	-0.252
756	-0.248
756	-0.247
757	-0.246
757	-0.246
758	-0.244
758	-0.245
758	-0.245
759	-0.249
759	-0.237
760	-0.234
760	-0.229
761	-0.241
761	-0.234
761	-0.235
762	-0.244
762	-0.244
763	-0.249
763	-0.239
764	-0.235
764	-0.24
764	-0.245
765	-0.239
765	-0.226
766	-0.234
766	-0.239
767	-0.245
767	-0.241
768	-0.233
768	-0.249
768	-0.249
769	-0.26
769	-0.266
770	-0.262
770	-0.269
771	-0.261
771	-0.26
771	-0.261
772	-0.262
772	-0.255
773	-0.25
773	-0.252
774	-0.251
774	-0.252
775	-0.255
775	-0.249
775	-0.255
776	-0.257
776	-0.252
777	-0.262
777	-0.29
778	-0.296
778	-0.315
778	-0.304
779	-0.313
779	-0.318
780	-0.33
780	-0.329
781	-0.331
781	-0.328
781	-0.337
782	-0.341
782	-0.34
783	-0.335
783	-0.346
784	-0.342
784	-0.341
784	-0.355
785	-0.369
785	-0.363
786	-0.367
786	-0.35
787	-0.327
787	-0.315
788	-0.308
788	-0.305
788	-0.3
789	-0.291
789	-0.264
790	-0.241
790	-0.233
791	-0.224
791	-0.234
791	-0.236
792	-0.238
792	-0.216
793	-0.205
793	-0.192
794	-0.195
794	-0.193
794	-0.199
795	-0.203
795	-0.201
796	-0.187
796	-0.2
797	-0.188
797	-0.19
797	-0.193
798	-0.2
798	-0.191
799	-0.197
799	-0.189
800	-0.195
800	-0.186
801	-0.191
801	-0.179
801	-0.193
802	-0.209
802	-0.211
803	-0.216
803	-0.228
804	-0.227
804	-0.229
804	-0.216
805	-0.222
805	-0.216
806	-0.213
806	-0.2
807	-0.198
807	-0.186
807	-0.172
808	-0.16
808	-0.156
809	-0.153
809	-0.165
810	-0.167
810	-0.166
810	-0.168
811	-0.176
811	-0.17
812	-0.171
812	-0.176
813	-0.182
813	-0.178
813	-0.175
814	-0.176
814	-0.178
815	-0.176
815	-0.182
816	-0.175
816	-0.176
817	-0.18
817	-0.187
817	-0.198
818	-0.205
818	-0.208
819	-0.194
819	-0.192
820	-0.197
820	-0.191
820	-0.203
821	-0.198
821	-0.188
822	-0.171
822	-0.155
823	-0.148
823	-0.149
823	-0.159
824	-0.158
824	-0.159
825	-0.156
825	-0.14
826	-0.137
826	-0.143
826	-0.156
827	-0.157
827	-0.161
828	-0.151
828	-0.149
829	-0.139
829	-0.134
829	-0.126
830	-0.133
830	-0.134
831	-0.133
831	-0.122
832	-0.125
832	-0.123
832	-0.13
833	-0.123
833	-0.126
834	-0.124
834	-0.136
835	-0.127
835	-0.125
835	-0.126
836	-0.124
836	-0.12
837	-0.118
837	-0.109
838	-0.106
838	-0.099
839	-0.094
839	-0.085
839	-0.079
840	-0.073
840	-0.069
841	-0.063
841	-0.061
842	-0.059
842	-0.059
842	-0.056
843	-0.059
843	-0.056
844	-0.053
844	-0.053
845	-0.052
845	-0.047
845	-0.044
846	-0.04
846	-0.035
847	-0.033
847	-0.031
848	-0.027
848	-0.024
848	-0.018
849	-0.017
849	-0.015
850	-0.011
850	-0.01
851	-0.008
851	-0.008
851	-0.005
852	-0.002
852	0.003
853	0.006
853	0.006
854	0.011
854	0.015
854	0.018
855	0.023
855	0.023
856	0.027
856	0.03
857	0.033
857	0.036
857	0.039
858	0.042
858	0.043
859	0.044
859	0.046
860	0.047
860	0.05
860	0.051
861	0.052
861	0.054
862	0.054
862	0.054
863	0.055
863	0.056
863	0.056
864	0.057
864	0.056
865	0.057
865	0.057
866	0.058
866	0.057
866	0.057
867	0.057
867	0.058
868	0.058
868	0.059
869	0.059
869	0.059
869	0.059
870	0.06
870	0.06
871	0.061
871	0.062
872	0.062
872	0.062
872	0.062
873	0.063
873	0.063
874	0.063
874	0.063
875	0.063
875	0.063
875	0.063
876	0.063
876	0.063
877	0.062
877	0.062
878	0.062
878	0.062
878	0.061
879	0.06
879	0.06
880	0.06
880	0.06
881	0.06
881	0.06
881	0.06
882	0.059
882	0.059
883	0.058
883	0.058
884	0.057
884	0.056
884	0.056
885	0.055
885	0.055
886	0.055
886	0.055
887	0.055
887	0.055
887	0.056
888	0.057
888	0.057
889	0.058
889	0.059
890	0.06
890	0.06
890	0.061
891	0.061
891	0.061
892	0.062
892	0.062
893	0.061
893	0.061
893	0.061
894	0.06
894	0.059
895	0.058
895	0.057
895	0.057
896	0.055
896	0.054
897	0.052
897	0.051
898	0.051
898	0.049
898	0.049
899	0.048
899	0.048
900	0.048
900	0.048
901	0.048
901	0.048
901	0.048
902	0.048
902	0.047
903	0.047
903	0.047
904	0.048
904	0.048
904	0.048
905	0.048
905	0.049
906	0.048
906	0.048
907	0.048
907	0.047
907	0.047
908	0.046
908	0.045
909	0.045
909	0.044
910	0.043
910	0.042
910	0.042
911	0.041
911	0.041
912	0.041
912	0.041
913	0.041
913	0.041
913	0.042
914	0.042
914	0.043
915	0.043
915	0.044
916	0.044
916	0.045
916	0.045
917	0.045
917	0.046
918	0.046
918	0.045
918	0.045
919	0.044
919	0.044
920	0.044
920	0.045
921	0.045
921	0.045
921	0.045
922	0.046
922	0.046
923	0.046
923	0.047
924	0.048
924	0.048
924	0.048
925	0.048
925	0.048
926	0.047
926	0.047
927	0.047
927	0.046
927	0.046
928	0.045
928	0.045
929	0.044
929	0.044
930	0.044
930	0.044
930	0.044
931	0.044
931	0.044
932	0.044
932	0.044
933	0.044
933	0.044
933	0.044
934	0.043
934	0.043
935	0.043
935	0.042
935	0.042
936	0.042
936	0.041
937	0.041
937	0.041
938	0.041
938	0.042
938	0.042
939	0.043
939	0.043
940	0.043
940	0.043
941	0.043
941	0.043
941	0.043
942	0.043
942	0.042
943	0.041
943	0.041
944	0.04
944	0.039
944	0.039
945	0.038
945	0.038
946	0.037
946	0.036
946	0.036
947	0.036
947	0.036
948	0.036
948	0.037
949	0.037
949	0.037
949	0.037
950	0.038
950	0.038
951	0.039
951	0.04
952	0.04
952	0.041
952	0.041
953	0.042
953	0.042
954	0.043
954	0.043
955	0.044
955	0.044
955	0.045
956	0.045
956	0.045
957	0.045
957	0.045
957	0.045
958	0.045
958	0.045
959	0.045
959	0.045
960	0.046
960	0.046
960	0.046
961	0.046
961	0.046
962	0.046
962	0.046
963	0.046
963	0.046
963	0.046
964	0.046
964	0.046
965	0.046
965	0.045
966	0.045
966	0.045
966	0.044
967	0.043
967	0.043
968	0.043
968	0.042
968	0.041
969	0.041
969	0.04
970	0.04
970	0.04
971	0.039
971	0.04
971	0.039
972	0.039
972	0.038
973	0.038
973	0.037
974	0.036
974	0.035
974	0.035
975	0.034
975	0.033
976	0.032
976	0.031
976	0.031
977	0.031
977	0.031
978	0.031
978	0.031
979	0.031
979	0.031
979	0.031
980	0.031
980	0.031
981	0.032
981	0.032
982	0.032
982	0.031
982	0.031
983	0.03
983	0.03
984	0.03
984	0.029
984	0.029
985	0.03
985	0.03
986	0.03
986	0.03
987	0.031
987	0.032
987	0.032
988	0.032
988	0.033
989	0.033
989	0.032
990	0.032
990	0.031
990	0.031
991	0.03
991	0.029
992	0.029
992	0.029
992	0.028
993	0.028
993	0.028
994	0.028
994	0.028
995	0.029
995	0.029
995	0.029
996	0.029
996	0.029
997	0.03
997	0.03
997	0.03
998	0.03
998	0.03
999	0.031
999	0.031
1000	0.031
1000	0.031
1000	0.031
1001	0.03
1001	0.03
1002	0.029
1002	0.029
1003	0.029
1003	0.028
1003	0.028
1004	0.027
1004	0.026
1005	0.026
1005	0.025
1005	0.024
1006	0.023
1006	0.023
1007	0.022
1007	0.022
1008	0.021
1008	0.021
1008	0.021
1009	0.021
1009	0.021
1010	0.021
1010	0.021
1010	0.021
1011	0.02
1011	0.02
1012	0.019
1012	0.018
1013	0.017
1013	0.015
1013	0.014
1014	0.013
1014	0.013
1015	0.012
1015	0.011
1016	0.01
1016	0.01
1016	0.009
1017	0.009
1017	0.009
1018	0.009
1018	0.008
1018	0.008
1019	0.007
1019	0.006
1020	0.005
1020	0.005
1021	0.004
1021	0.003
1021	0.001
1022	0.001
1022	0
1023	-0
1023	-0.001
1023	-0.001
1024	-0.001
1024	-0
1025	-0
1025	0
1026	0.001
1026	0.002
1026	0.003
1027	0.003
1027	0.004
1028	0.004
1028	0.004
1028	0.004
1029	0.005
1029	0.005
1030	0.005
1030	0.005
1031	0.005
1031	0.005
1031	0.005
1032	0.005
1032	0.006
1033	0.007
1033	0.008
1033	0.009
1034	0.009
1034	0.01
1035	0.01
1035	0.011
1036	0.011
1036	0.011
1036	0.011
1037	0.011
1037	0.011
1038	0.01
1038	0.01
1039	0.01
1039	0.011
1039	0.011
1040	0.011
1040	0.012
1041	0.012
1041	0.013
1041	0.013
1042	0.014
1042	0.014
1043	0.014
1043	0.015
1044	0.015
1044	0.015
1044	0.015
1045	0.015
1045	0.015
1046	0.015
1046	0.015
1046	0.016
1047	0.016
1047	0.016
1048	0.016
1048	0.016
1049	0.017
1049	0.017
1049	0.017
1050	0.017
1050	0.017
1051	0.017
1051	0.018
1051	0.018
1052	0.018
1052	0.018
1053	0.018
1053	0.018
1053	0.018
1054	0.017
1054	0.017
1055	0.016
1055	0.016
1056	0.015
1056	0.014
1056	0.013
1057	0.012
1057	0.011
1058	0.01
1058	0.009
1058	0.009
1059	0.008
1059	0.008
1060	0.007
1060	0.008
1061	0.008
1061	0.008
1061	0.008
1062	0.008
1062	0.008
1063	0.008
1063	0.008
1063	0.008
1064	0.008
1064	0.008
1065	0.007
1065	0.007
1066	0.006
1066	0.006
1066	0.006
1067	0.006
1067	0.006
1068	0.006
1068	0.005
1068	0.005
1069	0.006
1069	0.006
1070	0.006
1070	0.006
1071	0.006
1071	0.006
1071	0.006
1072	0.006
1072	0.005
1073	0.005
1073	0.004
1073	0.004
1074	0.004
1074	0.003
1075	0.003
1075	0.002
1076	0.002
1076	0.002
1076	0.001
1077	0.001
1077	0.001
1078	-0
1078	-0.001
1078	-0.002
1079	-0.002
1079	-0.003
1080	-0.003
1080	-0.004
1080	-0.004
1081	-0.005
1081	-0.005
1082	-0.006
1082	-0.007
1083	-0.007
1083	-0.007
1083	-0.007
1084	-0.007
1084	-0.007
1085	-0.008
1085	-0.008
1085	-0.007
1086	-0.007
1086	-0.007
1087	-0.007
1087	-0.006
1088	-0.006
1088	-0.006
1088	-0.006
1089	-0.006
1089	-0.006
1090	-0.006
1090	-0.006
1090	-0.006
1091	-0.006
1091	-0.005
1092	-0.005
1092	-0.004
1092	-0.005
1093	-0.005
1093	-0.004
1094	-0.004
1094	-0.004
1095	-0.004
1095	-0.003
1095	-0.003
1096	-0.003
1096	-0.003
1097	-0.002
1097	-0.001
1097	-0.001
1098	-0.001
1098	-0
1099	-0.001
1099	0.001
1100	-0
1100	-0
1100	-0.001
1101	-0.001
1101	-0.002
1102	-0.002
1102	-0.003
1102	-0.002
1103	-0.003
1103	-0.002
1104	-0.003
1104	-0.003
1104	-0.004
1105	-0.004
1105	-0.006
1106	-0.007
1106	-0.007
1107	-0.008
1107	-0.01
1107	-0.011
1108	-0.011
1108	-0.012
1109	-0.013
1109	-0.012
1109	-0.013
1110	-0.01
1110	-0.012
1111	-0.011
1111	-0.012
