Data from 17C_3.4A_30min_2sec_int_Absorbance__555__00555.txt Node

Date: Mon Jun 19 16:27:55 CEST 2023
User: Marek
Spectrometer: MAYP115816
Trigger mode: 0
Integration Time (sec): 2.500000E-1
Scans to average: 10
Electric dark correction enabled: true
Nonlinearity correction enabled: true
Boxcar width: 5
XAxis mode: Wavelengths
Number of Pixels in Spectrum: 2068
>>>>>Begin Spectral Data<<<<<
199	-0.563
199	-0.58
200	-0.483
200	-0.43
201	-0.4
201	-0.389
202	-0.374
202	-0.358
203	-0.351
203	-0.348
204	-0.336
204	-0.325
205	-0.304
205	-0.301
205	-0.3
206	-0.301
206	-0.302
207	-0.294
207	-0.297
208	-0.3
208	-0.298
209	-0.294
209	-0.296
210	-0.297
210	-0.301
211	-0.304
211	-0.306
212	-0.308
212	-0.317
213	-0.318
213	-0.32
213	-0.324
214	-0.319
214	-0.315
215	-0.315
215	-0.318
216	-0.322
216	-0.327
217	-0.321
217	-0.323
218	-0.325
218	-0.322
219	-0.326
219	-0.338
220	-0.345
220	-0.354
221	-0.354
221	-0.354
221	-0.347
222	-0.345
222	-0.345
223	-0.345
223	-0.35
224	-0.355
224	-0.354
225	-0.348
225	-0.343
226	-0.348
226	-0.35
227	-0.356
227	-0.364
228	-0.363
228	-0.369
229	-0.367
229	-0.359
229	-0.355
230	-0.361
230	-0.364
231	-0.359
231	-0.351
232	-0.344
232	-0.344
233	-0.341
233	-0.336
234	-0.336
234	-0.334
235	-0.336
235	-0.338
236	-0.337
236	-0.341
236	-0.347
237	-0.355
237	-0.354
238	-0.362
238	-0.362
239	-0.361
239	-0.367
240	-0.366
240	-0.367
241	-0.371
241	-0.368
242	-0.371
242	-0.366
243	-0.363
243	-0.363
243	-0.372
244	-0.373
244	-0.372
245	-0.384
245	-0.38
246	-0.387
246	-0.391
247	-0.395
247	-0.399
248	-0.406
248	-0.403
249	-0.405
249	-0.412
250	-0.411
250	-0.409
250	-0.412
251	-0.406
251	-0.406
252	-0.407
252	-0.401
253	-0.403
253	-0.413
254	-0.409
254	-0.407
255	-0.416
255	-0.411
256	-0.408
256	-0.419
257	-0.414
257	-0.411
258	-0.424
258	-0.419
258	-0.415
259	-0.411
259	-0.42
260	-0.421
260	-0.424
261	-0.432
261	-0.428
262	-0.426
262	-0.427
263	-0.418
263	-0.416
264	-0.418
264	-0.426
265	-0.419
265	-0.426
265	-0.428
266	-0.425
266	-0.421
267	-0.433
267	-0.441
268	-0.455
268	-0.46
269	-0.457
269	-0.455
270	-0.461
270	-0.463
271	-0.462
271	-0.468
272	-0.469
272	-0.466
272	-0.456
273	-0.455
273	-0.462
274	-0.468
274	-0.469
275	-0.469
275	-0.462
276	-0.467
276	-0.46
277	-0.464
277	-0.48
278	-0.492
278	-0.487
278	-0.483
279	-0.486
279	-0.495
280	-0.49
280	-0.492
281	-0.486
281	-0.494
282	-0.486
282	-0.486
283	-0.475
283	-0.478
284	-0.472
284	-0.462
285	-0.458
285	-0.455
285	-0.449
286	-0.456
286	-0.452
287	-0.451
287	-0.437
288	-0.432
288	-0.437
289	-0.448
289	-0.456
290	-0.449
290	-0.448
291	-0.446
291	-0.44
292	-0.44
292	-0.446
292	-0.447
293	-0.451
293	-0.444
294	-0.433
294	-0.424
295	-0.421
295	-0.418
296	-0.418
296	-0.418
297	-0.412
297	-0.397
298	-0.392
298	-0.402
298	-0.39
299	-0.386
299	-0.388
300	-0.384
300	-0.381
301	-0.376
301	-0.372
302	-0.383
302	-0.391
303	-0.381
303	-0.365
304	-0.368
304	-0.369
305	-0.37
305	-0.368
305	-0.368
306	-0.353
306	-0.346
307	-0.332
307	-0.333
308	-0.345
308	-0.342
309	-0.343
309	-0.333
310	-0.324
310	-0.322
311	-0.316
311	-0.325
311	-0.324
312	-0.32
312	-0.32
313	-0.306
313	-0.31
314	-0.306
314	-0.308
315	-0.306
315	-0.304
316	-0.301
316	-0.291
317	-0.287
317	-0.285
318	-0.274
318	-0.272
318	-0.267
319	-0.26
319	-0.254
320	-0.249
320	-0.249
321	-0.254
321	-0.255
322	-0.248
322	-0.243
323	-0.24
323	-0.234
324	-0.228
324	-0.219
324	-0.216
325	-0.209
325	-0.194
326	-0.179
326	-0.166
327	-0.153
327	-0.134
328	-0.115
328	-0.101
329	-0.081
329	-0.063
330	-0.039
330	-0.011
330	0.009
331	0.03
331	0.053
332	0.073
332	0.09
333	0.107
333	0.127
334	0.141
334	0.154
335	0.166
335	0.176
336	0.185
336	0.195
336	0.202
337	0.21
337	0.215
338	0.221
338	0.224
339	0.23
339	0.233
340	0.236
340	0.24
341	0.242
341	0.244
342	0.246
342	0.248
342	0.251
343	0.252
343	0.254
344	0.255
344	0.255
345	0.256
345	0.257
346	0.257
346	0.258
347	0.258
347	0.258
348	0.258
348	0.259
348	0.259
349	0.259
349	0.259
350	0.259
350	0.259
351	0.259
351	0.258
352	0.258
352	0.258
353	0.258
353	0.258
354	0.258
354	0.257
354	0.257
355	0.257
355	0.257
356	0.256
356	0.256
357	0.256
357	0.256
358	0.256
358	0.256
359	0.255
359	0.255
360	0.255
360	0.255
360	0.255
361	0.255
361	0.254
362	0.254
362	0.254
363	0.254
363	0.254
364	0.254
364	0.254
365	0.253
365	0.253
366	0.253
366	0.253
366	0.253
367	0.253
367	0.253
368	0.252
368	0.252
369	0.252
369	0.251
370	0.251
370	0.251
371	0.251
371	0.251
372	0.25
372	0.25
372	0.25
373	0.25
373	0.25
374	0.25
374	0.249
375	0.249
375	0.25
376	0.249
376	0.249
377	0.249
377	0.249
378	0.249
378	0.249
378	0.249
379	0.249
379	0.249
380	0.248
380	0.248
381	0.248
381	0.247
382	0.247
382	0.247
383	0.246
383	0.246
383	0.246
384	0.246
384	0.246
385	0.246
385	0.246
386	0.246
386	0.245
387	0.245
387	0.245
388	0.245
388	0.245
389	0.245
389	0.245
389	0.244
390	0.244
390	0.244
391	0.244
391	0.244
392	0.244
392	0.243
393	0.243
393	0.243
394	0.243
394	0.243
394	0.243
395	0.242
395	0.242
396	0.242
396	0.242
397	0.241
397	0.241
398	0.241
398	0.241
399	0.241
399	0.24
400	0.24
400	0.24
400	0.24
401	0.24
401	0.239
402	0.239
402	0.239
403	0.238
403	0.238
404	0.238
404	0.238
405	0.238
405	0.238
405	0.238
406	0.237
406	0.237
407	0.237
407	0.237
408	0.237
408	0.236
409	0.236
409	0.236
410	0.236
410	0.236
411	0.236
411	0.236
411	0.236
412	0.236
412	0.236
413	0.236
413	0.236
414	0.236
414	0.235
415	0.235
415	0.235
416	0.235
416	0.235
416	0.235
417	0.234
417	0.234
418	0.234
418	0.234
419	0.234
419	0.234
420	0.234
420	0.234
421	0.234
421	0.234
421	0.234
422	0.234
422	0.234
423	0.234
423	0.234
424	0.234
424	0.234
425	0.234
425	0.233
426	0.233
426	0.233
427	0.233
427	0.233
427	0.232
428	0.232
428	0.232
429	0.232
429	0.232
430	0.232
430	0.232
431	0.232
431	0.231
432	0.231
432	0.231
432	0.231
433	0.231
433	0.23
434	0.23
434	0.23
435	0.23
435	0.23
436	0.23
436	0.23
437	0.23
437	0.23
437	0.23
438	0.23
438	0.23
439	0.23
439	0.23
440	0.23
440	0.229
441	0.229
441	0.229
442	0.229
442	0.228
442	0.228
443	0.228
443	0.228
444	0.228
444	0.228
445	0.229
445	0.229
446	0.229
446	0.229
447	0.229
447	0.229
447	0.229
448	0.229
448	0.229
449	0.229
449	0.229
450	0.229
450	0.229
451	0.229
451	0.229
452	0.23
452	0.23
452	0.23
453	0.229
453	0.229
454	0.229
454	0.229
455	0.229
455	0.229
456	0.229
456	0.229
457	0.229
457	0.229
458	0.229
458	0.229
458	0.229
459	0.23
459	0.23
460	0.229
460	0.229
461	0.229
461	0.23
462	0.23
462	0.23
463	0.23
463	0.23
463	0.23
464	0.23
464	0.23
465	0.231
465	0.231
466	0.231
466	0.232
467	0.232
467	0.232
467	0.232
468	0.233
468	0.233
469	0.234
469	0.234
470	0.235
470	0.235
471	0.235
471	0.235
472	0.236
472	0.236
472	0.236
473	0.237
473	0.237
474	0.237
474	0.237
475	0.238
475	0.238
476	0.239
476	0.239
477	0.24
477	0.24
477	0.24
478	0.241
478	0.241
479	0.242
479	0.243
480	0.243
480	0.244
481	0.244
481	0.245
482	0.246
482	0.246
482	0.247
483	0.248
483	0.248
484	0.248
484	0.248
485	0.249
485	0.249
486	0.25
486	0.251
487	0.251
487	0.252
487	0.253
488	0.254
488	0.254
489	0.256
489	0.258
490	0.259
490	0.26
491	0.262
491	0.263
492	0.264
492	0.265
492	0.267
493	0.268
493	0.269
494	0.27
494	0.271
495	0.272
495	0.274
496	0.275
496	0.276
496	0.278
497	0.28
497	0.281
498	0.283
498	0.284
499	0.286
499	0.288
500	0.29
500	0.292
501	0.293
501	0.295
501	0.296
502	0.297
502	0.299
503	0.3
503	0.302
504	0.303
504	0.305
505	0.307
505	0.308
506	0.31
506	0.312
506	0.314
507	0.316
507	0.318
508	0.319
508	0.321
509	0.323
509	0.325
510	0.326
510	0.328
511	0.33
511	0.331
511	0.333
512	0.334
512	0.336
513	0.337
513	0.339
514	0.34
514	0.342
515	0.344
515	0.345
515	0.347
516	0.349
516	0.35
517	0.352
517	0.353
518	0.354
518	0.356
519	0.357
519	0.358
520	0.36
520	0.361
520	0.362
521	0.364
521	0.365
522	0.366
522	0.367
523	0.368
523	0.369
524	0.37
524	0.37
524	0.371
525	0.372
525	0.372
526	0.373
526	0.373
527	0.374
527	0.374
528	0.375
528	0.375
529	0.375
529	0.376
529	0.376
530	0.376
530	0.376
531	0.376
531	0.376
532	0.376
532	0.376
533	0.376
533	0.375
533	0.375
534	0.375
534	0.374
535	0.374
535	0.373
536	0.373
536	0.372
537	0.371
537	0.37
538	0.37
538	0.369
538	0.368
539	0.367
539	0.366
540	0.365
540	0.364
541	0.363
541	0.362
542	0.361
542	0.36
542	0.358
543	0.357
543	0.356
544	0.355
544	0.353
545	0.352
545	0.351
546	0.35
546	0.349
547	0.347
547	0.346
547	0.345
548	0.344
548	0.343
549	0.342
549	0.341
550	0.339
550	0.338
551	0.336
551	0.335
551	0.334
552	0.333
552	0.332
553	0.331
553	0.33
554	0.328
554	0.327
555	0.326
555	0.324
556	0.323
556	0.322
556	0.32
557	0.319
557	0.318
558	0.316
558	0.315
559	0.313
559	0.312
560	0.31
560	0.309
560	0.308
561	0.307
561	0.305
562	0.304
562	0.303
563	0.301
563	0.3
564	0.299
564	0.298
564	0.297
565	0.295
565	0.294
566	0.293
566	0.291
567	0.289
567	0.288
568	0.286
568	0.285
568	0.283
569	0.282
569	0.28
570	0.279
570	0.277
571	0.276
571	0.275
572	0.274
572	0.272
573	0.271
573	0.27
573	0.269
574	0.268
574	0.267
575	0.266
575	0.266
576	0.265
576	0.264
577	0.263
577	0.263
577	0.263
578	0.263
578	0.262
579	0.262
579	0.261
580	0.26
580	0.259
581	0.258
581	0.257
581	0.256
582	0.256
582	0.255
583	0.254
583	0.253
584	0.252
584	0.251
585	0.25
585	0.25
585	0.249
586	0.249
586	0.249
587	0.248
587	0.248
588	0.247
588	0.247
589	0.246
589	0.246
590	0.245
590	0.245
590	0.246
591	0.245
591	0.244
592	0.243
592	0.242
593	0.242
593	0.242
594	0.241
594	0.241
594	0.24
595	0.24
595	0.24
596	0.24
596	0.24
597	0.24
597	0.24
598	0.239
598	0.239
598	0.238
599	0.238
599	0.237
600	0.236
600	0.235
601	0.235
601	0.234
602	0.233
602	0.233
602	0.232
603	0.232
603	0.233
604	0.233
604	0.233
605	0.233
605	0.233
606	0.233
606	0.232
606	0.232
607	0.231
607	0.231
608	0.23
608	0.229
609	0.229
609	0.228
610	0.228
610	0.228
610	0.228
611	0.228
611	0.229
612	0.229
612	0.229
613	0.229
613	0.229
614	0.228
614	0.227
614	0.226
615	0.225
615	0.224
616	0.224
616	0.223
617	0.222
617	0.221
618	0.22
618	0.22
618	0.22
619	0.22
619	0.22
620	0.22
620	0.22
621	0.22
621	0.22
622	0.219
622	0.219
622	0.219
623	0.218
623	0.218
624	0.218
624	0.217
625	0.217
625	0.217
626	0.216
626	0.216
626	0.216
627	0.216
627	0.215
628	0.214
628	0.213
629	0.212
629	0.211
630	0.209
630	0.208
630	0.207
631	0.206
631	0.204
632	0.203
632	0.201
633	0.199
633	0.198
634	0.196
634	0.194
634	0.191
635	0.189
635	0.186
636	0.183
636	0.18
637	0.177
637	0.174
638	0.171
638	0.167
638	0.164
639	0.16
639	0.156
640	0.152
640	0.149
641	0.145
641	0.142
642	0.138
642	0.135
642	0.131
643	0.127
643	0.123
644	0.118
644	0.114
645	0.109
645	0.104
646	0.1
646	0.094
646	0.089
647	0.083
647	0.078
648	0.072
648	0.067
649	0.06
649	0.054
650	0.048
650	0.041
650	0.034
651	0.026
651	0.016
652	0.004
652	-0.009
653	-0.02
653	-0.03
653	-0.027
654	-0.011
654	-0.002
655	-0.005
655	-0.009
656	-0.013
656	-0.018
657	-0.022
657	-0.025
657	-0.029
658	-0.034
658	-0.057
659	-0.128
659	-0.215
660	-0.254
660	-0.279
661	-0.306
661	-0.335
661	-0.367
662	-0.399
662	-0.433
663	-0.474
663	-0.517
664	-0.562
664	-0.615
665	-0.667
665	-0.727
665	-0.784
666	-0.843
666	-0.906
667	-0.972
667	-1.039
668	-1.114
668	-1.188
669	-1.263
669	-1.339
669	-1.419
670	-1.494
670	-1.561
671	-1.754
671	-2.006
672	-2.225
672	-2.41
672	-2.536
673	-2.627
673	-2.705
674	-2.743
674	-2.761
675	-2.785
675	-2.923
676	-3.109
676	-3.059
676	-2.833
677	-2.626
677	-2.457
678	-2.271
678	-1.939
679	-1.669
679	-1.535
680	-1.441
680	-1.356
680	-1.286
681	-1.239
681	-1.178
682	-1.136
682	-1.096
683	-1.06
683	-1.04
684	-1.016
684	-0.994
684	-0.969
685	-0.943
685	-0.918
686	-0.892
686	-0.873
687	-0.845
687	-0.829
687	-0.806
688	-0.778
688	-0.757
689	-0.734
689	-0.719
690	-0.698
690	-0.683
691	-0.675
691	-0.68
691	-0.693
692	-0.684
692	-0.674
693	-0.666
693	-0.671
694	-0.665
694	-0.655
695	-0.658
695	-0.656
695	-0.639
696	-0.633
696	-0.613
697	-0.611
697	-0.624
698	-0.626
698	-0.616
698	-0.626
699	-0.629
699	-0.625
700	-0.614
700	-0.627
701	-0.627
701	-0.632
702	-0.629
702	-0.618
702	-0.61
703	-0.604
703	-0.595
704	-0.592
704	-0.592
705	-0.605
705	-0.597
705	-0.584
706	-0.582
706	-0.577
707	-0.583
707	-0.579
708	-0.574
708	-0.569
709	-0.569
709	-0.571
709	-0.561
710	-0.567
710	-0.577
711	-0.57
711	-0.572
712	-0.569
712	-0.581
713	-0.579
713	-0.584
713	-0.576
714	-0.572
714	-0.571
715	-0.564
715	-0.551
716	-0.557
716	-0.558
716	-0.552
717	-0.553
717	-0.557
718	-0.55
718	-0.553
719	-0.557
719	-0.561
720	-0.557
720	-0.566
720	-0.559
721	-0.549
721	-0.55
722	-0.537
722	-0.526
723	-0.523
723	-0.525
723	-0.511
724	-0.509
724	-0.512
725	-0.514
725	-0.52
726	-0.532
726	-0.538
727	-0.54
727	-0.556
727	-0.561
728	-0.56
728	-0.568
729	-0.568
729	-0.572
730	-0.575
730	-0.57
730	-0.56
731	-0.54
731	-0.552
732	-0.556
732	-0.558
733	-0.557
733	-0.562
734	-0.558
734	-0.557
734	-0.545
735	-0.542
735	-0.542
736	-0.554
736	-0.542
737	-0.532
737	-0.532
737	-0.539
738	-0.533
738	-0.529
739	-0.525
739	-0.536
740	-0.533
740	-0.529
741	-0.525
741	-0.523
741	-0.529
742	-0.527
742	-0.524
743	-0.533
743	-0.541
744	-0.538
744	-0.528
744	-0.531
745	-0.541
745	-0.533
746	-0.535
746	-0.529
747	-0.53
747	-0.52
748	-0.505
748	-0.508
748	-0.513
749	-0.511
749	-0.514
750	-0.501
750	-0.502
751	-0.506
751	-0.516
751	-0.52
752	-0.526
752	-0.536
753	-0.532
753	-0.525
754	-0.532
754	-0.526
754	-0.54
755	-0.557
755	-0.567
756	-0.554
756	-0.549
757	-0.548
757	-0.545
758	-0.55
758	-0.55
758	-0.55
759	-0.554
759	-0.541
760	-0.533
760	-0.528
761	-0.538
761	-0.538
761	-0.538
762	-0.542
762	-0.539
763	-0.546
763	-0.544
764	-0.543
764	-0.547
764	-0.552
765	-0.546
765	-0.534
766	-0.538
766	-0.545
767	-0.558
767	-0.554
768	-0.549
768	-0.558
768	-0.563
769	-0.577
769	-0.578
770	-0.581
770	-0.591
771	-0.589
771	-0.591
771	-0.594
772	-0.595
772	-0.596
773	-0.593
773	-0.586
774	-0.588
774	-0.588
775	-0.589
775	-0.585
775	-0.592
776	-0.591
776	-0.582
777	-0.591
777	-0.608
778	-0.608
778	-0.629
778	-0.615
779	-0.638
779	-0.648
780	-0.662
780	-0.66
781	-0.673
781	-0.67
781	-0.686
782	-0.688
782	-0.691
783	-0.681
783	-0.678
784	-0.658
784	-0.648
784	-0.657
785	-0.665
785	-0.65
786	-0.652
786	-0.628
787	-0.61
787	-0.606
788	-0.609
788	-0.617
788	-0.627
789	-0.626
789	-0.607
790	-0.588
790	-0.592
791	-0.59
791	-0.607
791	-0.614
792	-0.613
792	-0.588
793	-0.579
793	-0.56
794	-0.565
794	-0.558
794	-0.564
795	-0.558
795	-0.556
796	-0.542
796	-0.547
797	-0.54
797	-0.553
797	-0.56
798	-0.569
798	-0.558
799	-0.568
799	-0.558
800	-0.563
800	-0.552
801	-0.558
801	-0.545
801	-0.555
802	-0.563
802	-0.566
803	-0.566
803	-0.577
804	-0.573
804	-0.584
804	-0.571
805	-0.58
805	-0.566
806	-0.569
806	-0.551
807	-0.548
807	-0.53
807	-0.52
808	-0.513
808	-0.508
809	-0.49
809	-0.504
810	-0.5
810	-0.496
810	-0.495
811	-0.503
811	-0.495
812	-0.493
812	-0.496
813	-0.503
813	-0.498
813	-0.506
814	-0.505
814	-0.509
815	-0.514
815	-0.516
816	-0.51
816	-0.514
817	-0.523
817	-0.538
817	-0.544
818	-0.55
818	-0.553
819	-0.543
819	-0.547
820	-0.556
820	-0.555
820	-0.563
821	-0.56
821	-0.548
822	-0.521
822	-0.503
823	-0.502
823	-0.505
823	-0.505
824	-0.499
824	-0.5
825	-0.492
825	-0.475
826	-0.471
826	-0.477
826	-0.483
827	-0.478
827	-0.476
828	-0.451
828	-0.452
829	-0.442
829	-0.429
829	-0.423
830	-0.434
830	-0.435
831	-0.431
831	-0.424
832	-0.425
832	-0.42
832	-0.43
833	-0.425
833	-0.425
834	-0.423
834	-0.43
835	-0.417
835	-0.412
835	-0.407
836	-0.403
836	-0.398
837	-0.397
837	-0.386
838	-0.379
838	-0.367
839	-0.356
839	-0.344
839	-0.336
840	-0.322
840	-0.322
841	-0.312
841	-0.305
842	-0.299
842	-0.293
842	-0.289
843	-0.284
843	-0.282
844	-0.276
844	-0.27
845	-0.264
845	-0.253
845	-0.242
846	-0.233
846	-0.219
847	-0.209
847	-0.196
848	-0.188
848	-0.178
848	-0.164
849	-0.154
849	-0.145
850	-0.135
850	-0.132
851	-0.126
851	-0.119
851	-0.112
852	-0.102
852	-0.092
853	-0.087
853	-0.082
854	-0.074
854	-0.065
854	-0.056
855	-0.047
855	-0.041
856	-0.035
856	-0.029
857	-0.023
857	-0.017
857	-0.009
858	-0.002
858	0.002
859	0.006
859	0.013
860	0.018
860	0.026
860	0.032
861	0.037
861	0.042
862	0.047
862	0.052
863	0.056
863	0.062
863	0.066
864	0.068
864	0.073
865	0.077
865	0.08
866	0.083
866	0.086
866	0.088
867	0.09
867	0.093
868	0.095
868	0.098
869	0.1
869	0.102
869	0.103
870	0.104
870	0.105
871	0.106
871	0.107
872	0.107
872	0.107
872	0.107
873	0.107
873	0.107
874	0.107
874	0.106
875	0.106
875	0.105
875	0.105
876	0.104
876	0.103
877	0.102
877	0.102
878	0.101
878	0.1
878	0.099
879	0.098
879	0.097
880	0.096
880	0.096
881	0.096
881	0.096
881	0.096
882	0.095
882	0.094
883	0.093
883	0.092
884	0.091
884	0.091
884	0.09
885	0.089
885	0.089
886	0.088
886	0.088
887	0.088
887	0.088
887	0.088
888	0.089
888	0.089
889	0.09
889	0.091
890	0.092
890	0.092
890	0.093
891	0.093
891	0.093
892	0.093
892	0.093
893	0.093
893	0.092
893	0.092
894	0.091
894	0.09
895	0.089
895	0.089
895	0.089
896	0.088
896	0.087
897	0.086
897	0.085
898	0.084
898	0.084
898	0.084
899	0.083
899	0.084
900	0.084
900	0.084
901	0.085
901	0.085
901	0.085
902	0.085
902	0.085
903	0.084
903	0.084
904	0.084
904	0.084
904	0.084
905	0.084
905	0.084
906	0.084
906	0.084
907	0.083
907	0.083
907	0.083
908	0.082
908	0.082
909	0.081
909	0.08
910	0.079
910	0.078
910	0.078
911	0.077
911	0.077
912	0.078
912	0.078
913	0.078
913	0.078
913	0.079
914	0.08
914	0.081
915	0.081
915	0.082
916	0.083
916	0.084
916	0.084
917	0.085
917	0.085
918	0.086
918	0.086
918	0.086
919	0.086
919	0.086
920	0.087
920	0.087
921	0.088
921	0.088
921	0.089
922	0.089
922	0.089
923	0.089
923	0.09
924	0.09
924	0.09
924	0.09
925	0.09
925	0.089
926	0.088
926	0.087
927	0.086
927	0.086
927	0.085
928	0.084
928	0.084
929	0.083
929	0.082
930	0.081
930	0.081
930	0.081
931	0.081
931	0.081
932	0.081
932	0.081
933	0.081
933	0.08
933	0.08
934	0.079
934	0.079
935	0.078
935	0.077
935	0.076
936	0.075
936	0.074
937	0.074
937	0.074
938	0.073
938	0.073
938	0.073
939	0.073
939	0.073
940	0.073
940	0.073
941	0.073
941	0.073
941	0.073
942	0.073
942	0.072
943	0.072
943	0.071
944	0.07
944	0.07
944	0.069
945	0.069
945	0.068
946	0.067
946	0.066
946	0.066
947	0.066
947	0.066
948	0.066
948	0.067
949	0.068
949	0.068
949	0.069
950	0.07
950	0.07
951	0.071
951	0.071
952	0.072
952	0.073
952	0.073
953	0.074
953	0.075
954	0.075
954	0.076
955	0.077
955	0.078
955	0.078
956	0.079
956	0.079
957	0.079
957	0.079
957	0.079
958	0.079
958	0.08
959	0.08
959	0.08
960	0.08
960	0.08
960	0.08
961	0.079
961	0.079
962	0.079
962	0.079
963	0.078
963	0.078
963	0.077
964	0.077
964	0.077
965	0.077
965	0.076
966	0.076
966	0.075
966	0.075
967	0.075
967	0.074
968	0.074
968	0.074
968	0.073
969	0.073
969	0.073
970	0.072
970	0.072
971	0.072
971	0.072
971	0.072
972	0.072
972	0.072
973	0.071
973	0.071
974	0.07
974	0.07
974	0.07
975	0.069
975	0.068
976	0.067
976	0.067
976	0.066
977	0.066
977	0.066
978	0.066
978	0.066
979	0.066
979	0.065
979	0.066
980	0.066
980	0.067
981	0.067
981	0.067
982	0.067
982	0.067
982	0.067
983	0.067
983	0.066
984	0.066
984	0.066
984	0.066
985	0.066
985	0.066
986	0.066
986	0.066
987	0.066
987	0.067
987	0.067
988	0.068
988	0.068
989	0.068
989	0.068
990	0.068
990	0.067
990	0.067
991	0.067
991	0.066
992	0.066
992	0.065
992	0.065
993	0.065
993	0.065
994	0.064
994	0.064
995	0.064
995	0.063
995	0.063
996	0.063
996	0.063
997	0.063
997	0.063
997	0.063
998	0.063
998	0.063
999	0.063
999	0.063
1000	0.063
1000	0.063
1000	0.063
1001	0.063
1001	0.062
1002	0.062
1002	0.062
1003	0.061
1003	0.061
1003	0.06
1004	0.059
1004	0.058
1005	0.057
1005	0.057
1005	0.056
1006	0.055
1006	0.054
1007	0.053
1007	0.052
1008	0.052
1008	0.051
1008	0.051
1009	0.051
1009	0.051
1010	0.051
1010	0.051
1010	0.051
1011	0.051
1011	0.05
1012	0.05
1012	0.049
1013	0.048
1013	0.047
1013	0.045
1014	0.045
1014	0.044
1015	0.043
1015	0.042
1016	0.041
1016	0.041
1016	0.041
1017	0.04
1017	0.04
1018	0.04
1018	0.04
1018	0.039
1019	0.039
1019	0.038
1020	0.037
1020	0.037
1021	0.036
1021	0.034
1021	0.033
1022	0.032
1022	0.031
1023	0.03
1023	0.03
1023	0.029
1024	0.029
1024	0.029
1025	0.029
1025	0.029
1026	0.03
1026	0.03
1026	0.03
1027	0.031
1027	0.031
1028	0.031
1028	0.032
1028	0.032
1029	0.032
1029	0.032
1030	0.031
1030	0.031
1031	0.031
1031	0.031
1031	0.031
1032	0.031
1032	0.032
1033	0.032
1033	0.033
1033	0.034
1034	0.034
1034	0.035
1035	0.035
1035	0.035
1036	0.035
1036	0.036
1036	0.035
1037	0.035
1037	0.035
1038	0.034
1038	0.034
1039	0.034
1039	0.033
1039	0.033
1040	0.033
1040	0.034
1041	0.034
1041	0.034
1041	0.035
1042	0.035
1042	0.035
1043	0.035
1043	0.035
1044	0.035
1044	0.035
1044	0.035
1045	0.035
1045	0.034
1046	0.034
1046	0.034
1046	0.035
1047	0.035
1047	0.036
1048	0.036
1048	0.036
1049	0.037
1049	0.037
1049	0.037
1050	0.038
1050	0.038
1051	0.038
1051	0.038
1051	0.039
1052	0.039
1052	0.039
1053	0.039
1053	0.039
1053	0.039
1054	0.039
1054	0.039
1055	0.038
1055	0.038
1056	0.037
1056	0.036
1056	0.034
1057	0.033
1057	0.032
1058	0.032
1058	0.03
1058	0.03
1059	0.029
1059	0.029
1060	0.028
1060	0.028
1061	0.028
1061	0.029
1061	0.029
1062	0.029
1062	0.029
1063	0.029
1063	0.028
1063	0.029
1064	0.029
1064	0.029
1065	0.028
1065	0.028
1066	0.027
1066	0.027
1066	0.027
1067	0.026
1067	0.026
1068	0.025
1068	0.024
1068	0.024
1069	0.024
1069	0.023
1070	0.023
1070	0.023
1071	0.023
1071	0.023
1071	0.022
1072	0.022
1072	0.023
1073	0.022
1073	0.022
1073	0.022
1074	0.022
1074	0.023
1075	0.022
1075	0.022
1076	0.021
1076	0.022
1076	0.021
1077	0.021
1077	0.021
1078	0.02
1078	0.019
1078	0.018
1079	0.018
1079	0.017
1080	0.016
1080	0.015
1080	0.014
1081	0.014
1081	0.013
1082	0.012
1082	0.011
1083	0.011
1083	0.011
1083	0.01
1084	0.009
1084	0.009
1085	0.008
1085	0.008
1085	0.008
1086	0.007
1086	0.007
1087	0.007
1087	0.007
1088	0.007
1088	0.007
1088	0.006
1089	0.006
1089	0.006
1090	0.005
1090	0.004
1090	0.004
1091	0.004
1091	0.004
1092	0.002
1092	0.003
1092	0.002
1093	0.003
1093	0.003
1094	0.003
1094	0.003
1095	0.002
1095	0.002
1095	0.002
1096	0.001
1096	0.001
1097	0
1097	0
1097	-0.001
1098	-0.002
1098	-0.002
1099	-0.002
1099	-0.002
1100	-0.003
1100	-0.004
1100	-0.005
1101	-0.007
1101	-0.009
1102	-0.01
1102	-0.012
1102	-0.012
1103	-0.014
1103	-0.015
1104	-0.016
1104	-0.017
1104	-0.018
1105	-0.019
1105	-0.021
1106	-0.024
1106	-0.024
1107	-0.026
1107	-0.031
1107	-0.035
1108	-0.037
1108	-0.039
1109	-0.041
1109	-0.044
1109	-0.047
1110	-0.047
1110	-0.048
1111	-0.057
1111	-0.062
