Data from 17C_3.4A_30min_2sec_int_Absorbance__540__00540.txt Node

Date: Mon Jun 19 16:27:17 CEST 2023
User: Marek
Spectrometer: MAYP115816
Trigger mode: 0
Integration Time (sec): 2.500000E-1
Scans to average: 10
Electric dark correction enabled: true
Nonlinearity correction enabled: true
Boxcar width: 5
XAxis mode: Wavelengths
Number of Pixels in Spectrum: 2068
>>>>>Begin Spectral Data<<<<<
199	-0.545
199	-0.571
200	-0.482
200	-0.434
201	-0.401
201	-0.389
202	-0.371
202	-0.358
203	-0.348
203	-0.345
204	-0.332
204	-0.321
205	-0.297
205	-0.292
205	-0.29
206	-0.291
206	-0.297
207	-0.287
207	-0.29
208	-0.294
208	-0.292
209	-0.289
209	-0.289
210	-0.294
210	-0.298
211	-0.298
211	-0.3
212	-0.297
212	-0.305
213	-0.302
213	-0.305
213	-0.31
214	-0.306
214	-0.308
215	-0.306
215	-0.308
216	-0.311
216	-0.318
217	-0.314
217	-0.32
218	-0.323
218	-0.32
219	-0.322
219	-0.332
220	-0.334
220	-0.343
221	-0.346
221	-0.348
221	-0.342
222	-0.34
222	-0.341
223	-0.347
223	-0.35
224	-0.354
224	-0.353
225	-0.35
225	-0.342
226	-0.345
226	-0.346
227	-0.35
227	-0.357
228	-0.356
228	-0.354
229	-0.355
229	-0.347
229	-0.343
230	-0.347
230	-0.354
231	-0.349
231	-0.342
232	-0.336
232	-0.338
233	-0.329
233	-0.329
234	-0.329
234	-0.326
235	-0.329
235	-0.333
236	-0.33
236	-0.335
236	-0.342
237	-0.346
237	-0.345
238	-0.355
238	-0.352
239	-0.35
239	-0.36
240	-0.358
240	-0.359
241	-0.362
241	-0.359
242	-0.364
242	-0.364
243	-0.361
243	-0.361
243	-0.369
244	-0.369
244	-0.368
245	-0.38
245	-0.378
246	-0.382
246	-0.387
247	-0.386
247	-0.388
248	-0.396
248	-0.395
249	-0.398
249	-0.406
250	-0.404
250	-0.401
250	-0.401
251	-0.401
251	-0.402
252	-0.405
252	-0.396
253	-0.4
253	-0.409
254	-0.407
254	-0.407
255	-0.414
255	-0.409
256	-0.405
256	-0.414
257	-0.409
257	-0.406
258	-0.422
258	-0.416
258	-0.412
259	-0.409
259	-0.414
260	-0.413
260	-0.418
261	-0.428
261	-0.418
262	-0.416
262	-0.418
263	-0.406
263	-0.404
264	-0.402
264	-0.41
265	-0.405
265	-0.416
265	-0.417
266	-0.417
266	-0.414
267	-0.425
267	-0.431
268	-0.448
268	-0.455
269	-0.452
269	-0.448
270	-0.454
270	-0.455
271	-0.456
271	-0.461
272	-0.467
272	-0.46
272	-0.452
273	-0.448
273	-0.454
274	-0.461
274	-0.465
275	-0.465
275	-0.459
276	-0.458
276	-0.45
277	-0.453
277	-0.472
278	-0.481
278	-0.476
278	-0.473
279	-0.473
279	-0.482
280	-0.478
280	-0.478
281	-0.476
281	-0.484
282	-0.475
282	-0.473
283	-0.464
283	-0.465
284	-0.461
284	-0.45
285	-0.447
285	-0.444
285	-0.44
286	-0.448
286	-0.443
287	-0.44
287	-0.429
288	-0.424
288	-0.432
289	-0.443
289	-0.454
290	-0.441
290	-0.442
291	-0.439
291	-0.433
292	-0.434
292	-0.443
292	-0.445
293	-0.451
293	-0.441
294	-0.43
294	-0.424
295	-0.421
295	-0.418
296	-0.418
296	-0.416
297	-0.413
297	-0.398
298	-0.391
298	-0.399
298	-0.39
299	-0.383
299	-0.384
300	-0.381
300	-0.377
301	-0.373
301	-0.37
302	-0.377
302	-0.385
303	-0.378
303	-0.361
304	-0.361
304	-0.362
305	-0.364
305	-0.365
305	-0.363
306	-0.346
306	-0.342
307	-0.332
307	-0.332
308	-0.342
308	-0.343
309	-0.344
309	-0.333
310	-0.321
310	-0.319
311	-0.311
311	-0.32
311	-0.317
312	-0.312
312	-0.309
313	-0.297
313	-0.299
314	-0.3
314	-0.302
315	-0.305
315	-0.302
316	-0.3
316	-0.294
317	-0.289
317	-0.286
318	-0.276
318	-0.274
318	-0.269
319	-0.257
319	-0.253
320	-0.245
320	-0.247
321	-0.25
321	-0.249
322	-0.243
322	-0.238
323	-0.238
323	-0.232
324	-0.223
324	-0.217
324	-0.21
325	-0.203
325	-0.188
326	-0.176
326	-0.162
327	-0.149
327	-0.13
328	-0.109
328	-0.089
329	-0.072
329	-0.052
330	-0.03
330	-0.005
330	0.017
331	0.04
331	0.062
332	0.081
332	0.096
333	0.113
333	0.129
334	0.143
334	0.156
335	0.168
335	0.179
336	0.188
336	0.198
336	0.205
337	0.213
337	0.22
338	0.225
338	0.228
339	0.234
339	0.237
340	0.24
340	0.243
341	0.246
341	0.247
342	0.249
342	0.251
342	0.253
343	0.254
343	0.256
344	0.257
344	0.258
345	0.259
345	0.259
346	0.26
346	0.261
347	0.261
347	0.261
348	0.261
348	0.261
348	0.261
349	0.261
349	0.261
350	0.261
350	0.261
351	0.261
351	0.261
352	0.261
352	0.261
353	0.26
353	0.26
354	0.26
354	0.26
354	0.26
355	0.26
355	0.26
356	0.26
356	0.259
357	0.258
357	0.258
358	0.257
358	0.257
359	0.257
359	0.257
360	0.257
360	0.256
360	0.256
361	0.256
361	0.256
362	0.256
362	0.256
363	0.256
363	0.256
364	0.256
364	0.255
365	0.255
365	0.255
366	0.255
366	0.255
366	0.254
367	0.255
367	0.254
368	0.254
368	0.254
369	0.254
369	0.254
370	0.253
370	0.253
371	0.253
371	0.253
372	0.253
372	0.253
372	0.252
373	0.252
373	0.252
374	0.252
374	0.252
375	0.251
375	0.251
376	0.251
376	0.251
377	0.251
377	0.251
378	0.251
378	0.251
378	0.251
379	0.251
379	0.25
380	0.25
380	0.25
381	0.25
381	0.25
382	0.25
382	0.249
383	0.249
383	0.248
383	0.248
384	0.248
384	0.247
385	0.247
385	0.247
386	0.247
386	0.247
387	0.247
387	0.247
388	0.246
388	0.246
389	0.246
389	0.246
389	0.246
390	0.246
390	0.246
391	0.246
391	0.246
392	0.245
392	0.245
393	0.245
393	0.245
394	0.245
394	0.245
394	0.244
395	0.244
395	0.244
396	0.244
396	0.244
397	0.243
397	0.243
398	0.243
398	0.243
399	0.243
399	0.242
400	0.242
400	0.242
400	0.241
401	0.241
401	0.241
402	0.241
402	0.24
403	0.24
403	0.24
404	0.24
404	0.24
405	0.24
405	0.239
405	0.239
406	0.239
406	0.239
407	0.238
407	0.238
408	0.238
408	0.238
409	0.238
409	0.238
410	0.238
410	0.238
411	0.238
411	0.238
411	0.238
412	0.238
412	0.238
413	0.238
413	0.237
414	0.237
414	0.237
415	0.237
415	0.237
416	0.237
416	0.237
416	0.236
417	0.236
417	0.236
418	0.236
418	0.236
419	0.235
419	0.235
420	0.235
420	0.235
421	0.235
421	0.235
421	0.236
422	0.236
422	0.236
423	0.236
423	0.236
424	0.235
424	0.235
425	0.235
425	0.235
426	0.235
426	0.234
427	0.234
427	0.234
427	0.234
428	0.234
428	0.234
429	0.234
429	0.234
430	0.234
430	0.233
431	0.233
431	0.233
432	0.233
432	0.233
432	0.233
433	0.232
433	0.232
434	0.232
434	0.232
435	0.232
435	0.232
436	0.232
436	0.232
437	0.232
437	0.232
437	0.232
438	0.232
438	0.232
439	0.232
439	0.232
440	0.232
440	0.231
441	0.231
441	0.231
442	0.231
442	0.23
442	0.23
443	0.23
443	0.23
444	0.23
444	0.23
445	0.23
445	0.23
446	0.23
446	0.23
447	0.231
447	0.231
447	0.231
448	0.231
448	0.231
449	0.231
449	0.231
450	0.231
450	0.231
451	0.231
451	0.231
452	0.231
452	0.231
452	0.231
453	0.231
453	0.231
454	0.231
454	0.231
455	0.231
455	0.231
456	0.231
456	0.231
457	0.231
457	0.23
458	0.23
458	0.231
458	0.231
459	0.231
459	0.231
460	0.231
460	0.231
461	0.231
461	0.231
462	0.231
462	0.232
463	0.232
463	0.232
463	0.232
464	0.232
464	0.232
465	0.232
465	0.233
466	0.233
466	0.233
467	0.234
467	0.234
467	0.234
468	0.235
468	0.235
469	0.235
469	0.236
470	0.237
470	0.237
471	0.237
471	0.237
472	0.237
472	0.237
472	0.238
473	0.238
473	0.238
474	0.239
474	0.239
475	0.239
475	0.24
476	0.24
476	0.241
477	0.241
477	0.242
477	0.242
478	0.243
478	0.243
479	0.244
479	0.245
480	0.245
480	0.246
481	0.246
481	0.247
482	0.248
482	0.248
482	0.249
483	0.249
483	0.25
484	0.25
484	0.25
485	0.251
485	0.251
486	0.252
486	0.252
487	0.253
487	0.254
487	0.255
488	0.256
488	0.257
489	0.258
489	0.26
490	0.261
490	0.262
491	0.264
491	0.265
492	0.266
492	0.267
492	0.269
493	0.27
493	0.271
494	0.272
494	0.273
495	0.275
495	0.276
496	0.277
496	0.279
496	0.28
497	0.282
497	0.284
498	0.286
498	0.287
499	0.289
499	0.291
500	0.293
500	0.295
501	0.296
501	0.298
501	0.299
502	0.3
502	0.301
503	0.303
503	0.304
504	0.305
504	0.307
505	0.309
505	0.311
506	0.312
506	0.314
506	0.316
507	0.318
507	0.32
508	0.322
508	0.324
509	0.326
509	0.328
510	0.329
510	0.331
511	0.333
511	0.334
511	0.336
512	0.337
512	0.339
513	0.34
513	0.342
514	0.343
514	0.345
515	0.346
515	0.348
515	0.35
516	0.351
516	0.353
517	0.354
517	0.356
518	0.357
518	0.358
519	0.36
519	0.361
520	0.363
520	0.364
520	0.365
521	0.367
521	0.368
522	0.369
522	0.371
523	0.372
523	0.373
524	0.373
524	0.374
524	0.375
525	0.375
525	0.375
526	0.376
526	0.376
527	0.377
527	0.377
528	0.378
528	0.379
529	0.379
529	0.379
529	0.38
530	0.38
530	0.38
531	0.38
531	0.38
532	0.379
532	0.379
533	0.379
533	0.379
533	0.378
534	0.378
534	0.378
535	0.377
535	0.377
536	0.376
536	0.375
537	0.375
537	0.374
538	0.373
538	0.372
538	0.371
539	0.371
539	0.37
540	0.369
540	0.367
541	0.366
541	0.365
542	0.364
542	0.363
542	0.362
543	0.361
543	0.36
544	0.358
544	0.357
545	0.356
545	0.355
546	0.354
546	0.353
547	0.351
547	0.35
547	0.349
548	0.347
548	0.346
549	0.345
549	0.344
550	0.342
550	0.341
551	0.339
551	0.338
551	0.337
552	0.336
552	0.335
553	0.334
553	0.332
554	0.331
554	0.33
555	0.328
555	0.327
556	0.326
556	0.324
556	0.323
557	0.322
557	0.32
558	0.319
558	0.317
559	0.316
559	0.314
560	0.313
560	0.312
560	0.311
561	0.31
561	0.308
562	0.307
562	0.305
563	0.304
563	0.303
564	0.302
564	0.301
564	0.3
565	0.298
565	0.297
566	0.295
566	0.293
567	0.292
567	0.29
568	0.289
568	0.287
568	0.285
569	0.284
569	0.282
570	0.281
570	0.279
571	0.278
571	0.277
572	0.276
572	0.274
573	0.273
573	0.272
573	0.271
574	0.27
574	0.269
575	0.268
575	0.268
576	0.267
576	0.266
577	0.265
577	0.265
577	0.264
578	0.264
578	0.264
579	0.263
579	0.263
580	0.262
580	0.26
581	0.259
581	0.258
581	0.258
582	0.257
582	0.256
583	0.256
583	0.254
584	0.253
584	0.252
585	0.252
585	0.252
585	0.251
586	0.251
586	0.25
587	0.25
587	0.249
588	0.248
588	0.248
589	0.248
589	0.248
590	0.247
590	0.247
590	0.247
591	0.247
591	0.246
592	0.245
592	0.244
593	0.244
593	0.243
594	0.243
594	0.242
594	0.242
595	0.241
595	0.241
596	0.241
596	0.241
597	0.242
597	0.241
598	0.24
598	0.24
598	0.24
599	0.239
599	0.238
600	0.238
600	0.237
601	0.236
601	0.235
602	0.234
602	0.234
602	0.233
603	0.233
603	0.234
604	0.234
604	0.234
605	0.234
605	0.234
606	0.234
606	0.233
606	0.233
607	0.232
607	0.232
608	0.231
608	0.23
609	0.23
609	0.229
610	0.229
610	0.229
610	0.229
611	0.229
611	0.229
612	0.23
612	0.23
613	0.23
613	0.229
614	0.229
614	0.228
614	0.227
615	0.226
615	0.225
616	0.225
616	0.224
617	0.223
617	0.222
618	0.221
618	0.221
618	0.221
619	0.221
619	0.221
620	0.221
620	0.22
621	0.22
621	0.22
622	0.22
622	0.22
622	0.219
623	0.219
623	0.219
624	0.218
624	0.218
625	0.218
625	0.218
626	0.217
626	0.217
626	0.217
627	0.217
627	0.216
628	0.215
628	0.214
629	0.213
629	0.212
630	0.21
630	0.209
630	0.208
631	0.207
631	0.205
632	0.203
632	0.202
633	0.2
633	0.198
634	0.196
634	0.194
634	0.192
635	0.19
635	0.187
636	0.184
636	0.181
637	0.178
637	0.175
638	0.171
638	0.168
638	0.164
639	0.16
639	0.157
640	0.153
640	0.149
641	0.145
641	0.142
642	0.138
642	0.134
642	0.13
643	0.126
643	0.122
644	0.118
644	0.113
645	0.109
645	0.104
646	0.099
646	0.094
646	0.088
647	0.083
647	0.078
648	0.072
648	0.067
649	0.06
649	0.054
650	0.048
650	0.042
650	0.035
651	0.027
651	0.017
652	0.005
652	-0.008
653	-0.019
653	-0.029
653	-0.026
654	-0.01
654	-0.002
655	-0.004
655	-0.008
656	-0.013
656	-0.018
657	-0.021
657	-0.025
657	-0.03
658	-0.035
658	-0.058
659	-0.129
659	-0.215
660	-0.254
660	-0.277
661	-0.304
661	-0.332
661	-0.365
662	-0.396
662	-0.431
663	-0.47
663	-0.513
664	-0.558
664	-0.611
665	-0.663
665	-0.724
665	-0.78
666	-0.839
666	-0.903
667	-0.97
667	-1.037
668	-1.111
668	-1.185
669	-1.261
669	-1.336
669	-1.414
670	-1.481
670	-1.506
671	-1.63
671	-1.94
672	-2.18
672	-2.377
672	-2.51
673	-2.605
673	-2.686
674	-2.727
674	-2.745
675	-2.77
675	-2.911
676	-3.111
676	-3.061
676	-2.836
677	-2.629
677	-2.462
678	-2.278
678	-1.954
679	-1.672
679	-1.536
680	-1.44
680	-1.356
680	-1.285
681	-1.238
681	-1.177
682	-1.136
682	-1.097
683	-1.06
683	-1.039
684	-1.015
684	-0.993
684	-0.969
685	-0.942
685	-0.917
686	-0.89
686	-0.872
687	-0.843
687	-0.829
687	-0.807
688	-0.779
688	-0.757
689	-0.733
689	-0.718
690	-0.696
690	-0.681
691	-0.673
691	-0.675
691	-0.689
692	-0.68
692	-0.67
693	-0.664
693	-0.668
694	-0.663
694	-0.654
695	-0.657
695	-0.655
695	-0.637
696	-0.631
696	-0.609
697	-0.606
697	-0.62
698	-0.621
698	-0.611
698	-0.621
699	-0.621
699	-0.618
700	-0.607
700	-0.621
701	-0.62
701	-0.622
702	-0.623
702	-0.611
702	-0.602
703	-0.593
703	-0.584
704	-0.584
704	-0.582
705	-0.593
705	-0.587
705	-0.575
706	-0.577
706	-0.572
707	-0.573
707	-0.572
708	-0.572
708	-0.565
709	-0.564
709	-0.568
709	-0.558
710	-0.563
710	-0.572
711	-0.564
711	-0.563
712	-0.564
712	-0.571
713	-0.569
713	-0.577
713	-0.568
714	-0.566
714	-0.565
715	-0.555
715	-0.542
716	-0.55
716	-0.552
716	-0.543
717	-0.545
717	-0.547
718	-0.537
718	-0.537
719	-0.544
719	-0.546
720	-0.541
720	-0.548
720	-0.54
721	-0.529
721	-0.529
722	-0.519
722	-0.512
723	-0.51
723	-0.513
723	-0.498
724	-0.501
724	-0.506
725	-0.507
725	-0.514
726	-0.528
726	-0.532
727	-0.535
727	-0.548
727	-0.554
728	-0.555
728	-0.56
729	-0.56
729	-0.563
730	-0.569
730	-0.562
730	-0.551
731	-0.537
731	-0.548
732	-0.553
732	-0.553
733	-0.551
733	-0.554
734	-0.546
734	-0.545
734	-0.533
735	-0.531
735	-0.533
736	-0.54
736	-0.529
737	-0.518
737	-0.521
737	-0.53
738	-0.525
738	-0.525
739	-0.525
739	-0.535
740	-0.536
740	-0.533
741	-0.53
741	-0.529
741	-0.533
742	-0.528
742	-0.531
743	-0.539
743	-0.545
744	-0.542
744	-0.535
744	-0.536
745	-0.544
745	-0.539
746	-0.535
746	-0.533
747	-0.535
747	-0.521
748	-0.507
748	-0.513
748	-0.514
749	-0.51
749	-0.506
750	-0.495
750	-0.496
751	-0.502
751	-0.513
751	-0.513
752	-0.516
752	-0.528
753	-0.518
753	-0.514
754	-0.521
754	-0.518
754	-0.53
755	-0.543
755	-0.552
756	-0.54
756	-0.538
757	-0.539
757	-0.534
758	-0.54
758	-0.541
758	-0.542
759	-0.551
759	-0.538
760	-0.531
760	-0.529
761	-0.536
761	-0.535
761	-0.534
762	-0.542
762	-0.542
763	-0.55
763	-0.548
764	-0.542
764	-0.547
764	-0.551
765	-0.542
765	-0.53
766	-0.535
766	-0.538
767	-0.551
767	-0.544
768	-0.535
768	-0.54
768	-0.546
769	-0.563
769	-0.567
770	-0.57
770	-0.584
771	-0.581
771	-0.582
771	-0.585
772	-0.588
772	-0.587
773	-0.59
773	-0.586
774	-0.585
774	-0.584
775	-0.584
775	-0.576
775	-0.582
776	-0.587
776	-0.575
777	-0.583
777	-0.601
778	-0.597
778	-0.617
778	-0.605
779	-0.626
779	-0.635
780	-0.65
780	-0.649
781	-0.661
781	-0.658
781	-0.675
782	-0.68
782	-0.685
783	-0.671
783	-0.669
784	-0.651
784	-0.642
784	-0.65
785	-0.659
785	-0.642
786	-0.646
786	-0.623
787	-0.605
787	-0.604
788	-0.608
788	-0.617
788	-0.627
789	-0.627
789	-0.611
790	-0.592
790	-0.596
791	-0.593
791	-0.61
791	-0.616
792	-0.609
792	-0.586
793	-0.575
793	-0.551
794	-0.558
794	-0.549
794	-0.56
795	-0.556
795	-0.552
796	-0.535
796	-0.543
797	-0.536
797	-0.548
797	-0.556
798	-0.568
798	-0.562
799	-0.571
799	-0.555
800	-0.56
800	-0.548
801	-0.554
801	-0.54
801	-0.554
802	-0.561
802	-0.561
803	-0.564
803	-0.57
804	-0.568
804	-0.577
804	-0.565
805	-0.575
805	-0.563
806	-0.565
806	-0.55
807	-0.549
807	-0.533
807	-0.52
808	-0.512
808	-0.504
809	-0.49
809	-0.5
810	-0.498
810	-0.493
810	-0.49
811	-0.494
811	-0.485
812	-0.484
812	-0.489
813	-0.495
813	-0.492
813	-0.499
814	-0.5
814	-0.501
815	-0.506
815	-0.51
816	-0.502
816	-0.506
817	-0.513
817	-0.527
817	-0.539
818	-0.548
818	-0.548
819	-0.541
819	-0.546
820	-0.556
820	-0.549
820	-0.56
821	-0.557
821	-0.545
822	-0.513
822	-0.49
823	-0.486
823	-0.492
823	-0.488
824	-0.483
824	-0.484
825	-0.482
825	-0.463
826	-0.459
826	-0.467
826	-0.479
827	-0.476
827	-0.476
828	-0.452
828	-0.453
829	-0.442
829	-0.428
829	-0.42
830	-0.429
830	-0.428
831	-0.42
831	-0.411
832	-0.41
832	-0.401
832	-0.413
833	-0.408
833	-0.412
834	-0.411
834	-0.416
835	-0.406
835	-0.403
835	-0.4
836	-0.397
836	-0.393
837	-0.394
837	-0.381
838	-0.373
838	-0.362
839	-0.349
839	-0.341
839	-0.33
840	-0.322
840	-0.32
841	-0.309
841	-0.303
842	-0.295
842	-0.29
842	-0.286
843	-0.281
843	-0.279
844	-0.269
844	-0.264
845	-0.256
845	-0.245
845	-0.236
846	-0.226
846	-0.216
847	-0.205
847	-0.196
848	-0.186
848	-0.177
848	-0.165
849	-0.158
849	-0.149
850	-0.138
850	-0.134
851	-0.128
851	-0.12
851	-0.113
852	-0.102
852	-0.092
853	-0.086
853	-0.083
854	-0.072
854	-0.062
854	-0.055
855	-0.046
855	-0.041
856	-0.032
856	-0.026
857	-0.02
857	-0.015
857	-0.006
858	0.002
858	0.005
859	0.009
859	0.017
860	0.022
860	0.031
860	0.035
861	0.04
861	0.045
862	0.049
862	0.054
863	0.057
863	0.062
863	0.065
864	0.067
864	0.071
865	0.074
865	0.077
866	0.08
866	0.082
866	0.085
867	0.087
867	0.09
868	0.092
868	0.096
869	0.098
869	0.1
869	0.101
870	0.102
870	0.104
871	0.105
871	0.106
872	0.106
872	0.106
872	0.106
873	0.106
873	0.106
874	0.106
874	0.105
875	0.105
875	0.104
875	0.104
876	0.103
876	0.102
877	0.101
877	0.1
878	0.1
878	0.099
878	0.098
879	0.097
879	0.096
880	0.095
880	0.095
881	0.095
881	0.095
881	0.094
882	0.094
882	0.093
883	0.092
883	0.091
884	0.09
884	0.089
884	0.088
885	0.088
885	0.087
886	0.087
886	0.086
887	0.086
887	0.086
887	0.087
888	0.088
888	0.088
889	0.089
889	0.09
890	0.091
890	0.091
890	0.092
891	0.092
891	0.092
892	0.092
892	0.092
893	0.092
893	0.091
893	0.091
894	0.09
894	0.089
895	0.089
895	0.088
895	0.088
896	0.087
896	0.086
897	0.085
897	0.084
898	0.084
898	0.083
898	0.083
899	0.083
899	0.083
900	0.084
900	0.084
901	0.084
901	0.084
901	0.085
902	0.085
902	0.085
903	0.084
903	0.084
904	0.084
904	0.084
904	0.084
905	0.084
905	0.084
906	0.084
906	0.083
907	0.083
907	0.082
907	0.082
908	0.081
908	0.08
909	0.08
909	0.079
910	0.078
910	0.077
910	0.076
911	0.076
911	0.076
912	0.076
912	0.076
913	0.077
913	0.077
913	0.078
914	0.079
914	0.08
915	0.081
915	0.082
916	0.082
916	0.083
916	0.084
917	0.084
917	0.085
918	0.085
918	0.085
918	0.085
919	0.085
919	0.085
920	0.086
920	0.086
921	0.087
921	0.087
921	0.087
922	0.088
922	0.088
923	0.088
923	0.089
924	0.089
924	0.089
924	0.089
925	0.089
925	0.088
926	0.087
926	0.086
927	0.085
927	0.085
927	0.084
928	0.083
928	0.082
929	0.082
929	0.081
930	0.08
930	0.08
930	0.08
931	0.079
931	0.08
932	0.08
932	0.079
933	0.079
933	0.079
933	0.078
934	0.077
934	0.077
935	0.076
935	0.076
935	0.075
936	0.074
936	0.073
937	0.072
937	0.072
938	0.072
938	0.072
938	0.072
939	0.072
939	0.072
940	0.072
940	0.071
941	0.071
941	0.072
941	0.072
942	0.072
942	0.071
943	0.071
943	0.07
944	0.069
944	0.069
944	0.068
945	0.068
945	0.067
946	0.066
946	0.065
946	0.065
947	0.065
947	0.066
948	0.066
948	0.067
949	0.067
949	0.068
949	0.068
950	0.07
950	0.07
951	0.071
951	0.071
952	0.072
952	0.073
952	0.073
953	0.074
953	0.075
954	0.075
954	0.075
955	0.076
955	0.077
955	0.077
956	0.078
956	0.078
957	0.078
957	0.078
957	0.079
958	0.079
958	0.08
959	0.08
959	0.08
960	0.08
960	0.08
960	0.08
961	0.079
961	0.079
962	0.079
962	0.078
963	0.078
963	0.078
963	0.077
964	0.077
964	0.076
965	0.076
965	0.076
966	0.075
966	0.075
966	0.074
967	0.074
967	0.074
968	0.073
968	0.073
968	0.073
969	0.072
969	0.072
970	0.072
970	0.072
971	0.072
971	0.072
971	0.072
972	0.072
972	0.071
973	0.071
973	0.07
974	0.069
974	0.069
974	0.068
975	0.068
975	0.067
976	0.066
976	0.065
976	0.065
977	0.065
977	0.064
978	0.064
978	0.064
979	0.064
979	0.064
979	0.064
980	0.064
980	0.065
981	0.065
981	0.065
982	0.065
982	0.065
982	0.065
983	0.065
983	0.065
984	0.065
984	0.064
984	0.064
985	0.064
985	0.064
986	0.064
986	0.065
987	0.065
987	0.066
987	0.066
988	0.066
988	0.066
989	0.066
989	0.066
990	0.066
990	0.066
990	0.066
991	0.065
991	0.065
992	0.065
992	0.064
992	0.064
993	0.064
993	0.064
994	0.063
994	0.063
995	0.063
995	0.063
995	0.063
996	0.063
996	0.062
997	0.062
997	0.062
997	0.062
998	0.062
998	0.062
999	0.062
999	0.062
1000	0.062
1000	0.062
1000	0.062
1001	0.062
1001	0.062
1002	0.061
1002	0.061
1003	0.061
1003	0.061
1003	0.06
1004	0.059
1004	0.058
1005	0.057
1005	0.056
1005	0.055
1006	0.054
1006	0.053
1007	0.052
1007	0.051
1008	0.051
1008	0.051
1008	0.05
1009	0.05
1009	0.05
1010	0.051
1010	0.051
1010	0.051
1011	0.051
1011	0.05
1012	0.05
1012	0.049
1013	0.048
1013	0.047
1013	0.046
1014	0.045
1014	0.044
1015	0.043
1015	0.042
1016	0.041
1016	0.041
1016	0.04
1017	0.04
1017	0.04
1018	0.04
1018	0.04
1018	0.039
1019	0.039
1019	0.038
1020	0.037
1020	0.037
1021	0.036
1021	0.034
1021	0.033
1022	0.032
1022	0.031
1023	0.03
1023	0.03
1023	0.029
1024	0.029
1024	0.029
1025	0.029
1025	0.029
1026	0.03
1026	0.03
1026	0.031
1027	0.031
1027	0.031
1028	0.031
1028	0.031
1028	0.031
1029	0.032
1029	0.032
1030	0.031
1030	0.031
1031	0.031
1031	0.031
1031	0.031
1032	0.031
1032	0.031
1033	0.032
1033	0.033
1033	0.033
1034	0.034
1034	0.034
1035	0.034
1035	0.035
1036	0.034
1036	0.034
1036	0.034
1037	0.034
1037	0.033
1038	0.033
1038	0.032
1039	0.032
1039	0.032
1039	0.032
1040	0.032
1040	0.032
1041	0.033
1041	0.033
1041	0.034
1042	0.034
1042	0.034
1043	0.034
1043	0.034
1044	0.034
1044	0.033
1044	0.033
1045	0.033
1045	0.033
1046	0.032
1046	0.032
1046	0.033
1047	0.033
1047	0.034
1048	0.035
1048	0.035
1049	0.036
1049	0.036
1049	0.036
1050	0.037
1050	0.037
1051	0.038
1051	0.038
1051	0.038
1052	0.039
1052	0.039
1053	0.039
1053	0.039
1053	0.038
1054	0.038
1054	0.038
1055	0.037
1055	0.037
1056	0.036
1056	0.034
1056	0.033
1057	0.032
1057	0.032
1058	0.031
1058	0.03
1058	0.029
1059	0.028
1059	0.028
1060	0.027
1060	0.027
1061	0.027
1061	0.027
1061	0.027
1062	0.027
1062	0.027
1063	0.027
1063	0.027
1063	0.027
1064	0.027
1064	0.027
1065	0.027
1065	0.026
1066	0.026
1066	0.025
1066	0.025
1067	0.025
1067	0.025
1068	0.024
1068	0.023
1068	0.023
1069	0.023
1069	0.023
1070	0.023
1070	0.023
1071	0.023
1071	0.023
1071	0.022
1072	0.022
1072	0.022
1073	0.022
1073	0.022
1073	0.022
1074	0.022
1074	0.023
1075	0.022
1075	0.022
1076	0.021
1076	0.021
1076	0.021
1077	0.021
1077	0.021
1078	0.02
1078	0.019
1078	0.018
1079	0.017
1079	0.017
1080	0.016
1080	0.016
1080	0.015
1081	0.014
1081	0.013
1082	0.012
1082	0.011
1083	0.011
1083	0.01
1083	0.009
1084	0.009
1084	0.008
1085	0.007
1085	0.007
1085	0.007
1086	0.007
1086	0.007
1087	0.007
1087	0.007
1088	0.007
1088	0.006
1088	0.006
1089	0.005
1089	0.006
1090	0.004
1090	0.004
1090	0.003
1091	0.003
1091	0.002
1092	0.002
1092	0.002
1092	0.001
1093	0.001
1093	0.001
1094	0.001
1094	0.002
1095	0.001
1095	0.002
1095	0.002
1096	0.002
1096	0.001
1097	0.001
1097	0.001
1097	-0
1098	-0.001
1098	-0.001
1099	-0.002
1099	-0.003
1100	-0.004
1100	-0.005
1100	-0.007
1101	-0.008
1101	-0.01
1102	-0.011
1102	-0.012
1102	-0.012
1103	-0.013
1103	-0.015
1104	-0.016
1104	-0.016
1104	-0.017
1105	-0.018
1105	-0.021
1106	-0.024
1106	-0.025
1107	-0.028
1107	-0.031
1107	-0.034
1108	-0.035
1108	-0.037
1109	-0.04
1109	-0.043
1109	-0.045
1110	-0.043
1110	-0.044
1111	-0.047
1111	-0.047
