Data from 17C_3.4A_30min_2sec_int_Absorbance__219__00219.txt Node

Date: Mon Jun 19 16:13:55 CEST 2023
User: Marek
Spectrometer: MAYP115816
Trigger mode: 0
Integration Time (sec): 2.500000E-1
Scans to average: 10
Electric dark correction enabled: true
Nonlinearity correction enabled: true
Boxcar width: 5
XAxis mode: Wavelengths
Number of Pixels in Spectrum: 2068
>>>>>Begin Spectral Data<<<<<
199	-0.397
199	-0.398
200	-0.321
200	-0.274
201	-0.25
201	-0.241
202	-0.226
202	-0.214
203	-0.204
203	-0.202
204	-0.189
204	-0.182
205	-0.166
205	-0.161
205	-0.158
206	-0.158
206	-0.162
207	-0.15
207	-0.151
208	-0.154
208	-0.151
209	-0.15
209	-0.148
210	-0.153
210	-0.157
211	-0.163
211	-0.164
212	-0.162
212	-0.177
213	-0.176
213	-0.177
213	-0.18
214	-0.175
214	-0.176
215	-0.173
215	-0.181
216	-0.182
216	-0.187
217	-0.185
217	-0.184
218	-0.187
218	-0.189
219	-0.194
219	-0.205
220	-0.206
220	-0.212
221	-0.209
221	-0.209
221	-0.204
222	-0.201
222	-0.2
223	-0.2
223	-0.202
224	-0.203
224	-0.202
225	-0.198
225	-0.195
226	-0.199
226	-0.197
227	-0.204
227	-0.211
228	-0.212
228	-0.213
229	-0.215
229	-0.211
229	-0.204
230	-0.209
230	-0.212
231	-0.206
231	-0.198
232	-0.188
232	-0.19
233	-0.184
233	-0.185
234	-0.179
234	-0.176
235	-0.186
235	-0.189
236	-0.184
236	-0.186
236	-0.202
237	-0.208
237	-0.205
238	-0.214
238	-0.212
239	-0.213
239	-0.221
240	-0.214
240	-0.212
241	-0.215
241	-0.211
242	-0.207
242	-0.206
243	-0.201
243	-0.2
243	-0.208
244	-0.209
244	-0.206
245	-0.215
245	-0.215
246	-0.219
246	-0.229
247	-0.227
247	-0.229
248	-0.237
248	-0.235
249	-0.235
249	-0.243
250	-0.24
250	-0.245
250	-0.245
251	-0.243
251	-0.239
252	-0.244
252	-0.234
253	-0.237
253	-0.243
254	-0.241
254	-0.236
255	-0.242
255	-0.227
256	-0.222
256	-0.236
257	-0.233
257	-0.228
258	-0.245
258	-0.238
258	-0.236
259	-0.235
259	-0.244
260	-0.243
260	-0.251
261	-0.259
261	-0.249
262	-0.248
262	-0.249
263	-0.24
263	-0.239
264	-0.241
264	-0.248
265	-0.24
265	-0.248
265	-0.254
266	-0.252
266	-0.255
267	-0.265
267	-0.276
268	-0.288
268	-0.293
269	-0.288
269	-0.282
270	-0.29
270	-0.294
271	-0.292
271	-0.295
272	-0.292
272	-0.288
272	-0.275
273	-0.27
273	-0.283
274	-0.289
274	-0.289
275	-0.289
275	-0.282
276	-0.284
276	-0.28
277	-0.28
277	-0.296
278	-0.307
278	-0.305
278	-0.294
279	-0.294
279	-0.302
280	-0.3
280	-0.298
281	-0.295
281	-0.3
282	-0.296
282	-0.294
283	-0.284
283	-0.286
284	-0.284
284	-0.274
285	-0.269
285	-0.265
285	-0.263
286	-0.268
286	-0.266
287	-0.264
287	-0.251
288	-0.251
288	-0.255
289	-0.265
289	-0.274
290	-0.269
290	-0.268
291	-0.261
291	-0.254
292	-0.255
292	-0.258
292	-0.255
293	-0.253
293	-0.244
294	-0.236
294	-0.224
295	-0.22
295	-0.221
296	-0.223
296	-0.221
297	-0.215
297	-0.202
298	-0.202
298	-0.206
298	-0.196
299	-0.19
299	-0.195
300	-0.192
300	-0.185
301	-0.183
301	-0.182
302	-0.187
302	-0.195
303	-0.185
303	-0.173
304	-0.179
304	-0.179
305	-0.177
305	-0.175
305	-0.176
306	-0.163
306	-0.158
307	-0.143
307	-0.143
308	-0.157
308	-0.161
309	-0.163
309	-0.15
310	-0.142
310	-0.143
311	-0.137
311	-0.138
311	-0.139
312	-0.143
312	-0.14
313	-0.126
313	-0.127
314	-0.12
314	-0.128
315	-0.132
315	-0.128
316	-0.123
316	-0.121
317	-0.117
317	-0.114
318	-0.109
318	-0.108
318	-0.102
319	-0.094
319	-0.088
320	-0.078
320	-0.078
321	-0.083
321	-0.082
322	-0.075
322	-0.069
323	-0.064
323	-0.06
324	-0.059
324	-0.057
324	-0.047
325	-0.041
325	-0.031
326	-0.02
326	-0.008
327	0.005
327	0.02
328	0.035
328	0.05
329	0.07
329	0.088
330	0.106
330	0.124
330	0.144
331	0.163
331	0.181
332	0.197
332	0.21
333	0.223
333	0.237
334	0.248
334	0.255
335	0.264
335	0.272
336	0.279
336	0.284
336	0.288
337	0.292
337	0.296
338	0.3
338	0.302
339	0.304
339	0.307
340	0.309
340	0.311
341	0.312
341	0.313
342	0.315
342	0.316
342	0.318
343	0.318
343	0.32
344	0.32
344	0.32
345	0.321
345	0.321
346	0.321
346	0.322
347	0.322
347	0.322
348	0.322
348	0.322
348	0.322
349	0.322
349	0.322
350	0.322
350	0.322
351	0.322
351	0.321
352	0.321
352	0.321
353	0.321
353	0.321
354	0.321
354	0.32
354	0.32
355	0.32
355	0.32
356	0.319
356	0.319
357	0.318
357	0.317
358	0.317
358	0.317
359	0.317
359	0.316
360	0.316
360	0.316
360	0.315
361	0.315
361	0.315
362	0.315
362	0.315
363	0.315
363	0.314
364	0.314
364	0.314
365	0.314
365	0.314
366	0.314
366	0.313
366	0.313
367	0.313
367	0.313
368	0.313
368	0.312
369	0.312
369	0.312
370	0.312
370	0.311
371	0.311
371	0.311
372	0.31
372	0.31
372	0.31
373	0.309
373	0.309
374	0.309
374	0.309
375	0.308
375	0.308
376	0.308
376	0.308
377	0.308
377	0.308
378	0.308
378	0.308
378	0.308
379	0.307
379	0.307
380	0.307
380	0.306
381	0.306
381	0.305
382	0.305
382	0.305
383	0.304
383	0.304
383	0.304
384	0.303
384	0.303
385	0.303
385	0.303
386	0.303
386	0.302
387	0.302
387	0.302
388	0.302
388	0.301
389	0.301
389	0.301
389	0.301
390	0.301
390	0.301
391	0.3
391	0.3
392	0.3
392	0.3
393	0.299
393	0.299
394	0.299
394	0.298
394	0.298
395	0.297
395	0.297
396	0.297
396	0.296
397	0.296
397	0.296
398	0.296
398	0.296
399	0.295
399	0.295
400	0.295
400	0.295
400	0.294
401	0.294
401	0.294
402	0.293
402	0.293
403	0.292
403	0.292
404	0.292
404	0.291
405	0.291
405	0.291
405	0.291
406	0.291
406	0.29
407	0.29
407	0.29
408	0.29
408	0.289
409	0.289
409	0.289
410	0.289
410	0.289
411	0.289
411	0.289
411	0.288
412	0.289
412	0.288
413	0.288
413	0.288
414	0.288
414	0.287
415	0.287
415	0.287
416	0.287
416	0.286
416	0.286
417	0.286
417	0.286
418	0.286
418	0.286
419	0.285
419	0.285
420	0.285
420	0.285
421	0.285
421	0.285
421	0.285
422	0.285
422	0.285
423	0.285
423	0.285
424	0.285
424	0.285
425	0.285
425	0.284
426	0.284
426	0.284
427	0.283
427	0.283
427	0.283
428	0.283
428	0.283
429	0.282
429	0.282
430	0.282
430	0.282
431	0.282
431	0.282
432	0.282
432	0.282
432	0.281
433	0.281
433	0.281
434	0.281
434	0.281
435	0.28
435	0.28
436	0.28
436	0.28
437	0.28
437	0.28
437	0.28
438	0.28
438	0.28
439	0.28
439	0.28
440	0.28
440	0.28
441	0.279
441	0.279
442	0.279
442	0.278
442	0.278
443	0.278
443	0.278
444	0.278
444	0.278
445	0.278
445	0.279
446	0.279
446	0.279
447	0.279
447	0.279
447	0.279
448	0.279
448	0.279
449	0.279
449	0.279
450	0.28
450	0.28
451	0.28
451	0.28
452	0.28
452	0.28
452	0.28
453	0.28
453	0.279
454	0.279
454	0.279
455	0.279
455	0.279
456	0.279
456	0.279
457	0.279
457	0.279
458	0.279
458	0.279
458	0.28
459	0.28
459	0.28
460	0.28
460	0.28
461	0.28
461	0.281
462	0.281
462	0.281
463	0.282
463	0.282
463	0.282
464	0.283
464	0.283
465	0.283
465	0.283
466	0.283
466	0.284
467	0.284
467	0.285
467	0.285
468	0.285
468	0.286
469	0.286
469	0.287
470	0.287
470	0.288
471	0.288
471	0.289
472	0.289
472	0.29
472	0.29
473	0.29
473	0.291
474	0.291
474	0.292
475	0.292
475	0.293
476	0.294
476	0.294
477	0.294
477	0.295
477	0.296
478	0.297
478	0.297
479	0.298
479	0.299
480	0.3
480	0.3
481	0.301
481	0.302
482	0.303
482	0.304
482	0.305
483	0.306
483	0.307
484	0.307
484	0.308
485	0.309
485	0.31
486	0.31
486	0.311
487	0.313
487	0.314
487	0.315
488	0.316
488	0.317
489	0.319
489	0.321
490	0.323
490	0.324
491	0.326
491	0.328
492	0.329
492	0.331
492	0.333
493	0.334
493	0.336
494	0.338
494	0.339
495	0.341
495	0.343
496	0.345
496	0.347
496	0.349
497	0.351
497	0.353
498	0.355
498	0.357
499	0.36
499	0.362
500	0.365
500	0.367
501	0.369
501	0.372
501	0.374
502	0.376
502	0.378
503	0.38
503	0.382
504	0.384
504	0.386
505	0.389
505	0.391
506	0.393
506	0.396
506	0.398
507	0.401
507	0.403
508	0.406
508	0.408
509	0.411
509	0.413
510	0.415
510	0.418
511	0.42
511	0.423
511	0.425
512	0.427
512	0.429
513	0.431
513	0.433
514	0.436
514	0.438
515	0.44
515	0.442
515	0.444
516	0.446
516	0.449
517	0.451
517	0.452
518	0.454
518	0.456
519	0.458
519	0.46
520	0.462
520	0.464
520	0.466
521	0.467
521	0.469
522	0.47
522	0.472
523	0.473
523	0.475
524	0.475
524	0.476
524	0.477
525	0.478
525	0.479
526	0.479
526	0.48
527	0.48
527	0.481
528	0.482
528	0.482
529	0.483
529	0.483
529	0.483
530	0.484
530	0.484
531	0.484
531	0.484
532	0.484
532	0.484
533	0.483
533	0.483
533	0.482
534	0.482
534	0.481
535	0.481
535	0.48
536	0.479
536	0.479
537	0.477
537	0.476
538	0.475
538	0.475
538	0.474
539	0.473
539	0.471
540	0.47
540	0.469
541	0.467
541	0.466
542	0.464
542	0.462
542	0.46
543	0.458
543	0.457
544	0.455
544	0.453
545	0.451
545	0.45
546	0.448
546	0.446
547	0.444
547	0.443
547	0.441
548	0.44
548	0.438
549	0.436
549	0.434
550	0.432
550	0.431
551	0.428
551	0.427
551	0.425
552	0.423
552	0.421
553	0.419
553	0.418
554	0.416
554	0.414
555	0.412
555	0.41
556	0.409
556	0.407
556	0.405
557	0.403
557	0.401
558	0.399
558	0.397
559	0.395
559	0.392
560	0.391
560	0.389
560	0.387
561	0.385
561	0.383
562	0.381
562	0.379
563	0.377
563	0.375
564	0.374
564	0.372
564	0.37
565	0.368
565	0.366
566	0.364
566	0.362
567	0.36
567	0.357
568	0.355
568	0.353
568	0.351
569	0.349
569	0.347
570	0.344
570	0.342
571	0.341
571	0.339
572	0.337
572	0.336
573	0.334
573	0.332
573	0.331
574	0.329
574	0.328
575	0.326
575	0.325
576	0.323
576	0.322
577	0.321
577	0.32
577	0.319
578	0.318
578	0.317
579	0.316
579	0.314
580	0.312
580	0.311
581	0.309
581	0.308
581	0.307
582	0.306
582	0.304
583	0.303
583	0.302
584	0.3
584	0.299
585	0.298
585	0.297
585	0.295
586	0.295
586	0.294
587	0.293
587	0.292
588	0.291
588	0.291
589	0.29
589	0.289
590	0.288
590	0.287
590	0.287
591	0.285
591	0.284
592	0.282
592	0.281
593	0.281
593	0.279
594	0.278
594	0.277
594	0.276
595	0.276
595	0.275
596	0.274
596	0.274
597	0.273
597	0.272
598	0.271
598	0.27
598	0.269
599	0.268
599	0.267
600	0.266
600	0.265
601	0.264
601	0.263
602	0.262
602	0.261
602	0.26
603	0.259
603	0.259
604	0.258
604	0.258
605	0.257
605	0.257
606	0.256
606	0.255
606	0.254
607	0.253
607	0.252
608	0.251
608	0.25
609	0.249
609	0.248
610	0.247
610	0.246
610	0.246
611	0.246
611	0.245
612	0.245
612	0.245
613	0.244
613	0.243
614	0.242
614	0.241
614	0.24
615	0.239
615	0.238
616	0.237
616	0.235
617	0.234
617	0.233
618	0.232
618	0.23
618	0.23
619	0.229
619	0.228
620	0.228
620	0.227
621	0.226
621	0.225
622	0.224
622	0.223
622	0.222
623	0.222
623	0.221
624	0.22
624	0.22
625	0.219
625	0.218
626	0.217
626	0.217
626	0.216
627	0.215
627	0.214
628	0.213
628	0.211
629	0.21
629	0.208
630	0.207
630	0.205
630	0.203
631	0.201
631	0.199
632	0.197
632	0.195
633	0.192
633	0.19
634	0.187
634	0.185
634	0.182
635	0.179
635	0.175
636	0.172
636	0.168
637	0.164
637	0.161
638	0.157
638	0.153
638	0.149
639	0.144
639	0.14
640	0.136
640	0.131
641	0.127
641	0.123
642	0.119
642	0.115
642	0.111
643	0.106
643	0.101
644	0.096
644	0.091
645	0.086
645	0.081
646	0.075
646	0.069
646	0.064
647	0.058
647	0.053
648	0.047
648	0.041
649	0.035
649	0.029
650	0.023
650	0.017
650	0.011
651	0.003
651	-0.006
652	-0.018
652	-0.03
653	-0.04
653	-0.049
653	-0.046
654	-0.029
654	-0.018
655	-0.018
655	-0.021
656	-0.024
656	-0.028
657	-0.03
657	-0.032
657	-0.037
658	-0.041
658	-0.062
659	-0.128
659	-0.213
660	-0.25
660	-0.274
661	-0.3
661	-0.329
661	-0.363
662	-0.397
662	-0.433
663	-0.475
663	-0.52
664	-0.568
664	-0.624
665	-0.681
665	-0.744
665	-0.805
666	-0.868
666	-0.936
667	-1.007
667	-1.077
668	-1.155
668	-1.235
669	-1.316
669	-1.399
669	-1.492
670	-1.606
670	-1.793
671	-1.996
671	-2.158
672	-2.335
672	-2.496
672	-2.607
673	-2.686
673	-2.731
674	-2.752
674	-2.765
675	-2.784
675	-2.9
676	-3.054
676	-2.995
676	-2.755
677	-2.525
677	-2.315
678	-2.028
678	-1.705
679	-1.547
679	-1.441
680	-1.354
680	-1.278
680	-1.213
681	-1.17
681	-1.112
682	-1.072
682	-1.033
683	-0.996
683	-0.976
684	-0.951
684	-0.926
684	-0.899
685	-0.873
685	-0.845
686	-0.818
686	-0.797
687	-0.768
687	-0.75
687	-0.726
688	-0.698
688	-0.674
689	-0.65
689	-0.636
690	-0.613
690	-0.598
691	-0.589
691	-0.592
691	-0.603
692	-0.591
692	-0.579
693	-0.57
693	-0.571
694	-0.564
694	-0.555
695	-0.554
695	-0.548
695	-0.526
696	-0.52
696	-0.497
697	-0.496
697	-0.507
698	-0.506
698	-0.492
698	-0.502
699	-0.502
699	-0.498
700	-0.49
700	-0.504
701	-0.5
701	-0.504
702	-0.504
702	-0.493
702	-0.486
703	-0.48
703	-0.47
704	-0.464
704	-0.46
705	-0.466
705	-0.459
705	-0.448
706	-0.448
706	-0.441
707	-0.443
707	-0.435
708	-0.434
708	-0.427
709	-0.43
709	-0.432
709	-0.423
710	-0.425
710	-0.432
711	-0.419
711	-0.422
712	-0.422
712	-0.433
713	-0.431
713	-0.433
713	-0.421
714	-0.42
714	-0.423
715	-0.415
715	-0.401
716	-0.409
716	-0.406
716	-0.399
717	-0.402
717	-0.405
718	-0.404
718	-0.406
719	-0.413
719	-0.413
720	-0.409
720	-0.419
720	-0.412
721	-0.403
721	-0.403
722	-0.39
722	-0.384
723	-0.374
723	-0.377
723	-0.362
724	-0.362
724	-0.366
725	-0.364
725	-0.372
726	-0.384
726	-0.385
727	-0.387
727	-0.394
727	-0.404
728	-0.404
728	-0.41
729	-0.411
729	-0.413
730	-0.416
730	-0.412
730	-0.406
731	-0.392
731	-0.4
732	-0.406
732	-0.406
733	-0.402
733	-0.407
734	-0.398
734	-0.396
734	-0.387
735	-0.38
735	-0.377
736	-0.385
736	-0.377
737	-0.371
737	-0.37
737	-0.376
738	-0.374
738	-0.377
739	-0.375
739	-0.383
740	-0.383
740	-0.382
741	-0.376
741	-0.375
741	-0.375
742	-0.374
742	-0.376
743	-0.379
743	-0.383
744	-0.378
744	-0.371
744	-0.372
745	-0.377
745	-0.37
746	-0.367
746	-0.367
747	-0.363
747	-0.356
748	-0.342
748	-0.341
748	-0.346
749	-0.344
749	-0.343
750	-0.334
750	-0.338
751	-0.34
751	-0.347
751	-0.351
752	-0.354
752	-0.364
753	-0.361
753	-0.355
754	-0.359
754	-0.351
754	-0.364
755	-0.374
755	-0.388
756	-0.373
756	-0.373
757	-0.375
757	-0.371
758	-0.377
758	-0.377
758	-0.382
759	-0.393
759	-0.381
760	-0.378
760	-0.376
761	-0.388
761	-0.381
761	-0.379
762	-0.387
762	-0.383
763	-0.392
763	-0.385
764	-0.379
764	-0.383
764	-0.387
765	-0.372
765	-0.362
766	-0.377
766	-0.385
767	-0.399
767	-0.395
768	-0.388
768	-0.402
768	-0.41
769	-0.424
769	-0.426
770	-0.431
770	-0.439
771	-0.427
771	-0.427
771	-0.423
772	-0.425
772	-0.418
773	-0.416
773	-0.412
774	-0.412
774	-0.414
775	-0.412
775	-0.403
775	-0.413
776	-0.414
776	-0.406
777	-0.421
777	-0.445
778	-0.441
778	-0.46
778	-0.451
779	-0.471
779	-0.483
780	-0.499
780	-0.497
781	-0.509
781	-0.508
781	-0.52
782	-0.525
782	-0.529
783	-0.515
783	-0.511
784	-0.492
784	-0.48
784	-0.49
785	-0.502
785	-0.484
786	-0.489
786	-0.466
787	-0.447
787	-0.443
788	-0.445
788	-0.455
788	-0.461
789	-0.463
789	-0.442
790	-0.422
790	-0.424
791	-0.418
791	-0.427
791	-0.428
792	-0.425
792	-0.403
793	-0.389
793	-0.37
794	-0.375
794	-0.369
794	-0.376
795	-0.374
795	-0.372
796	-0.362
796	-0.373
797	-0.366
797	-0.375
797	-0.387
798	-0.399
798	-0.391
799	-0.406
799	-0.392
800	-0.398
800	-0.388
801	-0.395
801	-0.382
801	-0.393
802	-0.402
802	-0.403
803	-0.404
803	-0.416
804	-0.41
804	-0.42
804	-0.408
805	-0.414
805	-0.399
806	-0.399
806	-0.385
807	-0.384
807	-0.364
807	-0.349
808	-0.34
808	-0.333
809	-0.325
809	-0.335
810	-0.341
810	-0.339
810	-0.338
811	-0.347
811	-0.339
812	-0.341
812	-0.348
813	-0.353
813	-0.353
813	-0.357
814	-0.358
814	-0.358
815	-0.362
815	-0.363
816	-0.353
816	-0.357
817	-0.363
817	-0.373
817	-0.383
818	-0.388
818	-0.391
819	-0.382
819	-0.383
820	-0.39
820	-0.39
820	-0.401
821	-0.402
821	-0.392
822	-0.37
822	-0.353
823	-0.347
823	-0.345
823	-0.346
824	-0.341
824	-0.347
825	-0.339
825	-0.321
826	-0.315
826	-0.322
826	-0.332
827	-0.327
827	-0.326
828	-0.311
828	-0.31
829	-0.301
829	-0.286
829	-0.282
830	-0.29
830	-0.286
831	-0.281
831	-0.272
832	-0.271
832	-0.268
832	-0.278
833	-0.276
833	-0.28
834	-0.278
834	-0.285
835	-0.275
835	-0.275
835	-0.271
836	-0.269
836	-0.27
837	-0.269
837	-0.257
838	-0.249
838	-0.24
839	-0.231
839	-0.222
839	-0.217
840	-0.209
840	-0.206
841	-0.197
841	-0.188
842	-0.183
842	-0.18
842	-0.178
843	-0.175
843	-0.172
844	-0.166
844	-0.163
845	-0.159
845	-0.153
845	-0.144
846	-0.139
846	-0.128
847	-0.119
847	-0.11
848	-0.104
848	-0.098
848	-0.09
849	-0.084
849	-0.076
850	-0.068
850	-0.069
851	-0.067
851	-0.065
851	-0.061
852	-0.055
852	-0.048
853	-0.042
853	-0.04
854	-0.037
854	-0.032
854	-0.026
855	-0.018
855	-0.015
856	-0.009
856	-0.005
857	-0.002
857	0.003
857	0.007
858	0.012
858	0.016
859	0.019
859	0.021
860	0.025
860	0.03
860	0.032
861	0.033
861	0.037
862	0.039
862	0.041
863	0.043
863	0.046
863	0.047
864	0.049
864	0.05
865	0.052
865	0.054
866	0.056
866	0.056
866	0.057
867	0.058
867	0.06
868	0.061
868	0.062
869	0.063
869	0.064
869	0.064
870	0.065
870	0.066
871	0.067
871	0.067
872	0.068
872	0.068
872	0.068
873	0.068
873	0.068
874	0.068
874	0.068
875	0.068
875	0.068
875	0.067
876	0.067
876	0.066
877	0.066
877	0.066
878	0.065
878	0.065
878	0.064
879	0.063
879	0.062
880	0.062
880	0.062
881	0.062
881	0.062
881	0.061
882	0.061
882	0.06
883	0.059
883	0.058
884	0.058
884	0.057
884	0.057
885	0.056
885	0.055
886	0.055
886	0.055
887	0.054
887	0.055
887	0.055
888	0.056
888	0.056
889	0.057
889	0.058
890	0.059
890	0.059
890	0.06
891	0.06
891	0.06
892	0.061
892	0.061
893	0.06
893	0.06
893	0.06
894	0.059
894	0.058
895	0.057
895	0.057
895	0.056
896	0.055
896	0.054
897	0.053
897	0.052
898	0.051
898	0.051
898	0.05
899	0.05
899	0.05
900	0.05
900	0.05
901	0.051
901	0.051
901	0.051
902	0.051
902	0.051
903	0.05
903	0.05
904	0.051
904	0.051
904	0.051
905	0.051
905	0.051
906	0.051
906	0.05
907	0.05
907	0.049
907	0.048
908	0.048
908	0.047
909	0.046
909	0.045
910	0.044
910	0.043
910	0.043
911	0.042
911	0.042
912	0.043
912	0.043
913	0.043
913	0.044
913	0.045
914	0.045
914	0.046
915	0.047
915	0.048
916	0.049
916	0.049
916	0.05
917	0.05
917	0.05
918	0.05
918	0.05
918	0.05
919	0.05
919	0.05
920	0.05
920	0.05
921	0.051
921	0.051
921	0.051
922	0.052
922	0.052
923	0.053
923	0.053
924	0.054
924	0.054
924	0.054
925	0.054
925	0.053
926	0.053
926	0.052
927	0.052
927	0.051
927	0.051
928	0.05
928	0.049
929	0.049
929	0.048
930	0.048
930	0.048
930	0.048
931	0.048
931	0.048
932	0.048
932	0.048
933	0.048
933	0.048
933	0.047
934	0.047
934	0.046
935	0.046
935	0.045
935	0.045
936	0.044
936	0.044
937	0.043
937	0.043
938	0.043
938	0.044
938	0.044
939	0.044
939	0.044
940	0.044
940	0.043
941	0.043
941	0.044
941	0.044
942	0.044
942	0.044
943	0.043
943	0.043
944	0.042
944	0.042
944	0.042
945	0.042
945	0.041
946	0.04
946	0.039
946	0.039
947	0.038
947	0.039
948	0.039
948	0.039
949	0.04
949	0.04
949	0.04
950	0.04
950	0.041
951	0.042
951	0.042
952	0.043
952	0.044
952	0.044
953	0.045
953	0.046
954	0.046
954	0.047
955	0.048
955	0.049
955	0.049
956	0.049
956	0.05
957	0.049
957	0.05
957	0.05
958	0.05
958	0.05
959	0.051
959	0.051
960	0.051
960	0.051
960	0.051
961	0.051
961	0.051
962	0.05
962	0.05
963	0.05
963	0.049
963	0.049
964	0.048
964	0.048
965	0.048
965	0.047
966	0.047
966	0.047
966	0.047
967	0.046
967	0.046
968	0.046
968	0.045
968	0.045
969	0.045
969	0.044
970	0.044
970	0.044
971	0.044
971	0.044
971	0.044
972	0.043
972	0.043
973	0.043
973	0.042
974	0.041
974	0.041
974	0.04
975	0.039
975	0.039
976	0.038
976	0.037
976	0.036
977	0.036
977	0.036
978	0.036
978	0.036
979	0.036
979	0.036
979	0.036
980	0.036
980	0.037
981	0.037
981	0.038
982	0.038
982	0.038
982	0.037
983	0.037
983	0.037
984	0.036
984	0.036
984	0.036
985	0.036
985	0.036
986	0.036
986	0.037
987	0.037
987	0.038
987	0.038
988	0.039
988	0.039
989	0.039
989	0.039
990	0.039
990	0.038
990	0.038
991	0.037
991	0.037
992	0.036
992	0.036
992	0.035
993	0.035
993	0.034
994	0.034
994	0.034
995	0.034
995	0.034
995	0.034
996	0.034
996	0.034
997	0.034
997	0.034
997	0.035
998	0.035
998	0.035
999	0.035
999	0.035
1000	0.036
1000	0.036
1000	0.036
1001	0.036
1001	0.036
1002	0.035
1002	0.035
1003	0.034
1003	0.034
1003	0.034
1004	0.033
1004	0.032
1005	0.031
1005	0.03
1005	0.029
1006	0.029
1006	0.028
1007	0.027
1007	0.027
1008	0.027
1008	0.026
1008	0.026
1009	0.026
1009	0.026
1010	0.026
1010	0.026
1010	0.025
1011	0.025
1011	0.025
1012	0.024
1012	0.023
1013	0.022
1013	0.021
1013	0.02
1014	0.019
1014	0.018
1015	0.017
1015	0.017
1016	0.016
1016	0.015
1016	0.015
1017	0.015
1017	0.015
1018	0.014
1018	0.014
1018	0.013
1019	0.013
1019	0.013
1020	0.012
1020	0.011
1021	0.01
1021	0.009
1021	0.008
1022	0.006
1022	0.006
1023	0.005
1023	0.005
1023	0.004
1024	0.004
1024	0.004
1025	0.004
1025	0.004
1026	0.005
1026	0.005
1026	0.006
1027	0.006
1027	0.007
1028	0.007
1028	0.007
1028	0.007
1029	0.007
1029	0.007
1030	0.006
1030	0.006
1031	0.006
1031	0.006
1031	0.006
1032	0.007
1032	0.007
1033	0.008
1033	0.009
1033	0.009
1034	0.01
1034	0.011
1035	0.011
1035	0.011
1036	0.012
1036	0.012
1036	0.011
1037	0.011
1037	0.011
1038	0.011
1038	0.011
1039	0.011
1039	0.01
1039	0.01
1040	0.011
1040	0.011
1041	0.012
1041	0.012
1041	0.012
1042	0.013
1042	0.013
1043	0.013
1043	0.013
1044	0.013
1044	0.013
1044	0.013
1045	0.013
1045	0.013
1046	0.013
1046	0.013
1046	0.014
1047	0.014
1047	0.014
1048	0.015
1048	0.015
1049	0.015
1049	0.016
1049	0.016
1050	0.016
1050	0.017
1051	0.017
1051	0.017
1051	0.018
1052	0.018
1052	0.018
1053	0.018
1053	0.018
1053	0.018
1054	0.017
1054	0.017
1055	0.016
1055	0.016
1056	0.015
1056	0.014
1056	0.013
1057	0.012
1057	0.011
1058	0.011
1058	0.01
1058	0.009
1059	0.009
1059	0.008
1060	0.008
1060	0.008
1061	0.008
1061	0.008
1061	0.008
1062	0.008
1062	0.008
1063	0.008
1063	0.009
1063	0.009
1064	0.009
1064	0.009
1065	0.008
1065	0.008
1066	0.007
1066	0.007
1066	0.007
1067	0.006
1067	0.006
1068	0.005
1068	0.005
1068	0.005
1069	0.005
1069	0.005
1070	0.004
1070	0.005
1071	0.005
1071	0.005
1071	0.004
1072	0.004
1072	0.004
1073	0.004
1073	0.004
1073	0.003
1074	0.003
1074	0.003
1075	0.003
1075	0.003
1076	0.002
1076	0.002
1076	0.002
1077	0.002
1077	0.001
1078	0.001
1078	0
1078	-0.001
1079	-0.002
1079	-0.002
1080	-0.003
1080	-0.004
1080	-0.004
1081	-0.005
1081	-0.005
1082	-0.006
1082	-0.007
1083	-0.007
1083	-0.007
1083	-0.007
1084	-0.007
1084	-0.007
1085	-0.008
1085	-0.008
1085	-0.008
1086	-0.008
1086	-0.008
1087	-0.008
1087	-0.008
1088	-0.008
1088	-0.008
1088	-0.008
1089	-0.008
1089	-0.008
1090	-0.008
1090	-0.008
1090	-0.008
1091	-0.008
1091	-0.008
1092	-0.009
1092	-0.008
1092	-0.008
1093	-0.008
1093	-0.008
1094	-0.008
1094	-0.007
1095	-0.008
1095	-0.008
1095	-0.007
1096	-0.007
1096	-0.007
1097	-0.008
1097	-0.008
1097	-0.008
1098	-0.008
1098	-0.008
1099	-0.008
1099	-0.008
1100	-0.008
1100	-0.008
1100	-0.009
1101	-0.01
1101	-0.011
1102	-0.011
1102	-0.012
1102	-0.012
1103	-0.013
1103	-0.015
1104	-0.016
1104	-0.016
1104	-0.017
1105	-0.018
1105	-0.019
1106	-0.021
1106	-0.021
1107	-0.022
1107	-0.024
1107	-0.026
1108	-0.027
1108	-0.027
1109	-0.029
1109	-0.031
1109	-0.031
1110	-0.031
1110	-0.033
1111	-0.035
1111	-0.033
