Data from 17C_3.4A_30min_2sec_int_Absorbance__613__00613.txt Node

Date: Mon Jun 19 16:30:20 CEST 2023
User: Marek
Spectrometer: MAYP115816
Trigger mode: 0
Integration Time (sec): 2.500000E-1
Scans to average: 10
Electric dark correction enabled: true
Nonlinearity correction enabled: true
Boxcar width: 5
XAxis mode: Wavelengths
Number of Pixels in Spectrum: 2068
>>>>>Begin Spectral Data<<<<<
199	-0.581
199	-0.583
200	-0.5
200	-0.454
201	-0.421
201	-0.41
202	-0.391
202	-0.38
203	-0.374
203	-0.371
204	-0.36
204	-0.35
205	-0.33
205	-0.321
205	-0.318
206	-0.321
206	-0.325
207	-0.317
207	-0.316
208	-0.316
208	-0.313
209	-0.308
209	-0.307
210	-0.312
210	-0.32
211	-0.32
211	-0.32
212	-0.319
212	-0.328
213	-0.328
213	-0.327
213	-0.332
214	-0.328
214	-0.325
215	-0.326
215	-0.328
216	-0.334
216	-0.342
217	-0.337
217	-0.342
218	-0.345
218	-0.348
219	-0.352
219	-0.362
220	-0.367
220	-0.374
221	-0.374
221	-0.372
221	-0.363
222	-0.361
222	-0.361
223	-0.362
223	-0.367
224	-0.373
224	-0.373
225	-0.371
225	-0.364
226	-0.367
226	-0.369
227	-0.375
227	-0.382
228	-0.384
228	-0.383
229	-0.382
229	-0.375
229	-0.366
230	-0.372
230	-0.377
231	-0.375
231	-0.366
232	-0.362
232	-0.361
233	-0.354
233	-0.355
234	-0.355
234	-0.348
235	-0.353
235	-0.355
236	-0.353
236	-0.354
236	-0.36
237	-0.365
237	-0.367
238	-0.374
238	-0.37
239	-0.369
239	-0.38
240	-0.379
240	-0.377
241	-0.38
241	-0.378
242	-0.382
242	-0.378
243	-0.372
243	-0.375
243	-0.382
244	-0.381
244	-0.38
245	-0.396
245	-0.392
246	-0.398
246	-0.404
247	-0.406
247	-0.41
248	-0.417
248	-0.415
249	-0.419
249	-0.426
250	-0.423
250	-0.419
250	-0.422
251	-0.418
251	-0.418
252	-0.422
252	-0.414
253	-0.416
253	-0.424
254	-0.422
254	-0.422
255	-0.429
255	-0.42
256	-0.42
256	-0.432
257	-0.429
257	-0.425
258	-0.44
258	-0.437
258	-0.434
259	-0.433
259	-0.437
260	-0.437
260	-0.442
261	-0.451
261	-0.44
262	-0.438
262	-0.44
263	-0.428
263	-0.427
264	-0.426
264	-0.434
265	-0.434
265	-0.442
265	-0.445
266	-0.441
266	-0.442
267	-0.453
267	-0.46
268	-0.474
268	-0.48
269	-0.481
269	-0.475
270	-0.481
270	-0.482
271	-0.481
271	-0.486
272	-0.488
272	-0.484
272	-0.479
273	-0.477
273	-0.485
274	-0.488
274	-0.492
275	-0.49
275	-0.485
276	-0.492
276	-0.482
277	-0.485
277	-0.499
278	-0.509
278	-0.505
278	-0.5
279	-0.501
279	-0.51
280	-0.507
280	-0.506
281	-0.502
281	-0.511
282	-0.502
282	-0.506
283	-0.495
283	-0.496
284	-0.489
284	-0.481
285	-0.475
285	-0.471
285	-0.465
286	-0.474
286	-0.468
287	-0.467
287	-0.45
288	-0.444
288	-0.453
289	-0.468
289	-0.476
290	-0.469
290	-0.47
291	-0.47
291	-0.462
292	-0.465
292	-0.469
292	-0.472
293	-0.479
293	-0.465
294	-0.452
294	-0.444
295	-0.438
295	-0.439
296	-0.434
296	-0.43
297	-0.427
297	-0.411
298	-0.408
298	-0.413
298	-0.404
299	-0.399
299	-0.399
300	-0.398
300	-0.392
301	-0.389
301	-0.39
302	-0.394
302	-0.403
303	-0.392
303	-0.381
304	-0.383
304	-0.383
305	-0.386
305	-0.383
305	-0.381
306	-0.369
306	-0.366
307	-0.354
307	-0.355
308	-0.365
308	-0.363
309	-0.366
309	-0.357
310	-0.344
310	-0.339
311	-0.332
311	-0.338
311	-0.335
312	-0.333
312	-0.331
313	-0.32
313	-0.32
314	-0.319
314	-0.322
315	-0.323
315	-0.324
316	-0.319
316	-0.313
317	-0.306
317	-0.301
318	-0.294
318	-0.292
318	-0.288
319	-0.276
319	-0.273
320	-0.268
320	-0.269
321	-0.273
321	-0.271
322	-0.265
322	-0.26
323	-0.257
323	-0.252
324	-0.246
324	-0.238
324	-0.228
325	-0.219
325	-0.206
326	-0.194
326	-0.182
327	-0.17
327	-0.154
328	-0.132
328	-0.115
329	-0.095
329	-0.078
330	-0.056
330	-0.03
330	-0.007
331	0.017
331	0.04
332	0.06
332	0.079
333	0.096
333	0.115
334	0.131
334	0.145
335	0.158
335	0.169
336	0.178
336	0.187
336	0.194
337	0.203
337	0.208
338	0.214
338	0.217
339	0.223
339	0.226
340	0.229
340	0.232
341	0.235
341	0.237
342	0.239
342	0.241
342	0.244
343	0.245
343	0.247
344	0.248
344	0.249
345	0.249
345	0.249
346	0.25
346	0.25
347	0.25
347	0.251
348	0.251
348	0.251
348	0.252
349	0.252
349	0.252
350	0.252
350	0.252
351	0.252
351	0.252
352	0.252
352	0.252
353	0.252
353	0.252
354	0.252
354	0.251
354	0.251
355	0.251
355	0.251
356	0.251
356	0.25
357	0.25
357	0.25
358	0.249
358	0.249
359	0.249
359	0.249
360	0.248
360	0.248
360	0.248
361	0.248
361	0.247
362	0.247
362	0.247
363	0.247
363	0.247
364	0.247
364	0.247
365	0.247
365	0.246
366	0.246
366	0.246
366	0.246
367	0.246
367	0.246
368	0.246
368	0.245
369	0.245
369	0.245
370	0.245
370	0.244
371	0.244
371	0.244
372	0.244
372	0.243
372	0.243
373	0.243
373	0.243
374	0.243
374	0.243
375	0.243
375	0.243
376	0.243
376	0.243
377	0.243
377	0.243
378	0.243
378	0.243
378	0.242
379	0.242
379	0.242
380	0.242
380	0.241
381	0.241
381	0.241
382	0.241
382	0.241
383	0.24
383	0.24
383	0.24
384	0.24
384	0.24
385	0.239
385	0.239
386	0.239
386	0.239
387	0.239
387	0.239
388	0.239
388	0.238
389	0.238
389	0.238
389	0.238
390	0.238
390	0.238
391	0.238
391	0.238
392	0.238
392	0.237
393	0.237
393	0.237
394	0.237
394	0.237
394	0.236
395	0.236
395	0.236
396	0.235
396	0.235
397	0.235
397	0.235
398	0.235
398	0.234
399	0.234
399	0.234
400	0.234
400	0.234
400	0.234
401	0.233
401	0.233
402	0.233
402	0.233
403	0.232
403	0.232
404	0.232
404	0.232
405	0.232
405	0.232
405	0.231
406	0.231
406	0.231
407	0.231
407	0.231
408	0.231
408	0.231
409	0.231
409	0.231
410	0.23
410	0.23
411	0.23
411	0.23
411	0.231
412	0.231
412	0.231
413	0.23
413	0.23
414	0.23
414	0.23
415	0.229
415	0.229
416	0.229
416	0.229
416	0.228
417	0.228
417	0.228
418	0.228
418	0.228
419	0.228
419	0.228
420	0.228
420	0.228
421	0.228
421	0.228
421	0.228
422	0.228
422	0.228
423	0.228
423	0.228
424	0.228
424	0.227
425	0.228
425	0.227
426	0.227
426	0.227
427	0.227
427	0.227
427	0.227
428	0.226
428	0.226
429	0.226
429	0.226
430	0.226
430	0.226
431	0.226
431	0.226
432	0.225
432	0.225
432	0.225
433	0.225
433	0.224
434	0.224
434	0.224
435	0.224
435	0.224
436	0.224
436	0.224
437	0.224
437	0.224
437	0.224
438	0.224
438	0.224
439	0.224
439	0.224
440	0.224
440	0.224
441	0.223
441	0.223
442	0.223
442	0.223
442	0.223
443	0.223
443	0.223
444	0.223
444	0.222
445	0.222
445	0.222
446	0.223
446	0.223
447	0.223
447	0.223
447	0.223
448	0.223
448	0.223
449	0.223
449	0.223
450	0.223
450	0.223
451	0.223
451	0.223
452	0.223
452	0.223
452	0.223
453	0.223
453	0.223
454	0.223
454	0.223
455	0.223
455	0.223
456	0.223
456	0.222
457	0.222
457	0.222
458	0.222
458	0.223
458	0.223
459	0.223
459	0.223
460	0.223
460	0.223
461	0.223
461	0.223
462	0.223
462	0.224
463	0.224
463	0.224
463	0.224
464	0.224
464	0.224
465	0.225
465	0.225
466	0.225
466	0.226
467	0.226
467	0.226
467	0.227
468	0.227
468	0.227
469	0.228
469	0.228
470	0.229
470	0.229
471	0.229
471	0.229
472	0.229
472	0.229
472	0.23
473	0.23
473	0.23
474	0.231
474	0.231
475	0.231
475	0.232
476	0.233
476	0.233
477	0.233
477	0.233
477	0.234
478	0.234
478	0.235
479	0.235
479	0.236
480	0.236
480	0.237
481	0.237
481	0.238
482	0.239
482	0.239
482	0.24
483	0.241
483	0.241
484	0.241
484	0.242
485	0.242
485	0.242
486	0.243
486	0.243
487	0.244
487	0.245
487	0.245
488	0.246
488	0.247
489	0.248
489	0.25
490	0.252
490	0.253
491	0.254
491	0.255
492	0.257
492	0.258
492	0.259
493	0.26
493	0.261
494	0.263
494	0.264
495	0.265
495	0.266
496	0.268
496	0.269
496	0.27
497	0.272
497	0.274
498	0.275
498	0.277
499	0.278
499	0.28
500	0.282
500	0.283
501	0.284
501	0.286
501	0.287
502	0.288
502	0.289
503	0.291
503	0.292
504	0.293
504	0.295
505	0.297
505	0.298
506	0.3
506	0.302
506	0.303
507	0.305
507	0.307
508	0.308
508	0.31
509	0.312
509	0.314
510	0.315
510	0.317
511	0.318
511	0.32
511	0.322
512	0.323
512	0.325
513	0.326
513	0.328
514	0.329
514	0.331
515	0.332
515	0.333
515	0.335
516	0.337
516	0.338
517	0.339
517	0.341
518	0.342
518	0.343
519	0.344
519	0.345
520	0.347
520	0.348
520	0.35
521	0.351
521	0.353
522	0.354
522	0.355
523	0.356
523	0.357
524	0.358
524	0.359
524	0.359
525	0.36
525	0.36
526	0.36
526	0.361
527	0.361
527	0.361
528	0.362
528	0.362
529	0.363
529	0.363
529	0.363
530	0.364
530	0.364
531	0.364
531	0.364
532	0.364
532	0.363
533	0.363
533	0.363
533	0.362
534	0.362
534	0.361
535	0.361
535	0.361
536	0.36
536	0.359
537	0.358
537	0.358
538	0.357
538	0.356
538	0.356
539	0.355
539	0.354
540	0.353
540	0.352
541	0.351
541	0.35
542	0.349
542	0.348
542	0.347
543	0.346
543	0.344
544	0.343
544	0.342
545	0.341
545	0.34
546	0.34
546	0.338
547	0.337
547	0.336
547	0.335
548	0.334
548	0.333
549	0.331
549	0.33
550	0.329
550	0.327
551	0.326
551	0.324
551	0.323
552	0.323
552	0.321
553	0.32
553	0.319
554	0.318
554	0.316
555	0.315
555	0.314
556	0.313
556	0.312
556	0.311
557	0.31
557	0.309
558	0.307
558	0.306
559	0.304
559	0.303
560	0.302
560	0.3
560	0.299
561	0.298
561	0.297
562	0.295
562	0.293
563	0.292
563	0.291
564	0.29
564	0.289
564	0.288
565	0.287
565	0.286
566	0.284
566	0.283
567	0.281
567	0.28
568	0.278
568	0.276
568	0.275
569	0.273
569	0.272
570	0.27
570	0.269
571	0.268
571	0.267
572	0.266
572	0.265
573	0.263
573	0.262
573	0.261
574	0.26
574	0.259
575	0.258
575	0.258
576	0.258
576	0.257
577	0.256
577	0.256
577	0.256
578	0.256
578	0.256
579	0.256
579	0.255
580	0.254
580	0.253
581	0.252
581	0.251
581	0.251
582	0.25
582	0.25
583	0.249
583	0.248
584	0.246
584	0.245
585	0.245
585	0.245
585	0.244
586	0.244
586	0.243
587	0.242
587	0.242
588	0.241
588	0.241
589	0.241
589	0.241
590	0.24
590	0.24
590	0.24
591	0.24
591	0.239
592	0.238
592	0.237
593	0.237
593	0.236
594	0.236
594	0.235
594	0.235
595	0.235
595	0.234
596	0.234
596	0.235
597	0.235
597	0.235
598	0.234
598	0.234
598	0.234
599	0.233
599	0.232
600	0.231
600	0.231
601	0.23
601	0.229
602	0.228
602	0.228
602	0.228
603	0.228
603	0.228
604	0.228
604	0.229
605	0.229
605	0.229
606	0.228
606	0.228
606	0.228
607	0.227
607	0.227
608	0.227
608	0.226
609	0.226
609	0.226
610	0.226
610	0.225
610	0.225
611	0.226
611	0.226
612	0.226
612	0.226
613	0.226
613	0.225
614	0.224
614	0.223
614	0.223
615	0.222
615	0.221
616	0.221
616	0.22
617	0.219
617	0.218
618	0.218
618	0.217
618	0.217
619	0.218
619	0.218
620	0.218
620	0.218
621	0.217
621	0.217
622	0.217
622	0.217
622	0.216
623	0.216
623	0.216
624	0.215
624	0.214
625	0.214
625	0.214
626	0.213
626	0.213
626	0.213
627	0.213
627	0.212
628	0.211
628	0.21
629	0.209
629	0.208
630	0.207
630	0.205
630	0.204
631	0.203
631	0.201
632	0.2
632	0.198
633	0.197
633	0.195
634	0.193
634	0.191
634	0.189
635	0.187
635	0.184
636	0.181
636	0.178
637	0.176
637	0.172
638	0.169
638	0.166
638	0.163
639	0.159
639	0.156
640	0.152
640	0.149
641	0.145
641	0.142
642	0.138
642	0.135
642	0.131
643	0.127
643	0.123
644	0.118
644	0.114
645	0.109
645	0.104
646	0.099
646	0.094
646	0.089
647	0.083
647	0.078
648	0.072
648	0.067
649	0.061
649	0.055
650	0.049
650	0.042
650	0.035
651	0.027
651	0.017
652	0.005
652	-0.007
653	-0.018
653	-0.028
653	-0.025
654	-0.009
654	-0.001
655	-0.004
655	-0.008
656	-0.013
656	-0.018
657	-0.022
657	-0.025
657	-0.03
658	-0.035
658	-0.059
659	-0.13
659	-0.217
660	-0.256
660	-0.28
661	-0.307
661	-0.335
661	-0.367
662	-0.399
662	-0.434
663	-0.474
663	-0.518
664	-0.562
664	-0.613
665	-0.665
665	-0.724
665	-0.78
666	-0.838
666	-0.901
667	-0.967
667	-1.034
668	-1.108
668	-1.182
669	-1.257
669	-1.332
669	-1.41
670	-1.477
670	-1.501
671	-1.628
671	-1.94
672	-2.18
672	-2.376
672	-2.51
673	-2.604
673	-2.686
674	-2.731
674	-2.75
675	-2.775
675	-2.916
676	-3.116
676	-3.067
676	-2.843
677	-2.638
677	-2.474
678	-2.296
678	-1.992
679	-1.689
679	-1.546
680	-1.449
680	-1.365
680	-1.293
681	-1.246
681	-1.186
682	-1.144
682	-1.105
683	-1.068
683	-1.049
684	-1.025
684	-1.003
684	-0.978
685	-0.951
685	-0.925
686	-0.898
686	-0.88
687	-0.852
687	-0.838
687	-0.814
688	-0.786
688	-0.763
689	-0.739
689	-0.725
690	-0.705
690	-0.691
691	-0.684
691	-0.688
691	-0.7
692	-0.691
692	-0.681
693	-0.674
693	-0.679
694	-0.674
694	-0.668
695	-0.673
695	-0.669
695	-0.652
696	-0.647
696	-0.625
697	-0.626
697	-0.641
698	-0.642
698	-0.634
698	-0.645
699	-0.646
699	-0.641
700	-0.632
700	-0.646
701	-0.644
701	-0.649
702	-0.649
702	-0.635
702	-0.627
703	-0.617
703	-0.608
704	-0.602
704	-0.602
705	-0.613
705	-0.607
705	-0.594
706	-0.594
706	-0.588
707	-0.591
707	-0.586
708	-0.587
708	-0.58
709	-0.585
709	-0.584
709	-0.574
710	-0.581
710	-0.59
711	-0.58
711	-0.582
712	-0.582
712	-0.595
713	-0.593
713	-0.597
713	-0.588
714	-0.586
714	-0.588
715	-0.578
715	-0.566
716	-0.573
716	-0.573
716	-0.567
717	-0.568
717	-0.571
718	-0.562
718	-0.561
719	-0.567
719	-0.566
720	-0.561
720	-0.569
720	-0.561
721	-0.55
721	-0.55
722	-0.538
722	-0.529
723	-0.527
723	-0.53
723	-0.517
724	-0.523
724	-0.529
725	-0.528
725	-0.538
726	-0.55
726	-0.554
727	-0.558
727	-0.571
727	-0.579
728	-0.58
728	-0.585
729	-0.579
729	-0.582
730	-0.585
730	-0.577
730	-0.568
731	-0.551
731	-0.559
732	-0.564
732	-0.562
733	-0.561
733	-0.567
734	-0.563
734	-0.561
734	-0.55
735	-0.551
735	-0.552
736	-0.563
736	-0.548
737	-0.54
737	-0.543
737	-0.551
738	-0.546
738	-0.546
739	-0.545
739	-0.559
740	-0.556
740	-0.553
741	-0.546
741	-0.549
741	-0.552
742	-0.55
742	-0.552
743	-0.56
743	-0.566
744	-0.563
744	-0.555
744	-0.557
745	-0.566
745	-0.562
746	-0.561
746	-0.559
747	-0.557
747	-0.544
748	-0.532
748	-0.534
748	-0.537
749	-0.533
749	-0.534
750	-0.523
750	-0.522
751	-0.527
751	-0.535
751	-0.539
752	-0.545
752	-0.554
753	-0.55
753	-0.546
754	-0.55
754	-0.544
754	-0.558
755	-0.573
755	-0.582
756	-0.571
756	-0.567
757	-0.564
757	-0.559
758	-0.563
758	-0.559
758	-0.563
759	-0.572
759	-0.557
760	-0.551
760	-0.548
761	-0.559
761	-0.558
761	-0.557
762	-0.565
762	-0.566
763	-0.577
763	-0.573
764	-0.569
764	-0.576
764	-0.58
765	-0.57
765	-0.556
766	-0.561
766	-0.569
767	-0.581
767	-0.574
768	-0.565
768	-0.574
768	-0.577
769	-0.592
769	-0.595
770	-0.6
770	-0.616
771	-0.616
771	-0.616
771	-0.617
772	-0.621
772	-0.619
773	-0.62
773	-0.618
774	-0.616
774	-0.616
775	-0.618
775	-0.608
775	-0.612
776	-0.613
776	-0.605
777	-0.617
777	-0.637
778	-0.635
778	-0.651
778	-0.639
779	-0.659
779	-0.666
780	-0.68
780	-0.68
781	-0.691
781	-0.686
781	-0.698
782	-0.7
782	-0.701
783	-0.692
783	-0.691
784	-0.674
784	-0.663
784	-0.672
785	-0.678
785	-0.664
786	-0.67
786	-0.648
787	-0.63
787	-0.63
788	-0.632
788	-0.639
788	-0.645
789	-0.645
789	-0.626
790	-0.607
790	-0.612
791	-0.608
791	-0.626
791	-0.635
792	-0.629
792	-0.605
793	-0.597
793	-0.576
794	-0.581
794	-0.573
794	-0.586
795	-0.581
795	-0.575
796	-0.56
796	-0.567
797	-0.56
797	-0.573
797	-0.579
798	-0.592
798	-0.584
799	-0.593
799	-0.576
800	-0.579
800	-0.572
801	-0.576
801	-0.56
801	-0.57
802	-0.575
802	-0.576
803	-0.578
803	-0.588
804	-0.587
804	-0.596
804	-0.584
805	-0.59
805	-0.579
806	-0.579
806	-0.566
807	-0.565
807	-0.548
807	-0.534
808	-0.525
808	-0.521
809	-0.51
809	-0.52
810	-0.518
810	-0.511
810	-0.511
811	-0.516
811	-0.507
812	-0.509
812	-0.514
813	-0.521
813	-0.517
813	-0.52
814	-0.52
814	-0.522
815	-0.53
815	-0.532
816	-0.528
816	-0.535
817	-0.539
817	-0.557
817	-0.569
818	-0.575
818	-0.579
819	-0.571
819	-0.572
820	-0.579
820	-0.576
820	-0.586
821	-0.581
821	-0.569
822	-0.536
822	-0.514
823	-0.51
823	-0.512
823	-0.509
824	-0.504
824	-0.507
825	-0.502
825	-0.485
826	-0.482
826	-0.489
826	-0.501
827	-0.497
827	-0.494
828	-0.476
828	-0.477
829	-0.468
829	-0.453
829	-0.446
830	-0.453
830	-0.449
831	-0.446
831	-0.437
832	-0.437
832	-0.429
832	-0.435
833	-0.431
833	-0.433
834	-0.431
834	-0.437
835	-0.424
835	-0.42
835	-0.415
836	-0.412
836	-0.405
837	-0.403
837	-0.395
838	-0.385
838	-0.375
839	-0.365
839	-0.356
839	-0.348
840	-0.339
840	-0.335
841	-0.325
841	-0.321
842	-0.315
842	-0.308
842	-0.302
843	-0.297
843	-0.291
844	-0.283
844	-0.279
845	-0.272
845	-0.263
845	-0.25
846	-0.238
846	-0.227
847	-0.217
847	-0.206
848	-0.195
848	-0.188
848	-0.174
849	-0.164
849	-0.154
850	-0.143
850	-0.139
851	-0.134
851	-0.127
851	-0.122
852	-0.111
852	-0.103
853	-0.095
853	-0.09
854	-0.082
854	-0.073
854	-0.063
855	-0.052
855	-0.047
856	-0.038
856	-0.029
857	-0.025
857	-0.017
857	-0.008
858	-0.001
858	0.003
859	0.009
859	0.015
860	0.022
860	0.03
860	0.036
861	0.04
861	0.046
862	0.049
862	0.054
863	0.058
863	0.064
863	0.068
864	0.07
864	0.073
865	0.077
865	0.08
866	0.084
866	0.086
866	0.089
867	0.092
867	0.095
868	0.097
868	0.1
869	0.102
869	0.104
869	0.105
870	0.107
870	0.108
871	0.109
871	0.11
872	0.111
872	0.111
872	0.111
873	0.111
873	0.111
874	0.11
874	0.11
875	0.109
875	0.108
875	0.107
876	0.106
876	0.105
877	0.104
877	0.103
878	0.102
878	0.101
878	0.1
879	0.099
879	0.098
880	0.097
880	0.097
881	0.097
881	0.097
881	0.097
882	0.096
882	0.096
883	0.095
883	0.095
884	0.095
884	0.094
884	0.094
885	0.094
885	0.093
886	0.093
886	0.092
887	0.092
887	0.092
887	0.091
888	0.092
888	0.092
889	0.092
889	0.093
890	0.094
890	0.094
890	0.094
891	0.095
891	0.095
892	0.095
892	0.095
893	0.095
893	0.095
893	0.094
894	0.094
894	0.094
895	0.093
895	0.092
895	0.092
896	0.091
896	0.09
897	0.089
897	0.089
898	0.088
898	0.087
898	0.086
899	0.085
899	0.085
900	0.085
900	0.085
901	0.085
901	0.085
901	0.085
902	0.085
902	0.085
903	0.085
903	0.085
904	0.085
904	0.086
904	0.086
905	0.086
905	0.087
906	0.087
906	0.087
907	0.087
907	0.086
907	0.086
908	0.086
908	0.085
909	0.084
909	0.084
910	0.083
910	0.082
910	0.082
911	0.082
911	0.082
912	0.082
912	0.082
913	0.082
913	0.082
913	0.082
914	0.083
914	0.083
915	0.084
915	0.084
916	0.085
916	0.085
916	0.085
917	0.086
917	0.086
918	0.086
918	0.087
918	0.086
919	0.086
919	0.087
920	0.087
920	0.087
921	0.088
921	0.088
921	0.088
922	0.089
922	0.089
923	0.089
923	0.09
924	0.09
924	0.091
924	0.091
925	0.09
925	0.09
926	0.089
926	0.088
927	0.088
927	0.087
927	0.086
928	0.085
928	0.084
929	0.083
929	0.083
930	0.082
930	0.082
930	0.082
931	0.082
931	0.083
932	0.083
932	0.083
933	0.084
933	0.084
933	0.083
934	0.083
934	0.082
935	0.082
935	0.081
935	0.08
936	0.079
936	0.078
937	0.077
937	0.077
938	0.076
938	0.076
938	0.076
939	0.076
939	0.076
940	0.076
940	0.076
941	0.076
941	0.076
941	0.076
942	0.076
942	0.075
943	0.074
943	0.074
944	0.073
944	0.073
944	0.072
945	0.072
945	0.071
946	0.07
946	0.069
946	0.069
947	0.069
947	0.069
948	0.07
948	0.07
949	0.07
949	0.07
949	0.07
950	0.071
950	0.071
951	0.072
951	0.072
952	0.073
952	0.074
952	0.074
953	0.075
953	0.076
954	0.076
954	0.077
955	0.077
955	0.078
955	0.078
956	0.079
956	0.079
957	0.078
957	0.078
957	0.078
958	0.078
958	0.078
959	0.079
959	0.079
960	0.079
960	0.079
960	0.079
961	0.079
961	0.079
962	0.079
962	0.079
963	0.079
963	0.079
963	0.078
964	0.078
964	0.078
965	0.078
965	0.077
966	0.077
966	0.076
966	0.076
967	0.076
967	0.075
968	0.075
968	0.074
968	0.074
969	0.074
969	0.073
970	0.073
970	0.073
971	0.073
971	0.072
971	0.072
972	0.072
972	0.072
973	0.072
973	0.071
974	0.071
974	0.071
974	0.07
975	0.07
975	0.07
976	0.069
976	0.069
976	0.069
977	0.069
977	0.068
978	0.068
978	0.068
979	0.068
979	0.068
979	0.069
980	0.069
980	0.069
981	0.07
981	0.07
982	0.07
982	0.07
982	0.069
983	0.069
983	0.069
984	0.069
984	0.068
984	0.068
985	0.068
985	0.068
986	0.068
986	0.069
987	0.069
987	0.069
987	0.07
988	0.07
988	0.07
989	0.07
989	0.07
990	0.07
990	0.069
990	0.069
991	0.069
991	0.068
992	0.068
992	0.068
992	0.067
993	0.067
993	0.067
994	0.066
994	0.066
995	0.066
995	0.066
995	0.066
996	0.066
996	0.065
997	0.065
997	0.065
997	0.065
998	0.065
998	0.065
999	0.065
999	0.065
1000	0.065
1000	0.065
1000	0.065
1001	0.065
1001	0.064
1002	0.064
1002	0.064
1003	0.063
1003	0.062
1003	0.061
1004	0.061
1004	0.059
1005	0.058
1005	0.057
1005	0.056
1006	0.055
1006	0.053
1007	0.053
1007	0.052
1008	0.051
1008	0.051
1008	0.051
1009	0.05
1009	0.05
1010	0.051
1010	0.05
1010	0.05
1011	0.05
1011	0.05
1012	0.049
1012	0.049
1013	0.048
1013	0.046
1013	0.045
1014	0.044
1014	0.043
1015	0.042
1015	0.042
1016	0.041
1016	0.04
1016	0.04
1017	0.039
1017	0.039
1018	0.039
1018	0.039
1018	0.038
1019	0.038
1019	0.037
1020	0.036
1020	0.035
1021	0.034
1021	0.033
1021	0.032
1022	0.031
1022	0.031
1023	0.03
1023	0.03
1023	0.029
1024	0.029
1024	0.029
1025	0.029
1025	0.029
1026	0.03
1026	0.03
1026	0.03
1027	0.031
1027	0.031
1028	0.031
1028	0.031
1028	0.031
1029	0.031
1029	0.031
1030	0.031
1030	0.031
1031	0.031
1031	0.032
1031	0.032
1032	0.032
1032	0.032
1033	0.033
1033	0.034
1033	0.034
1034	0.035
1034	0.036
1035	0.036
1035	0.037
1036	0.036
1036	0.036
1036	0.037
1037	0.036
1037	0.036
1038	0.036
1038	0.036
1039	0.036
1039	0.035
1039	0.035
1040	0.036
1040	0.036
1041	0.036
1041	0.037
1041	0.037
1042	0.037
1042	0.037
1043	0.037
1043	0.038
1044	0.038
1044	0.038
1044	0.038
1045	0.038
1045	0.038
1046	0.038
1046	0.038
1046	0.039
1047	0.039
1047	0.04
1048	0.04
1048	0.041
1049	0.041
1049	0.041
1049	0.042
1050	0.042
1050	0.042
1051	0.042
1051	0.042
1051	0.042
1052	0.042
1052	0.042
1053	0.042
1053	0.042
1053	0.042
1054	0.041
1054	0.041
1055	0.04
1055	0.04
1056	0.039
1056	0.037
1056	0.036
1057	0.035
1057	0.034
1058	0.033
1058	0.033
1058	0.032
1059	0.031
1059	0.031
1060	0.03
1060	0.03
1061	0.03
1061	0.03
1061	0.031
1062	0.031
1062	0.03
1063	0.03
1063	0.03
1063	0.03
1064	0.031
1064	0.03
1065	0.03
1065	0.029
1066	0.029
1066	0.028
1066	0.028
1067	0.028
1067	0.027
1068	0.026
1068	0.026
1068	0.025
1069	0.025
1069	0.025
1070	0.024
1070	0.024
1071	0.024
1071	0.024
1071	0.023
1072	0.023
1072	0.023
1073	0.023
1073	0.023
1073	0.023
1074	0.024
1074	0.024
1075	0.024
1075	0.024
1076	0.023
1076	0.023
1076	0.022
1077	0.022
1077	0.022
1078	0.021
1078	0.02
1078	0.019
1079	0.018
1079	0.018
1080	0.017
1080	0.017
1080	0.016
1081	0.015
1081	0.015
1082	0.014
1082	0.013
1083	0.012
1083	0.012
1083	0.011
1084	0.011
1084	0.011
1085	0.01
1085	0.009
1085	0.009
1086	0.009
1086	0.008
1087	0.008
1087	0.008
1088	0.008
1088	0.008
1088	0.008
1089	0.007
1089	0.007
1090	0.006
1090	0.005
1090	0.005
1091	0.005
1091	0.005
1092	0.004
1092	0.004
1092	0.003
1093	0.002
1093	0.002
1094	0.002
1094	0.002
1095	0.001
1095	0
1095	0.001
1096	0
1096	-0
1097	-0.001
1097	-0.001
1097	-0
1098	-0.001
1098	-0.002
1099	-0.002
1099	-0.002
1100	-0.003
1100	-0.003
1100	-0.004
1101	-0.005
1101	-0.007
1102	-0.008
1102	-0.01
1102	-0.01
1103	-0.012
1103	-0.014
1104	-0.015
1104	-0.017
1104	-0.019
1105	-0.021
1105	-0.024
1106	-0.027
1106	-0.027
1107	-0.031
1107	-0.035
1107	-0.039
1108	-0.04
1108	-0.042
1109	-0.044
1109	-0.046
1109	-0.049
1110	-0.049
1110	-0.05
1111	-0.057
1111	-0.059
