Data from 17C_3.4A_30min_2sec_int_Absorbance__353__00353.txt Node

Date: Mon Jun 19 16:19:30 CEST 2023
User: Marek
Spectrometer: MAYP115816
Trigger mode: 0
Integration Time (sec): 2.500000E-1
Scans to average: 10
Electric dark correction enabled: true
Nonlinearity correction enabled: true
Boxcar width: 5
XAxis mode: Wavelengths
Number of Pixels in Spectrum: 2068
>>>>>Begin Spectral Data<<<<<
199	-0.484
199	-0.492
200	-0.395
200	-0.352
201	-0.321
201	-0.307
202	-0.294
202	-0.283
203	-0.274
203	-0.271
204	-0.258
204	-0.244
205	-0.224
205	-0.224
205	-0.219
206	-0.22
206	-0.223
207	-0.215
207	-0.217
208	-0.218
208	-0.217
209	-0.214
209	-0.216
210	-0.223
210	-0.224
211	-0.224
211	-0.228
212	-0.236
212	-0.242
213	-0.24
213	-0.243
213	-0.247
214	-0.241
214	-0.243
215	-0.241
215	-0.248
216	-0.253
216	-0.256
217	-0.246
217	-0.249
218	-0.251
218	-0.253
219	-0.258
219	-0.267
220	-0.269
220	-0.274
221	-0.27
221	-0.27
221	-0.265
222	-0.262
222	-0.264
223	-0.268
223	-0.27
224	-0.27
224	-0.272
225	-0.267
225	-0.263
226	-0.267
226	-0.269
227	-0.275
227	-0.281
228	-0.281
228	-0.282
229	-0.279
229	-0.274
229	-0.269
230	-0.272
230	-0.277
231	-0.272
231	-0.265
232	-0.259
232	-0.261
233	-0.257
233	-0.255
234	-0.257
234	-0.255
235	-0.257
235	-0.262
236	-0.261
236	-0.264
236	-0.268
237	-0.275
237	-0.275
238	-0.283
238	-0.282
239	-0.279
239	-0.289
240	-0.288
240	-0.289
241	-0.293
241	-0.293
242	-0.297
242	-0.291
243	-0.285
243	-0.287
243	-0.294
244	-0.296
244	-0.294
245	-0.306
245	-0.303
246	-0.306
246	-0.31
247	-0.313
247	-0.317
248	-0.324
248	-0.319
249	-0.32
249	-0.325
250	-0.324
250	-0.319
250	-0.321
251	-0.318
251	-0.318
252	-0.32
252	-0.314
253	-0.317
253	-0.328
254	-0.327
254	-0.329
255	-0.333
255	-0.326
256	-0.324
256	-0.334
257	-0.333
257	-0.326
258	-0.341
258	-0.339
258	-0.335
259	-0.335
259	-0.341
260	-0.345
260	-0.35
261	-0.362
261	-0.353
262	-0.349
262	-0.355
263	-0.344
263	-0.335
264	-0.332
264	-0.336
265	-0.329
265	-0.331
265	-0.332
266	-0.328
266	-0.326
267	-0.342
267	-0.348
268	-0.361
268	-0.372
269	-0.367
269	-0.365
270	-0.369
270	-0.371
271	-0.372
271	-0.376
272	-0.379
272	-0.373
272	-0.364
273	-0.362
273	-0.372
274	-0.378
274	-0.38
275	-0.379
275	-0.374
276	-0.379
276	-0.371
277	-0.376
277	-0.387
278	-0.399
278	-0.395
278	-0.387
279	-0.391
279	-0.401
280	-0.399
280	-0.399
281	-0.396
281	-0.397
282	-0.39
282	-0.396
283	-0.384
283	-0.383
284	-0.376
284	-0.366
285	-0.361
285	-0.357
285	-0.354
286	-0.359
286	-0.36
287	-0.358
287	-0.341
288	-0.333
288	-0.338
289	-0.351
289	-0.356
290	-0.348
290	-0.35
291	-0.347
291	-0.341
292	-0.343
292	-0.347
292	-0.349
293	-0.355
293	-0.347
294	-0.34
294	-0.332
295	-0.327
295	-0.324
296	-0.327
296	-0.324
297	-0.317
297	-0.304
298	-0.299
298	-0.309
298	-0.299
299	-0.291
299	-0.293
300	-0.289
300	-0.281
301	-0.271
301	-0.27
302	-0.28
302	-0.286
303	-0.273
303	-0.259
304	-0.261
304	-0.261
305	-0.263
305	-0.263
305	-0.263
306	-0.253
306	-0.25
307	-0.238
307	-0.239
308	-0.252
308	-0.252
309	-0.255
309	-0.243
310	-0.233
310	-0.235
311	-0.231
311	-0.237
311	-0.234
312	-0.229
312	-0.228
313	-0.22
313	-0.223
314	-0.217
314	-0.222
315	-0.223
315	-0.22
316	-0.215
316	-0.209
317	-0.2
317	-0.195
318	-0.186
318	-0.182
318	-0.174
319	-0.168
319	-0.165
320	-0.159
320	-0.156
321	-0.161
321	-0.161
322	-0.158
322	-0.157
323	-0.154
323	-0.149
324	-0.143
324	-0.136
324	-0.126
325	-0.119
325	-0.106
326	-0.092
326	-0.077
327	-0.064
327	-0.046
328	-0.026
328	-0.011
329	0.004
329	0.02
330	0.04
330	0.061
330	0.08
331	0.1
331	0.119
332	0.135
332	0.149
333	0.164
333	0.18
334	0.194
334	0.205
335	0.216
335	0.225
336	0.233
336	0.241
336	0.247
337	0.254
337	0.26
338	0.264
338	0.266
339	0.27
339	0.273
340	0.276
340	0.279
341	0.281
341	0.283
342	0.284
342	0.286
342	0.288
343	0.289
343	0.29
344	0.291
344	0.292
345	0.292
345	0.292
346	0.293
346	0.293
347	0.293
347	0.293
348	0.293
348	0.293
348	0.293
349	0.293
349	0.293
350	0.293
350	0.293
351	0.293
351	0.293
352	0.293
352	0.293
353	0.293
353	0.292
354	0.292
354	0.292
354	0.292
355	0.292
355	0.292
356	0.291
356	0.291
357	0.29
357	0.289
358	0.289
358	0.289
359	0.288
359	0.288
360	0.288
360	0.288
360	0.287
361	0.287
361	0.287
362	0.288
362	0.287
363	0.287
363	0.287
364	0.286
364	0.286
365	0.286
365	0.286
366	0.286
366	0.286
366	0.286
367	0.285
367	0.285
368	0.285
368	0.285
369	0.285
369	0.284
370	0.284
370	0.284
371	0.283
371	0.283
372	0.283
372	0.283
372	0.283
373	0.282
373	0.282
374	0.282
374	0.282
375	0.282
375	0.282
376	0.281
376	0.281
377	0.281
377	0.281
378	0.281
378	0.281
378	0.281
379	0.281
379	0.28
380	0.28
380	0.28
381	0.279
381	0.279
382	0.279
382	0.278
383	0.278
383	0.278
383	0.277
384	0.277
384	0.277
385	0.277
385	0.277
386	0.277
386	0.277
387	0.276
387	0.276
388	0.276
388	0.276
389	0.276
389	0.276
389	0.275
390	0.275
390	0.275
391	0.275
391	0.275
392	0.274
392	0.274
393	0.274
393	0.274
394	0.273
394	0.273
394	0.273
395	0.272
395	0.272
396	0.272
396	0.272
397	0.271
397	0.271
398	0.271
398	0.271
399	0.271
399	0.27
400	0.27
400	0.27
400	0.269
401	0.269
401	0.268
402	0.268
402	0.268
403	0.268
403	0.268
404	0.267
404	0.267
405	0.267
405	0.267
405	0.267
406	0.266
406	0.266
407	0.266
407	0.266
408	0.265
408	0.265
409	0.265
409	0.265
410	0.265
410	0.265
411	0.265
411	0.265
411	0.265
412	0.265
412	0.265
413	0.265
413	0.264
414	0.264
414	0.264
415	0.264
415	0.263
416	0.263
416	0.263
416	0.263
417	0.263
417	0.262
418	0.263
418	0.262
419	0.262
419	0.262
420	0.262
420	0.262
421	0.262
421	0.262
421	0.262
422	0.262
422	0.262
423	0.262
423	0.262
424	0.262
424	0.261
425	0.261
425	0.261
426	0.261
426	0.261
427	0.26
427	0.26
427	0.26
428	0.26
428	0.26
429	0.26
429	0.26
430	0.26
430	0.26
431	0.259
431	0.259
432	0.259
432	0.259
432	0.259
433	0.258
433	0.258
434	0.258
434	0.258
435	0.258
435	0.258
436	0.258
436	0.258
437	0.258
437	0.258
437	0.258
438	0.258
438	0.258
439	0.257
439	0.257
440	0.257
440	0.257
441	0.257
441	0.256
442	0.256
442	0.256
442	0.256
443	0.256
443	0.256
444	0.256
444	0.256
445	0.256
445	0.256
446	0.256
446	0.256
447	0.256
447	0.257
447	0.256
448	0.257
448	0.256
449	0.256
449	0.257
450	0.257
450	0.257
451	0.257
451	0.257
452	0.257
452	0.257
452	0.257
453	0.257
453	0.257
454	0.257
454	0.257
455	0.257
455	0.257
456	0.257
456	0.257
457	0.256
457	0.256
458	0.256
458	0.256
458	0.257
459	0.257
459	0.257
460	0.257
460	0.257
461	0.257
461	0.257
462	0.258
462	0.258
463	0.258
463	0.258
463	0.259
464	0.259
464	0.259
465	0.259
465	0.26
466	0.26
466	0.26
467	0.26
467	0.261
467	0.261
468	0.262
468	0.262
469	0.263
469	0.263
470	0.264
470	0.264
471	0.264
471	0.264
472	0.265
472	0.265
472	0.266
473	0.266
473	0.266
474	0.267
474	0.267
475	0.267
475	0.268
476	0.268
476	0.269
477	0.269
477	0.27
477	0.27
478	0.271
478	0.272
479	0.273
479	0.273
480	0.274
480	0.275
481	0.276
481	0.277
482	0.277
482	0.278
482	0.279
483	0.28
483	0.28
484	0.281
484	0.281
485	0.282
485	0.282
486	0.283
486	0.284
487	0.285
487	0.286
487	0.287
488	0.288
488	0.289
489	0.291
489	0.293
490	0.294
490	0.296
491	0.297
491	0.299
492	0.3
492	0.301
492	0.303
493	0.304
493	0.306
494	0.307
494	0.308
495	0.31
495	0.311
496	0.313
496	0.315
496	0.317
497	0.319
497	0.32
498	0.322
498	0.324
499	0.327
499	0.329
500	0.331
500	0.333
501	0.335
501	0.336
501	0.338
502	0.34
502	0.342
503	0.343
503	0.345
504	0.347
504	0.349
505	0.351
505	0.353
506	0.355
506	0.357
506	0.36
507	0.362
507	0.364
508	0.366
508	0.369
509	0.371
509	0.373
510	0.375
510	0.377
511	0.379
511	0.381
511	0.383
512	0.385
512	0.387
513	0.388
513	0.39
514	0.392
514	0.394
515	0.396
515	0.398
515	0.4
516	0.402
516	0.403
517	0.405
517	0.407
518	0.408
518	0.41
519	0.412
519	0.413
520	0.415
520	0.417
520	0.418
521	0.42
521	0.421
522	0.423
522	0.424
523	0.425
523	0.426
524	0.427
524	0.428
524	0.428
525	0.429
525	0.43
526	0.43
526	0.431
527	0.431
527	0.432
528	0.433
528	0.433
529	0.434
529	0.434
529	0.435
530	0.435
530	0.435
531	0.435
531	0.435
532	0.434
532	0.434
533	0.434
533	0.433
533	0.433
534	0.432
534	0.432
535	0.431
535	0.431
536	0.43
536	0.429
537	0.428
537	0.428
538	0.427
538	0.426
538	0.425
539	0.424
539	0.423
540	0.422
540	0.42
541	0.419
541	0.418
542	0.417
542	0.415
542	0.413
543	0.412
543	0.41
544	0.408
544	0.407
545	0.406
545	0.404
546	0.403
546	0.401
547	0.4
547	0.398
547	0.397
548	0.396
548	0.394
549	0.393
549	0.392
550	0.39
550	0.388
551	0.386
551	0.385
551	0.383
552	0.382
552	0.38
553	0.378
553	0.377
554	0.375
554	0.373
555	0.372
555	0.37
556	0.369
556	0.367
556	0.366
557	0.364
557	0.363
558	0.361
558	0.359
559	0.357
559	0.356
560	0.354
560	0.353
560	0.351
561	0.35
561	0.348
562	0.346
562	0.345
563	0.343
563	0.341
564	0.34
564	0.338
564	0.337
565	0.335
565	0.333
566	0.331
566	0.329
567	0.327
567	0.325
568	0.323
568	0.321
568	0.32
569	0.318
569	0.316
570	0.314
570	0.312
571	0.311
571	0.31
572	0.308
572	0.307
573	0.305
573	0.304
573	0.302
574	0.301
574	0.3
575	0.299
575	0.298
576	0.296
576	0.295
577	0.294
577	0.294
577	0.293
578	0.292
578	0.292
579	0.291
579	0.29
580	0.288
580	0.287
581	0.286
581	0.285
581	0.284
582	0.283
582	0.282
583	0.281
583	0.28
584	0.279
584	0.277
585	0.277
585	0.276
585	0.275
586	0.275
586	0.274
587	0.273
587	0.273
588	0.272
588	0.272
589	0.271
589	0.271
590	0.27
590	0.27
590	0.27
591	0.269
591	0.267
592	0.266
592	0.265
593	0.265
593	0.264
594	0.263
594	0.263
594	0.262
595	0.261
595	0.261
596	0.261
596	0.261
597	0.261
597	0.26
598	0.259
598	0.258
598	0.258
599	0.257
599	0.256
600	0.255
600	0.254
601	0.253
601	0.252
602	0.251
602	0.251
602	0.25
603	0.25
603	0.25
604	0.249
604	0.249
605	0.249
605	0.249
606	0.248
606	0.247
606	0.247
607	0.246
607	0.245
608	0.244
608	0.243
609	0.243
609	0.242
610	0.242
610	0.241
610	0.241
611	0.241
611	0.241
612	0.241
612	0.241
613	0.241
613	0.24
614	0.239
614	0.238
614	0.237
615	0.236
615	0.235
616	0.234
616	0.233
617	0.232
617	0.231
618	0.23
618	0.229
618	0.229
619	0.229
619	0.229
620	0.228
620	0.228
621	0.227
621	0.227
622	0.226
622	0.226
622	0.225
623	0.224
623	0.224
624	0.223
624	0.223
625	0.222
625	0.222
626	0.221
626	0.221
626	0.221
627	0.22
627	0.219
628	0.218
628	0.217
629	0.216
629	0.214
630	0.213
630	0.212
630	0.21
631	0.208
631	0.206
632	0.204
632	0.202
633	0.2
633	0.198
634	0.196
634	0.193
634	0.19
635	0.188
635	0.184
636	0.181
636	0.178
637	0.174
637	0.171
638	0.167
638	0.163
638	0.16
639	0.156
639	0.152
640	0.148
640	0.144
641	0.14
641	0.136
642	0.132
642	0.128
642	0.124
643	0.12
643	0.115
644	0.11
644	0.106
645	0.101
645	0.096
646	0.09
646	0.085
646	0.079
647	0.074
647	0.068
648	0.062
648	0.057
649	0.05
649	0.044
650	0.038
650	0.032
650	0.026
651	0.018
651	0.008
652	-0.004
652	-0.016
653	-0.027
653	-0.037
653	-0.035
654	-0.017
654	-0.007
655	-0.009
655	-0.013
656	-0.018
656	-0.022
657	-0.024
657	-0.027
657	-0.032
658	-0.035
658	-0.057
659	-0.127
659	-0.211
660	-0.25
660	-0.273
661	-0.298
661	-0.327
661	-0.359
662	-0.391
662	-0.427
663	-0.47
663	-0.514
664	-0.561
664	-0.615
665	-0.67
665	-0.732
665	-0.792
666	-0.853
666	-0.919
667	-0.988
667	-1.057
668	-1.133
668	-1.209
669	-1.288
669	-1.367
669	-1.451
670	-1.536
670	-1.624
671	-1.856
671	-2.066
672	-2.267
672	-2.442
672	-2.562
673	-2.648
673	-2.724
674	-2.751
674	-2.766
675	-2.789
675	-2.923
676	-3.095
676	-3.042
676	-2.813
677	-2.6
677	-2.423
678	-2.216
678	-1.813
679	-1.607
679	-1.49
680	-1.399
680	-1.318
680	-1.25
681	-1.205
681	-1.146
682	-1.103
682	-1.064
683	-1.027
683	-1.007
684	-0.982
684	-0.96
684	-0.934
685	-0.906
685	-0.88
686	-0.853
686	-0.834
687	-0.806
687	-0.791
687	-0.768
688	-0.741
688	-0.717
689	-0.693
689	-0.678
690	-0.656
690	-0.641
691	-0.632
691	-0.634
691	-0.645
692	-0.636
692	-0.621
693	-0.611
693	-0.612
694	-0.607
694	-0.596
695	-0.599
695	-0.595
695	-0.576
696	-0.571
696	-0.548
697	-0.547
697	-0.559
698	-0.562
698	-0.555
698	-0.563
699	-0.565
699	-0.562
700	-0.552
700	-0.564
701	-0.562
701	-0.566
702	-0.564
702	-0.552
702	-0.541
703	-0.534
703	-0.525
704	-0.521
704	-0.52
705	-0.529
705	-0.525
705	-0.512
706	-0.513
706	-0.511
707	-0.512
707	-0.508
708	-0.504
708	-0.494
709	-0.498
709	-0.498
709	-0.488
710	-0.494
710	-0.502
711	-0.494
711	-0.493
712	-0.494
712	-0.504
713	-0.502
713	-0.508
713	-0.496
714	-0.492
714	-0.494
715	-0.484
715	-0.472
716	-0.477
716	-0.478
716	-0.47
717	-0.473
717	-0.478
718	-0.472
718	-0.473
719	-0.483
719	-0.483
720	-0.478
720	-0.487
720	-0.48
721	-0.469
721	-0.469
722	-0.452
722	-0.44
723	-0.436
723	-0.439
723	-0.424
724	-0.425
724	-0.429
725	-0.43
725	-0.435
726	-0.445
726	-0.449
727	-0.453
727	-0.468
727	-0.478
728	-0.48
728	-0.485
729	-0.487
729	-0.493
730	-0.495
730	-0.492
730	-0.485
731	-0.473
731	-0.485
732	-0.49
732	-0.488
733	-0.483
733	-0.486
734	-0.477
734	-0.471
734	-0.46
735	-0.455
735	-0.452
736	-0.459
736	-0.445
737	-0.436
737	-0.437
737	-0.448
738	-0.44
738	-0.442
739	-0.441
739	-0.452
740	-0.451
740	-0.45
741	-0.45
741	-0.449
741	-0.454
742	-0.452
742	-0.453
743	-0.462
743	-0.463
744	-0.462
744	-0.454
744	-0.46
745	-0.469
745	-0.461
746	-0.46
746	-0.456
747	-0.455
747	-0.441
748	-0.431
748	-0.436
748	-0.437
749	-0.435
749	-0.433
750	-0.42
750	-0.421
751	-0.424
751	-0.433
751	-0.435
752	-0.439
752	-0.445
753	-0.441
753	-0.44
754	-0.447
754	-0.441
754	-0.456
755	-0.468
755	-0.477
756	-0.466
756	-0.464
757	-0.463
757	-0.462
758	-0.462
758	-0.456
758	-0.455
759	-0.463
759	-0.446
760	-0.44
760	-0.439
761	-0.446
761	-0.442
761	-0.445
762	-0.455
762	-0.457
763	-0.469
763	-0.469
764	-0.466
764	-0.472
764	-0.474
765	-0.462
765	-0.449
766	-0.459
766	-0.462
767	-0.472
767	-0.465
768	-0.457
768	-0.464
768	-0.469
769	-0.488
769	-0.491
770	-0.497
770	-0.511
771	-0.506
771	-0.505
771	-0.501
772	-0.504
772	-0.502
773	-0.502
773	-0.495
774	-0.492
774	-0.491
775	-0.492
775	-0.485
775	-0.493
776	-0.492
776	-0.487
777	-0.497
777	-0.516
778	-0.511
778	-0.531
778	-0.518
779	-0.544
779	-0.553
780	-0.566
780	-0.564
781	-0.58
781	-0.576
781	-0.591
782	-0.592
782	-0.597
783	-0.585
783	-0.587
784	-0.567
784	-0.555
784	-0.566
785	-0.573
785	-0.561
786	-0.566
786	-0.545
787	-0.529
787	-0.528
788	-0.529
788	-0.535
788	-0.541
789	-0.543
789	-0.528
790	-0.511
790	-0.508
791	-0.504
791	-0.516
791	-0.521
792	-0.514
792	-0.493
793	-0.482
793	-0.462
794	-0.467
794	-0.458
794	-0.464
795	-0.461
795	-0.455
796	-0.444
796	-0.451
797	-0.449
797	-0.458
797	-0.467
798	-0.478
798	-0.469
799	-0.476
799	-0.463
800	-0.467
800	-0.465
801	-0.469
801	-0.455
801	-0.465
802	-0.468
802	-0.467
803	-0.472
803	-0.481
804	-0.479
804	-0.49
804	-0.481
805	-0.485
805	-0.478
806	-0.481
806	-0.466
807	-0.466
807	-0.45
807	-0.436
808	-0.432
808	-0.426
809	-0.414
809	-0.427
810	-0.424
810	-0.417
810	-0.415
811	-0.423
811	-0.417
812	-0.418
812	-0.422
813	-0.424
813	-0.418
813	-0.424
814	-0.422
814	-0.43
815	-0.434
815	-0.438
816	-0.434
816	-0.44
817	-0.446
817	-0.46
817	-0.473
818	-0.484
818	-0.484
819	-0.472
819	-0.47
820	-0.478
820	-0.472
820	-0.479
821	-0.477
821	-0.471
822	-0.445
822	-0.422
823	-0.417
823	-0.424
823	-0.423
824	-0.419
824	-0.42
825	-0.416
825	-0.399
826	-0.393
826	-0.395
826	-0.403
827	-0.401
827	-0.401
828	-0.381
828	-0.385
829	-0.375
829	-0.365
829	-0.356
830	-0.367
830	-0.364
831	-0.361
831	-0.351
832	-0.35
832	-0.342
832	-0.35
833	-0.342
833	-0.343
834	-0.34
834	-0.345
835	-0.335
835	-0.332
835	-0.328
836	-0.328
836	-0.326
837	-0.324
837	-0.317
838	-0.31
838	-0.302
839	-0.292
839	-0.285
839	-0.278
840	-0.266
840	-0.265
841	-0.251
841	-0.243
842	-0.241
842	-0.233
842	-0.229
843	-0.227
843	-0.223
844	-0.217
844	-0.211
845	-0.208
845	-0.201
845	-0.194
846	-0.187
846	-0.176
847	-0.165
847	-0.157
848	-0.147
848	-0.14
848	-0.13
849	-0.121
849	-0.113
850	-0.102
850	-0.1
851	-0.094
851	-0.088
851	-0.084
852	-0.074
852	-0.065
853	-0.059
853	-0.056
854	-0.05
854	-0.041
854	-0.033
855	-0.025
855	-0.022
856	-0.016
856	-0.01
857	-0.007
857	-0.002
857	0.005
858	0.012
858	0.016
859	0.018
859	0.022
860	0.026
860	0.031
860	0.034
861	0.037
861	0.041
862	0.044
862	0.047
863	0.05
863	0.054
863	0.056
864	0.058
864	0.061
865	0.064
865	0.066
866	0.069
866	0.07
866	0.072
867	0.074
867	0.076
868	0.077
868	0.08
869	0.082
869	0.083
869	0.083
870	0.084
870	0.085
871	0.086
871	0.087
872	0.087
872	0.087
872	0.087
873	0.087
873	0.087
874	0.087
874	0.087
875	0.087
875	0.086
875	0.086
876	0.085
876	0.085
877	0.084
877	0.084
878	0.083
878	0.082
878	0.081
879	0.08
879	0.08
880	0.079
880	0.079
881	0.079
881	0.079
881	0.078
882	0.078
882	0.077
883	0.076
883	0.075
884	0.075
884	0.074
884	0.073
885	0.072
885	0.072
886	0.072
886	0.071
887	0.071
887	0.071
887	0.071
888	0.072
888	0.072
889	0.073
889	0.074
890	0.075
890	0.075
890	0.076
891	0.076
891	0.076
892	0.077
892	0.077
893	0.076
893	0.076
893	0.076
894	0.075
894	0.074
895	0.073
895	0.073
895	0.072
896	0.071
896	0.07
897	0.069
897	0.068
898	0.068
898	0.067
898	0.067
899	0.067
899	0.067
900	0.067
900	0.067
901	0.067
901	0.068
901	0.068
902	0.068
902	0.068
903	0.068
903	0.067
904	0.067
904	0.068
904	0.068
905	0.068
905	0.068
906	0.067
906	0.067
907	0.066
907	0.066
907	0.065
908	0.065
908	0.064
909	0.063
909	0.062
910	0.061
910	0.06
910	0.06
911	0.059
911	0.059
912	0.06
912	0.06
913	0.06
913	0.061
913	0.062
914	0.062
914	0.063
915	0.064
915	0.065
916	0.066
916	0.066
916	0.067
917	0.067
917	0.068
918	0.068
918	0.068
918	0.067
919	0.067
919	0.068
920	0.068
920	0.068
921	0.069
921	0.069
921	0.07
922	0.07
922	0.07
923	0.071
923	0.071
924	0.071
924	0.072
924	0.072
925	0.071
925	0.07
926	0.07
926	0.069
927	0.068
927	0.068
927	0.067
928	0.067
928	0.066
929	0.065
929	0.065
930	0.064
930	0.064
930	0.064
931	0.064
931	0.064
932	0.064
932	0.064
933	0.064
933	0.063
933	0.063
934	0.062
934	0.061
935	0.061
935	0.06
935	0.06
936	0.059
936	0.058
937	0.058
937	0.057
938	0.058
938	0.058
938	0.058
939	0.058
939	0.058
940	0.058
940	0.057
941	0.057
941	0.058
941	0.058
942	0.057
942	0.057
943	0.056
943	0.056
944	0.055
944	0.055
944	0.054
945	0.053
945	0.053
946	0.052
946	0.051
946	0.051
947	0.051
947	0.051
948	0.052
948	0.052
949	0.053
949	0.054
949	0.054
950	0.055
950	0.056
951	0.057
951	0.057
952	0.058
952	0.059
952	0.059
953	0.06
953	0.061
954	0.061
954	0.061
955	0.062
955	0.063
955	0.063
956	0.063
956	0.064
957	0.064
957	0.064
957	0.064
958	0.065
958	0.065
959	0.066
959	0.066
960	0.066
960	0.066
960	0.066
961	0.065
961	0.065
962	0.064
962	0.064
963	0.063
963	0.063
963	0.062
964	0.062
964	0.062
965	0.061
965	0.061
966	0.061
966	0.06
966	0.06
967	0.06
967	0.06
968	0.06
968	0.059
968	0.059
969	0.058
969	0.058
970	0.057
970	0.057
971	0.057
971	0.057
971	0.057
972	0.057
972	0.056
973	0.056
973	0.055
974	0.055
974	0.055
974	0.054
975	0.053
975	0.053
976	0.052
976	0.051
976	0.05
977	0.05
977	0.05
978	0.05
978	0.049
979	0.049
979	0.049
979	0.049
980	0.05
980	0.05
981	0.051
981	0.051
982	0.051
982	0.051
982	0.051
983	0.051
983	0.05
984	0.05
984	0.05
984	0.05
985	0.05
985	0.05
986	0.05
986	0.05
987	0.051
987	0.051
987	0.052
988	0.052
988	0.052
989	0.052
989	0.052
990	0.052
990	0.052
990	0.052
991	0.051
991	0.051
992	0.05
992	0.05
992	0.05
993	0.049
993	0.049
994	0.049
994	0.049
995	0.049
995	0.049
995	0.049
996	0.048
996	0.048
997	0.048
997	0.048
997	0.049
998	0.049
998	0.049
999	0.049
999	0.049
1000	0.049
1000	0.049
1000	0.049
1001	0.049
1001	0.049
1002	0.048
1002	0.048
1003	0.048
1003	0.048
1003	0.047
1004	0.046
1004	0.045
1005	0.044
1005	0.044
1005	0.043
1006	0.042
1006	0.041
1007	0.04
1007	0.039
1008	0.039
1008	0.039
1008	0.038
1009	0.038
1009	0.038
1010	0.038
1010	0.038
1010	0.038
1011	0.038
1011	0.037
1012	0.037
1012	0.036
1013	0.035
1013	0.034
1013	0.033
1014	0.032
1014	0.031
1015	0.03
1015	0.029
1016	0.029
1016	0.028
1016	0.028
1017	0.027
1017	0.027
1018	0.027
1018	0.026
1018	0.026
1019	0.026
1019	0.025
1020	0.024
1020	0.023
1021	0.023
1021	0.021
1021	0.02
1022	0.019
1022	0.018
1023	0.017
1023	0.017
1023	0.016
1024	0.016
1024	0.016
1025	0.016
1025	0.016
1026	0.017
1026	0.018
1026	0.018
1027	0.018
1027	0.019
1028	0.019
1028	0.019
1028	0.019
1029	0.019
1029	0.019
1030	0.018
1030	0.018
1031	0.018
1031	0.018
1031	0.018
1032	0.018
1032	0.019
1033	0.019
1033	0.02
1033	0.021
1034	0.021
1034	0.022
1035	0.022
1035	0.023
1036	0.023
1036	0.023
1036	0.023
1037	0.022
1037	0.022
1038	0.022
1038	0.021
1039	0.021
1039	0.021
1039	0.021
1040	0.021
1040	0.022
1041	0.022
1041	0.022
1041	0.023
1042	0.023
1042	0.023
1043	0.023
1043	0.023
1044	0.024
1044	0.024
1044	0.024
1045	0.024
1045	0.024
1046	0.024
1046	0.024
1046	0.024
1047	0.024
1047	0.025
1048	0.025
1048	0.025
1049	0.026
1049	0.026
1049	0.026
1050	0.026
1050	0.027
1051	0.027
1051	0.027
1051	0.027
1052	0.027
1052	0.028
1053	0.028
1053	0.027
1053	0.027
1054	0.027
1054	0.027
1055	0.026
1055	0.025
1056	0.025
1056	0.024
1056	0.023
1057	0.022
1057	0.021
1058	0.02
1058	0.019
1058	0.019
1059	0.018
1059	0.018
1060	0.018
1060	0.017
1061	0.017
1061	0.018
1061	0.018
1062	0.018
1062	0.017
1063	0.017
1063	0.018
1063	0.018
1064	0.018
1064	0.018
1065	0.018
1065	0.017
1066	0.017
1066	0.017
1066	0.016
1067	0.016
1067	0.016
1068	0.015
1068	0.015
1068	0.014
1069	0.014
1069	0.014
1070	0.014
1070	0.014
1071	0.013
1071	0.014
1071	0.013
1072	0.013
1072	0.013
1073	0.013
1073	0.013
1073	0.013
1074	0.013
1074	0.013
1075	0.012
1075	0.012
1076	0.011
1076	0.012
1076	0.011
1077	0.011
1077	0.011
1078	0.01
1078	0.01
1078	0.009
1079	0.008
1079	0.008
1080	0.007
1080	0.007
1080	0.006
1081	0.005
1081	0.004
1082	0.004
1082	0.003
1083	0.003
1083	0.002
1083	0.002
1084	0.001
1084	0.001
1085	0
1085	-0
1085	0
1086	-0
1086	-0.001
1087	-0
1087	-0
1088	-0.001
1088	-0.001
1088	-0.001
1089	-0.001
1089	-0.001
1090	-0.002
1090	-0.002
1090	-0.002
1091	-0.002
1091	-0.003
1092	-0.003
1092	-0.003
1092	-0.003
1093	-0.003
1093	-0.003
1094	-0.003
1094	-0.004
1095	-0.004
1095	-0.004
1095	-0.004
1096	-0.004
1096	-0.004
1097	-0.005
1097	-0.005
1097	-0.005
1098	-0.006
1098	-0.006
1099	-0.006
1099	-0.006
1100	-0.007
1100	-0.007
1100	-0.008
1101	-0.008
1101	-0.01
1102	-0.011
1102	-0.012
1102	-0.012
1103	-0.014
1103	-0.015
1104	-0.016
1104	-0.017
1104	-0.018
1105	-0.019
1105	-0.021
1106	-0.023
1106	-0.022
1107	-0.025
1107	-0.028
1107	-0.031
1108	-0.032
1108	-0.033
1109	-0.035
1109	-0.038
1109	-0.04
1110	-0.04
1110	-0.042
1111	-0.046
1111	-0.044
