Data from 17C_3.4A_30min_2sec_int_Absorbance__389__00389.txt Node

Date: Mon Jun 19 16:21:00 CEST 2023
User: Marek
Spectrometer: MAYP115816
Trigger mode: 0
Integration Time (sec): 2.500000E-1
Scans to average: 10
Electric dark correction enabled: true
Nonlinearity correction enabled: true
Boxcar width: 5
XAxis mode: Wavelengths
Number of Pixels in Spectrum: 2068
>>>>>Begin Spectral Data<<<<<
199	-0.481
199	-0.493
200	-0.406
200	-0.364
201	-0.332
201	-0.319
202	-0.302
202	-0.289
203	-0.283
203	-0.28
204	-0.271
204	-0.262
205	-0.243
205	-0.241
205	-0.236
206	-0.241
206	-0.243
207	-0.235
207	-0.239
208	-0.24
208	-0.241
209	-0.235
209	-0.238
210	-0.24
210	-0.244
211	-0.246
211	-0.243
212	-0.246
212	-0.255
213	-0.252
213	-0.253
213	-0.256
214	-0.252
214	-0.25
215	-0.254
215	-0.26
216	-0.267
216	-0.276
217	-0.272
217	-0.275
218	-0.278
218	-0.278
219	-0.281
219	-0.292
220	-0.295
220	-0.3
221	-0.297
221	-0.298
221	-0.292
222	-0.29
222	-0.292
223	-0.295
223	-0.295
224	-0.297
224	-0.297
225	-0.292
225	-0.29
226	-0.293
226	-0.293
227	-0.297
227	-0.304
228	-0.303
228	-0.302
229	-0.304
229	-0.299
229	-0.295
230	-0.297
230	-0.298
231	-0.293
231	-0.286
232	-0.279
232	-0.276
233	-0.273
233	-0.273
234	-0.27
234	-0.268
235	-0.269
235	-0.274
236	-0.272
236	-0.275
236	-0.278
237	-0.284
237	-0.288
238	-0.296
238	-0.296
239	-0.297
239	-0.307
240	-0.308
240	-0.306
241	-0.313
241	-0.313
242	-0.318
242	-0.313
243	-0.309
243	-0.307
243	-0.314
244	-0.317
244	-0.314
245	-0.325
245	-0.323
246	-0.327
246	-0.33
247	-0.328
247	-0.337
248	-0.341
248	-0.342
249	-0.344
249	-0.347
250	-0.346
250	-0.34
250	-0.34
251	-0.336
251	-0.336
252	-0.34
252	-0.327
253	-0.329
253	-0.339
254	-0.336
254	-0.338
255	-0.346
255	-0.34
256	-0.339
256	-0.346
257	-0.346
257	-0.341
258	-0.358
258	-0.355
258	-0.35
259	-0.348
259	-0.35
260	-0.35
260	-0.354
261	-0.363
261	-0.356
262	-0.352
262	-0.355
263	-0.342
263	-0.341
264	-0.338
264	-0.344
265	-0.344
265	-0.352
265	-0.356
266	-0.354
266	-0.352
267	-0.363
267	-0.37
268	-0.385
268	-0.39
269	-0.391
269	-0.385
270	-0.391
270	-0.389
271	-0.391
271	-0.394
272	-0.397
272	-0.394
272	-0.39
273	-0.387
273	-0.393
274	-0.399
274	-0.406
275	-0.406
275	-0.401
276	-0.404
276	-0.399
277	-0.405
277	-0.421
278	-0.425
278	-0.424
278	-0.418
279	-0.42
279	-0.425
280	-0.421
280	-0.421
281	-0.416
281	-0.421
282	-0.41
282	-0.408
283	-0.4
283	-0.397
284	-0.394
284	-0.382
285	-0.379
285	-0.372
285	-0.368
286	-0.373
286	-0.368
287	-0.37
287	-0.356
288	-0.35
288	-0.358
289	-0.367
289	-0.376
290	-0.367
290	-0.37
291	-0.364
291	-0.362
292	-0.364
292	-0.369
292	-0.371
293	-0.378
293	-0.368
294	-0.359
294	-0.354
295	-0.352
295	-0.35
296	-0.351
296	-0.347
297	-0.342
297	-0.326
298	-0.322
298	-0.331
298	-0.32
299	-0.317
299	-0.315
300	-0.309
300	-0.305
301	-0.301
301	-0.298
302	-0.308
302	-0.315
303	-0.303
303	-0.288
304	-0.291
304	-0.289
305	-0.291
305	-0.289
305	-0.286
306	-0.276
306	-0.272
307	-0.259
307	-0.262
308	-0.273
308	-0.27
309	-0.271
309	-0.261
310	-0.249
310	-0.247
311	-0.241
311	-0.247
311	-0.248
312	-0.242
312	-0.242
313	-0.229
313	-0.233
314	-0.232
314	-0.235
315	-0.234
315	-0.232
316	-0.227
316	-0.219
317	-0.208
317	-0.207
318	-0.197
318	-0.196
318	-0.19
319	-0.18
319	-0.175
320	-0.17
320	-0.174
321	-0.179
321	-0.178
322	-0.176
322	-0.171
323	-0.167
323	-0.161
324	-0.158
324	-0.15
324	-0.147
325	-0.14
325	-0.127
326	-0.117
326	-0.102
327	-0.089
327	-0.072
328	-0.054
328	-0.036
329	-0.02
329	-0.002
330	0.022
330	0.047
330	0.067
331	0.089
331	0.109
332	0.127
332	0.142
333	0.156
333	0.172
334	0.187
334	0.197
335	0.207
335	0.216
336	0.224
336	0.232
336	0.238
337	0.245
337	0.25
338	0.255
338	0.257
339	0.261
339	0.265
340	0.267
340	0.27
341	0.272
341	0.274
342	0.276
342	0.278
342	0.279
343	0.281
343	0.283
344	0.284
344	0.284
345	0.285
345	0.285
346	0.286
346	0.286
347	0.286
347	0.286
348	0.286
348	0.286
348	0.286
349	0.286
349	0.286
350	0.286
350	0.286
351	0.286
351	0.286
352	0.286
352	0.286
353	0.286
353	0.286
354	0.285
354	0.285
354	0.285
355	0.284
355	0.284
356	0.284
356	0.284
357	0.282
357	0.282
358	0.282
358	0.282
359	0.281
359	0.281
360	0.281
360	0.281
360	0.28
361	0.28
361	0.28
362	0.28
362	0.28
363	0.28
363	0.28
364	0.28
364	0.279
365	0.279
365	0.279
366	0.279
366	0.279
366	0.279
367	0.279
367	0.278
368	0.278
368	0.278
369	0.277
369	0.277
370	0.277
370	0.277
371	0.276
371	0.276
372	0.276
372	0.276
372	0.276
373	0.275
373	0.275
374	0.275
374	0.275
375	0.275
375	0.275
376	0.275
376	0.274
377	0.275
377	0.274
378	0.274
378	0.274
378	0.274
379	0.274
379	0.274
380	0.273
380	0.273
381	0.272
381	0.272
382	0.272
382	0.271
383	0.271
383	0.271
383	0.27
384	0.27
384	0.27
385	0.27
385	0.27
386	0.27
386	0.27
387	0.27
387	0.269
388	0.269
388	0.269
389	0.269
389	0.269
389	0.269
390	0.269
390	0.268
391	0.268
391	0.268
392	0.268
392	0.268
393	0.267
393	0.267
394	0.267
394	0.266
394	0.266
395	0.266
395	0.266
396	0.265
396	0.265
397	0.265
397	0.265
398	0.265
398	0.265
399	0.265
399	0.264
400	0.264
400	0.264
400	0.264
401	0.263
401	0.263
402	0.263
402	0.262
403	0.262
403	0.261
404	0.261
404	0.261
405	0.261
405	0.261
405	0.261
406	0.26
406	0.26
407	0.26
407	0.26
408	0.26
408	0.259
409	0.259
409	0.259
410	0.259
410	0.259
411	0.259
411	0.259
411	0.259
412	0.259
412	0.258
413	0.258
413	0.258
414	0.258
414	0.257
415	0.257
415	0.257
416	0.257
416	0.257
416	0.257
417	0.256
417	0.256
418	0.256
418	0.256
419	0.256
419	0.256
420	0.256
420	0.256
421	0.256
421	0.256
421	0.256
422	0.256
422	0.256
423	0.256
423	0.256
424	0.256
424	0.255
425	0.255
425	0.255
426	0.255
426	0.255
427	0.254
427	0.254
427	0.254
428	0.254
428	0.254
429	0.254
429	0.254
430	0.253
430	0.253
431	0.253
431	0.253
432	0.253
432	0.253
432	0.253
433	0.252
433	0.252
434	0.252
434	0.252
435	0.252
435	0.251
436	0.252
436	0.252
437	0.252
437	0.252
437	0.252
438	0.252
438	0.252
439	0.252
439	0.251
440	0.251
440	0.251
441	0.251
441	0.251
442	0.25
442	0.25
442	0.25
443	0.25
443	0.25
444	0.25
444	0.25
445	0.25
445	0.25
446	0.25
446	0.25
447	0.25
447	0.25
447	0.25
448	0.25
448	0.25
449	0.25
449	0.251
450	0.251
450	0.251
451	0.251
451	0.251
452	0.251
452	0.251
452	0.251
453	0.251
453	0.251
454	0.251
454	0.25
455	0.25
455	0.25
456	0.25
456	0.25
457	0.25
457	0.25
458	0.25
458	0.25
458	0.251
459	0.251
459	0.251
460	0.251
460	0.251
461	0.251
461	0.252
462	0.252
462	0.252
463	0.252
463	0.253
463	0.253
464	0.253
464	0.253
465	0.253
465	0.253
466	0.254
466	0.254
467	0.255
467	0.255
467	0.255
468	0.255
468	0.256
469	0.256
469	0.257
470	0.257
470	0.258
471	0.258
471	0.258
472	0.258
472	0.258
472	0.259
473	0.259
473	0.26
474	0.26
474	0.261
475	0.261
475	0.262
476	0.262
476	0.262
477	0.263
477	0.263
477	0.264
478	0.265
478	0.265
479	0.266
479	0.267
480	0.267
480	0.268
481	0.268
481	0.269
482	0.27
482	0.271
482	0.272
483	0.272
483	0.273
484	0.273
484	0.274
485	0.274
485	0.275
486	0.276
486	0.277
487	0.278
487	0.278
487	0.28
488	0.28
488	0.282
489	0.283
489	0.285
490	0.287
490	0.288
491	0.289
491	0.291
492	0.292
492	0.293
492	0.295
493	0.296
493	0.298
494	0.299
494	0.3
495	0.302
495	0.303
496	0.305
496	0.306
496	0.308
497	0.31
497	0.312
498	0.313
498	0.315
499	0.317
499	0.32
500	0.322
500	0.324
501	0.326
501	0.328
501	0.329
502	0.331
502	0.332
503	0.334
503	0.335
504	0.337
504	0.339
505	0.341
505	0.343
506	0.345
506	0.347
506	0.35
507	0.352
507	0.354
508	0.356
508	0.359
509	0.361
509	0.363
510	0.365
510	0.367
511	0.369
511	0.371
511	0.372
512	0.374
512	0.376
513	0.377
513	0.379
514	0.38
514	0.382
515	0.384
515	0.386
515	0.388
516	0.39
516	0.392
517	0.393
517	0.395
518	0.397
518	0.398
519	0.4
519	0.402
520	0.403
520	0.405
520	0.407
521	0.408
521	0.409
522	0.411
522	0.412
523	0.413
523	0.414
524	0.415
524	0.415
524	0.416
525	0.417
525	0.417
526	0.418
526	0.418
527	0.419
527	0.419
528	0.42
528	0.421
529	0.421
529	0.422
529	0.422
530	0.422
530	0.422
531	0.422
531	0.422
532	0.421
532	0.421
533	0.421
533	0.421
533	0.42
534	0.42
534	0.419
535	0.419
535	0.419
536	0.418
536	0.417
537	0.416
537	0.415
538	0.415
538	0.414
538	0.413
539	0.412
539	0.411
540	0.409
540	0.408
541	0.407
541	0.406
542	0.405
542	0.403
542	0.401
543	0.4
543	0.398
544	0.397
544	0.395
545	0.394
545	0.393
546	0.391
546	0.39
547	0.388
547	0.387
547	0.386
548	0.384
548	0.383
549	0.382
549	0.38
550	0.378
550	0.377
551	0.375
551	0.373
551	0.372
552	0.371
552	0.369
553	0.368
553	0.366
554	0.365
554	0.363
555	0.362
555	0.36
556	0.359
556	0.358
556	0.356
557	0.355
557	0.353
558	0.351
558	0.349
559	0.348
559	0.346
560	0.345
560	0.343
560	0.342
561	0.34
561	0.339
562	0.337
562	0.335
563	0.333
563	0.332
564	0.331
564	0.329
564	0.328
565	0.326
565	0.325
566	0.323
566	0.321
567	0.319
567	0.317
568	0.315
568	0.313
568	0.312
569	0.31
569	0.308
570	0.306
570	0.305
571	0.304
571	0.302
572	0.301
572	0.299
573	0.298
573	0.296
573	0.295
574	0.294
574	0.293
575	0.292
575	0.291
576	0.29
576	0.288
577	0.288
577	0.287
577	0.287
578	0.286
578	0.285
579	0.285
579	0.284
580	0.282
580	0.281
581	0.28
581	0.279
581	0.278
582	0.277
582	0.276
583	0.275
583	0.274
584	0.273
584	0.271
585	0.271
585	0.27
585	0.27
586	0.269
586	0.269
587	0.268
587	0.268
588	0.267
588	0.267
589	0.266
589	0.266
590	0.265
590	0.265
590	0.265
591	0.264
591	0.263
592	0.262
592	0.261
593	0.26
593	0.26
594	0.259
594	0.258
594	0.257
595	0.257
595	0.257
596	0.256
596	0.257
597	0.256
597	0.255
598	0.255
598	0.254
598	0.254
599	0.253
599	0.252
600	0.251
600	0.25
601	0.25
601	0.249
602	0.248
602	0.247
602	0.247
603	0.247
603	0.247
604	0.246
604	0.246
605	0.246
605	0.246
606	0.245
606	0.244
606	0.244
607	0.243
607	0.242
608	0.241
608	0.241
609	0.24
609	0.24
610	0.239
610	0.239
610	0.239
611	0.239
611	0.239
612	0.239
612	0.239
613	0.238
613	0.238
614	0.237
614	0.236
614	0.235
615	0.234
615	0.233
616	0.233
616	0.231
617	0.23
617	0.229
618	0.229
618	0.228
618	0.228
619	0.227
619	0.227
620	0.227
620	0.227
621	0.226
621	0.226
622	0.225
622	0.225
622	0.224
623	0.224
623	0.223
624	0.223
624	0.222
625	0.222
625	0.221
626	0.221
626	0.22
626	0.22
627	0.22
627	0.219
628	0.218
628	0.217
629	0.215
629	0.214
630	0.213
630	0.211
630	0.21
631	0.208
631	0.206
632	0.204
632	0.202
633	0.2
633	0.198
634	0.196
634	0.194
634	0.191
635	0.189
635	0.186
636	0.182
636	0.179
637	0.176
637	0.173
638	0.169
638	0.166
638	0.162
639	0.158
639	0.154
640	0.149
640	0.146
641	0.142
641	0.138
642	0.134
642	0.13
642	0.126
643	0.122
643	0.117
644	0.113
644	0.108
645	0.103
645	0.098
646	0.093
646	0.088
646	0.082
647	0.077
647	0.071
648	0.065
648	0.06
649	0.053
649	0.047
650	0.041
650	0.035
650	0.028
651	0.02
651	0.01
652	-0.002
652	-0.014
653	-0.025
653	-0.034
653	-0.032
654	-0.016
654	-0.006
655	-0.008
655	-0.013
656	-0.017
656	-0.022
657	-0.024
657	-0.027
657	-0.031
658	-0.035
658	-0.058
659	-0.126
659	-0.212
660	-0.25
660	-0.273
661	-0.298
661	-0.327
661	-0.36
662	-0.392
662	-0.426
663	-0.467
663	-0.51
664	-0.557
664	-0.609
665	-0.664
665	-0.726
665	-0.784
666	-0.845
666	-0.91
667	-0.978
667	-1.046
668	-1.121
668	-1.197
669	-1.274
669	-1.352
669	-1.434
670	-1.508
670	-1.558
671	-1.75
671	-2.004
672	-2.223
672	-2.409
672	-2.535
673	-2.626
673	-2.704
674	-2.735
674	-2.752
675	-2.776
675	-2.914
676	-3.1
676	-3.048
676	-2.82
677	-2.609
677	-2.435
678	-2.236
678	-1.862
679	-1.629
679	-1.505
680	-1.413
680	-1.331
680	-1.261
681	-1.215
681	-1.154
682	-1.112
682	-1.073
683	-1.035
683	-1.015
684	-0.989
684	-0.966
684	-0.94
685	-0.911
685	-0.885
686	-0.858
686	-0.84
687	-0.811
687	-0.796
687	-0.771
688	-0.742
688	-0.722
689	-0.697
689	-0.684
690	-0.664
690	-0.649
691	-0.641
691	-0.644
691	-0.657
692	-0.646
692	-0.636
693	-0.629
693	-0.632
694	-0.625
694	-0.615
695	-0.617
695	-0.61
695	-0.592
696	-0.586
696	-0.565
697	-0.56
697	-0.576
698	-0.574
698	-0.565
698	-0.577
699	-0.579
699	-0.576
700	-0.568
700	-0.578
701	-0.575
701	-0.581
702	-0.582
702	-0.57
702	-0.561
703	-0.553
703	-0.544
704	-0.54
704	-0.538
705	-0.547
705	-0.543
705	-0.53
706	-0.53
706	-0.528
707	-0.529
707	-0.525
708	-0.523
708	-0.515
709	-0.516
709	-0.516
709	-0.506
710	-0.512
710	-0.52
711	-0.51
711	-0.51
712	-0.509
712	-0.519
713	-0.513
713	-0.516
713	-0.508
714	-0.504
714	-0.507
715	-0.498
715	-0.483
716	-0.488
716	-0.485
716	-0.476
717	-0.478
717	-0.485
718	-0.479
718	-0.481
719	-0.488
719	-0.489
720	-0.484
720	-0.494
720	-0.49
721	-0.483
721	-0.484
722	-0.471
722	-0.458
723	-0.454
723	-0.459
723	-0.446
724	-0.45
724	-0.455
725	-0.453
725	-0.46
726	-0.468
726	-0.47
727	-0.473
727	-0.487
727	-0.498
728	-0.495
728	-0.5
729	-0.498
729	-0.501
730	-0.508
730	-0.501
730	-0.493
731	-0.479
731	-0.49
732	-0.496
732	-0.493
733	-0.491
733	-0.495
734	-0.484
734	-0.482
734	-0.471
735	-0.469
735	-0.47
736	-0.477
736	-0.467
737	-0.46
737	-0.462
737	-0.47
738	-0.464
738	-0.467
739	-0.464
739	-0.476
740	-0.474
740	-0.469
741	-0.468
741	-0.463
741	-0.466
742	-0.463
742	-0.465
743	-0.476
743	-0.483
744	-0.482
744	-0.47
744	-0.474
745	-0.486
745	-0.478
746	-0.478
746	-0.471
747	-0.473
747	-0.459
748	-0.446
748	-0.45
748	-0.449
749	-0.447
749	-0.447
750	-0.437
750	-0.437
751	-0.442
751	-0.458
751	-0.46
752	-0.465
752	-0.473
753	-0.468
753	-0.468
754	-0.473
754	-0.467
754	-0.478
755	-0.493
755	-0.503
756	-0.487
756	-0.484
757	-0.484
757	-0.481
758	-0.481
758	-0.479
758	-0.484
759	-0.49
759	-0.473
760	-0.468
760	-0.464
761	-0.473
761	-0.47
761	-0.468
762	-0.471
762	-0.473
763	-0.48
763	-0.476
764	-0.474
764	-0.483
764	-0.487
765	-0.477
765	-0.465
766	-0.473
766	-0.483
767	-0.501
767	-0.493
768	-0.487
768	-0.493
768	-0.496
769	-0.516
769	-0.516
770	-0.519
770	-0.532
771	-0.53
771	-0.529
771	-0.527
772	-0.531
772	-0.526
773	-0.528
773	-0.525
774	-0.518
774	-0.52
775	-0.526
775	-0.52
775	-0.528
776	-0.53
776	-0.519
777	-0.531
777	-0.555
778	-0.552
778	-0.571
778	-0.562
779	-0.58
779	-0.586
780	-0.599
780	-0.599
781	-0.612
781	-0.61
781	-0.624
782	-0.623
782	-0.627
783	-0.614
783	-0.613
784	-0.598
784	-0.587
784	-0.597
785	-0.602
785	-0.584
786	-0.586
786	-0.562
787	-0.543
787	-0.541
788	-0.544
788	-0.551
788	-0.561
789	-0.561
789	-0.54
790	-0.519
790	-0.519
791	-0.52
791	-0.534
791	-0.542
792	-0.536
792	-0.512
793	-0.499
793	-0.478
794	-0.485
794	-0.481
794	-0.49
795	-0.488
795	-0.482
796	-0.471
796	-0.48
797	-0.474
797	-0.485
797	-0.495
798	-0.503
798	-0.494
799	-0.502
799	-0.49
800	-0.494
800	-0.485
801	-0.492
801	-0.479
801	-0.489
802	-0.495
802	-0.494
803	-0.498
803	-0.511
804	-0.507
804	-0.518
804	-0.51
805	-0.519
805	-0.504
806	-0.507
806	-0.494
807	-0.496
807	-0.477
807	-0.464
808	-0.456
808	-0.449
809	-0.439
809	-0.447
810	-0.445
810	-0.443
810	-0.438
811	-0.443
811	-0.436
812	-0.438
812	-0.443
813	-0.442
813	-0.438
813	-0.439
814	-0.44
814	-0.443
815	-0.444
815	-0.446
816	-0.441
816	-0.446
817	-0.453
817	-0.467
817	-0.482
818	-0.49
818	-0.492
819	-0.479
819	-0.475
820	-0.485
820	-0.483
820	-0.492
821	-0.489
821	-0.48
822	-0.453
822	-0.429
823	-0.426
823	-0.429
823	-0.43
824	-0.429
824	-0.432
825	-0.43
825	-0.409
826	-0.404
826	-0.407
826	-0.417
827	-0.416
827	-0.416
828	-0.398
828	-0.398
829	-0.391
829	-0.374
829	-0.365
830	-0.377
830	-0.371
831	-0.366
831	-0.358
832	-0.356
832	-0.347
832	-0.356
833	-0.352
833	-0.35
834	-0.348
834	-0.353
835	-0.342
835	-0.343
835	-0.339
836	-0.334
836	-0.331
837	-0.332
837	-0.324
838	-0.316
838	-0.307
839	-0.301
839	-0.293
839	-0.285
840	-0.275
840	-0.273
841	-0.266
841	-0.261
842	-0.257
842	-0.25
842	-0.245
843	-0.242
843	-0.237
844	-0.23
844	-0.227
845	-0.221
845	-0.213
845	-0.201
846	-0.192
846	-0.181
847	-0.171
847	-0.162
848	-0.154
848	-0.146
848	-0.135
849	-0.126
849	-0.119
850	-0.109
850	-0.105
851	-0.101
851	-0.095
851	-0.09
852	-0.08
852	-0.072
853	-0.067
853	-0.063
854	-0.056
854	-0.048
854	-0.041
855	-0.033
855	-0.029
856	-0.022
856	-0.018
857	-0.013
857	-0.007
857	-0
858	0.007
858	0.011
859	0.015
859	0.02
860	0.024
860	0.032
860	0.036
861	0.041
861	0.045
862	0.048
862	0.051
863	0.054
863	0.058
863	0.06
864	0.062
864	0.066
865	0.068
865	0.071
866	0.073
866	0.075
866	0.077
867	0.079
867	0.081
868	0.082
868	0.084
869	0.086
869	0.087
869	0.087
870	0.088
870	0.089
871	0.091
871	0.091
872	0.091
872	0.092
872	0.092
873	0.092
873	0.091
874	0.091
874	0.091
875	0.091
875	0.09
875	0.09
876	0.089
876	0.088
877	0.088
877	0.087
878	0.087
878	0.086
878	0.085
879	0.084
879	0.083
880	0.083
880	0.083
881	0.083
881	0.082
881	0.082
882	0.081
882	0.08
883	0.079
883	0.078
884	0.077
884	0.076
884	0.076
885	0.075
885	0.074
886	0.074
886	0.073
887	0.073
887	0.073
887	0.073
888	0.074
888	0.075
889	0.076
889	0.076
890	0.077
890	0.078
890	0.079
891	0.079
891	0.08
892	0.08
892	0.08
893	0.08
893	0.08
893	0.079
894	0.079
894	0.079
895	0.078
895	0.077
895	0.076
896	0.075
896	0.074
897	0.074
897	0.073
898	0.072
898	0.071
898	0.071
899	0.071
899	0.071
900	0.071
900	0.071
901	0.072
901	0.072
901	0.072
902	0.072
902	0.072
903	0.071
903	0.071
904	0.071
904	0.071
904	0.071
905	0.071
905	0.071
906	0.071
906	0.071
907	0.07
907	0.069
907	0.069
908	0.068
908	0.067
909	0.067
909	0.066
910	0.065
910	0.064
910	0.063
911	0.063
911	0.063
912	0.063
912	0.064
913	0.064
913	0.065
913	0.065
914	0.066
914	0.067
915	0.067
915	0.068
916	0.069
916	0.07
916	0.07
917	0.071
917	0.071
918	0.071
918	0.071
918	0.071
919	0.071
919	0.071
920	0.071
920	0.072
921	0.072
921	0.073
921	0.073
922	0.073
922	0.073
923	0.074
923	0.074
924	0.075
924	0.075
924	0.075
925	0.074
925	0.074
926	0.073
926	0.072
927	0.072
927	0.071
927	0.071
928	0.07
928	0.069
929	0.068
929	0.068
930	0.067
930	0.067
930	0.067
931	0.067
931	0.067
932	0.067
932	0.067
933	0.067
933	0.067
933	0.066
934	0.065
934	0.065
935	0.064
935	0.064
935	0.063
936	0.062
936	0.061
937	0.06
937	0.06
938	0.06
938	0.06
938	0.06
939	0.061
939	0.06
940	0.06
940	0.06
941	0.061
941	0.061
941	0.061
942	0.061
942	0.06
943	0.06
943	0.059
944	0.059
944	0.058
944	0.058
945	0.057
945	0.057
946	0.056
946	0.055
946	0.055
947	0.056
947	0.056
948	0.056
948	0.057
949	0.057
949	0.057
949	0.057
950	0.058
950	0.058
951	0.059
951	0.06
952	0.06
952	0.061
952	0.062
953	0.062
953	0.063
954	0.063
954	0.064
955	0.064
955	0.065
955	0.066
956	0.066
956	0.067
957	0.067
957	0.067
957	0.067
958	0.067
958	0.068
959	0.068
959	0.069
960	0.069
960	0.069
960	0.069
961	0.068
961	0.068
962	0.067
962	0.067
963	0.067
963	0.066
963	0.065
964	0.065
964	0.065
965	0.064
965	0.064
966	0.064
966	0.063
966	0.063
967	0.063
967	0.062
968	0.062
968	0.062
968	0.061
969	0.061
969	0.061
970	0.06
970	0.06
971	0.06
971	0.061
971	0.061
972	0.06
972	0.06
973	0.06
973	0.059
974	0.058
974	0.058
974	0.058
975	0.057
975	0.056
976	0.055
976	0.054
976	0.054
977	0.053
977	0.053
978	0.053
978	0.053
979	0.053
979	0.052
979	0.053
980	0.053
980	0.053
981	0.054
981	0.054
982	0.054
982	0.054
982	0.054
983	0.054
983	0.053
984	0.053
984	0.053
984	0.053
985	0.053
985	0.053
986	0.053
986	0.053
987	0.054
987	0.054
987	0.055
988	0.055
988	0.055
989	0.055
989	0.055
990	0.055
990	0.055
990	0.055
991	0.054
991	0.054
992	0.053
992	0.053
992	0.053
993	0.052
993	0.052
994	0.052
994	0.052
995	0.052
995	0.051
995	0.051
996	0.051
996	0.051
997	0.051
997	0.051
997	0.051
998	0.051
998	0.051
999	0.052
999	0.052
1000	0.052
1000	0.052
1000	0.051
1001	0.051
1001	0.051
1002	0.051
1002	0.051
1003	0.051
1003	0.05
1003	0.05
1004	0.049
1004	0.048
1005	0.048
1005	0.047
1005	0.046
1006	0.045
1006	0.044
1007	0.043
1007	0.042
1008	0.042
1008	0.041
1008	0.041
1009	0.041
1009	0.041
1010	0.042
1010	0.042
1010	0.042
1011	0.042
1011	0.041
1012	0.04
1012	0.039
1013	0.038
1013	0.037
1013	0.036
1014	0.035
1014	0.034
1015	0.033
1015	0.032
1016	0.031
1016	0.031
1016	0.031
1017	0.03
1017	0.03
1018	0.029
1018	0.029
1018	0.029
1019	0.028
1019	0.027
1020	0.026
1020	0.026
1021	0.025
1021	0.023
1021	0.022
1022	0.021
1022	0.02
1023	0.02
1023	0.019
1023	0.019
1024	0.018
1024	0.018
1025	0.018
1025	0.018
1026	0.019
1026	0.02
1026	0.02
1027	0.02
1027	0.021
1028	0.021
1028	0.021
1028	0.021
1029	0.021
1029	0.021
1030	0.021
1030	0.021
1031	0.02
1031	0.02
1031	0.02
1032	0.021
1032	0.021
1033	0.021
1033	0.022
1033	0.022
1034	0.023
1034	0.023
1035	0.024
1035	0.024
1036	0.024
1036	0.024
1036	0.024
1037	0.024
1037	0.024
1038	0.023
1038	0.023
1039	0.023
1039	0.023
1039	0.023
1040	0.023
1040	0.024
1041	0.024
1041	0.024
1041	0.025
1042	0.025
1042	0.025
1043	0.026
1043	0.026
1044	0.026
1044	0.026
1044	0.026
1045	0.025
1045	0.025
1046	0.025
1046	0.025
1046	0.025
1047	0.026
1047	0.026
1048	0.027
1048	0.027
1049	0.028
1049	0.028
1049	0.028
1050	0.028
1050	0.029
1051	0.029
1051	0.029
1051	0.029
1052	0.03
1052	0.03
1053	0.03
1053	0.03
1053	0.03
1054	0.029
1054	0.029
1055	0.029
1055	0.028
1056	0.027
1056	0.026
1056	0.025
1057	0.024
1057	0.023
1058	0.022
1058	0.022
1058	0.021
1059	0.021
1059	0.02
1060	0.02
1060	0.02
1061	0.02
1061	0.02
1061	0.02
1062	0.02
1062	0.02
1063	0.02
1063	0.02
1063	0.021
1064	0.021
1064	0.021
1065	0.02
1065	0.02
1066	0.019
1066	0.019
1066	0.019
1067	0.018
1067	0.018
1068	0.017
1068	0.017
1068	0.016
1069	0.016
1069	0.016
1070	0.015
1070	0.015
1071	0.015
1071	0.015
1071	0.015
1072	0.015
1072	0.015
1073	0.015
1073	0.015
1073	0.014
1074	0.015
1074	0.015
1075	0.014
1075	0.014
1076	0.014
1076	0.013
1076	0.013
1077	0.013
1077	0.013
1078	0.012
1078	0.011
1078	0.011
1079	0.011
1079	0.01
1080	0.009
1080	0.009
1080	0.008
1081	0.007
1081	0.006
1082	0.006
1082	0.005
1083	0.005
1083	0.004
1083	0.003
1084	0.003
1084	0.002
1085	0.001
1085	0.001
1085	0.001
1086	0.001
1086	0.001
1087	0.001
1087	0.001
1088	0.001
1088	0
1088	0
1089	-0
1089	0
1090	-0
1090	-0
1090	-0.001
1091	-0.001
1091	-0.001
1092	-0.002
1092	-0.001
1092	-0.002
1093	-0.002
1093	-0.001
1094	-0.001
1094	-0.001
1095	-0.002
1095	-0.001
1095	-0.002
1096	-0.002
1096	-0.002
1097	-0.003
1097	-0.003
1097	-0.003
1098	-0.004
1098	-0.004
1099	-0.005
1099	-0.005
1100	-0.006
1100	-0.007
1100	-0.008
1101	-0.009
1101	-0.01
1102	-0.011
1102	-0.012
1102	-0.011
1103	-0.012
1103	-0.013
1104	-0.014
1104	-0.015
1104	-0.016
1105	-0.016
1105	-0.018
1106	-0.021
1106	-0.022
1107	-0.026
1107	-0.029
1107	-0.031
1108	-0.033
1108	-0.034
1109	-0.036
1109	-0.039
1109	-0.042
1110	-0.041
1110	-0.04
1111	-0.046
1111	-0.039
