Data from 17C_3.4A_30min_2sec_int_Absorbance__130__00130.txt Node

Date: Mon Jun 19 16:10:13 CEST 2023
User: Marek
Spectrometer: MAYP115816
Trigger mode: 0
Integration Time (sec): 2.500000E-1
Scans to average: 10
Electric dark correction enabled: true
Nonlinearity correction enabled: true
Boxcar width: 5
XAxis mode: Wavelengths
Number of Pixels in Spectrum: 2068
>>>>>Begin Spectral Data<<<<<
199	-0.337
199	-0.327
200	-0.252
200	-0.206
201	-0.179
201	-0.171
202	-0.154
202	-0.147
203	-0.143
203	-0.139
204	-0.133
204	-0.118
205	-0.105
205	-0.099
205	-0.097
206	-0.102
206	-0.105
207	-0.099
207	-0.097
208	-0.098
208	-0.1
209	-0.093
209	-0.1
210	-0.103
210	-0.109
211	-0.114
211	-0.111
212	-0.111
212	-0.115
213	-0.117
213	-0.116
213	-0.116
214	-0.114
214	-0.108
215	-0.107
215	-0.111
216	-0.113
216	-0.12
217	-0.113
217	-0.12
218	-0.119
218	-0.123
219	-0.124
219	-0.133
220	-0.134
220	-0.137
221	-0.134
221	-0.133
221	-0.126
222	-0.124
222	-0.12
223	-0.123
223	-0.119
224	-0.12
224	-0.121
225	-0.118
225	-0.119
226	-0.122
226	-0.122
227	-0.128
227	-0.138
228	-0.14
228	-0.137
229	-0.143
229	-0.143
229	-0.137
230	-0.143
230	-0.148
231	-0.146
231	-0.141
232	-0.134
232	-0.133
233	-0.131
233	-0.133
234	-0.128
234	-0.12
235	-0.127
235	-0.127
236	-0.125
236	-0.129
236	-0.132
237	-0.14
237	-0.142
238	-0.144
238	-0.143
239	-0.145
239	-0.154
240	-0.147
240	-0.149
241	-0.15
241	-0.144
242	-0.149
242	-0.144
243	-0.138
243	-0.143
243	-0.146
244	-0.143
244	-0.142
245	-0.147
245	-0.141
246	-0.145
246	-0.153
247	-0.15
247	-0.153
248	-0.159
248	-0.152
249	-0.155
249	-0.161
250	-0.157
250	-0.159
250	-0.162
251	-0.153
251	-0.153
252	-0.158
252	-0.148
253	-0.148
253	-0.157
254	-0.156
254	-0.16
255	-0.168
255	-0.164
256	-0.157
256	-0.17
257	-0.167
257	-0.158
258	-0.174
258	-0.167
258	-0.166
259	-0.161
259	-0.166
260	-0.165
260	-0.17
261	-0.184
261	-0.175
262	-0.168
262	-0.175
263	-0.164
263	-0.165
264	-0.165
264	-0.178
265	-0.171
265	-0.178
265	-0.179
266	-0.173
266	-0.17
267	-0.183
267	-0.187
268	-0.202
268	-0.21
269	-0.205
269	-0.194
270	-0.194
270	-0.195
271	-0.194
271	-0.198
272	-0.199
272	-0.193
272	-0.187
273	-0.18
273	-0.184
274	-0.191
274	-0.19
275	-0.192
275	-0.183
276	-0.188
276	-0.182
277	-0.188
277	-0.201
278	-0.206
278	-0.203
278	-0.199
279	-0.196
279	-0.205
280	-0.202
280	-0.201
281	-0.196
281	-0.201
282	-0.194
282	-0.194
283	-0.187
283	-0.19
284	-0.18
284	-0.175
285	-0.175
285	-0.176
285	-0.178
286	-0.182
286	-0.179
287	-0.178
287	-0.164
288	-0.163
288	-0.163
289	-0.176
289	-0.178
290	-0.169
290	-0.166
291	-0.157
291	-0.153
292	-0.155
292	-0.155
292	-0.157
293	-0.157
293	-0.147
294	-0.14
294	-0.136
295	-0.136
295	-0.132
296	-0.13
296	-0.126
297	-0.118
297	-0.108
298	-0.104
298	-0.109
298	-0.109
299	-0.102
299	-0.104
300	-0.097
300	-0.092
301	-0.09
301	-0.089
302	-0.102
302	-0.106
303	-0.099
303	-0.084
304	-0.081
304	-0.083
305	-0.088
305	-0.088
305	-0.086
306	-0.079
306	-0.078
307	-0.063
307	-0.069
308	-0.079
308	-0.076
309	-0.08
309	-0.07
310	-0.054
310	-0.054
311	-0.059
311	-0.064
311	-0.063
312	-0.06
312	-0.057
313	-0.048
313	-0.054
314	-0.052
314	-0.056
315	-0.065
315	-0.064
316	-0.052
316	-0.047
317	-0.043
317	-0.043
318	-0.036
318	-0.034
318	-0.031
319	-0.025
319	-0.021
320	-0.012
320	-0.013
321	-0.024
321	-0.018
322	-0.009
322	-0.006
323	-0.005
323	-0.003
324	0.005
324	0.013
324	0.019
325	0.025
325	0.038
326	0.05
326	0.055
327	0.064
327	0.081
328	0.097
328	0.11
329	0.124
329	0.137
330	0.155
330	0.175
330	0.19
331	0.205
331	0.222
332	0.235
332	0.246
333	0.257
333	0.267
334	0.276
334	0.285
335	0.291
335	0.298
336	0.303
336	0.308
336	0.312
337	0.316
337	0.319
338	0.322
338	0.324
339	0.327
339	0.328
340	0.33
340	0.331
341	0.333
341	0.333
342	0.334
342	0.334
342	0.335
343	0.336
343	0.337
344	0.337
344	0.337
345	0.338
345	0.337
346	0.338
346	0.338
347	0.338
347	0.339
348	0.338
348	0.339
348	0.338
349	0.338
349	0.338
350	0.338
350	0.338
351	0.337
351	0.338
352	0.337
352	0.337
353	0.336
353	0.336
354	0.336
354	0.336
354	0.335
355	0.335
355	0.335
356	0.335
356	0.335
357	0.335
357	0.334
358	0.334
358	0.334
359	0.334
359	0.333
360	0.333
360	0.332
360	0.332
361	0.331
361	0.331
362	0.331
362	0.33
363	0.33
363	0.33
364	0.33
364	0.33
365	0.329
365	0.329
366	0.329
366	0.329
366	0.329
367	0.329
367	0.328
368	0.328
368	0.328
369	0.327
369	0.327
370	0.327
370	0.326
371	0.326
371	0.326
372	0.326
372	0.325
372	0.325
373	0.325
373	0.325
374	0.324
374	0.324
375	0.324
375	0.324
376	0.323
376	0.323
377	0.323
377	0.323
378	0.323
378	0.322
378	0.322
379	0.322
379	0.322
380	0.321
380	0.321
381	0.32
381	0.32
382	0.319
382	0.319
383	0.319
383	0.318
383	0.318
384	0.318
384	0.318
385	0.317
385	0.317
386	0.317
386	0.317
387	0.317
387	0.316
388	0.316
388	0.316
389	0.316
389	0.315
389	0.315
390	0.315
390	0.315
391	0.314
391	0.314
392	0.314
392	0.314
393	0.313
393	0.313
394	0.313
394	0.312
394	0.312
395	0.312
395	0.311
396	0.311
396	0.311
397	0.31
397	0.31
398	0.31
398	0.31
399	0.31
399	0.309
400	0.309
400	0.309
400	0.308
401	0.308
401	0.308
402	0.307
402	0.307
403	0.306
403	0.306
404	0.306
404	0.305
405	0.305
405	0.305
405	0.305
406	0.304
406	0.304
407	0.303
407	0.303
408	0.303
408	0.303
409	0.303
409	0.303
410	0.302
410	0.302
411	0.302
411	0.302
411	0.302
412	0.302
412	0.302
413	0.301
413	0.301
414	0.301
414	0.301
415	0.3
415	0.3
416	0.3
416	0.3
416	0.299
417	0.299
417	0.299
418	0.299
418	0.299
419	0.298
419	0.298
420	0.298
420	0.298
421	0.298
421	0.298
421	0.298
422	0.298
422	0.298
423	0.297
423	0.297
424	0.297
424	0.297
425	0.297
425	0.296
426	0.296
426	0.296
427	0.296
427	0.296
427	0.295
428	0.295
428	0.295
429	0.295
429	0.295
430	0.295
430	0.295
431	0.295
431	0.294
432	0.294
432	0.294
432	0.294
433	0.294
433	0.294
434	0.293
434	0.293
435	0.293
435	0.293
436	0.293
436	0.293
437	0.293
437	0.293
437	0.293
438	0.293
438	0.293
439	0.293
439	0.292
440	0.292
440	0.292
441	0.292
441	0.291
442	0.291
442	0.291
442	0.291
443	0.291
443	0.291
444	0.291
444	0.291
445	0.29
445	0.291
446	0.291
446	0.291
447	0.291
447	0.291
447	0.291
448	0.291
448	0.291
449	0.291
449	0.291
450	0.292
450	0.292
451	0.292
451	0.292
452	0.292
452	0.292
452	0.292
453	0.292
453	0.292
454	0.292
454	0.291
455	0.291
455	0.291
456	0.291
456	0.292
457	0.292
457	0.291
458	0.292
458	0.292
458	0.292
459	0.292
459	0.292
460	0.292
460	0.292
461	0.293
461	0.293
462	0.293
462	0.293
463	0.294
463	0.294
463	0.294
464	0.295
464	0.295
465	0.295
465	0.296
466	0.296
466	0.297
467	0.297
467	0.297
467	0.298
468	0.298
468	0.299
469	0.299
469	0.3
470	0.301
470	0.301
471	0.301
471	0.302
472	0.302
472	0.302
472	0.303
473	0.303
473	0.304
474	0.304
474	0.305
475	0.305
475	0.306
476	0.307
476	0.307
477	0.308
477	0.308
477	0.309
478	0.31
478	0.311
479	0.312
479	0.312
480	0.313
480	0.314
481	0.315
481	0.316
482	0.317
482	0.318
482	0.319
483	0.32
483	0.32
484	0.321
484	0.322
485	0.323
485	0.323
486	0.324
486	0.326
487	0.327
487	0.328
487	0.329
488	0.331
488	0.332
489	0.334
489	0.336
490	0.338
490	0.34
491	0.342
491	0.343
492	0.345
492	0.347
492	0.349
493	0.35
493	0.352
494	0.354
494	0.356
495	0.358
495	0.36
496	0.362
496	0.363
496	0.366
497	0.368
497	0.37
498	0.372
498	0.375
499	0.377
499	0.379
500	0.382
500	0.384
501	0.387
501	0.389
501	0.391
502	0.393
502	0.396
503	0.398
503	0.4
504	0.402
504	0.405
505	0.408
505	0.41
506	0.413
506	0.416
506	0.418
507	0.421
507	0.424
508	0.426
508	0.429
509	0.432
509	0.434
510	0.437
510	0.439
511	0.441
511	0.443
511	0.446
512	0.448
512	0.45
513	0.453
513	0.455
514	0.457
514	0.46
515	0.462
515	0.464
515	0.467
516	0.469
516	0.471
517	0.473
517	0.475
518	0.477
518	0.479
519	0.481
519	0.483
520	0.485
520	0.487
520	0.489
521	0.491
521	0.493
522	0.495
522	0.496
523	0.498
523	0.499
524	0.5
524	0.501
524	0.503
525	0.503
525	0.504
526	0.505
526	0.506
527	0.507
527	0.507
528	0.508
528	0.509
529	0.51
529	0.51
529	0.511
530	0.511
530	0.511
531	0.511
531	0.511
532	0.511
532	0.511
533	0.511
533	0.51
533	0.51
534	0.509
534	0.509
535	0.508
535	0.508
536	0.507
536	0.506
537	0.505
537	0.504
538	0.504
538	0.502
538	0.501
539	0.5
539	0.499
540	0.498
540	0.497
541	0.495
541	0.494
542	0.492
542	0.49
542	0.488
543	0.487
543	0.485
544	0.483
544	0.481
545	0.479
545	0.478
546	0.476
546	0.474
547	0.473
547	0.471
547	0.47
548	0.468
548	0.467
549	0.465
549	0.463
550	0.461
550	0.459
551	0.457
551	0.455
551	0.453
552	0.451
552	0.449
553	0.447
553	0.445
554	0.443
554	0.441
555	0.44
555	0.438
556	0.436
556	0.434
556	0.432
557	0.43
557	0.428
558	0.426
558	0.424
559	0.422
559	0.42
560	0.418
560	0.416
560	0.414
561	0.412
561	0.41
562	0.408
562	0.406
563	0.404
563	0.402
564	0.4
564	0.398
564	0.396
565	0.394
565	0.392
566	0.39
566	0.387
567	0.385
567	0.383
568	0.38
568	0.377
568	0.375
569	0.373
569	0.371
570	0.369
570	0.366
571	0.365
571	0.363
572	0.361
572	0.359
573	0.357
573	0.356
573	0.354
574	0.353
574	0.351
575	0.349
575	0.347
576	0.346
576	0.344
577	0.343
577	0.342
577	0.34
578	0.339
578	0.338
579	0.336
579	0.335
580	0.333
580	0.331
581	0.33
581	0.329
581	0.327
582	0.326
582	0.324
583	0.323
583	0.321
584	0.319
584	0.318
585	0.317
585	0.315
585	0.314
586	0.312
586	0.311
587	0.31
587	0.31
588	0.309
588	0.308
589	0.307
589	0.306
590	0.304
590	0.303
590	0.302
591	0.3
591	0.299
592	0.297
592	0.296
593	0.295
593	0.294
594	0.292
594	0.291
594	0.29
595	0.289
595	0.288
596	0.287
596	0.286
597	0.285
597	0.283
598	0.282
598	0.281
598	0.28
599	0.279
599	0.278
600	0.277
600	0.275
601	0.274
601	0.273
602	0.272
602	0.271
602	0.27
603	0.269
603	0.268
604	0.267
604	0.266
605	0.265
605	0.264
606	0.263
606	0.262
606	0.261
607	0.26
607	0.258
608	0.257
608	0.256
609	0.255
609	0.254
610	0.253
610	0.252
610	0.251
611	0.25
611	0.25
612	0.249
612	0.249
613	0.248
613	0.247
614	0.245
614	0.244
614	0.243
615	0.242
615	0.241
616	0.24
616	0.238
617	0.237
617	0.236
618	0.234
618	0.233
618	0.232
619	0.231
619	0.23
620	0.229
620	0.227
621	0.226
621	0.225
622	0.224
622	0.223
622	0.222
623	0.221
623	0.22
624	0.219
624	0.218
625	0.217
625	0.216
626	0.215
626	0.214
626	0.213
627	0.212
627	0.211
628	0.21
628	0.208
629	0.206
629	0.205
630	0.203
630	0.201
630	0.199
631	0.197
631	0.194
632	0.192
632	0.189
633	0.186
633	0.184
634	0.181
634	0.178
634	0.175
635	0.171
635	0.168
636	0.164
636	0.16
637	0.156
637	0.152
638	0.148
638	0.143
638	0.139
639	0.135
639	0.13
640	0.125
640	0.12
641	0.116
641	0.112
642	0.107
642	0.102
642	0.098
643	0.093
643	0.088
644	0.083
644	0.077
645	0.072
645	0.066
646	0.061
646	0.055
646	0.049
647	0.043
647	0.037
648	0.032
648	0.026
649	0.019
649	0.013
650	0.007
650	0.001
650	-0.004
651	-0.012
651	-0.021
652	-0.033
652	-0.045
653	-0.055
653	-0.064
653	-0.061
654	-0.043
654	-0.031
655	-0.032
655	-0.034
656	-0.038
656	-0.041
657	-0.043
657	-0.044
657	-0.048
658	-0.052
658	-0.072
659	-0.138
659	-0.222
660	-0.259
660	-0.283
661	-0.308
661	-0.337
661	-0.371
662	-0.407
662	-0.444
663	-0.488
663	-0.535
664	-0.586
664	-0.642
665	-0.701
665	-0.766
665	-0.828
666	-0.893
666	-0.961
667	-1.033
667	-1.104
668	-1.183
668	-1.263
669	-1.347
669	-1.434
669	-1.534
670	-1.668
670	-1.865
671	-2.037
671	-2.187
672	-2.357
672	-2.513
672	-2.621
673	-2.698
673	-2.731
674	-2.749
674	-2.761
675	-2.777
675	-2.885
676	-3.037
676	-2.973
676	-2.728
677	-2.49
677	-2.262
678	-1.92
678	-1.656
679	-1.517
679	-1.416
680	-1.332
680	-1.26
680	-1.197
681	-1.156
681	-1.098
682	-1.057
682	-1.017
683	-0.98
683	-0.959
684	-0.933
684	-0.908
684	-0.882
685	-0.852
685	-0.824
686	-0.793
686	-0.772
687	-0.739
687	-0.722
687	-0.698
688	-0.667
688	-0.641
689	-0.616
689	-0.599
690	-0.578
690	-0.559
691	-0.551
691	-0.55
691	-0.561
692	-0.549
692	-0.535
693	-0.528
693	-0.53
694	-0.525
694	-0.515
695	-0.512
695	-0.507
695	-0.487
696	-0.483
696	-0.461
697	-0.457
697	-0.468
698	-0.467
698	-0.453
698	-0.456
699	-0.457
699	-0.451
700	-0.441
700	-0.45
701	-0.447
701	-0.449
702	-0.446
702	-0.434
702	-0.422
703	-0.418
703	-0.413
704	-0.408
704	-0.407
705	-0.41
705	-0.405
705	-0.39
706	-0.39
706	-0.388
707	-0.388
707	-0.384
708	-0.379
708	-0.37
709	-0.368
709	-0.367
709	-0.363
710	-0.363
710	-0.373
711	-0.364
711	-0.359
712	-0.362
712	-0.372
713	-0.369
713	-0.374
713	-0.363
714	-0.361
714	-0.362
715	-0.356
715	-0.341
716	-0.346
716	-0.347
716	-0.338
717	-0.338
717	-0.346
718	-0.339
718	-0.342
719	-0.343
719	-0.343
720	-0.339
720	-0.346
720	-0.342
721	-0.332
721	-0.329
722	-0.313
722	-0.298
723	-0.292
723	-0.296
723	-0.286
724	-0.283
724	-0.287
725	-0.286
725	-0.29
726	-0.302
726	-0.305
727	-0.314
727	-0.325
727	-0.334
728	-0.332
728	-0.336
729	-0.338
729	-0.339
730	-0.344
730	-0.34
730	-0.333
731	-0.322
731	-0.329
732	-0.336
732	-0.335
733	-0.33
733	-0.334
734	-0.325
734	-0.326
734	-0.317
735	-0.315
735	-0.309
736	-0.319
736	-0.309
737	-0.301
737	-0.3
737	-0.312
738	-0.305
738	-0.31
739	-0.302
739	-0.311
740	-0.31
740	-0.31
741	-0.305
741	-0.303
741	-0.304
742	-0.304
742	-0.308
743	-0.316
743	-0.319
744	-0.321
744	-0.311
744	-0.315
745	-0.324
745	-0.316
746	-0.315
746	-0.306
747	-0.309
747	-0.293
748	-0.284
748	-0.284
748	-0.282
749	-0.282
749	-0.281
750	-0.264
750	-0.268
751	-0.268
751	-0.278
751	-0.277
752	-0.283
752	-0.29
753	-0.29
753	-0.289
754	-0.295
754	-0.288
754	-0.303
755	-0.316
755	-0.33
756	-0.324
756	-0.319
757	-0.314
757	-0.315
758	-0.312
758	-0.306
758	-0.305
759	-0.312
759	-0.297
760	-0.29
760	-0.286
761	-0.298
761	-0.297
761	-0.3
762	-0.303
762	-0.303
763	-0.313
763	-0.31
764	-0.309
764	-0.32
764	-0.323
765	-0.311
765	-0.293
766	-0.303
766	-0.311
767	-0.321
767	-0.318
768	-0.312
768	-0.321
768	-0.325
769	-0.336
769	-0.337
770	-0.338
770	-0.352
771	-0.34
771	-0.34
771	-0.337
772	-0.333
772	-0.332
773	-0.33
773	-0.323
774	-0.325
774	-0.326
775	-0.333
775	-0.325
775	-0.336
776	-0.338
776	-0.334
777	-0.345
777	-0.366
778	-0.367
778	-0.384
778	-0.371
779	-0.392
779	-0.398
780	-0.409
780	-0.408
781	-0.413
781	-0.415
781	-0.43
782	-0.43
782	-0.432
783	-0.428
783	-0.425
784	-0.409
784	-0.403
784	-0.417
785	-0.428
785	-0.415
786	-0.418
786	-0.394
787	-0.373
787	-0.367
788	-0.364
788	-0.376
788	-0.382
789	-0.375
789	-0.354
790	-0.334
790	-0.331
791	-0.323
791	-0.335
791	-0.341
792	-0.346
792	-0.326
793	-0.314
793	-0.294
794	-0.299
794	-0.297
794	-0.307
795	-0.309
795	-0.308
796	-0.299
796	-0.307
797	-0.291
797	-0.294
797	-0.303
798	-0.315
798	-0.309
799	-0.314
799	-0.303
800	-0.306
800	-0.303
801	-0.306
801	-0.297
801	-0.311
802	-0.327
802	-0.328
803	-0.332
803	-0.346
804	-0.344
804	-0.353
804	-0.344
805	-0.346
805	-0.339
806	-0.342
806	-0.328
807	-0.323
807	-0.302
807	-0.291
808	-0.28
808	-0.271
809	-0.258
809	-0.266
810	-0.264
810	-0.259
810	-0.258
811	-0.266
811	-0.258
812	-0.262
812	-0.26
813	-0.262
813	-0.257
813	-0.265
814	-0.265
814	-0.267
815	-0.271
815	-0.273
816	-0.266
816	-0.269
817	-0.276
817	-0.292
817	-0.299
818	-0.308
818	-0.304
819	-0.298
819	-0.298
820	-0.306
820	-0.301
820	-0.308
821	-0.305
821	-0.295
822	-0.268
822	-0.254
823	-0.253
823	-0.257
823	-0.253
824	-0.248
824	-0.247
825	-0.245
825	-0.23
826	-0.225
826	-0.229
826	-0.244
827	-0.243
827	-0.242
828	-0.224
828	-0.227
829	-0.226
829	-0.219
829	-0.21
830	-0.218
830	-0.217
831	-0.218
831	-0.208
832	-0.212
832	-0.207
832	-0.222
833	-0.214
833	-0.21
834	-0.209
834	-0.217
835	-0.208
835	-0.21
835	-0.206
836	-0.2
836	-0.195
837	-0.191
837	-0.182
838	-0.179
838	-0.178
839	-0.169
839	-0.165
839	-0.16
840	-0.149
840	-0.147
841	-0.14
841	-0.135
842	-0.134
842	-0.132
842	-0.133
843	-0.129
843	-0.126
844	-0.121
844	-0.12
845	-0.12
845	-0.115
845	-0.11
846	-0.103
846	-0.094
847	-0.087
847	-0.08
848	-0.076
848	-0.075
848	-0.065
849	-0.065
849	-0.061
850	-0.056
850	-0.056
851	-0.055
851	-0.054
851	-0.052
852	-0.046
852	-0.041
853	-0.035
853	-0.034
854	-0.028
854	-0.021
854	-0.016
855	-0.01
855	-0.009
856	-0.002
856	0.002
857	0.004
857	0.008
857	0.013
858	0.016
858	0.017
859	0.019
859	0.022
860	0.023
860	0.027
860	0.028
861	0.031
861	0.033
862	0.034
862	0.035
863	0.036
863	0.038
863	0.039
864	0.04
864	0.04
865	0.042
865	0.043
866	0.044
866	0.044
866	0.045
867	0.046
867	0.047
868	0.048
868	0.049
869	0.049
869	0.05
869	0.05
870	0.051
870	0.051
871	0.052
871	0.053
872	0.053
872	0.053
872	0.053
873	0.054
873	0.054
874	0.054
874	0.054
875	0.054
875	0.054
875	0.054
876	0.053
876	0.053
877	0.053
877	0.053
878	0.052
878	0.052
878	0.051
879	0.05
879	0.05
880	0.049
880	0.049
881	0.049
881	0.049
881	0.049
882	0.048
882	0.048
883	0.047
883	0.047
884	0.047
884	0.046
884	0.045
885	0.045
885	0.044
886	0.044
886	0.044
887	0.044
887	0.044
887	0.044
888	0.045
888	0.045
889	0.046
889	0.047
890	0.048
890	0.049
890	0.049
891	0.049
891	0.05
892	0.05
892	0.05
893	0.05
893	0.049
893	0.049
894	0.048
894	0.048
895	0.047
895	0.046
895	0.045
896	0.044
896	0.043
897	0.042
897	0.041
898	0.04
898	0.039
898	0.038
899	0.038
899	0.038
900	0.038
900	0.038
901	0.038
901	0.038
901	0.038
902	0.038
902	0.038
903	0.038
903	0.038
904	0.038
904	0.039
904	0.039
905	0.039
905	0.04
906	0.039
906	0.039
907	0.039
907	0.038
907	0.037
908	0.037
908	0.036
909	0.035
909	0.034
910	0.033
910	0.032
910	0.031
911	0.031
911	0.031
912	0.032
912	0.032
913	0.032
913	0.033
913	0.033
914	0.034
914	0.035
915	0.036
915	0.037
916	0.037
916	0.037
916	0.038
917	0.038
917	0.038
918	0.038
918	0.038
918	0.038
919	0.037
919	0.037
920	0.037
920	0.038
921	0.038
921	0.038
921	0.039
922	0.039
922	0.039
923	0.04
923	0.041
924	0.041
924	0.042
924	0.042
925	0.041
925	0.041
926	0.041
926	0.04
927	0.04
927	0.04
927	0.039
928	0.039
928	0.038
929	0.037
929	0.037
930	0.037
930	0.036
930	0.036
931	0.037
931	0.037
932	0.037
932	0.037
933	0.037
933	0.037
933	0.036
934	0.036
934	0.035
935	0.035
935	0.035
935	0.034
936	0.034
936	0.033
937	0.033
937	0.033
938	0.033
938	0.034
938	0.034
939	0.034
939	0.035
940	0.035
940	0.035
941	0.035
941	0.035
941	0.035
942	0.034
942	0.034
943	0.034
943	0.033
944	0.033
944	0.032
944	0.032
945	0.031
945	0.031
946	0.03
946	0.03
946	0.029
947	0.029
947	0.029
948	0.029
948	0.029
949	0.03
949	0.03
949	0.031
950	0.031
950	0.031
951	0.032
951	0.033
952	0.033
952	0.034
952	0.035
953	0.035
953	0.036
954	0.036
954	0.037
955	0.037
955	0.038
955	0.038
956	0.039
956	0.039
957	0.039
957	0.039
957	0.039
958	0.039
958	0.04
959	0.04
959	0.04
960	0.04
960	0.04
960	0.04
961	0.04
961	0.04
962	0.04
962	0.039
963	0.039
963	0.039
963	0.039
964	0.039
964	0.038
965	0.038
965	0.038
966	0.038
966	0.038
966	0.037
967	0.037
967	0.036
968	0.036
968	0.036
968	0.035
969	0.035
969	0.034
970	0.034
970	0.034
971	0.034
971	0.034
971	0.033
972	0.033
972	0.033
973	0.032
973	0.031
974	0.031
974	0.03
974	0.03
975	0.029
975	0.028
976	0.027
976	0.026
976	0.026
977	0.026
977	0.025
978	0.026
978	0.026
979	0.026
979	0.026
979	0.026
980	0.026
980	0.027
981	0.027
981	0.027
982	0.027
982	0.027
982	0.027
983	0.026
983	0.026
984	0.026
984	0.025
984	0.025
985	0.025
985	0.026
986	0.026
986	0.026
987	0.027
987	0.027
987	0.028
988	0.028
988	0.028
989	0.028
989	0.028
990	0.028
990	0.027
990	0.027
991	0.026
991	0.026
992	0.025
992	0.025
992	0.025
993	0.024
993	0.024
994	0.024
994	0.024
995	0.024
995	0.024
995	0.024
996	0.024
996	0.024
997	0.024
997	0.025
997	0.025
998	0.025
998	0.025
999	0.025
999	0.025
1000	0.026
1000	0.026
1000	0.025
1001	0.025
1001	0.025
1002	0.024
1002	0.024
1003	0.024
1003	0.023
1003	0.023
1004	0.022
1004	0.021
1005	0.021
1005	0.02
1005	0.019
1006	0.018
1006	0.018
1007	0.017
1007	0.017
1008	0.017
1008	0.017
1008	0.016
1009	0.016
1009	0.016
1010	0.017
1010	0.016
1010	0.016
1011	0.016
1011	0.015
1012	0.014
1012	0.014
1013	0.012
1013	0.011
1013	0.01
1014	0.009
1014	0.008
1015	0.007
1015	0.007
1016	0.006
1016	0.005
1016	0.005
1017	0.004
1017	0.004
1018	0.004
1018	0.003
1018	0.003
1019	0.003
1019	0.002
1020	0.001
1020	0
1021	-0
1021	-0.002
1021	-0.003
1022	-0.004
1022	-0.005
1023	-0.005
1023	-0.005
1023	-0.006
1024	-0.006
1024	-0.006
1025	-0.006
1025	-0.006
1026	-0.005
1026	-0.004
1026	-0.004
1027	-0.003
1027	-0.002
1028	-0.002
1028	-0.002
1028	-0.001
1029	-0.001
1029	-0.001
1030	-0.001
1030	-0.001
1031	-0.001
1031	-0.001
1031	-0.001
1032	-0.001
1032	-0
1033	0
1033	0.001
1033	0.002
1034	0.002
1034	0.003
1035	0.004
1035	0.004
1036	0.004
1036	0.004
1036	0.004
1037	0.004
1037	0.004
1038	0.004
1038	0.003
1039	0.003
1039	0.003
1039	0.003
1040	0.004
1040	0.004
1041	0.005
1041	0.005
1041	0.005
1042	0.006
1042	0.006
1043	0.006
1043	0.007
1044	0.007
1044	0.007
1044	0.007
1045	0.007
1045	0.007
1046	0.007
1046	0.007
1046	0.007
1047	0.008
1047	0.008
1048	0.009
1048	0.009
1049	0.009
1049	0.01
1049	0.01
1050	0.01
1050	0.011
1051	0.011
1051	0.011
1051	0.011
1052	0.011
1052	0.011
1053	0.011
1053	0.011
1053	0.011
1054	0.01
1054	0.01
1055	0.009
1055	0.008
1056	0.007
1056	0.006
1056	0.005
1057	0.004
1057	0.004
1058	0.003
1058	0.003
1058	0.002
1059	0.002
1059	0.001
1060	0.001
1060	0.001
1061	0.001
1061	0.001
1061	0.001
1062	0.001
1062	0.001
1063	0.001
1063	0.001
1063	0.001
1064	0.002
1064	0.002
1065	0.001
1065	0.001
1066	0
1066	0
1066	-0
1067	0
1067	-0
1068	-0.001
1068	-0.001
1068	-0.001
1069	-0.001
1069	-0.001
1070	-0.001
1070	-0.001
1071	-0.001
1071	-0.001
1071	-0.001
1072	-0.001
1072	-0.001
1073	-0.002
1073	-0.002
1073	-0.003
1074	-0.003
1074	-0.003
1075	-0.003
1075	-0.004
1076	-0.004
1076	-0.004
1076	-0.005
1077	-0.005
1077	-0.005
1078	-0.006
1078	-0.006
1078	-0.007
1079	-0.008
1079	-0.008
1080	-0.009
1080	-0.009
1080	-0.01
1081	-0.011
1081	-0.012
1082	-0.012
1082	-0.013
1083	-0.013
1083	-0.013
1083	-0.014
1084	-0.014
1084	-0.014
1085	-0.014
1085	-0.014
1085	-0.014
1086	-0.013
1086	-0.014
1087	-0.013
1087	-0.013
1088	-0.013
1088	-0.013
1088	-0.013
1089	-0.013
1089	-0.013
1090	-0.013
1090	-0.013
1090	-0.013
1091	-0.013
1091	-0.013
1092	-0.013
1092	-0.013
1092	-0.014
1093	-0.013
1093	-0.013
1094	-0.013
1094	-0.013
1095	-0.013
1095	-0.012
1095	-0.012
1096	-0.012
1096	-0.011
1097	-0.011
1097	-0.01
1097	-0.01
1098	-0.01
1098	-0.01
1099	-0.009
1099	-0.009
1100	-0.009
1100	-0.009
1100	-0.009
1101	-0.01
1101	-0.011
1102	-0.011
1102	-0.012
1102	-0.012
1103	-0.012
1103	-0.013
1104	-0.014
1104	-0.014
1104	-0.015
1105	-0.015
1105	-0.016
1106	-0.017
1106	-0.018
1107	-0.019
1107	-0.021
1107	-0.024
1108	-0.025
1108	-0.026
1109	-0.027
1109	-0.029
1109	-0.03
1110	-0.032
1110	-0.034
1111	-0.035
1111	-0.038
