Data from 17C_3.4A_30min_2sec_int_Absorbance__648__00648.txt Node

Date: Mon Jun 19 16:31:47 CEST 2023
User: Marek
Spectrometer: MAYP115816
Trigger mode: 0
Integration Time (sec): 2.500000E-1
Scans to average: 10
Electric dark correction enabled: true
Nonlinearity correction enabled: true
Boxcar width: 5
XAxis mode: Wavelengths
Number of Pixels in Spectrum: 2068
>>>>>Begin Spectral Data<<<<<
199	-0.578
199	-0.592
200	-0.497
200	-0.449
201	-0.416
201	-0.409
202	-0.396
202	-0.384
203	-0.375
203	-0.372
204	-0.36
204	-0.347
205	-0.326
205	-0.322
205	-0.319
206	-0.322
206	-0.32
207	-0.308
207	-0.31
208	-0.313
208	-0.308
209	-0.304
209	-0.305
210	-0.309
210	-0.314
211	-0.318
211	-0.32
212	-0.321
212	-0.329
213	-0.324
213	-0.327
213	-0.333
214	-0.33
214	-0.331
215	-0.332
215	-0.336
216	-0.34
216	-0.346
217	-0.343
217	-0.349
218	-0.352
218	-0.351
219	-0.353
219	-0.36
220	-0.362
220	-0.368
221	-0.366
221	-0.368
221	-0.362
222	-0.361
222	-0.36
223	-0.365
223	-0.37
224	-0.373
224	-0.376
225	-0.372
225	-0.369
226	-0.373
226	-0.375
227	-0.379
227	-0.387
228	-0.389
228	-0.389
229	-0.388
229	-0.383
229	-0.378
230	-0.382
230	-0.385
231	-0.38
231	-0.369
232	-0.362
232	-0.362
233	-0.352
233	-0.35
234	-0.351
234	-0.347
235	-0.35
235	-0.352
236	-0.35
236	-0.354
236	-0.362
237	-0.37
237	-0.369
238	-0.378
238	-0.379
239	-0.377
239	-0.387
240	-0.386
240	-0.384
241	-0.391
241	-0.388
242	-0.394
242	-0.39
243	-0.388
243	-0.39
243	-0.393
244	-0.394
244	-0.393
245	-0.407
245	-0.408
246	-0.41
246	-0.417
247	-0.415
247	-0.418
248	-0.422
248	-0.419
249	-0.425
249	-0.431
250	-0.427
250	-0.421
250	-0.423
251	-0.417
251	-0.417
252	-0.423
252	-0.415
253	-0.419
253	-0.427
254	-0.424
254	-0.421
255	-0.43
255	-0.422
256	-0.418
256	-0.433
257	-0.431
257	-0.427
258	-0.44
258	-0.438
258	-0.435
259	-0.433
259	-0.442
260	-0.441
260	-0.448
261	-0.459
261	-0.449
262	-0.444
262	-0.442
263	-0.433
263	-0.43
264	-0.429
264	-0.437
265	-0.432
265	-0.44
265	-0.44
266	-0.438
266	-0.436
267	-0.447
267	-0.456
268	-0.469
268	-0.477
269	-0.475
269	-0.47
270	-0.473
270	-0.475
271	-0.476
271	-0.48
272	-0.482
272	-0.477
272	-0.473
273	-0.469
273	-0.478
274	-0.483
274	-0.487
275	-0.488
275	-0.484
276	-0.493
276	-0.488
277	-0.492
277	-0.511
278	-0.517
278	-0.515
278	-0.508
279	-0.512
279	-0.521
280	-0.519
280	-0.519
281	-0.51
281	-0.516
282	-0.512
282	-0.514
283	-0.506
283	-0.507
284	-0.502
284	-0.49
285	-0.485
285	-0.482
285	-0.479
286	-0.483
286	-0.479
287	-0.474
287	-0.456
288	-0.448
288	-0.458
289	-0.468
289	-0.481
290	-0.471
290	-0.471
291	-0.468
291	-0.465
292	-0.467
292	-0.473
292	-0.477
293	-0.485
293	-0.474
294	-0.465
294	-0.453
295	-0.45
295	-0.448
296	-0.446
296	-0.442
297	-0.437
297	-0.419
298	-0.41
298	-0.419
298	-0.407
299	-0.402
299	-0.403
300	-0.399
300	-0.398
301	-0.39
301	-0.389
302	-0.396
302	-0.406
303	-0.399
303	-0.382
304	-0.387
304	-0.386
305	-0.39
305	-0.388
305	-0.385
306	-0.373
306	-0.369
307	-0.356
307	-0.355
308	-0.368
308	-0.369
309	-0.372
309	-0.362
310	-0.351
310	-0.35
311	-0.341
311	-0.349
311	-0.346
312	-0.344
312	-0.345
313	-0.331
313	-0.334
314	-0.33
314	-0.333
315	-0.334
315	-0.332
316	-0.331
316	-0.323
317	-0.316
317	-0.314
318	-0.304
318	-0.301
318	-0.295
319	-0.284
319	-0.28
320	-0.274
320	-0.275
321	-0.279
321	-0.279
322	-0.275
322	-0.269
323	-0.267
323	-0.261
324	-0.253
324	-0.244
324	-0.233
325	-0.223
325	-0.206
326	-0.194
326	-0.177
327	-0.163
327	-0.145
328	-0.124
328	-0.109
329	-0.092
329	-0.073
330	-0.051
330	-0.024
330	-0.002
331	0.022
331	0.042
332	0.061
332	0.078
333	0.093
333	0.112
334	0.127
334	0.139
335	0.152
335	0.163
336	0.172
336	0.182
336	0.189
337	0.198
337	0.205
338	0.211
338	0.215
339	0.22
339	0.224
340	0.226
340	0.229
341	0.231
341	0.233
342	0.235
342	0.236
342	0.238
343	0.24
343	0.242
344	0.243
344	0.244
345	0.245
345	0.245
346	0.246
346	0.246
347	0.247
347	0.247
348	0.247
348	0.248
348	0.248
349	0.248
349	0.248
350	0.248
350	0.248
351	0.248
351	0.248
352	0.248
352	0.248
353	0.248
353	0.247
354	0.247
354	0.247
354	0.246
355	0.246
355	0.246
356	0.246
356	0.246
357	0.245
357	0.245
358	0.245
358	0.244
359	0.244
359	0.244
360	0.244
360	0.244
360	0.243
361	0.243
361	0.243
362	0.243
362	0.243
363	0.243
363	0.242
364	0.242
364	0.242
365	0.242
365	0.242
366	0.242
366	0.242
366	0.242
367	0.242
367	0.242
368	0.242
368	0.241
369	0.241
369	0.241
370	0.241
370	0.24
371	0.24
371	0.24
372	0.24
372	0.24
372	0.24
373	0.239
373	0.239
374	0.239
374	0.239
375	0.239
375	0.239
376	0.239
376	0.238
377	0.238
377	0.238
378	0.238
378	0.238
378	0.238
379	0.238
379	0.238
380	0.237
380	0.237
381	0.237
381	0.237
382	0.237
382	0.237
383	0.236
383	0.236
383	0.236
384	0.236
384	0.236
385	0.236
385	0.236
386	0.235
386	0.235
387	0.235
387	0.235
388	0.235
388	0.234
389	0.234
389	0.235
389	0.234
390	0.234
390	0.234
391	0.234
391	0.234
392	0.234
392	0.234
393	0.234
393	0.233
394	0.233
394	0.233
394	0.233
395	0.232
395	0.232
396	0.232
396	0.232
397	0.232
397	0.232
398	0.231
398	0.231
399	0.231
399	0.231
400	0.231
400	0.23
400	0.23
401	0.23
401	0.23
402	0.229
402	0.229
403	0.229
403	0.229
404	0.229
404	0.229
405	0.229
405	0.229
405	0.229
406	0.229
406	0.228
407	0.228
407	0.228
408	0.228
408	0.228
409	0.227
409	0.227
410	0.227
410	0.227
411	0.227
411	0.227
411	0.227
412	0.227
412	0.227
413	0.227
413	0.227
414	0.226
414	0.226
415	0.226
415	0.225
416	0.225
416	0.225
416	0.225
417	0.224
417	0.224
418	0.224
418	0.224
419	0.224
419	0.224
420	0.224
420	0.224
421	0.224
421	0.225
421	0.225
422	0.225
422	0.225
423	0.225
423	0.225
424	0.224
424	0.224
425	0.224
425	0.224
426	0.224
426	0.224
427	0.223
427	0.223
427	0.223
428	0.223
428	0.223
429	0.223
429	0.222
430	0.222
430	0.222
431	0.222
431	0.222
432	0.222
432	0.222
432	0.222
433	0.221
433	0.221
434	0.221
434	0.221
435	0.221
435	0.221
436	0.221
436	0.221
437	0.221
437	0.221
437	0.221
438	0.221
438	0.221
439	0.221
439	0.221
440	0.221
440	0.221
441	0.22
441	0.22
442	0.22
442	0.22
442	0.219
443	0.219
443	0.219
444	0.219
444	0.219
445	0.219
445	0.219
446	0.219
446	0.219
447	0.22
447	0.22
447	0.22
448	0.22
448	0.22
449	0.22
449	0.22
450	0.22
450	0.22
451	0.22
451	0.22
452	0.22
452	0.22
452	0.22
453	0.22
453	0.22
454	0.22
454	0.219
455	0.219
455	0.219
456	0.219
456	0.219
457	0.219
457	0.219
458	0.219
458	0.219
458	0.22
459	0.22
459	0.22
460	0.22
460	0.22
461	0.22
461	0.22
462	0.22
462	0.22
463	0.221
463	0.221
463	0.221
464	0.221
464	0.221
465	0.221
465	0.222
466	0.222
466	0.222
467	0.223
467	0.223
467	0.223
468	0.224
468	0.224
469	0.225
469	0.225
470	0.226
470	0.226
471	0.226
471	0.226
472	0.226
472	0.226
472	0.226
473	0.227
473	0.227
474	0.227
474	0.228
475	0.228
475	0.229
476	0.229
476	0.229
477	0.229
477	0.23
477	0.23
478	0.23
478	0.231
479	0.231
479	0.232
480	0.232
480	0.233
481	0.233
481	0.234
482	0.235
482	0.235
482	0.236
483	0.236
483	0.237
484	0.237
484	0.237
485	0.238
485	0.238
486	0.239
486	0.24
487	0.24
487	0.241
487	0.242
488	0.242
488	0.243
489	0.245
489	0.247
490	0.248
490	0.249
491	0.25
491	0.251
492	0.253
492	0.254
492	0.255
493	0.256
493	0.257
494	0.259
494	0.26
495	0.261
495	0.262
496	0.263
496	0.265
496	0.266
497	0.268
497	0.269
498	0.271
498	0.272
499	0.274
499	0.275
500	0.277
500	0.278
501	0.28
501	0.281
501	0.282
502	0.283
502	0.284
503	0.286
503	0.287
504	0.288
504	0.29
505	0.291
505	0.293
506	0.295
506	0.296
506	0.298
507	0.3
507	0.302
508	0.303
508	0.305
509	0.307
509	0.309
510	0.31
510	0.312
511	0.313
511	0.315
511	0.316
512	0.318
512	0.319
513	0.32
513	0.322
514	0.323
514	0.324
515	0.326
515	0.327
515	0.329
516	0.33
516	0.332
517	0.333
517	0.335
518	0.336
518	0.337
519	0.338
519	0.34
520	0.341
520	0.343
520	0.344
521	0.345
521	0.347
522	0.348
522	0.349
523	0.35
523	0.351
524	0.351
524	0.352
524	0.352
525	0.353
525	0.353
526	0.353
526	0.354
527	0.354
527	0.355
528	0.355
528	0.356
529	0.356
529	0.356
529	0.357
530	0.357
530	0.357
531	0.357
531	0.357
532	0.357
532	0.357
533	0.356
533	0.356
533	0.356
534	0.355
534	0.355
535	0.354
535	0.354
536	0.353
536	0.352
537	0.352
537	0.351
538	0.35
538	0.35
538	0.349
539	0.349
539	0.348
540	0.347
540	0.346
541	0.345
541	0.344
542	0.343
542	0.342
542	0.34
543	0.339
543	0.338
544	0.337
544	0.336
545	0.335
545	0.334
546	0.333
546	0.332
547	0.331
547	0.329
547	0.328
548	0.327
548	0.326
549	0.325
549	0.324
550	0.322
550	0.321
551	0.319
551	0.318
551	0.317
552	0.316
552	0.315
553	0.314
553	0.313
554	0.312
554	0.311
555	0.309
555	0.308
556	0.307
556	0.306
556	0.305
557	0.304
557	0.303
558	0.301
558	0.3
559	0.298
559	0.297
560	0.296
560	0.295
560	0.294
561	0.293
561	0.292
562	0.29
562	0.289
563	0.288
563	0.287
564	0.286
564	0.285
564	0.284
565	0.283
565	0.282
566	0.28
566	0.278
567	0.277
567	0.275
568	0.273
568	0.272
568	0.27
569	0.269
569	0.268
570	0.266
570	0.264
571	0.264
571	0.263
572	0.261
572	0.26
573	0.259
573	0.258
573	0.256
574	0.255
574	0.255
575	0.254
575	0.254
576	0.253
576	0.252
577	0.252
577	0.252
577	0.252
578	0.252
578	0.252
579	0.252
579	0.252
580	0.25
580	0.249
581	0.248
581	0.248
581	0.247
582	0.247
582	0.246
583	0.245
583	0.244
584	0.243
584	0.242
585	0.242
585	0.242
585	0.241
586	0.241
586	0.24
587	0.24
587	0.239
588	0.239
588	0.239
589	0.238
589	0.238
590	0.238
590	0.238
590	0.238
591	0.237
591	0.236
592	0.235
592	0.234
593	0.234
593	0.234
594	0.233
594	0.232
594	0.232
595	0.232
595	0.231
596	0.231
596	0.232
597	0.233
597	0.232
598	0.232
598	0.232
598	0.231
599	0.231
599	0.23
600	0.229
600	0.228
601	0.228
601	0.227
602	0.226
602	0.226
602	0.226
603	0.226
603	0.226
604	0.226
604	0.227
605	0.227
605	0.228
606	0.227
606	0.227
606	0.227
607	0.226
607	0.226
608	0.226
608	0.225
609	0.225
609	0.225
610	0.224
610	0.224
610	0.224
611	0.224
611	0.224
612	0.225
612	0.225
613	0.224
613	0.224
614	0.223
614	0.222
614	0.221
615	0.221
615	0.22
616	0.219
616	0.219
617	0.218
617	0.217
618	0.217
618	0.216
618	0.216
619	0.216
619	0.217
620	0.217
620	0.217
621	0.217
621	0.217
622	0.216
622	0.216
622	0.215
623	0.215
623	0.215
624	0.215
624	0.214
625	0.214
625	0.214
626	0.213
626	0.213
626	0.213
627	0.213
627	0.212
628	0.211
628	0.21
629	0.209
629	0.207
630	0.206
630	0.205
630	0.203
631	0.202
631	0.2
632	0.199
632	0.197
633	0.196
633	0.194
634	0.192
634	0.19
634	0.188
635	0.186
635	0.183
636	0.18
636	0.177
637	0.175
637	0.172
638	0.169
638	0.166
638	0.162
639	0.159
639	0.155
640	0.152
640	0.149
641	0.146
641	0.142
642	0.139
642	0.135
642	0.131
643	0.128
643	0.123
644	0.119
644	0.114
645	0.11
645	0.105
646	0.1
646	0.095
646	0.09
647	0.085
647	0.08
648	0.074
648	0.068
649	0.062
649	0.056
650	0.05
650	0.043
650	0.036
651	0.029
651	0.019
652	0.007
652	-0.006
653	-0.017
653	-0.027
653	-0.024
654	-0.007
654	0.001
655	-0.003
655	-0.007
656	-0.012
656	-0.017
657	-0.021
657	-0.024
657	-0.03
658	-0.035
658	-0.06
659	-0.132
659	-0.219
660	-0.258
660	-0.283
661	-0.31
661	-0.339
661	-0.37
662	-0.401
662	-0.434
663	-0.474
663	-0.517
664	-0.561
664	-0.613
665	-0.665
665	-0.723
665	-0.779
666	-0.838
666	-0.901
667	-0.967
667	-1.034
668	-1.106
668	-1.18
669	-1.255
669	-1.329
669	-1.408
670	-1.474
670	-1.502
671	-1.644
671	-1.947
672	-2.185
672	-2.38
672	-2.513
673	-2.607
673	-2.688
674	-2.73
674	-2.749
675	-2.774
675	-2.915
676	-3.113
676	-3.064
676	-2.839
677	-2.633
677	-2.467
678	-2.286
678	-1.971
679	-1.686
679	-1.548
680	-1.451
680	-1.366
680	-1.293
681	-1.246
681	-1.186
682	-1.145
682	-1.105
683	-1.068
683	-1.048
684	-1.024
684	-1.003
684	-0.979
685	-0.952
685	-0.927
686	-0.901
686	-0.883
687	-0.855
687	-0.84
687	-0.816
688	-0.788
688	-0.766
689	-0.742
689	-0.728
690	-0.708
690	-0.693
691	-0.684
691	-0.686
691	-0.699
692	-0.69
692	-0.681
693	-0.677
693	-0.682
694	-0.676
694	-0.668
695	-0.67
695	-0.667
695	-0.651
696	-0.649
696	-0.627
697	-0.625
697	-0.639
698	-0.639
698	-0.629
698	-0.639
699	-0.643
699	-0.639
700	-0.632
700	-0.645
701	-0.64
701	-0.647
702	-0.646
702	-0.635
702	-0.627
703	-0.622
703	-0.615
704	-0.613
704	-0.61
705	-0.621
705	-0.615
705	-0.604
706	-0.603
706	-0.598
707	-0.602
707	-0.597
708	-0.595
708	-0.588
709	-0.589
709	-0.591
709	-0.582
710	-0.588
710	-0.598
711	-0.59
711	-0.592
712	-0.589
712	-0.601
713	-0.6
713	-0.605
713	-0.595
714	-0.592
714	-0.593
715	-0.583
715	-0.567
716	-0.573
716	-0.573
716	-0.567
717	-0.568
717	-0.569
718	-0.56
718	-0.56
719	-0.566
719	-0.567
720	-0.561
720	-0.572
720	-0.566
721	-0.555
721	-0.556
722	-0.543
722	-0.535
723	-0.532
723	-0.536
723	-0.523
724	-0.526
724	-0.532
725	-0.53
725	-0.535
726	-0.548
726	-0.553
727	-0.559
727	-0.573
727	-0.582
728	-0.585
728	-0.592
729	-0.588
729	-0.592
730	-0.597
730	-0.591
730	-0.581
731	-0.561
731	-0.571
732	-0.574
732	-0.575
733	-0.57
733	-0.576
734	-0.573
734	-0.573
734	-0.562
735	-0.559
735	-0.56
736	-0.573
736	-0.56
737	-0.551
737	-0.549
737	-0.558
738	-0.553
738	-0.553
739	-0.551
739	-0.563
740	-0.564
740	-0.565
741	-0.56
741	-0.558
741	-0.561
742	-0.56
742	-0.56
743	-0.567
743	-0.571
744	-0.569
744	-0.56
744	-0.561
745	-0.566
745	-0.56
746	-0.56
746	-0.555
747	-0.558
747	-0.546
748	-0.533
748	-0.54
748	-0.54
749	-0.537
749	-0.538
750	-0.527
750	-0.528
751	-0.531
751	-0.542
751	-0.545
752	-0.551
752	-0.56
753	-0.553
753	-0.553
754	-0.557
754	-0.551
754	-0.564
755	-0.578
755	-0.589
756	-0.575
756	-0.572
757	-0.567
757	-0.563
758	-0.565
758	-0.56
758	-0.565
759	-0.572
759	-0.558
760	-0.553
760	-0.548
761	-0.56
761	-0.56
761	-0.559
762	-0.567
762	-0.567
763	-0.576
763	-0.569
764	-0.565
764	-0.574
764	-0.579
765	-0.571
765	-0.558
766	-0.562
766	-0.569
767	-0.582
767	-0.578
768	-0.568
768	-0.579
768	-0.583
769	-0.599
769	-0.599
770	-0.603
770	-0.617
771	-0.615
771	-0.616
771	-0.616
772	-0.616
772	-0.617
773	-0.614
773	-0.609
774	-0.608
774	-0.608
775	-0.612
775	-0.606
775	-0.61
776	-0.613
776	-0.604
777	-0.615
777	-0.634
778	-0.631
778	-0.653
778	-0.638
779	-0.658
779	-0.662
780	-0.675
780	-0.676
781	-0.685
781	-0.681
781	-0.696
782	-0.7
782	-0.702
783	-0.69
783	-0.69
784	-0.672
784	-0.665
784	-0.676
785	-0.681
785	-0.667
786	-0.673
786	-0.652
787	-0.635
787	-0.637
788	-0.638
788	-0.649
788	-0.659
789	-0.656
789	-0.635
790	-0.617
790	-0.621
791	-0.62
791	-0.632
791	-0.636
792	-0.629
792	-0.606
793	-0.593
793	-0.571
794	-0.578
794	-0.572
794	-0.581
795	-0.575
795	-0.568
796	-0.557
796	-0.566
797	-0.56
797	-0.574
797	-0.58
798	-0.592
798	-0.585
799	-0.592
799	-0.579
800	-0.587
800	-0.581
801	-0.585
801	-0.57
801	-0.582
802	-0.585
802	-0.585
803	-0.587
803	-0.598
804	-0.596
804	-0.604
804	-0.592
805	-0.596
805	-0.583
806	-0.586
806	-0.568
807	-0.569
807	-0.554
807	-0.542
808	-0.532
808	-0.526
809	-0.514
809	-0.523
810	-0.52
810	-0.517
810	-0.516
811	-0.525
811	-0.518
812	-0.521
812	-0.522
813	-0.528
813	-0.523
813	-0.528
814	-0.53
814	-0.533
815	-0.535
815	-0.536
816	-0.526
816	-0.53
817	-0.537
817	-0.556
817	-0.568
818	-0.575
818	-0.578
819	-0.57
819	-0.572
820	-0.581
820	-0.579
820	-0.594
821	-0.592
821	-0.579
822	-0.547
822	-0.526
823	-0.523
823	-0.525
823	-0.522
824	-0.517
824	-0.522
825	-0.516
825	-0.495
826	-0.492
826	-0.499
826	-0.51
827	-0.505
827	-0.501
828	-0.481
828	-0.48
829	-0.47
829	-0.456
829	-0.448
830	-0.456
830	-0.455
831	-0.449
831	-0.441
832	-0.439
832	-0.433
832	-0.442
833	-0.437
833	-0.44
834	-0.436
834	-0.444
835	-0.432
835	-0.425
835	-0.42
836	-0.416
836	-0.414
837	-0.414
837	-0.406
838	-0.398
838	-0.387
839	-0.377
839	-0.364
839	-0.358
840	-0.348
840	-0.347
841	-0.337
841	-0.328
842	-0.32
842	-0.312
842	-0.306
843	-0.299
843	-0.295
844	-0.29
844	-0.281
845	-0.275
845	-0.263
845	-0.251
846	-0.241
846	-0.229
847	-0.218
847	-0.21
848	-0.202
848	-0.193
848	-0.178
849	-0.171
849	-0.16
850	-0.15
850	-0.146
851	-0.14
851	-0.132
851	-0.124
852	-0.112
852	-0.102
853	-0.094
853	-0.09
854	-0.08
854	-0.07
854	-0.061
855	-0.051
855	-0.046
856	-0.038
856	-0.031
857	-0.025
857	-0.018
857	-0.008
858	-0
858	0.004
859	0.008
859	0.014
860	0.021
860	0.029
860	0.035
861	0.039
861	0.045
862	0.051
862	0.055
863	0.059
863	0.066
863	0.07
864	0.073
864	0.076
865	0.08
865	0.083
866	0.087
866	0.089
866	0.091
867	0.094
867	0.097
868	0.099
868	0.101
869	0.104
869	0.105
869	0.106
870	0.108
870	0.11
871	0.111
871	0.113
872	0.113
872	0.114
872	0.114
873	0.114
873	0.113
874	0.113
874	0.113
875	0.112
875	0.111
875	0.11
876	0.109
876	0.108
877	0.107
877	0.106
878	0.105
878	0.103
878	0.102
879	0.101
879	0.1
880	0.099
880	0.099
881	0.099
881	0.099
881	0.099
882	0.098
882	0.098
883	0.098
883	0.097
884	0.097
884	0.097
884	0.096
885	0.096
885	0.096
886	0.096
886	0.095
887	0.094
887	0.094
887	0.094
888	0.094
888	0.094
889	0.095
889	0.096
890	0.096
890	0.096
890	0.096
891	0.096
891	0.097
892	0.097
892	0.097
893	0.096
893	0.096
893	0.095
894	0.095
894	0.094
895	0.093
895	0.093
895	0.093
896	0.092
896	0.091
897	0.09
897	0.089
898	0.088
898	0.087
898	0.087
899	0.086
899	0.086
900	0.086
900	0.086
901	0.086
901	0.086
901	0.086
902	0.087
902	0.087
903	0.087
903	0.087
904	0.087
904	0.087
904	0.088
905	0.088
905	0.088
906	0.088
906	0.089
907	0.088
907	0.088
907	0.088
908	0.088
908	0.087
909	0.086
909	0.086
910	0.085
910	0.085
910	0.084
911	0.084
911	0.084
912	0.085
912	0.085
913	0.085
913	0.085
913	0.085
914	0.086
914	0.086
915	0.087
915	0.087
916	0.088
916	0.088
916	0.088
917	0.088
917	0.089
918	0.089
918	0.089
918	0.089
919	0.089
919	0.089
920	0.089
920	0.089
921	0.09
921	0.09
921	0.09
922	0.09
922	0.091
923	0.091
923	0.092
924	0.092
924	0.093
924	0.093
925	0.093
925	0.092
926	0.092
926	0.091
927	0.09
927	0.09
927	0.089
928	0.088
928	0.087
929	0.086
929	0.085
930	0.085
930	0.085
930	0.085
931	0.085
931	0.085
932	0.086
932	0.086
933	0.086
933	0.086
933	0.085
934	0.085
934	0.084
935	0.083
935	0.082
935	0.081
936	0.081
936	0.079
937	0.078
937	0.078
938	0.078
938	0.077
938	0.077
939	0.077
939	0.078
940	0.078
940	0.077
941	0.077
941	0.078
941	0.078
942	0.078
942	0.078
943	0.078
943	0.077
944	0.076
944	0.076
944	0.075
945	0.075
945	0.074
946	0.074
946	0.073
946	0.073
947	0.072
947	0.072
948	0.072
948	0.072
949	0.072
949	0.072
949	0.072
950	0.073
950	0.072
951	0.073
951	0.074
952	0.074
952	0.075
952	0.075
953	0.076
953	0.076
954	0.076
954	0.077
955	0.078
955	0.079
955	0.079
956	0.08
956	0.08
957	0.08
957	0.08
957	0.08
958	0.081
958	0.082
959	0.082
959	0.082
960	0.082
960	0.082
960	0.082
961	0.082
961	0.082
962	0.082
962	0.082
963	0.082
963	0.081
963	0.081
964	0.081
964	0.08
965	0.08
965	0.08
966	0.079
966	0.079
966	0.079
967	0.079
967	0.078
968	0.078
968	0.077
968	0.077
969	0.077
969	0.076
970	0.076
970	0.076
971	0.076
971	0.076
971	0.075
972	0.075
972	0.075
973	0.074
973	0.074
974	0.074
974	0.073
974	0.073
975	0.073
975	0.073
976	0.072
976	0.072
976	0.072
977	0.072
977	0.072
978	0.072
978	0.072
979	0.072
979	0.072
979	0.072
980	0.072
980	0.072
981	0.073
981	0.073
982	0.073
982	0.073
982	0.073
983	0.073
983	0.072
984	0.072
984	0.072
984	0.072
985	0.072
985	0.072
986	0.071
986	0.072
987	0.072
987	0.072
987	0.073
988	0.073
988	0.073
989	0.073
989	0.073
990	0.073
990	0.072
990	0.072
991	0.072
991	0.071
992	0.07
992	0.07
992	0.07
993	0.069
993	0.069
994	0.069
994	0.068
995	0.068
995	0.068
995	0.067
996	0.067
996	0.067
997	0.066
997	0.067
997	0.067
998	0.067
998	0.066
999	0.067
999	0.067
1000	0.067
1000	0.067
1000	0.067
1001	0.067
1001	0.066
1002	0.066
1002	0.065
1003	0.065
1003	0.064
1003	0.063
1004	0.063
1004	0.061
1005	0.06
1005	0.059
1005	0.058
1006	0.057
1006	0.056
1007	0.056
1007	0.055
1008	0.054
1008	0.054
1008	0.054
1009	0.054
1009	0.054
1010	0.054
1010	0.054
1010	0.054
1011	0.054
1011	0.053
1012	0.053
1012	0.052
1013	0.051
1013	0.049
1013	0.048
1014	0.047
1014	0.045
1015	0.044
1015	0.043
1016	0.042
1016	0.041
1016	0.041
1017	0.04
1017	0.04
1018	0.039
1018	0.039
1018	0.038
1019	0.038
1019	0.037
1020	0.036
1020	0.036
1021	0.035
1021	0.034
1021	0.033
1022	0.032
1022	0.031
1023	0.031
1023	0.03
1023	0.031
1024	0.031
1024	0.03
1025	0.031
1025	0.031
1026	0.032
1026	0.032
1026	0.033
1027	0.033
1027	0.034
1028	0.034
1028	0.034
1028	0.034
1029	0.034
1029	0.034
1030	0.034
1030	0.034
1031	0.033
1031	0.033
1031	0.033
1032	0.033
1032	0.034
1033	0.034
1033	0.035
1033	0.036
1034	0.037
1034	0.037
1035	0.038
1035	0.038
1036	0.039
1036	0.039
1036	0.039
1037	0.039
1037	0.039
1038	0.038
1038	0.038
1039	0.038
1039	0.038
1039	0.038
1040	0.038
1040	0.038
1041	0.038
1041	0.039
1041	0.039
1042	0.039
1042	0.039
1043	0.039
1043	0.04
1044	0.039
1044	0.039
1044	0.039
1045	0.039
1045	0.039
1046	0.039
1046	0.039
1046	0.039
1047	0.04
1047	0.041
1048	0.041
1048	0.042
1049	0.042
1049	0.042
1049	0.043
1050	0.043
1050	0.043
1051	0.043
1051	0.043
1051	0.043
1052	0.043
1052	0.042
1053	0.042
1053	0.042
1053	0.042
1054	0.041
1054	0.041
1055	0.04
1055	0.04
1056	0.039
1056	0.037
1056	0.036
1057	0.035
1057	0.035
1058	0.034
1058	0.033
1058	0.033
1059	0.032
1059	0.032
1060	0.031
1060	0.031
1061	0.031
1061	0.032
1061	0.032
1062	0.032
1062	0.031
1063	0.031
1063	0.031
1063	0.031
1064	0.032
1064	0.031
1065	0.031
1065	0.031
1066	0.03
1066	0.029
1066	0.029
1067	0.028
1067	0.028
1068	0.027
1068	0.026
1068	0.026
1069	0.026
1069	0.025
1070	0.025
1070	0.025
1071	0.025
1071	0.025
1071	0.025
1072	0.025
1072	0.026
1073	0.025
1073	0.025
1073	0.025
1074	0.026
1074	0.026
1075	0.026
1075	0.025
1076	0.024
1076	0.024
1076	0.024
1077	0.023
1077	0.023
1078	0.022
1078	0.022
1078	0.021
1079	0.02
1079	0.02
1080	0.019
1080	0.018
1080	0.017
1081	0.017
1081	0.016
1082	0.015
1082	0.014
1083	0.013
1083	0.013
1083	0.012
1084	0.011
1084	0.011
1085	0.01
1085	0.01
1085	0.01
1086	0.01
1086	0.009
1087	0.009
1087	0.009
1088	0.009
1088	0.009
1088	0.008
1089	0.008
1089	0.008
1090	0.006
1090	0.006
1090	0.006
1091	0.005
1091	0.005
1092	0.005
1092	0.005
1092	0.004
1093	0.004
1093	0.003
1094	0.003
1094	0.003
1095	0.003
1095	0.003
1095	0.002
1096	0.002
1096	0.001
1097	0.002
1097	0.001
1097	0.002
1098	0.002
1098	0
1099	0
1099	-0
1100	-0.001
1100	-0.002
1100	-0.003
1101	-0.006
1101	-0.008
1102	-0.01
1102	-0.011
1102	-0.011
1103	-0.012
1103	-0.014
1104	-0.015
1104	-0.017
1104	-0.018
1105	-0.019
1105	-0.022
1106	-0.026
1106	-0.026
1107	-0.029
1107	-0.034
1107	-0.038
1108	-0.04
1108	-0.041
1109	-0.045
1109	-0.049
1109	-0.052
1110	-0.051
1110	-0.052
1111	-0.059
1111	-0.063
