Data from 17C_3.4A_30min_2sec_int_Absorbance__440__00440.txt Node

Date: Mon Jun 19 16:23:07 CEST 2023
User: Marek
Spectrometer: MAYP115816
Trigger mode: 0
Integration Time (sec): 2.500000E-1
Scans to average: 10
Electric dark correction enabled: true
Nonlinearity correction enabled: true
Boxcar width: 5
XAxis mode: Wavelengths
Number of Pixels in Spectrum: 2068
>>>>>Begin Spectral Data<<<<<
199	-0.53
199	-0.525
200	-0.431
200	-0.387
201	-0.357
201	-0.348
202	-0.339
202	-0.322
203	-0.313
203	-0.31
204	-0.299
204	-0.286
205	-0.27
205	-0.267
205	-0.264
206	-0.266
206	-0.267
207	-0.256
207	-0.258
208	-0.26
208	-0.259
209	-0.254
209	-0.254
210	-0.258
210	-0.266
211	-0.27
211	-0.27
212	-0.271
212	-0.277
213	-0.275
213	-0.275
213	-0.28
214	-0.276
214	-0.275
215	-0.274
215	-0.275
216	-0.274
216	-0.282
217	-0.277
217	-0.281
218	-0.284
218	-0.285
219	-0.286
219	-0.297
220	-0.303
220	-0.31
221	-0.311
221	-0.313
221	-0.309
222	-0.307
222	-0.307
223	-0.311
223	-0.315
224	-0.318
224	-0.317
225	-0.315
225	-0.31
226	-0.314
226	-0.316
227	-0.321
227	-0.328
228	-0.329
228	-0.329
229	-0.33
229	-0.324
229	-0.318
230	-0.322
230	-0.323
231	-0.315
231	-0.311
232	-0.304
232	-0.306
233	-0.3
233	-0.299
234	-0.296
234	-0.296
235	-0.3
235	-0.303
236	-0.302
236	-0.307
236	-0.31
237	-0.316
237	-0.314
238	-0.324
238	-0.321
239	-0.323
239	-0.334
240	-0.333
240	-0.331
241	-0.335
241	-0.33
242	-0.332
242	-0.331
243	-0.327
243	-0.325
243	-0.335
244	-0.335
244	-0.331
245	-0.34
245	-0.336
246	-0.342
246	-0.348
247	-0.35
247	-0.351
248	-0.36
248	-0.358
249	-0.36
249	-0.365
250	-0.364
250	-0.365
250	-0.368
251	-0.362
251	-0.359
252	-0.365
252	-0.357
253	-0.358
253	-0.37
254	-0.37
254	-0.368
255	-0.376
255	-0.368
256	-0.363
256	-0.376
257	-0.377
257	-0.37
258	-0.384
258	-0.381
258	-0.372
259	-0.366
259	-0.374
260	-0.378
260	-0.381
261	-0.396
261	-0.387
262	-0.383
262	-0.383
263	-0.371
263	-0.37
264	-0.372
264	-0.38
265	-0.374
265	-0.376
265	-0.379
266	-0.371
266	-0.37
267	-0.382
267	-0.39
268	-0.405
268	-0.412
269	-0.409
269	-0.406
270	-0.408
270	-0.409
271	-0.409
271	-0.417
272	-0.419
272	-0.415
272	-0.409
273	-0.412
273	-0.416
274	-0.422
274	-0.426
275	-0.427
275	-0.421
276	-0.429
276	-0.419
277	-0.425
277	-0.438
278	-0.448
278	-0.439
278	-0.433
279	-0.436
279	-0.445
280	-0.444
280	-0.448
281	-0.44
281	-0.446
282	-0.44
282	-0.439
283	-0.428
283	-0.431
284	-0.428
284	-0.416
285	-0.409
285	-0.407
285	-0.4
286	-0.406
286	-0.403
287	-0.397
287	-0.387
288	-0.381
288	-0.388
289	-0.399
289	-0.408
290	-0.402
290	-0.402
291	-0.4
291	-0.395
292	-0.397
292	-0.406
292	-0.41
293	-0.416
293	-0.404
294	-0.395
294	-0.391
295	-0.386
295	-0.383
296	-0.383
296	-0.381
297	-0.374
297	-0.36
298	-0.352
298	-0.358
298	-0.35
299	-0.344
299	-0.342
300	-0.337
300	-0.333
301	-0.327
301	-0.324
302	-0.332
302	-0.338
303	-0.325
303	-0.312
304	-0.312
304	-0.308
305	-0.311
305	-0.311
305	-0.308
306	-0.295
306	-0.291
307	-0.285
307	-0.287
308	-0.301
308	-0.298
309	-0.304
309	-0.295
310	-0.285
310	-0.281
311	-0.274
311	-0.281
311	-0.281
312	-0.275
312	-0.271
313	-0.256
313	-0.262
314	-0.256
314	-0.256
315	-0.259
315	-0.258
316	-0.256
316	-0.249
317	-0.24
317	-0.234
318	-0.225
318	-0.227
318	-0.222
319	-0.217
319	-0.215
320	-0.209
320	-0.21
321	-0.213
321	-0.211
322	-0.207
322	-0.204
323	-0.206
323	-0.2
324	-0.193
324	-0.185
324	-0.178
325	-0.167
325	-0.155
326	-0.143
326	-0.131
327	-0.117
327	-0.099
328	-0.076
328	-0.061
329	-0.043
329	-0.023
330	-0.002
330	0.023
330	0.043
331	0.065
331	0.086
332	0.103
332	0.12
333	0.135
333	0.154
334	0.169
334	0.181
335	0.193
335	0.203
336	0.212
336	0.22
336	0.226
337	0.233
337	0.238
338	0.243
338	0.246
339	0.251
339	0.254
340	0.257
340	0.26
341	0.262
341	0.265
342	0.267
342	0.269
342	0.272
343	0.273
343	0.274
344	0.275
344	0.275
345	0.276
345	0.276
346	0.277
346	0.277
347	0.277
347	0.277
348	0.277
348	0.277
348	0.277
349	0.277
349	0.277
350	0.277
350	0.277
351	0.277
351	0.277
352	0.277
352	0.277
353	0.276
353	0.276
354	0.276
354	0.275
354	0.275
355	0.275
355	0.275
356	0.275
356	0.274
357	0.273
357	0.273
358	0.273
358	0.272
359	0.272
359	0.272
360	0.272
360	0.272
360	0.271
361	0.271
361	0.271
362	0.272
362	0.271
363	0.271
363	0.271
364	0.271
364	0.271
365	0.271
365	0.271
366	0.271
366	0.27
366	0.27
367	0.27
367	0.27
368	0.27
368	0.269
369	0.269
369	0.269
370	0.268
370	0.268
371	0.268
371	0.268
372	0.267
372	0.267
372	0.267
373	0.267
373	0.267
374	0.266
374	0.266
375	0.266
375	0.266
376	0.266
376	0.266
377	0.266
377	0.266
378	0.266
378	0.266
378	0.266
379	0.266
379	0.265
380	0.265
380	0.265
381	0.264
381	0.264
382	0.264
382	0.263
383	0.263
383	0.263
383	0.263
384	0.262
384	0.262
385	0.262
385	0.262
386	0.262
386	0.262
387	0.262
387	0.262
388	0.261
388	0.261
389	0.261
389	0.261
389	0.261
390	0.26
390	0.26
391	0.26
391	0.26
392	0.26
392	0.259
393	0.259
393	0.259
394	0.259
394	0.259
394	0.258
395	0.258
395	0.258
396	0.258
396	0.257
397	0.257
397	0.257
398	0.257
398	0.257
399	0.257
399	0.256
400	0.256
400	0.256
400	0.256
401	0.255
401	0.255
402	0.255
402	0.255
403	0.254
403	0.254
404	0.254
404	0.254
405	0.254
405	0.253
405	0.253
406	0.253
406	0.253
407	0.253
407	0.252
408	0.252
408	0.252
409	0.252
409	0.252
410	0.252
410	0.252
411	0.252
411	0.252
411	0.252
412	0.252
412	0.251
413	0.251
413	0.251
414	0.251
414	0.25
415	0.25
415	0.25
416	0.25
416	0.249
416	0.249
417	0.249
417	0.249
418	0.249
418	0.249
419	0.249
419	0.249
420	0.249
420	0.249
421	0.249
421	0.249
421	0.249
422	0.249
422	0.248
423	0.248
423	0.248
424	0.248
424	0.248
425	0.248
425	0.248
426	0.248
426	0.247
427	0.247
427	0.247
427	0.247
428	0.247
428	0.247
429	0.246
429	0.246
430	0.246
430	0.246
431	0.246
431	0.246
432	0.246
432	0.246
432	0.245
433	0.245
433	0.245
434	0.245
434	0.245
435	0.245
435	0.245
436	0.245
436	0.245
437	0.245
437	0.245
437	0.245
438	0.245
438	0.245
439	0.245
439	0.244
440	0.244
440	0.244
441	0.244
441	0.244
442	0.244
442	0.243
442	0.243
443	0.243
443	0.243
444	0.243
444	0.243
445	0.243
445	0.243
446	0.243
446	0.243
447	0.243
447	0.243
447	0.243
448	0.243
448	0.243
449	0.243
449	0.243
450	0.244
450	0.244
451	0.244
451	0.244
452	0.244
452	0.244
452	0.244
453	0.244
453	0.244
454	0.244
454	0.243
455	0.243
455	0.243
456	0.243
456	0.243
457	0.243
457	0.243
458	0.243
458	0.243
458	0.244
459	0.244
459	0.244
460	0.244
460	0.244
461	0.244
461	0.244
462	0.244
462	0.245
463	0.245
463	0.245
463	0.245
464	0.245
464	0.246
465	0.246
465	0.246
466	0.246
466	0.247
467	0.247
467	0.248
467	0.248
468	0.248
468	0.249
469	0.249
469	0.25
470	0.25
470	0.25
471	0.251
471	0.251
472	0.251
472	0.251
472	0.252
473	0.252
473	0.252
474	0.253
474	0.253
475	0.253
475	0.254
476	0.254
476	0.255
477	0.255
477	0.256
477	0.256
478	0.257
478	0.257
479	0.258
479	0.259
480	0.259
480	0.26
481	0.261
481	0.262
482	0.262
482	0.263
482	0.263
483	0.264
483	0.265
484	0.265
484	0.265
485	0.266
485	0.266
486	0.267
486	0.268
487	0.269
487	0.27
487	0.27
488	0.271
488	0.273
489	0.274
489	0.276
490	0.278
490	0.279
491	0.28
491	0.281
492	0.283
492	0.284
492	0.285
493	0.286
493	0.288
494	0.289
494	0.29
495	0.291
495	0.293
496	0.295
496	0.296
496	0.298
497	0.3
497	0.302
498	0.303
498	0.305
499	0.307
499	0.309
500	0.311
500	0.313
501	0.315
501	0.316
501	0.318
502	0.319
502	0.321
503	0.322
503	0.324
504	0.326
504	0.328
505	0.33
505	0.332
506	0.333
506	0.336
506	0.338
507	0.34
507	0.342
508	0.344
508	0.346
509	0.348
509	0.35
510	0.352
510	0.354
511	0.356
511	0.358
511	0.359
512	0.361
512	0.362
513	0.364
513	0.365
514	0.367
514	0.369
515	0.371
515	0.372
515	0.374
516	0.376
516	0.378
517	0.379
517	0.381
518	0.382
518	0.384
519	0.385
519	0.387
520	0.388
520	0.39
520	0.391
521	0.393
521	0.394
522	0.395
522	0.397
523	0.398
523	0.399
524	0.399
524	0.4
524	0.401
525	0.401
525	0.402
526	0.402
526	0.403
527	0.403
527	0.404
528	0.405
528	0.405
529	0.406
529	0.406
529	0.407
530	0.407
530	0.407
531	0.407
531	0.407
532	0.407
532	0.406
533	0.406
533	0.406
533	0.405
534	0.405
534	0.404
535	0.404
535	0.403
536	0.403
536	0.402
537	0.401
537	0.4
538	0.4
538	0.399
538	0.398
539	0.397
539	0.396
540	0.395
540	0.393
541	0.392
541	0.391
542	0.39
542	0.389
542	0.387
543	0.386
543	0.384
544	0.383
544	0.382
545	0.38
545	0.379
546	0.378
546	0.376
547	0.375
547	0.373
547	0.372
548	0.371
548	0.369
549	0.368
549	0.367
550	0.365
550	0.364
551	0.362
551	0.361
551	0.359
552	0.358
552	0.357
553	0.355
553	0.354
554	0.352
554	0.351
555	0.349
555	0.348
556	0.346
556	0.345
556	0.344
557	0.342
557	0.341
558	0.339
558	0.338
559	0.336
559	0.334
560	0.333
560	0.332
560	0.33
561	0.329
561	0.328
562	0.326
562	0.324
563	0.323
563	0.322
564	0.32
564	0.319
564	0.318
565	0.316
565	0.315
566	0.313
566	0.311
567	0.31
567	0.308
568	0.306
568	0.304
568	0.303
569	0.301
569	0.299
570	0.297
570	0.296
571	0.295
571	0.293
572	0.292
572	0.29
573	0.289
573	0.288
573	0.286
574	0.285
574	0.284
575	0.283
575	0.282
576	0.281
576	0.28
577	0.279
577	0.279
577	0.279
578	0.278
578	0.278
579	0.277
579	0.276
580	0.275
580	0.274
581	0.272
581	0.272
581	0.271
582	0.27
582	0.269
583	0.269
583	0.267
584	0.266
584	0.265
585	0.264
585	0.264
585	0.263
586	0.263
586	0.263
587	0.262
587	0.262
588	0.261
588	0.26
589	0.26
589	0.26
590	0.259
590	0.259
590	0.259
591	0.258
591	0.257
592	0.256
592	0.255
593	0.255
593	0.254
594	0.254
594	0.253
594	0.253
595	0.252
595	0.252
596	0.251
596	0.252
597	0.252
597	0.251
598	0.25
598	0.25
598	0.249
599	0.249
599	0.248
600	0.247
600	0.246
601	0.245
601	0.244
602	0.243
602	0.243
602	0.243
603	0.242
603	0.243
604	0.242
604	0.242
605	0.242
605	0.242
606	0.242
606	0.241
606	0.241
607	0.24
607	0.24
608	0.239
608	0.238
609	0.238
609	0.238
610	0.237
610	0.237
610	0.237
611	0.237
611	0.237
612	0.237
612	0.237
613	0.237
613	0.236
614	0.235
614	0.234
614	0.233
615	0.232
615	0.232
616	0.231
616	0.23
617	0.229
617	0.228
618	0.227
618	0.226
618	0.226
619	0.226
619	0.226
620	0.226
620	0.225
621	0.225
621	0.225
622	0.224
622	0.224
622	0.223
623	0.223
623	0.222
624	0.222
624	0.221
625	0.221
625	0.221
626	0.22
626	0.22
626	0.219
627	0.219
627	0.218
628	0.218
628	0.216
629	0.215
629	0.214
630	0.213
630	0.211
630	0.21
631	0.208
631	0.206
632	0.204
632	0.203
633	0.201
633	0.199
634	0.197
634	0.194
634	0.192
635	0.189
635	0.187
636	0.184
636	0.18
637	0.177
637	0.174
638	0.171
638	0.167
638	0.163
639	0.159
639	0.155
640	0.151
640	0.147
641	0.144
641	0.14
642	0.136
642	0.132
642	0.128
643	0.124
643	0.119
644	0.115
644	0.11
645	0.106
645	0.101
646	0.096
646	0.09
646	0.085
647	0.08
647	0.074
648	0.069
648	0.063
649	0.057
649	0.05
650	0.044
650	0.038
650	0.031
651	0.022
651	0.012
652	0
652	-0.012
653	-0.023
653	-0.033
653	-0.03
654	-0.014
654	-0.005
655	-0.007
655	-0.011
656	-0.015
656	-0.02
657	-0.022
657	-0.026
657	-0.031
658	-0.036
658	-0.059
659	-0.129
659	-0.215
660	-0.254
660	-0.278
661	-0.305
661	-0.333
661	-0.365
662	-0.397
662	-0.432
663	-0.472
663	-0.516
664	-0.563
664	-0.615
665	-0.669
665	-0.73
665	-0.787
666	-0.848
666	-0.913
667	-0.981
667	-1.049
668	-1.124
668	-1.2
669	-1.277
669	-1.354
669	-1.436
670	-1.51
670	-1.565
671	-1.767
671	-2.013
672	-2.229
672	-2.414
672	-2.539
673	-2.629
673	-2.707
674	-2.738
674	-2.755
675	-2.779
675	-2.917
676	-3.1
676	-3.049
676	-2.821
677	-2.611
677	-2.437
678	-2.239
678	-1.868
679	-1.636
679	-1.512
680	-1.42
680	-1.338
680	-1.268
681	-1.223
681	-1.162
682	-1.12
682	-1.082
683	-1.045
683	-1.026
684	-1.002
684	-0.979
684	-0.953
685	-0.926
685	-0.901
686	-0.873
686	-0.855
687	-0.827
687	-0.811
687	-0.788
688	-0.759
688	-0.737
689	-0.714
689	-0.698
690	-0.677
690	-0.66
691	-0.652
691	-0.654
691	-0.667
692	-0.656
692	-0.644
693	-0.638
693	-0.643
694	-0.637
694	-0.63
695	-0.633
695	-0.63
695	-0.614
696	-0.606
696	-0.584
697	-0.585
697	-0.599
698	-0.6
698	-0.59
698	-0.602
699	-0.599
699	-0.597
700	-0.588
700	-0.599
701	-0.598
701	-0.601
702	-0.597
702	-0.585
702	-0.575
703	-0.566
703	-0.555
704	-0.555
704	-0.551
705	-0.561
705	-0.556
705	-0.545
706	-0.549
706	-0.546
707	-0.548
707	-0.544
708	-0.543
708	-0.538
709	-0.538
709	-0.542
709	-0.531
710	-0.537
710	-0.542
711	-0.531
711	-0.528
712	-0.528
712	-0.539
713	-0.538
713	-0.544
713	-0.535
714	-0.535
714	-0.536
715	-0.525
715	-0.516
716	-0.524
716	-0.525
716	-0.518
717	-0.52
717	-0.52
718	-0.512
718	-0.51
719	-0.51
719	-0.511
720	-0.507
720	-0.513
720	-0.505
721	-0.498
721	-0.498
722	-0.485
722	-0.476
723	-0.473
723	-0.478
723	-0.463
724	-0.467
724	-0.471
725	-0.471
725	-0.478
726	-0.486
726	-0.491
727	-0.496
727	-0.508
727	-0.513
728	-0.515
728	-0.525
729	-0.524
729	-0.527
730	-0.532
730	-0.525
730	-0.518
731	-0.501
731	-0.507
732	-0.513
732	-0.514
733	-0.508
733	-0.511
734	-0.505
734	-0.507
734	-0.493
735	-0.493
735	-0.49
736	-0.501
736	-0.489
737	-0.481
737	-0.485
737	-0.495
738	-0.492
738	-0.495
739	-0.491
739	-0.504
740	-0.503
740	-0.503
741	-0.499
741	-0.497
741	-0.499
742	-0.495
742	-0.495
743	-0.501
743	-0.504
744	-0.501
744	-0.493
744	-0.496
745	-0.506
745	-0.498
746	-0.499
746	-0.498
747	-0.5
747	-0.489
748	-0.479
748	-0.482
748	-0.483
749	-0.478
749	-0.478
750	-0.467
750	-0.467
751	-0.473
751	-0.48
751	-0.483
752	-0.488
752	-0.493
753	-0.488
753	-0.488
754	-0.493
754	-0.488
754	-0.501
755	-0.517
755	-0.527
756	-0.517
756	-0.513
757	-0.512
757	-0.51
758	-0.513
758	-0.508
758	-0.513
759	-0.52
759	-0.501
760	-0.493
760	-0.489
761	-0.499
761	-0.495
761	-0.492
762	-0.497
762	-0.493
763	-0.503
763	-0.5
764	-0.495
764	-0.505
764	-0.512
765	-0.501
765	-0.488
766	-0.496
766	-0.504
767	-0.521
767	-0.521
768	-0.515
768	-0.52
768	-0.527
769	-0.543
769	-0.543
770	-0.548
770	-0.559
771	-0.558
771	-0.56
771	-0.559
772	-0.558
772	-0.552
773	-0.556
773	-0.552
774	-0.551
774	-0.551
775	-0.551
775	-0.544
775	-0.547
776	-0.546
776	-0.536
777	-0.547
777	-0.571
778	-0.564
778	-0.582
778	-0.566
779	-0.587
779	-0.598
780	-0.614
780	-0.615
781	-0.626
781	-0.622
781	-0.636
782	-0.637
782	-0.642
783	-0.633
783	-0.636
784	-0.62
784	-0.609
784	-0.616
785	-0.623
785	-0.606
786	-0.61
786	-0.589
787	-0.571
787	-0.571
788	-0.568
788	-0.576
788	-0.584
789	-0.585
789	-0.568
790	-0.549
790	-0.555
791	-0.558
791	-0.57
791	-0.575
792	-0.57
792	-0.55
793	-0.537
793	-0.514
794	-0.519
794	-0.512
794	-0.52
795	-0.518
795	-0.511
796	-0.5
796	-0.511
797	-0.502
797	-0.513
797	-0.521
798	-0.535
798	-0.525
799	-0.535
799	-0.521
800	-0.521
800	-0.513
801	-0.515
801	-0.5
801	-0.509
802	-0.516
802	-0.515
803	-0.518
803	-0.528
804	-0.523
804	-0.537
804	-0.526
805	-0.533
805	-0.524
806	-0.524
806	-0.513
807	-0.512
807	-0.494
807	-0.482
808	-0.471
808	-0.466
809	-0.451
809	-0.462
810	-0.46
810	-0.454
810	-0.453
811	-0.459
811	-0.452
812	-0.453
812	-0.455
813	-0.466
813	-0.462
813	-0.469
814	-0.471
814	-0.474
815	-0.476
815	-0.479
816	-0.472
816	-0.475
817	-0.481
817	-0.5
817	-0.507
818	-0.515
818	-0.512
819	-0.501
819	-0.502
820	-0.514
820	-0.51
820	-0.518
821	-0.52
821	-0.512
822	-0.482
822	-0.46
823	-0.459
823	-0.469
823	-0.468
824	-0.461
824	-0.461
825	-0.456
825	-0.438
826	-0.432
826	-0.436
826	-0.446
827	-0.444
827	-0.438
828	-0.416
828	-0.418
829	-0.412
829	-0.4
829	-0.39
830	-0.402
830	-0.397
831	-0.392
831	-0.384
832	-0.381
832	-0.373
832	-0.383
833	-0.375
833	-0.374
834	-0.37
834	-0.38
835	-0.367
835	-0.365
835	-0.362
836	-0.359
836	-0.359
837	-0.359
837	-0.347
838	-0.343
838	-0.333
839	-0.326
839	-0.315
839	-0.306
840	-0.298
840	-0.295
841	-0.284
841	-0.278
842	-0.275
842	-0.269
842	-0.264
843	-0.259
843	-0.255
844	-0.249
844	-0.243
845	-0.235
845	-0.225
845	-0.215
846	-0.207
846	-0.195
847	-0.187
847	-0.178
848	-0.171
848	-0.161
848	-0.147
849	-0.139
849	-0.132
850	-0.121
850	-0.117
851	-0.11
851	-0.103
851	-0.098
852	-0.086
852	-0.076
853	-0.07
853	-0.067
854	-0.059
854	-0.051
854	-0.044
855	-0.036
855	-0.031
856	-0.023
856	-0.017
857	-0.013
857	-0.007
857	0
858	0.006
858	0.01
859	0.013
859	0.02
860	0.024
860	0.032
860	0.036
861	0.041
861	0.046
862	0.049
862	0.053
863	0.056
863	0.06
863	0.063
864	0.065
864	0.069
865	0.071
865	0.074
866	0.077
866	0.079
866	0.081
867	0.083
867	0.085
868	0.087
868	0.09
869	0.092
869	0.093
869	0.094
870	0.095
870	0.095
871	0.097
871	0.097
872	0.097
872	0.098
872	0.097
873	0.097
873	0.097
874	0.097
874	0.097
875	0.097
875	0.096
875	0.095
876	0.094
876	0.094
877	0.093
877	0.092
878	0.092
878	0.091
878	0.09
879	0.089
879	0.088
880	0.087
880	0.087
881	0.087
881	0.087
881	0.086
882	0.086
882	0.085
883	0.084
883	0.083
884	0.082
884	0.081
884	0.08
885	0.08
885	0.08
886	0.079
886	0.079
887	0.079
887	0.079
887	0.079
888	0.08
888	0.08
889	0.081
889	0.082
890	0.083
890	0.084
890	0.084
891	0.084
891	0.085
892	0.085
892	0.085
893	0.085
893	0.085
893	0.084
894	0.083
894	0.082
895	0.082
895	0.081
895	0.081
896	0.08
896	0.08
897	0.079
897	0.078
898	0.077
898	0.076
898	0.076
899	0.076
899	0.076
900	0.076
900	0.076
901	0.077
901	0.077
901	0.077
902	0.077
902	0.077
903	0.077
903	0.076
904	0.076
904	0.077
904	0.077
905	0.077
905	0.077
906	0.077
906	0.076
907	0.075
907	0.074
907	0.074
908	0.074
908	0.073
909	0.072
909	0.071
910	0.07
910	0.069
910	0.068
911	0.068
911	0.068
912	0.069
912	0.069
913	0.069
913	0.07
913	0.07
914	0.071
914	0.072
915	0.073
915	0.074
916	0.074
916	0.075
916	0.076
917	0.076
917	0.076
918	0.077
918	0.077
918	0.076
919	0.076
919	0.076
920	0.077
920	0.077
921	0.077
921	0.077
921	0.078
922	0.078
922	0.078
923	0.078
923	0.079
924	0.079
924	0.08
924	0.08
925	0.079
925	0.079
926	0.078
926	0.077
927	0.077
927	0.076
927	0.076
928	0.075
928	0.074
929	0.074
929	0.073
930	0.073
930	0.072
930	0.072
931	0.072
931	0.073
932	0.073
932	0.073
933	0.073
933	0.072
933	0.071
934	0.071
934	0.07
935	0.069
935	0.069
935	0.068
936	0.067
936	0.066
937	0.066
937	0.066
938	0.066
938	0.065
938	0.066
939	0.066
939	0.066
940	0.066
940	0.066
941	0.066
941	0.066
941	0.065
942	0.065
942	0.065
943	0.064
943	0.064
944	0.063
944	0.062
944	0.061
945	0.061
945	0.06
946	0.059
946	0.058
946	0.058
947	0.058
947	0.059
948	0.059
948	0.06
949	0.06
949	0.061
949	0.061
950	0.062
950	0.062
951	0.063
951	0.064
952	0.065
952	0.065
952	0.066
953	0.066
953	0.067
954	0.067
954	0.068
955	0.069
955	0.069
955	0.07
956	0.07
956	0.07
957	0.071
957	0.071
957	0.071
958	0.072
958	0.073
959	0.073
959	0.073
960	0.073
960	0.073
960	0.073
961	0.073
961	0.073
962	0.072
962	0.071
963	0.071
963	0.07
963	0.069
964	0.069
964	0.069
965	0.068
965	0.068
966	0.068
966	0.068
966	0.067
967	0.067
967	0.066
968	0.066
968	0.066
968	0.065
969	0.065
969	0.065
970	0.065
970	0.064
971	0.065
971	0.065
971	0.065
972	0.065
972	0.064
973	0.064
973	0.064
974	0.063
974	0.063
974	0.062
975	0.062
975	0.061
976	0.06
976	0.059
976	0.059
977	0.058
977	0.058
978	0.058
978	0.058
979	0.058
979	0.058
979	0.058
980	0.058
980	0.058
981	0.059
981	0.059
982	0.059
982	0.059
982	0.059
983	0.059
983	0.059
984	0.058
984	0.058
984	0.058
985	0.058
985	0.058
986	0.058
986	0.059
987	0.059
987	0.06
987	0.06
988	0.06
988	0.061
989	0.061
989	0.06
990	0.06
990	0.06
990	0.059
991	0.059
991	0.059
992	0.058
992	0.057
992	0.057
993	0.057
993	0.057
994	0.057
994	0.056
995	0.056
995	0.056
995	0.056
996	0.056
996	0.055
997	0.055
997	0.056
997	0.056
998	0.056
998	0.055
999	0.056
999	0.056
1000	0.056
1000	0.056
1000	0.056
1001	0.056
1001	0.056
1002	0.055
1002	0.055
1003	0.055
1003	0.055
1003	0.054
1004	0.053
1004	0.052
1005	0.052
1005	0.051
1005	0.05
1006	0.049
1006	0.048
1007	0.047
1007	0.046
1008	0.046
1008	0.045
1008	0.045
1009	0.045
1009	0.045
1010	0.045
1010	0.045
1010	0.045
1011	0.045
1011	0.044
1012	0.044
1012	0.043
1013	0.042
1013	0.041
1013	0.04
1014	0.039
1014	0.037
1015	0.037
1015	0.036
1016	0.035
1016	0.034
1016	0.034
1017	0.034
1017	0.033
1018	0.033
1018	0.032
1018	0.032
1019	0.032
1019	0.031
1020	0.03
1020	0.029
1021	0.028
1021	0.027
1021	0.026
1022	0.025
1022	0.024
1023	0.023
1023	0.023
1023	0.022
1024	0.022
1024	0.022
1025	0.022
1025	0.022
1026	0.023
1026	0.023
1026	0.024
1027	0.024
1027	0.025
1028	0.025
1028	0.025
1028	0.024
1029	0.025
1029	0.025
1030	0.024
1030	0.024
1031	0.024
1031	0.024
1031	0.024
1032	0.024
1032	0.025
1033	0.025
1033	0.026
1033	0.027
1034	0.027
1034	0.028
1035	0.028
1035	0.028
1036	0.028
1036	0.028
1036	0.028
1037	0.028
1037	0.028
1038	0.027
1038	0.027
1039	0.027
1039	0.027
1039	0.027
1040	0.027
1040	0.027
1041	0.028
1041	0.029
1041	0.029
1042	0.029
1042	0.029
1043	0.03
1043	0.03
1044	0.03
1044	0.03
1044	0.03
1045	0.029
1045	0.029
1046	0.029
1046	0.029
1046	0.029
1047	0.03
1047	0.03
1048	0.031
1048	0.031
1049	0.032
1049	0.032
1049	0.032
1050	0.033
1050	0.033
1051	0.033
1051	0.033
1051	0.033
1052	0.034
1052	0.034
1053	0.033
1053	0.033
1053	0.033
1054	0.033
1054	0.032
1055	0.032
1055	0.032
1056	0.031
1056	0.029
1056	0.028
1057	0.028
1057	0.027
1058	0.026
1058	0.025
1058	0.025
1059	0.024
1059	0.023
1060	0.023
1060	0.023
1061	0.023
1061	0.023
1061	0.023
1062	0.023
1062	0.023
1063	0.023
1063	0.023
1063	0.023
1064	0.024
1064	0.023
1065	0.023
1065	0.023
1066	0.022
1066	0.022
1066	0.021
1067	0.021
1067	0.02
1068	0.019
1068	0.019
1068	0.018
1069	0.019
1069	0.018
1070	0.018
1070	0.018
1071	0.018
1071	0.018
1071	0.018
1072	0.018
1072	0.018
1073	0.018
1073	0.018
1073	0.017
1074	0.017
1074	0.018
1075	0.017
1075	0.017
1076	0.017
1076	0.016
1076	0.016
1077	0.016
1077	0.016
1078	0.015
1078	0.015
1078	0.014
1079	0.013
1079	0.012
1080	0.011
1080	0.011
1080	0.01
1081	0.01
1081	0.009
1082	0.009
1082	0.007
1083	0.007
1083	0.007
1083	0.006
1084	0.006
1084	0.006
1085	0.005
1085	0.004
1085	0.004
1086	0.004
1086	0.003
1087	0.003
1087	0.003
1088	0.002
1088	0.002
1088	0.002
1089	0.002
1089	0.001
1090	0.001
1090	0
1090	0
1091	0
1091	0.001
1092	0
1092	0.001
1092	-0.001
1093	-0.001
1093	-0.001
1094	-0
1094	-0.001
1095	-0.001
1095	-0.001
1095	-0.001
1096	-0.001
1096	-0.001
1097	-0.002
1097	-0.002
1097	-0.001
1098	-0.002
1098	-0.003
1099	-0.003
1099	-0.003
1100	-0.004
1100	-0.005
1100	-0.006
1101	-0.007
1101	-0.009
1102	-0.01
1102	-0.011
1102	-0.011
1103	-0.012
1103	-0.013
1104	-0.014
1104	-0.015
1104	-0.016
1105	-0.017
1105	-0.02
1106	-0.023
1106	-0.024
1107	-0.027
1107	-0.03
1107	-0.034
1108	-0.036
1108	-0.038
1109	-0.041
1109	-0.045
1109	-0.048
1110	-0.047
1110	-0.049
1111	-0.056
1111	-0.056
