Data from 17C_3.4A_30min_2sec_int_Absorbance__72__00072.txt Node

Date: Mon Jun 19 16:07:48 CEST 2023
User: Marek
Spectrometer: MAYP115816
Trigger mode: 0
Integration Time (sec): 2.500000E-1
Scans to average: 10
Electric dark correction enabled: true
Nonlinearity correction enabled: true
Boxcar width: 5
XAxis mode: Wavelengths
Number of Pixels in Spectrum: 2068
>>>>>Begin Spectral Data<<<<<
199	-0.235
199	-0.249
200	-0.163
200	-0.135
201	-0.109
201	-0.104
202	-0.098
202	-0.085
203	-0.084
203	-0.081
204	-0.073
204	-0.067
205	-0.053
205	-0.053
205	-0.051
206	-0.054
206	-0.053
207	-0.044
207	-0.049
208	-0.05
208	-0.048
209	-0.044
209	-0.045
210	-0.047
210	-0.054
211	-0.053
211	-0.056
212	-0.056
212	-0.063
213	-0.059
213	-0.056
213	-0.063
214	-0.06
214	-0.061
215	-0.061
215	-0.061
216	-0.066
216	-0.069
217	-0.071
217	-0.073
218	-0.077
218	-0.08
219	-0.08
219	-0.092
220	-0.094
220	-0.095
221	-0.098
221	-0.094
221	-0.089
222	-0.085
222	-0.081
223	-0.082
223	-0.083
224	-0.081
224	-0.074
225	-0.071
225	-0.068
226	-0.067
226	-0.065
227	-0.07
227	-0.074
228	-0.077
228	-0.075
229	-0.072
229	-0.072
229	-0.07
230	-0.073
230	-0.079
231	-0.071
231	-0.069
232	-0.062
232	-0.064
233	-0.061
233	-0.06
234	-0.059
234	-0.058
235	-0.062
235	-0.062
236	-0.06
236	-0.073
236	-0.08
237	-0.083
237	-0.082
238	-0.087
238	-0.082
239	-0.086
239	-0.091
240	-0.095
240	-0.09
241	-0.088
241	-0.08
242	-0.082
242	-0.078
243	-0.073
243	-0.078
243	-0.084
244	-0.08
244	-0.078
245	-0.08
245	-0.083
246	-0.092
246	-0.094
247	-0.096
247	-0.103
248	-0.11
248	-0.1
249	-0.104
249	-0.111
250	-0.112
250	-0.112
250	-0.113
251	-0.106
251	-0.106
252	-0.106
252	-0.1
253	-0.1
253	-0.113
254	-0.116
254	-0.113
255	-0.108
255	-0.1
256	-0.091
256	-0.096
257	-0.096
257	-0.091
258	-0.103
258	-0.104
258	-0.103
259	-0.096
259	-0.105
260	-0.114
260	-0.119
261	-0.13
261	-0.134
262	-0.128
262	-0.132
263	-0.121
263	-0.113
264	-0.102
264	-0.109
265	-0.103
265	-0.107
265	-0.11
266	-0.112
266	-0.105
267	-0.119
267	-0.121
268	-0.13
268	-0.133
269	-0.133
269	-0.126
270	-0.126
270	-0.124
271	-0.119
271	-0.123
272	-0.118
272	-0.116
272	-0.108
273	-0.104
273	-0.116
274	-0.128
274	-0.131
275	-0.136
275	-0.126
276	-0.126
276	-0.122
277	-0.126
277	-0.134
278	-0.14
278	-0.135
278	-0.121
279	-0.121
279	-0.124
280	-0.119
280	-0.125
281	-0.123
281	-0.118
282	-0.112
282	-0.109
283	-0.107
283	-0.101
284	-0.101
284	-0.086
285	-0.084
285	-0.081
285	-0.076
286	-0.08
286	-0.082
287	-0.08
287	-0.068
288	-0.064
288	-0.071
289	-0.082
289	-0.091
290	-0.086
290	-0.089
291	-0.087
291	-0.087
292	-0.08
292	-0.085
292	-0.09
293	-0.089
293	-0.087
294	-0.086
294	-0.08
295	-0.072
295	-0.066
296	-0.07
296	-0.064
297	-0.064
297	-0.055
298	-0.052
298	-0.056
298	-0.049
299	-0.034
299	-0.034
300	-0.035
300	-0.036
301	-0.025
301	-0.018
302	-0.023
302	-0.025
303	-0.018
303	-0.012
304	-0.012
304	-0.02
305	-0.024
305	-0.015
305	-0.004
306	-0.001
306	-0.004
307	0.002
307	-0.001
308	-0.009
308	-0.005
309	-0.01
309	-0.001
310	0.008
310	0.003
311	-0.004
311	-0.005
311	-0.003
312	0.001
312	0.001
313	0.01
313	0.015
314	0.02
314	0.022
315	0.02
315	0.023
316	0.035
316	0.04
317	0.038
317	0.039
318	0.049
318	0.057
318	0.048
319	0.058
319	0.059
320	0.061
320	0.062
321	0.055
321	0.06
322	0.069
322	0.072
323	0.073
323	0.075
324	0.087
324	0.083
324	0.086
325	0.096
325	0.1
326	0.111
326	0.114
327	0.119
327	0.134
328	0.145
328	0.155
329	0.163
329	0.179
330	0.196
330	0.211
330	0.224
331	0.237
331	0.249
332	0.261
332	0.267
333	0.274
333	0.284
334	0.291
334	0.296
335	0.302
335	0.307
336	0.312
336	0.315
336	0.319
337	0.322
337	0.325
338	0.328
338	0.33
339	0.332
339	0.334
340	0.335
340	0.336
341	0.336
341	0.337
342	0.338
342	0.339
342	0.34
343	0.34
343	0.341
344	0.341
344	0.341
345	0.341
345	0.341
346	0.341
346	0.341
347	0.341
347	0.341
348	0.341
348	0.34
348	0.34
349	0.34
349	0.34
350	0.339
350	0.339
351	0.339
351	0.339
352	0.339
352	0.338
353	0.338
353	0.338
354	0.338
354	0.337
354	0.337
355	0.337
355	0.337
356	0.336
356	0.336
357	0.336
357	0.336
358	0.335
358	0.335
359	0.335
359	0.335
360	0.334
360	0.334
360	0.334
361	0.333
361	0.333
362	0.333
362	0.332
363	0.332
363	0.332
364	0.332
364	0.331
365	0.331
365	0.331
366	0.331
366	0.331
366	0.331
367	0.331
367	0.331
368	0.33
368	0.33
369	0.33
369	0.329
370	0.329
370	0.329
371	0.328
371	0.328
372	0.328
372	0.327
372	0.327
373	0.327
373	0.327
374	0.326
374	0.326
375	0.326
375	0.326
376	0.326
376	0.325
377	0.325
377	0.325
378	0.325
378	0.325
378	0.325
379	0.325
379	0.324
380	0.324
380	0.323
381	0.323
381	0.323
382	0.322
382	0.322
383	0.322
383	0.321
383	0.321
384	0.321
384	0.321
385	0.321
385	0.321
386	0.32
386	0.32
387	0.32
387	0.32
388	0.319
388	0.319
389	0.319
389	0.319
389	0.318
390	0.318
390	0.318
391	0.317
391	0.317
392	0.317
392	0.317
393	0.317
393	0.316
394	0.316
394	0.316
394	0.315
395	0.315
395	0.315
396	0.315
396	0.314
397	0.314
397	0.314
398	0.314
398	0.313
399	0.313
399	0.313
400	0.312
400	0.312
400	0.311
401	0.311
401	0.311
402	0.31
402	0.31
403	0.31
403	0.309
404	0.309
404	0.309
405	0.309
405	0.308
405	0.308
406	0.308
406	0.307
407	0.307
407	0.307
408	0.307
408	0.307
409	0.307
409	0.306
410	0.306
410	0.306
411	0.306
411	0.306
411	0.306
412	0.306
412	0.306
413	0.305
413	0.305
414	0.305
414	0.304
415	0.304
415	0.304
416	0.304
416	0.303
416	0.303
417	0.303
417	0.303
418	0.303
418	0.303
419	0.302
419	0.302
420	0.302
420	0.302
421	0.302
421	0.302
421	0.302
422	0.302
422	0.302
423	0.301
423	0.301
424	0.301
424	0.301
425	0.301
425	0.3
426	0.3
426	0.3
427	0.299
427	0.299
427	0.299
428	0.299
428	0.299
429	0.298
429	0.298
430	0.298
430	0.298
431	0.298
431	0.298
432	0.298
432	0.298
432	0.297
433	0.297
433	0.297
434	0.297
434	0.296
435	0.296
435	0.296
436	0.296
436	0.296
437	0.296
437	0.296
437	0.296
438	0.296
438	0.296
439	0.295
439	0.295
440	0.295
440	0.295
441	0.294
441	0.294
442	0.294
442	0.293
442	0.293
443	0.293
443	0.293
444	0.294
444	0.294
445	0.293
445	0.294
446	0.294
446	0.294
447	0.294
447	0.294
447	0.294
448	0.294
448	0.294
449	0.294
449	0.294
450	0.294
450	0.294
451	0.294
451	0.294
452	0.294
452	0.294
452	0.294
453	0.294
453	0.294
454	0.294
454	0.294
455	0.294
455	0.294
456	0.294
456	0.294
457	0.294
457	0.294
458	0.294
458	0.294
458	0.294
459	0.294
459	0.294
460	0.294
460	0.295
461	0.295
461	0.295
462	0.295
462	0.295
463	0.296
463	0.296
463	0.296
464	0.296
464	0.296
465	0.297
465	0.297
466	0.297
466	0.298
467	0.298
467	0.298
467	0.299
468	0.299
468	0.3
469	0.3
469	0.301
470	0.301
470	0.301
471	0.302
471	0.302
472	0.302
472	0.302
472	0.303
473	0.303
473	0.303
474	0.304
474	0.305
475	0.305
475	0.305
476	0.306
476	0.307
477	0.307
477	0.308
477	0.308
478	0.309
478	0.31
479	0.31
479	0.311
480	0.311
480	0.312
481	0.313
481	0.314
482	0.315
482	0.316
482	0.317
483	0.317
483	0.318
484	0.319
484	0.319
485	0.32
485	0.321
486	0.322
486	0.323
487	0.324
487	0.325
487	0.326
488	0.327
488	0.329
489	0.331
489	0.332
490	0.334
490	0.335
491	0.337
491	0.338
492	0.34
492	0.341
492	0.343
493	0.345
493	0.346
494	0.348
494	0.35
495	0.351
495	0.353
496	0.355
496	0.357
496	0.359
497	0.361
497	0.363
498	0.365
498	0.367
499	0.37
499	0.372
500	0.374
500	0.377
501	0.379
501	0.381
501	0.383
502	0.385
502	0.387
503	0.389
503	0.391
504	0.393
504	0.395
505	0.398
505	0.4
506	0.402
506	0.405
506	0.407
507	0.41
507	0.412
508	0.415
508	0.418
509	0.42
509	0.422
510	0.425
510	0.427
511	0.43
511	0.432
511	0.434
512	0.436
512	0.439
513	0.441
513	0.443
514	0.445
514	0.448
515	0.45
515	0.452
515	0.454
516	0.457
516	0.459
517	0.461
517	0.463
518	0.465
518	0.466
519	0.469
519	0.471
520	0.473
520	0.475
520	0.477
521	0.479
521	0.481
522	0.482
522	0.484
523	0.486
523	0.487
524	0.489
524	0.49
524	0.491
525	0.492
525	0.493
526	0.494
526	0.495
527	0.496
527	0.497
528	0.498
528	0.499
529	0.5
529	0.501
529	0.502
530	0.503
530	0.503
531	0.503
531	0.503
532	0.504
532	0.504
533	0.504
533	0.504
533	0.504
534	0.505
534	0.505
535	0.505
535	0.505
536	0.505
536	0.505
537	0.505
537	0.504
538	0.504
538	0.503
538	0.503
539	0.503
539	0.502
540	0.501
540	0.501
541	0.5
541	0.499
542	0.498
542	0.497
542	0.496
543	0.495
543	0.493
544	0.492
544	0.491
545	0.49
545	0.489
546	0.488
546	0.487
547	0.486
547	0.485
547	0.485
548	0.484
548	0.483
549	0.482
549	0.481
550	0.479
550	0.478
551	0.477
551	0.475
551	0.474
552	0.473
552	0.471
553	0.47
553	0.469
554	0.468
554	0.466
555	0.465
555	0.464
556	0.463
556	0.462
556	0.461
557	0.459
557	0.458
558	0.456
558	0.455
559	0.453
559	0.452
560	0.451
560	0.449
560	0.448
561	0.446
561	0.444
562	0.443
562	0.441
563	0.439
563	0.438
564	0.437
564	0.435
564	0.433
565	0.432
565	0.43
566	0.429
566	0.427
567	0.425
567	0.423
568	0.421
568	0.419
568	0.417
569	0.416
569	0.414
570	0.412
570	0.41
571	0.409
571	0.407
572	0.406
572	0.404
573	0.402
573	0.401
573	0.399
574	0.398
574	0.397
575	0.395
575	0.394
576	0.392
576	0.39
577	0.389
577	0.389
577	0.388
578	0.387
578	0.385
579	0.384
579	0.383
580	0.381
580	0.38
581	0.378
581	0.377
581	0.376
582	0.375
582	0.373
583	0.371
583	0.37
584	0.368
584	0.367
585	0.366
585	0.364
585	0.363
586	0.362
586	0.361
587	0.36
587	0.359
588	0.358
588	0.357
589	0.356
589	0.355
590	0.353
590	0.352
590	0.351
591	0.349
591	0.347
592	0.346
592	0.344
593	0.343
593	0.342
594	0.34
594	0.339
594	0.338
595	0.337
595	0.335
596	0.334
596	0.333
597	0.332
597	0.33
598	0.329
598	0.328
598	0.327
599	0.325
599	0.324
600	0.323
600	0.322
601	0.321
601	0.319
602	0.318
602	0.316
602	0.315
603	0.314
603	0.313
604	0.312
604	0.311
605	0.31
605	0.309
606	0.307
606	0.306
606	0.305
607	0.303
607	0.302
608	0.301
608	0.299
609	0.298
609	0.297
610	0.296
610	0.295
610	0.294
611	0.293
611	0.292
612	0.291
612	0.29
613	0.288
613	0.287
614	0.286
614	0.285
614	0.283
615	0.282
615	0.281
616	0.279
616	0.278
617	0.276
617	0.275
618	0.273
618	0.271
618	0.27
619	0.268
619	0.267
620	0.265
620	0.264
621	0.262
621	0.261
622	0.26
622	0.258
622	0.257
623	0.255
623	0.254
624	0.253
624	0.251
625	0.25
625	0.249
626	0.248
626	0.246
626	0.245
627	0.244
627	0.242
628	0.24
628	0.238
629	0.236
629	0.234
630	0.232
630	0.229
630	0.227
631	0.224
631	0.221
632	0.218
632	0.214
633	0.211
633	0.208
634	0.204
634	0.2
634	0.196
635	0.192
635	0.187
636	0.182
636	0.178
637	0.173
637	0.168
638	0.163
638	0.157
638	0.152
639	0.147
639	0.14
640	0.135
640	0.129
641	0.123
641	0.118
642	0.112
642	0.107
642	0.101
643	0.095
643	0.089
644	0.082
644	0.076
645	0.07
645	0.063
646	0.056
646	0.049
646	0.042
647	0.035
647	0.028
648	0.022
648	0.015
649	0.008
649	0.001
650	-0.005
650	-0.012
650	-0.018
651	-0.026
651	-0.037
652	-0.049
652	-0.062
653	-0.074
653	-0.083
653	-0.079
654	-0.058
654	-0.043
655	-0.043
655	-0.045
656	-0.048
656	-0.051
657	-0.053
657	-0.055
657	-0.059
658	-0.064
658	-0.087
659	-0.161
659	-0.257
660	-0.299
660	-0.325
661	-0.356
661	-0.389
661	-0.429
662	-0.469
662	-0.51
663	-0.558
663	-0.61
664	-0.664
664	-0.724
665	-0.786
665	-0.855
665	-0.921
666	-0.988
666	-1.059
667	-1.133
667	-1.208
668	-1.29
668	-1.374
669	-1.461
669	-1.555
669	-1.669
670	-1.847
670	-2.051
671	-2.155
671	-2.273
672	-2.424
672	-2.568
672	-2.666
673	-2.736
673	-2.761
674	-2.778
674	-2.787
675	-2.793
675	-2.88
676	-3.03
676	-2.966
676	-2.72
677	-2.479
677	-2.245
678	-1.882
678	-1.679
679	-1.555
679	-1.458
680	-1.378
680	-1.309
680	-1.247
681	-1.207
681	-1.15
682	-1.109
682	-1.07
683	-1.034
683	-1.011
684	-0.983
684	-0.957
684	-0.93
685	-0.9
685	-0.871
686	-0.841
686	-0.817
687	-0.785
687	-0.764
687	-0.737
688	-0.707
688	-0.681
689	-0.653
689	-0.632
690	-0.607
690	-0.588
691	-0.578
691	-0.576
691	-0.586
692	-0.574
692	-0.56
693	-0.55
693	-0.547
694	-0.538
694	-0.528
695	-0.525
695	-0.518
695	-0.495
696	-0.488
696	-0.462
697	-0.455
697	-0.464
698	-0.462
698	-0.448
698	-0.451
699	-0.449
699	-0.447
700	-0.436
700	-0.444
701	-0.44
701	-0.444
702	-0.443
702	-0.43
702	-0.419
703	-0.414
703	-0.408
704	-0.403
704	-0.397
705	-0.403
705	-0.397
705	-0.383
706	-0.378
706	-0.372
707	-0.37
707	-0.363
708	-0.359
708	-0.353
709	-0.355
709	-0.353
709	-0.346
710	-0.347
710	-0.355
711	-0.347
711	-0.345
712	-0.349
712	-0.36
713	-0.361
713	-0.36
713	-0.35
714	-0.349
714	-0.346
715	-0.339
715	-0.324
716	-0.329
716	-0.33
716	-0.318
717	-0.32
717	-0.32
718	-0.315
718	-0.315
719	-0.315
719	-0.313
720	-0.309
720	-0.316
720	-0.311
721	-0.301
721	-0.297
722	-0.282
722	-0.27
723	-0.267
723	-0.269
723	-0.255
724	-0.26
724	-0.26
725	-0.256
725	-0.259
726	-0.271
726	-0.279
727	-0.28
727	-0.288
727	-0.296
728	-0.296
728	-0.3
729	-0.299
729	-0.302
730	-0.308
730	-0.301
730	-0.288
731	-0.274
731	-0.281
732	-0.288
732	-0.286
733	-0.281
733	-0.286
734	-0.278
734	-0.279
734	-0.273
735	-0.271
735	-0.274
736	-0.28
736	-0.271
737	-0.263
737	-0.264
737	-0.27
738	-0.271
738	-0.27
739	-0.271
739	-0.276
740	-0.272
740	-0.261
741	-0.257
741	-0.254
741	-0.254
742	-0.249
742	-0.252
743	-0.252
743	-0.256
744	-0.25
744	-0.244
744	-0.241
745	-0.248
745	-0.244
746	-0.242
746	-0.239
747	-0.243
747	-0.229
748	-0.218
748	-0.219
748	-0.22
749	-0.217
749	-0.219
750	-0.214
750	-0.212
751	-0.218
751	-0.228
751	-0.224
752	-0.231
752	-0.241
753	-0.243
753	-0.241
754	-0.246
754	-0.24
754	-0.254
755	-0.264
755	-0.27
756	-0.261
756	-0.26
757	-0.26
757	-0.257
758	-0.257
758	-0.252
758	-0.252
759	-0.257
759	-0.239
760	-0.237
760	-0.239
761	-0.247
761	-0.246
761	-0.239
762	-0.245
762	-0.243
763	-0.248
763	-0.25
764	-0.253
764	-0.266
764	-0.269
765	-0.26
765	-0.251
766	-0.254
766	-0.262
767	-0.269
767	-0.266
768	-0.265
768	-0.272
768	-0.276
769	-0.29
769	-0.292
770	-0.287
770	-0.29
771	-0.286
771	-0.287
771	-0.288
772	-0.285
772	-0.274
773	-0.271
773	-0.268
774	-0.264
774	-0.267
775	-0.274
775	-0.27
775	-0.278
776	-0.281
776	-0.276
777	-0.291
777	-0.32
778	-0.323
778	-0.339
778	-0.33
779	-0.343
779	-0.35
780	-0.361
780	-0.358
781	-0.364
781	-0.363
781	-0.377
782	-0.378
782	-0.377
783	-0.374
783	-0.376
784	-0.361
784	-0.353
784	-0.365
785	-0.376
785	-0.367
786	-0.37
786	-0.345
787	-0.324
787	-0.32
788	-0.311
788	-0.318
788	-0.326
789	-0.322
789	-0.3
790	-0.283
790	-0.279
791	-0.274
791	-0.285
791	-0.29
792	-0.284
792	-0.258
793	-0.241
793	-0.223
794	-0.227
794	-0.225
794	-0.224
795	-0.223
795	-0.222
796	-0.212
796	-0.222
797	-0.215
797	-0.228
797	-0.235
798	-0.238
798	-0.23
799	-0.237
799	-0.232
800	-0.235
800	-0.225
801	-0.223
801	-0.209
801	-0.218
802	-0.226
802	-0.225
803	-0.233
803	-0.248
804	-0.242
804	-0.249
804	-0.24
805	-0.249
805	-0.256
806	-0.249
806	-0.237
807	-0.24
807	-0.226
807	-0.218
808	-0.212
808	-0.216
809	-0.201
809	-0.212
810	-0.211
810	-0.199
810	-0.21
811	-0.219
811	-0.209
812	-0.209
812	-0.212
813	-0.212
813	-0.204
813	-0.218
814	-0.219
814	-0.218
815	-0.222
815	-0.227
816	-0.221
816	-0.224
817	-0.233
817	-0.241
817	-0.254
818	-0.267
818	-0.262
819	-0.255
819	-0.255
820	-0.264
820	-0.251
820	-0.257
821	-0.256
821	-0.246
822	-0.223
822	-0.202
823	-0.198
823	-0.202
823	-0.197
824	-0.19
824	-0.197
825	-0.194
825	-0.176
826	-0.172
826	-0.178
826	-0.191
827	-0.19
827	-0.189
828	-0.173
828	-0.178
829	-0.174
829	-0.16
829	-0.153
830	-0.166
830	-0.165
831	-0.164
831	-0.155
832	-0.158
832	-0.15
832	-0.156
833	-0.151
833	-0.154
834	-0.151
834	-0.157
835	-0.144
835	-0.148
835	-0.142
836	-0.146
836	-0.144
837	-0.144
837	-0.143
838	-0.138
838	-0.13
839	-0.127
839	-0.124
839	-0.123
840	-0.112
840	-0.113
841	-0.101
841	-0.091
842	-0.087
842	-0.082
842	-0.083
843	-0.084
843	-0.08
844	-0.078
844	-0.077
845	-0.078
845	-0.071
845	-0.066
846	-0.064
846	-0.059
847	-0.056
847	-0.05
848	-0.047
848	-0.045
848	-0.037
849	-0.033
849	-0.029
850	-0.026
850	-0.025
851	-0.026
851	-0.023
851	-0.019
852	-0.013
852	-0.009
853	-0.005
853	-0.005
854	-0.001
854	0.003
854	0.006
855	0.009
855	0.011
856	0.014
856	0.017
857	0.019
857	0.023
857	0.026
858	0.029
858	0.03
859	0.032
859	0.034
860	0.036
860	0.039
860	0.04
861	0.04
861	0.04
862	0.041
862	0.042
863	0.043
863	0.045
863	0.045
864	0.046
864	0.046
865	0.047
865	0.049
866	0.05
866	0.05
866	0.05
867	0.05
867	0.051
868	0.051
868	0.052
869	0.053
869	0.053
869	0.053
870	0.053
870	0.053
871	0.054
871	0.055
872	0.055
872	0.055
872	0.055
873	0.056
873	0.056
874	0.056
874	0.056
875	0.056
875	0.056
875	0.055
876	0.055
876	0.055
877	0.055
877	0.055
878	0.054
878	0.054
878	0.053
879	0.053
879	0.052
880	0.052
880	0.052
881	0.052
881	0.052
881	0.051
882	0.051
882	0.05
883	0.05
883	0.05
884	0.05
884	0.049
884	0.049
885	0.048
885	0.048
886	0.048
886	0.048
887	0.048
887	0.049
887	0.049
888	0.05
888	0.05
889	0.051
889	0.052
890	0.053
890	0.053
890	0.053
891	0.053
891	0.053
892	0.053
892	0.053
893	0.053
893	0.053
893	0.053
894	0.052
894	0.051
895	0.05
895	0.049
895	0.048
896	0.047
896	0.046
897	0.045
897	0.043
898	0.042
898	0.042
898	0.041
899	0.04
899	0.041
900	0.04
900	0.04
901	0.041
901	0.041
901	0.041
902	0.041
902	0.041
903	0.041
903	0.041
904	0.041
904	0.041
904	0.042
905	0.042
905	0.042
906	0.042
906	0.041
907	0.041
907	0.04
907	0.04
908	0.039
908	0.038
909	0.038
909	0.037
910	0.036
910	0.035
910	0.035
911	0.034
911	0.034
912	0.034
912	0.034
913	0.034
913	0.035
913	0.036
914	0.036
914	0.037
915	0.038
915	0.038
916	0.039
916	0.039
916	0.04
917	0.04
917	0.04
918	0.04
918	0.039
918	0.039
919	0.038
919	0.038
920	0.038
920	0.038
921	0.039
921	0.039
921	0.039
922	0.04
922	0.04
923	0.041
923	0.041
924	0.042
924	0.042
924	0.043
925	0.042
925	0.042
926	0.042
926	0.041
927	0.041
927	0.041
927	0.04
928	0.04
928	0.039
929	0.038
929	0.038
930	0.038
930	0.038
930	0.038
931	0.038
931	0.038
932	0.038
932	0.039
933	0.039
933	0.039
933	0.038
934	0.038
934	0.038
935	0.037
935	0.037
935	0.037
936	0.037
936	0.036
937	0.036
937	0.036
938	0.036
938	0.036
938	0.037
939	0.037
939	0.037
940	0.037
940	0.037
941	0.037
941	0.037
941	0.037
942	0.037
942	0.037
943	0.036
943	0.036
944	0.035
944	0.034
944	0.034
945	0.033
945	0.033
946	0.032
946	0.031
946	0.031
947	0.031
947	0.031
948	0.032
948	0.032
949	0.032
949	0.033
949	0.033
950	0.033
950	0.033
951	0.034
951	0.035
952	0.035
952	0.036
952	0.036
953	0.037
953	0.037
954	0.037
954	0.038
955	0.039
955	0.039
955	0.04
956	0.04
956	0.04
957	0.04
957	0.04
957	0.04
958	0.04
958	0.04
959	0.041
959	0.04
960	0.04
960	0.04
960	0.04
961	0.04
961	0.04
962	0.04
962	0.04
963	0.041
963	0.04
963	0.04
964	0.04
964	0.04
965	0.04
965	0.04
966	0.04
966	0.039
966	0.039
967	0.039
967	0.038
968	0.038
968	0.038
968	0.037
969	0.037
969	0.036
970	0.036
970	0.036
971	0.036
971	0.036
971	0.035
972	0.035
972	0.034
973	0.034
973	0.033
974	0.032
974	0.032
974	0.031
975	0.03
975	0.029
976	0.028
976	0.027
976	0.026
977	0.026
977	0.026
978	0.026
978	0.026
979	0.026
979	0.026
979	0.026
980	0.027
980	0.027
981	0.028
981	0.028
982	0.028
982	0.028
982	0.027
983	0.027
983	0.027
984	0.026
984	0.026
984	0.026
985	0.026
985	0.026
986	0.026
986	0.027
987	0.027
987	0.028
987	0.028
988	0.029
988	0.029
989	0.029
989	0.029
990	0.028
990	0.027
990	0.027
991	0.026
991	0.026
992	0.025
992	0.025
992	0.025
993	0.024
993	0.024
994	0.024
994	0.024
995	0.024
995	0.024
995	0.025
996	0.025
996	0.025
997	0.025
997	0.026
997	0.026
998	0.026
998	0.026
999	0.026
999	0.026
1000	0.027
1000	0.027
1000	0.027
1001	0.026
1001	0.026
1002	0.025
1002	0.025
1003	0.025
1003	0.024
1003	0.024
1004	0.023
1004	0.022
1005	0.022
1005	0.02
1005	0.02
1006	0.019
1006	0.019
1007	0.018
1007	0.017
1008	0.017
1008	0.017
1008	0.017
1009	0.017
1009	0.017
1010	0.017
1010	0.017
1010	0.017
1011	0.016
1011	0.016
1012	0.015
1012	0.014
1013	0.013
1013	0.012
1013	0.011
1014	0.01
1014	0.009
1015	0.008
1015	0.007
1016	0.006
1016	0.006
1016	0.005
1017	0.005
1017	0.005
1018	0.004
1018	0.004
1018	0.003
1019	0.003
1019	0.002
1020	0.001
1020	0
1021	-0.001
1021	-0.002
1021	-0.003
1022	-0.003
1022	-0.004
1023	-0.005
1023	-0.005
1023	-0.005
1024	-0.005
1024	-0.005
1025	-0.005
1025	-0.004
1026	-0.003
1026	-0.003
1026	-0.002
1027	-0.002
1027	-0.001
1028	-0.001
1028	-0
1028	-0
1029	0
1029	0
1030	0
1030	0
1031	0
1031	0
1031	0.001
1032	0.001
1032	0.002
1033	0.002
1033	0.003
1033	0.004
1034	0.005
1034	0.006
1035	0.006
1035	0.007
1036	0.007
1036	0.007
1036	0.007
1037	0.007
1037	0.007
1038	0.007
1038	0.006
1039	0.006
1039	0.006
1039	0.006
1040	0.007
1040	0.007
1041	0.008
1041	0.008
1041	0.009
1042	0.009
1042	0.009
1043	0.009
1043	0.01
1044	0.01
1044	0.01
1044	0.01
1045	0.01
1045	0.01
1046	0.01
1046	0.01
1046	0.01
1047	0.011
1047	0.011
1048	0.011
1048	0.012
1049	0.012
1049	0.013
1049	0.013
1050	0.013
1050	0.014
1051	0.013
1051	0.014
1051	0.014
1052	0.014
1052	0.014
1053	0.014
1053	0.014
1053	0.013
1054	0.013
1054	0.012
1055	0.011
1055	0.011
1056	0.01
1056	0.009
1056	0.008
1057	0.007
1057	0.006
1058	0.005
1058	0.004
1058	0.004
1059	0.003
1059	0.003
1060	0.003
1060	0.003
1061	0.003
1061	0.003
1061	0.004
1062	0.004
1062	0.004
1063	0.004
1063	0.004
1063	0.004
1064	0.005
1064	0.004
1065	0.004
1065	0.003
1066	0.003
1066	0.002
1066	0.002
1067	0.002
1067	0.001
1068	0.001
1068	0.001
1068	0.001
1069	0.001
1069	0
1070	0
1070	0.001
1071	0.001
1071	0.001
1071	0.001
1072	0.001
1072	0
1073	-0
1073	-0
1073	-0.001
1074	-0.001
1074	-0.001
1075	-0.002
1075	-0.002
1076	-0.003
1076	-0.003
1076	-0.003
1077	-0.003
1077	-0.004
1078	-0.004
1078	-0.005
1078	-0.006
1079	-0.006
1079	-0.007
1080	-0.008
1080	-0.008
1080	-0.009
1081	-0.009
1081	-0.01
1082	-0.01
1082	-0.011
1083	-0.011
1083	-0.012
1083	-0.012
1084	-0.012
1084	-0.012
1085	-0.013
1085	-0.013
1085	-0.013
1086	-0.012
1086	-0.012
1087	-0.012
1087	-0.011
1088	-0.011
1088	-0.011
1088	-0.01
1089	-0.01
1089	-0.01
1090	-0.009
1090	-0.009
1090	-0.009
1091	-0.008
1091	-0.008
1092	-0.008
1092	-0.007
1092	-0.008
1093	-0.008
1093	-0.007
1094	-0.007
1094	-0.007
1095	-0.008
1095	-0.007
1095	-0.007
1096	-0.008
1096	-0.008
1097	-0.008
1097	-0.007
1097	-0.006
1098	-0.006
1098	-0.007
1099	-0.007
1099	-0.006
1100	-0.006
1100	-0.006
1100	-0.006
1101	-0.006
1101	-0.006
1102	-0.007
1102	-0.007
1102	-0.007
1103	-0.008
1103	-0.008
1104	-0.009
1104	-0.008
1104	-0.008
1105	-0.009
1105	-0.011
1106	-0.011
1106	-0.012
1107	-0.013
1107	-0.015
1107	-0.016
1108	-0.016
1108	-0.017
1109	-0.02
1109	-0.021
1109	-0.023
1110	-0.021
1110	-0.023
1111	-0.024
1111	-0.029
