Data from 17C_3.4A_30min_2sec_int_Absorbance__44__00044.txt Node

Date: Mon Jun 19 16:06:38 CEST 2023
User: Marek
Spectrometer: MAYP115816
Trigger mode: 0
Integration Time (sec): 2.500000E-1
Scans to average: 10
Electric dark correction enabled: true
Nonlinearity correction enabled: true
Boxcar width: 5
XAxis mode: Wavelengths
Number of Pixels in Spectrum: 2068
>>>>>Begin Spectral Data<<<<<
199	-0.218
199	-0.226
200	-0.151
200	-0.118
201	-0.086
201	-0.085
202	-0.076
202	-0.073
203	-0.065
203	-0.058
204	-0.049
204	-0.044
205	-0.029
205	-0.028
205	-0.023
206	-0.028
206	-0.025
207	-0.015
207	-0.012
208	-0.011
208	-0.011
209	-0.008
209	-0.005
210	-0.01
210	-0.009
211	-0.012
211	-0.015
212	-0.015
212	-0.023
213	-0.02
213	-0.02
213	-0.026
214	-0.021
214	-0.021
215	-0.023
215	-0.029
216	-0.036
216	-0.038
217	-0.035
217	-0.043
218	-0.047
218	-0.052
219	-0.049
219	-0.056
220	-0.057
220	-0.053
221	-0.049
221	-0.044
221	-0.045
222	-0.041
222	-0.037
223	-0.04
223	-0.038
224	-0.043
224	-0.045
225	-0.045
225	-0.043
226	-0.045
226	-0.044
227	-0.044
227	-0.045
228	-0.041
228	-0.036
229	-0.036
229	-0.032
229	-0.025
230	-0.032
230	-0.038
231	-0.032
231	-0.029
232	-0.022
232	-0.027
233	-0.025
233	-0.028
234	-0.029
234	-0.024
235	-0.029
235	-0.023
236	-0.026
236	-0.029
236	-0.035
237	-0.04
237	-0.037
238	-0.047
238	-0.045
239	-0.04
239	-0.051
240	-0.05
240	-0.052
241	-0.043
241	-0.048
242	-0.049
242	-0.045
243	-0.043
243	-0.042
243	-0.043
244	-0.045
244	-0.041
245	-0.045
245	-0.04
246	-0.045
246	-0.045
247	-0.04
247	-0.05
248	-0.053
248	-0.048
249	-0.046
249	-0.053
250	-0.047
250	-0.046
250	-0.052
251	-0.054
251	-0.056
252	-0.065
252	-0.053
253	-0.058
253	-0.065
254	-0.07
254	-0.071
255	-0.079
255	-0.075
256	-0.069
256	-0.072
257	-0.067
257	-0.061
258	-0.071
258	-0.065
258	-0.067
259	-0.064
259	-0.067
260	-0.065
260	-0.069
261	-0.075
261	-0.068
262	-0.062
262	-0.057
263	-0.048
263	-0.047
264	-0.041
264	-0.054
265	-0.047
265	-0.056
265	-0.061
266	-0.065
266	-0.064
267	-0.078
267	-0.095
268	-0.111
268	-0.116
269	-0.11
269	-0.096
270	-0.102
270	-0.098
271	-0.094
271	-0.09
272	-0.085
272	-0.078
272	-0.067
273	-0.053
273	-0.064
274	-0.072
274	-0.072
275	-0.072
275	-0.066
276	-0.06
276	-0.056
277	-0.064
277	-0.072
278	-0.07
278	-0.07
278	-0.055
279	-0.051
279	-0.062
280	-0.062
280	-0.069
281	-0.067
281	-0.065
282	-0.063
282	-0.065
283	-0.06
283	-0.054
284	-0.051
284	-0.051
285	-0.04
285	-0.024
285	-0.011
286	-0.021
286	-0.029
287	-0.025
287	-0.013
288	-0.012
288	-0.02
289	-0.022
289	-0.023
290	-0.022
290	-0.029
291	-0.023
291	-0.015
292	-0.01
292	-0.017
292	-0.008
293	-0.006
293	0.001
294	-0.005
294	-0.003
295	0.002
295	0.001
296	-0.008
296	-0.013
297	-0.011
297	0.005
298	-0.003
298	-0.008
298	-0.005
299	0.003
299	0.006
300	0.009
300	0.013
301	0.017
301	0.021
302	0.019
302	0.007
303	0.016
303	0.022
304	0.021
304	0.019
305	0.021
305	0.018
305	0.017
306	0.029
306	0.033
307	0.035
307	0.04
308	0.032
308	0.033
309	0.028
309	0.038
310	0.049
310	0.054
311	0.06
311	0.056
311	0.055
312	0.059
312	0.052
313	0.059
313	0.062
314	0.07
314	0.068
315	0.057
315	0.053
316	0.054
316	0.062
317	0.069
317	0.07
318	0.079
318	0.08
318	0.079
319	0.086
319	0.092
320	0.1
320	0.104
321	0.097
321	0.09
322	0.092
322	0.099
323	0.1
323	0.102
324	0.105
324	0.105
324	0.104
325	0.109
325	0.114
326	0.122
326	0.132
327	0.135
327	0.143
328	0.155
328	0.163
329	0.173
329	0.189
330	0.206
330	0.221
330	0.233
331	0.247
331	0.257
332	0.266
332	0.274
333	0.28
333	0.289
334	0.295
334	0.299
335	0.302
335	0.305
336	0.309
336	0.313
336	0.316
337	0.32
337	0.321
338	0.324
338	0.325
339	0.327
339	0.327
340	0.329
340	0.33
341	0.331
341	0.331
342	0.331
342	0.332
342	0.333
343	0.333
343	0.334
344	0.334
344	0.334
345	0.334
345	0.334
346	0.334
346	0.334
347	0.334
347	0.334
348	0.333
348	0.333
348	0.333
349	0.333
349	0.333
350	0.332
350	0.332
351	0.332
351	0.332
352	0.332
352	0.332
353	0.332
353	0.332
354	0.331
354	0.331
354	0.331
355	0.331
355	0.33
356	0.33
356	0.33
357	0.329
357	0.329
358	0.329
358	0.329
359	0.328
359	0.328
360	0.328
360	0.327
360	0.327
361	0.327
361	0.327
362	0.326
362	0.326
363	0.326
363	0.325
364	0.325
364	0.325
365	0.325
365	0.325
366	0.325
366	0.325
366	0.325
367	0.325
367	0.325
368	0.324
368	0.324
369	0.324
369	0.324
370	0.323
370	0.323
371	0.323
371	0.322
372	0.322
372	0.322
372	0.321
373	0.321
373	0.321
374	0.321
374	0.32
375	0.32
375	0.32
376	0.32
376	0.32
377	0.32
377	0.32
378	0.32
378	0.32
378	0.32
379	0.32
379	0.319
380	0.319
380	0.319
381	0.319
381	0.318
382	0.318
382	0.318
383	0.317
383	0.317
383	0.317
384	0.316
384	0.316
385	0.316
385	0.316
386	0.316
386	0.316
387	0.315
387	0.315
388	0.315
388	0.315
389	0.314
389	0.314
389	0.314
390	0.314
390	0.314
391	0.313
391	0.313
392	0.313
392	0.313
393	0.313
393	0.312
394	0.312
394	0.312
394	0.311
395	0.311
395	0.311
396	0.311
396	0.311
397	0.31
397	0.31
398	0.31
398	0.31
399	0.31
399	0.309
400	0.309
400	0.308
400	0.308
401	0.308
401	0.307
402	0.307
402	0.307
403	0.306
403	0.306
404	0.306
404	0.306
405	0.306
405	0.306
405	0.305
406	0.305
406	0.305
407	0.304
407	0.304
408	0.304
408	0.304
409	0.304
409	0.304
410	0.304
410	0.304
411	0.303
411	0.303
411	0.303
412	0.303
412	0.303
413	0.302
413	0.302
414	0.302
414	0.301
415	0.301
415	0.301
416	0.301
416	0.301
416	0.3
417	0.3
417	0.3
418	0.3
418	0.3
419	0.3
419	0.3
420	0.299
420	0.299
421	0.299
421	0.299
421	0.299
422	0.299
422	0.299
423	0.298
423	0.298
424	0.298
424	0.298
425	0.298
425	0.298
426	0.297
426	0.297
427	0.297
427	0.297
427	0.296
428	0.296
428	0.296
429	0.296
429	0.296
430	0.296
430	0.296
431	0.295
431	0.295
432	0.295
432	0.295
432	0.295
433	0.295
433	0.294
434	0.294
434	0.294
435	0.294
435	0.294
436	0.293
436	0.293
437	0.293
437	0.293
437	0.293
438	0.293
438	0.293
439	0.293
439	0.293
440	0.293
440	0.292
441	0.292
441	0.291
442	0.291
442	0.291
442	0.291
443	0.29
443	0.29
444	0.29
444	0.29
445	0.29
445	0.29
446	0.29
446	0.29
447	0.29
447	0.29
447	0.29
448	0.29
448	0.29
449	0.29
449	0.29
450	0.291
450	0.291
451	0.291
451	0.291
452	0.291
452	0.291
452	0.291
453	0.29
453	0.29
454	0.29
454	0.29
455	0.289
455	0.289
456	0.289
456	0.289
457	0.289
457	0.289
458	0.289
458	0.289
458	0.289
459	0.289
459	0.289
460	0.29
460	0.29
461	0.29
461	0.29
462	0.29
462	0.29
463	0.291
463	0.291
463	0.291
464	0.291
464	0.291
465	0.291
465	0.291
466	0.291
466	0.292
467	0.292
467	0.292
467	0.292
468	0.293
468	0.293
469	0.294
469	0.294
470	0.294
470	0.294
471	0.295
471	0.295
472	0.295
472	0.295
472	0.295
473	0.295
473	0.296
474	0.296
474	0.296
475	0.297
475	0.297
476	0.298
476	0.298
477	0.298
477	0.299
477	0.299
478	0.3
478	0.3
479	0.301
479	0.302
480	0.302
480	0.303
481	0.303
481	0.304
482	0.305
482	0.305
482	0.306
483	0.306
483	0.307
484	0.307
484	0.307
485	0.308
485	0.309
486	0.309
486	0.31
487	0.311
487	0.312
487	0.313
488	0.314
488	0.315
489	0.317
489	0.319
490	0.32
490	0.321
491	0.322
491	0.323
492	0.325
492	0.326
492	0.328
493	0.329
493	0.33
494	0.332
494	0.333
495	0.334
495	0.336
496	0.337
496	0.339
496	0.341
497	0.343
497	0.345
498	0.346
498	0.348
499	0.35
499	0.352
500	0.354
500	0.356
501	0.358
501	0.36
501	0.361
502	0.363
502	0.365
503	0.367
503	0.369
504	0.37
504	0.373
505	0.375
505	0.377
506	0.379
506	0.381
506	0.384
507	0.386
507	0.388
508	0.391
508	0.393
509	0.395
509	0.397
510	0.399
510	0.401
511	0.403
511	0.405
511	0.407
512	0.409
512	0.411
513	0.413
513	0.415
514	0.416
514	0.419
515	0.421
515	0.423
515	0.425
516	0.427
516	0.429
517	0.431
517	0.433
518	0.435
518	0.437
519	0.439
519	0.441
520	0.443
520	0.445
520	0.447
521	0.449
521	0.451
522	0.453
522	0.455
523	0.456
523	0.458
524	0.459
524	0.461
524	0.462
525	0.463
525	0.465
526	0.466
526	0.467
527	0.469
527	0.47
528	0.471
528	0.473
529	0.474
529	0.475
529	0.476
530	0.478
530	0.478
531	0.479
531	0.48
532	0.48
532	0.481
533	0.482
533	0.483
533	0.483
534	0.484
534	0.485
535	0.486
535	0.487
536	0.487
536	0.488
537	0.488
537	0.489
538	0.489
538	0.49
538	0.49
539	0.49
539	0.49
540	0.49
540	0.491
541	0.491
541	0.491
542	0.491
542	0.491
542	0.49
543	0.49
543	0.49
544	0.489
544	0.489
545	0.489
545	0.489
546	0.489
546	0.488
547	0.488
547	0.488
547	0.488
548	0.488
548	0.488
549	0.488
549	0.488
550	0.487
550	0.487
551	0.487
551	0.487
551	0.487
552	0.487
552	0.486
553	0.486
553	0.486
554	0.485
554	0.485
555	0.485
555	0.484
556	0.484
556	0.483
556	0.483
557	0.482
557	0.482
558	0.481
558	0.481
559	0.48
559	0.48
560	0.479
560	0.479
560	0.478
561	0.477
561	0.476
562	0.475
562	0.475
563	0.474
563	0.473
564	0.473
564	0.472
564	0.471
565	0.47
565	0.469
566	0.468
566	0.467
567	0.466
567	0.464
568	0.463
568	0.461
568	0.46
569	0.459
569	0.458
570	0.457
570	0.456
571	0.455
571	0.454
572	0.453
572	0.452
573	0.451
573	0.45
573	0.449
574	0.448
574	0.447
575	0.446
575	0.445
576	0.444
576	0.443
577	0.442
577	0.442
577	0.441
578	0.44
578	0.439
579	0.438
579	0.437
580	0.435
580	0.434
581	0.433
581	0.432
581	0.431
582	0.43
582	0.429
583	0.427
583	0.426
584	0.425
584	0.424
585	0.423
585	0.422
585	0.42
586	0.419
586	0.418
587	0.418
587	0.417
588	0.416
588	0.416
589	0.415
589	0.413
590	0.412
590	0.411
590	0.41
591	0.408
591	0.406
592	0.405
592	0.403
593	0.402
593	0.401
594	0.399
594	0.398
594	0.397
595	0.396
595	0.394
596	0.393
596	0.392
597	0.391
597	0.389
598	0.387
598	0.386
598	0.385
599	0.384
599	0.383
600	0.381
600	0.38
601	0.379
601	0.377
602	0.376
602	0.374
602	0.373
603	0.372
603	0.37
604	0.369
604	0.368
605	0.367
605	0.365
606	0.364
606	0.363
606	0.362
607	0.36
607	0.359
608	0.357
608	0.356
609	0.354
609	0.353
610	0.352
610	0.35
610	0.349
611	0.348
611	0.346
612	0.345
612	0.344
613	0.343
613	0.341
614	0.34
614	0.338
614	0.337
615	0.335
615	0.334
616	0.333
616	0.331
617	0.329
617	0.327
618	0.325
618	0.323
618	0.321
619	0.32
619	0.318
620	0.316
620	0.314
621	0.313
621	0.311
622	0.309
622	0.307
622	0.306
623	0.304
623	0.303
624	0.301
624	0.299
625	0.298
625	0.296
626	0.294
626	0.293
626	0.291
627	0.289
627	0.287
628	0.284
628	0.282
629	0.279
629	0.277
630	0.274
630	0.27
630	0.267
631	0.263
631	0.26
632	0.256
632	0.252
633	0.247
633	0.243
634	0.238
634	0.233
634	0.229
635	0.224
635	0.218
636	0.213
636	0.207
637	0.201
637	0.195
638	0.188
638	0.182
638	0.175
639	0.168
639	0.161
640	0.153
640	0.146
641	0.139
641	0.132
642	0.125
642	0.118
642	0.111
643	0.104
643	0.097
644	0.089
644	0.081
645	0.073
645	0.066
646	0.058
646	0.05
646	0.041
647	0.033
647	0.026
648	0.018
648	0.01
649	0.002
649	-0.005
650	-0.013
650	-0.02
650	-0.027
651	-0.037
651	-0.049
652	-0.063
652	-0.079
653	-0.092
653	-0.103
653	-0.099
654	-0.074
654	-0.057
655	-0.056
655	-0.059
656	-0.062
656	-0.066
657	-0.068
657	-0.07
657	-0.074
658	-0.079
658	-0.104
659	-0.188
659	-0.293
660	-0.339
660	-0.368
661	-0.4
661	-0.437
661	-0.48
662	-0.523
662	-0.569
663	-0.622
663	-0.676
664	-0.735
664	-0.799
665	-0.864
665	-0.937
665	-1.005
666	-1.075
666	-1.148
667	-1.224
667	-1.3
668	-1.384
668	-1.47
669	-1.56
669	-1.658
669	-1.787
670	-2.014
670	-2.147
671	-2.222
671	-2.325
672	-2.466
672	-2.602
672	-2.695
673	-2.76
673	-2.784
674	-2.799
674	-2.805
675	-2.795
675	-2.883
676	-3.035
676	-2.972
676	-2.728
677	-2.49
677	-2.264
678	-1.926
678	-1.742
679	-1.621
679	-1.525
680	-1.447
680	-1.378
680	-1.317
681	-1.277
681	-1.219
682	-1.177
682	-1.138
683	-1.101
683	-1.078
684	-1.048
684	-1.022
684	-0.992
685	-0.96
685	-0.928
686	-0.897
686	-0.871
687	-0.837
687	-0.816
687	-0.787
688	-0.756
688	-0.729
689	-0.701
689	-0.682
690	-0.656
690	-0.637
691	-0.622
691	-0.619
691	-0.627
692	-0.611
692	-0.598
693	-0.584
693	-0.583
694	-0.572
694	-0.558
695	-0.554
695	-0.547
695	-0.523
696	-0.513
696	-0.488
697	-0.483
697	-0.489
698	-0.487
698	-0.469
698	-0.474
699	-0.474
699	-0.469
700	-0.457
700	-0.468
701	-0.462
701	-0.463
702	-0.461
702	-0.445
702	-0.431
703	-0.428
703	-0.42
704	-0.411
704	-0.41
705	-0.414
705	-0.404
705	-0.392
706	-0.388
706	-0.38
707	-0.376
707	-0.372
708	-0.364
708	-0.352
709	-0.35
709	-0.346
709	-0.337
710	-0.339
710	-0.344
711	-0.336
711	-0.333
712	-0.337
712	-0.347
713	-0.34
713	-0.345
713	-0.336
714	-0.334
714	-0.332
715	-0.328
715	-0.317
716	-0.321
716	-0.322
716	-0.311
717	-0.314
717	-0.321
718	-0.318
718	-0.323
719	-0.326
719	-0.325
720	-0.312
720	-0.312
720	-0.304
721	-0.293
721	-0.296
722	-0.275
722	-0.268
723	-0.26
723	-0.256
723	-0.244
724	-0.245
724	-0.252
725	-0.254
725	-0.26
726	-0.273
726	-0.275
727	-0.285
727	-0.29
727	-0.295
728	-0.295
728	-0.297
729	-0.294
729	-0.294
730	-0.296
730	-0.29
730	-0.275
731	-0.258
731	-0.261
732	-0.268
732	-0.267
733	-0.264
733	-0.265
734	-0.259
734	-0.26
734	-0.248
735	-0.247
735	-0.252
736	-0.257
736	-0.25
737	-0.24
737	-0.244
737	-0.244
738	-0.245
738	-0.245
739	-0.242
739	-0.254
740	-0.251
740	-0.245
741	-0.245
741	-0.235
741	-0.236
742	-0.234
742	-0.238
743	-0.242
743	-0.248
744	-0.245
744	-0.229
744	-0.23
745	-0.233
745	-0.225
746	-0.229
746	-0.224
747	-0.221
747	-0.214
748	-0.198
748	-0.194
748	-0.196
749	-0.201
749	-0.205
750	-0.201
750	-0.201
751	-0.204
751	-0.212
751	-0.211
752	-0.213
752	-0.222
753	-0.223
753	-0.217
754	-0.222
754	-0.212
754	-0.216
755	-0.226
755	-0.232
756	-0.222
756	-0.224
757	-0.223
757	-0.224
758	-0.226
758	-0.228
758	-0.229
759	-0.239
759	-0.228
760	-0.223
760	-0.226
761	-0.234
761	-0.224
761	-0.224
762	-0.231
762	-0.227
763	-0.235
763	-0.225
764	-0.219
764	-0.221
764	-0.223
765	-0.214
765	-0.203
766	-0.213
766	-0.217
767	-0.224
767	-0.219
768	-0.21
768	-0.229
768	-0.231
769	-0.249
769	-0.247
770	-0.251
770	-0.262
771	-0.261
771	-0.259
771	-0.257
772	-0.264
772	-0.265
773	-0.258
773	-0.253
774	-0.249
774	-0.25
775	-0.248
775	-0.242
775	-0.247
776	-0.244
776	-0.235
777	-0.245
777	-0.26
778	-0.265
778	-0.282
778	-0.275
779	-0.299
779	-0.305
780	-0.311
780	-0.308
781	-0.323
781	-0.324
781	-0.33
782	-0.337
782	-0.339
783	-0.342
783	-0.349
784	-0.337
784	-0.337
784	-0.354
785	-0.371
785	-0.365
786	-0.368
786	-0.353
787	-0.33
787	-0.318
788	-0.308
788	-0.302
788	-0.304
789	-0.294
789	-0.27
790	-0.241
790	-0.225
791	-0.219
791	-0.235
791	-0.24
792	-0.236
792	-0.211
793	-0.202
793	-0.175
794	-0.178
794	-0.165
794	-0.174
795	-0.175
795	-0.18
796	-0.163
796	-0.167
797	-0.161
797	-0.17
797	-0.178
798	-0.189
798	-0.179
799	-0.193
799	-0.18
800	-0.186
800	-0.17
801	-0.176
801	-0.167
801	-0.177
802	-0.187
802	-0.19
803	-0.198
803	-0.207
804	-0.2
804	-0.211
804	-0.202
805	-0.204
805	-0.199
806	-0.2
806	-0.19
807	-0.188
807	-0.175
807	-0.166
808	-0.162
808	-0.16
809	-0.154
809	-0.165
810	-0.173
810	-0.164
810	-0.169
811	-0.175
811	-0.176
812	-0.17
812	-0.169
813	-0.169
813	-0.16
813	-0.163
814	-0.163
814	-0.158
815	-0.157
815	-0.152
816	-0.151
816	-0.15
817	-0.163
817	-0.169
817	-0.176
818	-0.189
818	-0.186
819	-0.173
819	-0.176
820	-0.192
820	-0.19
820	-0.194
821	-0.193
821	-0.184
822	-0.171
822	-0.156
823	-0.15
823	-0.156
823	-0.16
824	-0.152
824	-0.15
825	-0.145
825	-0.133
826	-0.131
826	-0.133
826	-0.147
827	-0.151
827	-0.156
828	-0.139
828	-0.14
829	-0.137
829	-0.13
829	-0.124
830	-0.131
830	-0.129
831	-0.131
831	-0.12
832	-0.117
832	-0.112
832	-0.123
833	-0.114
833	-0.123
834	-0.117
834	-0.121
835	-0.114
835	-0.112
835	-0.11
836	-0.111
836	-0.107
837	-0.107
837	-0.099
838	-0.094
838	-0.085
839	-0.083
839	-0.08
839	-0.07
840	-0.064
840	-0.059
841	-0.054
841	-0.052
842	-0.048
842	-0.045
842	-0.048
843	-0.047
843	-0.045
844	-0.042
844	-0.046
845	-0.048
845	-0.045
845	-0.038
846	-0.032
846	-0.03
847	-0.028
847	-0.024
848	-0.02
848	-0.018
848	-0.012
849	-0.009
849	-0.003
850	0
850	0
851	-0.002
851	0.001
851	0.005
852	0.011
852	0.016
853	0.018
853	0.017
854	0.021
854	0.025
854	0.027
855	0.029
855	0.03
856	0.034
856	0.035
857	0.037
857	0.038
857	0.041
858	0.042
858	0.043
859	0.044
859	0.046
860	0.048
860	0.051
860	0.051
861	0.053
861	0.054
862	0.055
862	0.055
863	0.057
863	0.058
863	0.058
864	0.058
864	0.057
865	0.058
865	0.059
866	0.059
866	0.059
866	0.059
867	0.059
867	0.059
868	0.059
868	0.06
869	0.06
869	0.06
869	0.06
870	0.061
870	0.061
871	0.062
871	0.062
872	0.062
872	0.063
872	0.063
873	0.063
873	0.063
874	0.064
874	0.064
875	0.064
875	0.064
875	0.064
876	0.063
876	0.063
877	0.063
877	0.063
878	0.063
878	0.062
878	0.062
879	0.061
879	0.061
880	0.06
880	0.06
881	0.061
881	0.061
881	0.06
882	0.06
882	0.059
883	0.059
883	0.059
884	0.059
884	0.058
884	0.058
885	0.057
885	0.057
886	0.057
886	0.057
887	0.057
887	0.057
887	0.058
888	0.058
888	0.059
889	0.059
889	0.06
890	0.061
890	0.061
890	0.062
891	0.061
891	0.062
892	0.062
892	0.062
893	0.062
893	0.062
893	0.061
894	0.06
894	0.059
895	0.058
895	0.057
895	0.057
896	0.055
896	0.054
897	0.053
897	0.052
898	0.051
898	0.05
898	0.049
899	0.049
899	0.049
900	0.049
900	0.049
901	0.049
901	0.049
901	0.049
902	0.049
902	0.048
903	0.048
903	0.048
904	0.049
904	0.049
904	0.049
905	0.05
905	0.049
906	0.049
906	0.049
907	0.048
907	0.048
907	0.047
908	0.046
908	0.046
909	0.045
909	0.044
910	0.043
910	0.043
910	0.042
911	0.042
911	0.042
912	0.042
912	0.042
913	0.042
913	0.042
913	0.043
914	0.043
914	0.044
915	0.044
915	0.045
916	0.045
916	0.046
916	0.046
917	0.046
917	0.046
918	0.046
918	0.046
918	0.045
919	0.045
919	0.045
920	0.045
920	0.045
921	0.045
921	0.045
921	0.046
922	0.046
922	0.046
923	0.047
923	0.047
924	0.048
924	0.048
924	0.048
925	0.048
925	0.048
926	0.047
926	0.047
927	0.047
927	0.047
927	0.046
928	0.046
928	0.045
929	0.045
929	0.044
930	0.044
930	0.044
930	0.044
931	0.044
931	0.044
932	0.044
932	0.045
933	0.045
933	0.044
933	0.044
934	0.044
934	0.043
935	0.043
935	0.043
935	0.043
936	0.042
936	0.042
937	0.041
937	0.042
938	0.042
938	0.042
938	0.042
939	0.043
939	0.043
940	0.043
940	0.043
941	0.043
941	0.043
941	0.043
942	0.043
942	0.043
943	0.042
943	0.042
944	0.041
944	0.041
944	0.04
945	0.04
945	0.039
946	0.038
946	0.037
946	0.037
947	0.036
947	0.036
948	0.036
948	0.037
949	0.037
949	0.037
949	0.037
950	0.038
950	0.038
951	0.039
951	0.04
952	0.04
952	0.041
952	0.042
953	0.042
953	0.043
954	0.043
954	0.044
955	0.044
955	0.045
955	0.045
956	0.045
956	0.045
957	0.045
957	0.045
957	0.045
958	0.045
958	0.045
959	0.045
959	0.045
960	0.045
960	0.045
960	0.046
961	0.046
961	0.046
962	0.046
962	0.046
963	0.046
963	0.046
963	0.046
964	0.046
964	0.046
965	0.046
965	0.045
966	0.045
966	0.045
966	0.045
967	0.044
967	0.044
968	0.043
968	0.042
968	0.042
969	0.041
969	0.04
970	0.04
970	0.04
971	0.039
971	0.039
971	0.039
972	0.038
972	0.038
973	0.037
973	0.037
974	0.036
974	0.035
974	0.035
975	0.034
975	0.033
976	0.032
976	0.031
976	0.031
977	0.031
977	0.031
978	0.031
978	0.031
979	0.031
979	0.031
979	0.031
980	0.031
980	0.032
981	0.032
981	0.032
982	0.032
982	0.031
982	0.031
983	0.03
983	0.03
984	0.03
984	0.029
984	0.029
985	0.029
985	0.03
986	0.03
986	0.03
987	0.031
987	0.031
987	0.032
988	0.032
988	0.033
989	0.033
989	0.032
990	0.032
990	0.031
990	0.031
991	0.03
991	0.03
992	0.029
992	0.029
992	0.029
993	0.028
993	0.028
994	0.028
994	0.029
995	0.029
995	0.029
995	0.029
996	0.029
996	0.029
997	0.029
997	0.03
997	0.03
998	0.03
998	0.03
999	0.031
999	0.031
1000	0.031
1000	0.031
1000	0.031
1001	0.031
1001	0.031
1002	0.03
1002	0.03
1003	0.029
1003	0.029
1003	0.029
1004	0.028
1004	0.027
1005	0.026
1005	0.025
1005	0.024
1006	0.023
1006	0.023
1007	0.022
1007	0.022
1008	0.021
1008	0.021
1008	0.021
1009	0.021
1009	0.021
1010	0.021
1010	0.021
1010	0.021
1011	0.02
1011	0.02
1012	0.019
1012	0.018
1013	0.017
1013	0.016
1013	0.014
1014	0.013
1014	0.012
1015	0.012
1015	0.011
1016	0.01
1016	0.01
1016	0.01
1017	0.009
1017	0.009
1018	0.009
1018	0.009
1018	0.008
1019	0.007
1019	0.007
1020	0.006
1020	0.005
1021	0.004
1021	0.003
1021	0.002
1022	0.001
1022	-0
1023	-0.001
1023	-0.001
1023	-0.001
1024	-0.001
1024	-0.001
1025	-0
1025	0
1026	0.001
1026	0.002
1026	0.003
1027	0.003
1027	0.004
1028	0.004
1028	0.004
1028	0.004
1029	0.005
1029	0.005
1030	0.005
1030	0.005
1031	0.005
1031	0.005
1031	0.005
1032	0.006
1032	0.006
1033	0.007
1033	0.008
1033	0.009
1034	0.009
1034	0.01
1035	0.01
1035	0.011
1036	0.011
1036	0.011
1036	0.011
1037	0.011
1037	0.011
1038	0.011
1038	0.01
1039	0.01
1039	0.011
1039	0.011
1040	0.011
1040	0.012
1041	0.012
1041	0.013
1041	0.013
1042	0.014
1042	0.014
1043	0.014
1043	0.015
1044	0.015
1044	0.015
1044	0.015
1045	0.015
1045	0.015
1046	0.015
1046	0.016
1046	0.016
1047	0.016
1047	0.016
1048	0.017
1048	0.017
1049	0.017
1049	0.017
1049	0.017
1050	0.018
1050	0.018
1051	0.018
1051	0.018
1051	0.018
1052	0.018
1052	0.018
1053	0.018
1053	0.018
1053	0.017
1054	0.017
1054	0.016
1055	0.016
1055	0.015
1056	0.014
1056	0.013
1056	0.012
1057	0.011
1057	0.01
1058	0.01
1058	0.009
1058	0.009
1059	0.008
1059	0.008
1060	0.007
1060	0.008
1061	0.008
1061	0.008
1061	0.008
1062	0.008
1062	0.008
1063	0.008
1063	0.008
1063	0.008
1064	0.008
1064	0.008
1065	0.008
1065	0.007
1066	0.007
1066	0.007
1066	0.006
1067	0.006
1067	0.006
1068	0.006
1068	0.005
1068	0.005
1069	0.006
1069	0.006
1070	0.006
1070	0.006
1071	0.006
1071	0.006
1071	0.006
1072	0.005
1072	0.005
1073	0.005
1073	0.004
1073	0.004
1074	0.004
1074	0.003
1075	0.003
1075	0.003
1076	0.002
1076	0.002
1076	0.002
1077	0.001
1077	0
1078	0
1078	-0
1078	-0.001
1079	-0.002
1079	-0.002
1080	-0.003
1080	-0.004
1080	-0.005
1081	-0.005
1081	-0.006
1082	-0.006
1082	-0.007
1083	-0.007
1083	-0.007
1083	-0.008
1084	-0.008
1084	-0.008
1085	-0.008
1085	-0.009
1085	-0.009
1086	-0.009
1086	-0.009
1087	-0.008
1087	-0.008
1088	-0.008
1088	-0.008
1088	-0.008
1089	-0.007
1089	-0.007
1090	-0.007
1090	-0.006
1090	-0.006
1091	-0.005
1091	-0.005
1092	-0.005
1092	-0.004
1092	-0.004
1093	-0.004
1093	-0.004
1094	-0.004
1094	-0.003
1095	-0.004
1095	-0.003
1095	-0.003
1096	-0.003
1096	-0.003
1097	-0.003
1097	-0.002
1097	-0.002
1098	-0.001
1098	-0.001
1099	-0.001
1099	-0.001
1100	-0.001
1100	-0
1100	-0
1101	-0.001
1101	-0.001
1102	-0.002
1102	-0.002
1102	-0.001
1103	-0.001
1103	-0.001
1104	-0.001
1104	-0.002
1104	-0.004
1105	-0.004
1105	-0.005
1106	-0.006
1106	-0.006
1107	-0.007
1107	-0.01
1107	-0.012
1108	-0.013
1108	-0.014
1109	-0.014
1109	-0.014
1109	-0.014
1110	-0.016
1110	-0.017
1111	-0.018
1111	-0.021
