Data from 17C_3.4A_30min_2sec_int_Absorbance__3__00003.txt Node

Date: Mon Jun 19 16:04:55 CEST 2023
User: Marek
Spectrometer: MAYP115816
Trigger mode: 0
Integration Time (sec): 2.500000E-1
Scans to average: 10
Electric dark correction enabled: true
Nonlinearity correction enabled: true
Boxcar width: 5
XAxis mode: Wavelengths
Number of Pixels in Spectrum: 2068
>>>>>Begin Spectral Data<<<<<
199	-0.193
199	-0.198
200	-0.114
200	-0.088
201	-0.066
201	-0.062
202	-0.046
202	-0.036
203	-0.028
203	-0.023
204	-0.017
204	-0.007
205	0.006
205	0.005
205	0.012
206	0.01
206	0.012
207	0.02
207	0.021
208	0.02
208	0.024
209	0.026
209	0.027
210	0.023
210	0.018
211	0.017
211	0.02
212	0.022
212	0.013
213	0.014
213	0.01
213	0.009
214	0.016
214	0.018
215	0.015
215	0.018
216	0.016
216	0.012
217	0.014
217	0.014
218	0.01
218	0.013
219	0.007
219	0.002
220	0
220	0.005
221	0.005
221	0.005
221	0.007
222	0.009
222	0.007
223	0.007
223	0.006
224	0.005
224	0.003
225	0.005
225	0.007
226	0.005
226	0.007
227	0.004
227	-0.001
228	0.002
228	0.002
229	0.002
229	0.004
229	0.008
230	0.004
230	-0.004
231	-0.003
231	-0
232	0.011
232	0.007
233	0.008
233	0.008
234	0.008
234	0.013
235	0.011
235	0.012
236	0.015
236	0.016
236	0.006
237	-0.005
237	-0.005
238	-0.011
238	-0.002
239	-0.001
239	-0.013
240	-0.017
240	-0.026
241	-0.02
241	-0.019
242	-0.013
242	-0.002
243	0.01
243	0.013
243	0.006
244	0.005
244	0.01
245	0.009
245	0.019
246	0.012
246	0.011
247	0.006
247	-0.004
248	-0.015
248	-0.019
249	-0.021
249	-0.022
250	-0.021
250	-0.017
250	-0.019
251	-0.021
251	-0.025
252	-0.029
252	-0.015
253	-0.01
253	-0.013
254	-0.008
254	-0.014
255	-0.013
255	-0.01
256	-0.002
256	-0.005
257	0.001
257	0.013
258	-0.006
258	-0.002
258	0.003
259	0.001
259	0.006
260	0.005
260	0.003
261	-0.007
261	-0.003
262	0.002
262	0.006
263	0.016
263	0.012
264	0.023
264	0.014
265	0.015
265	0.007
265	0.004
266	0.007
266	0.008
267	-0.001
267	-0.011
268	-0.017
268	-0.021
269	-0.031
269	-0.03
270	-0.033
270	-0.033
271	-0.033
271	-0.033
272	-0.029
272	-0.029
272	-0.032
273	-0.034
273	-0.036
274	-0.031
274	-0.024
275	-0.022
275	-0.011
276	-0.009
276	-0.003
277	-0.008
277	-0.013
278	-0.01
278	0.001
278	0.004
279	0
279	-0.004
280	-0.001
280	-0.002
281	0.002
281	0.002
282	0.015
282	0.018
283	0.024
283	0.021
284	0.029
284	0.032
285	0.04
285	0.05
285	0.044
286	0.045
286	0.042
287	0.034
287	0.045
288	0.055
288	0.051
289	0.037
289	0.033
290	0.039
290	0.034
291	0.044
291	0.045
292	0.051
292	0.047
292	0.043
293	0.037
293	0.051
294	0.057
294	0.054
295	0.047
295	0.038
296	0.035
296	0.035
297	0.036
297	0.045
298	0.052
298	0.047
298	0.049
299	0.064
299	0.073
300	0.074
300	0.093
301	0.103
301	0.105
302	0.102
302	0.099
303	0.102
303	0.111
304	0.111
304	0.101
305	0.104
305	0.112
305	0.107
306	0.111
306	0.113
307	0.116
307	0.126
308	0.124
308	0.126
309	0.122
309	0.126
310	0.128
310	0.125
311	0.125
311	0.124
311	0.118
312	0.118
312	0.114
313	0.116
313	0.121
314	0.12
314	0.124
315	0.113
315	0.11
316	0.115
316	0.115
317	0.124
317	0.131
318	0.131
318	0.13
318	0.129
319	0.136
319	0.139
320	0.153
320	0.159
321	0.152
321	0.161
322	0.162
322	0.161
323	0.163
323	0.163
324	0.161
324	0.166
324	0.167
325	0.168
325	0.172
326	0.183
326	0.184
327	0.194
327	0.203
328	0.212
328	0.22
329	0.226
329	0.236
330	0.245
330	0.257
330	0.267
331	0.273
331	0.284
332	0.289
332	0.295
333	0.3
333	0.307
334	0.314
334	0.317
335	0.32
335	0.323
336	0.326
336	0.327
336	0.329
337	0.332
337	0.333
338	0.334
338	0.334
339	0.335
339	0.336
340	0.337
340	0.338
341	0.339
341	0.34
342	0.34
342	0.34
342	0.341
343	0.342
343	0.343
344	0.342
344	0.342
345	0.342
345	0.342
346	0.342
346	0.342
347	0.342
347	0.342
348	0.341
348	0.341
348	0.341
349	0.341
349	0.341
350	0.34
350	0.34
351	0.34
351	0.34
352	0.34
352	0.34
353	0.34
353	0.34
354	0.34
354	0.339
354	0.339
355	0.339
355	0.339
356	0.338
356	0.338
357	0.337
357	0.336
358	0.336
358	0.336
359	0.336
359	0.335
360	0.335
360	0.335
360	0.335
361	0.334
361	0.334
362	0.335
362	0.335
363	0.334
363	0.334
364	0.334
364	0.334
365	0.334
365	0.334
366	0.334
366	0.334
366	0.334
367	0.333
367	0.333
368	0.333
368	0.333
369	0.333
369	0.333
370	0.332
370	0.332
371	0.332
371	0.332
372	0.331
372	0.331
372	0.331
373	0.331
373	0.33
374	0.33
374	0.33
375	0.33
375	0.33
376	0.33
376	0.33
377	0.329
377	0.329
378	0.329
378	0.329
378	0.329
379	0.329
379	0.329
380	0.328
380	0.328
381	0.328
381	0.328
382	0.328
382	0.327
383	0.327
383	0.327
383	0.327
384	0.326
384	0.326
385	0.326
385	0.326
386	0.326
386	0.326
387	0.325
387	0.325
388	0.325
388	0.325
389	0.325
389	0.325
389	0.324
390	0.324
390	0.324
391	0.324
391	0.324
392	0.323
392	0.323
393	0.323
393	0.323
394	0.323
394	0.322
394	0.322
395	0.322
395	0.322
396	0.321
396	0.321
397	0.321
397	0.321
398	0.321
398	0.32
399	0.32
399	0.32
400	0.319
400	0.319
400	0.319
401	0.318
401	0.318
402	0.318
402	0.317
403	0.317
403	0.317
404	0.316
404	0.316
405	0.316
405	0.316
405	0.316
406	0.315
406	0.315
407	0.315
407	0.315
408	0.315
408	0.315
409	0.315
409	0.314
410	0.314
410	0.314
411	0.314
411	0.314
411	0.314
412	0.314
412	0.313
413	0.313
413	0.313
414	0.313
414	0.312
415	0.312
415	0.312
416	0.311
416	0.311
416	0.311
417	0.311
417	0.31
418	0.31
418	0.31
419	0.31
419	0.31
420	0.31
420	0.309
421	0.309
421	0.309
421	0.309
422	0.309
422	0.309
423	0.309
423	0.308
424	0.308
424	0.308
425	0.308
425	0.308
426	0.307
426	0.307
427	0.307
427	0.306
427	0.306
428	0.306
428	0.306
429	0.305
429	0.305
430	0.305
430	0.305
431	0.305
431	0.305
432	0.305
432	0.304
432	0.305
433	0.304
433	0.304
434	0.304
434	0.304
435	0.303
435	0.303
436	0.303
436	0.303
437	0.303
437	0.303
437	0.303
438	0.303
438	0.302
439	0.302
439	0.302
440	0.302
440	0.301
441	0.301
441	0.301
442	0.301
442	0.3
442	0.3
443	0.3
443	0.3
444	0.3
444	0.3
445	0.3
445	0.3
446	0.3
446	0.3
447	0.3
447	0.3
447	0.3
448	0.299
448	0.299
449	0.299
449	0.299
450	0.299
450	0.299
451	0.299
451	0.299
452	0.299
452	0.299
452	0.298
453	0.298
453	0.298
454	0.298
454	0.298
455	0.298
455	0.297
456	0.297
456	0.297
457	0.297
457	0.297
458	0.297
458	0.297
458	0.297
459	0.297
459	0.297
460	0.297
460	0.297
461	0.297
461	0.297
462	0.297
462	0.297
463	0.298
463	0.297
463	0.298
464	0.298
464	0.297
465	0.297
465	0.297
466	0.297
466	0.298
467	0.298
467	0.298
467	0.298
468	0.299
468	0.299
469	0.299
469	0.3
470	0.3
470	0.3
471	0.3
471	0.301
472	0.301
472	0.301
472	0.301
473	0.301
473	0.301
474	0.302
474	0.302
475	0.302
475	0.302
476	0.303
476	0.303
477	0.303
477	0.303
477	0.304
478	0.304
478	0.305
479	0.305
479	0.306
480	0.306
480	0.307
481	0.307
481	0.308
482	0.309
482	0.309
482	0.309
483	0.31
483	0.31
484	0.31
484	0.31
485	0.311
485	0.311
486	0.312
486	0.313
487	0.314
487	0.314
487	0.315
488	0.316
488	0.317
489	0.319
489	0.32
490	0.321
490	0.323
491	0.324
491	0.325
492	0.326
492	0.327
492	0.328
493	0.329
493	0.331
494	0.332
494	0.333
495	0.334
495	0.336
496	0.337
496	0.339
496	0.34
497	0.342
497	0.344
498	0.346
498	0.347
499	0.349
499	0.351
500	0.353
500	0.355
501	0.356
501	0.358
501	0.36
502	0.361
502	0.362
503	0.364
503	0.366
504	0.368
504	0.369
505	0.371
505	0.373
506	0.376
506	0.378
506	0.38
507	0.382
507	0.384
508	0.387
508	0.389
509	0.391
509	0.393
510	0.395
510	0.397
511	0.399
511	0.401
511	0.403
512	0.405
512	0.407
513	0.408
513	0.41
514	0.412
514	0.415
515	0.417
515	0.419
515	0.421
516	0.423
516	0.425
517	0.427
517	0.429
518	0.431
518	0.433
519	0.436
519	0.438
520	0.44
520	0.442
520	0.444
521	0.447
521	0.449
522	0.451
522	0.453
523	0.455
523	0.457
524	0.459
524	0.461
524	0.462
525	0.464
525	0.465
526	0.467
526	0.469
527	0.47
527	0.472
528	0.474
528	0.475
529	0.477
529	0.478
529	0.48
530	0.481
530	0.483
531	0.484
531	0.485
532	0.487
532	0.489
533	0.49
533	0.492
533	0.493
534	0.495
534	0.496
535	0.498
535	0.499
536	0.501
536	0.502
537	0.503
537	0.504
538	0.506
538	0.507
538	0.508
539	0.509
539	0.51
540	0.511
540	0.512
541	0.513
541	0.514
542	0.515
542	0.515
542	0.516
543	0.517
543	0.517
544	0.518
544	0.519
545	0.519
545	0.52
546	0.521
546	0.521
547	0.522
547	0.523
547	0.524
548	0.525
548	0.526
549	0.527
549	0.527
550	0.528
550	0.529
551	0.529
551	0.53
551	0.531
552	0.532
552	0.532
553	0.532
553	0.533
554	0.533
554	0.533
555	0.534
555	0.534
556	0.534
556	0.534
556	0.535
557	0.535
557	0.535
558	0.536
558	0.536
559	0.536
559	0.536
560	0.536
560	0.537
560	0.537
561	0.537
561	0.536
562	0.536
562	0.536
563	0.536
563	0.536
564	0.535
564	0.535
564	0.535
565	0.534
565	0.534
566	0.534
566	0.533
567	0.532
567	0.531
568	0.53
568	0.529
568	0.529
569	0.529
569	0.528
570	0.527
570	0.526
571	0.526
571	0.525
572	0.525
572	0.524
573	0.523
573	0.522
573	0.522
574	0.521
574	0.52
575	0.519
575	0.518
576	0.517
576	0.516
577	0.515
577	0.515
577	0.514
578	0.513
578	0.512
579	0.511
579	0.51
580	0.509
580	0.508
581	0.507
581	0.506
581	0.505
582	0.504
582	0.502
583	0.501
583	0.499
584	0.498
584	0.497
585	0.496
585	0.495
585	0.493
586	0.491
586	0.49
587	0.489
587	0.489
588	0.488
588	0.487
589	0.486
589	0.484
590	0.483
590	0.481
590	0.48
591	0.478
591	0.476
592	0.474
592	0.473
593	0.471
593	0.47
594	0.468
594	0.466
594	0.465
595	0.464
595	0.462
596	0.461
596	0.459
597	0.457
597	0.454
598	0.452
598	0.45
598	0.449
599	0.447
599	0.446
600	0.444
600	0.443
601	0.441
601	0.439
602	0.437
602	0.436
602	0.434
603	0.432
603	0.43
604	0.428
604	0.427
605	0.425
605	0.423
606	0.421
606	0.42
606	0.419
607	0.417
607	0.415
608	0.413
608	0.411
609	0.41
609	0.408
610	0.406
610	0.404
610	0.402
611	0.401
611	0.399
612	0.397
612	0.395
613	0.393
613	0.392
614	0.39
614	0.388
614	0.386
615	0.384
615	0.383
616	0.381
616	0.379
617	0.377
617	0.374
618	0.372
618	0.37
618	0.367
619	0.365
619	0.363
620	0.36
620	0.358
621	0.355
621	0.353
622	0.351
622	0.349
622	0.346
623	0.344
623	0.342
624	0.34
624	0.338
625	0.335
625	0.333
626	0.331
626	0.328
626	0.326
627	0.323
627	0.32
628	0.317
628	0.313
629	0.31
629	0.307
630	0.303
630	0.299
630	0.294
631	0.29
631	0.285
632	0.28
632	0.275
633	0.269
633	0.264
634	0.258
634	0.252
634	0.246
635	0.24
635	0.233
636	0.226
636	0.219
637	0.212
637	0.205
638	0.197
638	0.189
638	0.181
639	0.172
639	0.163
640	0.154
640	0.145
641	0.137
641	0.129
642	0.12
642	0.112
642	0.103
643	0.095
643	0.086
644	0.077
644	0.068
645	0.059
645	0.05
646	0.041
646	0.032
646	0.022
647	0.013
647	0.004
648	-0.005
648	-0.014
649	-0.023
649	-0.032
650	-0.04
650	-0.048
650	-0.056
651	-0.067
651	-0.08
652	-0.096
652	-0.113
653	-0.127
653	-0.139
653	-0.134
654	-0.106
654	-0.087
655	-0.086
655	-0.089
656	-0.093
656	-0.098
657	-0.1
657	-0.102
657	-0.106
658	-0.111
658	-0.14
659	-0.233
659	-0.348
660	-0.398
660	-0.429
661	-0.464
661	-0.504
661	-0.552
662	-0.6
662	-0.649
663	-0.705
663	-0.763
664	-0.824
664	-0.89
665	-0.959
665	-1.033
665	-1.103
666	-1.174
666	-1.249
667	-1.326
667	-1.404
668	-1.49
668	-1.578
669	-1.673
669	-1.779
669	-1.939
670	-2.167
670	-2.248
671	-2.298
671	-2.385
672	-2.515
672	-2.643
672	-2.73
673	-2.78
673	-2.8
674	-2.813
674	-2.81
675	-2.784
675	-2.871
676	-3.021
676	-2.956
676	-2.708
677	-2.464
677	-2.223
678	-1.941
678	-1.783
679	-1.669
679	-1.577
680	-1.502
680	-1.436
680	-1.377
681	-1.337
681	-1.28
682	-1.238
682	-1.2
683	-1.162
683	-1.136
684	-1.106
684	-1.077
684	-1.048
685	-1.014
685	-0.982
686	-0.948
686	-0.921
687	-0.886
687	-0.862
687	-0.834
688	-0.801
688	-0.774
689	-0.747
689	-0.725
690	-0.7
690	-0.68
691	-0.667
691	-0.665
691	-0.672
692	-0.656
692	-0.639
693	-0.625
693	-0.619
694	-0.608
694	-0.593
695	-0.589
695	-0.58
695	-0.554
696	-0.544
696	-0.516
697	-0.511
697	-0.52
698	-0.519
698	-0.509
698	-0.507
699	-0.506
699	-0.498
700	-0.486
700	-0.495
701	-0.487
701	-0.489
702	-0.485
702	-0.469
702	-0.456
703	-0.443
703	-0.441
704	-0.431
704	-0.43
705	-0.434
705	-0.423
705	-0.405
706	-0.404
706	-0.396
707	-0.392
707	-0.383
708	-0.38
708	-0.368
709	-0.363
709	-0.36
709	-0.351
710	-0.354
710	-0.365
711	-0.351
711	-0.347
712	-0.349
712	-0.359
713	-0.356
713	-0.362
713	-0.355
714	-0.355
714	-0.355
715	-0.343
715	-0.328
716	-0.331
716	-0.332
716	-0.323
717	-0.324
717	-0.328
718	-0.317
718	-0.318
719	-0.313
719	-0.31
720	-0.303
720	-0.306
720	-0.298
721	-0.283
721	-0.28
722	-0.262
722	-0.248
723	-0.236
723	-0.235
723	-0.228
724	-0.23
724	-0.237
725	-0.235
725	-0.242
726	-0.253
726	-0.256
727	-0.259
727	-0.265
727	-0.273
728	-0.273
728	-0.274
729	-0.269
729	-0.27
730	-0.273
730	-0.266
730	-0.255
731	-0.24
731	-0.246
732	-0.252
732	-0.253
733	-0.244
733	-0.243
734	-0.232
734	-0.226
734	-0.213
735	-0.216
735	-0.217
736	-0.225
736	-0.219
737	-0.212
737	-0.211
737	-0.221
738	-0.218
738	-0.226
739	-0.224
739	-0.233
740	-0.231
740	-0.222
741	-0.219
741	-0.216
741	-0.215
742	-0.213
742	-0.213
743	-0.22
743	-0.223
744	-0.22
744	-0.214
744	-0.208
745	-0.215
745	-0.202
746	-0.202
746	-0.201
747	-0.206
747	-0.195
748	-0.178
748	-0.177
748	-0.175
749	-0.171
749	-0.173
750	-0.166
750	-0.17
751	-0.172
751	-0.174
751	-0.169
752	-0.17
752	-0.179
753	-0.178
753	-0.173
754	-0.178
754	-0.174
754	-0.183
755	-0.188
755	-0.196
756	-0.193
756	-0.192
757	-0.194
757	-0.196
758	-0.198
758	-0.195
758	-0.198
759	-0.212
759	-0.195
760	-0.194
760	-0.193
761	-0.203
761	-0.204
761	-0.203
762	-0.206
762	-0.209
763	-0.219
763	-0.212
764	-0.196
764	-0.208
764	-0.21
765	-0.202
765	-0.185
766	-0.189
766	-0.192
767	-0.204
767	-0.193
768	-0.19
768	-0.2
768	-0.211
769	-0.217
769	-0.219
770	-0.215
770	-0.225
771	-0.211
771	-0.213
771	-0.202
772	-0.208
772	-0.2
773	-0.196
773	-0.186
774	-0.186
774	-0.188
775	-0.186
775	-0.181
775	-0.194
776	-0.193
776	-0.193
777	-0.197
777	-0.227
778	-0.235
778	-0.254
778	-0.248
779	-0.26
779	-0.268
780	-0.279
780	-0.278
781	-0.289
781	-0.286
781	-0.301
782	-0.299
782	-0.296
783	-0.298
783	-0.309
784	-0.308
784	-0.31
784	-0.328
785	-0.35
785	-0.345
786	-0.354
786	-0.333
787	-0.312
787	-0.3
788	-0.291
788	-0.284
788	-0.276
789	-0.267
789	-0.236
790	-0.201
790	-0.186
791	-0.169
791	-0.181
791	-0.18
792	-0.182
792	-0.157
793	-0.145
793	-0.135
794	-0.141
794	-0.143
794	-0.145
795	-0.148
795	-0.154
796	-0.137
796	-0.145
797	-0.139
797	-0.147
797	-0.149
798	-0.155
798	-0.134
799	-0.139
799	-0.135
800	-0.136
800	-0.121
801	-0.131
801	-0.123
801	-0.133
802	-0.147
802	-0.157
803	-0.155
803	-0.172
804	-0.168
804	-0.171
804	-0.161
805	-0.167
805	-0.152
806	-0.149
806	-0.138
807	-0.133
807	-0.118
807	-0.11
808	-0.102
808	-0.1
809	-0.092
809	-0.1
810	-0.108
810	-0.116
810	-0.114
811	-0.121
811	-0.117
812	-0.107
812	-0.109
813	-0.11
813	-0.109
813	-0.118
814	-0.118
814	-0.116
815	-0.113
815	-0.112
816	-0.107
816	-0.109
817	-0.121
817	-0.13
817	-0.137
818	-0.143
818	-0.147
819	-0.14
819	-0.134
820	-0.146
820	-0.15
820	-0.151
821	-0.148
821	-0.135
822	-0.122
822	-0.112
823	-0.103
823	-0.098
823	-0.104
824	-0.101
824	-0.094
825	-0.086
825	-0.079
826	-0.078
826	-0.089
826	-0.091
827	-0.085
827	-0.088
828	-0.072
828	-0.067
829	-0.071
829	-0.069
829	-0.064
830	-0.071
830	-0.071
831	-0.063
831	-0.066
832	-0.069
832	-0.065
832	-0.073
833	-0.069
833	-0.065
834	-0.059
834	-0.063
835	-0.064
835	-0.065
835	-0.062
836	-0.061
836	-0.063
837	-0.063
837	-0.058
838	-0.055
838	-0.054
839	-0.054
839	-0.053
839	-0.042
840	-0.037
840	-0.043
841	-0.036
841	-0.03
842	-0.024
842	-0.027
842	-0.03
843	-0.031
843	-0.025
844	-0.023
844	-0.022
845	-0.021
845	-0.017
845	-0.013
846	-0.01
846	-0.009
847	-0.003
847	0.002
848	0.004
848	0.006
848	0.011
849	0.013
849	0.016
850	0.019
850	0.018
851	0.015
851	0.017
851	0.019
852	0.02
852	0.024
853	0.027
853	0.026
854	0.028
854	0.032
854	0.035
855	0.04
855	0.041
856	0.044
856	0.045
857	0.047
857	0.048
857	0.05
858	0.051
858	0.051
859	0.051
859	0.052
860	0.051
860	0.054
860	0.054
861	0.055
861	0.055
862	0.056
862	0.056
863	0.057
863	0.058
863	0.058
864	0.057
864	0.057
865	0.058
865	0.057
866	0.057
866	0.057
866	0.057
867	0.057
867	0.057
868	0.057
868	0.057
869	0.057
869	0.057
869	0.057
870	0.057
870	0.057
871	0.058
871	0.059
872	0.059
872	0.06
872	0.06
873	0.06
873	0.06
874	0.061
874	0.061
875	0.061
875	0.061
875	0.061
876	0.061
876	0.061
877	0.061
877	0.061
878	0.061
878	0.061
878	0.06
879	0.06
879	0.059
880	0.059
880	0.059
881	0.059
881	0.06
881	0.059
882	0.059
882	0.058
883	0.058
883	0.058
884	0.058
884	0.057
884	0.057
885	0.056
885	0.055
886	0.055
886	0.055
887	0.056
887	0.056
887	0.056
888	0.057
888	0.057
889	0.058
889	0.059
890	0.06
890	0.06
890	0.06
891	0.06
891	0.06
892	0.061
892	0.061
893	0.061
893	0.061
893	0.06
894	0.06
894	0.059
895	0.058
895	0.057
895	0.056
896	0.055
896	0.054
897	0.052
897	0.051
898	0.05
898	0.048
898	0.047
899	0.047
899	0.047
900	0.047
900	0.047
901	0.047
901	0.046
901	0.047
902	0.046
902	0.046
903	0.046
903	0.047
904	0.047
904	0.048
904	0.048
905	0.048
905	0.048
906	0.048
906	0.048
907	0.048
907	0.047
907	0.046
908	0.046
908	0.045
909	0.044
909	0.043
910	0.043
910	0.042
910	0.041
911	0.041
911	0.041
912	0.041
912	0.041
913	0.041
913	0.041
913	0.041
914	0.042
914	0.042
915	0.043
915	0.043
916	0.044
916	0.044
916	0.044
917	0.044
917	0.044
918	0.044
918	0.044
918	0.043
919	0.043
919	0.043
920	0.043
920	0.043
921	0.043
921	0.043
921	0.043
922	0.043
922	0.043
923	0.044
923	0.044
924	0.045
924	0.045
924	0.045
925	0.045
925	0.045
926	0.045
926	0.044
927	0.044
927	0.044
927	0.043
928	0.043
928	0.042
929	0.042
929	0.042
930	0.042
930	0.042
930	0.042
931	0.042
931	0.042
932	0.042
932	0.042
933	0.042
933	0.042
933	0.042
934	0.041
934	0.041
935	0.04
935	0.04
935	0.04
936	0.039
936	0.039
937	0.038
937	0.038
938	0.039
938	0.039
938	0.039
939	0.04
939	0.04
940	0.04
940	0.04
941	0.041
941	0.041
941	0.041
942	0.041
942	0.04
943	0.04
943	0.039
944	0.038
944	0.038
944	0.037
945	0.037
945	0.036
946	0.036
946	0.035
946	0.035
947	0.034
947	0.035
948	0.035
948	0.035
949	0.035
949	0.035
949	0.034
950	0.035
950	0.035
951	0.036
951	0.037
952	0.037
952	0.038
952	0.038
953	0.038
953	0.039
954	0.039
954	0.04
955	0.04
955	0.04
955	0.04
956	0.04
956	0.04
957	0.04
957	0.04
957	0.04
958	0.04
958	0.04
959	0.04
959	0.04
960	0.04
960	0.04
960	0.041
961	0.041
961	0.041
962	0.041
962	0.041
963	0.042
963	0.042
963	0.042
964	0.041
964	0.041
965	0.042
965	0.041
966	0.041
966	0.041
966	0.041
967	0.04
967	0.04
968	0.039
968	0.038
968	0.038
969	0.037
969	0.036
970	0.036
970	0.036
971	0.035
971	0.035
971	0.035
972	0.034
972	0.034
973	0.033
973	0.032
974	0.031
974	0.031
974	0.03
975	0.029
975	0.028
976	0.027
976	0.027
976	0.027
977	0.026
977	0.027
978	0.027
978	0.027
979	0.027
979	0.027
979	0.027
980	0.028
980	0.028
981	0.028
981	0.028
982	0.028
982	0.027
982	0.027
983	0.026
983	0.026
984	0.026
984	0.025
984	0.025
985	0.025
985	0.025
986	0.026
986	0.026
987	0.027
987	0.027
987	0.028
988	0.028
988	0.028
989	0.028
989	0.028
990	0.027
990	0.027
990	0.026
991	0.026
991	0.026
992	0.025
992	0.025
992	0.025
993	0.025
993	0.025
994	0.026
994	0.026
995	0.026
995	0.026
995	0.027
996	0.027
996	0.028
997	0.028
997	0.028
997	0.029
998	0.029
998	0.029
999	0.03
999	0.03
1000	0.03
1000	0.03
1000	0.029
1001	0.029
1001	0.029
1002	0.028
1002	0.028
1003	0.027
1003	0.027
1003	0.026
1004	0.025
1004	0.025
1005	0.024
1005	0.023
1005	0.022
1006	0.021
1006	0.021
1007	0.02
1007	0.019
1008	0.019
1008	0.019
1008	0.019
1009	0.019
1009	0.019
1010	0.019
1010	0.019
1010	0.018
1011	0.018
1011	0.018
1012	0.017
1012	0.016
1013	0.015
1013	0.014
1013	0.013
1014	0.012
1014	0.011
1015	0.011
1015	0.01
1016	0.009
1016	0.009
1016	0.009
1017	0.009
1017	0.009
1018	0.008
1018	0.007
1018	0.007
1019	0.006
1019	0.006
1020	0.005
1020	0.004
1021	0.003
1021	0.002
1021	0.001
1022	0
1022	-0
1023	-0
1023	-0.001
1023	-0.001
1024	-0
1024	-0
1025	0
1025	0
1026	0.001
1026	0.002
1026	0.002
1027	0.003
1027	0.004
1028	0.004
1028	0.004
1028	0.004
1029	0.005
1029	0.005
1030	0.005
1030	0.005
1031	0.005
1031	0.006
1031	0.006
1032	0.006
1032	0.007
1033	0.007
1033	0.008
1033	0.009
1034	0.01
1034	0.01
1035	0.011
1035	0.011
1036	0.012
1036	0.012
1036	0.012
1037	0.011
1037	0.011
1038	0.011
1038	0.011
1039	0.011
1039	0.011
1039	0.01
1040	0.011
1040	0.012
1041	0.012
1041	0.012
1041	0.013
1042	0.013
1042	0.014
1043	0.014
1043	0.014
1044	0.015
1044	0.015
1044	0.015
1045	0.015
1045	0.015
1046	0.015
1046	0.015
1046	0.016
1047	0.016
1047	0.016
1048	0.016
1048	0.016
1049	0.017
1049	0.017
1049	0.017
1050	0.017
1050	0.018
1051	0.017
1051	0.018
1051	0.018
1052	0.018
1052	0.018
1053	0.018
1053	0.017
1053	0.017
1054	0.017
1054	0.016
1055	0.015
1055	0.015
1056	0.014
1056	0.013
1056	0.012
1057	0.011
1057	0.01
1058	0.009
1058	0.009
1058	0.009
1059	0.008
1059	0.008
1060	0.008
1060	0.008
1061	0.008
1061	0.008
1061	0.008
1062	0.008
1062	0.008
1063	0.007
1063	0.008
1063	0.008
1064	0.008
1064	0.007
1065	0.007
1065	0.007
1066	0.006
1066	0.006
1066	0.006
1067	0.006
1067	0.006
1068	0.006
1068	0.006
1068	0.005
1069	0.005
1069	0.005
1070	0.005
1070	0.006
1071	0.005
1071	0.005
1071	0.005
1072	0.004
1072	0.004
1073	0.004
1073	0.003
1073	0.003
1074	0.003
1074	0.003
1075	0.002
1075	0.002
1076	0.001
1076	0.001
1076	0.001
1077	0
1077	-0
1078	-0
1078	-0.001
1078	-0.001
1079	-0.002
1079	-0.003
1080	-0.003
1080	-0.004
1080	-0.005
1081	-0.005
1081	-0.006
1082	-0.006
1082	-0.007
1083	-0.007
1083	-0.008
1083	-0.008
1084	-0.008
1084	-0.008
1085	-0.009
1085	-0.009
1085	-0.008
1086	-0.008
1086	-0.008
1087	-0.007
1087	-0.007
1088	-0.007
1088	-0.006
1088	-0.006
1089	-0.006
1089	-0.006
1090	-0.006
1090	-0.005
1090	-0.005
1091	-0.004
1091	-0.004
1092	-0.004
1092	-0.003
1092	-0.004
1093	-0.003
1093	-0.003
1094	-0.003
1094	-0.002
1095	-0.002
1095	-0.001
1095	-0.002
1096	-0.002
1096	-0.002
1097	-0.001
1097	0
1097	0.001
1098	0.001
1098	0.002
1099	0.002
1099	0.002
1100	0.002
1100	0.002
1100	0.002
1101	0.002
1101	0.002
1102	0.001
1102	0.001
1102	0.002
1103	0.002
1103	0.001
1104	0.001
1104	0.001
1104	-0
1105	-0
1105	-0
1106	-0.001
1106	-0.001
1107	-0.002
1107	-0.003
1107	-0.005
1108	-0.005
1108	-0.005
1109	-0.005
1109	-0.006
1109	-0.006
1110	-0.007
1110	-0.006
1111	-0.006
1111	-0.01
