Data from 17C_3.4A_30min_2sec_int_Absorbance__405__00405.txt Node

Date: Mon Jun 19 16:21:40 CEST 2023
User: Marek
Spectrometer: MAYP115816
Trigger mode: 0
Integration Time (sec): 2.500000E-1
Scans to average: 10
Electric dark correction enabled: true
Nonlinearity correction enabled: true
Boxcar width: 5
XAxis mode: Wavelengths
Number of Pixels in Spectrum: 2068
>>>>>Begin Spectral Data<<<<<
199	-0.5
199	-0.502
200	-0.422
200	-0.375
201	-0.342
201	-0.331
202	-0.314
202	-0.305
203	-0.301
203	-0.296
204	-0.286
204	-0.273
205	-0.258
205	-0.254
205	-0.251
206	-0.255
206	-0.256
207	-0.245
207	-0.246
208	-0.247
208	-0.248
209	-0.242
209	-0.244
210	-0.248
210	-0.251
211	-0.253
211	-0.254
212	-0.257
212	-0.265
213	-0.262
213	-0.261
213	-0.264
214	-0.264
214	-0.264
215	-0.262
215	-0.267
216	-0.271
216	-0.277
217	-0.275
217	-0.281
218	-0.285
218	-0.287
219	-0.289
219	-0.297
220	-0.299
220	-0.308
221	-0.306
221	-0.304
221	-0.297
222	-0.293
222	-0.292
223	-0.295
223	-0.297
224	-0.299
224	-0.302
225	-0.294
225	-0.289
226	-0.294
226	-0.296
227	-0.302
227	-0.308
228	-0.307
228	-0.307
229	-0.308
229	-0.305
229	-0.297
230	-0.307
230	-0.307
231	-0.302
231	-0.297
232	-0.29
232	-0.287
233	-0.284
233	-0.282
234	-0.28
234	-0.278
235	-0.279
235	-0.277
236	-0.278
236	-0.282
236	-0.286
237	-0.291
237	-0.294
238	-0.303
238	-0.298
239	-0.3
239	-0.306
240	-0.307
240	-0.307
241	-0.309
241	-0.308
242	-0.314
242	-0.308
243	-0.308
243	-0.308
243	-0.317
244	-0.315
244	-0.312
245	-0.324
245	-0.322
246	-0.328
246	-0.332
247	-0.335
247	-0.34
248	-0.343
248	-0.341
249	-0.345
249	-0.351
250	-0.35
250	-0.345
250	-0.346
251	-0.343
251	-0.342
252	-0.343
252	-0.335
253	-0.339
253	-0.351
254	-0.349
254	-0.348
255	-0.356
255	-0.351
256	-0.351
256	-0.36
257	-0.357
257	-0.355
258	-0.37
258	-0.367
258	-0.361
259	-0.355
259	-0.364
260	-0.363
260	-0.369
261	-0.376
261	-0.369
262	-0.367
262	-0.363
263	-0.35
263	-0.345
264	-0.347
264	-0.358
265	-0.351
265	-0.356
265	-0.358
266	-0.356
266	-0.353
267	-0.361
267	-0.372
268	-0.386
268	-0.392
269	-0.387
269	-0.381
270	-0.384
270	-0.39
271	-0.387
271	-0.394
272	-0.398
272	-0.397
272	-0.39
273	-0.389
273	-0.399
274	-0.405
274	-0.41
275	-0.412
275	-0.406
276	-0.41
276	-0.402
277	-0.407
277	-0.421
278	-0.431
278	-0.427
278	-0.419
279	-0.421
279	-0.428
280	-0.425
280	-0.423
281	-0.42
281	-0.425
282	-0.415
282	-0.418
283	-0.407
283	-0.407
284	-0.404
284	-0.395
285	-0.393
285	-0.387
285	-0.386
286	-0.394
286	-0.39
287	-0.389
287	-0.379
288	-0.375
288	-0.383
289	-0.398
289	-0.403
290	-0.394
290	-0.397
291	-0.392
291	-0.386
292	-0.389
292	-0.394
292	-0.389
293	-0.391
293	-0.38
294	-0.368
294	-0.36
295	-0.357
295	-0.356
296	-0.356
296	-0.351
297	-0.344
297	-0.331
298	-0.329
298	-0.337
298	-0.328
299	-0.322
299	-0.325
300	-0.318
300	-0.311
301	-0.309
301	-0.306
302	-0.315
302	-0.32
303	-0.309
303	-0.295
304	-0.296
304	-0.294
305	-0.294
305	-0.292
305	-0.294
306	-0.278
306	-0.277
307	-0.263
307	-0.266
308	-0.278
308	-0.275
309	-0.28
309	-0.27
310	-0.26
310	-0.261
311	-0.255
311	-0.263
311	-0.258
312	-0.256
312	-0.255
313	-0.245
313	-0.246
314	-0.239
314	-0.24
315	-0.243
315	-0.24
316	-0.232
316	-0.225
317	-0.218
317	-0.214
318	-0.203
318	-0.198
318	-0.196
319	-0.189
319	-0.186
320	-0.181
320	-0.183
321	-0.189
321	-0.186
322	-0.182
322	-0.177
323	-0.179
323	-0.174
324	-0.168
324	-0.163
324	-0.158
325	-0.147
325	-0.13
326	-0.12
326	-0.108
327	-0.096
327	-0.081
328	-0.056
328	-0.044
329	-0.027
329	-0.007
330	0.016
330	0.041
330	0.062
331	0.085
331	0.104
332	0.122
332	0.139
333	0.153
333	0.169
334	0.183
334	0.194
335	0.205
335	0.213
336	0.221
336	0.23
336	0.235
337	0.242
337	0.247
338	0.252
338	0.255
339	0.26
339	0.264
340	0.266
340	0.268
341	0.27
341	0.272
342	0.274
342	0.275
342	0.277
343	0.278
343	0.28
344	0.28
344	0.281
345	0.282
345	0.282
346	0.283
346	0.283
347	0.283
347	0.284
348	0.283
348	0.284
348	0.284
349	0.284
349	0.284
350	0.284
350	0.284
351	0.283
351	0.283
352	0.283
352	0.283
353	0.283
353	0.283
354	0.282
354	0.282
354	0.282
355	0.281
355	0.281
356	0.281
356	0.28
357	0.28
357	0.28
358	0.279
358	0.279
359	0.279
359	0.279
360	0.278
360	0.278
360	0.278
361	0.278
361	0.278
362	0.277
362	0.277
363	0.277
363	0.277
364	0.277
364	0.277
365	0.277
365	0.277
366	0.276
366	0.276
366	0.276
367	0.276
367	0.276
368	0.276
368	0.275
369	0.275
369	0.275
370	0.275
370	0.274
371	0.274
371	0.274
372	0.274
372	0.273
372	0.273
373	0.273
373	0.273
374	0.272
374	0.272
375	0.272
375	0.272
376	0.272
376	0.272
377	0.272
377	0.272
378	0.272
378	0.272
378	0.272
379	0.271
379	0.271
380	0.271
380	0.27
381	0.27
381	0.27
382	0.27
382	0.269
383	0.269
383	0.269
383	0.268
384	0.268
384	0.268
385	0.268
385	0.268
386	0.268
386	0.268
387	0.268
387	0.267
388	0.267
388	0.267
389	0.267
389	0.267
389	0.266
390	0.266
390	0.266
391	0.266
391	0.265
392	0.265
392	0.265
393	0.265
393	0.265
394	0.264
394	0.264
394	0.264
395	0.264
395	0.263
396	0.263
396	0.263
397	0.263
397	0.263
398	0.263
398	0.263
399	0.262
399	0.262
400	0.262
400	0.261
400	0.261
401	0.261
401	0.26
402	0.26
402	0.26
403	0.259
403	0.259
404	0.259
404	0.259
405	0.259
405	0.259
405	0.258
406	0.258
406	0.258
407	0.257
407	0.257
408	0.257
408	0.257
409	0.257
409	0.257
410	0.257
410	0.257
411	0.257
411	0.257
411	0.257
412	0.257
412	0.257
413	0.256
413	0.256
414	0.256
414	0.255
415	0.255
415	0.255
416	0.255
416	0.255
416	0.254
417	0.254
417	0.254
418	0.254
418	0.254
419	0.254
419	0.254
420	0.253
420	0.254
421	0.254
421	0.253
421	0.253
422	0.253
422	0.254
423	0.253
423	0.253
424	0.253
424	0.253
425	0.253
425	0.253
426	0.253
426	0.253
427	0.252
427	0.252
427	0.252
428	0.252
428	0.252
429	0.252
429	0.251
430	0.251
430	0.251
431	0.251
431	0.251
432	0.251
432	0.251
432	0.25
433	0.25
433	0.25
434	0.25
434	0.249
435	0.249
435	0.249
436	0.249
436	0.249
437	0.249
437	0.249
437	0.249
438	0.249
438	0.249
439	0.249
439	0.249
440	0.249
440	0.249
441	0.249
441	0.249
442	0.248
442	0.248
442	0.248
443	0.248
443	0.248
444	0.248
444	0.248
445	0.248
445	0.248
446	0.248
446	0.248
447	0.248
447	0.248
447	0.248
448	0.248
448	0.248
449	0.248
449	0.248
450	0.249
450	0.249
451	0.249
451	0.249
452	0.249
452	0.249
452	0.249
453	0.249
453	0.249
454	0.248
454	0.248
455	0.248
455	0.248
456	0.248
456	0.248
457	0.248
457	0.248
458	0.248
458	0.248
458	0.249
459	0.249
459	0.249
460	0.249
460	0.249
461	0.25
461	0.25
462	0.25
462	0.25
463	0.251
463	0.251
463	0.251
464	0.251
464	0.251
465	0.251
465	0.252
466	0.252
466	0.252
467	0.252
467	0.253
467	0.253
468	0.253
468	0.254
469	0.254
469	0.255
470	0.255
470	0.256
471	0.256
471	0.256
472	0.256
472	0.257
472	0.257
473	0.257
473	0.257
474	0.258
474	0.258
475	0.259
475	0.259
476	0.26
476	0.26
477	0.26
477	0.261
477	0.261
478	0.262
478	0.263
479	0.263
479	0.264
480	0.265
480	0.265
481	0.266
481	0.267
482	0.268
482	0.268
482	0.269
483	0.27
483	0.271
484	0.271
484	0.271
485	0.272
485	0.273
486	0.273
486	0.274
487	0.275
487	0.276
487	0.277
488	0.278
488	0.279
489	0.281
489	0.283
490	0.284
490	0.286
491	0.287
491	0.288
492	0.289
492	0.291
492	0.292
493	0.293
493	0.295
494	0.296
494	0.297
495	0.299
495	0.3
496	0.301
496	0.303
496	0.305
497	0.307
497	0.309
498	0.311
498	0.313
499	0.315
499	0.317
500	0.319
500	0.321
501	0.323
501	0.324
501	0.326
502	0.328
502	0.329
503	0.331
503	0.333
504	0.334
504	0.336
505	0.338
505	0.34
506	0.342
506	0.344
506	0.346
507	0.348
507	0.35
508	0.352
508	0.354
509	0.356
509	0.358
510	0.36
510	0.362
511	0.364
511	0.366
511	0.368
512	0.369
512	0.371
513	0.373
513	0.375
514	0.376
514	0.378
515	0.38
515	0.382
515	0.383
516	0.385
516	0.387
517	0.389
517	0.391
518	0.393
518	0.394
519	0.396
519	0.397
520	0.399
520	0.401
520	0.402
521	0.404
521	0.405
522	0.406
522	0.407
523	0.408
523	0.409
524	0.41
524	0.41
524	0.411
525	0.412
525	0.412
526	0.413
526	0.413
527	0.414
527	0.414
528	0.415
528	0.416
529	0.416
529	0.417
529	0.417
530	0.417
530	0.417
531	0.417
531	0.417
532	0.417
532	0.417
533	0.417
533	0.416
533	0.416
534	0.415
534	0.415
535	0.414
535	0.414
536	0.413
536	0.412
537	0.412
537	0.411
538	0.41
538	0.409
538	0.408
539	0.407
539	0.406
540	0.405
540	0.404
541	0.402
541	0.401
542	0.4
542	0.398
542	0.397
543	0.395
543	0.394
544	0.392
544	0.391
545	0.39
545	0.388
546	0.387
546	0.385
547	0.384
547	0.382
547	0.381
548	0.38
548	0.379
549	0.377
549	0.376
550	0.374
550	0.373
551	0.371
551	0.37
551	0.368
552	0.367
552	0.366
553	0.364
553	0.363
554	0.361
554	0.36
555	0.358
555	0.357
556	0.355
556	0.354
556	0.352
557	0.351
557	0.349
558	0.347
558	0.346
559	0.344
559	0.342
560	0.341
560	0.339
560	0.338
561	0.337
561	0.335
562	0.333
562	0.332
563	0.33
563	0.329
564	0.328
564	0.326
564	0.325
565	0.323
565	0.322
566	0.32
566	0.318
567	0.316
567	0.314
568	0.313
568	0.311
568	0.309
569	0.308
569	0.306
570	0.304
570	0.302
571	0.301
571	0.299
572	0.298
572	0.297
573	0.295
573	0.294
573	0.293
574	0.291
574	0.29
575	0.289
575	0.288
576	0.287
576	0.286
577	0.285
577	0.285
577	0.284
578	0.283
578	0.283
579	0.282
579	0.282
580	0.28
580	0.279
581	0.278
581	0.277
581	0.276
582	0.275
582	0.274
583	0.274
583	0.272
584	0.271
584	0.27
585	0.269
585	0.269
585	0.268
586	0.267
586	0.267
587	0.266
587	0.266
588	0.265
588	0.265
589	0.265
589	0.264
590	0.264
590	0.263
590	0.263
591	0.262
591	0.261
592	0.26
592	0.259
593	0.259
593	0.258
594	0.257
594	0.256
594	0.256
595	0.255
595	0.255
596	0.255
596	0.255
597	0.255
597	0.254
598	0.253
598	0.253
598	0.252
599	0.252
599	0.251
600	0.25
600	0.249
601	0.248
601	0.247
602	0.246
602	0.246
602	0.246
603	0.246
603	0.246
604	0.245
604	0.245
605	0.245
605	0.245
606	0.244
606	0.244
606	0.243
607	0.242
607	0.242
608	0.241
608	0.24
609	0.239
609	0.239
610	0.239
610	0.238
610	0.238
611	0.238
611	0.238
612	0.238
612	0.238
613	0.238
613	0.237
614	0.237
614	0.235
614	0.235
615	0.234
615	0.233
616	0.232
616	0.231
617	0.23
617	0.229
618	0.229
618	0.228
618	0.228
619	0.227
619	0.227
620	0.227
620	0.227
621	0.226
621	0.226
622	0.225
622	0.225
622	0.224
623	0.223
623	0.223
624	0.223
624	0.222
625	0.222
625	0.221
626	0.221
626	0.221
626	0.22
627	0.22
627	0.219
628	0.218
628	0.217
629	0.216
629	0.214
630	0.213
630	0.211
630	0.21
631	0.208
631	0.206
632	0.204
632	0.202
633	0.2
633	0.198
634	0.196
634	0.194
634	0.192
635	0.189
635	0.186
636	0.183
636	0.18
637	0.176
637	0.173
638	0.17
638	0.166
638	0.162
639	0.158
639	0.154
640	0.15
640	0.146
641	0.142
641	0.138
642	0.135
642	0.131
642	0.127
643	0.122
643	0.118
644	0.113
644	0.109
645	0.104
645	0.099
646	0.094
646	0.088
646	0.083
647	0.077
647	0.072
648	0.067
648	0.061
649	0.054
649	0.048
650	0.042
650	0.035
650	0.028
651	0.02
651	0.01
652	-0.002
652	-0.014
653	-0.025
653	-0.034
653	-0.031
654	-0.014
654	-0.004
655	-0.006
655	-0.01
656	-0.015
656	-0.02
657	-0.022
657	-0.025
657	-0.03
658	-0.034
658	-0.058
659	-0.127
659	-0.215
660	-0.255
660	-0.279
661	-0.305
661	-0.332
661	-0.366
662	-0.397
662	-0.433
663	-0.474
663	-0.518
664	-0.565
664	-0.618
665	-0.672
665	-0.735
665	-0.794
666	-0.854
666	-0.919
667	-0.987
667	-1.056
668	-1.131
668	-1.207
669	-1.285
669	-1.363
669	-1.446
670	-1.528
670	-1.616
671	-1.833
671	-2.052
672	-2.257
672	-2.435
672	-2.556
673	-2.643
673	-2.719
674	-2.748
674	-2.764
675	-2.787
675	-2.921
676	-3.097
676	-3.045
676	-2.817
677	-2.605
677	-2.43
678	-2.227
678	-1.84
679	-1.622
679	-1.502
680	-1.41
680	-1.329
680	-1.26
681	-1.215
681	-1.155
682	-1.113
682	-1.074
683	-1.038
683	-1.018
684	-0.993
684	-0.97
684	-0.946
685	-0.918
685	-0.892
686	-0.865
686	-0.846
687	-0.816
687	-0.8
687	-0.777
688	-0.749
688	-0.725
689	-0.702
689	-0.686
690	-0.665
690	-0.651
691	-0.642
691	-0.644
691	-0.656
692	-0.647
692	-0.635
693	-0.63
693	-0.634
694	-0.627
694	-0.618
695	-0.619
695	-0.615
695	-0.594
696	-0.591
696	-0.571
697	-0.568
697	-0.581
698	-0.582
698	-0.57
698	-0.578
699	-0.581
699	-0.577
700	-0.568
700	-0.58
701	-0.576
701	-0.58
702	-0.579
702	-0.567
702	-0.557
703	-0.551
703	-0.543
704	-0.54
704	-0.538
705	-0.546
705	-0.542
705	-0.531
706	-0.531
706	-0.527
707	-0.53
707	-0.523
708	-0.521
708	-0.516
709	-0.517
709	-0.519
709	-0.512
710	-0.517
710	-0.528
711	-0.52
711	-0.519
712	-0.521
712	-0.533
713	-0.532
713	-0.534
713	-0.524
714	-0.52
714	-0.522
715	-0.511
715	-0.497
716	-0.501
716	-0.502
716	-0.493
717	-0.495
717	-0.497
718	-0.491
718	-0.493
719	-0.499
719	-0.499
720	-0.495
720	-0.501
720	-0.491
721	-0.479
721	-0.483
722	-0.471
722	-0.46
723	-0.458
723	-0.458
723	-0.445
724	-0.447
724	-0.453
725	-0.455
725	-0.468
726	-0.484
726	-0.484
727	-0.488
727	-0.5
727	-0.508
728	-0.511
728	-0.516
729	-0.513
729	-0.517
730	-0.52
730	-0.509
730	-0.496
731	-0.483
731	-0.492
732	-0.499
732	-0.498
733	-0.494
733	-0.497
734	-0.49
734	-0.491
734	-0.478
735	-0.48
735	-0.48
736	-0.49
736	-0.48
737	-0.472
737	-0.474
737	-0.482
738	-0.478
738	-0.479
739	-0.477
739	-0.492
740	-0.49
740	-0.49
741	-0.484
741	-0.479
741	-0.483
742	-0.48
742	-0.482
743	-0.492
743	-0.498
744	-0.494
744	-0.486
744	-0.485
745	-0.494
745	-0.485
746	-0.485
746	-0.482
747	-0.482
747	-0.471
748	-0.457
748	-0.461
748	-0.463
749	-0.459
749	-0.459
750	-0.449
750	-0.452
751	-0.456
751	-0.463
751	-0.466
752	-0.47
752	-0.479
753	-0.473
753	-0.472
754	-0.477
754	-0.473
754	-0.481
755	-0.493
755	-0.506
756	-0.496
756	-0.493
757	-0.491
757	-0.489
758	-0.491
758	-0.484
758	-0.487
759	-0.495
759	-0.485
760	-0.48
760	-0.475
761	-0.483
761	-0.482
761	-0.479
762	-0.482
762	-0.482
763	-0.493
763	-0.488
764	-0.485
764	-0.488
764	-0.493
765	-0.483
765	-0.473
766	-0.479
766	-0.489
767	-0.507
767	-0.498
768	-0.491
768	-0.501
768	-0.504
769	-0.519
769	-0.52
770	-0.522
770	-0.534
771	-0.531
771	-0.53
771	-0.529
772	-0.535
772	-0.535
773	-0.533
773	-0.53
774	-0.529
774	-0.531
775	-0.536
775	-0.53
775	-0.539
776	-0.537
776	-0.531
777	-0.539
777	-0.559
778	-0.559
778	-0.575
778	-0.562
779	-0.581
779	-0.584
780	-0.598
780	-0.595
781	-0.607
781	-0.601
781	-0.613
782	-0.611
782	-0.612
783	-0.603
783	-0.604
784	-0.586
784	-0.581
784	-0.588
785	-0.598
785	-0.58
786	-0.586
786	-0.566
787	-0.552
787	-0.549
788	-0.545
788	-0.551
788	-0.558
789	-0.557
789	-0.536
790	-0.514
790	-0.517
791	-0.517
791	-0.534
791	-0.539
792	-0.536
792	-0.521
793	-0.51
793	-0.489
794	-0.492
794	-0.488
794	-0.498
795	-0.495
795	-0.487
796	-0.47
796	-0.477
797	-0.471
797	-0.48
797	-0.489
798	-0.503
798	-0.499
799	-0.508
799	-0.491
800	-0.497
800	-0.49
801	-0.497
801	-0.482
801	-0.492
802	-0.502
802	-0.504
803	-0.508
803	-0.516
804	-0.511
804	-0.525
804	-0.516
805	-0.522
805	-0.508
806	-0.512
806	-0.496
807	-0.493
807	-0.478
807	-0.463
808	-0.453
808	-0.447
809	-0.431
809	-0.442
810	-0.438
810	-0.434
810	-0.432
811	-0.442
811	-0.432
812	-0.428
812	-0.434
813	-0.441
813	-0.439
813	-0.445
814	-0.44
814	-0.444
815	-0.45
815	-0.451
816	-0.442
816	-0.45
817	-0.458
817	-0.471
817	-0.488
818	-0.498
818	-0.497
819	-0.492
819	-0.491
820	-0.5
820	-0.499
820	-0.511
821	-0.508
821	-0.497
822	-0.471
822	-0.445
823	-0.438
823	-0.442
823	-0.442
824	-0.438
824	-0.439
825	-0.433
825	-0.414
826	-0.407
826	-0.413
826	-0.423
827	-0.421
827	-0.419
828	-0.402
828	-0.399
829	-0.39
829	-0.379
829	-0.37
830	-0.377
830	-0.376
831	-0.369
831	-0.36
832	-0.356
832	-0.348
832	-0.356
833	-0.354
833	-0.357
834	-0.356
834	-0.364
835	-0.354
835	-0.353
835	-0.349
836	-0.346
836	-0.346
837	-0.347
837	-0.339
838	-0.331
838	-0.32
839	-0.308
839	-0.297
839	-0.29
840	-0.279
840	-0.279
841	-0.272
841	-0.263
842	-0.258
842	-0.25
842	-0.245
843	-0.241
843	-0.237
844	-0.233
844	-0.227
845	-0.223
845	-0.215
845	-0.202
846	-0.193
846	-0.18
847	-0.172
847	-0.165
848	-0.155
848	-0.146
848	-0.13
849	-0.123
849	-0.113
850	-0.104
850	-0.1
851	-0.098
851	-0.092
851	-0.088
852	-0.076
852	-0.07
853	-0.064
853	-0.062
854	-0.055
854	-0.047
854	-0.04
855	-0.034
855	-0.031
856	-0.023
856	-0.017
857	-0.014
857	-0.007
857	-0.001
858	0.004
858	0.008
859	0.012
859	0.018
860	0.024
860	0.031
860	0.035
861	0.038
861	0.043
862	0.045
862	0.049
863	0.052
863	0.057
863	0.06
864	0.061
864	0.064
865	0.068
865	0.07
866	0.073
866	0.075
866	0.077
867	0.079
867	0.082
868	0.083
868	0.086
869	0.088
869	0.089
869	0.089
870	0.091
870	0.091
871	0.093
871	0.093
872	0.093
872	0.093
872	0.093
873	0.093
873	0.093
874	0.093
874	0.093
875	0.093
875	0.092
875	0.091
876	0.091
876	0.09
877	0.089
877	0.089
878	0.088
878	0.087
878	0.086
879	0.085
879	0.085
880	0.084
880	0.084
881	0.084
881	0.084
881	0.083
882	0.083
882	0.082
883	0.081
883	0.08
884	0.079
884	0.079
884	0.078
885	0.077
885	0.077
886	0.077
886	0.076
887	0.076
887	0.076
887	0.076
888	0.077
888	0.077
889	0.078
889	0.079
890	0.079
890	0.08
890	0.08
891	0.081
891	0.081
892	0.081
892	0.081
893	0.081
893	0.081
893	0.081
894	0.08
894	0.08
895	0.079
895	0.078
895	0.078
896	0.077
896	0.076
897	0.075
897	0.074
898	0.074
898	0.073
898	0.073
899	0.072
899	0.072
900	0.072
900	0.073
901	0.073
901	0.073
901	0.073
902	0.073
902	0.073
903	0.073
903	0.072
904	0.072
904	0.073
904	0.073
905	0.073
905	0.073
906	0.073
906	0.073
907	0.072
907	0.071
907	0.071
908	0.07
908	0.069
909	0.069
909	0.068
910	0.067
910	0.066
910	0.065
911	0.065
911	0.065
912	0.065
912	0.065
913	0.066
913	0.067
913	0.067
914	0.068
914	0.069
915	0.069
915	0.07
916	0.071
916	0.072
916	0.072
917	0.073
917	0.073
918	0.073
918	0.073
918	0.073
919	0.073
919	0.073
920	0.073
920	0.074
921	0.074
921	0.074
921	0.075
922	0.075
922	0.075
923	0.076
923	0.076
924	0.076
924	0.077
924	0.077
925	0.076
925	0.075
926	0.075
926	0.074
927	0.073
927	0.073
927	0.072
928	0.071
928	0.071
929	0.07
929	0.069
930	0.069
930	0.069
930	0.069
931	0.069
931	0.069
932	0.069
932	0.069
933	0.069
933	0.069
933	0.068
934	0.067
934	0.067
935	0.066
935	0.065
935	0.065
936	0.064
936	0.063
937	0.063
937	0.062
938	0.062
938	0.062
938	0.063
939	0.063
939	0.063
940	0.063
940	0.062
941	0.062
941	0.062
941	0.062
942	0.062
942	0.062
943	0.061
943	0.06
944	0.06
944	0.059
944	0.059
945	0.058
945	0.058
946	0.057
946	0.056
946	0.056
947	0.056
947	0.056
948	0.056
948	0.057
949	0.057
949	0.058
949	0.059
950	0.059
950	0.059
951	0.06
951	0.061
952	0.062
952	0.063
952	0.063
953	0.064
953	0.065
954	0.065
954	0.066
955	0.066
955	0.067
955	0.068
956	0.068
956	0.068
957	0.068
957	0.069
957	0.069
958	0.069
958	0.07
959	0.07
959	0.07
960	0.07
960	0.07
960	0.07
961	0.07
961	0.07
962	0.069
962	0.069
963	0.068
963	0.068
963	0.067
964	0.067
964	0.066
965	0.066
965	0.066
966	0.065
966	0.065
966	0.065
967	0.064
967	0.064
968	0.064
968	0.063
968	0.063
969	0.063
969	0.062
970	0.062
970	0.062
971	0.062
971	0.062
971	0.062
972	0.061
972	0.061
973	0.061
973	0.06
974	0.06
974	0.059
974	0.059
975	0.058
975	0.057
976	0.056
976	0.056
976	0.055
977	0.055
977	0.054
978	0.054
978	0.054
979	0.054
979	0.054
979	0.054
980	0.055
980	0.055
981	0.056
981	0.056
982	0.056
982	0.056
982	0.056
983	0.056
983	0.055
984	0.055
984	0.055
984	0.055
985	0.055
985	0.055
986	0.055
986	0.055
987	0.056
987	0.056
987	0.057
988	0.057
988	0.057
989	0.057
989	0.057
990	0.057
990	0.057
990	0.057
991	0.056
991	0.056
992	0.055
992	0.055
992	0.054
993	0.054
993	0.054
994	0.053
994	0.053
995	0.053
995	0.052
995	0.052
996	0.052
996	0.052
997	0.052
997	0.052
997	0.053
998	0.053
998	0.053
999	0.053
999	0.053
1000	0.053
1000	0.053
1000	0.053
1001	0.054
1001	0.053
1002	0.053
1002	0.052
1003	0.052
1003	0.052
1003	0.051
1004	0.051
1004	0.05
1005	0.049
1005	0.048
1005	0.047
1006	0.046
1006	0.045
1007	0.044
1007	0.044
1008	0.043
1008	0.043
1008	0.042
1009	0.042
1009	0.042
1010	0.042
1010	0.042
1010	0.042
1011	0.042
1011	0.042
1012	0.041
1012	0.041
1013	0.04
1013	0.039
1013	0.038
1014	0.037
1014	0.036
1015	0.035
1015	0.034
1016	0.033
1016	0.033
1016	0.032
1017	0.032
1017	0.032
1018	0.031
1018	0.031
1018	0.03
1019	0.03
1019	0.029
1020	0.028
1020	0.027
1021	0.026
1021	0.025
1021	0.024
1022	0.023
1022	0.022
1023	0.021
1023	0.02
1023	0.02
1024	0.02
1024	0.019
1025	0.019
1025	0.02
1026	0.02
1026	0.021
1026	0.021
1027	0.022
1027	0.022
1028	0.022
1028	0.023
1028	0.022
1029	0.022
1029	0.022
1030	0.022
1030	0.022
1031	0.022
1031	0.022
1031	0.022
1032	0.022
1032	0.022
1033	0.023
1033	0.024
1033	0.024
1034	0.025
1034	0.025
1035	0.026
1035	0.026
1036	0.026
1036	0.026
1036	0.026
1037	0.026
1037	0.025
1038	0.025
1038	0.025
1039	0.025
1039	0.024
1039	0.024
1040	0.025
1040	0.025
1041	0.026
1041	0.026
1041	0.026
1042	0.027
1042	0.027
1043	0.027
1043	0.027
1044	0.027
1044	0.027
1044	0.027
1045	0.026
1045	0.026
1046	0.026
1046	0.026
1046	0.027
1047	0.027
1047	0.027
1048	0.028
1048	0.028
1049	0.029
1049	0.029
1049	0.03
1050	0.03
1050	0.03
1051	0.03
1051	0.031
1051	0.031
1052	0.031
1052	0.032
1053	0.032
1053	0.031
1053	0.031
1054	0.031
1054	0.03
1055	0.03
1055	0.029
1056	0.028
1056	0.027
1056	0.026
1057	0.025
1057	0.024
1058	0.023
1058	0.023
1058	0.022
1059	0.022
1059	0.021
1060	0.021
1060	0.021
1061	0.021
1061	0.021
1061	0.022
1062	0.022
1062	0.022
1063	0.022
1063	0.021
1063	0.022
1064	0.022
1064	0.021
1065	0.021
1065	0.021
1066	0.02
1066	0.02
1066	0.019
1067	0.019
1067	0.019
1068	0.018
1068	0.017
1068	0.017
1069	0.017
1069	0.017
1070	0.016
1070	0.017
1071	0.016
1071	0.016
1071	0.016
1072	0.016
1072	0.016
1073	0.015
1073	0.015
1073	0.015
1074	0.015
1074	0.015
1075	0.015
1075	0.015
1076	0.014
1076	0.014
1076	0.014
1077	0.014
1077	0.014
1078	0.013
1078	0.013
1078	0.011
1079	0.011
1079	0.01
1080	0.009
1080	0.009
1080	0.008
1081	0.007
1081	0.006
1082	0.005
1082	0.005
1083	0.004
1083	0.004
1083	0.004
1084	0.003
1084	0.003
1085	0.002
1085	0.002
1085	0.002
1086	0.002
1086	0.001
1087	0.001
1087	0.002
1088	0.001
1088	0.001
1088	0.001
1089	0.001
1089	0.001
1090	0
1090	0
1090	-0
1091	-0
1091	-0
1092	-0
1092	0
1092	-0.001
1093	-0.001
1093	-0.001
1094	-0.001
1094	-0.002
1095	-0.002
1095	-0.002
1095	-0.002
1096	-0.003
1096	-0.003
1097	-0.004
1097	-0.003
1097	-0.004
1098	-0.004
1098	-0.005
1099	-0.004
1099	-0.004
1100	-0.005
1100	-0.005
1100	-0.006
1101	-0.007
1101	-0.009
1102	-0.01
1102	-0.011
1102	-0.012
1103	-0.013
1103	-0.014
1104	-0.015
1104	-0.017
1104	-0.018
1105	-0.019
1105	-0.021
1106	-0.022
1106	-0.023
1107	-0.026
1107	-0.029
1107	-0.033
1108	-0.035
1108	-0.037
1109	-0.039
1109	-0.042
1109	-0.043
1110	-0.043
1110	-0.046
1111	-0.052
1111	-0.053
