Data from 17C_3.4A_30min_2sec_int_Absorbance__290__00290.txt Node

Date: Mon Jun 19 16:16:53 CEST 2023
User: Marek
Spectrometer: MAYP115816
Trigger mode: 0
Integration Time (sec): 2.500000E-1
Scans to average: 10
Electric dark correction enabled: true
Nonlinearity correction enabled: true
Boxcar width: 5
XAxis mode: Wavelengths
Number of Pixels in Spectrum: 2068
>>>>>Begin Spectral Data<<<<<
199	-0.459
199	-0.46
200	-0.372
200	-0.327
201	-0.294
201	-0.286
202	-0.267
202	-0.256
203	-0.25
203	-0.247
204	-0.234
204	-0.223
205	-0.203
205	-0.199
205	-0.196
206	-0.198
206	-0.198
207	-0.191
207	-0.194
208	-0.194
208	-0.193
209	-0.187
209	-0.185
210	-0.194
210	-0.195
211	-0.194
211	-0.195
212	-0.198
212	-0.207
213	-0.203
213	-0.203
213	-0.21
214	-0.208
214	-0.21
215	-0.207
215	-0.214
216	-0.221
216	-0.228
217	-0.224
217	-0.227
218	-0.229
218	-0.229
219	-0.231
219	-0.239
220	-0.239
220	-0.245
221	-0.241
221	-0.241
221	-0.234
222	-0.232
222	-0.234
223	-0.238
223	-0.242
224	-0.243
224	-0.244
225	-0.239
225	-0.238
226	-0.245
226	-0.246
227	-0.253
227	-0.26
228	-0.26
228	-0.261
229	-0.261
229	-0.256
229	-0.251
230	-0.257
230	-0.255
231	-0.25
231	-0.242
232	-0.234
232	-0.233
233	-0.224
233	-0.223
234	-0.225
234	-0.222
235	-0.227
235	-0.23
236	-0.228
236	-0.229
236	-0.236
237	-0.245
237	-0.243
238	-0.252
238	-0.248
239	-0.248
239	-0.256
240	-0.254
240	-0.255
241	-0.259
241	-0.259
242	-0.264
242	-0.257
243	-0.256
243	-0.256
243	-0.261
244	-0.26
244	-0.257
245	-0.268
245	-0.264
246	-0.268
246	-0.273
247	-0.272
247	-0.275
248	-0.282
248	-0.282
249	-0.285
249	-0.29
250	-0.288
250	-0.286
250	-0.288
251	-0.287
251	-0.285
252	-0.287
252	-0.279
253	-0.279
253	-0.291
254	-0.288
254	-0.289
255	-0.295
255	-0.29
256	-0.285
256	-0.295
257	-0.29
257	-0.287
258	-0.302
258	-0.297
258	-0.29
259	-0.291
259	-0.296
260	-0.299
260	-0.301
261	-0.312
261	-0.305
262	-0.306
262	-0.304
263	-0.292
263	-0.29
264	-0.287
264	-0.29
265	-0.288
265	-0.292
265	-0.299
266	-0.296
266	-0.295
267	-0.306
267	-0.315
268	-0.329
268	-0.338
269	-0.34
269	-0.336
270	-0.337
270	-0.338
271	-0.336
271	-0.34
272	-0.339
272	-0.336
272	-0.331
273	-0.326
273	-0.332
274	-0.333
274	-0.335
275	-0.336
275	-0.329
276	-0.334
276	-0.327
277	-0.332
277	-0.345
278	-0.348
278	-0.347
278	-0.34
279	-0.344
279	-0.35
280	-0.349
280	-0.349
281	-0.346
281	-0.35
282	-0.344
282	-0.339
283	-0.335
283	-0.336
284	-0.334
284	-0.324
285	-0.32
285	-0.31
285	-0.307
286	-0.31
286	-0.308
287	-0.305
287	-0.294
288	-0.291
288	-0.293
289	-0.302
289	-0.311
290	-0.303
290	-0.303
291	-0.303
291	-0.299
292	-0.299
292	-0.301
292	-0.307
293	-0.31
293	-0.307
294	-0.296
294	-0.29
295	-0.291
295	-0.296
296	-0.294
296	-0.291
297	-0.285
297	-0.273
298	-0.267
298	-0.272
298	-0.264
299	-0.255
299	-0.255
300	-0.25
300	-0.243
301	-0.238
301	-0.237
302	-0.244
302	-0.255
303	-0.241
303	-0.231
304	-0.232
304	-0.231
305	-0.234
305	-0.231
305	-0.232
306	-0.218
306	-0.217
307	-0.204
307	-0.2
308	-0.213
308	-0.21
309	-0.209
309	-0.203
310	-0.189
310	-0.187
311	-0.178
311	-0.183
311	-0.18
312	-0.177
312	-0.181
313	-0.171
313	-0.172
314	-0.17
314	-0.174
315	-0.178
315	-0.178
316	-0.177
316	-0.172
317	-0.167
317	-0.161
318	-0.151
318	-0.147
318	-0.142
319	-0.134
319	-0.133
320	-0.127
320	-0.128
321	-0.133
321	-0.133
322	-0.126
322	-0.124
323	-0.121
323	-0.119
324	-0.113
324	-0.104
324	-0.094
325	-0.086
325	-0.071
326	-0.059
326	-0.045
327	-0.035
327	-0.02
328	-0.002
328	0.013
329	0.03
329	0.046
330	0.064
330	0.088
330	0.105
331	0.124
331	0.143
332	0.161
332	0.176
333	0.19
333	0.205
334	0.217
334	0.227
335	0.236
335	0.244
336	0.251
336	0.259
336	0.264
337	0.269
337	0.274
338	0.279
338	0.282
339	0.286
339	0.289
340	0.291
340	0.294
341	0.296
341	0.297
342	0.299
342	0.3
342	0.302
343	0.303
343	0.304
344	0.304
344	0.305
345	0.305
345	0.305
346	0.305
346	0.306
347	0.306
347	0.306
348	0.306
348	0.306
348	0.306
349	0.306
349	0.306
350	0.306
350	0.306
351	0.306
351	0.306
352	0.306
352	0.306
353	0.306
353	0.305
354	0.305
354	0.305
354	0.305
355	0.305
355	0.304
356	0.304
356	0.304
357	0.303
357	0.303
358	0.302
358	0.302
359	0.301
359	0.301
360	0.301
360	0.301
360	0.3
361	0.3
361	0.3
362	0.3
362	0.3
363	0.3
363	0.3
364	0.299
364	0.299
365	0.299
365	0.299
366	0.299
366	0.298
366	0.298
367	0.298
367	0.298
368	0.297
368	0.297
369	0.297
369	0.297
370	0.296
370	0.296
371	0.296
371	0.296
372	0.295
372	0.295
372	0.295
373	0.295
373	0.294
374	0.294
374	0.294
375	0.294
375	0.294
376	0.293
376	0.293
377	0.293
377	0.293
378	0.293
378	0.293
378	0.293
379	0.293
379	0.292
380	0.292
380	0.291
381	0.291
381	0.291
382	0.29
382	0.29
383	0.29
383	0.289
383	0.289
384	0.289
384	0.289
385	0.288
385	0.288
386	0.288
386	0.288
387	0.288
387	0.288
388	0.288
388	0.287
389	0.287
389	0.287
389	0.287
390	0.287
390	0.287
391	0.286
391	0.286
392	0.286
392	0.285
393	0.285
393	0.285
394	0.285
394	0.284
394	0.284
395	0.284
395	0.283
396	0.283
396	0.283
397	0.283
397	0.283
398	0.283
398	0.282
399	0.282
399	0.282
400	0.281
400	0.281
400	0.281
401	0.28
401	0.28
402	0.28
402	0.279
403	0.279
403	0.279
404	0.279
404	0.278
405	0.278
405	0.278
405	0.278
406	0.278
406	0.277
407	0.277
407	0.277
408	0.277
408	0.276
409	0.276
409	0.276
410	0.276
410	0.276
411	0.276
411	0.276
411	0.276
412	0.276
412	0.276
413	0.275
413	0.275
414	0.275
414	0.275
415	0.274
415	0.274
416	0.274
416	0.274
416	0.273
417	0.273
417	0.273
418	0.273
418	0.273
419	0.273
419	0.273
420	0.273
420	0.273
421	0.273
421	0.272
421	0.272
422	0.272
422	0.272
423	0.272
423	0.272
424	0.272
424	0.272
425	0.271
425	0.271
426	0.271
426	0.271
427	0.271
427	0.271
427	0.27
428	0.27
428	0.27
429	0.27
429	0.27
430	0.27
430	0.27
431	0.27
431	0.269
432	0.269
432	0.269
432	0.269
433	0.269
433	0.268
434	0.268
434	0.268
435	0.268
435	0.268
436	0.268
436	0.268
437	0.268
437	0.268
437	0.268
438	0.268
438	0.268
439	0.268
439	0.267
440	0.267
440	0.267
441	0.267
441	0.267
442	0.266
442	0.266
442	0.266
443	0.266
443	0.266
444	0.266
444	0.266
445	0.266
445	0.266
446	0.266
446	0.266
447	0.266
447	0.267
447	0.267
448	0.267
448	0.267
449	0.267
449	0.267
450	0.267
450	0.267
451	0.267
451	0.267
452	0.267
452	0.267
452	0.267
453	0.267
453	0.267
454	0.267
454	0.267
455	0.267
455	0.267
456	0.267
456	0.267
457	0.266
457	0.266
458	0.266
458	0.267
458	0.267
459	0.267
459	0.267
460	0.267
460	0.267
461	0.268
461	0.268
462	0.268
462	0.268
463	0.269
463	0.269
463	0.269
464	0.269
464	0.27
465	0.27
465	0.27
466	0.27
466	0.271
467	0.271
467	0.272
467	0.272
468	0.272
468	0.273
469	0.274
469	0.274
470	0.274
470	0.275
471	0.275
471	0.276
472	0.276
472	0.276
472	0.277
473	0.277
473	0.277
474	0.278
474	0.278
475	0.279
475	0.279
476	0.28
476	0.28
477	0.281
477	0.282
477	0.282
478	0.283
478	0.284
479	0.284
479	0.285
480	0.286
480	0.286
481	0.287
481	0.288
482	0.289
482	0.29
482	0.29
483	0.291
483	0.292
484	0.292
484	0.293
485	0.293
485	0.294
486	0.295
486	0.296
487	0.297
487	0.298
487	0.299
488	0.3
488	0.301
489	0.303
489	0.306
490	0.307
490	0.309
491	0.31
491	0.312
492	0.313
492	0.315
492	0.316
493	0.318
493	0.319
494	0.321
494	0.323
495	0.324
495	0.326
496	0.328
496	0.33
496	0.332
497	0.334
497	0.336
498	0.338
498	0.34
499	0.342
499	0.344
500	0.347
500	0.349
501	0.351
501	0.353
501	0.355
502	0.356
502	0.358
503	0.36
503	0.362
504	0.364
504	0.366
505	0.369
505	0.371
506	0.373
506	0.375
506	0.378
507	0.38
507	0.382
508	0.385
508	0.387
509	0.389
509	0.391
510	0.394
510	0.396
511	0.398
511	0.4
511	0.402
512	0.404
512	0.406
513	0.408
513	0.41
514	0.412
514	0.414
515	0.416
515	0.418
515	0.42
516	0.422
516	0.424
517	0.426
517	0.427
518	0.429
518	0.431
519	0.433
519	0.434
520	0.436
520	0.438
520	0.44
521	0.441
521	0.442
522	0.444
522	0.446
523	0.447
523	0.448
524	0.449
524	0.449
524	0.45
525	0.451
525	0.452
526	0.452
526	0.453
527	0.454
527	0.454
528	0.455
528	0.456
529	0.456
529	0.457
529	0.457
530	0.458
530	0.457
531	0.457
531	0.457
532	0.456
532	0.456
533	0.456
533	0.455
533	0.455
534	0.454
534	0.454
535	0.453
535	0.453
536	0.452
536	0.451
537	0.45
537	0.449
538	0.449
538	0.448
538	0.447
539	0.446
539	0.444
540	0.443
540	0.442
541	0.441
541	0.439
542	0.438
542	0.436
542	0.434
543	0.433
543	0.431
544	0.429
544	0.428
545	0.426
545	0.425
546	0.423
546	0.422
547	0.42
547	0.419
547	0.418
548	0.416
548	0.414
549	0.413
549	0.411
550	0.409
550	0.407
551	0.405
551	0.404
551	0.402
552	0.4
552	0.398
553	0.397
553	0.395
554	0.393
554	0.391
555	0.39
555	0.388
556	0.386
556	0.384
556	0.383
557	0.381
557	0.379
558	0.378
558	0.376
559	0.373
559	0.372
560	0.37
560	0.368
560	0.367
561	0.365
561	0.363
562	0.361
562	0.359
563	0.357
563	0.356
564	0.355
564	0.353
564	0.351
565	0.349
565	0.347
566	0.345
566	0.343
567	0.341
567	0.339
568	0.337
568	0.335
568	0.333
569	0.331
569	0.329
570	0.327
570	0.325
571	0.324
571	0.323
572	0.321
572	0.32
573	0.318
573	0.316
573	0.315
574	0.313
574	0.312
575	0.311
575	0.31
576	0.308
576	0.307
577	0.306
577	0.305
577	0.304
578	0.304
578	0.303
579	0.302
579	0.301
580	0.299
580	0.298
581	0.296
581	0.295
581	0.294
582	0.293
582	0.292
583	0.291
583	0.29
584	0.288
584	0.287
585	0.286
585	0.286
585	0.284
586	0.284
586	0.283
587	0.282
587	0.282
588	0.281
588	0.28
589	0.28
589	0.279
590	0.278
590	0.278
590	0.278
591	0.276
591	0.275
592	0.274
592	0.273
593	0.272
593	0.271
594	0.27
594	0.269
594	0.268
595	0.268
595	0.267
596	0.266
596	0.266
597	0.266
597	0.265
598	0.264
598	0.264
598	0.263
599	0.262
599	0.261
600	0.26
600	0.259
601	0.258
601	0.257
602	0.256
602	0.256
602	0.255
603	0.255
603	0.254
604	0.254
604	0.254
605	0.253
605	0.253
606	0.252
606	0.251
606	0.25
607	0.25
607	0.249
608	0.248
608	0.247
609	0.246
609	0.246
610	0.245
610	0.244
610	0.244
611	0.244
611	0.243
612	0.243
612	0.243
613	0.242
613	0.242
614	0.241
614	0.24
614	0.239
615	0.238
615	0.237
616	0.236
616	0.235
617	0.234
617	0.232
618	0.232
618	0.231
618	0.23
619	0.23
619	0.23
620	0.229
620	0.228
621	0.228
621	0.227
622	0.226
622	0.225
622	0.224
623	0.224
623	0.223
624	0.223
624	0.222
625	0.221
625	0.221
626	0.22
626	0.22
626	0.219
627	0.218
627	0.217
628	0.216
628	0.215
629	0.214
629	0.212
630	0.21
630	0.209
630	0.207
631	0.205
631	0.203
632	0.201
632	0.199
633	0.197
633	0.195
634	0.193
634	0.19
634	0.187
635	0.184
635	0.181
636	0.178
636	0.174
637	0.171
637	0.167
638	0.163
638	0.159
638	0.156
639	0.151
639	0.147
640	0.143
640	0.139
641	0.135
641	0.131
642	0.127
642	0.123
642	0.119
643	0.114
643	0.11
644	0.105
644	0.1
645	0.095
645	0.09
646	0.084
646	0.079
646	0.073
647	0.067
647	0.062
648	0.056
648	0.05
649	0.044
649	0.038
650	0.032
650	0.026
650	0.02
651	0.012
651	0.002
652	-0.009
652	-0.021
653	-0.032
653	-0.041
653	-0.038
654	-0.021
654	-0.012
655	-0.013
655	-0.017
656	-0.021
656	-0.025
657	-0.027
657	-0.03
657	-0.035
658	-0.039
658	-0.061
659	-0.129
659	-0.213
660	-0.253
660	-0.274
661	-0.3
661	-0.329
661	-0.361
662	-0.395
662	-0.43
663	-0.472
663	-0.517
664	-0.565
664	-0.619
665	-0.674
665	-0.737
665	-0.797
666	-0.857
666	-0.924
667	-0.992
667	-1.062
668	-1.138
668	-1.214
669	-1.293
669	-1.373
669	-1.458
670	-1.542
670	-1.621
671	-1.851
671	-2.063
672	-2.265
672	-2.441
672	-2.561
673	-2.647
673	-2.712
674	-2.737
674	-2.752
675	-2.775
675	-2.909
676	-3.08
676	-3.024
676	-2.791
677	-2.573
677	-2.384
678	-2.153
678	-1.772
679	-1.585
679	-1.472
680	-1.382
680	-1.304
680	-1.237
681	-1.193
681	-1.134
682	-1.092
682	-1.053
683	-1.015
683	-0.995
684	-0.971
684	-0.947
684	-0.921
685	-0.892
685	-0.864
686	-0.837
686	-0.817
687	-0.786
687	-0.771
687	-0.747
688	-0.718
688	-0.693
689	-0.67
689	-0.652
690	-0.63
690	-0.615
691	-0.604
691	-0.603
691	-0.615
692	-0.602
692	-0.586
693	-0.581
693	-0.583
694	-0.576
694	-0.568
695	-0.569
695	-0.563
695	-0.547
696	-0.543
696	-0.524
697	-0.525
697	-0.54
698	-0.54
698	-0.531
698	-0.54
699	-0.541
699	-0.539
700	-0.531
700	-0.544
701	-0.541
701	-0.545
702	-0.543
702	-0.53
702	-0.523
703	-0.516
703	-0.506
704	-0.503
704	-0.502
705	-0.511
705	-0.504
705	-0.492
706	-0.492
706	-0.486
707	-0.488
707	-0.478
708	-0.477
708	-0.47
709	-0.469
709	-0.468
709	-0.462
710	-0.465
710	-0.471
711	-0.459
711	-0.459
712	-0.461
712	-0.473
713	-0.469
713	-0.474
713	-0.463
714	-0.461
714	-0.463
715	-0.455
715	-0.443
716	-0.451
716	-0.452
716	-0.443
717	-0.448
717	-0.452
718	-0.445
718	-0.451
719	-0.458
719	-0.457
720	-0.451
720	-0.457
720	-0.45
721	-0.441
721	-0.444
722	-0.429
722	-0.417
723	-0.414
723	-0.415
723	-0.402
724	-0.404
724	-0.408
725	-0.411
725	-0.417
726	-0.429
726	-0.427
727	-0.43
727	-0.442
727	-0.448
728	-0.448
728	-0.456
729	-0.454
729	-0.46
730	-0.466
730	-0.46
730	-0.449
731	-0.439
731	-0.446
732	-0.457
732	-0.456
733	-0.454
733	-0.455
734	-0.448
734	-0.444
734	-0.43
735	-0.432
735	-0.43
736	-0.436
736	-0.425
737	-0.413
737	-0.413
737	-0.424
738	-0.418
738	-0.417
739	-0.417
739	-0.43
740	-0.424
740	-0.421
741	-0.419
741	-0.417
741	-0.419
742	-0.416
742	-0.413
743	-0.423
743	-0.428
744	-0.424
744	-0.413
744	-0.417
745	-0.429
745	-0.422
746	-0.422
746	-0.421
747	-0.419
747	-0.41
748	-0.399
748	-0.406
748	-0.407
749	-0.406
749	-0.409
750	-0.396
750	-0.397
751	-0.401
751	-0.411
751	-0.417
752	-0.42
752	-0.422
753	-0.416
753	-0.414
754	-0.42
754	-0.411
754	-0.425
755	-0.436
755	-0.443
756	-0.432
756	-0.431
757	-0.432
757	-0.431
758	-0.434
758	-0.431
758	-0.432
759	-0.436
759	-0.421
760	-0.416
760	-0.414
761	-0.422
761	-0.419
761	-0.413
762	-0.422
762	-0.422
763	-0.43
763	-0.431
764	-0.43
764	-0.441
764	-0.449
765	-0.441
765	-0.433
766	-0.438
766	-0.447
767	-0.456
767	-0.452
768	-0.445
768	-0.453
768	-0.455
769	-0.469
769	-0.47
770	-0.473
770	-0.485
771	-0.483
771	-0.485
771	-0.488
772	-0.492
772	-0.491
773	-0.49
773	-0.483
774	-0.479
774	-0.479
775	-0.479
775	-0.469
775	-0.473
776	-0.473
776	-0.461
777	-0.469
777	-0.489
778	-0.487
778	-0.505
778	-0.493
779	-0.51
779	-0.518
780	-0.53
780	-0.532
781	-0.54
781	-0.543
781	-0.555
782	-0.557
782	-0.56
783	-0.553
783	-0.555
784	-0.54
784	-0.535
784	-0.548
785	-0.553
785	-0.541
786	-0.545
786	-0.523
787	-0.504
787	-0.501
788	-0.502
788	-0.508
788	-0.516
789	-0.511
789	-0.491
790	-0.474
790	-0.474
791	-0.47
791	-0.485
791	-0.488
792	-0.484
792	-0.458
793	-0.45
793	-0.428
794	-0.436
794	-0.426
794	-0.435
795	-0.434
795	-0.426
796	-0.414
796	-0.425
797	-0.421
797	-0.432
797	-0.437
798	-0.451
798	-0.443
799	-0.455
799	-0.443
800	-0.448
800	-0.443
801	-0.446
801	-0.432
801	-0.442
802	-0.45
802	-0.452
803	-0.451
803	-0.458
804	-0.452
804	-0.462
804	-0.448
805	-0.454
805	-0.443
806	-0.443
806	-0.427
807	-0.43
807	-0.41
807	-0.4
808	-0.394
808	-0.393
809	-0.378
809	-0.389
810	-0.388
810	-0.386
810	-0.386
811	-0.393
811	-0.384
812	-0.386
812	-0.391
813	-0.395
813	-0.388
813	-0.394
814	-0.396
814	-0.397
815	-0.399
815	-0.4
816	-0.392
816	-0.395
817	-0.4
817	-0.415
817	-0.424
818	-0.433
818	-0.436
819	-0.426
819	-0.427
820	-0.44
820	-0.44
820	-0.449
821	-0.452
821	-0.439
822	-0.413
822	-0.393
823	-0.388
823	-0.389
823	-0.391
824	-0.384
824	-0.384
825	-0.374
825	-0.358
826	-0.352
826	-0.36
826	-0.368
827	-0.365
827	-0.361
828	-0.345
828	-0.344
829	-0.339
829	-0.325
829	-0.318
830	-0.325
830	-0.323
831	-0.319
831	-0.311
832	-0.31
832	-0.309
832	-0.316
833	-0.309
833	-0.31
834	-0.309
834	-0.315
835	-0.306
835	-0.306
835	-0.303
836	-0.299
836	-0.296
837	-0.293
837	-0.282
838	-0.275
838	-0.266
839	-0.256
839	-0.247
839	-0.241
840	-0.229
840	-0.227
841	-0.219
841	-0.216
842	-0.214
842	-0.211
842	-0.209
843	-0.205
843	-0.206
844	-0.202
844	-0.197
845	-0.191
845	-0.183
845	-0.171
846	-0.162
846	-0.15
847	-0.142
847	-0.136
848	-0.128
848	-0.12
848	-0.108
849	-0.101
849	-0.096
850	-0.088
850	-0.086
851	-0.081
851	-0.075
851	-0.071
852	-0.06
852	-0.053
853	-0.048
853	-0.046
854	-0.04
854	-0.032
854	-0.027
855	-0.021
855	-0.019
856	-0.014
856	-0.009
857	-0.006
857	-0.003
857	0.004
858	0.008
858	0.011
859	0.013
859	0.019
860	0.023
860	0.029
860	0.031
861	0.035
861	0.038
862	0.041
862	0.044
863	0.047
863	0.05
863	0.053
864	0.054
864	0.057
865	0.059
865	0.062
866	0.064
866	0.066
866	0.067
867	0.069
867	0.07
868	0.072
868	0.073
869	0.075
869	0.076
869	0.076
870	0.077
870	0.077
871	0.078
871	0.079
872	0.079
872	0.079
872	0.079
873	0.079
873	0.079
874	0.079
874	0.079
875	0.079
875	0.079
875	0.078
876	0.077
876	0.077
877	0.076
877	0.076
878	0.075
878	0.075
878	0.074
879	0.073
879	0.072
880	0.071
880	0.071
881	0.071
881	0.071
881	0.071
882	0.07
882	0.069
883	0.069
883	0.068
884	0.067
884	0.066
884	0.065
885	0.065
885	0.065
886	0.064
886	0.064
887	0.063
887	0.063
887	0.063
888	0.064
888	0.064
889	0.065
889	0.066
890	0.067
890	0.067
890	0.068
891	0.068
891	0.069
892	0.069
892	0.069
893	0.069
893	0.069
893	0.068
894	0.068
894	0.067
895	0.066
895	0.065
895	0.065
896	0.064
896	0.063
897	0.062
897	0.061
898	0.06
898	0.06
898	0.059
899	0.059
899	0.059
900	0.06
900	0.06
901	0.06
901	0.06
901	0.06
902	0.061
902	0.06
903	0.06
903	0.06
904	0.06
904	0.06
904	0.06
905	0.06
905	0.06
906	0.06
906	0.059
907	0.059
907	0.058
907	0.057
908	0.057
908	0.056
909	0.055
909	0.054
910	0.054
910	0.053
910	0.052
911	0.052
911	0.052
912	0.052
912	0.052
913	0.053
913	0.053
913	0.054
914	0.055
914	0.056
915	0.056
915	0.057
916	0.058
916	0.059
916	0.059
917	0.06
917	0.06
918	0.06
918	0.06
918	0.06
919	0.059
919	0.059
920	0.06
920	0.06
921	0.06
921	0.061
921	0.061
922	0.061
922	0.062
923	0.062
923	0.063
924	0.063
924	0.064
924	0.064
925	0.063
925	0.063
926	0.062
926	0.061
927	0.061
927	0.06
927	0.06
928	0.059
928	0.059
929	0.058
929	0.057
930	0.057
930	0.057
930	0.057
931	0.057
931	0.057
932	0.058
932	0.057
933	0.057
933	0.057
933	0.056
934	0.056
934	0.055
935	0.055
935	0.054
935	0.054
936	0.053
936	0.052
937	0.051
937	0.051
938	0.051
938	0.051
938	0.051
939	0.051
939	0.052
940	0.052
940	0.051
941	0.051
941	0.051
941	0.052
942	0.051
942	0.051
943	0.05
943	0.05
944	0.049
944	0.049
944	0.048
945	0.048
945	0.048
946	0.047
946	0.046
946	0.046
947	0.046
947	0.046
948	0.046
948	0.047
949	0.047
949	0.048
949	0.048
950	0.049
950	0.049
951	0.05
951	0.05
952	0.051
952	0.052
952	0.052
953	0.053
953	0.053
954	0.053
954	0.054
955	0.055
955	0.055
955	0.056
956	0.056
956	0.057
957	0.057
957	0.057
957	0.057
958	0.058
958	0.058
959	0.059
959	0.059
960	0.059
960	0.059
960	0.06
961	0.059
961	0.059
962	0.058
962	0.058
963	0.058
963	0.057
963	0.056
964	0.056
964	0.056
965	0.055
965	0.054
966	0.054
966	0.054
966	0.054
967	0.053
967	0.053
968	0.053
968	0.052
968	0.052
969	0.052
969	0.051
970	0.051
970	0.051
971	0.051
971	0.051
971	0.051
972	0.051
972	0.05
973	0.05
973	0.049
974	0.049
974	0.048
974	0.048
975	0.047
975	0.046
976	0.045
976	0.044
976	0.044
977	0.044
977	0.043
978	0.043
978	0.043
979	0.043
979	0.043
979	0.043
980	0.044
980	0.044
981	0.045
981	0.045
982	0.045
982	0.045
982	0.045
983	0.044
983	0.044
984	0.044
984	0.044
984	0.044
985	0.044
985	0.044
986	0.044
986	0.044
987	0.045
987	0.046
987	0.046
988	0.047
988	0.047
989	0.047
989	0.046
990	0.046
990	0.046
990	0.046
991	0.045
991	0.045
992	0.044
992	0.043
992	0.043
993	0.043
993	0.043
994	0.042
994	0.042
995	0.042
995	0.042
995	0.041
996	0.041
996	0.041
997	0.042
997	0.042
997	0.042
998	0.042
998	0.042
999	0.042
999	0.043
1000	0.043
1000	0.043
1000	0.043
1001	0.043
1001	0.043
1002	0.042
1002	0.042
1003	0.041
1003	0.041
1003	0.041
1004	0.04
1004	0.039
1005	0.038
1005	0.037
1005	0.037
1006	0.036
1006	0.035
1007	0.035
1007	0.034
1008	0.033
1008	0.033
1008	0.033
1009	0.033
1009	0.033
1010	0.033
1010	0.033
1010	0.033
1011	0.033
1011	0.032
1012	0.032
1012	0.031
1013	0.03
1013	0.029
1013	0.027
1014	0.026
1014	0.025
1015	0.024
1015	0.024
1016	0.023
1016	0.022
1016	0.022
1017	0.021
1017	0.021
1018	0.021
1018	0.021
1018	0.02
1019	0.02
1019	0.019
1020	0.018
1020	0.017
1021	0.016
1021	0.015
1021	0.014
1022	0.013
1022	0.012
1023	0.011
1023	0.011
1023	0.01
1024	0.01
1024	0.01
1025	0.01
1025	0.01
1026	0.011
1026	0.011
1026	0.012
1027	0.012
1027	0.013
1028	0.013
1028	0.014
1028	0.013
1029	0.014
1029	0.014
1030	0.013
1030	0.013
1031	0.013
1031	0.013
1031	0.013
1032	0.013
1032	0.014
1033	0.014
1033	0.015
1033	0.015
1034	0.016
1034	0.017
1035	0.017
1035	0.017
1036	0.017
1036	0.017
1036	0.017
1037	0.017
1037	0.016
1038	0.016
1038	0.016
1039	0.016
1039	0.016
1039	0.016
1040	0.016
1040	0.017
1041	0.017
1041	0.018
1041	0.018
1042	0.018
1042	0.018
1043	0.019
1043	0.019
1044	0.019
1044	0.019
1044	0.019
1045	0.019
1045	0.019
1046	0.019
1046	0.019
1046	0.02
1047	0.02
1047	0.02
1048	0.021
1048	0.021
1049	0.021
1049	0.021
1049	0.022
1050	0.022
1050	0.023
1051	0.023
1051	0.023
1051	0.023
1052	0.023
1052	0.024
1053	0.024
1053	0.024
1053	0.023
1054	0.023
1054	0.023
1055	0.022
1055	0.022
1056	0.021
1056	0.02
1056	0.019
1057	0.018
1057	0.017
1058	0.016
1058	0.016
1058	0.015
1059	0.014
1059	0.014
1060	0.013
1060	0.013
1061	0.013
1061	0.013
1061	0.013
1062	0.013
1062	0.013
1063	0.013
1063	0.013
1063	0.013
1064	0.014
1064	0.013
1065	0.013
1065	0.013
1066	0.012
1066	0.012
1066	0.011
1067	0.011
1067	0.011
1068	0.01
1068	0.01
1068	0.01
1069	0.01
1069	0.009
1070	0.009
1070	0.009
1071	0.009
1071	0.009
1071	0.009
1072	0.009
1072	0.009
1073	0.009
1073	0.008
1073	0.008
1074	0.008
1074	0.009
1075	0.008
1075	0.008
1076	0.007
1076	0.007
1076	0.007
1077	0.007
1077	0.007
1078	0.006
1078	0.005
1078	0.004
1079	0.004
1079	0.004
1080	0.003
1080	0.003
1080	0.002
1081	0.001
1081	0
1082	-0
1082	-0.001
1083	-0.001
1083	-0.001
1083	-0.002
1084	-0.002
1084	-0.002
1085	-0.003
1085	-0.003
1085	-0.003
1086	-0.003
1086	-0.004
1087	-0.003
1087	-0.003
1088	-0.003
1088	-0.003
1088	-0.004
1089	-0.004
1089	-0.004
1090	-0.004
1090	-0.004
1090	-0.004
1091	-0.004
1091	-0.004
1092	-0.005
1092	-0.004
1092	-0.005
1093	-0.005
1093	-0.005
1094	-0.005
1094	-0.005
1095	-0.006
1095	-0.005
1095	-0.005
1096	-0.006
1096	-0.006
1097	-0.006
1097	-0.006
1097	-0.005
1098	-0.006
1098	-0.006
1099	-0.006
1099	-0.007
1100	-0.007
1100	-0.007
1100	-0.008
1101	-0.009
1101	-0.011
1102	-0.012
1102	-0.013
1102	-0.013
1103	-0.014
1103	-0.015
1104	-0.015
1104	-0.016
1104	-0.017
1105	-0.018
1105	-0.019
1106	-0.02
1106	-0.021
1107	-0.023
1107	-0.025
1107	-0.028
1108	-0.029
1108	-0.031
1109	-0.033
1109	-0.035
1109	-0.035
1110	-0.035
1110	-0.036
1111	-0.039
1111	-0.038
