Data from 17C_3.4A_30min_2sec_int_Absorbance__520__00520.txt Node

Date: Mon Jun 19 16:26:27 CEST 2023
User: Marek
Spectrometer: MAYP115816
Trigger mode: 0
Integration Time (sec): 2.500000E-1
Scans to average: 10
Electric dark correction enabled: true
Nonlinearity correction enabled: true
Boxcar width: 5
XAxis mode: Wavelengths
Number of Pixels in Spectrum: 2068
>>>>>Begin Spectral Data<<<<<
199	-0.529
199	-0.536
200	-0.456
200	-0.412
201	-0.378
201	-0.368
202	-0.354
202	-0.34
203	-0.334
203	-0.335
204	-0.325
204	-0.316
205	-0.299
205	-0.294
205	-0.294
206	-0.298
206	-0.302
207	-0.292
207	-0.295
208	-0.297
208	-0.292
209	-0.289
209	-0.289
210	-0.295
210	-0.299
211	-0.3
211	-0.301
212	-0.305
212	-0.31
213	-0.309
213	-0.309
213	-0.313
214	-0.311
214	-0.312
215	-0.308
215	-0.314
216	-0.316
216	-0.322
217	-0.315
217	-0.322
218	-0.322
218	-0.323
219	-0.324
219	-0.33
220	-0.335
220	-0.344
221	-0.341
221	-0.341
221	-0.334
222	-0.331
222	-0.33
223	-0.334
223	-0.337
224	-0.342
224	-0.344
225	-0.336
225	-0.33
226	-0.335
226	-0.335
227	-0.34
227	-0.347
228	-0.349
228	-0.351
229	-0.35
229	-0.346
229	-0.341
230	-0.346
230	-0.351
231	-0.347
231	-0.339
232	-0.33
232	-0.33
233	-0.323
233	-0.322
234	-0.322
234	-0.32
235	-0.321
235	-0.325
236	-0.322
236	-0.323
236	-0.33
237	-0.34
237	-0.34
238	-0.35
238	-0.346
239	-0.347
239	-0.354
240	-0.352
240	-0.354
241	-0.358
241	-0.359
242	-0.364
242	-0.361
243	-0.359
243	-0.36
243	-0.367
244	-0.366
244	-0.362
245	-0.376
245	-0.371
246	-0.377
246	-0.386
247	-0.386
247	-0.39
248	-0.396
248	-0.392
249	-0.396
249	-0.404
250	-0.405
250	-0.4
250	-0.404
251	-0.4
251	-0.398
252	-0.4
252	-0.39
253	-0.393
253	-0.404
254	-0.4
254	-0.398
255	-0.406
255	-0.401
256	-0.397
256	-0.403
257	-0.399
257	-0.396
258	-0.41
258	-0.408
258	-0.404
259	-0.402
259	-0.41
260	-0.408
260	-0.412
261	-0.424
261	-0.419
262	-0.415
262	-0.416
263	-0.406
263	-0.403
264	-0.401
264	-0.409
265	-0.402
265	-0.409
265	-0.415
266	-0.414
266	-0.407
267	-0.416
267	-0.424
268	-0.439
268	-0.444
269	-0.444
269	-0.441
270	-0.446
270	-0.449
271	-0.447
271	-0.453
272	-0.459
272	-0.456
272	-0.45
273	-0.448
273	-0.456
274	-0.463
274	-0.462
275	-0.465
275	-0.459
276	-0.461
276	-0.45
277	-0.456
277	-0.474
278	-0.486
278	-0.479
278	-0.474
279	-0.476
279	-0.486
280	-0.482
280	-0.481
281	-0.478
281	-0.486
282	-0.476
282	-0.476
283	-0.463
283	-0.466
284	-0.462
284	-0.45
285	-0.446
285	-0.443
285	-0.442
286	-0.448
286	-0.441
287	-0.44
287	-0.425
288	-0.423
288	-0.432
289	-0.44
289	-0.45
290	-0.44
290	-0.441
291	-0.437
291	-0.431
292	-0.437
292	-0.443
292	-0.445
293	-0.447
293	-0.434
294	-0.425
294	-0.416
295	-0.414
295	-0.411
296	-0.409
296	-0.409
297	-0.403
297	-0.388
298	-0.383
298	-0.391
298	-0.381
299	-0.374
299	-0.376
300	-0.373
300	-0.37
301	-0.363
301	-0.361
302	-0.366
302	-0.374
303	-0.363
303	-0.35
304	-0.353
304	-0.352
305	-0.355
305	-0.356
305	-0.352
306	-0.341
306	-0.333
307	-0.317
307	-0.317
308	-0.328
308	-0.326
309	-0.33
309	-0.319
310	-0.307
310	-0.301
311	-0.294
311	-0.3
311	-0.299
312	-0.299
312	-0.301
313	-0.29
313	-0.293
314	-0.291
314	-0.295
315	-0.296
315	-0.295
316	-0.292
316	-0.289
317	-0.283
317	-0.276
318	-0.265
318	-0.26
318	-0.254
319	-0.245
319	-0.242
320	-0.235
320	-0.236
321	-0.241
321	-0.237
322	-0.232
322	-0.229
323	-0.229
323	-0.228
324	-0.225
324	-0.214
324	-0.204
325	-0.197
325	-0.184
326	-0.17
326	-0.155
327	-0.141
327	-0.123
328	-0.102
328	-0.084
329	-0.062
329	-0.046
330	-0.024
330	0.003
330	0.024
331	0.046
331	0.067
332	0.085
332	0.102
333	0.119
333	0.135
334	0.15
334	0.162
335	0.174
335	0.184
336	0.193
336	0.203
336	0.209
337	0.217
337	0.222
338	0.228
338	0.231
339	0.237
339	0.242
340	0.244
340	0.247
341	0.249
341	0.251
342	0.254
342	0.255
342	0.257
343	0.259
343	0.26
344	0.261
344	0.261
345	0.262
345	0.263
346	0.263
346	0.263
347	0.264
347	0.264
348	0.265
348	0.265
348	0.265
349	0.265
349	0.265
350	0.265
350	0.265
351	0.265
351	0.265
352	0.264
352	0.264
353	0.264
353	0.264
354	0.263
354	0.263
354	0.262
355	0.262
355	0.262
356	0.262
356	0.262
357	0.261
357	0.261
358	0.261
358	0.261
359	0.261
359	0.26
360	0.26
360	0.26
360	0.26
361	0.26
361	0.259
362	0.26
362	0.259
363	0.259
363	0.259
364	0.259
364	0.258
365	0.258
365	0.258
366	0.258
366	0.258
366	0.258
367	0.258
367	0.257
368	0.257
368	0.257
369	0.257
369	0.257
370	0.257
370	0.256
371	0.256
371	0.256
372	0.256
372	0.256
372	0.256
373	0.255
373	0.255
374	0.255
374	0.255
375	0.255
375	0.255
376	0.255
376	0.255
377	0.255
377	0.254
378	0.254
378	0.255
378	0.254
379	0.254
379	0.254
380	0.254
380	0.253
381	0.253
381	0.253
382	0.252
382	0.252
383	0.251
383	0.251
383	0.251
384	0.25
384	0.25
385	0.25
385	0.251
386	0.251
386	0.251
387	0.25
387	0.25
388	0.25
388	0.25
389	0.25
389	0.25
389	0.25
390	0.25
390	0.249
391	0.249
391	0.249
392	0.249
392	0.248
393	0.248
393	0.248
394	0.248
394	0.247
394	0.247
395	0.247
395	0.247
396	0.247
396	0.247
397	0.246
397	0.246
398	0.246
398	0.246
399	0.246
399	0.246
400	0.246
400	0.245
400	0.245
401	0.244
401	0.244
402	0.244
402	0.244
403	0.243
403	0.243
404	0.243
404	0.243
405	0.243
405	0.243
405	0.242
406	0.242
406	0.242
407	0.242
407	0.241
408	0.241
408	0.241
409	0.241
409	0.241
410	0.241
410	0.241
411	0.241
411	0.241
411	0.241
412	0.241
412	0.241
413	0.241
413	0.241
414	0.24
414	0.24
415	0.24
415	0.24
416	0.24
416	0.239
416	0.239
417	0.239
417	0.239
418	0.239
418	0.239
419	0.238
419	0.239
420	0.238
420	0.238
421	0.238
421	0.238
421	0.238
422	0.238
422	0.238
423	0.238
423	0.238
424	0.238
424	0.238
425	0.238
425	0.238
426	0.237
426	0.237
427	0.237
427	0.237
427	0.237
428	0.237
428	0.237
429	0.237
429	0.237
430	0.237
430	0.237
431	0.236
431	0.236
432	0.236
432	0.236
432	0.236
433	0.235
433	0.235
434	0.235
434	0.235
435	0.235
435	0.235
436	0.235
436	0.235
437	0.235
437	0.235
437	0.235
438	0.235
438	0.235
439	0.235
439	0.235
440	0.234
440	0.234
441	0.234
441	0.234
442	0.233
442	0.233
442	0.233
443	0.233
443	0.233
444	0.233
444	0.233
445	0.233
445	0.233
446	0.233
446	0.233
447	0.233
447	0.234
447	0.234
448	0.234
448	0.234
449	0.233
449	0.234
450	0.234
450	0.234
451	0.234
451	0.234
452	0.234
452	0.234
452	0.234
453	0.234
453	0.234
454	0.233
454	0.233
455	0.233
455	0.233
456	0.233
456	0.233
457	0.233
457	0.233
458	0.233
458	0.233
458	0.233
459	0.234
459	0.234
460	0.234
460	0.234
461	0.234
461	0.234
462	0.234
462	0.235
463	0.235
463	0.235
463	0.235
464	0.235
464	0.235
465	0.236
465	0.236
466	0.236
466	0.237
467	0.237
467	0.237
467	0.237
468	0.238
468	0.238
469	0.238
469	0.239
470	0.239
470	0.24
471	0.24
471	0.24
472	0.24
472	0.241
472	0.241
473	0.241
473	0.242
474	0.242
474	0.242
475	0.243
475	0.243
476	0.244
476	0.244
477	0.244
477	0.245
477	0.245
478	0.246
478	0.246
479	0.247
479	0.248
480	0.248
480	0.248
481	0.249
481	0.25
482	0.251
482	0.251
482	0.252
483	0.252
483	0.253
484	0.253
484	0.254
485	0.254
485	0.255
486	0.255
486	0.256
487	0.257
487	0.257
487	0.258
488	0.259
488	0.26
489	0.262
489	0.263
490	0.265
490	0.266
491	0.267
491	0.269
492	0.27
492	0.271
492	0.273
493	0.274
493	0.275
494	0.276
494	0.277
495	0.278
495	0.28
496	0.281
496	0.282
496	0.284
497	0.286
497	0.288
498	0.29
498	0.291
499	0.293
499	0.295
500	0.297
500	0.299
501	0.3
501	0.302
501	0.303
502	0.304
502	0.305
503	0.307
503	0.308
504	0.31
504	0.312
505	0.314
505	0.315
506	0.317
506	0.319
506	0.321
507	0.323
507	0.325
508	0.326
508	0.328
509	0.33
509	0.332
510	0.334
510	0.335
511	0.337
511	0.339
511	0.34
512	0.342
512	0.344
513	0.345
513	0.347
514	0.348
514	0.35
515	0.351
515	0.353
515	0.355
516	0.356
516	0.358
517	0.36
517	0.361
518	0.363
518	0.364
519	0.366
519	0.367
520	0.368
520	0.37
520	0.371
521	0.373
521	0.374
522	0.375
522	0.376
523	0.377
523	0.378
524	0.378
524	0.379
524	0.38
525	0.38
525	0.38
526	0.381
526	0.382
527	0.382
527	0.383
528	0.384
528	0.384
529	0.384
529	0.385
529	0.385
530	0.385
530	0.385
531	0.385
531	0.385
532	0.385
532	0.385
533	0.385
533	0.384
533	0.384
534	0.384
534	0.383
535	0.383
535	0.382
536	0.382
536	0.381
537	0.381
537	0.38
538	0.379
538	0.378
538	0.377
539	0.377
539	0.376
540	0.374
540	0.373
541	0.372
541	0.371
542	0.37
542	0.369
542	0.367
543	0.366
543	0.365
544	0.363
544	0.362
545	0.361
545	0.36
546	0.359
546	0.357
547	0.356
547	0.355
547	0.354
548	0.353
548	0.352
549	0.35
549	0.349
550	0.348
550	0.346
551	0.345
551	0.343
551	0.342
552	0.341
552	0.34
553	0.338
553	0.337
554	0.336
554	0.334
555	0.333
555	0.331
556	0.33
556	0.329
556	0.328
557	0.326
557	0.325
558	0.324
558	0.322
559	0.32
559	0.319
560	0.318
560	0.317
560	0.315
561	0.314
561	0.313
562	0.311
562	0.31
563	0.308
563	0.307
564	0.305
564	0.304
564	0.303
565	0.302
565	0.3
566	0.299
566	0.297
567	0.296
567	0.294
568	0.292
568	0.291
568	0.289
569	0.288
569	0.286
570	0.285
570	0.283
571	0.282
571	0.281
572	0.279
572	0.278
573	0.277
573	0.275
573	0.274
574	0.273
574	0.272
575	0.271
575	0.271
576	0.27
576	0.269
577	0.268
577	0.268
577	0.268
578	0.267
578	0.267
579	0.267
579	0.266
580	0.265
580	0.263
581	0.262
581	0.261
581	0.261
582	0.26
582	0.259
583	0.258
583	0.257
584	0.256
584	0.255
585	0.255
585	0.254
585	0.254
586	0.253
586	0.253
587	0.253
587	0.252
588	0.251
588	0.251
589	0.251
589	0.25
590	0.25
590	0.25
590	0.25
591	0.249
591	0.248
592	0.247
592	0.246
593	0.246
593	0.246
594	0.245
594	0.244
594	0.244
595	0.244
595	0.243
596	0.243
596	0.244
597	0.244
597	0.243
598	0.243
598	0.243
598	0.242
599	0.242
599	0.241
600	0.24
600	0.239
601	0.238
601	0.237
602	0.236
602	0.236
602	0.236
603	0.236
603	0.236
604	0.236
604	0.236
605	0.236
605	0.236
606	0.236
606	0.235
606	0.235
607	0.234
607	0.234
608	0.233
608	0.232
609	0.232
609	0.231
610	0.231
610	0.231
610	0.231
611	0.231
611	0.231
612	0.231
612	0.232
613	0.231
613	0.231
614	0.23
614	0.229
614	0.228
615	0.228
615	0.227
616	0.226
616	0.225
617	0.224
617	0.223
618	0.223
618	0.222
618	0.222
619	0.222
619	0.222
620	0.222
620	0.222
621	0.222
621	0.222
622	0.221
622	0.221
622	0.22
623	0.22
623	0.22
624	0.22
624	0.219
625	0.219
625	0.219
626	0.218
626	0.218
626	0.218
627	0.217
627	0.217
628	0.216
628	0.215
629	0.214
629	0.213
630	0.212
630	0.211
630	0.209
631	0.208
631	0.206
632	0.204
632	0.202
633	0.201
633	0.199
634	0.197
634	0.195
634	0.192
635	0.19
635	0.187
636	0.184
636	0.181
637	0.178
637	0.175
638	0.172
638	0.168
638	0.165
639	0.161
639	0.157
640	0.153
640	0.149
641	0.146
641	0.142
642	0.138
642	0.135
642	0.131
643	0.127
643	0.123
644	0.118
644	0.114
645	0.109
645	0.104
646	0.099
646	0.094
646	0.088
647	0.083
647	0.078
648	0.072
648	0.066
649	0.06
649	0.053
650	0.047
650	0.04
650	0.034
651	0.026
651	0.016
652	0.004
652	-0.009
653	-0.02
653	-0.03
653	-0.027
654	-0.011
654	-0.002
655	-0.004
655	-0.008
656	-0.013
656	-0.018
657	-0.021
657	-0.024
657	-0.029
658	-0.035
658	-0.058
659	-0.129
659	-0.216
660	-0.256
660	-0.281
661	-0.307
661	-0.336
661	-0.368
662	-0.401
662	-0.435
663	-0.473
663	-0.517
664	-0.561
664	-0.613
665	-0.666
665	-0.726
665	-0.783
666	-0.842
666	-0.906
667	-0.973
667	-1.04
668	-1.114
668	-1.189
669	-1.265
669	-1.342
669	-1.422
670	-1.498
670	-1.562
671	-1.736
671	-1.996
672	-2.218
672	-2.405
672	-2.532
673	-2.623
673	-2.702
674	-2.741
674	-2.759
675	-2.783
675	-2.921
676	-3.11
676	-3.06
676	-2.835
677	-2.628
677	-2.46
678	-2.275
678	-1.948
679	-1.67
679	-1.532
680	-1.437
680	-1.353
680	-1.283
681	-1.236
681	-1.176
682	-1.134
682	-1.095
683	-1.058
683	-1.038
684	-1.016
684	-0.994
684	-0.971
685	-0.942
685	-0.918
686	-0.891
686	-0.872
687	-0.843
687	-0.828
687	-0.805
688	-0.778
688	-0.753
689	-0.729
689	-0.713
690	-0.693
690	-0.678
691	-0.672
691	-0.675
691	-0.689
692	-0.678
692	-0.668
693	-0.659
693	-0.666
694	-0.658
694	-0.649
695	-0.652
695	-0.65
695	-0.633
696	-0.627
696	-0.606
697	-0.605
697	-0.619
698	-0.621
698	-0.609
698	-0.62
699	-0.623
699	-0.619
700	-0.606
700	-0.617
701	-0.615
701	-0.62
702	-0.616
702	-0.604
702	-0.596
703	-0.589
703	-0.582
704	-0.579
704	-0.579
705	-0.59
705	-0.583
705	-0.571
706	-0.568
706	-0.566
707	-0.57
707	-0.566
708	-0.563
708	-0.554
709	-0.556
709	-0.553
709	-0.543
710	-0.551
710	-0.56
711	-0.553
711	-0.551
712	-0.552
712	-0.562
713	-0.562
713	-0.57
713	-0.561
714	-0.56
714	-0.563
715	-0.553
715	-0.538
716	-0.547
716	-0.55
716	-0.54
717	-0.543
717	-0.546
718	-0.535
718	-0.535
719	-0.541
719	-0.541
720	-0.536
720	-0.544
720	-0.537
721	-0.527
721	-0.53
722	-0.516
722	-0.507
723	-0.505
723	-0.508
723	-0.497
724	-0.501
724	-0.507
725	-0.507
725	-0.515
726	-0.526
726	-0.527
727	-0.534
727	-0.544
727	-0.552
728	-0.553
728	-0.558
729	-0.557
729	-0.558
730	-0.564
730	-0.555
730	-0.544
731	-0.53
731	-0.538
732	-0.546
732	-0.543
733	-0.54
733	-0.543
734	-0.534
734	-0.534
734	-0.52
735	-0.52
735	-0.52
736	-0.529
736	-0.516
737	-0.508
737	-0.514
737	-0.522
738	-0.519
738	-0.518
739	-0.519
739	-0.531
740	-0.531
740	-0.532
741	-0.532
741	-0.532
741	-0.533
742	-0.526
742	-0.526
743	-0.532
743	-0.539
744	-0.533
744	-0.523
744	-0.524
745	-0.53
745	-0.521
746	-0.521
746	-0.519
747	-0.521
747	-0.513
748	-0.499
748	-0.503
748	-0.504
749	-0.504
749	-0.504
750	-0.493
750	-0.494
751	-0.495
751	-0.502
751	-0.506
752	-0.51
752	-0.518
753	-0.514
753	-0.514
754	-0.519
754	-0.513
754	-0.525
755	-0.542
755	-0.553
756	-0.544
756	-0.54
757	-0.536
757	-0.532
758	-0.535
758	-0.532
758	-0.533
759	-0.54
759	-0.526
760	-0.516
760	-0.512
761	-0.522
761	-0.52
761	-0.521
762	-0.529
762	-0.528
763	-0.538
763	-0.536
764	-0.536
764	-0.545
764	-0.552
765	-0.544
765	-0.53
766	-0.534
766	-0.541
767	-0.553
767	-0.55
768	-0.542
768	-0.551
768	-0.556
769	-0.572
769	-0.57
770	-0.575
770	-0.588
771	-0.588
771	-0.59
771	-0.593
772	-0.593
772	-0.588
773	-0.588
773	-0.578
774	-0.576
774	-0.579
775	-0.581
775	-0.576
775	-0.583
776	-0.581
776	-0.573
777	-0.581
777	-0.599
778	-0.597
778	-0.619
778	-0.609
779	-0.629
779	-0.634
780	-0.645
780	-0.644
781	-0.657
781	-0.653
781	-0.669
782	-0.675
782	-0.676
783	-0.662
783	-0.66
784	-0.644
784	-0.632
784	-0.641
785	-0.648
785	-0.636
786	-0.64
786	-0.617
787	-0.599
787	-0.599
788	-0.601
788	-0.61
788	-0.617
789	-0.623
789	-0.605
790	-0.585
790	-0.584
791	-0.583
791	-0.6
791	-0.606
792	-0.601
792	-0.579
793	-0.567
793	-0.547
794	-0.549
794	-0.544
794	-0.555
795	-0.55
795	-0.545
796	-0.531
796	-0.54
797	-0.531
797	-0.542
797	-0.55
798	-0.562
798	-0.555
799	-0.563
799	-0.55
800	-0.557
800	-0.549
801	-0.554
801	-0.537
801	-0.549
802	-0.558
802	-0.56
803	-0.563
803	-0.575
804	-0.568
804	-0.577
804	-0.565
805	-0.568
805	-0.559
806	-0.561
806	-0.551
807	-0.546
807	-0.526
807	-0.513
808	-0.504
808	-0.499
809	-0.485
809	-0.494
810	-0.497
810	-0.489
810	-0.486
811	-0.49
811	-0.483
812	-0.485
812	-0.488
813	-0.493
813	-0.49
813	-0.496
814	-0.498
814	-0.499
815	-0.503
815	-0.507
816	-0.496
816	-0.502
817	-0.506
817	-0.519
817	-0.53
818	-0.538
818	-0.541
819	-0.532
819	-0.532
820	-0.546
820	-0.542
820	-0.555
821	-0.554
821	-0.545
822	-0.515
822	-0.493
823	-0.489
823	-0.49
823	-0.486
824	-0.48
824	-0.477
825	-0.471
825	-0.454
826	-0.449
826	-0.457
826	-0.468
827	-0.464
827	-0.463
828	-0.443
828	-0.445
829	-0.439
829	-0.424
829	-0.415
830	-0.426
830	-0.421
831	-0.416
831	-0.406
832	-0.406
832	-0.396
832	-0.407
833	-0.402
833	-0.403
834	-0.404
834	-0.416
835	-0.402
835	-0.397
835	-0.389
836	-0.387
836	-0.386
837	-0.386
837	-0.375
838	-0.366
838	-0.355
839	-0.343
839	-0.33
839	-0.322
840	-0.312
840	-0.313
841	-0.305
841	-0.294
842	-0.289
842	-0.281
842	-0.278
843	-0.272
843	-0.272
844	-0.264
844	-0.258
845	-0.251
845	-0.241
845	-0.231
846	-0.221
846	-0.209
847	-0.2
847	-0.191
848	-0.182
848	-0.171
848	-0.16
849	-0.153
849	-0.143
850	-0.134
850	-0.129
851	-0.125
851	-0.119
851	-0.112
852	-0.101
852	-0.091
853	-0.084
853	-0.08
854	-0.07
854	-0.063
854	-0.055
855	-0.046
855	-0.041
856	-0.034
856	-0.027
857	-0.021
857	-0.015
857	-0.007
858	0.001
858	0.005
859	0.011
859	0.018
860	0.023
860	0.031
860	0.036
861	0.041
861	0.045
862	0.05
862	0.053
863	0.057
863	0.062
863	0.065
864	0.067
864	0.072
865	0.075
865	0.078
866	0.082
866	0.084
866	0.086
867	0.089
867	0.091
868	0.093
868	0.096
869	0.099
869	0.1
869	0.101
870	0.102
870	0.103
871	0.104
871	0.105
872	0.105
872	0.105
872	0.105
873	0.105
873	0.105
874	0.105
874	0.105
875	0.104
875	0.104
875	0.103
876	0.102
876	0.101
877	0.101
877	0.1
878	0.099
878	0.098
878	0.097
879	0.096
879	0.095
880	0.094
880	0.094
881	0.094
881	0.094
881	0.093
882	0.093
882	0.092
883	0.091
883	0.09
884	0.089
884	0.089
884	0.088
885	0.088
885	0.087
886	0.087
886	0.087
887	0.086
887	0.086
887	0.086
888	0.087
888	0.088
889	0.088
889	0.089
890	0.089
890	0.09
890	0.09
891	0.091
891	0.091
892	0.092
892	0.092
893	0.092
893	0.092
893	0.091
894	0.091
894	0.09
895	0.089
895	0.088
895	0.088
896	0.087
896	0.086
897	0.085
897	0.083
898	0.082
898	0.082
898	0.082
899	0.082
899	0.082
900	0.082
900	0.082
901	0.083
901	0.083
901	0.083
902	0.084
902	0.084
903	0.083
903	0.083
904	0.083
904	0.083
904	0.083
905	0.083
905	0.083
906	0.083
906	0.082
907	0.082
907	0.081
907	0.081
908	0.08
908	0.08
909	0.079
909	0.078
910	0.077
910	0.076
910	0.075
911	0.075
911	0.075
912	0.076
912	0.076
913	0.076
913	0.077
913	0.078
914	0.079
914	0.079
915	0.08
915	0.081
916	0.082
916	0.082
916	0.083
917	0.083
917	0.084
918	0.084
918	0.084
918	0.084
919	0.084
919	0.084
920	0.085
920	0.085
921	0.086
921	0.086
921	0.086
922	0.086
922	0.087
923	0.087
923	0.087
924	0.088
924	0.088
924	0.088
925	0.087
925	0.087
926	0.086
926	0.085
927	0.084
927	0.084
927	0.083
928	0.082
928	0.082
929	0.081
929	0.08
930	0.079
930	0.079
930	0.079
931	0.079
931	0.079
932	0.079
932	0.079
933	0.079
933	0.078
933	0.078
934	0.077
934	0.076
935	0.076
935	0.075
935	0.074
936	0.073
936	0.072
937	0.072
937	0.072
938	0.072
938	0.071
938	0.072
939	0.071
939	0.071
940	0.071
940	0.071
941	0.072
941	0.071
941	0.071
942	0.071
942	0.071
943	0.07
943	0.069
944	0.069
944	0.069
944	0.068
945	0.067
945	0.066
946	0.066
946	0.066
946	0.066
947	0.066
947	0.066
948	0.066
948	0.066
949	0.067
949	0.067
949	0.068
950	0.069
950	0.069
951	0.07
951	0.071
952	0.071
952	0.072
952	0.073
953	0.074
953	0.074
954	0.074
954	0.075
955	0.075
955	0.076
955	0.076
956	0.077
956	0.077
957	0.077
957	0.077
957	0.077
958	0.078
958	0.078
959	0.079
959	0.079
960	0.079
960	0.079
960	0.079
961	0.079
961	0.079
962	0.078
962	0.078
963	0.077
963	0.077
963	0.076
964	0.076
964	0.075
965	0.075
965	0.075
966	0.074
966	0.074
966	0.074
967	0.073
967	0.073
968	0.073
968	0.072
968	0.072
969	0.072
969	0.071
970	0.071
970	0.071
971	0.071
971	0.071
971	0.071
972	0.071
972	0.07
973	0.07
973	0.069
974	0.069
974	0.069
974	0.068
975	0.068
975	0.067
976	0.066
976	0.065
976	0.065
977	0.064
977	0.064
978	0.064
978	0.064
979	0.064
979	0.063
979	0.064
980	0.064
980	0.065
981	0.065
981	0.065
982	0.066
982	0.065
982	0.065
983	0.065
983	0.065
984	0.065
984	0.064
984	0.064
985	0.064
985	0.064
986	0.064
986	0.065
987	0.065
987	0.066
987	0.066
988	0.066
988	0.066
989	0.066
989	0.066
990	0.066
990	0.066
990	0.066
991	0.066
991	0.065
992	0.065
992	0.064
992	0.064
993	0.064
993	0.063
994	0.063
994	0.063
995	0.063
995	0.062
995	0.062
996	0.062
996	0.062
997	0.062
997	0.062
997	0.062
998	0.062
998	0.062
999	0.062
999	0.062
1000	0.062
1000	0.062
1000	0.062
1001	0.062
1001	0.062
1002	0.062
1002	0.061
1003	0.061
1003	0.061
1003	0.06
1004	0.06
1004	0.059
1005	0.058
1005	0.057
1005	0.056
1006	0.055
1006	0.054
1007	0.053
1007	0.052
1008	0.051
1008	0.051
1008	0.05
1009	0.05
1009	0.05
1010	0.05
1010	0.05
1010	0.05
1011	0.05
1011	0.049
1012	0.049
1012	0.048
1013	0.047
1013	0.046
1013	0.045
1014	0.044
1014	0.043
1015	0.042
1015	0.042
1016	0.041
1016	0.04
1016	0.04
1017	0.039
1017	0.039
1018	0.039
1018	0.038
1018	0.038
1019	0.038
1019	0.037
1020	0.036
1020	0.035
1021	0.034
1021	0.033
1021	0.032
1022	0.031
1022	0.03
1023	0.029
1023	0.029
1023	0.028
1024	0.028
1024	0.028
1025	0.028
1025	0.028
1026	0.029
1026	0.029
1026	0.03
1027	0.03
1027	0.031
1028	0.031
1028	0.031
1028	0.031
1029	0.031
1029	0.031
1030	0.031
1030	0.03
1031	0.03
1031	0.03
1031	0.03
1032	0.031
1032	0.031
1033	0.031
1033	0.032
1033	0.033
1034	0.033
1034	0.034
1035	0.034
1035	0.034
1036	0.034
1036	0.034
1036	0.034
1037	0.034
1037	0.034
1038	0.033
1038	0.033
1039	0.032
1039	0.032
1039	0.032
1040	0.032
1040	0.033
1041	0.033
1041	0.033
1041	0.034
1042	0.034
1042	0.034
1043	0.034
1043	0.034
1044	0.034
1044	0.033
1044	0.033
1045	0.033
1045	0.033
1046	0.032
1046	0.033
1046	0.033
1047	0.033
1047	0.034
1048	0.035
1048	0.035
1049	0.036
1049	0.036
1049	0.036
1050	0.036
1050	0.037
1051	0.037
1051	0.037
1051	0.037
1052	0.038
1052	0.038
1053	0.038
1053	0.038
1053	0.038
1054	0.038
1054	0.037
1055	0.037
1055	0.037
1056	0.036
1056	0.035
1056	0.033
1057	0.032
1057	0.032
1058	0.031
1058	0.03
1058	0.029
1059	0.029
1059	0.028
1060	0.028
1060	0.028
1061	0.027
1061	0.028
1061	0.028
1062	0.028
1062	0.028
1063	0.028
1063	0.028
1063	0.028
1064	0.028
1064	0.028
1065	0.028
1065	0.027
1066	0.026
1066	0.026
1066	0.025
1067	0.025
1067	0.025
1068	0.024
1068	0.024
1068	0.023
1069	0.023
1069	0.022
1070	0.023
1070	0.023
1071	0.022
1071	0.023
1071	0.022
1072	0.022
1072	0.022
1073	0.022
1073	0.022
1073	0.022
1074	0.022
1074	0.022
1075	0.021
1075	0.021
1076	0.02
1076	0.021
1076	0.02
1077	0.02
1077	0.019
1078	0.018
1078	0.018
1078	0.017
1079	0.016
1079	0.016
1080	0.015
1080	0.015
1080	0.014
1081	0.013
1081	0.013
1082	0.012
1082	0.011
1083	0.01
1083	0.009
1083	0.009
1084	0.009
1084	0.008
1085	0.008
1085	0.008
1085	0.008
1086	0.008
1086	0.007
1087	0.008
1087	0.008
1088	0.008
1088	0.007
1088	0.007
1089	0.006
1089	0.006
1090	0.005
1090	0.005
1090	0.004
1091	0.004
1091	0.004
1092	0.003
1092	0.003
1092	0.002
1093	0.002
1093	0.002
1094	0.002
1094	0.002
1095	0.001
1095	0.001
1095	0.001
1096	0
1096	0
1097	0
1097	-0
1097	-0
1098	-0.001
1098	-0.002
1099	-0.002
1099	-0.002
1100	-0.004
1100	-0.004
1100	-0.005
1101	-0.007
1101	-0.009
1102	-0.01
1102	-0.012
1102	-0.012
1103	-0.013
1103	-0.015
1104	-0.016
1104	-0.016
1104	-0.019
1105	-0.02
1105	-0.021
1106	-0.024
1106	-0.025
1107	-0.028
1107	-0.031
1107	-0.034
1108	-0.035
1108	-0.037
1109	-0.04
1109	-0.043
1109	-0.044
1110	-0.043
1110	-0.045
1111	-0.048
1111	-0.048
