Data from 17C_3.4A_30min_2sec_int_Absorbance__375__00375.txt Node

Date: Mon Jun 19 16:20:25 CEST 2023
User: Marek
Spectrometer: MAYP115816
Trigger mode: 0
Integration Time (sec): 2.500000E-1
Scans to average: 10
Electric dark correction enabled: true
Nonlinearity correction enabled: true
Boxcar width: 5
XAxis mode: Wavelengths
Number of Pixels in Spectrum: 2068
>>>>>Begin Spectral Data<<<<<
199	-0.51
199	-0.513
200	-0.42
200	-0.372
201	-0.34
201	-0.329
202	-0.31
202	-0.294
203	-0.288
203	-0.283
204	-0.271
204	-0.262
205	-0.242
205	-0.237
205	-0.236
206	-0.236
206	-0.238
207	-0.23
207	-0.233
208	-0.238
208	-0.237
209	-0.231
209	-0.228
210	-0.23
210	-0.238
211	-0.239
211	-0.244
212	-0.246
212	-0.254
213	-0.25
213	-0.249
213	-0.252
214	-0.251
214	-0.253
215	-0.254
215	-0.259
216	-0.262
216	-0.265
217	-0.263
217	-0.267
218	-0.272
218	-0.273
219	-0.276
219	-0.286
220	-0.291
220	-0.298
221	-0.295
221	-0.297
221	-0.291
222	-0.287
222	-0.286
223	-0.289
223	-0.291
224	-0.294
224	-0.295
225	-0.29
225	-0.286
226	-0.289
226	-0.287
227	-0.294
227	-0.299
228	-0.301
228	-0.301
229	-0.299
229	-0.293
229	-0.283
230	-0.288
230	-0.291
231	-0.287
231	-0.282
232	-0.276
232	-0.278
233	-0.271
233	-0.271
234	-0.27
234	-0.268
235	-0.275
235	-0.279
236	-0.277
236	-0.279
236	-0.282
237	-0.286
237	-0.285
238	-0.291
238	-0.29
239	-0.293
239	-0.301
240	-0.296
240	-0.293
241	-0.297
241	-0.296
242	-0.303
242	-0.3
243	-0.294
243	-0.295
243	-0.304
244	-0.301
244	-0.301
245	-0.312
245	-0.308
246	-0.311
246	-0.315
247	-0.316
247	-0.321
248	-0.328
248	-0.326
249	-0.327
249	-0.332
250	-0.332
250	-0.331
250	-0.333
251	-0.33
251	-0.332
252	-0.335
252	-0.328
253	-0.331
253	-0.343
254	-0.343
254	-0.344
255	-0.35
255	-0.345
256	-0.339
256	-0.354
257	-0.349
257	-0.344
258	-0.358
258	-0.355
258	-0.349
259	-0.346
259	-0.354
260	-0.352
260	-0.357
261	-0.37
261	-0.359
262	-0.358
262	-0.359
263	-0.346
263	-0.34
264	-0.341
264	-0.348
265	-0.342
265	-0.35
265	-0.355
266	-0.352
266	-0.349
267	-0.362
267	-0.373
268	-0.385
268	-0.395
269	-0.393
269	-0.388
270	-0.392
270	-0.391
271	-0.389
271	-0.393
272	-0.394
272	-0.386
272	-0.375
273	-0.373
273	-0.381
274	-0.387
274	-0.388
275	-0.388
275	-0.384
276	-0.388
276	-0.382
277	-0.388
277	-0.403
278	-0.412
278	-0.408
278	-0.4
279	-0.402
279	-0.413
280	-0.412
280	-0.414
281	-0.409
281	-0.414
282	-0.406
282	-0.405
283	-0.396
283	-0.396
284	-0.393
284	-0.382
285	-0.378
285	-0.376
285	-0.369
286	-0.375
286	-0.37
287	-0.372
287	-0.359
288	-0.351
288	-0.361
289	-0.372
289	-0.381
290	-0.369
290	-0.369
291	-0.37
291	-0.369
292	-0.371
292	-0.373
292	-0.373
293	-0.381
293	-0.368
294	-0.358
294	-0.349
295	-0.346
295	-0.344
296	-0.341
296	-0.335
297	-0.33
297	-0.317
298	-0.315
298	-0.321
298	-0.313
299	-0.303
299	-0.305
300	-0.301
300	-0.296
301	-0.294
301	-0.293
302	-0.303
302	-0.311
303	-0.301
303	-0.289
304	-0.295
304	-0.296
305	-0.297
305	-0.297
305	-0.297
306	-0.282
306	-0.275
307	-0.263
307	-0.264
308	-0.275
308	-0.271
309	-0.275
309	-0.268
310	-0.256
310	-0.252
311	-0.244
311	-0.251
311	-0.252
312	-0.25
312	-0.247
313	-0.236
313	-0.238
314	-0.23
314	-0.23
315	-0.231
315	-0.232
316	-0.228
316	-0.22
317	-0.212
317	-0.205
318	-0.198
318	-0.194
318	-0.191
319	-0.182
319	-0.178
320	-0.173
320	-0.171
321	-0.174
321	-0.174
322	-0.17
322	-0.167
323	-0.166
323	-0.164
324	-0.157
324	-0.154
324	-0.148
325	-0.139
325	-0.127
326	-0.115
326	-0.103
327	-0.088
327	-0.071
328	-0.05
328	-0.033
329	-0.016
329	0.003
330	0.024
330	0.049
330	0.068
331	0.09
331	0.109
332	0.126
332	0.142
333	0.156
333	0.174
334	0.188
334	0.199
335	0.209
335	0.218
336	0.227
336	0.235
336	0.241
337	0.249
337	0.254
338	0.259
338	0.26
339	0.265
339	0.269
340	0.271
340	0.274
341	0.276
341	0.277
342	0.279
342	0.281
342	0.283
343	0.284
343	0.286
344	0.286
344	0.287
345	0.287
345	0.288
346	0.288
346	0.288
347	0.289
347	0.289
348	0.289
348	0.289
348	0.289
349	0.289
349	0.289
350	0.289
350	0.289
351	0.289
351	0.289
352	0.288
352	0.288
353	0.288
353	0.288
354	0.287
354	0.287
354	0.287
355	0.287
355	0.287
356	0.287
356	0.286
357	0.285
357	0.285
358	0.284
358	0.284
359	0.284
359	0.284
360	0.284
360	0.283
360	0.283
361	0.283
361	0.282
362	0.283
362	0.283
363	0.283
363	0.282
364	0.282
364	0.282
365	0.282
365	0.282
366	0.282
366	0.281
366	0.281
367	0.281
367	0.281
368	0.281
368	0.281
369	0.28
369	0.28
370	0.28
370	0.28
371	0.28
371	0.279
372	0.279
372	0.279
372	0.279
373	0.278
373	0.278
374	0.278
374	0.278
375	0.277
375	0.277
376	0.277
376	0.277
377	0.277
377	0.277
378	0.277
378	0.277
378	0.276
379	0.276
379	0.276
380	0.275
380	0.275
381	0.275
381	0.274
382	0.274
382	0.274
383	0.273
383	0.273
383	0.273
384	0.273
384	0.273
385	0.272
385	0.273
386	0.272
386	0.272
387	0.272
387	0.272
388	0.272
388	0.272
389	0.271
389	0.271
389	0.271
390	0.271
390	0.271
391	0.271
391	0.27
392	0.27
392	0.27
393	0.27
393	0.269
394	0.269
394	0.269
394	0.269
395	0.268
395	0.268
396	0.268
396	0.267
397	0.267
397	0.267
398	0.267
398	0.267
399	0.267
399	0.266
400	0.266
400	0.266
400	0.265
401	0.265
401	0.265
402	0.265
402	0.264
403	0.264
403	0.264
404	0.263
404	0.263
405	0.263
405	0.263
405	0.263
406	0.263
406	0.262
407	0.262
407	0.262
408	0.262
408	0.261
409	0.261
409	0.261
410	0.261
410	0.261
411	0.261
411	0.261
411	0.261
412	0.261
412	0.261
413	0.261
413	0.261
414	0.26
414	0.26
415	0.26
415	0.259
416	0.259
416	0.259
416	0.259
417	0.259
417	0.259
418	0.259
418	0.259
419	0.259
419	0.258
420	0.259
420	0.259
421	0.259
421	0.259
421	0.258
422	0.258
422	0.258
423	0.258
423	0.258
424	0.258
424	0.258
425	0.258
425	0.257
426	0.257
426	0.257
427	0.257
427	0.257
427	0.257
428	0.256
428	0.256
429	0.256
429	0.256
430	0.256
430	0.256
431	0.256
431	0.256
432	0.255
432	0.255
432	0.255
433	0.255
433	0.254
434	0.254
434	0.254
435	0.254
435	0.254
436	0.254
436	0.254
437	0.254
437	0.254
437	0.254
438	0.254
438	0.254
439	0.254
439	0.254
440	0.253
440	0.253
441	0.253
441	0.252
442	0.252
442	0.252
442	0.252
443	0.252
443	0.251
444	0.252
444	0.252
445	0.252
445	0.252
446	0.252
446	0.252
447	0.252
447	0.252
447	0.252
448	0.253
448	0.253
449	0.253
449	0.253
450	0.253
450	0.253
451	0.253
451	0.253
452	0.253
452	0.253
452	0.253
453	0.253
453	0.253
454	0.253
454	0.253
455	0.253
455	0.253
456	0.253
456	0.252
457	0.252
457	0.252
458	0.252
458	0.253
458	0.253
459	0.253
459	0.253
460	0.253
460	0.253
461	0.253
461	0.254
462	0.254
462	0.254
463	0.254
463	0.255
463	0.255
464	0.255
464	0.255
465	0.255
465	0.255
466	0.256
466	0.256
467	0.256
467	0.257
467	0.257
468	0.257
468	0.258
469	0.258
469	0.259
470	0.259
470	0.26
471	0.26
471	0.26
472	0.261
472	0.261
472	0.261
473	0.262
473	0.262
474	0.262
474	0.263
475	0.263
475	0.264
476	0.264
476	0.265
477	0.265
477	0.266
477	0.266
478	0.267
478	0.268
479	0.269
479	0.269
480	0.27
480	0.271
481	0.271
481	0.272
482	0.273
482	0.273
482	0.274
483	0.275
483	0.276
484	0.276
484	0.276
485	0.277
485	0.278
486	0.278
486	0.279
487	0.28
487	0.281
487	0.282
488	0.283
488	0.284
489	0.286
489	0.288
490	0.289
490	0.291
491	0.292
491	0.294
492	0.295
492	0.296
492	0.298
493	0.299
493	0.3
494	0.302
494	0.303
495	0.304
495	0.306
496	0.308
496	0.309
496	0.311
497	0.313
497	0.315
498	0.317
498	0.319
499	0.321
499	0.323
500	0.325
500	0.327
501	0.329
501	0.331
501	0.332
502	0.334
502	0.335
503	0.337
503	0.339
504	0.341
504	0.343
505	0.345
505	0.347
506	0.349
506	0.351
506	0.354
507	0.356
507	0.358
508	0.36
508	0.362
509	0.364
509	0.366
510	0.368
510	0.37
511	0.372
511	0.374
511	0.376
512	0.378
512	0.38
513	0.381
513	0.383
514	0.385
514	0.387
515	0.389
515	0.391
515	0.393
516	0.395
516	0.397
517	0.398
517	0.4
518	0.401
518	0.403
519	0.404
519	0.406
520	0.407
520	0.409
520	0.41
521	0.412
521	0.413
522	0.415
522	0.416
523	0.417
523	0.419
524	0.419
524	0.42
524	0.421
525	0.421
525	0.422
526	0.423
526	0.423
527	0.424
527	0.424
528	0.425
528	0.426
529	0.426
529	0.426
529	0.427
530	0.427
530	0.427
531	0.427
531	0.427
532	0.426
532	0.426
533	0.426
533	0.426
533	0.425
534	0.425
534	0.424
535	0.424
535	0.423
536	0.422
536	0.422
537	0.421
537	0.42
538	0.419
538	0.418
538	0.417
539	0.416
539	0.415
540	0.414
540	0.412
541	0.411
541	0.41
542	0.409
542	0.407
542	0.406
543	0.404
543	0.403
544	0.401
544	0.4
545	0.398
545	0.397
546	0.395
546	0.394
547	0.392
547	0.391
547	0.389
548	0.388
548	0.387
549	0.385
549	0.384
550	0.382
550	0.381
551	0.379
551	0.378
551	0.376
552	0.375
552	0.373
553	0.372
553	0.371
554	0.369
554	0.367
555	0.365
555	0.364
556	0.362
556	0.361
556	0.359
557	0.358
557	0.356
558	0.354
558	0.353
559	0.351
559	0.349
560	0.347
560	0.346
560	0.345
561	0.343
561	0.342
562	0.34
562	0.338
563	0.336
563	0.335
564	0.334
564	0.332
564	0.331
565	0.329
565	0.328
566	0.326
566	0.324
567	0.322
567	0.321
568	0.319
568	0.317
568	0.315
569	0.313
569	0.311
570	0.31
570	0.308
571	0.307
571	0.305
572	0.304
572	0.302
573	0.301
573	0.299
573	0.298
574	0.297
574	0.295
575	0.294
575	0.293
576	0.292
576	0.291
577	0.29
577	0.289
577	0.289
578	0.288
578	0.288
579	0.287
579	0.286
580	0.285
580	0.283
581	0.282
581	0.281
581	0.28
582	0.28
582	0.278
583	0.278
583	0.276
584	0.275
584	0.274
585	0.273
585	0.272
585	0.272
586	0.271
586	0.271
587	0.27
587	0.27
588	0.269
588	0.268
589	0.268
589	0.268
590	0.267
590	0.267
590	0.267
591	0.266
591	0.264
592	0.263
592	0.263
593	0.262
593	0.261
594	0.26
594	0.26
594	0.259
595	0.259
595	0.258
596	0.258
596	0.258
597	0.258
597	0.257
598	0.256
598	0.256
598	0.255
599	0.254
599	0.253
600	0.252
600	0.251
601	0.251
601	0.25
602	0.249
602	0.248
602	0.248
603	0.248
603	0.248
604	0.247
604	0.247
605	0.247
605	0.247
606	0.246
606	0.245
606	0.245
607	0.244
607	0.244
608	0.243
608	0.241
609	0.241
609	0.24
610	0.24
610	0.239
610	0.239
611	0.239
611	0.239
612	0.239
612	0.239
613	0.238
613	0.238
614	0.237
614	0.236
614	0.235
615	0.234
615	0.233
616	0.233
616	0.231
617	0.23
617	0.229
618	0.229
618	0.228
618	0.228
619	0.228
619	0.228
620	0.227
620	0.227
621	0.226
621	0.226
622	0.226
622	0.225
622	0.224
623	0.224
623	0.224
624	0.223
624	0.222
625	0.222
625	0.221
626	0.221
626	0.22
626	0.22
627	0.219
627	0.218
628	0.217
628	0.216
629	0.215
629	0.214
630	0.212
630	0.211
630	0.21
631	0.208
631	0.206
632	0.204
632	0.202
633	0.2
633	0.198
634	0.196
634	0.193
634	0.191
635	0.188
635	0.185
636	0.182
636	0.179
637	0.175
637	0.172
638	0.168
638	0.165
638	0.161
639	0.157
639	0.153
640	0.148
640	0.144
641	0.141
641	0.137
642	0.133
642	0.129
642	0.125
643	0.121
643	0.116
644	0.111
644	0.107
645	0.102
645	0.097
646	0.091
646	0.086
646	0.08
647	0.075
647	0.069
648	0.063
648	0.057
649	0.051
649	0.045
650	0.039
650	0.033
650	0.026
651	0.018
651	0.009
652	-0.003
652	-0.016
653	-0.027
653	-0.037
653	-0.035
654	-0.017
654	-0.007
655	-0.01
655	-0.014
656	-0.018
656	-0.022
657	-0.024
657	-0.026
657	-0.031
658	-0.035
658	-0.057
659	-0.127
659	-0.214
660	-0.252
660	-0.277
661	-0.303
661	-0.332
661	-0.366
662	-0.397
662	-0.433
663	-0.473
663	-0.519
664	-0.565
664	-0.619
665	-0.672
665	-0.734
665	-0.792
666	-0.853
666	-0.918
667	-0.987
667	-1.055
668	-1.131
668	-1.206
669	-1.284
669	-1.362
669	-1.445
670	-1.522
670	-1.584
671	-1.794
671	-2.029
672	-2.24
672	-2.422
672	-2.546
673	-2.634
673	-2.712
674	-2.74
674	-2.756
675	-2.779
675	-2.916
676	-3.096
676	-3.044
676	-2.815
677	-2.603
677	-2.427
678	-2.223
678	-1.831
679	-1.617
679	-1.498
680	-1.407
680	-1.326
680	-1.258
681	-1.213
681	-1.154
682	-1.113
682	-1.073
683	-1.035
683	-1.014
684	-0.99
684	-0.967
684	-0.941
685	-0.915
685	-0.89
686	-0.863
686	-0.844
687	-0.814
687	-0.799
687	-0.776
688	-0.748
688	-0.725
689	-0.702
689	-0.686
690	-0.664
690	-0.649
691	-0.638
691	-0.64
691	-0.651
692	-0.639
692	-0.628
693	-0.621
693	-0.625
694	-0.62
694	-0.611
695	-0.614
695	-0.608
695	-0.593
696	-0.587
696	-0.566
697	-0.565
697	-0.577
698	-0.576
698	-0.564
698	-0.573
699	-0.574
699	-0.568
700	-0.559
700	-0.57
701	-0.569
701	-0.573
702	-0.573
702	-0.561
702	-0.556
703	-0.552
703	-0.544
704	-0.541
704	-0.539
705	-0.547
705	-0.538
705	-0.525
706	-0.526
706	-0.52
707	-0.524
707	-0.518
708	-0.512
708	-0.504
709	-0.508
709	-0.51
709	-0.5
710	-0.506
710	-0.514
711	-0.504
711	-0.506
712	-0.504
712	-0.515
713	-0.516
713	-0.522
713	-0.509
714	-0.504
714	-0.506
715	-0.501
715	-0.488
716	-0.495
716	-0.496
716	-0.49
717	-0.491
717	-0.494
718	-0.483
718	-0.483
719	-0.489
719	-0.49
720	-0.484
720	-0.491
720	-0.486
721	-0.475
721	-0.476
722	-0.461
722	-0.449
723	-0.448
723	-0.453
723	-0.441
724	-0.444
724	-0.45
725	-0.451
725	-0.457
726	-0.469
726	-0.472
727	-0.481
727	-0.496
727	-0.504
728	-0.503
728	-0.509
729	-0.507
729	-0.508
730	-0.512
730	-0.506
730	-0.494
731	-0.478
731	-0.482
732	-0.488
732	-0.483
733	-0.48
733	-0.486
734	-0.478
734	-0.478
734	-0.466
735	-0.465
735	-0.465
736	-0.477
736	-0.464
737	-0.454
737	-0.457
737	-0.464
738	-0.459
738	-0.46
739	-0.458
739	-0.471
740	-0.47
740	-0.468
741	-0.464
741	-0.464
741	-0.468
742	-0.467
742	-0.468
743	-0.474
743	-0.479
744	-0.474
744	-0.464
744	-0.467
745	-0.476
745	-0.466
746	-0.467
746	-0.464
747	-0.464
747	-0.455
748	-0.443
748	-0.445
748	-0.452
749	-0.449
749	-0.448
750	-0.44
750	-0.442
751	-0.445
751	-0.453
751	-0.456
752	-0.462
752	-0.47
753	-0.467
753	-0.46
754	-0.465
754	-0.459
754	-0.469
755	-0.482
755	-0.493
756	-0.486
756	-0.486
757	-0.482
757	-0.479
758	-0.481
758	-0.477
758	-0.477
759	-0.485
759	-0.469
760	-0.465
760	-0.46
761	-0.466
761	-0.459
761	-0.459
762	-0.466
762	-0.469
763	-0.477
763	-0.476
764	-0.476
764	-0.481
764	-0.483
765	-0.479
765	-0.466
766	-0.474
766	-0.48
767	-0.491
767	-0.48
768	-0.474
768	-0.486
768	-0.49
769	-0.509
769	-0.514
770	-0.512
770	-0.524
771	-0.52
771	-0.521
771	-0.522
772	-0.528
772	-0.525
773	-0.522
773	-0.513
774	-0.509
774	-0.507
775	-0.509
775	-0.505
775	-0.509
776	-0.514
776	-0.505
777	-0.513
777	-0.536
778	-0.537
778	-0.559
778	-0.549
779	-0.569
779	-0.578
780	-0.589
780	-0.594
781	-0.606
781	-0.603
781	-0.616
782	-0.617
782	-0.619
783	-0.608
783	-0.605
784	-0.587
784	-0.575
784	-0.587
785	-0.591
785	-0.576
786	-0.583
786	-0.56
787	-0.543
787	-0.542
788	-0.546
788	-0.554
788	-0.563
789	-0.567
789	-0.549
790	-0.531
790	-0.53
791	-0.524
791	-0.541
791	-0.547
792	-0.54
792	-0.513
793	-0.501
793	-0.482
794	-0.483
794	-0.474
794	-0.481
795	-0.483
795	-0.478
796	-0.465
796	-0.471
797	-0.468
797	-0.479
797	-0.488
798	-0.499
798	-0.492
799	-0.504
799	-0.493
800	-0.496
800	-0.486
801	-0.489
801	-0.476
801	-0.484
802	-0.492
802	-0.493
803	-0.496
803	-0.508
804	-0.504
804	-0.514
804	-0.5
805	-0.508
805	-0.499
806	-0.499
806	-0.486
807	-0.485
807	-0.466
807	-0.451
808	-0.441
808	-0.434
809	-0.421
809	-0.435
810	-0.437
810	-0.429
810	-0.427
811	-0.433
811	-0.427
812	-0.426
812	-0.436
813	-0.441
813	-0.438
813	-0.443
814	-0.441
814	-0.441
815	-0.449
815	-0.453
816	-0.448
816	-0.451
817	-0.46
817	-0.468
817	-0.481
818	-0.489
818	-0.492
819	-0.483
819	-0.484
820	-0.494
820	-0.489
820	-0.497
821	-0.497
821	-0.487
822	-0.463
822	-0.44
823	-0.437
823	-0.437
823	-0.437
824	-0.429
824	-0.428
825	-0.422
825	-0.404
826	-0.397
826	-0.402
826	-0.411
827	-0.405
827	-0.402
828	-0.385
828	-0.385
829	-0.378
829	-0.367
829	-0.36
830	-0.369
830	-0.37
831	-0.363
831	-0.351
832	-0.353
832	-0.349
832	-0.353
833	-0.347
833	-0.352
834	-0.348
834	-0.357
835	-0.348
835	-0.341
835	-0.339
836	-0.339
836	-0.337
837	-0.333
837	-0.325
838	-0.32
838	-0.311
839	-0.301
839	-0.294
839	-0.286
840	-0.276
840	-0.272
841	-0.262
841	-0.256
842	-0.25
842	-0.244
842	-0.241
843	-0.236
843	-0.235
844	-0.226
844	-0.221
845	-0.219
845	-0.211
845	-0.2
846	-0.191
846	-0.183
847	-0.175
847	-0.167
848	-0.157
848	-0.147
848	-0.135
849	-0.127
849	-0.118
850	-0.109
850	-0.107
851	-0.102
851	-0.095
851	-0.088
852	-0.077
852	-0.07
853	-0.064
853	-0.061
854	-0.055
854	-0.047
854	-0.04
855	-0.033
855	-0.029
856	-0.023
856	-0.018
857	-0.014
857	-0.007
857	-0.001
858	0.006
858	0.009
859	0.013
859	0.019
860	0.023
860	0.031
860	0.034
861	0.037
861	0.041
862	0.045
862	0.048
863	0.05
863	0.055
863	0.058
864	0.06
864	0.062
865	0.065
865	0.067
866	0.07
866	0.072
866	0.073
867	0.075
867	0.077
868	0.079
868	0.081
869	0.083
869	0.084
869	0.085
870	0.086
870	0.087
871	0.088
871	0.088
872	0.089
872	0.089
872	0.089
873	0.089
873	0.089
874	0.089
874	0.089
875	0.089
875	0.088
875	0.088
876	0.087
876	0.086
877	0.086
877	0.085
878	0.085
878	0.084
878	0.083
879	0.082
879	0.081
880	0.081
880	0.081
881	0.08
881	0.08
881	0.08
882	0.079
882	0.078
883	0.077
883	0.076
884	0.076
884	0.075
884	0.074
885	0.073
885	0.073
886	0.073
886	0.072
887	0.072
887	0.072
887	0.072
888	0.073
888	0.073
889	0.074
889	0.075
890	0.076
890	0.077
890	0.078
891	0.078
891	0.078
892	0.079
892	0.078
893	0.078
893	0.078
893	0.077
894	0.076
894	0.075
895	0.075
895	0.074
895	0.074
896	0.073
896	0.072
897	0.071
897	0.071
898	0.07
898	0.069
898	0.069
899	0.069
899	0.069
900	0.069
900	0.069
901	0.069
901	0.069
901	0.069
902	0.069
902	0.069
903	0.069
903	0.069
904	0.069
904	0.069
904	0.069
905	0.069
905	0.069
906	0.069
906	0.069
907	0.068
907	0.068
907	0.067
908	0.066
908	0.066
909	0.065
909	0.064
910	0.063
910	0.062
910	0.061
911	0.061
911	0.061
912	0.061
912	0.061
913	0.062
913	0.063
913	0.063
914	0.064
914	0.065
915	0.065
915	0.066
916	0.067
916	0.068
916	0.068
917	0.069
917	0.069
918	0.069
918	0.069
918	0.069
919	0.069
919	0.07
920	0.07
920	0.07
921	0.071
921	0.071
921	0.071
922	0.072
922	0.072
923	0.073
923	0.073
924	0.073
924	0.074
924	0.074
925	0.073
925	0.072
926	0.072
926	0.071
927	0.07
927	0.07
927	0.069
928	0.068
928	0.068
929	0.067
929	0.066
930	0.066
930	0.066
930	0.066
931	0.066
931	0.066
932	0.066
932	0.066
933	0.065
933	0.065
933	0.064
934	0.064
934	0.063
935	0.062
935	0.062
935	0.061
936	0.06
936	0.059
937	0.059
937	0.058
938	0.059
938	0.058
938	0.059
939	0.058
939	0.059
940	0.059
940	0.058
941	0.058
941	0.058
941	0.058
942	0.058
942	0.058
943	0.057
943	0.056
944	0.056
944	0.055
944	0.054
945	0.054
945	0.053
946	0.053
946	0.052
946	0.052
947	0.052
947	0.052
948	0.053
948	0.053
949	0.054
949	0.055
949	0.055
950	0.056
950	0.056
951	0.058
951	0.058
952	0.059
952	0.06
952	0.061
953	0.061
953	0.062
954	0.063
954	0.063
955	0.064
955	0.064
955	0.065
956	0.065
956	0.065
957	0.065
957	0.066
957	0.066
958	0.066
958	0.066
959	0.067
959	0.067
960	0.067
960	0.067
960	0.067
961	0.066
961	0.066
962	0.066
962	0.065
963	0.064
963	0.064
963	0.063
964	0.063
964	0.062
965	0.062
965	0.061
966	0.061
966	0.061
966	0.061
967	0.061
967	0.06
968	0.06
968	0.059
968	0.059
969	0.059
969	0.058
970	0.058
970	0.058
971	0.058
971	0.058
971	0.058
972	0.058
972	0.058
973	0.057
973	0.057
974	0.056
974	0.056
974	0.055
975	0.054
975	0.053
976	0.052
976	0.052
976	0.051
977	0.051
977	0.051
978	0.051
978	0.051
979	0.051
979	0.051
979	0.051
980	0.051
980	0.052
981	0.052
981	0.053
982	0.053
982	0.052
982	0.052
983	0.052
983	0.052
984	0.051
984	0.051
984	0.051
985	0.051
985	0.051
986	0.051
986	0.052
987	0.052
987	0.053
987	0.053
988	0.054
988	0.054
989	0.054
989	0.054
990	0.054
990	0.053
990	0.053
991	0.053
991	0.052
992	0.052
992	0.051
992	0.051
993	0.051
993	0.05
994	0.05
994	0.05
995	0.05
995	0.049
995	0.05
996	0.049
996	0.049
997	0.049
997	0.05
997	0.05
998	0.05
998	0.05
999	0.05
999	0.051
1000	0.051
1000	0.05
1000	0.05
1001	0.05
1001	0.05
1002	0.049
1002	0.049
1003	0.049
1003	0.049
1003	0.048
1004	0.047
1004	0.047
1005	0.046
1005	0.045
1005	0.044
1006	0.043
1006	0.042
1007	0.041
1007	0.04
1008	0.04
1008	0.039
1008	0.039
1009	0.039
1009	0.039
1010	0.039
1010	0.039
1010	0.039
1011	0.039
1011	0.039
1012	0.038
1012	0.038
1013	0.037
1013	0.035
1013	0.034
1014	0.033
1014	0.032
1015	0.031
1015	0.031
1016	0.03
1016	0.029
1016	0.029
1017	0.028
1017	0.028
1018	0.027
1018	0.027
1018	0.027
1019	0.026
1019	0.025
1020	0.025
1020	0.024
1021	0.023
1021	0.022
1021	0.021
1022	0.02
1022	0.019
1023	0.018
1023	0.018
1023	0.017
1024	0.017
1024	0.017
1025	0.017
1025	0.017
1026	0.017
1026	0.018
1026	0.019
1027	0.019
1027	0.019
1028	0.02
1028	0.02
1028	0.02
1029	0.02
1029	0.019
1030	0.019
1030	0.019
1031	0.019
1031	0.019
1031	0.019
1032	0.019
1032	0.019
1033	0.02
1033	0.021
1033	0.022
1034	0.022
1034	0.023
1035	0.023
1035	0.024
1036	0.024
1036	0.024
1036	0.024
1037	0.024
1037	0.024
1038	0.023
1038	0.023
1039	0.022
1039	0.022
1039	0.022
1040	0.022
1040	0.022
1041	0.023
1041	0.023
1041	0.024
1042	0.024
1042	0.024
1043	0.024
1043	0.024
1044	0.024
1044	0.024
1044	0.024
1045	0.024
1045	0.024
1046	0.023
1046	0.023
1046	0.023
1047	0.024
1047	0.024
1048	0.025
1048	0.025
1049	0.026
1049	0.026
1049	0.026
1050	0.026
1050	0.027
1051	0.027
1051	0.027
1051	0.028
1052	0.028
1052	0.028
1053	0.028
1053	0.028
1053	0.028
1054	0.028
1054	0.028
1055	0.027
1055	0.027
1056	0.026
1056	0.025
1056	0.024
1057	0.023
1057	0.022
1058	0.022
1058	0.021
1058	0.02
1059	0.019
1059	0.019
1060	0.018
1060	0.018
1061	0.018
1061	0.018
1061	0.018
1062	0.018
1062	0.018
1063	0.018
1063	0.018
1063	0.018
1064	0.019
1064	0.018
1065	0.018
1065	0.017
1066	0.017
1066	0.017
1066	0.016
1067	0.016
1067	0.016
1068	0.015
1068	0.015
1068	0.014
1069	0.015
1069	0.015
1070	0.015
1070	0.015
1071	0.015
1071	0.015
1071	0.014
1072	0.014
1072	0.014
1073	0.014
1073	0.014
1073	0.013
1074	0.013
1074	0.013
1075	0.013
1075	0.012
1076	0.012
1076	0.012
1076	0.011
1077	0.011
1077	0.01
1078	0.01
1078	0.009
1078	0.008
1079	0.008
1079	0.007
1080	0.006
1080	0.006
1080	0.005
1081	0.004
1081	0.004
1082	0.003
1082	0.002
1083	0.002
1083	0.001
1083	0.001
1084	0
1084	-0
1085	-0.001
1085	-0
1085	-0.001
1086	-0.001
1086	-0.001
1087	-0
1087	-0.001
1088	-0.001
1088	-0.001
1088	-0.001
1089	-0.002
1089	-0.002
1090	-0.003
1090	-0.003
1090	-0.003
1091	-0.004
1091	-0.004
1092	-0.004
1092	-0.003
1092	-0.004
1093	-0.004
1093	-0.003
1094	-0.003
1094	-0.003
1095	-0.004
1095	-0.003
1095	-0.002
1096	-0.002
1096	-0.003
1097	-0.003
1097	-0.003
1097	-0.003
1098	-0.004
1098	-0.004
1099	-0.005
1099	-0.005
1100	-0.006
1100	-0.007
1100	-0.008
1101	-0.009
1101	-0.01
1102	-0.011
1102	-0.014
1102	-0.013
1103	-0.015
1103	-0.016
1104	-0.017
1104	-0.019
1104	-0.02
1105	-0.021
1105	-0.022
1106	-0.024
1106	-0.026
1107	-0.028
1107	-0.031
1107	-0.033
1108	-0.034
1108	-0.036
1109	-0.036
1109	-0.039
1109	-0.04
1110	-0.041
1110	-0.042
1111	-0.045
1111	-0.042
