Data from 17C_3.4A_30min_2sec_int_Absorbance__391__00391.txt Node

Date: Mon Jun 19 16:21:05 CEST 2023
User: Marek
Spectrometer: MAYP115816
Trigger mode: 0
Integration Time (sec): 2.500000E-1
Scans to average: 10
Electric dark correction enabled: true
Nonlinearity correction enabled: true
Boxcar width: 5
XAxis mode: Wavelengths
Number of Pixels in Spectrum: 2068
>>>>>Begin Spectral Data<<<<<
199	-0.497
199	-0.507
200	-0.416
200	-0.369
201	-0.342
201	-0.33
202	-0.315
202	-0.304
203	-0.296
203	-0.292
204	-0.281
204	-0.269
205	-0.247
205	-0.243
205	-0.241
206	-0.241
206	-0.243
207	-0.234
207	-0.235
208	-0.238
208	-0.238
209	-0.233
209	-0.236
210	-0.241
210	-0.248
211	-0.248
211	-0.25
212	-0.253
212	-0.259
213	-0.258
213	-0.258
213	-0.263
214	-0.256
214	-0.255
215	-0.256
215	-0.257
216	-0.261
216	-0.266
217	-0.261
217	-0.264
218	-0.264
218	-0.263
219	-0.264
219	-0.277
220	-0.281
220	-0.287
221	-0.29
221	-0.29
221	-0.285
222	-0.282
222	-0.284
223	-0.29
223	-0.296
224	-0.3
224	-0.301
225	-0.295
225	-0.29
226	-0.293
226	-0.296
227	-0.303
227	-0.311
228	-0.309
228	-0.305
229	-0.304
229	-0.299
229	-0.292
230	-0.298
230	-0.301
231	-0.295
231	-0.287
232	-0.28
232	-0.281
233	-0.279
233	-0.282
234	-0.277
234	-0.275
235	-0.278
235	-0.279
236	-0.277
236	-0.281
236	-0.287
237	-0.296
237	-0.291
238	-0.296
238	-0.292
239	-0.295
239	-0.304
240	-0.304
240	-0.303
241	-0.308
241	-0.307
242	-0.31
242	-0.302
243	-0.3
243	-0.301
243	-0.312
244	-0.31
244	-0.307
245	-0.32
245	-0.318
246	-0.324
246	-0.327
247	-0.328
247	-0.333
248	-0.341
248	-0.34
249	-0.338
249	-0.347
250	-0.347
250	-0.342
250	-0.346
251	-0.339
251	-0.337
252	-0.338
252	-0.329
253	-0.333
253	-0.345
254	-0.345
254	-0.344
255	-0.348
255	-0.341
256	-0.339
256	-0.351
257	-0.349
257	-0.347
258	-0.36
258	-0.354
258	-0.349
259	-0.346
259	-0.351
260	-0.355
260	-0.36
261	-0.368
261	-0.359
262	-0.354
262	-0.356
263	-0.348
263	-0.345
264	-0.342
264	-0.348
265	-0.342
265	-0.348
265	-0.35
266	-0.351
266	-0.35
267	-0.366
267	-0.373
268	-0.385
268	-0.395
269	-0.394
269	-0.389
270	-0.393
270	-0.395
271	-0.397
271	-0.399
272	-0.401
272	-0.394
272	-0.387
273	-0.385
273	-0.394
274	-0.4
274	-0.406
275	-0.408
275	-0.403
276	-0.404
276	-0.395
277	-0.399
277	-0.417
278	-0.425
278	-0.42
278	-0.409
279	-0.41
279	-0.416
280	-0.416
280	-0.416
281	-0.413
281	-0.422
282	-0.417
282	-0.413
283	-0.406
283	-0.41
284	-0.408
284	-0.396
285	-0.394
285	-0.39
285	-0.384
286	-0.388
286	-0.386
287	-0.384
287	-0.372
288	-0.363
288	-0.366
289	-0.379
289	-0.387
290	-0.377
290	-0.373
291	-0.368
291	-0.365
292	-0.364
292	-0.366
292	-0.367
293	-0.372
293	-0.363
294	-0.348
294	-0.337
295	-0.335
295	-0.333
296	-0.332
296	-0.328
297	-0.324
297	-0.309
298	-0.303
298	-0.313
298	-0.307
299	-0.301
299	-0.307
300	-0.303
300	-0.298
301	-0.297
301	-0.295
302	-0.303
302	-0.312
303	-0.303
303	-0.289
304	-0.289
304	-0.289
305	-0.289
305	-0.292
305	-0.293
306	-0.279
306	-0.275
307	-0.263
307	-0.263
308	-0.277
308	-0.273
309	-0.277
309	-0.271
310	-0.26
310	-0.254
311	-0.245
311	-0.251
311	-0.249
312	-0.246
312	-0.244
313	-0.231
313	-0.231
314	-0.227
314	-0.226
315	-0.229
315	-0.227
316	-0.226
316	-0.219
317	-0.213
317	-0.21
318	-0.2
318	-0.199
318	-0.196
319	-0.189
319	-0.188
320	-0.182
320	-0.184
321	-0.187
321	-0.186
322	-0.182
322	-0.177
323	-0.175
323	-0.169
324	-0.165
324	-0.159
324	-0.153
325	-0.144
325	-0.128
326	-0.117
326	-0.105
327	-0.092
327	-0.076
328	-0.056
328	-0.04
329	-0.022
329	-0.002
330	0.02
330	0.044
330	0.064
331	0.086
331	0.105
332	0.123
332	0.14
333	0.154
333	0.17
334	0.183
334	0.195
335	0.206
335	0.216
336	0.225
336	0.233
336	0.239
337	0.246
337	0.251
338	0.256
338	0.259
339	0.263
339	0.266
340	0.268
340	0.271
341	0.273
341	0.275
342	0.277
342	0.278
342	0.281
343	0.282
343	0.284
344	0.284
344	0.285
345	0.285
345	0.285
346	0.286
346	0.286
347	0.286
347	0.287
348	0.286
348	0.286
348	0.286
349	0.286
349	0.286
350	0.286
350	0.286
351	0.286
351	0.286
352	0.286
352	0.286
353	0.286
353	0.285
354	0.285
354	0.285
354	0.285
355	0.285
355	0.284
356	0.284
356	0.284
357	0.283
357	0.282
358	0.282
358	0.282
359	0.282
359	0.281
360	0.281
360	0.281
360	0.28
361	0.28
361	0.28
362	0.28
362	0.28
363	0.28
363	0.28
364	0.28
364	0.28
365	0.28
365	0.279
366	0.279
366	0.279
366	0.279
367	0.279
367	0.279
368	0.278
368	0.278
369	0.278
369	0.278
370	0.278
370	0.277
371	0.277
371	0.277
372	0.277
372	0.276
372	0.276
373	0.276
373	0.275
374	0.275
374	0.275
375	0.275
375	0.275
376	0.274
376	0.274
377	0.274
377	0.274
378	0.274
378	0.274
378	0.274
379	0.274
379	0.273
380	0.273
380	0.273
381	0.273
381	0.272
382	0.272
382	0.272
383	0.271
383	0.271
383	0.271
384	0.271
384	0.271
385	0.27
385	0.27
386	0.27
386	0.27
387	0.27
387	0.27
388	0.27
388	0.269
389	0.269
389	0.269
389	0.269
390	0.269
390	0.269
391	0.268
391	0.268
392	0.268
392	0.268
393	0.267
393	0.267
394	0.267
394	0.267
394	0.266
395	0.266
395	0.266
396	0.266
396	0.265
397	0.265
397	0.265
398	0.265
398	0.265
399	0.265
399	0.264
400	0.264
400	0.264
400	0.263
401	0.263
401	0.263
402	0.263
402	0.262
403	0.262
403	0.262
404	0.262
404	0.261
405	0.261
405	0.261
405	0.261
406	0.261
406	0.26
407	0.26
407	0.26
408	0.26
408	0.26
409	0.26
409	0.259
410	0.259
410	0.259
411	0.259
411	0.259
411	0.259
412	0.26
412	0.259
413	0.259
413	0.259
414	0.259
414	0.258
415	0.258
415	0.258
416	0.258
416	0.257
416	0.257
417	0.257
417	0.257
418	0.256
418	0.256
419	0.256
419	0.256
420	0.256
420	0.256
421	0.256
421	0.256
421	0.256
422	0.256
422	0.256
423	0.256
423	0.256
424	0.256
424	0.255
425	0.255
425	0.255
426	0.255
426	0.255
427	0.255
427	0.254
427	0.254
428	0.254
428	0.254
429	0.254
429	0.254
430	0.254
430	0.254
431	0.254
431	0.253
432	0.253
432	0.253
432	0.253
433	0.253
433	0.252
434	0.252
434	0.252
435	0.252
435	0.252
436	0.252
436	0.252
437	0.252
437	0.252
437	0.252
438	0.252
438	0.252
439	0.252
439	0.252
440	0.251
440	0.251
441	0.251
441	0.251
442	0.25
442	0.25
442	0.25
443	0.25
443	0.25
444	0.25
444	0.25
445	0.25
445	0.25
446	0.25
446	0.251
447	0.251
447	0.251
447	0.251
448	0.251
448	0.251
449	0.251
449	0.251
450	0.251
450	0.251
451	0.251
451	0.251
452	0.251
452	0.252
452	0.251
453	0.251
453	0.251
454	0.251
454	0.251
455	0.251
455	0.251
456	0.251
456	0.251
457	0.251
457	0.251
458	0.251
458	0.251
458	0.251
459	0.251
459	0.252
460	0.251
460	0.251
461	0.251
461	0.252
462	0.252
462	0.252
463	0.253
463	0.253
463	0.253
464	0.253
464	0.253
465	0.254
465	0.254
466	0.254
466	0.255
467	0.255
467	0.256
467	0.256
468	0.256
468	0.257
469	0.257
469	0.258
470	0.258
470	0.258
471	0.258
471	0.259
472	0.259
472	0.259
472	0.26
473	0.26
473	0.26
474	0.261
474	0.261
475	0.261
475	0.262
476	0.262
476	0.263
477	0.263
477	0.264
477	0.264
478	0.265
478	0.266
479	0.266
479	0.267
480	0.268
480	0.268
481	0.269
481	0.27
482	0.271
482	0.271
482	0.272
483	0.272
483	0.273
484	0.274
484	0.274
485	0.274
485	0.275
486	0.276
486	0.276
487	0.277
487	0.278
487	0.28
488	0.28
488	0.282
489	0.283
489	0.285
490	0.287
490	0.288
491	0.29
491	0.291
492	0.293
492	0.294
492	0.295
493	0.296
493	0.298
494	0.299
494	0.301
495	0.302
495	0.303
496	0.305
496	0.307
496	0.308
497	0.31
497	0.312
498	0.314
498	0.316
499	0.318
499	0.32
500	0.322
500	0.324
501	0.326
501	0.328
501	0.329
502	0.331
502	0.332
503	0.334
503	0.336
504	0.338
504	0.34
505	0.342
505	0.344
506	0.346
506	0.348
506	0.35
507	0.352
507	0.354
508	0.357
508	0.359
509	0.361
509	0.363
510	0.365
510	0.367
511	0.369
511	0.371
511	0.372
512	0.374
512	0.376
513	0.377
513	0.379
514	0.381
514	0.383
515	0.385
515	0.386
515	0.388
516	0.39
516	0.392
517	0.394
517	0.395
518	0.397
518	0.399
519	0.4
519	0.402
520	0.403
520	0.405
520	0.406
521	0.408
521	0.409
522	0.411
522	0.412
523	0.413
523	0.414
524	0.415
524	0.415
524	0.416
525	0.417
525	0.417
526	0.418
526	0.418
527	0.419
527	0.42
528	0.42
528	0.421
529	0.421
529	0.422
529	0.422
530	0.422
530	0.422
531	0.422
531	0.422
532	0.422
532	0.422
533	0.421
533	0.421
533	0.421
534	0.42
534	0.42
535	0.419
535	0.419
536	0.418
536	0.417
537	0.416
537	0.415
538	0.415
538	0.414
538	0.413
539	0.412
539	0.411
540	0.41
540	0.408
541	0.407
541	0.406
542	0.405
542	0.403
542	0.401
543	0.4
543	0.399
544	0.397
544	0.396
545	0.394
545	0.393
546	0.392
546	0.39
547	0.389
547	0.388
547	0.386
548	0.385
548	0.383
549	0.382
549	0.38
550	0.379
550	0.377
551	0.375
551	0.374
551	0.372
552	0.371
552	0.37
553	0.368
553	0.367
554	0.365
554	0.363
555	0.362
555	0.36
556	0.359
556	0.357
556	0.356
557	0.354
557	0.352
558	0.351
558	0.349
559	0.348
559	0.346
560	0.344
560	0.343
560	0.342
561	0.34
561	0.339
562	0.337
562	0.336
563	0.334
563	0.333
564	0.331
564	0.33
564	0.328
565	0.327
565	0.325
566	0.323
566	0.321
567	0.32
567	0.318
568	0.316
568	0.314
568	0.312
569	0.31
569	0.308
570	0.307
570	0.305
571	0.303
571	0.302
572	0.301
572	0.299
573	0.298
573	0.297
573	0.295
574	0.294
574	0.293
575	0.292
575	0.291
576	0.29
576	0.289
577	0.288
577	0.287
577	0.287
578	0.286
578	0.286
579	0.285
579	0.284
580	0.283
580	0.281
581	0.28
581	0.279
581	0.278
582	0.277
582	0.276
583	0.275
583	0.274
584	0.273
584	0.272
585	0.271
585	0.271
585	0.27
586	0.269
586	0.269
587	0.268
587	0.268
588	0.267
588	0.267
589	0.266
589	0.266
590	0.265
590	0.265
590	0.265
591	0.264
591	0.263
592	0.262
592	0.261
593	0.261
593	0.26
594	0.259
594	0.258
594	0.258
595	0.257
595	0.257
596	0.257
596	0.257
597	0.257
597	0.256
598	0.255
598	0.255
598	0.254
599	0.253
599	0.252
600	0.252
600	0.251
601	0.25
601	0.249
602	0.248
602	0.247
602	0.247
603	0.247
603	0.247
604	0.247
604	0.247
605	0.247
605	0.246
606	0.246
606	0.245
606	0.244
607	0.244
607	0.243
608	0.242
608	0.241
609	0.24
609	0.24
610	0.24
610	0.239
610	0.239
611	0.239
611	0.239
612	0.239
612	0.239
613	0.239
613	0.239
614	0.238
614	0.237
614	0.236
615	0.235
615	0.234
616	0.233
616	0.232
617	0.231
617	0.23
618	0.229
618	0.229
618	0.228
619	0.228
619	0.228
620	0.228
620	0.227
621	0.227
621	0.227
622	0.226
622	0.225
622	0.225
623	0.224
623	0.224
624	0.223
624	0.222
625	0.222
625	0.222
626	0.221
626	0.221
626	0.221
627	0.22
627	0.219
628	0.218
628	0.217
629	0.216
629	0.215
630	0.213
630	0.212
630	0.21
631	0.209
631	0.207
632	0.205
632	0.203
633	0.201
633	0.199
634	0.196
634	0.194
634	0.192
635	0.189
635	0.186
636	0.183
636	0.18
637	0.177
637	0.173
638	0.169
638	0.166
638	0.162
639	0.158
639	0.154
640	0.15
640	0.146
641	0.142
641	0.138
642	0.134
642	0.13
642	0.127
643	0.122
643	0.118
644	0.113
644	0.108
645	0.103
645	0.098
646	0.094
646	0.088
646	0.082
647	0.077
647	0.071
648	0.065
648	0.06
649	0.053
649	0.047
650	0.041
650	0.035
650	0.028
651	0.021
651	0.01
652	-0.002
652	-0.014
653	-0.024
653	-0.034
653	-0.031
654	-0.015
654	-0.005
655	-0.007
655	-0.011
656	-0.015
656	-0.019
657	-0.021
657	-0.025
657	-0.029
658	-0.034
658	-0.056
659	-0.125
659	-0.211
660	-0.25
660	-0.275
661	-0.301
661	-0.33
661	-0.363
662	-0.394
662	-0.429
663	-0.468
663	-0.513
664	-0.559
664	-0.612
665	-0.666
665	-0.727
665	-0.785
666	-0.846
666	-0.911
667	-0.979
667	-1.047
668	-1.122
668	-1.198
669	-1.276
669	-1.354
669	-1.436
670	-1.51
670	-1.559
671	-1.757
671	-2.007
672	-2.225
672	-2.411
672	-2.537
673	-2.627
673	-2.705
674	-2.737
674	-2.753
675	-2.777
675	-2.916
676	-3.1
676	-3.049
676	-2.821
677	-2.61
677	-2.436
678	-2.238
678	-1.866
679	-1.631
679	-1.508
680	-1.415
680	-1.333
680	-1.263
681	-1.217
681	-1.157
682	-1.115
682	-1.076
683	-1.038
683	-1.017
684	-0.992
684	-0.968
684	-0.942
685	-0.914
685	-0.888
686	-0.861
686	-0.841
687	-0.811
687	-0.794
687	-0.771
688	-0.743
688	-0.719
689	-0.697
689	-0.682
690	-0.662
690	-0.649
691	-0.64
691	-0.643
691	-0.656
692	-0.646
692	-0.635
693	-0.627
693	-0.63
694	-0.624
694	-0.614
695	-0.615
695	-0.61
695	-0.593
696	-0.588
696	-0.565
697	-0.565
697	-0.579
698	-0.58
698	-0.568
698	-0.577
699	-0.579
699	-0.579
700	-0.567
700	-0.579
701	-0.576
701	-0.582
702	-0.582
702	-0.569
702	-0.562
703	-0.555
703	-0.55
704	-0.545
704	-0.542
705	-0.553
705	-0.547
705	-0.534
706	-0.534
706	-0.528
707	-0.529
707	-0.519
708	-0.517
708	-0.505
709	-0.506
709	-0.507
709	-0.501
710	-0.508
710	-0.519
711	-0.512
711	-0.509
712	-0.514
712	-0.528
713	-0.528
713	-0.534
713	-0.525
714	-0.521
714	-0.521
715	-0.51
715	-0.497
716	-0.501
716	-0.504
716	-0.493
717	-0.496
717	-0.498
718	-0.492
718	-0.494
719	-0.498
719	-0.5
720	-0.494
720	-0.5
720	-0.493
721	-0.483
721	-0.485
722	-0.471
722	-0.46
723	-0.455
723	-0.456
723	-0.443
724	-0.443
724	-0.448
725	-0.445
725	-0.454
726	-0.468
726	-0.472
727	-0.476
727	-0.49
727	-0.499
728	-0.501
728	-0.506
729	-0.51
729	-0.514
730	-0.519
730	-0.512
730	-0.5
731	-0.482
731	-0.492
732	-0.498
732	-0.497
733	-0.491
733	-0.496
734	-0.484
734	-0.48
734	-0.473
735	-0.47
735	-0.471
736	-0.481
736	-0.468
737	-0.46
737	-0.461
737	-0.473
738	-0.468
738	-0.47
739	-0.469
739	-0.475
740	-0.476
740	-0.474
741	-0.471
741	-0.47
741	-0.473
742	-0.469
742	-0.47
743	-0.477
743	-0.481
744	-0.482
744	-0.474
744	-0.474
745	-0.478
745	-0.468
746	-0.47
746	-0.465
747	-0.469
747	-0.455
748	-0.445
748	-0.45
748	-0.45
749	-0.449
749	-0.449
750	-0.439
750	-0.443
751	-0.445
751	-0.453
751	-0.453
752	-0.457
752	-0.463
753	-0.46
753	-0.453
754	-0.458
754	-0.45
754	-0.465
755	-0.477
755	-0.487
756	-0.476
756	-0.476
757	-0.475
757	-0.472
758	-0.473
758	-0.473
758	-0.477
759	-0.488
759	-0.472
760	-0.465
760	-0.463
761	-0.474
761	-0.469
761	-0.469
762	-0.479
762	-0.478
763	-0.487
763	-0.482
764	-0.48
764	-0.486
764	-0.493
765	-0.483
765	-0.468
766	-0.475
766	-0.482
767	-0.494
767	-0.488
768	-0.481
768	-0.491
768	-0.494
769	-0.51
769	-0.507
770	-0.51
770	-0.521
771	-0.521
771	-0.521
771	-0.517
772	-0.521
772	-0.519
773	-0.515
773	-0.51
774	-0.51
774	-0.515
775	-0.519
775	-0.515
775	-0.522
776	-0.521
776	-0.517
777	-0.525
777	-0.544
778	-0.544
778	-0.564
778	-0.552
779	-0.571
779	-0.579
780	-0.594
780	-0.591
781	-0.604
781	-0.603
781	-0.617
782	-0.618
782	-0.622
783	-0.611
783	-0.611
784	-0.597
784	-0.588
784	-0.596
785	-0.603
785	-0.587
786	-0.594
786	-0.572
787	-0.556
787	-0.553
788	-0.559
788	-0.568
788	-0.574
789	-0.577
789	-0.557
790	-0.538
790	-0.54
791	-0.533
791	-0.547
791	-0.554
792	-0.552
792	-0.521
793	-0.508
793	-0.488
794	-0.491
794	-0.485
794	-0.495
795	-0.492
795	-0.487
796	-0.473
796	-0.481
797	-0.472
797	-0.484
797	-0.49
798	-0.497
798	-0.487
799	-0.495
799	-0.481
800	-0.485
800	-0.48
801	-0.486
801	-0.472
801	-0.48
802	-0.492
802	-0.493
803	-0.497
803	-0.507
804	-0.506
804	-0.517
804	-0.506
805	-0.509
805	-0.502
806	-0.501
806	-0.489
807	-0.488
807	-0.472
807	-0.461
808	-0.454
808	-0.452
809	-0.438
809	-0.449
810	-0.447
810	-0.438
810	-0.438
811	-0.446
811	-0.434
812	-0.434
812	-0.436
813	-0.438
813	-0.431
813	-0.436
814	-0.433
814	-0.436
815	-0.441
815	-0.444
816	-0.438
816	-0.445
817	-0.451
817	-0.467
817	-0.483
818	-0.492
818	-0.497
819	-0.493
819	-0.492
820	-0.499
820	-0.494
820	-0.503
821	-0.503
821	-0.492
822	-0.463
822	-0.441
823	-0.437
823	-0.437
823	-0.436
824	-0.429
824	-0.432
825	-0.427
825	-0.411
826	-0.405
826	-0.409
826	-0.42
827	-0.417
827	-0.413
828	-0.396
828	-0.398
829	-0.392
829	-0.381
829	-0.375
830	-0.383
830	-0.381
831	-0.377
831	-0.368
832	-0.363
832	-0.357
832	-0.367
833	-0.359
833	-0.361
834	-0.359
834	-0.366
835	-0.355
835	-0.352
835	-0.348
836	-0.347
836	-0.348
837	-0.346
837	-0.332
838	-0.325
838	-0.317
839	-0.306
839	-0.295
839	-0.288
840	-0.276
840	-0.276
841	-0.265
841	-0.259
842	-0.254
842	-0.247
842	-0.245
843	-0.241
843	-0.236
844	-0.23
844	-0.225
845	-0.22
845	-0.213
845	-0.203
846	-0.194
846	-0.181
847	-0.172
847	-0.163
848	-0.153
848	-0.146
848	-0.135
849	-0.127
849	-0.117
850	-0.104
850	-0.103
851	-0.098
851	-0.092
851	-0.087
852	-0.076
852	-0.068
853	-0.063
853	-0.06
854	-0.054
854	-0.046
854	-0.04
855	-0.031
855	-0.026
856	-0.02
856	-0.014
857	-0.009
857	-0.004
857	0.002
858	0.008
858	0.011
859	0.014
859	0.018
860	0.022
860	0.029
860	0.033
861	0.037
861	0.041
862	0.044
862	0.047
863	0.051
863	0.055
863	0.058
864	0.06
864	0.064
865	0.066
865	0.069
866	0.072
866	0.074
866	0.076
867	0.078
867	0.08
868	0.082
868	0.084
869	0.086
869	0.087
869	0.088
870	0.089
870	0.09
871	0.091
871	0.092
872	0.092
872	0.092
872	0.092
873	0.092
873	0.092
874	0.092
874	0.092
875	0.091
875	0.091
875	0.09
876	0.09
876	0.089
877	0.088
877	0.088
878	0.087
878	0.086
878	0.085
879	0.084
879	0.083
880	0.083
880	0.083
881	0.083
881	0.083
881	0.082
882	0.082
882	0.081
883	0.08
883	0.079
884	0.078
884	0.078
884	0.077
885	0.076
885	0.076
886	0.075
886	0.075
887	0.074
887	0.075
887	0.075
888	0.076
888	0.076
889	0.077
889	0.078
890	0.079
890	0.079
890	0.08
891	0.08
891	0.081
892	0.081
892	0.081
893	0.08
893	0.08
893	0.08
894	0.079
894	0.078
895	0.078
895	0.077
895	0.077
896	0.076
896	0.075
897	0.074
897	0.073
898	0.072
898	0.071
898	0.071
899	0.071
899	0.071
900	0.071
900	0.071
901	0.072
901	0.072
901	0.072
902	0.072
902	0.072
903	0.072
903	0.072
904	0.072
904	0.072
904	0.072
905	0.072
905	0.072
906	0.072
906	0.071
907	0.071
907	0.07
907	0.069
908	0.069
908	0.068
909	0.067
909	0.066
910	0.066
910	0.065
910	0.064
911	0.064
911	0.064
912	0.064
912	0.064
913	0.065
913	0.065
913	0.066
914	0.067
914	0.068
915	0.069
915	0.069
916	0.07
916	0.071
916	0.071
917	0.072
917	0.072
918	0.072
918	0.072
918	0.072
919	0.072
919	0.072
920	0.072
920	0.073
921	0.073
921	0.073
921	0.074
922	0.074
922	0.074
923	0.074
923	0.075
924	0.075
924	0.076
924	0.075
925	0.075
925	0.074
926	0.074
926	0.073
927	0.073
927	0.072
927	0.072
928	0.071
928	0.07
929	0.069
929	0.069
930	0.068
930	0.068
930	0.068
931	0.068
931	0.068
932	0.069
932	0.068
933	0.068
933	0.068
933	0.067
934	0.066
934	0.066
935	0.065
935	0.065
935	0.064
936	0.063
936	0.062
937	0.062
937	0.061
938	0.061
938	0.061
938	0.061
939	0.061
939	0.061
940	0.061
940	0.061
941	0.061
941	0.061
941	0.061
942	0.061
942	0.061
943	0.06
943	0.06
944	0.059
944	0.059
944	0.058
945	0.058
945	0.057
946	0.056
946	0.055
946	0.055
947	0.055
947	0.055
948	0.056
948	0.057
949	0.057
949	0.058
949	0.058
950	0.059
950	0.059
951	0.06
951	0.061
952	0.061
952	0.062
952	0.062
953	0.063
953	0.064
954	0.064
954	0.065
955	0.066
955	0.066
955	0.067
956	0.067
956	0.068
957	0.068
957	0.068
957	0.069
958	0.069
958	0.069
959	0.069
959	0.07
960	0.07
960	0.07
960	0.069
961	0.069
961	0.069
962	0.068
962	0.067
963	0.067
963	0.066
963	0.066
964	0.065
964	0.065
965	0.064
965	0.064
966	0.064
966	0.063
966	0.063
967	0.063
967	0.063
968	0.062
968	0.062
968	0.062
969	0.061
969	0.061
970	0.061
970	0.061
971	0.061
971	0.061
971	0.061
972	0.06
972	0.06
973	0.06
973	0.059
974	0.059
974	0.058
974	0.058
975	0.057
975	0.056
976	0.056
976	0.055
976	0.054
977	0.054
977	0.053
978	0.053
978	0.053
979	0.053
979	0.053
979	0.053
980	0.053
980	0.054
981	0.054
981	0.055
982	0.055
982	0.055
982	0.054
983	0.054
983	0.054
984	0.054
984	0.054
984	0.054
985	0.054
985	0.054
986	0.054
986	0.054
987	0.055
987	0.056
987	0.056
988	0.056
988	0.057
989	0.057
989	0.056
990	0.056
990	0.056
990	0.055
991	0.055
991	0.054
992	0.054
992	0.053
992	0.053
993	0.053
993	0.053
994	0.052
994	0.052
995	0.052
995	0.052
995	0.052
996	0.052
996	0.052
997	0.052
997	0.052
997	0.052
998	0.052
998	0.052
999	0.052
999	0.052
1000	0.053
1000	0.052
1000	0.052
1001	0.052
1001	0.052
1002	0.052
1002	0.052
1003	0.052
1003	0.051
1003	0.051
1004	0.05
1004	0.049
1005	0.048
1005	0.047
1005	0.046
1006	0.045
1006	0.044
1007	0.043
1007	0.043
1008	0.042
1008	0.042
1008	0.041
1009	0.041
1009	0.042
1010	0.042
1010	0.042
1010	0.042
1011	0.042
1011	0.041
1012	0.041
1012	0.04
1013	0.039
1013	0.037
1013	0.036
1014	0.035
1014	0.034
1015	0.033
1015	0.033
1016	0.032
1016	0.031
1016	0.031
1017	0.03
1017	0.03
1018	0.03
1018	0.03
1018	0.029
1019	0.029
1019	0.028
1020	0.027
1020	0.027
1021	0.026
1021	0.025
1021	0.023
1022	0.022
1022	0.021
1023	0.021
1023	0.02
1023	0.019
1024	0.019
1024	0.019
1025	0.019
1025	0.019
1026	0.02
1026	0.02
1026	0.021
1027	0.021
1027	0.022
1028	0.022
1028	0.022
1028	0.022
1029	0.022
1029	0.022
1030	0.022
1030	0.022
1031	0.021
1031	0.022
1031	0.022
1032	0.022
1032	0.022
1033	0.023
1033	0.023
1033	0.024
1034	0.024
1034	0.025
1035	0.025
1035	0.026
1036	0.026
1036	0.026
1036	0.025
1037	0.025
1037	0.025
1038	0.024
1038	0.024
1039	0.023
1039	0.024
1039	0.024
1040	0.024
1040	0.024
1041	0.025
1041	0.025
1041	0.026
1042	0.026
1042	0.026
1043	0.027
1043	0.027
1044	0.027
1044	0.027
1044	0.027
1045	0.026
1045	0.026
1046	0.026
1046	0.026
1046	0.026
1047	0.027
1047	0.027
1048	0.028
1048	0.028
1049	0.028
1049	0.029
1049	0.029
1050	0.029
1050	0.03
1051	0.03
1051	0.03
1051	0.03
1052	0.03
1052	0.03
1053	0.03
1053	0.03
1053	0.03
1054	0.03
1054	0.029
1055	0.029
1055	0.028
1056	0.027
1056	0.026
1056	0.025
1057	0.024
1057	0.024
1058	0.023
1058	0.022
1058	0.022
1059	0.021
1059	0.021
1060	0.02
1060	0.02
1061	0.02
1061	0.02
1061	0.02
1062	0.02
1062	0.02
1063	0.02
1063	0.02
1063	0.02
1064	0.021
1064	0.021
1065	0.02
1065	0.02
1066	0.019
1066	0.019
1066	0.019
1067	0.019
1067	0.018
1068	0.017
1068	0.017
1068	0.016
1069	0.016
1069	0.016
1070	0.016
1070	0.016
1071	0.015
1071	0.015
1071	0.015
1072	0.015
1072	0.015
1073	0.015
1073	0.015
1073	0.015
1074	0.015
1074	0.015
1075	0.015
1075	0.015
1076	0.015
1076	0.015
1076	0.015
1077	0.014
1077	0.013
1078	0.013
1078	0.012
1078	0.011
1079	0.01
1079	0.01
1080	0.009
1080	0.008
1080	0.007
1081	0.007
1081	0.006
1082	0.006
1082	0.005
1083	0.005
1083	0.004
1083	0.003
1084	0.003
1084	0.002
1085	0.002
1085	0.001
1085	0.001
1086	0.001
1086	0.001
1087	0.001
1087	0.001
1088	0.001
1088	0.001
1088	0.001
1089	0.001
1089	0
1090	-0
1090	-0
1090	-0.001
1091	-0.001
1091	-0.001
1092	-0.001
1092	-0.001
1092	-0.002
1093	-0.002
1093	-0.002
1094	-0.002
1094	-0.002
1095	-0.002
1095	-0.002
1095	-0.002
1096	-0.002
1096	-0.003
1097	-0.003
1097	-0.003
1097	-0.003
1098	-0.004
1098	-0.004
1099	-0.005
1099	-0.005
1100	-0.006
1100	-0.007
1100	-0.008
1101	-0.009
1101	-0.011
1102	-0.012
1102	-0.014
1102	-0.014
1103	-0.015
1103	-0.016
1104	-0.017
1104	-0.018
1104	-0.02
1105	-0.02
1105	-0.022
1106	-0.024
1106	-0.026
1107	-0.027
1107	-0.029
1107	-0.032
1108	-0.034
1108	-0.035
1109	-0.037
1109	-0.04
1109	-0.041
1110	-0.04
1110	-0.044
1111	-0.045
1111	-0.043
