Data from 17C_3.4A_30min_2sec_int_Absorbance__236__00236.txt Node

Date: Mon Jun 19 16:14:38 CEST 2023
User: Marek
Spectrometer: MAYP115816
Trigger mode: 0
Integration Time (sec): 2.500000E-1
Scans to average: 10
Electric dark correction enabled: true
Nonlinearity correction enabled: true
Boxcar width: 5
XAxis mode: Wavelengths
Number of Pixels in Spectrum: 2068
>>>>>Begin Spectral Data<<<<<
199	-0.403
199	-0.411
200	-0.335
200	-0.281
201	-0.249
201	-0.243
202	-0.232
202	-0.222
203	-0.215
203	-0.212
204	-0.199
204	-0.191
205	-0.175
205	-0.171
205	-0.174
206	-0.177
206	-0.176
207	-0.163
207	-0.161
208	-0.163
208	-0.163
209	-0.158
209	-0.158
210	-0.161
210	-0.161
211	-0.164
211	-0.166
212	-0.17
212	-0.183
213	-0.179
213	-0.18
213	-0.186
214	-0.183
214	-0.18
215	-0.18
215	-0.187
216	-0.186
216	-0.187
217	-0.183
217	-0.182
218	-0.189
218	-0.186
219	-0.19
219	-0.198
220	-0.204
220	-0.208
221	-0.206
221	-0.208
221	-0.207
222	-0.203
222	-0.207
223	-0.206
223	-0.211
224	-0.213
224	-0.217
225	-0.215
225	-0.211
226	-0.214
226	-0.214
227	-0.22
227	-0.227
228	-0.228
228	-0.228
229	-0.227
229	-0.22
229	-0.213
230	-0.216
230	-0.219
231	-0.215
231	-0.208
232	-0.201
232	-0.203
233	-0.198
233	-0.198
234	-0.198
234	-0.197
235	-0.199
235	-0.199
236	-0.2
236	-0.203
236	-0.209
237	-0.218
237	-0.215
238	-0.224
238	-0.222
239	-0.223
239	-0.231
240	-0.228
240	-0.228
241	-0.229
241	-0.227
242	-0.23
242	-0.222
243	-0.218
243	-0.219
243	-0.227
244	-0.224
244	-0.223
245	-0.236
245	-0.233
246	-0.238
246	-0.244
247	-0.244
247	-0.25
248	-0.255
248	-0.249
249	-0.251
249	-0.259
250	-0.257
250	-0.254
250	-0.257
251	-0.252
251	-0.251
252	-0.256
252	-0.249
253	-0.253
253	-0.261
254	-0.257
254	-0.256
255	-0.261
255	-0.254
256	-0.25
256	-0.261
257	-0.257
257	-0.25
258	-0.265
258	-0.258
258	-0.257
259	-0.255
259	-0.258
260	-0.259
260	-0.263
261	-0.276
261	-0.268
262	-0.268
262	-0.268
263	-0.251
263	-0.255
264	-0.253
264	-0.261
265	-0.257
265	-0.264
265	-0.269
266	-0.263
266	-0.266
267	-0.276
267	-0.283
268	-0.297
268	-0.301
269	-0.3
269	-0.295
270	-0.302
270	-0.305
271	-0.3
271	-0.304
272	-0.298
272	-0.289
272	-0.284
273	-0.284
273	-0.291
274	-0.296
274	-0.295
275	-0.289
275	-0.278
276	-0.28
276	-0.275
277	-0.283
277	-0.299
278	-0.308
278	-0.306
278	-0.295
279	-0.298
279	-0.311
280	-0.311
280	-0.315
281	-0.315
281	-0.316
282	-0.31
282	-0.312
283	-0.299
283	-0.298
284	-0.294
284	-0.282
285	-0.276
285	-0.272
285	-0.269
286	-0.268
286	-0.27
287	-0.263
287	-0.251
288	-0.247
288	-0.254
289	-0.269
289	-0.278
290	-0.269
290	-0.27
291	-0.265
291	-0.263
292	-0.259
292	-0.264
292	-0.265
293	-0.27
293	-0.26
294	-0.25
294	-0.24
295	-0.242
295	-0.244
296	-0.245
296	-0.248
297	-0.245
297	-0.233
298	-0.225
298	-0.229
298	-0.223
299	-0.215
299	-0.217
300	-0.213
300	-0.205
301	-0.197
301	-0.193
302	-0.196
302	-0.202
303	-0.197
303	-0.186
304	-0.186
304	-0.188
305	-0.188
305	-0.188
305	-0.19
306	-0.181
306	-0.177
307	-0.171
307	-0.176
308	-0.186
308	-0.184
309	-0.186
309	-0.176
310	-0.168
310	-0.162
311	-0.155
311	-0.154
311	-0.155
312	-0.151
312	-0.15
313	-0.139
313	-0.14
314	-0.136
314	-0.14
315	-0.139
315	-0.136
316	-0.133
316	-0.131
317	-0.126
317	-0.126
318	-0.115
318	-0.114
318	-0.113
319	-0.105
319	-0.101
320	-0.099
320	-0.104
321	-0.11
321	-0.108
322	-0.1
322	-0.091
323	-0.09
323	-0.088
324	-0.083
324	-0.076
324	-0.067
325	-0.059
325	-0.047
326	-0.033
326	-0.022
327	-0.011
327	0.004
328	0.022
328	0.043
329	0.06
329	0.078
330	0.096
330	0.117
330	0.136
331	0.154
331	0.172
332	0.188
332	0.201
333	0.214
333	0.226
334	0.237
334	0.245
335	0.254
335	0.261
336	0.268
336	0.275
336	0.28
337	0.285
337	0.288
338	0.292
338	0.295
339	0.299
339	0.302
340	0.304
340	0.306
341	0.308
341	0.309
342	0.311
342	0.312
342	0.314
343	0.314
343	0.316
344	0.316
344	0.316
345	0.317
345	0.317
346	0.317
346	0.317
347	0.317
347	0.317
348	0.317
348	0.317
348	0.317
349	0.317
349	0.317
350	0.317
350	0.317
351	0.316
351	0.316
352	0.316
352	0.316
353	0.316
353	0.316
354	0.316
354	0.315
354	0.315
355	0.315
355	0.315
356	0.314
356	0.314
357	0.313
357	0.313
358	0.313
358	0.312
359	0.312
359	0.312
360	0.311
360	0.311
360	0.311
361	0.31
361	0.31
362	0.311
362	0.311
363	0.31
363	0.31
364	0.31
364	0.31
365	0.309
365	0.309
366	0.309
366	0.309
366	0.309
367	0.309
367	0.308
368	0.308
368	0.308
369	0.308
369	0.307
370	0.307
370	0.307
371	0.306
371	0.306
372	0.306
372	0.306
372	0.305
373	0.305
373	0.305
374	0.304
374	0.304
375	0.304
375	0.304
376	0.304
376	0.303
377	0.303
377	0.303
378	0.303
378	0.303
378	0.303
379	0.303
379	0.302
380	0.302
380	0.301
381	0.301
381	0.301
382	0.3
382	0.3
383	0.3
383	0.299
383	0.299
384	0.299
384	0.299
385	0.298
385	0.298
386	0.298
386	0.298
387	0.298
387	0.297
388	0.297
388	0.297
389	0.297
389	0.297
389	0.297
390	0.296
390	0.296
391	0.296
391	0.295
392	0.295
392	0.295
393	0.295
393	0.294
394	0.294
394	0.294
394	0.293
395	0.293
395	0.293
396	0.292
396	0.292
397	0.292
397	0.292
398	0.292
398	0.292
399	0.291
399	0.291
400	0.29
400	0.29
400	0.29
401	0.289
401	0.289
402	0.289
402	0.288
403	0.288
403	0.288
404	0.287
404	0.287
405	0.287
405	0.287
405	0.287
406	0.286
406	0.286
407	0.286
407	0.285
408	0.285
408	0.285
409	0.285
409	0.285
410	0.285
410	0.285
411	0.285
411	0.285
411	0.285
412	0.285
412	0.284
413	0.284
413	0.284
414	0.284
414	0.284
415	0.283
415	0.283
416	0.283
416	0.282
416	0.282
417	0.282
417	0.282
418	0.282
418	0.282
419	0.282
419	0.281
420	0.281
420	0.281
421	0.281
421	0.281
421	0.281
422	0.281
422	0.281
423	0.281
423	0.281
424	0.281
424	0.281
425	0.28
425	0.28
426	0.28
426	0.28
427	0.279
427	0.279
427	0.279
428	0.279
428	0.279
429	0.278
429	0.278
430	0.278
430	0.278
431	0.278
431	0.278
432	0.278
432	0.278
432	0.277
433	0.277
433	0.277
434	0.277
434	0.276
435	0.276
435	0.276
436	0.276
436	0.276
437	0.276
437	0.276
437	0.276
438	0.276
438	0.276
439	0.276
439	0.276
440	0.275
440	0.275
441	0.275
441	0.275
442	0.274
442	0.274
442	0.274
443	0.274
443	0.274
444	0.274
444	0.274
445	0.274
445	0.274
446	0.274
446	0.274
447	0.274
447	0.275
447	0.275
448	0.275
448	0.275
449	0.275
449	0.275
450	0.275
450	0.275
451	0.275
451	0.275
452	0.276
452	0.276
452	0.275
453	0.275
453	0.275
454	0.275
454	0.275
455	0.275
455	0.275
456	0.275
456	0.275
457	0.275
457	0.275
458	0.275
458	0.275
458	0.275
459	0.276
459	0.276
460	0.276
460	0.276
461	0.276
461	0.277
462	0.277
462	0.277
463	0.278
463	0.278
463	0.278
464	0.278
464	0.278
465	0.279
465	0.279
466	0.279
466	0.28
467	0.28
467	0.28
467	0.281
468	0.281
468	0.282
469	0.282
469	0.283
470	0.283
470	0.284
471	0.284
471	0.284
472	0.285
472	0.285
472	0.286
473	0.286
473	0.287
474	0.287
474	0.287
475	0.288
475	0.289
476	0.289
476	0.29
477	0.29
477	0.291
477	0.292
478	0.293
478	0.293
479	0.294
479	0.295
480	0.295
480	0.296
481	0.297
481	0.298
482	0.299
482	0.3
482	0.3
483	0.301
483	0.302
484	0.302
484	0.303
485	0.304
485	0.305
486	0.306
486	0.307
487	0.308
487	0.309
487	0.31
488	0.311
488	0.313
489	0.315
489	0.317
490	0.318
490	0.32
491	0.322
491	0.323
492	0.325
492	0.326
492	0.328
493	0.33
493	0.331
494	0.333
494	0.335
495	0.336
495	0.338
496	0.34
496	0.342
496	0.344
497	0.346
497	0.348
498	0.35
498	0.352
499	0.354
499	0.357
500	0.359
500	0.362
501	0.364
501	0.366
501	0.368
502	0.369
502	0.371
503	0.373
503	0.375
504	0.378
504	0.38
505	0.382
505	0.384
506	0.387
506	0.389
506	0.392
507	0.395
507	0.397
508	0.4
508	0.402
509	0.405
509	0.407
510	0.409
510	0.412
511	0.414
511	0.416
511	0.418
512	0.42
512	0.422
513	0.424
513	0.426
514	0.428
514	0.43
515	0.433
515	0.435
515	0.437
516	0.439
516	0.441
517	0.443
517	0.445
518	0.447
518	0.449
519	0.451
519	0.453
520	0.455
520	0.456
520	0.458
521	0.46
521	0.461
522	0.463
522	0.464
523	0.466
523	0.467
524	0.467
524	0.469
524	0.47
525	0.47
525	0.471
526	0.472
526	0.472
527	0.473
527	0.474
528	0.475
528	0.475
529	0.475
529	0.476
529	0.476
530	0.476
530	0.476
531	0.476
531	0.476
532	0.476
532	0.475
533	0.475
533	0.475
533	0.474
534	0.474
534	0.473
535	0.473
535	0.473
536	0.472
536	0.471
537	0.47
537	0.469
538	0.468
538	0.467
538	0.466
539	0.465
539	0.464
540	0.462
540	0.461
541	0.459
541	0.458
542	0.456
542	0.454
542	0.453
543	0.451
543	0.449
544	0.447
544	0.446
545	0.444
545	0.443
546	0.441
546	0.439
547	0.437
547	0.436
547	0.435
548	0.433
548	0.431
549	0.43
549	0.428
550	0.426
550	0.424
551	0.422
551	0.42
551	0.418
552	0.416
552	0.414
553	0.413
553	0.411
554	0.409
554	0.407
555	0.406
555	0.404
556	0.402
556	0.4
556	0.398
557	0.397
557	0.395
558	0.392
558	0.39
559	0.388
559	0.386
560	0.384
560	0.382
560	0.381
561	0.379
561	0.377
562	0.375
562	0.373
563	0.371
563	0.369
564	0.368
564	0.366
564	0.364
565	0.362
565	0.36
566	0.358
566	0.356
567	0.354
567	0.351
568	0.349
568	0.347
568	0.345
569	0.343
569	0.341
570	0.339
570	0.337
571	0.335
571	0.334
572	0.332
572	0.33
573	0.329
573	0.327
573	0.326
574	0.324
574	0.323
575	0.321
575	0.32
576	0.318
576	0.317
577	0.315
577	0.314
577	0.314
578	0.313
578	0.312
579	0.311
579	0.309
580	0.308
580	0.306
581	0.305
581	0.304
581	0.303
582	0.302
582	0.3
583	0.299
583	0.298
584	0.296
584	0.295
585	0.294
585	0.293
585	0.292
586	0.291
586	0.29
587	0.289
587	0.288
588	0.288
588	0.287
589	0.286
589	0.285
590	0.285
590	0.284
590	0.283
591	0.282
591	0.28
592	0.279
592	0.278
593	0.277
593	0.276
594	0.275
594	0.274
594	0.274
595	0.273
595	0.272
596	0.272
596	0.271
597	0.27
597	0.269
598	0.268
598	0.268
598	0.267
599	0.266
599	0.265
600	0.264
600	0.263
601	0.262
601	0.26
602	0.259
602	0.258
602	0.258
603	0.257
603	0.257
604	0.256
604	0.256
605	0.255
605	0.255
606	0.254
606	0.253
606	0.252
607	0.251
607	0.25
608	0.249
608	0.248
609	0.247
609	0.247
610	0.246
610	0.245
610	0.245
611	0.244
611	0.244
612	0.243
612	0.243
613	0.242
613	0.242
614	0.241
614	0.239
614	0.238
615	0.237
615	0.236
616	0.235
616	0.234
617	0.233
617	0.232
618	0.231
618	0.23
618	0.229
619	0.228
619	0.228
620	0.227
620	0.226
621	0.225
621	0.225
622	0.224
622	0.223
622	0.222
623	0.221
623	0.221
624	0.22
624	0.219
625	0.218
625	0.218
626	0.217
626	0.216
626	0.216
627	0.215
627	0.214
628	0.213
628	0.211
629	0.21
629	0.208
630	0.206
630	0.205
630	0.203
631	0.201
631	0.199
632	0.197
632	0.195
633	0.192
633	0.19
634	0.188
634	0.185
634	0.182
635	0.179
635	0.176
636	0.172
636	0.169
637	0.165
637	0.162
638	0.158
638	0.154
638	0.15
639	0.145
639	0.141
640	0.137
640	0.133
641	0.129
641	0.125
642	0.12
642	0.116
642	0.112
643	0.108
643	0.103
644	0.098
644	0.093
645	0.088
645	0.082
646	0.077
646	0.071
646	0.066
647	0.06
647	0.055
648	0.049
648	0.044
649	0.037
649	0.031
650	0.026
650	0.02
650	0.014
651	0.006
651	-0.003
652	-0.015
652	-0.027
653	-0.038
653	-0.047
653	-0.044
654	-0.027
654	-0.017
655	-0.019
655	-0.022
656	-0.025
656	-0.029
657	-0.031
657	-0.033
657	-0.037
658	-0.041
658	-0.062
659	-0.129
659	-0.212
660	-0.25
660	-0.273
661	-0.299
661	-0.328
661	-0.361
662	-0.394
662	-0.428
663	-0.47
663	-0.515
664	-0.563
664	-0.618
665	-0.674
665	-0.738
665	-0.798
666	-0.86
666	-0.927
667	-0.997
667	-1.068
668	-1.144
668	-1.223
669	-1.303
669	-1.384
669	-1.473
670	-1.566
670	-1.677
671	-1.936
671	-2.118
672	-2.305
672	-2.472
672	-2.587
673	-2.669
673	-2.722
674	-2.744
674	-2.758
675	-2.78
675	-2.909
676	-3.065
676	-3.007
676	-2.769
677	-2.545
677	-2.344
678	-2.082
678	-1.731
679	-1.561
679	-1.452
680	-1.364
680	-1.287
680	-1.221
681	-1.177
681	-1.119
682	-1.077
682	-1.039
683	-1.002
683	-0.983
684	-0.958
684	-0.933
684	-0.907
685	-0.879
685	-0.852
686	-0.823
686	-0.802
687	-0.772
687	-0.754
687	-0.73
688	-0.701
688	-0.674
689	-0.65
689	-0.634
690	-0.611
690	-0.594
691	-0.586
691	-0.587
691	-0.6
692	-0.588
692	-0.576
693	-0.567
693	-0.571
694	-0.564
694	-0.555
695	-0.558
695	-0.554
695	-0.534
696	-0.532
696	-0.507
697	-0.504
697	-0.517
698	-0.516
698	-0.504
698	-0.513
699	-0.514
699	-0.509
700	-0.5
700	-0.511
701	-0.504
701	-0.51
702	-0.512
702	-0.503
702	-0.498
703	-0.495
703	-0.486
704	-0.481
704	-0.48
705	-0.491
705	-0.483
705	-0.471
706	-0.471
706	-0.463
707	-0.462
707	-0.456
708	-0.448
708	-0.441
709	-0.441
709	-0.441
709	-0.43
710	-0.438
710	-0.443
711	-0.435
711	-0.433
712	-0.431
712	-0.443
713	-0.441
713	-0.45
713	-0.443
714	-0.438
714	-0.438
715	-0.43
715	-0.42
716	-0.422
716	-0.425
716	-0.417
717	-0.416
717	-0.423
718	-0.41
718	-0.411
719	-0.415
719	-0.418
720	-0.41
720	-0.415
720	-0.412
721	-0.402
721	-0.403
722	-0.389
722	-0.377
723	-0.375
723	-0.378
723	-0.366
724	-0.369
724	-0.373
725	-0.377
725	-0.38
726	-0.388
726	-0.395
727	-0.399
727	-0.411
727	-0.421
728	-0.42
728	-0.425
729	-0.419
729	-0.425
730	-0.429
730	-0.425
730	-0.415
731	-0.395
731	-0.405
732	-0.412
732	-0.409
733	-0.404
733	-0.414
734	-0.41
734	-0.408
734	-0.394
735	-0.392
735	-0.394
736	-0.407
736	-0.395
737	-0.385
737	-0.387
737	-0.397
738	-0.391
738	-0.391
739	-0.391
739	-0.4
740	-0.397
740	-0.397
741	-0.392
741	-0.391
741	-0.39
742	-0.381
742	-0.381
743	-0.386
743	-0.388
744	-0.382
744	-0.371
744	-0.373
745	-0.377
745	-0.368
746	-0.367
746	-0.369
747	-0.377
747	-0.365
748	-0.352
748	-0.356
748	-0.36
749	-0.361
749	-0.362
750	-0.353
750	-0.356
751	-0.357
751	-0.362
751	-0.361
752	-0.368
752	-0.374
753	-0.374
753	-0.367
754	-0.369
754	-0.365
754	-0.38
755	-0.393
755	-0.401
756	-0.392
756	-0.393
757	-0.392
757	-0.392
758	-0.389
758	-0.393
758	-0.401
759	-0.405
759	-0.393
760	-0.387
760	-0.388
761	-0.398
761	-0.393
761	-0.394
762	-0.399
762	-0.402
763	-0.409
763	-0.4
764	-0.396
764	-0.4
764	-0.406
765	-0.398
765	-0.385
766	-0.389
766	-0.396
767	-0.405
767	-0.401
768	-0.393
768	-0.405
768	-0.413
769	-0.428
769	-0.429
770	-0.433
770	-0.446
771	-0.447
771	-0.447
771	-0.45
772	-0.45
772	-0.451
773	-0.45
773	-0.444
774	-0.44
774	-0.442
775	-0.44
775	-0.434
775	-0.433
776	-0.432
776	-0.426
777	-0.441
777	-0.458
778	-0.455
778	-0.472
778	-0.463
779	-0.478
779	-0.484
780	-0.492
780	-0.495
781	-0.507
781	-0.504
781	-0.513
782	-0.515
782	-0.519
783	-0.51
783	-0.51
784	-0.499
784	-0.494
784	-0.506
785	-0.514
785	-0.499
786	-0.5
786	-0.48
787	-0.46
787	-0.455
788	-0.457
788	-0.46
788	-0.465
789	-0.463
789	-0.447
790	-0.425
790	-0.431
791	-0.426
791	-0.441
791	-0.448
792	-0.443
792	-0.421
793	-0.417
793	-0.395
794	-0.399
794	-0.39
794	-0.394
795	-0.389
795	-0.391
796	-0.38
796	-0.386
797	-0.38
797	-0.389
797	-0.39
798	-0.402
798	-0.393
799	-0.403
799	-0.396
800	-0.397
800	-0.386
801	-0.387
801	-0.373
801	-0.386
802	-0.399
802	-0.402
803	-0.406
803	-0.419
804	-0.418
804	-0.428
804	-0.42
805	-0.429
805	-0.417
806	-0.42
806	-0.408
807	-0.405
807	-0.387
807	-0.376
808	-0.366
808	-0.357
809	-0.344
809	-0.352
810	-0.349
810	-0.346
810	-0.345
811	-0.348
811	-0.341
812	-0.342
812	-0.344
813	-0.351
813	-0.346
813	-0.354
814	-0.351
814	-0.356
815	-0.359
815	-0.362
816	-0.36
816	-0.364
817	-0.372
817	-0.386
817	-0.395
818	-0.409
818	-0.404
819	-0.4
819	-0.399
820	-0.406
820	-0.403
820	-0.407
821	-0.407
821	-0.395
822	-0.37
822	-0.353
823	-0.348
823	-0.356
823	-0.356
824	-0.348
824	-0.351
825	-0.344
825	-0.329
826	-0.324
826	-0.329
826	-0.338
827	-0.334
827	-0.331
828	-0.312
828	-0.314
829	-0.309
829	-0.298
829	-0.293
830	-0.302
830	-0.301
831	-0.294
831	-0.287
832	-0.285
832	-0.281
832	-0.29
833	-0.284
833	-0.285
834	-0.286
834	-0.292
835	-0.28
835	-0.279
835	-0.278
836	-0.277
836	-0.274
837	-0.272
837	-0.261
838	-0.253
838	-0.243
839	-0.231
839	-0.224
839	-0.219
840	-0.206
840	-0.204
841	-0.195
841	-0.189
842	-0.187
842	-0.186
842	-0.182
843	-0.18
843	-0.179
844	-0.175
844	-0.171
845	-0.169
845	-0.162
845	-0.153
846	-0.145
846	-0.134
847	-0.128
847	-0.122
848	-0.114
848	-0.109
848	-0.099
849	-0.093
849	-0.085
850	-0.078
850	-0.076
851	-0.075
851	-0.07
851	-0.065
852	-0.058
852	-0.051
853	-0.044
853	-0.042
854	-0.035
854	-0.03
854	-0.024
855	-0.018
855	-0.015
856	-0.01
856	-0.004
857	-0.003
857	0.001
857	0.006
858	0.011
858	0.013
859	0.016
859	0.021
860	0.023
860	0.029
860	0.031
861	0.033
861	0.036
862	0.039
862	0.041
863	0.042
863	0.046
863	0.048
864	0.048
864	0.05
865	0.052
865	0.054
866	0.056
866	0.056
866	0.057
867	0.058
867	0.06
868	0.061
868	0.063
869	0.064
869	0.065
869	0.066
870	0.066
870	0.067
871	0.068
871	0.069
872	0.07
872	0.07
872	0.07
873	0.07
873	0.07
874	0.07
874	0.07
875	0.07
875	0.069
875	0.069
876	0.068
876	0.068
877	0.068
877	0.067
878	0.067
878	0.066
878	0.065
879	0.064
879	0.064
880	0.063
880	0.063
881	0.063
881	0.063
881	0.062
882	0.062
882	0.061
883	0.06
883	0.059
884	0.058
884	0.058
884	0.057
885	0.056
885	0.056
886	0.055
886	0.055
887	0.055
887	0.055
887	0.056
888	0.056
888	0.057
889	0.058
889	0.059
890	0.06
890	0.06
890	0.061
891	0.061
891	0.061
892	0.062
892	0.062
893	0.062
893	0.061
893	0.061
894	0.06
894	0.06
895	0.059
895	0.058
895	0.058
896	0.057
896	0.056
897	0.055
897	0.054
898	0.053
898	0.052
898	0.051
899	0.051
899	0.051
900	0.051
900	0.051
901	0.051
901	0.051
901	0.052
902	0.051
902	0.051
903	0.051
903	0.051
904	0.051
904	0.051
904	0.051
905	0.052
905	0.052
906	0.051
906	0.051
907	0.05
907	0.05
907	0.049
908	0.049
908	0.048
909	0.047
909	0.046
910	0.046
910	0.045
910	0.044
911	0.044
911	0.044
912	0.044
912	0.044
913	0.044
913	0.045
913	0.046
914	0.047
914	0.047
915	0.048
915	0.049
916	0.05
916	0.051
916	0.051
917	0.052
917	0.052
918	0.052
918	0.052
918	0.052
919	0.051
919	0.051
920	0.052
920	0.052
921	0.052
921	0.053
921	0.053
922	0.053
922	0.054
923	0.054
923	0.055
924	0.055
924	0.056
924	0.056
925	0.055
925	0.055
926	0.054
926	0.054
927	0.053
927	0.053
927	0.052
928	0.051
928	0.051
929	0.05
929	0.049
930	0.049
930	0.049
930	0.049
931	0.049
931	0.049
932	0.05
932	0.049
933	0.049
933	0.049
933	0.048
934	0.048
934	0.047
935	0.047
935	0.046
935	0.046
936	0.045
936	0.044
937	0.044
937	0.044
938	0.044
938	0.044
938	0.044
939	0.044
939	0.044
940	0.044
940	0.044
941	0.044
941	0.044
941	0.044
942	0.044
942	0.044
943	0.043
943	0.043
944	0.042
944	0.042
944	0.041
945	0.041
945	0.041
946	0.04
946	0.039
946	0.039
947	0.039
947	0.04
948	0.04
948	0.04
949	0.041
949	0.041
949	0.042
950	0.043
950	0.043
951	0.044
951	0.044
952	0.045
952	0.046
952	0.046
953	0.047
953	0.047
954	0.048
954	0.049
955	0.049
955	0.05
955	0.05
956	0.05
956	0.051
957	0.051
957	0.05
957	0.051
958	0.051
958	0.052
959	0.052
959	0.052
960	0.052
960	0.052
960	0.052
961	0.052
961	0.052
962	0.051
962	0.051
963	0.051
963	0.05
963	0.049
964	0.049
964	0.048
965	0.048
965	0.048
966	0.048
966	0.048
966	0.047
967	0.047
967	0.047
968	0.047
968	0.046
968	0.046
969	0.046
969	0.045
970	0.045
970	0.045
971	0.045
971	0.045
971	0.044
972	0.044
972	0.044
973	0.043
973	0.043
974	0.042
974	0.041
974	0.041
975	0.04
975	0.039
976	0.038
976	0.037
976	0.037
977	0.037
977	0.037
978	0.036
978	0.036
979	0.036
979	0.036
979	0.036
980	0.037
980	0.037
981	0.038
981	0.038
982	0.038
982	0.038
982	0.037
983	0.037
983	0.037
984	0.037
984	0.036
984	0.036
985	0.037
985	0.037
986	0.037
986	0.037
987	0.038
987	0.039
987	0.039
988	0.04
988	0.04
989	0.04
989	0.04
990	0.04
990	0.039
990	0.039
991	0.038
991	0.038
992	0.037
992	0.037
992	0.037
993	0.036
993	0.036
994	0.036
994	0.036
995	0.035
995	0.035
995	0.035
996	0.035
996	0.035
997	0.036
997	0.036
997	0.036
998	0.036
998	0.036
999	0.037
999	0.037
1000	0.037
1000	0.037
1000	0.037
1001	0.037
1001	0.036
1002	0.036
1002	0.035
1003	0.035
1003	0.035
1003	0.034
1004	0.033
1004	0.033
1005	0.032
1005	0.031
1005	0.03
1006	0.029
1006	0.028
1007	0.028
1007	0.027
1008	0.027
1008	0.026
1008	0.026
1009	0.026
1009	0.026
1010	0.027
1010	0.027
1010	0.026
1011	0.026
1011	0.025
1012	0.024
1012	0.024
1013	0.022
1013	0.021
1013	0.02
1014	0.019
1014	0.018
1015	0.017
1015	0.017
1016	0.016
1016	0.016
1016	0.015
1017	0.015
1017	0.015
1018	0.015
1018	0.015
1018	0.014
1019	0.014
1019	0.013
1020	0.013
1020	0.012
1021	0.011
1021	0.01
1021	0.009
1022	0.008
1022	0.007
1023	0.006
1023	0.006
1023	0.005
1024	0.005
1024	0.005
1025	0.005
1025	0.005
1026	0.006
1026	0.006
1026	0.007
1027	0.007
1027	0.008
1028	0.008
1028	0.008
1028	0.008
1029	0.008
1029	0.008
1030	0.007
1030	0.007
1031	0.007
1031	0.008
1031	0.008
1032	0.008
1032	0.008
1033	0.009
1033	0.01
1033	0.011
1034	0.011
1034	0.011
1035	0.012
1035	0.012
1036	0.012
1036	0.012
1036	0.012
1037	0.011
1037	0.011
1038	0.011
1038	0.01
1039	0.01
1039	0.011
1039	0.011
1040	0.011
1040	0.011
1041	0.012
1041	0.012
1041	0.013
1042	0.013
1042	0.013
1043	0.014
1043	0.014
1044	0.014
1044	0.014
1044	0.013
1045	0.014
1045	0.013
1046	0.013
1046	0.014
1046	0.014
1047	0.014
1047	0.015
1048	0.015
1048	0.015
1049	0.016
1049	0.016
1049	0.016
1050	0.016
1050	0.017
1051	0.017
1051	0.017
1051	0.017
1052	0.017
1052	0.017
1053	0.018
1053	0.018
1053	0.017
1054	0.017
1054	0.017
1055	0.016
1055	0.016
1056	0.015
1056	0.014
1056	0.013
1057	0.012
1057	0.011
1058	0.01
1058	0.01
1058	0.009
1059	0.009
1059	0.008
1060	0.008
1060	0.008
1061	0.008
1061	0.009
1061	0.009
1062	0.009
1062	0.009
1063	0.009
1063	0.009
1063	0.009
1064	0.009
1064	0.009
1065	0.009
1065	0.009
1066	0.008
1066	0.008
1066	0.007
1067	0.007
1067	0.007
1068	0.006
1068	0.006
1068	0.005
1069	0.005
1069	0.004
1070	0.004
1070	0.005
1071	0.004
1071	0.004
1071	0.004
1072	0.004
1072	0.004
1073	0.003
1073	0.004
1073	0.003
1074	0.003
1074	0.003
1075	0.003
1075	0.002
1076	0.002
1076	0.002
1076	0.001
1077	0.001
1077	0.001
1078	0
1078	-0.001
1078	-0.001
1079	-0.002
1079	-0.002
1080	-0.003
1080	-0.003
1080	-0.004
1081	-0.004
1081	-0.005
1082	-0.005
1082	-0.006
1083	-0.006
1083	-0.007
1083	-0.007
1084	-0.008
1084	-0.008
1085	-0.008
1085	-0.009
1085	-0.008
1086	-0.009
1086	-0.009
1087	-0.009
1087	-0.008
1088	-0.008
1088	-0.008
1088	-0.008
1089	-0.008
1089	-0.008
1090	-0.008
1090	-0.008
1090	-0.008
1091	-0.008
1091	-0.008
1092	-0.009
1092	-0.008
1092	-0.008
1093	-0.009
1093	-0.009
1094	-0.009
1094	-0.009
1095	-0.009
1095	-0.009
1095	-0.008
1096	-0.008
1096	-0.008
1097	-0.008
1097	-0.008
1097	-0.008
1098	-0.009
1098	-0.009
1099	-0.008
1099	-0.008
1100	-0.009
1100	-0.01
1100	-0.011
1101	-0.012
1101	-0.014
1102	-0.014
1102	-0.015
1102	-0.014
1103	-0.015
1103	-0.016
1104	-0.017
1104	-0.019
1104	-0.02
1105	-0.02
1105	-0.021
1106	-0.022
1106	-0.023
1107	-0.025
1107	-0.027
1107	-0.029
1108	-0.031
1108	-0.032
1109	-0.032
1109	-0.035
1109	-0.036
1110	-0.036
1110	-0.038
1111	-0.039
1111	-0.039
