Data from 17C_3.4A_30min_2sec_int_Absorbance__263__00263.txt Node

Date: Mon Jun 19 16:15:45 CEST 2023
User: Marek
Spectrometer: MAYP115816
Trigger mode: 0
Integration Time (sec): 2.500000E-1
Scans to average: 10
Electric dark correction enabled: true
Nonlinearity correction enabled: true
Boxcar width: 5
XAxis mode: Wavelengths
Number of Pixels in Spectrum: 2068
>>>>>Begin Spectral Data<<<<<
199	-0.427
199	-0.435
200	-0.34
200	-0.296
201	-0.265
201	-0.26
202	-0.247
202	-0.236
203	-0.229
203	-0.227
204	-0.216
204	-0.207
205	-0.186
205	-0.186
205	-0.183
206	-0.182
206	-0.184
207	-0.175
207	-0.178
208	-0.18
208	-0.183
209	-0.18
209	-0.179
210	-0.186
210	-0.19
211	-0.192
211	-0.196
212	-0.194
212	-0.202
213	-0.198
213	-0.199
213	-0.198
214	-0.192
214	-0.192
215	-0.191
215	-0.194
216	-0.198
216	-0.204
217	-0.203
217	-0.205
218	-0.211
218	-0.209
219	-0.21
219	-0.222
220	-0.226
220	-0.228
221	-0.228
221	-0.228
221	-0.221
222	-0.217
222	-0.213
223	-0.218
223	-0.219
224	-0.225
224	-0.224
225	-0.219
225	-0.218
226	-0.218
226	-0.22
227	-0.228
227	-0.234
228	-0.24
228	-0.237
229	-0.24
229	-0.232
229	-0.229
230	-0.233
230	-0.234
231	-0.233
231	-0.224
232	-0.215
232	-0.218
233	-0.211
233	-0.212
234	-0.205
234	-0.205
235	-0.205
235	-0.209
236	-0.209
236	-0.212
236	-0.219
237	-0.224
237	-0.22
238	-0.229
238	-0.225
239	-0.228
239	-0.234
240	-0.234
240	-0.231
241	-0.232
241	-0.233
242	-0.237
242	-0.236
243	-0.234
243	-0.229
243	-0.239
244	-0.241
244	-0.243
245	-0.251
245	-0.251
246	-0.256
246	-0.258
247	-0.258
247	-0.26
248	-0.263
248	-0.264
249	-0.265
249	-0.272
250	-0.268
250	-0.266
250	-0.27
251	-0.27
251	-0.269
252	-0.271
252	-0.265
253	-0.272
253	-0.281
254	-0.28
254	-0.279
255	-0.285
255	-0.278
256	-0.271
256	-0.279
257	-0.276
257	-0.271
258	-0.287
258	-0.281
258	-0.275
259	-0.272
259	-0.276
260	-0.272
260	-0.279
261	-0.289
261	-0.282
262	-0.279
262	-0.281
263	-0.267
263	-0.265
264	-0.264
264	-0.273
265	-0.27
265	-0.278
265	-0.286
266	-0.285
266	-0.282
267	-0.294
267	-0.302
268	-0.314
268	-0.322
269	-0.319
269	-0.312
270	-0.315
270	-0.319
271	-0.314
271	-0.315
272	-0.318
272	-0.31
272	-0.304
273	-0.303
273	-0.312
274	-0.316
274	-0.319
275	-0.319
275	-0.312
276	-0.315
276	-0.31
277	-0.315
277	-0.33
278	-0.336
278	-0.329
278	-0.322
279	-0.323
279	-0.331
280	-0.326
280	-0.329
281	-0.321
281	-0.328
282	-0.322
282	-0.327
283	-0.318
283	-0.319
284	-0.314
284	-0.306
285	-0.305
285	-0.305
285	-0.3
286	-0.308
286	-0.299
287	-0.296
287	-0.283
288	-0.277
288	-0.285
289	-0.293
289	-0.298
290	-0.288
290	-0.29
291	-0.286
291	-0.279
292	-0.283
292	-0.287
292	-0.285
293	-0.292
293	-0.281
294	-0.275
294	-0.273
295	-0.267
295	-0.262
296	-0.26
296	-0.259
297	-0.254
297	-0.242
298	-0.236
298	-0.24
298	-0.234
299	-0.225
299	-0.224
300	-0.221
300	-0.216
301	-0.214
301	-0.213
302	-0.226
302	-0.228
303	-0.22
303	-0.206
304	-0.207
304	-0.205
305	-0.209
305	-0.204
305	-0.202
306	-0.188
306	-0.186
307	-0.171
307	-0.172
308	-0.184
308	-0.185
309	-0.19
309	-0.183
310	-0.169
310	-0.172
311	-0.17
311	-0.177
311	-0.172
312	-0.169
312	-0.167
313	-0.154
313	-0.154
314	-0.151
314	-0.152
315	-0.153
315	-0.153
316	-0.148
316	-0.145
317	-0.138
317	-0.137
318	-0.129
318	-0.128
318	-0.128
319	-0.117
319	-0.112
320	-0.107
320	-0.108
321	-0.113
321	-0.111
322	-0.109
322	-0.102
323	-0.103
323	-0.1
324	-0.092
324	-0.088
324	-0.085
325	-0.079
325	-0.066
326	-0.05
326	-0.038
327	-0.025
327	-0.01
328	0.009
328	0.026
329	0.043
329	0.061
330	0.08
330	0.104
330	0.122
331	0.14
331	0.159
332	0.176
332	0.189
333	0.201
333	0.214
334	0.225
334	0.235
335	0.243
335	0.252
336	0.259
336	0.266
336	0.271
337	0.277
337	0.281
338	0.286
338	0.289
339	0.293
339	0.295
340	0.298
340	0.3
341	0.301
341	0.303
342	0.303
342	0.304
342	0.306
343	0.307
343	0.309
344	0.31
344	0.31
345	0.311
345	0.311
346	0.312
346	0.312
347	0.312
347	0.312
348	0.312
348	0.312
348	0.312
349	0.312
349	0.312
350	0.312
350	0.311
351	0.311
351	0.311
352	0.311
352	0.311
353	0.31
353	0.31
354	0.31
354	0.309
354	0.309
355	0.309
355	0.309
356	0.309
356	0.308
357	0.308
357	0.307
358	0.307
358	0.307
359	0.306
359	0.306
360	0.306
360	0.306
360	0.306
361	0.305
361	0.305
362	0.305
362	0.305
363	0.305
363	0.305
364	0.304
364	0.304
365	0.304
365	0.304
366	0.304
366	0.303
366	0.303
367	0.303
367	0.303
368	0.303
368	0.302
369	0.302
369	0.302
370	0.301
370	0.301
371	0.301
371	0.301
372	0.3
372	0.3
372	0.3
373	0.3
373	0.299
374	0.299
374	0.299
375	0.298
375	0.298
376	0.298
376	0.298
377	0.298
377	0.297
378	0.297
378	0.297
378	0.297
379	0.297
379	0.297
380	0.296
380	0.296
381	0.296
381	0.295
382	0.295
382	0.295
383	0.295
383	0.294
383	0.294
384	0.294
384	0.293
385	0.293
385	0.293
386	0.293
386	0.293
387	0.293
387	0.293
388	0.292
388	0.292
389	0.292
389	0.292
389	0.291
390	0.291
390	0.291
391	0.291
391	0.291
392	0.29
392	0.29
393	0.29
393	0.29
394	0.289
394	0.289
394	0.289
395	0.288
395	0.288
396	0.288
396	0.287
397	0.287
397	0.287
398	0.287
398	0.287
399	0.286
399	0.286
400	0.286
400	0.285
400	0.285
401	0.285
401	0.284
402	0.284
402	0.284
403	0.283
403	0.283
404	0.283
404	0.282
405	0.282
405	0.282
405	0.282
406	0.282
406	0.281
407	0.281
407	0.281
408	0.281
408	0.281
409	0.281
409	0.28
410	0.28
410	0.28
411	0.28
411	0.28
411	0.28
412	0.28
412	0.28
413	0.279
413	0.279
414	0.279
414	0.279
415	0.279
415	0.279
416	0.278
416	0.278
416	0.278
417	0.278
417	0.278
418	0.277
418	0.277
419	0.277
419	0.277
420	0.277
420	0.277
421	0.277
421	0.277
421	0.277
422	0.276
422	0.276
423	0.276
423	0.276
424	0.276
424	0.276
425	0.276
425	0.275
426	0.275
426	0.275
427	0.275
427	0.274
427	0.274
428	0.274
428	0.274
429	0.274
429	0.274
430	0.274
430	0.274
431	0.274
431	0.273
432	0.273
432	0.273
432	0.273
433	0.273
433	0.272
434	0.272
434	0.272
435	0.272
435	0.272
436	0.272
436	0.272
437	0.272
437	0.272
437	0.272
438	0.272
438	0.272
439	0.272
439	0.271
440	0.271
440	0.271
441	0.271
441	0.27
442	0.27
442	0.27
442	0.269
443	0.269
443	0.269
444	0.269
444	0.269
445	0.269
445	0.269
446	0.27
446	0.27
447	0.27
447	0.27
447	0.27
448	0.27
448	0.27
449	0.27
449	0.27
450	0.271
450	0.271
451	0.271
451	0.271
452	0.271
452	0.271
452	0.271
453	0.271
453	0.271
454	0.271
454	0.271
455	0.271
455	0.271
456	0.271
456	0.271
457	0.271
457	0.271
458	0.271
458	0.271
458	0.272
459	0.272
459	0.272
460	0.272
460	0.272
461	0.272
461	0.272
462	0.273
462	0.273
463	0.273
463	0.273
463	0.274
464	0.274
464	0.274
465	0.274
465	0.274
466	0.275
466	0.275
467	0.275
467	0.276
467	0.276
468	0.277
468	0.277
469	0.278
469	0.278
470	0.279
470	0.279
471	0.28
471	0.28
472	0.28
472	0.28
472	0.281
473	0.281
473	0.282
474	0.282
474	0.283
475	0.283
475	0.284
476	0.284
476	0.285
477	0.285
477	0.286
477	0.286
478	0.287
478	0.288
479	0.289
479	0.29
480	0.29
480	0.291
481	0.292
481	0.293
482	0.294
482	0.295
482	0.295
483	0.296
483	0.297
484	0.297
484	0.298
485	0.299
485	0.299
486	0.3
486	0.301
487	0.302
487	0.303
487	0.304
488	0.306
488	0.307
489	0.309
489	0.311
490	0.313
490	0.314
491	0.316
491	0.317
492	0.319
492	0.321
492	0.322
493	0.323
493	0.325
494	0.327
494	0.328
495	0.33
495	0.331
496	0.333
496	0.335
496	0.337
497	0.339
497	0.341
498	0.343
498	0.345
499	0.348
499	0.35
500	0.352
500	0.355
501	0.357
501	0.359
501	0.361
502	0.363
502	0.364
503	0.366
503	0.368
504	0.37
504	0.373
505	0.375
505	0.377
506	0.38
506	0.382
506	0.384
507	0.386
507	0.389
508	0.391
508	0.394
509	0.396
509	0.399
510	0.401
510	0.403
511	0.406
511	0.408
511	0.41
512	0.412
512	0.414
513	0.416
513	0.418
514	0.42
514	0.423
515	0.425
515	0.427
515	0.429
516	0.43
516	0.432
517	0.434
517	0.436
518	0.438
518	0.44
519	0.442
519	0.443
520	0.445
520	0.447
520	0.448
521	0.45
521	0.452
522	0.453
522	0.455
523	0.456
523	0.457
524	0.458
524	0.459
524	0.46
525	0.461
525	0.462
526	0.462
526	0.463
527	0.463
527	0.464
528	0.464
528	0.465
529	0.466
529	0.466
529	0.466
530	0.466
530	0.466
531	0.466
531	0.466
532	0.466
532	0.465
533	0.465
533	0.465
533	0.464
534	0.464
534	0.463
535	0.463
535	0.462
536	0.462
536	0.461
537	0.46
537	0.459
538	0.458
538	0.457
538	0.456
539	0.455
539	0.454
540	0.452
540	0.451
541	0.449
541	0.448
542	0.446
542	0.445
542	0.443
543	0.441
543	0.44
544	0.438
544	0.436
545	0.435
545	0.433
546	0.432
546	0.43
547	0.428
547	0.427
547	0.426
548	0.424
548	0.422
549	0.42
549	0.419
550	0.417
550	0.415
551	0.413
551	0.411
551	0.409
552	0.408
552	0.406
553	0.404
553	0.403
554	0.401
554	0.399
555	0.397
555	0.395
556	0.394
556	0.392
556	0.39
557	0.388
557	0.387
558	0.385
558	0.383
559	0.38
559	0.378
560	0.377
560	0.375
560	0.374
561	0.372
561	0.37
562	0.368
562	0.366
563	0.364
563	0.363
564	0.361
564	0.359
564	0.358
565	0.356
565	0.354
566	0.352
566	0.35
567	0.348
567	0.345
568	0.343
568	0.341
568	0.339
569	0.337
569	0.335
570	0.333
570	0.331
571	0.33
571	0.328
572	0.326
572	0.325
573	0.323
573	0.321
573	0.32
574	0.318
574	0.317
575	0.315
575	0.314
576	0.313
576	0.311
577	0.31
577	0.309
577	0.309
578	0.308
578	0.307
579	0.306
579	0.305
580	0.303
580	0.302
581	0.3
581	0.299
581	0.298
582	0.297
582	0.296
583	0.295
583	0.293
584	0.292
584	0.291
585	0.29
585	0.289
585	0.288
586	0.287
586	0.286
587	0.286
587	0.285
588	0.284
588	0.283
589	0.283
589	0.282
590	0.281
590	0.281
590	0.28
591	0.279
591	0.277
592	0.276
592	0.275
593	0.274
593	0.273
594	0.272
594	0.271
594	0.27
595	0.27
595	0.269
596	0.269
596	0.268
597	0.268
597	0.267
598	0.266
598	0.265
598	0.264
599	0.264
599	0.263
600	0.262
600	0.261
601	0.26
601	0.259
602	0.257
602	0.257
602	0.256
603	0.256
603	0.255
604	0.254
604	0.254
605	0.254
605	0.253
606	0.252
606	0.252
606	0.251
607	0.25
607	0.249
608	0.248
608	0.247
609	0.247
609	0.246
610	0.245
610	0.245
610	0.244
611	0.244
611	0.244
612	0.243
612	0.243
613	0.242
613	0.242
614	0.241
614	0.239
614	0.238
615	0.237
615	0.237
616	0.235
616	0.234
617	0.233
617	0.232
618	0.231
618	0.23
618	0.229
619	0.229
619	0.229
620	0.228
620	0.227
621	0.227
621	0.226
622	0.225
622	0.224
622	0.223
623	0.223
623	0.222
624	0.221
624	0.221
625	0.22
625	0.219
626	0.219
626	0.218
626	0.217
627	0.217
627	0.216
628	0.214
628	0.213
629	0.211
629	0.21
630	0.208
630	0.207
630	0.205
631	0.203
631	0.201
632	0.199
632	0.197
633	0.195
633	0.192
634	0.19
634	0.187
634	0.184
635	0.182
635	0.178
636	0.175
636	0.172
637	0.168
637	0.164
638	0.16
638	0.157
638	0.153
639	0.148
639	0.144
640	0.14
640	0.136
641	0.132
641	0.128
642	0.124
642	0.119
642	0.115
643	0.111
643	0.106
644	0.102
644	0.097
645	0.092
645	0.087
646	0.081
646	0.076
646	0.07
647	0.065
647	0.059
648	0.053
648	0.048
649	0.041
649	0.035
650	0.029
650	0.023
650	0.017
651	0.008
651	-0.001
652	-0.013
652	-0.024
653	-0.035
653	-0.044
653	-0.041
654	-0.024
654	-0.014
655	-0.015
655	-0.019
656	-0.022
656	-0.026
657	-0.028
657	-0.031
657	-0.035
658	-0.038
658	-0.059
659	-0.126
659	-0.21
660	-0.249
660	-0.272
661	-0.298
661	-0.326
661	-0.36
662	-0.393
662	-0.429
663	-0.472
663	-0.518
664	-0.566
664	-0.621
665	-0.676
665	-0.739
665	-0.799
666	-0.862
666	-0.929
667	-0.999
667	-1.069
668	-1.146
668	-1.224
669	-1.304
669	-1.386
669	-1.476
670	-1.578
670	-1.732
671	-1.964
671	-2.136
672	-2.318
672	-2.483
672	-2.596
673	-2.676
673	-2.728
674	-2.751
674	-2.765
675	-2.785
675	-2.909
676	-3.064
676	-3.006
676	-2.769
677	-2.544
677	-2.344
678	-2.081
678	-1.734
679	-1.565
679	-1.456
680	-1.368
680	-1.291
680	-1.225
681	-1.182
681	-1.123
682	-1.081
682	-1.043
683	-1.005
683	-0.983
684	-0.959
684	-0.936
684	-0.911
685	-0.883
685	-0.855
686	-0.828
686	-0.806
687	-0.777
687	-0.761
687	-0.739
688	-0.71
688	-0.685
689	-0.66
689	-0.642
690	-0.62
690	-0.605
691	-0.596
691	-0.598
691	-0.61
692	-0.598
692	-0.588
693	-0.581
693	-0.587
694	-0.58
694	-0.569
695	-0.571
695	-0.567
695	-0.547
696	-0.543
696	-0.519
697	-0.517
697	-0.528
698	-0.528
698	-0.515
698	-0.521
699	-0.524
699	-0.521
700	-0.511
700	-0.524
701	-0.522
701	-0.526
702	-0.521
702	-0.506
702	-0.499
703	-0.493
703	-0.487
704	-0.483
704	-0.482
705	-0.491
705	-0.483
705	-0.471
706	-0.472
706	-0.469
707	-0.472
707	-0.468
708	-0.462
708	-0.453
709	-0.453
709	-0.452
709	-0.442
710	-0.447
710	-0.453
711	-0.443
711	-0.443
712	-0.444
712	-0.453
713	-0.451
713	-0.458
713	-0.448
714	-0.445
714	-0.45
715	-0.441
715	-0.428
716	-0.433
716	-0.434
716	-0.428
717	-0.431
717	-0.437
718	-0.43
718	-0.433
719	-0.438
719	-0.434
720	-0.428
720	-0.437
720	-0.432
721	-0.422
721	-0.423
722	-0.406
722	-0.397
723	-0.393
723	-0.393
723	-0.382
724	-0.386
724	-0.393
725	-0.394
725	-0.399
726	-0.412
726	-0.413
727	-0.42
727	-0.43
727	-0.435
728	-0.436
728	-0.441
729	-0.443
729	-0.446
730	-0.45
730	-0.444
730	-0.433
731	-0.419
731	-0.424
732	-0.432
732	-0.435
733	-0.433
733	-0.434
734	-0.427
734	-0.423
734	-0.413
735	-0.421
735	-0.421
736	-0.428
736	-0.418
737	-0.406
737	-0.407
737	-0.416
738	-0.411
738	-0.412
739	-0.409
739	-0.418
740	-0.408
740	-0.404
741	-0.401
741	-0.4
741	-0.402
742	-0.396
742	-0.391
743	-0.401
743	-0.404
744	-0.404
744	-0.394
744	-0.393
745	-0.4
745	-0.395
746	-0.393
746	-0.392
747	-0.4
747	-0.391
748	-0.38
748	-0.385
748	-0.383
749	-0.382
749	-0.384
750	-0.376
750	-0.377
751	-0.384
751	-0.392
751	-0.394
752	-0.398
752	-0.402
753	-0.398
753	-0.401
754	-0.407
754	-0.402
754	-0.413
755	-0.428
755	-0.432
756	-0.425
756	-0.417
757	-0.419
757	-0.418
758	-0.418
758	-0.411
758	-0.41
759	-0.413
759	-0.4
760	-0.395
760	-0.393
761	-0.402
761	-0.4
761	-0.398
762	-0.403
762	-0.407
763	-0.416
763	-0.417
764	-0.413
764	-0.418
764	-0.423
765	-0.413
765	-0.398
766	-0.409
766	-0.418
767	-0.43
767	-0.423
768	-0.416
768	-0.423
768	-0.432
769	-0.447
769	-0.447
770	-0.451
770	-0.463
771	-0.455
771	-0.456
771	-0.457
772	-0.46
772	-0.455
773	-0.454
773	-0.448
774	-0.449
774	-0.451
775	-0.454
775	-0.453
775	-0.458
776	-0.453
776	-0.445
777	-0.454
777	-0.478
778	-0.477
778	-0.493
778	-0.482
779	-0.498
779	-0.506
780	-0.515
780	-0.517
781	-0.528
781	-0.526
781	-0.541
782	-0.541
782	-0.544
783	-0.537
783	-0.535
784	-0.521
784	-0.509
784	-0.52
785	-0.525
785	-0.515
786	-0.52
786	-0.497
787	-0.48
787	-0.473
788	-0.472
788	-0.476
788	-0.481
789	-0.482
789	-0.461
790	-0.446
790	-0.446
791	-0.438
791	-0.453
791	-0.457
792	-0.455
792	-0.435
793	-0.427
793	-0.408
794	-0.412
794	-0.407
794	-0.414
795	-0.411
795	-0.409
796	-0.396
796	-0.402
797	-0.399
797	-0.405
797	-0.411
798	-0.425
798	-0.417
799	-0.424
799	-0.41
800	-0.414
800	-0.407
801	-0.409
801	-0.398
801	-0.405
802	-0.418
802	-0.423
803	-0.42
803	-0.431
804	-0.427
804	-0.437
804	-0.426
805	-0.431
805	-0.425
806	-0.426
806	-0.412
807	-0.409
807	-0.393
807	-0.381
808	-0.369
808	-0.366
809	-0.358
809	-0.37
810	-0.367
810	-0.359
810	-0.358
811	-0.368
811	-0.358
812	-0.352
812	-0.36
813	-0.37
813	-0.366
813	-0.367
814	-0.371
814	-0.376
815	-0.38
815	-0.385
816	-0.375
816	-0.382
817	-0.396
817	-0.408
817	-0.419
818	-0.426
818	-0.43
819	-0.414
819	-0.413
820	-0.425
820	-0.423
820	-0.432
821	-0.427
821	-0.413
822	-0.386
822	-0.363
823	-0.359
823	-0.363
823	-0.366
824	-0.361
824	-0.357
825	-0.351
825	-0.333
826	-0.33
826	-0.337
826	-0.349
827	-0.346
827	-0.343
828	-0.324
828	-0.319
829	-0.317
829	-0.307
829	-0.301
830	-0.312
830	-0.312
831	-0.304
831	-0.297
832	-0.297
832	-0.295
832	-0.304
833	-0.301
833	-0.3
834	-0.299
834	-0.302
835	-0.295
835	-0.291
835	-0.288
836	-0.285
836	-0.284
837	-0.279
837	-0.272
838	-0.266
838	-0.257
839	-0.247
839	-0.243
839	-0.233
840	-0.223
840	-0.224
841	-0.212
841	-0.206
842	-0.2
842	-0.195
842	-0.191
843	-0.187
843	-0.186
844	-0.178
844	-0.175
845	-0.173
845	-0.166
845	-0.157
846	-0.147
846	-0.139
847	-0.131
847	-0.125
848	-0.119
848	-0.114
848	-0.103
849	-0.099
849	-0.09
850	-0.082
850	-0.082
851	-0.08
851	-0.076
851	-0.072
852	-0.062
852	-0.055
853	-0.05
853	-0.048
854	-0.041
854	-0.034
854	-0.029
855	-0.022
855	-0.019
856	-0.013
856	-0.008
857	-0.006
857	-0.001
857	0.005
858	0.009
858	0.011
859	0.013
859	0.019
860	0.023
860	0.029
860	0.032
861	0.034
861	0.039
862	0.041
862	0.043
863	0.045
863	0.049
863	0.051
864	0.052
864	0.053
865	0.056
865	0.058
866	0.059
866	0.06
866	0.061
867	0.063
867	0.065
868	0.066
868	0.068
869	0.069
869	0.071
869	0.071
870	0.072
870	0.073
871	0.074
871	0.074
872	0.075
872	0.075
872	0.075
873	0.075
873	0.075
874	0.075
874	0.075
875	0.075
875	0.074
875	0.074
876	0.073
876	0.073
877	0.072
877	0.072
878	0.071
878	0.071
878	0.07
879	0.068
879	0.068
880	0.067
880	0.067
881	0.067
881	0.067
881	0.066
882	0.066
882	0.065
883	0.064
883	0.063
884	0.063
884	0.062
884	0.061
885	0.061
885	0.06
886	0.06
886	0.06
887	0.06
887	0.06
887	0.06
888	0.061
888	0.061
889	0.062
889	0.062
890	0.063
890	0.064
890	0.064
891	0.064
891	0.065
892	0.065
892	0.065
893	0.065
893	0.065
893	0.065
894	0.064
894	0.063
895	0.062
895	0.062
895	0.061
896	0.06
896	0.059
897	0.058
897	0.057
898	0.056
898	0.055
898	0.055
899	0.055
899	0.055
900	0.055
900	0.055
901	0.056
901	0.056
901	0.056
902	0.056
902	0.056
903	0.056
903	0.056
904	0.056
904	0.056
904	0.056
905	0.056
905	0.056
906	0.056
906	0.056
907	0.055
907	0.054
907	0.053
908	0.053
908	0.052
909	0.051
909	0.05
910	0.05
910	0.049
910	0.048
911	0.048
911	0.048
912	0.048
912	0.048
913	0.049
913	0.049
913	0.05
914	0.051
914	0.052
915	0.053
915	0.053
916	0.054
916	0.055
916	0.055
917	0.055
917	0.056
918	0.056
918	0.056
918	0.055
919	0.055
919	0.055
920	0.055
920	0.055
921	0.056
921	0.056
921	0.056
922	0.057
922	0.057
923	0.057
923	0.058
924	0.059
924	0.059
924	0.059
925	0.059
925	0.058
926	0.058
926	0.057
927	0.057
927	0.056
927	0.056
928	0.055
928	0.054
929	0.054
929	0.053
930	0.053
930	0.053
930	0.053
931	0.053
931	0.054
932	0.054
932	0.054
933	0.054
933	0.054
933	0.053
934	0.052
934	0.052
935	0.051
935	0.051
935	0.05
936	0.049
936	0.048
937	0.048
937	0.048
938	0.047
938	0.047
938	0.047
939	0.048
939	0.048
940	0.048
940	0.047
941	0.047
941	0.047
941	0.047
942	0.047
942	0.047
943	0.047
943	0.046
944	0.046
944	0.045
944	0.045
945	0.044
945	0.044
946	0.043
946	0.042
946	0.042
947	0.042
947	0.043
948	0.043
948	0.044
949	0.044
949	0.044
949	0.045
950	0.045
950	0.046
951	0.047
951	0.047
952	0.048
952	0.049
952	0.049
953	0.049
953	0.05
954	0.05
954	0.051
955	0.052
955	0.053
955	0.053
956	0.054
956	0.054
957	0.054
957	0.054
957	0.055
958	0.055
958	0.055
959	0.056
959	0.056
960	0.056
960	0.056
960	0.056
961	0.056
961	0.055
962	0.055
962	0.054
963	0.054
963	0.053
963	0.053
964	0.052
964	0.052
965	0.052
965	0.051
966	0.051
966	0.05
966	0.05
967	0.05
967	0.049
968	0.049
968	0.049
968	0.048
969	0.048
969	0.048
970	0.047
970	0.048
971	0.047
971	0.048
971	0.047
972	0.047
972	0.047
973	0.046
973	0.046
974	0.045
974	0.045
974	0.044
975	0.044
975	0.043
976	0.042
976	0.041
976	0.041
977	0.04
977	0.04
978	0.04
978	0.04
979	0.04
979	0.04
979	0.04
980	0.041
980	0.041
981	0.042
981	0.042
982	0.042
982	0.042
982	0.042
983	0.041
983	0.041
984	0.041
984	0.041
984	0.041
985	0.041
985	0.041
986	0.041
986	0.041
987	0.042
987	0.043
987	0.043
988	0.044
988	0.044
989	0.044
989	0.044
990	0.044
990	0.043
990	0.043
991	0.042
991	0.042
992	0.041
992	0.041
992	0.04
993	0.04
993	0.04
994	0.039
994	0.039
995	0.039
995	0.038
995	0.038
996	0.038
996	0.038
997	0.038
997	0.038
997	0.038
998	0.038
998	0.038
999	0.039
999	0.039
1000	0.039
1000	0.039
1000	0.039
1001	0.039
1001	0.039
1002	0.039
1002	0.039
1003	0.038
1003	0.038
1003	0.037
1004	0.037
1004	0.036
1005	0.035
1005	0.034
1005	0.033
1006	0.032
1006	0.032
1007	0.031
1007	0.03
1008	0.03
1008	0.03
1008	0.029
1009	0.029
1009	0.03
1010	0.03
1010	0.03
1010	0.03
1011	0.03
1011	0.029
1012	0.028
1012	0.028
1013	0.026
1013	0.025
1013	0.024
1014	0.023
1014	0.022
1015	0.021
1015	0.02
1016	0.019
1016	0.019
1016	0.018
1017	0.018
1017	0.018
1018	0.018
1018	0.018
1018	0.017
1019	0.017
1019	0.016
1020	0.015
1020	0.015
1021	0.014
1021	0.013
1021	0.011
1022	0.01
1022	0.009
1023	0.009
1023	0.009
1023	0.008
1024	0.008
1024	0.008
1025	0.008
1025	0.008
1026	0.009
1026	0.009
1026	0.009
1027	0.01
1027	0.01
1028	0.01
1028	0.011
1028	0.011
1029	0.011
1029	0.011
1030	0.01
1030	0.01
1031	0.01
1031	0.01
1031	0.01
1032	0.01
1032	0.011
1033	0.011
1033	0.012
1033	0.013
1034	0.013
1034	0.014
1035	0.014
1035	0.014
1036	0.014
1036	0.015
1036	0.015
1037	0.014
1037	0.014
1038	0.014
1038	0.013
1039	0.013
1039	0.013
1039	0.013
1040	0.014
1040	0.014
1041	0.014
1041	0.015
1041	0.015
1042	0.016
1042	0.016
1043	0.016
1043	0.016
1044	0.016
1044	0.016
1044	0.016
1045	0.016
1045	0.016
1046	0.015
1046	0.016
1046	0.016
1047	0.016
1047	0.016
1048	0.017
1048	0.017
1049	0.018
1049	0.018
1049	0.018
1050	0.019
1050	0.019
1051	0.019
1051	0.02
1051	0.02
1052	0.021
1052	0.021
1053	0.021
1053	0.021
1053	0.021
1054	0.02
1054	0.02
1055	0.02
1055	0.019
1056	0.018
1056	0.017
1056	0.016
1057	0.015
1057	0.014
1058	0.013
1058	0.013
1058	0.012
1059	0.011
1059	0.01
1060	0.01
1060	0.01
1061	0.01
1061	0.01
1061	0.01
1062	0.01
1062	0.01
1063	0.01
1063	0.011
1063	0.011
1064	0.011
1064	0.011
1065	0.011
1065	0.011
1066	0.01
1066	0.01
1066	0.009
1067	0.009
1067	0.009
1068	0.008
1068	0.008
1068	0.008
1069	0.007
1069	0.007
1070	0.007
1070	0.007
1071	0.007
1071	0.007
1071	0.007
1072	0.007
1072	0.006
1073	0.007
1073	0.006
1073	0.006
1074	0.007
1074	0.007
1075	0.006
1075	0.005
1076	0.005
1076	0.005
1076	0.004
1077	0.004
1077	0.003
1078	0.003
1078	0.002
1078	0.001
1079	0.001
1079	0.001
1080	0
1080	-0
1080	-0.001
1081	-0.001
1081	-0.002
1082	-0.002
1082	-0.003
1083	-0.003
1083	-0.004
1083	-0.004
1084	-0.004
1084	-0.004
1085	-0.005
1085	-0.005
1085	-0.006
1086	-0.006
1086	-0.007
1087	-0.006
1087	-0.006
1088	-0.007
1088	-0.006
1088	-0.007
1089	-0.007
1089	-0.007
1090	-0.007
1090	-0.007
1090	-0.007
1091	-0.007
1091	-0.007
1092	-0.007
1092	-0.006
1092	-0.007
1093	-0.007
1093	-0.006
1094	-0.006
1094	-0.006
1095	-0.007
1095	-0.007
1095	-0.007
1096	-0.007
1096	-0.007
1097	-0.007
1097	-0.007
1097	-0.007
1098	-0.007
1098	-0.007
1099	-0.007
1099	-0.006
1100	-0.007
1100	-0.007
1100	-0.008
1101	-0.009
1101	-0.01
1102	-0.011
1102	-0.013
1102	-0.012
1103	-0.013
1103	-0.014
1104	-0.016
1104	-0.016
1104	-0.018
1105	-0.019
1105	-0.02
1106	-0.023
1106	-0.024
1107	-0.025
1107	-0.028
1107	-0.031
1108	-0.032
1108	-0.033
1109	-0.036
1109	-0.037
1109	-0.037
1110	-0.038
1110	-0.038
1111	-0.041
1111	-0.045
