Data from 17C_3.4A_30min_2sec_int_Absorbance__227__00227.txt Node

Date: Mon Jun 19 16:14:15 CEST 2023
User: Marek
Spectrometer: MAYP115816
Trigger mode: 0
Integration Time (sec): 2.500000E-1
Scans to average: 10
Electric dark correction enabled: true
Nonlinearity correction enabled: true
Boxcar width: 5
XAxis mode: Wavelengths
Number of Pixels in Spectrum: 2068
>>>>>Begin Spectral Data<<<<<
199	-0.445
199	-0.435
200	-0.349
200	-0.304
201	-0.269
201	-0.258
202	-0.241
202	-0.226
203	-0.215
203	-0.214
204	-0.203
204	-0.189
205	-0.171
205	-0.166
205	-0.159
206	-0.162
206	-0.162
207	-0.156
207	-0.16
208	-0.163
208	-0.161
209	-0.156
209	-0.158
210	-0.164
210	-0.173
211	-0.176
211	-0.178
212	-0.179
212	-0.181
213	-0.178
213	-0.178
213	-0.179
214	-0.169
214	-0.169
215	-0.166
215	-0.165
216	-0.168
216	-0.171
217	-0.169
217	-0.176
218	-0.179
218	-0.182
219	-0.185
219	-0.195
220	-0.199
220	-0.204
221	-0.205
221	-0.205
221	-0.202
222	-0.196
222	-0.198
223	-0.203
223	-0.202
224	-0.206
224	-0.208
225	-0.204
225	-0.203
226	-0.206
226	-0.207
227	-0.212
227	-0.223
228	-0.219
228	-0.217
229	-0.217
229	-0.212
229	-0.208
230	-0.213
230	-0.216
231	-0.208
231	-0.206
232	-0.198
232	-0.196
233	-0.191
233	-0.192
234	-0.191
234	-0.189
235	-0.194
235	-0.194
236	-0.193
236	-0.201
236	-0.204
237	-0.212
237	-0.211
238	-0.22
238	-0.218
239	-0.22
239	-0.231
240	-0.229
240	-0.23
241	-0.231
241	-0.227
242	-0.228
242	-0.223
243	-0.22
243	-0.221
243	-0.223
244	-0.22
244	-0.213
245	-0.221
245	-0.218
246	-0.222
246	-0.226
247	-0.227
247	-0.231
248	-0.235
248	-0.231
249	-0.236
249	-0.245
250	-0.246
250	-0.246
250	-0.244
251	-0.24
251	-0.243
252	-0.25
252	-0.238
253	-0.241
253	-0.254
254	-0.251
254	-0.247
255	-0.25
255	-0.247
256	-0.245
256	-0.255
257	-0.246
257	-0.244
258	-0.261
258	-0.257
258	-0.251
259	-0.246
259	-0.254
260	-0.256
260	-0.26
261	-0.268
261	-0.262
262	-0.258
262	-0.256
263	-0.242
263	-0.241
264	-0.238
264	-0.252
265	-0.245
265	-0.25
265	-0.252
266	-0.249
266	-0.242
267	-0.253
267	-0.259
268	-0.272
268	-0.278
269	-0.276
269	-0.268
270	-0.273
270	-0.273
271	-0.271
271	-0.276
272	-0.285
272	-0.283
272	-0.275
273	-0.273
273	-0.28
274	-0.283
274	-0.283
275	-0.279
275	-0.273
276	-0.273
276	-0.27
277	-0.276
277	-0.292
278	-0.3
278	-0.298
278	-0.293
279	-0.296
279	-0.305
280	-0.302
280	-0.302
281	-0.302
281	-0.303
282	-0.295
282	-0.296
283	-0.287
283	-0.286
284	-0.281
284	-0.272
285	-0.271
285	-0.273
285	-0.273
286	-0.277
286	-0.276
287	-0.272
287	-0.258
288	-0.252
288	-0.259
289	-0.271
289	-0.277
290	-0.268
290	-0.269
291	-0.267
291	-0.267
292	-0.267
292	-0.271
292	-0.273
293	-0.275
293	-0.265
294	-0.258
294	-0.251
295	-0.249
295	-0.241
296	-0.236
296	-0.232
297	-0.227
297	-0.213
298	-0.207
298	-0.217
298	-0.21
299	-0.201
299	-0.205
300	-0.199
300	-0.199
301	-0.195
301	-0.191
302	-0.198
302	-0.206
303	-0.199
303	-0.185
304	-0.187
304	-0.187
305	-0.187
305	-0.189
305	-0.189
306	-0.177
306	-0.175
307	-0.164
307	-0.165
308	-0.176
308	-0.176
309	-0.181
309	-0.174
310	-0.162
310	-0.159
311	-0.149
311	-0.155
311	-0.152
312	-0.147
312	-0.145
313	-0.133
313	-0.135
314	-0.127
314	-0.126
315	-0.128
315	-0.126
316	-0.125
316	-0.12
317	-0.114
317	-0.114
318	-0.105
318	-0.104
318	-0.097
319	-0.09
319	-0.087
320	-0.082
320	-0.084
321	-0.089
321	-0.087
322	-0.084
322	-0.078
323	-0.082
323	-0.074
324	-0.07
324	-0.061
324	-0.056
325	-0.045
325	-0.034
326	-0.021
326	-0.014
327	-0.003
327	0.013
328	0.038
328	0.053
329	0.068
329	0.083
330	0.103
330	0.123
330	0.14
331	0.159
331	0.181
332	0.196
332	0.209
333	0.219
333	0.23
334	0.241
334	0.25
335	0.259
335	0.266
336	0.273
336	0.279
336	0.284
337	0.289
337	0.292
338	0.296
338	0.298
339	0.302
339	0.304
340	0.306
340	0.307
341	0.309
341	0.31
342	0.311
342	0.313
342	0.315
343	0.316
343	0.317
344	0.318
344	0.318
345	0.318
345	0.318
346	0.319
346	0.319
347	0.319
347	0.319
348	0.319
348	0.319
348	0.319
349	0.319
349	0.319
350	0.319
350	0.319
351	0.319
351	0.319
352	0.319
352	0.319
353	0.318
353	0.318
354	0.318
354	0.318
354	0.318
355	0.317
355	0.317
356	0.317
356	0.316
357	0.315
357	0.315
358	0.314
358	0.314
359	0.314
359	0.313
360	0.313
360	0.313
360	0.312
361	0.312
361	0.312
362	0.312
362	0.312
363	0.312
363	0.311
364	0.311
364	0.311
365	0.311
365	0.311
366	0.311
366	0.311
366	0.31
367	0.31
367	0.31
368	0.31
368	0.309
369	0.309
369	0.309
370	0.309
370	0.308
371	0.308
371	0.308
372	0.307
372	0.307
372	0.307
373	0.306
373	0.306
374	0.306
374	0.305
375	0.305
375	0.305
376	0.305
376	0.305
377	0.305
377	0.305
378	0.305
378	0.305
378	0.304
379	0.304
379	0.304
380	0.304
380	0.303
381	0.303
381	0.303
382	0.302
382	0.302
383	0.302
383	0.301
383	0.301
384	0.301
384	0.3
385	0.3
385	0.3
386	0.3
386	0.3
387	0.299
387	0.299
388	0.299
388	0.299
389	0.298
389	0.298
389	0.298
390	0.298
390	0.298
391	0.298
391	0.297
392	0.297
392	0.297
393	0.296
393	0.296
394	0.296
394	0.296
394	0.295
395	0.295
395	0.295
396	0.294
396	0.294
397	0.294
397	0.294
398	0.294
398	0.294
399	0.293
399	0.293
400	0.292
400	0.292
400	0.292
401	0.291
401	0.291
402	0.291
402	0.29
403	0.29
403	0.289
404	0.289
404	0.289
405	0.289
405	0.288
405	0.288
406	0.288
406	0.288
407	0.287
407	0.287
408	0.287
408	0.287
409	0.287
409	0.287
410	0.287
410	0.286
411	0.286
411	0.286
411	0.286
412	0.286
412	0.286
413	0.286
413	0.286
414	0.285
414	0.285
415	0.285
415	0.284
416	0.284
416	0.284
416	0.284
417	0.284
417	0.283
418	0.283
418	0.283
419	0.283
419	0.283
420	0.283
420	0.283
421	0.283
421	0.283
421	0.282
422	0.282
422	0.282
423	0.282
423	0.282
424	0.282
424	0.282
425	0.282
425	0.281
426	0.281
426	0.281
427	0.281
427	0.28
427	0.28
428	0.28
428	0.28
429	0.28
429	0.28
430	0.28
430	0.28
431	0.28
431	0.279
432	0.279
432	0.279
432	0.279
433	0.279
433	0.278
434	0.278
434	0.278
435	0.278
435	0.277
436	0.277
436	0.277
437	0.277
437	0.277
437	0.278
438	0.277
438	0.277
439	0.277
439	0.277
440	0.277
440	0.277
441	0.276
441	0.276
442	0.276
442	0.276
442	0.275
443	0.275
443	0.275
444	0.276
444	0.276
445	0.276
445	0.276
446	0.276
446	0.276
447	0.276
447	0.276
447	0.276
448	0.276
448	0.276
449	0.276
449	0.276
450	0.277
450	0.277
451	0.277
451	0.277
452	0.277
452	0.277
452	0.277
453	0.277
453	0.277
454	0.277
454	0.277
455	0.277
455	0.277
456	0.277
456	0.277
457	0.277
457	0.277
458	0.277
458	0.277
458	0.277
459	0.277
459	0.277
460	0.277
460	0.278
461	0.278
461	0.278
462	0.278
462	0.279
463	0.279
463	0.279
463	0.279
464	0.28
464	0.28
465	0.28
465	0.28
466	0.281
466	0.281
467	0.281
467	0.282
467	0.282
468	0.283
468	0.283
469	0.284
469	0.284
470	0.285
470	0.285
471	0.285
471	0.286
472	0.286
472	0.286
472	0.287
473	0.287
473	0.288
474	0.288
474	0.289
475	0.289
475	0.29
476	0.291
476	0.291
477	0.292
477	0.292
477	0.293
478	0.294
478	0.294
479	0.295
479	0.296
480	0.297
480	0.298
481	0.299
481	0.3
482	0.301
482	0.302
482	0.302
483	0.303
483	0.304
484	0.305
484	0.305
485	0.306
485	0.307
486	0.308
486	0.309
487	0.31
487	0.311
487	0.312
488	0.313
488	0.314
489	0.316
489	0.318
490	0.32
490	0.322
491	0.324
491	0.325
492	0.327
492	0.328
492	0.33
493	0.332
493	0.333
494	0.335
494	0.337
495	0.338
495	0.34
496	0.342
496	0.344
496	0.346
497	0.348
497	0.35
498	0.352
498	0.354
499	0.356
499	0.359
500	0.361
500	0.364
501	0.366
501	0.368
501	0.37
502	0.372
502	0.374
503	0.376
503	0.378
504	0.38
504	0.383
505	0.385
505	0.387
506	0.389
506	0.392
506	0.395
507	0.397
507	0.4
508	0.402
508	0.405
509	0.407
509	0.41
510	0.412
510	0.414
511	0.416
511	0.419
511	0.421
512	0.423
512	0.425
513	0.427
513	0.429
514	0.431
514	0.433
515	0.435
515	0.437
515	0.44
516	0.442
516	0.444
517	0.446
517	0.448
518	0.45
518	0.451
519	0.453
519	0.455
520	0.457
520	0.459
520	0.461
521	0.463
521	0.464
522	0.466
522	0.467
523	0.469
523	0.47
524	0.471
524	0.472
524	0.473
525	0.474
525	0.474
526	0.475
526	0.475
527	0.476
527	0.477
528	0.478
528	0.479
529	0.479
529	0.479
529	0.479
530	0.48
530	0.479
531	0.479
531	0.479
532	0.479
532	0.479
533	0.478
533	0.478
533	0.477
534	0.477
534	0.476
535	0.476
535	0.476
536	0.475
536	0.474
537	0.473
537	0.472
538	0.471
538	0.47
538	0.469
539	0.468
539	0.467
540	0.465
540	0.464
541	0.462
541	0.461
542	0.459
542	0.457
542	0.455
543	0.454
543	0.452
544	0.45
544	0.448
545	0.446
545	0.445
546	0.443
546	0.441
547	0.44
547	0.438
547	0.437
548	0.436
548	0.434
549	0.432
549	0.431
550	0.428
550	0.427
551	0.424
551	0.423
551	0.421
552	0.419
552	0.417
553	0.415
553	0.413
554	0.411
554	0.409
555	0.407
555	0.406
556	0.404
556	0.402
556	0.4
557	0.398
557	0.397
558	0.395
558	0.393
559	0.391
559	0.388
560	0.386
560	0.385
560	0.383
561	0.381
561	0.379
562	0.377
562	0.375
563	0.373
563	0.371
564	0.37
564	0.368
564	0.366
565	0.364
565	0.362
566	0.36
566	0.358
567	0.356
567	0.353
568	0.351
568	0.348
568	0.347
569	0.345
569	0.343
570	0.34
570	0.338
571	0.337
571	0.335
572	0.334
572	0.332
573	0.33
573	0.329
573	0.327
574	0.326
574	0.324
575	0.323
575	0.322
576	0.32
576	0.318
577	0.317
577	0.316
577	0.316
578	0.315
578	0.313
579	0.312
579	0.311
580	0.309
580	0.308
581	0.306
581	0.305
581	0.304
582	0.303
582	0.302
583	0.3
583	0.299
584	0.297
584	0.296
585	0.295
585	0.294
585	0.293
586	0.292
586	0.291
587	0.29
587	0.29
588	0.289
588	0.288
589	0.287
589	0.287
590	0.286
590	0.285
590	0.284
591	0.283
591	0.281
592	0.28
592	0.279
593	0.278
593	0.277
594	0.276
594	0.275
594	0.274
595	0.273
595	0.272
596	0.272
596	0.272
597	0.271
597	0.27
598	0.269
598	0.268
598	0.267
599	0.266
599	0.265
600	0.264
600	0.263
601	0.262
601	0.261
602	0.26
602	0.259
602	0.258
603	0.258
603	0.257
604	0.256
604	0.256
605	0.255
605	0.255
606	0.254
606	0.253
606	0.252
607	0.251
607	0.25
608	0.249
608	0.248
609	0.247
609	0.247
610	0.246
610	0.245
610	0.245
611	0.244
611	0.244
612	0.244
612	0.243
613	0.243
613	0.242
614	0.241
614	0.239
614	0.239
615	0.237
615	0.236
616	0.235
616	0.234
617	0.233
617	0.232
618	0.231
618	0.229
618	0.229
619	0.228
619	0.228
620	0.227
620	0.226
621	0.225
621	0.225
622	0.224
622	0.223
622	0.222
623	0.221
623	0.22
624	0.219
624	0.219
625	0.218
625	0.217
626	0.216
626	0.216
626	0.215
627	0.214
627	0.213
628	0.212
628	0.211
629	0.21
629	0.208
630	0.206
630	0.205
630	0.203
631	0.201
631	0.199
632	0.196
632	0.194
633	0.192
633	0.189
634	0.187
634	0.184
634	0.181
635	0.178
635	0.175
636	0.172
636	0.168
637	0.165
637	0.161
638	0.157
638	0.153
638	0.149
639	0.144
639	0.14
640	0.136
640	0.131
641	0.127
641	0.123
642	0.119
642	0.115
642	0.111
643	0.106
643	0.102
644	0.097
644	0.092
645	0.086
645	0.081
646	0.076
646	0.07
646	0.064
647	0.058
647	0.053
648	0.047
648	0.042
649	0.035
649	0.029
650	0.024
650	0.018
650	0.012
651	0.005
651	-0.004
652	-0.016
652	-0.028
653	-0.038
653	-0.048
653	-0.045
654	-0.027
654	-0.017
655	-0.02
655	-0.023
656	-0.026
656	-0.03
657	-0.032
657	-0.034
657	-0.038
658	-0.042
658	-0.063
659	-0.13
659	-0.214
660	-0.251
660	-0.274
661	-0.3
661	-0.328
661	-0.362
662	-0.395
662	-0.431
663	-0.472
663	-0.517
664	-0.565
664	-0.621
665	-0.677
665	-0.741
665	-0.802
666	-0.865
666	-0.932
667	-1.003
667	-1.073
668	-1.15
668	-1.229
669	-1.31
669	-1.393
669	-1.486
670	-1.606
670	-1.798
671	-1.999
671	-2.16
672	-2.337
672	-2.497
672	-2.608
673	-2.687
673	-2.736
674	-2.758
674	-2.772
675	-2.791
675	-2.907
676	-3.062
676	-3.004
676	-2.766
677	-2.54
677	-2.337
678	-2.069
678	-1.724
679	-1.555
679	-1.446
680	-1.359
680	-1.282
680	-1.217
681	-1.174
681	-1.117
682	-1.076
682	-1.038
683	-1
683	-0.978
684	-0.954
684	-0.929
684	-0.903
685	-0.874
685	-0.848
686	-0.819
686	-0.798
687	-0.766
687	-0.747
687	-0.724
688	-0.697
688	-0.671
689	-0.648
689	-0.631
690	-0.608
690	-0.592
691	-0.582
691	-0.586
691	-0.599
692	-0.588
692	-0.575
693	-0.564
693	-0.567
694	-0.562
694	-0.552
695	-0.554
695	-0.546
695	-0.529
696	-0.523
696	-0.499
697	-0.496
697	-0.512
698	-0.514
698	-0.504
698	-0.512
699	-0.511
699	-0.505
700	-0.498
700	-0.509
701	-0.503
701	-0.506
702	-0.508
702	-0.494
702	-0.487
703	-0.48
703	-0.471
704	-0.468
704	-0.465
705	-0.473
705	-0.468
705	-0.459
706	-0.459
706	-0.451
707	-0.448
707	-0.442
708	-0.439
708	-0.43
709	-0.43
709	-0.432
709	-0.421
710	-0.425
710	-0.432
711	-0.423
711	-0.426
712	-0.43
712	-0.441
713	-0.435
713	-0.443
713	-0.435
714	-0.434
714	-0.436
715	-0.425
715	-0.414
716	-0.421
716	-0.421
716	-0.415
717	-0.415
717	-0.42
718	-0.41
718	-0.41
719	-0.413
719	-0.418
720	-0.415
720	-0.42
720	-0.414
721	-0.404
721	-0.405
722	-0.389
722	-0.379
723	-0.377
723	-0.377
723	-0.363
724	-0.363
724	-0.365
725	-0.362
725	-0.365
726	-0.377
726	-0.378
727	-0.384
727	-0.396
727	-0.402
728	-0.406
728	-0.415
729	-0.412
729	-0.414
730	-0.423
730	-0.417
730	-0.406
731	-0.389
731	-0.394
732	-0.404
732	-0.403
733	-0.401
733	-0.401
734	-0.396
734	-0.395
734	-0.381
735	-0.383
735	-0.38
736	-0.39
736	-0.386
737	-0.374
737	-0.374
737	-0.381
738	-0.379
738	-0.379
739	-0.377
739	-0.386
740	-0.384
740	-0.383
741	-0.379
741	-0.376
741	-0.38
742	-0.379
742	-0.377
743	-0.384
743	-0.388
744	-0.387
744	-0.382
744	-0.381
745	-0.392
745	-0.387
746	-0.387
746	-0.382
747	-0.383
747	-0.375
748	-0.362
748	-0.366
748	-0.367
749	-0.362
749	-0.365
750	-0.354
750	-0.354
751	-0.357
751	-0.366
751	-0.367
752	-0.367
752	-0.376
753	-0.375
753	-0.372
754	-0.378
754	-0.367
754	-0.377
755	-0.389
755	-0.4
756	-0.39
756	-0.387
757	-0.386
757	-0.381
758	-0.38
758	-0.378
758	-0.38
759	-0.388
759	-0.381
760	-0.375
760	-0.367
761	-0.381
761	-0.382
761	-0.383
762	-0.394
762	-0.394
763	-0.403
763	-0.4
764	-0.399
764	-0.405
764	-0.412
765	-0.402
765	-0.385
766	-0.391
766	-0.396
767	-0.406
767	-0.402
768	-0.395
768	-0.405
768	-0.409
769	-0.421
769	-0.419
770	-0.427
770	-0.441
771	-0.436
771	-0.439
771	-0.433
772	-0.434
772	-0.428
773	-0.426
773	-0.416
774	-0.414
774	-0.418
775	-0.418
775	-0.412
775	-0.417
776	-0.421
776	-0.414
777	-0.424
777	-0.449
778	-0.448
778	-0.471
778	-0.459
779	-0.475
779	-0.482
780	-0.492
780	-0.492
781	-0.497
781	-0.497
781	-0.51
782	-0.51
782	-0.51
783	-0.499
783	-0.501
784	-0.488
784	-0.481
784	-0.49
785	-0.499
785	-0.493
786	-0.5
786	-0.475
787	-0.457
787	-0.457
788	-0.463
788	-0.468
788	-0.477
789	-0.475
789	-0.457
790	-0.431
790	-0.429
791	-0.422
791	-0.438
791	-0.445
792	-0.441
792	-0.413
793	-0.401
793	-0.377
794	-0.382
794	-0.38
794	-0.393
795	-0.391
795	-0.389
796	-0.374
796	-0.38
797	-0.368
797	-0.379
797	-0.387
798	-0.4
798	-0.39
799	-0.395
799	-0.382
800	-0.385
800	-0.375
801	-0.38
801	-0.368
801	-0.384
802	-0.392
802	-0.393
803	-0.391
803	-0.404
804	-0.403
804	-0.413
804	-0.401
805	-0.404
805	-0.396
806	-0.396
806	-0.384
807	-0.385
807	-0.368
807	-0.356
808	-0.352
808	-0.346
809	-0.331
809	-0.34
810	-0.344
810	-0.337
810	-0.339
811	-0.343
811	-0.334
812	-0.335
812	-0.341
813	-0.343
813	-0.338
813	-0.347
814	-0.352
814	-0.353
815	-0.359
815	-0.361
816	-0.354
816	-0.356
817	-0.365
817	-0.378
817	-0.388
818	-0.398
818	-0.396
819	-0.381
819	-0.385
820	-0.394
820	-0.388
820	-0.397
821	-0.394
821	-0.379
822	-0.354
822	-0.328
823	-0.324
823	-0.33
823	-0.336
824	-0.326
824	-0.327
825	-0.326
825	-0.312
826	-0.311
826	-0.32
826	-0.33
827	-0.333
827	-0.33
828	-0.313
828	-0.311
829	-0.307
829	-0.297
829	-0.288
830	-0.292
830	-0.289
831	-0.285
831	-0.276
832	-0.273
832	-0.27
832	-0.273
833	-0.268
833	-0.269
834	-0.268
834	-0.274
835	-0.268
835	-0.264
835	-0.264
836	-0.263
836	-0.259
837	-0.258
837	-0.251
838	-0.245
838	-0.239
839	-0.228
839	-0.221
839	-0.214
840	-0.204
840	-0.201
841	-0.193
841	-0.189
842	-0.185
842	-0.181
842	-0.179
843	-0.176
843	-0.174
844	-0.167
844	-0.167
845	-0.165
845	-0.157
845	-0.148
846	-0.141
846	-0.134
847	-0.128
847	-0.121
848	-0.115
848	-0.109
848	-0.101
849	-0.095
849	-0.089
850	-0.081
850	-0.079
851	-0.076
851	-0.069
851	-0.064
852	-0.056
852	-0.049
853	-0.045
853	-0.041
854	-0.035
854	-0.029
854	-0.025
855	-0.02
855	-0.017
856	-0.013
856	-0.009
857	-0.004
857	-0.001
857	0.005
858	0.01
858	0.012
859	0.014
859	0.019
860	0.023
860	0.028
860	0.03
861	0.033
861	0.035
862	0.038
862	0.041
863	0.042
863	0.046
863	0.047
864	0.048
864	0.05
865	0.053
865	0.054
866	0.056
866	0.057
866	0.057
867	0.059
867	0.06
868	0.061
868	0.063
869	0.064
869	0.065
869	0.065
870	0.066
870	0.066
871	0.067
871	0.068
872	0.068
872	0.069
872	0.069
873	0.069
873	0.069
874	0.069
874	0.069
875	0.069
875	0.068
875	0.068
876	0.067
876	0.067
877	0.066
877	0.066
878	0.065
878	0.065
878	0.064
879	0.063
879	0.062
880	0.062
880	0.062
881	0.062
881	0.062
881	0.061
882	0.061
882	0.06
883	0.059
883	0.059
884	0.058
884	0.057
884	0.057
885	0.056
885	0.055
886	0.055
886	0.055
887	0.054
887	0.054
887	0.054
888	0.055
888	0.056
889	0.057
889	0.058
890	0.059
890	0.059
890	0.06
891	0.06
891	0.06
892	0.061
892	0.061
893	0.061
893	0.06
893	0.06
894	0.059
894	0.058
895	0.057
895	0.057
895	0.056
896	0.055
896	0.054
897	0.053
897	0.052
898	0.051
898	0.05
898	0.05
899	0.05
899	0.05
900	0.05
900	0.05
901	0.051
901	0.051
901	0.051
902	0.051
902	0.051
903	0.051
903	0.051
904	0.051
904	0.051
904	0.051
905	0.051
905	0.051
906	0.05
906	0.05
907	0.049
907	0.049
907	0.048
908	0.047
908	0.047
909	0.046
909	0.045
910	0.044
910	0.043
910	0.043
911	0.042
911	0.042
912	0.043
912	0.043
913	0.043
913	0.044
913	0.045
914	0.045
914	0.046
915	0.047
915	0.048
916	0.049
916	0.049
916	0.05
917	0.05
917	0.051
918	0.051
918	0.05
918	0.05
919	0.05
919	0.05
920	0.05
920	0.05
921	0.051
921	0.051
921	0.051
922	0.052
922	0.052
923	0.053
923	0.053
924	0.054
924	0.054
924	0.054
925	0.054
925	0.054
926	0.053
926	0.052
927	0.052
927	0.052
927	0.051
928	0.05
928	0.05
929	0.049
929	0.048
930	0.048
930	0.048
930	0.048
931	0.048
931	0.049
932	0.049
932	0.049
933	0.049
933	0.048
933	0.048
934	0.047
934	0.047
935	0.046
935	0.046
935	0.045
936	0.045
936	0.044
937	0.043
937	0.043
938	0.043
938	0.043
938	0.044
939	0.044
939	0.044
940	0.044
940	0.044
941	0.044
941	0.044
941	0.044
942	0.044
942	0.044
943	0.044
943	0.043
944	0.042
944	0.042
944	0.041
945	0.041
945	0.04
946	0.039
946	0.039
946	0.038
947	0.038
947	0.038
948	0.039
948	0.039
949	0.039
949	0.04
949	0.04
950	0.041
950	0.041
951	0.042
951	0.043
952	0.043
952	0.044
952	0.045
953	0.045
953	0.046
954	0.046
954	0.047
955	0.048
955	0.048
955	0.049
956	0.049
956	0.05
957	0.049
957	0.049
957	0.05
958	0.05
958	0.051
959	0.051
959	0.051
960	0.051
960	0.051
960	0.051
961	0.051
961	0.05
962	0.05
962	0.05
963	0.049
963	0.049
963	0.048
964	0.048
964	0.047
965	0.047
965	0.047
966	0.047
966	0.047
966	0.047
967	0.046
967	0.046
968	0.045
968	0.045
968	0.044
969	0.044
969	0.044
970	0.043
970	0.043
971	0.043
971	0.043
971	0.043
972	0.043
972	0.042
973	0.042
973	0.041
974	0.041
974	0.04
974	0.04
975	0.039
975	0.038
976	0.038
976	0.037
976	0.036
977	0.036
977	0.036
978	0.036
978	0.036
979	0.036
979	0.036
979	0.036
980	0.036
980	0.037
981	0.037
981	0.038
982	0.038
982	0.038
982	0.037
983	0.037
983	0.037
984	0.037
984	0.036
984	0.036
985	0.036
985	0.037
986	0.037
986	0.037
987	0.038
987	0.038
987	0.039
988	0.039
988	0.04
989	0.04
989	0.039
990	0.039
990	0.038
990	0.038
991	0.038
991	0.037
992	0.036
992	0.036
992	0.035
993	0.035
993	0.035
994	0.035
994	0.035
995	0.035
995	0.034
995	0.034
996	0.034
996	0.034
997	0.034
997	0.035
997	0.035
998	0.035
998	0.035
999	0.035
999	0.035
1000	0.036
1000	0.036
1000	0.036
1001	0.036
1001	0.035
1002	0.035
1002	0.035
1003	0.034
1003	0.034
1003	0.033
1004	0.033
1004	0.031
1005	0.031
1005	0.03
1005	0.029
1006	0.028
1006	0.027
1007	0.027
1007	0.026
1008	0.026
1008	0.026
1008	0.026
1009	0.026
1009	0.026
1010	0.026
1010	0.026
1010	0.026
1011	0.025
1011	0.025
1012	0.024
1012	0.023
1013	0.022
1013	0.021
1013	0.019
1014	0.019
1014	0.017
1015	0.017
1015	0.016
1016	0.015
1016	0.015
1016	0.014
1017	0.014
1017	0.014
1018	0.014
1018	0.014
1018	0.013
1019	0.013
1019	0.012
1020	0.011
1020	0.011
1021	0.01
1021	0.009
1021	0.008
1022	0.007
1022	0.006
1023	0.005
1023	0.004
1023	0.004
1024	0.004
1024	0.003
1025	0.004
1025	0.004
1026	0.005
1026	0.005
1026	0.006
1027	0.006
1027	0.006
1028	0.007
1028	0.007
1028	0.007
1029	0.007
1029	0.007
1030	0.007
1030	0.006
1031	0.006
1031	0.006
1031	0.007
1032	0.007
1032	0.007
1033	0.008
1033	0.009
1033	0.009
1034	0.01
1034	0.01
1035	0.011
1035	0.011
1036	0.011
1036	0.011
1036	0.011
1037	0.011
1037	0.011
1038	0.01
1038	0.01
1039	0.01
1039	0.01
1039	0.01
1040	0.01
1040	0.01
1041	0.011
1041	0.011
1041	0.012
1042	0.012
1042	0.012
1043	0.012
1043	0.013
1044	0.013
1044	0.013
1044	0.013
1045	0.013
1045	0.013
1046	0.013
1046	0.013
1046	0.014
1047	0.014
1047	0.014
1048	0.015
1048	0.015
1049	0.015
1049	0.016
1049	0.016
1050	0.016
1050	0.016
1051	0.017
1051	0.017
1051	0.017
1052	0.017
1052	0.018
1053	0.017
1053	0.017
1053	0.017
1054	0.017
1054	0.017
1055	0.016
1055	0.016
1056	0.015
1056	0.014
1056	0.013
1057	0.011
1057	0.011
1058	0.01
1058	0.009
1058	0.009
1059	0.008
1059	0.007
1060	0.007
1060	0.007
1061	0.007
1061	0.007
1061	0.008
1062	0.008
1062	0.008
1063	0.008
1063	0.008
1063	0.008
1064	0.009
1064	0.009
1065	0.008
1065	0.008
1066	0.007
1066	0.007
1066	0.006
1067	0.006
1067	0.006
1068	0.005
1068	0.005
1068	0.004
1069	0.004
1069	0.004
1070	0.004
1070	0.004
1071	0.003
1071	0.004
1071	0.003
1072	0.003
1072	0.003
1073	0.003
1073	0.003
1073	0.003
1074	0.003
1074	0.003
1075	0.003
1075	0.003
1076	0.002
1076	0.002
1076	0.002
1077	0.002
1077	0.001
1078	0.001
1078	-0
1078	-0.001
1079	-0.001
1079	-0.002
1080	-0.003
1080	-0.003
1080	-0.004
1081	-0.005
1081	-0.006
1082	-0.006
1082	-0.007
1083	-0.007
1083	-0.008
1083	-0.008
1084	-0.009
1084	-0.009
1085	-0.009
1085	-0.009
1085	-0.009
1086	-0.009
1086	-0.009
1087	-0.009
1087	-0.009
1088	-0.009
1088	-0.009
1088	-0.009
1089	-0.009
1089	-0.009
1090	-0.009
1090	-0.009
1090	-0.009
1091	-0.009
1091	-0.009
1092	-0.009
1092	-0.009
1092	-0.009
1093	-0.009
1093	-0.009
1094	-0.008
1094	-0.009
1095	-0.009
1095	-0.009
1095	-0.008
1096	-0.008
1096	-0.008
1097	-0.008
1097	-0.009
1097	-0.009
1098	-0.009
1098	-0.009
1099	-0.009
1099	-0.01
1100	-0.01
1100	-0.011
1100	-0.012
1101	-0.012
1101	-0.012
1102	-0.013
1102	-0.014
1102	-0.013
1103	-0.013
1103	-0.014
1104	-0.014
1104	-0.015
1104	-0.015
1105	-0.015
1105	-0.017
1106	-0.019
1106	-0.019
1107	-0.021
1107	-0.023
1107	-0.026
1108	-0.027
1108	-0.028
1109	-0.03
1109	-0.033
1109	-0.034
1110	-0.033
1110	-0.034
1111	-0.037
1111	-0.035
