Data from 17C_3.4A_30min_2sec_int_Absorbance__18__00018.txt Node

Date: Mon Jun 19 16:05:33 CEST 2023
User: Marek
Spectrometer: MAYP115816
Trigger mode: 0
Integration Time (sec): 2.500000E-1
Scans to average: 10
Electric dark correction enabled: true
Nonlinearity correction enabled: true
Boxcar width: 5
XAxis mode: Wavelengths
Number of Pixels in Spectrum: 2068
>>>>>Begin Spectral Data<<<<<
199	-0.187
199	-0.179
200	-0.106
200	-0.086
201	-0.068
201	-0.068
202	-0.058
202	-0.054
203	-0.049
203	-0.043
204	-0.036
204	-0.029
205	-0.019
205	-0.019
205	-0.011
206	-0.012
206	-0.013
207	-0.008
207	-0.006
208	-0.003
208	-0.004
209	0.003
209	0.004
210	0.001
210	-0.003
211	-0.008
211	-0.008
212	-0.007
212	-0.01
213	-0.006
213	-0.007
213	-0.011
214	-0.007
214	-0.01
215	-0.015
215	-0.016
216	-0.022
216	-0.024
217	-0.022
217	-0.024
218	-0.026
218	-0.028
219	-0.028
219	-0.037
220	-0.033
220	-0.024
221	-0.022
221	-0.015
221	-0.013
222	-0.008
222	-0.007
223	-0.012
223	-0.012
224	-0.012
224	-0.01
225	-0.007
225	-0.007
226	-0.007
226	-0.007
227	-0.008
227	-0.009
228	-0.01
228	-0.005
229	-0.005
229	-0.005
229	-0.008
230	-0.016
230	-0.02
231	-0.016
231	-0.014
232	-0.009
232	-0.013
233	-0.01
233	-0.012
234	-0.008
234	-0.002
235	0.001
235	0.003
236	-0.001
236	-0.004
236	-0.009
237	-0.019
237	-0.017
238	-0.025
238	-0.023
239	-0.023
239	-0.033
240	-0.034
240	-0.035
241	-0.033
241	-0.039
242	-0.037
242	-0.029
243	-0.027
243	-0.024
243	-0.03
244	-0.027
244	-0.021
245	-0.025
245	-0.021
246	-0.024
246	-0.022
247	-0.025
247	-0.019
248	-0.024
248	-0.024
249	-0.02
249	-0.027
250	-0.028
250	-0.033
250	-0.037
251	-0.036
251	-0.037
252	-0.039
252	-0.033
253	-0.03
253	-0.035
254	-0.033
254	-0.036
255	-0.032
255	-0.019
256	-0.011
256	-0.01
257	-0.006
257	0.002
258	-0.012
258	-0.015
258	-0.011
259	-0.009
259	-0.011
260	-0.017
260	-0.021
261	-0.033
261	-0.029
262	-0.025
262	-0.024
263	-0.017
263	-0.013
264	-0.007
264	-0.016
265	-0.013
265	-0.015
265	-0.02
266	-0.016
266	-0.018
267	-0.032
267	-0.042
268	-0.053
268	-0.06
269	-0.063
269	-0.056
270	-0.058
270	-0.069
271	-0.064
271	-0.06
272	-0.057
272	-0.045
272	-0.037
273	-0.035
273	-0.043
274	-0.049
274	-0.051
275	-0.05
275	-0.035
276	-0.039
276	-0.031
277	-0.04
277	-0.05
278	-0.052
278	-0.043
278	-0.023
279	-0.021
279	-0.025
280	-0.022
280	-0.027
281	-0.021
281	-0.022
282	-0.012
282	-0.014
283	-0.014
283	-0.02
284	-0.022
284	-0.011
285	-0.01
285	-0.006
285	0.002
286	0.002
286	-0.001
287	0.001
287	0.008
288	0.013
288	0.01
289	0.001
289	0.002
290	0.016
290	0.02
291	0.021
291	0.015
292	0.013
292	0.009
292	0.011
293	0.01
293	0.023
294	0.034
294	0.028
295	0.018
295	0.018
296	0.022
296	0.032
297	0.031
297	0.039
298	0.046
298	0.046
298	0.048
299	0.051
299	0.044
300	0.054
300	0.055
301	0.055
301	0.054
302	0.056
302	0.054
303	0.052
303	0.061
304	0.063
304	0.062
305	0.065
305	0.068
305	0.069
306	0.078
306	0.082
307	0.084
307	0.083
308	0.07
308	0.067
309	0.064
309	0.072
310	0.082
310	0.084
311	0.084
311	0.078
311	0.075
312	0.075
312	0.073
313	0.092
313	0.097
314	0.095
314	0.096
315	0.09
315	0.086
316	0.092
316	0.093
317	0.101
317	0.105
318	0.106
318	0.106
318	0.103
319	0.112
319	0.108
320	0.115
320	0.115
321	0.111
321	0.112
322	0.116
322	0.116
323	0.125
323	0.128
324	0.136
324	0.138
324	0.142
325	0.15
325	0.159
326	0.163
326	0.169
327	0.175
327	0.189
328	0.197
328	0.197
329	0.205
329	0.214
330	0.229
330	0.238
330	0.248
331	0.257
331	0.269
332	0.275
332	0.281
333	0.286
333	0.295
334	0.3
334	0.304
335	0.308
335	0.312
336	0.315
336	0.319
336	0.321
337	0.325
337	0.326
338	0.328
338	0.328
339	0.329
339	0.33
340	0.33
340	0.331
341	0.332
341	0.332
342	0.332
342	0.332
342	0.333
343	0.334
343	0.335
344	0.335
344	0.334
345	0.335
345	0.334
346	0.334
346	0.334
347	0.334
347	0.334
348	0.334
348	0.333
348	0.333
349	0.333
349	0.333
350	0.333
350	0.333
351	0.332
351	0.332
352	0.332
352	0.332
353	0.331
353	0.331
354	0.331
354	0.331
354	0.331
355	0.33
355	0.33
356	0.33
356	0.33
357	0.329
357	0.329
358	0.329
358	0.328
359	0.328
359	0.328
360	0.327
360	0.327
360	0.327
361	0.327
361	0.326
362	0.327
362	0.327
363	0.326
363	0.326
364	0.326
364	0.326
365	0.326
365	0.326
366	0.326
366	0.325
366	0.325
367	0.325
367	0.325
368	0.325
368	0.325
369	0.325
369	0.325
370	0.324
370	0.324
371	0.324
371	0.324
372	0.324
372	0.324
372	0.323
373	0.323
373	0.323
374	0.322
374	0.322
375	0.322
375	0.322
376	0.322
376	0.322
377	0.321
377	0.321
378	0.321
378	0.321
378	0.321
379	0.321
379	0.321
380	0.32
380	0.32
381	0.32
381	0.32
382	0.319
382	0.319
383	0.319
383	0.319
383	0.319
384	0.318
384	0.318
385	0.318
385	0.318
386	0.318
386	0.318
387	0.318
387	0.317
388	0.317
388	0.317
389	0.317
389	0.317
389	0.317
390	0.317
390	0.317
391	0.316
391	0.316
392	0.316
392	0.316
393	0.316
393	0.315
394	0.315
394	0.315
394	0.314
395	0.314
395	0.314
396	0.314
396	0.313
397	0.313
397	0.313
398	0.313
398	0.313
399	0.313
399	0.312
400	0.312
400	0.312
400	0.311
401	0.311
401	0.311
402	0.31
402	0.31
403	0.31
403	0.309
404	0.309
404	0.309
405	0.309
405	0.308
405	0.308
406	0.308
406	0.308
407	0.307
407	0.307
408	0.307
408	0.307
409	0.307
409	0.307
410	0.307
410	0.306
411	0.306
411	0.306
411	0.306
412	0.306
412	0.306
413	0.305
413	0.305
414	0.305
414	0.305
415	0.305
415	0.304
416	0.304
416	0.304
416	0.304
417	0.304
417	0.303
418	0.303
418	0.303
419	0.303
419	0.303
420	0.303
420	0.303
421	0.302
421	0.302
421	0.302
422	0.302
422	0.302
423	0.302
423	0.302
424	0.301
424	0.301
425	0.301
425	0.301
426	0.301
426	0.3
427	0.3
427	0.3
427	0.299
428	0.299
428	0.299
429	0.299
429	0.299
430	0.299
430	0.298
431	0.298
431	0.298
432	0.298
432	0.298
432	0.298
433	0.298
433	0.297
434	0.297
434	0.297
435	0.296
435	0.296
436	0.296
436	0.296
437	0.296
437	0.296
437	0.296
438	0.296
438	0.295
439	0.295
439	0.295
440	0.295
440	0.294
441	0.294
441	0.294
442	0.294
442	0.293
442	0.293
443	0.293
443	0.292
444	0.292
444	0.292
445	0.292
445	0.292
446	0.292
446	0.292
447	0.292
447	0.292
447	0.292
448	0.293
448	0.293
449	0.292
449	0.293
450	0.293
450	0.293
451	0.293
451	0.293
452	0.293
452	0.293
452	0.292
453	0.292
453	0.292
454	0.292
454	0.291
455	0.291
455	0.291
456	0.291
456	0.291
457	0.29
457	0.29
458	0.29
458	0.29
458	0.29
459	0.29
459	0.29
460	0.29
460	0.29
461	0.29
461	0.29
462	0.29
462	0.291
463	0.291
463	0.291
463	0.291
464	0.29
464	0.291
465	0.291
465	0.291
466	0.291
466	0.291
467	0.291
467	0.292
467	0.292
468	0.292
468	0.292
469	0.293
469	0.293
470	0.294
470	0.294
471	0.294
471	0.294
472	0.294
472	0.294
472	0.294
473	0.294
473	0.294
474	0.295
474	0.295
475	0.295
475	0.296
476	0.296
476	0.296
477	0.296
477	0.297
477	0.297
478	0.298
478	0.298
479	0.299
479	0.299
480	0.299
480	0.3
481	0.3
481	0.301
482	0.302
482	0.302
482	0.302
483	0.303
483	0.303
484	0.303
484	0.304
485	0.304
485	0.305
486	0.305
486	0.306
487	0.307
487	0.308
487	0.308
488	0.309
488	0.31
489	0.312
489	0.313
490	0.315
490	0.316
491	0.317
491	0.318
492	0.319
492	0.32
492	0.321
493	0.322
493	0.324
494	0.325
494	0.326
495	0.327
495	0.328
496	0.33
496	0.331
496	0.333
497	0.334
497	0.336
498	0.337
498	0.339
499	0.341
499	0.343
500	0.344
500	0.346
501	0.348
501	0.35
501	0.351
502	0.353
502	0.354
503	0.356
503	0.357
504	0.359
504	0.361
505	0.363
505	0.365
506	0.367
506	0.369
506	0.371
507	0.373
507	0.375
508	0.377
508	0.379
509	0.382
509	0.384
510	0.386
510	0.387
511	0.39
511	0.391
511	0.393
512	0.395
512	0.397
513	0.399
513	0.401
514	0.402
514	0.404
515	0.406
515	0.408
515	0.41
516	0.412
516	0.414
517	0.416
517	0.418
518	0.42
518	0.422
519	0.424
519	0.426
520	0.428
520	0.43
520	0.432
521	0.434
521	0.437
522	0.439
522	0.44
523	0.442
523	0.444
524	0.446
524	0.448
524	0.449
525	0.451
525	0.452
526	0.454
526	0.455
527	0.457
527	0.458
528	0.459
528	0.461
529	0.463
529	0.464
529	0.466
530	0.467
530	0.468
531	0.469
531	0.471
532	0.472
532	0.474
533	0.475
533	0.477
533	0.478
534	0.479
534	0.48
535	0.482
535	0.483
536	0.484
536	0.485
537	0.486
537	0.488
538	0.489
538	0.49
538	0.491
539	0.492
539	0.493
540	0.493
540	0.494
541	0.495
541	0.496
542	0.496
542	0.497
542	0.497
543	0.498
543	0.498
544	0.498
544	0.499
545	0.5
545	0.501
546	0.501
546	0.502
547	0.503
547	0.503
547	0.504
548	0.505
548	0.506
549	0.507
549	0.507
550	0.508
550	0.508
551	0.509
551	0.51
551	0.51
552	0.511
552	0.511
553	0.511
553	0.512
554	0.512
554	0.512
555	0.513
555	0.513
556	0.513
556	0.513
556	0.514
557	0.514
557	0.514
558	0.514
558	0.514
559	0.515
559	0.515
560	0.515
560	0.515
560	0.515
561	0.515
561	0.515
562	0.515
562	0.514
563	0.514
563	0.514
564	0.514
564	0.514
564	0.513
565	0.513
565	0.513
566	0.512
566	0.512
567	0.511
567	0.51
568	0.509
568	0.509
568	0.508
569	0.508
569	0.507
570	0.506
570	0.506
571	0.505
571	0.505
572	0.504
572	0.503
573	0.503
573	0.502
573	0.501
574	0.501
574	0.5
575	0.499
575	0.498
576	0.497
576	0.496
577	0.496
577	0.496
577	0.495
578	0.495
578	0.494
579	0.493
579	0.492
580	0.491
580	0.49
581	0.489
581	0.489
581	0.488
582	0.487
582	0.485
583	0.484
583	0.483
584	0.482
584	0.481
585	0.48
585	0.479
585	0.477
586	0.476
586	0.475
587	0.474
587	0.474
588	0.473
588	0.472
589	0.471
589	0.47
590	0.469
590	0.468
590	0.467
591	0.465
591	0.463
592	0.461
592	0.46
593	0.459
593	0.457
594	0.456
594	0.454
594	0.453
595	0.452
595	0.45
596	0.449
596	0.448
597	0.446
597	0.444
598	0.442
598	0.44
598	0.439
599	0.438
599	0.436
600	0.435
600	0.433
601	0.432
601	0.43
602	0.428
602	0.427
602	0.425
603	0.424
603	0.422
604	0.421
604	0.419
605	0.418
605	0.416
606	0.414
606	0.413
606	0.412
607	0.41
607	0.409
608	0.407
608	0.405
609	0.404
609	0.402
610	0.4
610	0.399
610	0.397
611	0.396
611	0.394
612	0.393
612	0.391
613	0.39
613	0.388
614	0.387
614	0.385
614	0.383
615	0.382
615	0.38
616	0.378
616	0.376
617	0.374
617	0.372
618	0.37
618	0.367
618	0.365
619	0.363
619	0.361
620	0.359
620	0.356
621	0.354
621	0.352
622	0.35
622	0.348
622	0.346
623	0.344
623	0.342
624	0.34
624	0.338
625	0.336
625	0.334
626	0.331
626	0.329
626	0.327
627	0.325
627	0.322
628	0.319
628	0.316
629	0.312
629	0.309
630	0.306
630	0.302
630	0.298
631	0.293
631	0.289
632	0.284
632	0.279
633	0.274
633	0.268
634	0.263
634	0.257
634	0.251
635	0.245
635	0.239
636	0.232
636	0.226
637	0.219
637	0.212
638	0.204
638	0.196
638	0.189
639	0.18
639	0.171
640	0.163
640	0.154
641	0.146
641	0.138
642	0.13
642	0.122
642	0.114
643	0.106
643	0.097
644	0.088
644	0.079
645	0.07
645	0.061
646	0.053
646	0.043
646	0.034
647	0.025
647	0.016
648	0.008
648	-0.001
649	-0.01
649	-0.018
650	-0.027
650	-0.035
650	-0.043
651	-0.053
651	-0.066
652	-0.082
652	-0.099
653	-0.113
653	-0.125
653	-0.121
654	-0.093
654	-0.073
655	-0.073
655	-0.076
656	-0.08
656	-0.084
657	-0.086
657	-0.089
657	-0.093
658	-0.099
658	-0.128
659	-0.219
659	-0.334
660	-0.383
660	-0.414
661	-0.449
661	-0.488
661	-0.533
662	-0.58
662	-0.63
663	-0.685
663	-0.742
664	-0.803
664	-0.869
665	-0.937
665	-1.011
665	-1.081
666	-1.152
666	-1.227
667	-1.304
667	-1.381
668	-1.467
668	-1.555
669	-1.65
669	-1.755
669	-1.914
670	-2.153
670	-2.239
671	-2.291
671	-2.379
672	-2.511
672	-2.64
672	-2.727
673	-2.783
673	-2.804
674	-2.817
674	-2.816
675	-2.791
675	-2.879
676	-3.03
676	-2.966
676	-2.721
677	-2.481
677	-2.251
678	-1.946
678	-1.78
679	-1.664
679	-1.571
680	-1.494
680	-1.428
680	-1.368
681	-1.328
681	-1.271
682	-1.228
682	-1.189
683	-1.151
683	-1.126
684	-1.097
684	-1.07
684	-1.041
685	-1.006
685	-0.974
686	-0.94
686	-0.915
687	-0.881
687	-0.857
687	-0.83
688	-0.796
688	-0.77
689	-0.742
689	-0.72
690	-0.694
690	-0.673
691	-0.659
691	-0.657
691	-0.662
692	-0.651
692	-0.634
693	-0.623
693	-0.618
694	-0.609
694	-0.596
695	-0.595
695	-0.588
695	-0.567
696	-0.556
696	-0.53
697	-0.52
697	-0.527
698	-0.525
698	-0.51
698	-0.509
699	-0.509
699	-0.501
700	-0.485
700	-0.491
701	-0.487
701	-0.487
702	-0.483
702	-0.465
702	-0.455
703	-0.447
703	-0.44
704	-0.428
704	-0.425
705	-0.432
705	-0.421
705	-0.41
706	-0.409
706	-0.404
707	-0.404
707	-0.397
708	-0.392
708	-0.382
709	-0.383
709	-0.381
709	-0.371
710	-0.377
710	-0.382
711	-0.369
711	-0.37
712	-0.369
712	-0.373
713	-0.368
713	-0.37
713	-0.362
714	-0.355
714	-0.355
715	-0.342
715	-0.328
716	-0.333
716	-0.328
716	-0.321
717	-0.32
717	-0.326
718	-0.319
718	-0.317
719	-0.318
719	-0.315
720	-0.312
720	-0.315
720	-0.306
721	-0.297
721	-0.292
722	-0.278
722	-0.266
723	-0.256
723	-0.257
723	-0.245
724	-0.247
724	-0.248
725	-0.25
725	-0.255
726	-0.263
726	-0.266
727	-0.269
727	-0.277
727	-0.287
728	-0.288
728	-0.292
729	-0.287
729	-0.287
730	-0.288
730	-0.282
730	-0.27
731	-0.256
731	-0.26
732	-0.271
732	-0.269
733	-0.26
733	-0.261
734	-0.254
734	-0.251
734	-0.241
735	-0.239
735	-0.239
736	-0.241
736	-0.232
737	-0.217
737	-0.218
737	-0.222
738	-0.217
738	-0.222
739	-0.218
739	-0.218
740	-0.221
740	-0.216
741	-0.216
741	-0.212
741	-0.213
742	-0.215
742	-0.217
743	-0.222
743	-0.222
744	-0.223
744	-0.222
744	-0.219
745	-0.226
745	-0.218
746	-0.216
746	-0.211
747	-0.21
747	-0.198
748	-0.187
748	-0.187
748	-0.189
749	-0.183
749	-0.181
750	-0.17
750	-0.17
751	-0.177
751	-0.187
751	-0.185
752	-0.183
752	-0.188
753	-0.188
753	-0.181
754	-0.187
754	-0.185
754	-0.196
755	-0.211
755	-0.218
756	-0.21
756	-0.214
757	-0.225
757	-0.227
758	-0.224
758	-0.222
758	-0.229
759	-0.232
759	-0.219
760	-0.211
760	-0.206
761	-0.209
761	-0.198
761	-0.193
762	-0.202
762	-0.214
763	-0.22
763	-0.218
764	-0.213
764	-0.221
764	-0.222
765	-0.218
765	-0.21
766	-0.215
766	-0.217
767	-0.221
767	-0.206
768	-0.203
768	-0.211
768	-0.222
769	-0.232
769	-0.242
770	-0.242
770	-0.253
771	-0.257
771	-0.262
771	-0.258
772	-0.259
772	-0.252
773	-0.239
773	-0.226
774	-0.225
774	-0.219
775	-0.22
775	-0.208
775	-0.203
776	-0.203
776	-0.204
777	-0.222
777	-0.247
778	-0.258
778	-0.277
778	-0.266
779	-0.284
779	-0.286
780	-0.301
780	-0.3
781	-0.308
781	-0.306
781	-0.313
782	-0.318
782	-0.324
783	-0.324
783	-0.335
784	-0.332
784	-0.331
784	-0.343
785	-0.364
785	-0.357
786	-0.365
786	-0.346
787	-0.323
787	-0.31
788	-0.307
788	-0.305
788	-0.299
789	-0.295
789	-0.274
790	-0.246
790	-0.236
791	-0.222
791	-0.223
791	-0.227
792	-0.219
792	-0.192
793	-0.175
793	-0.153
794	-0.155
794	-0.142
794	-0.146
795	-0.145
795	-0.147
796	-0.144
796	-0.154
797	-0.152
797	-0.155
797	-0.167
798	-0.176
798	-0.169
799	-0.183
799	-0.171
800	-0.181
800	-0.165
801	-0.165
801	-0.154
801	-0.162
802	-0.174
802	-0.17
803	-0.172
803	-0.181
804	-0.176
804	-0.191
804	-0.176
805	-0.185
805	-0.181
806	-0.181
806	-0.173
807	-0.173
807	-0.158
807	-0.148
808	-0.142
808	-0.141
809	-0.129
809	-0.147
810	-0.142
810	-0.138
810	-0.138
811	-0.145
811	-0.136
812	-0.141
812	-0.146
813	-0.149
813	-0.138
813	-0.14
814	-0.132
814	-0.136
815	-0.138
815	-0.139
816	-0.129
816	-0.144
817	-0.152
817	-0.166
817	-0.178
818	-0.187
818	-0.186
819	-0.185
819	-0.188
820	-0.201
820	-0.2
820	-0.207
821	-0.191
821	-0.174
822	-0.152
822	-0.134
823	-0.133
823	-0.138
823	-0.135
824	-0.124
824	-0.124
825	-0.112
825	-0.1
826	-0.103
826	-0.111
826	-0.121
827	-0.122
827	-0.123
828	-0.108
828	-0.108
829	-0.106
829	-0.101
829	-0.093
830	-0.097
830	-0.095
831	-0.093
831	-0.082
832	-0.079
832	-0.073
832	-0.081
833	-0.074
833	-0.078
834	-0.067
834	-0.083
835	-0.08
835	-0.084
835	-0.087
836	-0.089
836	-0.085
837	-0.087
837	-0.083
838	-0.08
838	-0.073
839	-0.072
839	-0.066
839	-0.059
840	-0.05
840	-0.045
841	-0.04
841	-0.04
842	-0.036
842	-0.035
842	-0.038
843	-0.038
843	-0.035
844	-0.034
844	-0.034
845	-0.034
845	-0.03
845	-0.023
846	-0.014
846	-0.012
847	-0.008
847	-0.003
848	-0.001
848	0.001
848	0.008
849	0.008
849	0.01
850	0.013
850	0.012
851	0.009
851	0.01
851	0.01
852	0.014
852	0.017
853	0.019
853	0.019
854	0.024
854	0.028
854	0.03
855	0.031
855	0.032
856	0.036
856	0.04
857	0.04
857	0.042
857	0.046
858	0.049
858	0.049
859	0.048
859	0.051
860	0.053
860	0.055
860	0.055
861	0.056
861	0.057
862	0.058
862	0.058
863	0.059
863	0.06
863	0.061
864	0.06
864	0.06
865	0.061
865	0.061
866	0.061
866	0.061
866	0.061
867	0.061
867	0.062
868	0.061
868	0.062
869	0.062
869	0.062
869	0.062
870	0.063
870	0.063
871	0.064
871	0.064
872	0.065
872	0.065
872	0.065
873	0.066
873	0.066
874	0.066
874	0.067
875	0.067
875	0.067
875	0.067
876	0.067
876	0.067
877	0.067
877	0.067
878	0.067
878	0.066
878	0.066
879	0.065
879	0.065
880	0.065
880	0.065
881	0.065
881	0.065
881	0.064
882	0.064
882	0.063
883	0.063
883	0.062
884	0.062
884	0.062
884	0.061
885	0.061
885	0.06
886	0.06
886	0.06
887	0.06
887	0.061
887	0.061
888	0.062
888	0.062
889	0.063
889	0.064
890	0.065
890	0.065
890	0.066
891	0.066
891	0.066
892	0.066
892	0.066
893	0.066
893	0.066
893	0.065
894	0.064
894	0.063
895	0.062
895	0.061
895	0.06
896	0.059
896	0.058
897	0.056
897	0.055
898	0.054
898	0.053
898	0.052
899	0.052
899	0.051
900	0.052
900	0.051
901	0.052
901	0.052
901	0.052
902	0.052
902	0.052
903	0.051
903	0.052
904	0.052
904	0.052
904	0.052
905	0.052
905	0.052
906	0.052
906	0.052
907	0.051
907	0.051
907	0.05
908	0.05
908	0.049
909	0.048
909	0.047
910	0.047
910	0.046
910	0.045
911	0.045
911	0.045
912	0.045
912	0.045
913	0.045
913	0.045
913	0.046
914	0.046
914	0.047
915	0.047
915	0.048
916	0.048
916	0.048
916	0.048
917	0.048
917	0.049
918	0.049
918	0.048
918	0.048
919	0.047
919	0.047
920	0.047
920	0.047
921	0.048
921	0.048
921	0.048
922	0.048
922	0.049
923	0.049
923	0.05
924	0.051
924	0.051
924	0.051
925	0.051
925	0.05
926	0.05
926	0.05
927	0.049
927	0.049
927	0.048
928	0.048
928	0.047
929	0.047
929	0.047
930	0.046
930	0.046
930	0.046
931	0.047
931	0.047
932	0.047
932	0.047
933	0.047
933	0.047
933	0.046
934	0.046
934	0.046
935	0.045
935	0.045
935	0.045
936	0.044
936	0.044
937	0.044
937	0.044
938	0.044
938	0.044
938	0.045
939	0.045
939	0.045
940	0.045
940	0.045
941	0.045
941	0.046
941	0.045
942	0.045
942	0.045
943	0.045
943	0.044
944	0.043
944	0.043
944	0.042
945	0.042
945	0.041
946	0.04
946	0.039
946	0.039
947	0.039
947	0.039
948	0.039
948	0.039
949	0.039
949	0.04
949	0.04
950	0.04
950	0.04
951	0.041
951	0.042
952	0.042
952	0.042
952	0.043
953	0.043
953	0.044
954	0.043
954	0.044
955	0.045
955	0.045
955	0.045
956	0.045
956	0.045
957	0.045
957	0.045
957	0.045
958	0.045
958	0.045
959	0.045
959	0.046
960	0.046
960	0.046
960	0.046
961	0.046
961	0.046
962	0.046
962	0.047
963	0.047
963	0.046
963	0.046
964	0.046
964	0.046
965	0.047
965	0.046
966	0.046
966	0.046
966	0.046
967	0.045
967	0.045
968	0.044
968	0.044
968	0.043
969	0.042
969	0.041
970	0.041
970	0.041
971	0.04
971	0.04
971	0.04
972	0.039
972	0.038
973	0.038
973	0.037
974	0.036
974	0.035
974	0.035
975	0.034
975	0.033
976	0.032
976	0.031
976	0.031
977	0.031
977	0.031
978	0.031
978	0.031
979	0.031
979	0.031
979	0.032
980	0.032
980	0.032
981	0.032
981	0.033
982	0.032
982	0.032
982	0.031
983	0.03
983	0.03
984	0.03
984	0.029
984	0.029
985	0.029
985	0.03
986	0.03
986	0.03
987	0.031
987	0.032
987	0.032
988	0.032
988	0.033
989	0.033
989	0.032
990	0.032
990	0.031
990	0.031
991	0.03
991	0.03
992	0.029
992	0.029
992	0.029
993	0.029
993	0.029
994	0.029
994	0.029
995	0.03
995	0.03
995	0.03
996	0.031
996	0.031
997	0.032
997	0.032
997	0.032
998	0.033
998	0.033
999	0.033
999	0.033
1000	0.033
1000	0.033
1000	0.033
1001	0.033
1001	0.032
1002	0.032
1002	0.031
1003	0.031
1003	0.03
1003	0.03
1004	0.029
1004	0.028
1005	0.027
1005	0.027
1005	0.026
1006	0.025
1006	0.025
1007	0.024
1007	0.023
1008	0.023
1008	0.023
1008	0.023
1009	0.023
1009	0.023
1010	0.023
1010	0.023
1010	0.023
1011	0.022
1011	0.022
1012	0.021
1012	0.019
1013	0.018
1013	0.017
1013	0.016
1014	0.015
1014	0.014
1015	0.013
1015	0.013
1016	0.012
1016	0.012
1016	0.012
1017	0.012
1017	0.011
1018	0.011
1018	0.011
1018	0.01
1019	0.009
1019	0.009
1020	0.008
1020	0.007
1021	0.006
1021	0.005
1021	0.004
1022	0.003
1022	0.002
1023	0.002
1023	0.001
1023	0.001
1024	0.001
1024	0.001
1025	0.001
1025	0.002
1026	0.003
1026	0.004
1026	0.004
1027	0.005
1027	0.006
1028	0.006
1028	0.007
1028	0.007
1029	0.007
1029	0.008
1030	0.007
1030	0.007
1031	0.007
1031	0.008
1031	0.008
1032	0.008
1032	0.009
1033	0.01
1033	0.011
1033	0.012
1034	0.012
1034	0.013
1035	0.014
1035	0.014
1036	0.014
1036	0.014
1036	0.014
1037	0.013
1037	0.013
1038	0.013
1038	0.013
1039	0.013
1039	0.013
1039	0.013
1040	0.014
1040	0.015
1041	0.015
1041	0.016
1041	0.016
1042	0.016
1042	0.017
1043	0.017
1043	0.017
1044	0.017
1044	0.017
1044	0.017
1045	0.017
1045	0.017
1046	0.017
1046	0.018
1046	0.018
1047	0.018
1047	0.018
1048	0.019
1048	0.019
1049	0.019
1049	0.019
1049	0.019
1050	0.019
1050	0.02
1051	0.02
1051	0.02
1051	0.02
1052	0.02
1052	0.02
1053	0.02
1053	0.02
1053	0.02
1054	0.019
1054	0.019
1055	0.018
1055	0.017
1056	0.016
1056	0.015
1056	0.013
1057	0.013
1057	0.012
1058	0.011
1058	0.011
1058	0.01
1059	0.01
1059	0.01
1060	0.009
1060	0.009
1061	0.009
1061	0.01
1061	0.01
1062	0.01
1062	0.01
1063	0.01
1063	0.01
1063	0.01
1064	0.01
1064	0.01
1065	0.01
1065	0.01
1066	0.009
1066	0.009
1066	0.009
1067	0.009
1067	0.009
1068	0.008
1068	0.008
1068	0.008
1069	0.008
1069	0.008
1070	0.008
1070	0.008
1071	0.008
1071	0.008
1071	0.007
1072	0.007
1072	0.006
1073	0.006
1073	0.005
1073	0.005
1074	0.005
1074	0.005
1075	0.004
1075	0.004
1076	0.003
1076	0.003
1076	0.003
1077	0.003
1077	0.002
1078	0.002
1078	0.002
1078	0.001
1079	0
1079	-0
1080	-0.001
1080	-0.001
1080	-0.002
1081	-0.002
1081	-0.003
1082	-0.003
1082	-0.004
1083	-0.004
1083	-0.004
1083	-0.004
1084	-0.005
1084	-0.005
1085	-0.006
1085	-0.006
1085	-0.006
1086	-0.005
1086	-0.005
1087	-0.005
1087	-0.005
1088	-0.005
1088	-0.004
1088	-0.004
1089	-0.004
1089	-0.003
1090	-0.004
1090	-0.003
1090	-0.003
1091	-0.003
1091	-0.003
1092	-0.003
1092	-0.002
1092	-0.002
1093	-0.002
1093	-0.002
1094	-0.002
1094	-0.002
1095	-0.002
1095	-0.002
1095	-0.001
1096	-0.001
1096	-0
1097	-0
1097	0.001
1097	0.002
1098	0.003
1098	0.003
1099	0.003
1099	0.004
1100	0.004
1100	0.005
1100	0.004
1101	0.003
1101	0.002
1102	0.001
1102	-0
1102	0
1103	0
1103	0
1104	-0.001
1104	-0.001
1104	-0.002
1105	-0.003
1105	-0.003
1106	-0.004
1106	-0.004
1107	-0.004
1107	-0.007
1107	-0.009
1108	-0.01
1108	-0.012
1109	-0.013
1109	-0.013
1109	-0.013
1110	-0.013
1110	-0.012
1111	-0.015
1111	-0.016
