Data from 17C_3.4A_30min_2sec_int_Absorbance__334__00334.txt Node

Date: Mon Jun 19 16:18:43 CEST 2023
User: Marek
Spectrometer: MAYP115816
Trigger mode: 0
Integration Time (sec): 2.500000E-1
Scans to average: 10
Electric dark correction enabled: true
Nonlinearity correction enabled: true
Boxcar width: 5
XAxis mode: Wavelengths
Number of Pixels in Spectrum: 2068
>>>>>Begin Spectral Data<<<<<
199	-0.478
199	-0.494
200	-0.397
200	-0.351
201	-0.317
201	-0.306
202	-0.295
202	-0.282
203	-0.273
203	-0.27
204	-0.258
204	-0.245
205	-0.222
205	-0.221
205	-0.218
206	-0.22
206	-0.221
207	-0.211
207	-0.212
208	-0.217
208	-0.22
209	-0.216
209	-0.219
210	-0.225
210	-0.231
211	-0.232
211	-0.233
212	-0.234
212	-0.241
213	-0.239
213	-0.236
213	-0.236
214	-0.232
214	-0.231
215	-0.231
215	-0.231
216	-0.238
216	-0.244
217	-0.244
217	-0.249
218	-0.251
218	-0.255
219	-0.258
219	-0.263
220	-0.268
220	-0.272
221	-0.27
221	-0.27
221	-0.264
222	-0.258
222	-0.257
223	-0.261
223	-0.261
224	-0.267
224	-0.27
225	-0.266
225	-0.263
226	-0.266
226	-0.265
227	-0.269
227	-0.281
228	-0.281
228	-0.28
229	-0.284
229	-0.275
229	-0.269
230	-0.27
230	-0.276
231	-0.273
231	-0.267
232	-0.263
232	-0.262
233	-0.256
233	-0.257
234	-0.252
234	-0.25
235	-0.254
235	-0.258
236	-0.254
236	-0.258
236	-0.263
237	-0.27
237	-0.267
238	-0.275
238	-0.273
239	-0.275
239	-0.285
240	-0.285
240	-0.284
241	-0.29
241	-0.287
242	-0.29
242	-0.283
243	-0.28
243	-0.28
243	-0.285
244	-0.282
244	-0.278
245	-0.288
245	-0.285
246	-0.288
246	-0.296
247	-0.297
247	-0.304
248	-0.311
248	-0.308
249	-0.313
249	-0.323
250	-0.322
250	-0.321
250	-0.324
251	-0.321
251	-0.318
252	-0.319
252	-0.31
253	-0.313
253	-0.325
254	-0.319
254	-0.316
255	-0.322
255	-0.315
256	-0.31
256	-0.317
257	-0.315
257	-0.314
258	-0.326
258	-0.324
258	-0.318
259	-0.315
259	-0.325
260	-0.323
260	-0.326
261	-0.335
261	-0.329
262	-0.327
262	-0.328
263	-0.318
263	-0.314
264	-0.31
264	-0.318
265	-0.311
265	-0.322
265	-0.326
266	-0.326
266	-0.327
267	-0.339
267	-0.343
268	-0.359
268	-0.363
269	-0.366
269	-0.362
270	-0.366
270	-0.367
271	-0.366
271	-0.37
272	-0.368
272	-0.364
272	-0.358
273	-0.357
273	-0.367
274	-0.368
274	-0.371
275	-0.371
275	-0.361
276	-0.367
276	-0.359
277	-0.359
277	-0.371
278	-0.383
278	-0.371
278	-0.365
279	-0.367
279	-0.375
280	-0.376
280	-0.381
281	-0.376
281	-0.381
282	-0.376
282	-0.375
283	-0.365
283	-0.369
284	-0.363
284	-0.356
285	-0.352
285	-0.346
285	-0.341
286	-0.342
286	-0.338
287	-0.338
287	-0.324
288	-0.319
288	-0.326
289	-0.341
289	-0.349
290	-0.34
290	-0.342
291	-0.337
291	-0.334
292	-0.341
292	-0.346
292	-0.35
293	-0.355
293	-0.344
294	-0.333
294	-0.329
295	-0.326
295	-0.323
296	-0.325
296	-0.322
297	-0.315
297	-0.302
298	-0.295
298	-0.303
298	-0.292
299	-0.284
299	-0.282
300	-0.28
300	-0.277
301	-0.273
301	-0.272
302	-0.281
302	-0.288
303	-0.276
303	-0.258
304	-0.262
304	-0.263
305	-0.263
305	-0.258
305	-0.254
306	-0.24
306	-0.235
307	-0.221
307	-0.221
308	-0.236
308	-0.238
309	-0.242
309	-0.233
310	-0.224
310	-0.223
311	-0.216
311	-0.223
311	-0.225
312	-0.222
312	-0.223
313	-0.209
313	-0.21
314	-0.204
314	-0.208
315	-0.209
315	-0.208
316	-0.205
316	-0.199
317	-0.192
317	-0.185
318	-0.177
318	-0.175
318	-0.171
319	-0.161
319	-0.158
320	-0.153
320	-0.152
321	-0.157
321	-0.158
322	-0.151
322	-0.151
323	-0.15
323	-0.145
324	-0.139
324	-0.134
324	-0.127
325	-0.12
325	-0.107
326	-0.095
326	-0.08
327	-0.066
327	-0.048
328	-0.027
328	-0.013
329	0.001
329	0.018
330	0.041
330	0.065
330	0.082
331	0.103
331	0.125
332	0.141
332	0.156
333	0.17
333	0.187
334	0.201
334	0.21
335	0.221
335	0.23
336	0.239
336	0.247
336	0.252
337	0.259
337	0.264
338	0.269
338	0.271
339	0.275
339	0.279
340	0.281
340	0.283
341	0.285
341	0.286
342	0.289
342	0.29
342	0.292
343	0.293
343	0.295
344	0.295
344	0.296
345	0.297
345	0.297
346	0.297
346	0.298
347	0.298
347	0.298
348	0.298
348	0.298
348	0.298
349	0.297
349	0.298
350	0.297
350	0.297
351	0.297
351	0.297
352	0.297
352	0.297
353	0.297
353	0.296
354	0.296
354	0.296
354	0.296
355	0.296
355	0.296
356	0.295
356	0.295
357	0.294
357	0.293
358	0.293
358	0.293
359	0.293
359	0.292
360	0.292
360	0.292
360	0.292
361	0.291
361	0.291
362	0.292
362	0.291
363	0.291
363	0.291
364	0.291
364	0.29
365	0.29
365	0.29
366	0.29
366	0.29
366	0.29
367	0.289
367	0.289
368	0.289
368	0.289
369	0.289
369	0.289
370	0.288
370	0.288
371	0.288
371	0.288
372	0.287
372	0.287
372	0.287
373	0.287
373	0.286
374	0.286
374	0.286
375	0.286
375	0.286
376	0.285
376	0.285
377	0.285
377	0.285
378	0.285
378	0.285
378	0.285
379	0.284
379	0.284
380	0.284
380	0.283
381	0.283
381	0.283
382	0.283
382	0.282
383	0.282
383	0.282
383	0.281
384	0.281
384	0.281
385	0.281
385	0.281
386	0.281
386	0.28
387	0.28
387	0.28
388	0.28
388	0.279
389	0.279
389	0.279
389	0.279
390	0.279
390	0.279
391	0.278
391	0.278
392	0.278
392	0.277
393	0.277
393	0.277
394	0.277
394	0.276
394	0.276
395	0.276
395	0.276
396	0.275
396	0.275
397	0.275
397	0.275
398	0.275
398	0.275
399	0.275
399	0.274
400	0.274
400	0.273
400	0.273
401	0.273
401	0.273
402	0.272
402	0.272
403	0.271
403	0.271
404	0.271
404	0.271
405	0.27
405	0.27
405	0.27
406	0.27
406	0.27
407	0.269
407	0.269
408	0.269
408	0.269
409	0.269
409	0.269
410	0.268
410	0.268
411	0.268
411	0.268
411	0.268
412	0.268
412	0.268
413	0.268
413	0.267
414	0.267
414	0.267
415	0.267
415	0.267
416	0.266
416	0.266
416	0.266
417	0.266
417	0.266
418	0.266
418	0.266
419	0.266
419	0.266
420	0.266
420	0.266
421	0.265
421	0.265
421	0.265
422	0.265
422	0.265
423	0.265
423	0.265
424	0.264
424	0.264
425	0.264
425	0.264
426	0.264
426	0.264
427	0.263
427	0.263
427	0.263
428	0.263
428	0.263
429	0.263
429	0.263
430	0.263
430	0.262
431	0.262
431	0.262
432	0.262
432	0.262
432	0.262
433	0.262
433	0.261
434	0.261
434	0.261
435	0.261
435	0.261
436	0.261
436	0.261
437	0.261
437	0.261
437	0.261
438	0.261
438	0.261
439	0.261
439	0.261
440	0.26
440	0.26
441	0.26
441	0.26
442	0.259
442	0.259
442	0.259
443	0.259
443	0.259
444	0.259
444	0.259
445	0.259
445	0.259
446	0.259
446	0.259
447	0.259
447	0.259
447	0.26
448	0.26
448	0.26
449	0.26
449	0.26
450	0.26
450	0.26
451	0.26
451	0.26
452	0.26
452	0.26
452	0.26
453	0.26
453	0.26
454	0.26
454	0.259
455	0.259
455	0.259
456	0.259
456	0.259
457	0.259
457	0.259
458	0.259
458	0.259
458	0.26
459	0.26
459	0.26
460	0.26
460	0.26
461	0.26
461	0.26
462	0.261
462	0.261
463	0.262
463	0.262
463	0.262
464	0.262
464	0.262
465	0.263
465	0.263
466	0.263
466	0.264
467	0.264
467	0.264
467	0.265
468	0.265
468	0.265
469	0.266
469	0.267
470	0.267
470	0.267
471	0.268
471	0.268
472	0.268
472	0.268
472	0.269
473	0.269
473	0.27
474	0.27
474	0.27
475	0.271
475	0.271
476	0.272
476	0.272
477	0.273
477	0.273
477	0.274
478	0.275
478	0.275
479	0.276
479	0.277
480	0.277
480	0.278
481	0.279
481	0.28
482	0.281
482	0.281
482	0.282
483	0.283
483	0.283
484	0.284
484	0.284
485	0.285
485	0.286
486	0.286
486	0.287
487	0.288
487	0.289
487	0.29
488	0.291
488	0.293
489	0.295
489	0.297
490	0.298
490	0.299
491	0.301
491	0.302
492	0.304
492	0.305
492	0.307
493	0.308
493	0.31
494	0.311
494	0.313
495	0.314
495	0.316
496	0.317
496	0.319
496	0.321
497	0.323
497	0.325
498	0.327
498	0.329
499	0.331
499	0.333
500	0.336
500	0.338
501	0.34
501	0.342
501	0.343
502	0.345
502	0.347
503	0.348
503	0.35
504	0.352
504	0.354
505	0.356
505	0.359
506	0.361
506	0.363
506	0.365
507	0.367
507	0.37
508	0.372
508	0.374
509	0.376
509	0.378
510	0.38
510	0.382
511	0.385
511	0.386
511	0.388
512	0.39
512	0.392
513	0.394
513	0.396
514	0.398
514	0.4
515	0.402
515	0.404
515	0.405
516	0.407
516	0.41
517	0.411
517	0.413
518	0.414
518	0.416
519	0.418
519	0.42
520	0.421
520	0.423
520	0.425
521	0.426
521	0.428
522	0.429
522	0.43
523	0.432
523	0.433
524	0.434
524	0.435
524	0.436
525	0.436
525	0.437
526	0.437
526	0.438
527	0.439
527	0.439
528	0.44
528	0.44
529	0.441
529	0.441
529	0.441
530	0.441
530	0.441
531	0.441
531	0.441
532	0.44
532	0.44
533	0.44
533	0.44
533	0.439
534	0.439
534	0.438
535	0.438
535	0.438
536	0.437
536	0.436
537	0.435
537	0.435
538	0.434
538	0.433
538	0.432
539	0.431
539	0.43
540	0.428
540	0.427
541	0.426
541	0.425
542	0.423
542	0.421
542	0.42
543	0.418
543	0.417
544	0.415
544	0.413
545	0.412
545	0.41
546	0.409
546	0.407
547	0.406
547	0.405
547	0.403
548	0.402
548	0.4
549	0.399
549	0.397
550	0.395
550	0.394
551	0.392
551	0.39
551	0.389
552	0.387
552	0.386
553	0.384
553	0.382
554	0.381
554	0.379
555	0.378
555	0.376
556	0.374
556	0.372
556	0.371
557	0.369
557	0.368
558	0.366
558	0.364
559	0.362
559	0.36
560	0.359
560	0.357
560	0.356
561	0.354
561	0.352
562	0.351
562	0.349
563	0.347
563	0.345
564	0.344
564	0.342
564	0.34
565	0.339
565	0.337
566	0.335
566	0.333
567	0.331
567	0.329
568	0.327
568	0.325
568	0.324
569	0.322
569	0.32
570	0.318
570	0.316
571	0.315
571	0.314
572	0.312
572	0.311
573	0.309
573	0.308
573	0.306
574	0.305
574	0.304
575	0.303
575	0.302
576	0.3
576	0.299
577	0.298
577	0.297
577	0.297
578	0.296
578	0.295
579	0.294
579	0.293
580	0.292
580	0.29
581	0.289
581	0.288
581	0.287
582	0.286
582	0.285
583	0.284
583	0.283
584	0.281
584	0.28
585	0.28
585	0.279
585	0.278
586	0.277
586	0.277
587	0.276
587	0.275
588	0.275
588	0.274
589	0.274
589	0.273
590	0.272
590	0.272
590	0.272
591	0.271
591	0.27
592	0.269
592	0.268
593	0.267
593	0.266
594	0.265
594	0.265
594	0.264
595	0.263
595	0.263
596	0.262
596	0.262
597	0.262
597	0.261
598	0.26
598	0.26
598	0.259
599	0.259
599	0.258
600	0.257
600	0.256
601	0.255
601	0.254
602	0.253
602	0.252
602	0.252
603	0.251
603	0.251
604	0.251
604	0.251
605	0.25
605	0.25
606	0.249
606	0.248
606	0.248
607	0.247
607	0.246
608	0.245
608	0.244
609	0.244
609	0.243
610	0.242
610	0.242
610	0.242
611	0.242
611	0.242
612	0.242
612	0.241
613	0.241
613	0.24
614	0.239
614	0.238
614	0.237
615	0.236
615	0.235
616	0.234
616	0.233
617	0.232
617	0.231
618	0.23
618	0.23
618	0.229
619	0.229
619	0.229
620	0.228
620	0.228
621	0.227
621	0.227
622	0.226
622	0.225
622	0.224
623	0.224
623	0.224
624	0.223
624	0.222
625	0.222
625	0.221
626	0.221
626	0.22
626	0.22
627	0.22
627	0.219
628	0.218
628	0.216
629	0.215
629	0.214
630	0.212
630	0.211
630	0.209
631	0.207
631	0.205
632	0.203
632	0.201
633	0.199
633	0.197
634	0.194
634	0.192
634	0.189
635	0.186
635	0.183
636	0.18
636	0.177
637	0.173
637	0.17
638	0.166
638	0.162
638	0.158
639	0.154
639	0.15
640	0.146
640	0.142
641	0.138
641	0.134
642	0.13
642	0.126
642	0.122
643	0.118
643	0.113
644	0.109
644	0.104
645	0.099
645	0.093
646	0.088
646	0.083
646	0.077
647	0.072
647	0.066
648	0.061
648	0.055
649	0.048
649	0.042
650	0.036
650	0.03
650	0.024
651	0.016
651	0.006
652	-0.006
652	-0.018
653	-0.029
653	-0.038
653	-0.035
654	-0.018
654	-0.008
655	-0.01
655	-0.014
656	-0.017
656	-0.021
657	-0.024
657	-0.026
657	-0.03
658	-0.034
658	-0.056
659	-0.124
659	-0.209
660	-0.248
660	-0.271
661	-0.297
661	-0.326
661	-0.359
662	-0.393
662	-0.43
663	-0.47
663	-0.514
664	-0.562
664	-0.615
665	-0.67
665	-0.733
665	-0.793
666	-0.853
666	-0.919
667	-0.988
667	-1.057
668	-1.133
668	-1.209
669	-1.288
669	-1.367
669	-1.451
670	-1.532
670	-1.605
671	-1.828
671	-2.049
672	-2.255
672	-2.433
672	-2.555
673	-2.642
673	-2.716
674	-2.742
674	-2.758
675	-2.781
675	-2.916
676	-3.091
676	-3.038
676	-2.808
677	-2.594
677	-2.414
678	-2.202
678	-1.797
679	-1.599
679	-1.484
680	-1.394
680	-1.314
680	-1.246
681	-1.201
681	-1.142
682	-1.1
682	-1.061
683	-1.024
683	-1.004
684	-0.979
684	-0.956
684	-0.93
685	-0.9
685	-0.875
686	-0.847
686	-0.826
687	-0.797
687	-0.779
687	-0.755
688	-0.727
688	-0.701
689	-0.679
689	-0.663
690	-0.642
690	-0.627
691	-0.62
691	-0.626
691	-0.639
692	-0.629
692	-0.619
693	-0.611
693	-0.617
694	-0.61
694	-0.599
695	-0.6
695	-0.594
695	-0.576
696	-0.57
696	-0.545
697	-0.545
697	-0.557
698	-0.561
698	-0.546
698	-0.555
699	-0.558
699	-0.557
700	-0.544
700	-0.556
701	-0.551
701	-0.554
702	-0.552
702	-0.54
702	-0.529
703	-0.521
703	-0.515
704	-0.51
704	-0.51
705	-0.521
705	-0.514
705	-0.502
706	-0.503
706	-0.498
707	-0.501
707	-0.494
708	-0.494
708	-0.484
709	-0.484
709	-0.484
709	-0.475
710	-0.48
710	-0.486
711	-0.479
711	-0.48
712	-0.477
712	-0.493
713	-0.491
713	-0.5
713	-0.491
714	-0.487
714	-0.486
715	-0.478
715	-0.468
716	-0.475
716	-0.476
716	-0.47
717	-0.467
717	-0.47
718	-0.46
718	-0.464
719	-0.469
719	-0.47
720	-0.465
720	-0.47
720	-0.463
721	-0.454
721	-0.452
722	-0.439
722	-0.429
723	-0.424
723	-0.422
723	-0.411
724	-0.414
724	-0.421
725	-0.424
725	-0.432
726	-0.441
726	-0.446
727	-0.455
727	-0.469
727	-0.479
728	-0.483
728	-0.49
729	-0.49
729	-0.491
730	-0.493
730	-0.485
730	-0.474
731	-0.458
731	-0.463
732	-0.469
732	-0.468
733	-0.464
733	-0.467
734	-0.458
734	-0.458
734	-0.451
735	-0.45
735	-0.45
736	-0.46
736	-0.45
737	-0.439
737	-0.438
737	-0.448
738	-0.445
738	-0.448
739	-0.447
739	-0.455
740	-0.455
740	-0.456
741	-0.453
741	-0.451
741	-0.452
742	-0.45
742	-0.451
743	-0.455
743	-0.461
744	-0.458
744	-0.452
744	-0.455
745	-0.462
745	-0.456
746	-0.455
746	-0.453
747	-0.452
747	-0.442
748	-0.43
748	-0.433
748	-0.434
749	-0.428
749	-0.426
750	-0.416
750	-0.416
751	-0.42
751	-0.428
751	-0.431
752	-0.434
752	-0.444
753	-0.441
753	-0.436
754	-0.445
754	-0.44
754	-0.452
755	-0.468
755	-0.478
756	-0.47
756	-0.468
757	-0.468
757	-0.464
758	-0.467
758	-0.463
758	-0.465
759	-0.471
759	-0.455
760	-0.446
760	-0.442
761	-0.447
761	-0.445
761	-0.439
762	-0.446
762	-0.446
763	-0.458
763	-0.452
764	-0.45
764	-0.457
764	-0.461
765	-0.451
765	-0.44
766	-0.446
766	-0.457
767	-0.471
767	-0.46
768	-0.45
768	-0.459
768	-0.462
769	-0.477
769	-0.48
770	-0.484
770	-0.495
771	-0.491
771	-0.491
771	-0.489
772	-0.496
772	-0.495
773	-0.492
773	-0.488
774	-0.487
774	-0.486
775	-0.491
775	-0.484
775	-0.491
776	-0.495
776	-0.486
777	-0.493
777	-0.515
778	-0.514
778	-0.535
778	-0.52
779	-0.541
779	-0.548
780	-0.561
780	-0.563
781	-0.572
781	-0.568
781	-0.582
782	-0.585
782	-0.589
783	-0.577
783	-0.581
784	-0.563
784	-0.551
784	-0.565
785	-0.57
785	-0.553
786	-0.559
786	-0.542
787	-0.524
787	-0.52
788	-0.524
788	-0.531
788	-0.541
789	-0.543
789	-0.521
790	-0.503
790	-0.507
791	-0.504
791	-0.513
791	-0.514
792	-0.51
792	-0.484
793	-0.47
793	-0.448
794	-0.45
794	-0.441
794	-0.449
795	-0.446
795	-0.442
796	-0.429
796	-0.437
797	-0.434
797	-0.446
797	-0.456
798	-0.468
798	-0.46
799	-0.473
799	-0.462
800	-0.471
800	-0.461
801	-0.467
801	-0.459
801	-0.465
802	-0.475
802	-0.475
803	-0.477
803	-0.489
804	-0.485
804	-0.493
804	-0.478
805	-0.489
805	-0.477
806	-0.476
806	-0.461
807	-0.457
807	-0.44
807	-0.427
808	-0.421
808	-0.414
809	-0.398
809	-0.41
810	-0.407
810	-0.402
810	-0.404
811	-0.413
811	-0.405
812	-0.409
812	-0.412
813	-0.415
813	-0.414
813	-0.423
814	-0.424
814	-0.426
815	-0.431
815	-0.43
816	-0.422
816	-0.428
817	-0.434
817	-0.449
817	-0.462
818	-0.466
818	-0.463
819	-0.455
819	-0.46
820	-0.471
820	-0.464
820	-0.469
821	-0.466
821	-0.453
822	-0.426
822	-0.404
823	-0.402
823	-0.407
823	-0.404
824	-0.393
824	-0.393
825	-0.392
825	-0.38
826	-0.377
826	-0.383
826	-0.393
827	-0.389
827	-0.39
828	-0.368
828	-0.37
829	-0.363
829	-0.351
829	-0.345
830	-0.351
830	-0.347
831	-0.342
831	-0.335
832	-0.337
832	-0.328
832	-0.341
833	-0.332
833	-0.334
834	-0.331
834	-0.337
835	-0.328
835	-0.325
835	-0.324
836	-0.318
836	-0.313
837	-0.311
837	-0.3
838	-0.296
838	-0.286
839	-0.276
839	-0.266
839	-0.258
840	-0.251
840	-0.248
841	-0.238
841	-0.233
842	-0.23
842	-0.224
842	-0.219
843	-0.217
843	-0.216
844	-0.209
844	-0.207
845	-0.201
845	-0.192
845	-0.184
846	-0.175
846	-0.164
847	-0.157
847	-0.151
848	-0.142
848	-0.136
848	-0.124
849	-0.118
849	-0.11
850	-0.102
850	-0.098
851	-0.095
851	-0.09
851	-0.084
852	-0.073
852	-0.067
853	-0.061
853	-0.058
854	-0.049
854	-0.042
854	-0.036
855	-0.029
855	-0.025
856	-0.019
856	-0.014
857	-0.01
857	-0.004
857	0.003
858	0.008
858	0.009
859	0.014
859	0.019
860	0.023
860	0.03
860	0.033
861	0.037
861	0.04
862	0.043
862	0.047
863	0.05
863	0.055
863	0.057
864	0.058
864	0.061
865	0.064
865	0.065
866	0.068
866	0.069
866	0.071
867	0.072
867	0.074
868	0.075
868	0.077
869	0.079
869	0.08
869	0.081
870	0.082
870	0.083
871	0.083
871	0.084
872	0.084
872	0.085
872	0.084
873	0.084
873	0.084
874	0.085
874	0.085
875	0.084
875	0.084
875	0.083
876	0.083
876	0.082
877	0.081
877	0.081
878	0.08
878	0.08
878	0.078
879	0.077
879	0.077
880	0.076
880	0.076
881	0.076
881	0.076
881	0.075
882	0.075
882	0.074
883	0.073
883	0.072
884	0.072
884	0.071
884	0.071
885	0.07
885	0.069
886	0.069
886	0.068
887	0.068
887	0.068
887	0.068
888	0.069
888	0.069
889	0.07
889	0.071
890	0.072
890	0.073
890	0.073
891	0.074
891	0.074
892	0.075
892	0.075
893	0.074
893	0.074
893	0.074
894	0.073
894	0.072
895	0.071
895	0.07
895	0.07
896	0.069
896	0.068
897	0.067
897	0.066
898	0.065
898	0.065
898	0.064
899	0.064
899	0.064
900	0.064
900	0.064
901	0.065
901	0.065
901	0.065
902	0.065
902	0.065
903	0.065
903	0.064
904	0.064
904	0.065
904	0.065
905	0.065
905	0.065
906	0.065
906	0.065
907	0.064
907	0.064
907	0.063
908	0.063
908	0.062
909	0.061
909	0.06
910	0.059
910	0.058
910	0.057
911	0.057
911	0.057
912	0.057
912	0.057
913	0.058
913	0.058
913	0.059
914	0.06
914	0.061
915	0.062
915	0.062
916	0.063
916	0.064
916	0.064
917	0.065
917	0.065
918	0.065
918	0.065
918	0.065
919	0.065
919	0.065
920	0.065
920	0.066
921	0.066
921	0.067
921	0.067
922	0.067
922	0.068
923	0.068
923	0.068
924	0.069
924	0.069
924	0.069
925	0.069
925	0.068
926	0.067
926	0.067
927	0.066
927	0.066
927	0.065
928	0.064
928	0.064
929	0.063
929	0.062
930	0.062
930	0.062
930	0.062
931	0.062
931	0.062
932	0.062
932	0.062
933	0.061
933	0.061
933	0.06
934	0.06
934	0.059
935	0.059
935	0.058
935	0.057
936	0.057
936	0.056
937	0.055
937	0.055
938	0.055
938	0.055
938	0.055
939	0.056
939	0.056
940	0.055
940	0.055
941	0.055
941	0.055
941	0.056
942	0.056
942	0.055
943	0.055
943	0.054
944	0.053
944	0.053
944	0.053
945	0.053
945	0.052
946	0.051
946	0.05
946	0.05
947	0.05
947	0.05
948	0.05
948	0.051
949	0.051
949	0.052
949	0.052
950	0.053
950	0.053
951	0.054
951	0.055
952	0.055
952	0.056
952	0.057
953	0.057
953	0.058
954	0.058
954	0.059
955	0.06
955	0.061
955	0.061
956	0.061
956	0.062
957	0.062
957	0.062
957	0.062
958	0.062
958	0.063
959	0.063
959	0.064
960	0.064
960	0.064
960	0.064
961	0.063
961	0.063
962	0.063
962	0.062
963	0.061
963	0.061
963	0.06
964	0.06
964	0.059
965	0.059
965	0.058
966	0.058
966	0.058
966	0.058
967	0.057
967	0.057
968	0.056
968	0.056
968	0.056
969	0.055
969	0.055
970	0.055
970	0.055
971	0.055
971	0.055
971	0.055
972	0.055
972	0.054
973	0.054
973	0.053
974	0.053
974	0.052
974	0.052
975	0.051
975	0.05
976	0.049
976	0.049
976	0.048
977	0.048
977	0.047
978	0.047
978	0.047
979	0.047
979	0.047
979	0.047
980	0.048
980	0.048
981	0.049
981	0.049
982	0.049
982	0.049
982	0.049
983	0.048
983	0.048
984	0.048
984	0.047
984	0.047
985	0.047
985	0.047
986	0.048
986	0.048
987	0.048
987	0.049
987	0.05
988	0.05
988	0.05
989	0.05
989	0.05
990	0.05
990	0.05
990	0.05
991	0.049
991	0.049
992	0.048
992	0.048
992	0.047
993	0.047
993	0.047
994	0.046
994	0.046
995	0.046
995	0.046
995	0.046
996	0.046
996	0.046
997	0.046
997	0.047
997	0.047
998	0.047
998	0.047
999	0.047
999	0.047
1000	0.047
1000	0.047
1000	0.047
1001	0.047
1001	0.047
1002	0.047
1002	0.047
1003	0.046
1003	0.046
1003	0.045
1004	0.044
1004	0.043
1005	0.043
1005	0.042
1005	0.041
1006	0.04
1006	0.039
1007	0.038
1007	0.038
1008	0.037
1008	0.037
1008	0.036
1009	0.036
1009	0.036
1010	0.036
1010	0.036
1010	0.036
1011	0.036
1011	0.035
1012	0.034
1012	0.034
1013	0.033
1013	0.032
1013	0.031
1014	0.03
1014	0.029
1015	0.028
1015	0.027
1016	0.026
1016	0.026
1016	0.026
1017	0.025
1017	0.025
1018	0.025
1018	0.024
1018	0.024
1019	0.024
1019	0.023
1020	0.022
1020	0.021
1021	0.02
1021	0.019
1021	0.018
1022	0.017
1022	0.016
1023	0.015
1023	0.014
1023	0.014
1024	0.014
1024	0.014
1025	0.014
1025	0.014
1026	0.015
1026	0.015
1026	0.016
1027	0.016
1027	0.017
1028	0.017
1028	0.017
1028	0.017
1029	0.017
1029	0.017
1030	0.017
1030	0.016
1031	0.016
1031	0.017
1031	0.017
1032	0.017
1032	0.017
1033	0.018
1033	0.018
1033	0.019
1034	0.02
1034	0.02
1035	0.021
1035	0.021
1036	0.021
1036	0.021
1036	0.021
1037	0.02
1037	0.02
1038	0.02
1038	0.019
1039	0.019
1039	0.019
1039	0.019
1040	0.019
1040	0.02
1041	0.02
1041	0.021
1041	0.021
1042	0.022
1042	0.022
1043	0.022
1043	0.022
1044	0.022
1044	0.022
1044	0.022
1045	0.021
1045	0.021
1046	0.021
1046	0.021
1046	0.021
1047	0.022
1047	0.022
1048	0.022
1048	0.023
1049	0.023
1049	0.024
1049	0.024
1050	0.024
1050	0.025
1051	0.025
1051	0.025
1051	0.026
1052	0.026
1052	0.026
1053	0.026
1053	0.026
1053	0.026
1054	0.026
1054	0.025
1055	0.025
1055	0.024
1056	0.023
1056	0.022
1056	0.021
1057	0.02
1057	0.02
1058	0.019
1058	0.018
1058	0.018
1059	0.017
1059	0.016
1060	0.016
1060	0.016
1061	0.016
1061	0.016
1061	0.016
1062	0.016
1062	0.016
1063	0.016
1063	0.016
1063	0.017
1064	0.017
1064	0.017
1065	0.016
1065	0.016
1066	0.015
1066	0.015
1066	0.014
1067	0.014
1067	0.014
1068	0.013
1068	0.013
1068	0.012
1069	0.012
1069	0.012
1070	0.012
1070	0.012
1071	0.012
1071	0.012
1071	0.012
1072	0.012
1072	0.012
1073	0.011
1073	0.012
1073	0.012
1074	0.012
1074	0.012
1075	0.011
1075	0.011
1076	0.01
1076	0.01
1076	0.01
1077	0.01
1077	0.009
1078	0.009
1078	0.008
1078	0.007
1079	0.006
1079	0.006
1080	0.005
1080	0.004
1080	0.004
1081	0.003
1081	0.002
1082	0.002
1082	0.001
1083	0.001
1083	0
1083	-0
1084	-0.001
1084	-0.001
1085	-0.002
1085	-0.002
1085	-0.002
1086	-0.002
1086	-0.002
1087	-0.002
1087	-0.002
1088	-0.003
1088	-0.002
1088	-0.003
1089	-0.003
1089	-0.003
1090	-0.003
1090	-0.003
1090	-0.004
1091	-0.004
1091	-0.004
1092	-0.004
1092	-0.003
1092	-0.004
1093	-0.004
1093	-0.003
1094	-0.003
1094	-0.004
1095	-0.004
1095	-0.004
1095	-0.004
1096	-0.004
1096	-0.004
1097	-0.004
1097	-0.004
1097	-0.004
1098	-0.005
1098	-0.005
1099	-0.005
1099	-0.004
1100	-0.005
1100	-0.006
1100	-0.007
1101	-0.008
1101	-0.01
1102	-0.01
1102	-0.011
1102	-0.011
1103	-0.012
1103	-0.014
1104	-0.015
1104	-0.016
1104	-0.017
1105	-0.018
1105	-0.019
1106	-0.02
1106	-0.023
1107	-0.025
1107	-0.028
1107	-0.031
1108	-0.032
1108	-0.033
1109	-0.035
1109	-0.037
1109	-0.04
1110	-0.04
1110	-0.044
1111	-0.045
1111	-0.048
