Data from reversibility-20sec_Absorbance__984__000000000000984.txt Node

Date: Tue Dec 05 17:41:06 CET 2023
User: Marek
Spectrometer: MAYP115816
Trigger mode: 0
Integration Time (sec): 2.000000E-1
Scans to average: 10
Electric dark correction enabled: true
Nonlinearity correction enabled: true
Boxcar width: 5
XAxis mode: Wavelengths
Number of Pixels in Spectrum: 2068
>>>>>Begin Spectral Data<<<<<
199	-0.066
199	-0.034
200	0.048
200	0.119
201	0.16
201	0.18
202	0.198
202	0.211
203	0.221
203	0.228
204	0.244
204	0.265
205	0.283
205	0.293
205	0.289
206	0.285
206	0.285
207	0.288
207	0.285
208	0.283
208	0.279
209	0.283
209	0.279
210	0.279
210	0.276
211	0.278
211	0.282
212	0.278
212	0.282
213	0.286
213	0.289
213	0.286
214	0.287
214	0.289
215	0.294
215	0.291
216	0.29
216	0.288
217	0.293
217	0.291
218	0.289
218	0.291
219	0.3
219	0.3
220	0.297
220	0.288
221	0.29
221	0.291
221	0.296
222	0.302
222	0.304
223	0.311
223	0.314
224	0.318
224	0.327
225	0.34
225	0.353
226	0.36
226	0.372
227	0.381
227	0.387
228	0.4
228	0.412
229	0.427
229	0.45
229	0.471
230	0.495
230	0.527
231	0.563
231	0.603
232	0.637
232	0.686
233	0.73
233	0.782
234	0.83
234	0.884
235	0.935
235	0.99
236	1.044
236	1.096
236	1.15
237	1.21
237	1.256
238	1.309
238	1.36
239	1.418
239	1.461
240	1.51
240	1.546
241	1.583
241	1.623
242	1.657
242	1.694
243	1.73
243	1.758
243	1.785
244	1.806
244	1.835
245	1.855
245	1.889
246	1.91
246	1.934
247	1.95
247	1.967
248	1.988
248	2.011
249	2.025
249	2.041
250	2.051
250	2.068
250	2.078
251	2.094
251	2.106
252	2.123
252	2.138
253	2.15
253	2.152
254	2.163
254	2.178
255	2.185
255	2.192
256	2.196
256	2.2
257	2.204
257	2.207
258	2.211
258	2.217
258	2.222
259	2.226
259	2.224
260	2.228
260	2.235
261	2.242
261	2.25
262	2.256
262	2.259
263	2.264
263	2.263
264	2.267
264	2.274
265	2.281
265	2.281
265	2.285
266	2.29
266	2.295
267	2.291
267	2.297
268	2.301
268	2.307
269	2.318
269	2.318
270	2.319
270	2.319
271	2.314
271	2.315
272	2.311
272	2.317
272	2.317
273	2.312
273	2.306
274	2.302
274	2.302
275	2.298
275	2.302
276	2.303
276	2.301
277	2.303
277	2.293
278	2.287
278	2.283
278	2.278
279	2.27
279	2.257
280	2.248
280	2.23
281	2.208
281	2.179
282	2.149
282	2.121
283	2.092
283	2.06
284	2.029
284	2
285	1.971
285	1.943
285	1.919
286	1.897
286	1.878
287	1.86
287	1.847
288	1.835
288	1.825
289	1.817
289	1.807
290	1.8
290	1.794
291	1.79
291	1.786
292	1.783
292	1.78
292	1.776
293	1.772
293	1.769
294	1.765
294	1.763
295	1.762
295	1.758
296	1.754
296	1.751
297	1.748
297	1.746
298	1.743
298	1.739
298	1.737
299	1.735
299	1.733
300	1.73
300	1.727
301	1.724
301	1.723
302	1.72
302	1.717
303	1.715
303	1.714
304	1.711
304	1.709
305	1.706
305	1.704
305	1.701
306	1.699
306	1.695
307	1.693
307	1.689
308	1.686
308	1.683
309	1.68
309	1.676
310	1.673
310	1.671
311	1.668
311	1.664
311	1.661
312	1.658
312	1.654
313	1.65
313	1.646
314	1.642
314	1.637
315	1.632
315	1.627
316	1.622
316	1.616
317	1.611
317	1.605
318	1.6
318	1.594
318	1.587
319	1.581
319	1.575
320	1.569
320	1.561
321	1.555
321	1.547
322	1.539
322	1.531
323	1.523
323	1.516
324	1.508
324	1.501
324	1.492
325	1.484
325	1.477
326	1.469
326	1.462
327	1.454
327	1.447
328	1.44
328	1.432
329	1.424
329	1.415
330	1.407
330	1.399
330	1.39
331	1.382
331	1.374
332	1.365
332	1.357
333	1.348
333	1.34
334	1.332
334	1.324
335	1.316
335	1.307
336	1.3
336	1.292
336	1.284
337	1.277
337	1.27
338	1.261
338	1.254
339	1.247
339	1.24
340	1.233
340	1.226
341	1.219
341	1.212
342	1.205
342	1.199
342	1.192
343	1.186
343	1.18
344	1.175
344	1.169
345	1.163
345	1.157
346	1.152
346	1.147
347	1.142
347	1.137
348	1.132
348	1.128
348	1.123
349	1.118
349	1.114
350	1.109
350	1.105
351	1.101
351	1.097
352	1.094
352	1.09
353	1.086
353	1.082
354	1.078
354	1.073
354	1.068
355	1.063
355	1.056
356	1.05
356	1.043
357	1.036
357	1.03
358	1.026
358	1.023
359	1.021
359	1.019
360	1.019
360	1.018
360	1.018
361	1.019
361	1.019
362	1.019
362	1.018
363	1.017
363	1.014
364	1.01
364	1.006
365	1.003
365	1
366	0.997
366	0.994
366	0.991
367	0.988
367	0.986
368	0.984
368	0.982
369	0.98
369	0.978
370	0.976
370	0.974
371	0.971
371	0.969
372	0.967
372	0.966
372	0.964
373	0.962
373	0.96
374	0.959
374	0.957
375	0.955
375	0.954
376	0.952
376	0.95
377	0.949
377	0.948
378	0.946
378	0.945
378	0.944
379	0.943
379	0.941
380	0.94
380	0.939
381	0.938
381	0.937
382	0.936
382	0.935
383	0.934
383	0.933
383	0.931
384	0.93
384	0.929
385	0.927
385	0.927
386	0.925
386	0.925
387	0.924
387	0.924
388	0.922
388	0.921
389	0.92
389	0.919
389	0.918
390	0.917
390	0.916
391	0.916
391	0.915
392	0.915
392	0.914
393	0.913
393	0.913
394	0.912
394	0.912
394	0.911
395	0.91
395	0.909
396	0.907
396	0.906
397	0.904
397	0.904
398	0.903
398	0.902
399	0.901
399	0.901
400	0.9
400	0.9
400	0.899
401	0.899
401	0.898
402	0.896
402	0.895
403	0.893
403	0.893
404	0.893
404	0.892
405	0.892
405	0.891
405	0.891
406	0.89
406	0.889
407	0.889
407	0.889
408	0.889
408	0.888
409	0.887
409	0.885
410	0.884
410	0.883
411	0.883
411	0.882
411	0.882
412	0.881
412	0.88
413	0.879
413	0.878
414	0.877
414	0.877
415	0.876
415	0.875
416	0.875
416	0.874
416	0.873
417	0.872
417	0.872
418	0.87
418	0.869
419	0.868
419	0.866
420	0.866
420	0.866
421	0.866
421	0.866
421	0.865
422	0.865
422	0.864
423	0.864
423	0.865
424	0.865
424	0.865
425	0.864
425	0.863
426	0.862
426	0.861
427	0.859
427	0.858
427	0.858
428	0.856
428	0.856
429	0.856
429	0.856
430	0.856
430	0.856
431	0.855
431	0.855
432	0.856
432	0.856
432	0.856
433	0.855
433	0.854
434	0.853
434	0.852
435	0.851
435	0.851
436	0.851
436	0.85
437	0.849
437	0.849
437	0.849
438	0.849
438	0.848
439	0.847
439	0.847
440	0.846
440	0.845
441	0.844
441	0.844
442	0.844
442	0.844
442	0.843
443	0.843
443	0.843
444	0.843
444	0.842
445	0.842
445	0.843
446	0.842
446	0.842
447	0.841
447	0.841
447	0.841
448	0.841
448	0.841
449	0.841
449	0.841
450	0.841
450	0.841
451	0.841
451	0.841
452	0.841
452	0.841
452	0.84
453	0.84
453	0.84
454	0.84
454	0.839
455	0.838
455	0.838
456	0.838
456	0.837
457	0.837
457	0.837
458	0.836
458	0.836
458	0.835
459	0.835
459	0.836
460	0.836
460	0.837
461	0.836
461	0.836
462	0.835
462	0.835
463	0.834
463	0.834
463	0.834
464	0.834
464	0.834
465	0.834
465	0.834
466	0.834
466	0.834
467	0.835
467	0.835
467	0.836
468	0.836
468	0.836
469	0.836
469	0.835
470	0.834
470	0.834
471	0.834
471	0.833
472	0.833
472	0.833
472	0.832
473	0.833
473	0.833
474	0.834
474	0.834
475	0.835
475	0.835
476	0.836
476	0.837
477	0.837
477	0.838
477	0.838
478	0.838
478	0.839
479	0.839
479	0.839
480	0.839
480	0.841
481	0.841
481	0.842
482	0.842
482	0.842
482	0.843
483	0.843
483	0.842
484	0.844
484	0.847
485	0.848
485	0.849
486	0.85
486	0.852
487	0.853
487	0.854
487	0.856
488	0.858
488	0.86
489	0.86
489	0.86
490	0.86
490	0.86
491	0.861
491	0.861
492	0.862
492	0.863
492	0.864
493	0.865
493	0.866
494	0.867
494	0.868
495	0.869
495	0.872
496	0.873
496	0.874
496	0.876
497	0.877
497	0.878
498	0.88
498	0.881
499	0.883
499	0.884
500	0.885
500	0.886
501	0.888
501	0.889
501	0.89
502	0.892
502	0.893
503	0.894
503	0.896
504	0.898
504	0.899
505	0.9
505	0.902
506	0.902
506	0.903
506	0.905
507	0.906
507	0.907
508	0.908
508	0.909
509	0.909
509	0.911
510	0.912
510	0.913
511	0.914
511	0.915
511	0.916
512	0.917
512	0.917
513	0.919
513	0.92
514	0.92
514	0.92
515	0.921
515	0.921
515	0.921
516	0.922
516	0.922
517	0.922
517	0.923
518	0.923
518	0.923
519	0.923
519	0.923
520	0.923
520	0.923
520	0.923
521	0.923
521	0.923
522	0.922
522	0.922
523	0.922
523	0.921
524	0.921
524	0.921
524	0.921
525	0.921
525	0.92
526	0.92
526	0.918
527	0.918
527	0.917
528	0.916
528	0.916
529	0.915
529	0.913
529	0.912
530	0.911
530	0.909
531	0.907
531	0.905
532	0.904
532	0.901
533	0.899
533	0.897
533	0.896
534	0.895
534	0.893
535	0.891
535	0.889
536	0.888
536	0.886
537	0.885
537	0.883
538	0.881
538	0.879
538	0.877
539	0.875
539	0.873
540	0.871
540	0.869
541	0.867
541	0.865
542	0.862
542	0.86
542	0.857
543	0.855
543	0.853
544	0.851
544	0.848
545	0.846
545	0.843
546	0.841
546	0.839
547	0.837
547	0.835
547	0.833
548	0.83
548	0.827
549	0.825
549	0.822
550	0.82
550	0.818
551	0.815
551	0.813
551	0.81
552	0.807
552	0.805
553	0.802
553	0.799
554	0.798
554	0.796
555	0.795
555	0.792
556	0.789
556	0.786
556	0.784
557	0.781
557	0.779
558	0.777
558	0.774
559	0.771
559	0.768
560	0.766
560	0.765
560	0.764
561	0.762
561	0.76
562	0.759
562	0.757
563	0.755
563	0.754
564	0.752
564	0.749
564	0.746
565	0.744
565	0.741
566	0.739
566	0.737
567	0.734
567	0.733
568	0.732
568	0.73
568	0.729
569	0.728
569	0.726
570	0.726
570	0.726
571	0.724
571	0.722
572	0.721
572	0.719
573	0.718
573	0.717
573	0.716
574	0.715
574	0.713
575	0.711
575	0.708
576	0.706
576	0.706
577	0.706
577	0.706
577	0.704
578	0.702
578	0.699
579	0.697
579	0.695
580	0.696
580	0.697
581	0.699
581	0.697
581	0.695
582	0.693
582	0.692
583	0.689
583	0.689
584	0.69
584	0.69
585	0.687
585	0.682
585	0.679
586	0.677
586	0.676
587	0.676
587	0.676
588	0.676
588	0.674
589	0.672
589	0.67
590	0.668
590	0.668
590	0.666
591	0.663
591	0.662
592	0.661
592	0.661
593	0.66
593	0.658
594	0.657
594	0.657
594	0.656
595	0.654
595	0.654
596	0.654
596	0.651
597	0.648
597	0.647
598	0.647
598	0.647
598	0.647
599	0.646
599	0.646
600	0.646
600	0.645
601	0.644
601	0.643
602	0.642
602	0.641
602	0.64
603	0.638
603	0.636
604	0.635
604	0.634
605	0.633
605	0.633
606	0.633
606	0.634
606	0.633
607	0.632
607	0.631
608	0.63
608	0.629
609	0.628
609	0.626
610	0.625
610	0.624
610	0.622
611	0.62
611	0.619
612	0.618
612	0.617
613	0.617
613	0.617
614	0.617
614	0.618
614	0.617
615	0.616
615	0.616
616	0.615
616	0.615
617	0.615
617	0.614
618	0.613
618	0.611
618	0.61
619	0.608
619	0.607
620	0.605
620	0.605
621	0.604
621	0.603
622	0.602
622	0.601
622	0.6
623	0.6
623	0.599
624	0.598
624	0.598
625	0.598
625	0.596
626	0.596
626	0.595
626	0.594
627	0.594
627	0.593
628	0.593
628	0.592
629	0.592
629	0.591
630	0.59
630	0.589
630	0.588
631	0.586
631	0.585
632	0.584
632	0.583
633	0.582
633	0.58
634	0.579
634	0.579
634	0.579
635	0.578
635	0.578
636	0.578
636	0.578
637	0.577
637	0.577
638	0.576
638	0.575
638	0.575
639	0.574
639	0.573
640	0.572
640	0.571
641	0.57
641	0.57
642	0.569
642	0.568
642	0.568
643	0.568
643	0.568
644	0.567
644	0.567
645	0.567
645	0.566
646	0.565
646	0.565
646	0.565
647	0.564
647	0.564
648	0.564
648	0.563
649	0.562
649	0.562
650	0.561
650	0.561
650	0.561
651	0.562
651	0.562
652	0.561
652	0.561
653	0.56
653	0.561
653	0.566
654	0.491
654	0.454
655	0.464
655	0.465
656	0.465
656	0.466
657	0.466
657	0.466
657	0.466
658	0.465
658	0.453
659	0.509
659	0.567
660	0.559
660	0.557
661	0.556
661	0.555
661	0.554
662	0.553
662	0.552
663	0.552
663	0.552
664	0.552
664	0.552
665	0.551
665	0.551
665	0.55
666	0.55
666	0.55
667	0.549
667	0.549
668	0.548
668	0.547
669	0.546
669	0.546
669	0.546
670	0.547
670	0.548
671	0.548
671	0.549
672	0.549
672	0.548
672	0.548
673	0.548
673	0.547
674	0.547
674	0.546
675	0.545
675	0.544
676	0.543
676	0.543
676	0.543
677	0.543
677	0.543
678	0.542
678	0.543
679	0.543
679	0.544
680	0.543
680	0.543
680	0.543
681	0.543
681	0.543
682	0.543
682	0.544
683	0.544
683	0.545
684	0.545
684	0.545
684	0.545
685	0.545
685	0.545
686	0.545
686	0.545
687	0.544
687	0.544
687	0.543
688	0.543
688	0.542
689	0.542
689	0.543
690	0.543
690	0.543
691	0.543
691	0.544
691	0.544
692	0.544
692	0.544
693	0.544
693	0.543
694	0.543
694	0.542
695	0.541
695	0.542
695	0.542
696	0.542
696	0.542
697	0.541
697	0.541
698	0.54
698	0.539
698	0.539
699	0.539
699	0.538
700	0.537
700	0.536
701	0.535
701	0.535
702	0.534
702	0.533
702	0.533
703	0.532
703	0.532
704	0.531
704	0.531
705	0.531
705	0.531
705	0.531
706	0.532
706	0.532
707	0.532
707	0.533
708	0.533
708	0.534
709	0.534
709	0.534
709	0.534
710	0.533
710	0.532
711	0.532
711	0.532
712	0.532
712	0.532
713	0.532
713	0.532
713	0.532
714	0.531
714	0.53
715	0.53
715	0.529
716	0.528
716	0.527
716	0.526
717	0.526
717	0.525
718	0.525
718	0.524
719	0.524
719	0.524
720	0.524
720	0.524
720	0.524
721	0.524
721	0.524
722	0.525
722	0.524
723	0.525
723	0.525
723	0.526
724	0.526
724	0.526
725	0.526
725	0.525
726	0.525
726	0.525
727	0.524
727	0.524
727	0.524
728	0.524
728	0.523
729	0.524
729	0.524
730	0.524
730	0.525
730	0.525
731	0.525
731	0.525
732	0.525
732	0.525
733	0.525
733	0.525
734	0.524
734	0.524
734	0.524
735	0.524
735	0.523
736	0.522
736	0.522
737	0.521
737	0.521
737	0.521
738	0.52
738	0.519
739	0.518
739	0.517
740	0.516
740	0.515
741	0.516
741	0.516
741	0.516
742	0.514
742	0.514
743	0.514
743	0.515
744	0.515
744	0.516
744	0.516
745	0.515
745	0.514
746	0.513
746	0.512
747	0.512
747	0.511
748	0.51
748	0.51
748	0.509
749	0.508
749	0.507
750	0.507
750	0.507
751	0.507
751	0.507
751	0.507
752	0.506
752	0.505
753	0.505
753	0.505
754	0.505
754	0.505
754	0.506
755	0.506
755	0.507
756	0.508
756	0.506
757	0.505
757	0.506
758	0.506
758	0.506
758	0.506
759	0.506
759	0.505
760	0.504
760	0.503
761	0.502
761	0.502
761	0.503
762	0.503
762	0.504
763	0.505
763	0.504
764	0.503
764	0.503
764	0.503
765	0.502
765	0.502
766	0.502
766	0.502
767	0.502
767	0.501
768	0.498
768	0.498
768	0.498
769	0.497
769	0.497
770	0.497
770	0.497
771	0.496
771	0.495
771	0.494
772	0.494
772	0.494
773	0.494
773	0.494
774	0.493
774	0.492
775	0.493
775	0.493
775	0.493
776	0.493
776	0.493
777	0.493
777	0.494
778	0.494
778	0.494
778	0.494
779	0.495
779	0.496
780	0.496
780	0.495
781	0.496
781	0.495
781	0.495
782	0.495
782	0.494
783	0.495
783	0.495
784	0.494
784	0.494
784	0.494
785	0.493
785	0.492
786	0.492
786	0.492
787	0.493
787	0.493
788	0.492
788	0.492
788	0.491
789	0.489
789	0.49
790	0.49
790	0.489
791	0.488
791	0.487
791	0.486
792	0.487
792	0.489
793	0.488
793	0.488
794	0.488
794	0.487
794	0.487
795	0.487
795	0.488
796	0.488
796	0.488
797	0.486
797	0.485
797	0.485
798	0.484
798	0.484
799	0.483
799	0.483
800	0.483
800	0.481
801	0.48
801	0.48
801	0.48
802	0.479
802	0.479
803	0.478
803	0.478
804	0.478
804	0.479
804	0.479
805	0.479
805	0.479
806	0.48
806	0.481
807	0.481
807	0.482
807	0.482
808	0.482
808	0.483
809	0.482
809	0.481
810	0.48
810	0.479
810	0.476
811	0.475
811	0.474
812	0.475
812	0.475
813	0.474
813	0.474
813	0.475
814	0.475
814	0.476
815	0.478
815	0.479
816	0.48
816	0.479
817	0.477
817	0.477
817	0.476
818	0.476
818	0.476
819	0.477
819	0.476
820	0.475
820	0.474
820	0.474
821	0.474
821	0.475
822	0.474
822	0.474
823	0.474
823	0.473
823	0.472
824	0.472
824	0.473
825	0.474
825	0.475
826	0.476
826	0.475
826	0.475
827	0.476
827	0.476
828	0.476
828	0.476
829	0.476
829	0.475
829	0.474
830	0.474
830	0.473
831	0.474
831	0.475
832	0.474
832	0.475
832	0.475
833	0.476
833	0.476
834	0.476
834	0.476
835	0.476
835	0.475
835	0.474
836	0.473
836	0.473
837	0.472
837	0.471
838	0.47
838	0.469
839	0.469
839	0.468
839	0.467
840	0.466
840	0.465
841	0.464
841	0.463
842	0.462
842	0.461
842	0.46
843	0.459
843	0.457
844	0.456
844	0.455
845	0.454
845	0.453
845	0.453
846	0.454
846	0.454
847	0.454
847	0.454
848	0.456
848	0.457
848	0.458
849	0.46
849	0.461
850	0.462
850	0.462
851	0.462
851	0.463
851	0.463
852	0.462
852	0.461
853	0.46
853	0.459
854	0.458
854	0.459
854	0.46
855	0.461
855	0.461
856	0.461
856	0.462
857	0.463
857	0.464
857	0.464
858	0.465
858	0.465
859	0.463
859	0.462
860	0.461
860	0.46
860	0.459
861	0.458
861	0.459
862	0.458
862	0.457
863	0.457
863	0.458
863	0.459
864	0.46
864	0.461
865	0.462
865	0.463
866	0.463
866	0.463
866	0.463
867	0.463
867	0.463
868	0.463
868	0.463
869	0.463
869	0.463
869	0.462
870	0.462
870	0.462
871	0.462
871	0.462
872	0.462
872	0.461
872	0.461
873	0.46
873	0.459
874	0.457
874	0.457
875	0.456
875	0.456
875	0.455
876	0.455
876	0.455
877	0.455
877	0.455
878	0.456
878	0.456
878	0.458
879	0.459
879	0.459
880	0.459
880	0.459
881	0.459
881	0.458
881	0.458
882	0.457
882	0.456
883	0.456
883	0.455
884	0.456
884	0.456
884	0.456
885	0.457
885	0.457
886	0.458
886	0.459
887	0.46
887	0.461
887	0.461
888	0.461
888	0.46
889	0.46
889	0.461
890	0.462
890	0.462
890	0.462
891	0.462
891	0.462
892	0.462
892	0.462
893	0.462
893	0.462
893	0.462
894	0.462
894	0.461
895	0.46
895	0.46
895	0.46
896	0.46
896	0.46
897	0.46
897	0.46
898	0.46
898	0.461
898	0.461
899	0.461
899	0.461
900	0.46
900	0.46
901	0.46
901	0.459
901	0.459
902	0.459
902	0.459
903	0.458
903	0.458
904	0.458
904	0.459
904	0.459
905	0.46
905	0.461
906	0.463
906	0.464
907	0.465
907	0.467
907	0.468
908	0.468
908	0.468
909	0.468
909	0.468
910	0.468
910	0.467
910	0.466
911	0.466
911	0.465
912	0.465
912	0.465
913	0.465
913	0.465
913	0.465
914	0.465
914	0.465
915	0.465
915	0.465
916	0.465
916	0.465
916	0.464
917	0.464
917	0.463
918	0.462
918	0.462
918	0.461
919	0.461
919	0.46
920	0.46
920	0.46
921	0.46
921	0.46
921	0.46
922	0.46
922	0.461
923	0.462
923	0.462
924	0.463
924	0.464
924	0.464
925	0.465
925	0.465
926	0.466
926	0.467
927	0.468
927	0.468
927	0.467
928	0.467
928	0.466
929	0.466
929	0.466
930	0.465
930	0.464
930	0.463
931	0.462
931	0.461
932	0.461
932	0.46
933	0.459
933	0.458
933	0.458
934	0.457
934	0.457
935	0.458
935	0.457
935	0.457
936	0.457
936	0.456
937	0.456
937	0.457
938	0.457
938	0.457
938	0.457
939	0.456
939	0.456
940	0.456
940	0.457
941	0.458
941	0.459
941	0.46
942	0.462
942	0.463
943	0.465
943	0.466
944	0.467
944	0.468
944	0.469
945	0.47
945	0.471
946	0.471
946	0.472
946	0.472
947	0.472
947	0.473
948	0.473
948	0.473
949	0.472
949	0.473
949	0.473
950	0.472
950	0.472
951	0.472
951	0.471
952	0.469
952	0.468
952	0.466
953	0.466
953	0.465
954	0.464
954	0.462
955	0.462
955	0.461
955	0.46
956	0.461
956	0.462
957	0.463
957	0.464
957	0.465
958	0.465
958	0.466
959	0.467
959	0.467
960	0.468
960	0.468
960	0.468
961	0.469
961	0.469
962	0.47
962	0.47
963	0.47
963	0.47
963	0.47
964	0.47
964	0.47
965	0.471
965	0.471
966	0.471
966	0.472
966	0.472
967	0.472
967	0.473
968	0.473
968	0.473
968	0.473
969	0.473
969	0.472
970	0.472
970	0.471
971	0.47
971	0.47
971	0.469
972	0.469
972	0.469
973	0.469
973	0.469
974	0.469
974	0.47
974	0.47
975	0.47
975	0.47
976	0.471
976	0.471
976	0.472
977	0.471
977	0.471
978	0.471
978	0.471
979	0.47
979	0.47
979	0.469
980	0.468
980	0.467
981	0.466
981	0.465
982	0.465
982	0.464
982	0.464
983	0.464
983	0.465
984	0.465
984	0.466
984	0.466
985	0.467
985	0.467
986	0.467
986	0.467
987	0.466
987	0.466
987	0.465
988	0.465
988	0.465
989	0.465
989	0.464
990	0.464
990	0.464
990	0.464
991	0.465
991	0.465
992	0.466
992	0.467
992	0.468
993	0.468
993	0.469
994	0.47
994	0.471
995	0.472
995	0.473
995	0.473
996	0.474
996	0.474
997	0.474
997	0.474
997	0.473
998	0.473
998	0.473
999	0.473
999	0.473
1000	0.474
1000	0.475
1000	0.475
1001	0.476
1001	0.476
1002	0.476
1002	0.477
1003	0.477
1003	0.477
1003	0.477
1004	0.476
1004	0.475
1005	0.474
1005	0.474
1005	0.472
1006	0.471
1006	0.471
1007	0.471
1007	0.47
1008	0.471
1008	0.471
1008	0.471
1009	0.472
1009	0.472
1010	0.473
1010	0.474
1010	0.474
1011	0.475
1011	0.475
1012	0.475
1012	0.475
1013	0.475
1013	0.476
1013	0.476
1014	0.476
1014	0.476
1015	0.476
1015	0.476
1016	0.476
1016	0.475
1016	0.474
1017	0.473
1017	0.471
1018	0.47
1018	0.469
1018	0.468
1019	0.467
1019	0.466
1020	0.466
1020	0.465
1021	0.466
1021	0.466
1021	0.467
1022	0.469
1022	0.47
1023	0.471
1023	0.472
1023	0.473
1024	0.473
1024	0.473
1025	0.473
1025	0.473
1026	0.472
1026	0.471
1026	0.469
1027	0.469
1027	0.467
1028	0.467
1028	0.466
1028	0.466
1029	0.465
1029	0.465
1030	0.465
1030	0.465
1031	0.466
1031	0.466
1031	0.467
1032	0.468
1032	0.469
1033	0.469
1033	0.47
1033	0.471
1034	0.471
1034	0.471
1035	0.472
1035	0.471
1036	0.471
1036	0.47
1036	0.47
1037	0.47
1037	0.469
1038	0.469
1038	0.469
1039	0.469
1039	0.47
1039	0.47
1040	0.47
1040	0.47
1041	0.47
1041	0.47
1041	0.47
1042	0.47
1042	0.469
1043	0.469
1043	0.468
1044	0.467
1044	0.467
1044	0.466
1045	0.466
1045	0.465
1046	0.465
1046	0.464
1046	0.464
1047	0.464
1047	0.464
1048	0.465
1048	0.466
1049	0.467
1049	0.468
1049	0.469
1050	0.469
1050	0.469
1051	0.469
1051	0.469
1051	0.469
1052	0.468
1052	0.467
1053	0.465
1053	0.464
1053	0.463
1054	0.463
1054	0.463
1055	0.463
1055	0.464
1056	0.463
1056	0.463
1056	0.463
1057	0.463
1057	0.463
1058	0.462
1058	0.461
1058	0.46
1059	0.459
1059	0.458
1060	0.457
1060	0.457
1061	0.456
1061	0.456
1061	0.457
1062	0.458
1062	0.459
1063	0.46
1063	0.46
1063	0.46
1064	0.46
1064	0.46
1065	0.46
1065	0.46
1066	0.46
1066	0.46
1066	0.46
1067	0.459
1067	0.459
1068	0.459
1068	0.459
1068	0.459
1069	0.458
1069	0.457
1070	0.457
1070	0.456
1071	0.455
1071	0.454
1071	0.452
1072	0.452
1072	0.45
1073	0.449
1073	0.448
1073	0.447
1074	0.448
1074	0.448
1075	0.447
1075	0.446
1076	0.445
1076	0.445
1076	0.444
1077	0.443
1077	0.442
1078	0.441
1078	0.44
1078	0.439
1079	0.437
1079	0.437
1080	0.436
1080	0.435
1080	0.435
1081	0.435
1081	0.435
1082	0.436
1082	0.436
1083	0.436
1083	0.435
1083	0.435
1084	0.433
1084	0.433
1085	0.432
1085	0.431
1085	0.429
1086	0.428
1086	0.426
1087	0.425
1087	0.424
1088	0.422
1088	0.42
1088	0.419
1089	0.416
1089	0.413
1090	0.41
1090	0.408
1090	0.404
1091	0.401
1091	0.398
1092	0.395
1092	0.393
1092	0.39
1093	0.386
1093	0.384
1094	0.381
1094	0.378
1095	0.375
1095	0.372
1095	0.369
1096	0.365
1096	0.362
1097	0.358
1097	0.354
1097	0.35
1098	0.345
1098	0.34
1099	0.337
1099	0.332
1100	0.327
1100	0.322
1100	0.318
1101	0.313
1101	0.308
1102	0.305
1102	0.301
1102	0.297
1103	0.293
1103	0.289
1104	0.287
1104	0.283
1104	0.279
1105	0.275
1105	0.271
1106	0.266
1106	0.261
1107	0.257
1107	0.254
1107	0.251
1108	0.248
1108	0.245
1109	0.242
1109	0.24
1109	0.238
1110	0.237
1110	0.234
1111	0.235
1111	0.237
