Data from reversibility-20sec_Absorbance__1029__000000000001029.txt Node

Date: Tue Dec 05 17:56:06 CET 2023
User: Marek
Spectrometer: MAYP115816
Trigger mode: 0
Integration Time (sec): 2.000000E-1
Scans to average: 10
Electric dark correction enabled: true
Nonlinearity correction enabled: true
Boxcar width: 5
XAxis mode: Wavelengths
Number of Pixels in Spectrum: 2068
>>>>>Begin Spectral Data<<<<<
199	-0.217
199	-0.18
200	-0.109
200	-0.054
201	-0.025
201	-0.005
202	0.007
202	0.016
203	0.024
203	0.029
204	0.042
204	0.056
205	0.068
205	0.072
205	0.072
206	0.072
206	0.071
207	0.072
207	0.071
208	0.07
208	0.069
209	0.072
209	0.069
210	0.068
210	0.07
211	0.07
211	0.07
212	0.069
212	0.072
213	0.074
213	0.077
213	0.077
214	0.08
214	0.083
215	0.083
215	0.083
216	0.086
216	0.085
217	0.09
217	0.092
218	0.093
218	0.097
219	0.1
219	0.102
220	0.102
220	0.103
221	0.102
221	0.103
221	0.109
222	0.111
222	0.111
223	0.115
223	0.116
224	0.122
224	0.131
225	0.141
225	0.154
226	0.165
226	0.175
227	0.187
227	0.197
228	0.215
228	0.231
229	0.251
229	0.274
229	0.297
230	0.321
230	0.35
231	0.384
231	0.424
232	0.46
232	0.504
233	0.548
233	0.598
234	0.646
234	0.697
235	0.748
235	0.801
236	0.854
236	0.906
236	0.958
237	1.011
237	1.061
238	1.11
238	1.16
239	1.215
239	1.264
240	1.308
240	1.349
241	1.389
241	1.427
242	1.464
242	1.502
243	1.536
243	1.569
243	1.599
244	1.625
244	1.652
245	1.674
245	1.701
246	1.724
246	1.748
247	1.763
247	1.781
248	1.801
248	1.814
249	1.827
249	1.834
250	1.844
250	1.859
250	1.869
251	1.88
251	1.883
252	1.893
252	1.899
253	1.901
253	1.903
254	1.905
254	1.913
255	1.915
255	1.915
256	1.915
256	1.915
257	1.921
257	1.921
258	1.923
258	1.927
258	1.934
259	1.938
259	1.941
260	1.942
260	1.947
261	1.95
261	1.957
262	1.962
262	1.966
263	1.973
263	1.977
264	1.977
264	1.981
265	1.983
265	1.987
265	1.989
266	1.994
266	1.995
267	1.993
267	1.998
268	1.997
268	2.002
269	2.006
269	2.006
270	2.007
270	2.009
271	2.007
271	2.009
272	2.009
272	2.007
272	2.004
273	1.997
273	1.987
274	1.98
274	1.974
275	1.967
275	1.961
276	1.954
276	1.945
277	1.937
277	1.928
278	1.916
278	1.905
278	1.89
279	1.873
279	1.849
280	1.817
280	1.78
281	1.737
281	1.689
282	1.64
282	1.591
283	1.544
283	1.497
284	1.453
284	1.411
285	1.372
285	1.336
285	1.305
286	1.278
286	1.254
287	1.234
287	1.216
288	1.201
288	1.188
289	1.178
289	1.168
290	1.16
290	1.153
291	1.147
291	1.141
292	1.136
292	1.132
292	1.128
293	1.124
293	1.12
294	1.117
294	1.113
295	1.11
295	1.108
296	1.105
296	1.102
297	1.099
297	1.096
298	1.094
298	1.091
298	1.088
299	1.086
299	1.084
300	1.081
300	1.078
301	1.076
301	1.074
302	1.071
302	1.069
303	1.067
303	1.064
304	1.062
304	1.06
305	1.057
305	1.055
305	1.052
306	1.05
306	1.047
307	1.044
307	1.041
308	1.039
308	1.036
309	1.033
309	1.031
310	1.028
310	1.025
311	1.022
311	1.018
311	1.015
312	1.011
312	1.008
313	1.004
313	1
314	0.996
314	0.992
315	0.988
315	0.983
316	0.979
316	0.974
317	0.969
317	0.964
318	0.958
318	0.953
318	0.948
319	0.942
319	0.936
320	0.93
320	0.924
321	0.918
321	0.911
322	0.905
322	0.899
323	0.892
323	0.885
324	0.878
324	0.871
324	0.864
325	0.857
325	0.85
326	0.843
326	0.836
327	0.828
327	0.821
328	0.814
328	0.807
329	0.799
329	0.791
330	0.784
330	0.776
330	0.769
331	0.761
331	0.754
332	0.746
332	0.738
333	0.731
333	0.724
334	0.717
334	0.709
335	0.702
335	0.695
336	0.688
336	0.681
336	0.674
337	0.667
337	0.661
338	0.654
338	0.647
339	0.641
339	0.635
340	0.628
340	0.622
341	0.616
341	0.61
342	0.604
342	0.598
342	0.592
343	0.587
343	0.581
344	0.576
344	0.571
345	0.566
345	0.561
346	0.556
346	0.551
347	0.546
347	0.542
348	0.537
348	0.533
348	0.529
349	0.525
349	0.521
350	0.517
350	0.513
351	0.509
351	0.506
352	0.502
352	0.499
353	0.496
353	0.492
354	0.489
354	0.486
354	0.483
355	0.48
355	0.477
356	0.474
356	0.471
357	0.467
357	0.464
358	0.461
358	0.458
359	0.455
359	0.453
360	0.45
360	0.448
360	0.446
361	0.444
361	0.442
362	0.44
362	0.438
363	0.436
363	0.434
364	0.432
364	0.429
365	0.427
365	0.425
366	0.423
366	0.421
366	0.419
367	0.417
367	0.415
368	0.414
368	0.412
369	0.41
369	0.409
370	0.407
370	0.405
371	0.404
371	0.402
372	0.401
372	0.399
372	0.398
373	0.396
373	0.395
374	0.393
374	0.392
375	0.391
375	0.39
376	0.389
376	0.388
377	0.386
377	0.385
378	0.384
378	0.383
378	0.382
379	0.381
379	0.379
380	0.378
380	0.377
381	0.376
381	0.375
382	0.374
382	0.374
383	0.373
383	0.372
383	0.371
384	0.37
384	0.37
385	0.369
385	0.368
386	0.367
386	0.366
387	0.366
387	0.365
388	0.364
388	0.363
389	0.362
389	0.362
389	0.361
390	0.361
390	0.36
391	0.36
391	0.359
392	0.358
392	0.358
393	0.357
393	0.357
394	0.356
394	0.355
394	0.355
395	0.354
395	0.353
396	0.352
396	0.352
397	0.351
397	0.35
398	0.35
398	0.349
399	0.349
399	0.348
400	0.348
400	0.347
400	0.347
401	0.346
401	0.346
402	0.345
402	0.345
403	0.344
403	0.344
404	0.344
404	0.343
405	0.343
405	0.343
405	0.342
406	0.341
406	0.341
407	0.34
407	0.34
408	0.339
408	0.339
409	0.338
409	0.338
410	0.337
410	0.337
411	0.336
411	0.336
411	0.335
412	0.335
412	0.334
413	0.334
413	0.334
414	0.333
414	0.333
415	0.332
415	0.332
416	0.331
416	0.331
416	0.33
417	0.33
417	0.329
418	0.329
418	0.329
419	0.328
419	0.328
420	0.327
420	0.327
421	0.327
421	0.326
421	0.326
422	0.326
422	0.325
423	0.325
423	0.324
424	0.324
424	0.323
425	0.323
425	0.322
426	0.322
426	0.321
427	0.321
427	0.321
427	0.32
428	0.32
428	0.319
429	0.319
429	0.319
430	0.318
430	0.318
431	0.318
431	0.317
432	0.317
432	0.316
432	0.316
433	0.316
433	0.315
434	0.315
434	0.315
435	0.315
435	0.314
436	0.314
436	0.314
437	0.314
437	0.313
437	0.313
438	0.313
438	0.313
439	0.312
439	0.312
440	0.311
440	0.311
441	0.311
441	0.311
442	0.311
442	0.31
442	0.31
443	0.31
443	0.309
444	0.309
444	0.309
445	0.309
445	0.308
446	0.308
446	0.308
447	0.308
447	0.307
447	0.307
448	0.307
448	0.307
449	0.306
449	0.306
450	0.306
450	0.306
451	0.306
451	0.305
452	0.305
452	0.305
452	0.305
453	0.305
453	0.305
454	0.304
454	0.304
455	0.304
455	0.304
456	0.303
456	0.303
457	0.303
457	0.303
458	0.303
458	0.302
458	0.302
459	0.302
459	0.302
460	0.302
460	0.302
461	0.302
461	0.301
462	0.301
462	0.301
463	0.301
463	0.301
463	0.301
464	0.3
464	0.3
465	0.3
465	0.3
466	0.3
466	0.3
467	0.3
467	0.3
467	0.299
468	0.299
468	0.299
469	0.299
469	0.299
470	0.299
470	0.299
471	0.3
471	0.3
472	0.299
472	0.3
472	0.3
473	0.3
473	0.3
474	0.3
474	0.3
475	0.3
475	0.3
476	0.3
476	0.301
477	0.301
477	0.301
477	0.301
478	0.301
478	0.302
479	0.302
479	0.302
480	0.303
480	0.303
481	0.303
481	0.303
482	0.304
482	0.304
482	0.305
483	0.305
483	0.306
484	0.306
484	0.306
485	0.307
485	0.307
486	0.307
486	0.308
487	0.308
487	0.309
487	0.309
488	0.31
488	0.31
489	0.311
489	0.312
490	0.313
490	0.313
491	0.314
491	0.315
492	0.316
492	0.317
492	0.317
493	0.318
493	0.319
494	0.32
494	0.321
495	0.322
495	0.322
496	0.323
496	0.324
496	0.325
497	0.325
497	0.326
498	0.327
498	0.327
499	0.328
499	0.329
500	0.33
500	0.331
501	0.332
501	0.333
501	0.333
502	0.334
502	0.335
503	0.336
503	0.337
504	0.337
504	0.338
505	0.339
505	0.34
506	0.34
506	0.341
506	0.342
507	0.342
507	0.343
508	0.344
508	0.345
509	0.346
509	0.346
510	0.348
510	0.348
511	0.349
511	0.351
511	0.351
512	0.352
512	0.353
513	0.353
513	0.354
514	0.355
514	0.355
515	0.356
515	0.356
515	0.357
516	0.357
516	0.358
517	0.358
517	0.359
518	0.359
518	0.359
519	0.359
519	0.359
520	0.36
520	0.36
520	0.36
521	0.36
521	0.359
522	0.36
522	0.36
523	0.36
523	0.36
524	0.36
524	0.36
524	0.361
525	0.361
525	0.36
526	0.36
526	0.36
527	0.36
527	0.359
528	0.359
528	0.358
529	0.358
529	0.357
529	0.356
530	0.355
530	0.355
531	0.354
531	0.353
532	0.353
532	0.352
533	0.351
533	0.351
533	0.35
534	0.349
534	0.349
535	0.348
535	0.348
536	0.347
536	0.346
537	0.345
537	0.345
538	0.344
538	0.343
538	0.341
539	0.34
539	0.339
540	0.338
540	0.337
541	0.335
541	0.334
542	0.333
542	0.331
542	0.33
543	0.329
543	0.328
544	0.327
544	0.326
545	0.325
545	0.324
546	0.323
546	0.322
547	0.321
547	0.32
547	0.318
548	0.317
548	0.316
549	0.315
549	0.314
550	0.312
550	0.311
551	0.309
551	0.308
551	0.306
552	0.305
552	0.304
553	0.302
553	0.301
554	0.3
554	0.298
555	0.297
555	0.296
556	0.294
556	0.293
556	0.292
557	0.292
557	0.291
558	0.29
558	0.29
559	0.289
559	0.288
560	0.287
560	0.286
560	0.285
561	0.284
561	0.283
562	0.282
562	0.281
563	0.279
563	0.278
564	0.276
564	0.275
564	0.274
565	0.273
565	0.272
566	0.271
566	0.27
567	0.269
567	0.268
568	0.267
568	0.266
568	0.266
569	0.265
569	0.264
570	0.263
570	0.261
571	0.261
571	0.26
572	0.259
572	0.258
573	0.257
573	0.256
573	0.255
574	0.254
574	0.253
575	0.253
575	0.252
576	0.252
576	0.25
577	0.249
577	0.248
577	0.248
578	0.247
578	0.246
579	0.246
579	0.246
580	0.244
580	0.243
581	0.242
581	0.242
581	0.241
582	0.241
582	0.241
583	0.24
583	0.239
584	0.238
584	0.236
585	0.236
585	0.235
585	0.234
586	0.233
586	0.232
587	0.23
587	0.229
588	0.228
588	0.228
589	0.227
589	0.227
590	0.226
590	0.226
590	0.226
591	0.226
591	0.225
592	0.225
592	0.224
593	0.224
593	0.223
594	0.222
594	0.221
594	0.221
595	0.22
595	0.219
596	0.218
596	0.218
597	0.219
597	0.219
598	0.218
598	0.218
598	0.217
599	0.217
599	0.216
600	0.215
600	0.214
601	0.214
601	0.213
602	0.212
602	0.211
602	0.21
603	0.21
603	0.209
604	0.209
604	0.209
605	0.209
605	0.209
606	0.208
606	0.207
606	0.207
607	0.206
607	0.206
608	0.205
608	0.204
609	0.203
609	0.203
610	0.202
610	0.201
610	0.201
611	0.2
611	0.2
612	0.2
612	0.2
613	0.199
613	0.199
614	0.199
614	0.198
614	0.198
615	0.198
615	0.197
616	0.197
616	0.197
617	0.197
617	0.196
618	0.196
618	0.196
618	0.196
619	0.195
619	0.195
620	0.195
620	0.195
621	0.194
621	0.194
622	0.193
622	0.193
622	0.192
623	0.191
623	0.191
624	0.191
624	0.19
625	0.19
625	0.189
626	0.189
626	0.189
626	0.189
627	0.188
627	0.188
628	0.188
628	0.187
629	0.187
629	0.186
630	0.185
630	0.185
630	0.185
631	0.184
631	0.184
632	0.184
632	0.183
633	0.183
633	0.183
634	0.183
634	0.183
634	0.183
635	0.183
635	0.182
636	0.182
636	0.182
637	0.182
637	0.182
638	0.181
638	0.181
638	0.18
639	0.18
639	0.179
640	0.179
640	0.179
641	0.178
641	0.178
642	0.178
642	0.178
642	0.178
643	0.177
643	0.177
644	0.177
644	0.177
645	0.176
645	0.176
646	0.176
646	0.176
646	0.175
647	0.175
647	0.175
648	0.175
648	0.174
649	0.174
649	0.174
650	0.174
650	0.173
650	0.173
651	0.173
651	0.173
652	0.173
652	0.173
653	0.174
653	0.176
653	0.183
654	0.145
654	0.116
655	0.117
655	0.117
656	0.117
656	0.118
657	0.118
657	0.118
657	0.118
658	0.116
658	0.105
659	0.132
659	0.169
660	0.173
660	0.173
661	0.172
661	0.172
661	0.171
662	0.171
662	0.171
663	0.17
663	0.17
664	0.17
664	0.17
665	0.17
665	0.169
665	0.17
666	0.169
666	0.169
667	0.169
667	0.169
668	0.17
668	0.169
669	0.169
669	0.169
669	0.17
670	0.17
670	0.17
671	0.17
671	0.17
672	0.169
672	0.169
672	0.169
673	0.169
673	0.168
674	0.168
674	0.168
675	0.167
675	0.167
676	0.168
676	0.168
676	0.168
677	0.168
677	0.168
678	0.168
678	0.167
679	0.167
679	0.167
680	0.168
680	0.168
680	0.167
681	0.168
681	0.168
682	0.168
682	0.168
683	0.169
683	0.169
684	0.169
684	0.169
684	0.169
685	0.169
685	0.169
686	0.169
686	0.169
687	0.168
687	0.168
687	0.168
688	0.168
688	0.167
689	0.168
689	0.169
690	0.169
690	0.168
691	0.169
691	0.169
691	0.169
692	0.17
692	0.17
693	0.17
693	0.171
694	0.171
694	0.171
695	0.171
695	0.172
695	0.173
696	0.172
696	0.172
697	0.172
697	0.172
698	0.171
698	0.171
698	0.17
699	0.17
699	0.17
700	0.169
700	0.169
701	0.169
701	0.169
702	0.169
702	0.169
702	0.169
703	0.169
703	0.169
704	0.169
704	0.169
705	0.169
705	0.168
705	0.168
706	0.168
706	0.168
707	0.168
707	0.168
708	0.168
708	0.168
709	0.168
709	0.168
709	0.168
710	0.167
710	0.167
711	0.167
711	0.167
712	0.167
712	0.167
713	0.167
713	0.167
713	0.167
714	0.167
714	0.168
715	0.168
715	0.168
716	0.168
716	0.168
716	0.167
717	0.167
717	0.167
718	0.166
718	0.166
719	0.166
719	0.166
720	0.166
720	0.166
720	0.167
721	0.167
721	0.167
722	0.168
722	0.167
723	0.168
723	0.168
723	0.168
724	0.168
724	0.167
725	0.166
725	0.166
726	0.165
726	0.165
727	0.165
727	0.165
727	0.165
728	0.165
728	0.165
729	0.166
729	0.166
730	0.166
730	0.166
730	0.167
731	0.167
731	0.167
732	0.167
732	0.167
733	0.166
733	0.166
734	0.166
734	0.166
734	0.166
735	0.166
735	0.166
736	0.166
736	0.166
737	0.166
737	0.167
737	0.167
738	0.166
738	0.166
739	0.166
739	0.166
740	0.165
740	0.165
741	0.165
741	0.165
741	0.165
742	0.164
742	0.164
743	0.165
743	0.166
744	0.166
744	0.166
744	0.167
745	0.167
745	0.167
746	0.168
746	0.168
747	0.169
747	0.169
748	0.17
748	0.17
748	0.17
749	0.17
749	0.17
750	0.17
750	0.17
751	0.169
751	0.169
751	0.169
752	0.168
752	0.168
753	0.168
753	0.167
754	0.168
754	0.167
754	0.168
755	0.168
755	0.169
756	0.168
756	0.167
757	0.167
757	0.166
758	0.166
758	0.166
758	0.165
759	0.166
759	0.165
760	0.165
760	0.164
761	0.165
761	0.165
761	0.166
762	0.167
762	0.167
763	0.168
763	0.168
764	0.168
764	0.168
764	0.168
765	0.167
765	0.167
766	0.167
766	0.166
767	0.165
767	0.164
768	0.163
768	0.162
768	0.162
769	0.161
769	0.162
770	0.162
770	0.162
771	0.162
771	0.163
771	0.163
772	0.164
772	0.165
773	0.166
773	0.166
774	0.167
774	0.167
775	0.168
775	0.168
775	0.168
776	0.168
776	0.169
777	0.169
777	0.169
778	0.168
778	0.168
778	0.167
779	0.167
779	0.167
780	0.166
780	0.165
781	0.165
781	0.164
781	0.164
782	0.164
782	0.163
783	0.164
783	0.164
784	0.164
784	0.164
784	0.165
785	0.165
785	0.165
786	0.165
786	0.165
787	0.165
787	0.165
788	0.165
788	0.164
788	0.164
789	0.163
789	0.163
790	0.163
790	0.163
791	0.162
791	0.162
791	0.162
792	0.163
792	0.163
793	0.163
793	0.163
794	0.163
794	0.163
794	0.163
795	0.163
795	0.163
796	0.163
796	0.163
797	0.163
797	0.162
797	0.162
798	0.162
798	0.162
799	0.162
799	0.162
800	0.161
800	0.161
801	0.161
801	0.161
801	0.161
802	0.161
802	0.161
803	0.162
803	0.162
804	0.163
804	0.163
804	0.163
805	0.163
805	0.163
806	0.163
806	0.162
807	0.162
807	0.162
807	0.162
808	0.161
808	0.161
809	0.161
809	0.161
810	0.161
810	0.161
810	0.16
811	0.16
811	0.161
812	0.161
812	0.161
813	0.161
813	0.161
813	0.161
814	0.161
814	0.161
815	0.161
815	0.161
816	0.161
816	0.161
817	0.16
817	0.159
817	0.159
818	0.158
818	0.158
819	0.157
819	0.156
820	0.155
820	0.155
820	0.154
821	0.153
821	0.153
822	0.153
822	0.152
823	0.152
823	0.152
823	0.152
824	0.153
824	0.154
825	0.155
825	0.156
826	0.156
826	0.156
826	0.156
827	0.156
827	0.156
828	0.156
828	0.156
829	0.156
829	0.155
829	0.155
830	0.154
830	0.154
831	0.155
831	0.155
832	0.155
832	0.155
832	0.155
833	0.155
833	0.155
834	0.155
834	0.155
835	0.155
835	0.155
835	0.155
836	0.155
836	0.155
837	0.155
837	0.154
838	0.153
838	0.153
839	0.152
839	0.151
839	0.15
840	0.149
840	0.147
841	0.146
841	0.145
842	0.144
842	0.143
842	0.142
843	0.142
843	0.141
844	0.141
844	0.141
845	0.14
845	0.14
845	0.14
846	0.139
846	0.139
847	0.139
847	0.139
848	0.139
848	0.139
848	0.139
849	0.139
849	0.139
850	0.14
850	0.14
851	0.14
851	0.14
851	0.14
852	0.139
852	0.139
853	0.139
853	0.138
854	0.138
854	0.138
854	0.138
855	0.138
855	0.138
856	0.138
856	0.138
857	0.138
857	0.138
857	0.138
858	0.138
858	0.137
859	0.136
859	0.134
860	0.133
860	0.132
860	0.131
861	0.13
861	0.129
862	0.127
862	0.126
863	0.125
863	0.125
863	0.124
864	0.124
864	0.124
865	0.124
865	0.124
866	0.123
866	0.123
866	0.122
867	0.122
867	0.122
868	0.122
868	0.122
869	0.121
869	0.121
869	0.121
870	0.12
870	0.121
871	0.121
871	0.121
872	0.121
872	0.122
872	0.122
873	0.122
873	0.122
874	0.121
874	0.121
875	0.121
875	0.121
875	0.121
876	0.12
876	0.12
877	0.12
877	0.12
878	0.12
878	0.121
878	0.122
879	0.123
879	0.123
880	0.123
880	0.123
881	0.123
881	0.122
881	0.121
882	0.12
882	0.119
883	0.118
883	0.116
884	0.115
884	0.114
884	0.113
885	0.112
885	0.111
886	0.11
886	0.11
887	0.109
887	0.109
887	0.109
888	0.108
888	0.108
889	0.108
889	0.108
890	0.108
890	0.108
890	0.108
891	0.108
891	0.108
892	0.108
892	0.108
893	0.108
893	0.108
893	0.108
894	0.108
894	0.108
895	0.108
895	0.108
895	0.107
896	0.107
896	0.107
897	0.106
897	0.105
898	0.105
898	0.104
898	0.104
899	0.103
899	0.103
900	0.103
900	0.102
901	0.102
901	0.102
901	0.102
902	0.101
902	0.101
903	0.1
903	0.1
904	0.099
904	0.098
904	0.098
905	0.097
905	0.097
906	0.097
906	0.097
907	0.097
907	0.098
907	0.099
908	0.099
908	0.1
909	0.101
909	0.101
910	0.101
910	0.102
910	0.101
911	0.101
911	0.1
912	0.099
912	0.099
913	0.098
913	0.097
913	0.097
914	0.096
914	0.096
915	0.095
915	0.095
916	0.095
916	0.094
916	0.094
917	0.093
917	0.093
918	0.092
918	0.091
918	0.09
919	0.089
919	0.089
920	0.088
920	0.088
921	0.088
921	0.088
921	0.088
922	0.088
922	0.088
923	0.088
923	0.088
924	0.089
924	0.089
924	0.089
925	0.089
925	0.089
926	0.088
926	0.088
927	0.088
927	0.088
927	0.087
928	0.087
928	0.087
929	0.087
929	0.087
930	0.086
930	0.086
930	0.085
931	0.085
931	0.085
932	0.085
932	0.084
933	0.084
933	0.084
933	0.084
934	0.083
934	0.083
935	0.083
935	0.083
935	0.083
936	0.082
936	0.082
937	0.082
937	0.082
938	0.082
938	0.081
938	0.081
939	0.081
939	0.081
940	0.081
940	0.081
941	0.081
941	0.081
941	0.082
942	0.082
942	0.082
943	0.082
943	0.082
944	0.082
944	0.081
944	0.081
945	0.081
945	0.081
946	0.081
946	0.08
946	0.08
947	0.08
947	0.079
948	0.079
948	0.079
949	0.078
949	0.078
949	0.077
950	0.077
950	0.076
951	0.076
951	0.075
952	0.074
952	0.074
952	0.073
953	0.073
953	0.072
954	0.072
954	0.071
955	0.071
955	0.071
955	0.071
956	0.072
956	0.072
957	0.073
957	0.073
957	0.074
958	0.074
958	0.075
959	0.075
959	0.075
960	0.076
960	0.075
960	0.075
961	0.074
961	0.074
962	0.073
962	0.073
963	0.073
963	0.072
963	0.072
964	0.071
964	0.071
965	0.071
965	0.071
966	0.071
966	0.071
966	0.071
967	0.072
967	0.072
968	0.072
968	0.072
968	0.072
969	0.072
969	0.071
970	0.071
970	0.071
971	0.07
971	0.07
971	0.07
972	0.069
972	0.069
973	0.068
973	0.068
974	0.067
974	0.067
974	0.067
975	0.067
975	0.067
976	0.067
976	0.067
976	0.067
977	0.066
977	0.066
978	0.066
978	0.066
979	0.066
979	0.065
979	0.065
980	0.065
980	0.065
981	0.064
981	0.064
982	0.064
982	0.064
982	0.064
983	0.064
983	0.064
984	0.063
984	0.063
984	0.063
985	0.062
985	0.062
986	0.061
986	0.061
987	0.06
987	0.06
987	0.059
988	0.059
988	0.059
989	0.058
989	0.058
990	0.058
990	0.057
990	0.057
991	0.057
991	0.057
992	0.057
992	0.056
992	0.056
993	0.055
993	0.055
994	0.054
994	0.054
995	0.053
995	0.053
995	0.052
996	0.052
996	0.052
997	0.052
997	0.052
997	0.053
998	0.053
998	0.054
999	0.054
999	0.055
1000	0.056
1000	0.057
1000	0.057
1001	0.058
1001	0.058
1002	0.058
1002	0.058
1003	0.059
1003	0.058
1003	0.058
1004	0.058
1004	0.058
1005	0.058
1005	0.057
1005	0.057
1006	0.056
1006	0.056
1007	0.056
1007	0.056
1008	0.056
1008	0.055
1008	0.055
1009	0.055
1009	0.055
1010	0.055
1010	0.055
1010	0.055
1011	0.055
1011	0.054
1012	0.054
1012	0.054
1013	0.054
1013	0.054
1013	0.053
1014	0.053
1014	0.052
1015	0.052
1015	0.052
1016	0.051
1016	0.051
1016	0.05
1017	0.049
1017	0.049
1018	0.048
1018	0.048
1018	0.047
1019	0.047
1019	0.047
1020	0.046
1020	0.046
1021	0.046
1021	0.046
1021	0.045
1022	0.046
1022	0.046
1023	0.046
1023	0.046
1023	0.046
1024	0.046
1024	0.046
1025	0.046
1025	0.046
1026	0.046
1026	0.046
1026	0.046
1027	0.046
1027	0.046
1028	0.046
1028	0.045
1028	0.045
1029	0.045
1029	0.045
1030	0.045
1030	0.045
1031	0.046
1031	0.046
1031	0.046
1032	0.046
1032	0.045
1033	0.045
1033	0.045
1033	0.045
1034	0.045
1034	0.045
1035	0.044
1035	0.044
1036	0.044
1036	0.044
1036	0.044
1037	0.044
1037	0.045
1038	0.045
1038	0.045
1039	0.045
1039	0.045
1039	0.046
1040	0.046
1040	0.046
1041	0.047
1041	0.047
1041	0.047
1042	0.047
1042	0.047
1043	0.047
1043	0.047
1044	0.047
1044	0.047
1044	0.047
1045	0.047
1045	0.047
1046	0.047
1046	0.048
1046	0.048
1047	0.048
1047	0.049
1048	0.049
1048	0.05
1049	0.05
1049	0.05
1049	0.05
1050	0.049
1050	0.049
1051	0.048
1051	0.048
1051	0.047
1052	0.046
1052	0.045
1053	0.044
1053	0.043
1053	0.042
1054	0.042
1054	0.041
1055	0.041
1055	0.04
1056	0.04
1056	0.039
1056	0.038
1057	0.038
1057	0.037
1058	0.037
1058	0.036
1058	0.035
1059	0.034
1059	0.034
1060	0.033
1060	0.033
1061	0.032
1061	0.032
1061	0.032
1062	0.032
1062	0.032
1063	0.032
1063	0.032
1063	0.032
1064	0.032
1064	0.032
1065	0.032
1065	0.032
1066	0.032
1066	0.032
1066	0.031
1067	0.031
1067	0.031
1068	0.03
1068	0.03
1068	0.03
1069	0.03
1069	0.029
1070	0.029
1070	0.028
1071	0.027
1071	0.027
1071	0.026
1072	0.026
1072	0.025
1073	0.025
1073	0.024
1073	0.024
1074	0.024
1074	0.025
1075	0.025
1075	0.025
1076	0.025
1076	0.026
1076	0.026
1077	0.026
1077	0.026
1078	0.026
1078	0.026
1078	0.026
1079	0.025
1079	0.025
1080	0.024
1080	0.024
1080	0.024
1081	0.023
1081	0.023
1082	0.024
1082	0.024
1083	0.023
1083	0.022
1083	0.022
1084	0.022
1084	0.022
1085	0.021
1085	0.021
1085	0.021
1086	0.02
1086	0.019
1087	0.019
1087	0.018
1088	0.019
1088	0.018
1088	0.018
1089	0.018
1089	0.017
1090	0.016
1090	0.016
1090	0.015
1091	0.015
1091	0.015
1092	0.015
1092	0.015
1092	0.014
1093	0.014
1093	0.014
1094	0.014
1094	0.014
1095	0.014
1095	0.014
1095	0.014
1096	0.013
1096	0.012
1097	0.012
1097	0.011
1097	0.011
1098	0.01
1098	0.009
1099	0.008
1099	0.006
1100	0.006
1100	0.004
1100	0.003
1101	0.002
1101	0
1102	-0.001
1102	-0.002
1102	-0.003
1103	-0.003
1103	-0.004
1104	-0.004
1104	-0.005
1104	-0.006
1105	-0.006
1105	-0.008
1106	-0.009
1106	-0.01
1107	-0.011
1107	-0.012
1107	-0.013
1108	-0.013
1108	-0.014
1109	-0.016
1109	-0.017
1109	-0.017
1110	-0.016
1110	-0.018
1111	-0.016
1111	-0.012
