Data from reversibility-20sec_Absorbance__950__000000000000950.txt Node

Date: Tue Dec 05 17:29:46 CET 2023
User: Marek
Spectrometer: MAYP115816
Trigger mode: 0
Integration Time (sec): 2.000000E-1
Scans to average: 10
Electric dark correction enabled: true
Nonlinearity correction enabled: true
Boxcar width: 5
XAxis mode: Wavelengths
Number of Pixels in Spectrum: 2068
>>>>>Begin Spectral Data<<<<<
199	-0.051
199	0.001
200	0.08
200	0.156
201	0.195
201	0.215
202	0.23
202	0.242
203	0.249
203	0.258
204	0.281
204	0.304
205	0.319
205	0.331
205	0.327
206	0.328
206	0.327
207	0.332
207	0.331
208	0.33
208	0.327
209	0.329
209	0.319
210	0.319
210	0.318
211	0.315
211	0.314
212	0.31
212	0.309
213	0.311
213	0.315
213	0.313
214	0.313
214	0.319
215	0.323
215	0.318
216	0.321
216	0.321
217	0.326
217	0.328
218	0.325
218	0.327
219	0.334
219	0.331
220	0.332
220	0.326
221	0.324
221	0.322
221	0.323
222	0.33
222	0.332
223	0.342
223	0.343
224	0.343
224	0.353
225	0.362
225	0.371
226	0.383
226	0.396
227	0.407
227	0.413
228	0.43
228	0.437
229	0.454
229	0.481
229	0.5
230	0.521
230	0.554
231	0.588
231	0.628
232	0.664
232	0.709
233	0.752
233	0.806
234	0.855
234	0.906
235	0.963
235	1.016
236	1.067
236	1.119
236	1.176
237	1.228
237	1.28
238	1.328
238	1.376
239	1.429
239	1.476
240	1.522
240	1.563
241	1.604
241	1.642
242	1.673
242	1.712
243	1.742
243	1.777
243	1.809
244	1.832
244	1.861
245	1.879
245	1.908
246	1.93
246	1.953
247	1.97
247	1.995
248	2.018
248	2.036
249	2.051
249	2.062
250	2.076
250	2.093
250	2.106
251	2.12
251	2.129
252	2.148
252	2.151
253	2.164
253	2.169
254	2.177
254	2.192
255	2.197
255	2.207
256	2.214
256	2.216
257	2.228
257	2.23
258	2.237
258	2.239
258	2.241
259	2.246
259	2.253
260	2.254
260	2.258
261	2.259
261	2.268
262	2.272
262	2.274
263	2.284
263	2.286
264	2.288
264	2.294
265	2.293
265	2.296
265	2.299
266	2.303
266	2.306
267	2.303
267	2.311
268	2.31
268	2.317
269	2.324
269	2.32
270	2.324
270	2.322
271	2.32
271	2.325
272	2.324
272	2.326
272	2.324
273	2.317
273	2.309
274	2.312
274	2.316
275	2.315
275	2.322
276	2.319
276	2.317
277	2.313
277	2.306
278	2.299
278	2.294
278	2.289
279	2.275
279	2.258
280	2.239
280	2.215
281	2.186
281	2.152
282	2.118
282	2.084
283	2.048
283	2.012
284	1.978
284	1.944
285	1.912
285	1.881
285	1.854
286	1.83
286	1.81
287	1.791
287	1.777
288	1.764
288	1.753
289	1.744
289	1.734
290	1.728
290	1.722
291	1.717
291	1.714
292	1.71
292	1.707
292	1.704
293	1.701
293	1.698
294	1.695
294	1.693
295	1.691
295	1.689
296	1.685
296	1.681
297	1.677
297	1.675
298	1.671
298	1.668
298	1.666
299	1.665
299	1.662
300	1.659
300	1.657
301	1.655
301	1.653
302	1.651
302	1.649
303	1.649
303	1.647
304	1.645
304	1.643
305	1.641
305	1.638
305	1.635
306	1.634
306	1.632
307	1.629
307	1.626
308	1.623
308	1.62
309	1.617
309	1.614
310	1.611
310	1.608
311	1.605
311	1.601
311	1.597
312	1.593
312	1.59
313	1.585
313	1.581
314	1.576
314	1.571
315	1.565
315	1.56
316	1.556
316	1.551
317	1.546
317	1.541
318	1.535
318	1.53
318	1.524
319	1.518
319	1.512
320	1.506
320	1.499
321	1.492
321	1.485
322	1.478
322	1.47
323	1.462
323	1.454
324	1.446
324	1.438
324	1.43
325	1.422
325	1.415
326	1.407
326	1.399
327	1.391
327	1.384
328	1.376
328	1.368
329	1.361
329	1.352
330	1.344
330	1.336
330	1.327
331	1.319
331	1.31
332	1.302
332	1.293
333	1.285
333	1.277
334	1.268
334	1.26
335	1.252
335	1.244
336	1.236
336	1.228
336	1.22
337	1.213
337	1.205
338	1.197
338	1.19
339	1.183
339	1.176
340	1.168
340	1.161
341	1.154
341	1.148
342	1.141
342	1.135
342	1.129
343	1.122
343	1.117
344	1.111
344	1.105
345	1.1
345	1.094
346	1.089
346	1.084
347	1.078
347	1.073
348	1.068
348	1.064
348	1.059
349	1.054
349	1.05
350	1.045
350	1.041
351	1.038
351	1.034
352	1.031
352	1.027
353	1.023
353	1.02
354	1.016
354	1.012
354	1.007
355	1.001
355	0.995
356	0.988
356	0.981
357	0.972
357	0.966
358	0.961
358	0.958
359	0.956
359	0.954
360	0.953
360	0.954
360	0.954
361	0.954
361	0.955
362	0.959
362	0.958
363	0.957
363	0.954
364	0.951
364	0.947
365	0.944
365	0.94
366	0.937
366	0.934
366	0.931
367	0.929
367	0.926
368	0.924
368	0.923
369	0.921
369	0.919
370	0.917
370	0.915
371	0.914
371	0.912
372	0.91
372	0.908
372	0.906
373	0.904
373	0.903
374	0.902
374	0.9
375	0.899
375	0.897
376	0.895
376	0.894
377	0.893
377	0.892
378	0.89
378	0.889
378	0.888
379	0.887
379	0.886
380	0.884
380	0.883
381	0.883
381	0.882
382	0.881
382	0.88
383	0.879
383	0.878
383	0.877
384	0.875
384	0.875
385	0.874
385	0.873
386	0.872
386	0.872
387	0.871
387	0.871
388	0.87
388	0.869
389	0.868
389	0.868
389	0.866
390	0.865
390	0.865
391	0.864
391	0.864
392	0.864
392	0.863
393	0.862
393	0.862
394	0.862
394	0.861
394	0.861
395	0.86
395	0.859
396	0.858
396	0.856
397	0.855
397	0.855
398	0.854
398	0.854
399	0.853
399	0.852
400	0.852
400	0.852
400	0.852
401	0.851
401	0.851
402	0.849
402	0.848
403	0.847
403	0.846
404	0.846
404	0.846
405	0.845
405	0.845
405	0.844
406	0.843
406	0.843
407	0.842
407	0.842
408	0.842
408	0.841
409	0.84
409	0.839
410	0.838
410	0.837
411	0.837
411	0.836
411	0.836
412	0.835
412	0.834
413	0.834
413	0.833
414	0.833
414	0.832
415	0.832
415	0.831
416	0.831
416	0.83
416	0.829
417	0.828
417	0.827
418	0.826
418	0.825
419	0.824
419	0.823
420	0.822
420	0.822
421	0.822
421	0.822
421	0.822
422	0.821
422	0.821
423	0.821
423	0.821
424	0.821
424	0.821
425	0.821
425	0.819
426	0.818
426	0.817
427	0.816
427	0.814
427	0.813
428	0.813
428	0.812
429	0.812
429	0.813
430	0.813
430	0.813
431	0.812
431	0.812
432	0.813
432	0.813
432	0.813
433	0.813
433	0.812
434	0.81
434	0.809
435	0.809
435	0.809
436	0.809
436	0.808
437	0.808
437	0.808
437	0.808
438	0.808
438	0.807
439	0.807
439	0.807
440	0.806
440	0.805
441	0.804
441	0.804
442	0.804
442	0.803
442	0.803
443	0.803
443	0.803
444	0.803
444	0.802
445	0.802
445	0.802
446	0.802
446	0.802
447	0.802
447	0.801
447	0.8
448	0.8
448	0.8
449	0.8
449	0.8
450	0.801
450	0.8
451	0.801
451	0.8
452	0.8
452	0.8
452	0.8
453	0.8
453	0.799
454	0.799
454	0.798
455	0.797
455	0.796
456	0.796
456	0.796
457	0.795
457	0.795
458	0.795
458	0.794
458	0.794
459	0.794
459	0.795
460	0.796
460	0.796
461	0.795
461	0.794
462	0.794
462	0.793
463	0.793
463	0.792
463	0.792
464	0.792
464	0.792
465	0.791
465	0.791
466	0.791
466	0.791
467	0.792
467	0.792
467	0.793
468	0.794
468	0.794
469	0.793
469	0.792
470	0.791
470	0.791
471	0.791
471	0.79
472	0.79
472	0.79
472	0.789
473	0.789
473	0.79
474	0.79
474	0.791
475	0.791
475	0.792
476	0.793
476	0.793
477	0.794
477	0.794
477	0.794
478	0.794
478	0.794
479	0.794
479	0.793
480	0.793
480	0.794
481	0.795
481	0.795
482	0.794
482	0.795
482	0.795
483	0.795
483	0.794
484	0.795
484	0.798
485	0.8
485	0.8
486	0.801
486	0.802
487	0.803
487	0.803
487	0.805
488	0.807
488	0.809
489	0.809
489	0.808
490	0.807
490	0.808
491	0.808
491	0.808
492	0.809
492	0.81
492	0.81
493	0.811
493	0.812
494	0.812
494	0.813
495	0.814
495	0.816
496	0.818
496	0.819
496	0.82
497	0.82
497	0.821
498	0.822
498	0.824
499	0.825
499	0.825
500	0.825
500	0.825
501	0.826
501	0.827
501	0.828
502	0.829
502	0.83
503	0.831
503	0.832
504	0.833
504	0.834
505	0.835
505	0.836
506	0.837
506	0.838
506	0.84
507	0.841
507	0.841
508	0.842
508	0.842
509	0.843
509	0.844
510	0.845
510	0.845
511	0.846
511	0.847
511	0.847
512	0.848
512	0.849
513	0.85
513	0.851
514	0.851
514	0.851
515	0.852
515	0.852
515	0.853
516	0.853
516	0.853
517	0.853
517	0.853
518	0.853
518	0.853
519	0.853
519	0.854
520	0.854
520	0.853
520	0.853
521	0.853
521	0.852
522	0.852
522	0.852
523	0.853
523	0.852
524	0.852
524	0.853
524	0.853
525	0.852
525	0.852
526	0.852
526	0.852
527	0.851
527	0.851
528	0.85
528	0.85
529	0.85
529	0.849
529	0.848
530	0.848
530	0.846
531	0.845
531	0.845
532	0.844
532	0.843
533	0.842
533	0.841
533	0.841
534	0.84
534	0.839
535	0.838
535	0.837
536	0.836
536	0.835
537	0.834
537	0.833
538	0.831
538	0.83
538	0.828
539	0.827
539	0.825
540	0.824
540	0.823
541	0.822
541	0.821
542	0.819
542	0.818
542	0.817
543	0.815
543	0.814
544	0.813
544	0.812
545	0.81
545	0.808
546	0.807
546	0.806
547	0.805
547	0.805
547	0.803
548	0.802
548	0.8
549	0.799
549	0.797
550	0.795
550	0.794
551	0.793
551	0.791
551	0.789
552	0.788
552	0.787
553	0.785
553	0.783
554	0.782
554	0.782
555	0.781
555	0.78
556	0.778
556	0.776
556	0.775
557	0.772
557	0.77
558	0.769
558	0.767
559	0.765
559	0.763
560	0.761
560	0.76
560	0.759
561	0.758
561	0.757
562	0.756
562	0.755
563	0.754
563	0.754
564	0.753
564	0.752
564	0.75
565	0.749
565	0.747
566	0.746
566	0.744
567	0.742
567	0.741
568	0.74
568	0.74
568	0.739
569	0.738
569	0.737
570	0.737
570	0.737
571	0.736
571	0.736
572	0.736
572	0.735
573	0.735
573	0.734
573	0.735
574	0.734
574	0.733
575	0.733
575	0.73
576	0.728
576	0.729
577	0.73
577	0.73
577	0.729
578	0.728
578	0.725
579	0.723
579	0.721
580	0.721
580	0.723
581	0.725
581	0.724
581	0.722
582	0.72
582	0.719
583	0.717
583	0.717
584	0.719
584	0.721
585	0.719
585	0.715
585	0.712
586	0.711
586	0.71
587	0.711
587	0.712
588	0.711
588	0.71
589	0.707
589	0.705
590	0.704
590	0.703
590	0.701
591	0.698
591	0.697
592	0.696
592	0.696
593	0.695
593	0.694
594	0.694
594	0.693
594	0.693
595	0.692
595	0.692
596	0.692
596	0.691
597	0.688
597	0.687
598	0.687
598	0.687
598	0.688
599	0.687
599	0.688
600	0.688
600	0.687
601	0.686
601	0.684
602	0.684
602	0.683
602	0.682
603	0.681
603	0.678
604	0.677
604	0.677
605	0.677
605	0.676
606	0.677
606	0.678
606	0.678
607	0.677
607	0.676
608	0.675
608	0.675
609	0.674
609	0.673
610	0.672
610	0.672
610	0.67
611	0.668
611	0.667
612	0.667
612	0.666
613	0.666
613	0.666
614	0.666
614	0.667
614	0.666
615	0.666
615	0.665
616	0.665
616	0.664
617	0.664
617	0.664
618	0.663
618	0.662
618	0.661
619	0.66
619	0.659
620	0.657
620	0.657
621	0.657
621	0.656
622	0.655
622	0.653
622	0.653
623	0.652
623	0.651
624	0.65
624	0.65
625	0.65
625	0.649
626	0.648
626	0.648
626	0.647
627	0.647
627	0.646
628	0.645
628	0.645
629	0.644
629	0.644
630	0.643
630	0.643
630	0.642
631	0.641
631	0.64
632	0.64
632	0.639
633	0.638
633	0.638
634	0.638
634	0.637
634	0.637
635	0.637
635	0.637
636	0.636
636	0.636
637	0.635
637	0.635
638	0.634
638	0.633
638	0.632
639	0.631
639	0.63
640	0.629
640	0.629
641	0.628
641	0.628
642	0.628
642	0.628
642	0.627
643	0.628
643	0.628
644	0.628
644	0.628
645	0.628
645	0.628
646	0.627
646	0.627
646	0.626
647	0.626
647	0.626
648	0.625
648	0.625
649	0.624
649	0.624
650	0.624
650	0.624
650	0.624
651	0.624
651	0.624
652	0.624
652	0.624
653	0.623
653	0.624
653	0.627
654	0.551
654	0.515
655	0.525
655	0.527
656	0.527
656	0.528
657	0.528
657	0.529
657	0.529
658	0.529
658	0.518
659	0.577
659	0.635
660	0.625
660	0.623
661	0.622
661	0.62
661	0.619
662	0.618
662	0.617
663	0.616
663	0.616
664	0.616
664	0.616
665	0.616
665	0.616
665	0.616
666	0.617
666	0.617
667	0.618
667	0.617
668	0.617
668	0.617
669	0.616
669	0.616
669	0.616
670	0.617
670	0.617
671	0.618
671	0.618
672	0.617
672	0.617
672	0.616
673	0.616
673	0.615
674	0.615
674	0.615
675	0.614
675	0.614
676	0.614
676	0.614
676	0.614
677	0.615
677	0.615
678	0.616
678	0.617
679	0.617
679	0.617
680	0.617
680	0.617
680	0.617
681	0.616
681	0.616
682	0.616
682	0.616
683	0.616
683	0.616
684	0.616
684	0.616
684	0.616
685	0.616
685	0.616
686	0.616
686	0.615
687	0.616
687	0.616
687	0.615
688	0.615
688	0.614
689	0.614
689	0.614
690	0.615
690	0.615
691	0.615
691	0.615
691	0.616
692	0.615
692	0.616
693	0.615
693	0.616
694	0.616
694	0.616
695	0.616
695	0.617
695	0.618
696	0.619
696	0.62
697	0.62
697	0.62
698	0.62
698	0.619
698	0.619
699	0.618
699	0.617
700	0.615
700	0.614
701	0.613
701	0.612
702	0.612
702	0.611
702	0.61
703	0.609
703	0.608
704	0.608
704	0.608
705	0.608
705	0.609
705	0.609
706	0.61
706	0.611
707	0.612
707	0.612
708	0.613
708	0.614
709	0.615
709	0.616
709	0.615
710	0.614
710	0.614
711	0.614
711	0.614
712	0.614
712	0.614
713	0.614
713	0.614
713	0.614
714	0.614
714	0.614
715	0.614
715	0.613
716	0.613
716	0.613
716	0.612
717	0.612
717	0.613
718	0.612
718	0.613
719	0.614
719	0.614
720	0.615
720	0.616
720	0.616
721	0.616
721	0.617
722	0.617
722	0.617
723	0.617
723	0.617
723	0.617
724	0.617
724	0.616
725	0.615
725	0.615
726	0.615
726	0.615
727	0.615
727	0.615
727	0.615
728	0.615
728	0.615
729	0.616
729	0.616
730	0.616
730	0.617
730	0.617
731	0.618
731	0.618
732	0.619
732	0.619
733	0.618
733	0.618
734	0.618
734	0.618
734	0.618
735	0.618
735	0.618
736	0.617
736	0.617
737	0.616
737	0.617
737	0.617
738	0.616
738	0.615
739	0.614
739	0.614
740	0.613
740	0.613
741	0.612
741	0.612
741	0.612
742	0.611
742	0.611
743	0.612
743	0.612
744	0.613
744	0.613
744	0.613
745	0.613
745	0.614
746	0.614
746	0.614
747	0.614
747	0.615
748	0.615
748	0.615
748	0.615
749	0.615
749	0.615
750	0.615
750	0.614
751	0.614
751	0.614
751	0.615
752	0.614
752	0.613
753	0.613
753	0.612
754	0.612
754	0.612
754	0.613
755	0.613
755	0.614
756	0.614
756	0.613
757	0.612
757	0.612
758	0.613
758	0.613
758	0.614
759	0.614
759	0.613
760	0.612
760	0.611
761	0.611
761	0.611
761	0.611
762	0.611
762	0.612
763	0.613
763	0.613
764	0.612
764	0.613
764	0.613
765	0.613
765	0.613
766	0.614
766	0.615
767	0.616
767	0.614
768	0.612
768	0.612
768	0.612
769	0.612
769	0.613
770	0.613
770	0.613
771	0.613
771	0.612
771	0.612
772	0.612
772	0.612
773	0.612
773	0.611
774	0.61
774	0.609
775	0.609
775	0.609
775	0.609
776	0.609
776	0.609
777	0.61
777	0.61
778	0.611
778	0.611
778	0.612
779	0.614
779	0.615
780	0.615
780	0.615
781	0.615
781	0.615
781	0.615
782	0.615
782	0.614
783	0.615
783	0.615
784	0.614
784	0.613
784	0.612
785	0.611
785	0.61
786	0.61
786	0.611
787	0.611
787	0.611
788	0.611
788	0.61
788	0.61
789	0.609
789	0.61
790	0.611
790	0.611
791	0.61
791	0.609
791	0.609
792	0.61
792	0.611
793	0.61
793	0.611
794	0.61
794	0.609
794	0.608
795	0.608
795	0.609
796	0.609
796	0.609
797	0.607
797	0.606
797	0.607
798	0.606
798	0.606
799	0.606
799	0.605
800	0.604
800	0.603
801	0.601
801	0.6
801	0.599
802	0.598
802	0.597
803	0.596
803	0.596
804	0.597
804	0.598
804	0.599
805	0.6
805	0.6
806	0.601
806	0.602
807	0.603
807	0.604
807	0.604
808	0.605
808	0.605
809	0.603
809	0.602
810	0.602
810	0.601
810	0.599
811	0.598
811	0.598
812	0.599
812	0.599
813	0.599
813	0.599
813	0.599
814	0.6
814	0.601
815	0.603
815	0.603
816	0.604
816	0.603
817	0.602
817	0.602
817	0.602
818	0.601
818	0.602
819	0.602
819	0.601
820	0.6
820	0.599
820	0.599
821	0.599
821	0.598
822	0.598
822	0.597
823	0.597
823	0.596
823	0.595
824	0.596
824	0.596
825	0.598
825	0.599
826	0.599
826	0.599
826	0.598
827	0.599
827	0.599
828	0.598
828	0.597
829	0.597
829	0.597
829	0.595
830	0.594
830	0.594
831	0.595
831	0.596
832	0.595
832	0.595
832	0.596
833	0.596
833	0.595
834	0.595
834	0.594
835	0.594
835	0.593
835	0.592
836	0.591
836	0.59
837	0.589
837	0.588
838	0.587
838	0.587
839	0.586
839	0.585
839	0.584
840	0.583
840	0.581
841	0.58
841	0.579
842	0.578
842	0.577
842	0.576
843	0.574
843	0.573
844	0.572
844	0.572
845	0.571
845	0.571
845	0.571
846	0.571
846	0.57
847	0.57
847	0.571
848	0.572
848	0.573
848	0.574
849	0.575
849	0.576
850	0.577
850	0.577
851	0.577
851	0.578
851	0.578
852	0.577
852	0.575
853	0.574
853	0.573
854	0.572
854	0.573
854	0.573
855	0.573
855	0.574
856	0.573
856	0.574
857	0.575
857	0.576
857	0.577
858	0.577
858	0.576
859	0.575
859	0.573
860	0.572
860	0.571
860	0.57
861	0.569
861	0.57
862	0.569
862	0.569
863	0.569
863	0.57
863	0.571
864	0.573
864	0.574
865	0.575
865	0.576
866	0.576
866	0.575
866	0.575
867	0.575
867	0.574
868	0.574
868	0.574
869	0.574
869	0.574
869	0.573
870	0.573
870	0.573
871	0.573
871	0.573
872	0.573
872	0.573
872	0.572
873	0.572
873	0.571
874	0.569
874	0.568
875	0.568
875	0.567
875	0.566
876	0.566
876	0.566
877	0.566
877	0.565
878	0.564
878	0.563
878	0.563
879	0.563
879	0.562
880	0.561
880	0.561
881	0.56
881	0.559
881	0.558
882	0.557
882	0.557
883	0.557
883	0.557
884	0.557
884	0.557
884	0.557
885	0.558
885	0.557
886	0.557
886	0.558
887	0.558
887	0.558
887	0.557
888	0.557
888	0.556
889	0.555
889	0.556
890	0.556
890	0.557
890	0.558
891	0.558
891	0.558
892	0.558
892	0.558
893	0.559
893	0.559
893	0.559
894	0.559
894	0.559
895	0.559
895	0.559
895	0.559
896	0.559
896	0.559
897	0.559
897	0.559
898	0.559
898	0.559
898	0.559
899	0.558
899	0.557
900	0.556
900	0.556
901	0.555
901	0.555
901	0.555
902	0.554
902	0.554
903	0.554
903	0.554
904	0.554
904	0.555
904	0.555
905	0.556
905	0.556
906	0.557
906	0.558
907	0.558
907	0.559
907	0.56
908	0.56
908	0.56
909	0.56
909	0.56
910	0.56
910	0.56
910	0.56
911	0.559
911	0.559
912	0.558
912	0.557
913	0.556
913	0.556
913	0.555
914	0.555
914	0.554
915	0.553
915	0.552
916	0.552
916	0.552
916	0.551
917	0.551
917	0.55
918	0.549
918	0.549
918	0.548
919	0.548
919	0.548
920	0.548
920	0.548
921	0.548
921	0.548
921	0.548
922	0.549
922	0.55
923	0.551
923	0.552
924	0.553
924	0.554
924	0.555
925	0.555
925	0.556
926	0.556
926	0.557
927	0.557
927	0.556
927	0.555
928	0.554
928	0.553
929	0.553
929	0.552
930	0.551
930	0.55
930	0.549
931	0.548
931	0.548
932	0.548
932	0.548
933	0.548
933	0.547
933	0.547
934	0.547
934	0.546
935	0.546
935	0.545
935	0.544
936	0.543
936	0.542
937	0.541
937	0.54
938	0.539
938	0.538
938	0.537
939	0.537
939	0.536
940	0.536
940	0.536
941	0.537
941	0.537
941	0.539
942	0.539
942	0.54
943	0.541
943	0.542
944	0.543
944	0.545
944	0.546
945	0.547
945	0.548
946	0.549
946	0.549
946	0.549
947	0.55
947	0.55
948	0.551
948	0.552
949	0.552
949	0.553
949	0.554
950	0.554
950	0.555
951	0.556
951	0.556
952	0.555
952	0.554
952	0.554
953	0.553
953	0.552
954	0.55
954	0.549
955	0.547
955	0.546
955	0.544
956	0.544
956	0.544
957	0.544
957	0.545
957	0.546
958	0.546
958	0.546
959	0.547
959	0.547
960	0.547
960	0.546
960	0.546
961	0.545
961	0.544
962	0.543
962	0.543
963	0.543
963	0.543
963	0.544
964	0.544
964	0.545
965	0.545
965	0.546
966	0.547
966	0.548
966	0.549
967	0.549
967	0.55
968	0.55
968	0.549
968	0.549
969	0.549
969	0.549
970	0.549
970	0.549
971	0.549
971	0.548
971	0.547
972	0.547
972	0.546
973	0.546
973	0.546
974	0.546
974	0.546
974	0.546
975	0.546
975	0.547
976	0.547
976	0.549
976	0.55
977	0.55
977	0.551
978	0.552
978	0.552
979	0.552
979	0.552
979	0.552
980	0.551
980	0.55
981	0.549
981	0.548
982	0.546
982	0.545
982	0.544
983	0.543
983	0.543
984	0.543
984	0.543
984	0.543
985	0.543
985	0.543
986	0.543
986	0.542
987	0.542
987	0.541
987	0.541
988	0.54
988	0.539
989	0.539
989	0.538
990	0.537
990	0.536
990	0.536
991	0.536
991	0.536
992	0.537
992	0.538
992	0.539
993	0.54
993	0.541
994	0.542
994	0.543
995	0.544
995	0.546
995	0.547
996	0.548
996	0.549
997	0.549
997	0.549
997	0.549
998	0.549
998	0.549
999	0.549
999	0.549
1000	0.55
1000	0.549
1000	0.549
1001	0.549
1001	0.549
1002	0.548
1002	0.548
1003	0.549
1003	0.549
1003	0.548
1004	0.548
1004	0.548
1005	0.548
1005	0.548
1005	0.548
1006	0.548
1006	0.548
1007	0.549
1007	0.549
1008	0.549
1008	0.549
1008	0.55
1009	0.55
1009	0.55
1010	0.55
1010	0.55
1010	0.55
1011	0.55
1011	0.549
1012	0.549
1012	0.549
1013	0.548
1013	0.548
1013	0.547
1014	0.546
1014	0.546
1015	0.545
1015	0.545
1016	0.544
1016	0.543
1016	0.541
1017	0.54
1017	0.538
1018	0.538
1018	0.537
1018	0.536
1019	0.536
1019	0.535
1020	0.535
1020	0.535
1021	0.536
1021	0.538
1021	0.539
1022	0.54
1022	0.542
1023	0.543
1023	0.544
1023	0.545
1024	0.545
1024	0.545
1025	0.545
1025	0.544
1026	0.544
1026	0.544
1026	0.543
1027	0.543
1027	0.542
1028	0.542
1028	0.541
1028	0.541
1029	0.54
1029	0.541
1030	0.541
1030	0.541
1031	0.542
1031	0.542
1031	0.543
1032	0.544
1032	0.545
1033	0.545
1033	0.546
1033	0.547
1034	0.547
1034	0.547
1035	0.547
1035	0.546
1036	0.545
1036	0.544
1036	0.544
1037	0.543
1037	0.542
1038	0.541
1038	0.541
1039	0.54
1039	0.54
1039	0.54
1040	0.541
1040	0.541
1041	0.541
1041	0.541
1041	0.541
1042	0.541
1042	0.541
1043	0.541
1043	0.54
1044	0.54
1044	0.539
1044	0.539
1045	0.538
1045	0.538
1046	0.538
1046	0.537
1046	0.538
1047	0.538
1047	0.539
1048	0.539
1048	0.541
1049	0.542
1049	0.543
1049	0.543
1050	0.543
1050	0.543
1051	0.543
1051	0.542
1051	0.542
1052	0.542
1052	0.541
1053	0.54
1053	0.539
1053	0.538
1054	0.537
1054	0.537
1055	0.537
1055	0.537
1056	0.537
1056	0.538
1056	0.537
1057	0.537
1057	0.536
1058	0.536
1058	0.534
1058	0.534
1059	0.533
1059	0.533
1060	0.532
1060	0.531
1061	0.531
1061	0.531
1061	0.531
1062	0.532
1062	0.533
1063	0.534
1063	0.535
1063	0.536
1064	0.535
1064	0.536
1065	0.536
1065	0.536
1066	0.535
1066	0.535
1066	0.534
1067	0.532
1067	0.531
1068	0.53
1068	0.528
1068	0.527
1069	0.526
1069	0.525
1070	0.523
1070	0.522
1071	0.521
1071	0.519
1071	0.518
1072	0.517
1072	0.517
1073	0.516
1073	0.516
1073	0.515
1074	0.515
1074	0.516
1075	0.515
1075	0.515
1076	0.515
1076	0.515
1076	0.514
1077	0.513
1077	0.512
1078	0.511
1078	0.511
1078	0.51
1079	0.509
1079	0.508
1080	0.508
1080	0.508
1080	0.508
1081	0.508
1081	0.509
1082	0.509
1082	0.509
1083	0.507
1083	0.506
1083	0.505
1084	0.504
1084	0.503
1085	0.502
1085	0.501
1085	0.5
1086	0.499
1086	0.497
1087	0.496
1087	0.494
1088	0.493
1088	0.491
1088	0.49
1089	0.487
1089	0.484
1090	0.481
1090	0.477
1090	0.472
1091	0.469
1091	0.467
1092	0.464
1092	0.462
1092	0.459
1093	0.455
1093	0.454
1094	0.451
1094	0.448
1095	0.443
1095	0.441
1095	0.437
1096	0.432
1096	0.428
1097	0.424
1097	0.419
1097	0.415
1098	0.41
1098	0.404
1099	0.399
1099	0.395
1100	0.39
1100	0.385
1100	0.379
1101	0.374
1101	0.367
1102	0.362
1102	0.357
1102	0.351
1103	0.346
1103	0.342
1104	0.338
1104	0.334
1104	0.331
1105	0.327
1105	0.323
1106	0.318
1106	0.312
1107	0.308
1107	0.305
1107	0.3
1108	0.297
1108	0.295
1109	0.291
1109	0.285
1109	0.283
1110	0.281
1110	0.277
1111	0.28
1111	0.278
