Data from reversibility-20sec_Absorbance__991__000000000000991.txt Node

Date: Tue Dec 05 17:43:26 CET 2023
User: Marek
Spectrometer: MAYP115816
Trigger mode: 0
Integration Time (sec): 2.000000E-1
Scans to average: 10
Electric dark correction enabled: true
Nonlinearity correction enabled: true
Boxcar width: 5
XAxis mode: Wavelengths
Number of Pixels in Spectrum: 2068
>>>>>Begin Spectral Data<<<<<
199	-0.08
199	-0.042
200	0.042
200	0.114
201	0.152
201	0.18
202	0.194
202	0.211
203	0.222
203	0.228
204	0.248
204	0.265
205	0.282
205	0.291
205	0.288
206	0.288
206	0.283
207	0.289
207	0.287
208	0.283
208	0.279
209	0.284
209	0.278
210	0.277
210	0.277
211	0.275
211	0.278
212	0.272
212	0.272
213	0.275
213	0.277
213	0.28
214	0.279
214	0.281
215	0.28
215	0.274
216	0.277
216	0.27
217	0.279
217	0.28
218	0.275
218	0.277
219	0.282
219	0.283
220	0.286
220	0.287
221	0.286
221	0.284
221	0.293
222	0.296
222	0.299
223	0.304
223	0.306
224	0.307
224	0.313
225	0.32
225	0.329
226	0.338
226	0.351
227	0.361
227	0.37
228	0.386
228	0.4
229	0.418
229	0.443
229	0.469
230	0.493
230	0.524
231	0.563
231	0.602
232	0.638
232	0.686
233	0.728
233	0.781
234	0.827
234	0.88
235	0.929
235	0.982
236	1.033
236	1.082
236	1.136
237	1.187
237	1.233
238	1.284
238	1.331
239	1.391
239	1.437
240	1.482
240	1.522
241	1.562
241	1.599
242	1.632
242	1.674
243	1.71
243	1.741
243	1.773
244	1.791
244	1.818
245	1.839
245	1.87
246	1.896
246	1.919
247	1.937
247	1.958
248	1.979
248	2
249	2.015
249	2.032
250	2.046
250	2.068
250	2.08
251	2.091
251	2.104
252	2.122
252	2.129
253	2.14
253	2.144
254	2.149
254	2.164
255	2.167
255	2.174
256	2.18
256	2.184
257	2.194
257	2.197
258	2.202
258	2.208
258	2.209
259	2.22
259	2.216
260	2.22
260	2.222
261	2.224
261	2.236
262	2.241
262	2.245
263	2.256
263	2.259
264	2.264
264	2.267
265	2.271
265	2.276
265	2.283
266	2.286
266	2.287
267	2.284
267	2.289
268	2.286
268	2.287
269	2.296
269	2.296
270	2.299
270	2.298
271	2.295
271	2.301
272	2.3
272	2.305
272	2.307
273	2.305
273	2.302
274	2.301
274	2.298
275	2.301
275	2.303
276	2.297
276	2.291
277	2.286
277	2.277
278	2.268
278	2.259
278	2.252
279	2.24
279	2.23
280	2.215
280	2.195
281	2.171
281	2.142
282	2.114
282	2.085
283	2.056
283	2.025
284	1.995
284	1.964
285	1.934
285	1.904
285	1.879
286	1.857
286	1.838
287	1.818
287	1.804
288	1.791
288	1.78
289	1.77
289	1.761
290	1.754
290	1.747
291	1.742
291	1.737
292	1.733
292	1.73
292	1.726
293	1.723
293	1.72
294	1.716
294	1.714
295	1.713
295	1.71
296	1.707
296	1.703
297	1.701
297	1.699
298	1.696
298	1.692
298	1.689
299	1.688
299	1.685
300	1.681
300	1.679
301	1.677
301	1.674
302	1.672
302	1.669
303	1.667
303	1.665
304	1.664
304	1.661
305	1.658
305	1.655
305	1.653
306	1.651
306	1.648
307	1.646
307	1.642
308	1.639
308	1.636
309	1.633
309	1.63
310	1.627
310	1.624
311	1.621
311	1.617
311	1.614
312	1.611
312	1.607
313	1.603
313	1.598
314	1.594
314	1.589
315	1.584
315	1.579
316	1.575
316	1.57
317	1.564
317	1.559
318	1.553
318	1.547
318	1.542
319	1.536
319	1.53
320	1.525
320	1.517
321	1.511
321	1.503
322	1.497
322	1.489
323	1.482
323	1.475
324	1.467
324	1.46
324	1.452
325	1.444
325	1.437
326	1.429
326	1.422
327	1.413
327	1.406
328	1.398
328	1.39
329	1.382
329	1.373
330	1.365
330	1.357
330	1.349
331	1.341
331	1.333
332	1.324
332	1.316
333	1.308
333	1.3
334	1.292
334	1.284
335	1.276
335	1.268
336	1.26
336	1.252
336	1.245
337	1.237
337	1.23
338	1.222
338	1.214
339	1.207
339	1.2
340	1.193
340	1.186
341	1.18
341	1.173
342	1.167
342	1.161
342	1.155
343	1.148
343	1.143
344	1.137
344	1.131
345	1.126
345	1.12
346	1.114
346	1.108
347	1.103
347	1.098
348	1.093
348	1.089
348	1.084
349	1.079
349	1.075
350	1.071
350	1.067
351	1.063
351	1.059
352	1.056
352	1.052
353	1.048
353	1.045
354	1.041
354	1.036
354	1.031
355	1.025
355	1.019
356	1.013
356	1.006
357	1
357	0.995
358	0.99
358	0.987
359	0.984
359	0.983
360	0.982
360	0.982
360	0.982
361	0.982
361	0.983
362	0.982
362	0.982
363	0.981
363	0.978
364	0.975
364	0.971
365	0.968
365	0.965
366	0.962
366	0.959
366	0.956
367	0.954
367	0.951
368	0.949
368	0.947
369	0.945
369	0.943
370	0.941
370	0.939
371	0.937
371	0.935
372	0.933
372	0.931
372	0.929
373	0.927
373	0.925
374	0.924
374	0.922
375	0.921
375	0.919
376	0.918
376	0.916
377	0.914
377	0.913
378	0.912
378	0.91
378	0.91
379	0.908
379	0.907
380	0.906
380	0.905
381	0.904
381	0.903
382	0.903
382	0.902
383	0.901
383	0.9
383	0.898
384	0.897
384	0.896
385	0.895
385	0.894
386	0.893
386	0.892
387	0.891
387	0.891
388	0.889
388	0.889
389	0.888
389	0.887
389	0.886
390	0.885
390	0.884
391	0.884
391	0.884
392	0.884
392	0.883
393	0.883
393	0.882
394	0.881
394	0.88
394	0.88
395	0.879
395	0.878
396	0.876
396	0.875
397	0.874
397	0.873
398	0.873
398	0.872
399	0.871
399	0.871
400	0.871
400	0.87
400	0.87
401	0.87
401	0.869
402	0.867
402	0.866
403	0.864
403	0.863
404	0.863
404	0.863
405	0.862
405	0.862
405	0.861
406	0.86
406	0.859
407	0.858
407	0.858
408	0.858
408	0.858
409	0.856
409	0.855
410	0.854
410	0.853
411	0.853
411	0.853
411	0.853
412	0.853
412	0.852
413	0.851
413	0.85
414	0.849
414	0.849
415	0.848
415	0.848
416	0.847
416	0.846
416	0.845
417	0.844
417	0.844
418	0.843
418	0.842
419	0.841
419	0.84
420	0.839
420	0.839
421	0.839
421	0.839
421	0.839
422	0.838
422	0.838
423	0.837
423	0.838
424	0.838
424	0.838
425	0.837
425	0.835
426	0.834
426	0.833
427	0.832
427	0.831
427	0.83
428	0.829
428	0.829
429	0.829
429	0.829
430	0.83
430	0.83
431	0.829
431	0.829
432	0.83
432	0.83
432	0.83
433	0.829
433	0.828
434	0.827
434	0.826
435	0.825
435	0.825
436	0.824
436	0.824
437	0.824
437	0.824
437	0.824
438	0.824
438	0.823
439	0.823
439	0.823
440	0.822
440	0.822
441	0.821
441	0.821
442	0.821
442	0.821
442	0.82
443	0.82
443	0.82
444	0.82
444	0.819
445	0.819
445	0.819
446	0.819
446	0.82
447	0.819
447	0.818
447	0.818
448	0.818
448	0.818
449	0.818
449	0.818
450	0.818
450	0.818
451	0.818
451	0.819
452	0.819
452	0.819
452	0.818
453	0.819
453	0.818
454	0.818
454	0.818
455	0.817
455	0.816
456	0.816
456	0.816
457	0.816
457	0.816
458	0.815
458	0.815
458	0.815
459	0.815
459	0.816
460	0.816
460	0.816
461	0.816
461	0.815
462	0.814
462	0.814
463	0.813
463	0.813
463	0.813
464	0.814
464	0.814
465	0.814
465	0.814
466	0.814
466	0.814
467	0.815
467	0.816
467	0.817
468	0.817
468	0.817
469	0.817
469	0.816
470	0.815
470	0.815
471	0.815
471	0.815
472	0.815
472	0.815
472	0.815
473	0.815
473	0.816
474	0.816
474	0.817
475	0.818
475	0.819
476	0.82
476	0.821
477	0.822
477	0.822
477	0.823
478	0.824
478	0.824
479	0.824
479	0.824
480	0.824
480	0.825
481	0.826
481	0.826
482	0.826
482	0.827
482	0.827
483	0.827
483	0.827
484	0.829
484	0.832
485	0.834
485	0.835
486	0.836
486	0.838
487	0.839
487	0.84
487	0.842
488	0.844
488	0.846
489	0.847
489	0.847
490	0.847
490	0.848
491	0.848
491	0.848
492	0.85
492	0.851
492	0.852
493	0.853
493	0.854
494	0.855
494	0.856
495	0.858
495	0.86
496	0.862
496	0.864
496	0.865
497	0.866
497	0.867
498	0.869
498	0.871
499	0.872
499	0.873
500	0.874
500	0.876
501	0.877
501	0.878
501	0.88
502	0.882
502	0.883
503	0.885
503	0.887
504	0.889
504	0.891
505	0.892
505	0.893
506	0.894
506	0.896
506	0.897
507	0.899
507	0.9
508	0.901
508	0.902
509	0.902
509	0.904
510	0.905
510	0.906
511	0.907
511	0.909
511	0.909
512	0.91
512	0.911
513	0.913
513	0.914
514	0.914
514	0.914
515	0.915
515	0.916
515	0.917
516	0.917
516	0.917
517	0.917
517	0.918
518	0.917
518	0.917
519	0.918
519	0.917
520	0.918
520	0.918
520	0.918
521	0.918
521	0.918
522	0.918
522	0.918
523	0.918
523	0.917
524	0.917
524	0.917
524	0.916
525	0.916
525	0.914
526	0.914
526	0.913
527	0.912
527	0.911
528	0.91
528	0.909
529	0.908
529	0.907
529	0.905
530	0.904
530	0.902
531	0.901
531	0.899
532	0.898
532	0.896
533	0.894
533	0.892
533	0.89
534	0.889
534	0.887
535	0.885
535	0.883
536	0.881
536	0.879
537	0.877
537	0.875
538	0.873
538	0.871
538	0.868
539	0.865
539	0.863
540	0.861
540	0.859
541	0.857
541	0.855
542	0.852
542	0.849
542	0.847
543	0.844
543	0.842
544	0.84
544	0.837
545	0.834
545	0.831
546	0.828
546	0.826
547	0.825
547	0.823
547	0.82
548	0.818
548	0.814
549	0.812
549	0.809
550	0.806
550	0.804
551	0.801
551	0.798
551	0.794
552	0.791
552	0.789
553	0.785
553	0.783
554	0.781
554	0.779
555	0.777
555	0.775
556	0.772
556	0.769
556	0.767
557	0.764
557	0.761
558	0.759
558	0.756
559	0.753
559	0.75
560	0.748
560	0.746
560	0.744
561	0.742
561	0.74
562	0.738
562	0.737
563	0.735
563	0.733
564	0.73
564	0.728
564	0.725
565	0.722
565	0.719
566	0.717
566	0.714
567	0.711
567	0.709
568	0.707
568	0.705
568	0.704
569	0.702
569	0.7
570	0.699
570	0.699
571	0.697
571	0.696
572	0.694
572	0.693
573	0.692
573	0.691
573	0.691
574	0.689
574	0.688
575	0.685
575	0.682
576	0.68
576	0.68
577	0.681
577	0.68
577	0.678
578	0.676
578	0.674
579	0.671
579	0.668
580	0.669
580	0.67
581	0.671
581	0.67
581	0.667
582	0.665
582	0.663
583	0.661
583	0.66
584	0.661
584	0.662
585	0.659
585	0.655
585	0.652
586	0.651
586	0.649
587	0.65
587	0.649
588	0.649
588	0.647
589	0.644
589	0.641
590	0.64
590	0.639
590	0.637
591	0.634
591	0.633
592	0.632
592	0.632
593	0.63
593	0.628
594	0.628
594	0.627
594	0.626
595	0.625
595	0.624
596	0.623
596	0.621
597	0.617
597	0.616
598	0.617
598	0.617
598	0.616
599	0.616
599	0.616
600	0.615
600	0.615
601	0.614
601	0.612
602	0.612
602	0.61
602	0.609
603	0.608
603	0.606
604	0.605
604	0.604
605	0.603
605	0.603
606	0.603
606	0.604
606	0.604
607	0.603
607	0.601
608	0.6
608	0.599
609	0.598
609	0.597
610	0.595
610	0.595
610	0.594
611	0.592
611	0.591
612	0.59
612	0.59
613	0.59
613	0.59
614	0.59
614	0.59
614	0.589
615	0.589
615	0.588
616	0.588
616	0.587
617	0.586
617	0.585
618	0.584
618	0.582
618	0.58
619	0.579
619	0.577
620	0.575
620	0.574
621	0.574
621	0.573
622	0.572
622	0.572
622	0.571
623	0.571
623	0.57
624	0.569
624	0.569
625	0.568
625	0.567
626	0.566
626	0.565
626	0.564
627	0.563
627	0.562
628	0.561
628	0.56
629	0.559
629	0.558
630	0.557
630	0.556
630	0.555
631	0.554
631	0.553
632	0.553
632	0.551
633	0.55
633	0.549
634	0.549
634	0.548
634	0.549
635	0.548
635	0.548
636	0.548
636	0.547
637	0.547
637	0.547
638	0.546
638	0.545
638	0.544
639	0.544
639	0.543
640	0.542
640	0.541
641	0.541
641	0.54
642	0.539
642	0.538
642	0.538
643	0.538
643	0.538
644	0.538
644	0.537
645	0.537
645	0.536
646	0.535
646	0.535
646	0.535
647	0.535
647	0.535
648	0.534
648	0.533
649	0.533
649	0.532
650	0.531
650	0.531
650	0.531
651	0.531
651	0.531
652	0.531
652	0.53
653	0.53
653	0.531
653	0.535
654	0.462
654	0.425
655	0.435
655	0.437
656	0.437
656	0.437
657	0.437
657	0.437
657	0.437
658	0.436
658	0.424
659	0.479
659	0.536
660	0.527
660	0.525
661	0.524
661	0.523
661	0.521
662	0.521
662	0.52
663	0.52
663	0.519
664	0.519
664	0.519
665	0.518
665	0.518
665	0.518
666	0.518
666	0.517
667	0.517
667	0.517
668	0.517
668	0.517
669	0.517
669	0.516
669	0.517
670	0.518
670	0.518
671	0.519
671	0.519
672	0.519
672	0.518
672	0.518
673	0.517
673	0.517
674	0.516
674	0.516
675	0.515
675	0.513
676	0.513
676	0.513
676	0.513
677	0.513
677	0.513
678	0.514
678	0.514
679	0.514
679	0.513
680	0.513
680	0.513
680	0.513
681	0.512
681	0.512
682	0.511
682	0.511
683	0.511
683	0.511
684	0.512
684	0.512
684	0.512
685	0.511
685	0.511
686	0.512
686	0.512
687	0.512
687	0.512
687	0.511
688	0.511
688	0.51
689	0.51
689	0.51
690	0.51
690	0.509
691	0.509
691	0.509
691	0.509
692	0.508
692	0.508
693	0.508
693	0.508
694	0.508
694	0.507
695	0.507
695	0.508
695	0.509
696	0.509
696	0.509
697	0.509
697	0.509
698	0.509
698	0.508
698	0.508
699	0.508
699	0.508
700	0.506
700	0.505
701	0.504
701	0.503
702	0.502
702	0.501
702	0.5
703	0.499
703	0.497
704	0.496
704	0.496
705	0.496
705	0.496
705	0.497
706	0.497
706	0.497
707	0.498
707	0.499
708	0.5
708	0.5
709	0.501
709	0.501
709	0.501
710	0.5
710	0.5
711	0.5
711	0.5
712	0.5
712	0.5
713	0.499
713	0.499
713	0.499
714	0.498
714	0.497
715	0.496
715	0.495
716	0.494
716	0.493
716	0.493
717	0.492
717	0.492
718	0.491
718	0.491
719	0.491
719	0.492
720	0.493
720	0.494
720	0.494
721	0.494
721	0.495
722	0.495
722	0.494
723	0.494
723	0.494
723	0.494
724	0.493
724	0.492
725	0.49
725	0.488
726	0.487
726	0.487
727	0.486
727	0.485
727	0.485
728	0.484
728	0.484
729	0.484
729	0.485
730	0.486
730	0.487
730	0.488
731	0.489
731	0.489
732	0.49
732	0.491
733	0.491
733	0.492
734	0.492
734	0.492
734	0.493
735	0.493
735	0.493
736	0.493
736	0.492
737	0.492
737	0.492
737	0.492
738	0.492
738	0.49
739	0.489
739	0.488
740	0.487
740	0.486
741	0.485
741	0.485
741	0.484
742	0.482
742	0.481
743	0.481
743	0.481
744	0.482
744	0.482
744	0.482
745	0.482
745	0.482
746	0.483
746	0.483
747	0.483
747	0.483
748	0.483
748	0.483
748	0.482
749	0.481
749	0.481
750	0.481
750	0.48
751	0.48
751	0.479
751	0.479
752	0.478
752	0.477
753	0.476
753	0.476
754	0.476
754	0.476
754	0.476
755	0.477
755	0.479
756	0.479
756	0.477
757	0.476
757	0.476
758	0.476
758	0.476
758	0.476
759	0.477
759	0.475
760	0.474
760	0.473
761	0.473
761	0.474
761	0.476
762	0.476
762	0.477
763	0.479
763	0.478
764	0.478
764	0.478
764	0.478
765	0.477
765	0.477
766	0.477
766	0.477
767	0.476
767	0.474
768	0.472
768	0.471
768	0.471
769	0.471
769	0.471
770	0.471
770	0.471
771	0.471
771	0.47
771	0.47
772	0.47
772	0.47
773	0.47
773	0.469
774	0.469
774	0.468
775	0.469
775	0.469
775	0.468
776	0.468
776	0.468
777	0.469
777	0.469
778	0.47
778	0.47
778	0.47
779	0.471
779	0.472
780	0.471
780	0.47
781	0.47
781	0.469
781	0.468
782	0.468
782	0.467
783	0.467
783	0.467
784	0.467
784	0.466
784	0.467
785	0.467
785	0.466
786	0.467
786	0.467
787	0.468
787	0.468
788	0.467
788	0.466
788	0.466
789	0.464
789	0.464
790	0.465
790	0.464
791	0.463
791	0.462
791	0.461
792	0.463
792	0.465
793	0.464
793	0.465
794	0.465
794	0.464
794	0.464
795	0.464
795	0.465
796	0.465
796	0.465
797	0.463
797	0.461
797	0.462
798	0.461
798	0.461
799	0.461
799	0.461
800	0.462
800	0.461
801	0.46
801	0.461
801	0.461
802	0.461
802	0.461
803	0.461
803	0.46
804	0.46
804	0.461
804	0.461
805	0.461
805	0.46
806	0.46
806	0.46
807	0.459
807	0.459
807	0.459
808	0.459
808	0.459
809	0.457
809	0.457
810	0.457
810	0.457
810	0.456
811	0.455
811	0.455
812	0.457
812	0.457
813	0.457
813	0.457
813	0.457
814	0.458
814	0.459
815	0.46
815	0.461
816	0.461
816	0.46
817	0.458
817	0.457
817	0.457
818	0.457
818	0.458
819	0.458
819	0.457
820	0.456
820	0.455
820	0.455
821	0.456
821	0.456
822	0.456
822	0.456
823	0.456
823	0.455
823	0.455
824	0.456
824	0.457
825	0.459
825	0.46
826	0.461
826	0.46
826	0.46
827	0.461
827	0.462
828	0.462
828	0.461
829	0.461
829	0.461
829	0.459
830	0.458
830	0.457
831	0.459
831	0.459
832	0.458
832	0.458
832	0.458
833	0.458
833	0.458
834	0.459
834	0.459
835	0.458
835	0.458
835	0.457
836	0.457
836	0.457
837	0.456
837	0.456
838	0.455
838	0.454
839	0.454
839	0.453
839	0.452
840	0.451
840	0.45
841	0.448
841	0.447
842	0.446
842	0.445
842	0.444
843	0.443
843	0.442
844	0.442
844	0.441
845	0.441
845	0.44
845	0.44
846	0.441
846	0.441
847	0.441
847	0.442
848	0.443
848	0.443
848	0.444
849	0.445
849	0.447
850	0.448
850	0.449
851	0.449
851	0.451
851	0.451
852	0.45
852	0.45
853	0.45
853	0.449
854	0.449
854	0.449
854	0.45
855	0.451
855	0.451
856	0.451
856	0.451
857	0.452
857	0.453
857	0.454
858	0.455
858	0.455
859	0.453
859	0.452
860	0.45
860	0.449
860	0.448
861	0.448
861	0.447
862	0.446
862	0.445
863	0.444
863	0.443
863	0.443
864	0.443
864	0.443
865	0.444
865	0.445
866	0.444
866	0.443
866	0.443
867	0.444
867	0.444
868	0.445
868	0.445
869	0.446
869	0.446
869	0.445
870	0.445
870	0.445
871	0.445
871	0.446
872	0.446
872	0.446
872	0.445
873	0.445
873	0.445
874	0.444
874	0.444
875	0.443
875	0.443
875	0.442
876	0.442
876	0.442
877	0.442
877	0.442
878	0.442
878	0.442
878	0.443
879	0.443
879	0.443
880	0.443
880	0.443
881	0.443
881	0.442
881	0.442
882	0.442
882	0.442
883	0.441
883	0.441
884	0.441
884	0.441
884	0.441
885	0.441
885	0.442
886	0.442
886	0.443
887	0.444
887	0.444
887	0.444
888	0.444
888	0.444
889	0.444
889	0.445
890	0.446
890	0.447
890	0.448
891	0.449
891	0.449
892	0.45
892	0.45
893	0.45
893	0.451
893	0.451
894	0.452
894	0.452
895	0.451
895	0.452
895	0.451
896	0.451
896	0.451
897	0.452
897	0.452
898	0.452
898	0.452
898	0.452
899	0.451
899	0.45
900	0.45
900	0.45
901	0.45
901	0.45
901	0.449
902	0.45
902	0.45
903	0.45
903	0.451
904	0.452
904	0.452
904	0.453
905	0.453
905	0.454
906	0.454
906	0.455
907	0.455
907	0.456
907	0.456
908	0.456
908	0.456
909	0.456
909	0.457
910	0.458
910	0.458
910	0.458
911	0.457
911	0.457
912	0.456
912	0.456
913	0.455
913	0.455
913	0.455
914	0.454
914	0.453
915	0.453
915	0.453
916	0.453
916	0.453
916	0.453
917	0.452
917	0.452
918	0.451
918	0.451
918	0.45
919	0.45
919	0.449
920	0.449
920	0.449
921	0.449
921	0.448
921	0.448
922	0.447
922	0.448
923	0.448
923	0.449
924	0.449
924	0.449
924	0.45
925	0.451
925	0.451
926	0.452
926	0.453
927	0.453
927	0.453
927	0.453
928	0.453
928	0.453
929	0.453
929	0.453
930	0.453
930	0.452
930	0.452
931	0.452
931	0.451
932	0.451
932	0.451
933	0.451
933	0.45
933	0.45
934	0.449
934	0.449
935	0.449
935	0.448
935	0.448
936	0.448
936	0.447
937	0.446
937	0.446
938	0.446
938	0.446
938	0.446
939	0.446
939	0.446
940	0.447
940	0.447
941	0.448
941	0.449
941	0.45
942	0.451
942	0.452
943	0.452
943	0.453
944	0.453
944	0.453
944	0.453
945	0.453
945	0.453
946	0.454
946	0.454
946	0.455
947	0.456
947	0.457
948	0.458
948	0.459
949	0.459
949	0.46
949	0.461
950	0.462
950	0.463
951	0.465
951	0.465
952	0.464
952	0.464
952	0.464
953	0.464
953	0.465
954	0.465
954	0.464
955	0.464
955	0.463
955	0.462
956	0.462
956	0.463
957	0.464
957	0.464
957	0.465
958	0.465
958	0.465
959	0.465
959	0.466
960	0.467
960	0.467
960	0.466
961	0.466
961	0.466
962	0.465
962	0.464
963	0.464
963	0.463
963	0.463
964	0.463
964	0.462
965	0.463
965	0.463
966	0.463
966	0.464
966	0.464
967	0.465
967	0.465
968	0.466
968	0.465
968	0.465
969	0.465
969	0.465
970	0.465
970	0.464
971	0.464
971	0.464
971	0.463
972	0.463
972	0.463
973	0.463
973	0.463
974	0.463
974	0.463
974	0.463
975	0.463
975	0.463
976	0.464
976	0.465
976	0.465
977	0.465
977	0.465
978	0.465
978	0.465
979	0.464
979	0.464
979	0.463
980	0.463
980	0.462
981	0.46
981	0.46
982	0.46
982	0.46
982	0.46
983	0.46
983	0.461
984	0.461
984	0.462
984	0.462
985	0.463
985	0.463
986	0.462
986	0.462
987	0.462
987	0.461
987	0.461
988	0.46
988	0.46
989	0.459
989	0.458
990	0.458
990	0.457
990	0.457
991	0.457
991	0.458
992	0.458
992	0.458
992	0.459
993	0.459
993	0.46
994	0.461
994	0.461
995	0.462
995	0.463
995	0.465
996	0.465
996	0.466
997	0.466
997	0.467
997	0.468
998	0.468
998	0.469
999	0.47
999	0.47
1000	0.471
1000	0.471
1000	0.472
1001	0.472
1001	0.473
1002	0.473
1002	0.473
1003	0.474
1003	0.473
1003	0.473
1004	0.473
1004	0.472
1005	0.472
1005	0.472
1005	0.471
1006	0.47
1006	0.47
1007	0.469
1007	0.469
1008	0.469
1008	0.47
1008	0.47
1009	0.47
1009	0.471
1010	0.471
1010	0.472
1010	0.473
1011	0.473
1011	0.473
1012	0.474
1012	0.474
1013	0.473
1013	0.473
1013	0.473
1014	0.472
1014	0.472
1015	0.471
1015	0.471
1016	0.471
1016	0.47
1016	0.47
1017	0.469
1017	0.469
1018	0.469
1018	0.469
1018	0.468
1019	0.468
1019	0.468
1020	0.468
1020	0.469
1021	0.469
1021	0.47
1021	0.471
1022	0.472
1022	0.473
1023	0.474
1023	0.475
1023	0.476
1024	0.477
1024	0.477
1025	0.478
1025	0.479
1026	0.478
1026	0.478
1026	0.478
1027	0.479
1027	0.479
1028	0.479
1028	0.479
1028	0.478
1029	0.478
1029	0.478
1030	0.478
1030	0.478
1031	0.479
1031	0.479
1031	0.479
1032	0.479
1032	0.48
1033	0.48
1033	0.481
1033	0.481
1034	0.481
1034	0.481
1035	0.48
1035	0.479
1036	0.478
1036	0.477
1036	0.477
1037	0.476
1037	0.475
1038	0.475
1038	0.475
1039	0.474
1039	0.474
1039	0.475
1040	0.475
1040	0.475
1041	0.475
1041	0.475
1041	0.475
1042	0.475
1042	0.475
1043	0.474
1043	0.474
1044	0.473
1044	0.472
1044	0.472
1045	0.471
1045	0.471
1046	0.471
1046	0.47
1046	0.47
1047	0.47
1047	0.471
1048	0.472
1048	0.474
1049	0.475
1049	0.476
1049	0.477
1050	0.478
1050	0.478
1051	0.479
1051	0.479
1051	0.479
1052	0.479
1052	0.478
1053	0.477
1053	0.476
1053	0.475
1054	0.474
1054	0.474
1055	0.474
1055	0.474
1056	0.474
1056	0.474
1056	0.473
1057	0.472
1057	0.472
1058	0.471
1058	0.47
1058	0.469
1059	0.468
1059	0.466
1060	0.465
1060	0.464
1061	0.463
1061	0.462
1061	0.461
1062	0.461
1062	0.461
1063	0.461
1063	0.462
1063	0.462
1064	0.461
1064	0.461
1065	0.461
1065	0.461
1066	0.46
1066	0.46
1066	0.459
1067	0.458
1067	0.457
1068	0.457
1068	0.456
1068	0.456
1069	0.455
1069	0.454
1070	0.453
1070	0.453
1071	0.452
1071	0.452
1071	0.452
1072	0.451
1072	0.45
1073	0.45
1073	0.45
1073	0.449
1074	0.45
1074	0.451
1075	0.451
1075	0.451
1076	0.451
1076	0.451
1076	0.451
1077	0.451
1077	0.45
1078	0.449
1078	0.448
1078	0.448
1079	0.447
1079	0.446
1080	0.445
1080	0.445
1080	0.445
1081	0.444
1081	0.444
1082	0.445
1082	0.444
1083	0.443
1083	0.441
1083	0.44
1084	0.439
1084	0.437
1085	0.436
1085	0.434
1085	0.433
1086	0.432
1086	0.429
1087	0.427
1087	0.426
1088	0.425
1088	0.423
1088	0.422
1089	0.419
1089	0.416
1090	0.412
1090	0.409
1090	0.405
1091	0.403
1091	0.4
1092	0.397
1092	0.395
1092	0.392
1093	0.388
1093	0.386
1094	0.384
1094	0.382
1095	0.378
1095	0.376
1095	0.373
1096	0.37
1096	0.365
1097	0.362
1097	0.357
1097	0.353
1098	0.349
1098	0.344
1099	0.341
1099	0.336
1100	0.332
1100	0.327
1100	0.321
1101	0.317
1101	0.312
1102	0.309
1102	0.306
1102	0.302
1103	0.298
1103	0.293
1104	0.29
1104	0.285
1104	0.283
1105	0.279
1105	0.274
1106	0.269
1106	0.265
1107	0.261
1107	0.258
1107	0.252
1108	0.25
1108	0.247
1109	0.245
1109	0.24
1109	0.238
1110	0.238
1110	0.237
1111	0.236
1111	0.23
