Data from reversibility-20sec_Absorbance__990__000000000000990.txt Node

Date: Tue Dec 05 17:43:06 CET 2023
User: Marek
Spectrometer: MAYP115816
Trigger mode: 0
Integration Time (sec): 2.000000E-1
Scans to average: 10
Electric dark correction enabled: true
Nonlinearity correction enabled: true
Boxcar width: 5
XAxis mode: Wavelengths
Number of Pixels in Spectrum: 2068
>>>>>Begin Spectral Data<<<<<
199	-0.081
199	-0.041
200	0.036
200	0.097
201	0.137
201	0.162
202	0.178
202	0.194
203	0.202
203	0.21
204	0.228
204	0.25
205	0.27
205	0.279
205	0.278
206	0.277
206	0.279
207	0.286
207	0.284
208	0.283
208	0.282
209	0.282
209	0.275
210	0.272
210	0.274
211	0.276
211	0.278
212	0.27
212	0.271
213	0.272
213	0.273
213	0.271
214	0.274
214	0.275
215	0.275
215	0.271
216	0.272
216	0.273
217	0.278
217	0.274
218	0.271
218	0.276
219	0.28
219	0.281
220	0.284
220	0.282
221	0.285
221	0.283
221	0.286
222	0.29
222	0.297
223	0.307
223	0.307
224	0.307
224	0.313
225	0.326
225	0.337
226	0.342
226	0.356
227	0.363
227	0.373
228	0.385
228	0.395
229	0.411
229	0.438
229	0.463
230	0.486
230	0.515
231	0.553
231	0.593
232	0.629
232	0.672
233	0.717
233	0.77
234	0.821
234	0.876
235	0.928
235	0.978
236	1.032
236	1.085
236	1.138
237	1.192
237	1.243
238	1.291
238	1.337
239	1.394
239	1.44
240	1.483
240	1.525
241	1.564
241	1.602
242	1.637
242	1.677
243	1.714
243	1.745
243	1.777
244	1.798
244	1.826
245	1.847
245	1.878
246	1.901
246	1.925
247	1.94
247	1.959
248	1.983
248	2.002
249	2.016
249	2.026
250	2.04
250	2.058
250	2.071
251	2.083
251	2.093
252	2.113
252	2.124
253	2.133
253	2.139
254	2.148
254	2.166
255	2.173
255	2.182
256	2.185
256	2.188
257	2.196
257	2.198
258	2.202
258	2.205
258	2.215
259	2.219
259	2.219
260	2.219
260	2.227
261	2.23
261	2.242
262	2.242
262	2.245
263	2.256
263	2.26
264	2.259
264	2.262
265	2.266
265	2.272
265	2.274
266	2.279
266	2.283
267	2.285
267	2.29
268	2.289
268	2.292
269	2.301
269	2.304
270	2.303
270	2.302
271	2.301
271	2.305
272	2.302
272	2.308
272	2.313
273	2.308
273	2.304
274	2.301
274	2.303
275	2.305
275	2.308
276	2.305
276	2.301
277	2.3
277	2.291
278	2.279
278	2.274
278	2.271
279	2.261
279	2.25
280	2.236
280	2.22
281	2.197
281	2.169
282	2.141
282	2.114
283	2.086
283	2.056
284	2.025
284	1.994
285	1.965
285	1.937
285	1.911
286	1.888
286	1.869
287	1.85
287	1.835
288	1.821
288	1.811
289	1.802
289	1.793
290	1.786
290	1.781
291	1.775
291	1.771
292	1.768
292	1.765
292	1.76
293	1.757
293	1.754
294	1.75
294	1.748
295	1.746
295	1.743
296	1.741
296	1.736
297	1.734
297	1.732
298	1.73
298	1.727
298	1.724
299	1.722
299	1.72
300	1.717
300	1.715
301	1.712
301	1.71
302	1.707
302	1.705
303	1.704
303	1.702
304	1.7
304	1.698
305	1.695
305	1.692
305	1.69
306	1.689
306	1.686
307	1.684
307	1.681
308	1.678
308	1.676
309	1.673
309	1.67
310	1.667
310	1.665
311	1.662
311	1.657
311	1.654
312	1.65
312	1.646
313	1.642
313	1.638
314	1.633
314	1.629
315	1.624
315	1.619
316	1.614
316	1.609
317	1.604
317	1.599
318	1.594
318	1.588
318	1.582
319	1.576
319	1.57
320	1.564
320	1.557
321	1.55
321	1.543
322	1.536
322	1.529
323	1.52
323	1.513
324	1.506
324	1.498
324	1.49
325	1.483
325	1.476
326	1.468
326	1.46
327	1.452
327	1.445
328	1.437
328	1.43
329	1.421
329	1.413
330	1.405
330	1.397
330	1.388
331	1.38
331	1.371
332	1.363
332	1.355
333	1.346
333	1.338
334	1.33
334	1.322
335	1.314
335	1.305
336	1.297
336	1.289
336	1.282
337	1.274
337	1.267
338	1.259
338	1.252
339	1.245
339	1.237
340	1.23
340	1.224
341	1.217
341	1.21
342	1.204
342	1.198
342	1.191
343	1.185
343	1.179
344	1.173
344	1.167
345	1.161
345	1.156
346	1.151
346	1.145
347	1.14
347	1.135
348	1.13
348	1.125
348	1.121
349	1.116
349	1.112
350	1.108
350	1.104
351	1.1
351	1.096
352	1.093
352	1.089
353	1.086
353	1.082
354	1.077
354	1.073
354	1.068
355	1.063
355	1.056
356	1.049
356	1.042
357	1.035
357	1.029
358	1.024
358	1.02
359	1.018
359	1.017
360	1.016
360	1.015
360	1.016
361	1.016
361	1.017
362	1.017
362	1.017
363	1.015
363	1.013
364	1.01
364	1.006
365	1.003
365	1
366	0.997
366	0.993
366	0.991
367	0.988
367	0.985
368	0.983
368	0.981
369	0.979
369	0.977
370	0.975
370	0.973
371	0.971
371	0.969
372	0.967
372	0.965
372	0.964
373	0.962
373	0.96
374	0.959
374	0.957
375	0.955
375	0.953
376	0.952
376	0.951
377	0.949
377	0.947
378	0.946
378	0.945
378	0.945
379	0.944
379	0.942
380	0.941
380	0.94
381	0.939
381	0.938
382	0.937
382	0.936
383	0.935
383	0.934
383	0.933
384	0.931
384	0.93
385	0.929
385	0.929
386	0.928
386	0.927
387	0.926
387	0.926
388	0.925
388	0.924
389	0.923
389	0.922
389	0.921
390	0.92
390	0.919
391	0.918
391	0.918
392	0.918
392	0.918
393	0.917
393	0.916
394	0.916
394	0.915
394	0.914
395	0.913
395	0.912
396	0.911
396	0.909
397	0.908
397	0.908
398	0.907
398	0.907
399	0.906
399	0.906
400	0.905
400	0.905
400	0.905
401	0.905
401	0.903
402	0.902
402	0.9
403	0.899
403	0.898
404	0.898
404	0.897
405	0.897
405	0.896
405	0.895
406	0.894
406	0.893
407	0.893
407	0.892
408	0.892
408	0.891
409	0.889
409	0.888
410	0.887
410	0.887
411	0.886
411	0.886
411	0.886
412	0.885
412	0.884
413	0.884
413	0.883
414	0.883
414	0.882
415	0.881
415	0.881
416	0.881
416	0.88
416	0.879
417	0.878
417	0.877
418	0.876
418	0.875
419	0.874
419	0.873
420	0.872
420	0.872
421	0.872
421	0.872
421	0.871
422	0.871
422	0.871
423	0.871
423	0.871
424	0.871
424	0.87
425	0.87
425	0.868
426	0.867
426	0.866
427	0.864
427	0.863
427	0.863
428	0.862
428	0.862
429	0.862
429	0.862
430	0.863
430	0.863
431	0.862
431	0.862
432	0.863
432	0.863
432	0.862
433	0.862
433	0.86
434	0.859
434	0.858
435	0.857
435	0.857
436	0.857
436	0.856
437	0.856
437	0.856
437	0.856
438	0.856
438	0.856
439	0.855
439	0.855
440	0.855
440	0.854
441	0.853
441	0.853
442	0.852
442	0.852
442	0.852
443	0.851
443	0.851
444	0.851
444	0.851
445	0.851
445	0.851
446	0.851
446	0.851
447	0.85
447	0.85
447	0.85
448	0.85
448	0.85
449	0.85
449	0.85
450	0.85
450	0.85
451	0.85
451	0.85
452	0.85
452	0.85
452	0.849
453	0.849
453	0.849
454	0.849
454	0.848
455	0.848
455	0.848
456	0.847
456	0.847
457	0.846
457	0.846
458	0.846
458	0.846
458	0.846
459	0.845
459	0.846
460	0.847
460	0.847
461	0.847
461	0.847
462	0.846
462	0.846
463	0.845
463	0.845
463	0.845
464	0.846
464	0.846
465	0.846
465	0.845
466	0.845
466	0.846
467	0.846
467	0.847
467	0.848
468	0.848
468	0.849
469	0.848
469	0.846
470	0.846
470	0.846
471	0.846
471	0.846
472	0.846
472	0.846
472	0.845
473	0.846
473	0.846
474	0.847
474	0.848
475	0.849
475	0.85
476	0.85
476	0.851
477	0.852
477	0.853
477	0.853
478	0.853
478	0.853
479	0.854
479	0.854
480	0.854
480	0.855
481	0.856
481	0.855
482	0.855
482	0.856
482	0.857
483	0.857
483	0.856
484	0.858
484	0.861
485	0.863
485	0.863
486	0.865
486	0.866
487	0.868
487	0.869
487	0.87
488	0.872
488	0.875
489	0.875
489	0.875
490	0.875
490	0.876
491	0.876
491	0.877
492	0.878
492	0.879
492	0.88
493	0.882
493	0.883
494	0.883
494	0.885
495	0.887
495	0.89
496	0.891
496	0.893
496	0.894
497	0.896
497	0.897
498	0.899
498	0.9
499	0.902
499	0.903
500	0.904
500	0.905
501	0.906
501	0.908
501	0.91
502	0.912
502	0.913
503	0.914
503	0.916
504	0.918
504	0.92
505	0.921
505	0.922
506	0.923
506	0.924
506	0.925
507	0.927
507	0.928
508	0.928
508	0.929
509	0.93
509	0.931
510	0.932
510	0.934
511	0.935
511	0.937
511	0.938
512	0.939
512	0.939
513	0.941
513	0.942
514	0.942
514	0.943
515	0.943
515	0.944
515	0.944
516	0.944
516	0.944
517	0.944
517	0.944
518	0.944
518	0.944
519	0.944
519	0.944
520	0.945
520	0.945
520	0.945
521	0.945
521	0.944
522	0.944
522	0.943
523	0.943
523	0.943
524	0.943
524	0.942
524	0.941
525	0.94
525	0.94
526	0.939
526	0.938
527	0.937
527	0.936
528	0.935
528	0.934
529	0.932
529	0.932
529	0.93
530	0.929
530	0.927
531	0.925
531	0.924
532	0.922
532	0.92
533	0.919
533	0.917
533	0.916
534	0.914
534	0.912
535	0.91
535	0.908
536	0.906
536	0.904
537	0.902
537	0.9
538	0.897
538	0.895
538	0.891
539	0.889
539	0.887
540	0.885
540	0.883
541	0.88
541	0.878
542	0.876
542	0.873
542	0.87
543	0.868
543	0.866
544	0.864
544	0.862
545	0.859
545	0.856
546	0.853
546	0.851
547	0.849
547	0.847
547	0.845
548	0.842
548	0.839
549	0.836
549	0.833
550	0.83
550	0.828
551	0.825
551	0.822
551	0.819
552	0.816
552	0.813
553	0.81
553	0.807
554	0.805
554	0.803
555	0.802
555	0.799
556	0.796
556	0.793
556	0.79
557	0.787
557	0.784
558	0.782
558	0.779
559	0.776
559	0.773
560	0.77
560	0.769
560	0.767
561	0.765
561	0.763
562	0.761
562	0.759
563	0.757
563	0.756
564	0.754
564	0.752
564	0.749
565	0.746
565	0.743
566	0.741
566	0.738
567	0.735
567	0.733
568	0.731
568	0.73
568	0.727
569	0.725
569	0.724
570	0.724
570	0.723
571	0.722
571	0.72
572	0.719
572	0.717
573	0.716
573	0.715
573	0.715
574	0.714
574	0.712
575	0.71
575	0.706
576	0.704
576	0.705
577	0.705
577	0.705
577	0.703
578	0.701
578	0.698
579	0.695
579	0.693
580	0.693
580	0.695
581	0.696
581	0.694
581	0.692
582	0.69
582	0.688
583	0.685
583	0.685
584	0.686
584	0.687
585	0.684
585	0.679
585	0.676
586	0.674
586	0.673
587	0.674
587	0.674
588	0.673
588	0.671
589	0.668
589	0.666
590	0.664
590	0.663
590	0.66
591	0.657
591	0.656
592	0.655
592	0.655
593	0.654
593	0.652
594	0.651
594	0.651
594	0.65
595	0.648
595	0.648
596	0.648
596	0.645
597	0.641
597	0.64
598	0.64
598	0.64
598	0.64
599	0.639
599	0.639
600	0.639
600	0.639
601	0.637
601	0.635
602	0.635
602	0.634
602	0.633
603	0.631
603	0.629
604	0.627
604	0.627
605	0.626
605	0.625
606	0.625
606	0.626
606	0.626
607	0.625
607	0.623
608	0.622
608	0.621
609	0.62
609	0.618
610	0.617
610	0.616
610	0.614
611	0.612
611	0.611
612	0.611
612	0.61
613	0.61
613	0.61
614	0.61
614	0.611
614	0.61
615	0.61
615	0.609
616	0.609
616	0.608
617	0.607
617	0.606
618	0.605
618	0.603
618	0.601
619	0.599
619	0.597
620	0.595
620	0.595
621	0.594
621	0.593
622	0.592
622	0.591
622	0.59
623	0.59
623	0.589
624	0.588
624	0.588
625	0.588
625	0.587
626	0.586
626	0.585
626	0.584
627	0.583
627	0.582
628	0.581
628	0.58
629	0.579
629	0.578
630	0.577
630	0.575
630	0.574
631	0.573
631	0.571
632	0.571
632	0.569
633	0.568
633	0.567
634	0.566
634	0.566
634	0.566
635	0.566
635	0.565
636	0.565
636	0.565
637	0.564
637	0.564
638	0.563
638	0.563
638	0.562
639	0.561
639	0.56
640	0.559
640	0.558
641	0.557
641	0.556
642	0.556
642	0.556
642	0.555
643	0.555
643	0.555
644	0.555
644	0.554
645	0.554
645	0.553
646	0.553
646	0.552
646	0.551
647	0.551
647	0.551
648	0.551
648	0.55
649	0.549
649	0.548
650	0.548
650	0.548
650	0.548
651	0.549
651	0.548
652	0.548
652	0.547
653	0.547
653	0.547
653	0.552
654	0.479
654	0.443
655	0.454
655	0.455
656	0.455
656	0.456
657	0.456
657	0.456
657	0.456
658	0.455
658	0.443
659	0.498
659	0.553
660	0.544
660	0.541
661	0.54
661	0.539
661	0.538
662	0.537
662	0.537
663	0.536
663	0.536
664	0.536
664	0.535
665	0.534
665	0.534
665	0.534
666	0.533
666	0.533
667	0.533
667	0.532
668	0.532
668	0.531
669	0.531
669	0.531
669	0.531
670	0.532
670	0.533
671	0.534
671	0.534
672	0.534
672	0.534
672	0.533
673	0.532
673	0.532
674	0.531
674	0.531
675	0.529
675	0.528
676	0.527
676	0.527
676	0.527
677	0.527
677	0.527
678	0.527
678	0.528
679	0.528
679	0.527
680	0.527
680	0.527
680	0.527
681	0.526
681	0.526
682	0.525
682	0.525
683	0.525
683	0.525
684	0.525
684	0.525
684	0.525
685	0.525
685	0.524
686	0.524
686	0.525
687	0.525
687	0.524
687	0.524
688	0.524
688	0.523
689	0.523
689	0.523
690	0.523
690	0.523
691	0.523
691	0.523
691	0.523
692	0.523
692	0.522
693	0.522
693	0.522
694	0.521
694	0.521
695	0.52
695	0.521
695	0.522
696	0.522
696	0.522
697	0.522
697	0.522
698	0.522
698	0.522
698	0.521
699	0.522
699	0.521
700	0.519
700	0.518
701	0.517
701	0.516
702	0.516
702	0.515
702	0.513
703	0.512
703	0.511
704	0.51
704	0.51
705	0.51
705	0.51
705	0.511
706	0.511
706	0.511
707	0.512
707	0.513
708	0.513
708	0.514
709	0.514
709	0.514
709	0.513
710	0.513
710	0.512
711	0.511
711	0.511
712	0.511
712	0.51
713	0.51
713	0.51
713	0.51
714	0.509
714	0.509
715	0.508
715	0.507
716	0.507
716	0.506
716	0.506
717	0.505
717	0.504
718	0.503
718	0.503
719	0.504
719	0.504
720	0.504
720	0.505
720	0.506
721	0.506
721	0.506
722	0.507
722	0.506
723	0.506
723	0.507
723	0.507
724	0.506
724	0.506
725	0.504
725	0.502
726	0.501
726	0.5
727	0.499
727	0.499
727	0.498
728	0.498
728	0.497
729	0.498
729	0.498
730	0.499
730	0.5
730	0.501
731	0.501
731	0.502
732	0.502
732	0.503
733	0.502
733	0.503
734	0.503
734	0.503
734	0.503
735	0.504
735	0.504
736	0.503
736	0.503
737	0.502
737	0.502
737	0.503
738	0.502
738	0.501
739	0.499
739	0.498
740	0.497
740	0.496
741	0.496
741	0.495
741	0.494
742	0.493
742	0.491
743	0.491
743	0.491
744	0.491
744	0.491
744	0.491
745	0.491
745	0.491
746	0.491
746	0.491
747	0.491
747	0.491
748	0.49
748	0.49
748	0.49
749	0.489
749	0.489
750	0.489
750	0.488
751	0.487
751	0.487
751	0.487
752	0.486
752	0.485
753	0.484
753	0.484
754	0.484
754	0.484
754	0.484
755	0.485
755	0.486
756	0.486
756	0.485
757	0.484
757	0.484
758	0.484
758	0.484
758	0.485
759	0.485
759	0.484
760	0.483
760	0.482
761	0.482
761	0.483
761	0.484
762	0.485
762	0.486
763	0.487
763	0.486
764	0.485
764	0.484
764	0.484
765	0.484
765	0.483
766	0.483
766	0.483
767	0.483
767	0.481
768	0.479
768	0.478
768	0.478
769	0.478
769	0.478
770	0.478
770	0.479
771	0.479
771	0.478
771	0.477
772	0.477
772	0.478
773	0.477
773	0.477
774	0.477
774	0.476
775	0.476
775	0.476
775	0.476
776	0.476
776	0.476
777	0.477
777	0.478
778	0.478
778	0.478
778	0.478
779	0.479
779	0.479
780	0.478
780	0.477
781	0.477
781	0.476
781	0.475
782	0.474
782	0.473
783	0.473
783	0.473
784	0.472
784	0.472
784	0.472
785	0.472
785	0.472
786	0.472
786	0.472
787	0.473
787	0.473
788	0.472
788	0.471
788	0.471
789	0.469
789	0.469
790	0.47
790	0.469
791	0.468
791	0.467
791	0.466
792	0.468
792	0.47
793	0.47
793	0.47
794	0.47
794	0.468
794	0.467
795	0.468
795	0.468
796	0.469
796	0.468
797	0.466
797	0.464
797	0.464
798	0.463
798	0.464
799	0.464
799	0.464
800	0.464
800	0.463
801	0.463
801	0.463
801	0.464
802	0.463
802	0.463
803	0.463
803	0.463
804	0.463
804	0.464
804	0.464
805	0.464
805	0.463
806	0.463
806	0.463
807	0.463
807	0.463
807	0.463
808	0.464
808	0.464
809	0.462
809	0.462
810	0.463
810	0.462
810	0.461
811	0.461
811	0.461
812	0.463
812	0.463
813	0.463
813	0.462
813	0.462
814	0.462
814	0.463
815	0.464
815	0.465
816	0.465
816	0.464
817	0.462
817	0.461
817	0.461
818	0.46
818	0.461
819	0.462
819	0.461
820	0.459
820	0.458
820	0.458
821	0.458
821	0.459
822	0.459
822	0.459
823	0.459
823	0.458
823	0.458
824	0.459
824	0.46
825	0.461
825	0.463
826	0.464
826	0.464
826	0.464
827	0.465
827	0.465
828	0.465
828	0.464
829	0.464
829	0.464
829	0.462
830	0.461
830	0.46
831	0.462
831	0.462
832	0.461
832	0.46
832	0.46
833	0.46
833	0.46
834	0.46
834	0.46
835	0.46
835	0.459
835	0.458
836	0.458
836	0.457
837	0.457
837	0.456
838	0.455
838	0.454
839	0.454
839	0.453
839	0.452
840	0.451
840	0.45
841	0.449
841	0.448
842	0.447
842	0.446
842	0.445
843	0.444
843	0.443
844	0.442
844	0.441
845	0.441
845	0.44
845	0.44
846	0.44
846	0.44
847	0.44
847	0.441
848	0.442
848	0.442
848	0.443
849	0.444
849	0.445
850	0.446
850	0.447
851	0.447
851	0.449
851	0.45
852	0.449
852	0.448
853	0.448
853	0.448
854	0.448
854	0.448
854	0.449
855	0.45
855	0.45
856	0.45
856	0.45
857	0.451
857	0.452
857	0.453
858	0.453
858	0.453
859	0.452
859	0.45
860	0.449
860	0.448
860	0.448
861	0.447
861	0.447
862	0.446
862	0.445
863	0.444
863	0.443
863	0.443
864	0.444
864	0.444
865	0.445
865	0.445
866	0.445
866	0.444
866	0.444
867	0.444
867	0.445
868	0.445
868	0.445
869	0.445
869	0.446
869	0.445
870	0.444
870	0.444
871	0.444
871	0.445
872	0.445
872	0.445
872	0.445
873	0.445
873	0.445
874	0.444
874	0.444
875	0.444
875	0.444
875	0.444
876	0.444
876	0.444
877	0.444
877	0.444
878	0.444
878	0.445
878	0.446
879	0.446
879	0.446
880	0.446
880	0.445
881	0.444
881	0.444
881	0.443
882	0.442
882	0.442
883	0.441
883	0.44
884	0.44
884	0.44
884	0.44
885	0.441
885	0.441
886	0.441
886	0.442
887	0.443
887	0.444
887	0.444
888	0.445
888	0.444
889	0.444
889	0.445
890	0.445
890	0.446
890	0.447
891	0.447
891	0.447
892	0.447
892	0.447
893	0.447
893	0.448
893	0.448
894	0.448
894	0.448
895	0.448
895	0.448
895	0.448
896	0.448
896	0.449
897	0.449
897	0.449
898	0.449
898	0.449
898	0.448
899	0.447
899	0.447
900	0.447
900	0.446
901	0.446
901	0.446
901	0.447
902	0.447
902	0.447
903	0.447
903	0.448
904	0.449
904	0.45
904	0.45
905	0.45
905	0.45
906	0.45
906	0.451
907	0.451
907	0.451
907	0.452
908	0.452
908	0.452
909	0.452
909	0.453
910	0.453
910	0.454
910	0.454
911	0.454
911	0.453
912	0.453
912	0.453
913	0.453
913	0.452
913	0.452
914	0.452
914	0.451
915	0.451
915	0.45
916	0.45
916	0.45
916	0.45
917	0.449
917	0.448
918	0.447
918	0.447
918	0.446
919	0.445
919	0.445
920	0.445
920	0.444
921	0.444
921	0.444
921	0.443
922	0.443
922	0.443
923	0.444
923	0.445
924	0.445
924	0.446
924	0.447
925	0.448
925	0.448
926	0.449
926	0.45
927	0.451
927	0.451
927	0.451
928	0.451
928	0.451
929	0.451
929	0.451
930	0.45
930	0.449
930	0.449
931	0.448
931	0.447
932	0.447
932	0.446
933	0.445
933	0.445
933	0.444
934	0.443
934	0.443
935	0.442
935	0.441
935	0.441
936	0.441
936	0.44
937	0.439
937	0.439
938	0.439
938	0.438
938	0.438
939	0.438
939	0.438
940	0.438
940	0.439
941	0.44
941	0.441
941	0.443
942	0.444
942	0.445
943	0.446
943	0.447
944	0.448
944	0.448
944	0.449
945	0.45
945	0.45
946	0.451
946	0.451
946	0.452
947	0.454
947	0.455
948	0.456
948	0.457
949	0.457
949	0.458
949	0.459
950	0.46
950	0.461
951	0.461
951	0.461
952	0.46
952	0.46
952	0.459
953	0.459
953	0.459
954	0.458
954	0.457
955	0.457
955	0.455
955	0.455
956	0.455
956	0.456
957	0.456
957	0.457
957	0.458
958	0.458
958	0.459
959	0.459
959	0.46
960	0.46
960	0.461
960	0.461
961	0.461
961	0.461
962	0.46
962	0.46
963	0.46
963	0.459
963	0.459
964	0.459
964	0.459
965	0.459
965	0.459
966	0.46
966	0.46
966	0.46
967	0.461
967	0.461
968	0.461
968	0.461
968	0.461
969	0.461
969	0.461
970	0.46
970	0.46
971	0.46
971	0.46
971	0.459
972	0.459
972	0.458
973	0.459
973	0.459
974	0.459
974	0.459
974	0.459
975	0.459
975	0.459
976	0.46
976	0.461
976	0.462
977	0.463
977	0.463
978	0.463
978	0.462
979	0.462
979	0.462
979	0.462
980	0.461
980	0.46
981	0.459
981	0.458
982	0.458
982	0.458
982	0.458
983	0.458
983	0.458
984	0.458
984	0.458
984	0.459
985	0.459
985	0.46
986	0.459
986	0.458
987	0.457
987	0.456
987	0.456
988	0.455
988	0.455
989	0.454
989	0.454
990	0.453
990	0.453
990	0.453
991	0.454
991	0.454
992	0.455
992	0.456
992	0.456
993	0.457
993	0.458
994	0.458
994	0.459
995	0.461
995	0.462
995	0.462
996	0.463
996	0.464
997	0.464
997	0.465
997	0.465
998	0.466
998	0.466
999	0.466
999	0.466
1000	0.467
1000	0.467
1000	0.467
1001	0.467
1001	0.468
1002	0.468
1002	0.468
1003	0.468
1003	0.468
1003	0.468
1004	0.467
1004	0.467
1005	0.466
1005	0.466
1005	0.465
1006	0.464
1006	0.464
1007	0.464
1007	0.464
1008	0.464
1008	0.464
1008	0.464
1009	0.465
1009	0.465
1010	0.466
1010	0.466
1010	0.467
1011	0.467
1011	0.467
1012	0.467
1012	0.467
1013	0.467
1013	0.467
1013	0.467
1014	0.466
1014	0.466
1015	0.465
1015	0.465
1016	0.465
1016	0.464
1016	0.463
1017	0.463
1017	0.462
1018	0.462
1018	0.461
1018	0.461
1019	0.461
1019	0.461
1020	0.461
1020	0.461
1021	0.462
1021	0.462
1021	0.463
1022	0.465
1022	0.465
1023	0.466
1023	0.467
1023	0.468
1024	0.469
1024	0.469
1025	0.47
1025	0.47
1026	0.47
1026	0.469
1026	0.469
1027	0.469
1027	0.469
1028	0.469
1028	0.469
1028	0.468
1029	0.468
1029	0.468
1030	0.467
1030	0.468
1031	0.468
1031	0.469
1031	0.469
1032	0.469
1032	0.47
1033	0.47
1033	0.47
1033	0.471
1034	0.471
1034	0.471
1035	0.47
1035	0.469
1036	0.468
1036	0.467
1036	0.466
1037	0.465
1037	0.465
1038	0.464
1038	0.463
1039	0.463
1039	0.463
1039	0.463
1040	0.463
1040	0.463
1041	0.463
1041	0.463
1041	0.463
1042	0.463
1042	0.463
1043	0.463
1043	0.462
1044	0.462
1044	0.461
1044	0.461
1045	0.461
1045	0.46
1046	0.46
1046	0.46
1046	0.46
1047	0.46
1047	0.461
1048	0.462
1048	0.463
1049	0.465
1049	0.465
1049	0.466
1050	0.467
1050	0.467
1051	0.467
1051	0.467
1051	0.467
1052	0.467
1052	0.466
1053	0.465
1053	0.464
1053	0.463
1054	0.462
1054	0.462
1055	0.463
1055	0.463
1056	0.463
1056	0.462
1056	0.462
1057	0.462
1057	0.461
1058	0.461
1058	0.46
1058	0.459
1059	0.458
1059	0.458
1060	0.456
1060	0.455
1061	0.455
1061	0.454
1061	0.454
1062	0.455
1062	0.455
1063	0.456
1063	0.457
1063	0.456
1064	0.455
1064	0.455
1065	0.454
1065	0.454
1066	0.453
1066	0.452
1066	0.451
1067	0.45
1067	0.449
1068	0.448
1068	0.448
1068	0.448
1069	0.448
1069	0.448
1070	0.447
1070	0.447
1071	0.446
1071	0.445
1071	0.444
1072	0.443
1072	0.442
1073	0.44
1073	0.439
1073	0.439
1074	0.44
1074	0.44
1075	0.44
1075	0.44
1076	0.44
1076	0.441
1076	0.44
1077	0.44
1077	0.44
1078	0.439
1078	0.438
1078	0.438
1079	0.437
1079	0.436
1080	0.436
1080	0.435
1080	0.435
1081	0.435
1081	0.435
1082	0.435
1082	0.434
1083	0.433
1083	0.432
1083	0.43
1084	0.428
1084	0.427
1085	0.425
1085	0.424
1085	0.423
1086	0.421
1086	0.419
1087	0.418
1087	0.416
1088	0.415
1088	0.413
1088	0.412
1089	0.409
1089	0.406
1090	0.402
1090	0.398
1090	0.395
1091	0.391
1091	0.388
1092	0.385
1092	0.383
1092	0.38
1093	0.376
1093	0.374
1094	0.371
1094	0.368
1095	0.364
1095	0.361
1095	0.357
1096	0.354
1096	0.349
1097	0.344
1097	0.34
1097	0.336
1098	0.332
1098	0.328
1099	0.323
1099	0.318
1100	0.314
1100	0.309
1100	0.303
1101	0.299
1101	0.294
1102	0.29
1102	0.285
1102	0.28
1103	0.275
1103	0.27
1104	0.267
1104	0.264
1104	0.261
1105	0.258
1105	0.252
1106	0.247
1106	0.243
1107	0.239
1107	0.235
1107	0.231
1108	0.229
1108	0.225
1109	0.221
1109	0.217
1109	0.214
1110	0.216
1110	0.214
1111	0.209
1111	0.208
