Data from reversibility-20sec_Absorbance__999__000000000000999.txt Node

Date: Tue Dec 05 17:46:06 CET 2023
User: Marek
Spectrometer: MAYP115816
Trigger mode: 0
Integration Time (sec): 2.000000E-1
Scans to average: 10
Electric dark correction enabled: true
Nonlinearity correction enabled: true
Boxcar width: 5
XAxis mode: Wavelengths
Number of Pixels in Spectrum: 2068
>>>>>Begin Spectral Data<<<<<
199	-0.109
199	-0.083
200	-0.006
200	0.052
201	0.085
201	0.105
202	0.122
202	0.129
203	0.137
203	0.144
204	0.159
204	0.172
205	0.187
205	0.193
205	0.193
206	0.192
206	0.19
207	0.191
207	0.194
208	0.193
208	0.189
209	0.193
209	0.188
210	0.189
210	0.187
211	0.183
211	0.186
212	0.181
212	0.183
213	0.181
213	0.184
213	0.182
214	0.185
214	0.188
215	0.188
215	0.188
216	0.193
216	0.19
217	0.196
217	0.197
218	0.197
218	0.199
219	0.204
219	0.201
220	0.204
220	0.205
221	0.205
221	0.202
221	0.207
222	0.211
222	0.217
223	0.225
223	0.226
224	0.232
224	0.243
225	0.25
225	0.26
226	0.269
226	0.283
227	0.295
227	0.305
228	0.317
228	0.327
229	0.343
229	0.363
229	0.386
230	0.412
230	0.443
231	0.476
231	0.514
232	0.549
232	0.596
233	0.641
233	0.695
234	0.747
234	0.805
235	0.857
235	0.909
236	0.959
236	1.015
236	1.071
237	1.123
237	1.172
238	1.221
238	1.269
239	1.324
239	1.364
240	1.41
240	1.449
241	1.493
241	1.534
242	1.568
242	1.61
243	1.645
243	1.677
243	1.707
244	1.733
244	1.762
245	1.785
245	1.818
246	1.843
246	1.862
247	1.882
247	1.905
248	1.928
248	1.949
249	1.964
249	1.975
250	1.994
250	2.008
250	2.016
251	2.025
251	2.035
252	2.048
252	2.049
253	2.058
253	2.061
254	2.067
254	2.079
255	2.08
255	2.086
256	2.091
256	2.094
257	2.101
257	2.104
258	2.109
258	2.112
258	2.114
259	2.117
259	2.116
260	2.117
260	2.124
261	2.126
261	2.135
262	2.139
262	2.141
263	2.151
263	2.154
264	2.157
264	2.16
265	2.167
265	2.171
265	2.175
266	2.178
266	2.184
267	2.187
267	2.194
268	2.196
268	2.201
269	2.208
269	2.213
270	2.214
270	2.217
271	2.215
271	2.22
272	2.218
272	2.22
272	2.218
273	2.21
273	2.2
274	2.197
274	2.191
275	2.188
275	2.187
276	2.182
276	2.175
277	2.168
277	2.155
278	2.145
278	2.136
278	2.125
279	2.109
279	2.09
280	2.065
280	2.031
281	1.994
281	1.953
282	1.909
282	1.867
283	1.826
283	1.783
284	1.743
284	1.703
285	1.665
285	1.631
285	1.601
286	1.573
286	1.549
287	1.527
287	1.509
288	1.494
288	1.48
289	1.468
289	1.458
290	1.449
290	1.441
291	1.433
291	1.427
292	1.422
292	1.417
292	1.413
293	1.409
293	1.405
294	1.401
294	1.397
295	1.395
295	1.392
296	1.388
296	1.385
297	1.382
297	1.379
298	1.375
298	1.372
298	1.37
299	1.367
299	1.364
300	1.361
300	1.358
301	1.356
301	1.353
302	1.351
302	1.348
303	1.346
303	1.343
304	1.341
304	1.339
305	1.336
305	1.333
305	1.33
306	1.328
306	1.326
307	1.323
307	1.32
308	1.317
308	1.314
309	1.311
309	1.307
310	1.304
310	1.301
311	1.298
311	1.294
311	1.291
312	1.286
312	1.282
313	1.278
313	1.274
314	1.269
314	1.265
315	1.259
315	1.255
316	1.25
316	1.246
317	1.24
317	1.235
318	1.231
318	1.225
318	1.22
319	1.215
319	1.209
320	1.203
320	1.197
321	1.19
321	1.184
322	1.177
322	1.17
323	1.163
323	1.156
324	1.149
324	1.142
324	1.135
325	1.128
325	1.121
326	1.114
326	1.107
327	1.099
327	1.092
328	1.085
328	1.078
329	1.071
329	1.063
330	1.056
330	1.049
330	1.041
331	1.033
331	1.026
332	1.019
332	1.011
333	1.004
333	0.997
334	0.989
334	0.982
335	0.975
335	0.968
336	0.961
336	0.954
336	0.947
337	0.94
337	0.934
338	0.927
338	0.92
339	0.914
339	0.908
340	0.901
340	0.895
341	0.889
341	0.884
342	0.878
342	0.872
342	0.866
343	0.861
343	0.856
344	0.851
344	0.846
345	0.841
345	0.837
346	0.832
346	0.827
347	0.823
347	0.818
348	0.814
348	0.81
348	0.806
349	0.802
349	0.798
350	0.794
350	0.79
351	0.787
351	0.783
352	0.779
352	0.776
353	0.773
353	0.77
354	0.766
354	0.763
354	0.76
355	0.757
355	0.753
356	0.75
356	0.746
357	0.741
357	0.738
358	0.735
358	0.731
359	0.729
359	0.727
360	0.725
360	0.722
360	0.721
361	0.719
361	0.717
362	0.717
362	0.716
363	0.714
363	0.712
364	0.71
364	0.707
365	0.705
365	0.702
366	0.7
366	0.698
366	0.696
367	0.694
367	0.692
368	0.69
368	0.688
369	0.686
369	0.685
370	0.683
370	0.682
371	0.681
371	0.679
372	0.678
372	0.676
372	0.675
373	0.673
373	0.672
374	0.67
374	0.669
375	0.667
375	0.666
376	0.665
376	0.663
377	0.662
377	0.661
378	0.659
378	0.658
378	0.657
379	0.657
379	0.656
380	0.655
380	0.654
381	0.653
381	0.652
382	0.651
382	0.65
383	0.649
383	0.649
383	0.648
384	0.647
384	0.646
385	0.645
385	0.644
386	0.644
386	0.643
387	0.642
387	0.641
388	0.64
388	0.64
389	0.639
389	0.638
389	0.638
390	0.637
390	0.636
391	0.635
391	0.635
392	0.634
392	0.634
393	0.633
393	0.632
394	0.632
394	0.631
394	0.63
395	0.63
395	0.629
396	0.628
396	0.628
397	0.627
397	0.626
398	0.626
398	0.625
399	0.624
399	0.624
400	0.623
400	0.623
400	0.623
401	0.622
401	0.621
402	0.621
402	0.62
403	0.62
403	0.619
404	0.619
404	0.618
405	0.618
405	0.617
405	0.617
406	0.616
406	0.616
407	0.615
407	0.614
408	0.614
408	0.613
409	0.613
409	0.612
410	0.612
410	0.611
411	0.611
411	0.61
411	0.61
412	0.609
412	0.609
413	0.609
413	0.608
414	0.608
414	0.607
415	0.607
415	0.606
416	0.606
416	0.605
416	0.604
417	0.604
417	0.604
418	0.603
418	0.603
419	0.602
419	0.602
420	0.601
420	0.601
421	0.601
421	0.601
421	0.6
422	0.6
422	0.6
423	0.599
423	0.599
424	0.598
424	0.598
425	0.598
425	0.597
426	0.597
426	0.596
427	0.596
427	0.595
427	0.595
428	0.594
428	0.594
429	0.594
429	0.594
430	0.594
430	0.593
431	0.593
431	0.593
432	0.593
432	0.593
432	0.593
433	0.593
433	0.592
434	0.592
434	0.592
435	0.591
435	0.591
436	0.591
436	0.591
437	0.59
437	0.59
437	0.59
438	0.59
438	0.59
439	0.59
439	0.59
440	0.589
440	0.589
441	0.589
441	0.589
442	0.589
442	0.589
442	0.589
443	0.588
443	0.589
444	0.589
444	0.589
445	0.589
445	0.589
446	0.589
446	0.589
447	0.589
447	0.589
447	0.589
448	0.588
448	0.588
449	0.588
449	0.588
450	0.588
450	0.588
451	0.588
451	0.588
452	0.588
452	0.587
452	0.587
453	0.587
453	0.587
454	0.587
454	0.587
455	0.586
455	0.586
456	0.586
456	0.586
457	0.586
457	0.586
458	0.586
458	0.587
458	0.587
459	0.587
459	0.588
460	0.588
460	0.588
461	0.588
461	0.588
462	0.588
462	0.588
463	0.588
463	0.588
463	0.588
464	0.588
464	0.588
465	0.588
465	0.588
466	0.588
466	0.588
467	0.589
467	0.589
467	0.589
468	0.59
468	0.59
469	0.591
469	0.591
470	0.591
470	0.592
471	0.592
471	0.592
472	0.593
472	0.593
472	0.593
473	0.594
473	0.595
474	0.595
474	0.596
475	0.596
475	0.597
476	0.598
476	0.598
477	0.599
477	0.6
477	0.601
478	0.601
478	0.602
479	0.602
479	0.603
480	0.604
480	0.605
481	0.605
481	0.606
482	0.607
482	0.607
482	0.608
483	0.609
483	0.61
484	0.611
484	0.612
485	0.614
485	0.614
486	0.615
486	0.617
487	0.618
487	0.619
487	0.62
488	0.621
488	0.622
489	0.623
489	0.624
490	0.625
490	0.626
491	0.627
491	0.629
492	0.63
492	0.631
492	0.633
493	0.634
493	0.636
494	0.638
494	0.639
495	0.641
495	0.643
496	0.645
496	0.647
496	0.648
497	0.649
497	0.651
498	0.652
498	0.653
499	0.655
499	0.657
500	0.658
500	0.66
501	0.661
501	0.662
501	0.664
502	0.665
502	0.667
503	0.669
503	0.67
504	0.672
504	0.673
505	0.674
505	0.676
506	0.677
506	0.679
506	0.68
507	0.682
507	0.683
508	0.684
508	0.686
509	0.687
509	0.689
510	0.69
510	0.691
511	0.693
511	0.694
511	0.695
512	0.697
512	0.697
513	0.699
513	0.699
514	0.7
514	0.701
515	0.702
515	0.703
515	0.703
516	0.704
516	0.705
517	0.705
517	0.706
518	0.706
518	0.706
519	0.706
519	0.706
520	0.706
520	0.706
520	0.706
521	0.706
521	0.705
522	0.705
522	0.705
523	0.705
523	0.705
524	0.705
524	0.705
524	0.704
525	0.703
525	0.703
526	0.702
526	0.702
527	0.701
527	0.7
528	0.699
528	0.698
529	0.697
529	0.696
529	0.694
530	0.693
530	0.692
531	0.69
531	0.689
532	0.688
532	0.686
533	0.685
533	0.683
533	0.681
534	0.68
534	0.678
535	0.676
535	0.675
536	0.672
536	0.67
537	0.668
537	0.666
538	0.664
538	0.661
538	0.659
539	0.657
539	0.655
540	0.653
540	0.65
541	0.648
541	0.645
542	0.643
542	0.64
542	0.637
543	0.634
543	0.632
544	0.629
544	0.627
545	0.625
545	0.622
546	0.62
546	0.617
547	0.614
547	0.611
547	0.609
548	0.606
548	0.603
549	0.601
549	0.598
550	0.595
550	0.592
551	0.589
551	0.587
551	0.584
552	0.581
552	0.579
553	0.576
553	0.573
554	0.57
554	0.568
555	0.566
555	0.563
556	0.56
556	0.557
556	0.555
557	0.553
557	0.551
558	0.548
558	0.546
559	0.543
559	0.541
560	0.538
560	0.536
560	0.534
561	0.531
561	0.529
562	0.527
562	0.524
563	0.522
563	0.519
564	0.517
564	0.514
564	0.512
565	0.51
565	0.507
566	0.505
566	0.503
567	0.501
567	0.499
568	0.498
568	0.496
568	0.495
569	0.494
569	0.492
570	0.491
570	0.489
571	0.488
571	0.486
572	0.484
572	0.482
573	0.48
573	0.478
573	0.477
574	0.475
574	0.473
575	0.471
575	0.47
576	0.468
576	0.467
577	0.465
577	0.464
577	0.463
578	0.461
578	0.459
579	0.458
579	0.456
580	0.455
580	0.453
581	0.452
581	0.451
581	0.449
582	0.448
582	0.447
583	0.446
583	0.444
584	0.443
584	0.442
585	0.44
585	0.438
585	0.436
586	0.434
586	0.433
587	0.431
587	0.43
588	0.429
588	0.427
589	0.426
589	0.425
590	0.423
590	0.422
590	0.422
591	0.421
591	0.419
592	0.418
592	0.417
593	0.417
593	0.415
594	0.415
594	0.414
594	0.413
595	0.412
595	0.411
596	0.41
596	0.409
597	0.408
597	0.407
598	0.407
598	0.406
598	0.406
599	0.405
599	0.404
600	0.403
600	0.403
601	0.402
601	0.401
602	0.399
602	0.398
602	0.397
603	0.396
603	0.394
604	0.393
604	0.393
605	0.392
605	0.392
606	0.391
606	0.39
606	0.389
607	0.389
607	0.388
608	0.387
608	0.386
609	0.385
609	0.384
610	0.383
610	0.381
610	0.381
611	0.38
611	0.38
612	0.379
612	0.378
613	0.378
613	0.378
614	0.377
614	0.377
614	0.376
615	0.376
615	0.375
616	0.374
616	0.374
617	0.373
617	0.373
618	0.372
618	0.371
618	0.371
619	0.37
619	0.37
620	0.369
620	0.368
621	0.367
621	0.366
622	0.365
622	0.365
622	0.364
623	0.363
623	0.363
624	0.362
624	0.362
625	0.361
625	0.361
626	0.361
626	0.361
626	0.361
627	0.361
627	0.36
628	0.36
628	0.359
629	0.358
629	0.357
630	0.357
630	0.356
630	0.355
631	0.354
631	0.353
632	0.352
632	0.351
633	0.35
633	0.35
634	0.35
634	0.35
634	0.349
635	0.348
635	0.347
636	0.346
636	0.346
637	0.345
637	0.345
638	0.344
638	0.344
638	0.343
639	0.342
639	0.342
640	0.342
640	0.341
641	0.341
641	0.341
642	0.34
642	0.34
642	0.34
643	0.34
643	0.339
644	0.339
644	0.339
645	0.339
645	0.339
646	0.339
646	0.338
646	0.338
647	0.338
647	0.338
648	0.337
648	0.337
649	0.337
649	0.336
650	0.336
650	0.336
650	0.336
651	0.335
651	0.335
652	0.335
652	0.335
653	0.335
653	0.336
653	0.344
654	0.267
654	0.22
655	0.226
655	0.227
656	0.228
656	0.228
657	0.228
657	0.229
657	0.229
658	0.227
658	0.212
659	0.265
659	0.333
660	0.332
660	0.33
661	0.329
661	0.327
661	0.326
662	0.326
662	0.325
663	0.324
663	0.324
664	0.323
664	0.323
665	0.322
665	0.322
665	0.322
666	0.322
666	0.322
667	0.322
667	0.322
668	0.322
668	0.322
669	0.322
669	0.322
669	0.323
670	0.323
670	0.323
671	0.324
671	0.324
672	0.323
672	0.323
672	0.323
673	0.323
673	0.322
674	0.322
674	0.322
675	0.321
675	0.32
676	0.32
676	0.319
676	0.319
677	0.319
677	0.318
678	0.318
678	0.317
679	0.316
679	0.316
680	0.315
680	0.315
680	0.315
681	0.314
681	0.314
682	0.314
682	0.314
683	0.315
683	0.315
684	0.316
684	0.316
684	0.316
685	0.317
685	0.317
686	0.317
686	0.317
687	0.317
687	0.316
687	0.316
688	0.316
688	0.315
689	0.315
689	0.315
690	0.315
690	0.315
691	0.315
691	0.315
691	0.316
692	0.316
692	0.316
693	0.316
693	0.317
694	0.316
694	0.316
695	0.317
695	0.317
695	0.317
696	0.317
696	0.317
697	0.316
697	0.316
698	0.315
698	0.314
698	0.314
699	0.313
699	0.312
700	0.311
700	0.311
701	0.31
701	0.31
702	0.31
702	0.31
702	0.31
703	0.309
703	0.309
704	0.309
704	0.309
705	0.309
705	0.308
705	0.308
706	0.307
706	0.307
707	0.307
707	0.307
708	0.306
708	0.306
709	0.306
709	0.305
709	0.304
710	0.304
710	0.303
711	0.303
711	0.303
712	0.303
712	0.303
713	0.304
713	0.304
713	0.305
714	0.305
714	0.306
715	0.306
715	0.306
716	0.306
716	0.306
716	0.306
717	0.305
717	0.305
718	0.304
718	0.303
719	0.303
719	0.303
720	0.304
720	0.304
720	0.304
721	0.304
721	0.304
722	0.304
722	0.304
723	0.304
723	0.304
723	0.304
724	0.304
724	0.303
725	0.302
725	0.301
726	0.3
726	0.3
727	0.299
727	0.299
727	0.299
728	0.299
728	0.298
729	0.298
729	0.298
730	0.298
730	0.298
730	0.298
731	0.298
731	0.298
732	0.298
732	0.298
733	0.298
733	0.297
734	0.298
734	0.298
734	0.298
735	0.298
735	0.299
736	0.298
736	0.298
737	0.298
737	0.298
737	0.298
738	0.297
738	0.296
739	0.296
739	0.295
740	0.294
740	0.293
741	0.293
741	0.293
741	0.292
742	0.292
742	0.292
743	0.293
743	0.293
744	0.294
744	0.295
744	0.295
745	0.295
745	0.295
746	0.295
746	0.295
747	0.296
747	0.296
748	0.296
748	0.296
748	0.295
749	0.295
749	0.295
750	0.295
750	0.295
751	0.295
751	0.294
751	0.294
752	0.294
752	0.294
753	0.294
753	0.294
754	0.294
754	0.294
754	0.294
755	0.295
755	0.295
756	0.295
756	0.294
757	0.293
757	0.293
758	0.292
758	0.291
758	0.291
759	0.291
759	0.291
760	0.29
760	0.29
761	0.29
761	0.291
761	0.292
762	0.292
762	0.293
763	0.294
763	0.294
764	0.294
764	0.293
764	0.293
765	0.292
765	0.291
766	0.29
766	0.289
767	0.288
767	0.287
768	0.285
768	0.284
768	0.283
769	0.283
769	0.283
770	0.283
770	0.284
771	0.284
771	0.284
771	0.285
772	0.285
772	0.286
773	0.287
773	0.287
774	0.288
774	0.288
775	0.288
775	0.288
775	0.288
776	0.288
776	0.288
777	0.287
777	0.287
778	0.286
778	0.285
778	0.284
779	0.283
779	0.283
780	0.282
780	0.281
781	0.281
781	0.28
781	0.28
782	0.28
782	0.279
783	0.28
783	0.28
784	0.28
784	0.28
784	0.28
785	0.28
785	0.28
786	0.281
786	0.281
787	0.282
787	0.282
788	0.281
788	0.281
788	0.281
789	0.281
789	0.281
790	0.282
790	0.282
791	0.282
791	0.282
791	0.283
792	0.284
792	0.285
793	0.286
793	0.286
794	0.286
794	0.286
794	0.286
795	0.286
795	0.286
796	0.286
796	0.286
797	0.284
797	0.283
797	0.283
798	0.282
798	0.281
799	0.28
799	0.279
800	0.278
800	0.277
801	0.276
801	0.276
801	0.276
802	0.276
802	0.276
803	0.277
803	0.277
804	0.279
804	0.28
804	0.281
805	0.282
805	0.283
806	0.283
806	0.283
807	0.282
807	0.282
807	0.282
808	0.281
808	0.281
809	0.28
809	0.279
810	0.279
810	0.278
810	0.278
811	0.278
811	0.278
812	0.279
812	0.279
813	0.279
813	0.279
813	0.279
814	0.279
814	0.28
815	0.28
815	0.281
816	0.281
816	0.281
817	0.28
817	0.28
817	0.28
818	0.279
818	0.279
819	0.279
819	0.278
820	0.277
820	0.277
820	0.276
821	0.276
821	0.276
822	0.276
822	0.276
823	0.276
823	0.276
823	0.276
824	0.277
824	0.278
825	0.279
825	0.28
826	0.28
826	0.28
826	0.28
827	0.281
827	0.281
828	0.28
828	0.28
829	0.279
829	0.279
829	0.279
830	0.278
830	0.278
831	0.279
831	0.28
832	0.28
832	0.281
832	0.281
833	0.282
833	0.282
834	0.282
834	0.282
835	0.281
835	0.281
835	0.281
836	0.281
836	0.281
837	0.281
837	0.28
838	0.28
838	0.279
839	0.279
839	0.278
839	0.277
840	0.275
840	0.274
841	0.272
841	0.271
842	0.27
842	0.269
842	0.269
843	0.268
843	0.268
844	0.268
844	0.268
845	0.269
845	0.269
845	0.27
846	0.27
846	0.271
847	0.271
847	0.272
848	0.273
848	0.274
848	0.275
849	0.276
849	0.277
850	0.277
850	0.278
851	0.279
851	0.28
851	0.28
852	0.28
852	0.28
853	0.279
853	0.279
854	0.278
854	0.278
854	0.278
855	0.278
855	0.278
856	0.277
856	0.277
857	0.277
857	0.277
857	0.277
858	0.277
858	0.276
859	0.275
859	0.274
860	0.272
860	0.271
860	0.27
861	0.269
861	0.269
862	0.267
862	0.266
863	0.265
863	0.265
863	0.265
864	0.265
864	0.265
865	0.265
865	0.266
866	0.266
866	0.266
866	0.266
867	0.267
867	0.267
868	0.268
868	0.268
869	0.268
869	0.268
869	0.268
870	0.268
870	0.268
871	0.269
871	0.269
872	0.27
872	0.271
872	0.272
873	0.273
873	0.273
874	0.273
874	0.274
875	0.274
875	0.273
875	0.273
876	0.273
876	0.273
877	0.273
877	0.273
878	0.273
878	0.274
878	0.275
879	0.275
879	0.276
880	0.277
880	0.277
881	0.277
881	0.277
881	0.277
882	0.277
882	0.276
883	0.276
883	0.275
884	0.274
884	0.274
884	0.273
885	0.273
885	0.272
886	0.271
886	0.27
887	0.27
887	0.269
887	0.268
888	0.268
888	0.267
889	0.266
889	0.266
890	0.266
890	0.267
890	0.267
891	0.268
891	0.269
892	0.27
892	0.271
893	0.272
893	0.274
893	0.274
894	0.275
894	0.276
895	0.276
895	0.276
895	0.276
896	0.276
896	0.275
897	0.274
897	0.274
898	0.273
898	0.272
898	0.271
899	0.271
899	0.27
900	0.27
900	0.27
901	0.27
901	0.27
901	0.27
902	0.271
902	0.271
903	0.271
903	0.271
904	0.271
904	0.271
904	0.271
905	0.27
905	0.27
906	0.27
906	0.27
907	0.271
907	0.271
907	0.272
908	0.272
908	0.272
909	0.273
909	0.273
910	0.274
910	0.274
910	0.274
911	0.274
911	0.274
912	0.274
912	0.274
913	0.274
913	0.274
913	0.273
914	0.273
914	0.273
915	0.273
915	0.273
916	0.273
916	0.272
916	0.272
917	0.272
917	0.271
918	0.27
918	0.27
918	0.27
919	0.269
919	0.269
920	0.269
920	0.269
921	0.269
921	0.269
921	0.269
922	0.269
922	0.269
923	0.269
923	0.269
924	0.269
924	0.269
924	0.269
925	0.27
925	0.27
926	0.271
926	0.272
927	0.272
927	0.273
927	0.273
928	0.274
928	0.275
929	0.275
929	0.275
930	0.275
930	0.275
930	0.275
931	0.274
931	0.274
932	0.274
932	0.273
933	0.273
933	0.272
933	0.271
934	0.271
934	0.27
935	0.27
935	0.27
935	0.27
936	0.27
936	0.27
937	0.271
937	0.272
938	0.272
938	0.272
938	0.273
939	0.273
939	0.273
940	0.273
940	0.274
941	0.274
941	0.275
941	0.275
942	0.276
942	0.276
943	0.277
943	0.277
944	0.277
944	0.277
944	0.277
945	0.277
945	0.277
946	0.276
946	0.276
946	0.276
947	0.276
947	0.276
948	0.276
948	0.277
949	0.277
949	0.278
949	0.278
950	0.279
950	0.28
951	0.28
951	0.28
952	0.281
952	0.281
952	0.281
953	0.281
953	0.281
954	0.28
954	0.28
955	0.28
955	0.279
955	0.279
956	0.279
956	0.279
957	0.279
957	0.28
957	0.28
958	0.281
958	0.282
959	0.282
959	0.283
960	0.283
960	0.283
960	0.283
961	0.282
961	0.282
962	0.281
962	0.28
963	0.279
963	0.278
963	0.277
964	0.276
964	0.276
965	0.276
965	0.275
966	0.275
966	0.275
966	0.276
967	0.276
967	0.276
968	0.277
968	0.277
968	0.277
969	0.277
969	0.278
970	0.278
970	0.278
971	0.278
971	0.278
971	0.278
972	0.278
972	0.278
973	0.278
973	0.278
974	0.278
974	0.278
974	0.278
975	0.278
975	0.277
976	0.277
976	0.277
976	0.277
977	0.276
977	0.276
978	0.275
978	0.275
979	0.275
979	0.275
979	0.275
980	0.275
980	0.274
981	0.274
981	0.274
982	0.274
982	0.274
982	0.275
983	0.275
983	0.275
984	0.275
984	0.275
984	0.275
985	0.274
985	0.275
986	0.274
986	0.274
987	0.274
987	0.274
987	0.274
988	0.273
988	0.273
989	0.273
989	0.272
990	0.272
990	0.271
990	0.271
991	0.271
991	0.27
992	0.27
992	0.269
992	0.269
993	0.269
993	0.268
994	0.268
994	0.268
995	0.268
995	0.268
995	0.269
996	0.269
996	0.27
997	0.27
997	0.271
997	0.272
998	0.273
998	0.274
999	0.275
999	0.275
1000	0.276
1000	0.277
1000	0.277
1001	0.278
1001	0.278
1002	0.278
1002	0.278
1003	0.278
1003	0.278
1003	0.278
1004	0.278
1004	0.278
1005	0.277
1005	0.277
1005	0.277
1006	0.276
1006	0.276
1007	0.276
1007	0.276
1008	0.275
1008	0.275
1008	0.275
1009	0.275
1009	0.274
1010	0.274
1010	0.274
1010	0.274
1011	0.274
1011	0.273
1012	0.273
1012	0.273
1013	0.273
1013	0.273
1013	0.273
1014	0.272
1014	0.272
1015	0.272
1015	0.272
1016	0.272
1016	0.271
1016	0.271
1017	0.27
1017	0.27
1018	0.269
1018	0.269
1018	0.269
1019	0.269
1019	0.268
1020	0.268
1020	0.268
1021	0.268
1021	0.269
1021	0.269
1022	0.27
1022	0.271
1023	0.271
1023	0.272
1023	0.272
1024	0.272
1024	0.272
1025	0.272
1025	0.272
1026	0.272
1026	0.272
1026	0.271
1027	0.271
1027	0.271
1028	0.271
1028	0.271
1028	0.271
1029	0.271
1029	0.271
1030	0.271
1030	0.272
1031	0.272
1031	0.272
1031	0.272
1032	0.273
1032	0.273
1033	0.273
1033	0.272
1033	0.272
1034	0.272
1034	0.271
1035	0.271
1035	0.27
1036	0.27
1036	0.27
1036	0.27
1037	0.27
1037	0.27
1038	0.27
1038	0.27
1039	0.271
1039	0.271
1039	0.272
1040	0.273
1040	0.273
1041	0.274
1041	0.274
1041	0.275
1042	0.276
1042	0.276
1043	0.277
1043	0.277
1044	0.277
1044	0.277
1044	0.277
1045	0.277
1045	0.277
1046	0.278
1046	0.278
1046	0.278
1047	0.278
1047	0.279
1048	0.279
1048	0.28
1049	0.28
1049	0.28
1049	0.28
1050	0.28
1050	0.28
1051	0.279
1051	0.279
1051	0.278
1052	0.277
1052	0.276
1053	0.274
1053	0.274
1053	0.273
1054	0.272
1054	0.271
1055	0.271
1055	0.27
1056	0.269
1056	0.269
1056	0.268
1057	0.268
1057	0.268
1058	0.267
1058	0.266
1058	0.265
1059	0.265
1059	0.265
1060	0.264
1060	0.264
1061	0.264
1061	0.264
1061	0.264
1062	0.265
1062	0.265
1063	0.266
1063	0.267
1063	0.268
1064	0.268
1064	0.268
1065	0.269
1065	0.269
1066	0.269
1066	0.269
1066	0.269
1067	0.269
1067	0.269
1068	0.269
1068	0.269
1068	0.269
1069	0.269
1069	0.268
1070	0.268
1070	0.267
1071	0.266
1071	0.266
1071	0.265
1072	0.264
1072	0.263
1073	0.262
1073	0.261
1073	0.261
1074	0.261
1074	0.262
1075	0.262
1075	0.262
1076	0.263
1076	0.263
1076	0.263
1077	0.264
1077	0.264
1078	0.264
1078	0.265
1078	0.265
1079	0.264
1079	0.264
1080	0.264
1080	0.264
1080	0.264
1081	0.264
1081	0.264
1082	0.265
1082	0.265
1083	0.264
1083	0.264
1083	0.264
1084	0.263
1084	0.263
1085	0.262
1085	0.262
1085	0.261
1086	0.261
1086	0.259
1087	0.258
1087	0.258
1088	0.257
1088	0.257
1088	0.256
1089	0.255
1089	0.255
1090	0.253
1090	0.252
1090	0.251
1091	0.25
1091	0.248
1092	0.248
1092	0.247
1092	0.245
1093	0.244
1093	0.244
1094	0.243
1094	0.242
1095	0.241
1095	0.24
1095	0.24
1096	0.238
1096	0.236
1097	0.235
1097	0.233
1097	0.232
1098	0.231
1098	0.229
1099	0.228
1099	0.225
1100	0.224
1100	0.222
1100	0.22
1101	0.218
1101	0.217
1102	0.216
1102	0.214
1102	0.212
1103	0.21
1103	0.208
1104	0.207
1104	0.206
1104	0.203
1105	0.202
1105	0.199
1106	0.196
1106	0.192
1107	0.188
1107	0.186
1107	0.184
1108	0.182
1108	0.181
1109	0.179
1109	0.176
1109	0.174
1110	0.174
1110	0.173
1111	0.176
1111	0.176
