Data from 17c-ppt-2-5a_Absorbance__190__00190.txt Node

Date: Mon Jan 15 09:25:09 CET 2024
User: Marek
Spectrometer: MAYP115816
Trigger mode: 0
Integration Time (sec): 2.000000E-1
Scans to average: 10
Electric dark correction enabled: true
Nonlinearity correction enabled: true
Boxcar width: 5
XAxis mode: Wavelengths
Number of Pixels in Spectrum: 2068
>>>>>Begin Spectral Data<<<<<
199	-0.215
199	-0.19
200	-0.144
200	-0.11
201	-0.088
201	-0.078
202	-0.062
202	-0.059
203	-0.054
203	-0.054
204	-0.046
204	-0.039
205	-0.032
205	-0.031
205	-0.032
206	-0.033
206	-0.034
207	-0.033
207	-0.032
208	-0.034
208	-0.032
209	-0.034
209	-0.038
210	-0.038
210	-0.037
211	-0.034
211	-0.036
212	-0.035
212	-0.037
213	-0.037
213	-0.036
213	-0.037
214	-0.036
214	-0.036
215	-0.037
215	-0.039
216	-0.041
216	-0.042
217	-0.042
217	-0.04
218	-0.043
218	-0.04
219	-0.038
219	-0.039
220	-0.038
220	-0.037
221	-0.035
221	-0.034
221	-0.031
222	-0.028
222	-0.026
223	-0.022
223	-0.022
224	-0.022
224	-0.017
225	-0.011
225	-0.008
226	-0.004
226	0.001
227	0.007
227	0.013
228	0.019
228	0.026
229	0.034
229	0.046
229	0.055
230	0.064
230	0.074
231	0.084
231	0.092
232	0.099
232	0.108
233	0.116
233	0.122
234	0.128
234	0.133
235	0.138
235	0.142
236	0.146
236	0.151
236	0.155
237	0.158
237	0.16
238	0.163
238	0.165
239	0.167
239	0.169
240	0.17
240	0.171
241	0.172
241	0.173
242	0.174
242	0.175
243	0.176
243	0.177
243	0.177
244	0.178
244	0.179
245	0.18
245	0.18
246	0.181
246	0.181
247	0.182
247	0.182
248	0.183
248	0.183
249	0.183
249	0.184
250	0.184
250	0.185
250	0.185
251	0.186
251	0.186
252	0.186
252	0.187
253	0.187
253	0.187
254	0.187
254	0.188
255	0.188
255	0.188
256	0.188
256	0.189
257	0.189
257	0.189
258	0.189
258	0.189
258	0.189
259	0.189
259	0.188
260	0.189
260	0.188
261	0.188
261	0.188
262	0.187
262	0.187
263	0.186
263	0.186
264	0.185
264	0.185
265	0.184
265	0.184
265	0.183
266	0.182
266	0.181
267	0.181
267	0.18
268	0.179
268	0.178
269	0.177
269	0.176
270	0.175
270	0.174
271	0.173
271	0.172
272	0.171
272	0.17
272	0.17
273	0.169
273	0.168
274	0.166
274	0.165
275	0.164
275	0.163
276	0.162
276	0.161
277	0.16
277	0.159
278	0.157
278	0.156
278	0.155
279	0.154
279	0.154
280	0.153
280	0.152
281	0.15
281	0.149
282	0.148
282	0.147
283	0.146
283	0.145
284	0.144
284	0.143
285	0.142
285	0.141
285	0.14
286	0.139
286	0.138
287	0.137
287	0.136
288	0.136
288	0.135
289	0.134
289	0.134
290	0.133
290	0.132
291	0.132
291	0.131
292	0.13
292	0.129
292	0.129
293	0.128
293	0.128
294	0.127
294	0.126
295	0.126
295	0.125
296	0.125
296	0.124
297	0.124
297	0.123
298	0.123
298	0.122
298	0.122
299	0.122
299	0.121
300	0.121
300	0.121
301	0.12
301	0.12
302	0.119
302	0.119
303	0.119
303	0.118
304	0.118
304	0.118
305	0.117
305	0.117
305	0.117
306	0.116
306	0.116
307	0.116
307	0.115
308	0.115
308	0.114
309	0.114
309	0.114
310	0.113
310	0.113
311	0.113
311	0.112
311	0.112
312	0.112
312	0.111
313	0.111
313	0.111
314	0.11
314	0.11
315	0.11
315	0.109
316	0.109
316	0.109
317	0.108
317	0.108
318	0.108
318	0.107
318	0.107
319	0.106
319	0.106
320	0.106
320	0.105
321	0.105
321	0.105
322	0.104
322	0.104
323	0.104
323	0.103
324	0.103
324	0.102
324	0.102
325	0.102
325	0.101
326	0.101
326	0.1
327	0.1
327	0.1
328	0.099
328	0.099
329	0.099
329	0.099
330	0.098
330	0.098
330	0.098
331	0.097
331	0.097
332	0.097
332	0.096
333	0.096
333	0.096
334	0.095
334	0.095
335	0.095
335	0.094
336	0.094
336	0.094
336	0.093
337	0.093
337	0.093
338	0.092
338	0.092
339	0.092
339	0.091
340	0.091
340	0.091
341	0.09
341	0.09
342	0.09
342	0.09
342	0.089
343	0.089
343	0.089
344	0.089
344	0.088
345	0.088
345	0.088
346	0.088
346	0.087
347	0.087
347	0.087
348	0.087
348	0.087
348	0.087
349	0.086
349	0.086
350	0.086
350	0.086
351	0.086
351	0.086
352	0.086
352	0.086
353	0.086
353	0.086
354	0.085
354	0.085
354	0.085
355	0.085
355	0.085
356	0.085
356	0.085
357	0.085
357	0.085
358	0.085
358	0.085
359	0.085
359	0.085
360	0.085
360	0.085
360	0.084
361	0.084
361	0.084
362	0.084
362	0.084
363	0.084
363	0.084
364	0.084
364	0.083
365	0.083
365	0.083
366	0.083
366	0.083
366	0.083
367	0.083
367	0.083
368	0.083
368	0.083
369	0.083
369	0.083
370	0.083
370	0.083
371	0.083
371	0.083
372	0.083
372	0.083
372	0.083
373	0.083
373	0.083
374	0.083
374	0.083
375	0.083
375	0.083
376	0.083
376	0.083
377	0.083
377	0.082
378	0.082
378	0.082
378	0.082
379	0.082
379	0.082
380	0.082
380	0.082
381	0.082
381	0.082
382	0.082
382	0.082
383	0.082
383	0.082
383	0.082
384	0.082
384	0.082
385	0.082
385	0.082
386	0.082
386	0.082
387	0.081
387	0.081
388	0.081
388	0.081
389	0.081
389	0.081
389	0.081
390	0.081
390	0.081
391	0.081
391	0.081
392	0.081
392	0.081
393	0.081
393	0.081
394	0.081
394	0.081
394	0.081
395	0.081
395	0.08
396	0.08
396	0.08
397	0.08
397	0.08
398	0.08
398	0.08
399	0.08
399	0.08
400	0.08
400	0.08
400	0.081
401	0.08
401	0.08
402	0.08
402	0.08
403	0.08
403	0.08
404	0.08
404	0.08
405	0.08
405	0.08
405	0.08
406	0.08
406	0.08
407	0.08
407	0.08
408	0.08
408	0.08
409	0.08
409	0.08
410	0.08
410	0.08
411	0.08
411	0.08
411	0.08
412	0.08
412	0.08
413	0.08
413	0.079
414	0.079
414	0.079
415	0.079
415	0.079
416	0.079
416	0.079
416	0.079
417	0.079
417	0.079
418	0.079
418	0.079
419	0.079
419	0.079
420	0.079
420	0.079
421	0.079
421	0.079
421	0.079
422	0.08
422	0.08
423	0.079
423	0.079
424	0.079
424	0.079
425	0.079
425	0.079
426	0.079
426	0.079
427	0.079
427	0.079
427	0.079
428	0.079
428	0.079
429	0.08
429	0.08
430	0.08
430	0.08
431	0.08
431	0.08
432	0.08
432	0.08
432	0.079
433	0.079
433	0.079
434	0.079
434	0.079
435	0.079
435	0.079
436	0.079
436	0.078
437	0.078
437	0.078
437	0.078
438	0.079
438	0.079
439	0.079
439	0.079
440	0.079
440	0.079
441	0.079
441	0.079
442	0.079
442	0.079
442	0.079
443	0.079
443	0.079
444	0.079
444	0.079
445	0.079
445	0.079
446	0.079
446	0.079
447	0.079
447	0.079
447	0.079
448	0.079
448	0.079
449	0.079
449	0.079
450	0.079
450	0.079
451	0.079
451	0.079
452	0.079
452	0.08
452	0.079
453	0.079
453	0.079
454	0.079
454	0.079
455	0.079
455	0.079
456	0.079
456	0.079
457	0.08
457	0.08
458	0.08
458	0.08
458	0.081
459	0.081
459	0.081
460	0.081
460	0.081
461	0.081
461	0.081
462	0.081
462	0.081
463	0.081
463	0.081
463	0.081
464	0.081
464	0.081
465	0.081
465	0.081
466	0.081
466	0.082
467	0.082
467	0.082
467	0.082
468	0.081
468	0.082
469	0.082
469	0.082
470	0.082
470	0.082
471	0.082
471	0.082
472	0.083
472	0.083
472	0.083
473	0.083
473	0.083
474	0.084
474	0.084
475	0.084
475	0.084
476	0.084
476	0.084
477	0.084
477	0.085
477	0.085
478	0.085
478	0.085
479	0.085
479	0.085
480	0.085
480	0.085
481	0.085
481	0.086
482	0.086
482	0.087
482	0.087
483	0.088
483	0.089
484	0.089
484	0.089
485	0.089
485	0.09
486	0.09
486	0.09
487	0.09
487	0.091
487	0.091
488	0.092
488	0.092
489	0.093
489	0.094
490	0.094
490	0.095
491	0.096
491	0.096
492	0.097
492	0.097
492	0.098
493	0.098
493	0.099
494	0.099
494	0.1
495	0.101
495	0.102
496	0.102
496	0.103
496	0.104
497	0.104
497	0.105
498	0.106
498	0.106
499	0.107
499	0.107
500	0.108
500	0.108
501	0.109
501	0.109
501	0.109
502	0.11
502	0.11
503	0.111
503	0.111
504	0.112
504	0.112
505	0.112
505	0.113
506	0.114
506	0.114
506	0.115
507	0.115
507	0.116
508	0.116
508	0.117
509	0.118
509	0.118
510	0.119
510	0.119
511	0.119
511	0.12
511	0.12
512	0.12
512	0.121
513	0.121
513	0.121
514	0.121
514	0.121
515	0.121
515	0.121
515	0.121
516	0.121
516	0.121
517	0.121
517	0.121
518	0.121
518	0.121
519	0.121
519	0.12
520	0.12
520	0.12
520	0.12
521	0.119
521	0.119
522	0.119
522	0.118
523	0.118
523	0.118
524	0.118
524	0.118
524	0.117
525	0.117
525	0.117
526	0.117
526	0.117
527	0.116
527	0.116
528	0.116
528	0.116
529	0.115
529	0.115
529	0.114
530	0.114
530	0.113
531	0.113
531	0.112
532	0.111
532	0.11
533	0.109
533	0.108
533	0.107
534	0.106
534	0.106
535	0.105
535	0.104
536	0.104
536	0.103
537	0.103
537	0.102
538	0.102
538	0.101
538	0.1
539	0.099
539	0.099
540	0.098
540	0.097
541	0.096
541	0.096
542	0.095
542	0.094
542	0.093
543	0.093
543	0.092
544	0.091
544	0.091
545	0.09
545	0.09
546	0.089
546	0.088
547	0.087
547	0.087
547	0.086
548	0.086
548	0.085
549	0.084
549	0.083
550	0.083
550	0.082
551	0.081
551	0.081
551	0.08
552	0.08
552	0.079
553	0.079
553	0.079
554	0.078
554	0.078
555	0.077
555	0.077
556	0.077
556	0.076
556	0.076
557	0.075
557	0.075
558	0.074
558	0.074
559	0.073
559	0.072
560	0.072
560	0.071
560	0.071
561	0.071
561	0.07
562	0.069
562	0.069
563	0.068
563	0.067
564	0.067
564	0.066
564	0.066
565	0.065
565	0.065
566	0.064
566	0.063
567	0.063
567	0.063
568	0.062
568	0.062
568	0.062
569	0.062
569	0.061
570	0.061
570	0.06
571	0.06
571	0.06
572	0.059
572	0.059
573	0.058
573	0.057
573	0.057
574	0.057
574	0.056
575	0.056
575	0.056
576	0.055
576	0.055
577	0.054
577	0.054
577	0.054
578	0.054
578	0.054
579	0.055
579	0.055
580	0.054
580	0.054
581	0.053
581	0.054
581	0.054
582	0.054
582	0.054
583	0.054
583	0.054
584	0.053
584	0.052
585	0.052
585	0.052
585	0.052
586	0.052
586	0.052
587	0.051
587	0.051
588	0.051
588	0.051
589	0.051
589	0.052
590	0.052
590	0.053
590	0.054
591	0.054
591	0.054
592	0.054
592	0.054
593	0.054
593	0.054
594	0.054
594	0.053
594	0.053
595	0.053
595	0.053
596	0.054
596	0.055
597	0.056
597	0.057
598	0.057
598	0.058
598	0.058
599	0.058
599	0.058
600	0.058
600	0.057
601	0.057
601	0.056
602	0.056
602	0.056
602	0.056
603	0.056
603	0.056
604	0.056
604	0.057
605	0.058
605	0.059
606	0.059
606	0.059
606	0.059
607	0.06
607	0.06
608	0.06
608	0.06
609	0.061
609	0.062
610	0.062
610	0.062
610	0.063
611	0.064
611	0.065
612	0.065
612	0.066
613	0.067
613	0.067
614	0.068
614	0.067
614	0.068
615	0.068
615	0.068
616	0.068
616	0.068
617	0.068
617	0.069
618	0.069
618	0.07
618	0.071
619	0.072
619	0.074
620	0.075
620	0.076
621	0.077
621	0.079
622	0.079
622	0.08
622	0.081
623	0.082
623	0.083
624	0.084
624	0.084
625	0.085
625	0.086
626	0.086
626	0.087
626	0.088
627	0.089
627	0.091
628	0.092
628	0.093
629	0.094
629	0.095
630	0.095
630	0.096
630	0.098
631	0.099
631	0.101
632	0.102
632	0.103
633	0.105
633	0.106
634	0.109
634	0.11
634	0.112
635	0.114
635	0.115
636	0.117
636	0.118
637	0.119
637	0.12
638	0.122
638	0.123
638	0.124
639	0.125
639	0.127
640	0.128
640	0.13
641	0.131
641	0.133
642	0.135
642	0.137
642	0.14
643	0.142
643	0.144
644	0.146
644	0.148
645	0.151
645	0.153
646	0.155
646	0.158
646	0.16
647	0.163
647	0.165
648	0.167
648	0.169
649	0.172
649	0.174
650	0.176
650	0.178
650	0.18
651	0.183
651	0.186
652	0.188
652	0.191
653	0.195
653	0.199
653	0.195
654	0.155
654	0.124
655	0.13
655	0.132
656	0.134
656	0.136
657	0.138
657	0.14
657	0.141
658	0.141
658	0.142
659	0.182
659	0.237
660	0.242
660	0.245
661	0.248
661	0.252
661	0.255
662	0.259
662	0.262
663	0.266
663	0.269
664	0.272
664	0.274
665	0.277
665	0.28
665	0.282
666	0.285
666	0.287
667	0.29
667	0.293
668	0.296
668	0.298
669	0.301
669	0.304
669	0.307
670	0.31
670	0.312
671	0.315
671	0.317
672	0.32
672	0.322
672	0.324
673	0.327
673	0.329
674	0.331
674	0.333
675	0.336
675	0.338
676	0.34
676	0.342
676	0.343
677	0.344
677	0.345
678	0.346
678	0.346
679	0.347
679	0.347
680	0.348
680	0.348
680	0.349
681	0.35
681	0.351
682	0.351
682	0.352
683	0.354
683	0.355
684	0.356
684	0.357
684	0.358
685	0.359
685	0.36
686	0.361
686	0.361
687	0.362
687	0.362
687	0.361
688	0.36
688	0.36
689	0.36
689	0.359
690	0.358
690	0.356
691	0.355
691	0.353
691	0.352
692	0.35
692	0.349
693	0.348
693	0.347
694	0.345
694	0.344
695	0.344
695	0.344
695	0.343
696	0.343
696	0.343
697	0.342
697	0.341
698	0.34
698	0.34
698	0.339
699	0.337
699	0.335
700	0.333
700	0.332
701	0.329
701	0.327
702	0.324
702	0.322
702	0.319
703	0.317
703	0.314
704	0.312
704	0.31
705	0.307
705	0.305
705	0.303
706	0.301
706	0.299
707	0.297
707	0.295
708	0.293
708	0.291
709	0.289
709	0.287
709	0.285
710	0.283
710	0.281
711	0.279
711	0.277
712	0.275
712	0.273
713	0.271
713	0.269
713	0.267
714	0.265
714	0.263
715	0.26
715	0.258
716	0.255
716	0.253
716	0.25
717	0.248
717	0.245
718	0.242
718	0.24
719	0.238
719	0.236
720	0.233
720	0.231
720	0.229
721	0.226
721	0.224
722	0.221
722	0.219
723	0.217
723	0.214
723	0.212
724	0.209
724	0.207
725	0.205
725	0.203
726	0.201
726	0.199
727	0.197
727	0.195
727	0.194
728	0.192
728	0.19
729	0.189
729	0.187
730	0.186
730	0.184
730	0.183
731	0.182
731	0.18
732	0.179
732	0.177
733	0.176
733	0.174
734	0.172
734	0.17
734	0.169
735	0.167
735	0.165
736	0.163
736	0.162
737	0.16
737	0.159
737	0.156
738	0.154
738	0.152
739	0.15
739	0.148
740	0.146
740	0.144
741	0.142
741	0.14
741	0.138
742	0.136
742	0.135
743	0.133
743	0.132
744	0.13
744	0.129
744	0.127
745	0.126
745	0.124
746	0.123
746	0.122
747	0.121
747	0.119
748	0.118
748	0.117
748	0.115
749	0.114
749	0.113
750	0.112
750	0.111
751	0.11
751	0.11
751	0.109
752	0.108
752	0.107
753	0.107
753	0.106
754	0.105
754	0.104
754	0.104
755	0.103
755	0.102
756	0.101
756	0.1
757	0.099
757	0.098
758	0.097
758	0.096
758	0.095
759	0.094
759	0.093
760	0.092
760	0.091
761	0.091
761	0.09
761	0.09
762	0.089
762	0.089
763	0.088
763	0.087
764	0.086
764	0.085
764	0.084
765	0.083
765	0.082
766	0.081
766	0.08
767	0.079
767	0.078
768	0.077
768	0.076
768	0.075
769	0.074
769	0.074
770	0.073
770	0.072
771	0.071
771	0.07
771	0.069
772	0.069
772	0.068
773	0.067
773	0.067
774	0.066
774	0.066
775	0.065
775	0.064
775	0.063
776	0.063
776	0.062
777	0.062
777	0.061
778	0.061
778	0.061
778	0.06
779	0.06
779	0.059
780	0.059
780	0.058
781	0.058
781	0.057
781	0.056
782	0.055
782	0.054
783	0.053
783	0.052
784	0.051
784	0.05
784	0.05
785	0.049
785	0.049
786	0.048
786	0.048
787	0.048
787	0.048
788	0.048
788	0.048
788	0.048
789	0.049
789	0.049
790	0.049
790	0.049
791	0.049
791	0.049
791	0.048
792	0.048
792	0.047
793	0.047
793	0.047
794	0.046
794	0.046
794	0.046
795	0.046
795	0.045
796	0.045
796	0.045
797	0.045
797	0.045
797	0.045
798	0.045
798	0.045
799	0.045
799	0.044
800	0.043
800	0.043
801	0.042
801	0.042
801	0.041
802	0.04
802	0.04
803	0.039
803	0.039
804	0.039
804	0.04
804	0.04
805	0.04
805	0.041
806	0.042
806	0.042
807	0.042
807	0.042
807	0.043
808	0.043
808	0.042
809	0.042
809	0.042
810	0.042
810	0.041
810	0.041
811	0.041
811	0.041
812	0.041
812	0.041
813	0.041
813	0.041
813	0.041
814	0.041
814	0.041
815	0.041
815	0.041
816	0.04
816	0.04
817	0.04
817	0.039
817	0.039
818	0.039
818	0.039
819	0.038
819	0.038
820	0.038
820	0.038
820	0.038
821	0.037
821	0.037
822	0.037
822	0.036
823	0.036
823	0.035
823	0.035
824	0.035
824	0.034
825	0.034
825	0.034
826	0.034
826	0.034
826	0.034
827	0.034
827	0.034
828	0.034
828	0.034
829	0.034
829	0.035
829	0.035
830	0.036
830	0.036
831	0.036
831	0.036
832	0.037
832	0.037
832	0.037
833	0.037
833	0.037
834	0.036
834	0.036
835	0.036
835	0.035
835	0.035
836	0.034
836	0.034
837	0.034
837	0.033
838	0.033
838	0.033
839	0.033
839	0.033
839	0.033
840	0.034
840	0.034
841	0.034
841	0.034
842	0.034
842	0.034
842	0.034
843	0.034
843	0.034
844	0.034
844	0.034
845	0.034
845	0.034
845	0.034
846	0.034
846	0.034
847	0.034
847	0.034
848	0.034
848	0.034
848	0.034
849	0.033
849	0.033
850	0.032
850	0.032
851	0.031
851	0.031
851	0.03
852	0.029
852	0.028
853	0.027
853	0.026
854	0.025
854	0.024
854	0.024
855	0.024
855	0.023
856	0.023
856	0.023
857	0.023
857	0.023
857	0.023
858	0.024
858	0.024
859	0.025
859	0.026
860	0.027
860	0.028
860	0.028
861	0.029
861	0.03
862	0.03
862	0.031
863	0.031
863	0.031
863	0.031
864	0.03
864	0.03
865	0.03
865	0.029
866	0.029
866	0.028
866	0.028
867	0.028
867	0.028
868	0.027
868	0.027
869	0.027
869	0.027
869	0.027
870	0.027
870	0.026
871	0.026
871	0.025
872	0.025
872	0.024
872	0.024
873	0.023
873	0.022
874	0.022
874	0.021
875	0.021
875	0.02
875	0.02
876	0.019
876	0.019
877	0.018
877	0.017
878	0.017
878	0.017
878	0.017
879	0.016
879	0.016
880	0.016
880	0.017
881	0.017
881	0.018
881	0.02
882	0.021
882	0.022
883	0.024
883	0.025
884	0.026
884	0.028
884	0.029
885	0.03
885	0.03
886	0.031
886	0.031
887	0.031
887	0.03
887	0.03
888	0.03
888	0.03
889	0.03
889	0.03
890	0.03
890	0.03
890	0.029
891	0.029
891	0.029
892	0.029
892	0.028
893	0.028
893	0.027
893	0.026
894	0.025
894	0.024
895	0.024
895	0.023
895	0.022
896	0.021
896	0.02
897	0.019
897	0.019
898	0.019
898	0.019
898	0.019
899	0.018
899	0.018
900	0.018
900	0.019
901	0.019
901	0.02
901	0.02
902	0.02
902	0.02
903	0.02
903	0.021
904	0.021
904	0.021
904	0.021
905	0.021
905	0.021
906	0.021
906	0.021
907	0.022
907	0.022
907	0.022
908	0.022
908	0.022
909	0.023
909	0.023
910	0.024
910	0.025
910	0.025
911	0.025
911	0.026
912	0.026
912	0.027
913	0.027
913	0.027
913	0.026
914	0.026
914	0.026
915	0.025
915	0.024
916	0.023
916	0.023
916	0.022
917	0.022
917	0.022
918	0.022
918	0.022
918	0.022
919	0.023
919	0.024
920	0.024
920	0.025
921	0.026
921	0.026
921	0.026
922	0.026
922	0.025
923	0.025
923	0.025
924	0.024
924	0.023
924	0.022
925	0.021
925	0.02
926	0.02
926	0.019
927	0.019
927	0.019
927	0.018
928	0.018
928	0.018
929	0.018
929	0.018
930	0.019
930	0.019
930	0.019
931	0.019
931	0.019
932	0.019
932	0.019
933	0.019
933	0.02
933	0.02
934	0.02
934	0.02
935	0.021
935	0.021
935	0.021
936	0.022
936	0.022
937	0.022
937	0.023
938	0.023
938	0.023
938	0.023
939	0.023
939	0.023
940	0.023
940	0.024
941	0.024
941	0.025
941	0.025
942	0.026
942	0.026
943	0.026
943	0.026
944	0.026
944	0.025
944	0.025
945	0.025
945	0.024
946	0.023
946	0.023
946	0.022
947	0.021
947	0.021
948	0.02
948	0.02
949	0.02
949	0.02
949	0.02
950	0.02
950	0.02
951	0.021
951	0.021
952	0.022
952	0.023
952	0.024
953	0.025
953	0.026
954	0.026
954	0.027
955	0.028
955	0.028
955	0.028
956	0.029
956	0.029
957	0.029
957	0.029
957	0.028
958	0.028
958	0.027
959	0.027
959	0.026
960	0.026
960	0.025
960	0.025
961	0.024
961	0.024
962	0.024
962	0.024
963	0.024
963	0.025
963	0.026
964	0.026
964	0.027
965	0.028
965	0.029
966	0.03
966	0.031
966	0.032
967	0.033
967	0.033
968	0.033
968	0.034
968	0.034
969	0.034
969	0.034
970	0.033
970	0.033
971	0.033
971	0.032
971	0.032
972	0.031
972	0.031
973	0.031
973	0.03
974	0.03
974	0.029
974	0.028
975	0.027
975	0.026
976	0.025
976	0.024
976	0.023
977	0.022
977	0.021
978	0.02
978	0.019
979	0.018
979	0.017
979	0.017
980	0.017
980	0.016
981	0.017
981	0.017
982	0.017
982	0.018
982	0.018
983	0.019
983	0.02
984	0.021
984	0.021
984	0.022
985	0.023
985	0.023
986	0.023
986	0.023
987	0.023
987	0.023
987	0.023
988	0.022
988	0.022
989	0.021
989	0.02
990	0.02
990	0.019
990	0.018
991	0.018
991	0.017
992	0.016
992	0.015
992	0.014
993	0.014
993	0.013
994	0.012
994	0.011
995	0.011
995	0.01
995	0.01
996	0.009
996	0.009
997	0.009
997	0.009
997	0.009
998	0.01
998	0.01
999	0.011
999	0.011
1000	0.012
1000	0.012
1000	0.012
1001	0.012
1001	0.013
1002	0.013
1002	0.013
1003	0.013
1003	0.014
1003	0.014
1004	0.014
1004	0.014
1005	0.014
1005	0.014
1005	0.014
1006	0.014
1006	0.014
1007	0.014
1007	0.014
1008	0.015
1008	0.015
1008	0.015
1009	0.016
1009	0.016
1010	0.016
1010	0.016
1010	0.016
1011	0.017
1011	0.017
1012	0.017
1012	0.017
1013	0.017
1013	0.016
1013	0.016
1014	0.016
1014	0.016
1015	0.016
1015	0.015
1016	0.015
1016	0.014
1016	0.014
1017	0.013
1017	0.013
1018	0.013
1018	0.012
1018	0.012
1019	0.012
1019	0.012
1020	0.012
1020	0.012
1021	0.012
1021	0.011
1021	0.011
1022	0.011
1022	0.01
1023	0.01
1023	0.009
1023	0.009
1024	0.008
1024	0.008
1025	0.007
1025	0.006
1026	0.006
1026	0.005
1026	0.005
1027	0.005
1027	0.005
1028	0.005
1028	0.005
1028	0.005
1029	0.006
1029	0.006
1030	0.006
1030	0.006
1031	0.006
1031	0.006
1031	0.007
1032	0.007
1032	0.007
1033	0.007
1033	0.007
1033	0.007
1034	0.007
1034	0.006
1035	0.006
1035	0.006
1036	0.006
1036	0.006
1036	0.006
1037	0.006
1037	0.006
1038	0.006
1038	0.006
1039	0.006
1039	0.007
1039	0.007
1040	0.007
1040	0.006
1041	0.006
1041	0.006
1041	0.005
1042	0.005
1042	0.004
1043	0.003
1043	0.003
1044	0.003
1044	0.002
1044	0.002
1045	0.002
1045	0.002
1046	0.003
1046	0.003
1046	0.004
1047	0.004
1047	0.005
1048	0.006
1048	0.006
1049	0.006
1049	0.007
1049	0.007
1050	0.007
1050	0.007
1051	0.007
1051	0.008
1051	0.008
1052	0.009
1052	0.009
1053	0.009
1053	0.01
1053	0.011
1054	0.011
1054	0.012
1055	0.013
1055	0.013
1056	0.013
1056	0.013
1056	0.013
1057	0.013
1057	0.013
1058	0.013
1058	0.012
1058	0.012
1059	0.012
1059	0.011
1060	0.011
1060	0.01
1061	0.01
1061	0.009
1061	0.009
1062	0.008
1062	0.008
1063	0.007
1063	0.007
1063	0.006
1064	0.005
1064	0.005
1065	0.004
1065	0.004
1066	0.003
1066	0.002
1066	0.001
1067	0
1067	-0
1068	-0.001
1068	-0.002
1068	-0.002
1069	-0.003
1069	-0.003
1070	-0.004
1070	-0.005
1071	-0.005
1071	-0.005
1071	-0.006
1072	-0.007
1072	-0.007
1073	-0.007
1073	-0.007
1073	-0.008
1074	-0.007
1074	-0.008
1075	-0.008
1075	-0.008
1076	-0.008
1076	-0.008
1076	-0.008
1077	-0.008
1077	-0.008
1078	-0.008
1078	-0.008
1078	-0.008
1079	-0.008
1079	-0.007
1080	-0.007
1080	-0.007
1080	-0.006
1081	-0.006
1081	-0.006
1082	-0.005
1082	-0.004
1083	-0.004
1083	-0.004
1083	-0.003
1084	-0.003
1084	-0.002
1085	-0.002
1085	-0.002
1085	-0.001
1086	-0.001
1086	-0.001
1087	-0.001
1087	-0.001
1088	-0.001
1088	-0.002
1088	-0.002
1089	-0.003
1089	-0.004
1090	-0.005
1090	-0.006
1090	-0.007
1091	-0.008
1091	-0.009
1092	-0.01
1092	-0.01
1092	-0.011
1093	-0.011
1093	-0.011
1094	-0.012
1094	-0.012
1095	-0.013
1095	-0.013
1095	-0.014
1096	-0.014
1096	-0.014
1097	-0.014
1097	-0.015
1097	-0.015
1098	-0.015
1098	-0.015
1099	-0.016
1099	-0.016
1100	-0.017
1100	-0.016
1100	-0.016
1101	-0.016
1101	-0.017
1102	-0.017
1102	-0.018
1102	-0.018
1103	-0.019
1103	-0.019
1104	-0.019
1104	-0.018
1104	-0.019
1105	-0.019
1105	-0.02
1106	-0.021
1106	-0.023
1107	-0.024
1107	-0.025
1107	-0.025
1108	-0.025
1108	-0.026
1109	-0.028
1109	-0.03
1109	-0.032
1110	-0.031
1110	-0.033
1111	-0.033
1111	-0.03
