Data from 17c-ppt-2-5a_Absorbance__100__00100.txt Node

Date: Mon Jan 15 09:22:09 CET 2024
User: Marek
Spectrometer: MAYP115816
Trigger mode: 0
Integration Time (sec): 2.000000E-1
Scans to average: 10
Electric dark correction enabled: true
Nonlinearity correction enabled: true
Boxcar width: 5
XAxis mode: Wavelengths
Number of Pixels in Spectrum: 2068
>>>>>Begin Spectral Data<<<<<
199	-2.064
199	-1.93
200	-1.784
200	-1.671
201	-1.597
201	-1.545
202	-1.471
202	-1.413
203	-1.36
203	-1.317
204	-1.288
204	-1.265
205	-1.244
205	-1.235
205	-1.232
206	-1.231
206	-1.228
207	-1.224
207	-1.221
208	-1.219
208	-1.213
209	-1.212
209	-1.209
210	-1.209
210	-1.207
211	-1.204
211	-1.202
212	-1.199
212	-1.198
213	-1.197
213	-1.196
213	-1.196
214	-1.195
214	-1.196
215	-1.195
215	-1.195
216	-1.194
216	-1.193
217	-1.192
217	-1.191
218	-1.19
218	-1.186
219	-1.185
219	-1.183
220	-1.178
220	-1.173
221	-1.169
221	-1.164
221	-1.159
222	-1.154
222	-1.149
223	-1.141
223	-1.137
224	-1.131
224	-1.123
225	-1.115
225	-1.104
226	-1.094
226	-1.083
227	-1.069
227	-1.052
228	-1.033
228	-1.014
229	-0.99
229	-0.962
229	-0.935
230	-0.903
230	-0.871
231	-0.834
231	-0.797
232	-0.758
232	-0.717
233	-0.675
233	-0.632
234	-0.589
234	-0.547
235	-0.505
235	-0.464
236	-0.425
236	-0.386
236	-0.349
237	-0.315
237	-0.283
238	-0.253
238	-0.225
239	-0.199
239	-0.175
240	-0.154
240	-0.134
241	-0.116
241	-0.099
242	-0.084
242	-0.07
243	-0.057
243	-0.046
243	-0.035
244	-0.026
244	-0.017
245	-0.009
245	-0.001
246	0.005
246	0.011
247	0.017
247	0.022
248	0.027
248	0.031
249	0.036
249	0.039
250	0.043
250	0.046
250	0.049
251	0.052
251	0.055
252	0.057
252	0.059
253	0.061
253	0.064
254	0.065
254	0.067
255	0.069
255	0.07
256	0.072
256	0.073
257	0.074
257	0.075
258	0.076
258	0.077
258	0.078
259	0.079
259	0.079
260	0.08
260	0.08
261	0.081
261	0.081
262	0.081
262	0.082
263	0.082
263	0.082
264	0.082
264	0.082
265	0.082
265	0.082
265	0.082
266	0.082
266	0.082
267	0.082
267	0.082
268	0.082
268	0.082
269	0.081
269	0.081
270	0.081
270	0.08
271	0.08
271	0.079
272	0.079
272	0.079
272	0.078
273	0.078
273	0.077
274	0.077
274	0.077
275	0.076
275	0.076
276	0.075
276	0.075
277	0.074
277	0.073
278	0.073
278	0.072
278	0.072
279	0.071
279	0.071
280	0.071
280	0.071
281	0.071
281	0.071
282	0.071
282	0.071
283	0.071
283	0.071
284	0.071
284	0.07
285	0.07
285	0.07
285	0.069
286	0.069
286	0.069
287	0.069
287	0.069
288	0.068
288	0.068
289	0.068
289	0.068
290	0.068
290	0.068
291	0.068
291	0.068
292	0.067
292	0.067
292	0.067
293	0.067
293	0.067
294	0.067
294	0.067
295	0.067
295	0.066
296	0.066
296	0.066
297	0.066
297	0.066
298	0.066
298	0.066
298	0.065
299	0.065
299	0.065
300	0.065
300	0.065
301	0.065
301	0.065
302	0.064
302	0.064
303	0.064
303	0.064
304	0.064
304	0.064
305	0.064
305	0.063
305	0.063
306	0.063
306	0.063
307	0.062
307	0.062
308	0.062
308	0.062
309	0.061
309	0.061
310	0.061
310	0.06
311	0.06
311	0.06
311	0.059
312	0.059
312	0.059
313	0.059
313	0.058
314	0.058
314	0.058
315	0.057
315	0.057
316	0.057
316	0.057
317	0.056
317	0.056
318	0.055
318	0.055
318	0.055
319	0.054
319	0.054
320	0.053
320	0.053
321	0.052
321	0.052
322	0.052
322	0.051
323	0.051
323	0.051
324	0.05
324	0.05
324	0.049
325	0.049
325	0.049
326	0.048
326	0.048
327	0.048
327	0.048
328	0.047
328	0.047
329	0.047
329	0.046
330	0.046
330	0.046
330	0.045
331	0.045
331	0.045
332	0.044
332	0.044
333	0.043
333	0.043
334	0.042
334	0.042
335	0.042
335	0.041
336	0.041
336	0.04
336	0.04
337	0.04
337	0.039
338	0.039
338	0.039
339	0.038
339	0.038
340	0.037
340	0.037
341	0.037
341	0.036
342	0.036
342	0.036
342	0.035
343	0.035
343	0.035
344	0.034
344	0.034
345	0.034
345	0.033
346	0.033
346	0.032
347	0.032
347	0.032
348	0.031
348	0.031
348	0.031
349	0.03
349	0.03
350	0.029
350	0.029
351	0.028
351	0.028
352	0.028
352	0.027
353	0.027
353	0.026
354	0.025
354	0.025
354	0.024
355	0.023
355	0.023
356	0.023
356	0.023
357	0.022
357	0.022
358	0.022
358	0.022
359	0.023
359	0.023
360	0.024
360	0.024
360	0.024
361	0.024
361	0.024
362	0.024
362	0.024
363	0.024
363	0.024
364	0.024
364	0.024
365	0.024
365	0.023
366	0.023
366	0.023
366	0.023
367	0.023
367	0.023
368	0.023
368	0.023
369	0.022
369	0.022
370	0.022
370	0.022
371	0.021
371	0.021
372	0.021
372	0.021
372	0.02
373	0.02
373	0.021
374	0.021
374	0.021
375	0.021
375	0.021
376	0.021
376	0.021
377	0.021
377	0.021
378	0.021
378	0.022
378	0.022
379	0.022
379	0.022
380	0.022
380	0.022
381	0.022
381	0.022
382	0.022
382	0.022
383	0.022
383	0.021
383	0.021
384	0.021
384	0.021
385	0.021
385	0.021
386	0.021
386	0.021
387	0.021
387	0.021
388	0.021
388	0.02
389	0.02
389	0.021
389	0.021
390	0.021
390	0.021
391	0.021
391	0.022
392	0.022
392	0.022
393	0.022
393	0.022
394	0.022
394	0.022
394	0.022
395	0.022
395	0.022
396	0.021
396	0.021
397	0.022
397	0.022
398	0.022
398	0.022
399	0.022
399	0.022
400	0.022
400	0.022
400	0.022
401	0.021
401	0.021
402	0.02
402	0.019
403	0.019
403	0.019
404	0.019
404	0.019
405	0.019
405	0.019
405	0.019
406	0.019
406	0.019
407	0.019
407	0.019
408	0.019
408	0.019
409	0.018
409	0.018
410	0.018
410	0.018
411	0.018
411	0.018
411	0.018
412	0.018
412	0.018
413	0.018
413	0.017
414	0.017
414	0.017
415	0.017
415	0.017
416	0.017
416	0.016
416	0.016
417	0.016
417	0.016
418	0.016
418	0.016
419	0.016
419	0.017
420	0.017
420	0.017
421	0.018
421	0.018
421	0.018
422	0.019
422	0.019
423	0.019
423	0.019
424	0.019
424	0.018
425	0.017
425	0.017
426	0.017
426	0.016
427	0.016
427	0.016
427	0.016
428	0.017
428	0.017
429	0.018
429	0.018
430	0.019
430	0.019
431	0.018
431	0.018
432	0.018
432	0.018
432	0.017
433	0.016
433	0.016
434	0.015
434	0.015
435	0.014
435	0.014
436	0.014
436	0.014
437	0.014
437	0.014
437	0.014
438	0.015
438	0.015
439	0.015
439	0.014
440	0.014
440	0.014
441	0.014
441	0.015
442	0.015
442	0.015
442	0.015
443	0.016
443	0.016
444	0.016
444	0.016
445	0.016
445	0.016
446	0.016
446	0.016
447	0.016
447	0.016
447	0.016
448	0.016
448	0.016
449	0.016
449	0.015
450	0.015
450	0.015
451	0.014
451	0.014
452	0.014
452	0.013
452	0.013
453	0.013
453	0.012
454	0.012
454	0.011
455	0.011
455	0.011
456	0.011
456	0.011
457	0.01
457	0.011
458	0.011
458	0.011
458	0.011
459	0.011
459	0.011
460	0.011
460	0.011
461	0.01
461	0.01
462	0.009
462	0.009
463	0.009
463	0.009
463	0.01
464	0.01
464	0.01
465	0.01
465	0.01
466	0.01
466	0.01
467	0.009
467	0.009
467	0.008
468	0.007
468	0.006
469	0.004
469	0.003
470	0.002
470	0.002
471	0.002
471	0.002
472	0.002
472	0.001
472	0.002
473	0.002
473	0.003
474	0.004
474	0.004
475	0.005
475	0.005
476	0.005
476	0.005
477	0.004
477	0.004
477	0.004
478	0.004
478	0.004
479	0.003
479	0.003
480	0.004
480	0.004
481	0.004
481	0.005
482	0.005
482	0.006
482	0.006
483	0.008
483	0.009
484	0.011
484	0.012
485	0.013
485	0.014
486	0.014
486	0.015
487	0.015
487	0.015
487	0.014
488	0.014
488	0.013
489	0.011
489	0.01
490	0.009
490	0.008
491	0.007
491	0.007
492	0.007
492	0.007
492	0.007
493	0.007
493	0.007
494	0.008
494	0.009
495	0.01
495	0.011
496	0.011
496	0.011
496	0.012
497	0.012
497	0.012
498	0.012
498	0.012
499	0.011
499	0.011
500	0.01
500	0.011
501	0.011
501	0.011
501	0.012
502	0.013
502	0.013
503	0.014
503	0.014
504	0.015
504	0.014
505	0.014
505	0.014
506	0.014
506	0.014
506	0.013
507	0.012
507	0.012
508	0.012
508	0.012
509	0.011
509	0.011
510	0.011
510	0.011
511	0.011
511	0.011
511	0.011
512	0.01
512	0.009
513	0.008
513	0.007
514	0.006
514	0.006
515	0.005
515	0.005
515	0.004
516	0.002
516	0.002
517	0.001
517	0.001
518	0.001
518	0.001
519	0.001
519	0
520	-0.001
520	-0.002
520	-0.003
521	-0.004
521	-0.006
522	-0.008
522	-0.01
523	-0.012
523	-0.014
524	-0.015
524	-0.016
524	-0.017
525	-0.017
525	-0.016
526	-0.015
526	-0.014
527	-0.012
527	-0.01
528	-0.008
528	-0.005
529	-0.004
529	-0.002
529	-0.001
530	-0.001
530	-0
531	0.001
531	0.001
532	0.001
532	0.001
533	0.001
533	0.001
533	0.001
534	0.001
534	0
535	0
535	0
536	0.001
536	0.001
537	0.001
537	0.001
538	0.001
538	0
538	-0
539	-0
539	-0
540	-0
540	-0
541	-0.001
541	-0.001
542	-0.002
542	-0.002
542	-0.003
543	-0.002
543	-0.002
544	-0.003
544	-0.003
545	-0.003
545	-0.003
546	-0.003
546	-0.002
547	-0.002
547	-0.003
547	-0.003
548	-0.004
548	-0.005
549	-0.006
549	-0.006
550	-0.007
550	-0.008
551	-0.008
551	-0.009
551	-0.009
552	-0.009
552	-0.009
553	-0.009
553	-0.008
554	-0.008
554	-0.007
555	-0.007
555	-0.007
556	-0.008
556	-0.009
556	-0.01
557	-0.011
557	-0.012
558	-0.012
558	-0.013
559	-0.013
559	-0.013
560	-0.012
560	-0.012
560	-0.011
561	-0.011
561	-0.01
562	-0.009
562	-0.008
563	-0.008
563	-0.009
564	-0.009
564	-0.01
564	-0.011
565	-0.011
565	-0.011
566	-0.011
566	-0.011
567	-0.01
567	-0.009
568	-0.007
568	-0.005
568	-0.003
569	-0.001
569	0.001
570	0.003
570	0.005
571	0.006
571	0.008
572	0.009
572	0.01
573	0.01
573	0.011
573	0.011
574	0.011
574	0.011
575	0.011
575	0.012
576	0.013
576	0.014
577	0.014
577	0.014
577	0.014
578	0.014
578	0.015
579	0.016
579	0.017
580	0.018
580	0.018
581	0.018
581	0.017
581	0.017
582	0.017
582	0.017
583	0.017
583	0.017
584	0.017
584	0.015
585	0.014
585	0.013
585	0.013
586	0.013
586	0.013
587	0.013
587	0.012
588	0.011
588	0.01
589	0.009
589	0.009
590	0.009
590	0.008
590	0.009
591	0.01
591	0.011
592	0.012
592	0.012
593	0.012
593	0.012
594	0.012
594	0.011
594	0.011
595	0.011
595	0.01
596	0.01
596	0.01
597	0.011
597	0.012
598	0.014
598	0.015
598	0.017
599	0.018
599	0.018
600	0.018
600	0.017
601	0.017
601	0.016
602	0.015
602	0.014
602	0.013
603	0.013
603	0.013
604	0.013
604	0.014
605	0.015
605	0.017
606	0.018
606	0.019
606	0.019
607	0.019
607	0.019
608	0.018
608	0.018
609	0.018
609	0.017
610	0.017
610	0.016
610	0.016
611	0.016
611	0.017
612	0.018
612	0.019
613	0.02
613	0.021
614	0.022
614	0.022
614	0.022
615	0.021
615	0.021
616	0.02
616	0.02
617	0.019
617	0.019
618	0.018
618	0.017
618	0.016
619	0.016
619	0.017
620	0.018
620	0.019
621	0.02
621	0.021
622	0.022
622	0.023
622	0.023
623	0.024
623	0.024
624	0.025
624	0.025
625	0.025
625	0.025
626	0.026
626	0.026
626	0.026
627	0.027
627	0.027
628	0.028
628	0.028
629	0.029
629	0.029
630	0.029
630	0.029
630	0.029
631	0.03
631	0.03
632	0.031
632	0.031
633	0.031
633	0.032
634	0.033
634	0.035
634	0.037
635	0.038
635	0.039
636	0.04
636	0.041
637	0.042
637	0.043
638	0.044
638	0.044
638	0.045
639	0.046
639	0.046
640	0.046
640	0.047
641	0.047
641	0.048
642	0.05
642	0.052
642	0.054
643	0.055
643	0.057
644	0.058
644	0.06
645	0.062
645	0.064
646	0.066
646	0.068
646	0.07
647	0.072
647	0.075
648	0.077
648	0.079
649	0.081
649	0.083
650	0.085
650	0.088
650	0.09
651	0.092
651	0.094
652	0.095
652	0.097
653	0.099
653	0.104
653	0.107
654	0.089
654	0.075
655	0.081
655	0.083
656	0.085
656	0.086
657	0.088
657	0.089
657	0.09
658	0.089
658	0.088
659	0.108
659	0.134
660	0.133
660	0.134
661	0.136
661	0.137
661	0.14
662	0.142
662	0.145
663	0.148
663	0.15
664	0.153
664	0.155
665	0.157
665	0.159
665	0.161
666	0.163
666	0.164
667	0.166
667	0.168
668	0.17
668	0.172
669	0.174
669	0.176
669	0.179
670	0.183
670	0.185
671	0.188
671	0.189
672	0.191
672	0.192
672	0.193
673	0.194
673	0.195
674	0.196
674	0.197
675	0.197
675	0.198
676	0.199
676	0.201
676	0.202
677	0.204
677	0.205
678	0.207
678	0.208
679	0.209
679	0.21
680	0.211
680	0.211
680	0.212
681	0.211
681	0.212
682	0.212
682	0.213
683	0.214
683	0.216
684	0.218
684	0.219
684	0.221
685	0.222
685	0.223
686	0.225
686	0.226
687	0.227
687	0.227
687	0.227
688	0.227
688	0.226
689	0.226
689	0.226
690	0.226
690	0.225
691	0.225
691	0.224
691	0.224
692	0.223
692	0.222
693	0.221
693	0.221
694	0.22
694	0.219
695	0.219
695	0.22
695	0.221
696	0.221
696	0.221
697	0.221
697	0.221
698	0.221
698	0.22
698	0.219
699	0.218
699	0.217
700	0.215
700	0.213
701	0.211
701	0.21
702	0.209
702	0.208
702	0.206
703	0.205
703	0.203
704	0.202
704	0.201
705	0.2
705	0.199
705	0.198
706	0.198
706	0.197
707	0.196
707	0.195
708	0.194
708	0.192
709	0.192
709	0.19
709	0.188
710	0.186
710	0.184
711	0.182
711	0.18
712	0.179
712	0.177
713	0.176
713	0.175
713	0.174
714	0.172
714	0.17
715	0.169
715	0.167
716	0.165
716	0.163
716	0.161
717	0.16
717	0.158
718	0.156
718	0.153
719	0.152
719	0.15
720	0.149
720	0.147
720	0.145
721	0.143
721	0.14
722	0.138
722	0.136
723	0.134
723	0.132
723	0.131
724	0.129
724	0.127
725	0.126
725	0.124
726	0.123
726	0.122
727	0.12
727	0.119
727	0.118
728	0.117
728	0.116
729	0.115
729	0.114
730	0.113
730	0.112
730	0.111
731	0.109
731	0.108
732	0.106
732	0.105
733	0.103
733	0.101
734	0.099
734	0.096
734	0.094
735	0.093
735	0.091
736	0.089
736	0.087
737	0.085
737	0.084
737	0.082
738	0.081
738	0.078
739	0.076
739	0.074
740	0.072
740	0.07
741	0.067
741	0.065
741	0.062
742	0.058
742	0.055
743	0.053
743	0.05
744	0.048
744	0.047
744	0.045
745	0.043
745	0.042
746	0.041
746	0.041
747	0.041
747	0.04
748	0.04
748	0.041
748	0.04
749	0.04
749	0.04
750	0.04
750	0.039
751	0.039
751	0.039
751	0.038
752	0.038
752	0.037
753	0.036
753	0.035
754	0.034
754	0.034
754	0.033
755	0.034
755	0.034
756	0.034
756	0.033
757	0.032
757	0.031
758	0.03
758	0.029
758	0.029
759	0.028
759	0.027
760	0.024
760	0.022
761	0.019
761	0.018
761	0.017
762	0.015
762	0.014
763	0.013
763	0.012
764	0.01
764	0.007
764	0.005
765	0.003
765	0.001
766	-0
766	-0.001
767	-0.002
767	-0.004
768	-0.007
768	-0.009
768	-0.01
769	-0.011
769	-0.012
770	-0.012
770	-0.013
771	-0.015
771	-0.017
771	-0.02
772	-0.023
772	-0.026
773	-0.028
773	-0.031
774	-0.035
774	-0.039
775	-0.043
775	-0.047
775	-0.051
776	-0.055
776	-0.06
777	-0.064
777	-0.068
778	-0.072
778	-0.077
778	-0.082
779	-0.085
779	-0.086
780	-0.089
780	-0.093
781	-0.096
781	-0.098
781	-0.101
782	-0.104
782	-0.108
783	-0.111
783	-0.113
784	-0.114
784	-0.117
784	-0.119
785	-0.121
785	-0.123
786	-0.123
786	-0.121
787	-0.117
787	-0.113
788	-0.111
788	-0.112
788	-0.112
789	-0.114
789	-0.113
790	-0.109
790	-0.108
791	-0.108
791	-0.109
791	-0.111
792	-0.106
792	-0.096
793	-0.091
793	-0.088
794	-0.087
794	-0.089
794	-0.093
795	-0.095
795	-0.096
796	-0.096
796	-0.099
797	-0.107
797	-0.117
797	-0.123
798	-0.127
798	-0.13
799	-0.131
799	-0.131
800	-0.131
800	-0.133
801	-0.136
801	-0.137
801	-0.138
802	-0.139
802	-0.141
803	-0.142
803	-0.142
804	-0.141
804	-0.136
804	-0.129
805	-0.125
805	-0.123
806	-0.12
806	-0.119
807	-0.118
807	-0.117
807	-0.117
808	-0.117
808	-0.118
809	-0.123
809	-0.128
810	-0.132
810	-0.134
810	-0.137
811	-0.139
811	-0.139
812	-0.135
812	-0.131
813	-0.131
813	-0.131
813	-0.131
814	-0.131
814	-0.131
815	-0.128
815	-0.126
816	-0.124
816	-0.125
817	-0.129
817	-0.132
817	-0.133
818	-0.133
818	-0.13
819	-0.125
819	-0.123
820	-0.124
820	-0.126
820	-0.126
821	-0.124
821	-0.121
822	-0.117
822	-0.112
823	-0.107
823	-0.104
823	-0.102
824	-0.097
824	-0.089
825	-0.08
825	-0.071
826	-0.063
826	-0.057
826	-0.05
827	-0.045
827	-0.039
828	-0.035
828	-0.031
829	-0.027
829	-0.024
829	-0.022
830	-0.02
830	-0.018
831	-0.016
831	-0.014
832	-0.013
832	-0.011
832	-0.01
833	-0.008
833	-0.007
834	-0.006
834	-0.004
835	-0.004
835	-0.003
835	-0.002
836	-0.002
836	-0.001
837	-0.001
837	-0
838	-0
838	0
839	0.001
839	0.001
839	0.002
840	0.002
840	0.003
841	0.004
841	0.005
842	0.006
842	0.007
842	0.008
843	0.009
843	0.01
844	0.011
844	0.013
845	0.014
845	0.015
845	0.016
846	0.017
846	0.019
847	0.02
847	0.021
848	0.022
848	0.023
848	0.023
849	0.024
849	0.024
850	0.024
850	0.023
851	0.023
851	0.023
851	0.022
852	0.022
852	0.021
853	0.021
853	0.02
854	0.02
854	0.02
854	0.02
855	0.02
855	0.02
856	0.021
856	0.021
857	0.021
857	0.022
857	0.022
858	0.023
858	0.023
859	0.024
859	0.025
860	0.026
860	0.027
860	0.028
861	0.028
861	0.029
862	0.03
862	0.031
863	0.032
863	0.032
863	0.032
864	0.032
864	0.032
865	0.033
865	0.033
866	0.033
866	0.033
866	0.033
867	0.034
867	0.034
868	0.034
868	0.034
869	0.035
869	0.035
869	0.035
870	0.034
870	0.034
871	0.034
871	0.034
872	0.033
872	0.033
872	0.033
873	0.032
873	0.032
874	0.031
874	0.031
875	0.03
875	0.029
875	0.029
876	0.028
876	0.027
877	0.027
877	0.026
878	0.026
878	0.025
878	0.025
879	0.025
879	0.026
880	0.026
880	0.027
881	0.028
881	0.029
881	0.03
882	0.032
882	0.033
883	0.034
883	0.035
884	0.036
884	0.037
884	0.038
885	0.038
885	0.039
886	0.039
886	0.039
887	0.039
887	0.039
887	0.039
888	0.039
888	0.039
889	0.039
889	0.039
890	0.039
890	0.039
890	0.039
891	0.039
891	0.039
892	0.039
892	0.039
893	0.039
893	0.038
893	0.038
894	0.037
894	0.036
895	0.036
895	0.035
895	0.035
896	0.034
896	0.034
897	0.033
897	0.033
898	0.034
898	0.034
898	0.034
899	0.034
899	0.035
900	0.035
900	0.036
901	0.037
901	0.037
901	0.038
902	0.038
902	0.039
903	0.039
903	0.039
904	0.04
904	0.04
904	0.04
905	0.04
905	0.04
906	0.04
906	0.041
907	0.041
907	0.041
907	0.041
908	0.042
908	0.042
909	0.042
909	0.043
910	0.043
910	0.043
910	0.044
911	0.044
911	0.044
912	0.045
912	0.045
913	0.045
913	0.045
913	0.044
914	0.044
914	0.044
915	0.044
915	0.043
916	0.043
916	0.042
916	0.042
917	0.041
917	0.041
918	0.041
918	0.041
918	0.041
919	0.041
919	0.042
920	0.042
920	0.042
921	0.043
921	0.042
921	0.042
922	0.042
922	0.042
923	0.041
923	0.041
924	0.041
924	0.04
924	0.04
925	0.04
925	0.039
926	0.039
926	0.04
927	0.04
927	0.04
927	0.04
928	0.04
928	0.04
929	0.04
929	0.04
930	0.04
930	0.04
930	0.04
931	0.04
931	0.04
932	0.04
932	0.041
933	0.041
933	0.041
933	0.042
934	0.042
934	0.042
935	0.043
935	0.044
935	0.044
936	0.045
936	0.046
937	0.047
937	0.048
938	0.048
938	0.049
938	0.049
939	0.05
939	0.051
940	0.052
940	0.053
941	0.054
941	0.055
941	0.056
942	0.057
942	0.058
943	0.059
943	0.059
944	0.059
944	0.059
944	0.059
945	0.058
945	0.058
946	0.058
946	0.057
946	0.056
947	0.055
947	0.054
948	0.053
948	0.052
949	0.052
949	0.051
949	0.05
950	0.05
950	0.049
951	0.049
951	0.049
952	0.049
952	0.049
952	0.05
953	0.05
953	0.051
954	0.051
954	0.052
955	0.052
955	0.053
955	0.053
956	0.053
956	0.054
957	0.053
957	0.053
957	0.052
958	0.052
958	0.051
959	0.051
959	0.05
960	0.05
960	0.049
960	0.049
961	0.048
961	0.048
962	0.048
962	0.048
963	0.048
963	0.048
963	0.049
964	0.049
964	0.05
965	0.05
965	0.051
966	0.051
966	0.052
966	0.053
967	0.053
967	0.054
968	0.054
968	0.054
968	0.054
969	0.054
969	0.054
970	0.054
970	0.054
971	0.054
971	0.054
971	0.054
972	0.054
972	0.054
973	0.054
973	0.054
974	0.054
974	0.054
974	0.054
975	0.053
975	0.052
976	0.051
976	0.05
976	0.048
977	0.047
977	0.046
978	0.045
978	0.044
979	0.043
979	0.043
979	0.042
980	0.042
980	0.042
981	0.043
981	0.043
982	0.044
982	0.044
982	0.045
983	0.046
983	0.047
984	0.048
984	0.049
984	0.049
985	0.05
985	0.051
986	0.051
986	0.051
987	0.051
987	0.051
987	0.052
988	0.052
988	0.051
989	0.051
989	0.051
990	0.05
990	0.05
990	0.049
991	0.049
991	0.049
992	0.048
992	0.047
992	0.047
993	0.046
993	0.046
994	0.045
994	0.044
995	0.043
995	0.043
995	0.043
996	0.042
996	0.042
997	0.042
997	0.042
997	0.042
998	0.043
998	0.044
999	0.044
999	0.045
1000	0.045
1000	0.046
1000	0.046
1001	0.046
1001	0.046
1002	0.046
1002	0.047
1003	0.047
1003	0.047
1003	0.047
1004	0.047
1004	0.047
1005	0.046
1005	0.046
1005	0.047
1006	0.047
1006	0.047
1007	0.047
1007	0.047
1008	0.048
1008	0.049
1008	0.05
1009	0.05
1009	0.051
1010	0.052
1010	0.053
1010	0.053
1011	0.054
1011	0.054
1012	0.054
1012	0.054
1013	0.054
1013	0.054
1013	0.054
1014	0.054
1014	0.053
1015	0.053
1015	0.053
1016	0.052
1016	0.052
1016	0.052
1017	0.052
1017	0.051
1018	0.051
1018	0.051
1018	0.051
1019	0.051
1019	0.052
1020	0.052
1020	0.052
1021	0.052
1021	0.052
1021	0.052
1022	0.052
1022	0.052
1023	0.051
1023	0.051
1023	0.051
1024	0.05
1024	0.05
1025	0.049
1025	0.049
1026	0.049
1026	0.049
1026	0.049
1027	0.049
1027	0.049
1028	0.049
1028	0.049
1028	0.049
1029	0.05
1029	0.05
1030	0.05
1030	0.05
1031	0.051
1031	0.051
1031	0.051
1032	0.052
1032	0.053
1033	0.053
1033	0.053
1033	0.054
1034	0.054
1034	0.054
1035	0.054
1035	0.055
1036	0.055
1036	0.056
1036	0.056
1037	0.057
1037	0.057
1038	0.058
1038	0.058
1039	0.059
1039	0.06
1039	0.06
1040	0.06
1040	0.06
1041	0.06
1041	0.06
1041	0.06
1042	0.06
1042	0.06
1043	0.06
1043	0.06
1044	0.06
1044	0.06
1044	0.06
1045	0.061
1045	0.061
1046	0.062
1046	0.062
1046	0.064
1047	0.065
1047	0.065
1048	0.066
1048	0.067
1049	0.068
1049	0.069
1049	0.07
1050	0.07
1050	0.071
1051	0.072
1051	0.073
1051	0.074
1052	0.076
1052	0.077
1053	0.078
1053	0.08
1053	0.082
1054	0.083
1054	0.084
1055	0.086
1055	0.087
1056	0.088
1056	0.088
1056	0.089
1057	0.09
1057	0.091
1058	0.092
1058	0.093
1058	0.093
1059	0.094
1059	0.095
1060	0.096
1060	0.097
1061	0.097
1061	0.098
1061	0.098
1062	0.099
1062	0.098
1063	0.099
1063	0.099
1063	0.099
1064	0.099
1064	0.1
1065	0.1
1065	0.1
1066	0.101
1066	0.102
1066	0.102
1067	0.103
1067	0.103
1068	0.104
1068	0.104
1068	0.104
1069	0.105
1069	0.106
1070	0.107
1070	0.107
1071	0.108
1071	0.11
1071	0.111
1072	0.112
1072	0.114
1073	0.116
1073	0.117
1073	0.119
1074	0.121
1074	0.123
1075	0.125
1075	0.127
1076	0.13
1076	0.133
1076	0.135
1077	0.138
1077	0.141
1078	0.144
1078	0.147
1078	0.151
1079	0.154
1079	0.157
1080	0.16
1080	0.162
1080	0.165
1081	0.168
1081	0.171
1082	0.174
1082	0.177
1083	0.181
1083	0.185
1083	0.189
1084	0.193
1084	0.198
1085	0.203
1085	0.208
1085	0.213
1086	0.218
1086	0.222
1087	0.228
1087	0.233
1088	0.238
1088	0.244
1088	0.251
1089	0.258
1089	0.266
1090	0.274
1090	0.283
1090	0.293
1091	0.305
1091	0.317
1092	0.328
1092	0.341
1092	0.354
1093	0.368
1093	0.384
1094	0.402
1094	0.421
1095	0.442
1095	0.466
1095	0.494
1096	0.525
1096	0.562
1097	0.605
1097	0.654
1097	0.712
1098	0.78
1098	0.858
1099	0.971
1099	1.121
1100	1.379
1100	2.091
1100	-0
1101	-0
1101	-0
1102	-0
1102	-0
1102	-0
1103	-0
1103	-0
1104	-0
1104	-0
1104	-0
1105	-0
1105	-0
1106	-0
1106	-0
1107	-0
1107	-0
1107	-0
1108	-0
1108	-0
1109	-0
1109	-0
1109	-0
1110	-0
1110	-0
1111	-0
1111	-0
