Data from 17c-ppt-2-5a_Absorbance__62__00062.txt Node

Date: Mon Jan 15 09:20:53 CET 2024
User: Marek
Spectrometer: MAYP115816
Trigger mode: 0
Integration Time (sec): 2.000000E-1
Scans to average: 10
Electric dark correction enabled: true
Nonlinearity correction enabled: true
Boxcar width: 5
XAxis mode: Wavelengths
Number of Pixels in Spectrum: 2068
>>>>>Begin Spectral Data<<<<<
199	-2.048
199	-1.914
200	-1.769
200	-1.656
201	-1.581
201	-1.53
202	-1.457
202	-1.398
203	-1.345
203	-1.302
204	-1.273
204	-1.25
205	-1.229
205	-1.22
205	-1.217
206	-1.215
206	-1.213
207	-1.209
207	-1.205
208	-1.203
208	-1.197
209	-1.196
209	-1.194
210	-1.193
210	-1.191
211	-1.19
211	-1.187
212	-1.184
212	-1.183
213	-1.182
213	-1.181
213	-1.181
214	-1.18
214	-1.18
215	-1.18
215	-1.179
216	-1.178
216	-1.176
217	-1.176
217	-1.175
218	-1.174
218	-1.17
219	-1.169
219	-1.167
220	-1.162
220	-1.157
221	-1.152
221	-1.147
221	-1.142
222	-1.138
222	-1.132
223	-1.125
223	-1.121
224	-1.115
224	-1.107
225	-1.099
225	-1.088
226	-1.078
226	-1.068
227	-1.054
227	-1.037
228	-1.018
228	-0.998
229	-0.974
229	-0.947
229	-0.919
230	-0.889
230	-0.856
231	-0.819
231	-0.783
232	-0.744
232	-0.702
233	-0.661
233	-0.619
234	-0.576
234	-0.535
235	-0.493
235	-0.453
236	-0.414
236	-0.376
236	-0.339
237	-0.306
237	-0.274
238	-0.244
238	-0.217
239	-0.191
239	-0.168
240	-0.147
240	-0.127
241	-0.109
241	-0.093
242	-0.078
242	-0.065
243	-0.052
243	-0.041
243	-0.031
244	-0.021
244	-0.013
245	-0.005
245	0.002
246	0.009
246	0.014
247	0.02
247	0.024
248	0.029
248	0.033
249	0.037
249	0.041
250	0.044
250	0.047
250	0.05
251	0.053
251	0.055
252	0.058
252	0.06
253	0.063
253	0.064
254	0.066
254	0.068
255	0.069
255	0.071
256	0.072
256	0.073
257	0.074
257	0.075
258	0.076
258	0.077
258	0.078
259	0.078
259	0.079
260	0.079
260	0.08
261	0.08
261	0.08
262	0.08
262	0.08
263	0.081
263	0.081
264	0.081
264	0.081
265	0.081
265	0.081
265	0.081
266	0.081
266	0.081
267	0.081
267	0.081
268	0.08
268	0.08
269	0.08
269	0.079
270	0.079
270	0.079
271	0.078
271	0.078
272	0.077
272	0.077
272	0.077
273	0.077
273	0.076
274	0.076
274	0.075
275	0.075
275	0.074
276	0.074
276	0.073
277	0.073
277	0.072
278	0.072
278	0.071
278	0.071
279	0.07
279	0.07
280	0.07
280	0.07
281	0.07
281	0.07
282	0.069
282	0.069
283	0.069
283	0.069
284	0.069
284	0.069
285	0.068
285	0.068
285	0.068
286	0.068
286	0.068
287	0.067
287	0.067
288	0.067
288	0.067
289	0.067
289	0.067
290	0.067
290	0.066
291	0.066
291	0.066
292	0.066
292	0.066
292	0.065
293	0.065
293	0.065
294	0.065
294	0.065
295	0.065
295	0.064
296	0.064
296	0.064
297	0.064
297	0.064
298	0.064
298	0.064
298	0.063
299	0.063
299	0.063
300	0.063
300	0.063
301	0.063
301	0.063
302	0.062
302	0.062
303	0.062
303	0.062
304	0.062
304	0.062
305	0.062
305	0.061
305	0.061
306	0.061
306	0.061
307	0.06
307	0.06
308	0.06
308	0.06
309	0.059
309	0.059
310	0.059
310	0.059
311	0.058
311	0.058
311	0.058
312	0.058
312	0.057
313	0.057
313	0.057
314	0.057
314	0.056
315	0.056
315	0.056
316	0.055
316	0.055
317	0.055
317	0.054
318	0.054
318	0.054
318	0.053
319	0.053
319	0.053
320	0.052
320	0.052
321	0.051
321	0.051
322	0.051
322	0.05
323	0.05
323	0.05
324	0.049
324	0.049
324	0.049
325	0.048
325	0.048
326	0.048
326	0.047
327	0.047
327	0.047
328	0.046
328	0.046
329	0.046
329	0.045
330	0.045
330	0.045
330	0.044
331	0.044
331	0.044
332	0.043
332	0.043
333	0.043
333	0.042
334	0.042
334	0.042
335	0.041
335	0.041
336	0.04
336	0.04
336	0.04
337	0.039
337	0.039
338	0.038
338	0.038
339	0.038
339	0.037
340	0.037
340	0.037
341	0.036
341	0.036
342	0.035
342	0.035
342	0.035
343	0.035
343	0.034
344	0.034
344	0.034
345	0.033
345	0.033
346	0.032
346	0.032
347	0.032
347	0.032
348	0.031
348	0.031
348	0.031
349	0.03
349	0.03
350	0.029
350	0.029
351	0.028
351	0.028
352	0.027
352	0.027
353	0.026
353	0.026
354	0.025
354	0.025
354	0.024
355	0.024
355	0.023
356	0.023
356	0.023
357	0.023
357	0.023
358	0.023
358	0.023
359	0.023
359	0.024
360	0.024
360	0.024
360	0.024
361	0.025
361	0.025
362	0.025
362	0.024
363	0.024
363	0.024
364	0.024
364	0.024
365	0.024
365	0.023
366	0.023
366	0.023
366	0.023
367	0.023
367	0.023
368	0.023
368	0.023
369	0.022
369	0.022
370	0.022
370	0.022
371	0.022
371	0.022
372	0.021
372	0.021
372	0.021
373	0.021
373	0.021
374	0.021
374	0.021
375	0.021
375	0.021
376	0.021
376	0.021
377	0.021
377	0.022
378	0.022
378	0.022
378	0.022
379	0.022
379	0.022
380	0.022
380	0.022
381	0.022
381	0.022
382	0.022
382	0.022
383	0.022
383	0.022
383	0.021
384	0.021
384	0.021
385	0.021
385	0.021
386	0.021
386	0.021
387	0.021
387	0.021
388	0.021
388	0.021
389	0.021
389	0.021
389	0.021
390	0.021
390	0.022
391	0.022
391	0.022
392	0.022
392	0.022
393	0.022
393	0.023
394	0.023
394	0.022
394	0.022
395	0.022
395	0.022
396	0.022
396	0.022
397	0.022
397	0.022
398	0.022
398	0.022
399	0.022
399	0.022
400	0.022
400	0.022
400	0.022
401	0.022
401	0.021
402	0.02
402	0.02
403	0.02
403	0.02
404	0.02
404	0.02
405	0.02
405	0.02
405	0.02
406	0.02
406	0.02
407	0.02
407	0.02
408	0.02
408	0.019
409	0.019
409	0.019
410	0.019
410	0.019
411	0.019
411	0.019
411	0.019
412	0.019
412	0.019
413	0.019
413	0.018
414	0.018
414	0.018
415	0.018
415	0.018
416	0.018
416	0.017
416	0.017
417	0.017
417	0.017
418	0.017
418	0.017
419	0.017
419	0.018
420	0.018
420	0.018
421	0.019
421	0.019
421	0.019
422	0.019
422	0.019
423	0.019
423	0.019
424	0.019
424	0.019
425	0.018
425	0.018
426	0.017
426	0.017
427	0.017
427	0.017
427	0.017
428	0.018
428	0.018
429	0.019
429	0.019
430	0.019
430	0.019
431	0.019
431	0.019
432	0.019
432	0.018
432	0.018
433	0.017
433	0.016
434	0.016
434	0.015
435	0.015
435	0.015
436	0.015
436	0.015
437	0.015
437	0.015
437	0.015
438	0.015
438	0.015
439	0.015
439	0.015
440	0.015
440	0.015
441	0.015
441	0.015
442	0.015
442	0.016
442	0.016
443	0.016
443	0.016
444	0.017
444	0.017
445	0.017
445	0.017
446	0.017
446	0.017
447	0.017
447	0.016
447	0.016
448	0.016
448	0.016
449	0.016
449	0.016
450	0.015
450	0.015
451	0.015
451	0.014
452	0.014
452	0.014
452	0.013
453	0.013
453	0.013
454	0.012
454	0.012
455	0.012
455	0.012
456	0.012
456	0.012
457	0.012
457	0.011
458	0.012
458	0.012
458	0.012
459	0.012
459	0.012
460	0.012
460	0.011
461	0.011
461	0.01
462	0.01
462	0.01
463	0.01
463	0.01
463	0.011
464	0.011
464	0.011
465	0.011
465	0.01
466	0.01
466	0.01
467	0.01
467	0.01
467	0.009
468	0.008
468	0.006
469	0.005
469	0.004
470	0.004
470	0.003
471	0.003
471	0.003
472	0.003
472	0.003
472	0.003
473	0.004
473	0.005
474	0.005
474	0.005
475	0.006
475	0.006
476	0.006
476	0.006
477	0.006
477	0.005
477	0.005
478	0.005
478	0.005
479	0.004
479	0.004
480	0.004
480	0.005
481	0.005
481	0.005
482	0.006
482	0.006
482	0.007
483	0.008
483	0.01
484	0.012
484	0.013
485	0.014
485	0.015
486	0.015
486	0.016
487	0.016
487	0.016
487	0.015
488	0.015
488	0.014
489	0.012
489	0.011
490	0.01
490	0.009
491	0.008
491	0.008
492	0.008
492	0.008
492	0.008
493	0.009
493	0.009
494	0.01
494	0.011
495	0.012
495	0.012
496	0.012
496	0.013
496	0.013
497	0.013
497	0.013
498	0.013
498	0.013
499	0.013
499	0.012
500	0.012
500	0.012
501	0.012
501	0.013
501	0.013
502	0.014
502	0.014
503	0.015
503	0.015
504	0.015
504	0.015
505	0.015
505	0.015
506	0.015
506	0.014
506	0.014
507	0.013
507	0.013
508	0.013
508	0.013
509	0.013
509	0.012
510	0.012
510	0.012
511	0.012
511	0.012
511	0.012
512	0.011
512	0.01
513	0.009
513	0.008
514	0.008
514	0.007
515	0.007
515	0.006
515	0.005
516	0.004
516	0.003
517	0.002
517	0.002
518	0.002
518	0.002
519	0.002
519	0.001
520	0.001
520	-0
520	-0.001
521	-0.002
521	-0.004
522	-0.005
522	-0.007
523	-0.009
523	-0.011
524	-0.012
524	-0.013
524	-0.014
525	-0.014
525	-0.014
526	-0.013
526	-0.012
527	-0.01
527	-0.008
528	-0.006
528	-0.004
529	-0.003
529	-0.001
529	-0
530	0.001
530	0.001
531	0.002
531	0.002
532	0.002
532	0.002
533	0.002
533	0.002
533	0.002
534	0.002
534	0.002
535	0.002
535	0.002
536	0.002
536	0.002
537	0.002
537	0.003
538	0.003
538	0.002
538	0.002
539	0.002
539	0.002
540	0.002
540	0.001
541	0.001
541	0
542	-0
542	-0
542	-0
543	-0
543	-0
544	-0
544	-0
545	-0.001
545	-0.001
546	-0
546	0
547	0
547	-0.001
547	-0.001
548	-0.002
548	-0.003
549	-0.004
549	-0.004
550	-0.005
550	-0.005
551	-0.006
551	-0.007
551	-0.007
552	-0.008
552	-0.008
553	-0.008
553	-0.007
554	-0.006
554	-0.005
555	-0.005
555	-0.006
556	-0.006
556	-0.007
556	-0.008
557	-0.009
557	-0.009
558	-0.01
558	-0.01
559	-0.011
559	-0.011
560	-0.01
560	-0.01
560	-0.01
561	-0.009
561	-0.008
562	-0.007
562	-0.007
563	-0.007
563	-0.007
564	-0.008
564	-0.009
564	-0.009
565	-0.01
565	-0.01
566	-0.01
566	-0.009
567	-0.009
567	-0.007
568	-0.006
568	-0.004
568	-0.002
569	0.001
569	0.003
570	0.005
570	0.006
571	0.008
571	0.009
572	0.01
572	0.011
573	0.012
573	0.012
573	0.013
574	0.012
574	0.012
575	0.013
575	0.013
576	0.014
576	0.015
577	0.015
577	0.015
577	0.015
578	0.015
578	0.016
579	0.017
579	0.018
580	0.019
580	0.019
581	0.019
581	0.018
581	0.018
582	0.018
582	0.018
583	0.018
583	0.019
584	0.018
584	0.017
585	0.015
585	0.014
585	0.014
586	0.014
586	0.015
587	0.015
587	0.014
588	0.013
588	0.011
589	0.011
589	0.011
590	0.01
590	0.01
590	0.011
591	0.012
591	0.013
592	0.013
592	0.014
593	0.014
593	0.014
594	0.014
594	0.013
594	0.013
595	0.012
595	0.012
596	0.011
596	0.011
597	0.012
597	0.013
598	0.015
598	0.016
598	0.018
599	0.018
599	0.019
600	0.019
600	0.018
601	0.018
601	0.017
602	0.017
602	0.016
602	0.015
603	0.014
603	0.014
604	0.015
604	0.015
605	0.017
605	0.018
606	0.019
606	0.02
606	0.02
607	0.02
607	0.02
608	0.02
608	0.02
609	0.019
609	0.019
610	0.018
610	0.018
610	0.018
611	0.018
611	0.018
612	0.019
612	0.02
613	0.021
613	0.023
614	0.023
614	0.023
614	0.023
615	0.023
615	0.022
616	0.022
616	0.022
617	0.021
617	0.02
618	0.02
618	0.019
618	0.018
619	0.018
619	0.019
620	0.02
620	0.021
621	0.022
621	0.023
622	0.023
622	0.024
622	0.025
623	0.025
623	0.025
624	0.026
624	0.026
625	0.026
625	0.026
626	0.026
626	0.026
626	0.026
627	0.027
627	0.027
628	0.028
628	0.029
629	0.029
629	0.03
630	0.03
630	0.03
630	0.03
631	0.031
631	0.031
632	0.032
632	0.032
633	0.032
633	0.033
634	0.034
634	0.036
634	0.038
635	0.039
635	0.04
636	0.041
636	0.042
637	0.043
637	0.043
638	0.044
638	0.045
638	0.045
639	0.045
639	0.046
640	0.046
640	0.046
641	0.047
641	0.048
642	0.05
642	0.051
642	0.053
643	0.054
643	0.056
644	0.058
644	0.059
645	0.061
645	0.063
646	0.065
646	0.067
646	0.069
647	0.072
647	0.074
648	0.076
648	0.078
649	0.08
649	0.082
650	0.084
650	0.086
650	0.088
651	0.09
651	0.092
652	0.093
652	0.095
653	0.097
653	0.102
653	0.104
654	0.086
654	0.073
655	0.078
655	0.08
656	0.082
656	0.083
657	0.085
657	0.086
657	0.088
658	0.087
658	0.086
659	0.106
659	0.131
660	0.13
660	0.131
661	0.133
661	0.135
661	0.136
662	0.139
662	0.141
663	0.144
663	0.146
664	0.148
664	0.151
665	0.153
665	0.155
665	0.156
666	0.158
666	0.16
667	0.162
667	0.164
668	0.165
668	0.167
669	0.169
669	0.172
669	0.175
670	0.178
670	0.18
671	0.182
671	0.184
672	0.186
672	0.187
672	0.188
673	0.189
673	0.19
674	0.191
674	0.192
675	0.192
675	0.193
676	0.194
676	0.195
676	0.197
677	0.199
677	0.2
678	0.202
678	0.203
679	0.204
679	0.204
680	0.205
680	0.206
680	0.206
681	0.206
681	0.206
682	0.207
682	0.207
683	0.209
683	0.21
684	0.212
684	0.214
684	0.215
685	0.216
685	0.217
686	0.219
686	0.22
687	0.221
687	0.221
687	0.221
688	0.221
688	0.22
689	0.22
689	0.221
690	0.221
690	0.22
691	0.22
691	0.219
691	0.219
692	0.218
692	0.217
693	0.216
693	0.216
694	0.215
694	0.214
695	0.214
695	0.215
695	0.216
696	0.216
696	0.216
697	0.215
697	0.215
698	0.215
698	0.214
698	0.213
699	0.212
699	0.211
700	0.209
700	0.207
701	0.206
701	0.204
702	0.203
702	0.202
702	0.201
703	0.2
703	0.198
704	0.197
704	0.196
705	0.196
705	0.195
705	0.194
706	0.194
706	0.194
707	0.193
707	0.192
708	0.191
708	0.19
709	0.188
709	0.187
709	0.185
710	0.183
710	0.18
711	0.178
711	0.177
712	0.175
712	0.174
713	0.173
713	0.172
713	0.171
714	0.169
714	0.167
715	0.166
715	0.164
716	0.162
716	0.16
716	0.159
717	0.157
717	0.155
718	0.153
718	0.151
719	0.15
719	0.148
720	0.147
720	0.145
720	0.143
721	0.141
721	0.139
722	0.137
722	0.135
723	0.132
723	0.131
723	0.129
724	0.127
724	0.125
725	0.124
725	0.123
726	0.121
726	0.12
727	0.119
727	0.118
727	0.117
728	0.116
728	0.115
729	0.114
729	0.113
730	0.112
730	0.111
730	0.11
731	0.108
731	0.107
732	0.105
732	0.104
733	0.102
733	0.1
734	0.098
734	0.096
734	0.094
735	0.092
735	0.09
736	0.088
736	0.086
737	0.085
737	0.083
737	0.082
738	0.08
738	0.078
739	0.076
739	0.074
740	0.072
740	0.07
741	0.068
741	0.066
741	0.063
742	0.06
742	0.057
743	0.054
743	0.052
744	0.05
744	0.049
744	0.047
745	0.045
745	0.044
746	0.043
746	0.043
747	0.042
747	0.042
748	0.042
748	0.042
748	0.042
749	0.041
749	0.041
750	0.041
750	0.04
751	0.04
751	0.039
751	0.039
752	0.038
752	0.037
753	0.037
753	0.036
754	0.035
754	0.035
754	0.035
755	0.035
755	0.035
756	0.035
756	0.034
757	0.033
757	0.033
758	0.032
758	0.031
758	0.03
759	0.029
759	0.028
760	0.026
760	0.023
761	0.021
761	0.019
761	0.018
762	0.016
762	0.015
763	0.015
763	0.014
764	0.012
764	0.009
764	0.007
765	0.006
765	0.004
766	0.002
766	0.002
767	0.001
767	-0.001
768	-0.004
768	-0.006
768	-0.007
769	-0.008
769	-0.008
770	-0.009
770	-0.01
771	-0.011
771	-0.014
771	-0.017
772	-0.019
772	-0.022
773	-0.024
773	-0.027
774	-0.031
774	-0.035
775	-0.039
775	-0.043
775	-0.047
776	-0.052
776	-0.056
777	-0.061
777	-0.065
778	-0.069
778	-0.074
778	-0.078
779	-0.082
779	-0.084
780	-0.086
780	-0.091
781	-0.094
781	-0.097
781	-0.1
782	-0.103
782	-0.107
783	-0.111
783	-0.113
784	-0.115
784	-0.118
784	-0.12
785	-0.121
785	-0.123
786	-0.123
786	-0.121
787	-0.117
787	-0.113
788	-0.112
788	-0.112
788	-0.113
789	-0.114
789	-0.113
790	-0.11
790	-0.108
791	-0.108
791	-0.109
791	-0.112
792	-0.107
792	-0.097
793	-0.091
793	-0.088
794	-0.087
794	-0.089
794	-0.093
795	-0.096
795	-0.096
796	-0.096
796	-0.099
797	-0.107
797	-0.117
797	-0.123
798	-0.128
798	-0.131
799	-0.131
799	-0.131
800	-0.131
800	-0.133
801	-0.136
801	-0.137
801	-0.138
802	-0.14
802	-0.141
803	-0.142
803	-0.142
804	-0.141
804	-0.136
804	-0.129
805	-0.125
805	-0.123
806	-0.121
806	-0.119
807	-0.118
807	-0.118
807	-0.117
808	-0.117
808	-0.118
809	-0.123
809	-0.128
810	-0.132
810	-0.134
810	-0.137
811	-0.14
811	-0.14
812	-0.135
812	-0.132
813	-0.131
813	-0.131
813	-0.131
814	-0.132
814	-0.131
815	-0.129
815	-0.126
816	-0.124
816	-0.125
817	-0.129
817	-0.133
817	-0.134
818	-0.133
818	-0.13
819	-0.125
819	-0.123
820	-0.124
820	-0.125
820	-0.125
821	-0.123
821	-0.119
822	-0.114
822	-0.109
823	-0.103
823	-0.099
823	-0.097
824	-0.092
824	-0.084
825	-0.075
825	-0.066
826	-0.058
826	-0.051
826	-0.046
827	-0.04
827	-0.035
828	-0.031
828	-0.027
829	-0.024
829	-0.021
829	-0.019
830	-0.018
830	-0.016
831	-0.014
831	-0.013
832	-0.011
832	-0.01
832	-0.009
833	-0.008
833	-0.006
834	-0.005
834	-0.004
835	-0.003
835	-0.002
835	-0.001
836	-0.001
836	-0
837	0
837	0.001
838	0.001
838	0.002
839	0.002
839	0.003
839	0.003
840	0.004
840	0.004
841	0.005
841	0.006
842	0.007
842	0.008
842	0.009
843	0.01
843	0.011
844	0.012
844	0.014
845	0.015
845	0.016
845	0.017
846	0.018
846	0.019
847	0.02
847	0.021
848	0.022
848	0.023
848	0.024
849	0.024
849	0.024
850	0.024
850	0.024
851	0.024
851	0.024
851	0.024
852	0.023
852	0.023
853	0.022
853	0.022
854	0.021
854	0.021
854	0.021
855	0.022
855	0.022
856	0.022
856	0.022
857	0.022
857	0.023
857	0.023
858	0.023
858	0.024
859	0.025
859	0.025
860	0.026
860	0.026
860	0.027
861	0.028
861	0.029
862	0.029
862	0.03
863	0.031
863	0.032
863	0.032
864	0.033
864	0.034
865	0.034
865	0.034
866	0.035
866	0.035
866	0.035
867	0.035
867	0.036
868	0.036
868	0.036
869	0.036
869	0.036
869	0.036
870	0.036
870	0.036
871	0.036
871	0.036
872	0.036
872	0.035
872	0.035
873	0.034
873	0.034
874	0.033
874	0.033
875	0.032
875	0.031
875	0.031
876	0.03
876	0.03
877	0.029
877	0.028
878	0.028
878	0.028
878	0.028
879	0.028
879	0.028
880	0.028
880	0.029
881	0.029
881	0.03
881	0.032
882	0.033
882	0.034
883	0.035
883	0.037
884	0.038
884	0.039
884	0.039
885	0.04
885	0.04
886	0.04
886	0.04
887	0.04
887	0.039
887	0.039
888	0.039
888	0.039
889	0.039
889	0.04
890	0.04
890	0.04
890	0.04
891	0.04
891	0.04
892	0.04
892	0.04
893	0.04
893	0.039
893	0.039
894	0.038
894	0.038
895	0.037
895	0.037
895	0.036
896	0.036
896	0.035
897	0.035
897	0.035
898	0.035
898	0.035
898	0.035
899	0.035
899	0.036
900	0.036
900	0.036
901	0.037
901	0.037
901	0.038
902	0.038
902	0.038
903	0.039
903	0.039
904	0.04
904	0.04
904	0.041
905	0.041
905	0.041
906	0.041
906	0.042
907	0.042
907	0.042
907	0.042
908	0.042
908	0.042
909	0.042
909	0.042
910	0.042
910	0.043
910	0.043
911	0.044
911	0.044
912	0.045
912	0.045
913	0.045
913	0.045
913	0.045
914	0.045
914	0.045
915	0.045
915	0.045
916	0.045
916	0.044
916	0.044
917	0.044
917	0.044
918	0.043
918	0.043
918	0.043
919	0.043
919	0.043
920	0.044
920	0.044
921	0.044
921	0.043
921	0.043
922	0.043
922	0.043
923	0.042
923	0.042
924	0.041
924	0.041
924	0.041
925	0.04
925	0.04
926	0.04
926	0.04
927	0.04
927	0.04
927	0.04
928	0.04
928	0.04
929	0.041
929	0.041
930	0.041
930	0.041
930	0.042
931	0.042
931	0.042
932	0.042
932	0.042
933	0.042
933	0.042
933	0.042
934	0.042
934	0.042
935	0.043
935	0.043
935	0.044
936	0.044
936	0.045
937	0.046
937	0.047
938	0.047
938	0.048
938	0.049
939	0.05
939	0.051
940	0.052
940	0.053
941	0.054
941	0.055
941	0.056
942	0.057
942	0.058
943	0.059
943	0.059
944	0.059
944	0.059
944	0.059
945	0.059
945	0.059
946	0.058
946	0.057
946	0.057
947	0.056
947	0.055
948	0.054
948	0.053
949	0.052
949	0.052
949	0.051
950	0.05
950	0.049
951	0.049
951	0.049
952	0.049
952	0.049
952	0.05
953	0.05
953	0.05
954	0.05
954	0.051
955	0.051
955	0.051
955	0.051
956	0.051
956	0.051
957	0.05
957	0.05
957	0.049
958	0.048
958	0.048
959	0.047
959	0.047
960	0.047
960	0.047
960	0.047
961	0.047
961	0.047
962	0.047
962	0.047
963	0.048
963	0.049
963	0.049
964	0.049
964	0.05
965	0.05
965	0.051
966	0.051
966	0.052
966	0.052
967	0.052
967	0.052
968	0.052
968	0.052
968	0.052
969	0.052
969	0.052
970	0.052
970	0.052
971	0.052
971	0.052
971	0.052
972	0.052
972	0.052
973	0.052
973	0.052
974	0.051
974	0.051
974	0.051
975	0.05
975	0.05
976	0.049
976	0.048
976	0.047
977	0.046
977	0.045
978	0.044
978	0.043
979	0.043
979	0.042
979	0.042
980	0.042
980	0.042
981	0.043
981	0.044
982	0.044
982	0.045
982	0.046
983	0.047
983	0.048
984	0.049
984	0.05
984	0.051
985	0.051
985	0.052
986	0.052
986	0.052
987	0.052
987	0.052
987	0.053
988	0.053
988	0.052
989	0.052
989	0.052
990	0.052
990	0.051
990	0.051
991	0.05
991	0.05
992	0.049
992	0.049
992	0.048
993	0.047
993	0.046
994	0.045
994	0.045
995	0.044
995	0.043
995	0.043
996	0.043
996	0.042
997	0.042
997	0.042
997	0.043
998	0.043
998	0.044
999	0.045
999	0.045
1000	0.046
1000	0.046
1000	0.046
1001	0.046
1001	0.047
1002	0.047
1002	0.047
1003	0.047
1003	0.047
1003	0.046
1004	0.046
1004	0.046
1005	0.046
1005	0.046
1005	0.046
1006	0.046
1006	0.047
1007	0.047
1007	0.047
1008	0.048
1008	0.049
1008	0.05
1009	0.05
1009	0.051
1010	0.052
1010	0.052
1010	0.053
1011	0.053
1011	0.054
1012	0.054
1012	0.054
1013	0.055
1013	0.055
1013	0.055
1014	0.055
1014	0.054
1015	0.054
1015	0.054
1016	0.054
1016	0.054
1016	0.054
1017	0.053
1017	0.053
1018	0.053
1018	0.053
1018	0.053
1019	0.053
1019	0.054
1020	0.054
1020	0.054
1021	0.054
1021	0.054
1021	0.053
1022	0.053
1022	0.053
1023	0.053
1023	0.052
1023	0.052
1024	0.051
1024	0.051
1025	0.05
1025	0.05
1026	0.05
1026	0.05
1026	0.049
1027	0.049
1027	0.049
1028	0.049
1028	0.05
1028	0.05
1029	0.051
1029	0.051
1030	0.051
1030	0.052
1031	0.052
1031	0.053
1031	0.054
1032	0.054
1032	0.055
1033	0.055
1033	0.056
1033	0.056
1034	0.056
1034	0.057
1035	0.058
1035	0.058
1036	0.059
1036	0.06
1036	0.06
1037	0.061
1037	0.062
1038	0.062
1038	0.063
1039	0.064
1039	0.064
1039	0.064
1040	0.064
1040	0.064
1041	0.064
1041	0.064
1041	0.063
1042	0.063
1042	0.063
1043	0.063
1043	0.063
1044	0.063
1044	0.063
1044	0.063
1045	0.063
1045	0.064
1046	0.065
1046	0.065
1046	0.066
1047	0.067
1047	0.068
1048	0.069
1048	0.069
1049	0.07
1049	0.071
1049	0.071
1050	0.072
1050	0.073
1051	0.074
1051	0.075
1051	0.076
1052	0.078
1052	0.079
1053	0.081
1053	0.082
1053	0.083
1054	0.085
1054	0.086
1055	0.088
1055	0.089
1056	0.089
1056	0.09
1056	0.09
1057	0.091
1057	0.092
1058	0.093
1058	0.094
1058	0.095
1059	0.096
1059	0.096
1060	0.097
1060	0.098
1061	0.098
1061	0.098
1061	0.098
1062	0.098
1062	0.098
1063	0.098
1063	0.098
1063	0.098
1064	0.098
1064	0.098
1065	0.099
1065	0.099
1066	0.1
1066	0.101
1066	0.101
1067	0.102
1067	0.103
1068	0.104
1068	0.105
1068	0.105
1069	0.106
1069	0.107
1070	0.108
1070	0.109
1071	0.111
1071	0.112
1071	0.113
1072	0.115
1072	0.117
1073	0.118
1073	0.12
1073	0.122
1074	0.124
1074	0.125
1075	0.127
1075	0.129
1076	0.132
1076	0.134
1076	0.136
1077	0.139
1077	0.142
1078	0.144
1078	0.147
1078	0.15
1079	0.152
1079	0.155
1080	0.158
1080	0.16
1080	0.163
1081	0.165
1081	0.168
1082	0.171
1082	0.174
1083	0.177
1083	0.181
1083	0.186
1084	0.19
1084	0.194
1085	0.199
1085	0.204
1085	0.209
1086	0.214
1086	0.218
1087	0.223
1087	0.228
1088	0.234
1088	0.24
1088	0.246
1089	0.254
1089	0.261
1090	0.27
1090	0.279
1090	0.288
1091	0.3
1091	0.312
1092	0.324
1092	0.336
1092	0.349
1093	0.363
1093	0.379
1094	0.395
1094	0.414
1095	0.436
1095	0.46
1095	0.486
1096	0.516
1096	0.553
1097	0.591
1097	0.634
1097	0.684
1098	0.746
1098	0.819
1099	0.912
1099	1.038
1100	1.225
1100	1.607
1100	-0
1101	-0
1101	-0
1102	-0
1102	-0
1102	-0
1103	-0
1103	-0
1104	-0
1104	-0
1104	-0
1105	-0
1105	-0
1106	-0
1106	-0
1107	-0
1107	-0
1107	-0
1108	-0
1108	-0
1109	-0
1109	-0
1109	-0
1110	-0
1110	-0
1111	-0
1111	-0
