Data from 17c-ppt-2-5a_Absorbance__91__00091.txt Node

Date: Mon Jan 15 09:21:51 CET 2024
User: Marek
Spectrometer: MAYP115816
Trigger mode: 0
Integration Time (sec): 2.000000E-1
Scans to average: 10
Electric dark correction enabled: true
Nonlinearity correction enabled: true
Boxcar width: 5
XAxis mode: Wavelengths
Number of Pixels in Spectrum: 2068
>>>>>Begin Spectral Data<<<<<
199	-2.069
199	-1.935
200	-1.789
200	-1.676
201	-1.601
201	-1.55
202	-1.476
202	-1.418
203	-1.365
203	-1.322
204	-1.292
204	-1.269
205	-1.248
205	-1.239
205	-1.236
206	-1.234
206	-1.232
207	-1.228
207	-1.224
208	-1.222
208	-1.216
209	-1.215
209	-1.213
210	-1.212
210	-1.21
211	-1.208
211	-1.206
212	-1.202
212	-1.203
213	-1.202
213	-1.2
213	-1.2
214	-1.199
214	-1.2
215	-1.199
215	-1.199
216	-1.197
216	-1.196
217	-1.196
217	-1.195
218	-1.194
218	-1.19
219	-1.188
219	-1.186
220	-1.181
220	-1.177
221	-1.172
221	-1.167
221	-1.162
222	-1.158
222	-1.152
223	-1.145
223	-1.14
224	-1.134
224	-1.126
225	-1.118
225	-1.107
226	-1.098
226	-1.087
227	-1.072
227	-1.055
228	-1.036
228	-1.017
229	-0.993
229	-0.966
229	-0.938
230	-0.907
230	-0.875
231	-0.837
231	-0.8
232	-0.762
232	-0.721
233	-0.679
233	-0.636
234	-0.593
234	-0.551
235	-0.509
235	-0.468
236	-0.428
236	-0.389
236	-0.353
237	-0.318
237	-0.286
238	-0.255
238	-0.227
239	-0.202
239	-0.178
240	-0.156
240	-0.136
241	-0.118
241	-0.101
242	-0.086
242	-0.072
243	-0.059
243	-0.047
243	-0.037
244	-0.027
244	-0.018
245	-0.01
245	-0.002
246	0.005
246	0.011
247	0.016
247	0.021
248	0.026
248	0.031
249	0.035
249	0.038
250	0.042
250	0.045
250	0.048
251	0.051
251	0.054
252	0.057
252	0.059
253	0.061
253	0.063
254	0.065
254	0.067
255	0.068
255	0.07
256	0.071
256	0.072
257	0.073
257	0.074
258	0.075
258	0.076
258	0.077
259	0.078
259	0.078
260	0.079
260	0.079
261	0.08
261	0.08
262	0.08
262	0.08
263	0.081
263	0.081
264	0.081
264	0.081
265	0.081
265	0.081
265	0.081
266	0.081
266	0.081
267	0.081
267	0.081
268	0.081
268	0.08
269	0.08
269	0.079
270	0.079
270	0.079
271	0.079
271	0.078
272	0.078
272	0.078
272	0.078
273	0.077
273	0.077
274	0.076
274	0.076
275	0.075
275	0.075
276	0.074
276	0.074
277	0.073
277	0.073
278	0.072
278	0.071
278	0.071
279	0.07
279	0.07
280	0.07
280	0.07
281	0.07
281	0.07
282	0.07
282	0.07
283	0.07
283	0.07
284	0.07
284	0.07
285	0.07
285	0.069
285	0.069
286	0.069
286	0.069
287	0.069
287	0.068
288	0.068
288	0.068
289	0.068
289	0.068
290	0.068
290	0.067
291	0.067
291	0.067
292	0.067
292	0.067
292	0.067
293	0.066
293	0.066
294	0.066
294	0.066
295	0.066
295	0.066
296	0.066
296	0.066
297	0.065
297	0.065
298	0.065
298	0.065
298	0.065
299	0.065
299	0.064
300	0.064
300	0.064
301	0.064
301	0.064
302	0.064
302	0.064
303	0.063
303	0.063
304	0.063
304	0.063
305	0.063
305	0.062
305	0.062
306	0.062
306	0.062
307	0.061
307	0.061
308	0.061
308	0.061
309	0.061
309	0.06
310	0.06
310	0.06
311	0.06
311	0.059
311	0.059
312	0.059
312	0.059
313	0.058
313	0.058
314	0.058
314	0.057
315	0.057
315	0.057
316	0.056
316	0.056
317	0.056
317	0.055
318	0.055
318	0.055
318	0.055
319	0.054
319	0.054
320	0.053
320	0.053
321	0.052
321	0.052
322	0.051
322	0.051
323	0.051
323	0.05
324	0.05
324	0.05
324	0.049
325	0.049
325	0.049
326	0.048
326	0.048
327	0.048
327	0.047
328	0.047
328	0.047
329	0.046
329	0.046
330	0.046
330	0.045
330	0.045
331	0.045
331	0.044
332	0.044
332	0.043
333	0.043
333	0.042
334	0.042
334	0.042
335	0.042
335	0.041
336	0.041
336	0.04
336	0.04
337	0.039
337	0.039
338	0.039
338	0.038
339	0.038
339	0.038
340	0.037
340	0.037
341	0.037
341	0.036
342	0.036
342	0.036
342	0.035
343	0.035
343	0.034
344	0.034
344	0.034
345	0.033
345	0.033
346	0.032
346	0.032
347	0.032
347	0.031
348	0.031
348	0.031
348	0.03
349	0.03
349	0.029
350	0.029
350	0.029
351	0.028
351	0.028
352	0.027
352	0.027
353	0.026
353	0.026
354	0.025
354	0.025
354	0.024
355	0.023
355	0.023
356	0.023
356	0.022
357	0.022
357	0.022
358	0.022
358	0.022
359	0.023
359	0.023
360	0.024
360	0.024
360	0.024
361	0.024
361	0.025
362	0.025
362	0.025
363	0.024
363	0.024
364	0.024
364	0.024
365	0.023
365	0.023
366	0.023
366	0.023
366	0.022
367	0.022
367	0.022
368	0.022
368	0.022
369	0.022
369	0.021
370	0.021
370	0.021
371	0.021
371	0.021
372	0.021
372	0.02
372	0.02
373	0.02
373	0.02
374	0.02
374	0.021
375	0.02
375	0.021
376	0.021
376	0.021
377	0.021
377	0.021
378	0.021
378	0.021
378	0.021
379	0.021
379	0.022
380	0.022
380	0.022
381	0.022
381	0.022
382	0.022
382	0.021
383	0.021
383	0.021
383	0.021
384	0.021
384	0.021
385	0.02
385	0.02
386	0.02
386	0.02
387	0.02
387	0.02
388	0.02
388	0.02
389	0.02
389	0.02
389	0.021
390	0.021
390	0.021
391	0.021
391	0.022
392	0.022
392	0.022
393	0.022
393	0.022
394	0.022
394	0.022
394	0.022
395	0.021
395	0.021
396	0.021
396	0.021
397	0.021
397	0.021
398	0.022
398	0.022
399	0.022
399	0.022
400	0.022
400	0.022
400	0.022
401	0.021
401	0.021
402	0.02
402	0.019
403	0.019
403	0.019
404	0.019
404	0.019
405	0.019
405	0.019
405	0.019
406	0.019
406	0.019
407	0.019
407	0.019
408	0.019
408	0.018
409	0.018
409	0.017
410	0.017
410	0.017
411	0.017
411	0.017
411	0.017
412	0.017
412	0.017
413	0.017
413	0.017
414	0.017
414	0.017
415	0.017
415	0.016
416	0.016
416	0.016
416	0.015
417	0.015
417	0.015
418	0.015
418	0.015
419	0.016
419	0.016
420	0.016
420	0.017
421	0.017
421	0.018
421	0.018
422	0.018
422	0.018
423	0.019
423	0.018
424	0.018
424	0.018
425	0.017
425	0.017
426	0.016
426	0.016
427	0.016
427	0.016
427	0.016
428	0.017
428	0.017
429	0.018
429	0.018
430	0.018
430	0.018
431	0.018
431	0.018
432	0.018
432	0.017
432	0.017
433	0.016
433	0.015
434	0.015
434	0.014
435	0.014
435	0.014
436	0.014
436	0.014
437	0.014
437	0.014
437	0.014
438	0.014
438	0.014
439	0.014
439	0.014
440	0.014
440	0.014
441	0.014
441	0.014
442	0.014
442	0.015
442	0.015
443	0.015
443	0.016
444	0.016
444	0.016
445	0.016
445	0.016
446	0.016
446	0.016
447	0.016
447	0.016
447	0.016
448	0.015
448	0.015
449	0.015
449	0.015
450	0.015
450	0.014
451	0.014
451	0.014
452	0.013
452	0.013
452	0.013
453	0.012
453	0.012
454	0.011
454	0.011
455	0.011
455	0.011
456	0.011
456	0.01
457	0.01
457	0.01
458	0.01
458	0.01
458	0.011
459	0.011
459	0.011
460	0.011
460	0.01
461	0.01
461	0.009
462	0.009
462	0.009
463	0.009
463	0.009
463	0.01
464	0.01
464	0.01
465	0.01
465	0.01
466	0.009
466	0.009
467	0.009
467	0.009
467	0.008
468	0.006
468	0.005
469	0.004
469	0.003
470	0.002
470	0.001
471	0.001
471	0.001
472	0.001
472	0.001
472	0.001
473	0.002
473	0.002
474	0.003
474	0.004
475	0.004
475	0.004
476	0.004
476	0.004
477	0.004
477	0.004
477	0.004
478	0.003
478	0.003
479	0.003
479	0.003
480	0.003
480	0.003
481	0.004
481	0.004
482	0.004
482	0.005
482	0.006
483	0.007
483	0.009
484	0.01
484	0.012
485	0.013
485	0.014
486	0.014
486	0.015
487	0.015
487	0.015
487	0.015
488	0.014
488	0.013
489	0.012
489	0.01
490	0.009
490	0.008
491	0.008
491	0.007
492	0.007
492	0.007
492	0.007
493	0.007
493	0.008
494	0.009
494	0.01
495	0.011
495	0.012
496	0.012
496	0.012
496	0.012
497	0.012
497	0.012
498	0.012
498	0.012
499	0.011
499	0.011
500	0.01
500	0.01
501	0.011
501	0.011
501	0.012
502	0.013
502	0.013
503	0.014
503	0.014
504	0.014
504	0.014
505	0.014
505	0.014
506	0.014
506	0.013
506	0.013
507	0.012
507	0.012
508	0.012
508	0.012
509	0.012
509	0.011
510	0.011
510	0.011
511	0.011
511	0.011
511	0.01
512	0.01
512	0.009
513	0.008
513	0.007
514	0.006
514	0.005
515	0.005
515	0.004
515	0.003
516	0.002
516	0.001
517	0.001
517	0
518	0.001
518	0.001
519	0
519	-0
520	-0.001
520	-0.002
520	-0.003
521	-0.004
521	-0.005
522	-0.007
522	-0.009
523	-0.011
523	-0.013
524	-0.014
524	-0.016
524	-0.016
525	-0.017
525	-0.016
526	-0.015
526	-0.014
527	-0.012
527	-0.01
528	-0.007
528	-0.005
529	-0.004
529	-0.002
529	-0.001
530	-0
530	0
531	0.001
531	0.001
532	0.001
532	0.001
533	0.001
533	0.001
533	0.001
534	0.001
534	0.001
535	0
535	0
536	0.001
536	0.001
537	0.001
537	0.001
538	0.001
538	0
538	-0
539	-0
539	-0
540	-0
540	-0
541	-0.001
541	-0.002
542	-0.002
542	-0.002
542	-0.003
543	-0.002
543	-0.002
544	-0.002
544	-0.003
545	-0.003
545	-0.003
546	-0.002
546	-0.002
547	-0.002
547	-0.002
547	-0.003
548	-0.004
548	-0.005
549	-0.006
549	-0.006
550	-0.007
550	-0.008
551	-0.008
551	-0.009
551	-0.009
552	-0.009
552	-0.009
553	-0.009
553	-0.008
554	-0.008
554	-0.007
555	-0.007
555	-0.007
556	-0.008
556	-0.009
556	-0.01
557	-0.011
557	-0.012
558	-0.012
558	-0.013
559	-0.013
559	-0.013
560	-0.012
560	-0.012
560	-0.011
561	-0.011
561	-0.01
562	-0.009
562	-0.009
563	-0.009
563	-0.009
564	-0.01
564	-0.01
564	-0.011
565	-0.012
565	-0.012
566	-0.012
566	-0.011
567	-0.01
567	-0.009
568	-0.007
568	-0.006
568	-0.004
569	-0.001
569	0.001
570	0.003
570	0.005
571	0.006
571	0.007
572	0.009
572	0.01
573	0.01
573	0.011
573	0.011
574	0.011
574	0.011
575	0.012
575	0.012
576	0.013
576	0.014
577	0.014
577	0.014
577	0.014
578	0.014
578	0.014
579	0.015
579	0.017
580	0.018
580	0.018
581	0.018
581	0.017
581	0.017
582	0.016
582	0.017
583	0.017
583	0.017
584	0.017
584	0.015
585	0.014
585	0.013
585	0.012
586	0.013
586	0.013
587	0.013
587	0.012
588	0.011
588	0.01
589	0.009
589	0.009
590	0.008
590	0.009
590	0.009
591	0.01
591	0.011
592	0.012
592	0.012
593	0.012
593	0.012
594	0.012
594	0.011
594	0.011
595	0.011
595	0.01
596	0.01
596	0.01
597	0.011
597	0.012
598	0.014
598	0.015
598	0.017
599	0.017
599	0.018
600	0.018
600	0.017
601	0.017
601	0.016
602	0.015
602	0.015
602	0.013
603	0.013
603	0.012
604	0.013
604	0.014
605	0.015
605	0.017
606	0.018
606	0.018
606	0.018
607	0.018
607	0.018
608	0.018
608	0.018
609	0.017
609	0.017
610	0.016
610	0.016
610	0.015
611	0.016
611	0.016
612	0.017
612	0.018
613	0.02
613	0.021
614	0.022
614	0.022
614	0.021
615	0.021
615	0.021
616	0.021
616	0.02
617	0.02
617	0.019
618	0.018
618	0.017
618	0.017
619	0.017
619	0.017
620	0.018
620	0.02
621	0.021
621	0.021
622	0.022
622	0.023
622	0.023
623	0.024
623	0.024
624	0.025
624	0.025
625	0.025
625	0.025
626	0.025
626	0.026
626	0.026
627	0.026
627	0.027
628	0.027
628	0.028
629	0.028
629	0.029
630	0.029
630	0.029
630	0.029
631	0.03
631	0.03
632	0.031
632	0.031
633	0.032
633	0.032
634	0.033
634	0.035
634	0.037
635	0.038
635	0.039
636	0.041
636	0.041
637	0.042
637	0.043
638	0.044
638	0.044
638	0.045
639	0.045
639	0.045
640	0.046
640	0.046
641	0.047
641	0.048
642	0.05
642	0.051
642	0.053
643	0.055
643	0.056
644	0.058
644	0.059
645	0.061
645	0.063
646	0.065
646	0.067
646	0.07
647	0.072
647	0.075
648	0.077
648	0.079
649	0.081
649	0.083
650	0.086
650	0.088
650	0.09
651	0.092
651	0.094
652	0.095
652	0.097
653	0.099
653	0.104
653	0.107
654	0.089
654	0.075
655	0.081
655	0.083
656	0.084
656	0.086
657	0.087
657	0.089
657	0.09
658	0.089
658	0.088
659	0.108
659	0.134
660	0.133
660	0.135
661	0.136
661	0.138
661	0.14
662	0.143
662	0.145
663	0.148
663	0.15
664	0.153
664	0.155
665	0.157
665	0.159
665	0.161
666	0.162
666	0.164
667	0.166
667	0.167
668	0.169
668	0.171
669	0.173
669	0.176
669	0.179
670	0.182
670	0.185
671	0.188
671	0.19
672	0.191
672	0.192
672	0.194
673	0.195
673	0.196
674	0.197
674	0.198
675	0.198
675	0.199
676	0.2
676	0.202
676	0.203
677	0.204
677	0.206
678	0.208
678	0.209
679	0.21
679	0.211
680	0.211
680	0.212
680	0.212
681	0.212
681	0.212
682	0.213
682	0.214
683	0.215
683	0.217
684	0.219
684	0.22
684	0.221
685	0.223
685	0.224
686	0.226
686	0.227
687	0.228
687	0.228
687	0.228
688	0.227
688	0.227
689	0.227
689	0.227
690	0.227
690	0.226
691	0.226
691	0.225
691	0.224
692	0.224
692	0.223
693	0.222
693	0.222
694	0.221
694	0.22
695	0.22
695	0.221
695	0.222
696	0.222
696	0.222
697	0.222
697	0.222
698	0.222
698	0.221
698	0.22
699	0.219
699	0.218
700	0.216
700	0.214
701	0.212
701	0.211
702	0.21
702	0.208
702	0.207
703	0.206
703	0.204
704	0.203
704	0.202
705	0.201
705	0.2
705	0.2
706	0.199
706	0.198
707	0.198
707	0.196
708	0.195
708	0.194
709	0.193
709	0.192
709	0.19
710	0.187
710	0.185
711	0.183
711	0.181
712	0.18
712	0.178
713	0.177
713	0.176
713	0.175
714	0.173
714	0.171
715	0.17
715	0.168
716	0.166
716	0.164
716	0.162
717	0.16
717	0.159
718	0.157
718	0.154
719	0.153
719	0.151
720	0.15
720	0.148
720	0.146
721	0.144
721	0.141
722	0.139
722	0.137
723	0.135
723	0.133
723	0.131
724	0.129
724	0.128
725	0.126
725	0.125
726	0.123
726	0.122
727	0.121
727	0.119
727	0.118
728	0.117
728	0.116
729	0.115
729	0.114
730	0.113
730	0.112
730	0.111
731	0.11
731	0.109
732	0.107
732	0.105
733	0.104
733	0.102
734	0.1
734	0.097
734	0.096
735	0.094
735	0.092
736	0.09
736	0.087
737	0.086
737	0.084
737	0.083
738	0.081
738	0.079
739	0.077
739	0.074
740	0.072
740	0.07
741	0.068
741	0.065
741	0.062
742	0.059
742	0.055
743	0.053
743	0.051
744	0.049
744	0.047
744	0.045
745	0.044
745	0.042
746	0.041
746	0.041
747	0.041
747	0.041
748	0.04
748	0.04
748	0.04
749	0.04
749	0.039
750	0.039
750	0.039
751	0.038
751	0.038
751	0.038
752	0.037
752	0.036
753	0.036
753	0.035
754	0.034
754	0.033
754	0.033
755	0.033
755	0.034
756	0.034
756	0.033
757	0.032
757	0.031
758	0.03
758	0.029
758	0.028
759	0.028
759	0.026
760	0.024
760	0.021
761	0.019
761	0.017
761	0.016
762	0.014
762	0.013
763	0.013
763	0.011
764	0.009
764	0.007
764	0.005
765	0.003
765	0.001
766	-0.001
766	-0.002
767	-0.003
767	-0.004
768	-0.007
768	-0.009
768	-0.011
769	-0.011
769	-0.012
770	-0.012
770	-0.013
771	-0.015
771	-0.017
771	-0.02
772	-0.023
772	-0.026
773	-0.028
773	-0.031
774	-0.035
774	-0.039
775	-0.043
775	-0.047
775	-0.051
776	-0.056
776	-0.06
777	-0.065
777	-0.069
778	-0.073
778	-0.078
778	-0.082
779	-0.086
779	-0.087
780	-0.089
780	-0.093
781	-0.096
781	-0.099
781	-0.101
782	-0.104
782	-0.108
783	-0.111
783	-0.113
784	-0.114
784	-0.117
784	-0.119
785	-0.121
785	-0.123
786	-0.123
786	-0.121
787	-0.116
787	-0.112
788	-0.111
788	-0.112
788	-0.112
789	-0.114
789	-0.113
790	-0.109
790	-0.107
791	-0.108
791	-0.109
791	-0.111
792	-0.106
792	-0.096
793	-0.091
793	-0.088
794	-0.086
794	-0.089
794	-0.093
795	-0.095
795	-0.095
796	-0.096
796	-0.098
797	-0.106
797	-0.116
797	-0.122
798	-0.127
798	-0.13
799	-0.131
799	-0.13
800	-0.13
800	-0.132
801	-0.136
801	-0.137
801	-0.138
802	-0.139
802	-0.141
803	-0.141
803	-0.142
804	-0.14
804	-0.136
804	-0.129
805	-0.125
805	-0.123
806	-0.12
806	-0.119
807	-0.118
807	-0.117
807	-0.117
808	-0.117
808	-0.118
809	-0.122
809	-0.128
810	-0.131
810	-0.134
810	-0.137
811	-0.139
811	-0.139
812	-0.135
812	-0.131
813	-0.131
813	-0.131
813	-0.131
814	-0.131
814	-0.131
815	-0.128
815	-0.126
816	-0.124
816	-0.124
817	-0.129
817	-0.132
817	-0.133
818	-0.133
818	-0.13
819	-0.125
819	-0.122
820	-0.124
820	-0.126
820	-0.126
821	-0.124
821	-0.121
822	-0.117
822	-0.112
823	-0.107
823	-0.104
823	-0.102
824	-0.098
824	-0.09
825	-0.081
825	-0.072
826	-0.063
826	-0.057
826	-0.051
827	-0.045
827	-0.039
828	-0.035
828	-0.031
829	-0.027
829	-0.024
829	-0.022
830	-0.02
830	-0.019
831	-0.017
831	-0.015
832	-0.013
832	-0.012
832	-0.011
833	-0.009
833	-0.008
834	-0.007
834	-0.005
835	-0.004
835	-0.004
835	-0.003
836	-0.002
836	-0.002
837	-0.001
837	-0.001
838	-0.001
838	-0
839	0
839	0.001
839	0.001
840	0.001
840	0.002
841	0.003
841	0.004
842	0.005
842	0.006
842	0.007
843	0.008
843	0.01
844	0.011
844	0.012
845	0.013
845	0.015
845	0.016
846	0.017
846	0.018
847	0.019
847	0.02
848	0.021
848	0.022
848	0.023
849	0.023
849	0.023
850	0.023
850	0.023
851	0.023
851	0.022
851	0.022
852	0.021
852	0.021
853	0.02
853	0.02
854	0.02
854	0.02
854	0.02
855	0.02
855	0.02
856	0.02
856	0.021
857	0.021
857	0.021
857	0.022
858	0.022
858	0.023
859	0.024
859	0.025
860	0.025
860	0.026
860	0.027
861	0.028
861	0.029
862	0.029
862	0.03
863	0.031
863	0.031
863	0.032
864	0.032
864	0.032
865	0.033
865	0.033
866	0.033
866	0.034
866	0.034
867	0.034
867	0.035
868	0.035
868	0.035
869	0.035
869	0.035
869	0.035
870	0.035
870	0.034
871	0.034
871	0.034
872	0.033
872	0.033
872	0.033
873	0.032
873	0.032
874	0.031
874	0.031
875	0.03
875	0.03
875	0.029
876	0.028
876	0.028
877	0.027
877	0.026
878	0.026
878	0.026
878	0.026
879	0.026
879	0.026
880	0.026
880	0.027
881	0.027
881	0.029
881	0.03
882	0.031
882	0.033
883	0.034
883	0.035
884	0.036
884	0.037
884	0.037
885	0.038
885	0.039
886	0.039
886	0.039
887	0.039
887	0.039
887	0.038
888	0.038
888	0.038
889	0.038
889	0.039
890	0.039
890	0.039
890	0.039
891	0.039
891	0.039
892	0.039
892	0.039
893	0.038
893	0.038
893	0.037
894	0.037
894	0.036
895	0.035
895	0.035
895	0.034
896	0.034
896	0.033
897	0.033
897	0.033
898	0.033
898	0.034
898	0.034
899	0.034
899	0.035
900	0.035
900	0.036
901	0.036
901	0.037
901	0.037
902	0.038
902	0.038
903	0.039
903	0.039
904	0.039
904	0.04
904	0.04
905	0.04
905	0.04
906	0.04
906	0.041
907	0.041
907	0.041
907	0.041
908	0.041
908	0.042
909	0.042
909	0.042
910	0.042
910	0.043
910	0.043
911	0.043
911	0.044
912	0.044
912	0.044
913	0.044
913	0.044
913	0.044
914	0.044
914	0.044
915	0.044
915	0.043
916	0.043
916	0.043
916	0.042
917	0.042
917	0.042
918	0.041
918	0.041
918	0.041
919	0.041
919	0.042
920	0.042
920	0.042
921	0.042
921	0.042
921	0.042
922	0.041
922	0.041
923	0.041
923	0.041
924	0.04
924	0.04
924	0.04
925	0.039
925	0.039
926	0.039
926	0.039
927	0.039
927	0.039
927	0.04
928	0.04
928	0.04
929	0.04
929	0.04
930	0.04
930	0.041
930	0.041
931	0.041
931	0.041
932	0.04
932	0.041
933	0.041
933	0.041
933	0.041
934	0.042
934	0.042
935	0.042
935	0.043
935	0.043
936	0.044
936	0.045
937	0.046
937	0.047
938	0.047
938	0.048
938	0.049
939	0.05
939	0.051
940	0.052
940	0.053
941	0.054
941	0.055
941	0.056
942	0.057
942	0.058
943	0.058
943	0.059
944	0.059
944	0.059
944	0.059
945	0.058
945	0.058
946	0.058
946	0.057
946	0.056
947	0.055
947	0.054
948	0.053
948	0.053
949	0.052
949	0.051
949	0.05
950	0.049
950	0.049
951	0.049
951	0.048
952	0.048
952	0.049
952	0.049
953	0.05
953	0.05
954	0.051
954	0.051
955	0.052
955	0.052
955	0.052
956	0.053
956	0.053
957	0.052
957	0.052
957	0.051
958	0.051
958	0.05
959	0.05
959	0.049
960	0.049
960	0.049
960	0.048
961	0.048
961	0.048
962	0.047
962	0.048
963	0.048
963	0.048
963	0.048
964	0.049
964	0.049
965	0.05
965	0.05
966	0.051
966	0.051
966	0.052
967	0.053
967	0.053
968	0.053
968	0.053
968	0.054
969	0.054
969	0.054
970	0.054
970	0.054
971	0.053
971	0.053
971	0.053
972	0.054
972	0.054
973	0.054
973	0.054
974	0.053
974	0.053
974	0.053
975	0.052
975	0.051
976	0.05
976	0.049
976	0.048
977	0.047
977	0.046
978	0.045
978	0.044
979	0.043
979	0.042
979	0.042
980	0.042
980	0.042
981	0.043
981	0.043
982	0.044
982	0.044
982	0.045
983	0.046
983	0.047
984	0.048
984	0.049
984	0.05
985	0.05
985	0.051
986	0.051
986	0.051
987	0.051
987	0.051
987	0.051
988	0.051
988	0.051
989	0.051
989	0.051
990	0.05
990	0.05
990	0.05
991	0.049
991	0.049
992	0.049
992	0.048
992	0.047
993	0.047
993	0.046
994	0.045
994	0.044
995	0.044
995	0.043
995	0.043
996	0.042
996	0.042
997	0.042
997	0.042
997	0.043
998	0.043
998	0.044
999	0.044
999	0.045
1000	0.045
1000	0.046
1000	0.046
1001	0.046
1001	0.046
1002	0.047
1002	0.047
1003	0.047
1003	0.047
1003	0.046
1004	0.046
1004	0.046
1005	0.046
1005	0.046
1005	0.046
1006	0.046
1006	0.046
1007	0.047
1007	0.047
1008	0.048
1008	0.048
1008	0.049
1009	0.05
1009	0.051
1010	0.051
1010	0.052
1010	0.053
1011	0.053
1011	0.053
1012	0.054
1012	0.054
1013	0.054
1013	0.054
1013	0.054
1014	0.054
1014	0.053
1015	0.053
1015	0.053
1016	0.052
1016	0.052
1016	0.052
1017	0.052
1017	0.052
1018	0.051
1018	0.051
1018	0.051
1019	0.052
1019	0.052
1020	0.052
1020	0.052
1021	0.052
1021	0.053
1021	0.052
1022	0.052
1022	0.052
1023	0.052
1023	0.051
1023	0.051
1024	0.05
1024	0.05
1025	0.049
1025	0.049
1026	0.049
1026	0.049
1026	0.049
1027	0.048
1027	0.049
1028	0.049
1028	0.049
1028	0.049
1029	0.05
1029	0.05
1030	0.05
1030	0.051
1031	0.051
1031	0.052
1031	0.052
1032	0.053
1032	0.053
1033	0.054
1033	0.054
1033	0.054
1034	0.054
1034	0.055
1035	0.055
1035	0.056
1036	0.056
1036	0.057
1036	0.058
1037	0.058
1037	0.059
1038	0.059
1038	0.06
1039	0.06
1039	0.061
1039	0.061
1040	0.061
1040	0.061
1041	0.061
1041	0.061
1041	0.06
1042	0.06
1042	0.06
1043	0.06
1043	0.06
1044	0.06
1044	0.06
1044	0.061
1045	0.061
1045	0.062
1046	0.063
1046	0.064
1046	0.064
1047	0.065
1047	0.066
1048	0.067
1048	0.068
1049	0.069
1049	0.07
1049	0.071
1050	0.072
1050	0.072
1051	0.073
1051	0.074
1051	0.076
1052	0.077
1052	0.078
1053	0.08
1053	0.081
1053	0.083
1054	0.084
1054	0.086
1055	0.087
1055	0.088
1056	0.088
1056	0.089
1056	0.09
1057	0.091
1057	0.092
1058	0.093
1058	0.094
1058	0.094
1059	0.096
1059	0.096
1060	0.097
1060	0.098
1061	0.099
1061	0.099
1061	0.099
1062	0.1
1062	0.1
1063	0.1
1063	0.1
1063	0.1
1064	0.1
1064	0.101
1065	0.101
1065	0.102
1066	0.102
1066	0.103
1066	0.103
1067	0.104
1067	0.104
1068	0.105
1068	0.106
1068	0.106
1069	0.107
1069	0.108
1070	0.109
1070	0.11
1071	0.111
1071	0.112
1071	0.114
1072	0.115
1072	0.117
1073	0.119
1073	0.121
1073	0.123
1074	0.124
1074	0.126
1075	0.128
1075	0.13
1076	0.133
1076	0.135
1076	0.138
1077	0.141
1077	0.144
1078	0.147
1078	0.15
1078	0.154
1079	0.157
1079	0.16
1080	0.163
1080	0.165
1080	0.168
1081	0.171
1081	0.174
1082	0.177
1082	0.18
1083	0.184
1083	0.188
1083	0.192
1084	0.196
1084	0.201
1085	0.206
1085	0.212
1085	0.217
1086	0.222
1086	0.226
1087	0.231
1087	0.237
1088	0.241
1088	0.248
1088	0.255
1089	0.262
1089	0.271
1090	0.279
1090	0.289
1090	0.299
1091	0.311
1091	0.323
1092	0.335
1092	0.349
1092	0.363
1093	0.378
1093	0.394
1094	0.411
1094	0.431
1095	0.453
1095	0.479
1095	0.509
1096	0.543
1096	0.581
1097	0.626
1097	0.675
1097	0.735
1098	0.809
1098	0.898
1099	1.024
1099	1.202
1100	1.526
1100	-0
1100	-0
1101	-0
1101	-0
1102	-0
1102	-0
1102	-0
1103	-0
1103	-0
1104	-0
1104	-0
1104	-0
1105	-0
1105	-0
1106	-0
1106	-0
1107	-0
1107	-0
1107	-0
1108	-0
1108	-0
1109	-0
1109	-0
1109	-0
1110	-0
1110	-0
1111	-0
1111	-0
