Data from 17c-ppt-2-5a_Absorbance__58__00058.txt Node

Date: Mon Jan 15 09:20:45 CET 2024
User: Marek
Spectrometer: MAYP115816
Trigger mode: 0
Integration Time (sec): 2.000000E-1
Scans to average: 10
Electric dark correction enabled: true
Nonlinearity correction enabled: true
Boxcar width: 5
XAxis mode: Wavelengths
Number of Pixels in Spectrum: 2068
>>>>>Begin Spectral Data<<<<<
199	-2.044
199	-1.909
200	-1.763
200	-1.652
201	-1.577
201	-1.525
202	-1.452
202	-1.393
203	-1.34
203	-1.297
204	-1.268
204	-1.245
205	-1.224
205	-1.216
205	-1.212
206	-1.21
206	-1.208
207	-1.204
207	-1.2
208	-1.199
208	-1.193
209	-1.192
209	-1.189
210	-1.188
210	-1.186
211	-1.184
211	-1.182
212	-1.179
212	-1.179
213	-1.178
213	-1.176
213	-1.176
214	-1.175
214	-1.176
215	-1.175
215	-1.175
216	-1.173
216	-1.172
217	-1.172
217	-1.17
218	-1.169
218	-1.166
219	-1.165
219	-1.163
220	-1.158
220	-1.153
221	-1.149
221	-1.145
221	-1.139
222	-1.134
222	-1.129
223	-1.122
223	-1.118
224	-1.111
224	-1.104
225	-1.095
225	-1.084
226	-1.074
226	-1.064
227	-1.05
227	-1.033
228	-1.014
228	-0.994
229	-0.971
229	-0.943
229	-0.916
230	-0.885
230	-0.852
231	-0.816
231	-0.779
232	-0.74
232	-0.699
233	-0.658
233	-0.615
234	-0.573
234	-0.531
235	-0.489
235	-0.449
236	-0.41
236	-0.372
236	-0.336
237	-0.303
237	-0.271
238	-0.241
238	-0.214
239	-0.189
239	-0.165
240	-0.144
240	-0.125
241	-0.107
241	-0.091
242	-0.076
242	-0.062
243	-0.05
243	-0.039
243	-0.028
244	-0.019
244	-0.01
245	-0.002
245	0.005
246	0.011
246	0.017
247	0.023
247	0.028
248	0.032
248	0.037
249	0.041
249	0.044
250	0.048
250	0.051
250	0.054
251	0.057
251	0.059
252	0.062
252	0.064
253	0.066
253	0.068
254	0.07
254	0.072
255	0.073
255	0.075
256	0.076
256	0.077
257	0.078
257	0.079
258	0.08
258	0.081
258	0.082
259	0.083
259	0.083
260	0.084
260	0.084
261	0.085
261	0.085
262	0.085
262	0.086
263	0.086
263	0.086
264	0.086
264	0.086
265	0.086
265	0.086
265	0.086
266	0.086
266	0.086
267	0.085
267	0.085
268	0.085
268	0.085
269	0.085
269	0.084
270	0.084
270	0.083
271	0.083
271	0.083
272	0.083
272	0.082
272	0.082
273	0.081
273	0.081
274	0.081
274	0.08
275	0.08
275	0.079
276	0.079
276	0.078
277	0.078
277	0.077
278	0.077
278	0.076
278	0.076
279	0.075
279	0.075
280	0.075
280	0.075
281	0.075
281	0.075
282	0.074
282	0.074
283	0.074
283	0.074
284	0.074
284	0.074
285	0.074
285	0.073
285	0.073
286	0.073
286	0.073
287	0.073
287	0.073
288	0.072
288	0.072
289	0.072
289	0.072
290	0.072
290	0.072
291	0.072
291	0.072
292	0.071
292	0.071
292	0.071
293	0.071
293	0.071
294	0.071
294	0.071
295	0.07
295	0.07
296	0.07
296	0.07
297	0.07
297	0.07
298	0.07
298	0.069
298	0.069
299	0.069
299	0.069
300	0.069
300	0.069
301	0.068
301	0.068
302	0.068
302	0.068
303	0.068
303	0.068
304	0.068
304	0.068
305	0.068
305	0.067
305	0.067
306	0.067
306	0.067
307	0.067
307	0.066
308	0.066
308	0.066
309	0.066
309	0.065
310	0.065
310	0.065
311	0.064
311	0.064
311	0.064
312	0.064
312	0.063
313	0.063
313	0.063
314	0.062
314	0.062
315	0.062
315	0.061
316	0.061
316	0.061
317	0.061
317	0.06
318	0.06
318	0.06
318	0.059
319	0.059
319	0.059
320	0.058
320	0.058
321	0.058
321	0.057
322	0.057
322	0.056
323	0.056
323	0.056
324	0.055
324	0.055
324	0.054
325	0.054
325	0.054
326	0.053
326	0.053
327	0.053
327	0.053
328	0.052
328	0.052
329	0.052
329	0.051
330	0.051
330	0.051
330	0.05
331	0.05
331	0.049
332	0.049
332	0.049
333	0.048
333	0.048
334	0.048
334	0.047
335	0.047
335	0.047
336	0.046
336	0.046
336	0.045
337	0.045
337	0.045
338	0.044
338	0.044
339	0.044
339	0.043
340	0.043
340	0.042
341	0.042
341	0.042
342	0.041
342	0.041
342	0.041
343	0.04
343	0.04
344	0.04
344	0.039
345	0.039
345	0.038
346	0.038
346	0.038
347	0.037
347	0.037
348	0.037
348	0.036
348	0.036
349	0.036
349	0.035
350	0.035
350	0.035
351	0.034
351	0.034
352	0.034
352	0.033
353	0.033
353	0.032
354	0.031
354	0.031
354	0.03
355	0.03
355	0.029
356	0.029
356	0.029
357	0.029
357	0.029
358	0.029
358	0.029
359	0.029
359	0.03
360	0.03
360	0.03
360	0.031
361	0.031
361	0.031
362	0.031
362	0.031
363	0.031
363	0.031
364	0.031
364	0.03
365	0.03
365	0.03
366	0.03
366	0.029
366	0.029
367	0.029
367	0.029
368	0.029
368	0.029
369	0.028
369	0.028
370	0.028
370	0.028
371	0.028
371	0.027
372	0.027
372	0.027
372	0.027
373	0.027
373	0.027
374	0.027
374	0.027
375	0.027
375	0.027
376	0.027
376	0.027
377	0.027
377	0.027
378	0.028
378	0.028
378	0.028
379	0.028
379	0.028
380	0.028
380	0.028
381	0.028
381	0.028
382	0.028
382	0.028
383	0.028
383	0.028
383	0.028
384	0.027
384	0.027
385	0.027
385	0.027
386	0.027
386	0.027
387	0.027
387	0.027
388	0.027
388	0.027
389	0.027
389	0.027
389	0.027
390	0.027
390	0.027
391	0.028
391	0.028
392	0.028
392	0.028
393	0.028
393	0.029
394	0.028
394	0.028
394	0.028
395	0.028
395	0.028
396	0.028
396	0.028
397	0.028
397	0.028
398	0.028
398	0.028
399	0.029
399	0.029
400	0.028
400	0.028
400	0.028
401	0.028
401	0.027
402	0.026
402	0.026
403	0.026
403	0.026
404	0.026
404	0.026
405	0.026
405	0.026
405	0.025
406	0.025
406	0.026
407	0.026
407	0.026
408	0.025
408	0.025
409	0.025
409	0.025
410	0.025
410	0.025
411	0.025
411	0.025
411	0.025
412	0.024
412	0.024
413	0.024
413	0.024
414	0.024
414	0.024
415	0.024
415	0.023
416	0.023
416	0.023
416	0.023
417	0.022
417	0.022
418	0.022
418	0.022
419	0.023
419	0.023
420	0.023
420	0.024
421	0.024
421	0.025
421	0.025
422	0.025
422	0.025
423	0.025
423	0.025
424	0.025
424	0.025
425	0.024
425	0.024
426	0.023
426	0.023
427	0.023
427	0.023
427	0.023
428	0.024
428	0.024
429	0.025
429	0.025
430	0.025
430	0.026
431	0.025
431	0.025
432	0.025
432	0.025
432	0.024
433	0.023
433	0.022
434	0.022
434	0.021
435	0.021
435	0.021
436	0.021
436	0.021
437	0.021
437	0.021
437	0.021
438	0.021
438	0.021
439	0.021
439	0.021
440	0.021
440	0.021
441	0.021
441	0.021
442	0.021
442	0.022
442	0.022
443	0.022
443	0.023
444	0.023
444	0.023
445	0.023
445	0.023
446	0.023
446	0.023
447	0.023
447	0.023
447	0.023
448	0.023
448	0.022
449	0.022
449	0.022
450	0.022
450	0.021
451	0.021
451	0.021
452	0.02
452	0.02
452	0.02
453	0.019
453	0.019
454	0.018
454	0.018
455	0.018
455	0.018
456	0.018
456	0.018
457	0.018
457	0.018
458	0.018
458	0.018
458	0.018
459	0.018
459	0.019
460	0.019
460	0.018
461	0.018
461	0.017
462	0.017
462	0.017
463	0.017
463	0.017
463	0.017
464	0.017
464	0.017
465	0.017
465	0.017
466	0.017
466	0.016
467	0.016
467	0.016
467	0.015
468	0.014
468	0.013
469	0.012
469	0.011
470	0.01
470	0.01
471	0.01
471	0.009
472	0.009
472	0.009
472	0.01
473	0.01
473	0.011
474	0.011
474	0.012
475	0.012
475	0.012
476	0.012
476	0.012
477	0.012
477	0.012
477	0.012
478	0.012
478	0.011
479	0.011
479	0.011
480	0.012
480	0.012
481	0.012
481	0.013
482	0.013
482	0.014
482	0.014
483	0.015
483	0.017
484	0.019
484	0.02
485	0.021
485	0.022
486	0.022
486	0.023
487	0.023
487	0.023
487	0.023
488	0.022
488	0.021
489	0.02
489	0.018
490	0.017
490	0.017
491	0.016
491	0.016
492	0.016
492	0.016
492	0.016
493	0.016
493	0.016
494	0.017
494	0.018
495	0.019
495	0.02
496	0.02
496	0.021
496	0.021
497	0.021
497	0.021
498	0.021
498	0.021
499	0.021
499	0.02
500	0.02
500	0.02
501	0.02
501	0.021
501	0.021
502	0.022
502	0.022
503	0.023
503	0.023
504	0.023
504	0.023
505	0.023
505	0.023
506	0.023
506	0.023
506	0.023
507	0.022
507	0.022
508	0.022
508	0.022
509	0.021
509	0.021
510	0.021
510	0.021
511	0.021
511	0.021
511	0.021
512	0.02
512	0.019
513	0.018
513	0.017
514	0.016
514	0.016
515	0.015
515	0.015
515	0.014
516	0.013
516	0.012
517	0.011
517	0.011
518	0.011
518	0.011
519	0.011
519	0.011
520	0.01
520	0.009
520	0.008
521	0.007
521	0.006
522	0.004
522	0.002
523	-0
523	-0.002
524	-0.003
524	-0.005
524	-0.006
525	-0.006
525	-0.006
526	-0.006
526	-0.004
527	-0.003
527	-0.001
528	0.001
528	0.003
529	0.005
529	0.007
529	0.008
530	0.009
530	0.009
531	0.01
531	0.01
532	0.01
532	0.011
533	0.011
533	0.011
533	0.011
534	0.011
534	0.01
535	0.01
535	0.01
536	0.011
536	0.011
537	0.011
537	0.01
538	0.01
538	0.01
538	0.009
539	0.009
539	0.009
540	0.009
540	0.009
541	0.008
541	0.008
542	0.008
542	0.007
542	0.007
543	0.007
543	0.007
544	0.007
544	0.007
545	0.007
545	0.006
546	0.007
546	0.007
547	0.007
547	0.006
547	0.005
548	0.005
548	0.004
549	0.003
549	0.003
550	0.002
550	0.001
551	0.001
551	-0
551	-0
552	-0.001
552	-0.001
553	-0.001
553	-0
554	0
554	0.001
555	0.001
555	0
556	-0
556	-0.001
556	-0.002
557	-0.003
557	-0.004
558	-0.004
558	-0.005
559	-0.005
559	-0.005
560	-0.004
560	-0.004
560	-0.004
561	-0.003
561	-0.002
562	-0.002
562	-0.001
563	-0.001
563	-0.001
564	-0.002
564	-0.003
564	-0.004
565	-0.004
565	-0.004
566	-0.004
566	-0.004
567	-0.003
567	-0.002
568	-0
568	0.002
568	0.004
569	0.006
569	0.008
570	0.01
570	0.012
571	0.013
571	0.014
572	0.015
572	0.016
573	0.017
573	0.017
573	0.017
574	0.017
574	0.017
575	0.017
575	0.018
576	0.019
576	0.02
577	0.02
577	0.02
577	0.02
578	0.02
578	0.02
579	0.021
579	0.023
580	0.024
580	0.024
581	0.024
581	0.023
581	0.023
582	0.022
582	0.023
583	0.023
583	0.023
584	0.023
584	0.021
585	0.02
585	0.019
585	0.019
586	0.019
586	0.019
587	0.019
587	0.018
588	0.017
588	0.016
589	0.015
589	0.015
590	0.015
590	0.015
590	0.015
591	0.016
591	0.017
592	0.018
592	0.018
593	0.018
593	0.018
594	0.018
594	0.018
594	0.017
595	0.017
595	0.017
596	0.016
596	0.016
597	0.017
597	0.018
598	0.02
598	0.021
598	0.022
599	0.023
599	0.024
600	0.024
600	0.023
601	0.023
601	0.022
602	0.022
602	0.021
602	0.02
603	0.019
603	0.019
604	0.02
604	0.02
605	0.022
605	0.023
606	0.024
606	0.025
606	0.025
607	0.025
607	0.025
608	0.025
608	0.025
609	0.024
609	0.024
610	0.024
610	0.023
610	0.023
611	0.023
611	0.024
612	0.025
612	0.026
613	0.027
613	0.028
614	0.029
614	0.029
614	0.029
615	0.029
615	0.028
616	0.028
616	0.028
617	0.027
617	0.027
618	0.026
618	0.025
618	0.025
619	0.025
619	0.025
620	0.026
620	0.028
621	0.028
621	0.029
622	0.03
622	0.031
622	0.031
623	0.031
623	0.032
624	0.032
624	0.033
625	0.033
625	0.033
626	0.033
626	0.033
626	0.034
627	0.034
627	0.035
628	0.035
628	0.036
629	0.037
629	0.037
630	0.037
630	0.037
630	0.038
631	0.038
631	0.039
632	0.04
632	0.04
633	0.041
633	0.041
634	0.043
634	0.044
634	0.046
635	0.048
635	0.049
636	0.05
636	0.051
637	0.051
637	0.052
638	0.053
638	0.054
638	0.055
639	0.055
639	0.055
640	0.056
640	0.056
641	0.057
641	0.059
642	0.06
642	0.062
642	0.064
643	0.065
643	0.067
644	0.069
644	0.07
645	0.072
645	0.074
646	0.076
646	0.079
646	0.081
647	0.084
647	0.086
648	0.089
648	0.091
649	0.093
649	0.095
650	0.097
650	0.099
650	0.101
651	0.103
651	0.105
652	0.107
652	0.109
653	0.111
653	0.116
653	0.119
654	0.098
654	0.082
655	0.088
655	0.091
656	0.092
656	0.094
657	0.096
657	0.097
657	0.099
658	0.098
658	0.097
659	0.119
659	0.149
660	0.148
660	0.149
661	0.151
661	0.153
661	0.155
662	0.157
662	0.16
663	0.162
663	0.165
664	0.167
664	0.17
665	0.172
665	0.174
665	0.176
666	0.178
666	0.18
667	0.182
667	0.184
668	0.186
668	0.189
669	0.191
669	0.194
669	0.197
670	0.2
670	0.203
671	0.205
671	0.207
672	0.209
672	0.21
672	0.211
673	0.213
673	0.214
674	0.214
674	0.215
675	0.216
675	0.216
676	0.218
676	0.219
676	0.221
677	0.223
677	0.224
678	0.226
678	0.228
679	0.229
679	0.229
680	0.23
680	0.231
680	0.232
681	0.231
681	0.231
682	0.232
682	0.233
683	0.234
683	0.236
684	0.238
684	0.239
684	0.24
685	0.241
685	0.243
686	0.245
686	0.246
687	0.247
687	0.247
687	0.247
688	0.246
688	0.246
689	0.246
689	0.247
690	0.247
690	0.246
691	0.245
691	0.245
691	0.244
692	0.244
692	0.243
693	0.242
693	0.242
694	0.241
694	0.24
695	0.239
695	0.24
695	0.241
696	0.241
696	0.241
697	0.241
697	0.24
698	0.24
698	0.239
698	0.237
699	0.237
699	0.235
700	0.233
700	0.231
701	0.229
701	0.228
702	0.227
702	0.226
702	0.224
703	0.223
703	0.221
704	0.22
704	0.219
705	0.218
705	0.217
705	0.217
706	0.216
706	0.215
707	0.214
707	0.213
708	0.212
708	0.211
709	0.21
709	0.208
709	0.206
710	0.204
710	0.201
711	0.199
711	0.197
712	0.196
712	0.194
713	0.193
713	0.192
713	0.19
714	0.188
714	0.186
715	0.185
715	0.183
716	0.181
716	0.179
716	0.177
717	0.175
717	0.173
718	0.171
718	0.169
719	0.167
719	0.166
720	0.164
720	0.162
720	0.16
721	0.158
721	0.155
722	0.153
722	0.151
723	0.148
723	0.146
723	0.144
724	0.142
724	0.141
725	0.139
725	0.137
726	0.136
726	0.135
727	0.134
727	0.132
727	0.131
728	0.13
728	0.128
729	0.128
729	0.127
730	0.125
730	0.124
730	0.123
731	0.121
731	0.12
732	0.118
732	0.116
733	0.115
733	0.113
734	0.11
734	0.108
734	0.106
735	0.104
735	0.102
736	0.099
736	0.097
737	0.096
737	0.094
737	0.092
738	0.091
738	0.089
739	0.086
739	0.084
740	0.082
740	0.08
741	0.078
741	0.075
741	0.073
742	0.069
742	0.066
743	0.063
743	0.061
744	0.059
744	0.058
744	0.056
745	0.055
745	0.053
746	0.052
746	0.051
747	0.051
747	0.051
748	0.05
748	0.05
748	0.05
749	0.049
749	0.049
750	0.048
750	0.047
751	0.047
751	0.047
751	0.046
752	0.045
752	0.045
753	0.044
753	0.043
754	0.043
754	0.042
754	0.042
755	0.042
755	0.042
756	0.042
756	0.041
757	0.04
757	0.04
758	0.039
758	0.038
758	0.037
759	0.036
759	0.034
760	0.032
760	0.029
761	0.027
761	0.025
761	0.023
762	0.022
762	0.021
763	0.021
763	0.019
764	0.017
764	0.015
764	0.013
765	0.011
765	0.009
766	0.008
766	0.007
767	0.006
767	0.004
768	0.001
768	-0.001
768	-0.002
769	-0.003
769	-0.003
770	-0.004
770	-0.005
771	-0.007
771	-0.009
771	-0.012
772	-0.015
772	-0.017
773	-0.02
773	-0.023
774	-0.027
774	-0.031
775	-0.035
775	-0.039
775	-0.044
776	-0.048
776	-0.053
777	-0.057
777	-0.061
778	-0.066
778	-0.071
778	-0.075
779	-0.079
779	-0.081
780	-0.084
780	-0.089
781	-0.092
781	-0.095
781	-0.099
782	-0.102
782	-0.107
783	-0.111
783	-0.113
784	-0.115
784	-0.118
784	-0.12
785	-0.121
785	-0.123
786	-0.124
786	-0.121
787	-0.117
787	-0.113
788	-0.112
788	-0.112
788	-0.113
789	-0.114
789	-0.113
790	-0.11
790	-0.108
791	-0.108
791	-0.11
791	-0.112
792	-0.107
792	-0.097
793	-0.091
793	-0.088
794	-0.087
794	-0.089
794	-0.093
795	-0.096
795	-0.096
796	-0.096
796	-0.099
797	-0.107
797	-0.117
797	-0.123
798	-0.128
798	-0.131
799	-0.131
799	-0.131
800	-0.131
800	-0.133
801	-0.136
801	-0.138
801	-0.138
802	-0.14
802	-0.141
803	-0.142
803	-0.142
804	-0.141
804	-0.136
804	-0.129
805	-0.125
805	-0.123
806	-0.121
806	-0.119
807	-0.118
807	-0.118
807	-0.118
808	-0.117
808	-0.118
809	-0.123
809	-0.128
810	-0.132
810	-0.134
810	-0.137
811	-0.14
811	-0.14
812	-0.135
812	-0.132
813	-0.131
813	-0.131
813	-0.131
814	-0.132
814	-0.131
815	-0.129
815	-0.126
816	-0.124
816	-0.125
817	-0.129
817	-0.133
817	-0.134
818	-0.133
818	-0.13
819	-0.125
819	-0.123
820	-0.124
820	-0.125
820	-0.124
821	-0.122
821	-0.117
822	-0.112
822	-0.107
823	-0.101
823	-0.097
823	-0.094
824	-0.089
824	-0.08
825	-0.071
825	-0.063
826	-0.055
826	-0.048
826	-0.043
827	-0.037
827	-0.032
828	-0.028
828	-0.024
829	-0.021
829	-0.018
829	-0.016
830	-0.015
830	-0.014
831	-0.012
831	-0.01
832	-0.009
832	-0.008
832	-0.006
833	-0.005
833	-0.004
834	-0.003
834	-0.002
835	-0.001
835	-0
835	0.001
836	0.001
836	0.002
837	0.002
837	0.003
838	0.003
838	0.004
839	0.004
839	0.005
839	0.005
840	0.006
840	0.006
841	0.007
841	0.008
842	0.009
842	0.01
842	0.011
843	0.012
843	0.013
844	0.014
844	0.015
845	0.017
845	0.018
845	0.019
846	0.02
846	0.021
847	0.022
847	0.023
848	0.024
848	0.025
848	0.026
849	0.026
849	0.026
850	0.026
850	0.026
851	0.026
851	0.025
851	0.025
852	0.024
852	0.024
853	0.023
853	0.023
854	0.023
854	0.023
854	0.023
855	0.023
855	0.023
856	0.023
856	0.023
857	0.024
857	0.024
857	0.024
858	0.025
858	0.025
859	0.026
859	0.027
860	0.027
860	0.028
860	0.028
861	0.029
861	0.03
862	0.031
862	0.032
863	0.033
863	0.033
863	0.034
864	0.034
864	0.035
865	0.036
865	0.036
866	0.036
866	0.036
866	0.037
867	0.037
867	0.037
868	0.037
868	0.037
869	0.037
869	0.037
869	0.037
870	0.037
870	0.037
871	0.037
871	0.037
872	0.037
872	0.037
872	0.036
873	0.036
873	0.035
874	0.035
874	0.034
875	0.034
875	0.033
875	0.033
876	0.032
876	0.031
877	0.031
877	0.03
878	0.03
878	0.029
878	0.029
879	0.029
879	0.029
880	0.029
880	0.03
881	0.031
881	0.032
881	0.033
882	0.034
882	0.035
883	0.037
883	0.038
884	0.039
884	0.04
884	0.041
885	0.041
885	0.041
886	0.042
886	0.041
887	0.041
887	0.041
887	0.04
888	0.04
888	0.04
889	0.041
889	0.041
890	0.041
890	0.041
890	0.041
891	0.041
891	0.041
892	0.041
892	0.041
893	0.041
893	0.04
893	0.04
894	0.039
894	0.039
895	0.038
895	0.038
895	0.037
896	0.037
896	0.036
897	0.036
897	0.036
898	0.036
898	0.036
898	0.037
899	0.037
899	0.037
900	0.037
900	0.037
901	0.038
901	0.038
901	0.038
902	0.039
902	0.039
903	0.04
903	0.04
904	0.041
904	0.041
904	0.042
905	0.042
905	0.042
906	0.043
906	0.043
907	0.043
907	0.043
907	0.043
908	0.044
908	0.044
909	0.044
909	0.044
910	0.044
910	0.044
910	0.044
911	0.044
911	0.045
912	0.045
912	0.046
913	0.046
913	0.046
913	0.046
914	0.046
914	0.047
915	0.046
915	0.046
916	0.046
916	0.045
916	0.045
917	0.045
917	0.044
918	0.044
918	0.044
918	0.044
919	0.044
919	0.044
920	0.044
920	0.044
921	0.044
921	0.044
921	0.044
922	0.044
922	0.043
923	0.043
923	0.042
924	0.042
924	0.042
924	0.041
925	0.041
925	0.041
926	0.04
926	0.041
927	0.041
927	0.041
927	0.041
928	0.041
928	0.041
929	0.041
929	0.041
930	0.042
930	0.042
930	0.042
931	0.042
931	0.042
932	0.042
932	0.042
933	0.042
933	0.043
933	0.043
934	0.043
934	0.043
935	0.044
935	0.044
935	0.045
936	0.046
936	0.047
937	0.047
937	0.048
938	0.049
938	0.049
938	0.05
939	0.051
939	0.052
940	0.053
940	0.054
941	0.055
941	0.056
941	0.057
942	0.058
942	0.059
943	0.06
943	0.06
944	0.06
944	0.06
944	0.06
945	0.06
945	0.06
946	0.059
946	0.058
946	0.058
947	0.057
947	0.056
948	0.055
948	0.054
949	0.053
949	0.053
949	0.052
950	0.051
950	0.051
951	0.05
951	0.05
952	0.05
952	0.05
952	0.05
953	0.051
953	0.051
954	0.051
954	0.051
955	0.051
955	0.051
955	0.052
956	0.051
956	0.051
957	0.051
957	0.05
957	0.05
958	0.049
958	0.048
959	0.048
959	0.048
960	0.047
960	0.047
960	0.047
961	0.047
961	0.047
962	0.047
962	0.048
963	0.048
963	0.049
963	0.049
964	0.049
964	0.05
965	0.05
965	0.051
966	0.051
966	0.051
966	0.052
967	0.052
967	0.053
968	0.053
968	0.053
968	0.053
969	0.053
969	0.053
970	0.053
970	0.052
971	0.052
971	0.052
971	0.052
972	0.052
972	0.052
973	0.052
973	0.052
974	0.052
974	0.052
974	0.052
975	0.051
975	0.05
976	0.049
976	0.048
976	0.047
977	0.046
977	0.045
978	0.044
978	0.044
979	0.043
979	0.042
979	0.042
980	0.042
980	0.043
981	0.043
981	0.044
982	0.045
982	0.046
982	0.047
983	0.048
983	0.049
984	0.05
984	0.051
984	0.051
985	0.052
985	0.052
986	0.052
986	0.052
987	0.053
987	0.053
987	0.053
988	0.053
988	0.053
989	0.052
989	0.052
990	0.052
990	0.052
990	0.052
991	0.051
991	0.051
992	0.05
992	0.049
992	0.049
993	0.048
993	0.047
994	0.046
994	0.045
995	0.044
995	0.044
995	0.043
996	0.043
996	0.043
997	0.043
997	0.043
997	0.043
998	0.044
998	0.045
999	0.045
999	0.046
1000	0.046
1000	0.047
1000	0.047
1001	0.047
1001	0.047
1002	0.047
1002	0.047
1003	0.047
1003	0.047
1003	0.047
1004	0.047
1004	0.047
1005	0.046
1005	0.046
1005	0.047
1006	0.047
1006	0.047
1007	0.048
1007	0.048
1008	0.049
1008	0.05
1008	0.051
1009	0.051
1009	0.052
1010	0.053
1010	0.053
1010	0.054
1011	0.054
1011	0.055
1012	0.055
1012	0.055
1013	0.055
1013	0.055
1013	0.055
1014	0.055
1014	0.055
1015	0.055
1015	0.055
1016	0.055
1016	0.054
1016	0.054
1017	0.054
1017	0.054
1018	0.054
1018	0.054
1018	0.054
1019	0.054
1019	0.054
1020	0.054
1020	0.054
1021	0.054
1021	0.054
1021	0.054
1022	0.054
1022	0.054
1023	0.053
1023	0.053
1023	0.052
1024	0.052
1024	0.051
1025	0.051
1025	0.051
1026	0.05
1026	0.05
1026	0.05
1027	0.05
1027	0.05
1028	0.05
1028	0.051
1028	0.051
1029	0.051
1029	0.052
1030	0.052
1030	0.053
1031	0.054
1031	0.054
1031	0.055
1032	0.055
1032	0.056
1033	0.057
1033	0.057
1033	0.057
1034	0.058
1034	0.058
1035	0.058
1035	0.059
1036	0.06
1036	0.061
1036	0.061
1037	0.062
1037	0.063
1038	0.064
1038	0.064
1039	0.065
1039	0.065
1039	0.065
1040	0.065
1040	0.065
1041	0.065
1041	0.064
1041	0.064
1042	0.064
1042	0.064
1043	0.064
1043	0.064
1044	0.064
1044	0.064
1044	0.064
1045	0.064
1045	0.065
1046	0.065
1046	0.066
1046	0.067
1047	0.068
1047	0.069
1048	0.069
1048	0.07
1049	0.07
1049	0.071
1049	0.071
1050	0.072
1050	0.073
1051	0.074
1051	0.075
1051	0.076
1052	0.077
1052	0.079
1053	0.08
1053	0.082
1053	0.084
1054	0.085
1054	0.087
1055	0.088
1055	0.089
1056	0.089
1056	0.09
1056	0.09
1057	0.091
1057	0.092
1058	0.093
1058	0.094
1058	0.094
1059	0.096
1059	0.096
1060	0.097
1060	0.098
1061	0.098
1061	0.099
1061	0.098
1062	0.099
1062	0.098
1063	0.098
1063	0.098
1063	0.098
1064	0.098
1064	0.098
1065	0.099
1065	0.1
1066	0.101
1066	0.101
1066	0.101
1067	0.102
1067	0.103
1068	0.104
1068	0.105
1068	0.106
1069	0.106
1069	0.107
1070	0.108
1070	0.109
1071	0.111
1071	0.112
1071	0.114
1072	0.116
1072	0.117
1073	0.119
1073	0.121
1073	0.123
1074	0.124
1074	0.125
1075	0.127
1075	0.129
1076	0.131
1076	0.134
1076	0.136
1077	0.138
1077	0.141
1078	0.143
1078	0.147
1078	0.15
1079	0.153
1079	0.156
1080	0.158
1080	0.161
1080	0.163
1081	0.166
1081	0.168
1082	0.171
1082	0.175
1083	0.178
1083	0.182
1083	0.186
1084	0.19
1084	0.195
1085	0.2
1085	0.205
1085	0.211
1086	0.216
1086	0.22
1087	0.226
1087	0.231
1088	0.236
1088	0.241
1088	0.248
1089	0.254
1089	0.262
1090	0.269
1090	0.278
1090	0.288
1091	0.299
1091	0.311
1092	0.321
1092	0.334
1092	0.348
1093	0.362
1093	0.378
1094	0.395
1094	0.414
1095	0.434
1095	0.458
1095	0.485
1096	0.513
1096	0.55
1097	0.591
1097	0.635
1097	0.687
1098	0.747
1098	0.82
1099	0.917
1099	1.041
1100	1.225
1100	1.593
1100	-0
1101	-0
1101	-0
1102	-0
1102	-0
1102	-0
1103	-0
1103	-0
1104	-0
1104	-0
1104	-0
1105	-0
1105	-0
1106	-0
1106	-0
1107	-0
1107	-0
1107	-0
1108	-0
1108	-0
1109	-0
1109	-0
1109	-0
1110	-0
1110	-0
1111	-0
1111	-0
