Data from 17c-ppt-2-5a_Absorbance__97__00097.txt Node

Date: Mon Jan 15 09:22:03 CET 2024
User: Marek
Spectrometer: MAYP115816
Trigger mode: 0
Integration Time (sec): 2.000000E-1
Scans to average: 10
Electric dark correction enabled: true
Nonlinearity correction enabled: true
Boxcar width: 5
XAxis mode: Wavelengths
Number of Pixels in Spectrum: 2068
>>>>>Begin Spectral Data<<<<<
199	-2.069
199	-1.934
200	-1.788
200	-1.676
201	-1.601
201	-1.55
202	-1.476
202	-1.417
203	-1.365
203	-1.322
204	-1.292
204	-1.27
205	-1.249
205	-1.24
205	-1.237
206	-1.235
206	-1.233
207	-1.229
207	-1.226
208	-1.224
208	-1.218
209	-1.217
209	-1.215
210	-1.214
210	-1.212
211	-1.21
211	-1.207
212	-1.203
212	-1.203
213	-1.202
213	-1.201
213	-1.201
214	-1.2
214	-1.201
215	-1.2
215	-1.2
216	-1.199
216	-1.198
217	-1.197
217	-1.197
218	-1.195
218	-1.192
219	-1.19
219	-1.189
220	-1.183
220	-1.179
221	-1.174
221	-1.168
221	-1.163
222	-1.159
222	-1.153
223	-1.146
223	-1.142
224	-1.136
224	-1.128
225	-1.119
225	-1.108
226	-1.099
226	-1.088
227	-1.074
227	-1.056
228	-1.037
228	-1.018
229	-0.994
229	-0.966
229	-0.938
230	-0.907
230	-0.874
231	-0.837
231	-0.8
232	-0.761
232	-0.72
233	-0.677
233	-0.634
234	-0.591
234	-0.549
235	-0.507
235	-0.466
236	-0.426
236	-0.387
236	-0.35
237	-0.315
237	-0.283
238	-0.252
238	-0.224
239	-0.197
239	-0.173
240	-0.151
240	-0.13
241	-0.112
241	-0.095
242	-0.079
242	-0.064
243	-0.051
243	-0.04
243	-0.029
244	-0.019
244	-0.01
245	-0.001
245	0.006
246	0.013
246	0.019
247	0.025
247	0.03
248	0.035
248	0.04
249	0.044
249	0.048
250	0.051
250	0.055
250	0.058
251	0.061
251	0.064
252	0.066
252	0.069
253	0.071
253	0.073
254	0.075
254	0.077
255	0.078
255	0.08
256	0.081
256	0.082
257	0.084
257	0.085
258	0.086
258	0.087
258	0.087
259	0.088
259	0.088
260	0.089
260	0.09
261	0.09
261	0.091
262	0.091
262	0.091
263	0.091
263	0.092
264	0.092
264	0.092
265	0.092
265	0.092
265	0.092
266	0.092
266	0.092
267	0.092
267	0.092
268	0.091
268	0.091
269	0.091
269	0.09
270	0.09
270	0.09
271	0.089
271	0.089
272	0.089
272	0.088
272	0.088
273	0.088
273	0.087
274	0.087
274	0.087
275	0.086
275	0.086
276	0.085
276	0.085
277	0.084
277	0.083
278	0.083
278	0.082
278	0.081
279	0.081
279	0.081
280	0.081
280	0.081
281	0.081
281	0.081
282	0.081
282	0.081
283	0.081
283	0.081
284	0.081
284	0.08
285	0.08
285	0.08
285	0.079
286	0.079
286	0.079
287	0.079
287	0.078
288	0.078
288	0.078
289	0.078
289	0.078
290	0.078
290	0.078
291	0.077
291	0.077
292	0.077
292	0.077
292	0.077
293	0.077
293	0.076
294	0.076
294	0.076
295	0.076
295	0.076
296	0.076
296	0.076
297	0.076
297	0.075
298	0.075
298	0.075
298	0.075
299	0.075
299	0.074
300	0.074
300	0.074
301	0.074
301	0.074
302	0.073
302	0.073
303	0.073
303	0.073
304	0.073
304	0.073
305	0.073
305	0.072
305	0.072
306	0.072
306	0.072
307	0.072
307	0.071
308	0.071
308	0.071
309	0.071
309	0.07
310	0.07
310	0.07
311	0.069
311	0.069
311	0.068
312	0.068
312	0.068
313	0.068
313	0.067
314	0.067
314	0.067
315	0.066
315	0.066
316	0.066
316	0.065
317	0.065
317	0.065
318	0.064
318	0.064
318	0.063
319	0.063
319	0.062
320	0.062
320	0.062
321	0.061
321	0.061
322	0.06
322	0.06
323	0.06
323	0.059
324	0.059
324	0.059
324	0.058
325	0.058
325	0.057
326	0.057
326	0.057
327	0.057
327	0.056
328	0.056
328	0.055
329	0.055
329	0.055
330	0.054
330	0.054
330	0.054
331	0.053
331	0.053
332	0.052
332	0.052
333	0.052
333	0.051
334	0.051
334	0.05
335	0.05
335	0.049
336	0.049
336	0.048
336	0.048
337	0.048
337	0.047
338	0.047
338	0.046
339	0.046
339	0.046
340	0.045
340	0.045
341	0.045
341	0.044
342	0.044
342	0.044
342	0.043
343	0.043
343	0.042
344	0.042
344	0.042
345	0.041
345	0.041
346	0.04
346	0.04
347	0.04
347	0.039
348	0.039
348	0.039
348	0.038
349	0.038
349	0.037
350	0.037
350	0.037
351	0.036
351	0.036
352	0.035
352	0.035
353	0.034
353	0.034
354	0.033
354	0.032
354	0.032
355	0.031
355	0.03
356	0.03
356	0.03
357	0.03
357	0.029
358	0.029
358	0.03
359	0.03
359	0.031
360	0.031
360	0.031
360	0.032
361	0.032
361	0.032
362	0.032
362	0.032
363	0.032
363	0.032
364	0.031
364	0.031
365	0.031
365	0.031
366	0.031
366	0.03
366	0.03
367	0.03
367	0.03
368	0.03
368	0.03
369	0.03
369	0.029
370	0.029
370	0.029
371	0.029
371	0.028
372	0.028
372	0.028
372	0.027
373	0.027
373	0.027
374	0.028
374	0.028
375	0.028
375	0.028
376	0.028
376	0.028
377	0.028
377	0.028
378	0.029
378	0.029
378	0.029
379	0.029
379	0.029
380	0.029
380	0.029
381	0.029
381	0.029
382	0.029
382	0.029
383	0.029
383	0.029
383	0.028
384	0.028
384	0.028
385	0.027
385	0.027
386	0.028
386	0.028
387	0.028
387	0.028
388	0.028
388	0.027
389	0.027
389	0.028
389	0.028
390	0.028
390	0.028
391	0.028
391	0.029
392	0.029
392	0.029
393	0.029
393	0.029
394	0.029
394	0.029
394	0.029
395	0.029
395	0.028
396	0.028
396	0.028
397	0.028
397	0.029
398	0.029
398	0.029
399	0.029
399	0.029
400	0.029
400	0.029
400	0.029
401	0.028
401	0.028
402	0.027
402	0.026
403	0.026
403	0.026
404	0.026
404	0.026
405	0.026
405	0.026
405	0.026
406	0.026
406	0.026
407	0.026
407	0.026
408	0.026
408	0.025
409	0.025
409	0.025
410	0.025
410	0.024
411	0.024
411	0.025
411	0.025
412	0.024
412	0.024
413	0.024
413	0.024
414	0.024
414	0.024
415	0.023
415	0.023
416	0.023
416	0.023
416	0.023
417	0.023
417	0.022
418	0.022
418	0.023
419	0.023
419	0.023
420	0.024
420	0.024
421	0.024
421	0.025
421	0.025
422	0.025
422	0.025
423	0.026
423	0.026
424	0.025
424	0.025
425	0.024
425	0.024
426	0.023
426	0.023
427	0.023
427	0.023
427	0.023
428	0.024
428	0.024
429	0.025
429	0.025
430	0.026
430	0.026
431	0.025
431	0.025
432	0.025
432	0.025
432	0.024
433	0.023
433	0.022
434	0.022
434	0.021
435	0.021
435	0.021
436	0.021
436	0.021
437	0.021
437	0.021
437	0.021
438	0.021
438	0.021
439	0.021
439	0.021
440	0.021
440	0.021
441	0.021
441	0.021
442	0.021
442	0.021
442	0.021
443	0.022
443	0.022
444	0.022
444	0.022
445	0.023
445	0.023
446	0.023
446	0.023
447	0.023
447	0.023
447	0.023
448	0.022
448	0.022
449	0.022
449	0.022
450	0.022
450	0.021
451	0.021
451	0.021
452	0.02
452	0.02
452	0.019
453	0.019
453	0.019
454	0.018
454	0.018
455	0.018
455	0.017
456	0.017
456	0.017
457	0.017
457	0.017
458	0.017
458	0.017
458	0.018
459	0.018
459	0.018
460	0.018
460	0.017
461	0.017
461	0.016
462	0.016
462	0.016
463	0.016
463	0.016
463	0.016
464	0.016
464	0.016
465	0.016
465	0.016
466	0.016
466	0.016
467	0.016
467	0.015
467	0.015
468	0.013
468	0.012
469	0.011
469	0.01
470	0.009
470	0.008
471	0.008
471	0.008
472	0.008
472	0.008
472	0.008
473	0.009
473	0.01
474	0.01
474	0.011
475	0.011
475	0.012
476	0.011
476	0.011
477	0.011
477	0.011
477	0.011
478	0.01
478	0.01
479	0.01
479	0.01
480	0.01
480	0.011
481	0.011
481	0.011
482	0.012
482	0.012
482	0.013
483	0.014
483	0.016
484	0.018
484	0.019
485	0.02
485	0.021
486	0.021
486	0.022
487	0.022
487	0.022
487	0.022
488	0.021
488	0.02
489	0.019
489	0.017
490	0.016
490	0.015
491	0.015
491	0.014
492	0.014
492	0.014
492	0.014
493	0.014
493	0.015
494	0.015
494	0.016
495	0.018
495	0.018
496	0.019
496	0.019
496	0.019
497	0.019
497	0.02
498	0.02
498	0.019
499	0.019
499	0.018
500	0.018
500	0.018
501	0.018
501	0.019
501	0.019
502	0.02
502	0.02
503	0.021
503	0.021
504	0.022
504	0.022
505	0.022
505	0.021
506	0.021
506	0.021
506	0.021
507	0.02
507	0.02
508	0.019
508	0.019
509	0.019
509	0.019
510	0.019
510	0.019
511	0.019
511	0.018
511	0.018
512	0.017
512	0.017
513	0.016
513	0.015
514	0.014
514	0.013
515	0.013
515	0.012
515	0.011
516	0.01
516	0.009
517	0.009
517	0.009
518	0.009
518	0.009
519	0.009
519	0.008
520	0.007
520	0.006
520	0.005
521	0.004
521	0.002
522	0.001
522	-0.001
523	-0.004
523	-0.006
524	-0.007
524	-0.008
524	-0.009
525	-0.009
525	-0.008
526	-0.008
526	-0.006
527	-0.005
527	-0.003
528	-0.001
528	0.002
529	0.003
529	0.004
529	0.005
530	0.006
530	0.007
531	0.007
531	0.008
532	0.008
532	0.008
533	0.008
533	0.008
533	0.008
534	0.008
534	0.008
535	0.007
535	0.007
536	0.008
536	0.008
537	0.008
537	0.008
538	0.008
538	0.007
538	0.007
539	0.006
539	0.006
540	0.006
540	0.006
541	0.006
541	0.005
542	0.004
542	0.004
542	0.004
543	0.004
543	0.004
544	0.003
544	0.003
545	0.003
545	0.003
546	0.004
546	0.004
547	0.004
547	0.003
547	0.003
548	0.002
548	0.001
549	0
549	-0
550	-0.001
550	-0.002
551	-0.002
551	-0.003
551	-0.004
552	-0.004
552	-0.004
553	-0.003
553	-0.002
554	-0.002
554	-0.001
555	-0.001
555	-0.002
556	-0.003
556	-0.003
556	-0.005
557	-0.006
557	-0.006
558	-0.007
558	-0.007
559	-0.008
559	-0.007
560	-0.007
560	-0.007
560	-0.006
561	-0.005
561	-0.005
562	-0.004
562	-0.003
563	-0.004
563	-0.004
564	-0.005
564	-0.006
564	-0.006
565	-0.007
565	-0.006
566	-0.006
566	-0.006
567	-0.005
567	-0.004
568	-0.002
568	-0
568	0.002
569	0.004
569	0.007
570	0.009
570	0.01
571	0.011
571	0.013
572	0.014
572	0.015
573	0.016
573	0.016
573	0.017
574	0.017
574	0.017
575	0.017
575	0.017
576	0.018
576	0.019
577	0.019
577	0.019
577	0.019
578	0.019
578	0.019
579	0.02
579	0.022
580	0.023
580	0.024
581	0.023
581	0.022
581	0.022
582	0.022
582	0.022
583	0.022
583	0.023
584	0.022
584	0.02
585	0.019
585	0.018
585	0.018
586	0.018
586	0.018
587	0.018
587	0.017
588	0.016
588	0.014
589	0.014
589	0.013
590	0.013
590	0.013
590	0.014
591	0.015
591	0.016
592	0.016
592	0.017
593	0.017
593	0.017
594	0.017
594	0.016
594	0.016
595	0.016
595	0.015
596	0.015
596	0.015
597	0.016
597	0.017
598	0.019
598	0.021
598	0.022
599	0.023
599	0.023
600	0.023
600	0.022
601	0.022
601	0.021
602	0.02
602	0.02
602	0.019
603	0.018
603	0.018
604	0.018
604	0.019
605	0.02
605	0.022
606	0.023
606	0.024
606	0.024
607	0.024
607	0.024
608	0.024
608	0.023
609	0.023
609	0.023
610	0.022
610	0.021
610	0.021
611	0.021
611	0.022
612	0.023
612	0.024
613	0.025
613	0.026
614	0.027
614	0.027
614	0.027
615	0.027
615	0.026
616	0.026
616	0.026
617	0.025
617	0.024
618	0.024
618	0.023
618	0.022
619	0.022
619	0.023
620	0.024
620	0.025
621	0.026
621	0.027
622	0.028
622	0.029
622	0.029
623	0.03
623	0.03
624	0.031
624	0.032
625	0.032
625	0.032
626	0.032
626	0.032
626	0.033
627	0.033
627	0.033
628	0.034
628	0.035
629	0.035
629	0.036
630	0.036
630	0.036
630	0.036
631	0.036
631	0.037
632	0.037
632	0.038
633	0.038
633	0.039
634	0.04
634	0.042
634	0.043
635	0.045
635	0.047
636	0.048
636	0.049
637	0.05
637	0.05
638	0.051
638	0.052
638	0.053
639	0.053
639	0.054
640	0.054
640	0.055
641	0.056
641	0.057
642	0.058
642	0.06
642	0.062
643	0.064
643	0.065
644	0.067
644	0.069
645	0.07
645	0.072
646	0.074
646	0.077
646	0.079
647	0.082
647	0.085
648	0.087
648	0.089
649	0.092
649	0.094
650	0.096
650	0.098
650	0.101
651	0.103
651	0.105
652	0.107
652	0.109
653	0.111
653	0.116
653	0.119
654	0.099
654	0.083
655	0.089
655	0.091
656	0.093
656	0.094
657	0.096
657	0.098
657	0.099
658	0.098
658	0.096
659	0.118
659	0.148
660	0.147
660	0.148
661	0.15
661	0.152
661	0.154
662	0.157
662	0.159
663	0.162
663	0.165
664	0.167
664	0.17
665	0.172
665	0.174
665	0.176
666	0.177
666	0.179
667	0.181
667	0.183
668	0.185
668	0.187
669	0.19
669	0.192
669	0.196
670	0.199
670	0.202
671	0.204
671	0.206
672	0.208
672	0.209
672	0.21
673	0.211
673	0.212
674	0.213
674	0.214
675	0.215
675	0.215
676	0.216
676	0.218
676	0.22
677	0.221
677	0.223
678	0.225
678	0.226
679	0.227
679	0.228
680	0.229
680	0.23
680	0.23
681	0.23
681	0.23
682	0.23
682	0.231
683	0.232
683	0.234
684	0.236
684	0.238
684	0.239
685	0.241
685	0.242
686	0.244
686	0.245
687	0.246
687	0.246
687	0.246
688	0.246
688	0.245
689	0.245
689	0.245
690	0.245
690	0.245
691	0.244
691	0.243
691	0.243
692	0.242
692	0.241
693	0.241
693	0.24
694	0.24
694	0.238
695	0.238
695	0.239
695	0.24
696	0.24
696	0.24
697	0.24
697	0.24
698	0.24
698	0.239
698	0.237
699	0.237
699	0.236
700	0.233
700	0.231
701	0.23
701	0.228
702	0.227
702	0.226
702	0.224
703	0.223
703	0.221
704	0.22
704	0.218
705	0.218
705	0.217
705	0.216
706	0.215
706	0.215
707	0.214
707	0.212
708	0.211
708	0.209
709	0.208
709	0.207
709	0.204
710	0.202
710	0.199
711	0.198
711	0.196
712	0.194
712	0.193
713	0.192
713	0.19
713	0.189
714	0.187
714	0.185
715	0.183
715	0.182
716	0.179
716	0.177
716	0.176
717	0.174
717	0.172
718	0.169
718	0.167
719	0.165
719	0.164
720	0.162
720	0.16
720	0.158
721	0.156
721	0.154
722	0.151
722	0.149
723	0.147
723	0.145
723	0.143
724	0.141
724	0.139
725	0.138
725	0.136
726	0.135
726	0.134
727	0.132
727	0.131
727	0.13
728	0.129
728	0.127
729	0.127
729	0.126
730	0.125
730	0.123
730	0.122
731	0.12
731	0.119
732	0.117
732	0.116
733	0.114
733	0.112
734	0.109
734	0.107
734	0.105
735	0.103
735	0.101
736	0.099
736	0.097
737	0.095
737	0.093
737	0.092
738	0.09
738	0.088
739	0.085
739	0.083
740	0.08
740	0.078
741	0.076
741	0.073
741	0.07
742	0.066
742	0.063
743	0.06
743	0.058
744	0.056
744	0.054
744	0.053
745	0.051
745	0.05
746	0.049
746	0.048
747	0.048
747	0.048
748	0.048
748	0.048
748	0.047
749	0.047
749	0.046
750	0.046
750	0.046
751	0.045
751	0.045
751	0.045
752	0.044
752	0.043
753	0.042
753	0.042
754	0.041
754	0.04
754	0.04
755	0.04
755	0.04
756	0.04
756	0.039
757	0.038
757	0.037
758	0.036
758	0.035
758	0.034
759	0.034
759	0.032
760	0.03
760	0.027
761	0.025
761	0.023
761	0.022
762	0.02
762	0.019
763	0.018
763	0.017
764	0.015
764	0.012
764	0.01
765	0.008
765	0.006
766	0.004
766	0.003
767	0.002
767	0
768	-0.002
768	-0.005
768	-0.006
769	-0.007
769	-0.007
770	-0.008
770	-0.009
771	-0.011
771	-0.013
771	-0.016
772	-0.019
772	-0.022
773	-0.024
773	-0.028
774	-0.031
774	-0.035
775	-0.039
775	-0.043
775	-0.048
776	-0.052
776	-0.057
777	-0.061
777	-0.065
778	-0.069
778	-0.074
778	-0.079
779	-0.083
779	-0.084
780	-0.087
780	-0.091
781	-0.094
781	-0.097
781	-0.1
782	-0.103
782	-0.108
783	-0.111
783	-0.113
784	-0.114
784	-0.117
784	-0.119
785	-0.121
785	-0.123
786	-0.123
786	-0.121
787	-0.117
787	-0.112
788	-0.111
788	-0.112
788	-0.112
789	-0.114
789	-0.113
790	-0.109
790	-0.107
791	-0.108
791	-0.109
791	-0.111
792	-0.106
792	-0.096
793	-0.091
793	-0.088
794	-0.086
794	-0.089
794	-0.093
795	-0.095
795	-0.095
796	-0.096
796	-0.098
797	-0.107
797	-0.116
797	-0.122
798	-0.127
798	-0.13
799	-0.131
799	-0.13
800	-0.13
800	-0.133
801	-0.136
801	-0.137
801	-0.138
802	-0.139
802	-0.141
803	-0.141
803	-0.142
804	-0.141
804	-0.136
804	-0.129
805	-0.125
805	-0.123
806	-0.12
806	-0.119
807	-0.118
807	-0.117
807	-0.117
808	-0.117
808	-0.118
809	-0.122
809	-0.128
810	-0.131
810	-0.134
810	-0.137
811	-0.139
811	-0.139
812	-0.135
812	-0.131
813	-0.131
813	-0.131
813	-0.131
814	-0.131
814	-0.131
815	-0.128
815	-0.126
816	-0.124
816	-0.124
817	-0.129
817	-0.132
817	-0.133
818	-0.133
818	-0.13
819	-0.125
819	-0.122
820	-0.124
820	-0.126
820	-0.126
821	-0.124
821	-0.12
822	-0.116
822	-0.112
823	-0.106
823	-0.103
823	-0.101
824	-0.097
824	-0.089
825	-0.079
825	-0.07
826	-0.062
826	-0.055
826	-0.049
827	-0.043
827	-0.038
828	-0.033
828	-0.029
829	-0.026
829	-0.022
829	-0.02
830	-0.018
830	-0.016
831	-0.014
831	-0.012
832	-0.01
832	-0.009
832	-0.007
833	-0.006
833	-0.004
834	-0.003
834	-0.002
835	-0.001
835	-0
835	0
836	0.001
836	0.002
837	0.002
837	0.002
838	0.003
838	0.003
839	0.003
839	0.004
839	0.004
840	0.005
840	0.006
841	0.006
841	0.007
842	0.009
842	0.01
842	0.011
843	0.012
843	0.013
844	0.014
844	0.015
845	0.017
845	0.018
845	0.019
846	0.02
846	0.021
847	0.023
847	0.024
848	0.025
848	0.025
848	0.026
849	0.026
849	0.026
850	0.026
850	0.026
851	0.026
851	0.026
851	0.025
852	0.025
852	0.024
853	0.024
853	0.023
854	0.023
854	0.023
854	0.023
855	0.023
855	0.023
856	0.024
856	0.024
857	0.024
857	0.025
857	0.025
858	0.026
858	0.026
859	0.027
859	0.028
860	0.029
860	0.03
860	0.031
861	0.032
861	0.032
862	0.033
862	0.034
863	0.035
863	0.035
863	0.035
864	0.035
864	0.036
865	0.036
865	0.036
866	0.036
866	0.037
866	0.037
867	0.037
867	0.037
868	0.038
868	0.038
869	0.038
869	0.038
869	0.038
870	0.038
870	0.038
871	0.038
871	0.037
872	0.037
872	0.036
872	0.036
873	0.036
873	0.035
874	0.035
874	0.034
875	0.034
875	0.033
875	0.032
876	0.032
876	0.031
877	0.03
877	0.03
878	0.029
878	0.029
878	0.029
879	0.029
879	0.029
880	0.029
880	0.03
881	0.031
881	0.032
881	0.033
882	0.035
882	0.036
883	0.037
883	0.039
884	0.04
884	0.041
884	0.041
885	0.042
885	0.042
886	0.042
886	0.042
887	0.042
887	0.042
887	0.042
888	0.042
888	0.042
889	0.042
889	0.042
890	0.042
890	0.042
890	0.042
891	0.042
891	0.042
892	0.042
892	0.042
893	0.042
893	0.041
893	0.041
894	0.04
894	0.04
895	0.039
895	0.039
895	0.038
896	0.037
896	0.037
897	0.037
897	0.037
898	0.037
898	0.037
898	0.037
899	0.038
899	0.038
900	0.039
900	0.039
901	0.04
901	0.041
901	0.041
902	0.042
902	0.042
903	0.042
903	0.043
904	0.043
904	0.043
904	0.043
905	0.044
905	0.044
906	0.044
906	0.044
907	0.044
907	0.044
907	0.045
908	0.045
908	0.045
909	0.045
909	0.046
910	0.046
910	0.046
910	0.047
911	0.047
911	0.048
912	0.048
912	0.048
913	0.048
913	0.048
913	0.048
914	0.048
914	0.047
915	0.047
915	0.047
916	0.046
916	0.046
916	0.045
917	0.045
917	0.045
918	0.045
918	0.045
918	0.045
919	0.045
919	0.045
920	0.045
920	0.046
921	0.046
921	0.046
921	0.045
922	0.045
922	0.045
923	0.045
923	0.044
924	0.044
924	0.043
924	0.043
925	0.043
925	0.043
926	0.043
926	0.043
927	0.043
927	0.043
927	0.043
928	0.043
928	0.043
929	0.044
929	0.044
930	0.044
930	0.044
930	0.044
931	0.044
931	0.044
932	0.044
932	0.044
933	0.044
933	0.045
933	0.045
934	0.045
934	0.046
935	0.046
935	0.047
935	0.047
936	0.048
936	0.049
937	0.05
937	0.051
938	0.051
938	0.052
938	0.053
939	0.054
939	0.055
940	0.056
940	0.057
941	0.058
941	0.059
941	0.06
942	0.061
942	0.061
943	0.062
943	0.062
944	0.062
944	0.062
944	0.062
945	0.062
945	0.062
946	0.061
946	0.06
946	0.06
947	0.059
947	0.058
948	0.057
948	0.056
949	0.056
949	0.055
949	0.054
950	0.053
950	0.053
951	0.052
951	0.052
952	0.052
952	0.053
952	0.053
953	0.053
953	0.054
954	0.054
954	0.055
955	0.055
955	0.056
955	0.056
956	0.056
956	0.056
957	0.056
957	0.056
957	0.055
958	0.055
958	0.054
959	0.053
959	0.053
960	0.052
960	0.052
960	0.052
961	0.051
961	0.051
962	0.051
962	0.051
963	0.051
963	0.052
963	0.052
964	0.052
964	0.053
965	0.053
965	0.054
966	0.054
966	0.055
966	0.056
967	0.056
967	0.057
968	0.057
968	0.057
968	0.057
969	0.057
969	0.057
970	0.057
970	0.057
971	0.057
971	0.057
971	0.057
972	0.057
972	0.057
973	0.057
973	0.057
974	0.057
974	0.057
974	0.056
975	0.056
975	0.055
976	0.054
976	0.053
976	0.051
977	0.05
977	0.049
978	0.048
978	0.047
979	0.047
979	0.046
979	0.046
980	0.046
980	0.046
981	0.046
981	0.046
982	0.047
982	0.047
982	0.048
983	0.049
983	0.05
984	0.051
984	0.052
984	0.052
985	0.053
985	0.054
986	0.054
986	0.054
987	0.055
987	0.055
987	0.055
988	0.055
988	0.055
989	0.054
989	0.054
990	0.054
990	0.053
990	0.053
991	0.052
991	0.052
992	0.051
992	0.051
992	0.05
993	0.05
993	0.049
994	0.048
994	0.048
995	0.047
995	0.046
995	0.046
996	0.046
996	0.045
997	0.046
997	0.046
997	0.046
998	0.046
998	0.047
999	0.048
999	0.048
1000	0.048
1000	0.049
1000	0.049
1001	0.049
1001	0.049
1002	0.049
1002	0.05
1003	0.05
1003	0.05
1003	0.05
1004	0.05
1004	0.05
1005	0.05
1005	0.05
1005	0.05
1006	0.05
1006	0.05
1007	0.051
1007	0.051
1008	0.051
1008	0.052
1008	0.053
1009	0.054
1009	0.054
1010	0.055
1010	0.056
1010	0.056
1011	0.057
1011	0.057
1012	0.057
1012	0.057
1013	0.058
1013	0.058
1013	0.057
1014	0.057
1014	0.057
1015	0.056
1015	0.056
1016	0.056
1016	0.056
1016	0.055
1017	0.055
1017	0.055
1018	0.055
1018	0.054
1018	0.055
1019	0.055
1019	0.055
1020	0.055
1020	0.055
1021	0.055
1021	0.055
1021	0.055
1022	0.055
1022	0.054
1023	0.054
1023	0.054
1023	0.053
1024	0.053
1024	0.053
1025	0.052
1025	0.052
1026	0.052
1026	0.052
1026	0.051
1027	0.051
1027	0.051
1028	0.052
1028	0.052
1028	0.052
1029	0.053
1029	0.053
1030	0.053
1030	0.054
1031	0.054
1031	0.055
1031	0.055
1032	0.056
1032	0.056
1033	0.057
1033	0.057
1033	0.057
1034	0.057
1034	0.057
1035	0.057
1035	0.058
1036	0.058
1036	0.059
1036	0.06
1037	0.06
1037	0.061
1038	0.061
1038	0.062
1039	0.063
1039	0.063
1039	0.064
1040	0.064
1040	0.064
1041	0.064
1041	0.064
1041	0.063
1042	0.063
1042	0.063
1043	0.063
1043	0.063
1044	0.063
1044	0.063
1044	0.064
1045	0.064
1045	0.065
1046	0.065
1046	0.066
1046	0.067
1047	0.069
1047	0.07
1048	0.071
1048	0.072
1049	0.072
1049	0.073
1049	0.074
1050	0.075
1050	0.076
1051	0.077
1051	0.078
1051	0.079
1052	0.08
1052	0.081
1053	0.083
1053	0.084
1053	0.086
1054	0.087
1054	0.089
1055	0.09
1055	0.091
1056	0.092
1056	0.093
1056	0.093
1057	0.094
1057	0.095
1058	0.096
1058	0.097
1058	0.098
1059	0.099
1059	0.1
1060	0.101
1060	0.102
1061	0.102
1061	0.103
1061	0.103
1062	0.103
1062	0.103
1063	0.103
1063	0.103
1063	0.103
1064	0.103
1064	0.104
1065	0.104
1065	0.105
1066	0.106
1066	0.106
1066	0.107
1067	0.107
1067	0.108
1068	0.109
1068	0.109
1068	0.109
1069	0.11
1069	0.11
1070	0.111
1070	0.112
1071	0.113
1071	0.115
1071	0.116
1072	0.118
1072	0.12
1073	0.122
1073	0.124
1073	0.125
1074	0.128
1074	0.129
1075	0.131
1075	0.134
1076	0.136
1076	0.139
1076	0.142
1077	0.145
1077	0.148
1078	0.151
1078	0.155
1078	0.157
1079	0.161
1079	0.164
1080	0.167
1080	0.169
1080	0.172
1081	0.174
1081	0.177
1082	0.18
1082	0.184
1083	0.187
1083	0.192
1083	0.197
1084	0.202
1084	0.207
1085	0.212
1085	0.217
1085	0.223
1086	0.228
1086	0.233
1087	0.238
1087	0.243
1088	0.248
1088	0.255
1088	0.261
1089	0.269
1089	0.276
1090	0.285
1090	0.294
1090	0.305
1091	0.316
1091	0.328
1092	0.341
1092	0.355
1092	0.369
1093	0.383
1093	0.4
1094	0.417
1094	0.437
1095	0.46
1095	0.486
1095	0.515
1096	0.548
1096	0.588
1097	0.63
1097	0.683
1097	0.746
1098	0.82
1098	0.915
1099	1.042
1099	1.227
1100	1.586
1100	-0
1100	-0
1101	-0
1101	-0
1102	-0
1102	-0
1102	-0
1103	-0
1103	-0
1104	-0
1104	-0
1104	-0
1105	-0
1105	-0
1106	-0
1106	-0
1107	-0
1107	-0
1107	-0
1108	-0
1108	-0
1109	-0
1109	-0
1109	-0
1110	-0
1110	-0
1111	-0
1111	-0
